#wls	flux	fluxerr
1.592848E+03	3.114712E-04	1.055689E-05
1.632669E+03	3.207204E-04	1.081819E-05
1.672491E+03	3.292844E-04	1.105221E-05
1.712312E+03	3.370420E-04	1.125512E-05
1.752133E+03	3.438381E-04	1.142206E-05
1.791954E+03	3.493063E-04	1.154134E-05
1.831775E+03	3.528376E-04	1.159356E-05
1.871597E+03	3.538784E-04	1.156164E-05
1.911418E+03	3.517899E-04	1.142618E-05
1.951239E+03	3.461694E-04	1.117600E-05
1.991060E+03	3.372564E-04	1.082089E-05
2.030881E+03	3.265421E-04	1.041046E-05
2.070703E+03	3.170345E-04	1.004122E-05
2.110524E+03	3.127915E-04	9.840177E-06
2.150345E+03	3.175707E-04	9.921398E-06
2.190166E+03	3.331271E-04	1.033336E-05
2.229987E+03	3.587738E-04	1.104748E-05
2.269809E+03	3.921102E-04	1.198315E-05
2.309630E+03	4.302569E-04	1.304722E-05
2.349451E+03	4.708289E-04	1.416398E-05
2.389272E+03	5.122719E-04	1.528470E-05
2.429093E+03	5.537945E-04	1.638470E-05
2.468915E+03	5.952318E-04	1.745846E-05
2.508736E+03	6.366951E-04	1.850867E-05
2.548557E+03	6.785391E-04	1.954491E-05
2.588378E+03	7.211418E-04	2.057702E-05
2.628199E+03	7.649540E-04	2.161651E-05
2.668021E+03	8.103956E-04	2.267346E-05
2.707842E+03	8.578980E-04	2.375780E-05
2.747663E+03	9.079025E-04	2.487917E-05
2.787484E+03	9.608332E-04	2.604617E-05
2.827305E+03	1.017124E-03	2.726710E-05
2.867127E+03	1.077277E-03	2.855145E-05
2.906948E+03	1.141735E-03	2.990650E-05
2.946769E+03	1.211076E-03	3.134237E-05
2.986590E+03	1.285750E-03	3.286505E-05
2.996546E+03	1.305341E-03	3.326086E-05
3.006501E+03	1.325280E-03	3.366198E-05
3.016456E+03	1.345569E-03	3.406835E-05
3.026411E+03	1.366294E-03	3.448208E-05
3.036367E+03	1.387519E-03	3.490462E-05
3.046322E+03	1.409341E-03	3.533828E-05
3.056277E+03	1.431763E-03	3.578300E-05
3.066233E+03	1.454732E-03	3.623724E-05
3.076188E+03	1.478221E-03	3.670022E-05
3.086143E+03	1.502264E-03	3.717261E-05
3.096099E+03	1.526774E-03	3.765212E-05
3.106054E+03	1.551753E-03	3.813868E-05
3.116009E+03	1.577141E-03	3.863065E-05
3.125964E+03	1.603002E-03	3.912952E-05
3.135920E+03	1.629207E-03	3.963200E-05
3.145875E+03	1.655755E-03	4.013794E-05
3.155830E+03	1.682637E-03	4.064705E-05
3.165786E+03	1.709815E-03	4.115829E-05
3.175741E+03	1.737180E-03	4.166897E-05
3.185696E+03	1.764781E-03	4.218018E-05
3.195652E+03	1.792498E-03	4.268899E-05
3.205607E+03	1.820309E-03	4.319485E-05
3.215562E+03	1.848119E-03	4.369547E-05
3.225517E+03	1.875893E-03	4.418998E-05
3.235473E+03	1.903556E-03	4.467665E-05
3.245428E+03	1.931029E-03	4.515365E-05
3.255383E+03	1.958193E-03	4.561821E-05
3.265339E+03	1.984988E-03	4.606906E-05
3.275294E+03	2.011315E-03	4.650394E-05
3.285249E+03	2.037034E-03	4.691975E-05
3.295205E+03	2.062065E-03	4.731483E-05
3.305160E+03	2.086257E-03	4.768587E-05
3.315115E+03	2.109515E-03	4.803094E-05
3.325070E+03	2.131674E-03	4.834655E-05
3.335026E+03	2.152602E-03	4.862999E-05
3.344981E+03	2.172158E-03	4.887840E-05
3.354936E+03	2.190204E-03	4.908905E-05
3.364892E+03	2.206595E-03	4.925914E-05
3.374847E+03	2.221162E-03	4.938533E-05
3.384802E+03	2.233806E-03	4.946590E-05
3.394758E+03	2.244331E-03	4.949709E-05
3.404713E+03	2.252689E-03	4.947839E-05
3.414668E+03	2.258709E-03	4.940667E-05
3.424623E+03	2.262309E-03	4.928079E-05
3.434579E+03	2.263420E-03	4.909989E-05
3.444534E+03	2.261967E-03	4.886305E-05
3.454489E+03	2.257960E-03	4.857118E-05
3.464445E+03	2.251374E-03	4.822450E-05
3.474400E+03	2.242217E-03	4.782384E-05
3.484355E+03	2.230555E-03	4.737139E-05
3.494311E+03	2.216470E-03	4.686951E-05
3.504266E+03	2.200133E-03	4.632254E-05
3.514221E+03	2.181649E-03	4.573329E-05
3.524176E+03	2.161281E-03	4.510786E-05
3.534132E+03	2.139281E-03	4.445203E-05
3.544087E+03	2.115968E-03	4.377287E-05
3.554042E+03	2.091663E-03	4.307738E-05
3.563998E+03	2.066746E-03	4.237362E-05
3.573953E+03	2.041679E-03	4.167123E-05
3.583908E+03	2.016835E-03	4.097783E-05
3.593864E+03	1.992614E-03	4.030150E-05
3.603819E+03	1.969361E-03	3.964899E-05
3.613774E+03	1.947405E-03	3.902666E-05
3.623729E+03	1.927122E-03	3.844164E-05
3.633685E+03	1.908915E-03	3.790148E-05
3.643640E+03	1.893148E-03	3.741281E-05
3.653595E+03	1.880247E-03	3.698331E-05
3.663551E+03	1.870553E-03	3.661887E-05
3.673506E+03	1.864452E-03	3.632616E-05
3.683461E+03	1.862309E-03	3.611121E-05
3.693417E+03	1.864486E-03	3.597992E-05
3.703372E+03	1.871292E-03	3.593705E-05
3.713327E+03	1.883064E-03	3.598773E-05
3.723282E+03	1.900091E-03	3.613606E-05
3.733238E+03	1.922663E-03	3.638609E-05
3.743193E+03	1.951020E-03	3.674077E-05
3.753148E+03	1.985382E-03	3.720263E-05
3.763104E+03	2.025900E-03	3.777278E-05
3.773059E+03	2.072664E-03	3.845117E-05
3.783014E+03	2.125731E-03	3.923715E-05
3.792970E+03	2.184964E-03	4.012640E-05
3.802925E+03	2.250184E-03	4.111393E-05
3.812880E+03	2.321080E-03	4.219242E-05
3.822835E+03	2.397109E-03	4.335050E-05
3.832791E+03	2.477604E-03	4.457470E-05
3.842746E+03	2.561729E-03	4.584886E-05
3.852701E+03	2.648440E-03	4.715335E-05
3.862657E+03	2.736521E-03	4.846595E-05
3.872612E+03	2.824601E-03	4.976213E-05
3.882567E+03	2.911242E-03	5.101674E-05
3.892523E+03	2.994913E-03	5.220349E-05
3.902478E+03	3.074091E-03	5.329685E-05
3.912433E+03	3.147293E-03	5.427256E-05
3.922388E+03	3.213159E-03	5.510898E-05
3.932344E+03	3.270552E-03	5.578879E-05
3.942299E+03	3.318537E-03	5.629853E-05
3.952254E+03	3.356415E-03	5.662912E-05
3.962210E+03	3.383909E-03	5.677872E-05
3.972165E+03	3.400946E-03	5.674907E-05
3.982120E+03	3.407812E-03	5.654785E-05
3.992076E+03	3.405066E-03	5.618716E-05
4.002031E+03	3.393466E-03	5.568212E-05
4.011986E+03	3.374032E-03	5.505188E-05
4.021941E+03	3.347827E-03	5.431587E-05
4.031897E+03	3.316034E-03	5.349508E-05
4.041852E+03	3.279813E-03	5.260968E-05
4.051807E+03	3.240288E-03	5.167883E-05
4.061763E+03	3.198503E-03	5.072003E-05
4.071718E+03	3.155441E-03	4.974938E-05
4.081673E+03	3.111904E-03	4.877985E-05
4.091629E+03	3.068600E-03	4.782262E-05
4.101584E+03	3.026171E-03	4.688755E-05
4.111539E+03	2.985027E-03	4.598077E-05
4.121494E+03	2.945550E-03	4.510778E-05
4.131450E+03	2.907996E-03	4.427202E-05
4.141405E+03	2.872531E-03	4.347552E-05
4.151360E+03	2.839251E-03	4.271919E-05
4.161316E+03	2.808207E-03	4.200320E-05
4.171271E+03	2.779407E-03	4.132710E-05
4.181226E+03	2.752837E-03	4.069012E-05
4.191182E+03	2.728491E-03	4.009160E-05
4.201137E+03	2.706362E-03	3.953085E-05
4.211092E+03	2.686447E-03	3.900731E-05
4.221047E+03	2.668790E-03	3.852107E-05
4.231003E+03	2.653504E-03	3.807317E-05
4.240958E+03	2.640701E-03	3.766466E-05
4.250913E+03	2.630477E-03	3.729629E-05
4.260869E+03	2.623021E-03	3.697012E-05
4.270824E+03	2.618509E-03	3.668796E-05
4.280779E+03	2.617128E-03	3.645176E-05
4.290735E+03	2.619079E-03	3.626355E-05
4.300690E+03	2.624526E-03	3.612486E-05
4.310645E+03	2.633678E-03	3.603777E-05
4.320601E+03	2.646615E-03	3.600256E-05
4.330556E+03	2.663475E-03	3.602028E-05
4.340511E+03	2.684316E-03	3.609089E-05
4.350466E+03	2.709178E-03	3.621411E-05
4.360422E+03	2.738084E-03	3.638943E-05
4.370377E+03	2.771134E-03	3.661739E-05
4.380332E+03	2.808543E-03	3.690004E-05
4.390288E+03	2.850738E-03	3.724212E-05
4.400243E+03	2.898093E-03	3.764763E-05
4.410198E+03	2.950899E-03	3.811941E-05
4.420154E+03	3.009355E-03	3.865906E-05
4.430109E+03	3.073407E-03	3.926495E-05
4.440064E+03	3.142753E-03	3.993234E-05
4.450019E+03	3.216819E-03	4.065321E-05
4.459975E+03	3.294635E-03	4.141472E-05
4.469930E+03	3.374985E-03	4.220127E-05
4.479885E+03	3.456294E-03	4.299317E-05
4.489841E+03	3.536666E-03	4.376716E-05
4.499796E+03	3.614010E-03	4.449810E-05
4.509751E+03	3.686060E-03	4.515918E-05
4.519707E+03	3.750495E-03	4.572352E-05
4.529662E+03	3.805096E-03	4.616591E-05
4.539617E+03	3.847793E-03	4.646347E-05
4.549572E+03	3.876848E-03	4.659766E-05
4.559528E+03	3.891171E-03	4.655797E-05
4.569483E+03	3.890086E-03	4.633898E-05
4.579438E+03	3.873588E-03	4.594319E-05
4.589394E+03	3.842490E-03	4.538264E-05
4.599349E+03	3.798163E-03	4.467564E-05
4.609304E+03	3.742345E-03	4.384439E-05
4.619260E+03	3.677396E-03	4.291789E-05
4.629215E+03	3.605619E-03	4.192395E-05
4.639170E+03	3.529541E-03	4.089252E-05
4.649125E+03	3.451490E-03	3.985071E-05
4.659081E+03	3.373553E-03	3.882249E-05
4.669036E+03	3.297457E-03	3.782733E-05
4.678991E+03	3.224482E-03	3.687939E-05
4.688947E+03	3.155519E-03	3.598817E-05
4.698902E+03	3.090835E-03	3.515604E-05
4.708857E+03	3.030191E-03	3.437961E-05
4.718813E+03	2.972871E-03	3.365017E-05
4.728768E+03	2.917598E-03	3.295276E-05
4.738723E+03	2.862791E-03	3.226915E-05
4.748678E+03	2.806449E-03	3.157641E-05
4.758634E+03	2.746802E-03	3.085432E-05
4.768589E+03	2.683226E-03	3.009562E-05
4.778544E+03	2.617540E-03	2.932042E-05
4.788500E+03	2.552151E-03	2.855527E-05
4.798455E+03	2.489116E-03	2.782268E-05
4.808410E+03	2.429956E-03	2.713914E-05
4.818366E+03	2.375841E-03	2.651717E-05
4.828321E+03	2.327522E-03	2.596468E-05
4.838276E+03	2.285414E-03	2.548584E-05
4.848231E+03	2.249685E-03	2.508215E-05
4.858187E+03	2.220322E-03	2.475315E-05
4.868142E+03	2.197107E-03	2.449617E-05
4.878097E+03	2.179770E-03	2.430801E-05
4.888053E+03	2.167927E-03	2.418428E-05
4.898008E+03	2.161229E-03	2.412098E-05
4.907963E+03	2.159287E-03	2.411374E-05
4.917919E+03	2.161699E-03	2.415807E-05
4.927874E+03	2.168131E-03	2.425025E-05
4.937829E+03	2.178255E-03	2.438666E-05
4.947784E+03	2.191862E-03	2.456504E-05
4.957740E+03	2.208766E-03	2.478337E-05
4.967695E+03	2.228847E-03	2.504040E-05
4.977650E+03	2.251999E-03	2.533507E-05
4.987606E+03	2.278208E-03	2.566734E-05
4.997561E+03	2.307373E-03	2.603622E-05
5.007516E+03	2.339430E-03	2.644115E-05
5.017472E+03	2.374323E-03	2.688164E-05
5.027427E+03	2.411936E-03	2.735657E-05
5.037382E+03	2.452155E-03	2.786482E-05
5.047337E+03	2.494855E-03	2.840515E-05
5.057293E+03	2.539922E-03	2.897645E-05
5.067248E+03	2.587239E-03	2.957755E-05
5.077203E+03	2.636724E-03	3.020771E-05
5.087159E+03	2.688301E-03	3.086622E-05
5.097114E+03	2.741788E-03	3.155118E-05
5.107069E+03	2.797079E-03	3.226154E-05
5.117025E+03	2.853868E-03	3.299391E-05
5.126980E+03	2.911947E-03	3.374603E-05
5.136935E+03	2.970956E-03	3.451383E-05
5.146890E+03	3.030491E-03	3.529271E-05
5.156846E+03	3.090089E-03	3.607733E-05
5.166801E+03	3.149175E-03	3.686094E-05
5.176756E+03	3.207148E-03	3.763646E-05
5.186712E+03	3.263326E-03	3.839576E-05
5.196667E+03	3.317087E-03	3.913133E-05
5.206622E+03	3.367619E-03	3.983333E-05
5.216578E+03	3.414263E-03	4.049360E-05
5.226533E+03	3.456332E-03	4.110360E-05
5.236488E+03	3.493215E-03	4.165555E-05
5.246443E+03	3.524403E-03	4.214283E-05
5.256399E+03	3.549604E-03	4.256134E-05
5.266354E+03	3.568568E-03	4.290743E-05
5.276309E+03	3.581298E-03	4.318047E-05
5.286265E+03	3.587887E-03	4.338089E-05
5.296220E+03	3.588563E-03	4.351081E-05
5.306175E+03	3.583541E-03	4.357214E-05
5.316131E+03	3.573150E-03	4.356829E-05
5.326086E+03	3.557728E-03	4.350277E-05
5.336041E+03	3.537744E-03	4.338077E-05
5.345996E+03	3.513545E-03	4.320601E-05
5.355952E+03	3.485656E-03	4.298446E-05
5.365907E+03	3.454663E-03	4.272297E-05
5.375862E+03	3.421157E-03	4.242849E-05
5.385818E+03	3.385600E-03	4.210643E-05
5.395773E+03	3.348496E-03	4.176284E-05
5.405728E+03	3.310262E-03	4.140272E-05
5.415684E+03	3.271077E-03	4.102817E-05
5.425639E+03	3.231188E-03	4.064217E-05
5.435594E+03	3.190634E-03	4.024509E-05
5.445549E+03	3.149401E-03	3.983667E-05
5.455505E+03	3.107552E-03	3.941761E-05
5.465460E+03	3.065003E-03	3.898672E-05
5.475415E+03	3.021978E-03	3.854675E-05
5.485371E+03	2.979035E-03	3.810475E-05
5.495326E+03	2.936915E-03	3.767018E-05
5.505281E+03	2.896135E-03	3.724973E-05
5.515237E+03	2.857218E-03	3.685028E-05
5.525192E+03	2.820521E-03	3.647658E-05
5.535147E+03	2.786426E-03	3.613382E-05
5.545102E+03	2.755150E-03	3.582507E-05
5.555058E+03	2.726949E-03	3.555392E-05
5.565013E+03	2.702030E-03	3.532341E-05
5.574968E+03	2.680658E-03	3.513732E-05
5.584924E+03	2.663010E-03	3.499832E-05
5.594879E+03	2.649297E-03	3.490957E-05
5.604834E+03	2.639712E-03	3.487402E-05
5.614790E+03	2.634399E-03	3.489397E-05
5.624745E+03	2.633484E-03	3.497152E-05
5.634700E+03	2.637008E-03	3.510762E-05
5.644655E+03	2.645011E-03	3.530328E-05
5.654611E+03	2.657480E-03	3.555871E-05
5.664566E+03	2.674325E-03	3.587317E-05
5.674521E+03	2.695397E-03	3.624502E-05
5.684477E+03	2.720473E-03	3.667170E-05
5.694432E+03	2.749333E-03	3.715057E-05
5.704387E+03	2.781577E-03	3.767655E-05
5.714343E+03	2.816862E-03	3.824528E-05
5.724298E+03	2.854756E-03	3.885116E-05
5.734253E+03	2.894753E-03	3.948748E-05
5.744209E+03	2.936340E-03	4.014740E-05
5.754164E+03	2.978965E-03	4.082347E-05
5.764119E+03	3.021954E-03	4.150649E-05
5.774074E+03	3.064606E-03	4.218681E-05
5.784030E+03	3.106253E-03	4.285515E-05
5.793985E+03	3.146059E-03	4.349982E-05
5.803940E+03	3.183290E-03	4.411044E-05
5.813896E+03	3.217217E-03	4.467665E-05
5.823851E+03	3.247153E-03	4.518854E-05
5.833806E+03	3.272502E-03	4.563746E-05
5.843762E+03	3.292673E-03	4.601470E-05
5.853717E+03	3.307317E-03	4.631491E-05
5.863672E+03	3.316077E-03	4.653259E-05
5.873627E+03	3.318758E-03	4.666453E-05
5.883583E+03	3.315286E-03	4.670912E-05
5.893538E+03	3.305683E-03	4.666622E-05
5.903493E+03	3.290107E-03	4.653750E-05
5.913449E+03	3.268686E-03	4.632434E-05
5.923404E+03	3.241698E-03	4.603022E-05
5.933359E+03	3.209558E-03	4.566062E-05
5.943315E+03	3.172701E-03	4.522135E-05
5.953270E+03	3.131547E-03	4.471808E-05
5.963225E+03	3.086772E-03	4.416015E-05
5.973180E+03	3.038901E-03	4.355487E-05
5.983136E+03	2.988723E-03	4.291335E-05
5.993091E+03	2.936943E-03	4.224559E-05
6.003046E+03	2.884384E-03	4.156339E-05
6.013002E+03	2.831903E-03	4.087909E-05
6.022957E+03	2.780314E-03	4.020453E-05
6.032912E+03	2.730437E-03	3.955168E-05
6.042868E+03	2.682957E-03	3.893066E-05
6.052823E+03	2.638670E-03	3.835327E-05
6.062778E+03	2.598125E-03	3.782776E-05
6.072733E+03	2.561940E-03	3.736347E-05
6.082689E+03	2.530556E-03	3.696718E-05
6.092644E+03	2.504305E-03	3.664414E-05
6.102599E+03	2.483422E-03	3.639819E-05
6.112555E+03	2.468035E-03	3.623161E-05
6.122510E+03	2.458044E-03	3.614338E-05
6.132465E+03	2.453185E-03	3.612998E-05
6.142421E+03	2.453021E-03	3.618538E-05
6.152376E+03	2.456757E-03	3.629817E-05
6.162331E+03	2.463428E-03	3.645435E-05
6.172286E+03	2.471801E-03	3.663586E-05
6.182242E+03	2.480423E-03	3.682123E-05
6.192197E+03	2.487631E-03	3.698576E-05
6.202152E+03	2.491785E-03	3.710489E-05
6.212108E+03	2.491583E-03	3.715901E-05
6.222063E+03	2.486499E-03	3.713992E-05
6.232018E+03	2.477081E-03	3.705553E-05
6.241974E+03	2.464358E-03	3.692089E-05
6.251929E+03	2.449533E-03	3.675388E-05
6.261884E+03	2.433702E-03	3.657078E-05
6.271839E+03	2.417815E-03	3.638585E-05
6.281795E+03	2.402680E-03	3.621125E-05
6.291750E+03	2.388902E-03	3.605616E-05
6.301705E+03	2.376832E-03	3.592596E-05
6.311661E+03	2.366720E-03	3.582458E-05
6.321616E+03	2.358684E-03	3.575391E-05
6.331571E+03	2.352667E-03	3.571323E-05
6.341527E+03	2.348655E-03	3.570244E-05
6.351482E+03	2.346545E-03	3.572008E-05
6.361437E+03	2.346217E-03	3.576445E-05
6.371392E+03	2.347545E-03	3.583370E-05
6.381348E+03	2.350472E-03	3.592705E-05
6.391303E+03	2.354836E-03	3.604209E-05
6.401258E+03	2.360559E-03	3.617769E-05
6.411214E+03	2.367472E-03	3.633133E-05
6.421169E+03	2.375374E-03	3.649994E-05
6.431124E+03	2.384054E-03	3.668033E-05
6.441080E+03	2.393220E-03	3.686802E-05
6.451035E+03	2.402561E-03	3.705821E-05
6.460990E+03	2.411603E-03	3.724357E-05
6.470945E+03	2.419992E-03	3.741858E-05
6.480901E+03	2.427268E-03	3.757607E-05
6.490856E+03	2.432940E-03	3.770833E-05
6.500811E+03	2.436687E-03	3.781028E-05
6.510767E+03	2.438377E-03	3.787973E-05
6.520722E+03	2.438152E-03	3.791879E-05
6.530677E+03	2.436313E-03	3.793199E-05
6.540633E+03	2.433230E-03	3.792504E-05
6.550588E+03	2.429166E-03	3.790193E-05
6.560543E+03	2.424367E-03	3.786649E-05
6.570498E+03	2.419055E-03	3.782210E-05
6.580454E+03	2.413328E-03	3.777029E-05
6.590409E+03	2.407169E-03	3.771074E-05
6.600364E+03	2.400568E-03	3.764330E-05
6.610320E+03	2.393379E-03	3.756564E-05
6.620275E+03	2.385539E-03	3.747672E-05
6.630230E+03	2.376792E-03	3.737250E-05
6.640186E+03	2.366962E-03	3.725019E-05
6.650141E+03	2.355960E-03	3.710832E-05
6.660096E+03	2.343684E-03	3.694524E-05
6.670051E+03	2.330041E-03	3.675945E-05
6.680007E+03	2.315064E-03	3.655143E-05
6.689962E+03	2.298883E-03	3.632317E-05
6.699917E+03	2.281585E-03	3.607603E-05
6.709873E+03	2.263383E-03	3.581336E-05
6.719828E+03	2.244391E-03	3.553694E-05
6.729783E+03	2.224896E-03	3.525130E-05
6.739739E+03	2.205044E-03	3.495878E-05
6.749694E+03	2.185134E-03	3.466412E-05
6.759649E+03	2.165287E-03	3.436925E-05
6.769604E+03	2.145732E-03	3.407784E-05
6.779560E+03	2.126629E-03	3.379245E-05
6.789515E+03	2.108068E-03	3.351456E-05
6.799470E+03	2.090191E-03	3.324645E-05
6.809426E+03	2.073033E-03	3.298870E-05
6.819381E+03	2.056673E-03	3.274263E-05
6.829336E+03	2.041062E-03	3.250749E-05
6.839292E+03	2.026280E-03	3.228457E-05
6.849247E+03	2.012275E-03	3.207308E-05
6.859202E+03	1.999036E-03	3.187289E-05
6.869157E+03	1.986502E-03	3.168304E-05
6.879113E+03	1.974717E-03	3.150429E-05
6.889068E+03	1.963550E-03	3.133454E-05
6.899023E+03	1.953082E-03	3.117513E-05
6.908979E+03	1.943191E-03	3.102413E-05
6.918934E+03	1.933821E-03	3.088066E-05
6.928889E+03	1.924938E-03	3.074421E-05
6.938845E+03	1.916429E-03	3.061299E-05
6.948800E+03	1.908234E-03	3.048606E-05
6.958755E+03	1.900294E-03	3.036251E-05
6.968710E+03	1.892550E-03	3.024139E-05
6.978666E+03	1.884960E-03	3.012205E-05
6.988621E+03	1.877448E-03	3.000330E-05
6.998576E+03	1.870043E-03	2.988561E-05
7.008532E+03	1.862589E-03	2.976653E-05
7.018487E+03	1.855151E-03	2.964709E-05
7.028442E+03	1.847576E-03	2.952486E-05
7.038398E+03	1.839902E-03	2.940049E-05
7.048353E+03	1.832063E-03	2.927294E-05
7.058308E+03	1.824035E-03	2.914182E-05
7.068263E+03	1.815848E-03	2.900764E-05
7.078219E+03	1.807424E-03	2.886919E-05
7.088174E+03	1.798803E-03	2.872712E-05
7.098129E+03	1.789969E-03	2.858120E-05
7.108085E+03	1.780982E-03	2.843240E-05
7.118040E+03	1.771858E-03	2.828102E-05
7.127995E+03	1.762579E-03	2.812678E-05
7.137951E+03	1.753188E-03	2.797038E-05
7.147906E+03	1.743609E-03	2.781066E-05
7.157861E+03	1.733909E-03	2.764868E-05
7.167817E+03	1.724033E-03	2.748363E-05
7.177772E+03	1.713929E-03	2.731466E-05
7.187727E+03	1.703633E-03	2.714241E-05
7.197682E+03	1.693160E-03	2.696711E-05
7.207638E+03	1.682507E-03	2.678877E-05
7.217593E+03	1.671754E-03	2.660865E-05
7.227548E+03	1.660992E-03	2.642828E-05
7.237504E+03	1.650318E-03	2.624917E-05
7.247459E+03	1.639830E-03	2.607295E-05
7.257414E+03	1.629549E-03	2.589993E-05
7.267370E+03	1.619609E-03	2.573229E-05
7.277325E+03	1.610044E-03	2.557057E-05
7.287280E+03	1.600868E-03	2.541502E-05
7.297235E+03	1.592144E-03	2.526666E-05
7.307191E+03	1.583831E-03	2.512483E-05
7.317146E+03	1.575935E-03	2.498967E-05
7.327101E+03	1.568452E-03	2.486110E-05
7.337057E+03	1.561334E-03	2.473841E-05
7.347012E+03	1.554594E-03	2.462178E-05
7.356967E+03	1.548103E-03	2.450922E-05
7.366923E+03	1.541900E-03	2.440135E-05
7.376878E+03	1.535897E-03	2.429680E-05
7.386833E+03	1.530122E-03	2.419602E-05
7.396788E+03	1.524565E-03	2.409889E-05
7.406744E+03	1.519269E-03	2.400610E-05
7.416699E+03	1.514318E-03	2.391898E-05
7.426654E+03	1.509734E-03	2.383792E-05
7.436610E+03	1.505670E-03	2.376532E-05
7.446565E+03	1.502103E-03	2.370088E-05
7.456520E+03	1.499136E-03	2.364619E-05
7.466476E+03	1.496753E-03	2.360103E-05
7.476431E+03	1.495044E-03	2.356684E-05
7.486386E+03	1.493946E-03	2.354259E-05
7.496341E+03	1.493395E-03	2.352732E-05
7.506297E+03	1.493326E-03	2.351998E-05
7.516252E+03	1.493609E-03	2.351856E-05
7.526207E+03	1.494144E-03	2.352146E-05
7.536163E+03	1.494657E-03	2.352443E-05
7.546118E+03	1.494947E-03	2.352430E-05
7.556073E+03	1.494785E-03	2.351746E-05
7.566029E+03	1.493860E-03	2.349910E-05
7.575984E+03	1.491960E-03	2.346585E-05
7.585939E+03	1.488907E-03	2.341495E-05
7.595894E+03	1.484784E-03	2.334775E-05
7.605850E+03	1.479664E-03	2.326537E-05
7.615805E+03	1.473791E-03	2.317171E-05
7.625760E+03	1.467276E-03	2.306851E-05
7.635716E+03	1.460354E-03	2.295947E-05
7.645671E+03	1.453098E-03	2.284577E-05
7.655626E+03	1.445695E-03	2.273033E-05
7.665582E+03	1.438221E-03	2.261437E-05
7.675537E+03	1.430762E-03	2.249927E-05
7.685492E+03	1.423378E-03	2.238596E-05
7.695447E+03	1.416107E-03	2.227503E-05
7.705403E+03	1.408958E-03	2.216667E-05
7.715358E+03	1.401887E-03	2.206019E-05
7.725313E+03	1.394937E-03	2.195627E-05
