#wls	flux	fluxerr
1.592848E+03	5.806445E-04	2.281528E-05
1.632669E+03	6.034526E-04	2.356634E-05
1.672491E+03	6.253967E-04	2.426951E-05
1.712312E+03	6.462174E-04	2.491500E-05
1.752133E+03	6.655795E-04	2.549042E-05
1.791954E+03	6.827202E-04	2.596751E-05
1.831775E+03	6.963684E-04	2.629964E-05
1.871597E+03	7.053125E-04	2.644393E-05
1.911418E+03	7.081211E-04	2.635074E-05
1.951239E+03	7.037862E-04	2.598792E-05
1.991060E+03	6.925777E-04	2.537151E-05
2.030881E+03	6.773756E-04	2.461233E-05
2.070703E+03	6.643579E-04	2.393679E-05
2.110524E+03	6.621799E-04	2.365224E-05
2.150345E+03	6.792099E-04	2.404479E-05
2.190166E+03	7.198306E-04	2.524951E-05
2.229987E+03	7.832654E-04	2.721562E-05
2.269809E+03	8.649129E-04	2.976086E-05
2.309630E+03	9.589009E-04	3.266508E-05
2.349451E+03	1.060215E-03	3.574453E-05
2.389272E+03	1.165514E-03	3.887797E-05
2.429093E+03	1.273070E-03	4.200188E-05
2.468915E+03	1.382538E-03	4.510027E-05
2.508736E+03	1.494209E-03	4.817812E-05
2.548557E+03	1.608975E-03	5.125890E-05
2.588378E+03	1.727832E-03	5.436800E-05
2.628199E+03	1.852011E-03	5.753625E-05
2.668021E+03	1.982747E-03	6.079259E-05
2.707842E+03	2.121399E-03	6.416732E-05
2.747663E+03	2.269466E-03	6.769244E-05
2.787484E+03	2.428550E-03	7.140012E-05
2.827305E+03	2.600471E-03	7.532569E-05
2.867127E+03	2.787478E-03	7.951308E-05
2.906948E+03	2.992019E-03	8.400736E-05
2.946769E+03	3.217361E-03	8.887115E-05
2.986590E+03	3.467081E-03	9.416892E-05
2.996546E+03	3.533917E-03	9.557283E-05
3.006501E+03	3.602575E-03	9.700874E-05
3.016456E+03	3.673125E-03	9.847782E-05
3.026411E+03	3.745873E-03	9.998751E-05
3.036367E+03	3.821074E-03	1.015437E-04
3.046322E+03	3.899086E-03	1.031549E-04
3.056277E+03	3.980020E-03	1.048230E-04
3.066233E+03	4.063825E-03	1.065455E-04
3.076188E+03	4.150539E-03	1.083223E-04
3.086143E+03	4.240385E-03	1.101580E-04
3.096099E+03	4.333244E-03	1.120483E-04
3.106054E+03	4.429261E-03	1.139958E-04
3.116009E+03	4.528413E-03	1.159986E-04
3.125964E+03	4.631040E-03	1.180642E-04
3.135920E+03	4.736949E-03	1.201863E-04
3.145875E+03	4.846311E-03	1.223679E-04
3.155830E+03	4.959300E-03	1.246119E-04
3.165786E+03	5.076008E-03	1.269193E-04
3.175741E+03	5.196333E-03	1.292860E-04
3.185696E+03	5.320649E-03	1.317199E-04
3.195652E+03	5.448854E-03	1.342167E-04
3.205607E+03	5.581135E-03	1.367795E-04
3.215562E+03	5.717471E-03	1.394063E-04
3.225517E+03	5.858040E-03	1.420995E-04
3.235473E+03	6.002908E-03	1.448591E-04
3.245428E+03	6.152131E-03	1.476847E-04
3.255383E+03	6.305642E-03	1.505729E-04
3.265339E+03	6.463561E-03	1.535249E-04
3.275294E+03	6.625880E-03	1.565386E-04
3.285249E+03	6.792447E-03	1.596086E-04
3.295205E+03	6.963294E-03	1.627339E-04
3.305160E+03	7.138181E-03	1.659072E-04
3.315115E+03	7.317039E-03	1.691252E-04
3.325070E+03	7.499509E-03	1.723779E-04
3.335026E+03	7.685266E-03	1.756565E-04
3.344981E+03	7.873895E-03	1.789501E-04
3.354936E+03	8.064885E-03	1.822459E-04
3.364892E+03	8.257599E-03	1.855286E-04
3.374847E+03	8.451147E-03	1.887774E-04
3.384802E+03	8.644730E-03	1.919742E-04
3.394758E+03	8.837002E-03	1.950892E-04
3.404713E+03	9.026949E-03	1.981005E-04
3.414668E+03	9.212881E-03	2.009721E-04
3.424623E+03	9.393198E-03	2.036707E-04
3.434579E+03	9.566150E-03	2.061609E-04
3.444534E+03	9.729731E-03	2.084024E-04
3.454489E+03	9.882108E-03	2.103600E-04
3.464445E+03	1.002112E-02	2.119923E-04
3.474400E+03	1.014462E-02	2.132593E-04
3.484355E+03	1.025060E-02	2.141256E-04
3.494311E+03	1.033703E-02	2.145559E-04
3.504266E+03	1.040228E-02	2.145242E-04
3.514221E+03	1.044437E-02	2.139987E-04
3.524176E+03	1.046207E-02	2.129636E-04
3.534132E+03	1.045417E-02	2.114042E-04
3.544087E+03	1.041990E-02	2.093157E-04
3.554042E+03	1.035866E-02	2.066966E-04
3.563998E+03	1.027043E-02	2.035573E-04
3.573953E+03	1.015602E-02	1.999251E-04
3.583908E+03	1.001662E-02	1.958338E-04
3.593864E+03	9.855396E-03	1.913553E-04
3.603819E+03	9.676221E-03	1.865729E-04
3.613774E+03	9.483199E-03	1.815728E-04
3.623729E+03	9.280750E-03	1.764446E-04
3.633685E+03	9.073488E-03	1.712795E-04
3.643640E+03	8.865828E-03	1.661621E-04
3.653595E+03	8.662409E-03	1.611792E-04
3.663551E+03	8.467419E-03	1.564063E-04
3.673506E+03	8.285176E-03	1.519194E-04
3.683461E+03	8.119692E-03	1.477864E-04
3.693417E+03	7.974848E-03	1.440707E-04
3.703372E+03	7.854108E-03	1.408261E-04
3.713327E+03	7.760818E-03	1.381024E-04
3.723282E+03	7.697990E-03	1.359418E-04
3.733238E+03	7.668498E-03	1.343822E-04
3.743193E+03	7.674943E-03	1.334554E-04
3.753148E+03	7.719829E-03	1.331902E-04
3.763104E+03	7.805444E-03	1.336100E-04
3.773059E+03	7.933919E-03	1.347347E-04
3.783014E+03	8.107382E-03	1.365828E-04
3.792970E+03	8.327287E-03	1.391603E-04
3.802925E+03	8.594983E-03	1.424710E-04
3.812880E+03	8.911179E-03	1.465073E-04
3.822835E+03	9.275501E-03	1.512434E-04
3.832791E+03	9.686649E-03	1.566392E-04
3.842746E+03	1.014198E-02	1.626335E-04
3.852701E+03	1.063708E-02	1.691384E-04
3.862657E+03	1.116556E-02	1.760377E-04
3.872612E+03	1.171879E-02	1.831832E-04
3.882567E+03	1.228615E-02	1.904009E-04
3.892523E+03	1.285499E-02	1.974911E-04
3.902478E+03	1.341108E-02	2.042371E-04
3.912433E+03	1.393930E-02	2.104163E-04
3.922388E+03	1.442451E-02	2.158140E-04
3.932344E+03	1.485273E-02	2.202407E-04
3.942299E+03	1.521178E-02	2.235410E-04
3.952254E+03	1.549215E-02	2.256044E-04
3.962210E+03	1.568825E-02	2.263824E-04
3.972165E+03	1.579792E-02	2.258778E-04
3.982120E+03	1.582306E-02	2.241526E-04
3.992076E+03	1.576907E-02	2.213161E-04
4.002031E+03	1.564420E-02	2.175145E-04
4.011986E+03	1.545936E-02	2.129262E-04
4.021941E+03	1.522644E-02	2.077372E-04
4.031897E+03	1.495824E-02	2.021391E-04
4.041852E+03	1.466721E-02	1.963125E-04
4.051807E+03	1.436500E-02	1.904205E-04
4.061763E+03	1.406204E-02	1.846041E-04
4.071718E+03	1.376729E-02	1.789802E-04
4.081673E+03	1.348772E-02	1.736352E-04
4.091629E+03	1.322871E-02	1.686318E-04
4.101584E+03	1.299418E-02	1.640118E-04
4.111539E+03	1.278604E-02	1.597894E-04
4.121494E+03	1.260516E-02	1.559657E-04
4.131450E+03	1.245111E-02	1.525253E-04
4.141405E+03	1.232243E-02	1.494407E-04
4.151360E+03	1.221687E-02	1.466756E-04
4.161316E+03	1.213156E-02	1.441877E-04
4.171271E+03	1.206319E-02	1.419310E-04
4.181226E+03	1.200816E-02	1.398577E-04
4.191182E+03	1.196283E-02	1.379215E-04
4.201137E+03	1.192401E-02	1.360828E-04
4.211092E+03	1.188852E-02	1.343038E-04
4.221047E+03	1.185347E-02	1.325515E-04
4.231003E+03	1.181673E-02	1.308025E-04
4.240958E+03	1.177631E-02	1.290362E-04
4.250913E+03	1.173041E-02	1.272342E-04
4.260869E+03	1.167847E-02	1.253931E-04
4.270824E+03	1.162023E-02	1.235123E-04
4.280779E+03	1.155576E-02	1.215949E-04
4.290735E+03	1.148595E-02	1.196525E-04
4.300690E+03	1.141179E-02	1.176971E-04
4.310645E+03	1.133439E-02	1.157417E-04
4.320601E+03	1.125442E-02	1.137941E-04
4.330556E+03	1.117245E-02	1.118604E-04
4.340511E+03	1.108795E-02	1.099355E-04
4.350466E+03	1.099957E-02	1.080064E-04
4.360422E+03	1.090602E-02	1.060612E-04
4.370377E+03	1.080755E-02	1.041032E-04
4.380332E+03	1.070936E-02	1.021828E-04
4.390288E+03	1.062203E-02	1.003995E-04
4.400243E+03	1.055665E-02	9.885390E-05
4.410198E+03	1.052273E-02	9.762792E-05
4.420154E+03	1.052816E-02	9.678570E-05
4.430109E+03	1.057866E-02	9.636954E-05
4.440064E+03	1.067765E-02	9.639906E-05
4.450019E+03	1.082640E-02	9.687430E-05
4.459975E+03	1.102379E-02	9.777405E-05
4.469930E+03	1.126702E-02	9.906309E-05
4.479885E+03	1.155084E-02	1.006862E-04
4.489841E+03	1.186773E-02	1.025704E-04
4.499796E+03	1.220921E-02	1.046373E-04
4.509751E+03	1.256490E-02	1.067949E-04
4.519707E+03	1.292284E-02	1.089410E-04
4.529662E+03	1.327111E-02	1.109772E-04
4.539617E+03	1.359706E-02	1.128022E-04
4.549572E+03	1.388782E-02	1.143161E-04
4.559528E+03	1.413243E-02	1.154377E-04
4.569483E+03	1.432017E-02	1.160899E-04
4.579438E+03	1.444171E-02	1.162094E-04
4.589394E+03	1.449147E-02	1.157639E-04
4.599349E+03	1.446550E-02	1.147352E-04
4.609304E+03	1.436162E-02	1.131188E-04
4.619260E+03	1.418321E-02	1.109540E-04
4.629215E+03	1.393485E-02	1.082872E-04
4.639170E+03	1.362393E-02	1.051856E-04
4.649125E+03	1.326162E-02	1.017429E-04
4.659081E+03	1.286012E-02	9.805768E-05
4.669036E+03	1.243185E-02	9.422800E-05
4.678991E+03	1.199085E-02	9.036114E-05
4.688947E+03	1.154999E-02	8.655315E-05
4.698902E+03	1.111912E-02	8.287515E-05
4.708857E+03	1.070543E-02	7.937632E-05
4.718813E+03	1.031286E-02	7.608091E-05
4.728768E+03	9.940716E-03	7.297871E-05
4.738723E+03	9.583510E-03	7.002506E-05
4.748678E+03	9.233589E-03	6.716048E-05
4.758634E+03	8.884253E-03	6.433363E-05
4.768589E+03	8.533618E-03	6.152892E-05
4.778544E+03	8.195816E-03	5.884610E-05
4.788500E+03	7.887963E-03	5.640475E-05
4.798455E+03	7.620984E-03	5.427859E-05
4.808410E+03	7.401717E-03	5.251137E-05
4.818366E+03	7.233751E-03	5.112343E-05
4.828321E+03	7.115668E-03	5.009972E-05
4.838276E+03	7.043552E-03	4.940805E-05
4.848231E+03	7.012442E-03	4.900952E-05
4.858187E+03	7.016715E-03	4.886126E-05
4.868142E+03	7.049865E-03	4.891495E-05
4.878097E+03	7.105046E-03	4.912062E-05
4.888053E+03	7.175348E-03	4.942859E-05
4.898008E+03	7.253999E-03	4.979085E-05
4.907963E+03	7.334632E-03	5.016281E-05
4.917919E+03	7.412655E-03	5.051262E-05
4.927874E+03	7.484707E-03	5.081726E-05
4.937829E+03	7.548486E-03	5.106122E-05
4.947784E+03	7.604186E-03	5.124606E-05
4.957740E+03	7.652977E-03	5.137988E-05
4.967695E+03	7.696848E-03	5.147620E-05
4.977650E+03	7.738858E-03	5.155546E-05
4.987606E+03	7.782490E-03	5.164065E-05
4.997561E+03	7.830643E-03	5.175053E-05
5.007516E+03	7.886200E-03	5.190348E-05
5.017472E+03	7.951472E-03	5.211381E-05
5.027427E+03	8.027817E-03	5.238938E-05
5.037382E+03	8.116067E-03	5.273445E-05
5.047337E+03	8.216313E-03	5.314841E-05
5.057293E+03	8.328031E-03	5.362666E-05
5.067248E+03	8.450314E-03	5.416224E-05
5.077203E+03	8.582015E-03	5.474671E-05
5.087159E+03	8.721929E-03	5.537146E-05
5.097114E+03	8.868858E-03	5.602807E-05
5.107069E+03	9.022070E-03	5.671121E-05
5.117025E+03	9.180562E-03	5.741398E-05
5.126980E+03	9.344330E-03	5.813588E-05
5.136935E+03	9.513310E-03	5.887605E-05
5.146890E+03	9.687631E-03	5.963488E-05
5.156846E+03	9.867661E-03	6.041425E-05
5.166801E+03	1.005359E-02	6.121498E-05
5.176756E+03	1.024537E-02	6.203649E-05
5.186712E+03	1.044228E-02	6.287415E-05
5.196667E+03	1.064337E-02	6.372219E-05
5.206622E+03	1.084648E-02	6.456786E-05
5.216578E+03	1.104891E-02	6.539556E-05
5.226533E+03	1.124727E-02	6.618607E-05
5.236488E+03	1.143783E-02	6.691876E-05
5.246443E+03	1.161627E-02	6.757027E-05
5.256399E+03	1.177873E-02	6.812030E-05
5.266354E+03	1.192145E-02	6.854997E-05
5.276309E+03	1.204124E-02	6.884401E-05
5.286265E+03	1.213541E-02	6.899069E-05
5.296220E+03	1.220226E-02	6.898393E-05
5.306175E+03	1.224024E-02	6.881883E-05
5.316131E+03	1.224872E-02	6.849582E-05
5.326086E+03	1.222763E-02	6.801830E-05
5.336041E+03	1.217752E-02	6.739303E-05
5.345996E+03	1.209905E-02	6.662711E-05
5.355952E+03	1.199396E-02	6.573341E-05
5.365907E+03	1.186426E-02	6.472580E-05
5.375862E+03	1.171255E-02	6.362092E-05
5.385818E+03	1.154185E-02	6.243718E-05
5.395773E+03	1.135610E-02	6.119744E-05
5.405728E+03	1.115994E-02	5.992784E-05
5.415684E+03	1.095860E-02	5.865705E-05
5.425639E+03	1.075933E-02	5.742388E-05
5.435594E+03	1.056958E-02	5.626790E-05
5.445549E+03	1.039818E-02	5.523508E-05
5.455505E+03	1.025806E-02	5.439176E-05
5.465460E+03	1.015889E-02	5.378627E-05
5.475415E+03	1.010119E-02	5.341871E-05
5.485371E+03	1.007437E-02	5.323088E-05
5.495326E+03	1.006249E-02	5.313688E-05
5.505281E+03	1.004842E-02	5.304479E-05
5.515237E+03	1.002078E-02	5.289336E-05
5.525192E+03	9.970803E-03	5.263503E-05
5.535147E+03	9.892523E-03	5.223683E-05
5.545102E+03	9.783732E-03	5.168559E-05
5.555058E+03	9.645096E-03	5.098319E-05
5.565013E+03	9.479271E-03	5.014200E-05
5.574968E+03	9.291311E-03	4.918708E-05
5.584924E+03	9.087356E-03	4.814940E-05
5.594879E+03	8.874541E-03	4.706536E-05
5.604834E+03	8.660425E-03	4.597387E-05
5.614790E+03	8.452491E-03	4.491369E-05
5.624745E+03	8.257897E-03	4.392213E-05
5.634700E+03	8.082855E-03	4.303172E-05
5.644655E+03	7.932994E-03	4.227210E-05
5.654611E+03	7.812987E-03	4.166796E-05
5.664566E+03	7.726143E-03	4.123686E-05
5.674521E+03	7.674887E-03	4.099165E-05
5.684477E+03	7.660752E-03	4.094043E-05
5.694432E+03	7.684209E-03	4.108558E-05
5.704387E+03	7.744563E-03	4.142312E-05
5.714343E+03	7.840658E-03	4.194649E-05
5.724298E+03	7.970051E-03	4.264212E-05
5.734253E+03	8.129329E-03	4.349108E-05
5.744209E+03	8.314445E-03	4.447092E-05
5.754164E+03	8.520453E-03	4.555426E-05
5.764119E+03	8.741397E-03	4.670826E-05
5.774074E+03	8.970690E-03	4.789671E-05
5.784030E+03	9.201354E-03	4.908137E-05
5.793985E+03	9.425692E-03	5.022030E-05
5.803940E+03	9.636366E-03	5.127374E-05
5.813896E+03	9.826566E-03	5.220499E-05
5.823851E+03	9.990371E-03	5.298249E-05
5.833806E+03	1.012325E-02	5.358247E-05
5.843762E+03	1.022209E-02	5.398901E-05
5.853717E+03	1.028591E-02	5.419784E-05
5.863672E+03	1.031491E-02	5.421131E-05
5.873627E+03	1.031079E-02	5.403981E-05
5.883583E+03	1.027640E-02	5.369991E-05
5.893538E+03	1.021531E-02	5.321203E-05
5.903493E+03	1.013144E-02	5.259827E-05
5.913449E+03	1.002852E-02	5.187982E-05
5.923404E+03	9.910482E-03	5.107867E-05
5.933359E+03	9.780841E-03	5.021454E-05
5.943315E+03	9.642673E-03	4.930468E-05
5.953270E+03	9.498466E-03	4.836319E-05
5.963225E+03	9.350521E-03	4.740304E-05
5.973180E+03	9.200151E-03	4.643204E-05
5.983136E+03	9.048860E-03	4.545888E-05
5.993091E+03	8.896918E-03	4.448592E-05
6.003046E+03	8.744450E-03	4.351481E-05
6.013002E+03	8.591232E-03	4.254544E-05
6.022957E+03	8.436399E-03	4.157455E-05
6.032912E+03	8.278986E-03	4.059848E-05
6.042868E+03	8.117996E-03	3.961346E-05
6.052823E+03	7.953421E-03	3.862062E-05
6.062778E+03	7.785381E-03	3.762165E-05
6.072733E+03	7.615460E-03	3.662525E-05
6.082689E+03	7.446663E-03	3.564667E-05
6.092644E+03	7.282932E-03	3.470535E-05
6.102599E+03	7.129133E-03	3.382470E-05
6.112555E+03	6.991528E-03	3.303433E-05
6.122510E+03	6.876273E-03	3.236286E-05
6.132465E+03	6.788864E-03	3.183546E-05
6.142421E+03	6.733657E-03	3.147179E-05
6.152376E+03	6.712910E-03	3.128166E-05
6.162331E+03	6.726162E-03	3.126227E-05
6.172286E+03	6.768403E-03	3.138960E-05
6.182242E+03	6.830359E-03	3.162039E-05
6.192197E+03	6.897517E-03	3.188774E-05
6.202152E+03	6.950128E-03	3.210105E-05
6.212108E+03	6.969729E-03	3.217589E-05
6.222063E+03	6.952299E-03	3.209437E-05
6.232018E+03	6.909454E-03	3.191035E-05
6.241974E+03	6.857782E-03	3.170037E-05
6.251929E+03	6.813520E-03	3.153945E-05
6.261884E+03	6.784344E-03	3.146331E-05
6.271839E+03	6.774462E-03	3.149198E-05
6.281795E+03	6.786145E-03	3.163688E-05
6.291750E+03	6.818390E-03	3.189452E-05
6.301705E+03	6.868078E-03	3.225169E-05
6.311661E+03	6.931039E-03	3.269026E-05
6.321616E+03	7.002346E-03	3.318838E-05
6.331571E+03	7.076131E-03	3.371937E-05
6.341527E+03	7.146632E-03	3.425654E-05
6.351482E+03	7.209040E-03	3.477706E-05
6.361437E+03	7.258948E-03	3.525909E-05
6.371392E+03	7.292755E-03	3.568314E-05
6.381348E+03	7.309610E-03	3.604240E-05
6.391303E+03	7.309352E-03	3.633312E-05
6.401258E+03	7.292935E-03	3.655688E-05
6.411214E+03	7.263041E-03	3.672396E-05
6.421169E+03	7.222961E-03	3.684810E-05
6.431124E+03	7.176225E-03	3.694479E-05
6.441080E+03	7.126370E-03	3.703017E-05
6.451035E+03	7.076986E-03	3.712139E-05
6.460990E+03	7.031052E-03	3.723308E-05
6.470945E+03	6.991247E-03	3.737896E-05
6.480901E+03	6.959756E-03	3.757069E-05
6.490856E+03	6.938483E-03	3.781894E-05
6.500811E+03	6.929006E-03	3.813306E-05
6.510767E+03	6.931898E-03	3.851724E-05
6.520722E+03	6.946626E-03	3.896960E-05
6.530677E+03	6.972176E-03	3.948551E-05
6.540633E+03	7.007442E-03	4.005960E-05
6.550588E+03	7.050888E-03	4.068383E-05
6.560543E+03	7.100687E-03	4.134812E-05
6.570498E+03	7.154925E-03	4.204151E-05
6.580454E+03	7.211405E-03	4.275095E-05
6.590409E+03	7.267536E-03	4.346060E-05
6.600364E+03	7.320930E-03	4.415529E-05
6.610320E+03	7.369065E-03	4.481857E-05
6.620275E+03	7.409891E-03	4.543643E-05
6.630230E+03	7.441136E-03	4.599309E-05
6.640186E+03	7.461136E-03	4.647619E-05
6.650141E+03	7.468719E-03	4.687621E-05
6.660096E+03	7.463044E-03	4.718560E-05
6.670051E+03	7.443634E-03	4.739905E-05
6.680007E+03	7.410568E-03	4.751488E-05
6.689962E+03	7.364537E-03	4.753548E-05
6.699917E+03	7.306398E-03	4.746454E-05
6.709873E+03	7.237540E-03	4.730951E-05
6.719828E+03	7.159264E-03	4.707761E-05
6.729783E+03	7.073609E-03	4.678123E-05
6.739739E+03	6.982130E-03	4.642999E-05
6.749694E+03	6.886980E-03	4.603775E-05
6.759649E+03	6.789798E-03	4.561534E-05
6.769604E+03	6.692463E-03	4.517547E-05
6.779560E+03	6.596660E-03	4.472978E-05
6.789515E+03	6.503890E-03	4.428893E-05
6.799470E+03	6.415753E-03	4.386436E-05
6.809426E+03	6.333488E-03	4.346527E-05
6.819381E+03	6.258429E-03	4.310156E-05
6.829336E+03	6.191334E-03	4.277925E-05
6.839292E+03	6.133239E-03	4.250629E-05
6.849247E+03	6.084672E-03	4.228711E-05
6.859202E+03	6.046050E-03	4.212536E-05
6.869157E+03	6.017491E-03	4.202252E-05
6.879113E+03	5.999238E-03	4.198086E-05
6.889068E+03	5.990702E-03	4.199678E-05
6.899023E+03	5.991764E-03	4.206982E-05
6.908979E+03	6.001530E-03	4.219399E-05
6.918934E+03	6.019133E-03	4.236339E-05
6.928889E+03	6.043649E-03	4.257161E-05
6.938845E+03	6.073791E-03	4.280960E-05
6.948800E+03	6.108218E-03	4.306787E-05
6.958755E+03	6.145497E-03	4.333621E-05
6.968710E+03	6.184129E-03	4.360394E-05
6.978666E+03	6.222551E-03	4.385990E-05
6.988621E+03	6.259083E-03	4.409216E-05
6.998576E+03	6.292456E-03	4.429174E-05
7.008532E+03	6.320862E-03	4.444589E-05
7.018487E+03	6.343374E-03	4.454822E-05
7.028442E+03	6.358481E-03	4.458830E-05
7.038398E+03	6.365494E-03	4.456160E-05
7.048353E+03	6.363609E-03	4.446294E-05
7.058308E+03	6.352462E-03	4.429029E-05
7.068263E+03	6.332128E-03	4.404483E-05
7.078219E+03	6.302670E-03	4.372773E-05
7.088174E+03	6.264929E-03	4.334562E-05
7.098129E+03	6.219833E-03	4.290574E-05
7.108085E+03	6.168851E-03	4.241908E-05
7.118040E+03	6.113521E-03	4.189699E-05
7.127995E+03	6.055298E-03	4.135017E-05
7.137951E+03	5.995873E-03	4.079082E-05
7.147906E+03	5.936457E-03	4.022773E-05
7.157861E+03	5.878470E-03	3.967096E-05
7.167817E+03	5.822745E-03	3.912648E-05
7.177772E+03	5.769880E-03	3.859858E-05
7.187727E+03	5.720385E-03	3.809088E-05
7.197682E+03	5.674434E-03	3.760468E-05
7.207638E+03	5.631909E-03	3.713935E-05
7.217593E+03	5.592651E-03	3.669395E-05
7.227548E+03	5.556386E-03	3.626685E-05
7.237504E+03	5.522809E-03	3.585621E-05
7.247459E+03	5.491577E-03	3.545998E-05
7.257414E+03	5.462131E-03	3.507481E-05
7.267370E+03	5.434383E-03	3.470040E-05
7.277325E+03	5.407921E-03	3.433441E-05
7.287280E+03	5.382369E-03	3.397482E-05
7.297235E+03	5.357627E-03	3.362137E-05
7.307191E+03	5.333224E-03	3.327152E-05
7.317146E+03	5.308966E-03	3.292453E-05
7.327101E+03	5.284676E-03	3.257978E-05
7.337057E+03	5.259970E-03	3.223542E-05
7.347012E+03	5.234726E-03	3.189127E-05
7.356967E+03	5.208433E-03	3.154480E-05
7.366923E+03	5.181038E-03	3.119630E-05
7.376878E+03	5.152129E-03	3.084392E-05
7.386833E+03	5.121703E-03	3.048831E-05
7.396788E+03	5.089439E-03	3.012821E-05
7.406744E+03	5.055223E-03	2.976360E-05
7.416699E+03	5.019174E-03	2.939584E-05
7.426654E+03	4.981198E-03	2.902497E-05
7.436610E+03	4.941734E-03	2.865415E-05
7.446565E+03	4.900803E-03	2.828399E-05
7.456520E+03	4.858942E-03	2.791772E-05
7.466476E+03	4.816447E-03	2.755679E-05
7.476431E+03	4.774136E-03	2.720560E-05
7.486386E+03	4.732509E-03	2.686663E-05
7.496341E+03	4.692239E-03	2.654334E-05
7.506297E+03	4.654100E-03	2.623972E-05
7.516252E+03	4.618559E-03	2.595799E-05
7.526207E+03	4.586228E-03	2.570116E-05
7.536163E+03	4.557137E-03	2.546903E-05
7.546118E+03	4.531197E-03	2.526072E-05
7.556073E+03	4.508159E-03	2.507451E-05
7.566029E+03	4.487549E-03	2.490752E-05
7.575984E+03	4.469142E-03	2.475823E-05
7.585939E+03	4.452515E-03	2.462412E-05
7.595894E+03	4.437198E-03	2.450246E-05
7.605850E+03	4.422404E-03	2.438875E-05
7.615805E+03	4.407912E-03	2.428172E-05
7.625760E+03	4.393252E-03	2.417871E-05
7.635716E+03	4.378570E-03	2.408050E-05
7.645671E+03	4.363712E-03	2.398623E-05
7.655626E+03	4.349005E-03	2.389768E-05
7.665582E+03	4.334582E-03	2.381561E-05
7.675537E+03	4.320734E-03	2.374164E-05
7.685492E+03	4.307792E-03	2.367764E-05
7.695447E+03	4.296110E-03	2.362565E-05
7.705403E+03	4.286011E-03	2.358753E-05
7.715358E+03	4.277654E-03	2.356430E-05
7.725313E+03	4.271405E-03	2.355812E-05
