#wls	flux	fluxerr
1.592848E+03	2.884648E-04	1.867194E-05
1.632669E+03	2.967624E-04	1.911084E-05
1.672491E+03	3.043924E-04	1.949908E-05
1.712312E+03	3.112426E-04	1.982995E-05
1.752133E+03	3.171702E-04	2.009501E-05
1.791954E+03	3.218383E-04	2.027385E-05
1.831775E+03	3.246891E-04	2.033274E-05
1.871597E+03	3.252190E-04	2.024223E-05
1.911418E+03	3.228493E-04	1.996914E-05
1.951239E+03	3.172229E-04	1.949492E-05
1.991060E+03	3.085732E-04	1.883781E-05
2.030881E+03	2.982777E-04	1.808522E-05
2.070703E+03	2.890888E-04	1.740516E-05
2.110524E+03	2.846953E-04	1.701693E-05
2.150345E+03	2.884841E-04	1.711530E-05
2.190166E+03	3.019957E-04	1.777993E-05
2.229987E+03	3.245422E-04	1.895698E-05
2.269809E+03	3.538881E-04	2.050367E-05
2.309630E+03	3.873802E-04	2.225700E-05
2.349451E+03	4.228292E-04	2.408522E-05
2.389272E+03	4.588084E-04	2.590377E-05
2.429093E+03	4.945838E-04	2.766966E-05
2.468915E+03	5.299858E-04	2.937264E-05
2.508736E+03	5.650883E-04	3.101623E-05
2.548557E+03	6.001767E-04	3.261528E-05
2.588378E+03	6.355481E-04	3.418467E-05
2.628199E+03	6.715536E-04	3.574145E-05
2.668021E+03	7.085044E-04	3.729977E-05
2.707842E+03	7.467066E-04	3.887273E-05
2.747663E+03	7.864570E-04	4.047219E-05
2.787484E+03	8.280160E-04	4.210732E-05
2.827305E+03	8.716273E-04	4.378578E-05
2.867127E+03	9.175602E-04	4.551574E-05
2.906948E+03	9.659986E-04	4.730041E-05
2.946769E+03	1.017193E-03	4.914562E-05
2.986590E+03	1.071232E-03	5.104873E-05
2.996546E+03	1.085221E-03	5.153436E-05
3.006501E+03	1.099373E-03	5.202231E-05
3.016456E+03	1.113682E-03	5.251226E-05
3.026411E+03	1.128215E-03	5.300714E-05
3.036367E+03	1.143014E-03	5.350891E-05
3.046322E+03	1.158154E-03	5.402080E-05
3.056277E+03	1.173628E-03	5.454238E-05
3.066233E+03	1.189383E-03	5.507089E-05
3.076188E+03	1.205387E-03	5.560476E-05
3.086143E+03	1.221660E-03	5.614475E-05
3.096099E+03	1.238121E-03	5.668695E-05
3.106054E+03	1.254763E-03	5.723093E-05
3.116009E+03	1.271527E-03	5.777392E-05
3.125964E+03	1.288455E-03	5.831771E-05
3.135920E+03	1.305436E-03	5.885713E-05
3.145875E+03	1.322456E-03	5.939159E-05
3.155830E+03	1.339502E-03	5.992042E-05
3.165786E+03	1.356533E-03	6.044172E-05
3.175741E+03	1.373453E-03	6.095125E-05
3.185696E+03	1.390292E-03	6.145039E-05
3.195652E+03	1.406950E-03	6.193474E-05
3.205607E+03	1.423402E-03	6.240322E-05
3.215562E+03	1.439565E-03	6.285240E-05
3.225517E+03	1.455409E-03	6.328102E-05
3.235473E+03	1.470871E-03	6.368657E-05
3.245428E+03	1.485888E-03	6.406648E-05
3.255383E+03	1.500367E-03	6.441698E-05
3.265339E+03	1.514263E-03	6.473647E-05
3.275294E+03	1.527505E-03	6.502221E-05
3.285249E+03	1.539990E-03	6.527017E-05
3.295205E+03	1.551668E-03	6.547862E-05
3.305160E+03	1.562433E-03	6.564364E-05
3.315115E+03	1.572236E-03	6.576356E-05
3.325070E+03	1.580966E-03	6.583440E-05
3.335026E+03	1.588550E-03	6.585366E-05
3.344981E+03	1.594910E-03	6.581879E-05
3.354936E+03	1.599973E-03	6.572744E-05
3.364892E+03	1.603670E-03	6.557759E-05
3.374847E+03	1.605918E-03	6.536657E-05
3.384802E+03	1.606684E-03	6.509391E-05
3.394758E+03	1.605879E-03	6.475689E-05
3.404713E+03	1.603517E-03	6.435693E-05
3.414668E+03	1.599533E-03	6.389238E-05
3.424623E+03	1.593925E-03	6.336408E-05
3.434579E+03	1.586707E-03	6.277356E-05
3.444534E+03	1.577892E-03	6.212223E-05
3.454489E+03	1.567541E-03	6.141349E-05
3.464445E+03	1.555703E-03	6.065012E-05
3.474400E+03	1.542440E-03	5.983545E-05
3.484355E+03	1.527856E-03	5.897427E-05
3.494311E+03	1.512054E-03	5.807142E-05
3.504266E+03	1.495202E-03	5.713405E-05
3.514221E+03	1.477412E-03	5.616700E-05
3.524176E+03	1.458894E-03	5.517887E-05
3.534132E+03	1.439847E-03	5.417757E-05
3.544087E+03	1.420501E-03	5.317205E-05
3.554042E+03	1.401072E-03	5.217059E-05
3.563998E+03	1.381809E-03	5.118246E-05
3.573953E+03	1.362985E-03	5.021765E-05
3.583908E+03	1.344803E-03	4.928344E-05
3.593864E+03	1.327516E-03	4.838861E-05
3.603819E+03	1.311319E-03	4.753984E-05
3.613774E+03	1.296401E-03	4.674320E-05
3.623729E+03	1.282964E-03	4.600525E-05
3.633685E+03	1.271207E-03	4.533224E-05
3.643640E+03	1.261304E-03	4.472935E-05
3.653595E+03	1.253473E-03	4.420318E-05
3.663551E+03	1.247863E-03	4.375773E-05
3.673506E+03	1.244665E-03	4.339841E-05
3.683461E+03	1.244063E-03	4.313007E-05
3.693417E+03	1.246225E-03	4.295707E-05
3.703372E+03	1.251298E-03	4.288276E-05
3.713327E+03	1.259452E-03	4.291122E-05
3.723282E+03	1.270819E-03	4.304507E-05
3.733238E+03	1.285534E-03	4.328697E-05
3.743193E+03	1.303707E-03	4.363858E-05
3.753148E+03	1.325416E-03	4.410042E-05
3.763104E+03	1.350697E-03	4.467166E-05
3.773059E+03	1.379554E-03	4.535022E-05
3.783014E+03	1.411954E-03	4.613290E-05
3.792970E+03	1.447740E-03	4.701254E-05
3.802925E+03	1.486752E-03	4.798191E-05
3.812880E+03	1.528733E-03	4.903088E-05
3.822835E+03	1.573299E-03	5.014543E-05
3.832791E+03	1.620005E-03	5.130998E-05
3.842746E+03	1.668317E-03	5.250646E-05
3.852701E+03	1.717593E-03	5.371384E-05
3.862657E+03	1.767107E-03	5.490908E-05
3.872612E+03	1.816061E-03	5.606738E-05
3.882567E+03	1.863638E-03	5.716413E-05
3.892523E+03	1.908987E-03	5.817426E-05
3.902478E+03	1.951293E-03	5.907448E-05
3.912433E+03	1.989775E-03	5.984321E-05
3.922388E+03	2.023725E-03	6.046165E-05
3.932344E+03	2.052596E-03	6.091634E-05
3.942299E+03	2.075950E-03	6.119746E-05
3.952254E+03	2.093468E-03	6.129904E-05
3.962210E+03	2.105075E-03	6.122248E-05
3.972165E+03	2.110801E-03	6.097216E-05
3.982120E+03	2.110856E-03	6.055768E-05
3.992076E+03	2.105579E-03	5.999215E-05
4.002031E+03	2.095405E-03	5.929108E-05
4.011986E+03	2.080912E-03	5.847361E-05
4.021941E+03	2.062665E-03	5.755813E-05
4.031897E+03	2.041306E-03	5.656465E-05
4.041852E+03	2.017457E-03	5.551216E-05
4.051807E+03	1.991708E-03	5.441826E-05
4.061763E+03	1.964614E-03	5.329916E-05
4.071718E+03	1.936711E-03	5.217004E-05
4.081673E+03	1.908417E-03	5.104263E-05
4.091629E+03	1.880114E-03	4.992730E-05
4.101584E+03	1.852162E-03	4.883354E-05
4.111539E+03	1.824776E-03	4.776680E-05
4.121494E+03	1.798166E-03	4.673226E-05
4.131450E+03	1.772484E-03	4.573338E-05
4.141405E+03	1.747827E-03	4.477216E-05
4.151360E+03	1.724254E-03	4.384953E-05
4.161316E+03	1.701807E-03	4.296597E-05
4.171271E+03	1.680510E-03	4.212148E-05
4.181226E+03	1.660379E-03	4.131583E-05
4.191182E+03	1.641426E-03	4.054873E-05
4.201137E+03	1.623680E-03	3.982024E-05
4.211092E+03	1.607159E-03	3.913022E-05
4.221047E+03	1.591907E-03	3.847908E-05
4.231003E+03	1.578011E-03	3.786827E-05
4.240958E+03	1.565555E-03	3.729916E-05
4.250913E+03	1.554607E-03	3.677264E-05
4.260869E+03	1.545296E-03	3.629099E-05
4.270824E+03	1.537747E-03	3.585638E-05
4.280779E+03	1.532093E-03	3.547110E-05
4.290735E+03	1.528477E-03	3.513754E-05
4.300690E+03	1.527039E-03	3.485798E-05
4.310645E+03	1.527952E-03	3.463544E-05
4.320601E+03	1.531302E-03	3.447084E-05
4.330556E+03	1.537237E-03	3.436648E-05
4.340511E+03	1.545876E-03	3.432397E-05
4.350466E+03	1.557295E-03	3.434387E-05
4.360422E+03	1.571576E-03	3.442689E-05
4.370377E+03	1.588839E-03	3.457460E-05
4.380332E+03	1.609151E-03	3.478733E-05
4.390288E+03	1.632647E-03	3.506693E-05
4.400243E+03	1.659434E-03	3.541467E-05
4.410198E+03	1.689497E-03	3.582916E-05
4.420154E+03	1.722788E-03	3.630845E-05
4.430109E+03	1.759150E-03	3.684833E-05
4.440064E+03	1.798239E-03	3.744093E-05
4.450019E+03	1.839581E-03	3.807586E-05
4.459975E+03	1.882510E-03	3.873906E-05
4.469930E+03	1.926218E-03	3.941398E-05
4.479885E+03	1.969699E-03	4.008044E-05
4.489841E+03	2.011796E-03	4.071565E-05
4.499796E+03	2.051321E-03	4.129669E-05
4.509751E+03	2.086983E-03	4.179910E-05
4.519707E+03	2.117473E-03	4.219852E-05
4.529662E+03	2.141678E-03	4.247489E-05
4.539617E+03	2.158543E-03	4.260961E-05
4.549572E+03	2.167174E-03	4.258752E-05
4.559528E+03	2.167201E-03	4.240379E-05
4.569483E+03	2.158413E-03	4.205671E-05
4.579438E+03	2.140904E-03	4.155028E-05
4.589394E+03	2.115365E-03	4.089983E-05
4.599349E+03	2.082710E-03	4.012458E-05
4.609304E+03	2.043947E-03	3.924511E-05
4.619260E+03	2.000508E-03	3.828966E-05
4.629215E+03	1.953728E-03	3.728415E-05
4.639170E+03	1.904993E-03	3.625503E-05
4.649125E+03	1.855574E-03	3.522625E-05
4.659081E+03	1.806617E-03	3.421905E-05
4.669036E+03	1.759058E-03	3.325053E-05
4.678991E+03	1.713556E-03	3.233237E-05
4.688947E+03	1.670625E-03	3.147354E-05
4.698902E+03	1.630509E-03	3.067790E-05
4.708857E+03	1.593096E-03	2.994262E-05
4.718813E+03	1.558166E-03	2.926297E-05
4.728768E+03	1.525346E-03	2.863137E-05
4.738723E+03	1.494037E-03	2.803603E-05
4.748678E+03	1.463647E-03	2.746525E-05
4.758634E+03	1.433891E-03	2.691306E-05
4.768589E+03	1.404538E-03	2.637461E-05
4.778544E+03	1.375748E-03	2.585237E-05
4.788500E+03	1.348029E-03	2.535540E-05
4.798455E+03	1.321799E-03	2.489111E-05
4.808410E+03	1.297432E-03	2.446622E-05
4.818366E+03	1.275328E-03	2.408794E-05
4.828321E+03	1.255738E-03	2.376083E-05
4.838276E+03	1.238821E-03	2.348781E-05
4.848231E+03	1.224685E-03	2.327091E-05
4.858187E+03	1.213348E-03	2.311050E-05
4.868142E+03	1.204741E-03	2.300540E-05
4.878097E+03	1.198792E-03	2.295439E-05
4.888053E+03	1.195379E-03	2.295538E-05
4.898008E+03	1.194398E-03	2.300661E-05
4.907963E+03	1.195716E-03	2.310579E-05
4.917919E+03	1.199191E-03	2.325048E-05
4.927874E+03	1.204700E-03	2.343859E-05
4.937829E+03	1.212108E-03	2.366782E-05
4.947784E+03	1.221375E-03	2.393772E-05
4.957740E+03	1.232458E-03	2.424779E-05
4.967695E+03	1.245330E-03	2.459787E-05
4.977650E+03	1.259970E-03	2.498791E-05
4.987606E+03	1.276397E-03	2.541870E-05
4.997561E+03	1.294573E-03	2.588988E-05
5.007516E+03	1.314474E-03	2.640144E-05
5.017472E+03	1.336083E-03	2.695343E-05
5.027427E+03	1.359344E-03	2.754523E-05
5.037382E+03	1.384213E-03	2.817633E-05
5.047337E+03	1.410634E-03	2.884609E-05
5.057293E+03	1.438549E-03	2.955370E-05
5.067248E+03	1.467874E-03	3.029794E-05
5.077203E+03	1.498535E-03	3.107762E-05
5.087159E+03	1.530455E-03	3.189160E-05
5.097114E+03	1.563504E-03	3.273750E-05
5.107069E+03	1.597589E-03	3.361373E-05
5.117025E+03	1.632505E-03	3.451627E-05
5.126980E+03	1.668108E-03	3.544233E-05
5.136935E+03	1.704165E-03	3.638715E-05
5.146890E+03	1.740411E-03	3.734516E-05
5.156846E+03	1.776547E-03	3.830998E-05
5.166801E+03	1.812201E-03	3.927350E-05
5.176756E+03	1.846981E-03	4.022699E-05
5.186712E+03	1.880480E-03	4.116125E-05
5.196667E+03	1.912318E-03	4.206748E-05
5.206622E+03	1.942009E-03	4.293432E-05
5.216578E+03	1.969202E-03	4.375325E-05
5.226533E+03	1.993546E-03	4.451554E-05
5.236488E+03	2.014720E-03	4.521299E-05
5.246443E+03	2.032476E-03	4.583890E-05
5.256399E+03	2.046687E-03	4.638915E-05
5.266354E+03	2.057244E-03	4.686003E-05
5.276309E+03	2.064182E-03	4.725105E-05
5.286265E+03	2.067577E-03	4.756265E-05
5.296220E+03	2.067586E-03	4.779719E-05
5.306175E+03	2.064370E-03	4.795721E-05
5.316131E+03	2.058163E-03	4.804700E-05
5.326086E+03	2.049191E-03	4.807079E-05
5.336041E+03	2.037738E-03	4.803428E-05
5.345996E+03	2.024021E-03	4.794169E-05
5.355952E+03	2.008350E-03	4.779960E-05
5.365907E+03	1.990991E-03	4.761364E-05
5.375862E+03	1.972210E-03	4.738959E-05
5.385818E+03	1.952222E-03	4.713212E-05
5.395773E+03	1.931258E-03	4.684638E-05
5.405728E+03	1.909521E-03	4.653693E-05
5.415684E+03	1.887111E-03	4.620597E-05
5.425639E+03	1.864180E-03	4.585698E-05
5.435594E+03	1.840807E-03	4.549170E-05
5.445549E+03	1.817094E-03	4.511251E-05
5.455505E+03	1.793223E-03	4.472382E-05
5.465460E+03	1.769340E-03	4.432919E-05
5.475415E+03	1.745707E-03	4.393519E-05
5.485371E+03	1.722556E-03	4.354777E-05
5.495326E+03	1.700218E-03	4.317540E-05
5.505281E+03	1.678948E-03	4.282487E-05
5.515237E+03	1.659005E-03	4.250315E-05
5.525192E+03	1.640595E-03	4.221596E-05
5.535147E+03	1.623956E-03	4.196994E-05
5.545102E+03	1.609205E-03	4.176870E-05
5.555058E+03	1.596476E-03	4.161635E-05
5.565013E+03	1.585876E-03	4.151638E-05
5.574968E+03	1.577512E-03	4.147223E-05
5.584924E+03	1.571428E-03	4.148584E-05
5.594879E+03	1.567693E-03	4.155975E-05
5.604834E+03	1.566344E-03	4.169571E-05
5.614790E+03	1.567384E-03	4.189455E-05
5.624745E+03	1.570813E-03	4.215704E-05
5.634700E+03	1.576577E-03	4.248247E-05
5.644655E+03	1.584623E-03	4.287013E-05
5.654611E+03	1.594874E-03	4.331867E-05
5.664566E+03	1.607227E-03	4.382592E-05
5.674521E+03	1.621544E-03	4.438873E-05
5.684477E+03	1.637655E-03	4.500305E-05
5.694432E+03	1.655426E-03	4.566570E-05
5.704387E+03	1.674624E-03	4.637069E-05
5.714343E+03	1.695055E-03	4.711307E-05
5.724298E+03	1.716504E-03	4.788715E-05
5.734253E+03	1.738713E-03	4.868601E-05
5.744209E+03	1.761431E-03	4.950271E-05
5.754164E+03	1.784396E-03	5.033005E-05
5.764119E+03	1.807288E-03	5.115892E-05
5.774074E+03	1.829768E-03	5.197969E-05
5.784030E+03	1.851522E-03	5.278322E-05
5.793985E+03	1.872140E-03	5.355748E-05
5.803940E+03	1.891263E-03	5.429182E-05
5.813896E+03	1.908529E-03	5.497531E-05
5.823851E+03	1.923589E-03	5.559731E-05
5.833806E+03	1.936148E-03	5.614856E-05
5.843762E+03	1.945905E-03	5.661956E-05
5.853717E+03	1.952692E-03	5.700455E-05
5.863672E+03	1.956324E-03	5.729730E-05
5.873627E+03	1.956708E-03	5.749412E-05
5.883583E+03	1.953803E-03	5.759287E-05
5.893538E+03	1.947614E-03	5.759282E-05
5.903493E+03	1.938219E-03	5.749538E-05
5.913449E+03	1.925677E-03	5.730137E-05
5.923404E+03	1.910128E-03	5.701421E-05
5.933359E+03	1.891780E-03	5.663925E-05
5.943315E+03	1.870853E-03	5.618243E-05
5.953270E+03	1.847566E-03	5.564964E-05
5.963225E+03	1.822269E-03	5.505093E-05
5.973180E+03	1.795242E-03	5.439422E-05
5.983136E+03	1.766921E-03	5.369242E-05
5.993091E+03	1.737662E-03	5.295605E-05
6.003046E+03	1.707900E-03	5.219821E-05
6.013002E+03	1.678092E-03	5.143287E-05
6.022957E+03	1.648663E-03	5.067315E-05
6.032912E+03	1.620043E-03	4.993243E-05
6.042868E+03	1.592595E-03	4.922219E-05
6.052823E+03	1.566732E-03	4.855559E-05
6.062778E+03	1.542731E-03	4.794172E-05
6.072733E+03	1.520916E-03	4.739117E-05
6.082689E+03	1.501497E-03	4.691109E-05
6.092644E+03	1.484630E-03	4.650702E-05
6.102599E+03	1.470427E-03	4.618315E-05
6.112555E+03	1.458932E-03	4.594158E-05
6.122510E+03	1.450090E-03	4.578123E-05
6.132465E+03	1.443779E-03	4.569892E-05
6.142421E+03	1.439780E-03	4.568837E-05
6.152376E+03	1.437729E-03	4.573853E-05
6.162331E+03	1.437234E-03	4.583744E-05
6.172286E+03	1.437773E-03	4.596875E-05
6.182242E+03	1.438796E-03	4.611510E-05
6.192197E+03	1.439734E-03	4.625828E-05
6.202152E+03	1.440032E-03	4.638045E-05
6.212108E+03	1.439312E-03	4.646924E-05
6.222063E+03	1.437382E-03	4.651819E-05
6.232018E+03	1.434245E-03	4.652710E-05
6.241974E+03	1.430078E-03	4.650150E-05
6.251929E+03	1.425208E-03	4.645179E-05
6.261884E+03	1.419942E-03	4.638788E-05
6.271839E+03	1.414597E-03	4.632000E-05
6.281795E+03	1.409491E-03	4.625863E-05
6.291750E+03	1.404865E-03	4.621176E-05
6.301705E+03	1.400874E-03	4.618458E-05
6.311661E+03	1.397665E-03	4.618214E-05
6.321616E+03	1.395327E-03	4.620756E-05
6.331571E+03	1.393873E-03	4.626145E-05
6.341527E+03	1.393351E-03	4.634561E-05
6.351482E+03	1.393745E-03	4.645974E-05
6.361437E+03	1.395030E-03	4.660314E-05
6.371392E+03	1.397168E-03	4.677472E-05
6.381348E+03	1.400139E-03	4.697403E-05
6.391303E+03	1.403854E-03	4.719819E-05
6.401258E+03	1.408270E-03	4.744593E-05
6.411214E+03	1.413276E-03	4.771358E-05
6.421169E+03	1.418738E-03	4.799676E-05
6.431124E+03	1.424529E-03	4.829121E-05
6.441080E+03	1.430466E-03	4.859079E-05
6.451035E+03	1.436374E-03	4.888953E-05
6.460990E+03	1.442000E-03	4.917882E-05
6.470945E+03	1.447172E-03	4.945261E-05
6.480901E+03	1.451682E-03	4.970378E-05
6.490856E+03	1.455337E-03	4.992549E-05
6.500811E+03	1.458030E-03	5.011392E-05
6.510767E+03	1.459702E-03	5.026680E-05
6.520722E+03	1.460362E-03	5.038423E-05
6.530677E+03	1.460074E-03	5.046823E-05
6.540633E+03	1.458969E-03	5.052314E-05
6.550588E+03	1.457150E-03	5.055235E-05
6.560543E+03	1.454725E-03	5.055953E-05
6.570498E+03	1.451818E-03	5.054882E-05
6.580454E+03	1.448505E-03	5.052279E-05
6.590409E+03	1.444790E-03	5.048155E-05
6.600364E+03	1.440704E-03	5.042605E-05
6.610320E+03	1.436208E-03	5.035490E-05
6.620275E+03	1.431303E-03	5.026803E-05
6.630230E+03	1.425887E-03	5.016180E-05
6.640186E+03	1.419912E-03	5.003443E-05
6.650141E+03	1.413355E-03	4.988503E-05
6.660096E+03	1.406189E-03	4.971254E-05
6.670051E+03	1.398388E-03	4.951591E-05
6.680007E+03	1.389964E-03	4.929552E-05
6.689962E+03	1.380981E-03	4.905351E-05
6.699917E+03	1.371474E-03	4.879111E-05
6.709873E+03	1.361538E-03	4.851156E-05
6.719828E+03	1.351208E-03	4.821606E-05
6.729783E+03	1.340628E-03	4.790975E-05
6.739739E+03	1.329843E-03	4.759422E-05
6.749694E+03	1.319000E-03	4.727469E-05
6.759649E+03	1.308146E-03	4.695286E-05
6.769604E+03	1.297380E-03	4.663233E-05
6.779560E+03	1.286769E-03	4.631556E-05
6.789515E+03	1.276350E-03	4.600385E-05
6.799470E+03	1.266183E-03	4.569952E-05
6.809426E+03	1.256277E-03	4.540283E-05
6.819381E+03	1.246673E-03	4.511542E-05
6.829336E+03	1.237330E-03	4.483586E-05
6.839292E+03	1.228295E-03	4.456584E-05
6.849247E+03	1.219542E-03	4.430456E-05
6.859202E+03	1.211065E-03	4.405179E-05
6.869157E+03	1.202836E-03	4.380658E-05
6.879113E+03	1.194894E-03	4.357045E-05
6.889068E+03	1.187154E-03	4.334035E-05
6.899023E+03	1.179671E-03	4.311826E-05
6.908979E+03	1.172381E-03	4.290197E-05
6.918934E+03	1.165266E-03	4.269081E-05
6.928889E+03	1.158329E-03	4.248497E-05
6.938845E+03	1.151535E-03	4.228316E-05
6.948800E+03	1.144869E-03	4.208491E-05
6.958755E+03	1.138322E-03	4.188990E-05
6.968710E+03	1.131889E-03	4.169796E-05
6.978666E+03	1.125555E-03	4.150859E-05
6.988621E+03	1.119287E-03	4.132059E-05
6.998576E+03	1.113121E-03	4.113534E-05
7.008532E+03	1.106982E-03	4.095004E-05
7.018487E+03	1.100928E-03	4.076693E-05
7.028442E+03	1.094889E-03	4.058341E-05
7.038398E+03	1.088898E-03	4.040069E-05
7.048353E+03	1.082923E-03	4.021764E-05
7.058308E+03	1.076958E-03	4.003406E-05
7.068263E+03	1.071015E-03	3.985039E-05
7.078219E+03	1.065045E-03	3.966484E-05
7.088174E+03	1.059068E-03	3.947821E-05
7.098129E+03	1.053062E-03	3.928963E-05
7.108085E+03	1.047049E-03	3.909995E-05
7.118040E+03	1.041033E-03	3.890934E-05
7.127995E+03	1.034989E-03	3.871692E-05
7.137951E+03	1.028937E-03	3.852343E-05
7.147906E+03	1.022833E-03	3.832725E-05
7.157861E+03	1.016710E-03	3.812961E-05
7.167817E+03	1.010541E-03	3.792954E-05
7.177772E+03	1.004308E-03	3.772631E-05
7.187727E+03	9.980286E-04	3.752069E-05
7.197682E+03	9.917161E-04	3.731314E-05
7.207638E+03	9.853743E-04	3.710383E-05
7.217593E+03	9.790296E-04	3.689376E-05
7.227548E+03	9.727201E-04	3.668440E-05
7.237504E+03	9.664914E-04	3.647749E-05
7.247459E+03	9.603819E-04	3.627451E-05
7.257414E+03	9.543931E-04	3.607553E-05
7.267370E+03	9.486057E-04	3.588364E-05
7.277325E+03	9.430266E-04	3.569914E-05
7.287280E+03	9.376602E-04	3.552222E-05
7.297235E+03	9.325492E-04	3.535455E-05
7.307191E+03	9.276638E-04	3.519502E-05
7.317146E+03	9.230114E-04	3.504396E-05
7.327101E+03	9.185978E-04	3.490163E-05
7.337057E+03	9.144008E-04	3.476721E-05
7.347012E+03	9.104357E-04	3.464132E-05
7.356967E+03	9.066430E-04	3.452173E-05
7.366923E+03	9.030546E-04	3.440970E-05
7.376878E+03	8.996312E-04	3.430374E-05
7.386833E+03	8.963973E-04	3.420483E-05
7.396788E+03	8.933390E-04	3.411247E-05
7.406744E+03	8.904693E-04	3.402718E-05
7.416699E+03	8.878245E-04	3.395039E-05
7.426654E+03	8.853998E-04	3.388195E-05
7.436610E+03	8.832671E-04	3.382464E-05
7.446565E+03	8.814013E-04	3.377755E-05
7.456520E+03	8.798414E-04	3.374219E-05
7.466476E+03	8.785629E-04	3.371769E-05
7.476431E+03	8.776087E-04	3.370570E-05
7.486386E+03	8.769252E-04	3.370422E-05
7.496341E+03	8.764666E-04	3.371151E-05
7.506297E+03	8.761940E-04	3.372611E-05
7.516252E+03	8.760288E-04	3.374500E-05
7.526207E+03	8.759205E-04	3.376628E-05
7.536163E+03	8.757335E-04	3.378471E-05
7.546118E+03	8.753776E-04	3.379683E-05
7.556073E+03	8.747671E-04	3.379932E-05
7.566029E+03	8.737900E-04	3.378783E-05
7.575984E+03	8.723877E-04	3.376007E-05
7.585939E+03	8.704962E-04	3.371355E-05
7.595894E+03	8.681443E-04	3.364934E-05
7.605850E+03	8.653077E-04	3.356646E-05
7.615805E+03	8.620700E-04	3.346813E-05
7.625760E+03	8.584545E-04	3.335521E-05
7.635716E+03	8.545615E-04	3.323159E-05
7.645671E+03	8.504152E-04	3.309819E-05
7.655626E+03	8.461157E-04	3.295889E-05
7.665582E+03	8.416891E-04	3.281469E-05
7.675537E+03	8.371741E-04	3.266711E-05
7.685492E+03	8.326007E-04	3.251731E-05
7.695447E+03	8.279810E-04	3.236577E-05
7.705403E+03	8.233180E-04	3.221260E-05
7.715358E+03	8.185883E-04	3.205690E-05
7.725313E+03	8.138165E-04	3.189962E-05
