#wls	flux	fluxerr
1.592848E+03	3.875760E-04	8.563584E-06
1.632669E+03	4.002461E-04	8.810839E-06
1.672491E+03	4.121413E-04	9.038209E-06
1.712312E+03	4.231026E-04	9.242330E-06
1.752133E+03	4.329272E-04	9.418949E-06
1.791954E+03	4.411421E-04	9.558039E-06
1.831775E+03	4.469616E-04	9.643015E-06
1.871597E+03	4.496602E-04	9.658903E-06
1.911418E+03	4.483947E-04	9.588516E-06
1.951239E+03	4.426133E-04	9.421248E-06
1.991060E+03	4.325795E-04	9.164041E-06
2.030881E+03	4.201713E-04	8.857831E-06
2.070703E+03	4.092483E-04	8.584375E-06
2.110524E+03	4.050794E-04	8.453225E-06
2.150345E+03	4.126124E-04	8.564913E-06
2.190166E+03	4.342512E-04	8.965129E-06
2.229987E+03	4.692387E-04	9.633381E-06
2.269809E+03	5.145611E-04	1.050327E-05
2.309630E+03	5.665358E-04	1.149605E-05
2.349451E+03	6.220847E-04	1.254683E-05
2.389272E+03	6.791913E-04	1.361342E-05
2.429093E+03	7.368276E-04	1.467432E-05
2.468915E+03	7.947911E-04	1.572482E-05
2.508736E+03	8.532492E-04	1.676762E-05
2.548557E+03	9.127034E-04	1.781181E-05
2.588378E+03	9.737003E-04	1.886708E-05
2.628199E+03	1.036900E-03	1.994498E-05
2.668021E+03	1.102943E-03	2.105623E-05
2.707842E+03	1.172507E-03	2.221192E-05
2.747663E+03	1.246314E-03	2.342347E-05
2.787484E+03	1.325100E-03	2.470205E-05
2.827305E+03	1.409659E-03	2.605942E-05
2.867127E+03	1.500937E-03	2.750950E-05
2.906948E+03	1.599876E-03	2.906546E-05
2.946769E+03	1.707701E-03	3.074487E-05
2.986590E+03	1.825586E-03	3.256339E-05
2.996546E+03	1.856832E-03	3.304268E-05
3.006501E+03	1.888783E-03	3.353153E-05
3.016456E+03	1.921454E-03	3.403010E-05
3.026411E+03	1.954983E-03	3.454073E-05
3.036367E+03	1.989476E-03	3.506517E-05
3.046322E+03	2.025092E-03	3.560606E-05
3.056277E+03	2.061855E-03	3.616365E-05
3.066233E+03	2.099705E-03	3.673675E-05
3.076188E+03	2.138624E-03	3.732486E-05
3.086143E+03	2.178686E-03	3.792914E-05
3.096099E+03	2.219786E-03	3.854757E-05
3.106054E+03	2.261954E-03	3.918052E-05
3.116009E+03	2.305121E-03	3.982667E-05
3.125964E+03	2.349414E-03	4.048800E-05
3.135920E+03	2.394667E-03	4.116152E-05
3.145875E+03	2.440907E-03	4.184756E-05
3.155830E+03	2.488153E-03	4.254627E-05
3.165786E+03	2.536375E-03	4.325695E-05
3.175741E+03	2.585442E-03	4.397728E-05
3.185696E+03	2.635458E-03	4.470886E-05
3.195652E+03	2.686281E-03	4.544913E-05
3.205607E+03	2.737904E-03	4.619784E-05
3.215562E+03	2.790217E-03	4.695302E-05
3.225517E+03	2.843199E-03	4.771418E-05
3.235473E+03	2.896765E-03	4.847981E-05
3.245428E+03	2.950825E-03	4.924829E-05
3.255383E+03	3.005222E-03	5.001691E-05
3.265339E+03	3.059891E-03	5.078452E-05
3.275294E+03	3.114695E-03	5.154881E-05
3.285249E+03	3.169435E-03	5.230643E-05
3.295205E+03	3.223996E-03	5.305550E-05
3.305160E+03	3.278142E-03	5.379214E-05
3.315115E+03	3.331724E-03	5.451395E-05
3.325070E+03	3.384467E-03	5.521651E-05
3.335026E+03	3.436132E-03	5.589602E-05
3.344981E+03	3.486463E-03	5.654845E-05
3.354936E+03	3.535181E-03	5.716949E-05
3.364892E+03	3.581995E-03	5.775465E-05
3.374847E+03	3.626543E-03	5.829838E-05
3.384802E+03	3.668562E-03	5.879676E-05
3.394758E+03	3.707621E-03	5.924326E-05
3.404713E+03	3.743490E-03	5.963465E-05
3.414668E+03	3.775738E-03	5.996454E-05
3.424623E+03	3.804044E-03	6.022834E-05
3.434579E+03	3.828098E-03	6.042177E-05
3.444534E+03	3.847565E-03	6.054014E-05
3.454489E+03	3.862235E-03	6.058085E-05
3.464445E+03	3.871839E-03	6.054042E-05
3.474400E+03	3.876153E-03	6.041608E-05
3.484355E+03	3.875061E-03	6.020683E-05
3.494311E+03	3.868464E-03	5.991196E-05
3.504266E+03	3.856434E-03	5.953341E-05
3.514221E+03	3.838934E-03	5.907141E-05
3.524176E+03	3.816206E-03	5.853053E-05
3.534132E+03	3.788497E-03	5.791534E-05
3.544087E+03	3.756195E-03	5.723253E-05
3.554042E+03	3.719707E-03	5.648897E-05
3.563998E+03	3.679579E-03	5.569361E-05
3.573953E+03	3.636555E-03	5.485821E-05
3.583908E+03	3.591283E-03	5.399300E-05
3.593864E+03	3.544661E-03	5.311180E-05
3.603819E+03	3.497552E-03	5.222770E-05
3.613774E+03	3.450835E-03	5.135392E-05
3.623729E+03	3.405460E-03	5.050447E-05
3.633685E+03	3.362425E-03	4.969392E-05
3.643640E+03	3.322649E-03	4.893547E-05
3.653595E+03	3.287137E-03	4.824340E-05
3.663551E+03	3.256727E-03	4.762930E-05
3.673506E+03	3.232332E-03	4.710571E-05
3.683461E+03	3.214782E-03	4.668377E-05
3.693417E+03	3.204905E-03	4.637441E-05
3.703372E+03	3.203417E-03	4.618676E-05
3.713327E+03	3.211057E-03	4.613016E-05
3.723282E+03	3.228485E-03	4.621261E-05
3.733238E+03	3.256347E-03	4.644183E-05
3.743193E+03	3.295197E-03	4.682405E-05
3.753148E+03	3.345562E-03	4.736502E-05
3.763104E+03	3.407851E-03	4.806869E-05
3.773059E+03	3.482361E-03	4.893738E-05
3.783014E+03	3.569363E-03	4.997295E-05
3.792970E+03	3.668784E-03	5.117240E-05
3.802925E+03	3.780472E-03	5.253169E-05
3.812880E+03	3.904028E-03	5.404333E-05
3.822835E+03	4.038636E-03	5.569420E-05
3.832791E+03	4.183211E-03	5.746763E-05
3.842746E+03	4.336335E-03	5.934266E-05
3.852701E+03	4.496159E-03	6.129270E-05
3.862657E+03	4.660450E-03	6.328640E-05
3.872612E+03	4.826571E-03	6.528735E-05
3.882567E+03	4.991673E-03	6.725690E-05
3.892523E+03	5.152653E-03	6.915356E-05
3.902478E+03	5.306315E-03	7.093527E-05
3.912433E+03	5.449499E-03	7.256112E-05
3.922388E+03	5.579234E-03	7.399341E-05
3.932344E+03	5.692950E-03	7.520033E-05
3.942299E+03	5.788498E-03	7.615616E-05
3.952254E+03	5.864240E-03	7.684236E-05
3.962210E+03	5.919348E-03	7.725129E-05
3.972165E+03	5.953523E-03	7.738236E-05
3.982120E+03	5.967248E-03	7.724520E-05
3.992076E+03	5.961606E-03	7.685700E-05
4.002031E+03	5.938165E-03	7.624103E-05
4.011986E+03	5.899068E-03	7.542754E-05
4.021941E+03	5.846572E-03	7.444774E-05
4.031897E+03	5.783188E-03	7.333566E-05
4.041852E+03	5.711399E-03	7.212436E-05
4.051807E+03	5.633609E-03	7.084546E-05
4.061763E+03	5.552060E-03	6.952798E-05
4.071718E+03	5.468815E-03	6.819827E-05
4.081673E+03	5.385583E-03	6.687782E-05
4.091629E+03	5.303833E-03	6.558481E-05
4.101584E+03	5.224844E-03	6.433478E-05
4.111539E+03	5.149439E-03	6.313739E-05
4.121494E+03	5.078330E-03	6.200078E-05
4.131450E+03	5.011949E-03	6.092956E-05
4.141405E+03	4.950543E-03	5.992599E-05
4.151360E+03	4.894201E-03	5.899035E-05
4.161316E+03	4.842886E-03	5.812147E-05
4.171271E+03	4.796483E-03	5.731717E-05
4.181226E+03	4.754829E-03	5.657480E-05
4.191182E+03	4.717751E-03	5.589158E-05
4.201137E+03	4.685095E-03	5.526499E-05
4.211092E+03	4.656709E-03	5.469261E-05
4.221047E+03	4.632548E-03	5.417328E-05
4.231003E+03	4.612677E-03	5.370711E-05
4.240958E+03	4.597193E-03	5.329463E-05
4.250913E+03	4.586170E-03	5.293604E-05
4.260869E+03	4.579841E-03	5.263338E-05
4.270824E+03	4.578416E-03	5.238838E-05
4.280779E+03	4.582094E-03	5.220260E-05
4.290735E+03	4.591024E-03	5.207703E-05
4.300690E+03	4.605238E-03	5.201128E-05
4.310645E+03	4.624757E-03	5.200485E-05
4.320601E+03	4.649287E-03	5.205373E-05
4.330556E+03	4.678524E-03	5.215385E-05
4.340511E+03	4.711943E-03	5.229877E-05
4.350466E+03	4.748976E-03	5.248166E-05
4.360422E+03	4.789070E-03	5.269598E-05
4.370377E+03	4.832041E-03	5.293935E-05
4.380332E+03	4.878365E-03	5.321661E-05
4.390288E+03	4.929275E-03	5.354074E-05
4.400243E+03	4.986197E-03	5.392662E-05
4.410198E+03	5.050499E-03	5.438822E-05
4.420154E+03	5.123380E-03	5.493746E-05
4.430109E+03	5.205543E-03	5.558078E-05
4.440064E+03	5.297229E-03	5.631958E-05
4.450019E+03	5.398168E-03	5.714984E-05
4.459975E+03	5.507345E-03	5.805975E-05
4.469930E+03	5.623295E-03	5.903299E-05
4.479885E+03	5.743921E-03	6.004691E-05
4.489841E+03	5.866534E-03	6.107307E-05
4.499796E+03	5.988034E-03	6.207924E-05
4.509751E+03	6.104973E-03	6.303017E-05
4.519707E+03	6.213704E-03	6.388913E-05
4.529662E+03	6.310550E-03	6.461969E-05
4.539617E+03	6.391968E-03	6.518738E-05
4.549572E+03	6.454816E-03	6.556236E-05
4.559528E+03	6.496749E-03	6.572337E-05
4.569483E+03	6.515993E-03	6.565516E-05
4.579438E+03	6.511780E-03	6.535287E-05
4.589394E+03	6.484506E-03	6.482332E-05
4.599349E+03	6.435513E-03	6.408261E-05
4.609304E+03	6.366844E-03	6.315354E-05
4.619260E+03	6.281652E-03	6.206950E-05
4.629215E+03	6.183147E-03	6.086389E-05
4.639170E+03	6.075115E-03	5.957526E-05
4.649125E+03	5.961112E-03	5.823931E-05
4.659081E+03	5.844402E-03	5.688833E-05
4.669036E+03	5.727748E-03	5.554929E-05
4.678991E+03	5.613232E-03	5.424217E-05
4.688947E+03	5.502237E-03	5.297991E-05
4.698902E+03	5.395069E-03	5.176498E-05
4.708857E+03	5.291134E-03	5.059115E-05
4.718813E+03	5.188960E-03	4.944396E-05
4.728768E+03	5.086082E-03	4.829964E-05
4.738723E+03	4.979677E-03	4.713131E-05
4.748678E+03	4.866480E-03	4.590830E-05
4.758634E+03	4.744287E-03	4.461027E-05
4.768589E+03	4.613360E-03	4.324026E-05
4.778544E+03	4.477183E-03	4.183138E-05
4.788500E+03	4.340771E-03	4.043055E-05
4.798455E+03	4.208801E-03	3.908096E-05
4.808410E+03	4.084883E-03	3.781542E-05
4.818366E+03	3.971714E-03	3.665793E-05
4.828321E+03	3.870964E-03	3.562276E-05
4.838276E+03	3.783452E-03	3.471624E-05
4.848231E+03	3.709384E-03	3.393903E-05
4.858187E+03	3.648502E-03	3.328759E-05
4.868142E+03	3.600124E-03	3.275457E-05
4.878097E+03	3.563412E-03	3.233132E-05
4.888053E+03	3.537280E-03	3.200706E-05
4.898008E+03	3.520705E-03	3.177170E-05
4.907963E+03	3.512643E-03	3.161511E-05
4.917919E+03	3.512091E-03	3.152762E-05
4.927874E+03	3.518214E-03	3.150121E-05
4.937829E+03	3.530233E-03	3.152842E-05
4.947784E+03	3.547582E-03	3.160378E-05
4.957740E+03	3.569750E-03	3.172239E-05
4.967695E+03	3.596392E-03	3.188086E-05
4.977650E+03	3.627250E-03	3.207660E-05
4.987606E+03	3.662254E-03	3.230873E-05
4.997561E+03	3.701239E-03	3.257554E-05
5.007516E+03	3.744130E-03	3.287613E-05
5.017472E+03	3.790888E-03	3.320991E-05
5.027427E+03	3.841372E-03	3.357543E-05
5.037382E+03	3.895456E-03	3.397139E-05
5.047337E+03	3.952974E-03	3.439613E-05
5.057293E+03	4.013779E-03	3.484822E-05
5.067248E+03	4.077737E-03	3.532629E-05
5.077203E+03	4.144768E-03	3.582951E-05
5.087159E+03	4.214807E-03	3.635718E-05
5.097114E+03	4.287619E-03	3.690711E-05
5.107069E+03	4.363090E-03	3.747821E-05
5.117025E+03	4.440820E-03	3.806693E-05
5.126980E+03	4.520571E-03	3.867113E-05
5.136935E+03	4.601907E-03	3.928701E-05
5.146890E+03	4.684365E-03	3.991058E-05
5.156846E+03	4.767420E-03	4.053735E-05
5.166801E+03	4.850418E-03	4.116175E-05
5.176756E+03	4.932670E-03	4.177797E-05
5.186712E+03	5.013334E-03	4.237898E-05
5.196667E+03	5.091638E-03	4.295836E-05
5.206622E+03	5.166475E-03	4.350692E-05
5.216578E+03	5.236892E-03	4.401684E-05
5.226533E+03	5.301879E-03	4.447988E-05
5.236488E+03	5.360467E-03	4.488820E-05
5.246443E+03	5.411677E-03	4.523394E-05
5.256399E+03	5.454833E-03	4.551180E-05
5.266354E+03	5.489309E-03	4.571695E-05
5.276309E+03	5.514732E-03	4.584669E-05
5.286265E+03	5.530855E-03	4.589938E-05
5.296220E+03	5.537703E-03	4.587563E-05
5.306175E+03	5.535307E-03	4.577610E-05
5.316131E+03	5.523938E-03	4.560344E-05
5.326086E+03	5.503971E-03	4.536110E-05
5.336041E+03	5.476049E-03	4.505471E-05
5.345996E+03	5.440742E-03	4.468931E-05
5.355952E+03	5.398991E-03	4.427286E-05
5.365907E+03	5.351753E-03	4.381349E-05
5.375862E+03	5.300079E-03	4.331996E-05
5.385818E+03	5.244924E-03	4.280023E-05
5.395773E+03	5.187314E-03	4.226279E-05
5.405728E+03	5.128178E-03	4.171526E-05
5.415684E+03	5.068081E-03	4.116227E-05
5.425639E+03	5.007612E-03	4.060861E-05
5.435594E+03	4.946954E-03	4.005576E-05
5.445549E+03	4.886137E-03	3.950396E-05
5.455505E+03	4.825175E-03	3.895330E-05
5.465460E+03	4.763701E-03	3.840077E-05
5.475415E+03	4.701760E-03	3.784668E-05
5.485371E+03	4.639814E-03	3.729473E-05
5.495326E+03	4.578556E-03	3.675041E-05
5.505281E+03	4.518252E-03	3.621579E-05
5.515237E+03	4.459139E-03	3.569266E-05
5.525192E+03	4.401275E-03	3.518143E-05
5.535147E+03	4.344899E-03	3.468390E-05
5.545102E+03	4.290190E-03	3.420143E-05
5.555058E+03	4.237562E-03	3.373720E-05
5.565013E+03	4.187523E-03	3.329517E-05
5.574968E+03	4.140791E-03	3.288091E-05
5.584924E+03	4.098060E-03	3.249980E-05
5.594879E+03	4.060141E-03	3.215812E-05
5.604834E+03	4.027864E-03	3.186227E-05
5.614790E+03	4.001985E-03	3.161801E-05
5.624745E+03	3.983233E-03	3.143091E-05
5.634700E+03	3.972164E-03	3.130512E-05
5.644655E+03	3.969300E-03	3.124452E-05
5.654611E+03	3.975033E-03	3.125195E-05
5.664566E+03	3.989552E-03	3.132864E-05
5.674521E+03	4.012899E-03	3.147469E-05
5.684477E+03	4.044930E-03	3.168872E-05
5.694432E+03	4.085420E-03	3.196874E-05
5.704387E+03	4.133779E-03	3.230992E-05
5.714343E+03	4.189412E-03	3.270743E-05
5.724298E+03	4.251476E-03	3.315450E-05
5.734253E+03	4.318917E-03	3.364279E-05
5.744209E+03	4.390650E-03	3.416374E-05
5.754164E+03	4.465495E-03	3.470809E-05
5.764119E+03	4.542079E-03	3.526514E-05
5.774074E+03	4.618994E-03	3.582397E-05
5.784030E+03	4.694864E-03	3.637394E-05
5.793985E+03	4.768083E-03	3.690268E-05
5.803940E+03	4.837208E-03	3.739915E-05
5.813896E+03	4.900838E-03	3.785267E-05
5.823851E+03	4.957678E-03	3.825341E-05
5.833806E+03	5.006626E-03	3.859309E-05
5.843762E+03	5.046577E-03	3.886340E-05
5.853717E+03	5.076842E-03	3.905930E-05
5.863672E+03	5.096776E-03	3.917609E-05
5.873627E+03	5.106040E-03	3.921141E-05
5.883583E+03	5.104509E-03	3.916457E-05
5.893538E+03	5.092277E-03	3.903653E-05
5.903493E+03	5.069701E-03	3.883029E-05
5.913449E+03	5.037143E-03	3.854882E-05
5.923404E+03	4.995230E-03	3.819714E-05
5.933359E+03	4.944798E-03	3.778182E-05
5.943315E+03	4.886734E-03	3.730979E-05
5.953270E+03	4.821902E-03	3.678778E-05
5.963225E+03	4.751468E-03	3.622480E-05
5.973180E+03	4.676395E-03	3.562825E-05
5.983136E+03	4.598019E-03	3.500839E-05
5.993091E+03	4.517406E-03	3.437334E-05
6.003046E+03	4.435816E-03	3.373271E-05
6.013002E+03	4.354568E-03	3.309651E-05
6.022957E+03	4.274883E-03	3.247399E-05
6.032912E+03	4.198023E-03	3.187470E-05
6.042868E+03	4.125094E-03	3.130697E-05
6.052823E+03	4.057353E-03	3.078027E-05
6.062778E+03	3.995745E-03	3.030169E-05
6.072733E+03	3.941369E-03	2.987952E-05
6.082689E+03	3.895085E-03	2.952018E-05
6.092644E+03	3.857613E-03	2.922910E-05
6.102599E+03	3.829556E-03	2.901077E-05
6.112555E+03	3.811323E-03	2.886827E-05
6.122510E+03	3.802948E-03	2.880184E-05
6.132465E+03	3.804133E-03	2.880923E-05
6.142421E+03	3.814215E-03	2.888545E-05
6.152376E+03	3.831805E-03	2.902003E-05
6.162331E+03	3.855039E-03	2.919892E-05
6.172286E+03	3.881400E-03	2.940308E-05
6.182242E+03	3.907712E-03	2.960848E-05
6.192197E+03	3.930156E-03	2.978617E-05
6.202152E+03	3.944723E-03	2.990571E-05
6.212108E+03	3.948066E-03	2.994167E-05
6.222063E+03	3.939034E-03	2.988519E-05
6.232018E+03	3.919389E-03	2.974947E-05
6.241974E+03	3.892128E-03	2.955712E-05
6.251929E+03	3.860447E-03	2.933229E-05
6.261884E+03	3.827174E-03	2.909635E-05
6.271839E+03	3.794617E-03	2.886677E-05
6.281795E+03	3.764537E-03	2.865691E-05
6.291750E+03	3.738094E-03	2.847558E-05
6.301705E+03	3.715810E-03	2.832677E-05
6.311661E+03	3.697896E-03	2.821210E-05
6.321616E+03	3.684241E-03	2.813077E-05
6.331571E+03	3.674419E-03	2.807956E-05
6.341527E+03	3.668055E-03	2.805561E-05
6.351482E+03	3.664662E-03	2.805528E-05
6.361437E+03	3.663770E-03	2.807494E-05
6.371392E+03	3.664973E-03	2.811150E-05
6.381348E+03	3.668056E-03	2.816330E-05
6.391303E+03	3.672722E-03	2.822805E-05
6.401258E+03	3.678895E-03	2.830514E-05
6.411214E+03	3.686418E-03	2.839337E-05
6.421169E+03	3.695159E-03	2.849168E-05
6.431124E+03	3.705001E-03	2.859917E-05
6.441080E+03	3.715714E-03	2.871403E-05
6.451035E+03	3.727040E-03	2.883425E-05
6.460990E+03	3.738428E-03	2.895554E-05
6.470945E+03	3.749424E-03	2.907431E-05
6.480901E+03	3.759323E-03	2.918506E-05
6.490856E+03	3.767268E-03	2.928103E-05
6.500811E+03	3.772614E-03	2.935711E-05
6.510767E+03	3.775180E-03	2.941179E-05
6.520722E+03	3.775409E-03	2.944837E-05
6.530677E+03	3.773937E-03	2.947174E-05
6.540633E+03	3.771414E-03	2.948687E-05
6.550588E+03	3.768215E-03	2.949664E-05
6.560543E+03	3.764626E-03	2.950322E-05
6.570498E+03	3.760844E-03	2.950811E-05
6.580454E+03	3.756843E-03	2.951107E-05
6.590409E+03	3.752406E-03	2.951033E-05
6.600364E+03	3.747328E-03	2.950425E-05
6.610320E+03	3.741195E-03	2.948950E-05
6.620275E+03	3.733734E-03	2.946387E-05
6.630230E+03	3.724405E-03	2.942304E-05
6.640186E+03	3.712809E-03	2.936375E-05
6.650141E+03	3.698677E-03	2.928381E-05
6.660096E+03	3.681746E-03	2.918102E-05
6.670051E+03	3.661811E-03	2.905368E-05
6.680007E+03	3.638887E-03	2.890181E-05
6.689962E+03	3.613180E-03	2.872695E-05
6.699917E+03	3.584871E-03	2.853046E-05
6.709873E+03	3.554387E-03	2.831569E-05
6.719828E+03	3.522033E-03	2.808498E-05
6.729783E+03	3.488408E-03	2.784308E-05
6.739739E+03	3.453885E-03	2.759294E-05
6.749694E+03	3.419083E-03	2.733950E-05
6.759649E+03	3.384353E-03	2.708554E-05
6.769604E+03	3.350191E-03	2.683504E-05
6.779560E+03	3.316981E-03	2.659112E-05
6.789515E+03	3.284995E-03	2.635596E-05
6.799470E+03	3.254568E-03	2.613230E-05
6.809426E+03	3.225846E-03	2.592135E-05
6.819381E+03	3.199044E-03	2.572485E-05
6.829336E+03	3.174132E-03	2.554263E-05
6.839292E+03	3.151270E-03	2.537600E-05
6.849247E+03	3.130398E-03	2.522454E-05
6.859202E+03	3.111511E-03	2.508822E-05
6.869157E+03	3.094514E-03	2.496634E-05
6.879113E+03	3.079481E-03	2.485951E-05
6.889068E+03	3.066178E-03	2.476590E-05
6.899023E+03	3.054713E-03	2.468638E-05
6.908979E+03	3.044848E-03	2.461910E-05
6.918934E+03	3.036428E-03	2.456279E-05
6.928889E+03	3.029322E-03	2.451644E-05
6.938845E+03	3.023244E-03	2.447776E-05
6.948800E+03	3.017977E-03	2.444499E-05
6.958755E+03	3.013284E-03	2.441624E-05
6.968710E+03	3.008940E-03	2.438970E-05
6.978666E+03	3.004739E-03	2.436372E-05
6.988621E+03	3.000423E-03	2.433621E-05
6.998576E+03	2.995922E-03	2.430661E-05
7.008532E+03	2.990879E-03	2.427203E-05
7.018487E+03	2.985305E-03	2.423260E-05
7.028442E+03	2.978886E-03	2.418574E-05
7.038398E+03	2.971640E-03	2.413164E-05
7.048353E+03	2.963448E-03	2.406934E-05
7.058308E+03	2.954283E-03	2.399863E-05
7.068263E+03	2.944205E-03	2.392002E-05
7.078219E+03	2.933130E-03	2.383284E-05
7.088174E+03	2.921168E-03	2.373801E-05
7.098129E+03	2.908340E-03	2.363572E-05
7.108085E+03	2.894784E-03	2.352711E-05
7.118040E+03	2.880591E-03	2.341296E-05
7.127995E+03	2.865799E-03	2.329359E-05
7.137951E+03	2.850542E-03	2.317012E-05
7.147906E+03	2.834781E-03	2.304226E-05
7.157861E+03	2.818688E-03	2.291144E-05
7.167817E+03	2.802247E-03	2.277755E-05
7.177772E+03	2.785430E-03	2.264040E-05
7.187727E+03	2.768324E-03	2.250073E-05
7.197682E+03	2.750963E-03	2.235884E-05
7.207638E+03	2.733361E-03	2.221488E-05
7.217593E+03	2.715669E-03	2.207009E-05
7.227548E+03	2.698067E-03	2.192599E-05
7.237504E+03	2.680727E-03	2.178400E-05
7.247459E+03	2.663802E-03	2.164538E-05
7.257414E+03	2.647305E-03	2.151029E-05
7.267370E+03	2.631442E-03	2.138041E-05
7.277325E+03	2.616231E-03	2.125593E-05
7.287280E+03	2.601664E-03	2.113681E-05
7.297235E+03	2.587819E-03	2.102372E-05
7.307191E+03	2.574592E-03	2.091583E-05
7.317146E+03	2.561967E-03	2.081307E-05
7.327101E+03	2.549905E-03	2.071513E-05
7.337057E+03	2.538294E-03	2.062114E-05
7.347012E+03	2.527110E-03	2.053095E-05
7.356967E+03	2.516107E-03	2.044256E-05
7.366923E+03	2.505304E-03	2.035620E-05
7.376878E+03	2.494525E-03	2.027043E-05
7.386833E+03	2.483791E-03	2.018548E-05
7.396788E+03	2.473089E-03	2.010127E-05
7.406744E+03	2.462505E-03	2.001854E-05
7.416699E+03	2.452207E-03	1.993867E-05
7.426654E+03	2.442279E-03	1.986238E-05
7.436610E+03	2.433021E-03	1.979216E-05
7.446565E+03	2.424459E-03	1.972824E-05
7.456520E+03	2.416813E-03	1.967246E-05
7.466476E+03	2.410116E-03	1.962512E-05
7.476431E+03	2.404573E-03	1.958790E-05
7.486386E+03	2.400139E-03	1.956045E-05
7.496341E+03	2.396769E-03	1.954245E-05
7.506297E+03	2.394415E-03	1.953352E-05
7.516252E+03	2.392914E-03	1.953234E-05
7.526207E+03	2.392133E-03	1.953788E-05
7.536163E+03	2.391652E-03	1.954672E-05
7.546118E+03	2.391121E-03	1.955602E-05
7.556073E+03	2.390102E-03	1.956221E-05
7.566029E+03	2.387969E-03	1.956017E-05
7.575984E+03	2.384192E-03	1.954556E-05
7.585939E+03	2.378359E-03	1.951497E-05
7.595894E+03	2.370671E-03	1.947002E-05
7.605850E+03	2.361377E-03	1.941272E-05
7.615805E+03	2.350972E-03	1.934713E-05
7.625760E+03	2.339690E-03	1.927513E-05
7.635716E+03	2.327924E-03	1.919996E-05
7.645671E+03	2.315805E-03	1.912270E-05
7.655626E+03	2.303640E-03	1.904586E-05
7.665582E+03	2.291552E-03	1.897047E-05
7.675537E+03	2.279687E-03	1.889776E-05
7.685492E+03	2.268168E-03	1.882874E-05
7.695447E+03	2.257093E-03	1.876426E-05
7.705403E+03	2.246528E-03	1.870488E-05
7.715358E+03	2.236449E-03	1.865042E-05
7.725313E+03	2.226952E-03	1.860171E-05
