#wls	flux	fluxerr
1.592848E+03	4.321208E-04	8.264345E-06
1.632669E+03	4.469111E-04	8.505910E-06
1.672491E+03	4.608880E-04	8.728337E-06
1.712312E+03	4.738709E-04	8.928344E-06
1.752133E+03	4.856282E-04	9.101777E-06
1.791954E+03	4.956234E-04	9.238906E-06
1.831775E+03	5.029643E-04	9.323637E-06
1.871597E+03	5.068211E-04	9.341432E-06
1.911418E+03	5.062243E-04	9.275595E-06
1.951239E+03	5.005281E-04	9.115793E-06
1.991060E+03	4.900050E-04	8.868679E-06
2.030881E+03	4.767608E-04	8.573825E-06
2.070703E+03	4.651673E-04	8.310364E-06
2.110524E+03	4.612323E-04	8.184384E-06
2.150345E+03	4.706388E-04	8.293274E-06
2.190166E+03	4.962049E-04	8.681316E-06
2.229987E+03	5.371520E-04	9.328671E-06
2.269809E+03	5.901096E-04	1.017098E-05
2.309630E+03	6.509157E-04	1.113189E-05
2.349451E+03	7.160746E-04	1.214845E-05
2.389272E+03	7.832900E-04	1.317970E-05
2.429093E+03	8.513921E-04	1.420468E-05
2.468915E+03	9.201583E-04	1.521876E-05
2.508736E+03	9.897960E-04	1.622448E-05
2.548557E+03	1.060905E-03	1.723059E-05
2.588378E+03	1.134146E-03	1.824646E-05
2.628199E+03	1.210323E-03	1.928330E-05
2.668021E+03	1.290229E-03	2.035159E-05
2.707842E+03	1.374719E-03	2.146225E-05
2.747663E+03	1.464720E-03	2.262667E-05
2.787484E+03	1.561201E-03	2.385620E-05
2.827305E+03	1.665235E-03	2.516300E-05
2.867127E+03	1.778113E-03	2.656172E-05
2.906948E+03	1.901189E-03	2.806684E-05
2.946769E+03	2.036228E-03	2.969783E-05
2.986590E+03	2.185039E-03	3.147333E-05
2.996546E+03	2.224699E-03	3.194317E-05
3.006501E+03	2.265353E-03	3.242326E-05
3.016456E+03	2.307032E-03	3.291387E-05
3.026411E+03	2.349913E-03	3.341737E-05
3.036367E+03	2.394138E-03	3.393560E-05
3.046322E+03	2.439911E-03	3.447119E-05
3.056277E+03	2.487276E-03	3.502458E-05
3.066233E+03	2.536179E-03	3.559475E-05
3.076188E+03	2.586619E-03	3.618144E-05
3.086143E+03	2.638700E-03	3.678588E-05
3.096099E+03	2.692319E-03	3.740636E-05
3.106054E+03	2.747532E-03	3.804343E-05
3.116009E+03	2.804282E-03	3.869606E-05
3.125964E+03	2.862741E-03	3.936638E-05
3.135920E+03	2.922742E-03	4.005182E-05
3.145875E+03	2.984340E-03	4.075288E-05
3.155830E+03	3.047587E-03	4.147005E-05
3.165786E+03	3.112481E-03	4.220299E-05
3.175741E+03	3.178893E-03	4.294975E-05
3.185696E+03	3.246983E-03	4.371219E-05
3.195652E+03	3.316614E-03	4.448822E-05
3.205607E+03	3.387812E-03	4.527796E-05
3.215562E+03	3.460482E-03	4.607987E-05
3.225517E+03	3.534635E-03	4.689386E-05
3.235473E+03	3.610210E-03	4.771888E-05
3.245428E+03	3.687133E-03	4.855372E-05
3.255383E+03	3.765253E-03	4.939617E-05
3.265339E+03	3.844523E-03	5.024543E-05
3.275294E+03	3.924818E-03	5.109966E-05
3.285249E+03	4.005919E-03	5.195585E-05
3.295205E+03	4.087719E-03	5.281249E-05
3.305160E+03	4.169949E-03	5.366597E-05
3.315115E+03	4.252446E-03	5.451412E-05
3.325070E+03	4.334880E-03	5.535266E-05
3.335026E+03	4.416955E-03	5.617782E-05
3.344981E+03	4.498337E-03	5.698541E-05
3.354936E+03	4.578657E-03	5.777086E-05
3.364892E+03	4.657513E-03	5.852925E-05
3.374847E+03	4.734391E-03	5.925438E-05
3.384802E+03	4.808881E-03	5.994139E-05
3.394758E+03	4.880333E-03	6.058261E-05
3.404713E+03	4.948341E-03	6.117345E-05
3.414668E+03	5.012204E-03	6.170581E-05
3.424623E+03	5.071337E-03	6.217314E-05
3.434579E+03	5.125151E-03	6.256899E-05
3.444534E+03	5.172990E-03	6.288619E-05
3.454489E+03	5.214349E-03	6.311959E-05
3.464445E+03	5.248624E-03	6.326287E-05
3.474400E+03	5.275246E-03	6.331034E-05
3.484355E+03	5.293788E-03	6.325809E-05
3.494311E+03	5.303824E-03	6.310231E-05
3.504266E+03	5.305164E-03	6.284212E-05
3.514221E+03	5.297460E-03	6.247475E-05
3.524176E+03	5.280750E-03	6.200212E-05
3.534132E+03	5.255080E-03	6.142618E-05
3.544087E+03	5.220700E-03	6.075126E-05
3.554042E+03	5.177891E-03	5.998202E-05
3.563998E+03	5.127168E-03	5.912574E-05
3.573953E+03	5.069346E-03	5.819304E-05
3.583908E+03	5.005234E-03	5.719432E-05
3.593864E+03	4.936275E-03	5.614703E-05
3.603819E+03	4.864017E-03	5.506944E-05
3.613774E+03	4.790047E-03	5.398002E-05
3.623729E+03	4.716044E-03	5.289787E-05
3.633685E+03	4.643734E-03	5.184229E-05
3.643640E+03	4.574710E-03	5.083073E-05
3.653595E+03	4.510667E-03	4.988143E-05
3.663551E+03	4.453039E-03	4.900940E-05
3.673506E+03	4.403335E-03	4.823018E-05
3.683461E+03	4.362935E-03	4.755756E-05
3.693417E+03	4.333179E-03	4.700462E-05
3.703372E+03	4.315238E-03	4.658235E-05
3.713327E+03	4.310300E-03	4.630163E-05
3.723282E+03	4.319424E-03	4.617175E-05
3.733238E+03	4.343642E-03	4.620148E-05
3.743193E+03	4.383865E-03	4.639808E-05
3.753148E+03	4.440959E-03	4.676817E-05
3.763104E+03	4.515648E-03	4.731666E-05
3.773059E+03	4.608517E-03	4.804693E-05
3.783014E+03	4.720106E-03	4.896168E-05
3.792970E+03	4.850513E-03	5.005904E-05
3.802925E+03	4.999736E-03	5.133601E-05
3.812880E+03	5.167405E-03	5.278592E-05
3.822835E+03	5.352578E-03	5.439630E-05
3.832791E+03	5.553911E-03	5.615087E-05
3.842746E+03	5.769554E-03	5.802852E-05
3.852701E+03	5.996988E-03	6.000186E-05
3.862657E+03	6.233055E-03	6.203770E-05
3.872612E+03	6.473930E-03	6.409686E-05
3.882567E+03	6.715324E-03	6.613646E-05
3.892523E+03	6.952447E-03	6.810959E-05
3.902478E+03	7.180338E-03	6.996864E-05
3.912433E+03	7.393974E-03	7.166649E-05
3.922388E+03	7.588520E-03	7.315885E-05
3.932344E+03	7.759779E-03	7.440855E-05
3.942299E+03	7.904163E-03	7.538508E-05
3.952254E+03	8.018874E-03	7.606616E-05
3.962210E+03	8.102463E-03	7.644281E-05
3.972165E+03	8.154327E-03	7.651425E-05
3.982120E+03	8.175084E-03	7.629120E-05
3.992076E+03	8.166453E-03	7.579447E-05
4.002031E+03	8.130951E-03	7.505182E-05
4.011986E+03	8.071946E-03	7.409831E-05
4.021941E+03	7.993040E-03	7.297046E-05
4.031897E+03	7.898208E-03	7.170736E-05
4.041852E+03	7.791384E-03	7.034697E-05
4.051807E+03	7.676396E-03	6.892546E-05
4.061763E+03	7.556793E-03	6.747575E-05
4.071718E+03	7.435805E-03	6.602719E-05
4.081673E+03	7.316078E-03	6.460334E-05
4.091629E+03	7.199849E-03	6.322367E-05
4.101584E+03	7.089009E-03	6.190414E-05
4.111539E+03	6.984722E-03	6.065406E-05
4.121494E+03	6.887932E-03	5.948063E-05
4.131450E+03	6.799148E-03	5.838711E-05
4.141405E+03	6.718532E-03	5.737373E-05
4.151360E+03	6.645992E-03	5.643855E-05
4.161316E+03	6.581250E-03	5.557806E-05
4.171271E+03	6.523885E-03	5.478765E-05
4.181226E+03	6.473405E-03	5.406218E-05
4.191182E+03	6.429315E-03	5.339660E-05
4.201137E+03	6.391149E-03	5.278619E-05
4.211092E+03	6.358461E-03	5.222653E-05
4.221047E+03	6.330990E-03	5.171475E-05
4.231003E+03	6.308652E-03	5.124954E-05
4.240958E+03	6.291447E-03	5.083021E-05
4.250913E+03	6.279379E-03	5.045621E-05
4.260869E+03	6.272706E-03	5.012895E-05
4.270824E+03	6.271677E-03	4.984979E-05
4.280779E+03	6.276526E-03	4.961992E-05
4.290735E+03	6.287404E-03	4.943985E-05
4.300690E+03	6.304254E-03	4.930847E-05
4.310645E+03	6.326943E-03	4.922410E-05
4.320601E+03	6.354771E-03	4.918070E-05
4.330556E+03	6.386904E-03	4.917136E-05
4.340511E+03	6.422055E-03	4.918580E-05
4.350466E+03	6.458712E-03	4.921221E-05
4.360422E+03	6.495336E-03	4.923882E-05
4.370377E+03	6.531046E-03	4.925905E-05
4.380332E+03	6.566800E-03	4.928024E-05
4.390288E+03	6.605514E-03	4.932424E-05
4.400243E+03	6.650484E-03	4.941526E-05
4.410198E+03	6.704804E-03	4.957559E-05
4.420154E+03	6.771161E-03	4.982404E-05
4.430109E+03	6.851381E-03	5.017283E-05
4.440064E+03	6.946475E-03	5.062799E-05
4.450019E+03	7.056629E-03	5.118949E-05
4.459975E+03	7.180939E-03	5.184943E-05
4.469930E+03	7.317815E-03	5.259515E-05
4.479885E+03	7.464764E-03	5.340782E-05
4.489841E+03	7.618454E-03	5.426294E-05
4.499796E+03	7.774935E-03	5.513213E-05
4.509751E+03	7.929720E-03	5.598371E-05
4.519707E+03	8.077964E-03	5.678403E-05
4.529662E+03	8.214666E-03	5.749897E-05
4.539617E+03	8.334841E-03	5.809503E-05
4.549572E+03	8.433857E-03	5.854174E-05
4.559528E+03	8.507951E-03	5.881511E-05
4.569483E+03	8.553894E-03	5.889515E-05
4.579438E+03	8.569629E-03	5.877020E-05
4.589394E+03	8.554615E-03	5.843909E-05
4.599349E+03	8.509481E-03	5.790854E-05
4.609304E+03	8.435820E-03	5.719167E-05
4.619260E+03	8.336991E-03	5.631325E-05
4.629215E+03	8.216605E-03	5.529932E-05
4.639170E+03	8.079236E-03	5.418197E-05
4.649125E+03	7.929427E-03	5.299253E-05
4.659081E+03	7.771554E-03	5.176082E-05
4.669036E+03	7.609506E-03	5.051293E-05
4.678991E+03	7.446398E-03	4.926951E-05
4.688947E+03	7.284536E-03	4.804555E-05
4.698902E+03	7.124872E-03	4.684698E-05
4.708857E+03	6.967191E-03	4.567200E-05
4.718813E+03	6.810236E-03	4.451194E-05
4.728768E+03	6.651639E-03	4.335095E-05
4.738723E+03	6.488834E-03	4.217210E-05
4.748678E+03	6.319047E-03	4.095725E-05
4.758634E+03	6.140945E-03	3.969781E-05
4.768589E+03	5.955594E-03	3.840071E-05
4.778544E+03	5.767413E-03	3.709436E-05
4.788500E+03	5.582264E-03	3.581616E-05
4.798455E+03	5.405704E-03	3.460118E-05
4.808410E+03	5.242168E-03	3.347705E-05
4.818366E+03	5.095016E-03	3.246430E-05
4.828321E+03	4.966247E-03	3.157468E-05
4.838276E+03	4.856690E-03	3.081245E-05
4.848231E+03	4.766309E-03	3.017641E-05
4.858187E+03	4.694382E-03	2.966106E-05
4.868142E+03	4.639589E-03	2.925724E-05
4.878097E+03	4.600387E-03	2.895448E-05
4.888053E+03	4.574900E-03	2.874031E-05
4.898008E+03	4.561326E-03	2.860287E-05
4.907963E+03	4.557887E-03	2.853057E-05
4.917919E+03	4.562985E-03	2.851300E-05
4.927874E+03	4.575313E-03	2.854169E-05
4.937829E+03	4.593695E-03	2.860905E-05
4.947784E+03	4.617355E-03	2.871001E-05
4.957740E+03	4.645659E-03	2.884045E-05
4.967695E+03	4.678232E-03	2.899789E-05
4.977650E+03	4.714878E-03	2.918095E-05
4.987606E+03	4.755675E-03	2.938999E-05
4.997561E+03	4.800580E-03	2.962459E-05
5.007516E+03	4.849729E-03	2.988548E-05
5.017472E+03	4.903295E-03	3.017359E-05
5.027427E+03	4.961285E-03	3.048884E-05
5.037382E+03	5.023735E-03	3.083131E-05
5.047337E+03	5.090598E-03	3.120062E-05
5.057293E+03	5.161758E-03	3.159593E-05
5.067248E+03	5.237036E-03	3.201605E-05
5.077203E+03	5.316251E-03	3.245976E-05
5.087159E+03	5.399226E-03	3.292591E-05
5.097114E+03	5.485597E-03	3.341220E-05
5.107069E+03	5.575185E-03	3.391745E-05
5.117025E+03	5.667488E-03	3.443855E-05
5.126980E+03	5.762280E-03	3.497409E-05
5.136935E+03	5.859128E-03	3.552140E-05
5.146890E+03	5.957607E-03	3.607785E-05
5.156846E+03	6.057285E-03	3.664083E-05
5.166801E+03	6.157590E-03	3.720686E-05
5.176756E+03	6.257886E-03	3.777211E-05
5.186712E+03	6.357320E-03	3.833145E-05
5.196667E+03	6.455095E-03	3.888011E-05
5.206622E+03	6.549941E-03	3.941051E-05
5.216578E+03	6.640685E-03	3.991567E-05
5.226533E+03	6.726019E-03	4.038783E-05
5.236488E+03	6.804623E-03	4.081920E-05
5.246443E+03	6.875046E-03	4.120124E-05
5.256399E+03	6.936149E-03	4.152728E-05
5.266354E+03	6.986816E-03	4.179084E-05
5.276309E+03	7.026244E-03	4.198733E-05
5.286265E+03	7.053763E-03	4.211296E-05
5.296220E+03	7.069068E-03	4.216613E-05
5.306175E+03	7.071913E-03	4.214560E-05
5.316131E+03	7.062411E-03	4.205227E-05
5.326086E+03	7.040816E-03	4.188786E-05
5.336041E+03	7.007816E-03	4.165665E-05
5.345996E+03	6.964029E-03	4.136252E-05
5.355952E+03	6.910576E-03	4.101228E-05
5.365907E+03	6.848714E-03	4.061354E-05
5.375862E+03	6.779855E-03	4.017480E-05
5.385818E+03	6.705386E-03	3.970436E-05
5.395773E+03	6.626938E-03	3.921196E-05
5.405728E+03	6.546125E-03	3.870720E-05
5.415684E+03	6.464222E-03	3.819764E-05
5.425639E+03	6.382649E-03	3.769168E-05
5.435594E+03	6.302395E-03	3.719517E-05
5.445549E+03	6.224339E-03	3.671326E-05
5.455505E+03	6.149638E-03	3.625274E-05
5.465460E+03	6.078569E-03	3.581512E-05
5.475415E+03	6.010948E-03	3.539918E-05
5.485371E+03	5.946161E-03	3.500119E-05
5.495326E+03	5.883246E-03	3.461540E-05
5.505281E+03	5.820647E-03	3.423256E-05
5.515237E+03	5.757144E-03	3.384542E-05
5.525192E+03	5.691661E-03	3.344760E-05
5.535147E+03	5.623741E-03	3.303635E-05
5.545102E+03	5.553373E-03	3.261156E-05
5.555058E+03	5.481142E-03	3.217663E-05
5.565013E+03	5.407989E-03	3.173702E-05
5.574968E+03	5.335395E-03	3.130139E-05
5.584924E+03	5.264904E-03	3.087872E-05
5.594879E+03	5.198291E-03	3.047936E-05
5.604834E+03	5.137387E-03	3.011400E-05
5.614790E+03	5.083923E-03	2.979270E-05
5.624745E+03	5.039562E-03	2.952515E-05
5.634700E+03	5.005655E-03	2.931917E-05
5.644655E+03	4.983447E-03	2.918199E-05
5.654611E+03	4.973927E-03	2.911934E-05
5.664566E+03	4.977749E-03	2.913495E-05
5.674521E+03	4.995259E-03	2.923079E-05
5.684477E+03	5.026513E-03	2.940712E-05
5.694432E+03	5.071377E-03	2.966309E-05
5.704387E+03	5.129162E-03	2.999461E-05
5.714343E+03	5.199058E-03	3.039688E-05
5.724298E+03	5.279840E-03	3.086271E-05
5.734253E+03	5.369854E-03	3.138238E-05
5.744209E+03	5.467282E-03	3.194524E-05
5.754164E+03	5.570347E-03	3.254088E-05
5.764119E+03	5.676936E-03	3.315695E-05
5.774074E+03	5.784776E-03	3.378017E-05
5.784030E+03	5.891716E-03	3.439799E-05
5.793985E+03	5.995281E-03	3.499599E-05
5.803940E+03	6.093187E-03	3.556086E-05
5.813896E+03	6.183268E-03	3.608000E-05
5.823851E+03	6.263544E-03	3.654190E-05
5.833806E+03	6.332357E-03	3.693695E-05
5.843762E+03	6.388178E-03	3.725630E-05
5.853717E+03	6.430107E-03	3.749478E-05
5.863672E+03	6.457382E-03	3.764799E-05
5.873627E+03	6.469725E-03	3.771440E-05
5.883583E+03	6.467151E-03	3.769418E-05
5.893538E+03	6.449959E-03	3.758912E-05
5.903493E+03	6.418957E-03	3.740402E-05
5.913449E+03	6.374893E-03	3.714328E-05
5.923404E+03	6.318764E-03	3.681277E-05
5.933359E+03	6.251953E-03	3.642061E-05
5.943315E+03	6.175795E-03	3.597460E-05
5.953270E+03	6.091458E-03	3.548159E-05
5.963225E+03	6.000582E-03	3.495117E-05
5.973180E+03	5.904406E-03	3.439057E-05
5.983136E+03	5.804507E-03	3.380900E-05
5.993091E+03	5.702141E-03	3.321379E-05
6.003046E+03	5.598701E-03	3.261306E-05
6.013002E+03	5.495560E-03	3.201481E-05
6.022957E+03	5.394030E-03	3.142671E-05
6.032912E+03	5.295441E-03	3.085650E-05
6.042868E+03	5.200957E-03	3.031099E-05
6.052823E+03	5.112033E-03	2.979866E-05
6.062778E+03	5.029803E-03	2.932616E-05
6.072733E+03	4.955715E-03	2.890196E-05
6.082689E+03	4.891026E-03	2.853343E-05
6.092644E+03	4.836938E-03	2.822766E-05
6.102599E+03	4.794567E-03	2.799125E-05
6.112555E+03	4.764862E-03	2.782983E-05
6.122510E+03	4.748293E-03	2.774629E-05
6.132465E+03	4.744887E-03	2.774093E-05
6.142421E+03	4.754095E-03	2.781071E-05
6.152376E+03	4.774325E-03	2.794652E-05
6.162331E+03	4.803231E-03	2.813480E-05
6.172286E+03	4.837364E-03	2.835548E-05
6.182242E+03	4.872358E-03	2.858304E-05
6.192197E+03	4.902984E-03	2.878681E-05
6.202152E+03	4.923595E-03	2.893357E-05
6.212108E+03	4.929499E-03	2.899557E-05
6.222063E+03	4.919072E-03	2.896298E-05
6.232018E+03	4.894794E-03	2.885014E-05
6.241974E+03	4.860797E-03	2.868112E-05
6.251929E+03	4.821651E-03	2.848268E-05
6.261884E+03	4.781403E-03	2.827863E-05
6.271839E+03	4.743380E-03	2.808860E-05
6.281795E+03	4.710045E-03	2.792718E-05
6.291750E+03	4.682683E-03	2.780208E-05
6.301705E+03	4.661625E-03	2.771537E-05
6.311661E+03	4.646712E-03	2.766625E-05
6.321616E+03	4.637317E-03	2.765110E-05
6.331571E+03	4.632386E-03	2.766375E-05
6.341527E+03	4.630932E-03	2.769843E-05
6.351482E+03	4.631900E-03	2.774888E-05
6.361437E+03	4.634335E-03	2.780942E-05
6.371392E+03	4.637453E-03	2.787531E-05
6.381348E+03	4.640852E-03	2.794407E-05
6.391303E+03	4.644143E-03	2.801331E-05
6.401258E+03	4.647332E-03	2.808298E-05
6.411214E+03	4.650491E-03	2.815344E-05
6.421169E+03	4.653787E-03	2.822563E-05
6.431124E+03	4.657486E-03	2.830112E-05
6.441080E+03	4.661745E-03	2.838079E-05
6.451035E+03	4.666702E-03	2.846545E-05
6.460990E+03	4.672157E-03	2.855382E-05
6.470945E+03	4.678028E-03	2.864536E-05
6.480901E+03	4.683915E-03	2.873756E-05
6.490856E+03	4.689202E-03	2.882656E-05
6.500811E+03	4.693362E-03	2.890905E-05
6.510767E+03	4.696272E-03	2.898416E-05
6.520722E+03	4.698448E-03	2.905497E-05
6.530677E+03	4.700406E-03	2.912457E-05
6.540633E+03	4.702562E-03	2.919550E-05
6.550588E+03	4.705006E-03	2.926827E-05
6.560543E+03	4.707765E-03	2.934298E-05
6.570498E+03	4.710765E-03	2.941914E-05
6.580454E+03	4.713680E-03	2.949465E-05
6.590409E+03	4.715969E-03	2.956607E-05
6.600364E+03	4.717134E-03	2.963020E-05
6.610320E+03	4.716446E-03	2.968236E-05
6.620275E+03	4.713406E-03	2.971927E-05
6.630230E+03	4.707189E-03	2.973561E-05
6.640186E+03	4.697191E-03	2.972740E-05
6.650141E+03	4.683035E-03	2.969205E-05
6.660096E+03	4.664374E-03	2.962721E-05
6.670051E+03	4.640927E-03	2.953088E-05
6.680007E+03	4.612712E-03	2.940299E-05
6.689962E+03	4.579977E-03	2.924493E-05
6.699917E+03	4.542951E-03	2.905801E-05
6.709873E+03	4.502273E-03	2.884615E-05
6.719828E+03	4.458428E-03	2.861234E-05
6.729783E+03	4.412273E-03	2.836199E-05
6.739739E+03	4.364441E-03	2.809908E-05
6.749694E+03	4.315880E-03	2.782969E-05
6.759649E+03	4.267172E-03	2.755756E-05
6.769604E+03	4.219115E-03	2.728783E-05
6.779560E+03	4.172349E-03	2.702470E-05
6.789515E+03	4.127361E-03	2.677136E-05
6.799470E+03	4.084720E-03	2.653157E-05
6.809426E+03	4.044758E-03	2.630756E-05
6.819381E+03	4.007845E-03	2.610183E-05
6.829336E+03	3.974053E-03	2.591493E-05
6.839292E+03	3.943644E-03	2.574866E-05
6.849247E+03	3.916579E-03	2.560286E-05
6.859202E+03	3.892919E-03	2.547803E-05
6.869157E+03	3.872577E-03	2.537367E-05
6.879113E+03	3.855601E-03	2.529019E-05
6.889068E+03	3.841722E-03	2.522591E-05
6.899023E+03	3.831027E-03	2.518145E-05
6.908979E+03	3.823150E-03	2.515449E-05
6.918934E+03	3.817834E-03	2.514340E-05
6.928889E+03	3.814821E-03	2.514652E-05
6.938845E+03	3.813633E-03	2.516075E-05
6.948800E+03	3.813860E-03	2.518341E-05
6.958755E+03	3.815041E-03	2.521150E-05
6.968710E+03	3.816695E-03	2.524184E-05
6.978666E+03	3.818414E-03	2.527176E-05
6.988621E+03	3.819723E-03	2.529811E-05
6.998576E+03	3.820349E-03	2.531909E-05
7.008532E+03	3.819720E-03	2.533091E-05
7.018487E+03	3.817721E-03	2.533281E-05
7.028442E+03	3.813829E-03	2.532132E-05
7.038398E+03	3.808033E-03	2.529634E-05
7.048353E+03	3.800159E-03	2.525674E-05
7.058308E+03	3.790144E-03	2.520209E-05
7.068263E+03	3.778104E-03	2.513318E-05
7.078219E+03	3.763970E-03	2.504954E-05
7.088174E+03	3.747944E-03	2.495255E-05
7.098129E+03	3.730142E-03	2.484299E-05
7.108085E+03	3.710847E-03	2.472277E-05
7.118040E+03	3.690271E-03	2.459331E-05
7.127995E+03	3.668604E-03	2.445595E-05
7.137951E+03	3.646150E-03	2.431270E-05
7.147906E+03	3.622952E-03	2.416392E-05
7.157861E+03	3.599406E-03	2.401226E-05
7.167817E+03	3.575623E-03	2.385852E-05
7.177772E+03	3.551662E-03	2.370312E-05
7.187727E+03	3.527754E-03	2.354765E-05
7.197682E+03	3.504012E-03	2.339291E-05
7.207638E+03	3.480462E-03	2.323912E-05
7.217593E+03	3.457284E-03	2.308750E-05
7.227548E+03	3.434639E-03	2.293920E-05
7.237504E+03	3.412655E-03	2.279510E-05
7.247459E+03	3.391464E-03	2.265613E-05
7.257414E+03	3.371016E-03	2.252201E-05
7.267370E+03	3.351494E-03	2.239400E-05
7.277325E+03	3.332866E-03	2.227192E-05
7.287280E+03	3.315052E-03	2.215530E-05
7.297235E+03	3.298080E-03	2.204436E-05
7.307191E+03	3.281782E-03	2.193802E-05
7.317146E+03	3.266101E-03	2.183596E-05
7.327101E+03	3.250937E-03	2.173754E-05
7.337057E+03	3.236126E-03	2.164171E-05
7.347012E+03	3.221618E-03	2.154819E-05
7.356967E+03	3.207059E-03	2.145465E-05
7.366923E+03	3.192475E-03	2.136131E-05
7.376878E+03	3.177620E-03	2.126656E-05
7.386833E+03	3.162479E-03	2.117037E-05
7.396788E+03	3.147042E-03	2.107267E-05
7.406744E+03	3.131395E-03	2.097412E-05
7.416699E+03	3.115722E-03	2.087597E-05
7.426654E+03	3.100150E-03	2.077912E-05
7.436610E+03	3.085092E-03	2.068638E-05
7.446565E+03	3.070601E-03	2.059816E-05
7.456520E+03	3.056992E-03	2.051660E-05
7.466476E+03	3.044351E-03	2.044233E-05
7.476431E+03	3.032987E-03	2.037745E-05
7.486386E+03	3.022896E-03	2.032194E-05
7.496341E+03	3.014076E-03	2.027583E-05
7.506297E+03	3.006533E-03	2.023917E-05
7.516252E+03	3.000153E-03	2.021125E-05
7.526207E+03	2.994861E-03	2.019157E-05
7.536163E+03	2.990228E-03	2.017729E-05
7.546118E+03	2.985939E-03	2.016629E-05
7.556073E+03	2.981588E-03	2.015588E-05
7.566029E+03	2.976562E-03	2.014191E-05
7.575984E+03	2.970370E-03	2.012105E-05
7.585939E+03	2.962530E-03	2.009004E-05
7.595894E+03	2.953186E-03	2.004983E-05
7.605850E+03	2.942429E-03	2.000102E-05
7.615805E+03	2.930648E-03	1.994624E-05
7.625760E+03	2.917959E-03	1.988625E-05
7.635716E+03	2.904749E-03	1.982369E-05
7.645671E+03	2.891114E-03	1.975921E-05
7.655626E+03	2.877387E-03	1.969507E-05
7.665582E+03	2.863732E-03	1.963242E-05
7.675537E+03	2.850362E-03	1.957272E-05
7.685492E+03	2.837445E-03	1.951715E-05
7.695447E+03	2.825170E-03	1.946703E-05
7.705403E+03	2.813682E-03	1.942341E-05
7.715358E+03	2.803009E-03	1.938650E-05
7.725313E+03	2.793319E-03	1.935753E-05
