#wls	flux	fluxerr
1.592848E+03	3.583893E-04	1.159715E-05
1.632669E+03	3.697325E-04	1.191359E-05
1.672491E+03	3.803311E-04	1.220178E-05
1.712312E+03	3.900405E-04	1.245729E-05
1.752133E+03	3.986760E-04	1.267451E-05
1.791954E+03	4.058054E-04	1.284013E-05
1.831775E+03	4.107111E-04	1.293213E-05
1.871597E+03	4.127345E-04	1.293083E-05
1.911418E+03	4.111112E-04	1.281373E-05
1.951239E+03	4.053486E-04	1.256730E-05
1.991060E+03	3.957020E-04	1.220151E-05
2.030881E+03	3.839012E-04	1.177145E-05
2.070703E+03	3.734761E-04	1.138597E-05
2.110524E+03	3.692254E-04	1.118987E-05
2.150345E+03	3.756307E-04	1.131483E-05
2.190166E+03	3.948382E-04	1.181912E-05
2.229987E+03	4.261109E-04	1.267334E-05
2.269809E+03	4.666673E-04	1.378796E-05
2.309630E+03	5.131328E-04	1.505795E-05
2.349451E+03	5.626957E-04	1.639722E-05
2.389272E+03	6.135169E-04	1.775001E-05
2.429093E+03	6.646581E-04	1.908790E-05
2.468915E+03	7.159278E-04	2.040457E-05
2.508736E+03	7.674678E-04	2.170323E-05
2.548557E+03	8.197166E-04	2.299530E-05
2.588378E+03	8.731482E-04	2.429280E-05
2.628199E+03	9.283323E-04	2.560988E-05
2.668021E+03	9.858115E-04	2.695939E-05
2.707842E+03	1.046154E-03	2.835430E-05
2.747663E+03	1.109954E-03	2.980766E-05
2.787484E+03	1.177804E-03	3.133173E-05
2.827305E+03	1.250327E-03	3.293901E-05
2.867127E+03	1.328257E-03	3.464404E-05
2.906948E+03	1.412294E-03	3.645961E-05
2.946769E+03	1.503346E-03	3.840292E-05
2.986590E+03	1.602218E-03	4.048747E-05
2.996546E+03	1.628304E-03	4.103343E-05
3.006501E+03	1.654922E-03	4.158871E-05
3.016456E+03	1.682081E-03	4.215337E-05
3.026411E+03	1.709895E-03	4.273013E-05
3.036367E+03	1.738450E-03	4.332094E-05
3.046322E+03	1.767876E-03	4.392891E-05
3.056277E+03	1.798186E-03	4.455413E-05
3.066233E+03	1.829323E-03	4.519496E-05
3.076188E+03	1.861257E-03	4.585050E-05
3.086143E+03	1.894048E-03	4.652199E-05
3.096099E+03	1.927592E-03	4.720669E-05
3.106054E+03	1.961901E-03	4.790471E-05
3.116009E+03	1.996915E-03	4.861438E-05
3.125964E+03	2.032720E-03	4.933764E-05
3.135920E+03	2.069170E-03	5.007073E-05
3.145875E+03	2.106271E-03	5.081362E-05
3.155830E+03	2.144027E-03	5.156626E-05
3.165786E+03	2.182399E-03	5.232755E-05
3.175741E+03	2.221262E-03	5.309432E-05
3.185696E+03	2.260691E-03	5.386820E-05
3.195652E+03	2.300546E-03	5.464577E-05
3.205607E+03	2.340809E-03	5.542643E-05
3.215562E+03	2.381373E-03	5.620754E-05
3.225517E+03	2.422200E-03	5.698813E-05
3.235473E+03	2.463207E-03	5.776619E-05
3.245428E+03	2.504305E-03	5.853951E-05
3.255383E+03	2.545343E-03	5.930457E-05
3.265339E+03	2.586254E-03	6.005980E-05
3.275294E+03	2.626913E-03	6.080228E-05
3.285249E+03	2.667140E-03	6.152794E-05
3.295205E+03	2.706830E-03	6.223440E-05
3.305160E+03	2.745782E-03	6.291720E-05
3.315115E+03	2.783867E-03	6.357350E-05
3.325070E+03	2.820859E-03	6.419835E-05
3.335026E+03	2.856561E-03	6.478753E-05
3.344981E+03	2.890771E-03	6.533674E-05
3.354936E+03	2.923275E-03	6.584153E-05
3.364892E+03	2.953853E-03	6.629732E-05
3.374847E+03	2.982238E-03	6.669857E-05
3.384802E+03	3.008244E-03	6.704171E-05
3.394758E+03	3.031565E-03	6.732041E-05
3.404713E+03	3.052064E-03	6.753235E-05
3.414668E+03	3.069452E-03	6.767179E-05
3.424623E+03	3.083534E-03	6.773518E-05
3.434579E+03	3.094136E-03	6.771953E-05
3.444534E+03	3.101066E-03	6.762150E-05
3.454489E+03	3.104249E-03	6.744035E-05
3.464445E+03	3.103560E-03	6.717426E-05
3.474400E+03	3.098912E-03	6.682234E-05
3.484355E+03	3.090310E-03	6.638567E-05
3.494311E+03	3.077773E-03	6.586561E-05
3.504266E+03	3.061457E-03	6.526649E-05
3.514221E+03	3.041424E-03	6.459055E-05
3.524176E+03	3.017963E-03	6.384486E-05
3.534132E+03	2.991353E-03	6.303616E-05
3.544087E+03	2.961989E-03	6.217353E-05
3.554042E+03	2.930262E-03	6.126587E-05
3.563998E+03	2.896681E-03	6.032437E-05
3.573953E+03	2.861883E-03	5.936276E-05
3.583908E+03	2.826406E-03	5.839245E-05
3.593864E+03	2.790878E-03	5.742658E-05
3.603819E+03	2.755859E-03	5.647665E-05
3.613774E+03	2.721915E-03	5.555413E-05
3.623729E+03	2.689673E-03	5.467151E-05
3.633685E+03	2.659805E-03	5.384198E-05
3.643640E+03	2.632927E-03	5.307737E-05
3.653595E+03	2.609734E-03	5.239093E-05
3.663551E+03	2.590794E-03	5.179309E-05
3.673506E+03	2.576739E-03	5.129535E-05
3.683461E+03	2.568151E-03	5.090806E-05
3.693417E+03	2.565608E-03	5.064125E-05
3.703372E+03	2.569613E-03	5.050329E-05
3.713327E+03	2.580691E-03	5.050278E-05
3.723282E+03	2.599305E-03	5.064700E-05
3.733238E+03	2.625913E-03	5.094287E-05
3.743193E+03	2.660901E-03	5.139586E-05
3.753148E+03	2.704629E-03	5.201073E-05
3.763104E+03	2.757362E-03	5.279035E-05
3.773059E+03	2.819277E-03	5.373578E-05
3.783014E+03	2.890520E-03	5.484746E-05
3.792970E+03	2.970967E-03	5.612064E-05
3.802925E+03	3.060428E-03	5.754942E-05
3.812880E+03	3.158525E-03	5.912437E-05
3.822835E+03	3.264556E-03	6.083024E-05
3.832791E+03	3.377622E-03	6.264832E-05
3.842746E+03	3.496571E-03	6.455550E-05
3.852701E+03	3.619932E-03	6.652327E-05
3.862657E+03	3.745968E-03	6.851875E-05
3.872612E+03	3.872677E-03	7.050478E-05
3.882567E+03	3.997931E-03	7.244266E-05
3.892523E+03	4.119436E-03	7.429142E-05
3.902478E+03	4.234872E-03	7.601038E-05
3.912433E+03	4.341959E-03	7.756041E-05
3.922388E+03	4.438567E-03	7.890584E-05
3.932344E+03	4.522910E-03	8.001777E-05
3.942299E+03	4.593496E-03	8.087316E-05
3.952254E+03	4.649196E-03	8.145575E-05
3.962210E+03	4.689498E-03	8.176051E-05
3.972165E+03	4.714233E-03	8.178852E-05
3.982120E+03	4.723787E-03	8.155045E-05
3.992076E+03	4.718987E-03	8.106444E-05
4.002031E+03	4.700981E-03	8.035386E-05
4.011986E+03	4.671316E-03	7.944841E-05
4.021941E+03	4.631636E-03	7.837896E-05
4.031897E+03	4.583768E-03	7.717883E-05
4.041852E+03	4.529501E-03	7.588013E-05
4.051807E+03	4.470565E-03	7.451337E-05
4.061763E+03	4.408579E-03	7.310658E-05
4.071718E+03	4.345041E-03	7.168528E-05
4.081673E+03	4.281183E-03	7.027010E-05
4.091629E+03	4.218078E-03	6.887867E-05
4.101584E+03	4.156679E-03	6.752630E-05
4.111539E+03	4.097602E-03	6.622253E-05
4.121494E+03	4.041393E-03	6.497557E-05
4.131450E+03	3.988413E-03	6.379046E-05
4.141405E+03	3.938879E-03	6.266990E-05
4.151360E+03	3.892902E-03	6.161479E-05
4.161316E+03	3.850512E-03	6.062470E-05
4.171271E+03	3.811672E-03	5.969823E-05
4.181226E+03	3.776319E-03	5.883350E-05
4.191182E+03	3.744377E-03	5.802851E-05
4.201137E+03	3.715787E-03	5.728153E-05
4.211092E+03	3.690488E-03	5.659084E-05
4.221047E+03	3.668491E-03	5.595581E-05
4.231003E+03	3.649901E-03	5.537729E-05
4.240958E+03	3.634837E-03	5.485627E-05
4.250913E+03	3.623389E-03	5.439329E-05
4.260869E+03	3.615772E-03	5.399074E-05
4.270824E+03	3.612181E-03	5.365064E-05
4.280779E+03	3.612812E-03	5.337500E-05
4.290735E+03	3.617850E-03	5.316559E-05
4.300690E+03	3.627409E-03	5.302310E-05
4.310645E+03	3.641635E-03	5.294868E-05
4.320601E+03	3.660452E-03	5.294022E-05
4.330556E+03	3.683837E-03	5.299643E-05
4.340511E+03	3.711626E-03	5.311401E-05
4.350466E+03	3.743641E-03	5.328954E-05
4.360422E+03	3.779692E-03	5.351947E-05
4.370377E+03	3.819754E-03	5.380267E-05
4.380332E+03	3.864152E-03	5.414292E-05
4.390288E+03	3.913653E-03	5.455009E-05
4.400243E+03	3.969035E-03	5.503400E-05
4.410198E+03	4.031004E-03	5.560329E-05
4.420154E+03	4.100147E-03	5.626475E-05
4.430109E+03	4.176688E-03	5.702013E-05
4.440064E+03	4.260516E-03	5.786658E-05
4.450019E+03	4.351144E-03	5.879623E-05
4.459975E+03	4.447517E-03	5.979376E-05
4.469930E+03	4.548239E-03	6.083960E-05
4.479885E+03	4.651426E-03	6.190810E-05
4.489841E+03	4.754737E-03	6.296809E-05
4.499796E+03	4.855527E-03	6.398500E-05
4.509751E+03	4.950896E-03	6.492165E-05
4.519707E+03	5.037830E-03	6.574006E-05
4.529662E+03	5.113355E-03	6.640357E-05
4.539617E+03	5.174652E-03	6.687817E-05
4.549572E+03	5.219303E-03	6.713569E-05
4.559528E+03	5.245643E-03	6.715806E-05
4.569483E+03	5.252514E-03	6.693404E-05
4.579438E+03	5.239629E-03	6.646357E-05
4.589394E+03	5.207722E-03	6.575946E-05
4.599349E+03	5.158290E-03	6.484380E-05
4.609304E+03	5.093353E-03	6.374481E-05
4.619260E+03	5.015794E-03	6.250089E-05
4.629215E+03	4.928464E-03	6.114936E-05
4.639170E+03	4.834615E-03	5.973174E-05
4.649125E+03	4.737246E-03	5.828579E-05
4.659081E+03	4.639072E-03	5.684509E-05
4.669036E+03	4.542354E-03	5.543709E-05
4.678991E+03	4.448792E-03	5.408202E-05
4.688947E+03	4.359504E-03	5.279273E-05
4.698902E+03	4.274760E-03	5.157164E-05
4.708857E+03	4.194109E-03	5.041250E-05
4.718813E+03	4.116397E-03	4.930070E-05
4.728768E+03	4.039635E-03	4.821192E-05
4.738723E+03	3.961425E-03	4.711717E-05
4.748678E+03	3.878753E-03	4.598052E-05
4.758634E+03	3.788941E-03	4.477048E-05
4.768589E+03	3.691284E-03	4.347917E-05
4.778544E+03	3.589162E-03	4.214673E-05
4.788500E+03	3.486773E-03	4.082238E-05
4.798455E+03	3.387697E-03	3.954749E-05
4.808410E+03	3.294571E-03	3.835205E-05
4.818366E+03	3.209348E-03	3.725777E-05
4.828321E+03	3.133237E-03	3.627754E-05
4.838276E+03	3.066852E-03	3.541732E-05
4.848231E+03	3.010386E-03	3.467818E-05
4.858187E+03	2.963722E-03	3.405769E-05
4.868142E+03	2.926429E-03	3.354988E-05
4.878097E+03	2.897985E-03	3.314785E-05
4.888053E+03	2.877684E-03	3.284269E-05
4.898008E+03	2.864866E-03	3.262617E-05
4.907963E+03	2.858846E-03	3.248982E-05
4.917919E+03	2.858939E-03	3.242532E-05
4.927874E+03	2.864577E-03	3.242574E-05
4.937829E+03	2.875214E-03	3.248451E-05
4.947784E+03	2.890465E-03	3.259690E-05
4.957740E+03	2.909965E-03	3.275850E-05
4.967695E+03	2.933461E-03	3.296617E-05
4.977650E+03	2.960769E-03	3.321759E-05
4.987606E+03	2.991838E-03	3.351198E-05
4.997561E+03	3.026516E-03	3.384741E-05
5.007516E+03	3.064719E-03	3.422275E-05
5.017472E+03	3.106379E-03	3.463707E-05
5.027427E+03	3.151336E-03	3.508842E-05
5.037382E+03	3.199455E-03	3.557514E-05
5.047337E+03	3.250553E-03	3.609507E-05
5.057293E+03	3.304429E-03	3.664586E-05
5.067248E+03	3.361008E-03	3.722658E-05
5.077203E+03	3.420242E-03	3.783659E-05
5.087159E+03	3.482059E-03	3.847499E-05
5.097114E+03	3.546266E-03	3.913959E-05
5.107069E+03	3.612756E-03	3.982913E-05
5.117025E+03	3.681178E-03	4.053966E-05
5.126980E+03	3.751298E-03	4.126857E-05
5.136935E+03	3.822701E-03	4.201124E-05
5.146890E+03	3.894937E-03	4.276272E-05
5.156846E+03	3.967485E-03	4.351725E-05
5.166801E+03	4.039708E-03	4.426789E-05
5.176756E+03	4.110925E-03	4.500717E-05
5.186712E+03	4.180350E-03	4.572656E-05
5.196667E+03	4.247262E-03	4.641820E-05
5.206622E+03	4.310670E-03	4.707137E-05
5.216578E+03	4.369747E-03	4.767713E-05
5.226533E+03	4.423621E-03	4.822609E-05
5.236488E+03	4.471489E-03	4.870963E-05
5.246443E+03	4.512623E-03	4.911997E-05
5.256399E+03	4.546553E-03	4.945214E-05
5.266354E+03	4.572874E-03	4.970192E-05
5.276309E+03	4.591446E-03	4.986795E-05
5.286265E+03	4.602234E-03	4.994999E-05
5.296220E+03	4.605395E-03	4.994990E-05
5.306175E+03	4.601098E-03	4.986966E-05
5.316131E+03	4.589656E-03	4.971281E-05
5.326086E+03	4.571412E-03	4.948318E-05
5.336041E+03	4.546966E-03	4.918737E-05
5.345996E+03	4.516772E-03	4.883039E-05
5.355952E+03	4.481553E-03	4.842015E-05
5.365907E+03	4.442117E-03	4.796543E-05
5.375862E+03	4.399300E-03	4.747533E-05
5.385818E+03	4.353807E-03	4.695748E-05
5.395773E+03	4.306387E-03	4.641997E-05
5.405728E+03	4.257680E-03	4.586974E-05
5.415684E+03	4.208010E-03	4.531024E-05
5.425639E+03	4.157736E-03	4.474537E-05
5.435594E+03	4.106906E-03	4.417562E-05
5.445549E+03	4.055435E-03	4.360008E-05
5.455505E+03	4.003263E-03	4.301808E-05
5.465460E+03	3.949997E-03	4.242538E-05
5.475415E+03	3.895649E-03	4.182204E-05
5.485371E+03	3.841020E-03	4.121663E-05
5.495326E+03	3.787069E-03	4.061936E-05
5.505281E+03	3.734365E-03	4.003628E-05
5.515237E+03	3.683431E-03	3.947292E-05
5.525192E+03	3.634597E-03	3.893276E-05
5.535147E+03	3.588234E-03	3.841968E-05
5.545102E+03	3.544582E-03	3.793619E-05
5.555058E+03	3.503971E-03	3.748575E-05
5.565013E+03	3.466731E-03	3.707181E-05
5.574968E+03	3.433316E-03	3.669915E-05
5.584924E+03	3.404094E-03	3.637164E-05
5.594879E+03	3.379516E-03	3.609401E-05
5.604834E+03	3.360028E-03	3.587093E-05
5.614790E+03	3.346006E-03	3.570634E-05
5.624745E+03	3.337816E-03	3.560407E-05
5.634700E+03	3.335701E-03	3.556658E-05
5.644655E+03	3.339892E-03	3.559628E-05
5.654611E+03	3.350530E-03	3.569455E-05
5.664566E+03	3.367637E-03	3.586155E-05
5.674521E+03	3.391127E-03	3.609624E-05
5.684477E+03	3.420799E-03	3.639642E-05
5.694432E+03	3.456411E-03	3.675940E-05
5.704387E+03	3.497453E-03	3.717970E-05
5.714343E+03	3.543450E-03	3.765217E-05
5.724298E+03	3.593790E-03	3.817025E-05
5.734253E+03	3.647723E-03	3.872592E-05
5.744209E+03	3.704473E-03	3.931090E-05
5.754164E+03	3.763203E-03	3.991627E-05
5.764119E+03	3.822911E-03	4.053140E-05
5.774074E+03	3.882552E-03	4.114519E-05
5.784030E+03	3.941143E-03	4.174726E-05
5.793985E+03	3.997468E-03	4.232476E-05
5.803940E+03	4.050434E-03	4.286618E-05
5.813896E+03	4.099023E-03	4.336082E-05
5.823851E+03	4.142273E-03	4.379859E-05
5.833806E+03	4.179326E-03	4.417055E-05
5.843762E+03	4.209359E-03	4.446811E-05
5.853717E+03	4.231840E-03	4.468579E-05
5.863672E+03	4.246223E-03	4.481796E-05
5.873627E+03	4.252273E-03	4.486231E-05
5.883583E+03	4.249886E-03	4.481788E-05
5.893538E+03	4.239070E-03	4.468492E-05
5.903493E+03	4.220090E-03	4.446637E-05
5.913449E+03	4.193170E-03	4.416475E-05
5.923404E+03	4.158713E-03	4.378442E-05
5.933359E+03	4.117349E-03	4.333216E-05
5.943315E+03	4.069721E-03	4.281483E-05
5.953270E+03	4.016447E-03	4.223907E-05
5.963225E+03	3.958459E-03	4.161474E-05
5.973180E+03	3.896498E-03	4.094972E-05
5.983136E+03	3.831634E-03	4.025529E-05
5.993091E+03	3.764786E-03	3.954118E-05
6.003046E+03	3.697035E-03	3.881876E-05
6.013002E+03	3.629491E-03	3.809968E-05
6.022957E+03	3.563232E-03	3.739530E-05
6.032912E+03	3.499337E-03	3.671690E-05
6.042868E+03	3.438733E-03	3.607421E-05
6.052823E+03	3.382474E-03	3.547827E-05
6.062778E+03	3.331326E-03	3.493711E-05
6.072733E+03	3.286154E-03	3.445975E-05
6.082689E+03	3.247597E-03	3.405291E-05
6.092644E+03	3.216171E-03	3.372197E-05
6.102599E+03	3.192264E-03	3.347105E-05
6.112555E+03	3.176116E-03	3.330265E-05
6.122510E+03	3.167654E-03	3.321608E-05
6.132465E+03	3.166559E-03	3.320802E-05
6.142421E+03	3.172250E-03	3.327247E-05
6.152376E+03	3.183602E-03	3.339770E-05
6.162331E+03	3.199189E-03	3.356886E-05
6.172286E+03	3.217122E-03	3.376617E-05
6.182242E+03	3.235099E-03	3.396546E-05
6.192197E+03	3.250396E-03	3.413812E-05
6.202152E+03	3.260157E-03	3.425405E-05
6.212108E+03	3.261781E-03	3.428585E-05
6.222063E+03	3.254282E-03	3.422298E-05
6.232018E+03	3.239213E-03	3.408160E-05
6.241974E+03	3.218670E-03	3.388359E-05
6.251929E+03	3.194835E-03	3.365179E-05
6.261884E+03	3.169634E-03	3.340637E-05
6.271839E+03	3.144666E-03	3.316410E-05
6.281795E+03	3.121209E-03	3.293841E-05
6.291750E+03	3.100168E-03	3.273882E-05
6.301705E+03	3.082017E-03	3.257034E-05
6.311661E+03	3.067032E-03	3.243589E-05
6.321616E+03	3.055265E-03	3.233607E-05
6.331571E+03	3.046510E-03	3.226871E-05
6.341527E+03	3.040591E-03	3.223198E-05
6.351482E+03	3.037271E-03	3.222339E-05
6.361437E+03	3.036288E-03	3.224017E-05
6.371392E+03	3.037377E-03	3.227951E-05
6.381348E+03	3.040436E-03	3.234029E-05
6.391303E+03	3.045242E-03	3.242013E-05
6.401258E+03	3.051706E-03	3.251809E-05
6.411214E+03	3.059643E-03	3.263217E-05
6.421169E+03	3.068850E-03	3.276017E-05
6.431124E+03	3.079121E-03	3.289988E-05
6.441080E+03	3.090150E-03	3.304799E-05
6.451035E+03	3.101594E-03	3.320080E-05
6.460990E+03	3.112886E-03	3.335216E-05
6.470945E+03	3.123567E-03	3.349710E-05
6.480901E+03	3.133004E-03	3.362876E-05
6.490856E+03	3.140465E-03	3.373916E-05
6.500811E+03	3.145366E-03	3.382191E-05
6.510767E+03	3.147505E-03	3.387470E-05
6.520722E+03	3.147263E-03	3.390151E-05
6.530677E+03	3.145162E-03	3.390782E-05
6.540633E+03	3.141759E-03	3.389959E-05
6.550588E+03	3.137413E-03	3.388055E-05
6.560543E+03	3.132437E-03	3.385405E-05
6.570498E+03	3.127070E-03	3.382261E-05
6.580454E+03	3.121382E-03	3.378692E-05
6.590409E+03	3.115276E-03	3.374590E-05
6.600364E+03	3.108671E-03	3.369859E-05
6.610320E+03	3.101288E-03	3.364194E-05
6.620275E+03	3.092979E-03	3.357429E-05
6.630230E+03	3.083350E-03	3.349129E-05
6.640186E+03	3.072109E-03	3.338973E-05
6.650141E+03	3.059077E-03	3.326760E-05
6.660096E+03	3.044066E-03	3.312279E-05
6.670051E+03	3.026893E-03	3.295326E-05
6.680007E+03	3.007617E-03	3.275960E-05
6.689962E+03	2.986422E-03	3.254378E-05
6.699917E+03	2.963432E-03	3.230710E-05
6.709873E+03	2.938975E-03	3.205313E-05
6.719828E+03	2.913262E-03	3.178413E-05
6.729783E+03	2.886725E-03	3.150483E-05
6.739739E+03	2.859615E-03	3.121797E-05
6.749694E+03	2.832380E-03	3.092844E-05
6.759649E+03	2.805239E-03	3.063865E-05
6.769604E+03	2.778549E-03	3.035251E-05
6.779560E+03	2.752567E-03	3.007286E-05
6.789515E+03	2.727458E-03	2.980153E-05
6.799470E+03	2.703454E-03	2.954105E-05
6.809426E+03	2.680634E-03	2.929234E-05
6.819381E+03	2.659132E-03	2.905686E-05
6.829336E+03	2.638902E-03	2.883415E-05
6.839292E+03	2.620061E-03	2.862549E-05
6.849247E+03	2.602542E-03	2.843017E-05
6.859202E+03	2.586337E-03	2.824812E-05
6.869157E+03	2.571363E-03	2.807844E-05
6.879113E+03	2.557669E-03	2.792167E-05
6.889068E+03	2.545082E-03	2.777594E-05
6.899023E+03	2.533702E-03	2.764235E-05
6.908979E+03	2.523350E-03	2.751895E-05
6.918934E+03	2.513927E-03	2.740468E-05
6.928889E+03	2.505351E-03	2.729863E-05
6.938845E+03	2.497422E-03	2.719863E-05
6.948800E+03	2.490018E-03	2.710338E-05
6.958755E+03	2.483012E-03	2.701150E-05
6.968710E+03	2.476270E-03	2.692154E-05
6.978666E+03	2.469691E-03	2.683243E-05
6.988621E+03	2.463127E-03	2.674257E-05
6.998576E+03	2.456570E-03	2.665190E-05
7.008532E+03	2.449777E-03	2.655782E-05
7.018487E+03	2.442796E-03	2.646087E-05
7.028442E+03	2.435391E-03	2.635854E-05
7.038398E+03	2.427602E-03	2.625131E-05
7.048353E+03	2.419335E-03	2.613818E-05
7.058308E+03	2.410554E-03	2.601883E-05
7.068263E+03	2.401310E-03	2.589386E-05
7.078219E+03	2.391514E-03	2.576235E-05
7.088174E+03	2.381233E-03	2.562507E-05
7.098129E+03	2.370466E-03	2.548209E-05
7.108085E+03	2.359310E-03	2.533449E-05
7.118040E+03	2.347806E-03	2.518278E-05
7.127995E+03	2.335958E-03	2.502703E-05
7.137951E+03	2.323847E-03	2.486819E-05
7.147906E+03	2.311395E-03	2.470547E-05
7.157861E+03	2.298715E-03	2.454014E-05
7.167817E+03	2.285754E-03	2.437168E-05
7.177772E+03	2.272445E-03	2.419944E-05
7.187727E+03	2.258853E-03	2.402417E-05
7.197682E+03	2.244976E-03	2.384592E-05
7.207638E+03	2.230777E-03	2.366433E-05
7.217593E+03	2.216416E-03	2.348119E-05
7.227548E+03	2.202057E-03	2.329827E-05
7.237504E+03	2.187831E-03	2.311701E-05
7.247459E+03	2.173884E-03	2.293899E-05
7.257414E+03	2.160238E-03	2.276449E-05
7.267370E+03	2.147062E-03	2.259531E-05
7.277325E+03	2.134399E-03	2.243194E-05
7.287280E+03	2.122262E-03	2.227455E-05
7.297235E+03	2.110722E-03	2.212390E-05
7.307191E+03	2.099717E-03	2.197938E-05
7.317146E+03	2.089250E-03	2.184103E-05
7.327101E+03	2.079297E-03	2.170864E-05
7.337057E+03	2.069786E-03	2.158149E-05
7.347012E+03	2.060713E-03	2.145955E-05
7.356967E+03	2.051884E-03	2.134087E-05
7.366923E+03	2.043338E-03	2.122587E-05
7.376878E+03	2.034933E-03	2.111314E-05
7.386833E+03	2.026676E-03	2.100277E-05
7.396788E+03	2.018579E-03	2.089496E-05
7.406744E+03	2.010718E-03	2.079051E-05
7.416699E+03	2.003209E-03	2.069069E-05
7.426654E+03	1.996116E-03	2.059619E-05
7.436610E+03	1.989663E-03	2.050936E-05
7.446565E+03	1.983844E-03	2.043016E-05
7.456520E+03	1.978822E-03	2.036032E-05
7.466476E+03	1.974603E-03	2.029991E-05
7.476431E+03	1.971326E-03	2.025036E-05
7.486386E+03	1.968939E-03	2.021110E-05
7.496341E+03	1.967382E-03	2.018153E-05
7.506297E+03	1.966590E-03	2.016098E-05
7.516252E+03	1.966409E-03	2.014786E-05
7.526207E+03	1.966710E-03	2.014088E-05
7.536163E+03	1.967130E-03	2.013633E-05
7.546118E+03	1.967381E-03	2.013129E-05
7.556073E+03	1.967116E-03	2.012221E-05
7.566029E+03	1.965843E-03	2.010411E-05
7.575984E+03	1.963133E-03	2.007263E-05
7.585939E+03	1.958590E-03	2.002373E-05
7.595894E+03	1.952452E-03	1.995989E-05
7.605850E+03	1.944952E-03	1.988348E-05
7.615805E+03	1.936485E-03	1.979858E-05
7.625760E+03	1.927241E-03	1.970710E-05
7.635716E+03	1.917549E-03	1.961243E-05
7.645671E+03	1.907518E-03	1.951569E-05
7.655626E+03	1.897399E-03	1.941944E-05
7.665582E+03	1.887299E-03	1.932478E-05
7.675537E+03	1.877336E-03	1.923292E-05
7.685492E+03	1.867593E-03	1.914472E-05
7.695447E+03	1.858138E-03	1.906090E-05
7.705403E+03	1.849005E-03	1.898180E-05
7.715358E+03	1.840146E-03	1.890695E-05
7.725313E+03	1.831629E-03	1.883706E-05
