#wls	flux	fluxerr
1.592848E+03	3.466904E-04	1.230297E-05
1.632669E+03	3.565151E-04	1.259938E-05
1.672491E+03	3.655247E-04	1.286283E-05
1.712312E+03	3.735855E-04	1.308885E-05
1.752133E+03	3.805266E-04	1.327180E-05
1.791954E+03	3.859453E-04	1.339810E-05
1.831775E+03	3.891747E-04	1.344538E-05
1.871597E+03	3.896144E-04	1.339400E-05
1.911418E+03	3.865755E-04	1.322180E-05
1.951239E+03	3.796362E-04	1.291626E-05
1.991060E+03	3.690820E-04	1.248921E-05
2.030881E+03	3.565659E-04	1.199838E-05
2.070703E+03	3.453802E-04	1.155517E-05
2.110524E+03	3.399276E-04	1.130538E-05
2.150345E+03	3.442393E-04	1.137887E-05
2.190166E+03	3.601341E-04	1.182938E-05
2.229987E+03	3.867698E-04	1.262190E-05
2.269809E+03	4.214613E-04	1.366210E-05
2.309630E+03	4.610334E-04	1.484193E-05
2.349451E+03	5.028705E-04	1.607386E-05
2.389272E+03	5.452704E-04	1.730161E-05
2.429093E+03	5.873589E-04	1.849654E-05
2.468915E+03	6.289338E-04	1.965183E-05
2.508736E+03	6.700834E-04	2.076986E-05
2.548557E+03	7.111462E-04	2.186061E-05
2.588378E+03	7.524747E-04	2.293415E-05
2.628199E+03	7.944848E-04	2.400207E-05
2.668021E+03	8.375450E-04	2.507410E-05
2.707842E+03	8.820178E-04	2.615931E-05
2.747663E+03	9.282555E-04	2.726604E-05
2.787484E+03	9.765683E-04	2.840094E-05
2.827305E+03	1.027249E-03	2.956971E-05
2.867127E+03	1.080623E-03	3.077854E-05
2.906948E+03	1.136918E-03	3.203043E-05
2.946769E+03	1.196446E-03	3.333030E-05
2.986590E+03	1.259335E-03	3.467749E-05
2.996546E+03	1.275627E-03	3.502239E-05
3.006501E+03	1.292114E-03	3.536948E-05
3.016456E+03	1.308790E-03	3.571854E-05
3.026411E+03	1.325733E-03	3.607162E-05
3.036367E+03	1.342995E-03	3.643007E-05
3.046322E+03	1.360664E-03	3.679611E-05
3.056277E+03	1.378733E-03	3.716948E-05
3.066233E+03	1.397138E-03	3.754835E-05
3.076188E+03	1.415845E-03	3.793167E-05
3.086143E+03	1.434878E-03	3.831999E-05
3.096099E+03	1.454143E-03	3.871069E-05
3.106054E+03	1.473631E-03	3.910349E-05
3.116009E+03	1.493275E-03	3.949652E-05
3.125964E+03	1.513126E-03	3.989105E-05
3.135920E+03	1.533053E-03	4.028357E-05
3.145875E+03	1.553042E-03	4.067369E-05
3.155830E+03	1.573079E-03	4.106097E-05
3.165786E+03	1.593115E-03	4.144414E-05
3.175741E+03	1.613039E-03	4.182032E-05
3.185696E+03	1.632890E-03	4.219044E-05
3.195652E+03	1.652548E-03	4.255149E-05
3.205607E+03	1.671986E-03	4.290276E-05
3.215562E+03	1.691107E-03	4.324185E-05
3.225517E+03	1.709876E-03	4.356790E-05
3.235473E+03	1.728220E-03	4.387917E-05
3.245428E+03	1.746065E-03	4.417384E-05
3.255383E+03	1.763303E-03	4.444932E-05
3.265339E+03	1.779880E-03	4.470443E-05
3.275294E+03	1.795709E-03	4.493713E-05
3.285249E+03	1.810674E-03	4.514473E-05
3.295205E+03	1.824710E-03	4.532584E-05
3.305160E+03	1.837693E-03	4.547766E-05
3.315115E+03	1.849562E-03	4.559892E-05
3.325070E+03	1.860185E-03	4.568674E-05
3.335026E+03	1.869472E-03	4.573922E-05
3.344981E+03	1.877329E-03	4.575444E-05
3.354936E+03	1.883665E-03	4.573060E-05
3.364892E+03	1.888395E-03	4.566610E-05
3.374847E+03	1.891413E-03	4.555880E-05
3.384802E+03	1.892677E-03	4.540821E-05
3.394758E+03	1.892077E-03	4.521220E-05
3.404713E+03	1.889619E-03	4.497147E-05
3.414242E+03	1.350209E-03	3.200901E-05
3.416994E+03	1.389596E-03	3.290556E-05
3.419744E+03	1.387183E-03	3.281126E-05
3.422496E+03	1.413923E-03	3.340585E-05
3.425248E+03	1.406674E-03	3.319681E-05
3.427998E+03	1.393650E-03	3.285204E-05
3.430750E+03	1.394279E-03	3.282936E-05
3.433502E+03	1.404806E-03	3.303943E-05
3.436253E+03	1.406497E-03	3.304129E-05
3.439004E+03	1.398504E-03	3.281582E-05
3.441756E+03	1.393339E-03	3.265703E-05
3.444506E+03	1.379504E-03	3.229551E-05
3.447258E+03	1.344600E-03	3.144203E-05
3.450009E+03	1.326442E-03	3.098154E-05
3.452761E+03	1.326585E-03	3.094894E-05
3.455512E+03	1.316139E-03	3.066956E-05
3.458263E+03	1.315382E-03	3.061623E-05
3.461015E+03	1.295678E-03	3.012243E-05
3.463766E+03	1.292197E-03	3.000640E-05
3.466517E+03	1.295292E-03	3.004302E-05
3.469269E+03	1.287550E-03	2.982840E-05
3.472020E+03	1.295025E-03	2.996630E-05
3.474771E+03	1.273579E-03	2.943532E-05
3.477523E+03	1.254126E-03	2.895148E-05
3.480274E+03	1.248962E-03	2.879816E-05
3.483025E+03	1.231961E-03	2.837246E-05
3.485777E+03	1.219903E-03	2.806138E-05
3.488528E+03	1.197635E-03	2.751637E-05
3.491279E+03	1.206987E-03	2.769815E-05
3.494031E+03	1.217838E-03	2.791374E-05
3.496781E+03	1.227332E-03	2.809767E-05
3.499533E+03	1.200764E-03	2.745644E-05
3.502285E+03	1.197227E-03	2.734264E-05
3.505035E+03	1.171192E-03	2.671581E-05
3.507787E+03	1.160748E-03	2.644560E-05
3.510539E+03	1.148326E-03	2.613092E-05
3.513289E+03	1.147852E-03	2.608848E-05
3.516041E+03	1.132693E-03	2.571266E-05
3.518793E+03	1.106404E-03	2.508532E-05
3.521543E+03	1.092628E-03	2.474278E-05
3.524295E+03	1.081284E-03	2.445596E-05
3.527047E+03	1.058805E-03	2.391820E-05
3.529797E+03	1.058805E-03	2.388886E-05
3.532549E+03	1.065236E-03	2.400442E-05
3.535301E+03	1.063634E-03	2.393878E-05
3.538051E+03	1.043656E-03	2.346014E-05
3.540803E+03	1.041854E-03	2.339067E-05
3.543554E+03	1.031070E-03	2.311986E-05
3.546305E+03	1.010922E-03	2.263993E-05
3.549057E+03	1.018885E-03	2.278986E-05
3.551808E+03	1.005258E-03	2.245704E-05
3.554559E+03	9.857896E-04	2.199462E-05
3.557311E+03	9.886148E-04	2.203004E-05
3.560062E+03	9.866378E-04	2.195840E-05
3.562814E+03	9.837629E-04	2.186690E-05
3.565565E+03	9.684548E-04	2.149953E-05
3.568316E+03	9.578475E-04	2.123722E-05
3.571068E+03	9.484582E-04	2.100245E-05
3.573819E+03	9.392512E-04	2.077223E-05
3.576570E+03	9.263167E-04	2.046017E-05
3.579321E+03	9.191712E-04	2.027653E-05
3.582072E+03	9.081091E-04	2.000698E-05
3.584824E+03	9.009534E-04	1.982398E-05
3.587576E+03	8.950188E-04	1.966820E-05
3.590326E+03	8.806865E-04	1.932844E-05
3.593078E+03	8.721011E-04	1.911544E-05
3.595829E+03	8.620014E-04	1.886975E-05
3.598580E+03	8.677003E-04	1.897001E-05
3.601332E+03	8.434375E-04	1.841574E-05
3.604084E+03	8.369089E-04	1.824954E-05
3.606834E+03	8.424112E-04	1.834570E-05
3.609586E+03	8.328080E-04	1.811300E-05
3.612338E+03	8.285821E-04	1.799762E-05
3.615088E+03	8.256748E-04	1.791108E-05
3.617840E+03	8.175231E-04	1.771106E-05
3.620592E+03	8.053055E-04	1.742352E-05
3.623342E+03	8.068282E-04	1.743357E-05
3.626094E+03	8.087744E-04	1.745264E-05
3.628845E+03	8.021204E-04	1.728624E-05
3.631596E+03	7.958407E-04	1.712828E-05
3.634348E+03	7.902664E-04	1.698581E-05
3.637099E+03	7.906917E-04	1.697243E-05
3.639850E+03	7.905950E-04	1.694783E-05
3.642602E+03	7.919150E-04	1.695354E-05
3.645353E+03	7.985287E-04	1.707234E-05
3.648104E+03	8.017848E-04	1.711907E-05
3.650856E+03	8.045669E-04	1.715548E-05
3.653607E+03	8.085301E-04	1.721687E-05
3.656358E+03	8.148573E-04	1.732830E-05
3.659110E+03	8.118173E-04	1.724042E-05
3.661861E+03	8.107620E-04	1.719479E-05
3.664612E+03	7.974499E-04	1.688962E-05
3.667364E+03	7.891493E-04	1.669119E-05
3.670115E+03	7.781954E-04	1.643718E-05
3.672866E+03	7.725857E-04	1.629652E-05
3.675617E+03	7.711858E-04	1.624484E-05
3.678369E+03	7.699260E-04	1.619618E-05
3.681120E+03	7.558351E-04	1.587804E-05
3.683871E+03	7.570796E-04	1.588240E-05
3.686623E+03	7.440710E-04	1.558809E-05
3.689374E+03	7.425649E-04	1.553516E-05
3.692125E+03	7.341907E-04	1.533881E-05
3.694877E+03	7.303125E-04	1.523673E-05
3.697628E+03	7.214592E-04	1.503122E-05
3.700379E+03	7.126504E-04	1.482713E-05
3.703131E+03	7.117967E-04	1.478881E-05
3.705882E+03	7.154887E-04	1.484486E-05
3.708633E+03	7.111263E-04	1.473380E-05
3.711385E+03	7.044402E-04	1.457490E-05
3.714136E+03	7.057115E-04	1.458079E-05
3.716887E+03	7.032381E-04	1.450933E-05
3.719639E+03	7.123719E-04	1.467715E-05
3.722390E+03	7.150606E-04	1.471183E-05
3.725141E+03	7.149994E-04	1.468986E-05
3.727893E+03	7.249361E-04	1.487299E-05
3.730643E+03	7.273838E-04	1.490211E-05
3.733395E+03	7.474610E-04	1.529174E-05
3.736147E+03	7.542672E-04	1.540908E-05
3.738898E+03	7.653381E-04	1.561302E-05
3.741649E+03	7.793942E-04	1.587712E-05
3.744401E+03	7.881407E-04	1.603238E-05
3.747152E+03	8.023847E-04	1.629880E-05
3.749903E+03	8.195668E-04	1.662397E-05
3.752655E+03	8.381702E-04	1.697692E-05
3.755406E+03	8.541181E-04	1.727507E-05
3.758157E+03	8.691641E-04	1.755407E-05
3.760909E+03	8.888074E-04	1.792489E-05
3.763660E+03	9.146603E-04	1.841961E-05
3.766411E+03	9.417918E-04	1.893853E-05
3.769162E+03	9.721463E-04	1.952056E-05
3.771914E+03	1.000698E-03	2.006466E-05
3.774665E+03	1.033941E-03	2.070104E-05
3.777416E+03	1.063343E-03	2.125864E-05
3.780168E+03	1.100471E-03	2.196876E-05
3.782919E+03	1.140015E-03	2.272486E-05
3.785670E+03	1.171686E-03	2.332193E-05
3.788422E+03	1.207195E-03	2.399342E-05
3.791173E+03	1.242844E-03	2.466560E-05
3.793924E+03	1.280529E-03	2.537602E-05
3.796676E+03	1.318258E-03	2.608509E-05
3.799427E+03	1.358259E-03	2.683685E-05
3.802178E+03	1.396977E-03	2.756093E-05
3.804930E+03	1.433320E-03	2.823595E-05
3.807681E+03	1.471508E-03	2.894513E-05
3.810432E+03	1.509740E-03	2.965289E-05
3.813184E+03	1.547540E-03	3.034995E-05
3.815934E+03	1.587374E-03	3.108461E-05
3.818686E+03	1.621847E-03	3.171208E-05
3.821438E+03	1.661481E-03	3.243829E-05
3.824188E+03	1.700446E-03	3.314914E-05
3.826940E+03	1.744999E-03	3.396643E-05
3.829692E+03	1.793290E-03	3.485375E-05
3.832442E+03	1.836313E-03	3.563601E-05
3.835194E+03	1.883737E-03	3.650099E-05
3.837946E+03	1.931297E-03	3.736581E-05
3.840696E+03	1.975436E-03	3.816175E-05
3.843448E+03	2.020799E-03	3.897868E-05
3.846200E+03	2.069426E-03	3.985579E-05
3.848951E+03	2.120175E-03	4.077083E-05
3.851702E+03	2.158169E-03	4.143801E-05
3.854454E+03	2.197482E-03	4.212819E-05
3.857204E+03	2.238635E-03	4.285131E-05
3.859956E+03	2.278310E-03	4.354372E-05
3.862707E+03	2.315180E-03	4.418027E-05
3.865458E+03	2.352135E-03	4.481629E-05
3.868210E+03	2.390363E-03	4.547430E-05
3.870961E+03	2.426496E-03	4.609026E-05
3.873713E+03	2.455371E-03	4.656646E-05
3.876464E+03	2.489781E-03	4.714577E-05
3.879215E+03	2.521859E-03	4.767895E-05
3.881967E+03	2.558237E-03	4.829139E-05
3.884718E+03	2.586272E-03	4.874447E-05
3.887469E+03	2.619789E-03	4.929904E-05
3.890221E+03	2.648467E-03	4.976070E-05
3.892972E+03	2.681252E-03	5.029777E-05
3.895723E+03	2.712086E-03	5.079631E-05
3.898475E+03	2.744378E-03	5.132030E-05
3.901225E+03	2.772917E-03	5.177237E-05
3.903977E+03	2.794255E-03	5.208848E-05
3.906729E+03	2.817096E-03	5.243131E-05
3.909479E+03	2.834203E-03	5.266628E-05
3.912231E+03	2.850261E-03	5.288073E-05
3.914983E+03	2.863753E-03	5.304674E-05
3.917733E+03	2.878042E-03	5.322671E-05
3.920485E+03	2.885558E-03	5.328077E-05
3.923237E+03	2.893917E-03	5.334994E-05
3.925987E+03	2.906807E-03	5.350203E-05
3.928739E+03	2.899974E-03	5.329093E-05
3.931491E+03	2.900509E-03	5.321540E-05
3.934241E+03	2.900377E-03	5.312766E-05
3.936993E+03	2.894661E-03	5.293780E-05
3.939745E+03	2.888372E-03	5.273783E-05
3.942495E+03	2.884536E-03	5.258298E-05
3.945247E+03	2.871435E-03	5.225973E-05
3.947998E+03	2.856770E-03	5.190884E-05
3.950749E+03	2.841865E-03	5.155451E-05
3.953501E+03	2.825306E-03	5.117108E-05
3.956252E+03	2.806382E-03	5.074588E-05
3.959003E+03	2.787175E-03	5.031673E-05
3.961755E+03	2.766076E-03	4.985460E-05
3.964506E+03	2.744507E-03	4.938526E-05
3.967257E+03	2.719490E-03	4.885531E-05
3.970009E+03	2.693011E-03	4.830059E-05
3.972760E+03	2.671203E-03	4.783110E-05
3.975511E+03	2.644018E-03	4.726680E-05
3.978263E+03	2.614098E-03	4.665529E-05
3.981014E+03	2.590123E-03	4.615149E-05
3.983766E+03	2.560822E-03	4.555436E-05
3.986517E+03	2.534727E-03	4.501596E-05
3.989268E+03	2.507599E-03	4.446075E-05
3.992019E+03	2.484715E-03	4.398232E-05
3.994770E+03	2.456647E-03	4.341363E-05
3.997522E+03	2.429244E-03	4.285831E-05
4.000274E+03	2.409286E-03	4.243578E-05
4.003024E+03	2.382735E-03	4.189854E-05
4.005776E+03	2.360896E-03	4.144557E-05
4.008528E+03	2.340470E-03	4.101866E-05
4.011278E+03	2.320329E-03	4.059800E-05
4.014030E+03	2.300754E-03	4.018840E-05
4.016782E+03	2.280568E-03	3.976934E-05
4.019532E+03	2.263441E-03	3.940475E-05
4.022284E+03	2.250220E-03	3.910906E-05
4.025036E+03	2.231823E-03	3.872437E-05
4.027786E+03	2.213569E-03	3.834329E-05
4.030538E+03	2.198278E-03	3.801451E-05
4.033290E+03	2.190274E-03	3.781247E-05
4.036040E+03	2.180292E-03	3.757686E-05
4.038792E+03	2.172235E-03	3.737497E-05
4.041543E+03	2.158444E-03	3.707511E-05
4.044294E+03	2.138500E-03	3.667058E-05
4.047046E+03	2.128606E-03	3.643928E-05
4.049797E+03	2.117631E-03	3.619013E-05
4.052548E+03	2.106562E-03	3.594006E-05
4.055300E+03	2.094833E-03	3.567940E-05
4.058051E+03	2.086577E-03	3.547854E-05
4.060802E+03	2.080334E-03	3.531238E-05
4.063554E+03	2.070711E-03	3.508933E-05
4.066305E+03	2.056915E-03	3.479629E-05
4.069056E+03	2.050384E-03	3.462681E-05
4.071808E+03	2.044366E-03	3.446637E-05
4.074559E+03	2.034923E-03	3.424869E-05
4.077310E+03	2.027165E-03	3.405993E-05
4.080062E+03	2.022216E-03	3.391876E-05
4.082813E+03	2.013611E-03	3.371672E-05
4.085564E+03	2.013007E-03	3.364897E-05
4.088315E+03	2.007623E-03	3.350154E-05
4.091067E+03	2.005418E-03	3.340742E-05
4.093818E+03	1.996472E-03	3.320140E-05
4.096569E+03	1.991172E-03	3.305645E-05
4.099321E+03	1.985963E-03	3.291338E-05
4.102072E+03	1.980001E-03	3.275821E-05
4.104823E+03	1.979221E-03	3.268903E-05
4.107575E+03	1.974934E-03	3.256211E-05
4.110326E+03	1.973397E-03	3.248078E-05
4.113077E+03	1.968025E-03	3.233658E-05
4.115829E+03	1.969978E-03	3.231289E-05
4.118581E+03	1.971129E-03	3.227601E-05
4.121331E+03	1.969615E-03	3.219559E-05
4.124083E+03	1.972616E-03	3.218900E-05
4.126835E+03	1.973559E-03	3.214877E-05
4.129585E+03	1.977568E-03	3.215842E-05
4.132337E+03	1.981150E-03	3.216097E-05
4.135087E+03	1.983093E-03	3.213686E-05
4.137839E+03	1.983071E-03	3.208089E-05
4.140591E+03	1.987557E-03	3.209781E-05
4.143341E+03	1.985242E-03	3.200492E-05
4.146093E+03	1.986314E-03	3.196674E-05
4.148845E+03	1.991517E-03	3.199492E-05
4.151595E+03	1.996707E-03	3.202272E-05
4.154347E+03	1.997056E-03	3.197279E-05
4.157099E+03	1.995401E-03	3.189089E-05
4.159850E+03	1.994713E-03	3.182459E-05
4.162601E+03	1.998706E-03	3.183297E-05
4.165353E+03	1.996888E-03	3.174882E-05
4.168104E+03	1.995344E-03	3.166921E-05
4.170855E+03	1.993467E-03	3.158450E-05
4.173607E+03	1.994412E-03	3.154460E-05
4.176358E+03	1.990112E-03	3.142194E-05
4.179109E+03	1.982797E-03	3.125210E-05
4.181860E+03	1.973674E-03	3.105427E-05
4.184612E+03	1.965615E-03	3.087376E-05
4.187363E+03	1.957367E-03	3.069083E-05
4.190114E+03	1.952958E-03	3.056853E-05
4.192866E+03	1.946508E-03	3.041466E-05
4.195617E+03	1.937793E-03	3.022594E-05
4.198368E+03	1.933278E-03	3.010316E-05
4.201120E+03	1.922758E-03	2.988739E-05
4.203871E+03	1.912654E-03	2.967874E-05
4.206622E+03	1.903379E-03	2.948358E-05
4.209374E+03	1.893966E-03	2.928687E-05
4.212125E+03	1.882799E-03	2.906373E-05
4.214876E+03	1.872326E-03	2.885196E-05
4.217628E+03	1.860934E-03	2.862670E-05
4.220379E+03	1.848391E-03	2.838452E-05
4.223130E+03	1.839945E-03	2.820589E-05
4.225882E+03	1.831637E-03	2.802992E-05
4.228632E+03	1.819558E-03	2.779691E-05
4.231384E+03	1.808814E-03	2.758500E-05
4.234136E+03	1.797750E-03	2.736889E-05
4.236886E+03	1.789763E-03	2.720025E-05
4.239638E+03	1.782005E-03	2.703559E-05
4.242390E+03	1.777594E-03	2.692215E-05
4.245140E+03	1.770565E-03	2.676948E-05
4.247892E+03	1.766422E-03	2.666083E-05
4.250644E+03	1.764747E-03	2.658970E-05
4.253395E+03	1.757663E-03	2.643742E-05
4.256146E+03	1.752499E-03	2.631446E-05
4.258898E+03	1.743856E-03	2.613972E-05
4.261648E+03	1.741978E-03	2.606678E-05
4.264400E+03	1.740185E-03	2.599532E-05
4.267151E+03	1.736101E-03	2.588991E-05
4.269902E+03	1.729958E-03	2.575420E-05
4.272654E+03	1.723221E-03	2.561006E-05
4.275405E+03	1.716937E-03	2.547313E-05
4.278156E+03	1.710787E-03	2.533864E-05
4.280908E+03	1.703223E-03	2.518366E-05
4.283659E+03	1.694794E-03	2.501641E-05
4.286411E+03	1.684454E-03	2.482155E-05
4.289162E+03	1.678754E-03	2.469562E-05
4.291913E+03	1.668188E-03	2.449863E-05
4.294665E+03	1.660305E-03	2.434163E-05
4.297416E+03	1.652649E-03	2.418848E-05
4.300167E+03	1.641000E-03	2.397748E-05
4.302919E+03	1.630579E-03	2.378511E-05
4.305670E+03	1.617714E-03	2.355780E-05
4.308421E+03	1.610697E-03	2.341626E-05
4.311173E+03	1.597298E-03	2.318256E-05
4.313923E+03	1.583678E-03	2.294648E-05
4.316675E+03	1.573366E-03	2.275902E-05
4.319427E+03	1.561612E-03	2.255137E-05
4.322177E+03	1.554017E-03	2.240439E-05
4.324929E+03	1.544392E-03	2.222867E-05
4.327681E+03	1.535310E-03	2.206137E-05
4.330431E+03	1.530647E-03	2.195803E-05
4.333183E+03	1.523504E-03	2.181952E-05
4.335935E+03	1.515325E-03	2.166668E-05
4.338685E+03	1.512141E-03	2.158566E-05
4.341437E+03	1.509401E-03	2.151126E-05
4.344189E+03	1.506790E-03	2.143896E-05
4.346939E+03	1.503454E-03	2.135664E-05
4.349691E+03	1.501684E-03	2.129681E-05
4.352443E+03	1.502956E-03	2.128027E-05
4.355193E+03	1.504574E-03	2.126873E-05
4.357945E+03	1.505151E-03	2.124255E-05
4.360696E+03	1.510281E-03	2.128064E-05
4.363447E+03	1.515751E-03	2.132346E-05
4.366199E+03	1.522813E-03	2.138851E-05
4.368950E+03	1.527354E-03	2.141806E-05
4.371701E+03	1.534735E-03	2.148732E-05
4.374453E+03	1.543611E-03	2.157730E-05
4.377204E+03	1.555361E-03	2.170715E-05
4.379955E+03	1.567305E-03	2.183938E-05
4.382707E+03	1.580514E-03	2.198880E-05
4.385458E+03	1.593559E-03	2.213556E-05
4.388209E+03	1.608752E-03	2.231171E-05
4.390961E+03	1.622803E-03	2.247156E-05
4.393712E+03	1.637799E-03	2.264403E-05
4.396463E+03	1.652984E-03	2.281866E-05
4.399215E+03	1.671502E-03	2.303876E-05
4.401966E+03	1.691530E-03	2.327903E-05
4.404717E+03	1.708821E-03	2.348105E-05
4.407468E+03	1.728726E-03	2.371838E-05
4.410220E+03	1.746560E-03	2.392671E-05
4.412971E+03	1.762811E-03	2.411287E-05
4.415722E+03	1.783304E-03	2.435646E-05
4.418474E+03	1.804238E-03	2.460544E-05
4.421226E+03	1.824293E-03	2.484181E-05
4.423976E+03	1.844877E-03	2.508479E-05
4.426728E+03	1.868802E-03	2.537249E-05
4.429480E+03	1.893204E-03	2.566593E-05
4.432230E+03	1.915452E-03	2.592947E-05
4.434982E+03	1.940327E-03	2.622786E-05
4.437734E+03	1.962567E-03	2.648995E-05
4.440484E+03	1.989138E-03	2.680978E-05
4.443236E+03	2.015784E-03	2.712982E-05
4.445988E+03	2.040587E-03	2.742433E-05
4.448738E+03	2.071751E-03	2.780351E-05
4.451490E+03	2.099323E-03	2.813361E-05
4.454241E+03	2.133198E-03	2.854729E-05
4.456992E+03	2.164396E-03	2.892420E-05
4.459744E+03	2.195703E-03	2.930167E-05
4.462495E+03	2.225687E-03	2.966063E-05
4.465246E+03	2.257868E-03	3.004803E-05
4.467998E+03	2.287859E-03	3.040543E-05
4.470749E+03	2.317833E-03	3.076182E-05
4.473500E+03	2.348481E-03	3.112638E-05
4.476252E+03	2.377898E-03	3.147385E-05
4.479003E+03	2.406260E-03	3.180667E-05
4.481754E+03	2.438277E-03	3.218707E-05
4.484506E+03	2.469279E-03	3.255330E-05
4.487257E+03	2.500735E-03	3.292477E-05
4.490008E+03	2.527261E-03	3.323070E-05
4.492760E+03	2.553559E-03	3.353305E-05
4.495511E+03	2.581864E-03	3.386122E-05
4.498262E+03	2.609338E-03	3.417792E-05
4.501013E+03	2.635510E-03	3.447704E-05
4.503765E+03	2.659656E-03	3.474921E-05
4.506516E+03	2.683964E-03	3.502310E-05
4.509267E+03	2.710188E-03	3.532157E-05
4.512019E+03	2.734479E-03	3.559442E-05
4.514770E+03	2.758502E-03	3.586344E-05
4.517521E+03	2.778891E-03	3.608491E-05
4.520273E+03	2.795697E-03	3.625969E-05
4.523024E+03	2.813318E-03	3.644495E-05
4.525775E+03	2.827837E-03	3.658995E-05
4.528527E+03	2.839645E-03	3.669989E-05
4.531278E+03	2.852188E-03	3.681943E-05
4.534029E+03	2.864450E-03	3.693540E-05
4.536781E+03	2.875199E-03	3.703198E-05
4.539532E+03	2.881474E-03	3.707115E-05
4.542283E+03	2.885958E-03	3.708756E-05
4.545035E+03	2.889752E-03	3.709546E-05
4.547786E+03	2.892140E-03	3.708568E-05
4.550537E+03	2.895533E-03	3.708919E-05
4.553289E+03	2.894701E-03	3.703900E-05
4.556040E+03	2.890622E-03	3.694781E-05
4.558791E+03	2.888736E-03	3.688521E-05
4.561543E+03	2.886516E-03	3.681888E-05
4.564294E+03	2.879760E-03	3.669527E-05
4.567045E+03	2.871209E-03	3.654950E-05
4.569797E+03	2.860283E-03	3.637420E-05
4.572548E+03	2.845060E-03	3.614507E-05
4.575299E+03	2.832418E-03	3.594958E-05
4.578051E+03	2.815783E-03	3.570424E-05
4.580802E+03	2.799098E-03	3.545915E-05
4.583553E+03	2.780061E-03	3.518519E-05
4.586304E+03	2.760602E-03	3.490681E-05
4.589056E+03	2.739263E-03	3.460562E-05
4.591807E+03	2.718547E-03	3.431327E-05
4.594558E+03	2.695000E-03	3.398615E-05
4.597310E+03	2.665100E-03	3.357998E-05
4.600061E+03	2.637914E-03	3.320912E-05
4.602812E+03	2.608747E-03	3.281438E-05
4.605564E+03	2.578971E-03	3.241307E-05
