#wls	flux	fluxerr
1.592848E+03	4.760579E-04	1.309661E-05
1.632669E+03	4.929794E-04	1.348702E-05
1.672491E+03	5.090502E-04	1.384733E-05
1.712312E+03	5.240672E-04	1.417226E-05
1.752133E+03	5.377702E-04	1.445512E-05
1.791954E+03	5.495587E-04	1.468033E-05
1.831775E+03	5.584345E-04	1.482219E-05
1.871597E+03	5.634633E-04	1.485743E-05
1.911418E+03	5.635502E-04	1.475929E-05
1.951239E+03	5.579548E-04	1.451112E-05
1.991060E+03	5.469579E-04	1.412332E-05
2.030881E+03	5.328908E-04	1.365876E-05
2.070703E+03	5.206337E-04	1.324348E-05
2.110524E+03	5.169262E-04	1.304664E-05
2.150345E+03	5.281807E-04	1.322371E-05
2.190166E+03	5.576239E-04	1.384556E-05
2.229987E+03	6.044524E-04	1.488072E-05
2.269809E+03	6.649376E-04	1.622657E-05
2.309630E+03	7.344364E-04	1.776117E-05
2.349451E+03	8.090341E-04	1.938386E-05
2.389272E+03	8.861508E-04	2.102896E-05
2.429093E+03	9.644689E-04	2.266271E-05
2.468915E+03	1.043739E-03	2.427740E-05
2.508736E+03	1.124198E-03	2.587670E-05
2.548557E+03	1.206533E-03	2.747425E-05
2.588378E+03	1.291503E-03	2.908461E-05
2.628199E+03	1.380037E-03	3.072532E-05
2.668021E+03	1.473061E-03	3.241274E-05
2.707842E+03	1.571579E-03	3.416391E-05
2.747663E+03	1.676691E-03	3.599672E-05
2.787484E+03	1.789555E-03	3.792894E-05
2.827305E+03	1.911474E-03	3.997992E-05
2.867127E+03	2.044028E-03	4.217304E-05
2.906948E+03	2.188902E-03	4.453180E-05
2.946769E+03	2.348305E-03	4.708796E-05
2.986590E+03	2.524570E-03	4.987287E-05
2.996546E+03	2.571659E-03	5.061047E-05
3.006501E+03	2.619985E-03	5.136455E-05
3.016456E+03	2.669587E-03	5.213555E-05
3.026411E+03	2.720681E-03	5.292736E-05
3.036367E+03	2.773436E-03	5.374288E-05
3.046322E+03	2.828099E-03	5.458645E-05
3.056277E+03	2.884735E-03	5.545882E-05
3.066233E+03	2.943287E-03	5.635846E-05
3.076188E+03	3.003769E-03	5.728510E-05
3.086143E+03	3.066317E-03	5.824086E-05
3.096099E+03	3.130822E-03	5.922315E-05
3.106054E+03	3.197362E-03	6.023295E-05
3.116009E+03	3.265894E-03	6.126891E-05
3.125964E+03	3.336631E-03	6.233449E-05
3.135920E+03	3.409398E-03	6.342591E-05
3.145875E+03	3.484279E-03	6.454415E-05
3.155830E+03	3.561359E-03	6.569026E-05
3.165786E+03	3.640656E-03	6.686399E-05
3.175741E+03	3.722048E-03	6.806250E-05
3.185696E+03	3.805744E-03	6.928910E-05
3.195652E+03	3.891614E-03	7.054078E-05
3.205607E+03	3.979720E-03	7.181810E-05
3.215562E+03	4.069982E-03	7.311904E-05
3.225517E+03	4.162444E-03	7.444379E-05
3.235473E+03	4.257070E-03	7.579112E-05
3.245428E+03	4.353813E-03	7.715963E-05
3.255383E+03	4.452526E-03	7.854616E-05
3.265339E+03	4.553194E-03	7.994991E-05
3.275294E+03	4.655708E-03	8.136841E-05
3.285249E+03	4.759851E-03	8.279740E-05
3.295205E+03	4.865528E-03	8.423478E-05
3.305160E+03	4.972460E-03	8.567530E-05
3.315115E+03	5.080482E-03	8.711578E-05
3.325070E+03	5.189232E-03	8.854972E-05
3.335026E+03	5.298379E-03	8.997125E-05
3.344981E+03	5.407543E-03	9.137380E-05
3.354936E+03	5.516289E-03	9.275001E-05
3.364892E+03	5.624127E-03	9.409176E-05
3.374847E+03	5.730422E-03	9.538865E-05
3.384802E+03	5.834644E-03	9.663225E-05
3.394758E+03	5.935958E-03	9.780929E-05
3.404713E+03	6.033803E-03	9.891129E-05
3.414668E+03	6.127230E-03	9.992361E-05
3.424623E+03	6.215414E-03	1.008340E-04
3.434579E+03	6.297497E-03	1.016298E-04
3.444534E+03	6.372515E-03	1.022973E-04
3.454489E+03	6.439673E-03	1.028254E-04
3.464445E+03	6.498017E-03	1.032011E-04
3.474400E+03	6.546636E-03	1.034122E-04
3.484355E+03	6.584755E-03	1.034491E-04
3.494311E+03	6.611606E-03	1.033024E-04
3.504266E+03	6.626689E-03	1.029674E-04
3.514221E+03	6.629307E-03	1.024363E-04
3.524176E+03	6.619240E-03	1.017090E-04
3.534132E+03	6.596267E-03	1.007854E-04
3.544087E+03	6.560437E-03	9.966978E-05
3.554042E+03	6.511842E-03	9.836683E-05
3.563998E+03	6.450909E-03	9.688635E-05
3.573953E+03	6.378507E-03	9.524458E-05
3.583908E+03	6.295632E-03	9.345935E-05
3.593864E+03	6.204190E-03	9.156159E-05
3.603819E+03	6.106341E-03	8.958530E-05
3.613774E+03	6.004352E-03	8.756525E-05
3.623729E+03	5.900622E-03	8.553737E-05
3.633685E+03	5.797610E-03	8.353759E-05
3.643640E+03	5.697598E-03	8.159843E-05
3.653595E+03	5.602971E-03	7.975310E-05
3.663551E+03	5.515775E-03	7.802917E-05
3.673506E+03	5.438125E-03	7.645448E-05
3.683461E+03	5.371950E-03	7.505348E-05
3.693417E+03	5.319102E-03	7.384893E-05
3.703372E+03	5.281208E-03	7.285978E-05
3.713327E+03	5.259879E-03	7.210423E-05
3.723282E+03	5.256570E-03	7.159776E-05
3.733238E+03	5.272687E-03	7.135471E-05
3.743193E+03	5.309476E-03	7.138672E-05
3.753148E+03	5.368125E-03	7.170428E-05
3.763104E+03	5.449651E-03	7.231514E-05
3.773059E+03	5.554909E-03	7.322460E-05
3.783014E+03	5.684717E-03	7.443717E-05
3.792970E+03	5.839363E-03	7.595019E-05
3.802925E+03	6.019009E-03	7.775928E-05
3.812880E+03	6.223375E-03	7.985434E-05
3.822835E+03	6.451466E-03	8.221627E-05
3.832791E+03	6.701756E-03	8.481962E-05
3.842746E+03	6.972038E-03	8.763093E-05
3.852701E+03	7.259216E-03	9.060642E-05
3.862657E+03	7.559303E-03	9.369241E-05
3.872612E+03	7.867351E-03	9.682476E-05
3.882567E+03	8.177717E-03	9.993260E-05
3.892523E+03	8.484027E-03	1.029382E-04
3.902478E+03	8.779485E-03	1.057609E-04
3.912433E+03	9.057163E-03	1.083209E-04
3.922388E+03	9.310391E-03	1.105439E-04
3.932344E+03	9.533236E-03	1.123664E-04
3.942299E+03	9.720668E-03	1.137378E-04
3.952254E+03	9.868822E-03	1.146226E-04
3.962210E+03	9.975582E-03	1.150066E-04
3.972165E+03	1.004013E-02	1.148913E-04
3.982120E+03	1.006339E-02	1.142983E-04
3.992076E+03	1.004767E-02	1.132643E-04
4.002031E+03	9.996427E-03	1.118381E-04
4.011986E+03	9.914317E-03	1.100806E-04
4.021941E+03	9.806370E-03	1.080549E-04
4.031897E+03	9.678107E-03	1.058283E-04
4.041852E+03	9.534987E-03	1.034649E-04
4.051807E+03	9.382263E-03	1.010252E-04
4.061763E+03	9.224762E-03	9.856312E-05
4.071718E+03	9.066832E-03	9.612594E-05
4.081673E+03	8.911996E-03	9.375081E-05
4.091629E+03	8.763168E-03	9.146737E-05
4.101584E+03	8.622736E-03	8.929884E-05
4.111539E+03	8.492117E-03	8.725773E-05
4.121494E+03	8.372368E-03	8.535241E-05
4.131450E+03	8.263930E-03	8.358472E-05
4.141405E+03	8.166787E-03	8.195179E-05
4.151360E+03	8.080557E-03	8.044713E-05
4.161316E+03	8.004578E-03	7.906167E-05
4.171271E+03	7.938007E-03	7.778474E-05
4.181226E+03	7.879903E-03	7.660510E-05
4.191182E+03	7.829314E-03	7.551164E-05
4.201137E+03	7.785349E-03	7.449421E-05
4.211092E+03	7.747169E-03	7.354342E-05
4.221047E+03	7.714180E-03	7.265246E-05
4.231003E+03	7.686078E-03	7.181745E-05
4.240958E+03	7.662701E-03	7.103595E-05
4.250913E+03	7.643942E-03	7.030603E-05
4.260869E+03	7.630046E-03	6.962911E-05
4.270824E+03	7.621300E-03	6.900687E-05
4.280779E+03	7.618012E-03	6.844116E-05
4.290735E+03	7.620424E-03	6.793319E-05
4.300690E+03	7.628535E-03	6.748195E-05
4.310645E+03	7.642226E-03	6.708545E-05
4.320601E+03	7.660677E-03	6.673565E-05
4.330556E+03	7.682797E-03	6.642240E-05
4.340511E+03	7.706791E-03	6.612972E-05
4.350466E+03	7.730436E-03	6.583835E-05
4.360422E+03	7.751322E-03	6.552804E-05
4.370377E+03	7.767950E-03	6.518679E-05
4.380332E+03	7.781953E-03	6.482905E-05
4.390288E+03	7.798160E-03	6.449526E-05
4.400243E+03	7.821844E-03	6.422837E-05
4.410198E+03	7.857799E-03	6.406620E-05
4.420154E+03	7.910022E-03	6.403907E-05
4.430109E+03	7.981234E-03	6.416621E-05
4.440064E+03	8.073019E-03	6.445726E-05
4.450019E+03	8.185831E-03	6.491268E-05
4.459975E+03	8.318736E-03	6.552200E-05
4.469930E+03	8.469904E-03	6.626807E-05
4.479885E+03	8.636386E-03	6.712554E-05
4.489841E+03	8.814186E-03	6.806168E-05
4.499796E+03	8.998541E-03	6.903875E-05
4.509751E+03	9.183994E-03	7.001471E-05
4.519707E+03	9.364591E-03	7.094487E-05
4.529662E+03	9.534127E-03	7.178372E-05
4.539617E+03	9.686304E-03	7.248623E-05
4.549572E+03	9.815127E-03	7.301062E-05
4.559528E+03	9.915490E-03	7.332271E-05
4.569483E+03	9.982841E-03	7.339308E-05
4.579438E+03	1.001393E-02	7.320247E-05
4.589394E+03	1.000716E-02	7.274385E-05
4.599349E+03	9.962370E-03	7.202088E-05
4.609304E+03	9.880724E-03	7.104627E-05
4.619260E+03	9.765453E-03	6.984725E-05
4.629215E+03	9.620362E-03	6.845443E-05
4.639170E+03	9.450719E-03	6.690798E-05
4.649125E+03	9.262019E-03	6.524881E-05
4.659081E+03	9.059850E-03	6.351754E-05
4.669036E+03	8.849455E-03	6.175154E-05
4.678991E+03	8.635357E-03	5.998246E-05
4.688947E+03	8.421224E-03	5.823537E-05
4.698902E+03	8.209199E-03	5.652440E-05
4.708857E+03	8.000109E-03	5.485430E-05
4.718813E+03	7.793458E-03	5.322052E-05
4.728768E+03	7.587284E-03	5.160861E-05
4.738723E+03	7.379251E-03	5.000183E-05
4.748678E+03	7.166654E-03	4.838125E-05
4.758634E+03	6.948370E-03	4.673882E-05
4.768589E+03	6.725919E-03	4.508436E-05
4.778544E+03	6.504401E-03	4.345146E-05
4.788500E+03	6.290405E-03	4.188319E-05
4.798455E+03	6.090115E-03	4.041942E-05
4.808410E+03	5.908306E-03	3.909024E-05
4.818366E+03	5.748387E-03	3.791642E-05
4.828321E+03	5.612146E-03	3.690793E-05
4.838276E+03	5.499955E-03	3.606537E-05
4.848231E+03	5.411174E-03	3.538284E-05
4.858187E+03	5.344414E-03	3.484966E-05
4.868142E+03	5.297611E-03	3.445096E-05
4.878097E+03	5.268460E-03	3.417049E-05
4.888053E+03	5.254306E-03	3.398997E-05
4.898008E+03	5.252640E-03	3.389229E-05
4.907963E+03	5.261056E-03	3.386118E-05
4.917919E+03	5.277385E-03	3.388210E-05
4.927874E+03	5.299928E-03	3.394366E-05
4.937829E+03	5.327283E-03	3.403649E-05
4.947784E+03	5.358593E-03	3.415479E-05
4.957740E+03	5.393287E-03	3.429466E-05
4.967695E+03	5.431198E-03	3.445477E-05
4.977650E+03	5.472386E-03	3.463529E-05
4.987606E+03	5.517272E-03	3.483863E-05
4.997561E+03	5.566168E-03	3.506651E-05
5.007516E+03	5.619526E-03	3.532154E-05
5.017472E+03	5.677821E-03	3.560641E-05
5.027427E+03	5.741316E-03	3.592250E-05
5.037382E+03	5.810203E-03	3.627072E-05
5.047337E+03	5.884533E-03	3.665112E-05
5.057293E+03	5.964220E-03	3.706287E-05
5.067248E+03	6.048997E-03	3.750404E-05
5.077203E+03	6.138560E-03	3.797252E-05
5.087159E+03	6.232598E-03	3.846614E-05
5.097114E+03	6.330579E-03	3.898142E-05
5.107069E+03	6.432216E-03	3.951641E-05
5.117025E+03	6.536925E-03	4.006736E-05
5.126980E+03	6.644493E-03	4.063286E-05
5.136935E+03	6.754541E-03	4.121047E-05
5.146890E+03	6.866770E-03	4.179829E-05
5.156846E+03	6.980858E-03	4.239431E-05
5.166801E+03	7.096337E-03	4.299565E-05
5.176756E+03	7.212669E-03	4.359905E-05
5.186712E+03	7.329044E-03	4.419967E-05
5.196667E+03	7.444646E-03	4.479267E-05
5.206622E+03	7.558043E-03	4.536960E-05
5.216578E+03	7.667856E-03	4.592237E-05
5.226533E+03	7.772455E-03	4.644153E-05
5.236488E+03	7.870117E-03	4.691717E-05
5.246443E+03	7.958974E-03	4.733860E-05
5.256399E+03	8.037478E-03	4.769716E-05
5.266354E+03	8.104103E-03	4.798441E-05
5.276309E+03	8.157640E-03	4.819386E-05
5.286265E+03	8.197067E-03	4.832019E-05
5.296220E+03	8.221808E-03	4.836075E-05
5.306175E+03	8.231318E-03	4.831312E-05
5.316131E+03	8.225507E-03	4.817752E-05
5.326086E+03	8.204499E-03	4.795544E-05
5.336041E+03	8.168875E-03	4.765100E-05
5.345996E+03	8.119193E-03	4.726813E-05
5.355952E+03	8.056683E-03	4.681463E-05
5.365907E+03	7.982741E-03	4.629916E-05
5.375862E+03	7.899059E-03	4.573201E-05
5.385818E+03	7.807409E-03	4.512385E-05
5.395773E+03	7.709914E-03	4.448726E-05
5.405728E+03	7.608840E-03	4.383552E-05
5.415684E+03	7.506224E-03	4.318054E-05
5.425639E+03	7.404452E-03	4.253610E-05
5.435594E+03	7.305729E-03	4.191487E-05
5.445549E+03	7.212446E-03	4.133051E-05
5.455505E+03	7.127193E-03	4.079763E-05
5.465460E+03	7.051583E-03	4.032493E-05
5.475415E+03	6.985720E-03	3.991248E-05
5.485371E+03	6.926906E-03	3.954439E-05
5.495326E+03	6.871557E-03	3.919982E-05
5.505281E+03	6.815717E-03	3.885586E-05
5.515237E+03	6.756224E-03	3.849421E-05
5.525192E+03	6.690663E-03	3.810087E-05
5.535147E+03	6.617876E-03	3.766902E-05
5.545102E+03	6.537521E-03	3.719649E-05
5.555058E+03	6.450364E-03	3.668742E-05
5.565013E+03	6.357893E-03	3.615005E-05
5.574968E+03	6.262349E-03	3.559689E-05
5.584924E+03	6.166184E-03	3.504166E-05
5.594879E+03	6.072209E-03	3.450011E-05
5.604834E+03	5.983303E-03	3.398838E-05
5.614790E+03	5.902219E-03	3.352190E-05
5.624745E+03	5.831565E-03	3.311528E-05
5.634700E+03	5.773540E-03	3.278084E-05
5.644655E+03	5.730122E-03	3.252963E-05
5.654611E+03	5.702904E-03	3.237052E-05
5.664566E+03	5.693010E-03	3.230974E-05
5.674521E+03	5.701132E-03	3.235108E-05
5.684477E+03	5.727540E-03	3.249590E-05
5.694432E+03	5.772185E-03	3.274379E-05
5.704387E+03	5.834327E-03	3.309041E-05
5.714343E+03	5.913000E-03	3.353012E-05
5.724298E+03	6.006673E-03	3.405410E-05
5.734253E+03	6.113313E-03	3.465068E-05
5.744209E+03	6.230658E-03	3.530689E-05
5.754164E+03	6.356203E-03	3.600840E-05
5.764119E+03	6.487055E-03	3.673870E-05
5.774074E+03	6.620168E-03	3.748042E-05
5.784030E+03	6.752508E-03	3.821631E-05
5.793985E+03	6.880700E-03	3.892720E-05
5.803940E+03	7.001645E-03	3.959552E-05
5.813896E+03	7.112376E-03	4.020452E-05
5.823851E+03	7.210235E-03	4.073922E-05
5.833806E+03	7.293081E-03	4.118760E-05
5.843762E+03	7.359047E-03	4.153925E-05
5.853717E+03	7.407146E-03	4.178879E-05
5.863672E+03	7.436707E-03	4.193262E-05
5.873627E+03	7.447673E-03	4.197066E-05
5.883583E+03	7.440456E-03	4.190550E-05
5.893538E+03	7.415869E-03	4.174199E-05
5.903493E+03	7.375137E-03	4.148731E-05
5.913449E+03	7.319462E-03	4.114850E-05
5.923404E+03	7.250370E-03	4.073445E-05
5.933359E+03	7.169582E-03	4.025510E-05
5.943315E+03	7.078765E-03	3.972008E-05
5.953270E+03	6.979423E-03	3.913808E-05
5.963225E+03	6.873363E-03	3.851948E-05
5.973180E+03	6.761935E-03	3.787207E-05
5.983136E+03	6.646863E-03	3.720570E-05
5.993091E+03	6.529323E-03	3.652712E-05
6.003046E+03	6.410625E-03	3.584385E-05
6.013002E+03	6.292050E-03	3.516316E-05
6.022957E+03	6.174670E-03	3.449120E-05
6.032912E+03	6.059609E-03	3.383434E-05
6.042868E+03	5.947870E-03	3.319829E-05
6.052823E+03	5.840839E-03	3.259086E-05
6.062778E+03	5.739666E-03	3.201856E-05
6.072733E+03	5.646019E-03	3.149077E-05
6.082689E+03	5.561491E-03	3.101644E-05
6.092644E+03	5.487774E-03	3.060511E-05
6.102599E+03	5.426602E-03	3.026657E-05
6.112555E+03	5.379618E-03	3.001011E-05
6.122510E+03	5.347971E-03	2.984235E-05
6.132465E+03	5.332285E-03	2.976699E-05
6.142421E+03	5.332472E-03	2.978386E-05
6.152376E+03	5.347111E-03	2.988538E-05
6.162331E+03	5.373698E-03	3.005795E-05
6.172286E+03	5.408318E-03	3.027998E-05
6.182242E+03	5.445707E-03	3.052225E-05
6.192197E+03	5.479392E-03	3.074862E-05
6.202152E+03	5.502623E-03	3.092126E-05
6.212108E+03	5.509823E-03	3.100866E-05
6.222063E+03	5.499045E-03	3.099951E-05
6.232018E+03	5.473296E-03	3.091034E-05
6.241974E+03	5.437609E-03	3.076916E-05
6.251929E+03	5.397535E-03	3.060709E-05
6.261884E+03	5.357980E-03	3.045181E-05
6.271839E+03	5.322752E-03	3.032500E-05
6.281795E+03	5.294414E-03	3.024143E-05
6.291750E+03	5.274203E-03	3.020847E-05
6.301705E+03	5.262078E-03	3.022627E-05
6.311661E+03	5.257307E-03	3.029103E-05
6.321616E+03	5.258565E-03	3.039552E-05
6.331571E+03	5.264046E-03	3.052964E-05
6.341527E+03	5.272059E-03	3.068388E-05
6.351482E+03	5.280886E-03	3.084839E-05
6.361437E+03	5.289053E-03	3.101450E-05
6.371392E+03	5.295440E-03	3.117533E-05
6.381348E+03	5.299494E-03	3.132728E-05
6.391303E+03	5.300841E-03	3.146769E-05
6.401258E+03	5.299713E-03	3.159752E-05
6.411214E+03	5.296499E-03	3.171864E-05
6.421169E+03	5.291789E-03	3.183418E-05
6.431124E+03	5.286346E-03	3.194836E-05
6.441080E+03	5.280841E-03	3.206495E-05
6.451035E+03	5.275941E-03	3.218773E-05
6.460990E+03	5.271936E-03	3.231832E-05
6.470945E+03	5.269269E-03	3.245924E-05
6.480901E+03	5.268062E-03	3.261115E-05
6.490856E+03	5.268232E-03	3.277342E-05
6.500811E+03	5.269806E-03	3.294612E-05
6.510767E+03	5.272819E-03	3.312937E-05
6.520722E+03	5.277446E-03	3.332419E-05
6.530677E+03	5.283778E-03	3.353110E-05
6.540633E+03	5.291856E-03	3.375032E-05
6.550588E+03	5.301399E-03	3.397999E-05
6.560543E+03	5.312042E-03	3.421771E-05
6.570498E+03	5.323357E-03	3.446061E-05
6.580454E+03	5.334673E-03	3.470420E-05
6.590409E+03	5.345106E-03	3.494251E-05
6.600364E+03	5.353865E-03	3.517007E-05
6.610320E+03	5.359938E-03	3.537986E-05
6.620275E+03	5.362595E-03	3.556661E-05
6.630230E+03	5.360805E-03	3.572295E-05
6.640186E+03	5.353822E-03	3.584330E-05
6.650141E+03	5.341148E-03	3.592368E-05
6.660096E+03	5.322369E-03	3.596062E-05
6.670051E+03	5.297182E-03	3.595137E-05
6.680007E+03	5.265613E-03	3.589541E-05
6.689962E+03	5.227990E-03	3.579430E-05
6.699917E+03	5.184681E-03	3.564993E-05
6.709873E+03	5.136437E-03	3.546694E-05
6.719828E+03	5.083883E-03	3.524915E-05
6.729783E+03	5.028118E-03	3.500381E-05
6.739739E+03	4.969945E-03	3.473622E-05
6.749694E+03	4.910547E-03	3.445448E-05
6.759649E+03	4.850717E-03	3.416406E-05
6.769604E+03	4.791473E-03	3.387212E-05
6.779560E+03	4.733673E-03	3.358480E-05
6.789515E+03	4.677997E-03	3.330708E-05
6.799470E+03	4.625217E-03	3.304465E-05
6.809426E+03	4.575820E-03	3.280123E-05
6.819381E+03	4.530361E-03	3.258108E-05
6.829336E+03	4.489022E-03	3.238582E-05
6.839292E+03	4.452209E-03	3.221868E-05
6.849247E+03	4.419992E-03	3.208049E-05
6.859202E+03	4.392455E-03	3.197217E-05
6.869157E+03	4.369526E-03	3.189349E-05
6.879113E+03	4.351295E-03	3.184541E-05
6.889068E+03	4.337389E-03	3.182546E-05
6.899023E+03	4.327845E-03	3.183414E-05
6.908979E+03	4.322198E-03	3.186827E-05
6.918934E+03	4.320062E-03	3.192518E-05
6.928889E+03	4.321052E-03	3.200217E-05
6.938845E+03	4.324549E-03	3.209478E-05
6.948800E+03	4.329960E-03	3.219870E-05
6.958755E+03	4.336651E-03	3.230925E-05
6.968710E+03	4.343976E-03	3.242166E-05
6.978666E+03	4.351301E-03	3.253118E-05
6.988621E+03	4.357919E-03	3.263250E-05
6.998576E+03	4.363410E-03	3.272243E-05
7.008532E+03	4.366969E-03	3.279487E-05
7.018487E+03	4.368359E-03	3.284799E-05
7.028442E+03	4.366917E-03	3.287673E-05
7.038398E+03	4.362518E-03	3.288009E-05
7.048353E+03	4.354887E-03	3.285593E-05
7.058308E+03	4.343944E-03	3.280364E-05
7.068263E+03	4.329807E-03	3.272405E-05
7.078219E+03	4.312438E-03	3.261690E-05
7.088174E+03	4.292152E-03	3.248455E-05
7.098129E+03	4.269178E-03	3.232879E-05
7.108085E+03	4.243974E-03	3.215312E-05
7.118040E+03	4.216954E-03	3.196075E-05
7.127995E+03	4.188471E-03	3.175441E-05
7.137951E+03	4.159035E-03	3.153808E-05
7.147906E+03	4.128878E-03	3.131361E-05
7.157861E+03	4.098544E-03	3.108521E-05
7.167817E+03	4.068267E-03	3.085479E-05
7.177772E+03	4.038230E-03	3.062381E-05
7.187727E+03	4.008738E-03	3.039472E-05
7.197682E+03	3.979963E-03	3.016892E-05
7.207638E+03	3.951967E-03	2.994699E-05
7.217593E+03	3.924881E-03	2.973002E-05
7.227548E+03	3.898813E-03	2.951892E-05
7.237504E+03	3.873843E-03	2.931440E-05
7.247459E+03	3.850022E-03	2.911695E-05
7.257414E+03	3.827214E-03	2.892562E-05
7.267370E+03	3.805564E-03	2.874161E-05
7.277325E+03	3.784958E-03	2.856415E-05
7.287280E+03	3.765256E-03	2.839225E-05
7.297235E+03	3.746458E-03	2.822604E-05
7.307191E+03	3.728319E-03	2.806373E-05
7.317146E+03	3.710737E-03	2.790467E-05
7.327101E+03	3.693591E-03	2.774804E-05
7.337057E+03	3.676651E-03	2.759221E-05
7.347012E+03	3.659841E-03	2.743673E-05
7.356967E+03	3.642767E-03	2.727876E-05
7.366923E+03	3.625434E-03	2.711844E-05
7.376878E+03	3.607556E-03	2.695376E-05
7.386833E+03	3.589142E-03	2.678493E-05
7.396788E+03	3.570116E-03	2.661151E-05
7.406744E+03	3.550546E-03	2.643413E-05
7.416699E+03	3.530639E-03	2.625447E-05
7.426654E+03	3.510497E-03	2.607340E-05
7.436610E+03	3.490557E-03	2.589432E-05
7.446565E+03	3.470900E-03	2.571790E-05
7.456520E+03	3.451889E-03	2.554697E-05
7.466476E+03	3.433653E-03	2.538254E-05
7.476431E+03	3.416587E-03	2.522756E-05
7.486386E+03	3.400735E-03	2.508239E-05
7.496341E+03	3.386173E-03	2.494761E-05
7.506297E+03	3.372995E-03	2.482396E-05
7.516252E+03	3.361164E-03	2.471118E-05
7.526207E+03	3.350709E-03	2.460952E-05
7.536163E+03	3.341281E-03	2.451647E-05
7.546118E+03	3.332652E-03	2.443041E-05
7.556073E+03	3.324533E-03	2.434927E-05
7.566029E+03	3.316429E-03	2.426949E-05
7.575984E+03	3.308012E-03	2.418876E-05
7.585939E+03	3.298896E-03	2.410434E-05
7.595894E+03	3.289038E-03	2.401602E-05
7.605850E+03	3.278240E-03	2.392243E-05
7.615805E+03	3.266680E-03	2.382496E-05
7.625760E+03	3.254313E-03	2.372338E-05
7.635716E+03	3.241429E-03	2.361991E-05
7.645671E+03	3.228060E-03	2.351483E-05
7.655626E+03	3.214560E-03	2.341083E-05
7.665582E+03	3.201090E-03	2.330916E-05
7.675537E+03	3.187895E-03	2.321167E-05
7.685492E+03	3.175213E-03	2.312019E-05
7.695447E+03	3.163274E-03	2.303647E-05
7.705403E+03	3.152270E-03	2.296200E-05
7.715358E+03	3.142267E-03	2.289734E-05
7.725313E+03	3.133496E-03	2.284428E-05
