#wls	flux	fluxerr
1.592848E+03	5.411695E-04	1.574318E-05
1.632669E+03	5.615014E-04	1.623224E-05
1.672491E+03	5.809455E-04	1.668599E-05
1.712312E+03	5.992648E-04	1.709789E-05
1.752133E+03	6.161535E-04	1.745965E-05
1.791954E+03	6.309133E-04	1.775220E-05
1.831775E+03	6.423825E-04	1.794412E-05
1.871597E+03	6.494631E-04	1.800681E-05
1.911418E+03	6.508637E-04	1.790732E-05
1.951239E+03	6.456918E-04	1.762486E-05
1.991060E+03	6.342325E-04	1.717146E-05
2.030881E+03	6.191556E-04	1.662311E-05
2.070703E+03	6.061197E-04	1.613305E-05
2.110524E+03	6.029982E-04	1.590772E-05
2.150345E+03	6.173436E-04	1.613755E-05
2.190166E+03	6.530363E-04	1.691017E-05
2.229987E+03	7.092560E-04	1.818824E-05
2.269809E+03	7.817338E-04	1.984709E-05
2.309630E+03	8.650883E-04	2.173789E-05
2.349451E+03	9.547527E-04	2.373732E-05
2.389272E+03	1.047703E-03	2.576455E-05
2.429093E+03	1.142385E-03	2.777768E-05
2.468915E+03	1.238499E-03	2.976657E-05
2.508736E+03	1.336322E-03	3.173506E-05
2.548557E+03	1.436667E-03	3.369918E-05
2.588378E+03	1.540438E-03	3.567607E-05
2.628199E+03	1.648749E-03	3.768652E-05
2.668021E+03	1.762717E-03	3.974985E-05
2.707842E+03	1.883565E-03	4.188626E-05
2.747663E+03	2.012634E-03	4.411686E-05
2.787484E+03	2.151363E-03	4.646286E-05
2.827305E+03	2.301369E-03	4.894718E-05
2.867127E+03	2.464638E-03	5.159811E-05
2.906948E+03	2.643320E-03	5.444421E-05
2.946769E+03	2.840250E-03	5.752472E-05
2.986590E+03	3.058485E-03	6.087895E-05
2.996546E+03	3.116880E-03	6.176738E-05
3.006501E+03	3.176857E-03	6.267581E-05
3.016456E+03	3.238471E-03	6.360482E-05
3.026411E+03	3.301986E-03	6.455912E-05
3.036367E+03	3.367624E-03	6.554244E-05
3.046322E+03	3.435692E-03	6.656012E-05
3.056277E+03	3.506277E-03	6.761316E-05
3.066233E+03	3.579332E-03	6.869987E-05
3.076188E+03	3.654875E-03	6.981993E-05
3.086143E+03	3.733092E-03	7.097611E-05
3.096099E+03	3.813868E-03	7.216545E-05
3.106054E+03	3.897313E-03	7.338928E-05
3.116009E+03	3.983394E-03	7.464616E-05
3.125964E+03	4.072391E-03	7.594056E-05
3.135920E+03	4.164116E-03	7.726809E-05
3.145875E+03	4.258692E-03	7.863023E-05
3.155830E+03	4.356252E-03	8.002857E-05
3.165786E+03	4.456847E-03	8.146312E-05
3.175741E+03	4.560352E-03	8.293074E-05
3.185696E+03	4.667070E-03	8.443596E-05
3.195652E+03	4.776865E-03	8.597543E-05
3.205607E+03	4.889863E-03	8.755044E-05
3.215562E+03	5.005998E-03	8.915885E-05
3.225517E+03	5.125376E-03	9.080157E-05
3.235473E+03	5.247999E-03	9.247765E-05
3.245428E+03	5.373858E-03	9.418595E-05
3.255383E+03	5.502826E-03	9.592324E-05
3.265339E+03	5.634941E-03	9.768925E-05
3.275294E+03	5.770122E-03	9.948159E-05
3.285249E+03	5.908160E-03	1.012957E-04
3.295205E+03	6.049001E-03	1.031299E-04
3.305160E+03	6.192352E-03	1.049782E-04
3.315115E+03	6.338070E-03	1.068374E-04
3.325070E+03	6.485755E-03	1.087001E-04
3.335026E+03	6.635044E-03	1.105596E-04
3.344981E+03	6.785502E-03	1.124082E-04
3.354936E+03	6.936612E-03	1.142370E-04
3.364892E+03	7.087776E-03	1.160358E-04
3.374847E+03	7.238192E-03	1.177917E-04
3.384802E+03	7.387170E-03	1.194936E-04
3.394758E+03	7.533593E-03	1.211239E-04
3.404713E+03	7.676677E-03	1.226709E-04
3.414668E+03	7.815099E-03	1.241144E-04
3.424623E+03	7.947665E-03	1.254370E-04
3.434579E+03	8.073099E-03	1.266204E-04
3.444534E+03	8.189953E-03	1.276440E-04
3.454489E+03	8.296965E-03	1.284910E-04
3.464445E+03	8.392634E-03	1.291411E-04
3.474400E+03	8.475467E-03	1.295749E-04
3.484355E+03	8.544162E-03	1.297765E-04
3.494311E+03	8.597371E-03	1.297298E-04
3.504266E+03	8.634068E-03	1.294240E-04
3.514221E+03	8.653000E-03	1.288455E-04
3.524176E+03	8.653504E-03	1.279899E-04
3.534132E+03	8.634894E-03	1.268526E-04
3.544087E+03	8.596878E-03	1.254352E-04
3.554042E+03	8.539230E-03	1.237404E-04
3.563998E+03	8.462157E-03	1.217769E-04
3.573953E+03	8.366595E-03	1.195643E-04
3.583908E+03	8.253762E-03	1.171253E-04
3.593864E+03	8.126247E-03	1.145018E-04
3.603819E+03	7.987170E-03	1.117418E-04
3.613774E+03	7.839828E-03	1.088948E-04
3.623729E+03	7.687705E-03	1.060112E-04
3.633685E+03	7.534433E-03	1.031425E-04
3.643640E+03	7.383364E-03	1.003344E-04
3.653595E+03	7.237962E-03	9.763302E-05
3.663551E+03	7.101280E-03	9.507771E-05
3.673506E+03	6.976429E-03	9.270718E-05
3.683461E+03	6.866226E-03	9.055505E-05
3.693417E+03	6.773375E-03	8.865237E-05
3.703372E+03	6.700242E-03	8.702470E-05
3.713327E+03	6.649151E-03	8.569613E-05
3.723282E+03	6.622198E-03	8.468687E-05
3.733238E+03	6.621398E-03	8.401535E-05
3.743193E+03	6.648552E-03	8.369644E-05
3.753148E+03	6.705361E-03	8.374310E-05
3.763104E+03	6.793313E-03	8.416499E-05
3.773059E+03	6.913718E-03	8.496900E-05
3.783014E+03	7.067851E-03	8.616111E-05
3.792970E+03	7.256349E-03	8.773912E-05
3.802925E+03	7.479716E-03	8.969900E-05
3.812880E+03	7.737878E-03	9.202972E-05
3.822835E+03	8.029840E-03	9.470946E-05
3.832791E+03	8.353900E-03	9.770854E-05
3.842746E+03	8.707398E-03	1.009870E-04
3.852701E+03	9.086410E-03	1.044913E-04
3.862657E+03	9.485693E-03	1.081545E-04
3.872612E+03	9.898579E-03	1.118958E-04
3.882567E+03	1.031723E-02	1.156239E-04
3.892523E+03	1.073260E-02	1.192370E-04
3.902478E+03	1.113489E-02	1.226288E-04
3.912433E+03	1.151392E-02	1.256924E-04
3.922388E+03	1.185969E-02	1.283270E-04
3.932344E+03	1.216340E-02	1.304483E-04
3.942299E+03	1.241751E-02	1.319890E-04
3.952254E+03	1.261620E-02	1.329023E-04
3.962210E+03	1.275632E-02	1.331716E-04
3.972165E+03	1.283674E-02	1.328025E-04
3.982120E+03	1.285886E-02	1.318266E-04
3.992076E+03	1.282623E-02	1.302963E-04
4.002031E+03	1.274404E-02	1.282799E-04
4.011986E+03	1.261920E-02	1.258600E-04
4.021941E+03	1.245932E-02	1.231237E-04
4.031897E+03	1.227263E-02	1.201613E-04
4.041852E+03	1.206716E-02	1.170581E-04
4.051807E+03	1.185060E-02	1.138930E-04
4.061763E+03	1.162994E-02	1.107353E-04
4.071718E+03	1.141130E-02	1.076441E-04
4.081673E+03	1.119961E-02	1.046644E-04
4.091629E+03	1.099880E-02	1.018308E-04
4.101584E+03	1.081196E-02	9.916866E-05
4.111539E+03	1.064080E-02	9.668985E-05
4.121494E+03	1.048644E-02	9.440028E-05
4.131450E+03	1.034908E-02	9.229749E-05
4.141405E+03	1.022825E-02	9.037301E-05
4.151360E+03	1.012290E-02	8.861359E-05
4.161316E+03	1.003160E-02	8.700301E-05
4.171271E+03	9.952650E-03	8.552336E-05
4.181226E+03	9.884209E-03	8.415613E-05
4.191182E+03	9.824413E-03	8.288326E-05
4.201137E+03	9.771571E-03	8.168876E-05
4.211092E+03	9.724053E-03	8.055770E-05
4.221047E+03	9.680544E-03	7.947827E-05
4.231003E+03	9.640268E-03	7.844349E-05
4.240958E+03	9.602658E-03	7.744830E-05
4.250913E+03	9.567241E-03	7.648855E-05
4.260869E+03	9.534151E-03	7.556507E-05
4.270824E+03	9.503671E-03	7.467984E-05
4.280779E+03	9.476220E-03	7.383582E-05
4.290735E+03	9.452274E-03	7.303634E-05
4.300690E+03	9.432138E-03	7.228330E-05
4.310645E+03	9.416055E-03	7.157808E-05
4.320601E+03	9.403361E-03	7.091516E-05
4.330556E+03	9.393117E-03	7.028676E-05
4.340511E+03	9.383439E-03	6.967823E-05
4.350466E+03	9.371635E-03	6.906935E-05
4.360422E+03	9.354711E-03	6.843832E-05
4.370377E+03	9.330903E-03	6.777285E-05
4.380332E+03	9.303059E-03	6.709423E-05
4.390288E+03	9.278820E-03	6.645747E-05
4.400243E+03	9.266237E-03	6.591896E-05
4.410198E+03	9.272233E-03	6.552565E-05
4.420154E+03	9.302441E-03	6.531426E-05
4.430109E+03	9.360703E-03	6.530817E-05
4.440064E+03	9.449161E-03	6.551847E-05
4.450019E+03	9.568418E-03	6.594551E-05
4.459975E+03	9.717337E-03	6.657787E-05
4.469930E+03	9.893532E-03	6.739597E-05
4.479885E+03	1.009319E-02	6.837116E-05
4.489841E+03	1.031118E-02	6.946666E-05
4.499796E+03	1.054134E-02	7.063959E-05
4.509751E+03	1.077657E-02	7.184186E-05
4.519707E+03	1.100908E-02	7.302184E-05
4.529662E+03	1.123072E-02	7.412648E-05
4.539617E+03	1.143314E-02	7.510236E-05
4.549572E+03	1.160817E-02	7.589839E-05
4.559528E+03	1.174860E-02	7.647028E-05
4.569483E+03	1.184775E-02	7.677799E-05
4.579438E+03	1.190042E-02	7.679161E-05
4.589394E+03	1.190339E-02	7.649411E-05
4.599349E+03	1.185525E-02	7.588025E-05
4.609304E+03	1.175634E-02	7.495574E-05
4.619260E+03	1.160977E-02	7.374359E-05
4.629215E+03	1.141970E-02	7.227299E-05
4.639170E+03	1.119254E-02	7.058675E-05
4.649125E+03	1.093558E-02	6.873223E-05
4.659081E+03	1.065669E-02	6.675995E-05
4.669036E+03	1.036376E-02	6.471969E-05
4.678991E+03	1.006409E-02	6.265684E-05
4.688947E+03	9.764131E-03	6.061102E-05
4.698902E+03	9.468562E-03	5.861022E-05
4.708857E+03	9.180316E-03	5.667121E-05
4.718813E+03	8.900492E-03	5.479932E-05
4.728768E+03	8.627752E-03	5.298497E-05
4.738723E+03	8.359063E-03	5.120832E-05
4.748678E+03	8.090466E-03	4.944417E-05
4.758634E+03	7.819904E-03	4.767920E-05
4.768589E+03	7.548951E-03	4.592237E-05
4.778544E+03	7.284347E-03	4.421395E-05
4.788500E+03	7.034853E-03	4.260617E-05
4.798455E+03	6.808041E-03	4.114367E-05
4.808410E+03	6.609279E-03	3.985749E-05
4.818366E+03	6.441884E-03	3.876612E-05
4.828321E+03	6.306765E-03	3.787351E-05
4.838276E+03	6.203081E-03	3.717310E-05
4.848231E+03	6.128883E-03	3.665181E-05
4.858187E+03	6.081411E-03	3.629183E-05
4.868142E+03	6.057246E-03	3.607160E-05
4.878097E+03	6.052764E-03	3.596852E-05
4.888053E+03	6.063937E-03	3.595778E-05
4.898008E+03	6.086973E-03	3.601615E-05
4.907963E+03	6.118360E-03	3.612229E-05
4.917919E+03	6.155093E-03	3.625798E-05
4.927874E+03	6.194916E-03	3.640961E-05
4.937829E+03	6.236159E-03	3.656711E-05
4.947784E+03	6.278078E-03	3.672590E-05
4.957740E+03	6.320452E-03	3.688455E-05
4.967695E+03	6.363662E-03	3.704511E-05
4.977650E+03	6.408498E-03	3.721202E-05
4.987606E+03	6.456197E-03	3.739226E-05
4.997561E+03	6.507797E-03	3.759159E-05
5.007516E+03	6.564446E-03	3.781636E-05
5.017472E+03	6.627189E-03	3.807224E-05
5.027427E+03	6.696683E-03	3.836262E-05
5.037382E+03	6.773381E-03	3.868968E-05
5.047337E+03	6.857441E-03	3.905389E-05
5.057293E+03	6.948737E-03	3.945410E-05
5.067248E+03	7.046818E-03	3.988733E-05
5.077203E+03	7.151115E-03	4.034996E-05
5.087159E+03	7.261039E-03	4.083832E-05
5.097114E+03	7.375760E-03	4.134741E-05
5.107069E+03	7.494790E-03	4.187425E-05
5.117025E+03	7.617371E-03	4.241437E-05
5.126980E+03	7.743310E-03	4.296654E-05
5.136935E+03	7.872351E-03	4.352920E-05
5.146890E+03	8.004403E-03	4.410174E-05
5.156846E+03	8.139341E-03	4.468340E-05
5.166801E+03	8.276936E-03	4.527287E-05
5.176756E+03	8.416877E-03	4.586845E-05
5.186712E+03	8.558414E-03	4.646612E-05
5.196667E+03	8.700736E-03	4.706161E-05
5.206622E+03	8.842215E-03	4.764635E-05
5.216578E+03	8.981067E-03	4.821108E-05
5.226533E+03	9.115069E-03	4.874442E-05
5.236488E+03	9.241840E-03	4.923432E-05
5.246443E+03	9.358818E-03	4.966801E-05
5.256399E+03	9.463803E-03	5.003488E-05
5.266354E+03	9.554598E-03	5.032454E-05
5.276309E+03	9.629418E-03	5.052892E-05
5.286265E+03	9.686743E-03	5.064153E-05
5.296220E+03	9.725617E-03	5.065890E-05
5.306175E+03	9.745080E-03	5.057761E-05
5.316131E+03	9.744770E-03	5.039739E-05
5.326086E+03	9.724637E-03	5.011954E-05
5.336041E+03	9.685124E-03	4.974788E-05
5.345996E+03	9.626687E-03	4.928618E-05
5.355952E+03	9.550646E-03	4.874254E-05
5.365907E+03	9.458627E-03	4.812645E-05
5.375862E+03	9.352717E-03	4.744953E-05
5.385818E+03	9.235200E-03	4.672424E-05
5.395773E+03	9.108871E-03	4.596536E-05
5.405728E+03	8.976949E-03	4.518962E-05
5.415684E+03	8.842693E-03	4.441369E-05
5.425639E+03	8.709924E-03	4.365689E-05
5.435594E+03	8.582717E-03	4.293959E-05
5.445549E+03	8.465940E-03	4.228594E-05
5.455505E+03	8.365109E-03	4.172278E-05
5.465460E+03	8.284303E-03	4.126932E-05
5.475415E+03	8.223930E-03	4.092654E-05
5.485371E+03	8.178192E-03	4.066463E-05
5.495326E+03	8.138961E-03	4.044245E-05
5.505281E+03	8.097951E-03	4.021820E-05
5.515237E+03	8.048832E-03	3.995992E-05
5.525192E+03	7.986975E-03	3.964408E-05
5.535147E+03	7.909899E-03	3.925785E-05
5.545102E+03	7.816891E-03	3.879710E-05
5.555058E+03	7.709035E-03	3.826660E-05
5.565013E+03	7.588573E-03	3.767690E-05
5.574968E+03	7.458956E-03	3.704448E-05
5.584924E+03	7.324039E-03	3.638791E-05
5.594879E+03	7.188168E-03	3.572825E-05
5.604834E+03	7.055880E-03	3.508757E-05
5.614790E+03	6.931529E-03	3.448710E-05
5.624745E+03	6.819216E-03	3.394693E-05
5.634700E+03	6.722446E-03	3.348424E-05
5.644655E+03	6.644351E-03	3.311445E-05
5.654611E+03	6.587497E-03	3.285022E-05
5.664566E+03	6.553725E-03	3.270063E-05
5.674521E+03	6.544283E-03	3.267189E-05
5.684477E+03	6.559811E-03	3.276714E-05
5.694432E+03	6.600437E-03	3.298698E-05
5.704387E+03	6.665381E-03	3.332748E-05
5.714343E+03	6.753531E-03	3.378299E-05
5.724298E+03	6.862998E-03	3.434398E-05
5.734253E+03	6.991200E-03	3.499739E-05
5.744209E+03	7.135147E-03	3.572806E-05
5.754164E+03	7.291415E-03	3.651863E-05
5.764119E+03	7.455969E-03	3.734866E-05
5.774074E+03	7.624480E-03	3.819618E-05
5.784030E+03	7.792565E-03	3.903895E-05
5.793985E+03	7.955405E-03	3.985256E-05
5.803940E+03	8.108517E-03	4.061430E-05
5.813896E+03	8.247662E-03	4.130275E-05
5.823851E+03	8.369106E-03	4.189903E-05
5.833806E+03	8.469916E-03	4.238839E-05
5.843762E+03	8.547824E-03	4.275949E-05
5.853717E+03	8.601848E-03	4.300749E-05
5.863672E+03	8.631580E-03	4.313054E-05
5.873627E+03	8.637561E-03	4.313157E-05
5.883583E+03	8.621009E-03	4.301700E-05
5.893538E+03	8.583610E-03	4.279560E-05
5.903493E+03	8.527477E-03	4.247833E-05
5.913449E+03	8.454604E-03	4.207557E-05
5.923404E+03	8.367247E-03	4.159901E-05
5.933359E+03	8.267763E-03	4.106085E-05
5.943315E+03	8.158277E-03	4.047212E-05
5.953270E+03	8.040562E-03	3.984207E-05
5.963225E+03	7.916690E-03	3.918142E-05
5.973180E+03	7.788038E-03	3.849744E-05
5.983136E+03	7.656276E-03	3.779877E-05
5.993091E+03	7.522357E-03	3.709053E-05
6.003046E+03	7.387288E-03	3.637804E-05
6.013002E+03	7.251935E-03	3.566592E-05
6.022957E+03	7.116777E-03	3.495686E-05
6.032912E+03	6.982326E-03	3.425367E-05
6.042868E+03	6.849058E-03	3.355900E-05
6.052823E+03	6.717980E-03	3.287804E-05
6.062778E+03	6.590039E-03	3.221568E-05
6.072733E+03	6.467051E-03	3.158099E-05
6.082689E+03	6.351114E-03	3.098440E-05
6.092644E+03	6.244735E-03	3.043828E-05
6.102599E+03	6.150771E-03	2.995668E-05
6.112555E+03	6.072233E-03	2.955434E-05
6.122510E+03	6.011747E-03	2.924418E-05
6.132465E+03	5.971334E-03	2.903615E-05
6.142421E+03	5.952035E-03	2.893553E-05
6.152376E+03	5.953196E-03	2.893944E-05
6.162331E+03	5.972578E-03	2.903735E-05
6.172286E+03	6.005667E-03	2.920763E-05
6.182242E+03	6.045901E-03	2.941874E-05
6.192197E+03	6.084796E-03	2.962975E-05
6.202152E+03	6.112817E-03	2.979453E-05
6.212108E+03	6.122215E-03	2.987542E-05
6.222063E+03	6.110728E-03	2.986132E-05
6.232018E+03	6.082782E-03	2.977364E-05
6.241974E+03	6.045692E-03	2.964799E-05
6.251929E+03	6.007105E-03	2.952177E-05
6.261884E+03	5.973111E-03	2.942502E-05
6.271839E+03	5.947930E-03	2.937883E-05
6.281795E+03	5.933984E-03	2.939564E-05
6.291750E+03	5.931877E-03	2.947909E-05
6.301705E+03	5.940653E-03	2.962517E-05
6.311661E+03	5.958488E-03	2.982553E-05
6.321616E+03	5.982761E-03	3.006777E-05
6.331571E+03	6.010249E-03	3.033629E-05
6.341527E+03	6.037968E-03	3.061647E-05
6.351482E+03	6.063106E-03	3.089424E-05
6.361437E+03	6.083346E-03	3.115744E-05
6.371392E+03	6.097002E-03	3.139669E-05
6.381348E+03	6.103359E-03	3.160737E-05
6.391303E+03	6.102175E-03	3.178719E-05
6.401258E+03	6.094138E-03	3.193862E-05
6.411214E+03	6.080322E-03	3.206621E-05
6.421169E+03	6.062176E-03	3.217659E-05
6.431124E+03	6.041410E-03	3.227798E-05
6.441080E+03	6.019626E-03	3.237821E-05
6.451035E+03	5.998402E-03	3.248524E-05
6.460990E+03	5.978869E-03	3.260482E-05
6.470945E+03	5.962337E-03	3.274387E-05
6.480901E+03	5.949750E-03	3.290751E-05
6.490856E+03	5.941824E-03	3.309978E-05
6.500811E+03	5.939407E-03	3.332558E-05
6.510767E+03	5.942776E-03	3.358675E-05
6.520722E+03	5.951610E-03	3.388180E-05
6.530677E+03	5.965364E-03	3.420792E-05
6.540633E+03	5.983454E-03	3.456200E-05
6.550588E+03	6.004996E-03	3.493911E-05
6.560543E+03	6.029048E-03	3.533385E-05
6.570498E+03	6.054636E-03	3.574044E-05
6.580454E+03	6.080544E-03	3.615155E-05
6.590409E+03	6.105346E-03	3.655835E-05
6.600364E+03	6.127737E-03	3.695254E-05
6.610320E+03	6.146225E-03	3.732444E-05
6.620275E+03	6.159749E-03	3.766676E-05
6.630230E+03	6.166950E-03	3.797025E-05
6.640186E+03	6.166833E-03	3.822763E-05
6.650141E+03	6.158737E-03	3.843362E-05
6.660096E+03	6.142123E-03	3.858359E-05
6.670051E+03	6.116619E-03	3.867392E-05
6.680007E+03	6.082301E-03	3.870377E-05
6.689962E+03	6.039641E-03	3.867493E-05
6.699917E+03	5.989156E-03	3.858956E-05
6.709873E+03	5.931826E-03	3.845296E-05
6.719828E+03	5.868496E-03	3.826972E-05
6.729783E+03	5.800575E-03	3.804831E-05
6.739739E+03	5.729137E-03	3.779524E-05
6.749694E+03	5.655709E-03	3.752020E-05
6.759649E+03	5.581362E-03	3.723010E-05
6.769604E+03	5.507428E-03	3.693377E-05
6.779560E+03	5.435041E-03	3.663891E-05
6.789515E+03	5.365149E-03	3.635214E-05
6.799470E+03	5.298808E-03	3.608093E-05
6.809426E+03	5.236777E-03	3.583086E-05
6.819381E+03	5.179881E-03	3.560808E-05
6.829336E+03	5.128489E-03	3.541566E-05
6.839292E+03	5.083234E-03	3.525854E-05
6.849247E+03	5.044340E-03	3.513887E-05
6.859202E+03	5.011986E-03	3.505849E-05
6.869157E+03	4.986147E-03	3.501781E-05
6.879113E+03	4.966953E-03	3.501828E-05
6.889068E+03	4.953919E-03	3.505700E-05
6.899023E+03	4.947002E-03	3.513413E-05
6.908979E+03	4.945565E-03	3.524558E-05
6.918934E+03	4.949045E-03	3.538768E-05
6.928889E+03	4.956876E-03	3.555665E-05
6.938845E+03	4.968201E-03	3.574658E-05
6.948800E+03	4.982198E-03	3.595170E-05
6.958755E+03	4.997972E-03	3.616564E-05
6.968710E+03	5.014607E-03	3.638177E-05
6.978666E+03	5.031167E-03	3.659328E-05
6.988621E+03	5.046626E-03	3.679262E-05
6.998576E+03	5.060287E-03	3.697459E-05
7.008532E+03	5.071022E-03	3.713079E-05
7.018487E+03	5.078383E-03	3.725777E-05
7.028442E+03	5.081434E-03	3.734846E-05
7.038398E+03	5.079881E-03	3.740055E-05
7.048353E+03	5.073284E-03	3.741062E-05
7.058308E+03	5.061472E-03	3.737727E-05
7.068263E+03	5.044564E-03	3.730125E-05
7.078219E+03	5.022557E-03	3.718248E-05
7.088174E+03	4.995935E-03	3.702449E-05
7.098129E+03	4.965151E-03	3.683062E-05
7.108085E+03	4.930984E-03	3.660670E-05
7.118040E+03	4.894205E-03	3.635853E-05
7.127995E+03	4.855488E-03	3.609121E-05
7.137951E+03	4.815707E-03	3.581138E-05
7.147906E+03	4.775385E-03	3.552305E-05
7.157861E+03	4.735342E-03	3.523249E-05
7.167817E+03	4.695997E-03	3.494298E-05
7.177772E+03	4.657672E-03	3.465707E-05
7.187727E+03	4.620768E-03	3.437791E-05
7.197682E+03	4.585500E-03	3.410725E-05
7.207638E+03	4.551913E-03	3.384557E-05
7.217593E+03	4.520072E-03	3.359349E-05
7.227548E+03	4.489987E-03	3.335123E-05
7.237504E+03	4.461633E-03	3.311871E-05
7.247459E+03	4.434940E-03	3.289556E-05
7.257414E+03	4.409628E-03	3.267981E-05
7.267370E+03	4.385756E-03	3.247201E-05
7.277325E+03	4.363107E-03	3.227068E-05
7.287280E+03	4.341444E-03	3.207418E-05
7.297235E+03	4.320709E-03	3.188219E-05
7.307191E+03	4.300572E-03	3.169241E-05
7.317146E+03	4.280887E-03	3.150391E-05
7.327101E+03	4.261485E-03	3.131555E-05
7.337057E+03	4.242079E-03	3.112538E-05
7.347012E+03	4.222561E-03	3.093277E-05
7.356967E+03	4.202468E-03	3.073447E-05
7.366923E+03	4.181802E-03	3.053069E-05
7.376878E+03	4.160238E-03	3.031923E-05
7.386833E+03	4.137752E-03	3.010012E-05
7.396788E+03	4.114214E-03	2.987262E-05
7.406744E+03	4.089633E-03	2.963700E-05
7.416699E+03	4.064179E-03	2.939469E-05
7.426654E+03	4.037917E-03	2.914638E-05
7.436610E+03	4.011321E-03	2.889569E-05
7.446565E+03	3.984466E-03	2.864334E-05
7.456520E+03	3.957779E-03	2.839257E-05
7.466476E+03	3.931443E-03	2.814481E-05
7.476431E+03	3.905991E-03	2.790393E-05
7.486386E+03	3.881572E-03	2.767106E-05
7.496341E+03	3.858399E-03	2.744778E-05
7.506297E+03	3.836743E-03	2.723604E-05
7.516252E+03	3.816742E-03	2.703685E-05
7.526207E+03	3.798628E-03	2.685190E-05
7.536163E+03	3.782193E-03	2.667973E-05
7.546118E+03	3.767357E-03	2.651983E-05
7.556073E+03	3.753970E-03	2.637117E-05
7.566029E+03	3.741692E-03	2.623143E-05
7.575984E+03	3.730336E-03	2.609939E-05
7.585939E+03	3.719515E-03	2.597242E-05
7.595894E+03	3.709012E-03	2.584912E-05
7.605850E+03	3.698282E-03	2.572582E-05
7.615805E+03	3.687229E-03	2.560200E-05
7.625760E+03	3.675552E-03	2.547573E-05
7.635716E+03	3.663415E-03	2.534829E-05
7.645671E+03	3.650746E-03	2.521936E-05
7.655626E+03	3.637895E-03	2.509151E-05
7.665582E+03	3.625022E-03	2.496600E-05
7.675537E+03	3.612412E-03	2.484492E-05
7.685492E+03	3.600374E-03	2.473056E-05
7.695447E+03	3.589202E-03	2.462505E-05
7.705403E+03	3.579154E-03	2.453032E-05
7.715358E+03	3.570356E-03	2.444736E-05
7.725313E+03	3.563100E-03	2.437829E-05
