#wls	flux	fluxerr
1.592848E+03	6.243397E-04	1.298856E-05
1.632669E+03	6.519104E-04	1.348341E-05
1.672491E+03	6.788676E-04	1.395704E-05
1.712312E+03	7.049208E-04	1.440347E-05
1.752133E+03	7.296894E-04	1.481505E-05
1.791954E+03	7.521850E-04	1.517209E-05
1.831775E+03	7.712164E-04	1.545138E-05
1.871597E+03	7.852451E-04	1.562350E-05
1.911418E+03	7.925783E-04	1.565692E-05
1.951239E+03	7.919620E-04	1.552980E-05
1.991060E+03	7.836118E-04	1.524975E-05
2.030881E+03	7.707043E-04	1.488161E-05
2.070703E+03	7.600988E-04	1.455892E-05
2.110524E+03	7.619148E-04	1.447290E-05
2.150345E+03	7.859184E-04	1.480153E-05
2.190166E+03	8.374584E-04	1.563356E-05
2.229987E+03	9.161228E-04	1.694714E-05
2.269809E+03	1.016763E-03	1.863325E-05
2.309630E+03	1.132722E-03	2.055853E-05
2.349451E+03	1.258140E-03	2.260826E-05
2.389272E+03	1.389062E-03	2.470554E-05
2.429093E+03	1.523565E-03	2.681197E-05
2.468915E+03	1.660872E-03	2.891042E-05
2.508736E+03	1.801306E-03	3.100320E-05
2.548557E+03	1.945664E-03	3.310035E-05
2.588378E+03	2.094802E-03	3.521218E-05
2.628199E+03	2.249783E-03	3.735160E-05
2.668021E+03	2.411580E-03	3.952905E-05
2.707842E+03	2.581267E-03	4.175562E-05
2.747663E+03	2.759773E-03	4.403896E-05
2.787484E+03	2.948038E-03	4.638589E-05
2.827305E+03	3.146940E-03	4.880123E-05
2.867127E+03	3.357736E-03	5.129450E-05
2.906948E+03	3.581654E-03	5.387344E-05
2.946769E+03	3.819975E-03	5.654506E-05
2.986590E+03	4.074495E-03	5.932239E-05
2.996546E+03	4.140894E-03	6.003498E-05
3.006501E+03	4.208412E-03	6.075452E-05
3.016456E+03	4.277069E-03	6.148105E-05
3.026411E+03	4.347052E-03	6.221701E-05
3.036367E+03	4.418675E-03	6.296655E-05
3.046322E+03	4.492269E-03	6.373402E-05
3.056277E+03	4.567776E-03	6.451817E-05
3.066233E+03	4.645138E-03	6.531780E-05
3.076188E+03	4.724306E-03	6.613177E-05
3.086143E+03	4.805326E-03	6.696038E-05
3.096099E+03	4.888157E-03	6.780261E-05
3.106054E+03	4.972655E-03	6.865608E-05
3.116009E+03	5.058977E-03	6.952258E-05
3.125964E+03	5.146886E-03	7.039845E-05
3.135920E+03	5.236441E-03	7.128414E-05
3.145875E+03	5.327706E-03	7.218013E-05
3.155830E+03	5.420544E-03	7.308417E-05
3.165786E+03	5.515014E-03	7.399670E-05
3.175741E+03	5.610976E-03	7.491547E-05
3.185696E+03	5.708491E-03	7.584092E-05
3.195652E+03	5.807511E-03	7.677206E-05
3.205607E+03	5.907890E-03	7.770660E-05
3.215562E+03	6.009673E-03	7.864481E-05
3.225517E+03	6.112804E-03	7.958562E-05
3.235473E+03	6.217219E-03	8.052785E-05
3.245428E+03	6.322845E-03	8.147024E-05
3.255383E+03	6.429600E-03	8.241147E-05
3.265339E+03	6.537395E-03	8.335007E-05
3.275294E+03	6.646014E-03	8.428305E-05
3.285249E+03	6.755554E-03	8.521141E-05
3.295205E+03	6.865661E-03	8.613045E-05
3.305160E+03	6.976285E-03	8.703939E-05
3.315115E+03	7.087132E-03	8.793438E-05
3.325070E+03	7.198090E-03	8.881398E-05
3.335026E+03	7.308905E-03	8.967498E-05
3.344981E+03	7.419051E-03	9.051093E-05
3.354936E+03	7.528380E-03	9.132013E-05
3.364892E+03	7.636241E-03	9.209484E-05
3.374847E+03	7.742232E-03	9.283053E-05
3.384802E+03	7.845761E-03	9.352046E-05
3.394758E+03	7.945925E-03	9.415443E-05
3.404713E+03	8.042172E-03	9.472660E-05
3.414668E+03	8.133423E-03	9.522515E-05
3.424623E+03	8.218743E-03	9.564022E-05
3.434579E+03	8.297130E-03	9.596146E-05
3.444534E+03	8.367439E-03	9.617717E-05
3.454489E+03	8.428723E-03	9.627826E-05
3.464445E+03	8.479732E-03	9.625248E-05
3.474400E+03	8.519479E-03	9.609090E-05
3.484355E+03	8.546966E-03	9.578477E-05
3.494311E+03	8.561517E-03	9.532925E-05
3.504266E+03	8.562307E-03	9.471802E-05
3.514221E+03	8.548803E-03	9.394827E-05
3.524176E+03	8.520901E-03	9.302198E-05
3.534132E+03	8.478335E-03	9.193950E-05
3.544087E+03	8.421425E-03	9.070749E-05
3.554042E+03	8.350768E-03	8.933556E-05
3.563998E+03	8.267083E-03	8.783443E-05
3.573953E+03	8.171587E-03	8.621987E-05
3.583908E+03	8.065626E-03	8.450867E-05
3.593864E+03	7.950962E-03	8.272155E-05
3.603819E+03	7.829714E-03	8.088240E-05
3.613774E+03	7.703965E-03	7.901410E-05
3.623729E+03	7.576304E-03	7.714413E-05
3.633685E+03	7.449201E-03	7.529795E-05
3.643640E+03	7.325306E-03	7.350208E-05
3.653595E+03	7.207262E-03	7.178223E-05
3.663551E+03	7.097924E-03	7.016539E-05
3.673506E+03	7.000088E-03	6.867710E-05
3.683461E+03	6.916501E-03	6.734163E-05
3.693417E+03	6.850080E-03	6.618402E-05
3.703372E+03	6.803664E-03	6.522771E-05
3.713327E+03	6.780013E-03	6.449454E-05
3.723282E+03	6.782158E-03	6.400805E-05
3.733238E+03	6.812797E-03	6.378777E-05
3.743193E+03	6.874841E-03	6.385440E-05
3.753148E+03	6.971292E-03	6.422858E-05
3.763104E+03	7.104917E-03	6.492794E-05
3.773059E+03	7.278844E-03	6.597254E-05
3.783014E+03	7.495904E-03	6.737883E-05
3.792970E+03	7.759069E-03	6.916368E-05
3.802925E+03	8.071053E-03	7.134081E-05
3.812880E+03	8.434138E-03	7.391937E-05
3.822835E+03	8.850099E-03	7.690341E-05
3.832791E+03	9.319908E-03	8.028961E-05
3.842746E+03	9.843084E-03	8.406195E-05
3.852701E+03	1.041764E-02	8.819186E-05
3.862657E+03	1.103929E-02	9.263209E-05
3.872612E+03	1.170135E-02	9.731682E-05
3.882567E+03	1.239413E-02	1.021575E-04
3.892523E+03	1.310489E-02	1.070437E-04
3.902478E+03	1.381805E-02	1.118454E-04
3.912433E+03	1.451521E-02	1.164152E-04
3.922388E+03	1.517658E-02	1.205999E-04
3.932344E+03	1.578197E-02	1.242488E-04
3.942299E+03	1.631158E-02	1.272204E-04
3.952254E+03	1.674858E-02	1.294020E-04
3.962210E+03	1.707932E-02	1.307098E-04
3.972165E+03	1.729500E-02	1.311010E-04
3.982120E+03	1.739248E-02	1.305775E-04
3.992076E+03	1.737423E-02	1.291837E-04
4.002031E+03	1.724863E-02	1.270068E-04
4.011986E+03	1.702840E-02	1.241629E-04
4.021941E+03	1.672996E-02	1.207910E-04
4.031897E+03	1.637169E-02	1.170392E-04
4.041852E+03	1.597300E-02	1.130579E-04
4.051807E+03	1.555239E-02	1.089848E-04
4.061763E+03	1.512675E-02	1.049419E-04
4.071718E+03	1.471063E-02	1.010299E-04
4.081673E+03	1.431584E-02	9.732669E-05
4.091629E+03	1.395158E-02	9.388984E-05
4.101584E+03	1.362427E-02	9.075547E-05
4.111539E+03	1.333813E-02	8.794363E-05
4.121494E+03	1.309528E-02	8.545983E-05
4.131450E+03	1.289633E-02	8.329901E-05
4.141405E+03	1.274054E-02	8.144771E-05
4.151360E+03	1.262618E-02	7.988637E-05
4.161316E+03	1.255088E-02	7.859220E-05
4.171271E+03	1.251140E-02	7.753758E-05
4.181226E+03	1.250438E-02	7.669532E-05
4.191182E+03	1.252627E-02	7.603786E-05
4.201137E+03	1.257311E-02	7.553634E-05
4.211092E+03	1.264112E-02	7.516403E-05
4.221047E+03	1.272608E-02	7.489276E-05
4.231003E+03	1.282377E-02	7.469539E-05
4.240958E+03	1.292939E-02	7.454250E-05
4.250913E+03	1.303767E-02	7.440326E-05
4.260869E+03	1.314318E-02	7.424723E-05
4.270824E+03	1.323945E-02	7.403932E-05
4.280779E+03	1.332014E-02	7.374674E-05
4.290735E+03	1.337844E-02	7.333538E-05
4.300690E+03	1.340761E-02	7.277294E-05
4.310645E+03	1.340110E-02	7.202945E-05
4.320601E+03	1.335341E-02	7.108162E-05
4.330556E+03	1.325999E-02	6.991220E-05
4.340511E+03	1.311769E-02	6.851170E-05
4.350466E+03	1.292598E-02	6.688449E-05
4.360422E+03	1.268690E-02	6.504757E-05
4.370377E+03	1.240726E-02	6.304126E-05
4.380332E+03	1.210616E-02	6.096638E-05
4.390288E+03	1.181279E-02	5.897048E-05
4.400243E+03	1.155455E-02	5.718703E-05
4.410198E+03	1.135463E-02	5.572440E-05
4.420154E+03	1.123108E-02	5.466241E-05
4.430109E+03	1.119705E-02	5.405480E-05
4.440064E+03	1.126101E-02	5.393133E-05
4.450019E+03	1.142744E-02	5.430209E-05
4.459975E+03	1.169807E-02	5.516427E-05
4.469930E+03	1.207167E-02	5.650158E-05
4.479885E+03	1.254403E-02	5.828467E-05
4.489841E+03	1.310774E-02	6.047070E-05
4.499796E+03	1.375202E-02	6.300288E-05
4.509751E+03	1.446179E-02	6.580682E-05
4.519707E+03	1.521794E-02	6.879219E-05
4.529662E+03	1.599817E-02	7.185685E-05
4.539617E+03	1.677755E-02	7.488973E-05
4.549572E+03	1.752954E-02	7.777551E-05
4.559528E+03	1.822825E-02	8.040431E-05
4.569483E+03	1.885038E-02	8.268011E-05
4.579438E+03	1.937501E-02	8.451908E-05
4.589394E+03	1.978688E-02	8.586348E-05
4.599349E+03	2.007561E-02	8.667738E-05
4.609304E+03	2.023512E-02	8.694342E-05
4.619260E+03	2.026365E-02	8.666259E-05
4.629215E+03	2.016285E-02	8.584971E-05
4.639170E+03	1.993832E-02	8.453548E-05
4.649125E+03	1.959757E-02	8.275750E-05
4.659081E+03	1.915149E-02	8.056647E-05
4.669036E+03	1.861348E-02	7.802226E-05
4.678991E+03	1.799981E-02	7.519537E-05
4.688947E+03	1.732775E-02	7.215909E-05
4.698902E+03	1.661507E-02	6.898754E-05
4.708857E+03	1.587853E-02	6.574953E-05
4.718813E+03	1.513341E-02	6.250682E-05
4.728768E+03	1.439120E-02	5.930470E-05
4.738723E+03	1.366065E-02	5.617648E-05
4.748678E+03	1.294849E-02	5.314692E-05
4.758634E+03	1.226058E-02	5.023731E-05
4.768589E+03	1.160599E-02	4.748213E-05
4.778544E+03	1.100102E-02	4.494532E-05
4.788500E+03	1.046100E-02	4.268694E-05
4.798455E+03	9.997231E-03	4.075060E-05
4.808410E+03	9.616961E-03	3.916353E-05
4.818366E+03	9.323438E-03	3.793696E-05
4.828321E+03	9.116559E-03	3.706877E-05
4.838276E+03	8.993193E-03	3.654480E-05
4.848231E+03	8.948499E-03	3.634425E-05
4.858187E+03	8.974871E-03	3.643533E-05
4.868142E+03	9.062565E-03	3.677778E-05
4.878097E+03	9.198933E-03	3.731973E-05
4.888053E+03	9.368461E-03	3.799782E-05
4.898008E+03	9.553457E-03	3.873999E-05
4.907963E+03	9.736679E-03	3.947603E-05
4.917919E+03	9.903891E-03	4.014800E-05
4.927874E+03	1.004383E-02	4.071002E-05
4.937829E+03	1.014875E-02	4.113042E-05
4.947784E+03	1.021453E-02	4.139233E-05
4.957740E+03	1.024133E-02	4.149611E-05
4.967695E+03	1.023239E-02	4.145473E-05
4.977650E+03	1.019451E-02	4.129549E-05
4.987606E+03	1.013643E-02	4.105360E-05
4.997561E+03	1.006788E-02	4.076835E-05
5.007516E+03	9.998262E-03	4.047758E-05
5.017472E+03	9.935834E-03	4.021459E-05
5.027427E+03	9.887539E-03	4.000731E-05
5.037382E+03	9.858051E-03	3.987443E-05
5.047337E+03	9.850175E-03	3.982711E-05
5.057293E+03	9.865068E-03	3.986977E-05
5.067248E+03	9.903059E-03	4.000351E-05
5.077203E+03	9.963520E-03	4.022551E-05
5.087159E+03	1.004545E-02	4.053146E-05
5.097114E+03	1.014889E-02	4.092121E-05
5.107069E+03	1.027391E-02	4.139471E-05
5.117025E+03	1.042143E-02	4.195532E-05
5.126980E+03	1.059317E-02	4.260961E-05
5.136935E+03	1.079128E-02	4.336581E-05
5.146890E+03	1.101826E-02	4.423342E-05
5.156846E+03	1.127620E-02	4.522029E-05
5.166801E+03	1.156673E-02	4.633240E-05
5.176756E+03	1.189052E-02	4.757173E-05
5.186712E+03	1.224658E-02	4.893365E-05
5.196667E+03	1.263272E-02	5.040865E-05
5.206622E+03	1.304450E-02	5.197837E-05
5.216578E+03	1.347545E-02	5.361640E-05
5.226533E+03	1.391729E-02	5.528925E-05
5.236488E+03	1.436017E-02	5.695753E-05
5.246443E+03	1.479318E-02	5.857778E-05
5.256399E+03	1.520509E-02	6.010572E-05
5.266354E+03	1.558428E-02	6.149583E-05
5.276309E+03	1.592048E-02	6.270833E-05
5.286265E+03	1.620431E-02	6.370729E-05
5.296220E+03	1.642865E-02	6.446599E-05
5.306175E+03	1.658837E-02	6.496587E-05
5.316131E+03	1.668094E-02	6.519870E-05
5.326086E+03	1.670613E-02	6.516539E-05
5.336041E+03	1.666555E-02	6.487408E-05
5.345996E+03	1.656321E-02	6.434226E-05
5.355952E+03	1.640418E-02	6.359137E-05
5.365907E+03	1.619461E-02	6.264697E-05
5.375862E+03	1.594114E-02	6.153622E-05
5.385818E+03	1.565172E-02	6.029118E-05
5.395773E+03	1.533411E-02	5.894285E-05
5.405728E+03	1.499747E-02	5.752740E-05
5.415684E+03	1.465282E-02	5.608771E-05
5.425639E+03	1.431288E-02	5.467279E-05
5.435594E+03	1.399306E-02	5.334147E-05
5.445549E+03	1.371306E-02	5.216844E-05
5.455505E+03	1.349833E-02	5.124953E-05
5.465460E+03	1.337366E-02	5.067690E-05
5.475415E+03	1.334723E-02	5.047906E-05
5.485371E+03	1.339181E-02	5.055076E-05
5.495326E+03	1.347162E-02	5.075533E-05
5.505281E+03	1.355242E-02	5.096298E-05
5.515237E+03	1.360672E-02	5.107009E-05
5.525192E+03	1.361349E-02	5.099816E-05
5.535147E+03	1.355893E-02	5.069635E-05
5.545102E+03	1.343728E-02	5.014409E-05
5.555058E+03	1.324910E-02	4.934471E-05
5.565013E+03	1.300036E-02	4.832161E-05
5.574968E+03	1.270080E-02	4.711209E-05
5.584924E+03	1.236250E-02	4.576185E-05
5.594879E+03	1.199885E-02	4.432119E-05
5.604834E+03	1.162329E-02	4.284022E-05
5.614790E+03	1.124873E-02	4.136667E-05
5.624745E+03	1.088712E-02	3.994438E-05
5.634700E+03	1.054880E-02	3.861103E-05
5.644655E+03	1.024312E-02	3.740015E-05
5.654611E+03	9.977408E-03	3.633769E-05
5.664566E+03	9.758106E-03	3.544600E-05
5.674521E+03	9.590264E-03	3.474213E-05
5.684477E+03	9.477744E-03	3.423856E-05
5.694432E+03	9.423699E-03	3.394498E-05
5.704387E+03	9.430091E-03	3.386656E-05
5.714343E+03	9.498066E-03	3.400541E-05
5.724298E+03	9.627444E-03	3.435870E-05
5.734253E+03	9.816848E-03	3.491926E-05
5.744209E+03	1.006308E-02	3.567341E-05
5.754164E+03	1.036113E-02	3.660115E-05
5.764119E+03	1.070337E-02	3.767337E-05
5.774074E+03	1.108035E-02	3.885489E-05
5.784030E+03	1.148046E-02	4.010350E-05
5.793985E+03	1.189015E-02	4.137067E-05
5.803940E+03	1.229454E-02	4.260421E-05
5.813896E+03	1.267892E-02	4.375321E-05
5.823851E+03	1.302928E-02	4.477023E-05
5.833806E+03	1.333324E-02	4.561415E-05
5.843762E+03	1.358208E-02	4.625735E-05
5.853717E+03	1.377059E-02	4.668467E-05
5.863672E+03	1.389640E-02	4.689103E-05
5.873627E+03	1.396095E-02	4.688435E-05
5.883583E+03	1.396790E-02	4.668014E-05
5.893538E+03	1.392247E-02	4.629883E-05
5.903493E+03	1.383153E-02	4.576611E-05
5.913449E+03	1.370255E-02	4.510929E-05
5.923404E+03	1.354262E-02	4.435390E-05
5.933359E+03	1.335894E-02	4.352545E-05
5.943315E+03	1.315803E-02	4.264677E-05
5.953270E+03	1.294564E-02	4.173774E-05
5.963225E+03	1.272695E-02	4.081607E-05
5.973180E+03	1.250644E-02	3.989681E-05
5.983136E+03	1.228769E-02	3.899191E-05
5.993091E+03	1.207387E-02	3.811176E-05
6.003046E+03	1.186711E-02	3.726318E-05
6.013002E+03	1.166882E-02	3.645073E-05
6.022957E+03	1.147932E-02	3.567537E-05
6.032912E+03	1.129871E-02	3.493746E-05
6.042868E+03	1.112582E-02	3.423336E-05
6.052823E+03	1.095962E-02	3.355998E-05
6.062778E+03	1.079819E-02	3.291154E-05
6.072733E+03	1.064045E-02	3.228497E-05
6.082689E+03	1.048524E-02	3.167697E-05
6.092644E+03	1.033271E-02	3.108825E-05
6.102599E+03	1.018449E-02	3.052387E-05
6.112555E+03	1.004422E-02	2.999490E-05
6.122510E+03	9.916957E-03	2.951641E-05
6.132465E+03	9.808880E-03	2.910664E-05
6.142421E+03	9.726562E-03	2.878483E-05
6.152376E+03	9.675131E-03	2.856589E-05
6.162331E+03	9.654992E-03	2.845081E-05
6.172286E+03	9.659883E-03	2.842091E-05
6.182242E+03	9.676595E-03	2.843710E-05
6.192197E+03	9.683343E-03	2.843536E-05
6.202152E+03	9.651149E-03	2.833069E-05
6.212108E+03	9.552080E-03	2.804109E-05
6.222063E+03	9.387763E-03	2.757094E-05
6.232018E+03	9.197004E-03	2.703343E-05
6.241974E+03	9.017293E-03	2.653799E-05
6.251929E+03	8.877328E-03	2.616867E-05
6.261884E+03	8.793491E-03	2.597389E-05
6.271839E+03	8.772371E-03	2.597379E-05
6.281795E+03	8.814469E-03	2.617108E-05
6.291750E+03	8.914472E-03	2.655155E-05
6.301705E+03	9.063733E-03	2.709127E-05
6.311661E+03	9.251133E-03	2.775881E-05
6.321616E+03	9.464870E-03	2.852050E-05
6.331571E+03	9.691932E-03	2.933855E-05
6.341527E+03	9.919292E-03	3.017452E-05
6.351482E+03	1.013466E-02	3.099147E-05
6.361437E+03	1.032634E-02	3.175343E-05
6.371392E+03	1.048476E-02	3.242996E-05
6.381348E+03	1.060250E-02	3.299611E-05
6.391303E+03	1.067481E-02	3.343428E-05
6.401258E+03	1.069991E-02	3.373565E-05
6.411214E+03	1.067910E-02	3.390078E-05
6.421169E+03	1.061640E-02	3.393879E-05
6.431124E+03	1.051791E-02	3.386571E-05
6.441080E+03	1.039165E-02	3.370423E-05
6.451035E+03	1.024692E-02	3.348194E-05
6.460990E+03	1.009306E-02	3.322736E-05
6.470945E+03	9.940067E-03	3.297221E-05
6.480901E+03	9.797308E-03	3.274708E-05
6.490856E+03	9.673588E-03	3.258174E-05
6.500811E+03	9.576777E-03	3.250371E-05
6.510767E+03	9.511278E-03	3.252957E-05
6.520722E+03	9.477316E-03	3.266203E-05
6.530677E+03	9.473455E-03	3.289809E-05
6.540633E+03	9.497825E-03	3.323314E-05
6.550588E+03	9.547678E-03	3.365928E-05
6.560543E+03	9.619345E-03	3.416508E-05
6.570498E+03	9.708706E-03	3.473709E-05
6.580454E+03	9.810794E-03	3.535838E-05
6.590409E+03	9.920066E-03	3.600939E-05
6.600364E+03	1.003056E-02	3.666846E-05
6.610320E+03	1.013630E-02	3.731327E-05
6.620275E+03	1.023172E-02	3.792235E-05
6.630230E+03	1.031161E-02	3.847510E-05
6.640186E+03	1.037189E-02	3.895465E-05
6.650141E+03	1.040920E-02	3.934649E-05
6.660096E+03	1.042162E-02	3.964126E-05
6.670051E+03	1.040807E-02	3.983279E-05
6.680007E+03	1.036837E-02	3.991835E-05
6.689962E+03	1.030348E-02	3.989964E-05
6.699917E+03	1.021538E-02	3.978252E-05
6.709873E+03	1.010626E-02	3.957396E-05
6.719828E+03	9.979542E-03	3.928608E-05
6.729783E+03	9.838424E-03	3.893042E-05
6.739739E+03	9.686235E-03	3.851940E-05
6.749694E+03	9.526628E-03	3.806709E-05
6.759649E+03	9.362882E-03	3.758634E-05
6.769604E+03	9.197840E-03	3.708856E-05
6.779560E+03	9.034443E-03	3.658578E-05
6.789515E+03	8.875132E-03	3.608821E-05
6.799470E+03	8.722588E-03	3.560721E-05
6.809426E+03	8.578862E-03	3.515172E-05
6.819381E+03	8.446418E-03	3.473247E-05
6.829336E+03	8.326852E-03	3.435677E-05
6.839292E+03	8.222134E-03	3.403348E-05
6.849247E+03	8.133351E-03	3.376786E-05
6.859202E+03	8.061772E-03	3.356594E-05
6.869157E+03	8.008070E-03	3.343127E-05
6.879113E+03	7.972866E-03	3.336710E-05
6.889068E+03	7.956075E-03	3.337372E-05
6.899023E+03	7.957528E-03	3.345097E-05
6.908979E+03	7.976220E-03	3.359508E-05
6.918934E+03	8.011337E-03	3.380301E-05
6.928889E+03	8.061178E-03	3.406787E-05
6.938845E+03	8.123601E-03	3.438078E-05
6.948800E+03	8.196453E-03	3.473274E-05
6.958755E+03	8.276515E-03	3.511013E-05
6.968710E+03	8.360677E-03	3.549969E-05
6.978666E+03	8.445229E-03	3.588557E-05
6.988621E+03	8.526633E-03	3.625260E-05
6.998576E+03	8.601045E-03	3.658429E-05
7.008532E+03	8.665187E-03	3.686656E-05
7.018487E+03	8.715656E-03	3.708484E-05
7.028442E+03	8.750295E-03	3.722991E-05
7.038398E+03	8.767020E-03	3.729293E-05
7.048353E+03	8.765261E-03	3.727159E-05
7.058308E+03	8.744626E-03	3.716443E-05
7.068263E+03	8.706143E-03	3.697607E-05
7.078219E+03	8.651310E-03	3.671322E-05
7.088174E+03	8.582670E-03	3.638706E-05
7.098129E+03	8.503147E-03	3.601039E-05
7.108085E+03	8.415622E-03	3.559583E-05
7.118040E+03	8.323667E-03	3.515889E-05
7.127995E+03	8.230280E-03	3.471258E-05
7.137951E+03	8.137790E-03	3.426705E-05
7.147906E+03	8.048583E-03	3.383262E-05
7.157861E+03	7.964370E-03	3.341670E-05
7.167817E+03	7.886208E-03	3.302389E-05
7.177772E+03	7.815194E-03	3.265891E-05
7.187727E+03	7.751366E-03	3.232203E-05
7.197682E+03	7.694744E-03	3.201340E-05
7.207638E+03	7.645254E-03	3.173278E-05
7.217593E+03	7.602137E-03	3.147707E-05
7.227548E+03	7.565141E-03	3.124531E-05
7.237504E+03	7.533437E-03	3.103415E-05
7.247459E+03	7.506279E-03	3.084061E-05
7.257414E+03	7.482739E-03	3.066100E-05
7.267370E+03	7.462031E-03	3.049225E-05
7.277325E+03	7.443520E-03	3.033194E-05
7.287280E+03	7.426310E-03	3.017663E-05
7.297235E+03	7.409611E-03	3.002335E-05
7.307191E+03	7.392935E-03	2.987039E-05
7.317146E+03	7.375926E-03	2.971659E-05
7.327101E+03	7.358342E-03	2.956130E-05
7.337057E+03	7.339879E-03	2.940360E-05
7.347012E+03	7.320279E-03	2.924279E-05
7.356967E+03	7.299350E-03	2.907845E-05
7.366923E+03	7.276473E-03	2.890846E-05
7.376878E+03	7.251527E-03	2.873272E-05
7.386833E+03	7.223486E-03	2.854752E-05
7.396788E+03	7.191689E-03	2.835067E-05
7.406744E+03	7.155611E-03	2.814050E-05
7.416699E+03	7.114806E-03	2.791567E-05
7.426654E+03	7.068627E-03	2.767405E-05
7.436610E+03	7.017116E-03	2.741619E-05
7.446565E+03	6.960215E-03	2.714224E-05
7.456520E+03	6.898368E-03	2.685411E-05
7.466476E+03	6.831809E-03	2.655269E-05
7.476431E+03	6.761487E-03	2.624162E-05
7.486386E+03	6.688228E-03	2.592405E-05
7.496341E+03	6.613072E-03	2.560391E-05
7.506297E+03	6.537421E-03	2.528650E-05
7.516252E+03	6.462533E-03	2.497656E-05
7.526207E+03	6.390207E-03	2.468088E-05
7.536163E+03	6.321863E-03	2.440482E-05
7.546118E+03	6.259040E-03	2.415416E-05
7.556073E+03	6.203395E-03	2.393519E-05
7.566029E+03	6.156450E-03	2.375365E-05
7.575984E+03	6.119753E-03	2.361548E-05
7.585939E+03	6.094223E-03	2.352418E-05
7.595894E+03	6.078833E-03	2.347581E-05
7.605850E+03	6.071448E-03	2.346218E-05
7.615805E+03	6.070722E-03	2.347817E-05
7.625760E+03	6.074962E-03	2.351732E-05
7.635716E+03	6.083271E-03	2.357627E-05
7.645671E+03	6.094434E-03	2.365044E-05
7.655626E+03	6.108019E-03	2.373826E-05
7.665582E+03	6.123400E-03	2.383743E-05
7.675537E+03	6.140282E-03	2.394694E-05
7.685492E+03	6.158400E-03	2.406590E-05
7.695447E+03	6.178041E-03	2.419556E-05
7.705403E+03	6.199148E-03	2.433589E-05
7.715358E+03	6.221838E-03	2.448752E-05
7.725313E+03	6.246041E-03	2.465035E-05
