#wls	flux	fluxerr
1.592848E+03	5.927925E-04	1.919504E-05
1.632669E+03	6.176597E-04	1.986261E-05
1.672491E+03	6.417977E-04	2.049250E-05
1.712312E+03	6.649360E-04	2.107620E-05
1.752133E+03	6.867214E-04	2.160287E-05
1.791954E+03	7.063547E-04	2.204811E-05
1.831775E+03	7.224984E-04	2.237172E-05
1.871597E+03	7.338617E-04	2.253632E-05
1.911418E+03	7.389070E-04	2.249851E-05
1.951239E+03	7.365218E-04	2.222950E-05
1.991060E+03	7.269195E-04	2.174159E-05
2.030881E+03	7.130636E-04	2.112861E-05
2.070703E+03	7.014329E-04	2.058442E-05
2.110524E+03	7.012072E-04	2.037401E-05
2.150345E+03	7.213696E-04	2.074571E-05
2.190166E+03	7.667613E-04	2.181870E-05
2.229987E+03	8.367627E-04	2.355168E-05
2.269809E+03	9.266403E-04	2.578864E-05
2.309630E+03	1.030229E-03	2.833935E-05
2.349451E+03	1.142202E-03	3.104368E-05
2.389272E+03	1.258975E-03	3.379479E-05
2.429093E+03	1.378649E-03	3.653517E-05
2.468915E+03	1.500799E-03	3.924817E-05
2.508736E+03	1.625670E-03	4.193495E-05
2.548557E+03	1.754145E-03	4.461238E-05
2.588378E+03	1.887204E-03	4.729839E-05
2.628199E+03	2.026068E-03	5.001513E-05
2.668021E+03	2.171935E-03	5.278219E-05
2.707842E+03	2.326103E-03	5.561940E-05
2.747663E+03	2.489983E-03	5.854684E-05
2.787484E+03	2.665042E-03	6.158333E-05
2.827305E+03	2.852921E-03	6.474873E-05
2.867127E+03	3.055634E-03	6.806810E-05
2.906948E+03	3.275314E-03	7.156504E-05
2.946769E+03	3.514847E-03	7.527512E-05
2.986590E+03	3.777296E-03	7.923182E-05
2.996546E+03	3.847022E-03	8.026648E-05
3.006501E+03	3.918424E-03	8.131873E-05
3.016456E+03	3.991556E-03	8.238900E-05
3.026411E+03	4.066734E-03	8.348311E-05
3.036367E+03	4.144211E-03	8.460544E-05
3.046322E+03	4.224351E-03	8.576251E-05
3.056277E+03	4.307250E-03	8.695525E-05
3.066233E+03	4.392825E-03	8.818096E-05
3.076188E+03	4.481091E-03	8.943891E-05
3.086143E+03	4.572260E-03	9.073229E-05
3.096099E+03	4.666173E-03	9.205683E-05
3.106054E+03	4.762958E-03	9.341397E-05
3.116009E+03	4.862557E-03	9.480149E-05
3.125964E+03	4.965306E-03	9.622481E-05
3.135920E+03	5.070965E-03	9.767804E-05
3.145875E+03	5.179681E-03	9.916288E-05
3.155830E+03	5.291611E-03	1.006811E-04
3.165786E+03	5.406816E-03	1.022326E-04
3.175741E+03	5.525157E-03	1.038135E-04
3.185696E+03	5.647000E-03	1.054293E-04
3.195652E+03	5.772203E-03	1.070761E-04
3.205607E+03	5.900935E-03	1.087556E-04
3.215562E+03	6.033145E-03	1.104654E-04
3.225517E+03	6.168997E-03	1.122072E-04
3.235473E+03	6.308537E-03	1.139802E-04
3.245428E+03	6.451802E-03	1.157838E-04
3.255383E+03	6.598707E-03	1.176148E-04
3.265339E+03	6.749370E-03	1.194739E-04
3.275294E+03	6.903774E-03	1.213592E-04
3.285249E+03	7.061767E-03	1.232666E-04
3.295205E+03	7.223382E-03	1.251951E-04
3.305160E+03	7.388384E-03	1.271392E-04
3.315115E+03	7.556721E-03	1.290966E-04
3.325070E+03	7.728044E-03	1.310600E-04
3.335026E+03	7.902045E-03	1.330229E-04
3.344981E+03	8.078327E-03	1.349776E-04
3.354936E+03	8.256395E-03	1.369148E-04
3.364892E+03	8.435637E-03	1.388235E-04
3.374847E+03	8.615174E-03	1.406890E-04
3.384802E+03	8.794237E-03	1.424984E-04
3.394758E+03	8.971512E-03	1.442307E-04
3.404713E+03	9.146030E-03	1.458710E-04
3.414668E+03	9.316146E-03	1.473942E-04
3.424623E+03	9.480320E-03	1.487777E-04
3.434579E+03	9.636874E-03	1.499975E-04
3.444534E+03	9.783884E-03	1.510268E-04
3.454489E+03	9.919611E-03	1.518426E-04
3.464445E+03	1.004202E-02	1.524183E-04
3.474400E+03	1.014906E-02	1.527284E-04
3.484355E+03	1.023891E-02	1.527512E-04
3.494311E+03	1.030970E-02	1.524661E-04
3.504266E+03	1.036000E-02	1.518594E-04
3.514221E+03	1.038808E-02	1.509143E-04
3.524176E+03	1.039303E-02	1.496261E-04
3.534132E+03	1.037401E-02	1.479922E-04
3.544087E+03	1.033072E-02	1.460179E-04
3.554042E+03	1.026309E-02	1.437118E-04
3.563998E+03	1.017169E-02	1.410916E-04
3.573953E+03	1.005792E-02	1.381861E-04
3.583908E+03	9.923310E-03	1.350252E-04
3.593864E+03	9.770498E-03	1.316527E-04
3.603819E+03	9.602417E-03	1.281153E-04
3.613774E+03	9.422314E-03	1.244621E-04
3.623729E+03	9.233841E-03	1.207458E-04
3.633685E+03	9.040956E-03	1.170212E-04
3.643640E+03	8.847551E-03	1.133401E-04
3.653595E+03	8.657939E-03	1.097575E-04
3.663551E+03	8.476137E-03	1.063225E-04
3.673506E+03	8.306448E-03	1.030856E-04
3.683461E+03	8.152997E-03	1.000926E-04
3.693417E+03	8.019874E-03	9.738690E-05
3.703372E+03	7.910829E-03	9.500553E-05
3.713327E+03	7.829576E-03	9.298307E-05
3.723282E+03	7.779564E-03	9.134901E-05
3.733238E+03	7.764165E-03	9.013007E-05
3.743193E+03	7.786546E-03	8.934885E-05
3.753148E+03	7.849880E-03	8.902631E-05
3.763104E+03	7.957215E-03	8.918035E-05
3.773059E+03	8.111549E-03	8.982670E-05
3.783014E+03	8.316039E-03	9.098125E-05
3.792970E+03	8.573291E-03	9.265231E-05
3.802925E+03	8.885922E-03	9.484696E-05
3.812880E+03	9.256022E-03	9.756544E-05
3.822835E+03	9.684637E-03	1.007961E-04
3.832791E+03	1.017184E-02	1.045168E-04
3.842746E+03	1.071622E-02	1.086904E-04
3.852701E+03	1.131426E-02	1.132597E-04
3.862657E+03	1.196000E-02	1.181452E-04
3.872612E+03	1.264449E-02	1.232418E-04
3.882567E+03	1.335595E-02	1.284218E-04
3.892523E+03	1.407951E-02	1.335348E-04
3.902478E+03	1.479768E-02	1.384138E-04
3.912433E+03	1.549100E-02	1.428825E-04
3.922388E+03	1.613906E-02	1.467668E-04
3.932344E+03	1.672204E-02	1.499079E-04
3.942299E+03	1.722170E-02	1.521715E-04
3.952254E+03	1.762273E-02	1.534580E-04
3.962210E+03	1.791470E-02	1.537171E-04
3.972165E+03	1.809180E-02	1.529429E-04
3.982120E+03	1.815411E-02	1.511808E-04
3.992076E+03	1.810698E-02	1.485192E-04
4.002031E+03	1.796050E-02	1.450815E-04
4.011986E+03	1.772906E-02	1.410199E-04
4.021941E+03	1.742922E-02	1.364958E-04
4.031897E+03	1.707917E-02	1.316751E-04
4.041852E+03	1.669699E-02	1.267130E-04
4.051807E+03	1.629970E-02	1.217482E-04
4.061763E+03	1.590253E-02	1.168979E-04
4.071718E+03	1.551856E-02	1.122562E-04
4.081673E+03	1.515799E-02	1.078909E-04
4.091629E+03	1.482861E-02	1.038479E-04
4.101584E+03	1.453598E-02	1.001548E-04
4.111539E+03	1.428285E-02	9.681748E-05
4.121494E+03	1.407044E-02	9.383086E-05
4.131450E+03	1.389823E-02	9.117843E-05
4.141405E+03	1.376443E-02	8.883583E-05
4.151360E+03	1.366621E-02	8.677349E-05
4.161316E+03	1.360003E-02	8.495880E-05
4.171271E+03	1.356178E-02	8.335773E-05
4.181226E+03	1.354705E-02	8.193630E-05
4.191182E+03	1.355128E-02	8.066182E-05
4.201137E+03	1.356993E-02	7.950371E-05
4.211092E+03	1.359841E-02	7.843312E-05
4.221047E+03	1.363233E-02	7.742432E-05
4.231003E+03	1.366758E-02	7.645464E-05
4.240958E+03	1.370012E-02	7.550339E-05
4.250913E+03	1.372595E-02	7.455141E-05
4.260869E+03	1.374176E-02	7.358452E-05
4.270824E+03	1.374460E-02	7.259117E-05
4.280779E+03	1.373202E-02	7.156303E-05
4.290735E+03	1.370209E-02	7.049492E-05
4.300690E+03	1.365326E-02	6.938363E-05
4.310645E+03	1.358466E-02	6.822923E-05
4.320601E+03	1.349495E-02	6.702924E-05
4.330556E+03	1.338292E-02	6.578122E-05
4.340511E+03	1.324618E-02	6.447521E-05
4.350466E+03	1.308124E-02	6.309532E-05
4.360422E+03	1.288421E-02	6.162357E-05
4.370377E+03	1.265377E-02	6.005431E-05
4.380332E+03	1.240424E-02	5.845490E-05
4.390288E+03	1.216323E-02	5.695266E-05
4.400243E+03	1.195627E-02	5.566187E-05
4.410198E+03	1.180399E-02	5.467186E-05
4.420154E+03	1.172200E-02	5.404799E-05
4.430109E+03	1.172097E-02	5.383252E-05
4.440064E+03	1.180736E-02	5.404923E-05
4.450019E+03	1.198418E-02	5.470695E-05
4.459975E+03	1.225094E-02	5.579982E-05
4.469930E+03	1.260436E-02	5.731053E-05
4.479885E+03	1.303790E-02	5.920814E-05
4.489841E+03	1.354150E-02	6.144680E-05
4.499796E+03	1.410157E-02	6.396543E-05
4.509751E+03	1.470102E-02	6.668783E-05
4.519707E+03	1.532003E-02	6.952548E-05
4.529662E+03	1.593688E-02	7.238122E-05
4.539617E+03	1.652891E-02	7.515311E-05
4.549572E+03	1.707389E-02	7.774041E-05
4.559528E+03	1.755189E-02	8.005176E-05
4.569483E+03	1.794530E-02	8.200527E-05
4.579438E+03	1.824052E-02	8.353608E-05
4.589394E+03	1.842864E-02	8.459975E-05
4.599349E+03	1.850504E-02	8.517051E-05
4.609304E+03	1.846861E-02	8.523805E-05
4.619260E+03	1.832287E-02	8.481302E-05
4.629215E+03	1.807359E-02	8.391609E-05
4.639170E+03	1.773089E-02	8.258851E-05
4.649125E+03	1.730738E-02	8.088325E-05
4.659081E+03	1.681805E-02	7.886531E-05
4.669036E+03	1.627958E-02	7.660841E-05
4.678991E+03	1.570921E-02	7.419011E-05
4.688947E+03	1.512368E-02	7.168670E-05
4.698902E+03	1.453684E-02	6.916212E-05
4.708857E+03	1.395896E-02	6.666408E-05
4.718813E+03	1.339557E-02	6.421798E-05
4.728768E+03	1.284606E-02	6.182009E-05
4.738723E+03	1.230504E-02	5.944370E-05
4.748678E+03	1.176329E-02	5.704357E-05
4.758634E+03	1.121387E-02	5.458489E-05
4.768589E+03	1.066132E-02	5.208878E-05
4.778544E+03	1.012870E-02	4.966768E-05
4.788500E+03	9.641325E-03	4.744701E-05
4.798455E+03	9.218222E-03	4.552291E-05
4.808410E+03	8.870616E-03	4.395428E-05
4.818366E+03	8.603491E-03	4.276961E-05
4.828321E+03	8.416578E-03	4.197140E-05
4.838276E+03	8.305811E-03	4.154296E-05
4.848231E+03	8.264528E-03	4.145403E-05
4.858187E+03	8.283946E-03	4.166313E-05
4.868142E+03	8.353222E-03	4.211760E-05
4.878097E+03	8.460051E-03	4.275667E-05
4.888053E+03	8.590675E-03	4.351137E-05
4.898008E+03	8.731292E-03	4.431181E-05
4.907963E+03	8.869155E-03	4.509283E-05
4.917919E+03	8.993901E-03	4.580093E-05
4.927874E+03	9.098499E-03	4.639935E-05
4.937829E+03	9.179094E-03	4.686745E-05
4.947784E+03	9.235331E-03	4.720253E-05
4.957740E+03	9.269593E-03	4.741608E-05
4.967695E+03	9.286613E-03	4.753182E-05
4.977650E+03	9.292534E-03	4.758087E-05
4.987606E+03	9.294545E-03	4.759990E-05
4.997561E+03	9.299346E-03	4.762314E-05
5.007516E+03	9.313000E-03	4.768159E-05
5.017472E+03	9.340497E-03	4.780071E-05
5.027427E+03	9.385239E-03	4.799772E-05
5.037382E+03	9.449170E-03	4.828228E-05
5.047337E+03	9.532883E-03	4.865704E-05
5.057293E+03	9.635970E-03	4.911939E-05
5.067248E+03	9.757229E-03	4.966263E-05
5.077203E+03	9.895207E-03	5.027873E-05
5.087159E+03	1.004861E-02	5.096041E-05
5.097114E+03	1.021616E-02	5.170058E-05
5.107069E+03	1.039753E-02	5.249675E-05
5.117025E+03	1.059238E-02	5.334648E-05
5.126980E+03	1.080141E-02	5.425261E-05
5.136935E+03	1.102540E-02	5.521814E-05
5.146890E+03	1.126535E-02	5.624716E-05
5.156846E+03	1.152208E-02	5.734288E-05
5.166801E+03	1.179589E-02	5.850574E-05
5.176756E+03	1.208645E-02	5.973307E-05
5.186712E+03	1.239229E-02	6.101666E-05
5.196667E+03	1.271117E-02	6.234460E-05
5.206622E+03	1.303894E-02	6.369585E-05
5.216578E+03	1.337068E-02	6.504598E-05
5.226533E+03	1.370022E-02	6.636514E-05
5.236488E+03	1.402062E-02	6.762014E-05
5.246443E+03	1.432417E-02	6.877497E-05
5.256399E+03	1.460358E-02	6.979646E-05
5.266354E+03	1.485181E-02	7.065326E-05
5.276309E+03	1.506285E-02	7.131978E-05
5.286265E+03	1.523179E-02	7.177626E-05
5.296220E+03	1.535544E-02	7.201159E-05
5.306175E+03	1.543162E-02	7.201968E-05
5.316131E+03	1.545984E-02	7.180263E-05
5.326086E+03	1.544059E-02	7.136710E-05
5.336041E+03	1.537549E-02	7.072482E-05
5.345996E+03	1.526621E-02	6.988765E-05
5.355952E+03	1.511555E-02	6.887235E-05
5.365907E+03	1.492637E-02	6.769549E-05
5.375862E+03	1.470196E-02	6.637531E-05
5.385818E+03	1.444600E-02	6.493129E-05
5.395773E+03	1.416342E-02	6.338806E-05
5.405728E+03	1.386069E-02	6.177642E-05
5.415684E+03	1.354594E-02	6.013397E-05
5.425639E+03	1.323065E-02	5.851235E-05
5.435594E+03	1.292922E-02	5.697511E-05
5.445549E+03	1.265991E-02	5.560158E-05
5.455505E+03	1.244404E-02	5.448246E-05
5.465460E+03	1.230073E-02	5.369733E-05
5.475415E+03	1.223586E-02	5.326765E-05
5.485371E+03	1.222988E-02	5.310443E-05
5.495326E+03	1.225531E-02	5.308561E-05
5.505281E+03	1.228516E-02	5.309257E-05
5.515237E+03	1.229730E-02	5.302874E-05
5.525192E+03	1.227497E-02	5.282142E-05
5.535147E+03	1.220755E-02	5.242491E-05
5.545102E+03	1.208957E-02	5.181581E-05
5.555058E+03	1.192082E-02	5.099348E-05
5.565013E+03	1.170516E-02	4.997454E-05
5.574968E+03	1.144988E-02	4.879028E-05
5.584924E+03	1.116417E-02	4.747989E-05
5.594879E+03	1.085883E-02	4.608919E-05
5.604834E+03	1.054519E-02	4.466613E-05
5.614790E+03	1.023436E-02	4.325727E-05
5.624745E+03	9.936833E-03	4.190641E-05
5.634700E+03	9.661823E-03	4.065169E-05
5.644655E+03	9.417485E-03	3.952643E-05
5.654611E+03	9.210582E-03	3.855782E-05
5.664566E+03	9.046380E-03	3.776647E-05
5.674521E+03	8.928877E-03	3.716738E-05
5.684477E+03	8.860889E-03	3.677035E-05
5.694432E+03	8.844293E-03	3.658100E-05
5.704387E+03	8.879556E-03	3.659881E-05
5.714343E+03	8.966439E-03	3.682016E-05
5.724298E+03	9.103333E-03	3.723560E-05
5.734253E+03	9.287264E-03	3.782997E-05
5.744209E+03	9.514061E-03	3.858325E-05
5.754164E+03	9.778016E-03	3.946927E-05
5.764119E+03	1.007159E-02	4.045476E-05
5.774074E+03	1.038574E-02	4.150088E-05
5.784030E+03	1.071023E-02	4.256471E-05
5.793985E+03	1.103335E-02	4.359834E-05
5.803940E+03	1.134340E-02	4.455500E-05
5.813896E+03	1.162904E-02	4.539063E-05
5.823851E+03	1.188019E-02	4.606727E-05
5.833806E+03	1.208889E-02	4.655641E-05
5.843762E+03	1.224936E-02	4.683913E-05
5.853717E+03	1.235915E-02	4.691005E-05
5.863672E+03	1.241809E-02	4.677296E-05
5.873627E+03	1.242851E-02	4.644143E-05
5.883583E+03	1.239463E-02	4.593605E-05
5.893538E+03	1.232192E-02	4.528183E-05
5.903493E+03	1.221672E-02	4.450636E-05
5.913449E+03	1.208511E-02	4.363584E-05
5.923404E+03	1.193324E-02	4.269598E-05
5.933359E+03	1.176684E-02	4.171035E-05
5.943315E+03	1.159081E-02	4.069886E-05
5.953270E+03	1.140898E-02	3.967723E-05
5.963225E+03	1.122491E-02	3.865963E-05
5.973180E+03	1.104068E-02	3.765480E-05
5.983136E+03	1.085837E-02	3.667119E-05
5.993091E+03	1.067849E-02	3.571171E-05
6.003046E+03	1.050118E-02	3.477806E-05
6.013002E+03	1.032597E-02	3.386981E-05
6.022957E+03	1.015147E-02	3.298368E-05
6.032912E+03	9.976001E-03	3.211558E-05
6.042868E+03	9.797612E-03	3.126068E-05
6.052823E+03	9.615150E-03	3.041687E-05
6.062778E+03	9.427678E-03	2.958271E-05
6.072733E+03	9.236214E-03	2.876282E-05
6.082689E+03	9.043271E-03	2.796618E-05
6.092644E+03	8.853365E-03	2.720752E-05
6.102599E+03	8.673201E-03	2.650781E-05
6.112555E+03	8.511523E-03	2.589368E-05
6.122510E+03	8.378017E-03	2.539424E-05
6.132465E+03	8.282585E-03	2.503905E-05
6.142421E+03	8.234230E-03	2.485517E-05
6.152376E+03	8.238797E-03	2.486070E-05
6.162331E+03	8.297496E-03	2.506039E-05
6.172286E+03	8.403954E-03	2.543578E-05
6.182242E+03	8.541433E-03	2.593720E-05
6.192197E+03	8.679989E-03	2.647471E-05
6.202152E+03	8.777601E-03	2.691974E-05
6.212108E+03	8.791120E-03	2.713676E-05
6.222063E+03	8.710101E-03	2.708709E-05
6.232018E+03	8.570527E-03	2.687497E-05
6.241974E+03	8.415248E-03	2.662891E-05
6.251929E+03	8.277859E-03	2.645235E-05
6.261884E+03	8.179088E-03	2.641153E-05
6.271839E+03	8.128749E-03	2.654040E-05
6.281795E+03	8.128795E-03	2.684900E-05
6.291750E+03	8.175565E-03	2.732962E-05
6.301705E+03	8.261511E-03	2.796134E-05
6.311661E+03	8.377171E-03	2.871593E-05
6.321616E+03	8.512021E-03	2.956011E-05
6.331571E+03	8.654976E-03	3.045696E-05
6.341527E+03	8.795651E-03	3.137009E-05
6.351482E+03	8.924413E-03	3.226382E-05
6.361437E+03	9.033085E-03	3.310588E-05
6.371392E+03	9.115395E-03	3.386908E-05
6.381348E+03	9.167582E-03	3.453404E-05
6.391303E+03	9.187830E-03	3.508796E-05
6.401258E+03	9.176972E-03	3.552781E-05
6.411214E+03	9.137639E-03	3.585780E-05
6.421169E+03	9.074159E-03	3.608939E-05
6.431124E+03	8.992202E-03	3.624050E-05
6.441080E+03	8.898052E-03	3.633275E-05
6.451035E+03	8.798352E-03	3.639075E-05
6.460990E+03	8.699069E-03	3.643774E-05
6.470945E+03	8.606059E-03	3.649785E-05
6.480901E+03	8.524054E-03	3.659165E-05
6.490856E+03	8.456720E-03	3.673615E-05
6.500811E+03	8.407001E-03	3.694595E-05
6.510767E+03	8.376807E-03	3.723163E-05
6.520722E+03	8.367153E-03	3.760012E-05
6.530677E+03	8.378070E-03	3.805401E-05
6.540633E+03	8.408757E-03	3.859202E-05
6.550588E+03	8.457237E-03	3.920716E-05
6.560543E+03	8.520859E-03	3.988886E-05
6.570498E+03	8.596426E-03	4.062338E-05
6.580454E+03	8.680049E-03	4.139305E-05
6.590409E+03	8.767309E-03	4.217693E-05
6.600364E+03	8.853876E-03	4.295374E-05
6.610320E+03	8.935166E-03	4.370023E-05
6.620275E+03	9.007318E-03	4.439608E-05
6.630230E+03	9.066326E-03	4.501969E-05
6.640186E+03	9.109095E-03	4.555356E-05
6.650141E+03	9.133462E-03	4.598457E-05
6.660096E+03	9.137908E-03	4.630277E-05
6.670051E+03	9.121575E-03	4.650152E-05
6.680007E+03	9.084576E-03	4.657933E-05
6.689962E+03	9.027905E-03	4.653941E-05
6.699917E+03	8.952864E-03	4.638691E-05
6.709873E+03	8.861587E-03	4.613166E-05
6.719828E+03	8.756113E-03	4.578338E-05
6.729783E+03	8.639346E-03	4.535669E-05
6.739739E+03	8.513676E-03	4.486388E-05
6.749694E+03	8.382128E-03	4.432093E-05
6.759649E+03	8.247032E-03	4.374041E-05
6.769604E+03	8.111072E-03	4.313702E-05
6.779560E+03	7.976651E-03	4.252413E-05
6.789515E+03	7.845923E-03	4.191392E-05
6.799470E+03	7.721248E-03	4.131977E-05
6.809426E+03	7.604549E-03	4.075274E-05
6.819381E+03	7.497816E-03	4.022427E-05
6.829336E+03	7.402362E-03	3.974210E-05
6.839292E+03	7.319800E-03	3.931553E-05
6.849247E+03	7.251073E-03	3.895013E-05
6.859202E+03	7.197004E-03	3.865071E-05
6.869157E+03	7.157999E-03	3.841969E-05
6.879113E+03	7.134526E-03	3.825969E-05
6.889068E+03	7.125997E-03	3.816747E-05
6.899023E+03	7.132272E-03	3.814209E-05
6.908979E+03	7.152207E-03	3.817710E-05
6.918934E+03	7.184613E-03	3.826572E-05
6.928889E+03	7.228124E-03	3.840017E-05
6.938845E+03	7.280820E-03	3.856968E-05
6.948800E+03	7.340633E-03	3.876277E-05
6.958755E+03	7.405267E-03	3.896680E-05
6.968710E+03	7.472228E-03	3.916825E-05
6.978666E+03	7.538910E-03	3.935318E-05
6.988621E+03	7.602506E-03	3.950687E-05
6.998576E+03	7.660716E-03	3.961752E-05
7.008532E+03	7.710660E-03	3.967062E-05
7.018487E+03	7.750619E-03	3.965804E-05
7.028442E+03	7.778308E-03	3.956905E-05
7.038398E+03	7.792671E-03	3.939952E-05
7.048353E+03	7.792695E-03	3.914585E-05
7.058308E+03	7.778091E-03	3.880826E-05
7.068263E+03	7.749337E-03	3.839101E-05
7.078219E+03	7.707037E-03	3.789904E-05
7.088174E+03	7.652828E-03	3.734233E-05
7.098129E+03	7.588528E-03	3.673164E-05
7.108085E+03	7.516606E-03	3.608064E-05
7.118040E+03	7.439511E-03	3.540261E-05
7.127995E+03	7.359519E-03	3.470960E-05
7.137951E+03	7.279037E-03	3.401399E-05
7.147906E+03	7.199759E-03	3.332442E-05
7.157861E+03	7.123607E-03	3.265029E-05
7.167817E+03	7.051684E-03	3.199693E-05
7.177772E+03	6.984717E-03	3.136779E-05
7.187727E+03	6.923360E-03	3.076584E-05
7.197682E+03	6.867812E-03	3.019195E-05
7.207638E+03	6.817868E-03	2.964515E-05
7.217593E+03	6.773254E-03	2.912429E-05
7.227548E+03	6.733547E-03	2.862758E-05
7.237504E+03	6.698204E-03	2.815290E-05
7.247459E+03	6.666610E-03	2.769793E-05
7.257414E+03	6.637830E-03	2.725918E-05
7.267370E+03	6.611467E-03	2.683560E-05
7.277325E+03	6.586718E-03	2.642460E-05
7.287280E+03	6.562814E-03	2.602392E-05
7.297235E+03	6.539326E-03	2.563285E-05
7.307191E+03	6.515506E-03	2.524952E-05
7.317146E+03	6.490961E-03	2.487362E-05
7.327101E+03	6.465382E-03	2.450524E-05
7.337057E+03	6.438409E-03	2.414435E-05
7.347012E+03	6.409994E-03	2.379214E-05
7.356967E+03	6.379575E-03	2.344793E-05
7.366923E+03	6.347277E-03	2.311360E-05
7.376878E+03	6.312674E-03	2.278898E-05
7.386833E+03	6.275734E-03	2.247533E-05
7.396788E+03	6.236175E-03	2.217294E-05
7.406744E+03	6.193880E-03	2.188262E-05
7.416699E+03	6.148956E-03	2.160587E-05
7.426654E+03	6.101385E-03	2.134362E-05
7.436610E+03	6.051796E-03	2.109887E-05
7.446565E+03	6.000250E-03	2.087247E-05
7.456520E+03	5.947424E-03	2.066665E-05
7.466476E+03	5.893680E-03	2.048161E-05
7.476431E+03	5.839979E-03	2.031948E-05
7.486386E+03	5.786840E-03	2.018080E-05
7.496341E+03	5.734963E-03	2.006674E-05
7.506297E+03	5.685210E-03	1.997905E-05
7.516252E+03	5.638317E-03	1.991911E-05
7.526207E+03	5.595183E-03	1.988901E-05
7.536163E+03	5.556038E-03	1.988854E-05
7.546118E+03	5.521252E-03	1.991816E-05
7.556073E+03	5.490907E-03	1.997738E-05
7.566029E+03	5.464574E-03	2.006396E-05
7.575984E+03	5.441843E-03	2.017577E-05
7.585939E+03	5.422023E-03	2.030964E-05
7.595894E+03	5.405042E-03	2.046473E-05
7.605850E+03	5.390424E-03	2.063874E-05
7.615805E+03	5.378147E-03	2.083109E-05
7.625760E+03	5.367658E-03	2.103919E-05
7.635716E+03	5.358905E-03	2.126241E-05
7.645671E+03	5.351405E-03	2.149845E-05
7.655626E+03	5.345256E-03	2.174729E-05
7.665582E+03	5.340309E-03	2.200802E-05
7.675537E+03	5.336644E-03	2.228068E-05
7.685492E+03	5.334439E-03	2.256579E-05
7.695447E+03	5.333935E-03	2.286424E-05
7.705403E+03	5.335390E-03	2.317710E-05
7.715358E+03	5.338906E-03	2.350484E-05
7.725313E+03	5.344856E-03	2.384925E-05
