#wls	flux	fluxerr
1.592848E+03	6.343071E-04	1.090701E-05
1.632669E+03	6.622780E-04	1.132840E-05
1.672491E+03	6.895898E-04	1.173215E-05
1.712312E+03	7.159459E-04	1.211325E-05
1.752133E+03	7.409581E-04	1.246524E-05
1.791954E+03	7.637511E-04	1.277369E-05
1.831775E+03	7.828592E-04	1.301472E-05
1.871597E+03	7.968533E-04	1.316567E-05
1.911418E+03	8.040243E-04	1.319994E-05
1.951239E+03	8.031105E-04	1.309904E-05
1.991060E+03	7.942898E-04	1.286840E-05
2.030881E+03	7.807526E-04	1.256200E-05
2.070703E+03	7.695732E-04	1.229450E-05
2.110524E+03	7.708526E-04	1.222534E-05
2.150345E+03	7.945516E-04	1.250694E-05
2.190166E+03	8.461309E-04	1.321642E-05
2.229987E+03	9.250406E-04	1.433474E-05
2.269809E+03	1.026155E-03	1.577238E-05
2.309630E+03	1.142707E-03	1.741703E-05
2.349451E+03	1.268797E-03	1.917268E-05
2.389272E+03	1.400406E-03	2.097441E-05
2.429093E+03	1.535359E-03	2.278667E-05
2.468915E+03	1.673089E-03	2.459870E-05
2.508736E+03	1.813756E-03	2.641055E-05
2.548557E+03	1.958204E-03	2.823203E-05
2.588378E+03	2.107364E-03	3.007361E-05
2.628199E+03	2.262396E-03	3.194839E-05
2.668021E+03	2.424396E-03	3.386778E-05
2.707842E+03	2.594509E-03	3.584312E-05
2.747663E+03	2.773934E-03	3.788564E-05
2.787484E+03	2.963852E-03	4.000542E-05
2.827305E+03	3.165515E-03	4.221261E-05
2.867127E+03	3.380455E-03	4.452004E-05
2.906948E+03	3.610158E-03	4.693875E-05
2.946769E+03	3.856720E-03	4.948639E-05
2.986590E+03	4.122140E-03	5.217776E-05
2.996546E+03	4.191836E-03	5.287666E-05
3.006501E+03	4.262842E-03	5.358522E-05
3.016456E+03	4.335185E-03	5.430360E-05
3.026411E+03	4.409177E-03	5.503546E-05
3.036367E+03	4.485052E-03	5.578347E-05
3.046322E+03	4.563164E-03	5.655175E-05
3.056277E+03	4.643573E-03	5.734067E-05
3.066233E+03	4.726143E-03	5.814824E-05
3.076188E+03	4.810842E-03	5.897373E-05
3.086143E+03	4.897848E-03	5.981898E-05
3.096099E+03	4.986935E-03	6.068090E-05
3.106054E+03	5.078183E-03	6.156013E-05
3.116009E+03	5.171476E-03	6.245494E-05
3.125964E+03	5.267109E-03	6.336856E-05
3.135920E+03	5.364760E-03	6.429677E-05
3.145875E+03	5.464522E-03	6.524034E-05
3.155830E+03	5.566491E-03	6.620011E-05
3.165786E+03	5.670659E-03	6.717560E-05
3.175741E+03	5.776805E-03	6.816389E-05
3.185696E+03	5.885238E-03	6.916826E-05
3.195652E+03	5.995731E-03	7.018570E-05
3.205607E+03	6.108377E-03	7.121696E-05
3.215562E+03	6.223044E-03	7.226016E-05
3.225517E+03	6.339817E-03	7.331596E-05
3.235473E+03	6.458665E-03	7.438363E-05
3.245428E+03	6.579542E-03	7.546233E-05
3.255383E+03	6.702286E-03	7.654986E-05
3.265339E+03	6.826941E-03	7.764641E-05
3.275294E+03	6.953420E-03	7.875068E-05
3.285249E+03	7.081509E-03	7.985994E-05
3.295205E+03	7.211186E-03	8.097367E-05
3.305160E+03	7.342180E-03	8.208855E-05
3.315115E+03	7.474404E-03	8.320339E-05
3.325070E+03	7.607501E-03	8.431400E-05
3.335026E+03	7.741168E-03	8.541688E-05
3.344981E+03	7.875042E-03	8.650790E-05
3.354936E+03	8.008680E-03	8.758215E-05
3.364892E+03	8.141555E-03	8.863389E-05
3.374847E+03	8.272922E-03	8.965512E-05
3.384802E+03	8.402170E-03	9.063942E-05
3.394758E+03	8.528218E-03	9.157547E-05
3.404713E+03	8.650352E-03	9.245609E-05
3.414668E+03	8.767270E-03	9.326798E-05
3.424623E+03	8.877813E-03	9.399962E-05
3.434579E+03	8.980737E-03	9.463885E-05
3.444534E+03	9.074625E-03	9.517190E-05
3.454489E+03	9.158267E-03	9.558753E-05
3.464445E+03	9.230219E-03	9.587225E-05
3.474400E+03	9.289077E-03	9.601333E-05
3.484355E+03	9.333646E-03	9.600046E-05
3.494311E+03	9.362738E-03	9.582368E-05
3.504266E+03	9.375576E-03	9.547742E-05
3.514221E+03	9.371121E-03	9.495368E-05
3.524176E+03	9.349069E-03	9.425205E-05
3.534132E+03	9.309173E-03	9.337280E-05
3.544087E+03	9.251630E-03	9.232065E-05
3.554042E+03	9.176772E-03	9.110167E-05
3.563998E+03	9.085424E-03	8.972673E-05
3.573953E+03	8.979012E-03	8.821243E-05
3.583908E+03	8.858935E-03	8.657481E-05
3.593864E+03	8.727424E-03	8.483776E-05
3.603819E+03	8.586838E-03	8.302590E-05
3.613774E+03	8.439715E-03	8.116511E-05
3.623729E+03	8.288907E-03	7.928376E-05
3.633685E+03	1.135619E-02	1.080312E-04
3.634949E+03	1.143071E-02	1.086644E-04
3.636213E+03	1.150359E-02	1.092811E-04
3.637478E+03	1.158227E-02	1.099518E-04
3.638742E+03	1.166302E-02	1.106412E-04
3.640006E+03	1.173676E-02	1.112630E-04
3.641281E+03	1.180183E-02	1.118011E-04
3.642545E+03	1.186483E-02	1.123193E-04
3.643809E+03	1.193033E-02	1.128603E-04
3.645074E+03	1.199335E-02	1.133770E-04
3.646338E+03	1.205141E-02	1.138460E-04
3.647602E+03	1.210741E-02	1.142948E-04
3.648867E+03	1.215887E-02	1.147000E-04
3.650131E+03	1.220289E-02	1.150343E-04
3.651395E+03	1.224277E-02	1.153291E-04
3.652660E+03	1.227769E-02	1.155767E-04
3.653924E+03	1.230516E-02	1.157537E-04
3.655198E+03	1.232727E-02	1.158792E-04
3.656462E+03	1.235185E-02	1.160283E-04
3.657727E+03	1.238016E-02	1.162121E-04
3.658991E+03	1.240434E-02	1.163567E-04
3.660255E+03	1.241940E-02	1.164156E-04
3.661520E+03	1.242412E-02	1.163773E-04
3.662784E+03	1.241640E-02	1.162226E-04
3.664048E+03	1.240040E-02	1.159905E-04
3.665313E+03	1.238440E-02	1.157586E-04
3.666577E+03	1.237253E-02	1.155655E-04
3.667841E+03	1.236274E-02	1.153919E-04
3.669116E+03	1.234964E-02	1.151869E-04
3.670380E+03	1.232948E-02	1.149169E-04
3.671644E+03	1.229937E-02	1.145545E-04
3.672909E+03	1.226138E-02	1.141192E-04
3.674173E+03	1.221965E-02	1.136496E-04
3.675437E+03	1.217584E-02	1.131612E-04
3.676702E+03	1.213037E-02	1.126579E-04
3.677966E+03	1.208074E-02	1.121167E-04
3.679230E+03	1.202115E-02	1.114838E-04
3.680495E+03	1.194746E-02	1.107209E-04
3.681759E+03	1.186380E-02	1.098666E-04
3.683023E+03	1.177473E-02	1.089635E-04
3.684298E+03	1.167986E-02	1.080072E-04
3.685562E+03	1.157251E-02	1.069375E-04
3.686826E+03	1.144939E-02	1.057236E-04
3.688090E+03	1.131504E-02	1.044077E-04
3.689355E+03	1.117569E-02	1.030475E-04
3.690619E+03	1.103218E-02	1.016507E-04
3.691883E+03	1.088573E-02	1.002289E-04
3.693148E+03	1.074217E-02	9.883552E-05
3.694412E+03	1.060522E-02	9.750488E-05
3.695676E+03	1.046618E-02	9.615681E-05
3.696941E+03	1.031549E-02	9.470366E-05
3.698215E+03	1.015358E-02	9.314901E-05
3.699479E+03	9.987483E-03	9.155870E-05
3.700744E+03	9.821777E-03	8.997416E-05
3.702008E+03	9.658120E-03	8.841059E-05
3.703272E+03	9.496512E-03	8.686793E-05
3.704537E+03	9.333220E-03	8.531203E-05
3.705801E+03	9.165332E-03	8.371632E-05
3.707065E+03	8.993264E-03	8.208470E-05
3.708330E+03	8.819094E-03	8.043618E-05
3.709594E+03	8.641572E-03	7.875944E-05
3.710858E+03	8.461115E-03	7.705832E-05
3.712133E+03	8.278974E-03	7.534385E-05
3.713397E+03	8.096798E-03	7.363193E-05
3.714661E+03	7.913347E-03	7.191085E-05
3.715925E+03	7.728621E-03	7.018063E-05
3.717190E+03	7.545528E-03	6.846769E-05
3.718454E+03	7.363239E-03	6.676448E-05
3.719718E+03	7.178010E-03	6.503706E-05
3.720983E+03	6.990259E-03	6.328927E-05
3.722247E+03	6.803727E-03	6.155502E-05
3.723511E+03	6.626311E-03	5.990567E-05
3.724776E+03	6.460925E-03	5.836735E-05
3.726050E+03	6.302171E-03	5.689078E-05
3.727314E+03	6.140062E-03	5.538641E-05
3.728579E+03	5.975849E-03	5.386522E-05
3.729843E+03	5.817847E-03	5.240218E-05
3.731107E+03	5.673131E-03	5.106081E-05
3.732372E+03	5.542122E-03	4.984466E-05
3.733636E+03	5.431891E-03	4.881699E-05
3.734900E+03	5.329966E-03	4.786537E-05
3.736165E+03	5.229689E-03	4.692991E-05
3.737429E+03	5.136470E-03	4.605908E-05
3.738693E+03	5.056136E-03	4.530494E-05
3.739968E+03	4.966639E-03	4.446957E-05
3.741232E+03	4.834670E-03	4.325566E-05
3.742496E+03	4.660640E-03	4.166747E-05
3.743761E+03	4.480755E-03	4.002931E-05
3.745025E+03	4.340393E-03	3.874636E-05
3.746289E+03	4.250385E-03	3.791446E-05
3.747553E+03	4.189092E-03	3.733972E-05
3.748818E+03	4.135701E-03	3.683618E-05
3.750082E+03	4.089756E-03	3.639961E-05
3.751346E+03	4.054759E-03	3.606102E-05
3.752611E+03	4.038664E-03	3.589088E-05
3.753885E+03	4.036188E-03	3.584169E-05
3.755149E+03	4.040251E-03	3.585076E-05
3.756414E+03	4.037733E-03	3.580141E-05
3.757678E+03	4.032464E-03	3.572773E-05
3.758942E+03	4.029279E-03	3.567257E-05
3.760207E+03	4.014632E-03	3.551605E-05
3.761471E+03	3.981856E-03	3.519947E-05
3.762735E+03	3.945034E-03	3.484758E-05
3.764000E+03	3.918750E-03	3.458920E-05
3.765264E+03	3.905925E-03	3.444987E-05
3.766528E+03	3.904437E-03	3.441064E-05
3.767793E+03	3.909784E-03	3.443161E-05
3.769067E+03	3.913385E-03	3.443694E-05
3.770331E+03	3.911814E-03	3.439695E-05
3.771596E+03	3.914997E-03	3.439875E-05
3.772860E+03	3.936445E-03	3.456087E-05
3.774124E+03	3.975413E-03	3.487641E-05
3.775389E+03	4.022061E-03	3.525874E-05
3.776653E+03	4.055787E-03	3.552726E-05
3.777917E+03	4.067116E-03	3.559929E-05
3.779181E+03	4.067517E-03	3.557559E-05
3.780446E+03	4.068377E-03	3.555589E-05
3.781710E+03	4.079920E-03	3.562947E-05
3.782984E+03	4.102941E-03	3.580285E-05
3.784249E+03	4.134645E-03	3.605183E-05
3.785513E+03	4.164557E-03	3.628479E-05
3.786777E+03	4.186295E-03	3.644617E-05
3.788042E+03	4.211250E-03	3.663525E-05
3.789306E+03	4.254993E-03	3.698733E-05
3.790570E+03	4.311687E-03	3.745130E-05
3.791835E+03	4.354193E-03	3.779137E-05
3.793099E+03	4.370819E-03	3.790642E-05
3.794363E+03	4.377843E-03	3.793804E-05
3.795628E+03	4.396562E-03	3.807084E-05
3.796902E+03	4.428651E-03	3.831884E-05
3.798166E+03	4.461994E-03	3.857748E-05
3.799431E+03	4.494509E-03	3.882852E-05
3.800695E+03	4.527446E-03	3.908278E-05
3.801959E+03	4.567072E-03	3.939428E-05
3.803224E+03	4.615062E-03	3.977735E-05
3.804488E+03	4.665565E-03	4.018142E-05
3.805752E+03	4.708139E-03	4.051657E-05
3.807016E+03	4.742360E-03	4.077933E-05
3.808281E+03	4.782856E-03	4.109555E-05
3.809545E+03	4.841330E-03	4.156558E-05
3.810819E+03	4.918210E-03	4.219247E-05
3.812084E+03	5.007222E-03	4.292259E-05
3.813348E+03	5.104191E-03	4.371966E-05
3.814612E+03	5.201595E-03	4.451917E-05
3.815877E+03	5.293577E-03	4.527101E-05
3.817141E+03	5.380138E-03	4.597528E-05
3.818405E+03	5.466713E-03	4.667852E-05
3.819670E+03	5.552465E-03	4.737358E-05
3.820934E+03	5.635303E-03	4.804266E-05
3.822198E+03	5.717737E-03	4.870718E-05
3.823463E+03	5.803530E-03	4.939920E-05
3.824737E+03	5.893943E-03	5.012905E-05
3.826001E+03	5.984367E-03	5.085808E-05
3.827266E+03	6.068528E-03	5.153273E-05
3.828530E+03	6.147263E-03	5.216022E-05
3.829794E+03	6.224338E-03	5.277257E-05
3.831059E+03	6.305610E-03	5.341945E-05
3.832323E+03	6.388149E-03	5.407598E-05
3.833587E+03	6.467354E-03	5.470320E-05
3.834852E+03	6.544897E-03	5.531532E-05
3.836116E+03	6.629572E-03	5.598662E-05
3.837380E+03	6.729331E-03	5.678409E-05
3.838654E+03	6.838742E-03	5.766124E-05
3.839919E+03	6.949424E-03	5.854799E-05
3.841183E+03	7.058447E-03	5.941931E-05
3.842447E+03	7.166651E-03	6.028228E-05
3.843712E+03	7.274452E-03	6.114041E-05
3.844976E+03	7.386882E-03	6.203598E-05
3.846240E+03	7.510638E-03	6.302509E-05
3.847505E+03	7.647402E-03	6.412163E-05
3.848769E+03	7.794665E-03	6.530429E-05
3.850033E+03	7.947399E-03	6.653079E-05
3.851298E+03	8.100575E-03	6.775895E-05
3.852562E+03	8.247491E-03	6.893275E-05
3.853836E+03	8.390245E-03	7.006938E-05
3.855101E+03	8.535530E-03	7.122567E-05
3.856365E+03	8.690481E-03	7.246061E-05
3.857629E+03	8.862648E-03	7.383692E-05
3.858894E+03	9.061673E-03	7.543451E-05
3.860158E+03	9.280021E-03	7.719017E-05
3.861422E+03	9.499659E-03	7.895365E-05
3.862687E+03	9.711787E-03	8.065183E-05
3.863951E+03	9.916398E-03	8.228481E-05
3.865215E+03	1.011895E-02	8.389794E-05
3.866480E+03	1.032530E-02	8.553994E-05
3.867754E+03	1.054303E-02	8.727273E-05
3.869018E+03	1.077085E-02	8.908667E-05
3.870282E+03	1.099786E-02	9.089094E-05
3.871547E+03	1.121443E-02	9.260588E-05
3.872811E+03	1.141886E-02	9.421780E-05
3.874075E+03	1.161871E-02	9.578923E-05
3.875340E+03	1.182363E-02	9.739975E-05
3.876604E+03	1.203865E-02	9.909073E-05
3.877868E+03	1.226210E-02	1.008482E-04
3.879133E+03	1.248182E-02	1.025719E-04
3.880397E+03	1.269233E-02	1.042172E-04
3.881671E+03	1.290205E-02	1.058525E-04
3.882936E+03	1.312480E-02	1.075925E-04
3.884200E+03	1.336524E-02	1.094744E-04
3.885464E+03	1.361159E-02	1.114015E-04
3.886729E+03	1.385630E-02	1.133119E-04
3.887993E+03	1.409979E-02	1.152091E-04
3.889257E+03	1.434332E-02	1.171034E-04
3.890522E+03	1.458438E-02	1.189742E-04
3.891786E+03	1.482168E-02	1.208114E-04
3.893050E+03	1.505987E-02	1.226525E-04
3.894315E+03	1.530146E-02	1.245181E-04
3.895589E+03	1.554478E-02	1.263938E-04
3.896853E+03	1.578309E-02	1.282264E-04
3.898117E+03	1.601597E-02	1.300117E-04
3.899382E+03	1.624468E-02	1.317602E-04
3.900646E+03	1.647007E-02	1.334787E-04
3.901910E+03	1.669172E-02	1.351638E-04
3.903175E+03	1.690457E-02	1.367749E-04
3.904439E+03	1.711156E-02	1.383358E-04
3.905703E+03	1.731733E-02	1.398841E-04
3.906968E+03	1.752272E-02	1.414266E-04
3.908232E+03	1.772099E-02	1.429089E-04
3.909506E+03	1.791004E-02	1.443135E-04
3.910771E+03	1.809449E-02	1.456794E-04
3.912035E+03	1.827981E-02	1.470499E-04
3.913299E+03	1.846096E-02	1.483844E-04
3.914564E+03	1.863751E-02	1.496796E-04
3.915828E+03	1.881492E-02	1.509793E-04
3.917092E+03	1.899532E-02	1.523007E-04
3.918357E+03	1.917238E-02	1.535929E-04
3.919621E+03	1.933767E-02	1.547887E-04
3.920885E+03	1.948784E-02	1.558613E-04
3.922150E+03	1.963088E-02	1.568749E-04
3.923424E+03	1.977942E-02	1.579296E-04
3.924688E+03	1.993809E-02	1.590642E-04
3.925952E+03	2.009637E-02	1.601936E-04
3.927217E+03	2.023992E-02	1.612035E-04
3.928481E+03	2.036625E-02	1.620746E-04
3.929745E+03	2.048079E-02	1.628502E-04
3.931010E+03	2.059114E-02	1.635911E-04
3.932274E+03	2.070024E-02	1.643206E-04
3.933538E+03	2.080599E-02	1.650221E-04
3.934803E+03	2.090586E-02	1.656757E-04
3.936067E+03	2.100237E-02	1.663013E-04
3.937331E+03	2.110102E-02	1.669426E-04
3.938606E+03	2.120390E-02	1.676150E-04
3.939870E+03	2.131185E-02	1.683271E-04
3.941134E+03	2.142192E-02	1.690546E-04
3.942399E+03	2.152610E-02	1.697343E-04
3.943663E+03	2.161767E-02	1.703132E-04
3.944927E+03	2.169912E-02	1.708113E-04
3.946192E+03	2.177636E-02	1.712753E-04
3.947456E+03	2.184898E-02	1.717019E-04
3.948720E+03	2.191277E-02	1.720582E-04
3.949985E+03	2.196686E-02	1.723377E-04
3.951249E+03	2.201042E-02	1.725339E-04
3.952523E+03	2.204515E-02	1.726593E-04
3.953787E+03	2.207395E-02	1.727390E-04
3.955052E+03	2.210148E-02	1.728084E-04
3.956316E+03	2.213199E-02	1.729007E-04
3.957580E+03	2.216756E-02	1.730322E-04
3.958845E+03	2.219934E-02	1.731337E-04
3.960109E+03	2.221762E-02	1.731296E-04
3.961373E+03	2.221944E-02	1.729972E-04
3.962638E+03	2.221283E-02	1.727991E-04
3.963902E+03	2.220240E-02	1.725715E-04
3.965166E+03	2.219157E-02	1.723410E-04
3.966441E+03	2.218157E-02	1.721160E-04
3.967705E+03	2.217157E-02	1.718922E-04
3.968969E+03	2.215733E-02	1.716358E-04
3.970234E+03	2.213552E-02	1.713210E-04
3.971498E+03	2.210312E-02	1.709247E-04
3.972762E+03	2.205805E-02	1.704309E-04
3.974027E+03	2.200324E-02	1.698626E-04
3.975291E+03	2.194845E-02	1.692951E-04
3.976555E+03	2.190590E-02	1.688228E-04
3.977820E+03	2.187811E-02	1.684647E-04
3.979084E+03	2.185286E-02	1.681265E-04
3.980358E+03	2.181453E-02	1.676871E-04
3.981623E+03	2.175672E-02	1.670997E-04
3.982887E+03	2.168412E-02	1.663996E-04
3.984151E+03	2.160728E-02	1.656681E-04
3.985415E+03	2.153043E-02	1.649374E-04
3.986680E+03	2.145313E-02	1.642044E-04
3.987944E+03	2.137879E-02	1.634950E-04
3.989208E+03	2.130867E-02	1.628190E-04
3.990473E+03	2.123979E-02	1.621533E-04
3.991737E+03	2.116245E-02	1.614241E-04
3.993001E+03	2.107453E-02	1.606153E-04
3.994276E+03	2.098364E-02	1.597839E-04
3.995540E+03	2.089187E-02	1.589483E-04
3.996804E+03	2.080221E-02	1.581298E-04
3.998069E+03	2.071676E-02	1.573446E-04
3.999333E+03	2.063298E-02	1.565732E-04
4.000597E+03	2.054327E-02	1.557580E-04
4.001862E+03	2.044763E-02	1.548991E-04
4.003126E+03	2.035196E-02	1.540412E-04
4.004390E+03	2.025670E-02	1.531878E-04
4.005655E+03	2.015719E-02	1.523035E-04
4.006919E+03	2.005005E-02	1.513630E-04
4.008193E+03	1.993443E-02	1.503589E-04
4.009458E+03	1.981497E-02	1.493285E-04
4.010722E+03	1.969888E-02	1.483249E-04
4.011986E+03	1.959081E-02	1.473834E-04
4.013251E+03	1.948528E-02	1.464624E-04
4.014515E+03	1.937167E-02	1.454820E-04
4.015779E+03	1.924999E-02	1.444428E-04
4.017043E+03	1.912576E-02	1.433859E-04
4.018308E+03	1.900235E-02	1.423369E-04
4.019572E+03	1.887764E-02	1.412798E-04
4.020836E+03	1.874826E-02	1.401895E-04
4.022101E+03	1.861165E-02	1.390469E-04
4.023375E+03	1.846953E-02	1.378640E-04
4.024639E+03	1.832652E-02	1.366773E-04
4.025904E+03	1.818857E-02	1.355302E-04
4.027168E+03	1.805483E-02	1.344164E-04
4.028432E+03	1.791853E-02	1.332852E-04
4.029697E+03	1.777543E-02	1.321053E-04
4.030961E+03	1.763018E-02	1.309114E-04
4.032225E+03	1.748999E-02	1.297569E-04
4.033490E+03	1.735445E-02	1.286388E-04
4.034754E+03	1.721591E-02	1.275002E-04
4.036018E+03	1.707269E-02	1.263288E-04
4.037293E+03	1.693030E-02	1.251647E-04
4.038557E+03	1.679339E-02	1.240437E-04
4.039821E+03	1.666197E-02	1.229651E-04
4.041086E+03	1.653434E-02	1.219162E-04
4.042350E+03	1.640373E-02	1.208470E-04
4.043614E+03	1.626418E-02	1.197138E-04
4.044878E+03	1.611655E-02	1.185229E-04
4.046143E+03	1.597059E-02	1.173463E-04
4.047407E+03	1.583479E-02	1.162462E-04
4.048671E+03	1.570746E-02	1.152100E-04
4.049936E+03	1.558647E-02	1.142220E-04
4.051210E+03	1.547226E-02	1.132845E-04
4.052474E+03	1.536355E-02	1.123894E-04
4.053739E+03	1.525481E-02	1.114956E-04
4.055003E+03	1.513714E-02	1.105381E-04
4.056267E+03	1.501393E-02	1.095416E-04
4.057532E+03	1.489070E-02	1.085467E-04
4.058796E+03	1.477127E-02	1.075810E-04
4.060060E+03	1.465777E-02	1.066601E-04
4.061325E+03	1.455105E-02	1.057899E-04
4.062589E+03	1.444855E-02	1.049519E-04
4.063853E+03	1.433924E-02	1.040658E-04
4.065128E+03	1.421972E-02	1.031064E-04
4.066392E+03	1.409720E-02	1.021275E-04
4.067656E+03	1.398656E-02	1.012362E-04
4.068921E+03	1.389375E-02	1.004753E-04
4.070185E+03	1.381282E-02	9.980153E-05
4.071449E+03	1.373570E-02	9.915634E-05
4.072714E+03	1.365687E-02	9.849982E-05
4.073978E+03	1.357250E-02	9.780441E-05
4.075242E+03	1.348726E-02	9.710391E-05
4.076506E+03	1.341094E-02	9.646866E-05
4.077771E+03	1.334609E-02	9.591684E-05
4.079045E+03	1.328463E-02	9.538963E-05
4.080309E+03	1.322188E-02	9.485462E-05
4.081574E+03	1.316550E-02	9.436610E-05
4.082838E+03	1.311932E-02	9.395137E-05
4.084102E+03	1.307780E-02	9.357069E-05
4.085367E+03	1.303331E-02	9.316925E-05
4.086631E+03	1.298327E-02	9.272884E-05
4.087895E+03	1.293492E-02	9.230119E-05
4.089160E+03	1.289423E-02	9.192874E-05
4.090424E+03	1.286331E-02	9.162653E-05
4.091688E+03	1.284133E-02	9.138829E-05
4.092963E+03	1.282190E-02	9.116792E-05
4.094227E+03	1.279820E-02	9.091814E-05
4.095491E+03	1.276854E-02	9.062639E-05
4.096756E+03	1.274015E-02	9.034407E-05
4.098020E+03	1.271815E-02	9.010736E-05
4.099284E+03	1.270422E-02	8.992818E-05
4.100549E+03	1.269327E-02	8.977029E-05
4.101813E+03	1.268147E-02	8.960654E-05
4.103077E+03	1.266711E-02	8.942492E-05
4.104342E+03	1.265573E-02	8.926453E-05
4.105606E+03	1.265499E-02	8.917935E-05
4.106870E+03	1.266192E-02	8.914817E-05
4.108144E+03	1.266800E-02	8.911040E-05
4.109409E+03	1.266556E-02	8.901326E-05
4.110673E+03	1.265629E-02	8.886834E-05
4.111937E+03	1.264362E-02	8.869965E-05
4.113202E+03	1.263307E-02	8.854607E-05
4.114466E+03	1.262678E-02	8.842248E-05
4.115730E+03	1.262475E-02	8.832882E-05
4.116995E+03	1.262740E-02	8.826799E-05
4.118259E+03	1.263347E-02	8.823098E-05
4.119523E+03	1.264124E-02	8.820583E-05
4.120788E+03	1.264773E-02	8.817171E-05
4.122062E+03	1.265209E-02	8.812214E-05
4.123326E+03	1.266071E-02	8.810279E-05
4.124591E+03	1.267701E-02	8.813674E-05
4.125855E+03	1.269799E-02	8.820312E-05
4.127119E+03	1.271642E-02	8.825155E-05
4.128384E+03	1.273400E-02	8.829388E-05
4.129648E+03	1.275968E-02	8.839219E-05
4.130912E+03	1.279262E-02	8.854043E-05
4.132177E+03	1.282513E-02	8.868538E-05
4.133441E+03	1.285509E-02	8.881231E-05
4.134705E+03	1.289102E-02	8.898016E-05
4.135979E+03	1.293294E-02	8.918825E-05
4.137244E+03	1.297314E-02	8.938473E-05
4.138508E+03	1.300823E-02	8.954553E-05
4.139772E+03	1.304461E-02	8.971477E-05
4.141037E+03	1.308525E-02	8.991297E-05
4.142301E+03	1.312889E-02	9.013126E-05
4.143565E+03	1.317466E-02	9.036371E-05
4.144830E+03	1.322258E-02	9.061032E-05
4.146094E+03	1.327135E-02	9.086228E-05
4.147358E+03	1.331714E-02	9.109326E-05
4.148623E+03	1.336038E-02	9.130626E-05
4.149897E+03	1.340319E-02	9.151529E-05
4.151161E+03	1.344772E-02	9.173613E-05
4.152426E+03	1.349096E-02	9.194777E-05
4.153690E+03	1.352781E-02	9.211534E-05
