#wls	flux	fluxerr
1.592848E+03	5.715027E-04	2.543109E-05
1.632669E+03	5.942368E-04	2.628357E-05
1.672491E+03	6.161553E-04	2.708422E-05
1.712312E+03	6.370027E-04	2.782206E-05
1.752133E+03	6.564477E-04	2.848315E-05
1.791954E+03	6.737368E-04	2.903580E-05
1.831775E+03	6.876116E-04	2.942762E-05
1.871597E+03	6.968696E-04	2.961025E-05
1.911418E+03	7.000873E-04	2.952763E-05
1.951239E+03	6.962554E-04	2.914307E-05
1.991060E+03	6.856265E-04	2.847382E-05
2.030881E+03	6.710388E-04	2.764365E-05
2.070703E+03	6.586067E-04	2.690656E-05
2.110524E+03	6.569197E-04	2.660847E-05
2.150345E+03	6.743077E-04	2.707255E-05
2.190166E+03	7.151660E-04	2.845281E-05
2.229987E+03	7.787741E-04	3.069426E-05
2.269809E+03	8.606038E-04	3.359329E-05
2.309630E+03	9.548476E-04	3.690275E-05
2.349451E+03	1.056533E-03	4.041574E-05
2.389272E+03	1.162341E-03	4.399537E-05
2.429093E+03	1.270548E-03	4.756948E-05
2.468915E+03	1.380805E-03	5.111955E-05
2.508736E+03	1.493397E-03	5.465063E-05
2.548557E+03	1.609203E-03	5.818873E-05
2.588378E+03	1.729206E-03	6.176179E-05
2.628199E+03	1.854624E-03	6.540418E-05
2.668021E+03	1.986677E-03	6.914781E-05
2.707842E+03	2.126702E-03	7.302608E-05
2.747663E+03	2.276173E-03	7.707419E-05
2.787484E+03	2.436663E-03	8.132733E-05
2.827305E+03	2.609957E-03	8.582416E-05
2.867127E+03	2.798258E-03	9.061275E-05
2.906948E+03	3.003961E-03	9.574223E-05
2.946769E+03	3.230275E-03	1.012815E-04
2.986590E+03	3.480708E-03	1.073014E-04
2.996546E+03	3.547673E-03	1.088943E-04
3.006501E+03	3.616439E-03	1.105227E-04
3.016456E+03	3.687072E-03	1.121876E-04
3.026411E+03	3.759883E-03	1.138977E-04
3.036367E+03	3.835122E-03	1.156595E-04
3.046322E+03	3.913147E-03	1.174827E-04
3.056277E+03	3.994070E-03	1.193694E-04
3.066233E+03	4.077837E-03	1.213166E-04
3.076188E+03	4.164488E-03	1.233243E-04
3.086143E+03	4.254242E-03	1.253976E-04
3.096099E+03	4.346980E-03	1.275317E-04
3.106054E+03	4.442848E-03	1.297294E-04
3.116009E+03	4.541822E-03	1.319885E-04
3.125964E+03	4.644246E-03	1.343178E-04
3.135920E+03	4.749924E-03	1.367098E-04
3.145875E+03	4.859030E-03	1.391680E-04
3.155830E+03	4.971741E-03	1.416960E-04
3.165786E+03	5.088150E-03	1.442947E-04
3.175741E+03	5.208159E-03	1.469596E-04
3.185696E+03	5.332153E-03	1.496998E-04
3.195652E+03	5.460029E-03	1.525106E-04
3.205607E+03	5.591982E-03	1.553956E-04
3.215562E+03	5.728005E-03	1.583527E-04
3.225517E+03	5.868281E-03	1.613849E-04
3.235473E+03	6.012891E-03	1.644925E-04
3.245428E+03	6.161905E-03	1.676754E-04
3.255383E+03	6.315268E-03	1.709299E-04
3.265339E+03	6.473123E-03	1.742578E-04
3.275294E+03	6.635481E-03	1.776572E-04
3.285249E+03	6.802211E-03	1.811226E-04
3.295205E+03	6.973369E-03	1.846532E-04
3.305160E+03	7.148740E-03	1.882413E-04
3.315115E+03	7.328283E-03	1.918837E-04
3.325070E+03	7.511664E-03	1.955697E-04
3.335026E+03	7.698591E-03	1.992898E-04
3.344981E+03	7.888680E-03	2.030323E-04
3.354936E+03	8.081443E-03	2.067832E-04
3.364892E+03	8.276274E-03	2.105256E-04
3.374847E+03	8.472308E-03	2.142366E-04
3.384802E+03	8.668764E-03	2.178958E-04
3.394758E+03	8.864297E-03	2.214691E-04
3.404713E+03	9.057867E-03	2.249311E-04
3.414668E+03	9.247756E-03	2.282401E-04
3.424623E+03	9.432339E-03	2.313577E-04
3.434579E+03	9.609805E-03	2.342420E-04
3.444534E+03	9.778058E-03	2.368455E-04
3.454489E+03	9.935237E-03	2.391274E-04
3.464445E+03	1.007909E-02	2.410389E-04
3.474400E+03	1.020730E-02	2.425311E-04
3.484355E+03	1.031788E-02	2.435642E-04
3.494311E+03	1.040872E-02	2.440967E-04
3.504266E+03	1.047802E-02	2.440961E-04
3.514221E+03	1.052383E-02	2.435273E-04
3.524176E+03	1.054488E-02	2.423718E-04
3.534132E+03	1.053983E-02	2.406110E-04
3.544087E+03	1.050803E-02	2.382424E-04
3.554042E+03	1.044890E-02	2.352656E-04
3.563998E+03	1.036242E-02	2.316929E-04
3.573953E+03	1.024973E-02	2.275630E-04
3.583908E+03	1.011223E-02	2.229190E-04
3.593864E+03	9.952679E-03	2.178333E-04
3.603819E+03	9.774720E-03	2.123958E-04
3.613774E+03	9.582197E-03	2.066983E-04
3.623729E+03	9.379188E-03	2.008351E-04
3.633685E+03	9.170395E-03	1.949114E-04
3.643640E+03	8.960178E-03	1.890222E-04
3.653595E+03	8.753067E-03	1.832631E-04
3.663551E+03	8.553564E-03	1.777263E-04
3.673506E+03	8.366239E-03	1.725027E-04
3.683461E+03	8.195243E-03	1.676715E-04
3.693417E+03	8.044842E-03	1.633117E-04
3.703372E+03	7.918857E-03	1.594905E-04
3.713327E+03	7.820915E-03	1.562688E-04
3.723282E+03	7.754238E-03	1.536972E-04
3.733238E+03	7.721988E-03	1.518229E-04
3.743193E+03	7.727108E-03	1.506870E-04
3.753148E+03	7.772254E-03	1.503229E-04
3.763104E+03	7.860081E-03	1.507625E-04
3.773059E+03	7.993269E-03	1.520362E-04
3.783014E+03	8.174151E-03	1.541663E-04
3.792970E+03	8.404651E-03	1.571660E-04
3.802925E+03	8.686856E-03	1.610502E-04
3.812880E+03	9.021770E-03	1.658126E-04
3.822835E+03	9.409493E-03	1.714297E-04
3.832791E+03	9.849418E-03	1.778655E-04
3.842746E+03	1.033911E-02	1.850512E-04
3.852701E+03	1.087429E-02	1.928876E-04
3.862657E+03	1.144875E-02	2.012436E-04
3.872612E+03	1.205338E-02	2.099422E-04
3.882567E+03	1.267676E-02	2.187722E-04
3.892523E+03	1.330515E-02	2.274903E-04
3.902478E+03	1.392285E-02	2.358285E-04
3.912433E+03	1.451284E-02	2.435068E-04
3.922388E+03	1.505779E-02	2.502512E-04
3.932344E+03	1.554165E-02	2.558198E-04
3.942299E+03	1.595011E-02	2.600091E-04
3.952254E+03	1.627157E-02	2.626684E-04
3.962210E+03	1.649916E-02	2.637299E-04
3.972165E+03	1.662981E-02	2.631903E-04
3.982120E+03	1.666505E-02	2.611200E-04
3.992076E+03	1.661076E-02	2.576560E-04
4.002031E+03	1.647630E-02	2.529845E-04
4.011986E+03	1.627406E-02	2.473319E-04
4.021941E+03	1.601769E-02	2.409357E-04
4.031897E+03	1.572204E-02	2.340422E-04
4.041852E+03	1.540165E-02	2.268841E-04
4.051807E+03	1.506975E-02	2.196658E-04
4.061763E+03	1.473838E-02	2.125663E-04
4.071718E+03	1.441804E-02	2.057349E-04
4.081673E+03	1.411639E-02	1.992748E-04
4.091629E+03	1.383948E-02	1.932618E-04
4.101584E+03	1.359189E-02	1.877477E-04
4.111539E+03	1.337537E-02	1.827432E-04
4.121494E+03	1.319067E-02	1.782444E-04
4.131450E+03	1.303734E-02	1.742311E-04
4.141405E+03	1.291341E-02	1.706634E-04
4.151360E+03	1.281616E-02	1.674931E-04
4.161316E+03	1.274239E-02	1.646670E-04
4.171271E+03	1.268817E-02	1.621253E-04
4.181226E+03	1.264934E-02	1.598072E-04
4.191182E+03	1.262181E-02	1.576555E-04
4.201137E+03	1.260161E-02	1.556170E-04
4.211092E+03	1.258491E-02	1.536422E-04
4.221047E+03	1.256822E-02	1.516882E-04
4.231003E+03	1.254853E-02	1.497197E-04
4.240958E+03	1.252309E-02	1.477060E-04
4.250913E+03	1.248944E-02	1.456214E-04
4.260869E+03	1.244615E-02	1.434536E-04
4.270824E+03	1.239238E-02	1.411970E-04
4.280779E+03	1.232785E-02	1.388533E-04
4.290735E+03	1.225286E-02	1.364304E-04
4.300690E+03	1.216823E-02	1.339418E-04
4.310645E+03	1.207538E-02	1.314070E-04
4.320601E+03	1.197488E-02	1.288352E-04
4.330556E+03	1.186811E-02	1.262437E-04
4.340511E+03	1.175567E-02	1.236407E-04
4.350466E+03	1.163537E-02	1.210046E-04
4.360422E+03	1.150668E-02	1.183321E-04
4.370377E+03	1.137259E-02	1.156560E-04
4.380332E+03	1.123847E-02	1.130311E-04
4.390288E+03	1.111634E-02	1.105767E-04
4.400243E+03	1.102062E-02	1.084296E-04
4.410198E+03	1.096222E-02	1.066872E-04
4.420154E+03	1.095069E-02	1.054293E-04
4.430109E+03	1.099372E-02	1.047142E-04
4.440064E+03	1.109542E-02	1.045643E-04
4.450019E+03	1.125793E-02	1.049826E-04
4.459975E+03	1.148116E-02	1.059511E-04
4.469930E+03	1.176169E-02	1.074224E-04
4.479885E+03	1.209378E-02	1.093302E-04
4.489841E+03	1.246960E-02	1.115920E-04
4.499796E+03	1.287840E-02	1.141032E-04
4.509751E+03	1.330750E-02	1.167464E-04
4.519707E+03	1.374294E-02	1.193978E-04
4.529662E+03	1.416940E-02	1.219268E-04
4.539617E+03	1.457133E-02	1.242061E-04
4.549572E+03	1.493379E-02	1.261182E-04
4.559528E+03	1.524273E-02	1.275576E-04
4.569483E+03	1.548576E-02	1.284361E-04
4.579438E+03	1.565328E-02	1.286915E-04
4.589394E+03	1.573744E-02	1.282776E-04
4.599349E+03	1.573377E-02	1.271769E-04
4.609304E+03	1.564110E-02	1.253983E-04
4.619260E+03	1.546135E-02	1.229743E-04
4.629215E+03	1.519902E-02	1.199563E-04
4.639170E+03	1.486327E-02	1.164297E-04
4.649125E+03	1.446535E-02	1.124931E-04
4.659081E+03	1.401913E-02	1.082617E-04
4.669036E+03	1.354011E-02	1.038593E-04
4.678991E+03	1.304367E-02	9.940518E-05
4.688947E+03	1.254524E-02	9.501548E-05
4.698902E+03	1.205771E-02	9.078400E-05
4.708857E+03	1.158869E-02	8.676233E-05
4.718813E+03	1.114343E-02	8.298238E-05
4.728768E+03	1.072246E-02	7.944093E-05
4.738723E+03	1.031748E-02	7.606994E-05
4.748678E+03	9.919454E-03	7.279771E-05
4.758634E+03	9.522232E-03	6.957512E-05
4.768589E+03	9.122311E-03	6.637333E-05
4.778544E+03	8.735800E-03	6.330626E-05
4.788500E+03	8.384377E-03	6.052643E-05
4.798455E+03	8.081251E-03	5.812347E-05
4.808410E+03	7.835010E-03	5.615298E-05
4.818366E+03	7.650640E-03	5.464447E-05
4.828321E+03	7.525787E-03	5.357520E-05
4.838276E+03	7.455506E-03	5.290467E-05
4.848231E+03	7.434097E-03	5.258783E-05
4.858187E+03	7.454315E-03	5.256947E-05
4.868142E+03	7.507960E-03	5.278846E-05
4.878097E+03	7.586578E-03	5.318273E-05
4.888053E+03	7.681118E-03	5.368676E-05
4.898008E+03	7.782872E-03	5.423821E-05
4.907963E+03	7.883990E-03	5.478145E-05
4.917919E+03	7.978290E-03	5.527303E-05
4.927874E+03	8.061703E-03	5.568459E-05
4.937829E+03	8.132033E-03	5.600106E-05
4.947784E+03	8.189358E-03	5.622318E-05
4.957740E+03	8.235539E-03	5.636392E-05
4.967695E+03	8.273908E-03	5.644620E-05
4.977650E+03	8.308401E-03	5.649678E-05
4.987606E+03	8.343800E-03	5.654786E-05
4.997561E+03	8.384493E-03	5.662860E-05
5.007516E+03	8.433986E-03	5.676181E-05
5.017472E+03	8.495258E-03	5.696647E-05
5.027427E+03	8.570382E-03	5.725519E-05
5.037382E+03	8.660069E-03	5.763130E-05
5.047337E+03	8.764232E-03	5.809275E-05
5.057293E+03	8.882318E-03	5.863441E-05
5.067248E+03	9.013071E-03	5.924656E-05
5.077203E+03	9.155078E-03	5.991856E-05
5.087159E+03	9.307070E-03	6.064091E-05
5.097114E+03	9.467735E-03	6.140396E-05
5.107069E+03	9.636403E-03	6.220237E-05
5.117025E+03	9.812239E-03	6.302986E-05
5.126980E+03	9.995371E-03	6.388643E-05
5.136935E+03	1.018590E-02	6.477196E-05
5.146890E+03	1.038418E-02	6.568793E-05
5.156846E+03	1.059068E-02	6.663658E-05
5.166801E+03	1.080562E-02	6.761852E-05
5.176756E+03	1.102887E-02	6.863235E-05
5.186712E+03	1.125958E-02	6.967223E-05
5.196667E+03	1.149650E-02	7.073005E-05
5.206622E+03	1.173693E-02	7.178912E-05
5.216578E+03	1.197768E-02	7.283033E-05
5.226533E+03	1.221460E-02	7.382930E-05
5.236488E+03	1.244294E-02	7.475879E-05
5.246443E+03	1.265757E-02	7.559015E-05
5.256399E+03	1.285356E-02	7.629671E-05
5.266354E+03	1.302590E-02	7.685229E-05
5.276309E+03	1.317087E-02	7.723898E-05
5.286265E+03	1.328515E-02	7.744189E-05
5.296220E+03	1.336632E-02	7.745178E-05
5.306175E+03	1.341299E-02	7.726573E-05
5.316131E+03	1.342456E-02	7.688551E-05
5.326086E+03	1.340071E-02	7.631433E-05
5.336041E+03	1.334260E-02	7.556377E-05
5.345996E+03	1.325104E-02	7.464321E-05
5.355952E+03	1.312764E-02	7.356594E-05
5.365907E+03	1.297489E-02	7.234984E-05
5.375862E+03	1.279553E-02	7.101364E-05
5.385818E+03	1.259246E-02	6.957625E-05
5.395773E+03	1.237029E-02	6.806527E-05
5.405728E+03	1.213419E-02	6.651083E-05
5.415684E+03	1.189012E-02	6.494651E-05
5.425639E+03	1.164771E-02	6.342501E-05
5.435594E+03	1.141748E-02	6.200323E-05
5.445549E+03	1.121176E-02	6.074672E-05
5.455505E+03	1.104571E-02	5.973412E-05
5.465460E+03	1.093089E-02	5.902400E-05
5.475415E+03	1.086899E-02	5.862191E-05
5.485371E+03	1.084726E-02	5.845620E-05
5.495326E+03	1.084673E-02	5.842237E-05
5.505281E+03	1.084740E-02	5.841087E-05
5.515237E+03	1.083402E-02	5.833789E-05
5.525192E+03	1.079509E-02	5.813982E-05
5.535147E+03	1.072310E-02	5.777429E-05
5.545102E+03	1.061408E-02	5.721790E-05
5.555058E+03	1.046771E-02	5.646673E-05
5.565013E+03	1.028651E-02	5.553216E-05
5.574968E+03	1.007622E-02	5.444311E-05
5.584924E+03	9.843857E-03	5.323537E-05
5.594879E+03	9.597551E-03	5.195122E-05
5.604834E+03	9.346707E-03	5.064006E-05
5.614790E+03	9.100401E-03	4.934991E-05
5.624745E+03	8.867070E-03	4.812564E-05
5.634700E+03	8.654484E-03	4.700881E-05
5.644655E+03	8.469575E-03	4.603665E-05
5.654611E+03	8.317943E-03	4.523935E-05
5.664566E+03	8.203646E-03	4.463874E-05
5.674521E+03	8.129764E-03	4.425138E-05
5.684477E+03	8.098367E-03	4.408821E-05
5.694432E+03	8.110093E-03	4.415225E-05
5.704387E+03	8.164403E-03	4.443994E-05
5.714343E+03	8.260311E-03	4.494505E-05
5.724298E+03	8.395300E-03	4.565282E-05
5.734253E+03	8.565763E-03	4.654232E-05
5.744209E+03	8.767370E-03	4.758856E-05
5.754164E+03	8.994705E-03	4.876049E-05
5.764119E+03	9.241080E-03	5.002016E-05
5.774074E+03	9.498922E-03	5.132492E-05
5.784030E+03	9.760079E-03	5.262918E-05
5.793985E+03	1.001542E-02	5.388246E-05
5.803940E+03	1.025612E-02	5.503635E-05
5.813896E+03	1.047399E-02	5.604666E-05
5.823851E+03	1.066188E-02	5.687535E-05
5.833806E+03	1.081429E-02	5.749388E-05
5.843762E+03	1.092753E-02	5.788419E-05
5.853717E+03	1.100042E-02	5.804206E-05
5.863672E+03	1.103325E-02	5.797156E-05
5.873627E+03	1.102818E-02	5.768689E-05
5.883583E+03	1.098873E-02	5.720953E-05
5.893538E+03	1.091927E-02	5.656529E-05
5.903493E+03	1.082458E-02	5.578211E-05
5.913449E+03	1.070927E-02	5.488662E-05
5.923404E+03	1.057805E-02	5.390570E-05
5.933359E+03	1.043508E-02	5.286313E-05
5.943315E+03	1.028399E-02	5.177959E-05
5.953270E+03	1.012770E-02	5.067174E-05
5.963225E+03	9.968707E-03	4.955395E-05
5.973180E+03	9.808413E-03	4.843487E-05
5.983136E+03	9.648419E-03	4.732395E-05
5.993091E+03	9.488770E-03	4.622285E-05
6.003046E+03	9.329371E-03	4.513255E-05
6.013002E+03	9.169749E-03	4.405223E-05
6.022957E+03	9.008420E-03	4.297630E-05
6.032912E+03	8.843837E-03	4.189904E-05
6.042868E+03	8.674494E-03	4.081509E-05
6.052823E+03	8.499781E-03	3.972341E-05
6.062778E+03	8.319390E-03	3.862437E-05
6.072733E+03	8.134894E-03	3.752693E-05
6.082689E+03	7.949413E-03	3.644684E-05
6.092644E+03	7.767478E-03	3.540582E-05
6.102599E+03	7.595026E-03	3.443135E-05
6.112555E+03	7.439515E-03	3.355717E-05
6.122510E+03	7.308646E-03	3.281746E-05
6.132465E+03	7.209563E-03	3.224347E-05
6.142421E+03	7.148066E-03	3.186027E-05
6.152376E+03	7.128375E-03	3.168609E-05
6.162331E+03	7.151739E-03	3.172606E-05
6.172286E+03	7.211341E-03	3.194927E-05
6.182242E+03	7.297055E-03	3.231078E-05
6.192197E+03	7.393001E-03	3.274080E-05
6.202152E+03	7.468647E-03	3.310480E-05
6.212108E+03	7.497809E-03	3.328687E-05
6.222063E+03	7.477069E-03	3.327087E-05
6.232018E+03	7.420181E-03	3.311625E-05
6.241974E+03	7.348406E-03	3.291604E-05
6.251929E+03	7.283171E-03	3.276499E-05
6.261884E+03	7.236941E-03	3.271894E-05
6.271839E+03	7.216483E-03	3.280927E-05
6.281795E+03	7.224857E-03	3.305144E-05
6.291750E+03	7.260666E-03	3.344124E-05
6.301705E+03	7.319765E-03	3.396200E-05
6.311661E+03	7.396784E-03	3.459117E-05
6.321616E+03	7.485000E-03	3.529933E-05
6.331571E+03	7.577206E-03	3.605392E-05
6.341527E+03	7.666797E-03	3.682414E-05
6.351482E+03	7.746969E-03	3.757699E-05
6.361437E+03	7.812227E-03	3.828437E-05
6.371392E+03	7.858850E-03	3.892480E-05
6.381348E+03	7.884557E-03	3.948263E-05
6.391303E+03	7.888878E-03	3.995059E-05
6.401258E+03	7.873604E-03	4.033267E-05
6.411214E+03	7.840880E-03	4.063488E-05
6.421169E+03	7.794169E-03	4.087060E-05
6.431124E+03	7.738008E-03	4.105967E-05
6.441080E+03	7.676675E-03	4.122168E-05
6.451035E+03	7.614750E-03	4.137899E-05
6.460990E+03	7.556281E-03	4.155231E-05
6.470945E+03	7.504699E-03	4.176006E-05
6.480901E+03	7.462738E-03	4.201772E-05
6.490856E+03	7.432643E-03	4.233883E-05
6.500811E+03	7.416038E-03	4.273399E-05
6.510767E+03	7.413752E-03	4.320971E-05
6.520722E+03	7.425920E-03	4.376862E-05
6.530677E+03	7.451806E-03	4.440826E-05
6.540633E+03	7.490414E-03	4.512440E-05
6.550588E+03	7.540170E-03	4.590901E-05
6.560543E+03	7.598848E-03	4.674966E-05
6.570498E+03	7.664074E-03	4.763239E-05
6.580454E+03	7.733184E-03	4.854082E-05
6.590409E+03	7.802949E-03	4.945429E-05
6.600364E+03	7.870376E-03	5.035292E-05
6.610320E+03	7.932387E-03	5.121552E-05
6.620275E+03	7.986272E-03	5.202267E-05
6.630230E+03	8.029181E-03	5.275346E-05
6.640186E+03	8.059062E-03	5.339172E-05
6.650141E+03	8.074337E-03	5.392414E-05
6.660096E+03	8.073961E-03	5.434077E-05
6.670051E+03	8.057428E-03	5.463529E-05
6.680007E+03	8.024753E-03	5.480503E-05
6.689962E+03	7.976745E-03	5.485292E-05
6.699917E+03	7.914495E-03	5.478422E-05
6.709873E+03	7.839561E-03	5.460782E-05
6.719828E+03	7.753483E-03	5.433294E-05
6.729783E+03	7.658664E-03	5.397527E-05
6.739739E+03	7.556851E-03	5.354639E-05
6.749694E+03	7.450483E-03	5.306322E-05
6.759649E+03	7.341508E-03	5.253957E-05
6.769604E+03	7.232028E-03	5.199073E-05
6.779560E+03	7.123996E-03	5.143119E-05
6.789515E+03	7.019233E-03	5.087479E-05
6.799470E+03	6.919582E-03	5.033570E-05
6.809426E+03	6.826556E-03	4.982585E-05
6.819381E+03	6.741789E-03	4.935815E-05
6.829336E+03	6.666182E-03	4.894021E-05
6.839292E+03	6.600959E-03	4.858199E-05
6.849247E+03	6.546811E-03	4.828952E-05
6.859202E+03	6.504275E-03	4.806758E-05
6.869157E+03	6.473574E-03	4.791856E-05
6.879113E+03	6.455060E-03	4.784569E-05
6.889068E+03	6.448092E-03	4.784468E-05
6.899023E+03	6.452528E-03	4.791480E-05
6.908979E+03	6.467389E-03	4.804899E-05
6.918934E+03	6.491633E-03	4.823956E-05
6.928889E+03	6.524167E-03	4.847835E-05
6.938845E+03	6.563494E-03	4.875409E-05
6.948800E+03	6.607996E-03	4.905455E-05
6.958755E+03	6.655943E-03	4.936667E-05
6.968710E+03	6.705529E-03	4.967682E-05
6.978666E+03	6.754835E-03	4.997060E-05
6.988621E+03	6.801823E-03	5.023280E-05
6.998576E+03	6.844940E-03	5.045197E-05
7.008532E+03	6.882003E-03	5.061213E-05
7.018487E+03	6.911827E-03	5.070490E-05
7.028442E+03	6.932667E-03	5.071793E-05
7.038398E+03	6.943631E-03	5.064538E-05
7.048353E+03	6.943742E-03	5.048100E-05
7.058308E+03	6.932566E-03	5.022268E-05
7.068263E+03	6.910233E-03	4.987257E-05
7.078219E+03	6.876857E-03	4.943282E-05
7.088174E+03	6.833421E-03	4.891191E-05
7.098129E+03	6.781205E-03	4.832042E-05
7.108085E+03	6.722043E-03	4.767283E-05
7.118040E+03	6.657773E-03	4.698344E-05
7.127995E+03	6.590291E-03	4.626676E-05
7.137951E+03	6.521701E-03	4.553853E-05
7.147906E+03	6.453479E-03	4.480983E-05
7.157861E+03	6.387316E-03	4.409300E-05
7.167817E+03	6.324246E-03	4.339558E-05
7.177772E+03	6.265004E-03	4.272288E-05
7.187727E+03	6.210105E-03	4.207860E-05
7.197682E+03	6.159687E-03	4.146379E-05
7.207638E+03	6.113585E-03	4.087741E-05
7.217593E+03	6.071511E-03	4.031765E-05
7.227548E+03	6.033032E-03	3.978177E-05
7.237504E+03	5.997655E-03	3.926671E-05
7.247459E+03	5.964967E-03	3.877004E-05
7.257414E+03	5.934266E-03	3.828755E-05
7.267370E+03	5.905325E-03	3.781818E-05
7.277325E+03	5.877676E-03	3.735944E-05
7.287280E+03	5.850891E-03	3.690916E-05
7.297235E+03	5.824794E-03	3.646685E-05
7.307191E+03	5.798857E-03	3.602990E-05
7.317146E+03	5.772876E-03	3.559777E-05
7.327101E+03	5.746679E-03	3.517021E-05
7.337057E+03	5.719834E-03	3.474538E-05
7.347012E+03	5.692210E-03	3.432337E-05
7.356967E+03	5.663267E-03	3.390185E-05
7.366923E+03	5.632971E-03	3.348155E-05
7.376878E+03	5.600856E-03	3.306068E-05
7.386833E+03	5.566896E-03	3.264005E-05
7.396788E+03	5.530749E-03	3.221863E-05
7.406744E+03	5.492288E-03	3.179662E-05
7.416699E+03	5.451621E-03	3.137557E-05
7.426654E+03	5.408643E-03	3.095572E-05
7.436610E+03	5.363817E-03	3.054049E-05
7.446565E+03	5.317157E-03	3.013057E-05
7.456520E+03	5.269292E-03	2.972939E-05
7.466476E+03	5.220586E-03	2.933838E-05
7.476431E+03	5.171942E-03	2.896197E-05
7.486386E+03	5.123999E-03	2.860301E-05
7.496341E+03	5.077558E-03	2.826525E-05
7.506297E+03	5.033488E-03	2.795277E-05
7.516252E+03	4.992461E-03	2.766856E-05
7.526207E+03	4.955260E-03	2.741623E-05
7.536163E+03	4.921981E-03	2.719562E-05
7.546118E+03	4.892571E-03	2.700583E-05
7.556073E+03	4.866714E-03	2.684456E-05
7.566029E+03	4.843700E-03	2.670740E-05
7.575984E+03	4.822800E-03	2.658990E-05
7.585939E+03	4.803177E-03	2.648705E-05
7.595894E+03	4.784742E-03	2.639803E-05
7.605850E+03	4.767081E-03	2.632022E-05
7.615805E+03	4.750237E-03	2.625359E-05
7.625760E+03	4.733852E-03	2.619591E-05
7.635716E+03	4.718040E-03	2.614760E-05
7.645671E+03	4.702539E-03	2.610703E-05
7.655626E+03	4.687611E-03	2.607548E-05
7.665582E+03	4.673322E-03	2.605323E-05
7.675537E+03	4.659914E-03	2.604153E-05
7.685492E+03	4.647672E-03	2.604195E-05
7.695447E+03	4.636948E-03	2.605649E-05
7.705403E+03	4.628059E-03	2.608701E-05
7.715358E+03	4.621140E-03	2.613438E-05
7.725313E+03	4.616581E-03	2.620101E-05
