#wls	flux	fluxerr
1.592848E+03	7.355690E-04	2.471218E-05
1.632669E+03	7.685807E-04	2.566174E-05
1.672491E+03	8.008986E-04	2.657106E-05
1.712312E+03	8.321046E-04	2.742632E-05
1.752133E+03	8.619140E-04	2.821845E-05
1.791954E+03	8.890807E-04	2.890739E-05
1.831775E+03	9.121223E-04	2.944663E-05
1.871597E+03	9.293716E-04	2.978520E-05
1.911418E+03	9.387298E-04	2.986012E-05
1.951239E+03	9.388314E-04	2.963376E-05
1.991060E+03	9.298815E-04	2.911926E-05
2.030881E+03	9.156631E-04	2.844098E-05
2.070703E+03	9.043815E-04	2.785582E-05
2.110524E+03	9.080454E-04	2.772832E-05
2.150345E+03	9.383856E-04	2.840152E-05
2.190166E+03	1.001879E-03	3.004754E-05
2.229987E+03	1.097801E-03	3.261642E-05
2.269809E+03	1.220016E-03	3.589872E-05
2.309630E+03	1.360426E-03	3.963387E-05
2.349451E+03	1.512465E-03	4.361431E-05
2.389272E+03	1.671630E-03	4.769850E-05
2.429093E+03	1.835541E-03	5.181005E-05
2.468915E+03	2.003632E-03	5.592593E-05
2.508736E+03	2.175868E-03	6.003825E-05
2.548557E+03	2.352930E-03	6.415848E-05
2.588378E+03	2.535561E-03	6.829876E-05
2.628199E+03	2.724658E-03	7.247410E-05
2.668021E+03	2.920781E-03	7.668917E-05
2.707842E+03	3.124366E-03	8.094445E-05
2.747663E+03	3.335593E-03	8.523296E-05
2.787484E+03	3.554352E-03	8.953988E-05
2.827305E+03	3.780325E-03	9.384508E-05
2.867127E+03	4.013180E-03	9.812829E-05
2.906948E+03	4.252540E-03	1.023684E-04
2.946769E+03	4.498169E-03	1.065480E-04
2.986590E+03	4.749806E-03	1.106492E-04
2.996546E+03	4.813736E-03	1.116628E-04
3.006501E+03	4.877898E-03	1.126673E-04
3.016456E+03	4.942468E-03	1.136665E-04
3.026411E+03	5.007391E-03	1.146590E-04
3.036367E+03	5.073073E-03	1.156538E-04
3.046322E+03	5.139933E-03	1.166603E-04
3.056277E+03	5.207609E-03	1.176698E-04
3.066233E+03	5.276291E-03	1.186862E-04
3.076188E+03	5.345624E-03	1.197011E-04
3.086143E+03	5.415692E-03	1.207163E-04
3.096099E+03	5.486251E-03	1.217259E-04
3.106054E+03	5.557174E-03	1.227270E-04
3.116009E+03	5.628543E-03	1.237211E-04
3.125964E+03	5.700012E-03	1.247005E-04
3.135920E+03	5.771779E-03	1.256693E-04
3.145875E+03	5.843388E-03	1.266175E-04
3.155830E+03	5.915033E-03	1.275493E-04
3.165786E+03	5.986366E-03	1.284571E-04
3.175741E+03	6.057471E-03	1.293427E-04
3.185696E+03	6.128111E-03	1.302011E-04
3.195652E+03	6.198256E-03	1.310317E-04
3.205607E+03	6.267771E-03	1.318318E-04
3.215562E+03	6.336524E-03	1.325987E-04
3.225517E+03	6.404266E-03	1.333274E-04
3.235473E+03	6.471077E-03	1.340198E-04
3.245428E+03	6.536710E-03	1.346711E-04
3.255383E+03	6.601136E-03	1.352810E-04
3.265339E+03	6.664114E-03	1.358449E-04
3.275294E+03	6.725507E-03	1.363604E-04
3.285249E+03	6.785293E-03	1.368276E-04
3.295205E+03	6.843239E-03	1.372422E-04
3.305160E+03	6.899331E-03	1.376046E-04
3.315115E+03	6.953458E-03	1.379130E-04
3.317106E+03	1.773331E-03	3.513236E-05
3.319097E+03	1.785522E-03	3.533418E-05
3.321088E+03	1.825055E-03	3.607588E-05
3.323079E+03	1.862397E-03	3.677256E-05
3.325070E+03	1.857098E-03	3.662655E-05
3.327061E+03	1.889107E-03	3.721573E-05
3.329053E+03	1.939242E-03	3.816014E-05
3.331044E+03	1.979306E-03	3.890431E-05
3.333035E+03	2.051824E-03	4.028385E-05
3.335026E+03	2.113698E-03	4.145138E-05
3.337017E+03	2.122785E-03	4.158212E-05
3.339008E+03	2.179226E-03	4.263893E-05
3.340999E+03	2.197693E-03	4.295104E-05
3.342990E+03	2.204667E-03	4.303792E-05
3.344981E+03	2.279487E-03	4.444737E-05
3.346972E+03	2.273918E-03	4.428775E-05
3.348963E+03	2.288649E-03	4.452328E-05
3.350954E+03	2.345309E-03	4.557283E-05
3.352945E+03	2.390663E-03	4.640037E-05
3.354936E+03	2.393791E-03	4.640723E-05
3.356927E+03	2.387239E-03	4.622647E-05
3.358918E+03	2.361617E-03	4.567713E-05
3.360910E+03	2.385214E-03	4.607976E-05
3.362901E+03	2.415913E-03	4.661834E-05
3.364892E+03	2.440437E-03	4.703649E-05
3.366883E+03	2.491689E-03	4.796803E-05
3.368874E+03	2.500641E-03	4.808386E-05
3.370865E+03	2.513854E-03	4.828108E-05
3.372856E+03	2.538904E-03	4.870474E-05
3.374847E+03	2.561858E-03	4.908707E-05
3.376838E+03	2.593237E-03	4.962957E-05
3.378829E+03	2.610768E-03	4.990588E-05
3.380820E+03	2.641837E-03	5.043986E-05
3.382811E+03	2.707469E-03	5.163149E-05
3.384802E+03	2.737752E-03	5.214680E-05
3.386793E+03	2.782510E-03	5.293609E-05
3.388784E+03	2.871380E-03	5.456149E-05
3.390775E+03	2.891481E-03	5.487765E-05
3.392766E+03	2.911287E-03	5.518726E-05
3.394758E+03	2.997439E-03	5.675209E-05
3.396749E+03	3.079871E-03	5.824260E-05
3.398740E+03	3.188017E-03	6.021500E-05
3.400731E+03	3.269916E-03	6.168726E-05
3.402722E+03	3.311670E-03	6.239933E-05
3.404713E+03	3.382166E-03	6.365032E-05
3.406704E+03	3.470700E-03	6.523711E-05
3.408695E+03	3.551541E-03	6.667537E-05
3.410686E+03	3.625262E-03	6.797638E-05
3.412677E+03	3.704720E-03	6.938139E-05
3.414668E+03	3.803716E-03	7.114817E-05
3.416659E+03	3.911463E-03	7.307386E-05
3.418650E+03	4.002728E-03	7.468699E-05
3.420641E+03	4.096699E-03	7.634630E-05
3.422632E+03	4.196395E-03	7.810781E-05
3.424623E+03	4.282166E-03	7.960581E-05
3.426615E+03	4.385751E-03	8.143054E-05
3.428606E+03	4.487880E-03	8.322346E-05
3.430597E+03	4.584678E-03	8.491288E-05
3.432588E+03	4.700600E-03	8.695152E-05
3.434579E+03	4.818552E-03	8.902225E-05
3.436570E+03	4.932868E-03	9.102039E-05
3.438561E+03	5.040722E-03	9.289409E-05
3.440552E+03	5.156455E-03	9.490777E-05
3.442543E+03	5.254595E-03	9.659261E-05
3.444534E+03	5.338357E-03	9.800886E-05
3.446525E+03	5.426702E-03	9.950521E-05
3.448516E+03	5.479654E-03	1.003493E-04
3.450507E+03	5.537575E-03	1.012816E-04
3.452498E+03	5.628635E-03	1.028166E-04
3.454489E+03	5.712490E-03	1.042158E-04
3.456480E+03	5.766069E-03	1.050594E-04
3.458471E+03	5.819429E-03	1.058965E-04
3.460463E+03	5.874266E-03	1.067578E-04
3.462454E+03	5.922297E-03	1.074930E-04
3.464445E+03	5.976227E-03	1.083328E-04
3.466436E+03	6.032669E-03	1.092154E-04
3.468427E+03	6.069792E-03	1.097461E-04
3.470418E+03	6.105291E-03	1.102456E-04
3.472409E+03	6.139731E-03	1.107243E-04
3.474400E+03	6.184305E-03	1.113838E-04
3.476391E+03	6.238533E-03	1.122148E-04
3.478382E+03	6.255792E-03	1.123791E-04
3.480373E+03	6.269933E-03	1.124866E-04
3.482364E+03	6.288005E-03	1.126637E-04
3.484355E+03	6.328041E-03	1.132329E-04
3.486346E+03	6.344760E-03	1.133835E-04
3.488337E+03	6.341275E-03	1.131726E-04
3.490328E+03	6.336373E-03	1.129366E-04
3.492319E+03	6.344888E-03	1.129395E-04
3.494311E+03	6.338657E-03	1.126798E-04
3.496302E+03	6.344240E-03	1.126300E-04
3.498293E+03	6.343623E-03	1.124700E-04
3.500284E+03	6.334370E-03	1.121570E-04
3.502275E+03	6.304296E-03	1.114762E-04
3.504266E+03	6.308631E-03	1.114044E-04
3.506257E+03	6.304333E-03	1.111800E-04
3.508248E+03	6.305652E-03	1.110546E-04
3.510239E+03	6.277266E-03	1.104067E-04
3.512230E+03	6.263589E-03	1.100184E-04
3.514221E+03	6.235865E-03	1.093842E-04
3.516212E+03	6.204588E-03	1.086890E-04
3.518203E+03	6.202425E-03	1.085046E-04
3.520194E+03	6.176021E-03	1.078966E-04
3.522185E+03	6.159350E-03	1.074597E-04
3.524176E+03	6.140999E-03	1.069941E-04
3.526168E+03	6.126479E-03	1.065961E-04
3.528159E+03	6.103549E-03	1.060525E-04
3.530150E+03	6.097631E-03	1.058050E-04
3.532141E+03	6.109556E-03	1.058670E-04
3.534132E+03	6.134079E-03	1.061464E-04
3.536123E+03	6.141961E-03	1.061369E-04
3.538114E+03	6.188114E-03	1.067874E-04
3.540105E+03	6.211089E-03	1.070362E-04
3.542096E+03	6.246457E-03	1.074971E-04
3.544087E+03	6.287028E-03	1.080457E-04
3.546078E+03	6.308263E-03	1.082604E-04
3.548069E+03	6.343656E-03	1.087167E-04
3.550060E+03	6.372780E-03	1.090639E-04
3.552051E+03	6.379324E-03	1.090237E-04
3.554042E+03	6.388375E-03	1.090259E-04
3.556033E+03	6.409341E-03	1.092307E-04
3.558024E+03	6.437837E-03	1.095625E-04
3.560016E+03	6.465566E-03	1.098799E-04
3.562007E+03	6.504725E-03	1.103898E-04
3.563998E+03	6.521336E-03	1.105157E-04
3.565989E+03	6.534860E-03	1.105884E-04
3.567980E+03	6.550605E-03	1.106979E-04
3.569971E+03	6.543922E-03	1.104282E-04
3.571962E+03	6.543559E-03	1.102652E-04
3.573953E+03	6.539567E-03	1.100410E-04
3.575944E+03	6.546349E-03	1.099980E-04
3.577935E+03	6.532127E-03	1.096021E-04
3.579926E+03	6.533045E-03	1.094605E-04
3.581917E+03	6.528480E-03	1.092271E-04
3.583908E+03	6.523910E-03	1.089937E-04
3.585899E+03	6.494649E-03	1.083486E-04
3.587890E+03	6.467534E-03	1.077405E-04
3.589881E+03	6.426418E-03	1.069007E-04
3.591872E+03	6.418708E-03	1.066178E-04
3.593864E+03	6.411181E-03	1.063381E-04
3.595855E+03	6.393363E-03	1.058883E-04
3.597846E+03	6.370456E-03	1.053552E-04
3.599837E+03	6.329209E-03	1.045202E-04
3.601828E+03	6.283629E-03	1.036156E-04
3.603819E+03	6.263254E-03	1.031282E-04
3.605810E+03	6.231592E-03	1.024561E-04
3.607801E+03	6.221874E-03	1.021458E-04
3.609792E+03	6.186067E-03	1.014082E-04
3.611783E+03	6.161191E-03	1.008511E-04
3.613774E+03	6.154446E-03	1.005915E-04
3.615765E+03	6.120986E-03	9.989623E-05
3.617756E+03	6.089387E-03	9.923280E-05
3.619747E+03	6.069351E-03	9.875896E-05
3.621738E+03	6.042671E-03	9.817808E-05
3.623729E+03	6.019973E-03	9.766304E-05
3.625721E+03	6.016115E-03	9.745421E-05
3.627712E+03	6.004505E-03	9.712011E-05
3.629703E+03	5.996217E-03	9.684015E-05
3.631694E+03	5.993651E-03	9.665280E-05
3.633685E+03	5.995786E-03	9.654120E-05
3.635676E+03	5.990724E-03	9.631371E-05
3.637667E+03	5.992484E-03	9.619590E-05
3.639658E+03	5.990368E-03	9.601583E-05
3.641649E+03	5.982814E-03	9.574875E-05
3.643640E+03	5.974342E-03	9.546730E-05
3.645631E+03	5.960438E-03	9.509952E-05
3.647622E+03	5.944423E-03	9.469874E-05
3.649613E+03	5.951509E-03	9.466611E-05
3.651604E+03	5.943961E-03	9.440065E-05
3.653595E+03	5.935127E-03	9.411511E-05
3.655586E+03	5.914985E-03	9.365089E-05
3.657577E+03	5.902023E-03	9.330108E-05
3.659569E+03	5.900183E-03	9.312740E-05
3.661560E+03	5.890716E-03	9.283354E-05
3.663551E+03	5.878863E-03	9.250254E-05
3.665542E+03	5.863526E-03	9.211731E-05
3.667533E+03	5.842505E-03	9.164361E-05
3.669524E+03	5.828560E-03	9.128170E-05
3.671515E+03	5.812232E-03	9.088315E-05
3.673506E+03	5.794354E-03	9.046112E-05
3.675497E+03	5.759339E-03	8.977280E-05
3.677488E+03	5.722691E-03	8.906073E-05
3.679479E+03	5.684137E-03	8.832077E-05
3.681470E+03	5.640748E-03	8.750764E-05
3.683461E+03	5.589139E-03	8.656928E-05
3.685452E+03	5.539849E-03	8.566924E-05
3.687443E+03	5.480972E-03	8.462357E-05
3.689434E+03	5.418926E-03	8.353188E-05
3.691425E+03	5.345843E-03	8.227335E-05
3.693417E+03	5.267314E-03	8.093468E-05
3.695408E+03	5.209856E-03	7.992306E-05
3.697399E+03	5.135795E-03	7.865996E-05
3.699390E+03	5.048251E-03	7.719429E-05
3.701381E+03	4.967151E-03	7.583125E-05
3.703372E+03	4.886917E-03	7.448540E-05
3.705363E+03	4.771127E-03	7.260238E-05
3.707354E+03	4.671280E-03	7.096728E-05
3.709345E+03	4.550690E-03	6.902245E-05
3.711336E+03	4.442297E-03	6.726825E-05
3.713327E+03	4.323661E-03	6.536452E-05
3.715318E+03	4.211202E-03	6.355986E-05
3.717309E+03	4.094704E-03	6.169989E-05
3.719300E+03	3.954587E-03	5.949034E-05
3.721291E+03	3.837774E-03	5.763771E-05
3.723282E+03	3.709920E-03	5.562529E-05
3.725274E+03	3.591515E-03	5.376065E-05
3.727265E+03	3.477452E-03	5.196674E-05
3.729256E+03	3.375009E-03	5.035183E-05
3.731247E+03	3.283721E-03	4.890813E-05
3.733238E+03	3.185301E-03	4.736289E-05
3.735229E+03	3.074034E-03	4.563182E-05
3.737220E+03	2.974095E-03	4.407414E-05
3.739211E+03	2.871762E-03	4.248600E-05
3.741202E+03	2.772940E-03	4.095479E-05
3.743193E+03	2.675082E-03	3.944270E-05
3.745184E+03	2.591619E-03	3.814735E-05
3.747175E+03	2.517097E-03	3.698753E-05
3.749166E+03	2.451235E-03	3.595845E-05
3.751157E+03	2.404452E-03	3.521204E-05
3.753148E+03	2.361504E-03	3.452401E-05
3.755139E+03	2.307704E-03	3.367973E-05
3.757130E+03	2.265714E-03	3.301019E-05
3.759122E+03	2.220398E-03	3.229434E-05
3.761113E+03	2.190138E-03	3.179935E-05
3.763104E+03	2.162699E-03	3.134675E-05
3.765095E+03	2.151838E-03	3.113536E-05
3.767086E+03	2.148852E-03	3.103825E-05
3.769077E+03	2.126513E-03	3.066221E-05
3.771068E+03	2.129955E-03	3.065838E-05
3.773059E+03	2.136376E-03	3.069714E-05
3.775050E+03	2.146588E-03	3.078994E-05
3.777041E+03	2.149568E-03	3.077867E-05
3.779032E+03	2.177107E-03	3.111824E-05
3.781023E+03	2.200477E-03	3.139693E-05
3.783014E+03	2.219681E-03	3.161508E-05
3.785005E+03	2.239957E-03	3.184748E-05
3.786996E+03	2.275551E-03	3.229626E-05
3.788987E+03	2.308602E-03	3.270717E-05
3.790979E+03	2.353711E-03	3.328695E-05
3.792970E+03	2.391403E-03	3.375971E-05
3.794961E+03	2.437450E-03	3.434829E-05
3.796952E+03	2.494548E-03	3.508997E-05
3.798943E+03	2.549720E-03	3.580172E-05
3.800934E+03	2.614942E-03	3.665150E-05
3.802925E+03	2.694251E-03	3.769506E-05
3.804916E+03	2.774860E-03	3.875275E-05
3.806907E+03	2.866034E-03	3.995362E-05
3.808898E+03	2.935217E-03	4.084384E-05
3.810889E+03	3.022783E-03	4.198587E-05
3.812880E+03	3.114069E-03	4.317503E-05
3.814871E+03	3.182936E-03	4.404927E-05
3.816862E+03	3.262355E-03	4.506578E-05
3.818853E+03	3.358696E-03	4.631154E-05
3.820844E+03	3.458657E-03	4.760223E-05
3.822835E+03	3.559903E-03	4.890547E-05
3.824827E+03	3.667008E-03	5.028389E-05
3.826818E+03	3.766697E-03	5.155534E-05
3.828809E+03	3.883714E-03	5.305844E-05
3.830800E+03	3.998243E-03	5.452163E-05
3.832791E+03	4.124617E-03	5.614020E-05
3.834782E+03	4.232554E-03	5.750184E-05
3.836773E+03	4.348844E-03	5.897123E-05
3.838764E+03	4.496657E-03	6.086134E-05
3.840755E+03	4.648051E-03	6.279225E-05
3.842746E+03	4.815812E-03	6.493613E-05
3.844737E+03	4.990626E-03	6.716637E-05
3.846728E+03	5.185091E-03	6.965163E-05
3.848719E+03	5.376757E-03	7.208943E-05
3.850710E+03	5.560717E-03	7.441430E-05
3.852701E+03	5.762248E-03	7.696445E-05
3.854692E+03	5.994106E-03	7.990858E-05
3.856683E+03	6.217792E-03	8.273211E-05
3.858675E+03	6.446428E-03	8.560992E-05
3.860666E+03	6.688397E-03	8.865276E-05
3.862657E+03	6.944313E-03	9.186770E-05
3.864648E+03	7.189197E-03	9.492386E-05
3.866639E+03	7.455323E-03	9.824741E-05
3.868630E+03	7.729845E-03	1.016677E-04
3.870621E+03	7.993779E-03	1.049350E-04
3.872612E+03	8.271178E-03	1.083651E-04
3.874603E+03	8.567016E-03	1.120221E-04
3.876594E+03	8.859561E-03	1.156210E-04
3.878585E+03	9.152196E-03	1.192060E-04
3.880576E+03	9.466090E-03	1.230522E-04
3.882567E+03	9.797577E-03	1.271107E-04
3.884558E+03	1.014042E-02	1.312991E-04
3.886549E+03	1.045462E-02	1.350998E-04
3.888540E+03	1.077218E-02	1.389276E-04
3.890532E+03	1.110110E-02	1.428853E-04
3.892523E+03	1.143248E-02	1.468577E-04
3.894514E+03	1.176544E-02	1.508332E-04
3.896505E+03	1.209642E-02	1.547663E-04
3.898496E+03	1.242365E-02	1.586345E-04
3.900487E+03	1.274714E-02	1.624381E-04
3.902478E+03	1.306068E-02	1.660986E-04
3.904469E+03	1.336960E-02	1.696841E-04
3.906460E+03	1.368807E-02	1.733748E-04
3.908451E+03	1.398864E-02	1.768227E-04
3.910442E+03	1.428726E-02	1.802305E-04
3.912433E+03	1.459100E-02	1.836874E-04
3.914424E+03	1.487509E-02	1.868816E-04
3.916415E+03	1.515194E-02	1.899703E-04
3.918406E+03	1.542242E-02	1.929651E-04
3.920397E+03	1.567771E-02	1.957562E-04
3.922388E+03	1.592842E-02	1.984770E-04
3.924380E+03	1.618075E-02	2.012050E-04
3.926371E+03	1.642585E-02	2.038302E-04
3.928362E+03	1.665756E-02	2.062768E-04
3.930353E+03	1.687236E-02	2.085024E-04
3.932344E+03	1.706672E-02	2.104649E-04
3.934335E+03	1.724421E-02	2.122095E-04
3.936326E+03	1.741982E-02	2.139219E-04
3.938317E+03	1.759091E-02	2.155698E-04
3.940308E+03	1.775925E-02	2.171751E-04
3.942299E+03	1.792660E-02	2.187596E-04
3.944290E+03	1.808240E-02	2.201947E-04
3.946281E+03	1.822137E-02	2.214171E-04
3.948272E+03	1.834793E-02	2.224818E-04
3.950263E+03	1.846913E-02	2.234750E-04
3.952254E+03	1.856738E-02	2.241847E-04
3.954245E+03	1.864269E-02	2.246130E-04
3.956236E+03	1.873114E-02	2.251952E-04
3.958228E+03	1.880020E-02	2.255402E-04
3.960219E+03	1.887449E-02	2.259440E-04
3.962210E+03	1.894257E-02	2.262699E-04
3.964201E+03	1.899569E-02	2.264136E-04
3.966192E+03	1.902857E-02	2.263140E-04
3.968183E+03	1.905791E-02	2.261706E-04
3.970174E+03	1.906970E-02	2.258176E-04
3.972165E+03	1.908497E-02	2.255052E-04
3.974156E+03	1.908708E-02	2.250367E-04
3.976147E+03	1.906989E-02	2.243409E-04
3.978138E+03	1.906411E-02	2.237799E-04
3.980129E+03	1.902153E-02	2.227881E-04
3.982120E+03	1.897459E-02	2.217475E-04
3.984111E+03	1.892767E-02	2.207096E-04
3.986102E+03	1.886591E-02	2.195012E-04
3.988093E+03	1.880504E-02	2.183064E-04
3.990085E+03	1.874509E-02	2.171252E-04
3.992076E+03	1.866855E-02	2.157554E-04
3.994067E+03	1.859293E-02	2.144000E-04
3.996058E+03	1.851910E-02	2.130691E-04
3.998049E+03	1.842608E-02	2.115218E-04
4.000040E+03	1.832876E-02	2.099298E-04
4.002031E+03	1.820529E-02	2.080441E-04
4.004022E+03	1.809062E-02	2.062650E-04
4.006013E+03	1.796205E-02	2.043338E-04
4.008004E+03	1.783182E-02	2.023902E-04
4.009995E+03	1.769381E-02	2.003652E-04
4.011986E+03	1.754105E-02	1.981808E-04
4.013977E+03	1.737968E-02	1.959071E-04
4.015968E+03	1.722798E-02	1.937505E-04
4.017959E+03	1.707550E-02	1.915930E-04
4.019950E+03	1.689611E-02	1.891421E-04
4.021941E+03	1.671160E-02	1.866433E-04
4.023933E+03	1.652546E-02	1.841359E-04
4.025924E+03	1.632900E-02	1.815233E-04
4.027915E+03	1.613525E-02	1.789510E-04
4.029906E+03	1.593380E-02	1.763035E-04
4.031897E+03	1.573334E-02	1.736772E-04
4.033888E+03	1.553212E-02	1.710532E-04
4.035879E+03	1.534666E-02	1.686126E-04
4.037870E+03	1.517260E-02	1.663065E-04
4.039861E+03	1.497347E-02	1.637353E-04
4.041852E+03	1.477966E-02	1.612325E-04
4.043843E+03	1.458597E-02	1.587410E-04
4.045834E+03	1.438632E-02	1.561949E-04
4.047825E+03	1.417552E-02	1.535383E-04
4.049816E+03	1.396918E-02	1.509409E-04
4.051807E+03	1.378116E-02	1.485516E-04
4.053798E+03	1.358892E-02	1.461267E-04
4.055790E+03	1.338208E-02	1.435551E-04
4.057781E+03	1.317102E-02	1.409492E-04
4.059772E+03	1.298000E-02	1.385681E-04
4.061763E+03	1.278304E-02	1.361336E-04
4.063754E+03	1.258101E-02	1.336555E-04
4.065745E+03	1.239639E-02	1.313724E-04
4.067736E+03	1.220411E-02	1.290178E-04
4.069727E+03	1.201194E-02	1.266745E-04
4.071718E+03	1.185012E-02	1.246604E-04
4.073709E+03	1.168407E-02	1.226104E-04
4.075700E+03	1.150777E-02	1.204616E-04
4.077691E+03	1.136178E-02	1.186385E-04
4.079682E+03	1.122364E-02	1.169048E-04
4.081673E+03	1.108300E-02	1.151522E-04
4.083664E+03	1.094503E-02	1.134346E-04
4.085655E+03	1.080283E-02	1.116805E-04
4.087646E+03	1.069001E-02	1.102367E-04
4.089638E+03	1.059449E-02	1.089768E-04
4.091629E+03	1.049903E-02	1.077224E-04
4.093620E+03	1.040620E-02	1.064999E-04
4.095611E+03	1.031515E-02	1.053004E-04
4.097602E+03	1.023620E-02	1.042289E-04
4.099593E+03	1.016761E-02	1.032667E-04
4.101584E+03	1.009992E-02	1.023173E-04
4.103575E+03	1.004001E-02	1.014499E-04
4.105566E+03	9.993019E-03	1.007159E-04
4.107557E+03	9.948632E-03	1.000105E-04
4.109548E+03	9.905987E-03	9.932491E-05
4.111539E+03	9.858214E-03	9.859027E-05
4.113530E+03	9.815615E-03	9.790975E-05
4.115521E+03	9.774758E-03	9.724880E-05
4.117512E+03	9.736492E-03	9.661570E-05
4.119503E+03	9.698250E-03	9.598486E-05
4.121494E+03	9.676310E-03	9.551695E-05
4.123486E+03	9.650098E-03	9.500813E-05
4.125477E+03	9.619614E-03	9.445878E-05
4.127468E+03	9.605417E-03	9.407054E-05
4.129459E+03	9.575816E-03	9.353260E-05
4.131450E+03	9.547084E-03	9.300471E-05
4.133441E+03	9.535478E-03	9.264473E-05
4.135432E+03	9.523873E-03	9.228539E-05
4.137423E+03	9.513983E-03	9.194328E-05
4.139414E+03	9.520330E-03	9.175821E-05
4.141405E+03	9.521545E-03	9.152353E-05
4.143396E+03	9.525317E-03	9.131334E-05
4.145387E+03	9.537620E-03	9.118456E-05
4.147378E+03	9.549910E-03	9.105506E-05
4.149369E+03	9.571574E-03	9.101412E-05
4.151360E+03	9.583837E-03	9.088295E-05
4.153351E+03	9.610584E-03	9.088818E-05
4.155343E+03	9.639014E-03	9.090795E-05
4.157334E+03	9.669125E-03	9.094213E-05
4.159325E+03	9.706878E-03	9.104647E-05
4.161316E+03	9.742047E-03	9.112475E-05
4.163307E+03	9.783149E-03	9.125662E-05
4.165298E+03	9.817411E-03	9.132280E-05
4.167289E+03	9.861004E-03	9.147383E-05
4.169280E+03	9.880750E-03	9.140209E-05
4.171271E+03	9.923435E-03	9.154099E-05
4.173262E+03	9.955039E-03	9.157582E-05
4.175253E+03	9.979817E-03	9.154649E-05
4.177244E+03	1.002751E-02	9.172554E-05
4.179235E+03	1.005733E-02	9.173925E-05
4.181226E+03	1.009223E-02	9.179757E-05
4.183217E+03	1.012285E-02	9.181546E-05
4.185208E+03	1.015090E-02	9.180858E-05
4.187199E+03	1.019080E-02	9.190720E-05
4.189191E+03	1.021965E-02	9.190449E-05
4.191182E+03	1.024254E-02	9.184695E-05
4.193173E+03	1.027219E-02	9.184872E-05
4.195164E+03	1.028657E-02	9.171295E-05
4.197155E+03	1.030009E-02	9.156886E-05
