#wls	flux	fluxerr
1.592848E+03	5.263922E-04	1.484019E-05
1.632669E+03	5.499337E-04	1.541746E-05
1.672491E+03	5.728860E-04	1.596877E-05
1.712312E+03	5.950139E-04	1.648757E-05
1.752133E+03	6.160136E-04	1.696561E-05
1.791954E+03	6.350625E-04	1.738066E-05
1.831775E+03	6.511193E-04	1.770514E-05
1.871597E+03	6.629043E-04	1.790584E-05
1.911418E+03	6.690002E-04	1.794686E-05
1.951239E+03	6.684132E-04	1.780476E-05
1.991060E+03	6.613769E-04	1.748946E-05
2.030881E+03	6.505623E-04	1.707487E-05
2.070703E+03	6.419010E-04	1.671780E-05
2.110524E+03	6.439798E-04	1.663888E-05
2.150345E+03	6.651036E-04	1.704422E-05
2.190166E+03	7.100574E-04	1.804299E-05
2.229987E+03	7.784294E-04	1.960873E-05
2.269809E+03	8.658493E-04	2.161582E-05
2.309630E+03	9.669448E-04	2.391721E-05
2.349451E+03	1.077139E-03	2.638981E-05
2.389272E+03	1.193249E-03	2.894828E-05
2.429093E+03	1.313454E-03	3.154287E-05
2.468915E+03	1.436950E-03	3.414960E-05
2.508736E+03	1.563658E-03	3.676218E-05
2.548557E+03	1.693690E-03	3.937871E-05
2.588378E+03	1.827403E-03	4.200276E-05
2.628199E+03	1.964981E-03	4.463341E-05
2.668021E+03	2.106327E-03	4.726306E-05
2.707842E+03	2.251315E-03	4.988353E-05
2.747663E+03	2.399367E-03	5.247669E-05
2.787484E+03	2.549567E-03	5.501771E-05
2.827305E+03	2.700565E-03	5.747350E-05
2.867127E+03	2.850722E-03	5.980647E-05
2.906948E+03	2.998582E-03	6.198481E-05
2.946769E+03	3.143254E-03	6.399010E-05
2.986590E+03	3.283796E-03	6.580407E-05
2.996546E+03	3.318115E-03	6.622446E-05
3.006501E+03	3.352192E-03	6.663336E-05
3.016456E+03	3.385816E-03	6.702664E-05
3.026411E+03	3.419077E-03	6.740617E-05
3.036367E+03	3.452306E-03	6.777845E-05
3.046322E+03	3.485530E-03	6.814401E-05
3.056277E+03	3.518776E-03	6.850337E-05
3.066233E+03	3.551921E-03	6.885408E-05
3.076188E+03	3.584843E-03	6.919378E-05
3.086143E+03	3.617424E-03	6.952023E-05
3.096099E+03	3.649700E-03	6.983417E-05
3.106054E+03	3.681482E-03	7.013206E-05
3.116009E+03	3.712737E-03	7.041335E-05
3.125964E+03	3.743355E-03	7.067609E-05
3.135920E+03	3.773231E-03	7.091844E-05
3.145875E+03	3.802341E-03	7.114007E-05
3.155830E+03	3.830654E-03	7.134063E-05
3.165786E+03	3.857935E-03	7.151591E-05
3.175741E+03	3.884303E-03	7.166837E-05
3.185696E+03	3.909599E-03	7.179529E-05
3.195652E+03	3.933812E-03	7.189673E-05
3.205607E+03	3.956858E-03	7.197144E-05
3.215562E+03	3.978597E-03	7.201714E-05
3.225517E+03	3.999162E-03	7.203660E-05
3.235473E+03	4.018291E-03	7.202537E-05
3.245428E+03	4.036124E-03	7.198636E-05
3.255383E+03	4.052612E-03	7.191901E-05
3.265339E+03	4.067584E-03	7.182065E-05
3.275294E+03	4.081199E-03	7.169447E-05
3.285249E+03	4.093303E-03	7.153816E-05
3.295205E+03	4.103943E-03	7.135292E-05
3.305160E+03	4.113111E-03	7.113900E-05
3.315115E+03	4.120866E-03	7.089783E-05
3.325070E+03	4.127154E-03	7.062886E-05
3.335026E+03	4.131985E-03	7.033266E-05
3.344981E+03	4.135377E-03	7.000995E-05
3.354936E+03	4.137399E-03	6.966230E-05
3.364892E+03	4.138009E-03	6.928938E-05
3.374847E+03	4.137218E-03	6.889178E-05
3.384802E+03	4.135033E-03	6.847000E-05
3.394758E+03	4.131402E-03	6.802361E-05
3.404713E+03	4.126324E-03	6.755299E-05
3.414668E+03	4.119791E-03	6.705845E-05
3.424623E+03	4.111744E-03	6.653944E-05
3.434579E+03	4.102179E-03	6.599636E-05
3.444534E+03	4.091049E-03	6.542891E-05
3.454489E+03	4.078324E-03	6.483705E-05
3.464445E+03	4.063991E-03	6.422108E-05
3.474400E+03	4.048019E-03	6.358100E-05
3.484355E+03	4.030503E-03	6.291877E-05
3.494311E+03	4.011477E-03	6.223540E-05
3.504266E+03	3.990981E-03	6.153196E-05
3.514221E+03	3.969050E-03	6.080945E-05
3.524176E+03	3.945904E-03	6.007168E-05
3.534132E+03	3.921676E-03	5.932103E-05
3.544087E+03	3.896477E-03	5.855952E-05
3.554042E+03	3.870593E-03	5.779173E-05
3.563998E+03	3.844313E-03	5.702220E-05
3.573953E+03	3.817937E-03	5.625548E-05
3.583908E+03	3.791770E-03	5.549611E-05
3.593864E+03	3.766293E-03	5.475107E-05
3.603819E+03	3.741946E-03	5.402650E-05
3.613774E+03	3.719202E-03	5.332891E-05
3.623729E+03	3.698742E-03	5.266755E-05
3.633685E+03	3.681171E-03	5.205031E-05
3.643640E+03	3.667158E-03	5.148576E-05
3.653595E+03	3.657432E-03	5.098300E-05
3.663551E+03	3.652747E-03	5.055121E-05
3.673506E+03	3.653846E-03	5.019912E-05
3.683461E+03	3.661595E-03	4.993679E-05
3.693417E+03	3.676755E-03	4.977252E-05
3.703372E+03	3.700199E-03	4.971583E-05
3.713327E+03	3.732853E-03	4.977656E-05
3.723282E+03	3.775498E-03	4.996226E-05
3.733238E+03	3.829145E-03	5.028313E-05
3.743193E+03	3.894583E-03	5.074612E-05
3.753148E+03	3.972782E-03	5.136017E-05
3.763104E+03	4.064599E-03	5.213234E-05
3.773059E+03	4.170843E-03	5.306875E-05
3.783014E+03	4.292298E-03	5.417486E-05
3.792970E+03	4.429615E-03	5.545414E-05
3.802925E+03	4.583346E-03	5.690854E-05
3.812880E+03	4.753858E-03	5.853748E-05
3.822835E+03	4.941226E-03	6.033675E-05
3.832791E+03	5.145224E-03	6.229834E-05
3.842746E+03	5.365185E-03	6.440911E-05
3.852701E+03	5.599886E-03	6.664958E-05
3.862657E+03	5.847543E-03	6.899413E-05
3.872612E+03	6.105685E-03	7.140983E-05
3.882567E+03	6.371078E-03	7.385599E-05
3.892523E+03	6.639797E-03	7.628527E-05
3.902478E+03	6.907158E-03	7.864334E-05
3.912433E+03	7.168006E-03	8.087251E-05
3.922388E+03	7.416709E-03	8.291190E-05
3.932344E+03	7.647568E-03	8.470221E-05
3.942299E+03	7.854927E-03	8.618702E-05
3.952254E+03	8.033854E-03	8.732010E-05
3.962210E+03	8.179973E-03	8.806326E-05
3.972165E+03	8.290088E-03	8.839269E-05
3.982120E+03	8.362227E-03	8.829886E-05
3.992076E+03	8.395967E-03	8.778921E-05
4.002031E+03	8.392131E-03	8.688427E-05
4.011986E+03	8.353104E-03	8.562021E-05
4.021941E+03	8.282315E-03	8.404279E-05
4.031897E+03	8.184332E-03	8.220780E-05
4.041852E+03	8.064188E-03	8.017375E-05
4.051807E+03	7.927398E-03	7.800177E-05
4.061763E+03	7.779519E-03	7.575117E-05
4.071718E+03	7.625873E-03	7.347667E-05
4.081673E+03	7.471222E-03	7.122548E-05
4.091629E+03	7.319875E-03	6.903857E-05
4.101584E+03	7.175414E-03	6.694838E-05
4.111539E+03	7.040773E-03	6.497994E-05
4.121494E+03	6.918242E-03	6.315117E-05
4.131450E+03	6.809478E-03	6.147342E-05
4.141405E+03	6.715832E-03	5.995464E-05
4.151360E+03	6.638125E-03	5.859756E-05
4.161316E+03	6.576955E-03	5.740270E-05
4.171271E+03	6.532648E-03	5.636799E-05
4.181226E+03	6.505193E-03	5.548844E-05
4.191182E+03	6.494459E-03	5.475805E-05
4.201137E+03	6.500007E-03	5.416839E-05
4.211092E+03	6.521282E-03	5.371026E-05
4.221047E+03	6.557267E-03	5.337099E-05
4.231003E+03	6.606824E-03	5.313738E-05
4.240958E+03	6.668354E-03	5.299306E-05
4.250913E+03	6.740074E-03	5.292087E-05
4.260869E+03	6.819610E-03	5.289980E-05
4.270824E+03	6.904395E-03	5.290832E-05
4.280779E+03	6.991593E-03	5.292386E-05
4.290735E+03	7.077961E-03	5.292188E-05
4.300690E+03	7.160285E-03	5.287928E-05
4.310645E+03	7.234932E-03	5.277113E-05
4.320601E+03	7.298467E-03	5.257517E-05
4.330556E+03	7.347233E-03	5.226881E-05
4.340511E+03	7.378208E-03	5.183518E-05
4.350466E+03	7.389158E-03	5.126384E-05
4.360422E+03	7.378687E-03	5.055081E-05
4.370377E+03	7.347451E-03	4.970636E-05
4.380332E+03	7.300036E-03	4.876666E-05
4.390288E+03	7.244491E-03	4.778905E-05
4.400243E+03	7.190122E-03	4.683628E-05
4.410198E+03	7.145750E-03	4.596477E-05
4.420154E+03	7.119617E-03	4.522434E-05
4.430109E+03	7.119024E-03	4.465638E-05
4.440064E+03	7.150370E-03	4.429452E-05
4.450019E+03	7.218929E-03	4.416374E-05
4.459975E+03	7.328952E-03	4.428148E-05
4.469930E+03	7.483146E-03	4.465492E-05
4.479885E+03	7.683085E-03	4.528415E-05
4.489841E+03	7.929480E-03	4.616405E-05
4.499796E+03	8.221780E-03	4.728244E-05
4.509751E+03	8.558446E-03	4.862202E-05
4.519707E+03	8.936537E-03	5.015845E-05
4.529662E+03	9.351249E-03	5.185819E-05
4.539617E+03	9.795954E-03	5.367936E-05
4.549572E+03	1.026164E-02	5.556920E-05
4.559528E+03	1.073711E-02	5.746584E-05
4.569483E+03	1.120904E-02	5.929907E-05
4.579438E+03	1.166276E-02	6.099518E-05
4.589394E+03	1.208315E-02	6.248142E-05
4.599349E+03	1.245568E-02	6.369155E-05
4.609304E+03	1.276655E-02	6.456605E-05
4.619260E+03	1.300435E-02	6.505996E-05
4.629215E+03	1.316031E-02	6.514327E-05
4.639170E+03	1.322883E-02	6.480274E-05
4.649125E+03	1.320844E-02	6.404536E-05
4.659081E+03	1.310092E-02	6.289338E-05
4.669036E+03	1.291193E-02	6.138615E-05
4.678991E+03	1.265039E-02	5.957646E-05
4.688947E+03	1.232735E-02	5.752470E-05
4.698902E+03	1.195581E-02	5.529770E-05
4.708857E+03	1.154980E-02	5.296411E-05
4.718813E+03	1.112339E-02	5.059027E-05
4.728768E+03	1.069024E-02	4.823797E-05
4.738723E+03	1.026310E-02	4.596303E-05
4.748678E+03	9.852680E-03	4.381028E-05
4.758634E+03	9.467780E-03	4.181486E-05
4.768589E+03	9.115367E-03	4.000302E-05
4.778544E+03	8.801729E-03	3.839758E-05
4.788500E+03	8.531683E-03	3.701467E-05
4.798455E+03	8.307846E-03	3.586039E-05
4.808410E+03	8.131439E-03	3.493494E-05
4.818366E+03	8.002617E-03	3.423444E-05
4.828321E+03	7.920684E-03	3.375190E-05
4.838276E+03	7.884436E-03	3.347875E-05
4.848231E+03	7.891769E-03	3.340314E-05
4.858187E+03	7.940379E-03	3.351288E-05
4.868142E+03	8.027146E-03	3.379283E-05
4.878097E+03	8.148354E-03	3.422576E-05
4.888053E+03	8.299195E-03	3.479026E-05
4.898008E+03	8.473747E-03	3.546056E-05
4.907963E+03	8.664652E-03	3.620523E-05
4.917919E+03	8.862609E-03	3.698495E-05
4.927874E+03	9.057151E-03	3.775574E-05
4.937829E+03	9.237027E-03	3.847052E-05
4.947784E+03	9.391158E-03	3.908301E-05
4.957740E+03	9.509473E-03	3.955112E-05
4.967695E+03	9.584255E-03	3.984256E-05
4.977650E+03	9.611190E-03	3.993908E-05
4.987606E+03	9.589376E-03	3.983655E-05
4.997561E+03	9.521995E-03	3.954772E-05
5.007516E+03	9.415299E-03	3.909804E-05
5.017472E+03	9.278076E-03	3.852345E-05
5.027427E+03	9.120270E-03	3.786469E-05
5.037382E+03	8.951682E-03	3.716196E-05
5.047337E+03	8.781512E-03	3.645298E-05
5.057293E+03	8.617663E-03	3.577015E-05
5.067248E+03	8.466712E-03	3.514040E-05
5.077203E+03	8.333655E-03	3.458417E-05
5.087159E+03	8.221969E-03	3.411560E-05
5.097114E+03	8.134235E-03	3.374513E-05
5.107069E+03	8.072118E-03	3.347942E-05
5.117025E+03	8.036777E-03	3.332303E-05
5.126980E+03	8.029077E-03	3.327928E-05
5.136935E+03	8.050009E-03	3.335199E-05
5.146890E+03	8.100692E-03	3.354551E-05
5.156846E+03	8.182766E-03	3.386627E-05
5.166801E+03	8.297723E-03	3.432007E-05
5.176756E+03	8.447117E-03	3.491288E-05
5.186712E+03	8.632118E-03	3.564904E-05
5.196667E+03	8.853338E-03	3.653053E-05
5.206622E+03	9.110212E-03	3.755441E-05
5.216578E+03	9.401119E-03	3.871335E-05
5.226533E+03	9.723137E-03	3.999467E-05
5.236488E+03	1.007116E-02	4.137676E-05
5.246443E+03	1.043871E-02	4.283240E-05
5.256399E+03	1.081717E-02	4.432581E-05
5.266354E+03	1.119644E-02	4.581539E-05
5.276309E+03	1.156538E-02	4.725544E-05
5.286265E+03	1.191178E-02	4.859630E-05
5.296220E+03	1.222368E-02	4.978974E-05
5.306175E+03	1.248976E-02	5.079054E-05
5.316131E+03	1.270007E-02	5.155936E-05
5.326086E+03	1.284673E-02	5.206566E-05
5.336041E+03	1.292402E-02	5.228803E-05
5.345996E+03	1.292972E-02	5.221930E-05
5.355952E+03	1.286494E-02	5.186596E-05
5.365907E+03	1.273443E-02	5.124902E-05
5.375862E+03	1.254700E-02	5.040580E-05
5.385818E+03	1.231466E-02	4.938605E-05
5.395773E+03	1.205252E-02	4.825171E-05
5.405728E+03	1.177810E-02	4.707371E-05
5.415684E+03	1.151029E-02	4.592807E-05
5.425639E+03	1.126814E-02	4.489081E-05
5.435594E+03	1.107071E-02	4.403757E-05
5.445549E+03	1.093588E-02	4.343882E-05
5.455505E+03	1.087918E-02	4.315547E-05
5.465460E+03	1.091124E-02	4.322871E-05
5.475415E+03	1.103065E-02	4.365186E-05
5.485371E+03	1.121884E-02	4.435010E-05
5.495326E+03	1.144638E-02	4.520590E-05
5.505281E+03	1.167995E-02	4.608699E-05
5.515237E+03	1.188710E-02	4.686492E-05
5.525192E+03	1.203815E-02	4.742260E-05
5.535147E+03	1.211015E-02	4.766968E-05
5.545102E+03	1.208865E-02	4.754940E-05
5.555058E+03	1.196863E-02	4.704230E-05
5.565013E+03	1.175368E-02	4.616273E-05
5.574968E+03	1.145447E-02	4.495293E-05
5.584924E+03	1.108732E-02	4.347713E-05
5.594879E+03	1.067156E-02	4.181139E-05
5.604834E+03	1.022778E-02	4.003653E-05
5.614790E+03	9.776387E-03	3.823258E-05
5.624745E+03	9.335766E-03	3.647136E-05
5.634700E+03	8.921770E-03	3.481465E-05
5.644655E+03	8.547536E-03	3.331341E-05
5.654611E+03	8.223208E-03	3.200666E-05
5.664566E+03	7.955899E-03	3.092140E-05
5.674521E+03	7.750632E-03	3.007629E-05
5.684477E+03	7.610538E-03	2.948236E-05
5.694432E+03	7.537135E-03	2.914422E-05
5.704387E+03	7.531099E-03	2.906297E-05
5.714343E+03	7.592245E-03	2.923619E-05
5.724298E+03	7.720004E-03	2.965977E-05
5.734253E+03	7.913143E-03	3.032684E-05
5.744209E+03	8.169720E-03	3.122764E-05
5.754164E+03	8.486362E-03	3.234681E-05
5.764119E+03	8.858567E-03	3.366461E-05
5.774074E+03	9.279404E-03	3.515210E-05
5.784030E+03	9.739913E-03	3.677282E-05
5.793985E+03	1.022868E-02	3.848138E-05
5.803940E+03	1.073221E-02	4.022514E-05
5.813896E+03	1.123565E-02	4.194703E-05
5.823851E+03	1.172329E-02	4.358777E-05
5.833806E+03	1.217970E-02	4.509010E-05
5.843762E+03	1.259060E-02	4.640226E-05
5.853717E+03	1.294434E-02	4.748317E-05
5.863672E+03	1.323170E-02	4.830179E-05
5.873627E+03	1.344704E-02	4.884097E-05
5.883583E+03	1.358778E-02	4.909533E-05
5.893538E+03	1.365470E-02	4.907213E-05
5.903493E+03	1.365111E-02	4.878788E-05
5.913449E+03	1.358250E-02	4.826677E-05
5.923404E+03	1.345593E-02	4.753841E-05
5.933359E+03	1.327949E-02	4.663552E-05
5.943315E+03	1.306203E-02	4.559303E-05
5.953270E+03	1.281225E-02	4.444461E-05
5.963225E+03	1.253942E-02	4.322524E-05
5.973180E+03	1.225210E-02	4.196664E-05
5.983136E+03	1.195851E-02	4.069866E-05
5.993091E+03	1.166636E-02	3.944866E-05
6.003046E+03	1.138213E-02	3.823917E-05
6.013002E+03	1.111194E-02	3.709089E-05
6.022957E+03	1.086031E-02	3.601874E-05
6.032912E+03	1.063119E-02	3.503523E-05
6.042868E+03	1.042734E-02	3.414877E-05
6.052823E+03	1.025040E-02	3.336383E-05
6.062778E+03	1.010127E-02	3.268247E-05
6.072733E+03	9.980129E-03	3.210439E-05
6.082689E+03	9.886451E-03	3.162717E-05
6.092644E+03	9.819055E-03	3.124643E-05
6.102599E+03	9.776020E-03	3.095570E-05
6.112555E+03	9.754538E-03	3.074596E-05
6.122510E+03	9.750874E-03	3.060564E-05
6.132465E+03	9.760401E-03	3.052071E-05
6.142421E+03	9.777302E-03	3.047377E-05
6.152376E+03	9.794516E-03	3.044389E-05
6.162331E+03	9.803505E-03	3.040582E-05
6.172286E+03	9.794491E-03	3.033057E-05
6.182242E+03	9.757074E-03	3.018669E-05
6.192197E+03	9.681491E-03	2.994386E-05
6.202152E+03	9.559686E-03	2.957665E-05
6.212108E+03	9.387683E-03	2.907168E-05
6.222063E+03	9.171790E-03	2.844688E-05
6.232018E+03	8.929039E-03	2.775308E-05
6.241974E+03	8.678365E-03	2.704716E-05
6.251929E+03	8.436534E-03	2.637971E-05
6.261884E+03	8.216275E-03	2.578937E-05
6.271839E+03	8.025972E-03	2.530193E-05
6.281795E+03	7.871180E-03	2.493495E-05
6.291750E+03	7.754475E-03	2.469721E-05
6.301705E+03	7.676105E-03	2.459060E-05
6.311661E+03	7.635130E-03	2.461358E-05
6.321616E+03	7.629087E-03	2.475994E-05
6.331571E+03	7.654443E-03	2.502011E-05
6.341527E+03	7.706980E-03	2.538223E-05
6.351482E+03	7.782056E-03	2.583287E-05
6.361437E+03	7.874177E-03	2.635544E-05
6.371392E+03	7.977974E-03	2.693335E-05
6.381348E+03	8.088345E-03	2.755037E-05
6.391303E+03	8.199958E-03	2.818893E-05
6.401258E+03	8.308180E-03	2.883287E-05
6.411214E+03	8.409285E-03	2.946832E-05
6.421169E+03	8.500450E-03	3.008403E-05
6.431124E+03	8.579698E-03	3.067130E-05
6.441080E+03	8.646277E-03	3.122550E-05
6.451035E+03	8.700047E-03	3.174404E-05
6.460990E+03	8.741479E-03	3.222650E-05
6.470945E+03	8.771108E-03	3.267276E-05
6.480901E+03	8.789530E-03	3.308296E-05
6.490856E+03	8.797173E-03	3.345669E-05
6.500811E+03	8.794920E-03	3.379536E-05
6.510767E+03	8.787244E-03	3.411445E-05
6.520722E+03	8.782114E-03	3.444390E-05
6.530677E+03	8.787496E-03	3.481492E-05
6.540633E+03	8.810055E-03	3.525483E-05
6.550588E+03	8.853959E-03	3.578191E-05
6.560543E+03	8.920994E-03	3.640541E-05
6.570498E+03	9.010839E-03	3.712616E-05
6.580454E+03	9.120816E-03	3.793511E-05
6.590409E+03	9.247254E-03	3.881860E-05
6.600364E+03	9.384201E-03	3.975269E-05
6.610320E+03	9.525533E-03	4.071178E-05
6.620275E+03	9.664140E-03	4.166504E-05
6.630230E+03	9.793000E-03	4.258099E-05
6.640186E+03	9.905681E-03	4.342973E-05
6.650141E+03	9.996315E-03	4.418293E-05
6.660096E+03	1.006038E-02	4.481756E-05
6.670051E+03	1.009472E-02	4.531613E-05
6.680007E+03	1.009783E-02	4.566838E-05
6.689962E+03	1.006913E-02	4.586822E-05
6.699917E+03	1.001004E-02	4.591874E-05
6.709873E+03	9.922568E-03	4.582621E-05
6.719828E+03	9.809794E-03	4.560221E-05
6.729783E+03	9.675427E-03	4.526185E-05
6.739739E+03	9.523544E-03	4.482255E-05
6.749694E+03	9.358595E-03	4.430407E-05
6.759649E+03	9.184548E-03	4.372450E-05
6.769604E+03	9.005758E-03	4.310427E-05
6.779560E+03	8.826224E-03	4.246262E-05
6.789515E+03	8.649693E-03	4.181801E-05
6.799470E+03	8.479621E-03	4.118783E-05
6.809426E+03	8.319156E-03	4.058829E-05
6.819381E+03	8.171112E-03	4.003419E-05
6.829336E+03	8.037827E-03	3.953818E-05
6.839292E+03	7.921597E-03	3.911280E-05
6.849247E+03	7.824231E-03	3.876827E-05
6.859202E+03	7.747069E-03	3.851250E-05
6.869157E+03	7.691382E-03	3.835301E-05
6.879113E+03	7.657941E-03	3.829480E-05
6.889068E+03	7.646971E-03	3.834001E-05
6.899023E+03	7.658405E-03	3.848922E-05
6.908979E+03	7.691829E-03	3.874110E-05
6.918934E+03	7.745986E-03	3.908993E-05
6.928889E+03	7.819154E-03	3.952744E-05
6.938845E+03	7.909094E-03	4.004258E-05
6.948800E+03	8.012566E-03	4.061906E-05
6.958755E+03	8.125830E-03	4.123785E-05
6.968710E+03	8.244428E-03	4.187617E-05
6.978666E+03	8.363966E-03	4.251143E-05
6.988621E+03	8.479377E-03	4.311758E-05
6.998576E+03	8.585851E-03	4.366983E-05
7.008532E+03	8.678775E-03	4.414446E-05
7.018487E+03	8.754507E-03	4.452275E-05
7.028442E+03	8.809939E-03	4.478884E-05
7.038398E+03	8.843546E-03	4.493504E-05
7.048353E+03	8.854049E-03	4.495510E-05
7.058308E+03	8.842196E-03	4.485319E-05
7.068263E+03	8.809279E-03	4.463636E-05
7.078219E+03	8.757857E-03	4.431821E-05
7.088174E+03	8.690668E-03	4.391325E-05
7.098129E+03	8.611629E-03	4.344197E-05
7.108085E+03	8.524189E-03	4.292247E-05
7.118040E+03	8.432308E-03	4.237530E-05
7.127995E+03	8.339538E-03	4.181888E-05
7.137951E+03	8.249042E-03	4.126950E-05
7.147906E+03	8.163268E-03	4.073977E-05
7.157861E+03	8.084186E-03	4.023977E-05
7.167817E+03	8.013270E-03	3.977698E-05
7.177772E+03	7.950996E-03	3.935384E-05
7.187727E+03	7.897537E-03	3.897125E-05
7.197682E+03	7.852000E-03	3.862482E-05
7.207638E+03	7.813721E-03	3.831132E-05
7.217593E+03	7.781174E-03	3.802331E-05
7.227548E+03	7.752816E-03	3.775340E-05
7.237504E+03	7.727062E-03	3.749406E-05
7.247459E+03	7.702450E-03	3.723849E-05
7.257414E+03	7.677773E-03	3.698121E-05
7.267370E+03	7.652344E-03	3.671933E-05
7.277325E+03	7.625403E-03	3.644968E-05
7.287280E+03	7.597488E-03	3.617535E-05
7.297235E+03	7.568871E-03	3.589810E-05
7.307191E+03	7.540163E-03	3.562131E-05
7.317146E+03	7.512870E-03	3.535252E-05
7.327101E+03	7.487680E-03	3.509532E-05
7.337057E+03	7.465975E-03	3.485652E-05
7.347012E+03	7.448215E-03	3.463854E-05
7.356967E+03	7.434859E-03	3.444375E-05
7.366923E+03	7.425924E-03	3.427250E-05
7.376878E+03	7.420811E-03	3.412229E-05
7.386833E+03	7.418866E-03	3.399046E-05
7.396788E+03	7.418884E-03	3.387185E-05
7.406744E+03	7.418985E-03	3.375835E-05
7.416699E+03	7.417202E-03	3.364157E-05
7.426654E+03	7.411371E-03	3.351235E-05
7.436610E+03	7.399156E-03	3.336085E-05
7.446565E+03	7.378406E-03	3.317815E-05
7.456520E+03	7.347318E-03	3.295680E-05
7.466476E+03	7.304821E-03	3.269226E-05
7.476431E+03	7.250429E-03	3.238253E-05
7.486386E+03	7.184487E-03	3.202928E-05
7.496341E+03	7.108521E-03	3.163933E-05
7.506297E+03	7.024268E-03	3.122036E-05
7.516252E+03	6.934375E-03	3.078400E-05
7.526207E+03	6.841803E-03	3.034316E-05
7.536163E+03	6.749495E-03	2.991063E-05
7.546118E+03	6.660079E-03	2.949776E-05
7.556073E+03	6.575608E-03	2.911335E-05
7.566029E+03	6.497838E-03	2.876489E-05
7.575984E+03	6.428129E-03	2.845817E-05
7.585939E+03	6.367305E-03	2.819665E-05
7.595894E+03	6.317082E-03	2.798780E-05
7.605850E+03	6.278514E-03	2.783625E-05
7.615805E+03	6.252666E-03	2.774674E-05
7.625760E+03	6.239508E-03	2.771926E-05
7.635716E+03	6.238620E-03	2.775213E-05
7.645671E+03	6.249160E-03	2.784188E-05
7.655626E+03	6.270152E-03	2.798447E-05
7.665582E+03	6.300075E-03	2.817349E-05
7.675537E+03	6.337392E-03	2.840245E-05
7.685492E+03	6.380620E-03	2.866513E-05
7.695447E+03	6.428027E-03	2.895415E-05
7.705403E+03	6.477702E-03	2.926129E-05
7.715358E+03	6.528137E-03	2.958008E-05
7.725313E+03	6.577808E-03	2.990393E-05
