#wls	flux	fluxerr
1.592848E+03	4.274510E-04	1.608821E-05
1.632669E+03	4.457394E-04	1.668625E-05
1.672491E+03	4.634679E-04	1.725379E-05
1.712312E+03	4.804044E-04	1.778228E-05
1.752133E+03	4.963164E-04	1.826336E-05
1.791954E+03	5.105042E-04	1.867184E-05
1.831775E+03	5.222053E-04	1.898089E-05
1.871597E+03	5.302740E-04	1.915060E-05
1.911418E+03	5.337690E-04	1.914956E-05
1.951239E+03	5.318512E-04	1.895105E-05
1.991060E+03	5.247238E-04	1.856619E-05
2.030881E+03	5.145684E-04	1.807560E-05
2.070703E+03	5.061493E-04	1.764784E-05
2.110524E+03	5.061743E-04	1.751375E-05
2.150345E+03	5.210776E-04	1.788739E-05
2.190166E+03	5.546498E-04	1.888537E-05
2.229987E+03	6.066895E-04	2.048463E-05
2.269809E+03	6.744544E-04	2.257661E-05
2.309630E+03	7.536519E-04	2.500387E-05
2.349451E+03	8.403915E-04	2.762680E-05
2.389272E+03	9.319959E-04	3.034964E-05
2.429093E+03	1.026820E-03	3.311302E-05
2.468915E+03	1.124298E-03	3.589389E-05
2.508736E+03	1.224132E-03	3.867828E-05
2.548557E+03	1.326430E-03	4.146526E-05
2.588378E+03	1.431186E-03	4.425001E-05
2.628199E+03	1.538466E-03	4.702982E-05
2.668021E+03	1.648086E-03	4.979429E-05
2.707842E+03	1.759767E-03	5.253027E-05
2.747663E+03	1.872899E-03	5.521519E-05
2.787484E+03	1.986448E-03	5.781496E-05
2.827305E+03	2.099284E-03	6.029428E-05
2.867127E+03	2.209705E-03	6.260334E-05
2.906948E+03	2.316243E-03	6.470172E-05
2.946769E+03	2.418306E-03	6.657550E-05
2.986590E+03	2.515079E-03	6.820592E-05
2.996546E+03	2.538366E-03	6.857388E-05
3.006501E+03	2.561240E-03	6.892477E-05
3.016456E+03	2.583656E-03	6.925755E-05
3.026411E+03	2.605746E-03	6.957578E-05
3.036367E+03	2.627574E-03	6.988127E-05
3.046322E+03	2.649339E-03	7.017937E-05
3.056277E+03	2.670939E-03	7.046737E-05
3.066233E+03	2.692337E-03	7.074429E-05
3.076188E+03	2.713438E-03	7.100775E-05
3.086143E+03	2.734208E-03	7.125687E-05
3.096099E+03	2.754560E-03	7.148950E-05
3.106054E+03	2.774406E-03	7.170350E-05
3.116009E+03	2.793721E-03	7.189835E-05
3.125964E+03	2.812426E-03	7.207217E-05
3.135920E+03	2.830557E-03	7.222605E-05
3.145875E+03	2.847924E-03	7.235536E-05
3.155830E+03	2.864571E-03	7.246145E-05
3.165786E+03	2.880430E-03	7.254281E-05
3.175741E+03	2.895490E-03	7.259943E-05
3.185696E+03	2.909639E-03	7.262873E-05
3.195652E+03	2.922928E-03	7.263231E-05
3.205607E+03	2.935304E-03	7.260910E-05
3.215562E+03	2.946668E-03	7.255701E-05
3.225517E+03	2.957084E-03	7.247790E-05
3.235473E+03	2.966565E-03	7.237242E-05
3.245428E+03	2.974976E-03	7.223759E-05
3.255383E+03	2.982394E-03	7.207566E-05
3.265339E+03	2.988799E-03	7.188649E-05
3.275294E+03	2.994176E-03	7.167004E-05
3.285249E+03	2.998519E-03	7.142654E-05
3.295205E+03	3.001874E-03	7.115742E-05
3.305160E+03	3.004242E-03	7.086310E-05
3.315115E+03	3.005633E-03	7.054412E-05
3.325070E+03	3.006061E-03	7.020118E-05
3.335026E+03	3.005543E-03	6.983502E-05
3.344981E+03	3.004145E-03	6.944748E-05
3.354936E+03	3.001844E-03	6.903839E-05
3.364892E+03	2.998667E-03	6.860869E-05
3.374847E+03	2.994641E-03	6.815931E-05
3.384802E+03	2.989793E-03	6.769119E-05
3.394758E+03	2.984151E-03	6.720526E-05
3.404713E+03	2.977707E-03	6.670165E-05
3.414668E+03	2.970455E-03	6.618053E-05
3.424623E+03	2.962472E-03	6.564394E-05
3.434579E+03	2.953764E-03	6.509225E-05
3.444534E+03	2.944309E-03	6.452531E-05
3.454489E+03	2.934170E-03	6.394476E-05
3.464445E+03	2.923388E-03	6.335178E-05
3.474400E+03	2.911989E-03	6.274716E-05
3.484355E+03	2.900018E-03	6.213212E-05
3.494311E+03	2.887606E-03	6.150972E-05
3.504266E+03	2.874748E-03	6.088004E-05
3.514221E+03	2.861600E-03	6.024650E-05
3.524176E+03	2.848186E-03	5.960980E-05
3.534132E+03	2.834599E-03	5.897196E-05
3.544087E+03	2.820965E-03	5.833570E-05
3.554042E+03	2.807411E-03	5.770368E-05
3.563998E+03	2.794125E-03	5.707970E-05
3.573953E+03	2.781260E-03	5.646684E-05
3.583908E+03	2.768993E-03	5.586851E-05
3.593864E+03	2.757592E-03	5.528988E-05
3.603819E+03	2.747353E-03	5.473656E-05
3.613774E+03	2.738617E-03	5.421490E-05
3.623729E+03	2.731761E-03	5.373174E-05
3.633685E+03	2.727227E-03	5.329501E-05
3.643640E+03	2.725417E-03	5.291169E-05
3.653595E+03	2.726798E-03	5.258973E-05
3.663551E+03	2.731827E-03	5.233667E-05
3.673506E+03	2.740994E-03	5.216051E-05
3.683461E+03	2.754781E-03	5.206870E-05
3.693417E+03	2.773697E-03	5.206910E-05
3.703372E+03	2.798265E-03	5.216943E-05
3.713327E+03	2.828985E-03	5.237680E-05
3.723282E+03	2.866384E-03	5.269852E-05
3.733238E+03	2.910983E-03	5.314149E-05
3.743193E+03	2.963247E-03	5.371137E-05
3.753148E+03	3.023719E-03	5.441497E-05
3.763104E+03	3.092794E-03	5.525611E-05
3.773059E+03	3.170973E-03	5.624033E-05
3.783014E+03	3.258550E-03	5.736927E-05
3.792970E+03	3.355845E-03	5.864484E-05
3.802925E+03	3.463031E-03	6.006626E-05
3.812880E+03	3.580189E-03	6.163103E-05
3.822835E+03	3.707240E-03	6.333391E-05
3.832791E+03	3.843904E-03	6.516631E-05
3.842746E+03	3.989598E-03	6.711465E-05
3.852701E+03	4.143485E-03	6.916145E-05
3.862657E+03	4.304407E-03	7.128433E-05
3.872612E+03	4.470827E-03	7.345534E-05
3.882567E+03	4.640778E-03	7.564027E-05
3.892523E+03	4.812063E-03	7.780232E-05
3.902478E+03	4.981975E-03	7.989758E-05
3.912433E+03	5.147590E-03	8.188019E-05
3.922388E+03	5.305875E-03	8.370406E-05
3.932344E+03	5.453584E-03	8.532138E-05
3.942299E+03	5.587772E-03	8.669073E-05
3.952254E+03	5.705628E-03	8.777427E-05
3.962210E+03	5.804693E-03	8.854103E-05
3.972165E+03	5.883211E-03	8.897193E-05
3.982120E+03	5.939898E-03	8.905587E-05
3.992076E+03	5.974249E-03	8.879401E-05
4.002031E+03	5.986587E-03	8.819993E-05
4.011986E+03	5.977878E-03	8.729645E-05
4.021941E+03	5.949757E-03	8.611551E-05
4.031897E+03	5.904598E-03	8.469880E-05
4.041852E+03	5.844968E-03	8.308952E-05
4.051807E+03	5.773909E-03	8.133617E-05
4.061763E+03	5.694455E-03	7.948560E-05
4.071718E+03	5.609736E-03	7.758434E-05
4.081673E+03	5.522574E-03	7.567317E-05
4.091629E+03	5.435690E-03	7.378998E-05
4.101584E+03	5.351322E-03	7.196479E-05
4.111539E+03	5.271460E-03	7.022317E-05
4.121494E+03	5.197685E-03	6.858432E-05
4.131450E+03	5.131345E-03	6.706357E-05
4.141405E+03	5.073459E-03	6.567134E-05
4.151360E+03	5.024944E-03	6.441629E-05
4.161316E+03	4.986459E-03	6.330328E-05
4.171271E+03	4.958475E-03	6.233461E-05
4.181226E+03	4.941320E-03	6.151055E-05
4.191182E+03	4.935232E-03	6.083014E-05
4.201137E+03	4.940160E-03	6.028880E-05
4.211092E+03	4.955939E-03	5.988071E-05
4.221047E+03	4.982172E-03	5.959734E-05
4.231003E+03	5.018222E-03	5.942757E-05
4.240958E+03	5.063245E-03	5.935822E-05
4.250913E+03	5.116139E-03	5.937359E-05
4.260869E+03	5.175571E-03	5.945586E-05
4.270824E+03	5.239913E-03	5.958453E-05
4.280779E+03	5.307472E-03	5.973919E-05
4.290735E+03	5.376269E-03	5.989706E-05
4.300690E+03	5.444391E-03	6.003699E-05
4.310645E+03	5.509698E-03	6.013625E-05
4.320601E+03	5.569993E-03	6.017247E-05
4.330556E+03	5.623126E-03	6.012475E-05
4.340511E+03	5.667140E-03	5.997513E-05
4.350466E+03	5.700451E-03	5.971038E-05
4.360422E+03	5.722019E-03	5.932354E-05
4.370377E+03	5.732019E-03	5.882047E-05
4.380332E+03	5.732630E-03	5.822725E-05
4.390288E+03	5.728357E-03	5.759236E-05
4.400243E+03	5.724279E-03	5.696807E-05
4.410198E+03	5.725737E-03	5.640713E-05
4.420154E+03	5.737936E-03	5.595890E-05
4.430109E+03	5.765945E-03	5.566925E-05
4.440064E+03	5.814416E-03	5.557814E-05
4.450019E+03	5.887483E-03	5.571896E-05
4.459975E+03	5.988628E-03	5.611763E-05
4.469930E+03	6.120282E-03	5.678927E-05
4.479885E+03	6.283829E-03	5.773872E-05
4.489841E+03	6.480114E-03	5.896567E-05
4.499796E+03	6.709328E-03	6.046394E-05
4.509751E+03	6.970760E-03	6.221946E-05
4.519707E+03	7.262823E-03	6.421097E-05
4.529662E+03	7.582628E-03	6.640656E-05
4.539617E+03	7.925745E-03	6.876222E-05
4.549572E+03	8.286444E-03	7.122439E-05
4.559528E+03	8.656688E-03	7.372186E-05
4.569483E+03	9.027138E-03	7.617509E-05
4.579438E+03	9.386939E-03	7.849481E-05
4.589394E+03	9.725287E-03	8.059543E-05
4.599349E+03	1.003111E-02	8.239219E-05
4.609304E+03	1.029393E-02	8.380838E-05
4.619260E+03	1.050476E-02	8.478168E-05
4.629215E+03	1.065623E-02	8.526521E-05
4.639170E+03	1.074330E-02	8.523188E-05
4.649125E+03	1.076369E-02	8.467742E-05
4.659081E+03	1.071795E-02	8.361937E-05
4.669036E+03	1.060899E-02	8.209313E-05
4.678991E+03	1.044249E-02	8.015394E-05
4.688947E+03	1.022602E-02	7.786959E-05
4.698902E+03	9.968718E-03	7.531733E-05
4.708857E+03	9.680716E-03	7.257937E-05
4.718813E+03	9.372693E-03	6.973935E-05
4.728768E+03	9.054951E-03	6.687549E-05
4.738723E+03	8.737697E-03	6.406291E-05
4.748678E+03	8.429816E-03	6.136490E-05
4.758634E+03	8.138736E-03	5.883241E-05
4.768589E+03	7.870244E-03	5.650319E-05
4.778544E+03	7.630429E-03	5.441620E-05
4.788500E+03	7.423712E-03	5.259764E-05
4.798455E+03	7.252931E-03	5.106200E-05
4.808410E+03	7.119607E-03	4.981436E-05
4.818366E+03	7.024340E-03	4.885318E-05
4.828321E+03	6.966687E-03	4.816970E-05
4.838276E+03	6.945669E-03	4.775190E-05
4.848231E+03	6.960022E-03	4.758624E-05
4.858187E+03	7.008034E-03	4.765665E-05
4.868142E+03	7.087811E-03	4.794625E-05
4.878097E+03	7.196946E-03	4.843524E-05
4.888053E+03	7.332577E-03	4.910123E-05
4.898008E+03	7.490902E-03	4.991614E-05
4.907963E+03	7.666837E-03	5.084394E-05
4.917919E+03	7.853432E-03	5.183703E-05
4.927874E+03	8.041825E-03	5.283613E-05
4.937829E+03	8.221863E-03	5.377456E-05
4.947784E+03	8.382462E-03	5.458078E-05
4.957740E+03	8.512364E-03	5.518332E-05
4.967695E+03	8.602175E-03	5.552390E-05
4.977650E+03	8.645445E-03	5.556413E-05
4.987606E+03	8.639783E-03	5.529220E-05
4.997561E+03	8.586379E-03	5.471927E-05
5.007516E+03	8.491334E-03	5.388748E-05
5.017472E+03	8.363369E-03	5.285482E-05
5.027427E+03	8.212601E-03	5.168716E-05
5.037382E+03	8.048879E-03	5.044762E-05
5.047337E+03	7.881664E-03	4.919589E-05
5.057293E+03	7.719099E-03	4.798255E-05
5.067248E+03	7.567906E-03	4.684858E-05
5.077203E+03	7.433321E-03	4.582516E-05
5.087159E+03	7.318615E-03	4.493090E-05
5.097114E+03	7.225467E-03	4.417438E-05
5.107069E+03	7.154275E-03	4.355626E-05
5.117025E+03	7.104881E-03	4.307379E-05
5.126980E+03	7.077175E-03	4.272457E-05
5.136935E+03	7.071070E-03	4.250635E-05
5.146890E+03	7.087326E-03	4.242198E-05
5.156846E+03	7.127326E-03	4.247798E-05
5.166801E+03	7.193028E-03	4.268415E-05
5.176756E+03	7.286650E-03	4.305161E-05
5.186712E+03	7.410080E-03	4.358937E-05
5.196667E+03	7.564943E-03	4.430472E-05
5.206622E+03	7.751821E-03	4.519870E-05
5.216578E+03	7.970317E-03	4.626668E-05
5.226533E+03	8.218488E-03	4.749515E-05
5.236488E+03	8.493040E-03	4.886308E-05
5.246443E+03	8.788961E-03	5.034003E-05
5.256399E+03	9.099813E-03	5.188799E-05
5.266354E+03	9.417738E-03	5.346162E-05
5.276309E+03	9.733715E-03	5.500991E-05
5.286265E+03	1.003796E-02	5.647852E-05
5.296220E+03	1.032052E-02	5.781317E-05
5.306175E+03	1.057172E-02	5.896226E-05
5.316131E+03	1.078287E-02	5.988055E-05
5.326086E+03	1.094611E-02	6.052821E-05
5.336041E+03	1.105571E-02	6.087786E-05
5.345996E+03	1.110761E-02	6.091173E-05
5.355952E+03	1.110071E-02	6.062839E-05
5.365907E+03	1.103692E-02	6.004284E-05
5.375862E+03	1.092133E-02	5.918681E-05
5.385818E+03	1.076236E-02	5.810941E-05
5.395773E+03	1.057262E-02	5.688132E-05
5.405728E+03	1.036699E-02	5.558441E-05
5.415684E+03	1.016216E-02	5.430875E-05
5.425639E+03	9.976617E-03	5.315289E-05
5.435594E+03	9.828364E-03	5.221156E-05
5.445549E+03	9.734356E-03	5.157300E-05
5.455505E+03	9.709595E-03	5.131445E-05
5.465460E+03	9.765114E-03	5.149184E-05
5.475415E+03	9.900934E-03	5.210316E-05
5.485371E+03	1.009738E-02	5.304278E-05
5.495326E+03	1.032537E-02	5.415634E-05
5.505281E+03	1.055209E-02	5.527115E-05
5.515237E+03	1.074565E-02	5.622017E-05
5.525192E+03	1.087731E-02	5.685349E-05
5.535147E+03	1.092456E-02	5.705386E-05
5.545102E+03	1.087584E-02	5.676126E-05
5.555058E+03	1.072944E-02	5.596671E-05
5.565013E+03	1.049138E-02	5.470121E-05
5.574968E+03	1.017472E-02	5.303223E-05
5.584924E+03	9.796559E-03	5.104796E-05
5.594879E+03	9.376620E-03	4.885019E-05
5.604834E+03	8.935155E-03	4.654341E-05
5.614790E+03	8.491386E-03	4.422677E-05
5.624745E+03	8.062692E-03	4.198996E-05
5.634700E+03	7.663714E-03	3.990852E-05
5.644655E+03	7.306684E-03	3.804553E-05
5.654611E+03	7.000770E-03	3.644825E-05
5.664566E+03	6.752757E-03	3.515156E-05
5.674521E+03	6.567086E-03	3.417816E-05
5.684477E+03	6.446339E-03	3.354104E-05
5.694432E+03	6.390821E-03	3.324130E-05
5.704387E+03	6.399888E-03	3.327494E-05
5.714343E+03	6.472739E-03	3.363710E-05
5.724298E+03	6.608464E-03	3.432215E-05
5.734253E+03	6.805967E-03	3.532332E-05
5.744209E+03	7.064149E-03	3.663366E-05
5.754164E+03	7.380572E-03	3.823905E-05
5.764119E+03	7.751592E-03	4.011898E-05
5.774074E+03	8.171591E-03	4.224255E-05
5.784030E+03	8.631991E-03	4.456353E-05
5.793985E+03	9.121793E-03	4.702322E-05
5.803940E+03	9.627540E-03	4.955049E-05
5.813896E+03	1.013462E-02	5.206862E-05
5.823851E+03	1.062742E-02	5.449627E-05
5.833806E+03	1.109090E-02	5.675574E-05
5.843762E+03	1.151117E-02	5.877592E-05
5.853717E+03	1.187700E-02	6.050020E-05
5.863672E+03	1.217944E-02	6.188432E-05
5.873627E+03	1.241306E-02	6.290263E-05
5.883583E+03	1.257530E-02	6.354468E-05
5.893538E+03	1.266661E-02	6.381571E-05
5.903493E+03	1.268971E-02	6.373266E-05
5.913449E+03	1.264946E-02	6.332334E-05
5.923404E+03	1.255168E-02	6.262047E-05
5.933359E+03	1.240384E-02	6.166465E-05
5.943315E+03	1.221330E-02	6.049580E-05
5.953270E+03	1.198829E-02	5.915771E-05
5.963225E+03	1.173706E-02	5.769373E-05
5.973180E+03	1.146779E-02	5.614639E-05
5.983136E+03	1.118858E-02	5.455726E-05
5.993091E+03	1.090701E-02	5.296468E-05
6.003046E+03	1.063006E-02	5.140348E-05
6.013002E+03	1.036386E-02	4.990382E-05
6.022957E+03	1.011358E-02	4.849080E-05
6.032912E+03	9.883168E-03	4.718303E-05
6.042868E+03	9.675629E-03	4.599444E-05
6.052823E+03	9.492539E-03	4.493186E-05
6.062778E+03	9.334667E-03	4.399821E-05
6.072733E+03	9.201874E-03	4.319208E-05
6.082689E+03	9.093712E-03	4.251071E-05
6.092644E+03	9.008801E-03	4.194703E-05
6.102599E+03	8.945735E-03	4.149408E-05
6.112555E+03	8.902107E-03	4.114042E-05
6.122510E+03	8.875191E-03	4.087344E-05
6.132465E+03	8.861403E-03	4.067684E-05
6.142421E+03	8.856598E-03	4.053210E-05
6.152376E+03	8.855574E-03	4.041613E-05
6.162331E+03	8.851956E-03	4.030087E-05
6.172286E+03	8.837860E-03	4.015166E-05
6.182242E+03	8.804998E-03	3.993201E-05
6.192197E+03	8.745351E-03	3.960615E-05
6.202152E+03	8.651849E-03	3.914247E-05
6.212108E+03	8.520364E-03	3.852241E-05
6.222063E+03	8.353737E-03	3.775864E-05
6.232018E+03	8.163724E-03	3.690368E-05
6.241974E+03	7.963826E-03	3.601768E-05
6.251929E+03	7.766464E-03	3.515588E-05
6.261884E+03	7.580932E-03	3.435950E-05
6.271839E+03	7.414465E-03	3.366068E-05
6.281795E+03	7.271928E-03	3.308120E-05
6.291750E+03	7.156467E-03	3.263539E-05
6.301705E+03	7.069722E-03	3.233112E-05
6.311661E+03	7.012115E-03	3.217104E-05
6.321616E+03	6.982760E-03	3.215211E-05
6.331571E+03	6.980111E-03	3.226850E-05
6.341527E+03	7.001752E-03	3.251052E-05
6.351482E+03	7.044394E-03	3.286447E-05
6.361437E+03	7.104121E-03	3.331366E-05
6.371392E+03	7.176946E-03	3.384091E-05
6.381348E+03	7.258525E-03	3.442707E-05
6.391303E+03	7.345081E-03	3.505531E-05
6.401258E+03	7.432637E-03	3.570716E-05
6.411214E+03	7.518104E-03	3.636739E-05
6.421169E+03	7.598767E-03	3.702210E-05
6.431124E+03	7.672767E-03	3.766114E-05
6.441080E+03	7.739114E-03	3.827826E-05
6.451035E+03	7.797560E-03	3.887069E-05
6.460990E+03	7.847876E-03	3.943566E-05
6.470945E+03	7.890110E-03	3.997169E-05
6.480901E+03	7.923968E-03	4.047547E-05
6.490856E+03	7.948599E-03	4.094077E-05
6.500811E+03	7.962296E-03	4.135673E-05
6.510767E+03	7.968346E-03	4.173831E-05
6.520722E+03	7.976208E-03	4.213365E-05
6.530677E+03	7.994512E-03	4.258817E-05
6.540633E+03	8.029437E-03	4.313570E-05
6.550588E+03	8.085272E-03	4.380097E-05
6.560543E+03	8.163771E-03	4.459569E-05
6.570498E+03	8.264338E-03	4.551895E-05
6.580454E+03	8.384871E-03	4.656135E-05
6.590409E+03	8.521000E-03	4.770040E-05
6.600364E+03	8.667094E-03	4.890569E-05
6.610320E+03	8.816326E-03	5.013895E-05
6.620275E+03	8.961465E-03	5.135838E-05
6.630230E+03	9.095295E-03	5.252096E-05
6.640186E+03	9.211032E-03	5.358497E-05
6.650141E+03	9.302968E-03	5.451386E-05
6.660096E+03	9.366859E-03	5.527885E-05
6.670051E+03	9.400020E-03	5.585979E-05
6.680007E+03	9.401038E-03	5.624391E-05
6.689962E+03	9.370227E-03	5.642874E-05
6.699917E+03	9.308937E-03	5.641831E-05
6.709873E+03	9.219418E-03	5.622256E-05
6.719828E+03	9.105044E-03	5.585887E-05
6.729783E+03	8.969546E-03	5.534749E-05
6.739739E+03	8.816821E-03	5.471041E-05
6.749694E+03	8.651061E-03	5.397215E-05
6.759649E+03	8.476759E-03	5.315983E-05
6.769604E+03	8.297657E-03	5.229651E-05
6.779560E+03	8.117775E-03	5.140757E-05
6.789515E+03	7.940762E-03	5.051657E-05
6.799470E+03	7.769892E-03	4.964511E-05
6.809426E+03	7.608453E-03	4.881526E-05
6.819381E+03	7.459143E-03	4.804557E-05
6.829336E+03	7.324737E-03	4.735533E-05
6.839292E+03	7.207143E-03	4.675838E-05
6.849247E+03	7.108204E-03	4.626821E-05
6.859202E+03	7.029660E-03	4.589765E-05
6.869157E+03	6.972410E-03	4.565407E-05
6.879113E+03	6.937396E-03	4.554497E-05
6.889068E+03	6.924905E-03	4.557350E-05
6.899023E+03	6.935096E-03	4.574177E-05
6.908979E+03	6.967522E-03	4.604776E-05
6.918934E+03	7.020996E-03	4.648432E-05
6.928889E+03	7.093985E-03	4.704181E-05
6.938845E+03	7.183994E-03	4.770395E-05
6.948800E+03	7.287923E-03	4.845025E-05
6.958755E+03	7.401820E-03	4.925433E-05
6.968710E+03	7.521033E-03	5.008494E-05
6.978666E+03	7.640715E-03	5.090945E-05
6.988621E+03	7.755539E-03	5.169191E-05
6.998576E+03	7.860505E-03	5.239858E-05
7.008532E+03	7.951315E-03	5.300044E-05
7.018487E+03	8.024242E-03	5.347242E-05
7.028442E+03	8.076203E-03	5.379391E-05
7.038398E+03	8.105933E-03	5.395660E-05
7.048353E+03	8.113003E-03	5.395798E-05
7.058308E+03	8.097903E-03	5.380181E-05
7.068263E+03	8.062335E-03	5.350006E-05
7.078219E+03	8.008849E-03	5.307048E-05
7.088174E+03	7.940747E-03	5.253579E-05
7.098129E+03	7.861263E-03	5.191826E-05
7.108085E+03	7.774476E-03	5.124569E-05
7.118040E+03	7.684090E-03	5.054326E-05
7.127995E+03	7.593243E-03	4.983225E-05
7.137951E+03	7.505205E-03	4.913465E-05
7.147906E+03	7.422570E-03	4.846781E-05
7.157861E+03	7.347398E-03	4.784540E-05
7.167817E+03	7.280668E-03	4.727389E-05
7.177772E+03	7.223323E-03	4.675941E-05
7.187727E+03	7.174955E-03	4.629925E-05
7.197682E+03	7.135188E-03	4.589090E-05
7.207638E+03	7.102549E-03	4.552481E-05
7.217593E+03	7.075562E-03	4.519154E-05
7.227548E+03	7.052485E-03	4.488006E-05
7.237504E+03	7.031078E-03	4.457633E-05
7.247459E+03	7.009676E-03	4.427018E-05
7.257414E+03	6.986718E-03	4.395225E-05
7.267370E+03	6.961086E-03	4.361613E-05
7.277325E+03	6.932282E-03	4.325941E-05
7.287280E+03	6.900523E-03	4.288417E-05
7.297235E+03	6.866108E-03	4.249302E-05
7.307191E+03	6.830455E-03	4.209542E-05
7.317146E+03	6.794872E-03	4.170001E-05
7.327101E+03	6.761035E-03	4.131758E-05
7.337057E+03	6.730160E-03	4.095590E-05
7.347012E+03	6.703729E-03	4.062430E-05
7.356967E+03	6.682565E-03	4.032793E-05
7.366923E+03	6.666940E-03	4.006859E-05
7.376878E+03	6.656825E-03	3.984628E-05
7.386833E+03	6.651589E-03	3.965741E-05
7.396788E+03	6.650375E-03	3.949715E-05
7.406744E+03	6.651317E-03	3.935479E-05
7.416699E+03	6.652827E-03	3.922145E-05
7.426654E+03	6.652449E-03	3.908331E-05
7.436610E+03	6.647609E-03	3.892603E-05
7.446565E+03	6.636132E-03	3.873779E-05
7.456520E+03	6.615375E-03	3.850414E-05
7.466476E+03	6.583925E-03	3.821744E-05
7.476431E+03	6.540629E-03	3.787136E-05
7.486386E+03	6.485250E-03	3.746476E-05
7.496341E+03	6.418747E-03	3.700339E-05
7.506297E+03	6.342652E-03	3.649614E-05
7.516252E+03	6.259309E-03	3.595641E-05
7.526207E+03	6.172056E-03	3.540321E-05
7.536163E+03	6.083815E-03	3.485298E-05
7.546118E+03	5.997252E-03	3.432065E-05
7.556073E+03	5.915064E-03	3.382124E-05
7.566029E+03	5.839321E-03	3.336619E-05
7.575984E+03	5.771794E-03	3.296526E-05
7.585939E+03	5.713936E-03	3.262641E-05
7.595894E+03	5.667178E-03	3.235756E-05
7.605850E+03	5.632150E-03	3.216214E-05
7.615805E+03	5.609619E-03	3.204446E-05
7.625760E+03	5.599529E-03	3.200420E-05
7.635716E+03	5.601490E-03	3.203927E-05
7.645671E+03	5.614933E-03	3.214660E-05
7.655626E+03	5.638761E-03	3.232022E-05
7.665582E+03	5.671783E-03	3.255364E-05
7.675537E+03	5.712736E-03	3.284004E-05
7.685492E+03	5.759809E-03	3.316945E-05
7.695447E+03	5.811217E-03	3.353205E-05
7.705403E+03	5.864698E-03	3.391525E-05
7.715358E+03	5.918357E-03	3.430847E-05
7.725313E+03	5.970190E-03	3.470047E-05
