#wls	flux	fluxerr
1.592848E+03	2.309427E-04	3.203905E-05
1.632669E+03	2.402601E-04	3.313098E-05
1.672491E+03	2.491258E-04	3.414060E-05
1.712312E+03	2.574489E-04	3.505606E-05
1.752133E+03	2.650563E-04	3.585482E-05
1.791954E+03	2.716158E-04	3.649359E-05
1.831775E+03	2.766885E-04	3.691622E-05
1.871597E+03	2.797824E-04	3.706129E-05
1.911418E+03	2.802998E-04	3.685558E-05
1.951239E+03	2.779390E-04	3.626720E-05
1.991060E+03	2.728318E-04	3.532189E-05
2.030881E+03	2.661938E-04	3.418444E-05
2.070703E+03	2.605138E-04	3.317695E-05
2.110524E+03	2.592671E-04	3.273549E-05
2.150345E+03	2.657863E-04	3.326260E-05
2.190166E+03	2.818696E-04	3.495479E-05
2.229987E+03	3.074603E-04	3.777124E-05
2.269809E+03	3.409426E-04	4.148030E-05
2.309630E+03	3.802785E-04	4.580587E-05
2.349451E+03	4.235687E-04	5.049724E-05
2.389272E+03	4.693600E-04	5.536503E-05
2.429093E+03	5.167785E-04	6.029423E-05
2.468915E+03	5.653216E-04	6.521685E-05
2.508736E+03	6.147347E-04	7.009557E-05
2.548557E+03	6.648143E-04	7.490000E-05
2.588378E+03	7.153588E-04	7.960094E-05
2.628199E+03	7.662404E-04	8.417828E-05
2.668021E+03	8.170946E-04	8.858692E-05
2.707842E+03	8.675825E-04	9.278654E-05
2.747663E+03	9.172210E-04	9.672366E-05
2.787484E+03	9.652984E-04	1.003240E-04
2.827305E+03	1.011290E-03	1.035370E-04
2.867127E+03	1.054454E-03	1.062938E-04
2.906948E+03	1.094207E-03	1.085464E-04
2.946769E+03	1.130160E-03	1.102701E-04
2.986590E+03	1.161770E-03	1.114283E-04
2.996546E+03	1.168973E-03	1.116297E-04
3.006501E+03	1.175845E-03	1.117917E-04
3.016456E+03	1.182440E-03	1.119196E-04
3.026411E+03	1.188726E-03	1.120109E-04
3.036367E+03	1.194800E-03	1.120750E-04
3.046322E+03	1.200726E-03	1.121181E-04
3.056277E+03	1.206494E-03	1.121394E-04
3.066233E+03	1.212096E-03	1.121383E-04
3.076188E+03	1.217459E-03	1.121084E-04
3.086143E+03	1.222578E-03	1.120495E-04
3.096099E+03	1.227453E-03	1.119618E-04
3.106054E+03	1.232048E-03	1.118424E-04
3.116009E+03	1.236334E-03	1.116890E-04
3.125964E+03	1.240345E-03	1.115051E-04
3.135920E+03	1.244021E-03	1.112857E-04
3.145875E+03	1.247340E-03	1.110290E-04
3.155830E+03	1.250369E-03	1.107418E-04
3.165786E+03	1.253027E-03	1.104172E-04
3.175741E+03	1.255356E-03	1.100592E-04
3.185696E+03	1.257310E-03	1.096644E-04
3.195652E+03	1.258933E-03	1.092370E-04
3.205607E+03	1.260212E-03	1.087765E-04
3.215562E+03	1.261138E-03	1.082824E-04
3.225517E+03	1.261730E-03	1.077570E-04
3.235473E+03	1.262011E-03	1.072026E-04
3.245428E+03	1.261950E-03	1.066169E-04
3.255383E+03	1.261572E-03	1.060028E-04
3.265339E+03	1.260881E-03	1.053608E-04
3.275294E+03	1.259904E-03	1.046937E-04
3.285249E+03	1.258648E-03	1.040025E-04
3.295205E+03	1.257122E-03	1.032883E-04
3.305160E+03	1.255360E-03	1.025543E-04
3.315115E+03	1.253328E-03	1.017981E-04
3.325070E+03	1.251113E-03	1.010270E-04
3.335026E+03	1.248684E-03	1.002390E-04
3.344981E+03	1.246064E-03	9.943615E-05
3.354936E+03	1.243298E-03	9.862226E-05
3.364892E+03	1.240388E-03	9.779788E-05
3.374847E+03	1.237343E-03	9.696382E-05
3.384802E+03	1.234195E-03	9.612280E-05
3.394758E+03	1.230958E-03	9.527610E-05
3.404713E+03	1.227688E-03	9.442825E-05
3.414668E+03	1.224369E-03	9.357805E-05
3.424623E+03	1.221047E-03	9.272901E-05
3.434579E+03	1.217751E-03	9.188346E-05
3.444534E+03	1.214499E-03	9.104265E-05
3.454489E+03	1.211330E-03	9.020954E-05
3.464445E+03	1.208289E-03	8.938734E-05
3.474400E+03	1.205409E-03	8.857831E-05
3.484355E+03	1.202713E-03	8.778393E-05
3.494311E+03	1.200264E-03	8.700845E-05
3.504266E+03	1.198113E-03	8.625522E-05
3.514221E+03	1.196301E-03	8.552685E-05
3.524176E+03	1.194894E-03	8.482743E-05
3.534132E+03	1.193962E-03	8.416130E-05
3.544087E+03	1.193578E-03	8.353302E-05
3.554042E+03	1.193810E-03	8.294635E-05
3.563998E+03	1.194741E-03	8.240615E-05
3.573953E+03	1.196442E-03	8.191628E-05
3.583908E+03	1.199025E-03	8.148318E-05
3.593864E+03	1.202558E-03	8.111006E-05
3.603819E+03	1.207120E-03	8.080074E-05
3.613774E+03	1.212775E-03	8.055801E-05
3.623729E+03	1.219605E-03	8.038550E-05
3.633685E+03	1.227692E-03	8.028678E-05
3.643640E+03	1.237121E-03	8.026542E-05
3.653595E+03	1.247991E-03	8.032578E-05
3.663551E+03	1.260393E-03	8.047129E-05
3.673506E+03	1.274440E-03	8.070682E-05
3.683461E+03	1.290223E-03	8.103542E-05
3.693417E+03	1.307867E-03	8.146228E-05
3.703372E+03	1.327472E-03	8.199051E-05
3.713327E+03	1.349133E-03	8.262282E-05
3.723282E+03	1.372963E-03	8.336289E-05
3.733238E+03	1.399056E-03	8.421293E-05
3.743193E+03	1.427496E-03	8.517430E-05
3.753148E+03	1.458352E-03	8.624738E-05
3.763104E+03	1.491706E-03	8.743307E-05
3.773059E+03	1.527577E-03	8.872853E-05
3.783014E+03	1.565988E-03	9.013102E-05
3.792970E+03	1.606951E-03	9.163705E-05
3.802925E+03	1.650381E-03	9.323786E-05
3.812880E+03	1.696232E-03	9.492682E-05
3.822835E+03	1.744373E-03	9.669273E-05
3.832791E+03	1.794617E-03	9.852169E-05
3.842746E+03	1.846766E-03	1.003995E-04
3.852701E+03	1.900529E-03	1.023073E-04
3.862657E+03	1.955579E-03	1.042252E-04
3.872612E+03	2.011510E-03	1.061296E-04
3.882567E+03	2.067907E-03	1.079975E-04
3.892523E+03	2.124245E-03	1.098008E-04
3.902478E+03	2.180019E-03	1.115139E-04
3.912433E+03	2.234655E-03	1.131086E-04
3.922388E+03	2.287583E-03	1.145582E-04
3.932344E+03	2.338239E-03	1.158377E-04
3.942299E+03	2.386032E-03	1.169216E-04
3.952254E+03	2.430453E-03	1.177901E-04
3.962210E+03	2.471071E-03	1.184280E-04
3.972165E+03	2.507444E-03	1.188205E-04
3.982120E+03	2.539327E-03	1.189631E-04
3.992076E+03	2.566471E-03	1.188517E-04
4.002031E+03	2.588821E-03	1.184916E-04
4.011986E+03	2.606391E-03	1.178912E-04
4.021941E+03	2.619314E-03	1.170643E-04
4.031897E+03	2.627818E-03	1.160287E-04
4.041852E+03	2.632256E-03	1.148070E-04
4.051807E+03	2.633018E-03	1.134227E-04
4.061763E+03	2.630623E-03	1.119040E-04
4.071718E+03	2.625576E-03	1.102774E-04
4.081673E+03	2.618431E-03	1.085701E-04
4.091629E+03	2.609761E-03	1.068094E-04
4.101584E+03	2.600155E-03	1.050215E-04
4.111539E+03	2.590169E-03	1.032302E-04
4.121494E+03	2.580311E-03	1.014562E-04
4.131450E+03	2.571097E-03	9.971961E-05
4.141405E+03	2.562977E-03	9.803670E-05
4.151360E+03	2.556338E-03	9.642047E-05
4.161316E+03	2.551574E-03	9.488342E-05
4.171271E+03	2.548950E-03	9.343236E-05
4.181226E+03	2.548726E-03	9.207357E-05
4.191182E+03	2.551118E-03	9.081107E-05
4.201137E+03	2.556235E-03	8.964479E-05
4.211092E+03	2.564152E-03	8.857323E-05
4.221047E+03	2.574908E-03	8.759359E-05
4.231003E+03	2.588444E-03	8.669966E-05
4.240958E+03	2.604708E-03	8.588571E-05
4.250913E+03	2.623558E-03	8.514319E-05
4.260869E+03	2.644781E-03	8.446167E-05
4.270824E+03	2.668210E-03	8.383256E-05
4.280779E+03	2.693560E-03	8.324408E-05
4.290735E+03	2.720564E-03	8.268565E-05
4.300690E+03	2.748968E-03	8.214762E-05
4.310645E+03	2.778501E-03	8.162037E-05
4.320601E+03	2.808912E-03	8.109559E-05
4.330556E+03	2.840016E-03	8.056725E-05
4.340511E+03	2.871616E-03	8.002948E-05
4.350466E+03	2.903638E-03	7.948016E-05
4.360422E+03	2.936062E-03	7.891882E-05
4.370377E+03	2.969007E-03	7.834880E-05
4.380332E+03	3.002832E-03	7.777936E-05
4.390288E+03	3.038288E-03	7.722919E-05
4.400243E+03	3.076194E-03	7.671721E-05
4.410198E+03	3.117464E-03	7.626325E-05
4.420154E+03	3.163023E-03	7.588572E-05
4.430109E+03	3.213824E-03	7.560211E-05
4.440064E+03	3.270783E-03	7.542752E-05
4.450019E+03	3.334767E-03	7.537436E-05
4.459975E+03	3.406477E-03	7.544998E-05
4.469930E+03	3.486521E-03	7.565822E-05
4.479885E+03	3.575320E-03	7.599820E-05
4.489841E+03	3.673006E-03	7.646253E-05
4.499796E+03	3.779550E-03	7.704061E-05
4.509751E+03	3.894526E-03	7.771433E-05
4.519707E+03	4.017275E-03	7.846209E-05
4.529662E+03	4.146687E-03	7.925517E-05
4.539617E+03	4.281382E-03	8.006194E-05
4.549572E+03	4.419537E-03	8.084531E-05
4.559528E+03	4.558986E-03	8.156527E-05
4.569483E+03	4.697321E-03	8.218131E-05
4.579438E+03	4.831828E-03	8.265167E-05
4.589394E+03	4.959686E-03	8.293713E-05
4.599349E+03	5.078048E-03	8.300238E-05
4.609304E+03	5.184082E-03	8.281657E-05
4.619260E+03	5.275386E-03	8.235947E-05
4.629215E+03	5.349804E-03	8.161782E-05
4.639170E+03	5.405723E-03	8.058905E-05
4.649125E+03	5.442091E-03	7.928044E-05
4.659081E+03	5.458510E-03	7.770925E-05
4.669036E+03	5.455272E-03	7.590215E-05
4.678991E+03	5.433381E-03	7.389421E-05
4.688947E+03	5.394368E-03	7.172534E-05
4.698902E+03	5.340378E-03	6.944064E-05
4.708857E+03	5.273828E-03	6.708525E-05
4.718813E+03	5.197501E-03	6.470525E-05
4.728768E+03	5.114302E-03	6.234444E-05
4.738723E+03	5.027050E-03	6.004187E-05
4.748678E+03	4.938391E-03	5.783135E-05
4.758634E+03	4.850493E-03	5.573829E-05
4.768589E+03	4.765537E-03	5.378614E-05
4.778544E+03	4.686602E-03	5.200645E-05
4.788500E+03	4.616341E-03	5.042391E-05
4.798455E+03	4.556628E-03	4.905341E-05
4.808410E+03	4.508978E-03	4.790540E-05
4.818366E+03	4.474330E-03	4.698425E-05
4.828321E+03	4.453280E-03	4.629116E-05
4.838276E+03	4.446070E-03	4.582349E-05
4.848231E+03	4.452625E-03	4.557271E-05
4.858187E+03	4.472553E-03	4.552724E-05
4.868142E+03	4.505133E-03	4.567321E-05
4.878097E+03	4.549357E-03	4.599471E-05
4.888053E+03	4.603773E-03	4.647208E-05
4.898008E+03	4.666631E-03	4.708320E-05
4.907963E+03	4.735704E-03	4.780147E-05
4.917919E+03	4.808519E-03	4.859790E-05
4.927874E+03	4.882142E-03	4.943870E-05
4.937829E+03	4.953414E-03	5.028750E-05
4.947784E+03	5.019289E-03	5.110855E-05
4.957740E+03	5.076568E-03	5.186407E-05
4.967695E+03	5.122693E-03	5.252223E-05
4.977650E+03	5.155455E-03	5.305438E-05
4.987606E+03	5.173540E-03	5.344086E-05
4.997561E+03	5.176416E-03	5.367005E-05
5.007516E+03	5.164582E-03	5.374132E-05
5.017472E+03	5.139168E-03	5.366111E-05
5.027427E+03	5.102169E-03	5.344556E-05
5.037382E+03	5.055868E-03	5.311471E-05
5.047337E+03	5.003006E-03	5.269421E-05
5.057293E+03	4.946245E-03	5.220976E-05
5.067248E+03	4.888148E-03	5.168667E-05
5.077203E+03	4.831196E-03	5.115005E-05
5.087159E+03	4.777419E-03	5.062061E-05
5.097114E+03	4.728583E-03	5.011657E-05
5.107069E+03	4.686098E-03	4.965252E-05
5.117025E+03	4.651254E-03	4.924181E-05
5.126980E+03	4.624963E-03	4.889371E-05
5.136935E+03	4.608140E-03	4.861736E-05
5.146890E+03	4.601555E-03	4.842015E-05
5.156846E+03	4.605862E-03	4.830795E-05
5.166801E+03	4.621724E-03	4.828642E-05
5.176756E+03	4.649607E-03	4.835880E-05
5.186712E+03	4.689873E-03	4.852688E-05
5.196667E+03	4.742667E-03	4.878985E-05
5.206622E+03	4.807918E-03	4.914440E-05
5.216578E+03	4.885075E-03	4.958214E-05
5.226533E+03	4.973348E-03	5.009226E-05
5.236488E+03	5.071440E-03	5.065898E-05
5.246443E+03	5.177702E-03	5.126351E-05
5.256399E+03	5.290021E-03	5.188315E-05
5.266354E+03	5.405761E-03	5.249110E-05
5.276309E+03	5.522155E-03	5.306073E-05
5.286265E+03	5.635957E-03	5.356240E-05
5.296220E+03	5.743948E-03	5.396867E-05
5.306175E+03	5.842797E-03	5.425313E-05
5.316131E+03	5.929401E-03	5.439364E-05
5.326086E+03	6.001070E-03	5.437393E-05
5.336041E+03	6.055482E-03	5.418295E-05
5.345996E+03	6.091212E-03	5.381922E-05
5.355952E+03	6.107585E-03	5.328896E-05
5.365907E+03	6.104980E-03	5.260810E-05
5.375862E+03	6.084815E-03	5.180131E-05
5.385818E+03	6.049483E-03	5.090088E-05
5.395773E+03	6.002387E-03	4.994623E-05
5.405728E+03	5.947730E-03	4.898179E-05
5.415684E+03	5.890235E-03	4.805434E-05
5.425639E+03	5.834995E-03	4.721183E-05
5.435594E+03	5.787067E-03	4.650030E-05
5.445549E+03	5.750953E-03	4.596028E-05
5.455505E+03	5.730034E-03	4.562287E-05
5.465460E+03	5.725428E-03	4.550142E-05
5.475415E+03	5.735279E-03	4.558638E-05
5.485371E+03	5.755945E-03	4.585352E-05
5.495326E+03	5.781156E-03	4.625143E-05
5.505281E+03	5.803104E-03	4.671316E-05
5.515237E+03	5.813801E-03	4.716803E-05
5.525192E+03	5.806254E-03	4.755022E-05
5.535147E+03	5.774966E-03	4.780266E-05
5.545102E+03	5.716588E-03	4.788273E-05
5.555058E+03	5.630157E-03	4.776532E-05
5.565013E+03	5.516881E-03	4.744253E-05
5.574968E+03	5.380013E-03	4.692415E-05
5.584924E+03	5.224563E-03	4.623696E-05
5.594879E+03	5.056428E-03	4.541853E-05
5.604834E+03	4.882025E-03	4.451486E-05
5.614790E+03	4.707951E-03	4.357797E-05
5.624745E+03	4.540219E-03	4.265895E-05
5.634700E+03	4.384351E-03	4.180853E-05
5.644655E+03	4.245021E-03	4.107317E-05
5.654611E+03	4.126060E-03	4.049436E-05
5.664566E+03	4.030442E-03	4.010768E-05
5.674521E+03	3.960539E-03	3.994458E-05
5.684477E+03	3.917945E-03	4.002984E-05
5.694432E+03	3.903880E-03	4.038505E-05
5.704387E+03	3.919096E-03	4.102720E-05
5.714343E+03	3.964164E-03	4.197112E-05
5.724298E+03	4.039262E-03	4.322705E-05
5.734253E+03	4.144287E-03	4.480139E-05
5.744209E+03	4.278940E-03	4.669739E-05
5.754164E+03	4.442366E-03	4.891104E-05
5.764119E+03	4.633205E-03	5.143124E-05
5.774074E+03	4.849421E-03	5.423771E-05
5.784030E+03	5.088250E-03	5.730019E-05
5.793985E+03	5.345957E-03	6.057553E-05
5.803940E+03	5.618048E-03	6.400992E-05
5.813896E+03	5.899169E-03	6.753787E-05
5.823851E+03	6.183304E-03	7.108452E-05
5.833806E+03	6.463925E-03	7.456779E-05
5.843762E+03	6.734553E-03	7.790512E-05
5.853717E+03	6.988735E-03	8.101386E-05
5.863672E+03	7.220400E-03	8.381590E-05
5.873627E+03	7.424402E-03	8.624455E-05
5.883583E+03	7.596515E-03	8.824498E-05
5.893538E+03	7.733784E-03	8.977870E-05
5.903493E+03	7.834340E-03	9.082168E-05
5.913449E+03	7.897778E-03	9.136883E-05
5.923404E+03	7.924919E-03	9.143116E-05
5.933359E+03	7.917508E-03	9.103211E-05
5.943315E+03	7.878413E-03	9.020948E-05
5.953270E+03	7.811254E-03	8.901078E-05
5.963225E+03	7.719993E-03	8.748807E-05
5.973180E+03	7.609198E-03	8.570049E-05
5.983136E+03	7.483368E-03	8.370617E-05
5.993091E+03	7.346936E-03	8.156192E-05
6.003046E+03	7.204195E-03	7.932208E-05
6.013002E+03	7.059094E-03	7.703605E-05
6.022957E+03	6.914943E-03	7.474494E-05
6.032912E+03	6.774902E-03	7.248694E-05
6.042868E+03	6.641247E-03	7.028937E-05
6.052823E+03	6.515888E-03	6.817453E-05
6.062778E+03	6.400311E-03	6.615914E-05
6.072733E+03	6.295189E-03	6.425064E-05
6.082689E+03	6.201169E-03	6.245560E-05
6.092644E+03	6.118269E-03	6.077375E-05
6.102599E+03	6.046214E-03	5.920179E-05
6.112555E+03	5.984341E-03	5.773264E-05
6.122510E+03	5.931747E-03	5.635729E-05
6.132465E+03	5.887183E-03	5.506400E-05
6.142421E+03	5.849222E-03	5.384020E-05
6.152376E+03	5.816070E-03	5.267094E-05
6.162331E+03	5.785775E-03	5.154110E-05
6.172286E+03	5.756529E-03	5.043812E-05
6.182242E+03	5.726135E-03	4.934737E-05
6.192197E+03	5.692877E-03	4.825962E-05
6.202152E+03	5.654884E-03	4.716543E-05
6.212108E+03	5.610707E-03	4.605952E-05
6.222063E+03	5.560100E-03	4.494432E-05
6.232018E+03	5.504975E-03	4.383761E-05
6.241974E+03	5.447317E-03	4.275680E-05
6.251929E+03	5.389438E-03	4.172098E-05
6.261884E+03	5.333300E-03	4.074576E-05
6.271839E+03	5.280884E-03	3.984636E-05
6.281795E+03	5.233889E-03	3.903551E-05
6.291750E+03	5.193826E-03	3.832445E-05
6.301705E+03	5.161889E-03	3.772219E-05
6.311661E+03	5.138811E-03	3.723468E-05
6.321616E+03	5.125214E-03	3.686764E-05
6.331571E+03	5.121115E-03	3.662312E-05
6.341527E+03	5.126542E-03	3.650406E-05
6.351482E+03	5.141124E-03	3.651140E-05
6.361437E+03	5.164195E-03	3.664486E-05
6.371392E+03	5.195146E-03	3.690536E-05
6.381348E+03	5.233010E-03	3.729191E-05
6.391303E+03	5.277202E-03	3.780681E-05
6.401258E+03	5.326634E-03	3.844906E-05
6.411214E+03	5.380589E-03	3.922046E-05
6.421169E+03	5.437982E-03	4.011998E-05
6.431124E+03	5.498062E-03	4.114864E-05
6.441080E+03	5.559968E-03	4.230287E-05
6.451035E+03	5.622854E-03	4.357349E-05
6.460990E+03	5.685819E-03	4.494945E-05
6.470945E+03	5.747883E-03	4.641799E-05
6.480901E+03	5.807800E-03	4.796308E-05
6.490856E+03	5.864287E-03	4.956715E-05
6.500811E+03	5.915297E-03	5.120470E-05
6.510767E+03	5.960988E-03	5.286791E-05
6.520722E+03	6.004408E-03	5.457521E-05
6.530677E+03	6.048344E-03	5.634531E-05
6.540633E+03	6.095033E-03	5.819442E-05
6.550588E+03	6.145761E-03	6.013182E-05
6.560543E+03	6.201316E-03	6.216335E-05
6.570498E+03	6.261864E-03	6.428956E-05
6.580454E+03	6.326792E-03	6.650321E-05
6.590409E+03	6.394636E-03	6.878761E-05
6.600364E+03	6.463758E-03	7.112287E-05
6.610320E+03	6.531680E-03	7.347821E-05
6.620275E+03	6.596033E-03	7.582181E-05
6.630230E+03	6.653794E-03	7.811202E-05
6.640186E+03	6.702623E-03	8.031259E-05
6.650141E+03	6.739863E-03	8.238133E-05
6.660096E+03	6.763548E-03	8.428245E-05
6.670051E+03	6.771876E-03	8.598063E-05
6.680007E+03	6.764155E-03	8.745373E-05
6.689962E+03	6.739649E-03	8.867878E-05
6.699917E+03	6.698785E-03	8.964825E-05
6.709873E+03	6.642337E-03	9.036031E-05
6.719828E+03	6.571385E-03	9.081857E-05
6.729783E+03	6.487870E-03	9.104026E-05
6.739739E+03	6.393750E-03	9.104499E-05
6.749694E+03	6.291436E-03	9.086112E-05
6.759649E+03	6.183165E-03	9.051676E-05
6.769604E+03	6.071655E-03	9.004934E-05
6.779560E+03	5.959385E-03	8.949509E-05
6.789515E+03	5.848661E-03	8.888958E-05
6.799470E+03	5.741742E-03	8.826949E-05
6.809426E+03	5.640721E-03	8.767052E-05
6.819381E+03	5.547667E-03	8.712927E-05
6.829336E+03	5.463937E-03	8.667231E-05
6.839292E+03	5.391132E-03	8.633066E-05
6.849247E+03	5.330392E-03	8.612860E-05
6.859202E+03	5.282520E-03	8.608517E-05
6.869157E+03	5.248231E-03	8.621803E-05
6.879113E+03	5.227873E-03	8.653864E-05
6.889068E+03	5.221427E-03	8.705202E-05
6.899023E+03	5.228758E-03	8.776077E-05
6.908979E+03	5.249334E-03	8.866017E-05
6.918934E+03	5.282205E-03	8.973773E-05
6.928889E+03	5.326380E-03	9.097936E-05
6.938845E+03	5.380150E-03	9.235787E-05
6.948800E+03	5.441885E-03	9.384648E-05
6.958755E+03	5.509274E-03	9.540577E-05
6.968710E+03	5.580183E-03	9.699853E-05
6.978666E+03	5.651917E-03	9.857708E-05
6.988621E+03	5.722148E-03	1.000995E-04
6.998576E+03	5.788291E-03	1.015188E-04
7.008532E+03	5.848043E-03	1.027930E-04
7.018487E+03	5.899512E-03	1.038869E-04
7.028442E+03	5.940962E-03	1.047684E-04
7.038398E+03	5.971239E-03	1.054158E-04
7.048353E+03	5.989812E-03	1.058188E-04
7.058308E+03	5.996554E-03	1.059747E-04
7.068263E+03	5.991724E-03	1.058883E-04
7.078219E+03	5.976252E-03	1.055764E-04
7.088174E+03	5.951323E-03	1.050609E-04
7.098129E+03	5.918390E-03	1.043690E-04
7.108085E+03	5.878972E-03	1.035288E-04
7.118040E+03	5.835001E-03	1.025762E-04
7.127995E+03	5.788033E-03	1.015403E-04
7.137951E+03	5.739641E-03	1.004505E-04
7.147906E+03	5.691318E-03	9.933454E-05
7.157861E+03	5.644104E-03	9.821212E-05
7.167817E+03	5.598877E-03	9.709983E-05
7.177772E+03	5.556468E-03	9.601327E-05
7.187727E+03	5.516854E-03	9.495302E-05
7.197682E+03	5.480423E-03	9.392671E-05
7.207638E+03	5.446887E-03	9.293021E-05
7.217593E+03	5.415773E-03	9.195631E-05
7.227548E+03	5.386702E-03	9.099946E-05
7.237504E+03	5.359221E-03	9.005306E-05
7.247459E+03	5.332655E-03	8.910684E-05
7.257414E+03	5.306364E-03	8.815143E-05
7.267370E+03	5.280153E-03	8.718508E-05
7.277325E+03	5.253615E-03	8.620262E-05
7.287280E+03	5.226612E-03	8.520351E-05
7.297235E+03	5.199265E-03	8.419146E-05
7.307191E+03	5.171378E-03	8.316507E-05
7.317146E+03	5.143537E-03	8.213555E-05
7.327101E+03	5.115822E-03	8.110585E-05
7.337057E+03	5.088551E-03	8.008259E-05
7.347012E+03	5.062011E-03	7.907185E-05
7.356967E+03	5.036282E-03	7.807630E-05
7.366923E+03	5.011449E-03	7.709868E-05
7.376878E+03	4.987446E-03	7.613939E-05
7.386833E+03	4.963944E-03	7.519487E-05
7.396788E+03	4.940561E-03	7.426093E-05
7.406744E+03	4.916680E-03	7.333000E-05
7.416699E+03	4.892024E-03	7.239986E-05
7.426654E+03	4.865692E-03	7.145916E-05
7.436610E+03	4.837224E-03	7.050341E-05
7.446565E+03	4.805995E-03	6.952580E-05
7.456520E+03	4.771596E-03	6.852266E-05
7.466476E+03	4.733558E-03	6.748792E-05
7.476431E+03	4.691843E-03	6.642077E-05
7.486386E+03	4.646644E-03	6.532357E-05
7.496341E+03	4.598074E-03	6.419751E-05
7.506297E+03	4.547017E-03	6.305442E-05
7.516252E+03	4.494005E-03	6.190099E-05
7.526207E+03	4.439938E-03	6.074876E-05
7.536163E+03	4.386008E-03	5.961303E-05
7.546118E+03	4.332992E-03	5.850313E-05
7.556073E+03	4.281814E-03	5.743017E-05
7.566029E+03	4.233486E-03	5.640622E-05
7.575984E+03	4.188385E-03	5.543471E-05
7.585939E+03	4.147001E-03	5.452051E-05
7.595894E+03	4.110349E-03	5.367528E-05
7.605850E+03	4.079241E-03	5.290783E-05
7.615805E+03	4.054094E-03	5.222162E-05
7.625760E+03	4.035272E-03	5.161947E-05
7.635716E+03	4.022824E-03	5.110011E-05
7.645671E+03	4.016403E-03	5.065738E-05
7.655626E+03	4.016000E-03	5.028956E-05
7.665582E+03	4.020839E-03	4.998553E-05
7.675537E+03	4.030636E-03	4.974061E-05
7.685492E+03	4.044371E-03	4.954136E-05
7.695447E+03	4.061574E-03	4.938152E-05
7.705403E+03	4.081207E-03	4.924830E-05
7.715358E+03	4.102428E-03	4.913182E-05
7.725313E+03	4.124647E-03	4.902567E-05
