#wls	flux	fluxerr
1.592848E+03	2.126044E-04	1.482244E-05
1.632669E+03	2.188869E-04	1.521810E-05
1.672491E+03	2.244722E-04	1.556183E-05
1.712312E+03	2.293325E-04	1.585201E-05
1.752133E+03	2.332631E-04	1.607489E-05
1.791954E+03	2.360772E-04	1.621813E-05
1.831775E+03	2.373746E-04	1.625495E-05
1.871597E+03	2.368115E-04	1.616286E-05
1.911418E+03	2.340246E-04	1.591840E-05
1.951239E+03	2.288194E-04	1.550992E-05
1.991060E+03	2.214433E-04	1.495596E-05
2.030881E+03	2.129636E-04	1.433001E-05
2.070703E+03	2.054164E-04	1.376952E-05
2.110524E+03	2.014409E-04	1.345011E-05
2.150345E+03	2.034004E-04	1.352618E-05
2.190166E+03	2.123849E-04	1.406507E-05
2.229987E+03	2.278945E-04	1.502777E-05
2.269809E+03	2.483479E-04	1.630461E-05
2.309630E+03	2.718579E-04	1.776748E-05
2.349451E+03	2.968064E-04	1.930790E-05
2.389272E+03	3.220576E-04	2.085043E-05
2.429093E+03	3.469184E-04	2.234957E-05
2.468915E+03	3.709265E-04	2.377546E-05
2.508736E+03	3.938680E-04	2.511471E-05
2.548557E+03	4.156154E-04	2.635973E-05
2.588378E+03	4.360699E-04	2.750497E-05
2.628199E+03	4.550504E-04	2.853989E-05
2.668021E+03	4.724814E-04	2.946086E-05
2.707842E+03	4.881904E-04	3.025842E-05
2.747663E+03	5.020711E-04	3.092751E-05
2.787484E+03	5.138925E-04	3.145569E-05
2.827305E+03	5.235467E-04	3.183846E-05
2.867127E+03	5.307910E-04	3.206345E-05
2.906948E+03	5.354953E-04	3.212558E-05
2.946769E+03	5.377121E-04	3.203096E-05
2.986590E+03	5.374327E-04	3.178214E-05
2.996546E+03	5.370198E-04	3.169899E-05
3.006501E+03	5.364479E-04	3.160627E-05
3.016456E+03	5.357497E-04	3.150595E-05
3.026411E+03	5.349360E-04	3.139871E-05
3.036367E+03	5.340428E-04	3.128670E-05
3.046322E+03	5.330764E-04	3.117031E-05
3.056277E+03	5.320857E-04	3.105243E-05
3.066233E+03	5.310594E-04	3.093240E-05
3.076188E+03	5.299299E-04	3.080632E-05
3.086143E+03	5.287485E-04	3.067718E-05
3.096099E+03	5.275077E-04	3.054458E-05
3.106054E+03	5.262021E-04	3.040823E-05
3.116009E+03	5.248268E-04	3.026787E-05
3.125964E+03	5.233786E-04	3.012333E-05
3.135920E+03	5.218548E-04	2.997451E-05
3.145875E+03	5.202803E-04	2.982284E-05
3.155830E+03	5.186535E-04	2.966826E-05
3.165786E+03	5.169482E-04	2.950930E-05
3.175741E+03	5.152158E-04	2.934891E-05
3.185696E+03	5.134316E-04	2.918570E-05
3.195652E+03	5.115971E-04	2.901978E-05
3.205607E+03	5.097390E-04	2.885267E-05
3.215562E+03	5.078822E-04	2.868581E-05
3.225517E+03	5.059827E-04	2.851671E-05
3.235473E+03	5.040899E-04	2.834816E-05
3.245428E+03	5.021846E-04	2.817910E-05
3.255383E+03	5.003151E-04	2.801224E-05
3.265339E+03	4.984630E-04	2.784652E-05
3.275294E+03	4.966326E-04	2.768220E-05
3.285249E+03	4.948498E-04	2.752070E-05
3.295205E+03	4.931194E-04	2.736229E-05
3.305160E+03	4.914663E-04	2.720831E-05
3.315115E+03	4.898759E-04	2.705795E-05
3.325070E+03	4.883929E-04	2.691363E-05
3.335026E+03	4.870031E-04	2.677454E-05
3.344981E+03	4.857316E-04	2.664203E-05
3.354936E+03	4.845660E-04	2.651537E-05
3.364892E+03	4.835680E-04	2.639789E-05
3.374847E+03	4.827077E-04	2.628790E-05
3.384802E+03	4.820104E-04	2.618672E-05
3.394758E+03	4.815009E-04	2.609564E-05
3.404713E+03	4.811869E-04	2.601499E-05
3.414668E+03	4.810766E-04	2.594515E-05
3.424623E+03	4.811962E-04	2.588743E-05
3.434579E+03	4.815545E-04	2.584223E-05
3.444534E+03	4.821776E-04	2.581085E-05
3.454489E+03	4.830451E-04	2.579207E-05
3.464445E+03	4.842157E-04	2.578895E-05
3.474400E+03	4.856863E-04	2.580118E-05
3.484355E+03	4.874704E-04	2.582935E-05
3.494311E+03	4.895974E-04	2.587489E-05
3.504266E+03	4.920683E-04	2.593771E-05
3.514221E+03	4.949142E-04	2.601930E-05
3.524176E+03	4.981386E-04	2.611968E-05
3.534132E+03	5.017610E-04	2.623970E-05
3.544087E+03	5.057735E-04	2.637880E-05
3.554042E+03	5.102128E-04	2.653870E-05
3.563998E+03	5.150886E-04	2.671972E-05
3.573953E+03	5.203980E-04	2.692152E-05
3.583908E+03	5.261677E-04	2.714530E-05
3.593864E+03	5.324120E-04	2.739157E-05
3.603819E+03	5.391597E-04	2.766161E-05
3.613774E+03	5.464138E-04	2.795534E-05
3.623729E+03	5.542054E-04	2.827413E-05
3.633685E+03	5.625526E-04	2.861865E-05
3.643640E+03	5.714876E-04	2.899027E-05
3.653595E+03	5.810155E-04	2.938901E-05
3.663551E+03	5.911958E-04	2.981757E-05
3.673506E+03	6.020203E-04	3.027525E-05
3.683461E+03	6.135211E-04	3.076337E-05
3.693417E+03	6.257425E-04	3.128382E-05
3.703372E+03	6.386874E-04	3.183640E-05
3.713327E+03	6.523845E-04	3.242223E-05
3.723282E+03	6.668737E-04	3.304290E-05
3.733238E+03	6.821526E-04	3.369794E-05
3.743193E+03	6.982420E-04	3.438799E-05
3.753148E+03	7.151600E-04	3.511355E-05
3.763104E+03	7.329209E-04	3.587494E-05
3.773059E+03	7.515193E-04	3.667149E-05
3.783014E+03	7.709592E-04	3.750298E-05
3.792970E+03	7.912237E-04	3.836819E-05
3.802925E+03	8.123179E-04	3.926697E-05
3.812880E+03	8.342101E-04	4.019738E-05
3.822835E+03	8.568753E-04	4.115783E-05
3.832791E+03	8.802486E-04	4.214483E-05
3.842746E+03	9.043162E-04	4.315737E-05
3.852701E+03	9.290085E-04	4.419180E-05
3.862657E+03	9.542607E-04	4.524471E-05
3.872612E+03	9.799648E-04	4.631072E-05
3.882567E+03	1.006066E-03	4.738702E-05
3.892523E+03	1.032434E-03	4.846725E-05
3.902478E+03	1.058976E-03	4.954696E-05
3.912433E+03	1.085557E-03	5.061972E-05
3.922388E+03	1.112031E-03	5.167875E-05
3.932344E+03	1.138299E-03	5.271939E-05
3.942299E+03	1.164165E-03	5.373275E-05
3.952254E+03	1.189516E-03	5.471382E-05
3.962210E+03	1.214185E-03	5.565509E-05
3.972165E+03	1.237999E-03	5.654904E-05
3.982120E+03	1.260824E-03	5.738993E-05
3.992076E+03	1.282474E-03	5.816978E-05
4.002031E+03	1.302842E-03	5.888435E-05
4.011986E+03	1.321759E-03	5.952657E-05
4.021941E+03	1.339107E-03	6.009188E-05
4.031897E+03	1.354808E-03	6.057755E-05
4.041852E+03	1.368754E-03	6.097956E-05
4.051807E+03	1.380928E-03	6.129797E-05
4.061763E+03	1.391307E-03	6.153268E-05
4.071718E+03	1.399923E-03	6.168597E-05
4.081673E+03	1.406842E-03	6.176158E-05
4.091629E+03	1.412159E-03	6.176450E-05
4.101584E+03	1.415957E-03	6.169919E-05
4.111539E+03	1.418414E-03	6.157408E-05
4.121494E+03	1.419648E-03	6.139495E-05
4.131450E+03	1.419840E-03	6.117023E-05
4.141405E+03	1.419120E-03	6.090607E-05
4.151360E+03	1.417676E-03	6.061089E-05
4.161316E+03	1.415673E-03	6.029213E-05
4.171271E+03	1.413255E-03	5.995617E-05
4.181226E+03	1.410559E-03	5.960906E-05
4.191182E+03	1.407769E-03	5.925866E-05
4.201137E+03	1.404969E-03	5.890862E-05
4.211092E+03	1.402325E-03	5.856583E-05
4.221047E+03	1.399921E-03	5.823377E-05
4.231003E+03	1.397885E-03	5.791761E-05
4.240958E+03	1.396302E-03	5.762067E-05
4.250913E+03	1.395282E-03	5.734735E-05
4.260869E+03	1.394899E-03	5.710035E-05
4.270824E+03	1.395222E-03	5.688219E-05
4.280779E+03	1.396385E-03	5.669801E-05
4.290735E+03	1.398424E-03	5.654884E-05
4.300690E+03	1.401458E-03	5.643908E-05
4.310645E+03	1.405573E-03	5.637171E-05
4.320601E+03	1.410869E-03	5.635016E-05
4.330556E+03	1.417446E-03	5.637784E-05
4.340511E+03	1.425370E-03	5.645684E-05
4.350466E+03	1.434779E-03	5.659188E-05
4.360422E+03	1.445766E-03	5.678589E-05
4.370377E+03	1.458465E-03	5.704342E-05
4.380332E+03	1.473011E-03	5.736886E-05
4.390288E+03	1.489568E-03	5.776767E-05
4.400243E+03	1.508272E-03	5.824421E-05
4.410198E+03	1.529311E-03	5.880460E-05
4.420154E+03	1.552795E-03	5.945196E-05
4.430109E+03	1.578865E-03	6.019054E-05
4.440064E+03	1.607586E-03	6.102152E-05
4.450019E+03	1.639024E-03	6.194618E-05
4.459975E+03	1.673197E-03	6.296390E-05
4.469930E+03	1.710102E-03	6.407325E-05
4.479885E+03	1.749634E-03	6.526907E-05
4.489841E+03	1.791715E-03	6.654719E-05
4.499796E+03	1.836149E-03	6.789924E-05
4.509751E+03	1.882677E-03	6.931456E-05
4.519707E+03	1.931008E-03	7.078160E-05
4.529662E+03	1.980740E-03	7.228482E-05
4.539617E+03	2.031394E-03	7.380630E-05
4.549572E+03	2.082471E-03	7.532759E-05
4.559528E+03	2.133324E-03	7.682529E-05
4.569483E+03	2.183374E-03	7.827883E-05
4.579438E+03	2.231897E-03	7.966292E-05
4.589394E+03	2.278234E-03	8.095492E-05
4.599349E+03	2.321704E-03	8.213193E-05
4.609304E+03	2.361680E-03	8.317330E-05
4.619260E+03	2.397503E-03	8.405769E-05
4.629215E+03	2.428638E-03	8.476852E-05
4.639170E+03	2.454602E-03	8.529124E-05
4.649125E+03	2.474970E-03	8.561376E-05
4.659081E+03	2.489442E-03	8.572834E-05
4.669036E+03	2.497837E-03	8.563167E-05
4.678991E+03	2.500105E-03	8.532489E-05
4.688947E+03	2.496337E-03	8.481398E-05
4.698902E+03	2.486777E-03	8.411000E-05
4.708857E+03	2.471842E-03	8.322970E-05
4.718813E+03	2.452090E-03	8.219421E-05
4.728768E+03	2.428237E-03	8.102964E-05
4.738723E+03	2.401078E-03	7.976424E-05
4.748678E+03	2.371475E-03	7.842797E-05
4.758634E+03	2.340387E-03	7.705353E-05
4.768589E+03	2.308759E-03	7.567246E-05
4.778544E+03	2.277557E-03	7.431654E-05
4.788500E+03	2.247677E-03	7.301462E-05
4.798455E+03	2.219998E-03	7.179457E-05
4.808410E+03	2.195299E-03	7.068044E-05
4.818366E+03	2.174234E-03	6.969191E-05
4.828321E+03	2.157365E-03	6.884533E-05
4.838276E+03	2.145115E-03	6.815237E-05
4.848231E+03	2.137815E-03	6.762154E-05
4.858187E+03	2.135638E-03	6.725608E-05
4.868142E+03	2.138703E-03	6.705760E-05
4.878097E+03	2.146949E-03	6.702195E-05
4.888053E+03	2.160210E-03	6.714187E-05
4.898008E+03	2.178213E-03	6.740683E-05
4.907963E+03	2.200472E-03	6.779999E-05
4.917919E+03	2.226450E-03	6.830315E-05
4.927874E+03	2.255312E-03	6.888934E-05
4.937829E+03	2.286193E-03	6.953118E-05
4.947784E+03	2.317936E-03	7.019280E-05
4.957740E+03	2.349389E-03	7.083924E-05
4.967695E+03	2.379332E-03	7.143398E-05
4.977650E+03	2.406568E-03	7.194188E-05
4.987606E+03	2.430069E-03	7.233342E-05
4.997561E+03	2.449045E-03	7.258659E-05
5.007516E+03	2.463060E-03	7.269031E-05
5.017472E+03	2.471967E-03	7.264210E-05
5.027427E+03	2.475947E-03	7.244920E-05
5.037382E+03	2.475489E-03	7.212768E-05
5.047337E+03	2.471247E-03	7.169811E-05
5.057293E+03	2.464028E-03	7.118521E-05
5.067248E+03	2.454701E-03	7.061501E-05
5.077203E+03	2.444136E-03	7.001319E-05
5.087159E+03	2.433168E-03	6.940393E-05
5.097114E+03	2.422567E-03	6.880925E-05
5.107069E+03	2.412950E-03	6.824638E-05
5.117025E+03	2.404911E-03	6.773168E-05
5.126980E+03	2.398958E-03	6.727880E-05
5.136935E+03	2.395447E-03	6.689690E-05
5.146890E+03	2.394755E-03	6.659556E-05
5.156846E+03	2.397153E-03	6.638130E-05
5.166801E+03	2.402927E-03	6.626086E-05
5.176756E+03	2.412294E-03	6.623907E-05
5.186712E+03	2.425399E-03	6.631862E-05
5.196667E+03	2.442385E-03	6.650210E-05
5.206622E+03	2.463288E-03	6.678918E-05
5.216578E+03	2.488100E-03	6.717833E-05
5.226533E+03	2.516672E-03	6.766423E-05
5.236488E+03	2.548839E-03	6.824121E-05
5.246443E+03	2.584348E-03	6.890138E-05
5.256399E+03	2.622787E-03	6.963271E-05
5.266354E+03	2.663734E-03	7.042312E-05
5.276309E+03	2.706638E-03	7.125732E-05
5.286265E+03	2.750914E-03	7.211939E-05
5.296220E+03	2.795955E-03	7.299313E-05
5.306175E+03	2.841072E-03	7.386045E-05
5.316131E+03	2.885607E-03	7.470436E-05
5.326086E+03	2.928902E-03	7.550815E-05
5.336041E+03	2.970410E-03	7.625828E-05
5.345996E+03	3.009592E-03	7.694162E-05
5.355952E+03	3.046024E-03	7.754823E-05
5.365907E+03	3.079254E-03	7.806759E-05
5.375862E+03	3.108969E-03	7.849288E-05
5.385818E+03	3.134878E-03	7.881801E-05
5.395773E+03	3.156736E-03	7.903808E-05
5.405728E+03	3.174299E-03	7.914836E-05
5.415684E+03	3.187390E-03	7.914585E-05
5.425639E+03	3.195891E-03	7.902909E-05
5.435594E+03	3.199594E-03	7.879441E-05
5.445549E+03	3.198380E-03	7.844039E-05
5.455505E+03	3.192059E-03	7.796392E-05
5.465460E+03	3.180328E-03	7.735923E-05
5.475415E+03	3.162779E-03	7.661807E-05
5.485371E+03	3.138898E-03	7.572979E-05
5.495326E+03	3.108065E-03	7.468134E-05
5.505281E+03	3.069837E-03	7.346405E-05
5.515237E+03	3.023834E-03	7.207089E-05
5.525192E+03	2.970023E-03	7.050317E-05
5.535147E+03	2.908661E-03	6.876909E-05
5.545102E+03	2.840347E-03	6.688474E-05
5.555058E+03	2.766021E-03	6.487399E-05
5.565013E+03	2.686946E-03	6.276784E-05
5.574968E+03	2.604595E-03	6.060175E-05
5.584924E+03	2.520632E-03	5.841501E-05
5.594879E+03	2.436865E-03	5.624964E-05
5.604834E+03	2.355017E-03	5.414505E-05
5.614790E+03	2.276851E-03	5.214091E-05
5.624745E+03	2.203917E-03	5.027145E-05
5.634700E+03	2.137711E-03	4.856910E-05
5.644655E+03	2.079516E-03	4.706095E-05
5.654611E+03	2.030425E-03	4.576944E-05
5.664566E+03	1.991423E-03	4.471414E-05
5.674521E+03	1.963329E-03	4.391062E-05
5.684477E+03	1.946916E-03	4.337320E-05
5.694432E+03	1.942792E-03	4.311226E-05
5.704387E+03	1.951582E-03	4.313844E-05
5.714343E+03	1.973800E-03	4.345967E-05
5.724298E+03	2.009806E-03	4.408045E-05
5.734253E+03	2.059954E-03	4.500500E-05
5.744209E+03	2.124472E-03	4.623480E-05
5.754164E+03	2.203465E-03	4.776857E-05
5.764119E+03	2.296851E-03	4.960098E-05
5.774074E+03	2.404251E-03	5.172050E-05
5.784030E+03	2.525009E-03	5.410973E-05
5.793985E+03	2.657945E-03	5.674040E-05
5.803940E+03	2.801528E-03	5.957720E-05
5.813896E+03	2.953679E-03	6.257378E-05
5.823851E+03	3.111886E-03	6.567534E-05
5.833806E+03	3.273135E-03	6.881741E-05
5.843762E+03	3.434112E-03	7.193019E-05
5.853717E+03	3.591167E-03	7.493795E-05
5.863672E+03	3.740585E-03	7.776480E-05
5.873627E+03	3.878689E-03	8.033673E-05
5.883583E+03	4.002009E-03	8.258513E-05
5.893538E+03	4.107615E-03	8.445357E-05
5.903493E+03	4.193264E-03	8.590045E-05
5.913449E+03	4.257373E-03	8.689830E-05
5.923404E+03	4.299369E-03	8.744051E-05
5.933359E+03	4.319610E-03	8.753949E-05
5.943315E+03	4.319130E-03	8.722101E-05
5.953270E+03	4.299825E-03	8.652787E-05
5.963225E+03	4.263921E-03	8.550879E-05
5.973180E+03	4.214162E-03	8.422212E-05
5.983136E+03	4.153301E-03	8.272558E-05
5.993091E+03	4.084076E-03	8.107573E-05
6.003046E+03	4.009184E-03	7.932758E-05
6.013002E+03	3.931067E-03	7.753029E-05
6.022957E+03	3.851661E-03	7.572248E-05
6.032912E+03	3.772788E-03	7.393995E-05
6.042868E+03	3.695808E-03	7.220906E-05
6.052823E+03	3.621786E-03	7.055010E-05
6.062778E+03	3.551463E-03	6.897680E-05
6.072733E+03	3.485428E-03	6.749982E-05
6.082689E+03	3.423948E-03	6.612349E-05
6.092644E+03	3.367212E-03	6.485059E-05
6.102599E+03	3.315329E-03	6.368239E-05
6.112555E+03	3.268178E-03	6.261578E-05
6.122510E+03	3.225799E-03	6.165071E-05
6.132465E+03	3.187991E-03	6.078267E-05
6.142421E+03	3.154600E-03	6.000806E-05
6.152376E+03	3.125508E-03	5.932407E-05
6.162331E+03	3.100486E-03	5.872581E-05
6.172286E+03	3.079266E-03	5.820778E-05
6.182242E+03	3.061558E-03	5.776411E-05
6.192197E+03	3.047087E-03	5.738935E-05
6.202152E+03	3.035562E-03	5.707772E-05
6.212108E+03	3.026592E-03	5.682175E-05
6.222063E+03	3.019877E-03	5.661551E-05
6.232018E+03	3.014849E-03	5.644814E-05
6.241974E+03	3.011146E-03	5.631269E-05
6.251929E+03	3.008340E-03	5.620099E-05
6.261884E+03	3.006024E-03	5.610537E-05
6.271839E+03	3.003929E-03	5.602072E-05
6.281795E+03	3.001783E-03	5.594191E-05
6.291750E+03	2.999486E-03	5.586701E-05
6.301705E+03	2.996860E-03	5.579272E-05
6.311661E+03	2.993886E-03	5.571858E-05
6.321616E+03	2.990566E-03	5.564460E-05
6.331571E+03	2.986940E-03	5.557146E-05
6.341527E+03	2.983036E-03	5.549962E-05
6.351482E+03	2.978943E-03	5.543067E-05
6.361437E+03	2.974746E-03	5.536614E-05
6.371392E+03	2.970489E-03	5.530675E-05
6.381348E+03	2.966273E-03	5.525434E-05
6.391303E+03	2.962047E-03	5.520785E-05
6.401258E+03	2.957928E-03	5.516944E-05
6.411214E+03	2.953861E-03	5.513798E-05
6.421169E+03	2.949958E-03	5.511554E-05
6.431124E+03	2.946250E-03	5.510259E-05
6.441080E+03	2.942917E-03	5.510246E-05
6.451035E+03	2.940100E-03	5.511775E-05
6.460990E+03	2.938010E-03	5.515219E-05
6.470945E+03	2.936878E-03	5.520993E-05
6.480901E+03	2.937003E-03	5.529642E-05
6.490856E+03	2.938630E-03	5.541612E-05
6.500811E+03	2.942218E-03	5.557759E-05
6.510767E+03	2.948131E-03	5.578767E-05
6.520722E+03	2.956958E-03	5.605752E-05
6.530677E+03	2.969152E-03	5.639582E-05
6.540633E+03	2.985034E-03	5.680889E-05
6.550588E+03	3.004764E-03	5.729994E-05
6.560543E+03	3.028220E-03	5.786691E-05
6.570498E+03	3.055020E-03	5.850278E-05
6.580454E+03	3.084579E-03	5.919654E-05
6.590409E+03	3.116050E-03	5.993206E-05
6.600364E+03	3.148407E-03	6.068965E-05
6.610320E+03	3.180543E-03	6.144785E-05
6.620275E+03	3.211203E-03	6.218216E-05
6.630230E+03	3.239211E-03	6.286937E-05
6.640186E+03	3.263405E-03	6.348631E-05
6.650141E+03	3.282788E-03	6.401283E-05
6.660096E+03	3.296392E-03	6.442914E-05
6.670051E+03	3.303631E-03	6.472274E-05
6.680007E+03	3.304066E-03	6.488392E-05
6.689962E+03	3.297446E-03	6.490658E-05
6.699917E+03	3.283844E-03	6.479097E-05
6.709873E+03	3.263513E-03	6.454091E-05
6.719828E+03	3.236899E-03	6.416411E-05
6.729783E+03	3.204579E-03	6.367098E-05
6.739739E+03	3.167408E-03	6.307762E-05
6.749694E+03	3.126182E-03	6.239906E-05
6.759649E+03	3.081972E-03	6.165607E-05
6.769604E+03	3.035749E-03	6.086756E-05
6.779560E+03	2.988705E-03	6.005715E-05
6.789515E+03	2.941916E-03	5.924628E-05
6.799470E+03	2.896498E-03	5.845746E-05
6.809426E+03	2.853538E-03	5.771278E-05
6.819381E+03	2.814084E-03	5.703374E-05
6.829336E+03	2.778973E-03	5.643774E-05
6.839292E+03	2.749115E-03	5.594382E-05
6.849247E+03	2.725190E-03	5.556642E-05
6.859202E+03	2.707799E-03	5.531847E-05
6.869157E+03	2.697435E-03	5.521079E-05
6.879113E+03	2.694486E-03	5.525209E-05
6.889068E+03	2.699064E-03	5.544541E-05
6.899023E+03	2.711291E-03	5.579400E-05
6.908979E+03	2.731002E-03	5.629520E-05
6.918934E+03	2.757871E-03	5.694285E-05
6.928889E+03	2.791501E-03	5.772939E-05
6.938845E+03	2.831155E-03	5.864000E-05
6.948800E+03	2.875901E-03	5.965577E-05
6.958755E+03	2.924577E-03	6.075281E-05
6.968710E+03	2.975777E-03	6.190200E-05
6.978666E+03	3.028084E-03	6.307381E-05
6.988621E+03	3.079843E-03	6.423359E-05
6.998576E+03	3.129402E-03	6.534657E-05
7.008532E+03	3.175315E-03	6.638213E-05
7.018487E+03	3.216245E-03	6.731183E-05
7.028442E+03	3.251091E-03	6.811206E-05
7.038398E+03	3.279008E-03	6.876453E-05
7.048353E+03	3.299574E-03	6.925983E-05
7.058308E+03	3.312686E-03	6.959525E-05
7.068263E+03	3.318609E-03	6.977591E-05
7.078219E+03	3.317889E-03	6.981289E-05
7.088174E+03	3.311421E-03	6.972468E-05
7.098129E+03	3.300174E-03	6.953148E-05
7.108085E+03	3.285325E-03	6.925796E-05
7.118040E+03	3.268012E-03	6.892802E-05
7.127995E+03	3.249308E-03	6.856431E-05
7.137951E+03	3.230144E-03	6.818651E-05
7.147906E+03	3.211359E-03	6.781243E-05
7.157861E+03	3.193726E-03	6.745847E-05
7.167817E+03	3.177628E-03	6.713285E-05
7.177772E+03	3.163363E-03	6.684195E-05
7.187727E+03	3.151136E-03	6.659021E-05
7.197682E+03	3.140767E-03	6.637393E-05
7.207638E+03	3.132162E-03	6.619116E-05
7.217593E+03	3.124895E-03	6.603305E-05
7.227548E+03	3.118626E-03	6.589241E-05
7.237504E+03	3.112890E-03	6.575950E-05
7.247459E+03	3.107239E-03	6.562495E-05
7.257414E+03	3.101100E-03	6.547673E-05
7.267370E+03	3.093956E-03	6.530400E-05
7.277325E+03	3.085322E-03	6.509667E-05
7.287280E+03	3.074823E-03	6.484696E-05
7.297235E+03	3.062109E-03	6.454762E-05
7.307191E+03	3.046884E-03	6.419266E-05
7.317146E+03	3.029061E-03	6.378044E-05
7.327101E+03	3.008612E-03	6.331057E-05
7.337057E+03	2.985609E-03	6.278486E-05
7.347012E+03	2.960216E-03	6.220701E-05
7.356967E+03	2.932730E-03	6.158352E-05
7.366923E+03	2.903395E-03	6.091979E-05
7.376878E+03	2.872543E-03	6.022306E-05
7.386833E+03	2.840602E-03	5.950251E-05
7.396788E+03	2.807754E-03	5.876223E-05
7.406744E+03	2.774351E-03	5.800982E-05
7.416699E+03	2.740578E-03	5.724931E-05
7.426654E+03	2.706595E-03	5.648428E-05
7.436610E+03	2.672595E-03	5.571896E-05
7.446565E+03	2.638809E-03	5.495831E-05
7.456520E+03	2.605298E-03	5.420376E-05
7.466476E+03	2.572216E-03	5.345868E-05
7.476431E+03	2.539744E-03	5.272696E-05
7.486386E+03	2.507914E-03	5.200937E-05
7.496341E+03	2.476945E-03	5.131051E-05
7.506297E+03	2.446889E-03	5.063150E-05
7.516252E+03	2.417923E-03	4.997610E-05
7.526207E+03	2.390336E-03	4.935030E-05
7.536163E+03	2.364200E-03	4.875560E-05
7.546118E+03	2.339775E-03	4.819734E-05
7.556073E+03	2.317314E-03	4.768076E-05
7.566029E+03	2.296928E-03	4.720812E-05
7.575984E+03	2.278891E-03	4.678497E-05
7.585939E+03	2.263270E-03	4.641267E-05
7.595894E+03	2.250191E-03	4.609373E-05
7.605850E+03	2.239829E-03	4.583171E-05
7.615805E+03	2.232155E-03	4.562593E-05
7.625760E+03	2.227188E-03	4.547673E-05
7.635716E+03	2.224938E-03	4.538430E-05
7.645671E+03	2.225284E-03	4.534610E-05
7.655626E+03	2.228145E-03	4.536048E-05
7.665582E+03	2.233296E-03	4.542290E-05
7.675537E+03	2.240510E-03	4.552876E-05
7.685492E+03	2.249555E-03	4.567340E-05
7.695447E+03	2.260064E-03	4.584948E-05
7.705403E+03	2.271717E-03	4.605066E-05
7.715358E+03	2.284028E-03	4.626719E-05
7.725313E+03	2.296659E-03	4.649246E-05
