#wls	flux	fluxerr
1.592848E+03	1.620700E-04	8.600099E-06
1.632669E+03	1.658936E-04	8.764298E-06
1.672491E+03	1.690854E-04	8.892455E-06
1.712312E+03	1.716110E-04	8.983134E-06
1.752133E+03	1.733807E-04	9.032084E-06
1.791954E+03	1.742244E-04	9.031008E-06
1.831775E+03	1.738949E-04	8.967827E-06
1.871597E+03	1.721503E-04	8.831056E-06
1.911418E+03	1.687416E-04	8.609154E-06
1.951239E+03	1.635840E-04	8.299262E-06
1.991060E+03	1.568865E-04	7.913503E-06
2.030881E+03	1.494663E-04	7.494336E-06
2.070703E+03	1.427115E-04	7.111723E-06
2.110524E+03	1.384933E-04	6.857844E-06
2.150345E+03	1.382953E-04	6.803360E-06
2.190166E+03	1.427417E-04	6.974854E-06
2.229987E+03	1.513046E-04	7.341974E-06
2.269809E+03	1.627770E-04	7.842163E-06
2.309630E+03	1.758026E-04	8.407213E-06
2.349451E+03	1.892624E-04	8.982017E-06
2.389272E+03	2.024038E-04	9.530292E-06
2.429093E+03	2.147314E-04	1.002889E-05
2.468915E+03	2.261008E-04	1.047170E-05
2.508736E+03	2.363683E-04	1.085292E-05
2.548557E+03	2.455234E-04	1.117306E-05
2.588378E+03	2.536227E-04	1.143577E-05
2.628199E+03	2.606276E-04	1.164037E-05
2.668021E+03	2.666449E-04	1.179277E-05
2.707842E+03	2.717095E-04	1.189558E-05
2.747663E+03	2.758209E-04	1.194986E-05
2.787484E+03	2.790173E-04	1.195842E-05
2.827305E+03	2.813423E-04	1.192424E-05
2.867127E+03	2.827793E-04	1.184777E-05
2.906948E+03	2.833944E-04	1.173297E-05
2.946769E+03	2.832649E-04	1.158418E-05
2.986590E+03	2.825443E-04	1.140870E-05
2.996546E+03	2.822878E-04	1.136141E-05
3.006501E+03	2.819885E-04	1.131229E-05
3.016456E+03	2.816789E-04	1.126265E-05
3.026411E+03	2.813351E-04	1.121154E-05
3.036367E+03	2.810384E-04	1.116220E-05
3.046322E+03	2.807179E-04	1.111183E-05
3.056277E+03	2.804590E-04	1.106377E-05
3.066233E+03	2.801971E-04	1.101549E-05
3.076188E+03	2.799582E-04	1.096799E-05
3.086143E+03	2.797391E-04	1.092114E-05
3.096099E+03	2.795369E-04	1.087482E-05
3.106054E+03	2.793490E-04	1.082893E-05
3.116009E+03	2.791738E-04	1.078339E-05
3.125964E+03	2.789814E-04	1.073705E-05
3.135920E+03	2.788557E-04	1.069314E-05
3.145875E+03	2.787111E-04	1.064835E-05
3.155830E+03	2.786033E-04	1.060481E-05
3.165786E+03	2.785040E-04	1.056145E-05
3.175741E+03	2.784136E-04	1.051826E-05
3.185696E+03	2.783866E-04	1.047729E-05
3.195652E+03	2.783685E-04	1.043648E-05
3.205607E+03	2.783871E-04	1.039685E-05
3.215562E+03	2.784164E-04	1.035743E-05
3.225517E+03	2.785098E-04	1.032019E-05
3.235473E+03	2.786418E-04	1.028416E-05
3.245428E+03	2.788388E-04	1.025029E-05
3.255383E+03	2.790756E-04	1.021763E-05
3.265339E+03	2.793531E-04	1.018619E-05
3.275294E+03	2.797231E-04	1.015785E-05
3.285249E+03	2.801354E-04	1.013073E-05
3.295205E+03	2.806411E-04	1.010666E-05
3.305160E+03	2.811906E-04	1.008382E-05
3.315115E+03	2.818590E-04	1.006487E-05
3.325070E+03	2.825970E-04	1.004800E-05
3.335026E+03	2.834295E-04	1.003406E-05
3.344981E+03	2.843567E-04	1.002301E-05
3.354936E+03	2.854024E-04	1.001564E-05
3.364892E+03	2.865663E-04	1.001188E-05
3.374847E+03	2.878241E-04	1.001083E-05
3.384802E+03	2.892226E-04	1.001407E-05
3.394758E+03	2.907375E-04	1.002068E-05
3.404713E+03	2.923679E-04	1.003058E-05
3.414668E+03	2.941588E-04	1.004526E-05
3.424623E+03	2.961084E-04	1.006455E-05
3.434579E+03	2.981919E-04	1.008756E-05
3.444534E+03	3.004081E-04	1.011417E-05
3.454489E+03	3.028231E-04	1.014652E-05
3.464445E+03	3.053679E-04	1.018222E-05
3.474400E+03	3.081093E-04	1.022341E-05
3.484355E+03	3.110256E-04	1.026928E-05
3.494311E+03	3.141181E-04	1.031977E-05
3.504266E+03	3.174125E-04	1.037564E-05
3.514221E+03	3.209128E-04	1.043691E-05
3.524176E+03	3.246251E-04	1.050367E-05
3.534132E+03	3.285776E-04	1.057671E-05
3.544087E+03	3.327564E-04	1.065547E-05
3.554042E+03	3.371913E-04	1.074076E-05
3.563998E+03	3.418909E-04	1.083273E-05
3.573953E+03	3.468863E-04	1.093222E-05
3.583908E+03	3.521456E-04	1.103806E-05
3.593864E+03	3.577014E-04	1.115113E-05
3.603819E+03	3.635879E-04	1.127232E-05
3.613774E+03	3.697984E-04	1.140125E-05
3.623729E+03	3.763486E-04	1.153823E-05
3.633685E+03	3.832773E-04	1.168424E-05
3.643640E+03	3.905829E-04	1.183904E-05
3.653595E+03	3.982867E-04	1.200305E-05
3.663551E+03	4.064123E-04	1.217677E-05
3.673506E+03	4.150058E-04	1.236133E-05
3.683461E+03	4.240739E-04	1.255666E-05
3.693417E+03	4.336468E-04	1.276340E-05
3.703372E+03	4.437568E-04	1.298221E-05
3.713327E+03	4.544587E-04	1.321436E-05
3.723282E+03	4.657241E-04	1.345873E-05
3.733238E+03	4.776517E-04	1.371781E-05
3.743193E+03	4.902350E-04	1.399104E-05
3.753148E+03	5.035306E-04	1.427967E-05
3.763104E+03	5.175521E-04	1.458368E-05
3.773059E+03	5.323558E-04	1.490421E-05
3.783014E+03	5.479303E-04	1.524051E-05
3.792970E+03	5.643506E-04	1.559420E-05
3.802925E+03	5.815769E-04	1.596372E-05
3.812880E+03	5.996996E-04	1.635106E-05
3.822835E+03	6.186907E-04	1.675494E-05
3.832791E+03	6.385372E-04	1.717450E-05
3.842746E+03	6.592863E-04	1.761052E-05
3.852701E+03	6.808811E-04	1.806095E-05
3.862657E+03	7.032988E-04	1.852470E-05
3.872612E+03	7.265244E-04	1.900088E-05
3.882567E+03	7.504789E-04	1.948697E-05
3.892523E+03	7.750394E-04	1.997937E-05
3.902478E+03	8.001888E-04	2.047727E-05
3.912433E+03	8.257424E-04	2.097562E-05
3.922388E+03	8.516004E-04	2.147164E-05
3.932344E+03	8.775974E-04	2.196102E-05
3.942299E+03	9.036091E-04	2.244055E-05
3.952254E+03	9.294206E-04	2.290492E-05
3.962210E+03	9.548901E-04	2.335074E-05
3.972165E+03	9.798168E-04	2.377334E-05
3.982120E+03	1.004023E-03	2.416871E-05
3.992076E+03	1.027304E-03	2.453239E-05
4.002031E+03	1.049515E-03	2.486144E-05
4.011986E+03	1.070435E-03	2.515130E-05
4.021941E+03	1.089940E-03	2.539984E-05
4.031897E+03	1.107873E-03	2.560420E-05
4.041852E+03	1.124131E-03	2.576295E-05
4.051807E+03	1.138647E-03	2.587555E-05
4.061763E+03	1.151362E-03	2.594169E-05
4.071718E+03	1.162312E-03	2.596321E-05
4.081673E+03	1.171455E-03	2.594025E-05
4.091629E+03	1.178951E-03	2.587738E-05
4.101584E+03	1.184822E-03	2.577603E-05
4.111539E+03	1.189246E-03	2.564104E-05
4.121494E+03	1.192313E-03	2.547520E-05
4.131450E+03	1.194207E-03	2.528318E-05
4.141405E+03	1.195064E-03	2.506859E-05
4.151360E+03	1.195029E-03	2.483504E-05
4.161316E+03	1.194321E-03	2.458762E-05
4.171271E+03	1.193081E-03	2.432961E-05
4.181226E+03	1.191446E-03	2.406412E-05
4.191182E+03	1.189594E-03	2.379497E-05
4.201137E+03	1.187643E-03	2.352466E-05
4.211092E+03	1.185723E-03	2.325585E-05
4.221047E+03	1.183978E-03	2.299131E-05
4.231003E+03	1.182467E-03	2.273213E-05
4.240958E+03	1.181329E-03	2.248085E-05
4.250913E+03	1.180644E-03	2.223881E-05
4.260869E+03	1.180439E-03	2.200626E-05
4.270824E+03	1.180814E-03	2.178485E-05
4.280779E+03	1.181815E-03	2.157509E-05
4.290735E+03	1.183453E-03	2.137685E-05
4.300690E+03	1.185747E-03	2.119020E-05
4.310645E+03	1.188732E-03	2.101539E-05
4.320601E+03	1.192413E-03	2.085216E-05
4.330556E+03	1.196770E-03	2.069985E-05
4.340511E+03	1.201846E-03	2.055885E-05
4.350466E+03	1.207609E-03	2.042827E-05
4.360422E+03	1.214101E-03	2.030849E-05
4.370377E+03	1.221355E-03	2.019972E-05
4.380332E+03	1.229510E-03	2.010388E-05
4.390288E+03	1.238674E-03	2.002227E-05
4.400243E+03	1.249019E-03	1.995721E-05
4.410198E+03	1.260728E-03	1.991099E-05
4.420154E+03	1.273978E-03	1.988575E-05
4.430109E+03	1.288938E-03	1.988335E-05
4.440064E+03	1.305741E-03	1.990499E-05
4.450019E+03	1.324536E-03	1.995208E-05
4.459975E+03	1.345405E-03	2.002490E-05
4.469930E+03	1.368432E-03	2.012372E-05
4.479885E+03	1.393635E-03	2.024787E-05
4.489841E+03	1.420934E-03	2.039524E-05
4.499796E+03	1.450260E-03	2.056397E-05
4.509751E+03	1.481408E-03	2.075038E-05
4.519707E+03	1.514115E-03	2.095017E-05
4.529662E+03	1.548038E-03	2.115815E-05
4.539617E+03	1.582758E-03	2.136835E-05
4.549572E+03	1.617775E-03	2.157405E-05
4.559528E+03	1.652565E-03	2.176854E-05
4.569483E+03	1.686577E-03	2.194516E-05
4.579438E+03	1.719242E-03	2.209734E-05
4.589394E+03	1.750068E-03	2.221987E-05
4.599349E+03	1.778557E-03	2.230776E-05
4.609304E+03	1.804278E-03	2.235715E-05
4.619260E+03	1.826834E-03	2.236483E-05
4.629215E+03	1.845925E-03	2.232897E-05
4.639170E+03	1.861218E-03	2.224747E-05
4.649125E+03	1.872515E-03	2.211998E-05
4.659081E+03	1.879566E-03	2.194557E-05
4.669036E+03	1.882244E-03	2.172482E-05
4.678991E+03	1.880441E-03	2.145849E-05
4.688947E+03	1.874157E-03	2.114856E-05
4.698902E+03	1.863510E-03	2.079823E-05
4.708857E+03	1.848775E-03	2.041224E-05
4.718813E+03	1.830289E-03	1.999581E-05
4.728768E+03	1.808585E-03	1.955602E-05
4.738723E+03	1.784263E-03	1.910036E-05
4.748678E+03	1.758036E-03	1.863710E-05
4.758634E+03	1.730657E-03	1.817465E-05
4.768589E+03	1.702883E-03	1.772108E-05
4.778544E+03	1.675415E-03	1.728352E-05
4.788500E+03	1.648951E-03	1.686885E-05
4.798455E+03	1.624121E-03	1.648300E-05
4.808410E+03	1.601576E-03	1.613193E-05
4.818366E+03	1.581910E-03	1.582089E-05
4.828321E+03	1.565669E-03	1.555449E-05
4.838276E+03	1.553368E-03	1.533690E-05
4.848231E+03	1.545396E-03	1.517086E-05
4.858187E+03	1.542108E-03	1.505875E-05
4.868142E+03	1.543750E-03	1.500199E-05
4.878097E+03	1.550471E-03	1.500109E-05
4.888053E+03	1.562321E-03	1.505573E-05
4.898008E+03	1.579233E-03	1.516458E-05
4.907963E+03	1.601023E-03	1.532529E-05
4.917919E+03	1.627252E-03	1.553322E-05
4.927874E+03	1.657319E-03	1.578229E-05
4.937829E+03	1.690444E-03	1.606487E-05
4.947784E+03	1.725557E-03	1.637064E-05
4.957740E+03	1.761367E-03	1.668732E-05
4.967695E+03	1.796533E-03	1.700220E-05
4.977650E+03	1.829591E-03	1.730143E-05
4.987606E+03	1.859138E-03	1.757174E-05
4.997561E+03	1.884040E-03	1.780235E-05
5.007516E+03	1.903595E-03	1.798651E-05
5.017472E+03	1.917477E-03	1.812096E-05
5.027427E+03	1.925782E-03	1.820632E-05
5.037382E+03	1.929033E-03	1.824721E-05
5.047337E+03	1.928067E-03	1.825117E-05
5.057293E+03	1.923833E-03	1.822680E-05
5.067248E+03	1.917390E-03	1.818377E-05
5.077203E+03	1.909835E-03	1.813209E-05
5.087159E+03	1.902122E-03	1.808051E-05
5.097114E+03	1.895078E-03	1.803662E-05
5.107069E+03	1.889309E-03	1.800593E-05
5.117025E+03	1.885332E-03	1.799317E-05
5.126980E+03	1.883430E-03	1.800088E-05
5.136935E+03	1.883786E-03	1.803067E-05
5.146890E+03	1.886484E-03	1.808321E-05
5.156846E+03	1.891553E-03	1.815869E-05
5.166801E+03	1.898999E-03	1.825705E-05
5.176756E+03	1.908887E-03	1.837884E-05
5.186712E+03	1.921211E-03	1.852392E-05
5.196667E+03	1.936093E-03	1.869338E-05
5.206622E+03	1.953607E-03	1.888785E-05
5.216578E+03	1.973780E-03	1.910751E-05
5.226533E+03	1.996603E-03	1.935221E-05
5.236488E+03	2.021990E-03	1.962100E-05
5.246443E+03	2.049773E-03	1.991216E-05
5.256399E+03	2.079687E-03	2.022301E-05
5.266354E+03	2.111392E-03	2.055009E-05
5.276309E+03	2.144533E-03	2.088980E-05
5.286265E+03	2.178645E-03	2.123744E-05
5.296220E+03	2.213232E-03	2.158800E-05
5.306175E+03	2.247838E-03	2.193683E-05
5.316131E+03	2.281907E-03	2.227831E-05
5.326086E+03	2.314968E-03	2.260764E-05
5.336041E+03	2.346578E-03	2.292029E-05
5.345996E+03	2.376267E-03	2.321150E-05
5.355952E+03	2.403690E-03	2.347772E-05
5.365907E+03	2.428593E-03	2.371633E-05
5.375862E+03	2.450754E-03	2.392503E-05
5.385818E+03	2.470170E-03	2.410369E-05
5.395773E+03	2.486994E-03	2.425373E-05
5.405728E+03	2.501553E-03	2.437831E-05
5.415684E+03	2.514212E-03	2.448093E-05
5.425639E+03	2.525482E-03	2.456655E-05
5.435594E+03	2.535809E-03	2.463949E-05
5.445549E+03	2.545594E-03	2.470364E-05
5.455505E+03	2.554933E-03	2.475990E-05
5.465460E+03	2.563549E-03	2.480559E-05
5.475415E+03	2.570544E-03	2.483203E-05
5.485371E+03	2.574217E-03	2.482291E-05
5.495326E+03	2.572367E-03	2.475721E-05
5.505281E+03	2.562678E-03	2.461291E-05
5.515237E+03	2.543138E-03	2.437118E-05
5.525192E+03	2.512155E-03	2.401745E-05
5.535147E+03	2.469046E-03	2.354603E-05
5.545102E+03	2.414107E-03	2.296075E-05
5.555058E+03	2.348594E-03	2.227459E-05
5.565013E+03	2.274260E-03	2.150524E-05
5.574968E+03	2.193474E-03	2.067605E-05
5.584924E+03	2.108692E-03	1.981099E-05
5.594879E+03	2.022497E-03	1.893499E-05
5.604834E+03	1.937362E-03	1.807162E-05
5.614790E+03	1.855512E-03	1.724182E-05
5.624745E+03	1.778968E-03	1.646428E-05
5.634700E+03	1.709435E-03	1.575450E-05
5.644655E+03	1.648336E-03	1.512501E-05
5.654611E+03	1.596834E-03	1.458572E-05
5.664566E+03	1.555867E-03	1.414419E-05
5.674521E+03	1.526222E-03	1.380636E-05
5.684477E+03	1.508545E-03	1.357668E-05
5.694432E+03	1.503314E-03	1.345788E-05
5.704387E+03	1.511024E-03	1.345263E-05
5.714343E+03	1.532169E-03	1.356339E-05
5.724298E+03	1.567105E-03	1.379121E-05
5.734253E+03	1.616224E-03	1.413728E-05
5.744209E+03	1.679885E-03	1.460229E-05
5.754164E+03	1.758199E-03	1.518464E-05
5.764119E+03	1.851081E-03	1.588089E-05
5.774074E+03	1.958172E-03	1.668523E-05
5.784030E+03	2.078561E-03	1.758719E-05
5.793985E+03	2.210786E-03	1.857178E-05
5.803940E+03	2.352707E-03	1.961873E-05
5.813896E+03	2.501417E-03	2.070187E-05
5.823851E+03	2.653305E-03	2.179003E-05
5.833806E+03	2.804305E-03	2.284926E-05
5.843762E+03	2.950310E-03	2.384638E-05
5.853717E+03	3.087241E-03	2.474959E-05
5.863672E+03	3.211140E-03	2.552925E-05
5.873627E+03	3.318657E-03	2.616164E-05
5.883583E+03	3.407132E-03	2.662946E-05
5.893538E+03	3.474409E-03	2.692015E-05
5.903493E+03	3.519317E-03	2.702937E-05
5.913449E+03	3.541483E-03	2.695923E-05
5.923404E+03	3.541323E-03	2.671797E-05
5.933359E+03	3.520343E-03	2.632190E-05
5.943315E+03	3.480689E-03	2.579161E-05
5.953270E+03	3.424993E-03	2.515068E-05
5.963225E+03	3.356397E-03	2.442564E-05
5.973180E+03	3.278265E-03	2.364372E-05
5.983136E+03	3.193691E-03	2.282925E-05
5.993091E+03	3.105626E-03	2.200470E-05
6.003046E+03	3.016660E-03	2.118917E-05
6.013002E+03	2.928951E-03	2.039808E-05
6.022957E+03	2.844203E-03	1.964312E-05
6.032912E+03	2.763738E-03	1.893296E-05
6.042868E+03	2.688499E-03	1.827340E-05
6.052823E+03	2.619156E-03	1.766819E-05
6.062778E+03	2.556066E-03	1.711891E-05
6.072733E+03	2.499471E-03	1.662632E-05
6.082689E+03	2.449320E-03	1.618928E-05
6.092644E+03	2.405532E-03	1.580653E-05
6.102599E+03	2.367950E-03	1.547643E-05
6.112555E+03	2.336298E-03	1.519665E-05
6.122510E+03	2.310316E-03	1.496514E-05
6.132465E+03	2.289737E-03	1.477990E-05
6.142421E+03	2.274173E-03	1.463831E-05
6.152376E+03	2.263258E-03	1.453799E-05
6.162331E+03	2.256613E-03	1.447664E-05
6.172286E+03	2.253807E-03	1.445171E-05
6.182242E+03	2.254368E-03	1.446045E-05
6.192197E+03	2.257854E-03	1.450018E-05
6.202152E+03	2.263630E-03	1.456656E-05
6.212108E+03	2.271087E-03	1.465543E-05
6.222063E+03	2.279590E-03	1.476240E-05
6.232018E+03	2.288406E-03	1.488243E-05
6.241974E+03	2.296829E-03	1.501054E-05
6.251929E+03	2.304227E-03	1.514210E-05
6.261884E+03	2.309981E-03	1.527247E-05
6.271839E+03	2.313556E-03	1.539740E-05
6.281795E+03	2.314605E-03	1.551375E-05
6.291750E+03	2.312938E-03	1.561932E-05
6.301705E+03	2.308546E-03	1.571308E-05
6.311661E+03	2.301528E-03	1.579466E-05
6.321616E+03	2.292235E-03	1.586547E-05
6.331571E+03	2.281074E-03	1.592732E-05
6.341527E+03	2.268490E-03	1.598244E-05
6.351482E+03	2.254866E-03	1.603271E-05
6.361437E+03	2.240620E-03	1.608035E-05
6.371392E+03	2.226032E-03	1.612675E-05
6.381348E+03	2.211354E-03	1.617317E-05
6.391303E+03	2.196694E-03	1.621993E-05
6.401258E+03	2.182140E-03	1.626722E-05
6.411214E+03	2.167671E-03	1.631448E-05
6.421169E+03	2.153272E-03	1.636124E-05
6.431124E+03	2.138851E-03	1.640644E-05
6.441080E+03	2.124463E-03	1.645013E-05
6.451035E+03	2.110173E-03	1.649252E-05
6.460990E+03	2.096156E-03	1.653470E-05
6.470945E+03	2.082764E-03	1.657923E-05
6.480901E+03	2.070507E-03	1.663011E-05
6.490856E+03	2.059883E-03	1.669133E-05
6.500811E+03	2.051536E-03	1.676831E-05
6.510767E+03	2.046150E-03	1.686693E-05
6.520722E+03	2.044358E-03	1.699287E-05
6.530677E+03	2.046600E-03	1.715035E-05
6.540633E+03	2.053188E-03	1.734262E-05
6.550588E+03	2.064151E-03	1.757058E-05
6.560543E+03	2.079228E-03	1.783263E-05
6.570498E+03	2.097899E-03	1.812486E-05
6.580454E+03	2.119408E-03	1.844110E-05
6.590409E+03	2.142792E-03	1.877319E-05
6.600364E+03	2.166954E-03	1.911156E-05
6.610320E+03	2.190688E-03	1.944536E-05
6.620275E+03	2.212712E-03	1.976282E-05
6.630230E+03	2.231832E-03	2.005268E-05
6.640186E+03	2.246885E-03	2.030376E-05
6.650141E+03	2.257089E-03	2.050810E-05
6.660096E+03	2.261814E-03	2.065908E-05
6.670051E+03	2.260725E-03	2.075269E-05
6.680007E+03	2.253751E-03	2.078740E-05
6.689962E+03	2.241126E-03	2.076456E-05
6.699917E+03	2.223152E-03	2.068627E-05
6.709873E+03	2.200413E-03	2.055739E-05
6.719828E+03	2.173529E-03	2.038325E-05
6.729783E+03	2.143254E-03	2.017066E-05
6.739739E+03	2.110377E-03	1.992683E-05
6.749694E+03	2.075769E-03	1.965996E-05
6.759649E+03	2.040262E-03	1.937799E-05
6.769604E+03	2.004781E-03	1.908984E-05
6.779560E+03	1.970150E-03	1.880362E-05
6.789515E+03	1.937183E-03	1.852735E-05
6.799470E+03	1.906659E-03	1.826880E-05
6.809426E+03	1.879332E-03	1.803555E-05
6.819381E+03	1.855849E-03	1.783411E-05
6.829336E+03	1.836822E-03	1.767071E-05
6.839292E+03	1.822866E-03	1.755151E-05
6.849247E+03	1.814433E-03	1.748110E-05
6.859202E+03	1.812063E-03	1.746484E-05
6.869157E+03	1.816136E-03	1.750650E-05
6.879113E+03	1.826989E-03	1.760932E-05
6.889068E+03	1.844721E-03	1.777419E-05
6.899023E+03	1.869302E-03	1.800065E-05
6.908979E+03	1.900600E-03	1.828717E-05
6.918934E+03	1.938289E-03	1.863029E-05
6.928889E+03	1.981965E-03	1.902572E-05
6.938845E+03	2.030908E-03	1.946607E-05
6.948800E+03	2.084121E-03	1.994134E-05
6.958755E+03	2.140308E-03	2.043861E-05
6.968710E+03	2.197966E-03	2.094313E-05
6.978666E+03	2.255373E-03	2.143813E-05
6.988621E+03	2.310751E-03	2.190648E-05
6.998576E+03	2.362338E-03	2.233146E-05
7.008532E+03	2.408572E-03	2.269844E-05
7.018487E+03	2.448196E-03	2.299590E-05
7.028442E+03	2.480270E-03	2.321558E-05
7.038398E+03	2.504332E-03	2.335385E-05
7.048353E+03	2.520475E-03	2.341242E-05
7.058308E+03	2.529085E-03	2.339580E-05
7.068263E+03	2.531016E-03	2.331284E-05
7.078219E+03	2.527418E-03	2.317506E-05
7.088174E+03	2.519595E-03	2.299524E-05
7.098129E+03	2.509069E-03	2.278798E-05
7.108085E+03	2.497379E-03	2.256779E-05
7.118040E+03	2.485938E-03	2.234780E-05
7.127995E+03	2.475981E-03	2.213930E-05
7.137951E+03	2.468627E-03	2.195230E-05
7.147906E+03	2.464725E-03	2.179420E-05
7.157861E+03	2.464737E-03	2.166883E-05
7.167817E+03	2.468907E-03	2.157801E-05
7.177772E+03	2.477230E-03	2.152134E-05
7.187727E+03	2.489329E-03	2.149524E-05
7.197682E+03	2.504666E-03	2.149480E-05
7.207638E+03	2.522425E-03	2.151289E-05
7.217593E+03	2.541639E-03	2.154130E-05
7.227548E+03	2.561201E-03	2.157088E-05
7.237504E+03	2.579929E-03	2.159210E-05
7.247459E+03	2.596555E-03	2.159502E-05
7.257414E+03	2.609937E-03	2.157102E-05
7.267370E+03	2.618819E-03	2.151079E-05
7.277325E+03	2.622192E-03	2.140732E-05
7.287280E+03	2.619130E-03	2.125447E-05
7.297235E+03	2.608934E-03	2.104808E-05
7.307191E+03	2.591294E-03	2.078717E-05
7.317146E+03	2.566158E-03	2.047286E-05
7.327101E+03	2.533846E-03	2.010911E-05
7.337057E+03	2.495061E-03	1.970276E-05
7.347012E+03	2.450770E-03	1.926249E-05
7.356967E+03	2.402094E-03	1.879793E-05
7.366923E+03	2.350314E-03	1.831969E-05
7.376878E+03	2.296730E-03	1.783826E-05
7.386833E+03	2.242513E-03	1.736289E-05
7.396788E+03	2.188793E-03	1.690232E-05
7.406744E+03	2.136569E-03	1.646416E-05
7.416699E+03	2.086665E-03	1.605454E-05
7.426654E+03	2.039733E-03	1.567825E-05
7.436610E+03	1.996236E-03	1.533862E-05
7.446565E+03	1.956496E-03	1.503792E-05
7.456520E+03	1.920736E-03	1.477772E-05
7.466476E+03	1.889010E-03	1.455836E-05
7.476431E+03	1.861269E-03	1.437948E-05
7.486386E+03	1.837407E-03	1.424025E-05
7.496341E+03	1.817185E-03	1.413859E-05
7.506297E+03	1.800307E-03	1.407199E-05
7.516252E+03	1.786426E-03	1.403760E-05
7.526207E+03	1.775117E-03	1.403198E-05
7.536163E+03	1.765922E-03	1.405142E-05
7.546118E+03	1.758169E-03	1.409048E-05
7.556073E+03	1.751285E-03	1.414440E-05
7.566029E+03	1.744686E-03	1.420820E-05
7.575984E+03	1.737975E-03	1.427830E-05
7.585939E+03	1.731074E-03	1.435366E-05
7.595894E+03	1.724193E-03	1.443560E-05
7.605850E+03	1.717891E-03	1.452849E-05
7.615805E+03	1.712728E-03	1.463689E-05
7.625760E+03	1.709361E-03	1.476643E-05
7.635716E+03	1.708265E-03	1.492143E-05
7.645671E+03	1.709690E-03	1.510448E-05
7.655626E+03	1.713900E-03	1.531841E-05
7.665582E+03	1.720885E-03	1.556378E-05
7.675537E+03	1.730445E-03	1.583944E-05
7.685492E+03	1.742328E-03	1.614373E-05
7.695447E+03	1.756122E-03	1.647342E-05
7.705403E+03	1.771250E-03	1.682355E-05
7.715358E+03	1.787070E-03	1.718830E-05
7.725313E+03	1.802875E-03	1.756090E-05
