#wls	flux	fluxerr
1.592848E+03	1.276863E-04	4.060429E-06
1.632669E+03	1.306749E-04	4.139813E-06
1.672491E+03	1.331874E-04	4.203046E-06
1.712312E+03	1.351482E-04	4.247901E-06
1.752133E+03	1.365134E-04	4.273181E-06
1.791954E+03	1.371266E-04	4.274223E-06
1.831775E+03	1.368219E-04	4.246160E-06
1.871597E+03	1.353617E-04	4.182019E-06
1.911418E+03	1.325823E-04	4.077256E-06
1.951239E+03	1.284008E-04	3.929919E-06
1.991060E+03	1.230158E-04	3.746705E-06
2.030881E+03	1.170343E-04	3.546597E-06
2.070703E+03	1.115525E-04	3.362979E-06
2.110524E+03	1.080234E-04	3.239233E-06
2.150345E+03	1.075971E-04	3.208756E-06
2.190166E+03	1.107255E-04	3.283411E-06
2.229987E+03	1.169714E-04	3.448470E-06
2.269809E+03	1.254230E-04	3.675523E-06
2.309630E+03	1.349799E-04	3.931242E-06
2.349451E+03	1.448348E-04	4.191536E-06
2.389272E+03	1.544045E-04	4.439346E-06
2.429093E+03	1.633868E-04	4.666069E-06
2.468915E+03	1.716864E-04	4.869216E-06
2.508736E+03	1.792837E-04	5.048525E-06
2.548557E+03	1.862110E-04	5.205213E-06
2.588378E+03	1.925228E-04	5.341097E-06
2.628199E+03	1.982790E-04	5.458128E-06
2.668021E+03	2.035717E-04	5.559084E-06
2.707842E+03	2.084564E-04	5.645692E-06
2.747663E+03	2.129836E-04	5.719507E-06
2.787484E+03	2.172670E-04	5.783723E-06
2.827305E+03	2.213494E-04	5.839574E-06
2.867127E+03	2.252717E-04	5.888204E-06
2.906948E+03	2.291713E-04	5.933226E-06
2.946769E+03	2.331169E-04	5.976352E-06
2.986590E+03	2.372074E-04	6.019991E-06
2.996546E+03	2.382695E-04	6.031386E-06
3.006501E+03	2.393449E-04	6.042906E-06
3.016456E+03	2.404343E-04	6.054563E-06
3.026411E+03	2.415424E-04	6.066471E-06
3.036367E+03	2.426859E-04	6.079042E-06
3.046322E+03	2.439136E-04	6.093491E-06
3.056277E+03	2.451886E-04	6.108878E-06
3.066233E+03	2.465064E-04	6.125081E-06
3.076188E+03	2.478948E-04	6.142778E-06
3.086143E+03	2.493185E-04	6.161083E-06
3.096099E+03	2.508057E-04	6.180683E-06
3.106054E+03	2.523220E-04	6.200713E-06
3.116009E+03	2.538960E-04	6.221871E-06
3.125964E+03	2.555255E-04	6.244091E-06
3.135920E+03	2.571768E-04	6.266533E-06
3.145875E+03	2.589106E-04	6.290673E-06
3.155830E+03	2.606626E-04	6.314928E-06
3.165786E+03	2.624623E-04	6.340010E-06
3.175741E+03	2.643085E-04	6.365875E-06
3.185696E+03	2.661998E-04	6.392478E-06
3.195652E+03	2.681662E-04	6.420528E-06
3.205607E+03	2.701752E-04	6.449232E-06
3.215562E+03	2.722264E-04	6.478566E-06
3.225517E+03	2.743188E-04	6.508497E-06
3.235473E+03	2.764823E-04	6.539723E-06
3.245428E+03	2.787162E-04	6.572209E-06
3.255383E+03	2.809893E-04	6.605204E-06
3.265339E+03	2.833315E-04	6.639396E-06
3.275294E+03	2.857423E-04	6.674760E-06
3.285249E+03	2.882211E-04	6.711264E-06
3.295205E+03	2.907676E-04	6.748880E-06
3.305160E+03	2.933812E-04	6.787581E-06
3.315115E+03	2.960919E-04	6.828041E-06
3.325070E+03	2.988388E-04	6.868835E-06
3.335026E+03	3.017122E-04	6.912020E-06
3.344981E+03	3.046517E-04	6.956188E-06
3.354936E+03	3.076569E-04	7.001312E-06
3.364892E+03	3.107879E-04	7.048737E-06
3.374847E+03	3.139846E-04	7.097074E-06
3.384802E+03	3.173069E-04	7.147655E-06
3.394758E+03	3.206956E-04	7.199116E-06
3.404713E+03	3.242103E-04	7.252776E-06
3.414668E+03	3.278514E-04	7.308610E-06
3.424623E+03	3.315901E-04	7.365946E-06
3.434579E+03	3.354566E-04	7.425427E-06
3.444534E+03	3.394519E-04	7.487042E-06
3.454489E+03	3.435486E-04	7.550155E-06
3.464445E+03	3.478063E-04	7.616043E-06
3.474400E+03	3.522270E-04	7.684710E-06
3.484355E+03	3.567548E-04	7.754898E-06
3.494311E+03	3.614795E-04	7.828521E-06
3.504266E+03	3.663459E-04	7.904340E-06
3.514221E+03	3.713867E-04	7.983019E-06
3.524176E+03	3.766055E-04	8.064587E-06
3.534132E+03	3.820067E-04	8.149093E-06
3.544087E+03	3.875948E-04	8.236586E-06
3.554042E+03	3.934041E-04	8.327738E-06
3.563998E+03	3.994396E-04	8.422599E-06
3.573953E+03	4.057078E-04	8.521246E-06
3.583908E+03	4.122152E-04	8.623753E-06
3.593864E+03	4.189688E-04	8.730200E-06
3.603819E+03	4.259763E-04	8.840684E-06
3.613774E+03	4.332734E-04	8.955873E-06
3.623729E+03	4.408406E-04	9.075288E-06
3.633685E+03	4.487143E-04	9.199605E-06
3.643640E+03	4.569314E-04	9.329495E-06
3.653595E+03	4.654446E-04	9.463901E-06
3.663551E+03	4.743191E-04	9.604067E-06
3.673506E+03	4.835354E-04	9.749502E-06
3.683461E+03	4.931304E-04	9.900853E-06
3.693417E+03	5.031124E-04	1.005819E-05
3.703372E+03	5.134892E-04	1.022155E-05
3.713327E+03	5.242682E-04	1.039098E-05
3.723282E+03	5.354550E-04	1.056649E-05
3.733238E+03	5.470833E-04	1.074861E-05
3.743193E+03	5.591282E-04	1.093676E-05
3.753148E+03	5.716491E-04	1.113196E-05
3.763104E+03	5.845888E-04	1.133298E-05
3.773059E+03	5.979738E-04	1.154022E-05
3.783014E+03	6.117998E-04	1.175346E-05
3.792970E+03	6.260879E-04	1.197301E-05
3.802925E+03	6.408280E-04	1.219852E-05
3.812880E+03	6.559482E-04	1.242852E-05
3.822835E+03	6.715183E-04	1.266421E-05
3.832791E+03	6.874876E-04	1.290453E-05
3.842746E+03	7.038016E-04	1.314834E-05
3.852701E+03	7.204889E-04	1.339607E-05
3.862657E+03	7.374564E-04	1.364590E-05
3.872612E+03	7.547241E-04	1.389813E-05
3.882567E+03	7.722488E-04	1.415186E-05
3.892523E+03	7.899241E-04	1.440510E-05
3.902478E+03	8.077569E-04	1.465792E-05
3.912433E+03	8.256918E-04	1.490927E-05
3.922388E+03	8.436403E-04	1.515754E-05
3.932344E+03	8.615696E-04	1.540214E-05
3.942299E+03	8.794161E-04	1.564194E-05
3.952254E+03	8.970837E-04	1.587526E-05
3.962210E+03	9.145066E-04	1.610098E-05
3.972165E+03	9.316777E-04	1.631906E-05
3.982120E+03	9.484433E-04	1.652689E-05
3.992076E+03	9.648000E-04	1.672452E-05
4.002031E+03	9.806883E-04	1.691103E-05
4.011986E+03	9.960239E-04	1.708511E-05
4.021941E+03	1.010757E-03	1.724608E-05
4.031897E+03	1.024845E-03	1.739337E-05
4.041852E+03	1.038252E-03	1.752656E-05
4.051807E+03	1.050949E-03	1.764535E-05
4.061763E+03	1.062887E-03	1.774915E-05
4.071718E+03	1.074086E-03	1.783846E-05
4.081673E+03	1.084513E-03	1.791301E-05
4.091629E+03	1.094150E-03	1.797267E-05
4.101584E+03	1.103041E-03	1.801840E-05
4.111539E+03	1.111184E-03	1.805039E-05
4.121494E+03	1.118613E-03	1.806941E-05
4.131450E+03	1.125370E-03	1.807632E-05
4.141405E+03	1.131451E-03	1.807128E-05
4.151360E+03	1.136940E-03	1.805579E-05
4.161316E+03	1.141872E-03	1.803060E-05
4.171271E+03	1.146313E-03	1.799692E-05
4.181226E+03	1.150310E-03	1.795559E-05
4.191182E+03	1.153911E-03	1.790754E-05
4.201137E+03	1.157194E-03	1.785405E-05
4.211092E+03	1.160235E-03	1.779642E-05
4.221047E+03	1.163067E-03	1.773522E-05
4.231003E+03	1.165768E-03	1.767171E-05
4.240958E+03	1.168394E-03	1.760678E-05
4.250913E+03	1.171021E-03	1.754162E-05
4.260869E+03	1.173682E-03	1.747672E-05
4.270824E+03	1.176473E-03	1.741351E-05
4.280779E+03	1.179399E-03	1.735208E-05
4.290735E+03	1.182533E-03	1.729343E-05
4.300690E+03	1.185939E-03	1.723850E-05
4.310645E+03	1.189642E-03	1.718757E-05
4.320601E+03	1.193702E-03	1.714145E-05
4.330556E+03	1.198137E-03	1.710034E-05
4.340511E+03	1.202983E-03	1.706466E-05
4.350466E+03	1.208291E-03	1.703505E-05
4.360422E+03	1.214089E-03	1.701182E-05
4.370377E+03	1.220364E-03	1.699466E-05
4.380332E+03	1.227167E-03	1.698421E-05
4.390288E+03	1.234484E-03	1.698016E-05
4.400243E+03	1.242314E-03	1.698239E-05
4.410198E+03	1.250649E-03	1.699069E-05
4.420154E+03	1.259475E-03	1.700479E-05
4.430109E+03	1.268752E-03	1.702407E-05
4.440064E+03	1.278490E-03	1.704856E-05
4.450019E+03	1.288650E-03	1.707768E-05
4.459975E+03	1.299226E-03	1.711127E-05
4.469930E+03	1.310181E-03	1.714879E-05
4.479885E+03	1.321434E-03	1.718913E-05
4.489841E+03	1.332988E-03	1.723229E-05
4.499796E+03	1.344743E-03	1.727697E-05
4.509751E+03	1.356666E-03	1.732275E-05
4.519707E+03	1.368645E-03	1.736820E-05
4.529662E+03	1.380615E-03	1.741252E-05
4.539617E+03	1.392504E-03	1.745490E-05
4.549572E+03	1.404222E-03	1.749424E-05
4.559528E+03	1.415672E-03	1.752946E-05
4.569483E+03	1.426760E-03	1.755951E-05
4.579438E+03	1.437408E-03	1.758356E-05
4.589394E+03	1.447525E-03	1.760066E-05
4.599349E+03	1.457023E-03	1.760992E-05
4.609304E+03	1.465839E-03	1.761075E-05
4.619260E+03	1.473899E-03	1.760249E-05
4.629215E+03	1.481157E-03	1.758480E-05
4.639170E+03	1.487580E-03	1.755749E-05
4.649125E+03	1.493106E-03	1.752008E-05
4.659081E+03	1.497726E-03	1.747267E-05
4.669036E+03	1.501442E-03	1.741554E-05
4.678991E+03	1.504272E-03	1.734909E-05
4.688947E+03	1.506209E-03	1.727348E-05
4.698902E+03	1.507315E-03	1.718961E-05
4.708857E+03	1.507610E-03	1.709792E-05
4.718813E+03	1.507184E-03	1.699960E-05
4.728768E+03	1.506086E-03	1.689536E-05
4.738723E+03	1.504420E-03	1.678652E-05
4.748678E+03	1.502297E-03	1.667444E-05
4.758634E+03	1.499862E-03	1.656082E-05
4.768589E+03	1.497303E-03	1.644781E-05
4.778544E+03	1.494687E-03	1.633618E-05
4.788500E+03	1.492169E-03	1.622765E-05
4.798455E+03	1.489887E-03	1.612370E-05
4.808410E+03	1.487982E-03	1.602585E-05
4.818366E+03	1.486591E-03	1.593549E-05
4.828321E+03	1.485839E-03	1.585380E-05
4.838276E+03	1.485846E-03	1.578197E-05
4.848231E+03	1.486699E-03	1.572075E-05
4.858187E+03	1.488459E-03	1.567062E-05
4.868142E+03	1.491181E-03	1.563202E-05
4.878097E+03	1.494845E-03	1.560458E-05
4.888053E+03	1.499474E-03	1.558838E-05
4.898008E+03	1.505032E-03	1.558291E-05
4.907963E+03	1.511463E-03	1.558745E-05
4.917919E+03	1.518705E-03	1.560122E-05
4.927874E+03	1.526627E-03	1.562279E-05
4.937829E+03	1.535151E-03	1.565126E-05
4.947784E+03	1.544153E-03	1.568528E-05
4.957740E+03	1.553485E-03	1.572330E-05
4.967695E+03	1.563051E-03	1.576428E-05
4.977650E+03	1.572685E-03	1.580652E-05
4.987606E+03	1.582301E-03	1.584913E-05
4.997561E+03	1.591771E-03	1.589084E-05
5.007516E+03	1.601003E-03	1.593070E-05
5.017472E+03	1.609940E-03	1.596817E-05
5.027427E+03	1.618512E-03	1.600257E-05
5.037382E+03	1.626708E-03	1.603379E-05
5.047337E+03	1.634519E-03	1.606177E-05
5.057293E+03	1.641941E-03	1.608647E-05
5.067248E+03	1.649019E-03	1.610836E-05
5.077203E+03	1.655799E-03	1.612788E-05
5.087159E+03	1.662334E-03	1.614555E-05
5.097114E+03	1.668686E-03	1.616196E-05
5.107069E+03	1.674917E-03	1.617771E-05
5.117025E+03	1.681090E-03	1.619339E-05
5.126980E+03	1.687263E-03	1.620953E-05
5.136935E+03	1.693486E-03	1.622661E-05
5.146890E+03	1.699804E-03	1.624500E-05
5.156846E+03	1.706248E-03	1.626500E-05
5.166801E+03	1.712839E-03	1.628676E-05
5.176756E+03	1.719588E-03	1.631035E-05
5.186712E+03	1.726492E-03	1.633573E-05
5.196667E+03	1.733539E-03	1.636273E-05
5.206622E+03	1.740702E-03	1.639110E-05
5.216578E+03	1.747966E-03	1.642065E-05
5.226533E+03	1.755248E-03	1.645060E-05
5.236488E+03	1.762513E-03	1.648058E-05
5.246443E+03	1.769699E-03	1.651001E-05
5.256399E+03	1.776736E-03	1.653825E-05
5.266354E+03	1.783534E-03	1.656442E-05
5.276309E+03	1.790051E-03	1.658817E-05
5.286265E+03	1.796170E-03	1.660841E-05
5.296220E+03	1.801832E-03	1.662461E-05
5.306175E+03	1.806941E-03	1.663589E-05
5.316131E+03	1.811440E-03	1.664177E-05
5.326086E+03	1.815262E-03	1.664166E-05
5.336041E+03	1.818327E-03	1.663485E-05
5.345996E+03	1.820600E-03	1.662106E-05
5.355952E+03	1.822018E-03	1.659975E-05
5.365907E+03	1.822546E-03	1.657065E-05
5.375862E+03	1.822174E-03	1.653371E-05
5.385818E+03	1.820866E-03	1.648866E-05
5.395773E+03	1.818592E-03	1.643526E-05
5.405728E+03	1.815382E-03	1.637385E-05
5.415684E+03	1.811217E-03	1.630427E-05
5.425639E+03	1.806077E-03	1.622642E-05
5.435594E+03	1.800001E-03	1.614069E-05
5.445549E+03	1.792951E-03	1.604679E-05
5.455505E+03	1.784927E-03	1.594475E-05
5.465460E+03	1.775943E-03	1.583477E-05
5.475415E+03	1.765999E-03	1.571686E-05
5.485371E+03	1.755093E-03	1.559103E-05
5.495326E+03	1.743249E-03	1.545751E-05
5.505281E+03	1.730522E-03	1.531680E-05
5.515237E+03	1.716937E-03	1.516912E-05
5.525192E+03	1.702626E-03	1.501565E-05
5.535147E+03	1.687667E-03	1.485709E-05
5.545102E+03	1.672220E-03	1.469483E-05
5.555058E+03	1.656443E-03	1.453027E-05
5.565013E+03	1.640573E-03	1.436548E-05
5.574968E+03	1.624810E-03	1.420220E-05
5.584924E+03	1.609426E-03	1.404275E-05
5.594879E+03	1.594709E-03	1.388963E-05
5.604834E+03	1.580912E-03	1.374498E-05
5.614790E+03	1.568354E-03	1.361152E-05
5.624745E+03	1.557292E-03	1.349139E-05
5.634700E+03	1.548032E-03	1.338718E-05
5.644655E+03	1.540809E-03	1.330081E-05
5.654611E+03	1.535896E-03	1.323453E-05
5.664566E+03	1.533482E-03	1.318986E-05
5.674521E+03	1.533774E-03	1.316845E-05
5.684477E+03	1.536930E-03	1.317151E-05
5.694432E+03	1.543072E-03	1.319998E-05
5.704387E+03	1.552270E-03	1.325428E-05
5.714343E+03	1.564581E-03	1.333476E-05
5.724298E+03	1.579983E-03	1.344111E-05
5.734253E+03	1.598440E-03	1.357284E-05
5.744209E+03	1.619814E-03	1.372866E-05
5.754164E+03	1.643972E-03	1.390731E-05
5.764119E+03	1.670678E-03	1.410665E-05
5.774074E+03	1.699649E-03	1.432421E-05
5.784030E+03	1.730543E-03	1.455699E-05
5.793985E+03	1.762940E-03	1.480140E-05
5.803940E+03	1.796399E-03	1.505367E-05
5.813896E+03	1.830398E-03	1.530940E-05
5.823851E+03	1.864391E-03	1.556403E-05
5.833806E+03	1.897825E-03	1.581298E-05
5.843762E+03	1.930085E-03	1.605118E-05
5.853717E+03	1.960614E-03	1.627409E-05
5.863672E+03	1.988865E-03	1.647729E-05
5.873627E+03	2.014317E-03	1.665662E-05
5.883583E+03	2.036531E-03	1.680862E-05
5.893538E+03	2.055163E-03	1.693065E-05
5.903493E+03	2.069905E-03	1.702037E-05
5.913449E+03	2.080626E-03	1.707695E-05
5.923404E+03	2.087198E-03	1.709954E-05
5.933359E+03	2.089715E-03	1.708917E-05
5.943315E+03	2.088251E-03	1.704664E-05
5.953270E+03	2.083065E-03	1.697429E-05
5.963225E+03	2.074434E-03	1.687458E-05
5.973180E+03	2.062716E-03	1.675060E-05
5.983136E+03	2.048296E-03	1.660563E-05
5.993091E+03	2.031628E-03	1.644350E-05
6.003046E+03	2.013160E-03	1.626795E-05
6.013002E+03	1.993323E-03	1.608256E-05
6.022957E+03	1.972536E-03	1.589079E-05
6.032912E+03	1.951254E-03	1.569636E-05
6.042868E+03	1.929829E-03	1.550213E-05
6.052823E+03	1.908631E-03	1.531111E-05
6.062778E+03	1.887955E-03	1.512569E-05
6.072733E+03	1.868075E-03	1.494804E-05
6.082689E+03	1.849222E-03	1.478002E-05
6.092644E+03	1.831567E-03	1.462299E-05
6.102599E+03	1.815259E-03	1.447813E-05
6.112555E+03	1.800409E-03	1.434631E-05
6.122510E+03	1.787090E-03	1.422811E-05
6.132465E+03	1.775324E-03	1.412370E-05
6.142421E+03	1.765152E-03	1.403339E-05
6.152376E+03	1.756547E-03	1.395699E-05
6.162331E+03	1.749459E-03	1.389411E-05
6.172286E+03	1.743776E-03	1.384386E-05
6.182242E+03	1.739432E-03	1.380577E-05
6.192197E+03	1.736296E-03	1.377882E-05
6.202152E+03	1.734245E-03	1.376202E-05
6.212108E+03	1.733173E-03	1.375450E-05
6.222063E+03	1.732936E-03	1.375508E-05
6.232018E+03	1.733427E-03	1.376291E-05
6.241974E+03	1.734499E-03	1.377680E-05
6.251929E+03	1.736048E-03	1.379589E-05
6.261884E+03	1.737975E-03	1.381940E-05
6.271839E+03	1.740169E-03	1.384640E-05
6.281795E+03	1.742521E-03	1.387603E-05
6.291750E+03	1.744930E-03	1.390746E-05
6.301705E+03	1.747336E-03	1.394018E-05
6.311661E+03	1.749618E-03	1.397323E-05
6.321616E+03	1.751736E-03	1.400623E-05
6.331571E+03	1.753624E-03	1.403865E-05
6.341527E+03	1.755210E-03	1.406988E-05
6.351482E+03	1.756504E-03	1.409995E-05
6.361437E+03	1.757437E-03	1.412829E-05
6.371392E+03	1.758004E-03	1.415480E-05
6.381348E+03	1.758206E-03	1.417948E-05
6.391303E+03	1.758041E-03	1.420225E-05
6.401258E+03	1.757509E-03	1.422308E-05
6.411214E+03	1.756640E-03	1.424217E-05
6.421169E+03	1.755468E-03	1.425975E-05
6.431124E+03	1.754037E-03	1.427614E-05
6.441080E+03	1.752378E-03	1.429154E-05
6.451035E+03	1.750547E-03	1.430636E-05
6.460990E+03	1.748626E-03	1.432117E-05
6.470945E+03	1.746646E-03	1.433617E-05
6.480901E+03	1.744700E-03	1.435204E-05
6.490856E+03	1.742790E-03	1.436874E-05
6.500811E+03	1.740973E-03	1.438666E-05
6.510767E+03	1.739288E-03	1.440607E-05
6.520722E+03	1.737636E-03	1.442609E-05
6.530677E+03	1.736004E-03	1.444654E-05
6.540633E+03	1.734315E-03	1.446672E-05
6.550588E+03	1.732483E-03	1.448585E-05
6.560543E+03	1.730469E-03	1.450353E-05
6.570498E+03	1.728168E-03	1.451881E-05
6.580454E+03	1.725488E-03	1.453082E-05
6.590409E+03	1.722327E-03	1.453864E-05
6.600364E+03	1.718585E-03	1.454134E-05
6.610320E+03	1.714182E-03	1.453813E-05
6.620275E+03	1.709007E-03	1.452798E-05
6.630230E+03	1.702977E-03	1.451011E-05
6.640186E+03	1.696049E-03	1.448403E-05
6.650141E+03	1.688178E-03	1.444926E-05
6.660096E+03	1.679325E-03	1.440537E-05
6.670051E+03	1.669536E-03	1.435266E-05
6.680007E+03	1.658808E-03	1.429101E-05
6.689962E+03	1.647224E-03	1.422105E-05
6.699917E+03	1.634875E-03	1.414350E-05
6.709873E+03	1.621878E-03	1.405929E-05
6.719828E+03	1.608374E-03	1.396959E-05
6.729783E+03	1.594540E-03	1.387588E-05
6.739739E+03	1.580531E-03	1.377950E-05
6.749694E+03	1.566552E-03	1.368219E-05
6.759649E+03	1.552777E-03	1.358548E-05
6.769604E+03	1.539400E-03	1.349107E-05
6.779560E+03	1.526651E-03	1.340095E-05
6.789515E+03	1.514682E-03	1.331650E-05
6.799470E+03	1.503672E-03	1.323931E-05
6.809426E+03	1.493821E-03	1.317119E-05
6.819381E+03	1.485247E-03	1.311319E-05
6.829336E+03	1.478102E-03	1.306670E-05
6.839292E+03	1.472500E-03	1.303276E-05
6.849247E+03	1.468536E-03	1.301225E-05
6.859202E+03	1.466278E-03	1.300582E-05
6.869157E+03	1.465774E-03	1.301391E-05
6.879113E+03	1.467027E-03	1.303657E-05
6.889068E+03	1.470063E-03	1.307407E-05
6.899023E+03	1.474814E-03	1.312580E-05
6.908979E+03	1.481255E-03	1.319153E-05
6.918934E+03	1.489262E-03	1.327017E-05
6.928889E+03	1.498754E-03	1.336100E-05
6.938845E+03	1.509560E-03	1.346244E-05
6.948800E+03	1.521537E-03	1.357321E-05
6.958755E+03	1.534508E-03	1.369169E-05
6.968710E+03	1.548284E-03	1.381616E-05
6.978666E+03	1.562648E-03	1.394463E-05
6.988621E+03	1.577440E-03	1.407564E-05
6.998576E+03	1.592427E-03	1.420704E-05
7.008532E+03	1.607424E-03	1.433714E-05
7.018487E+03	1.622299E-03	1.446473E-05
7.028442E+03	1.636846E-03	1.458791E-05
7.038398E+03	1.651000E-03	1.470606E-05
7.048353E+03	1.664602E-03	1.481774E-05
7.058308E+03	1.677621E-03	1.492263E-05
7.068263E+03	1.690014E-03	1.502034E-05
7.078219E+03	1.701721E-03	1.511029E-05
7.088174E+03	1.712785E-03	1.519285E-05
7.098129E+03	1.723204E-03	1.526799E-05
7.108085E+03	1.733007E-03	1.533597E-05
7.118040E+03	1.742209E-03	1.539689E-05
7.127995E+03	1.750885E-03	1.545143E-05
7.137951E+03	1.759017E-03	1.549943E-05
7.147906E+03	1.766664E-03	1.554140E-05
7.157861E+03	1.773755E-03	1.557673E-05
7.167817E+03	1.780331E-03	1.560578E-05
7.177772E+03	1.786299E-03	1.562777E-05
7.187727E+03	1.791589E-03	1.564208E-05
7.197682E+03	1.796127E-03	1.564812E-05
7.207638E+03	1.799776E-03	1.564474E-05
7.217593E+03	1.802406E-03	1.563085E-05
7.227548E+03	1.803897E-03	1.560549E-05
7.237504E+03	1.804057E-03	1.556707E-05
7.247459E+03	1.802784E-03	1.551483E-05
7.257414E+03	1.799921E-03	1.544754E-05
7.267370E+03	1.795325E-03	1.536409E-05
7.277325E+03	1.788944E-03	1.526422E-05
7.287280E+03	1.780666E-03	1.514713E-05
7.297235E+03	1.770481E-03	1.501292E-05
7.307191E+03	1.758393E-03	1.486182E-05
7.317146E+03	1.744445E-03	1.469442E-05
7.327101E+03	1.728721E-03	1.451163E-05
7.337057E+03	1.711320E-03	1.431448E-05
7.347012E+03	1.692421E-03	1.410467E-05
7.356967E+03	1.672207E-03	1.388395E-05
7.366923E+03	1.650889E-03	1.365424E-05
7.376878E+03	1.628694E-03	1.341759E-05
7.386833E+03	1.605840E-03	1.317595E-05
7.396788E+03	1.582611E-03	1.293177E-05
7.406744E+03	1.559246E-03	1.268712E-05
7.416699E+03	1.535957E-03	1.244380E-05
7.426654E+03	1.512983E-03	1.220382E-05
7.436610E+03	1.490488E-03	1.196851E-05
7.446565E+03	1.468675E-03	1.173953E-05
7.456520E+03	1.447705E-03	1.151814E-05
7.466476E+03	1.427697E-03	1.130527E-05
7.476431E+03	1.408783E-03	1.110192E-05
7.486386E+03	1.391038E-03	1.090860E-05
7.496341E+03	1.374546E-03	1.072592E-05
7.506297E+03	1.359339E-03	1.055401E-05
7.516252E+03	1.345444E-03	1.039300E-05
7.526207E+03	1.332871E-03	1.024286E-05
7.536163E+03	1.321618E-03	1.010343E-05
7.546118E+03	1.311684E-03	9.974614E-06
7.556073E+03	1.303011E-03	9.855823E-06
7.566029E+03	1.295604E-03	9.746982E-06
7.575984E+03	1.289415E-03	9.647628E-06
7.585939E+03	1.284419E-03	9.557452E-06
7.595894E+03	1.280585E-03	9.476120E-06
7.605850E+03	1.277903E-03	9.403448E-06
7.615805E+03	1.276314E-03	9.338913E-06
7.625760E+03	1.275811E-03	9.282363E-06
7.635716E+03	1.276381E-03	9.233622E-06
7.645671E+03	1.277974E-03	9.192240E-06
7.655626E+03	1.280533E-03	9.157730E-06
7.665582E+03	1.284042E-03	9.129920E-06
7.675537E+03	1.288446E-03	9.108362E-06
7.685492E+03	1.293648E-03	9.092319E-06
7.695447E+03	1.299612E-03	9.081507E-06
7.705403E+03	1.306225E-03	9.075125E-06
7.715358E+03	1.313440E-03	9.072836E-06
7.725313E+03	1.321168E-03	9.074051E-06
