#wls	flux	fluxerr
1.592848E+03	1.222150E-04	7.411530E-06
1.632669E+03	1.252135E-04	7.555570E-06
1.672491E+03	1.277387E-04	7.668448E-06
1.712312E+03	1.297654E-04	7.749023E-06
1.752133E+03	1.312000E-04	7.792147E-06
1.791954E+03	1.319403E-04	7.792308E-06
1.831775E+03	1.317730E-04	7.737641E-06
1.871597E+03	1.305169E-04	7.618478E-06
1.911418E+03	1.279842E-04	7.425067E-06
1.951239E+03	1.241140E-04	7.155314E-06
1.991060E+03	1.190440E-04	6.818643E-06
2.030881E+03	1.133830E-04	6.451145E-06
2.070703E+03	1.082128E-04	6.114754E-06
2.110524E+03	1.049227E-04	5.886977E-06
2.150345E+03	1.046584E-04	5.829440E-06
2.190166E+03	1.078312E-04	5.961177E-06
2.229987E+03	1.140884E-04	6.258431E-06
2.269809E+03	1.224671E-04	6.664657E-06
2.309630E+03	1.319851E-04	7.123822E-06
2.349451E+03	1.418108E-04	7.589601E-06
2.389272E+03	1.513435E-04	8.029390E-06
2.429093E+03	1.603629E-04	8.431713E-06
2.468915E+03	1.686880E-04	8.787585E-06
2.508736E+03	1.762908E-04	9.096296E-06
2.548557E+03	1.832261E-04	9.361461E-06
2.588378E+03	1.895737E-04	9.587894E-06
2.628199E+03	1.953264E-04	9.775918E-06
2.668021E+03	2.005698E-04	9.930504E-06
2.707842E+03	2.053877E-04	1.005640E-05
2.747663E+03	2.098290E-04	1.015647E-05
2.787484E+03	2.139065E-04	1.023182E-05
2.827305E+03	2.177614E-04	1.028957E-05
2.867127E+03	2.214363E-04	1.033197E-05
2.906948E+03	2.249729E-04	1.036110E-05
2.946769E+03	2.285095E-04	1.038337E-05
2.986590E+03	2.321185E-04	1.040189E-05
2.996546E+03	2.330279E-04	1.040572E-05
3.006501E+03	2.339823E-04	1.041110E-05
3.016456E+03	2.349195E-04	1.041524E-05
3.026411E+03	2.359071E-04	1.042114E-05
3.036367E+03	2.369301E-04	1.042811E-05
3.046322E+03	2.380051E-04	1.043686E-05
3.056277E+03	2.391275E-04	1.044716E-05
3.066233E+03	2.403241E-04	1.046015E-05
3.076188E+03	2.415292E-04	1.047295E-05
3.086143E+03	2.428322E-04	1.048941E-05
3.096099E+03	2.441375E-04	1.050536E-05
3.106054E+03	2.455040E-04	1.052332E-05
3.116009E+03	2.469294E-04	1.054317E-05
3.125964E+03	2.483806E-04	1.056346E-05
3.135920E+03	2.498866E-04	1.058541E-05
3.145875E+03	2.514456E-04	1.060891E-05
3.155830E+03	2.530256E-04	1.063258E-05
3.165786E+03	2.546862E-04	1.065890E-05
3.175741E+03	2.563655E-04	1.068525E-05
3.185696E+03	2.580930E-04	1.071285E-05
3.195652E+03	2.598980E-04	1.074286E-05
3.205607E+03	2.617493E-04	1.077398E-05
3.215562E+03	2.636164E-04	1.080490E-05
3.225517E+03	2.655890E-04	1.083930E-05
3.235473E+03	2.676061E-04	1.087462E-05
3.245428E+03	2.696677E-04	1.091085E-05
3.255383E+03	2.718030E-04	1.094912E-05
3.265339E+03	2.740119E-04	1.098940E-05
3.275294E+03	2.762641E-04	1.103042E-05
3.285249E+03	2.785891E-04	1.107334E-05
3.295205E+03	2.810162E-04	1.111926E-05
3.305160E+03	2.835155E-04	1.116696E-05
3.315115E+03	2.860572E-04	1.121521E-05
3.325070E+03	2.887296E-04	1.126744E-05
3.335026E+03	2.914734E-04	1.132128E-05
3.344981E+03	2.942885E-04	1.137665E-05
3.354936E+03	2.972040E-04	1.143466E-05
3.364892E+03	3.002199E-04	1.149522E-05
3.374847E+03	3.033359E-04	1.155828E-05
3.384802E+03	3.065521E-04	1.162377E-05
3.394758E+03	3.098684E-04	1.169162E-05
3.404713E+03	3.133142E-04	1.176289E-05
3.414668E+03	3.168608E-04	1.183641E-05
3.424623E+03	3.205373E-04	1.191321E-05
3.434579E+03	3.243159E-04	1.199218E-05
3.444534E+03	3.282549E-04	1.207539E-05
3.454489E+03	3.323266E-04	1.216174E-05
3.464445E+03	3.365042E-04	1.225017E-05
3.474400E+03	3.408750E-04	1.234376E-05
3.484355E+03	3.453843E-04	1.244044E-05
3.494311E+03	3.500346E-04	1.254020E-05
3.504266E+03	3.548578E-04	1.264409E-05
3.514221E+03	3.598852E-04	1.275311E-05
3.524176E+03	3.650650E-04	1.286531E-05
3.534132E+03	3.704578E-04	1.298271E-05
3.544087E+03	3.760410E-04	1.310439E-05
3.554042E+03	3.818485E-04	1.323141E-05
3.563998E+03	3.878869E-04	1.336384E-05
3.573953E+03	3.941354E-04	1.350084E-05
3.583908E+03	4.006579E-04	1.364444E-05
3.593864E+03	4.074349E-04	1.379381E-05
3.603819E+03	4.145035E-04	1.395003E-05
3.613774E+03	4.218461E-04	1.411233E-05
3.623729E+03	4.295009E-04	1.428180E-05
3.633685E+03	4.374511E-04	1.445770E-05
3.643640E+03	4.457645E-04	1.464205E-05
3.653595E+03	4.544251E-04	1.483410E-05
3.663551E+03	4.634736E-04	1.503494E-05
3.673506E+03	4.728947E-04	1.524384E-05
3.683461E+03	4.827296E-04	1.546188E-05
3.693417E+03	4.929631E-04	1.568829E-05
3.703372E+03	5.036643E-04	1.592501E-05
3.713327E+03	5.148175E-04	1.617124E-05
3.723282E+03	5.264343E-04	1.642706E-05
3.733238E+03	5.385260E-04	1.669250E-05
3.743193E+03	5.511304E-04	1.696842E-05
3.753148E+03	5.642558E-04	1.725474E-05
3.763104E+03	5.778804E-04	1.755046E-05
3.773059E+03	5.920654E-04	1.785709E-05
3.783014E+03	6.067549E-04	1.817260E-05
3.792970E+03	6.220053E-04	1.849832E-05
3.802925E+03	6.377824E-04	1.883289E-05
3.812880E+03	6.541065E-04	1.917654E-05
3.822835E+03	6.709354E-04	1.952768E-05
3.832791E+03	6.882505E-04	1.988545E-05
3.842746E+03	7.060576E-04	2.024969E-05
3.852701E+03	7.243283E-04	2.061926E-05
3.862657E+03	7.430273E-04	2.099285E-05
3.872612E+03	7.620841E-04	2.136820E-05
3.882567E+03	7.814810E-04	2.174458E-05
3.892523E+03	8.011952E-04	2.212113E-05
3.902478E+03	8.211064E-04	2.249434E-05
3.912433E+03	8.411796E-04	2.286312E-05
3.922388E+03	8.613747E-04	2.322628E-05
3.932344E+03	8.815548E-04	2.358007E-05
3.942299E+03	9.016711E-04	2.392321E-05
3.952254E+03	9.216407E-04	2.425356E-05
3.962210E+03	9.414102E-04	2.456981E-05
3.972165E+03	9.608325E-04	2.486829E-05
3.982120E+03	9.798232E-04	2.514707E-05
3.992076E+03	9.983615E-04	2.540589E-05
4.002031E+03	1.016307E-03	2.564153E-05
4.011986E+03	1.033587E-03	2.585255E-05
4.021941E+03	1.050165E-03	2.603852E-05
4.031897E+03	1.065982E-03	2.619845E-05
4.041852E+03	1.080929E-03	2.633019E-05
4.051807E+03	1.094998E-03	2.643413E-05
4.061763E+03	1.108161E-03	2.651023E-05
4.071718E+03	1.120375E-03	2.655804E-05
4.081673E+03	1.131636E-03	2.657815E-05
4.091629E+03	1.141983E-03	2.657210E-05
4.101584E+03	1.151379E-03	2.653969E-05
4.111539E+03	1.159859E-03	2.648235E-05
4.121494E+03	1.167468E-03	2.640171E-05
4.131450E+03	1.174287E-03	2.630023E-05
4.141405E+03	1.180297E-03	2.617802E-05
4.151360E+03	1.185599E-03	2.603784E-05
4.161316E+03	1.190268E-03	2.588188E-05
4.171271E+03	1.194363E-03	2.571181E-05
4.181226E+03	1.197971E-03	2.552992E-05
4.191182E+03	1.201131E-03	2.533738E-05
4.201137E+03	1.203961E-03	2.513700E-05
4.211092E+03	1.206553E-03	2.493095E-05
4.221047E+03	1.208951E-03	2.472030E-05
4.231003E+03	1.211222E-03	2.450660E-05
4.240958E+03	1.213480E-03	2.429225E-05
4.250913E+03	1.215788E-03	2.407858E-05
4.260869E+03	1.218208E-03	2.386680E-05
4.270824E+03	1.220798E-03	2.365804E-05
4.280779E+03	1.223614E-03	2.345330E-05
4.290735E+03	1.226753E-03	2.325437E-05
4.300690E+03	1.230243E-03	2.306159E-05
4.310645E+03	1.234130E-03	2.287569E-05
4.320601E+03	1.238458E-03	2.269727E-05
4.330556E+03	1.243310E-03	2.252765E-05
4.340511E+03	1.248682E-03	2.236651E-05
4.350466E+03	1.254630E-03	2.221460E-05
4.360422E+03	1.261208E-03	2.207257E-05
4.370377E+03	1.268402E-03	2.193992E-05
4.380332E+03	1.276297E-03	2.181781E-05
4.390288E+03	1.284870E-03	2.170554E-05
4.400243E+03	1.294134E-03	2.160300E-05
4.410198E+03	1.304134E-03	2.151066E-05
4.420154E+03	1.314868E-03	2.142817E-05
4.430109E+03	1.326324E-03	2.135505E-05
4.440064E+03	1.338503E-03	2.129097E-05
4.450019E+03	1.351370E-03	2.123513E-05
4.459975E+03	1.364882E-03	2.118656E-05
4.469930E+03	1.379040E-03	2.114507E-05
4.479885E+03	1.393773E-03	2.110935E-05
4.489841E+03	1.408996E-03	2.107797E-05
4.499796E+03	1.424648E-03	2.104993E-05
4.509751E+03	1.440636E-03	2.102382E-05
4.519707E+03	1.456855E-03	2.099811E-05
4.529662E+03	1.473187E-03	2.097120E-05
4.539617E+03	1.489506E-03	2.094146E-05
4.549572E+03	1.505695E-03	2.090751E-05
4.559528E+03	1.521594E-03	2.086743E-05
4.569483E+03	1.537101E-03	2.082019E-05
4.579438E+03	1.552051E-03	2.076405E-05
4.589394E+03	1.566282E-03	2.069737E-05
4.599349E+03	1.579720E-03	2.061979E-05
4.609304E+03	1.592198E-03	2.052976E-05
4.619260E+03	1.603619E-03	2.042677E-05
4.629215E+03	1.613882E-03	2.031028E-05
4.639170E+03	1.622901E-03	2.017998E-05
4.649125E+03	1.630627E-03	2.003609E-05
4.659081E+03	1.636992E-03	1.987856E-05
4.669036E+03	1.641967E-03	1.970785E-05
4.678991E+03	1.645563E-03	1.952493E-05
4.688947E+03	1.647774E-03	1.933045E-05
4.698902E+03	1.648650E-03	1.912578E-05
4.708857E+03	1.648222E-03	1.891195E-05
4.718813E+03	1.646535E-03	1.869012E-05
4.728768E+03	1.643703E-03	1.846222E-05
4.738723E+03	1.639770E-03	1.822925E-05
4.748678E+03	1.634836E-03	1.799282E-05
4.758634E+03	1.628972E-03	1.775413E-05
4.768589E+03	1.622313E-03	1.751502E-05
4.778544E+03	1.615226E-03	1.727972E-05
4.788500E+03	1.608046E-03	1.705197E-05
4.798455E+03	1.601133E-03	1.683561E-05
4.808410E+03	1.594793E-03	1.663376E-05
4.818366E+03	1.589260E-03	1.644855E-05
4.828321E+03	1.584790E-03	1.628210E-05
4.838276E+03	1.581581E-03	1.613591E-05
4.848231E+03	1.579754E-03	1.601068E-05
4.858187E+03	1.579427E-03	1.590705E-05
4.868142E+03	1.580675E-03	1.582524E-05
4.878097E+03	1.583511E-03	1.576487E-05
4.888053E+03	1.587923E-03	1.572534E-05
4.898008E+03	1.593839E-03	1.570548E-05
4.907963E+03	1.601163E-03	1.570394E-05
4.917919E+03	1.609706E-03	1.571850E-05
4.927874E+03	1.619337E-03	1.574753E-05
4.937829E+03	1.629820E-03	1.578845E-05
4.947784E+03	1.640916E-03	1.583868E-05
4.957740E+03	1.652389E-03	1.589572E-05
4.967695E+03	1.663982E-03	1.595690E-05
4.977650E+03	1.675425E-03	1.601947E-05
4.987606E+03	1.686525E-03	1.608141E-05
4.997561E+03	1.697061E-03	1.614048E-05
5.007516E+03	1.706871E-03	1.619502E-05
5.017472E+03	1.715859E-03	1.624398E-05
5.027427E+03	1.723943E-03	1.628647E-05
5.037382E+03	1.731147E-03	1.632259E-05
5.047337E+03	1.737451E-03	1.635202E-05
5.057293E+03	1.742989E-03	1.637591E-05
5.067248E+03	1.747855E-03	1.639501E-05
5.077203E+03	1.752166E-03	1.641029E-05
5.087159E+03	1.756111E-03	1.642338E-05
5.097114E+03	1.759805E-03	1.643525E-05
5.107069E+03	1.763438E-03	1.644754E-05
5.117025E+03	1.767130E-03	1.646124E-05
5.126980E+03	1.771003E-03	1.647738E-05
5.136935E+03	1.775162E-03	1.649683E-05
5.146890E+03	1.779686E-03	1.652023E-05
5.156846E+03	1.784637E-03	1.654806E-05
5.166801E+03	1.790072E-03	1.658076E-05
5.176756E+03	1.795989E-03	1.661825E-05
5.186712E+03	1.802388E-03	1.666047E-05
5.196667E+03	1.809249E-03	1.670718E-05
5.206622E+03	1.816536E-03	1.675803E-05
5.216578E+03	1.824197E-03	1.681252E-05
5.226533E+03	1.832167E-03	1.687002E-05
5.236488E+03	1.840385E-03	1.692998E-05
5.246443E+03	1.848720E-03	1.699121E-05
5.256399E+03	1.857106E-03	1.705315E-05
5.266354E+03	1.865391E-03	1.711443E-05
5.276309E+03	1.873475E-03	1.717419E-05
5.286265E+03	1.881232E-03	1.723137E-05
5.296220E+03	1.888538E-03	1.728488E-05
5.306175E+03	1.895269E-03	1.733372E-05
5.316131E+03	1.901310E-03	1.737691E-05
5.326086E+03	1.906535E-03	1.741344E-05
5.336041E+03	1.910852E-03	1.744258E-05
5.345996E+03	1.914223E-03	1.746414E-05
5.355952E+03	1.916532E-03	1.747719E-05
5.365907E+03	1.917779E-03	1.748186E-05
5.375862E+03	1.917944E-03	1.747813E-05
5.385818E+03	1.917002E-03	1.746592E-05
5.395773E+03	1.914965E-03	1.744547E-05
5.405728E+03	1.911853E-03	1.741711E-05
5.415684E+03	1.907690E-03	1.738122E-05
5.425639E+03	1.902501E-03	1.733813E-05
5.435594E+03	1.896301E-03	1.728813E-05
5.445549E+03	1.889094E-03	1.723135E-05
5.455505E+03	1.880845E-03	1.716759E-05
5.465460E+03	1.871537E-03	1.709679E-05
5.475415E+03	1.861088E-03	1.701814E-05
5.485371E+03	1.849411E-03	1.693058E-05
5.495326E+03	1.836377E-03	1.683267E-05
5.505281E+03	1.821898E-03	1.672332E-05
5.515237E+03	1.805936E-03	1.660189E-05
5.525192E+03	1.788472E-03	1.646792E-05
5.535147E+03	1.769601E-03	1.632199E-05
5.545102E+03	1.749402E-03	1.616456E-05
5.555058E+03	1.728136E-03	1.599775E-05
5.565013E+03	1.706065E-03	1.582373E-05
5.574968E+03	1.683533E-03	1.564548E-05
5.584924E+03	1.660955E-03	1.546666E-05
5.594879E+03	1.638740E-03	1.529089E-05
5.604834E+03	1.617370E-03	1.512256E-05
5.614790E+03	1.597339E-03	1.496621E-05
5.624745E+03	1.579091E-03	1.482595E-05
5.634700E+03	1.563119E-03	1.470641E-05
5.644655E+03	1.549828E-03	1.461142E-05
5.654611E+03	1.539650E-03	1.454513E-05
5.664566E+03	1.532918E-03	1.451078E-05
5.674521E+03	1.529964E-03	1.451164E-05
5.684477E+03	1.531058E-03	1.455040E-05
5.694432E+03	1.536404E-03	1.462915E-05
5.704387E+03	1.546168E-03	1.474964E-05
5.714343E+03	1.560472E-03	1.491319E-05
5.724298E+03	1.579347E-03	1.512028E-05
5.734253E+03	1.602789E-03	1.537099E-05
5.744209E+03	1.630673E-03	1.566429E-05
5.754164E+03	1.662836E-03	1.599874E-05
5.764119E+03	1.699012E-03	1.637188E-05
5.774074E+03	1.738836E-03	1.678028E-05
5.784030E+03	1.781820E-03	1.721930E-05
5.793985E+03	1.827401E-03	1.768355E-05
5.803940E+03	1.874860E-03	1.816606E-05
5.813896E+03	1.923446E-03	1.865956E-05
5.823851E+03	1.972274E-03	1.915540E-05
5.833806E+03	2.020392E-03	1.964430E-05
5.843762E+03	2.066856E-03	2.011700E-05
5.853717E+03	2.110685E-03	2.056385E-05
5.863672E+03	2.150978E-03	2.097599E-05
5.873627E+03	2.186874E-03	2.134493E-05
5.883583E+03	2.217627E-03	2.166330E-05
5.893538E+03	2.242701E-03	2.192577E-05
5.903493E+03	2.261648E-03	2.212792E-05
5.913449E+03	2.274269E-03	2.226773E-05
5.923404E+03	2.280509E-03	2.234467E-05
5.933359E+03	2.280523E-03	2.236021E-05
5.943315E+03	2.274649E-03	2.231773E-05
5.953270E+03	2.263310E-03	2.222138E-05
5.963225E+03	2.247127E-03	2.207734E-05
5.973180E+03	2.226724E-03	2.189179E-05
5.983136E+03	2.202860E-03	2.167228E-05
5.993091E+03	2.176231E-03	2.142578E-05
6.003046E+03	2.147575E-03	2.115964E-05
6.013002E+03	2.117640E-03	2.088136E-05
6.022957E+03	2.087045E-03	2.059717E-05
6.032912E+03	2.056415E-03	2.031338E-05
6.042868E+03	2.026285E-03	2.003541E-05
6.052823E+03	1.997119E-03	1.976800E-05
6.062778E+03	1.969292E-03	1.951503E-05
6.072733E+03	1.943164E-03	1.928024E-05
6.082689E+03	1.918951E-03	1.906598E-05
6.092644E+03	1.896885E-03	1.887474E-05
6.102599E+03	1.877063E-03	1.870772E-05
6.112555E+03	1.859568E-03	1.856597E-05
6.122510E+03	1.844453E-03	1.845026E-05
6.132465E+03	1.831672E-03	1.836040E-05
6.142421E+03	1.821136E-03	1.829579E-05
6.152376E+03	1.812739E-03	1.825563E-05
6.162331E+03	1.806370E-03	1.823911E-05
6.172286E+03	1.801865E-03	1.824489E-05
6.182242E+03	1.799063E-03	1.827165E-05
6.192197E+03	1.797769E-03	1.831768E-05
6.202152E+03	1.797701E-03	1.838027E-05
6.212108E+03	1.798588E-03	1.845660E-05
6.222063E+03	1.800211E-03	1.854439E-05
6.232018E+03	1.802446E-03	1.864231E-05
6.241974E+03	1.805149E-03	1.874881E-05
6.251929E+03	1.808198E-03	1.886254E-05
6.261884E+03	1.811471E-03	1.898214E-05
6.271839E+03	1.814796E-03	1.910568E-05
6.281795E+03	1.818078E-03	1.923204E-05
6.291750E+03	1.821201E-03	1.935983E-05
6.301705E+03	1.824044E-03	1.948760E-05
6.311661E+03	1.826561E-03	1.961464E-05
6.321616E+03	1.828649E-03	1.973967E-05
6.331571E+03	1.830297E-03	1.986236E-05
6.341527E+03	1.831477E-03	1.998215E-05
6.351482E+03	1.832155E-03	2.009847E-05
6.361437E+03	1.832370E-03	2.021149E-05
6.371392E+03	1.832113E-03	2.032092E-05
6.381348E+03	1.831425E-03	2.042695E-05
6.391303E+03	1.830315E-03	2.052948E-05
6.401258E+03	1.828819E-03	2.062870E-05
6.411214E+03	1.827015E-03	2.072528E-05
6.421169E+03	1.824894E-03	2.081895E-05
6.431124E+03	1.822531E-03	2.091035E-05
6.441080E+03	1.819970E-03	2.099982E-05
6.451035E+03	1.817281E-03	2.108800E-05
6.460990E+03	1.814527E-03	2.117541E-05
6.470945E+03	1.811774E-03	2.126265E-05
6.480901E+03	1.809151E-03	2.135107E-05
6.490856E+03	1.806763E-03	2.144178E-05
6.500811E+03	1.804723E-03	2.153604E-05
6.510767E+03	1.803066E-03	2.163417E-05
6.520722E+03	1.801854E-03	2.173685E-05
6.530677E+03	1.801098E-03	2.184414E-05
6.540633E+03	1.800754E-03	2.195549E-05
6.550588E+03	1.800747E-03	2.206990E-05
6.560543E+03	1.800982E-03	2.218613E-05
6.570498E+03	1.801314E-03	2.230231E-05
6.580454E+03	1.801585E-03	2.241637E-05
6.590409E+03	1.801555E-03	2.252518E-05
6.600364E+03	1.801048E-03	2.262634E-05
6.610320E+03	1.799819E-03	2.271658E-05
6.620275E+03	1.797667E-03	2.279311E-05
6.630230E+03	1.794389E-03	2.285309E-05
6.640186E+03	1.789805E-03	2.289394E-05
6.650141E+03	1.783756E-03	2.291331E-05
6.660096E+03	1.776184E-03	2.291015E-05
6.670051E+03	1.767024E-03	2.288333E-05
6.680007E+03	1.756266E-03	2.283239E-05
6.689962E+03	1.744011E-03	2.275841E-05
6.699917E+03	1.730355E-03	2.266237E-05
6.709873E+03	1.715479E-03	2.254645E-05
6.719828E+03	1.699566E-03	2.241290E-05
6.729783E+03	1.682855E-03	2.226473E-05
6.739739E+03	1.665628E-03	2.210562E-05
6.749694E+03	1.648150E-03	2.193904E-05
6.759649E+03	1.630733E-03	2.176917E-05
6.769604E+03	1.613657E-03	2.159980E-05
6.779560E+03	1.597237E-03	2.143522E-05
6.789515E+03	1.581743E-03	2.127916E-05
6.799470E+03	1.567483E-03	2.113594E-05
6.809426E+03	1.554661E-03	2.100843E-05
6.819381E+03	1.543563E-03	2.090070E-05
6.829336E+03	1.534365E-03	2.081527E-05
6.839292E+03	1.527264E-03	2.075501E-05
6.849247E+03	1.522412E-03	2.072212E-05
6.859202E+03	1.519926E-03	2.071836E-05
6.869157E+03	1.519871E-03	2.074474E-05
6.879113E+03	1.522309E-03	2.080221E-05
6.889068E+03	1.527239E-03	2.089086E-05
6.899023E+03	1.534603E-03	2.100993E-05
6.908979E+03	1.544328E-03	2.115844E-05
6.918934E+03	1.556256E-03	2.133424E-05
6.928889E+03	1.570238E-03	2.153524E-05
6.938845E+03	1.585984E-03	2.175742E-05
6.948800E+03	1.603258E-03	2.199742E-05
6.958755E+03	1.621748E-03	2.225090E-05
6.968710E+03	1.641100E-03	2.251287E-05
6.978666E+03	1.660964E-03	2.277839E-05
6.988621E+03	1.681008E-03	2.304278E-05
6.998576E+03	1.700872E-03	2.330099E-05
7.008532E+03	1.720243E-03	2.354862E-05
7.018487E+03	1.738845E-03	2.378181E-05
7.028442E+03	1.756453E-03	2.399739E-05
7.038398E+03	1.772879E-03	2.419274E-05
7.048353E+03	1.788059E-03	2.436697E-05
7.058308E+03	1.801909E-03	2.451891E-05
7.068263E+03	1.814470E-03	2.464915E-05
7.078219E+03	1.825796E-03	2.475844E-05
7.088174E+03	1.836006E-03	2.484845E-05
7.098129E+03	1.845280E-03	2.492165E-05
7.108085E+03	1.853773E-03	2.498017E-05
7.118040E+03	1.861670E-03	2.502657E-05
7.127995E+03	1.869149E-03	2.506326E-05
7.137951E+03	1.876343E-03	2.509208E-05
7.147906E+03	1.883401E-03	2.511502E-05
7.157861E+03	1.890404E-03	2.513317E-05
7.167817E+03	1.897359E-03	2.514665E-05
7.177772E+03	1.904242E-03	2.515515E-05
7.187727E+03	1.910972E-03	2.515761E-05
7.197682E+03	1.917436E-03	2.515261E-05
7.207638E+03	1.923402E-03	2.513714E-05
7.217593E+03	1.928664E-03	2.510864E-05
7.227548E+03	1.932938E-03	2.506357E-05
7.237504E+03	1.935991E-03	2.499910E-05
7.247459E+03	1.937464E-03	2.491087E-05
7.257414E+03	1.937124E-03	2.479622E-05
7.267370E+03	1.934691E-03	2.465198E-05
7.277325E+03	1.929967E-03	2.447607E-05
7.287280E+03	1.922732E-03	2.426624E-05
7.297235E+03	1.912921E-03	2.402223E-05
7.307191E+03	1.900437E-03	2.374346E-05
7.317146E+03	1.885353E-03	2.343146E-05
7.327101E+03	1.867714E-03	2.308748E-05
7.337057E+03	1.847732E-03	2.271476E-05
7.347012E+03	1.825583E-03	2.231612E-05
7.356967E+03	1.801590E-03	2.189610E-05
7.366923E+03	1.776047E-03	2.145882E-05
7.376878E+03	1.749278E-03	2.100868E-05
7.386833E+03	1.721687E-03	2.055095E-05
7.396788E+03	1.693637E-03	2.009030E-05
7.406744E+03	1.665440E-03	1.963067E-05
7.416699E+03	1.637451E-03	1.917644E-05
7.426654E+03	1.609979E-03	1.873133E-05
7.436610E+03	1.583319E-03	1.829879E-05
7.446565E+03	1.557668E-03	1.788105E-05
7.456520E+03	1.533247E-03	1.748054E-05
7.466476E+03	1.510192E-03	1.709867E-05
7.476431E+03	1.488664E-03	1.673703E-05
7.486386E+03	1.468701E-03	1.639587E-05
7.496341E+03	1.450351E-03	1.607544E-05
7.506297E+03	1.433641E-03	1.577578E-05
7.516252E+03	1.418535E-03	1.549611E-05
7.526207E+03	1.404990E-03	1.523557E-05
7.536163E+03	1.392938E-03	1.499306E-05
7.546118E+03	1.382315E-03	1.476751E-05
7.556073E+03	1.373009E-03	1.455739E-05
7.566029E+03	1.364938E-03	1.436150E-05
7.575984E+03	1.357963E-03	1.417811E-05
7.585939E+03	1.352032E-03	1.400642E-05
7.595894E+03	1.347118E-03	1.384589E-05
7.605850E+03	1.343250E-03	1.369659E-05
7.615805E+03	1.340420E-03	1.355822E-05
7.625760E+03	1.338637E-03	1.343062E-05
7.635716E+03	1.337919E-03	1.331375E-05
7.645671E+03	1.338238E-03	1.320711E-05
7.655626E+03	1.339590E-03	1.311046E-05
7.665582E+03	1.341922E-03	1.302307E-05
7.675537E+03	1.345200E-03	1.294443E-05
7.685492E+03	1.349339E-03	1.287358E-05
7.695447E+03	1.354292E-03	1.280995E-05
7.705403E+03	1.359930E-03	1.275221E-05
7.715358E+03	1.366148E-03	1.269934E-05
7.725313E+03	1.372871E-03	1.265061E-05
