#wls	flux	fluxerr
1.592848E+03	1.077072E-04	4.812288E-06
1.632669E+03	1.103571E-04	4.914287E-06
1.672491E+03	1.125680E-04	4.995586E-06
1.712312E+03	1.143618E-04	5.057319E-06
1.752133E+03	1.156351E-04	5.095098E-06
1.791954E+03	1.162987E-04	5.105230E-06
1.831775E+03	1.161429E-04	5.078827E-06
1.871597E+03	1.150539E-04	5.011343E-06
1.911418E+03	1.128223E-04	4.894177E-06
1.951239E+03	1.093967E-04	4.725737E-06
1.991060E+03	1.049223E-04	4.512952E-06
2.030881E+03	9.991675E-05	4.278628E-06
2.070703E+03	9.535492E-05	4.064681E-06
2.110524E+03	9.244380E-05	3.922118E-06
2.150345E+03	9.219443E-05	3.892671E-06
2.190166E+03	9.498770E-05	3.990703E-06
2.229987E+03	1.004975E-04	4.200621E-06
2.269809E+03	1.078981E-04	4.486247E-06
2.309630E+03	1.163109E-04	4.809880E-06
2.349451E+03	1.250308E-04	5.141696E-06
2.389272E+03	1.335614E-04	5.461038E-06
2.429093E+03	1.416463E-04	5.757465E-06
2.468915E+03	1.492316E-04	6.028978E-06
2.508736E+03	1.562787E-04	6.274248E-06
2.548557E+03	1.628435E-04	6.495786E-06
2.588378E+03	1.690033E-04	6.696898E-06
2.628199E+03	1.747837E-04	6.878784E-06
2.668021E+03	1.802925E-04	7.045847E-06
2.707842E+03	1.855762E-04	7.200001E-06
2.747663E+03	1.907043E-04	7.343995E-06
2.787484E+03	1.957409E-04	7.480305E-06
2.827305E+03	2.007446E-04	7.611120E-06
2.867127E+03	2.057989E-04	7.739493E-06
2.906948E+03	2.109232E-04	7.865992E-06
2.946769E+03	2.162502E-04	7.995332E-06
2.986590E+03	2.218183E-04	8.128609E-06
2.996546E+03	2.232348E-04	8.162016E-06
3.006501E+03	2.246905E-04	8.196526E-06
3.016456E+03	2.261853E-04	8.232118E-06
3.026411E+03	2.276941E-04	8.267871E-06
3.036367E+03	2.292321E-04	8.304329E-06
3.046322E+03	2.308441E-04	8.343101E-06
3.056277E+03	2.324958E-04	8.382934E-06
3.066233E+03	2.342122E-04	8.424709E-06
3.076188E+03	2.359888E-04	8.468247E-06
3.086143E+03	2.378218E-04	8.513394E-06
3.096099E+03	2.396785E-04	8.558964E-06
3.106054E+03	2.415848E-04	8.605874E-06
3.116009E+03	2.435375E-04	8.653991E-06
3.125964E+03	2.455337E-04	8.703200E-06
3.135920E+03	2.475709E-04	8.753397E-06
3.145875E+03	2.496466E-04	8.804479E-06
3.155830E+03	2.517874E-04	8.857368E-06
3.165786E+03	2.539336E-04	8.909949E-06
3.175741E+03	2.561406E-04	8.964158E-06
3.185696E+03	2.583781E-04	9.018918E-06
3.195652E+03	2.606442E-04	9.074150E-06
3.205607E+03	2.629662E-04	9.130791E-06
3.215562E+03	2.653423E-04	9.188758E-06
3.225517E+03	2.677427E-04	9.247005E-06
3.235473E+03	2.701945E-04	9.306458E-06
3.245428E+03	2.726966E-04	9.367057E-06
3.255383E+03	2.752194E-04	9.427770E-06
3.265339E+03	2.778185E-04	9.490491E-06
3.275294E+03	2.804364E-04	9.553233E-06
3.285249E+03	2.831286E-04	9.617875E-06
3.295205E+03	2.858660E-04	9.683403E-06
3.305160E+03	2.886479E-04	9.749777E-06
3.315115E+03	2.915016E-04	9.817900E-06
3.325070E+03	2.943986E-04	9.886790E-06
3.335026E+03	2.973660E-04	9.957340E-06
3.344981E+03	3.003760E-04	1.002859E-05
3.354936E+03	3.034835E-04	1.010236E-05
3.364892E+03	3.066329E-04	1.017677E-05
3.374847E+03	3.098792E-04	1.025361E-05
3.384802E+03	3.131677E-04	1.033106E-05
3.394758E+03	3.165532E-04	1.041089E-05
3.404713E+03	3.200088E-04	1.049219E-05
3.414668E+03	3.235619E-04	1.057584E-05
3.424623E+03	3.272136E-04	1.066182E-05
3.434579E+03	3.309371E-04	1.074925E-05
3.444534E+03	3.347609E-04	1.083900E-05
3.454489E+03	3.386863E-04	1.093109E-05
3.464445E+03	3.427411E-04	1.102637E-05
3.474400E+03	3.468739E-04	1.112315E-05
3.484355E+03	3.511400E-04	1.122317E-05
3.494311E+03	3.555415E-04	1.132645E-05
3.504266E+03	3.600804E-04	1.143300E-05
3.514221E+03	3.647336E-04	1.154204E-05
3.524176E+03	3.695303E-04	1.165444E-05
3.534132E+03	3.744996E-04	1.177108E-05
3.544087E+03	3.796193E-04	1.189119E-05
3.554042E+03	3.848926E-04	1.201482E-05
3.563998E+03	3.903498E-04	1.214285E-05
3.573953E+03	3.959949E-04	1.227534E-05
3.583908E+03	4.018322E-04	1.241235E-05
3.593864E+03	4.078660E-04	1.255395E-05
3.603819E+03	4.141011E-04	1.270020E-05
3.613774E+03	4.205677E-04	1.285197E-05
3.623729E+03	4.272446E-04	1.300851E-05
3.633685E+03	4.341622E-04	1.317067E-05
3.643640E+03	4.413247E-04	1.333849E-05
3.653595E+03	4.487363E-04	1.351199E-05
3.663551E+03	4.564261E-04	1.369197E-05
3.673506E+03	4.643726E-04	1.387767E-05
3.683461E+03	4.726039E-04	1.406983E-05
3.693417E+03	4.810972E-04	1.426767E-05
3.703372E+03	4.899045E-04	1.447263E-05
3.713327E+03	4.990013E-04	1.468385E-05
3.723282E+03	5.083875E-04	1.490123E-05
3.733238E+03	5.180867E-04	1.512535E-05
3.743193E+03	5.280713E-04	1.535527E-05
3.753148E+03	5.383869E-04	1.559222E-05
3.763104E+03	5.489776E-04	1.583444E-05
3.773059E+03	5.598864E-04	1.608306E-05
3.783014E+03	5.710784E-04	1.633695E-05
3.792970E+03	5.825421E-04	1.659568E-05
3.802925E+03	5.942888E-04	1.685945E-05
3.812880E+03	6.063028E-04	1.712771E-05
3.822835E+03	6.185908E-04	1.740053E-05
3.832791E+03	6.310819E-04	1.767581E-05
3.842746E+03	6.437778E-04	1.795351E-05
3.852701E+03	6.566780E-04	1.823353E-05
3.862657E+03	6.697547E-04	1.851501E-05
3.872612E+03	6.829519E-04	1.879632E-05
3.882567E+03	6.962627E-04	1.907723E-05
3.892523E+03	7.096771E-04	1.935739E-05
3.902478E+03	7.231088E-04	1.963442E-05
3.912433E+03	7.365448E-04	1.990794E-05
3.922388E+03	7.499459E-04	2.017687E-05
3.932344E+03	7.632972E-04	2.044082E-05
3.942299E+03	7.765086E-04	2.069739E-05
3.952254E+03	7.896141E-04	2.094752E-05
3.962210E+03	8.024993E-04	2.118822E-05
3.972165E+03	8.151752E-04	2.141984E-05
3.982120E+03	8.276036E-04	2.164145E-05
3.992076E+03	8.397254E-04	2.185160E-05
4.002031E+03	8.515074E-04	2.204954E-05
4.011986E+03	8.629202E-04	2.223461E-05
4.021941E+03	8.739614E-04	2.240690E-05
4.031897E+03	8.845845E-04	2.256535E-05
4.041852E+03	8.947716E-04	2.270966E-05
4.051807E+03	9.044859E-04	2.283906E-05
4.061763E+03	9.137654E-04	2.295468E-05
4.071718E+03	9.225602E-04	2.305543E-05
4.081673E+03	9.308724E-04	2.314156E-05
4.091629E+03	9.387312E-04	2.321397E-05
4.101584E+03	9.461043E-04	2.327204E-05
4.111539E+03	9.530314E-04	2.331692E-05
4.121494E+03	9.595126E-04	2.334880E-05
4.131450E+03	9.655545E-04	2.336800E-05
4.141405E+03	9.712307E-04	2.337648E-05
4.151360E+03	9.765142E-04	2.337373E-05
4.161316E+03	9.814455E-04	2.336086E-05
4.171271E+03	9.860881E-04	2.333953E-05
4.181226E+03	9.904283E-04	2.330954E-05
4.191182E+03	9.945554E-04	2.327308E-05
4.201137E+03	9.984617E-04	2.323007E-05
4.211092E+03	1.002220E-03	2.318230E-05
4.221047E+03	1.005847E-03	2.313020E-05
4.231003E+03	1.009400E-03	2.307511E-05
4.240958E+03	1.012896E-03	2.301751E-05
4.250913E+03	1.016393E-03	2.295869E-05
4.260869E+03	1.019928E-03	2.289953E-05
4.270824E+03	1.023522E-03	2.284044E-05
4.280779E+03	1.027212E-03	2.278224E-05
4.290735E+03	1.031034E-03	2.272567E-05
4.300690E+03	1.035020E-03	2.267143E-05
4.310645E+03	1.039170E-03	2.261941E-05
4.320601E+03	1.043546E-03	2.257091E-05
4.330556E+03	1.048126E-03	2.252536E-05
4.340511E+03	1.052965E-03	2.248388E-05
4.350466E+03	1.058021E-03	2.244542E-05
4.360422E+03	1.063341E-03	2.241097E-05
4.370377E+03	1.068924E-03	2.238034E-05
4.380332E+03	1.074759E-03	2.235323E-05
4.390288E+03	1.080832E-03	2.232923E-05
4.400243E+03	1.087136E-03	2.230813E-05
4.410198E+03	1.093661E-03	2.228964E-05
4.420154E+03	1.100393E-03	2.227336E-05
4.430109E+03	1.107310E-03	2.225880E-05
4.440064E+03	1.114372E-03	2.224506E-05
4.450019E+03	1.121576E-03	2.223207E-05
4.459975E+03	1.128870E-03	2.221876E-05
4.469930E+03	1.136229E-03	2.220457E-05
4.479885E+03	1.143636E-03	2.218916E-05
4.489841E+03	1.151038E-03	2.217154E-05
4.499796E+03	1.158427E-03	2.215155E-05
4.509751E+03	1.165759E-03	2.212836E-05
4.519707E+03	1.172987E-03	2.210115E-05
4.529662E+03	1.180079E-03	2.206937E-05
4.539617E+03	1.187016E-03	2.203271E-05
4.549572E+03	1.193746E-03	2.199035E-05
4.559528E+03	1.200253E-03	2.194204E-05
4.569483E+03	1.206486E-03	2.188702E-05
4.579438E+03	1.212414E-03	2.182484E-05
4.589394E+03	1.218041E-03	2.175571E-05
4.599349E+03	1.223310E-03	2.167880E-05
4.609304E+03	1.228218E-03	2.159419E-05
4.619260E+03	1.232764E-03	2.150205E-05
4.629215E+03	1.236925E-03	2.140216E-05
4.639170E+03	1.240697E-03	2.129464E-05
4.649125E+03	1.244116E-03	2.118027E-05
4.659081E+03	1.247162E-03	2.105890E-05
4.669036E+03	1.249871E-03	2.093129E-05
4.678991E+03	1.252267E-03	2.079805E-05
4.688947E+03	1.254388E-03	2.065991E-05
4.698902E+03	1.256259E-03	2.051745E-05
4.708857E+03	1.257964E-03	2.037214E-05
4.718813E+03	1.259530E-03	2.022453E-05
4.728768E+03	1.261010E-03	2.007552E-05
4.738723E+03	1.262492E-03	1.992660E-05
4.748678E+03	1.264026E-03	1.977855E-05
4.758634E+03	1.265695E-03	1.963268E-05
4.768589E+03	1.267571E-03	1.949007E-05
4.778544E+03	1.269679E-03	1.935105E-05
4.788500E+03	1.272039E-03	1.921585E-05
4.798455E+03	1.274699E-03	1.908513E-05
4.808410E+03	1.277649E-03	1.895866E-05
4.818366E+03	1.280940E-03	1.883708E-05
4.828321E+03	1.284575E-03	1.872035E-05
4.838276E+03	1.288575E-03	1.860861E-05
4.848231E+03	1.292970E-03	1.850218E-05
4.858187E+03	1.297744E-03	1.840069E-05
4.868142E+03	1.302922E-03	1.830435E-05
4.878097E+03	1.308510E-03	1.821309E-05
4.888053E+03	1.314478E-03	1.812638E-05
4.898008E+03	1.320852E-03	1.804443E-05
4.907963E+03	1.327609E-03	1.796679E-05
4.917919E+03	1.334734E-03	1.789317E-05
4.927874E+03	1.342195E-03	1.782299E-05
4.937829E+03	1.349969E-03	1.775588E-05
4.947784E+03	1.358046E-03	1.769160E-05
4.957740E+03	1.366367E-03	1.762932E-05
4.967695E+03	1.374932E-03	1.756897E-05
4.977650E+03	1.383678E-03	1.750972E-05
4.987606E+03	1.392572E-03	1.745112E-05
4.997561E+03	1.401596E-03	1.739293E-05
5.007516E+03	1.410704E-03	1.733457E-05
5.017472E+03	1.419877E-03	1.727585E-05
5.027427E+03	1.429072E-03	1.721627E-05
5.037382E+03	1.438260E-03	1.715554E-05
5.047337E+03	1.447417E-03	1.709340E-05
5.057293E+03	1.456519E-03	1.702967E-05
5.067248E+03	1.465562E-03	1.696438E-05
5.077203E+03	1.474497E-03	1.689704E-05
5.087159E+03	1.483338E-03	1.682793E-05
5.097114E+03	1.492041E-03	1.675665E-05
5.107069E+03	1.500626E-03	1.668354E-05
5.117025E+03	1.509066E-03	1.660842E-05
5.126980E+03	1.517350E-03	1.653131E-05
5.136935E+03	1.525469E-03	1.645224E-05
5.146890E+03	1.533412E-03	1.637124E-05
5.156846E+03	1.541186E-03	1.628851E-05
5.166801E+03	1.548746E-03	1.620375E-05
5.176756E+03	1.556113E-03	1.611733E-05
5.186712E+03	1.563255E-03	1.602909E-05
5.196667E+03	1.570157E-03	1.593904E-05
5.206622E+03	1.576817E-03	1.584735E-05
5.216578E+03	1.583183E-03	1.575368E-05
5.226533E+03	1.589266E-03	1.565835E-05
5.236488E+03	1.595027E-03	1.556116E-05
5.246443E+03	1.600457E-03	1.546225E-05
5.256399E+03	1.605499E-03	1.536126E-05
5.266354E+03	1.610158E-03	1.525851E-05
5.276309E+03	1.614390E-03	1.515379E-05
5.286265E+03	1.618185E-03	1.504724E-05
5.296220E+03	1.621482E-03	1.493856E-05
5.306175E+03	1.624288E-03	1.482805E-05
5.316131E+03	1.626560E-03	1.471557E-05
5.326086E+03	1.628275E-03	1.460117E-05
5.336041E+03	1.629425E-03	1.448505E-05
5.345996E+03	1.629958E-03	1.436697E-05
5.355952E+03	1.629888E-03	1.424734E-05
5.365907E+03	1.629166E-03	1.412596E-05
5.375862E+03	1.627813E-03	1.400325E-05
5.385818E+03	1.625803E-03	1.387923E-05
5.395773E+03	1.623112E-03	1.375393E-05
5.405728E+03	1.619773E-03	1.362781E-05
5.415684E+03	1.615753E-03	1.350082E-05
5.425639E+03	1.611075E-03	1.337332E-05
5.435594E+03	1.605753E-03	1.324560E-05
5.445549E+03	1.599788E-03	1.311782E-05
5.455505E+03	1.593225E-03	1.299047E-05
5.465460E+03	1.586084E-03	1.286382E-05
5.475415E+03	1.578417E-03	1.273836E-05
5.485371E+03	1.570285E-03	1.261445E-05
5.495326E+03	1.561773E-03	1.249262E-05
5.505281E+03	1.552992E-03	1.237357E-05
5.515237E+03	1.544044E-03	1.225790E-05
5.525192E+03	1.535050E-03	1.214636E-05
5.535147E+03	1.526103E-03	1.203946E-05
5.545102E+03	1.517343E-03	1.193808E-05
5.555058E+03	1.508851E-03	1.184262E-05
5.565013E+03	1.500768E-03	1.175394E-05
5.574968E+03	1.493204E-03	1.167268E-05
5.584924E+03	1.486236E-03	1.159920E-05
5.594879E+03	1.479998E-03	1.153432E-05
5.604834E+03	1.474590E-03	1.147862E-05
5.614790E+03	1.470092E-03	1.143250E-05
5.624745E+03	1.466593E-03	1.139646E-05
5.634700E+03	1.464188E-03	1.137105E-05
5.644655E+03	1.462934E-03	1.135654E-05
5.654611E+03	1.462909E-03	1.135337E-05
5.664566E+03	1.464134E-03	1.136156E-05
5.674521E+03	1.466677E-03	1.138150E-05
5.684477E+03	1.470564E-03	1.141325E-05
5.694432E+03	1.475793E-03	1.145668E-05
5.704387E+03	1.482359E-03	1.151166E-05
5.714343E+03	1.490244E-03	1.157794E-05
5.724298E+03	1.499411E-03	1.165513E-05
5.734253E+03	1.509807E-03	1.174274E-05
5.744209E+03	1.521375E-03	1.184026E-05
5.754164E+03	1.533997E-03	1.194668E-05
5.764119E+03	1.547582E-03	1.206121E-05
5.774074E+03	1.562007E-03	1.218284E-05
5.784030E+03	1.577133E-03	1.231040E-05
5.793985E+03	1.592791E-03	1.244250E-05
5.803940E+03	1.608831E-03	1.257790E-05
5.813896E+03	1.625075E-03	1.271514E-05
5.823851E+03	1.641308E-03	1.285246E-05
5.833806E+03	1.657372E-03	1.298855E-05
5.843762E+03	1.673063E-03	1.312174E-05
5.853717E+03	1.688193E-03	1.325048E-05
5.863672E+03	1.702582E-03	1.337327E-05
5.873627E+03	1.716062E-03	1.348874E-05
5.883583E+03	1.728461E-03	1.359545E-05
5.893538E+03	1.739642E-03	1.369228E-05
5.903493E+03	1.749508E-03	1.377838E-05
5.913449E+03	1.757952E-03	1.385286E-05
5.923404E+03	1.764892E-03	1.391503E-05
5.933359E+03	1.770307E-03	1.396468E-05
5.943315E+03	1.774172E-03	1.400158E-05
5.953270E+03	1.776506E-03	1.402584E-05
5.963225E+03	1.777353E-03	1.403781E-05
5.973180E+03	1.776783E-03	1.403802E-05
5.983136E+03	1.774872E-03	1.402708E-05
5.993091E+03	1.771715E-03	1.400574E-05
6.003046E+03	1.767457E-03	1.397518E-05
6.013002E+03	1.762241E-03	1.393654E-05
6.022957E+03	1.756184E-03	1.389078E-05
6.032912E+03	1.749461E-03	1.383932E-05
6.042868E+03	1.742199E-03	1.378320E-05
6.052823E+03	1.734574E-03	1.372389E-05
6.062778E+03	1.726728E-03	1.366254E-05
6.072733E+03	1.718811E-03	1.360041E-05
6.082689E+03	1.710953E-03	1.353858E-05
6.092644E+03	1.703272E-03	1.347806E-05
6.102599E+03	1.695894E-03	1.341990E-05
6.112555E+03	1.688933E-03	1.336509E-05
6.122510E+03	1.682493E-03	1.331450E-05
6.132465E+03	1.676650E-03	1.326883E-05
6.142421E+03	1.671498E-03	1.322890E-05
6.152376E+03	1.667109E-03	1.319535E-05
6.162331E+03	1.663554E-03	1.316884E-05
6.172286E+03	1.660882E-03	1.314984E-05
6.182242E+03	1.659111E-03	1.313859E-05
6.192197E+03	1.658295E-03	1.313561E-05
6.202152E+03	1.658421E-03	1.314090E-05
6.212108E+03	1.659472E-03	1.315440E-05
6.222063E+03	1.661448E-03	1.317619E-05
6.232018E+03	1.664240E-03	1.320548E-05
6.241974E+03	1.667765E-03	1.324171E-05
6.251929E+03	1.671930E-03	1.328421E-05
6.261884E+03	1.676650E-03	1.333242E-05
6.271839E+03	1.681772E-03	1.338521E-05
6.281795E+03	1.687193E-03	1.344185E-05
6.291750E+03	1.692829E-03	1.350179E-05
6.301705E+03	1.698552E-03	1.356409E-05
6.311661E+03	1.704290E-03	1.362827E-05
6.321616E+03	1.709908E-03	1.369337E-05
6.331571E+03	1.715349E-03	1.375902E-05
6.341527E+03	1.720528E-03	1.382462E-05
6.351482E+03	1.725387E-03	1.388980E-05
6.361437E+03	1.729840E-03	1.395395E-05
6.371392E+03	1.733843E-03	1.401680E-05
6.381348E+03	1.737363E-03	1.407815E-05
6.391303E+03	1.740336E-03	1.413755E-05
6.401258E+03	1.742724E-03	1.419475E-05
6.411214E+03	1.744528E-03	1.424981E-05
6.421169E+03	1.745703E-03	1.430241E-05
6.431124E+03	1.746241E-03	1.435250E-05
6.441080E+03	1.746118E-03	1.439986E-05
6.451035E+03	1.745312E-03	1.444418E-05
6.460990E+03	1.743822E-03	1.448523E-05
6.470945E+03	1.741587E-03	1.452233E-05
6.480901E+03	1.738638E-03	1.455553E-05
6.490856E+03	1.734914E-03	1.458411E-05
6.500811E+03	1.730407E-03	1.460778E-05
6.510767E+03	1.725119E-03	1.462633E-05
6.520722E+03	1.719071E-03	1.463972E-05
6.530677E+03	1.712324E-03	1.464824E-05
6.540633E+03	1.704899E-03	1.465183E-05
6.550588E+03	1.696847E-03	1.465074E-05
6.560543E+03	1.688199E-03	1.464500E-05
6.570498E+03	1.678983E-03	1.463465E-05
6.580454E+03	1.669206E-03	1.461954E-05
6.590409E+03	1.658928E-03	1.460002E-05
6.600364E+03	1.648158E-03	1.457595E-05
6.610320E+03	1.636924E-03	1.454740E-05
6.620275E+03	1.625257E-03	1.451446E-05
6.630230E+03	1.613210E-03	1.447745E-05
6.640186E+03	1.600805E-03	1.443640E-05
6.650141E+03	1.588107E-03	1.439174E-05
6.660096E+03	1.575165E-03	1.434378E-05
6.670051E+03	1.562019E-03	1.429277E-05
6.680007E+03	1.548750E-03	1.423932E-05
6.689962E+03	1.535423E-03	1.418395E-05
6.699917E+03	1.522095E-03	1.412709E-05
6.709873E+03	1.508875E-03	1.406967E-05
6.719828E+03	1.495807E-03	1.401207E-05
6.729783E+03	1.482990E-03	1.395517E-05
6.739739E+03	1.470523E-03	1.389986E-05
6.749694E+03	1.458453E-03	1.384659E-05
6.759649E+03	1.446878E-03	1.379629E-05
6.769604E+03	1.435876E-03	1.374972E-05
6.779560E+03	1.425523E-03	1.370763E-05
6.789515E+03	1.415888E-03	1.367072E-05
6.799470E+03	1.407039E-03	1.363970E-05
6.809426E+03	1.399033E-03	1.361517E-05
6.819381E+03	1.391941E-03	1.359789E-05
6.829336E+03	1.385776E-03	1.358804E-05
6.839292E+03	1.380591E-03	1.358621E-05
6.849247E+03	1.376432E-03	1.359293E-05
6.859202E+03	1.373288E-03	1.360815E-05
6.869157E+03	1.371203E-03	1.363238E-05
6.879113E+03	1.370148E-03	1.366540E-05
6.889068E+03	1.370151E-03	1.370753E-05
6.899023E+03	1.371182E-03	1.375853E-05
6.908979E+03	1.373217E-03	1.381822E-05
6.918934E+03	1.376210E-03	1.388617E-05
6.928889E+03	1.380156E-03	1.396235E-05
6.938845E+03	1.385009E-03	1.404633E-05
6.948800E+03	1.390684E-03	1.413726E-05
6.958755E+03	1.397138E-03	1.423472E-05
6.968710E+03	1.404309E-03	1.433805E-05
6.978666E+03	1.412145E-03	1.444672E-05
6.988621E+03	1.420538E-03	1.455961E-05
6.998576E+03	1.429449E-03	1.467627E-05
7.008532E+03	1.438781E-03	1.479568E-05
7.018487E+03	1.448436E-03	1.491679E-05
7.028442E+03	1.458367E-03	1.503908E-05
7.038398E+03	1.468476E-03	1.516144E-05
7.048353E+03	1.478677E-03	1.528297E-05
7.058308E+03	1.488888E-03	1.540273E-05
7.068263E+03	1.499025E-03	1.551980E-05
7.078219E+03	1.509005E-03	1.563325E-05
7.088174E+03	1.518762E-03	1.574234E-05
7.098129E+03	1.528175E-03	1.584574E-05
7.108085E+03	1.537179E-03	1.594272E-05
7.118040E+03	1.545708E-03	1.603255E-05
7.127995E+03	1.553659E-03	1.611408E-05
7.137951E+03	1.560946E-03	1.618639E-05
7.147906E+03	1.567483E-03	1.624855E-05
7.157861E+03	1.573185E-03	1.629965E-05
7.167817E+03	1.577987E-03	1.633898E-05
7.177772E+03	1.581767E-03	1.636527E-05
7.187727E+03	1.584482E-03	1.637810E-05
7.197682E+03	1.586037E-03	1.637646E-05
7.207638E+03	1.586378E-03	1.635986E-05
7.217593E+03	1.585420E-03	1.632745E-05
7.227548E+03	1.583107E-03	1.627871E-05
7.237504E+03	1.579410E-03	1.621342E-05
7.247459E+03	1.574275E-03	1.613111E-05
7.257414E+03	1.567679E-03	1.603167E-05
7.267370E+03	1.559634E-03	1.591533E-05
7.277325E+03	1.550150E-03	1.578233E-05
7.287280E+03	1.539231E-03	1.563287E-05
7.297235E+03	1.526939E-03	1.546774E-05
7.307191E+03	1.513313E-03	1.528750E-05
7.317146E+03	1.498449E-03	1.509330E-05
7.327101E+03	1.482438E-03	1.488625E-05
7.337057E+03	1.465365E-03	1.466740E-05
7.347012E+03	1.447369E-03	1.443830E-05
7.356967E+03	1.428577E-03	1.420043E-05
7.366923E+03	1.409109E-03	1.395514E-05
7.376878E+03	1.389126E-03	1.370421E-05
7.386833E+03	1.368793E-03	1.344942E-05
7.396788E+03	1.348239E-03	1.319219E-05
7.406744E+03	1.327612E-03	1.293408E-05
7.416699E+03	1.307074E-03	1.267679E-05
7.426654E+03	1.286747E-03	1.242159E-05
7.436610E+03	1.266748E-03	1.216968E-05
7.446565E+03	1.247238E-03	1.192267E-05
7.456520E+03	1.228286E-03	1.168124E-05
7.466476E+03	1.210036E-03	1.144678E-05
7.476431E+03	1.192575E-03	1.122009E-05
7.486386E+03	1.176013E-03	1.100218E-05
7.496341E+03	1.160404E-03	1.079350E-05
7.506297E+03	1.145857E-03	1.059501E-05
7.516252E+03	1.132430E-03	1.040712E-05
7.526207E+03	1.120171E-03	1.023016E-05
7.536163E+03	1.109169E-03	1.006480E-05
7.546118E+03	1.099448E-03	9.911093E-06
7.556073E+03	1.091073E-03	9.769429E-06
7.566029E+03	1.084086E-03	9.640007E-06
7.575984E+03	1.078525E-03	9.522955E-06
7.585939E+03	1.074398E-03	9.418104E-06
7.595894E+03	1.071660E-03	9.324843E-06
7.605850E+03	1.070275E-03	9.242635E-06
7.615805E+03	1.070133E-03	9.170308E-06
7.625760E+03	1.071194E-03	9.107315E-06
7.635716E+03	1.073389E-03	9.052871E-06
7.645671E+03	1.076633E-03	9.006076E-06
7.655626E+03	1.080856E-03	8.966176E-06
7.665582E+03	1.086002E-03	8.932544E-06
7.675537E+03	1.091983E-03	8.904328E-06
7.685492E+03	1.098725E-03	8.880799E-06
7.695447E+03	1.106168E-03	8.861362E-06
7.705403E+03	1.114217E-03	8.845183E-06
7.715358E+03	1.122806E-03	8.831675E-06
7.725313E+03	1.131834E-03	8.820010E-06
