#wls	flux	fluxerr
1.592848E+03	1.113535E-04	4.596441E-06
1.632669E+03	1.140321E-04	4.692575E-06
1.672491E+03	1.162766E-04	4.769837E-06
1.712312E+03	1.180656E-04	4.827489E-06
1.752133E+03	1.193380E-04	4.863202E-06
1.791954E+03	1.199564E-04	4.871581E-06
1.831775E+03	1.197748E-04	4.846976E-06
1.871597E+03	1.185607E-04	4.780357E-06
1.911418E+03	1.162156E-04	4.668224E-06
1.951239E+03	1.126413E-04	4.507180E-06
1.991060E+03	1.079885E-04	4.303835E-06
2.030881E+03	1.027910E-04	4.079940E-06
2.070703E+03	9.805226E-05	3.875473E-06
2.110524E+03	9.501206E-05	3.739047E-06
2.150345E+03	9.470647E-05	3.710411E-06
2.190166E+03	9.752195E-05	3.803192E-06
2.229987E+03	1.031182E-04	4.002455E-06
2.269809E+03	1.106424E-04	4.273644E-06
2.309630E+03	1.192115E-04	4.581614E-06
2.349451E+03	1.280342E-04	4.895381E-06
2.389272E+03	1.366661E-04	5.197759E-06
2.429093E+03	1.448218E-04	5.477938E-06
2.468915E+03	1.524465E-04	5.734014E-06
2.508736E+03	1.594728E-04	5.963691E-06
2.548557E+03	1.659849E-04	6.170362E-06
2.588378E+03	1.720338E-04	6.356143E-06
2.628199E+03	1.776743E-04	6.523261E-06
2.668021E+03	1.829887E-04	6.674893E-06
2.707842E+03	1.880258E-04	6.812941E-06
2.747663E+03	1.928882E-04	6.941209E-06
2.787484E+03	1.976141E-04	7.061092E-06
2.827305E+03	2.022669E-04	7.174852E-06
2.867127E+03	2.069357E-04	7.285591E-06
2.906948E+03	2.116452E-04	7.394061E-06
2.946769E+03	2.165067E-04	7.503992E-06
2.986590E+03	2.215665E-04	7.616749E-06
2.996546E+03	2.228966E-04	7.646522E-06
3.006501E+03	2.242381E-04	7.676408E-06
3.016456E+03	2.255911E-04	7.706414E-06
3.026411E+03	2.269600E-04	7.736677E-06
3.036367E+03	2.283897E-04	7.768727E-06
3.046322E+03	2.298662E-04	7.802070E-06
3.056277E+03	2.314145E-04	7.837538E-06
3.066233E+03	2.330002E-04	7.873954E-06
3.076188E+03	2.346491E-04	7.912177E-06
3.086143E+03	2.363574E-04	7.952064E-06
3.096099E+03	2.380923E-04	7.992495E-06
3.106054E+03	2.398799E-04	8.034339E-06
3.116009E+03	2.417175E-04	8.077494E-06
3.125964E+03	2.435730E-04	8.120869E-06
3.135920E+03	2.455027E-04	8.166335E-06
3.145875E+03	2.474750E-04	8.212823E-06
3.155830E+03	2.494587E-04	8.259287E-06
3.165786E+03	2.515103E-04	8.307589E-06
3.175741E+03	2.535987E-04	8.356687E-06
3.185696E+03	2.557515E-04	8.407474E-06
3.195652E+03	2.579091E-04	8.457977E-06
3.205607E+03	2.601282E-04	8.510050E-06
3.215562E+03	2.624074E-04	8.563631E-06
3.225517E+03	2.647167E-04	8.617723E-06
3.235473E+03	2.670839E-04	8.673217E-06
3.245428E+03	2.694789E-04	8.729127E-06
3.255383E+03	2.719301E-04	8.786355E-06
3.265339E+03	2.744646E-04	8.845762E-06
3.275294E+03	2.770248E-04	8.905469E-06
3.285249E+03	2.796385E-04	8.966361E-06
3.295205E+03	2.823051E-04	9.028401E-06
3.305160E+03	2.850523E-04	9.092454E-06
3.315115E+03	2.878513E-04	9.157584E-06
3.325070E+03	2.907298E-04	9.224652E-06
3.335026E+03	2.936594E-04	9.292734E-06
3.344981E+03	2.966399E-04	9.361807E-06
3.354936E+03	2.997274E-04	9.433621E-06
3.364892E+03	3.028655E-04	9.506377E-06
3.374847E+03	3.061103E-04	9.581812E-06
3.384802E+03	3.094063E-04	9.658161E-06
3.394758E+03	3.128095E-04	9.737149E-06
3.404713E+03	3.162924E-04	9.817894E-06
3.414668E+03	3.198835E-04	9.901249E-06
3.424623E+03	3.235559E-04	9.986355E-06
3.434579E+03	3.273381E-04	1.007406E-05
3.444534E+03	3.312314E-04	1.016437E-05
3.454489E+03	3.352370E-04	1.025729E-05
3.464445E+03	3.393568E-04	1.035284E-05
3.474400E+03	3.436197E-04	1.045186E-05
3.484355E+03	3.479738E-04	1.055274E-05
3.494311E+03	3.525024E-04	1.065797E-05
3.504266E+03	3.571545E-04	1.076595E-05
3.514221E+03	3.619595E-04	1.087753E-05
3.524176E+03	3.669211E-04	1.099277E-05
3.534132E+03	3.720426E-04	1.111172E-05
3.544087E+03	3.773280E-04	1.123445E-05
3.554042E+03	3.828075E-04	1.136181E-05
3.563998E+03	3.884856E-04	1.149386E-05
3.573953E+03	3.943402E-04	1.162989E-05
3.583908E+03	4.004291E-04	1.177155E-05
3.593864E+03	4.067041E-04	1.191735E-05
3.603819E+03	4.132232E-04	1.206891E-05
3.613774E+03	4.199650E-04	1.222555E-05
3.623729E+03	4.269608E-04	1.238810E-05
3.633685E+03	4.342160E-04	1.255662E-05
3.643640E+03	4.417351E-04	1.273118E-05
3.653595E+03	4.494975E-04	1.291108E-05
3.663551E+03	4.575854E-04	1.309861E-05
3.673506E+03	4.659252E-04	1.329156E-05
3.683461E+03	4.745985E-04	1.349217E-05
3.693417E+03	4.835566E-04	1.369894E-05
3.703372E+03	4.928275E-04	1.391258E-05
3.713327E+03	5.024392E-04	1.413376E-05
3.723282E+03	5.123658E-04	1.436165E-05
3.733238E+03	5.226068E-04	1.459612E-05
3.743193E+03	5.332121E-04	1.483847E-05
3.753148E+03	5.441264E-04	1.508704E-05
3.763104E+03	5.553701E-04	1.534228E-05
3.773059E+03	5.669367E-04	1.560389E-05
3.783014E+03	5.788429E-04	1.587224E-05
3.792970E+03	5.910776E-04	1.614689E-05
3.802925E+03	6.036011E-04	1.642666E-05
3.812880E+03	6.164239E-04	1.671172E-05
3.822835E+03	6.295272E-04	1.700146E-05
3.832791E+03	6.428901E-04	1.729521E-05
3.842746E+03	6.564885E-04	1.759224E-05
3.852701E+03	6.703224E-04	1.789246E-05
3.862657E+03	6.843625E-04	1.819500E-05
3.872612E+03	6.985506E-04	1.849823E-05
3.882567E+03	7.128788E-04	1.880189E-05
3.892523E+03	7.273364E-04	1.910565E-05
3.902478E+03	7.418322E-04	1.940705E-05
3.912433E+03	7.563515E-04	1.970569E-05
3.922388E+03	7.708524E-04	2.000046E-05
3.932344E+03	7.853173E-04	2.029089E-05
3.942299E+03	7.996763E-04	2.057520E-05
3.952254E+03	8.138846E-04	2.085224E-05
3.962210E+03	8.279245E-04	2.112161E-05
3.972165E+03	8.417267E-04	2.138159E-05
3.982120E+03	8.552497E-04	2.163119E-05
3.992076E+03	8.684790E-04	2.187013E-05
4.002031E+03	8.813520E-04	2.209693E-05
4.011986E+03	8.938346E-04	2.231085E-05
4.021941E+03	9.059215E-04	2.251186E-05
4.031897E+03	9.175366E-04	2.269822E-05
4.041852E+03	9.287078E-04	2.287075E-05
4.051807E+03	9.393691E-04	2.302799E-05
4.061763E+03	9.495340E-04	2.317043E-05
4.071718E+03	9.591725E-04	2.329749E-05
4.081673E+03	9.683088E-04	2.340995E-05
4.091629E+03	9.769013E-04	2.350695E-05
4.101584E+03	9.849853E-04	2.358953E-05
4.111539E+03	9.925551E-04	2.365772E-05
4.121494E+03	9.996340E-04	2.371226E-05
4.131450E+03	1.006251E-03	2.375397E-05
4.141405E+03	1.012394E-03	2.378276E-05
4.151360E+03	1.018124E-03	2.380020E-05
4.161316E+03	1.023440E-03	2.380641E-05
4.171271E+03	1.028411E-03	2.380314E-05
4.181226E+03	1.033066E-03	2.379115E-05
4.191182E+03	1.037435E-03	2.377127E-05
4.201137E+03	1.041534E-03	2.374396E-05
4.211092E+03	1.045441E-03	2.371107E-05
4.221047E+03	1.049194E-03	2.367355E-05
4.231003E+03	1.052814E-03	2.363192E-05
4.240958E+03	1.056341E-03	2.358714E-05
4.250913E+03	1.059838E-03	2.354060E-05
4.260869E+03	1.063327E-03	2.349282E-05
4.270824E+03	1.066847E-03	2.344471E-05
4.280779E+03	1.070440E-03	2.339712E-05
4.290735E+03	1.074145E-03	2.335090E-05
4.300690E+03	1.077998E-03	2.330680E-05
4.310645E+03	1.081998E-03	2.326477E-05
4.320601E+03	1.086198E-03	2.322585E-05
4.330556E+03	1.090609E-03	2.319023E-05
4.340511E+03	1.095259E-03	2.315845E-05
4.350466E+03	1.100189E-03	2.313126E-05
4.360422E+03	1.105383E-03	2.310826E-05
4.370377E+03	1.110874E-03	2.309004E-05
4.380332E+03	1.116669E-03	2.307663E-05
4.390288E+03	1.122782E-03	2.306823E-05
4.400243E+03	1.129191E-03	2.306428E-05
4.410198E+03	1.135932E-03	2.306541E-05
4.420154E+03	1.142986E-03	2.307115E-05
4.430109E+03	1.150348E-03	2.308125E-05
4.440064E+03	1.157971E-03	2.309470E-05
4.450019E+03	1.165837E-03	2.311106E-05
4.459975E+03	1.173891E-03	2.312915E-05
4.469930E+03	1.182073E-03	2.314774E-05
4.479885E+03	1.190365E-03	2.316645E-05
4.489841E+03	1.198713E-03	2.318421E-05
4.499796E+03	1.207058E-03	2.319989E-05
4.509751E+03	1.215372E-03	2.321291E-05
4.519707E+03	1.223586E-03	2.322206E-05
4.529662E+03	1.231666E-03	2.322670E-05
4.539617E+03	1.239573E-03	2.322618E-05
4.549572E+03	1.247235E-03	2.321923E-05
4.559528E+03	1.254629E-03	2.320553E-05
4.569483E+03	1.261715E-03	2.318446E-05
4.579438E+03	1.268439E-03	2.315518E-05
4.589394E+03	1.274768E-03	2.311720E-05
4.599349E+03	1.280669E-03	2.307012E-05
4.609304E+03	1.286116E-03	2.301363E-05
4.619260E+03	1.291103E-03	2.294781E-05
4.629215E+03	1.295600E-03	2.287232E-05
4.639170E+03	1.299614E-03	2.278748E-05
4.649125E+03	1.303131E-03	2.269324E-05
4.659081E+03	1.306176E-03	2.259022E-05
4.669036E+03	1.308767E-03	2.247894E-05
4.678991E+03	1.310935E-03	2.236010E-05
4.688947E+03	1.312736E-03	2.223481E-05
4.698902E+03	1.314220E-03	2.210409E-05
4.708857E+03	1.315436E-03	2.196887E-05
4.718813E+03	1.316487E-03	2.183100E-05
4.728768E+03	1.317443E-03	2.169170E-05
4.738723E+03	1.318413E-03	2.155279E-05
4.748678E+03	1.319480E-03	2.141568E-05
4.758634E+03	1.320748E-03	2.128201E-05
4.768589E+03	1.322276E-03	2.115267E-05
4.778544E+03	1.324121E-03	2.102851E-05
4.788500E+03	1.326254E-03	2.090901E-05
4.798455E+03	1.328741E-03	2.079511E-05
4.808410E+03	1.331554E-03	2.068628E-05
4.818366E+03	1.334728E-03	2.058299E-05
4.828321E+03	1.338283E-03	2.048541E-05
4.838276E+03	1.342238E-03	2.039373E-05
4.848231E+03	1.346596E-03	2.030785E-05
4.858187E+03	1.351385E-03	2.022809E-05
4.868142E+03	1.356601E-03	2.015424E-05
4.878097E+03	1.362248E-03	2.008626E-05
4.888053E+03	1.368342E-03	2.002423E-05
4.898008E+03	1.374845E-03	1.996747E-05
4.907963E+03	1.381759E-03	1.991591E-05
4.917919E+03	1.389065E-03	1.986915E-05
4.927874E+03	1.396738E-03	1.982674E-05
4.937829E+03	1.404732E-03	1.978793E-05
4.947784E+03	1.413028E-03	1.975239E-05
4.957740E+03	1.421589E-03	1.971952E-05
4.967695E+03	1.430358E-03	1.968849E-05
4.977650E+03	1.439311E-03	1.965894E-05
4.987606E+03	1.448389E-03	1.963004E-05
4.997561E+03	1.457554E-03	1.960127E-05
5.007516E+03	1.466781E-03	1.957232E-05
5.017472E+03	1.476036E-03	1.954275E-05
5.027427E+03	1.485255E-03	1.951175E-05
5.037382E+03	1.494441E-03	1.947942E-05
5.047337E+03	1.503572E-03	1.944552E-05
5.057293E+03	1.512595E-03	1.940943E-05
5.067248E+03	1.521529E-03	1.937147E-05
5.077203E+03	1.530361E-03	1.933157E-05
5.087159E+03	1.539051E-03	1.928930E-05
5.097114E+03	1.547644E-03	1.924530E-05
5.107069E+03	1.556087E-03	1.919900E-05
5.117025E+03	1.564411E-03	1.915090E-05
5.126980E+03	1.572599E-03	1.910087E-05
5.136935E+03	1.580665E-03	1.904918E-05
5.146890E+03	1.588591E-03	1.899570E-05
5.156846E+03	1.596390E-03	1.894069E-05
5.166801E+03	1.604037E-03	1.888396E-05
5.176756E+03	1.611524E-03	1.882553E-05
5.186712E+03	1.618857E-03	1.876557E-05
5.196667E+03	1.626002E-03	1.870381E-05
5.206622E+03	1.632958E-03	1.864035E-05
5.216578E+03	1.639687E-03	1.857489E-05
5.226533E+03	1.646164E-03	1.850727E-05
5.236488E+03	1.652377E-03	1.843752E-05
5.246443E+03	1.658298E-03	1.836544E-05
5.256399E+03	1.663857E-03	1.829044E-05
5.266354E+03	1.669057E-03	1.821270E-05
5.276309E+03	1.673843E-03	1.813181E-05
5.286265E+03	1.678198E-03	1.804776E-05
5.296220E+03	1.682068E-03	1.796014E-05
5.306175E+03	1.685418E-03	1.786878E-05
5.316131E+03	1.688213E-03	1.777350E-05
5.326086E+03	1.690421E-03	1.767418E-05
5.336041E+03	1.692012E-03	1.757069E-05
5.345996E+03	1.692956E-03	1.746294E-05
5.355952E+03	1.693230E-03	1.735090E-05
5.365907E+03	1.692794E-03	1.723435E-05
5.375862E+03	1.691663E-03	1.711367E-05
5.385818E+03	1.689789E-03	1.698856E-05
5.395773E+03	1.687159E-03	1.685908E-05
5.405728E+03	1.683784E-03	1.672554E-05
5.415684E+03	1.679643E-03	1.658790E-05
5.425639E+03	1.674736E-03	1.644634E-05
5.435594E+03	1.669087E-03	1.630126E-05
5.445549E+03	1.662690E-03	1.615274E-05
5.455505E+03	1.655563E-03	1.600109E-05
5.465460E+03	1.647747E-03	1.584684E-05
5.475415E+03	1.639271E-03	1.569031E-05
5.485371E+03	1.630248E-03	1.553259E-05
5.495326E+03	1.620758E-03	1.537433E-05
5.505281E+03	1.610935E-03	1.521673E-05
5.515237E+03	1.600869E-03	1.506054E-05
5.525192E+03	1.590661E-03	1.490658E-05
5.535147E+03	1.580428E-03	1.475583E-05
5.545102E+03	1.570294E-03	1.460931E-05
5.555058E+03	1.560387E-03	1.446803E-05
5.565013E+03	1.550837E-03	1.433306E-05
5.574968E+03	1.541760E-03	1.420529E-05
5.584924E+03	1.533319E-03	1.408606E-05
5.594879E+03	1.525612E-03	1.397609E-05
5.604834E+03	1.518784E-03	1.387654E-05
5.614790E+03	1.512973E-03	1.378847E-05
5.624745E+03	1.508265E-03	1.371250E-05
5.634700E+03	1.504784E-03	1.364958E-05
5.644655E+03	1.502629E-03	1.360045E-05
5.654611E+03	1.501887E-03	1.356571E-05
5.664566E+03	1.502633E-03	1.354589E-05
5.674521E+03	1.504940E-03	1.354149E-05
5.684477E+03	1.508822E-03	1.355248E-05
5.694432E+03	1.514317E-03	1.357908E-05
5.704387E+03	1.521432E-03	1.362119E-05
5.714343E+03	1.530149E-03	1.367856E-05
5.724298E+03	1.540432E-03	1.375074E-05
5.734253E+03	1.552221E-03	1.383708E-05
5.744209E+03	1.565416E-03	1.393660E-05
5.754164E+03	1.579925E-03	1.404840E-05
5.764119E+03	1.595616E-03	1.417123E-05
5.774074E+03	1.612321E-03	1.430352E-05
5.784030E+03	1.629879E-03	1.444378E-05
5.793985E+03	1.648078E-03	1.459008E-05
5.803940E+03	1.666705E-03	1.474048E-05
5.813896E+03	1.685531E-03	1.489294E-05
5.823851E+03	1.704318E-03	1.504532E-05
5.833806E+03	1.722822E-03	1.519543E-05
5.843762E+03	1.740798E-03	1.534111E-05
5.853717E+03	1.757988E-03	1.548007E-05
5.863672E+03	1.774180E-03	1.561044E-05
5.873627E+03	1.789124E-03	1.573002E-05
5.883583E+03	1.802663E-03	1.583744E-05
5.893538E+03	1.814594E-03	1.593093E-05
5.903493E+03	1.824799E-03	1.600946E-05
5.913449E+03	1.833157E-03	1.607200E-05
5.923404E+03	1.839601E-03	1.611799E-05
5.933359E+03	1.844103E-03	1.614718E-05
5.943315E+03	1.846651E-03	1.615952E-05
5.953270E+03	1.847289E-03	1.615542E-05
5.963225E+03	1.846112E-03	1.613573E-05
5.973180E+03	1.843175E-03	1.610096E-05
5.983136E+03	1.838647E-03	1.605262E-05
5.993091E+03	1.832669E-03	1.599197E-05
6.003046E+03	1.825412E-03	1.592053E-05
6.013002E+03	1.817031E-03	1.583968E-05
6.022957E+03	1.807736E-03	1.575129E-05
6.032912E+03	1.797727E-03	1.565711E-05
6.042868E+03	1.787181E-03	1.555872E-05
6.052823E+03	1.776275E-03	1.545768E-05
6.062778E+03	1.765209E-03	1.535576E-05
6.072733E+03	1.754141E-03	1.525436E-05
6.082689E+03	1.743231E-03	1.515490E-05
6.092644E+03	1.732627E-03	1.505869E-05
6.102599E+03	1.722459E-03	1.496689E-05
6.112555E+03	1.712830E-03	1.488042E-05
6.122510E+03	1.703873E-03	1.480046E-05
6.132465E+03	1.695675E-03	1.472782E-05
6.142421E+03	1.688293E-03	1.466302E-05
6.152376E+03	1.681805E-03	1.460677E-05
6.162331E+03	1.676276E-03	1.455968E-05
6.172286E+03	1.671714E-03	1.452187E-05
6.182242E+03	1.668183E-03	1.449394E-05
6.192197E+03	1.665709E-03	1.447618E-05
6.202152E+03	1.664280E-03	1.446852E-05
6.212108E+03	1.663923E-03	1.447124E-05
6.222063E+03	1.664599E-03	1.448403E-05
6.232018E+03	1.666185E-03	1.450587E-05
6.241974E+03	1.668569E-03	1.453579E-05
6.251929E+03	1.671622E-03	1.457275E-05
6.261884E+03	1.675201E-03	1.461553E-05
6.271839E+03	1.679236E-03	1.466355E-05
6.281795E+03	1.683575E-03	1.471555E-05
6.291750E+03	1.688140E-03	1.477088E-05
6.301705E+03	1.692810E-03	1.482854E-05
6.311661E+03	1.697537E-03	1.488815E-05
6.321616E+03	1.702197E-03	1.494865E-05
6.331571E+03	1.706739E-03	1.500966E-05
6.341527E+03	1.711090E-03	1.507054E-05
6.351482E+03	1.715197E-03	1.513090E-05
6.361437E+03	1.718985E-03	1.519008E-05
6.371392E+03	1.722452E-03	1.524810E-05
6.381348E+03	1.725553E-03	1.530460E-05
6.391303E+03	1.728232E-03	1.535908E-05
6.401258E+03	1.730491E-03	1.541160E-05
6.411214E+03	1.732319E-03	1.546206E-05
6.421169E+03	1.733692E-03	1.551027E-05
6.431124E+03	1.734605E-03	1.555618E-05
6.441080E+03	1.735038E-03	1.559962E-05
6.451035E+03	1.735006E-03	1.564063E-05
6.460990E+03	1.734487E-03	1.567891E-05
6.470945E+03	1.733459E-03	1.571410E-05
6.480901E+03	1.731894E-03	1.574584E-05
6.490856E+03	1.729764E-03	1.577370E-05
6.500811E+03	1.727018E-03	1.579710E-05
6.510767E+03	1.723651E-03	1.581581E-05
6.520722E+03	1.719672E-03	1.582979E-05
6.530677E+03	1.715130E-03	1.583932E-05
6.540633E+03	1.710014E-03	1.584413E-05
6.550588E+03	1.704358E-03	1.584442E-05
6.560543E+03	1.698178E-03	1.584017E-05
6.570498E+03	1.691463E-03	1.583113E-05
6.580454E+03	1.684219E-03	1.581721E-05
6.590409E+03	1.676451E-03	1.579832E-05
6.600364E+03	1.668145E-03	1.577419E-05
6.610320E+03	1.659347E-03	1.574510E-05
6.620275E+03	1.650049E-03	1.571085E-05
6.630230E+03	1.640268E-03	1.567147E-05
6.640186E+03	1.630011E-03	1.562689E-05
6.650141E+03	1.619343E-03	1.557764E-05
6.660096E+03	1.608269E-03	1.552362E-05
6.670051E+03	1.596874E-03	1.546556E-05
6.680007E+03	1.585177E-03	1.540355E-05
6.689962E+03	1.573280E-03	1.533850E-05
6.699917E+03	1.561239E-03	1.527086E-05
6.709873E+03	1.549151E-03	1.520153E-05
6.719828E+03	1.537086E-03	1.513114E-05
6.729783E+03	1.525136E-03	1.506054E-05
6.739739E+03	1.513411E-03	1.499080E-05
6.749694E+03	1.501992E-03	1.492271E-05
6.759649E+03	1.490994E-03	1.485737E-05
6.769604E+03	1.480512E-03	1.479577E-05
6.779560E+03	1.470639E-03	1.473883E-05
6.789515E+03	1.461448E-03	1.468732E-05
6.799470E+03	1.453041E-03	1.464226E-05
6.809426E+03	1.445493E-03	1.460448E-05
6.819381E+03	1.438891E-03	1.457488E-05
6.829336E+03	1.433263E-03	1.455378E-05
6.839292E+03	1.428675E-03	1.454192E-05
6.849247E+03	1.425170E-03	1.453975E-05
6.859202E+03	1.422775E-03	1.454763E-05
6.869157E+03	1.421510E-03	1.456579E-05
6.879113E+03	1.421400E-03	1.459452E-05
6.889068E+03	1.422423E-03	1.463363E-05
6.899023E+03	1.424547E-03	1.468284E-05
6.908979E+03	1.427778E-03	1.474223E-05
6.918934E+03	1.432062E-03	1.481126E-05
6.928889E+03	1.437370E-03	1.488962E-05
6.938845E+03	1.443608E-03	1.497637E-05
6.948800E+03	1.450746E-03	1.507118E-05
6.958755E+03	1.458676E-03	1.517292E-05
6.968710E+03	1.467353E-03	1.528109E-05
6.978666E+03	1.476692E-03	1.539478E-05
6.988621E+03	1.486569E-03	1.551267E-05
6.998576E+03	1.496927E-03	1.563413E-05
7.008532E+03	1.507639E-03	1.575777E-05
7.018487E+03	1.518647E-03	1.588294E-05
7.028442E+03	1.529840E-03	1.600843E-05
7.038398E+03	1.541129E-03	1.613325E-05
7.048353E+03	1.552425E-03	1.625641E-05
7.058308E+03	1.563661E-03	1.637715E-05
7.068263E+03	1.574718E-03	1.649416E-05
7.078219E+03	1.585554E-03	1.660695E-05
7.088174E+03	1.596054E-03	1.671426E-05
7.098129E+03	1.606183E-03	1.681567E-05
7.108085E+03	1.615847E-03	1.691015E-05
7.118040E+03	1.624976E-03	1.699692E-05
7.127995E+03	1.633497E-03	1.707520E-05
7.137951E+03	1.641339E-03	1.714419E-05
7.147906E+03	1.648429E-03	1.720312E-05
7.157861E+03	1.654692E-03	1.725120E-05
7.167817E+03	1.660076E-03	1.728788E-05
7.177772E+03	1.664463E-03	1.731192E-05
7.187727E+03	1.667818E-03	1.732301E-05
7.197682E+03	1.670026E-03	1.731995E-05
7.207638E+03	1.671057E-03	1.730249E-05
7.217593E+03	1.670820E-03	1.726975E-05
7.227548E+03	1.669254E-03	1.722115E-05
7.237504E+03	1.666304E-03	1.715623E-05
7.247459E+03	1.661946E-03	1.707483E-05
7.257414E+03	1.656105E-03	1.697631E-05
7.267370E+03	1.648806E-03	1.686104E-05
7.277325E+03	1.640023E-03	1.672892E-05
7.287280E+03	1.629772E-03	1.658025E-05
7.297235E+03	1.618105E-03	1.641573E-05
7.307191E+03	1.605051E-03	1.623583E-05
7.317146E+03	1.590680E-03	1.604144E-05
7.327101E+03	1.575077E-03	1.583360E-05
7.337057E+03	1.558366E-03	1.561375E-05
7.347012E+03	1.540622E-03	1.538283E-05
7.356967E+03	1.522017E-03	1.514272E-05
7.366923E+03	1.502689E-03	1.489499E-05
7.376878E+03	1.482748E-03	1.464089E-05
7.386833E+03	1.462366E-03	1.438226E-05
7.396788E+03	1.441698E-03	1.412079E-05
7.406744E+03	1.420920E-03	1.385829E-05
7.416699E+03	1.400146E-03	1.359601E-05
7.426654E+03	1.379544E-03	1.333564E-05
7.436610E+03	1.359256E-03	1.307864E-05
7.446565E+03	1.339416E-03	1.282634E-05
7.456520E+03	1.320151E-03	1.257997E-05
7.466476E+03	1.301577E-03	1.234066E-05
7.476431E+03	1.283801E-03	1.210939E-05
7.486386E+03	1.266920E-03	1.188705E-05
7.496341E+03	1.251007E-03	1.167426E-05
7.506297E+03	1.236174E-03	1.147201E-05
7.516252E+03	1.222461E-03	1.128057E-05
7.526207E+03	1.209949E-03	1.110057E-05
7.536163E+03	1.198696E-03	1.093240E-05
7.546118E+03	1.188737E-03	1.077626E-05
7.556073E+03	1.180118E-03	1.063238E-05
7.566029E+03	1.172908E-03	1.050122E-05
7.575984E+03	1.167103E-03	1.038255E-05
7.585939E+03	1.162711E-03	1.027627E-05
7.595894E+03	1.159698E-03	1.018188E-05
7.605850E+03	1.158026E-03	1.009886E-05
7.615805E+03	1.157634E-03	1.002649E-05
7.625760E+03	1.158425E-03	9.963757E-06
7.635716E+03	1.160361E-03	9.910191E-06
7.645671E+03	1.163359E-03	9.864913E-06
7.655626E+03	1.167346E-03	9.827191E-06
7.665582E+03	1.172268E-03	9.796437E-06
7.675537E+03	1.178034E-03	9.771802E-06
7.685492E+03	1.184569E-03	9.752580E-06
7.695447E+03	1.191797E-03	9.738065E-06
7.705403E+03	1.199651E-03	9.727687E-06
7.715358E+03	1.208034E-03	9.720615E-06
7.725313E+03	1.216857E-03	9.716148E-06
