#wls	flux	fluxerr
1.592848E+03	3.824062E-05	2.424341E-05
1.632669E+03	3.967718E-05	2.497849E-05
1.672491E+03	4.100474E-05	2.562929E-05
1.712312E+03	4.219531E-05	2.617953E-05
1.752133E+03	4.322899E-05	2.661850E-05
1.791954E+03	4.405709E-05	2.691833E-05
1.831775E+03	4.459973E-05	2.703330E-05
1.871597E+03	4.478306E-05	2.692298E-05
1.911418E+03	4.452714E-05	2.654493E-05
1.951239E+03	4.378398E-05	2.587747E-05
1.991060E+03	4.259177E-05	2.495061E-05
2.030881E+03	4.114456E-05	2.388432E-05
2.070703E+03	3.984556E-05	2.291492E-05
2.110524E+03	3.919846E-05	2.232723E-05
2.150345E+03	3.968256E-05	2.238097E-05
2.190166E+03	4.150877E-05	2.317473E-05
2.229987E+03	4.459389E-05	2.463907E-05
2.269809E+03	4.864152E-05	2.658917E-05
2.309630E+03	5.327877E-05	2.880519E-05
2.349451E+03	5.821379E-05	3.111913E-05
2.389272E+03	6.322649E-05	3.340773E-05
2.429093E+03	6.820728E-05	3.561080E-05
2.468915E+03	7.311387E-05	3.770557E-05
2.508736E+03	7.793273E-05	3.968505E-05
2.548557E+03	8.268331E-05	4.155920E-05
2.588378E+03	8.739555E-05	4.334273E-05
2.628199E+03	9.210305E-05	4.505135E-05
2.668021E+03	9.682511E-05	4.669298E-05
2.707842E+03	1.016066E-04	4.828717E-05
2.747663E+03	1.064766E-04	4.984473E-05
2.787484E+03	1.114605E-04	5.137396E-05
2.827305E+03	1.165803E-04	5.288088E-05
2.867127E+03	1.218704E-04	5.437615E-05
2.906948E+03	1.273618E-04	5.586806E-05
2.946769E+03	1.330984E-04	5.736928E-05
2.986590E+03	1.390720E-04	5.886893E-05
2.996546E+03	1.406034E-04	5.924317E-05
3.006501E+03	1.421741E-04	5.962700E-05
3.016456E+03	1.437347E-04	5.999954E-05
3.026411E+03	1.453367E-04	6.038225E-05
3.036367E+03	1.469734E-04	6.077202E-05
3.046322E+03	1.486379E-04	6.116589E-05
3.056277E+03	1.503439E-04	6.156916E-05
3.066233E+03	1.521048E-04	6.198703E-05
3.076188E+03	1.538845E-04	6.240456E-05
3.086143E+03	1.556971E-04	6.282727E-05
3.096099E+03	1.575567E-04	6.326056E-05
3.106054E+03	1.594275E-04	6.368987E-05
3.116009E+03	1.613408E-04	6.412745E-05
3.125964E+03	1.632943E-04	6.457216E-05
3.135920E+03	1.652525E-04	6.500979E-05
3.145875E+03	1.672471E-04	6.545259E-05
3.155830E+03	1.692592E-04	6.589302E-05
3.165786E+03	1.713042E-04	6.633684E-05
3.175741E+03	1.733799E-04	6.678305E-05
3.185696E+03	1.754683E-04	6.722443E-05
3.195652E+03	1.775845E-04	6.766666E-05
3.205607E+03	1.797267E-04	6.810891E-05
3.215562E+03	1.818938E-04	6.855047E-05
3.225517E+03	1.840674E-04	6.898428E-05
3.235473E+03	1.862798E-04	6.942231E-05
3.245428E+03	1.884958E-04	6.985126E-05
3.255383E+03	1.907479E-04	7.028303E-05
3.265339E+03	1.930178E-04	7.071063E-05
3.275294E+03	1.953044E-04	7.113353E-05
3.285249E+03	1.976232E-04	7.155717E-05
3.295205E+03	1.999559E-04	7.197478E-05
3.305160E+03	2.023184E-04	7.239187E-05
3.315115E+03	2.047093E-04	7.280770E-05
3.325070E+03	2.071103E-04	7.321566E-05
3.335026E+03	2.095374E-04	7.362119E-05
3.344981E+03	2.119890E-04	7.402354E-05
3.354936E+03	2.144640E-04	7.442218E-05
3.364892E+03	2.169611E-04	7.481640E-05
3.374847E+03	2.194955E-04	7.521131E-05
3.384802E+03	2.220496E-04	7.560057E-05
3.394758E+03	2.246218E-04	7.598351E-05
3.404713E+03	2.272276E-04	7.636516E-05
3.414668E+03	2.298490E-04	7.673925E-05
3.424623E+03	2.325013E-04	7.711073E-05
3.434579E+03	2.351830E-04	7.747886E-05
3.444534E+03	2.378929E-04	7.784301E-05
3.454489E+03	2.406296E-04	7.820251E-05
3.464445E+03	2.434082E-04	7.856198E-05
3.474400E+03	2.461951E-04	7.891042E-05
3.484355E+03	2.490218E-04	7.925769E-05
3.494311E+03	2.518881E-04	7.960342E-05
3.504266E+03	2.547776E-04	7.994223E-05
3.514221E+03	2.577233E-04	8.028411E-05
3.524176E+03	2.606948E-04	8.061932E-05
3.534132E+03	2.637101E-04	8.095316E-05
3.544087E+03	2.667879E-04	8.129096E-05
3.554042E+03	2.698998E-04	8.162373E-05
3.563998E+03	2.730970E-04	8.196650E-05
3.573953E+03	2.763525E-04	8.231062E-05
3.583908E+03	2.796868E-04	8.266177E-05
3.593864E+03	2.830901E-04	8.301646E-05
3.603819E+03	2.865996E-04	8.338499E-05
3.613774E+03	2.902071E-04	8.376422E-05
3.623729E+03	2.939209E-04	8.415583E-05
3.633685E+03	2.977501E-04	8.456164E-05
3.643640E+03	3.017353E-04	8.499221E-05
3.653595E+03	3.058574E-04	8.544109E-05
3.663551E+03	3.101286E-04	8.591069E-05
3.673506E+03	3.145915E-04	8.641159E-05
3.683461E+03	3.192443E-04	8.694194E-05
3.693417E+03	3.241002E-04	8.750393E-05
3.703372E+03	3.291880E-04	8.810377E-05
3.713327E+03	3.345064E-04	8.873946E-05
3.723282E+03	3.400838E-04	8.941677E-05
3.733238E+03	3.459187E-04	9.013346E-05
3.743193E+03	3.520534E-04	9.089855E-05
3.753148E+03	3.584858E-04	9.170932E-05
3.763104E+03	3.652123E-04	9.256270E-05
3.773059E+03	3.722725E-04	9.346650E-05
3.783014E+03	3.796753E-04	9.442046E-05
3.792970E+03	3.874119E-04	9.541994E-05
3.802925E+03	3.954862E-04	9.646344E-05
3.812880E+03	4.039282E-04	9.755572E-05
3.822835E+03	4.127051E-04	9.868626E-05
3.832791E+03	4.218092E-04	9.985073E-05
3.842746E+03	4.312583E-04	1.010509E-04
3.852701E+03	4.410200E-04	1.022768E-04
3.862657E+03	4.510718E-04	1.035208E-04
3.872612E+03	4.613845E-04	1.047742E-04
3.882567E+03	4.719234E-04	1.060273E-04
3.892523E+03	4.826465E-04	1.072690E-04
3.902478E+03	4.935057E-04	1.084873E-04
3.912433E+03	5.044620E-04	1.096729E-04
3.922388E+03	5.154257E-04	1.108055E-04
3.932344E+03	5.263646E-04	1.118784E-04
3.942299E+03	5.371988E-04	1.128748E-04
3.952254E+03	5.478639E-04	1.137822E-04
3.962210E+03	5.582816E-04	1.145856E-04
3.972165E+03	5.684237E-04	1.152812E-04
3.982120E+03	5.782040E-04	1.158537E-04
3.992076E+03	5.875889E-04	1.162991E-04
4.002031E+03	5.965190E-04	1.166088E-04
4.011986E+03	6.049728E-04	1.167818E-04
4.021941E+03	6.129041E-04	1.168129E-04
4.031897E+03	6.202902E-04	1.167018E-04
4.041852E+03	6.271010E-04	1.164469E-04
4.051807E+03	6.333459E-04	1.160542E-04
4.061763E+03	6.389975E-04	1.155229E-04
4.071718E+03	6.440986E-04	1.148652E-04
4.081673E+03	6.486552E-04	1.140861E-04
4.091629E+03	6.526674E-04	1.131899E-04
4.101584E+03	6.561868E-04	1.121894E-04
4.111539E+03	6.592552E-04	1.110953E-04
4.121494E+03	6.619046E-04	1.099165E-04
4.131450E+03	6.641846E-04	1.086641E-04
4.141405E+03	6.661325E-04	1.073471E-04
4.151360E+03	6.677875E-04	1.059742E-04
4.161316E+03	6.692158E-04	1.045580E-04
4.171271E+03	6.704572E-04	1.031063E-04
4.181226E+03	6.715506E-04	1.016267E-04
4.191182E+03	6.725480E-04	1.001280E-04
4.201137E+03	6.734876E-04	9.861659E-05
4.211092E+03	6.744192E-04	9.710025E-05
4.221047E+03	6.753793E-04	9.558432E-05
4.231003E+03	6.764157E-04	9.407533E-05
4.240958E+03	6.775629E-04	9.257759E-05
4.250913E+03	6.788548E-04	9.109499E-05
4.260869E+03	6.803487E-04	8.963412E-05
4.270824E+03	6.820769E-04	8.819784E-05
4.280779E+03	6.840724E-04	8.678876E-05
4.290735E+03	6.863676E-04	8.540914E-05
4.300690E+03	6.890185E-04	8.406377E-05
4.310645E+03	6.920582E-04	8.275421E-05
4.320601E+03	6.955213E-04	8.148183E-05
4.330556E+03	6.994648E-04	8.025032E-05
4.340511E+03	7.039143E-04	7.905927E-05
4.350466E+03	7.089293E-04	7.791176E-05
4.360422E+03	7.145483E-04	7.680810E-05
4.370377E+03	7.208219E-04	7.574948E-05
4.380332E+03	7.278000E-04	7.473659E-05
4.390288E+03	7.355218E-04	7.376860E-05
4.400243E+03	7.440558E-04	7.284720E-05
4.410198E+03	7.534250E-04	7.196914E-05
4.420154E+03	7.636680E-04	7.113242E-05
4.430109E+03	7.748286E-04	7.033522E-05
4.440064E+03	7.869084E-04	6.957162E-05
4.450019E+03	7.999315E-04	6.883769E-05
4.459975E+03	8.138870E-04	6.812641E-05
4.469930E+03	8.287595E-04	6.743055E-05
4.479885E+03	8.444931E-04	6.673994E-05
4.489841E+03	8.610448E-04	6.604596E-05
4.499796E+03	8.783368E-04	6.533791E-05
4.509751E+03	8.962434E-04	6.460244E-05
4.519707E+03	9.146350E-04	6.382716E-05
4.529662E+03	9.333676E-04	6.300001E-05
4.539617E+03	9.522379E-04	6.210644E-05
4.549572E+03	9.710594E-04	6.113491E-05
4.559528E+03	9.896204E-04	6.007411E-05
4.569483E+03	1.007680E-03	5.891300E-05
4.579438E+03	1.025051E-03	5.764573E-05
4.589394E+03	1.041509E-03	5.626627E-05
4.599349E+03	1.056891E-03	5.477365E-05
4.609304E+03	1.071047E-03	5.316926E-05
4.619260E+03	1.083867E-03	5.145743E-05
4.629215E+03	1.095272E-03	4.964507E-05
4.639170E+03	1.105204E-03	4.774069E-05
4.649125E+03	1.113674E-03	4.575620E-05
4.659081E+03	1.120670E-03	4.370252E-05
4.669036E+03	1.126256E-03	4.159364E-05
4.678991E+03	1.130467E-03	3.944222E-05
4.688947E+03	1.133403E-03	3.726286E-05
4.698902E+03	1.135169E-03	3.507001E-05
4.708857E+03	1.135871E-03	3.287762E-05
4.718813E+03	1.135658E-03	3.070073E-05
4.728768E+03	1.134687E-03	2.855424E-05
4.738723E+03	1.133129E-03	2.645345E-05
4.748678E+03	1.131151E-03	2.441403E-05
4.758634E+03	1.128950E-03	2.245332E-05
4.768589E+03	1.126680E-03	2.058968E-05
4.778544E+03	1.124577E-03	1.884599E-05
4.788500E+03	1.122808E-03	1.724791E-05
4.798455E+03	1.121568E-03	1.582701E-05
4.808410E+03	1.121030E-03	1.462045E-05
4.818366E+03	1.121384E-03	1.367021E-05
4.828321E+03	1.122750E-03	1.301764E-05
4.838276E+03	1.125298E-03	1.269668E-05
4.848231E+03	1.129145E-03	1.271797E-05
4.858187E+03	1.134406E-03	1.305571E-05
4.868142E+03	1.141160E-03	1.366526E-05
4.878097E+03	1.149474E-03	1.449631E-05
4.888053E+03	1.159359E-03	1.550102E-05
4.898008E+03	1.170821E-03	1.663908E-05
4.907963E+03	1.183799E-03	1.787782E-05
4.917919E+03	1.198183E-03	1.919121E-05
4.927874E+03	1.213808E-03	2.055814E-05
4.937829E+03	1.230459E-03	2.196065E-05
4.947784E+03	1.247885E-03	2.338273E-05
4.957740E+03	1.265779E-03	2.480892E-05
4.967695E+03	1.283818E-03	2.622419E-05
4.977650E+03	1.301620E-03	2.761270E-05
4.987606E+03	1.318880E-03	2.896020E-05
4.997561E+03	1.335256E-03	3.025170E-05
5.007516E+03	1.350489E-03	3.147411E-05
5.017472E+03	1.364431E-03	3.261722E-05
5.027427E+03	1.376934E-03	3.367130E-05
5.037382E+03	1.388004E-03	3.463091E-05
5.047337E+03	1.397678E-03	3.549225E-05
5.057293E+03	1.406081E-03	3.625455E-05
5.067248E+03	1.413367E-03	3.691866E-05
5.077203E+03	1.419710E-03	3.748680E-05
5.087159E+03	1.425292E-03	3.796209E-05
5.097114E+03	1.430287E-03	3.834800E-05
5.107069E+03	1.434860E-03	3.864837E-05
5.117025E+03	1.439125E-03	3.886591E-05
5.126980E+03	1.443173E-03	3.900311E-05
5.136935E+03	1.447078E-03	3.906223E-05
5.146890E+03	1.450867E-03	3.904439E-05
5.156846E+03	1.454522E-03	3.894978E-05
5.166801E+03	1.458048E-03	3.877935E-05
5.176756E+03	1.461376E-03	3.853235E-05
5.186712E+03	1.464474E-03	3.820932E-05
5.196667E+03	1.467310E-03	3.781104E-05
5.206622E+03	1.469820E-03	3.733792E-05
5.216578E+03	1.471959E-03	3.679123E-05
5.226533E+03	1.473682E-03	3.617274E-05
5.236488E+03	1.474973E-03	3.548551E-05
5.246443E+03	1.475745E-03	3.473135E-05
5.256399E+03	1.475991E-03	3.391481E-05
5.266354E+03	1.475628E-03	3.303937E-05
5.276309E+03	1.474623E-03	3.211060E-05
5.286265E+03	1.472879E-03	3.113369E-05
5.296220E+03	1.470354E-03	3.011625E-05
5.306175E+03	1.466974E-03	2.906656E-05
5.316131E+03	1.462653E-03	2.799427E-05
5.326086E+03	1.457342E-03	2.691152E-05
5.336041E+03	1.450991E-03	2.583227E-05
5.345996E+03	1.443576E-03	2.477301E-05
5.355952E+03	1.435061E-03	2.375204E-05
5.365907E+03	1.425454E-03	2.279040E-05
5.375862E+03	1.414780E-03	2.191096E-05
5.385818E+03	1.403033E-03	2.113709E-05
5.395773E+03	1.390282E-03	2.049307E-05
5.405728E+03	1.376576E-03	2.000109E-05
5.415684E+03	1.361959E-03	1.967951E-05
5.425639E+03	1.346524E-03	1.954103E-05
5.435594E+03	1.330324E-03	1.958043E-05
5.445549E+03	1.313433E-03	1.977754E-05
5.455505E+03	1.295936E-03	2.010830E-05
5.465460E+03	1.277904E-03	2.054683E-05
5.475415E+03	1.259352E-03	2.106682E-05
5.485371E+03	1.240214E-03	2.164211E-05
5.495326E+03	1.220424E-03	2.224871E-05
5.505281E+03	1.199914E-03	2.286508E-05
5.515237E+03	1.178631E-03	2.347236E-05
5.525192E+03	1.156563E-03	2.405486E-05
5.535147E+03	1.133739E-03	2.459998E-05
5.545102E+03	1.110237E-03	2.509831E-05
5.555058E+03	1.086182E-03	2.554358E-05
5.565013E+03	1.061742E-03	2.593251E-05
5.574968E+03	1.037141E-03	2.626507E-05
5.584924E+03	1.012648E-03	2.654433E-05
5.594879E+03	9.885204E-04	2.677492E-05
5.604834E+03	9.650469E-04	2.696390E-05
5.614790E+03	9.425226E-04	2.712012E-05
5.624745E+03	9.212133E-04	2.725296E-05
5.634700E+03	9.013774E-04	2.737271E-05
5.644655E+03	8.832528E-04	2.749000E-05
5.654611E+03	8.670437E-04	2.761514E-05
5.664566E+03	8.529363E-04	2.775840E-05
5.674521E+03	8.410883E-04	2.792941E-05
5.684477E+03	8.316358E-04	2.813729E-05
5.694432E+03	8.246580E-04	2.838915E-05
5.704387E+03	8.202160E-04	2.869130E-05
5.714343E+03	8.183415E-04	2.904867E-05
5.724298E+03	8.190101E-04	2.946373E-05
5.734253E+03	8.221698E-04	2.993738E-05
5.744209E+03	8.277418E-04	3.046887E-05
5.754164E+03	8.355921E-04	3.105474E-05
5.764119E+03	8.455705E-04	3.169019E-05
5.774074E+03	8.575111E-04	3.236908E-05
5.784030E+03	8.711692E-04	3.308162E-05
5.793985E+03	8.863014E-04	3.381741E-05
5.803940E+03	9.026049E-04	3.456319E-05
5.813896E+03	9.197154E-04	3.530285E-05
5.823851E+03	9.372567E-04	3.601949E-05
5.833806E+03	9.548221E-04	3.669482E-05
5.843762E+03	9.719587E-04	3.730876E-05
5.853717E+03	9.882250E-04	3.784192E-05
5.863672E+03	1.003208E-03	3.827636E-05
5.873627E+03	1.016470E-03	3.859381E-05
5.883583E+03	1.027661E-03	3.878015E-05
5.893538E+03	1.036464E-03	3.882347E-05
5.903493E+03	1.042610E-03	3.871467E-05
5.913449E+03	1.045951E-03	3.845020E-05
5.923404E+03	1.046394E-03	3.802969E-05
5.933359E+03	1.043946E-03	3.745725E-05
5.943315E+03	1.038735E-03	3.674228E-05
5.953270E+03	1.030956E-03	3.589690E-05
5.963225E+03	1.020891E-03	3.493676E-05
5.973180E+03	1.008895E-03	3.387982E-05
5.983136E+03	9.953693E-04	3.274538E-05
5.993091E+03	9.807491E-04	3.155310E-05
6.003046E+03	9.654890E-04	3.032241E-05
6.013002E+03	9.500090E-04	2.907051E-05
6.022957E+03	9.347560E-04	2.781417E-05
6.032912E+03	9.200985E-04	2.656642E-05
6.042868E+03	9.064059E-04	2.533891E-05
6.052823E+03	8.939705E-04	2.413973E-05
6.062778E+03	8.830912E-04	2.297584E-05
6.072733E+03	8.739854E-04	2.185074E-05
6.082689E+03	8.668819E-04	2.076710E-05
6.092644E+03	8.619375E-04	1.972474E-05
6.102599E+03	8.593204E-04	1.872285E-05
6.112555E+03	8.591539E-04	1.775883E-05
6.122510E+03	8.615627E-04	1.682947E-05
6.132465E+03	8.666519E-04	1.593070E-05
6.142421E+03	8.744908E-04	1.505758E-05
6.152376E+03	8.851756E-04	1.420566E-05
6.162331E+03	8.987789E-04	1.337050E-05
6.172286E+03	9.154020E-04	1.254883E-05
6.182242E+03	9.351019E-04	1.173818E-05
6.192197E+03	9.579421E-04	1.093857E-05
6.202152E+03	9.839423E-04	1.015336E-05
6.212108E+03	1.013126E-03	9.391882E-06
6.222063E+03	1.045358E-03	8.670952E-06
6.232018E+03	1.080271E-03	8.018815E-06
6.241974E+03	1.117445E-03	7.480794E-06
6.251929E+03	1.156377E-03	7.119293E-06
6.261884E+03	1.196571E-03	7.005069E-06
6.271839E+03	1.237447E-03	7.185589E-06
6.281795E+03	1.278455E-03	7.639218E-06
6.291750E+03	1.319064E-03	8.305706E-06
6.301705E+03	1.358748E-03	9.115346E-06
6.311661E+03	1.397031E-03	1.000428E-05
6.321616E+03	1.433550E-03	1.092025E-05
6.331571E+03	1.467981E-03	1.182187E-05
6.341527E+03	1.500106E-03	1.267738E-05
6.351482E+03	1.529803E-03	1.346287E-05
6.361437E+03	1.557056E-03	1.416109E-05
6.371392E+03	1.581903E-03	1.476018E-05
6.381348E+03	1.604495E-03	1.525364E-05
6.391303E+03	1.624968E-03	1.563880E-05
6.401258E+03	1.643551E-03	1.591763E-05
6.411214E+03	1.660453E-03	1.609551E-05
6.421169E+03	1.675851E-03	1.618132E-05
6.431124E+03	1.689954E-03	1.618814E-05
6.441080E+03	1.702903E-03	1.613267E-05
6.451035E+03	1.714786E-03	1.603585E-05
6.460990E+03	1.725710E-03	1.592396E-05
6.470945E+03	1.735699E-03	1.582790E-05
6.480901E+03	1.744820E-03	1.578406E-05
6.490856E+03	1.753063E-03	1.583211E-05
6.500811E+03	1.760543E-03	1.601450E-05
6.510767E+03	1.767257E-03	1.637082E-05
6.520722E+03	1.773205E-03	1.693260E-05
6.530677E+03	1.778341E-03	1.769955E-05
6.540633E+03	1.782702E-03	1.865158E-05
6.550588E+03	1.786185E-03	1.976257E-05
6.560543E+03	1.788746E-03	2.100554E-05
6.570498E+03	1.790266E-03	2.235322E-05
6.580454E+03	1.790563E-03	2.377916E-05
6.590409E+03	1.789441E-03	2.525853E-05
6.600364E+03	1.786695E-03	2.676817E-05
6.610320E+03	1.782089E-03	2.828594E-05
6.620275E+03	1.775388E-03	2.979091E-05
6.630230E+03	1.766368E-03	3.126318E-05
6.640186E+03	1.754910E-03	3.268548E-05
6.650141E+03	1.740907E-03	3.404164E-05
6.660096E+03	1.724356E-03	3.531829E-05
6.670051E+03	1.705336E-03	3.650492E-05
6.680007E+03	1.684034E-03	3.759452E-05
6.689962E+03	1.660684E-03	3.858277E-05
6.699917E+03	1.635578E-03	3.946828E-05
6.709873E+03	1.609042E-03	4.025231E-05
6.719828E+03	1.581446E-03	4.093896E-05
6.729783E+03	1.553136E-03	4.153351E-05
6.739739E+03	1.524483E-03	4.204358E-05
6.749694E+03	1.495876E-03	4.247889E-05
6.759649E+03	1.467682E-03	4.285009E-05
6.769604E+03	1.440259E-03	4.316902E-05
6.779560E+03	1.413954E-03	4.344835E-05
6.789515E+03	1.389109E-03	4.370177E-05
6.799470E+03	1.366010E-03	4.394215E-05
6.809426E+03	1.344945E-03	4.418314E-05
6.819381E+03	1.326139E-03	4.443691E-05
6.829336E+03	1.309812E-03	4.471585E-05
6.839292E+03	1.296134E-03	4.503086E-05
6.849247E+03	1.285236E-03	4.539157E-05
6.859202E+03	1.277213E-03	4.580620E-05
6.869157E+03	1.272137E-03	4.628195E-05
6.879113E+03	1.269996E-03	4.682256E-05
6.889068E+03	1.270793E-03	4.743186E-05
6.899023E+03	1.274437E-03	4.810962E-05
6.908979E+03	1.280810E-03	4.885388E-05
6.918934E+03	1.289699E-03	4.965835E-05
6.928889E+03	1.300862E-03	5.051481E-05
6.938845E+03	1.313969E-03	5.141084E-05
6.948800E+03	1.328672E-03	5.233249E-05
6.958755E+03	1.344570E-03	5.326300E-05
6.968710E+03	1.361219E-03	5.418329E-05
6.978666E+03	1.378180E-03	5.507394E-05
6.988621E+03	1.395058E-03	5.591687E-05
6.998576E+03	1.411418E-03	5.669233E-05
7.008532E+03	1.426930E-03	5.738462E-05
7.018487E+03	1.441303E-03	5.797972E-05
7.028442E+03	1.454369E-03	5.846888E-05
7.038398E+03	1.466029E-03	5.884633E-05
7.048353E+03	1.476324E-03	5.911235E-05
7.058308E+03	1.485376E-03	5.927078E-05
7.068263E+03	1.493381E-03	5.932859E-05
7.078219E+03	1.500641E-03	5.929714E-05
7.088174E+03	1.507473E-03	5.918836E-05
7.098129E+03	1.514235E-03	5.901573E-05
7.108085E+03	1.521313E-03	5.879333E-05
7.118040E+03	1.529029E-03	5.853242E-05
7.127995E+03	1.537678E-03	5.824277E-05
7.137951E+03	1.547510E-03	5.793179E-05
7.147906E+03	1.558629E-03	5.760096E-05
7.157861E+03	1.571118E-03	5.725058E-05
7.167817E+03	1.584890E-03	5.687456E-05
7.177772E+03	1.599765E-03	5.646351E-05
7.187727E+03	1.615444E-03	5.600432E-05
7.197682E+03	1.631511E-03	5.548062E-05
7.207638E+03	1.647411E-03	5.487259E-05
7.217593E+03	1.662545E-03	5.416083E-05
7.227548E+03	1.676158E-03	5.332313E-05
7.237504E+03	1.687450E-03	5.233878E-05
7.247459E+03	1.695592E-03	5.118944E-05
7.257414E+03	1.699760E-03	4.986072E-05
7.267370E+03	1.699188E-03	4.834375E-05
7.277325E+03	1.693212E-03	4.663645E-05
7.287280E+03	1.681323E-03	4.474459E-05
7.297235E+03	1.663230E-03	4.268287E-05
7.307191E+03	1.638856E-03	4.047371E-05
7.317146E+03	1.608376E-03	3.814718E-05
7.327101E+03	1.572226E-03	3.573969E-05
7.337057E+03	1.531093E-03	3.329245E-05
7.347012E+03	1.485826E-03	3.084814E-05
7.356967E+03	1.437416E-03	2.844947E-05
7.366923E+03	1.386883E-03	2.613635E-05
7.376878E+03	1.335246E-03	2.394502E-05
7.386833E+03	1.283500E-03	2.190775E-05
7.396788E+03	1.232498E-03	2.005095E-05
7.406744E+03	1.182979E-03	1.839622E-05
7.416699E+03	1.135571E-03	1.696054E-05
7.426654E+03	1.090755E-03	1.575569E-05
7.436610E+03	1.048901E-03	1.478831E-05
7.446565E+03	1.010252E-03	1.405885E-05
7.456520E+03	9.749470E-04	1.356044E-05
7.466476E+03	9.430487E-04	1.327080E-05
7.476431E+03	9.145384E-04	1.315936E-05
7.486386E+03	8.893065E-04	1.319560E-05
7.496341E+03	8.672382E-04	1.335219E-05
7.506297E+03	8.481261E-04	1.360461E-05
7.516252E+03	8.317522E-04	1.393245E-05
7.526207E+03	8.178803E-04	1.431893E-05
7.536163E+03	8.062207E-04	1.474945E-05
7.546118E+03	7.965138E-04	1.521228E-05
7.556073E+03	7.884541E-04	1.569645E-05
7.566029E+03	7.817869E-04	1.619298E-05
7.575984E+03	7.762320E-04	1.669299E-05
7.585939E+03	7.716016E-04	1.718988E-05
7.595894E+03	7.679026E-04	1.768181E-05
7.605850E+03	7.652067E-04	1.816911E-05
7.615805E+03	7.635883E-04	1.865282E-05
7.625760E+03	7.631132E-04	1.913424E-05
7.635716E+03	7.638188E-04	1.961426E-05
7.645671E+03	7.657478E-04	2.009400E-05
7.655626E+03	7.688721E-04	2.057275E-05
7.665582E+03	7.731726E-04	2.104983E-05
7.675537E+03	7.785588E-04	2.152240E-05
7.685492E+03	7.849552E-04	2.198768E-05
7.695447E+03	7.922320E-04	2.244105E-05
7.705403E+03	8.002522E-04	2.287729E-05
7.715358E+03	8.088787E-04	2.329091E-05
7.725313E+03	8.179476E-04	2.367534E-05
