#wls	flux	fluxerr
1.592848E+03	1.007570E-04	4.042571E-06
1.632669E+03	1.033967E-04	4.130049E-06
1.672491E+03	1.056748E-04	4.201750E-06
1.712312E+03	1.075295E-04	4.255383E-06
1.752133E+03	1.089437E-04	4.290482E-06
1.791954E+03	1.097689E-04	4.301445E-06
1.831775E+03	1.098461E-04	4.282411E-06
1.871597E+03	1.090002E-04	4.227018E-06
1.911418E+03	1.071113E-04	4.131223E-06
1.951239E+03	1.040623E-04	3.991205E-06
1.991060E+03	1.000244E-04	3.814284E-06
2.030881E+03	9.544767E-05	3.618222E-06
2.070703E+03	9.129808E-05	3.439848E-06
2.110524E+03	8.870149E-05	3.321073E-06
2.150345E+03	8.865814E-05	3.298040E-06
2.190166E+03	9.156949E-05	3.383728E-06
2.229987E+03	9.710856E-05	3.563889E-06
2.269809E+03	1.045498E-04	3.809994E-06
2.309630E+03	1.130030E-04	4.088224E-06
2.349451E+03	1.218080E-04	4.373923E-06
2.389272E+03	1.305306E-04	4.651165E-06
2.429093E+03	1.388792E-04	4.909547E-06
2.468915E+03	1.468214E-04	5.148086E-06
2.508736E+03	1.543178E-04	5.365609E-06
2.548557E+03	1.614199E-04	5.564135E-06
2.588378E+03	1.681987E-04	5.746294E-06
2.628199E+03	1.747029E-04	5.913892E-06
2.668021E+03	1.810043E-04	6.069465E-06
2.707842E+03	1.871988E-04	6.216249E-06
2.747663E+03	1.933188E-04	6.355290E-06
2.787484E+03	1.994180E-04	6.488268E-06
2.827305E+03	2.055716E-04	6.617498E-06
2.867127E+03	2.118485E-04	6.744984E-06
2.906948E+03	2.182526E-04	6.870581E-06
2.946769E+03	2.248969E-04	6.997529E-06
2.986590E+03	2.317702E-04	7.125075E-06
2.996546E+03	2.335287E-04	7.157142E-06
3.006501E+03	2.353198E-04	7.189777E-06
3.016456E+03	2.371433E-04	7.222953E-06
3.026411E+03	2.389742E-04	7.255907E-06
3.036367E+03	2.408567E-04	7.289971E-06
3.046322E+03	2.428070E-04	7.325614E-06
3.056277E+03	2.447910E-04	7.361788E-06
3.066233E+03	2.468609E-04	7.400046E-06
3.076188E+03	2.489542E-04	7.438496E-06
3.086143E+03	2.510956E-04	7.477861E-06
3.096099E+03	2.532806E-04	7.517992E-06
3.106054E+03	2.555055E-04	7.558762E-06
3.116009E+03	2.577950E-04	7.600884E-06
3.125964E+03	2.600884E-04	7.642556E-06
3.135920E+03	2.624396E-04	7.685348E-06
3.145875E+03	2.648170E-04	7.728322E-06
3.155830E+03	2.672177E-04	7.771377E-06
3.165786E+03	2.696674E-04	7.815254E-06
3.175741E+03	2.721633E-04	7.859847E-06
3.185696E+03	2.746461E-04	7.903438E-06
3.195652E+03	2.771984E-04	7.948395E-06
3.205607E+03	2.797615E-04	7.993016E-06
3.215562E+03	2.823612E-04	8.038028E-06
3.225517E+03	2.849955E-04	8.083361E-06
3.235473E+03	2.876343E-04	8.128148E-06
3.245428E+03	2.903314E-04	8.173903E-06
3.255383E+03	2.930572E-04	8.219769E-06
3.265339E+03	2.957818E-04	8.264904E-06
3.275294E+03	2.985870E-04	8.311579E-06
3.285249E+03	3.013876E-04	8.357401E-06
3.295205E+03	3.042374E-04	8.403854E-06
3.305160E+03	3.071070E-04	8.450116E-06
3.315115E+03	3.100226E-04	8.496887E-06
3.325070E+03	3.129822E-04	8.544102E-06
3.335026E+03	3.159575E-04	8.590967E-06
3.344981E+03	3.189741E-04	8.638168E-06
3.354936E+03	3.220574E-04	8.686379E-06
3.364892E+03	3.251523E-04	8.734087E-06
3.374847E+03	3.282848E-04	8.781983E-06
3.384802E+03	3.314803E-04	8.830731E-06
3.394758E+03	3.347378E-04	8.880275E-06
3.404713E+03	3.380032E-04	8.929166E-06
3.414668E+03	3.413552E-04	8.979462E-06
3.424623E+03	3.447405E-04	9.029742E-06
3.434579E+03	3.481851E-04	9.080663E-06
3.444534E+03	3.516888E-04	9.132198E-06
3.454489E+03	3.552515E-04	9.184324E-06
3.464445E+03	3.588997E-04	9.237693E-06
3.474400E+03	3.626077E-04	9.291618E-06
3.484355E+03	3.663771E-04	9.346117E-06
3.494311E+03	3.702345E-04	9.401835E-06
3.504266E+03	3.741564E-04	9.458147E-06
3.514221E+03	3.781952E-04	9.516346E-06
3.524176E+03	3.823283E-04	9.575821E-06
3.534132E+03	3.865586E-04	9.636606E-06
3.544087E+03	3.908898E-04	9.698756E-06
3.554042E+03	3.953502E-04	9.762932E-06
3.563998E+03	3.999199E-04	9.828593E-06
3.573953E+03	4.046283E-04	9.896415E-06
3.583908E+03	4.094806E-04	9.966472E-06
3.593864E+03	4.144824E-04	1.003885E-05
3.603819E+03	4.196402E-04	1.011363E-05
3.613774E+03	4.249841E-04	1.019150E-05
3.623729E+03	4.304976E-04	1.027197E-05
3.633685E+03	4.362112E-04	1.035572E-05
3.643640E+03	4.421092E-04	1.044228E-05
3.653595E+03	4.482457E-04	1.053287E-05
3.663551E+03	4.546050E-04	1.062702E-05
3.673506E+03	4.611945E-04	1.072482E-05
3.683461E+03	4.680216E-04	1.082635E-05
3.693417E+03	4.751163E-04	1.093221E-05
3.703372E+03	4.824849E-04	1.104244E-05
3.713327E+03	4.901332E-04	1.115706E-05
3.723282E+03	4.980658E-04	1.127608E-05
3.733238E+03	5.062866E-04	1.139947E-05
3.743193E+03	5.147982E-04	1.152717E-05
3.753148E+03	5.236240E-04	1.165959E-05
3.763104E+03	5.327406E-04	1.179610E-05
3.773059E+03	5.421678E-04	1.193700E-05
3.783014E+03	5.519002E-04	1.208207E-05
3.792970E+03	5.619302E-04	1.223102E-05
3.802925E+03	5.722476E-04	1.238351E-05
3.812880E+03	5.828389E-04	1.253913E-05
3.822835E+03	5.937102E-04	1.269791E-05
3.832791E+03	6.048192E-04	1.285883E-05
3.842746E+03	6.161651E-04	1.302179E-05
3.852701E+03	6.276988E-04	1.318566E-05
3.862657E+03	6.394126E-04	1.335020E-05
3.872612E+03	6.512506E-04	1.351417E-05
3.882567E+03	6.631987E-04	1.367725E-05
3.892523E+03	6.752391E-04	1.383901E-05
3.902478E+03	6.872850E-04	1.399765E-05
3.912433E+03	6.993142E-04	1.415272E-05
3.922388E+03	7.112801E-04	1.430329E-05
3.932344E+03	7.231134E-04	1.444800E-05
3.942299E+03	7.348103E-04	1.458681E-05
3.952254E+03	7.462790E-04	1.471797E-05
3.962210E+03	7.574948E-04	1.484110E-05
3.972165E+03	7.684127E-04	1.495541E-05
3.982120E+03	7.789683E-04	1.505977E-05
3.992076E+03	7.891443E-04	1.515401E-05
4.002031E+03	7.988833E-04	1.523717E-05
4.011986E+03	8.081761E-04	1.530925E-05
4.021941E+03	8.169542E-04	1.536916E-05
4.031897E+03	8.252188E-04	1.541712E-05
4.041852E+03	8.329555E-04	1.545306E-05
4.051807E+03	8.401357E-04	1.547668E-05
4.061763E+03	8.467574E-04	1.548817E-05
4.071718E+03	8.528255E-04	1.548784E-05
4.081673E+03	8.583306E-04	1.547575E-05
4.091629E+03	8.632902E-04	1.545245E-05
4.101584E+03	8.677272E-04	1.541857E-05
4.111539E+03	8.716502E-04	1.537447E-05
4.121494E+03	8.750932E-04	1.532097E-05
4.131450E+03	8.780753E-04	1.525859E-05
4.141405E+03	8.806388E-04	1.518827E-05
4.151360E+03	8.828293E-04	1.511095E-05
4.161316E+03	8.846595E-04	1.502702E-05
4.171271E+03	8.861814E-04	1.493751E-05
4.181226E+03	8.874483E-04	1.484344E-05
4.191182E+03	8.884981E-04	1.474556E-05
4.201137E+03	8.893870E-04	1.464489E-05
4.211092E+03	8.901219E-04	1.454163E-05
4.221047E+03	8.907937E-04	1.443732E-05
4.231003E+03	8.914274E-04	1.433241E-05
4.240958E+03	8.920645E-04	1.422759E-05
4.250913E+03	8.927465E-04	1.412354E-05
4.260869E+03	8.935307E-04	1.402116E-05
4.270824E+03	8.944723E-04	1.392127E-05
4.280779E+03	8.955800E-04	1.382399E-05
4.290735E+03	8.969084E-04	1.373009E-05
4.300690E+03	8.985100E-04	1.364032E-05
4.310645E+03	9.004211E-04	1.355514E-05
4.320601E+03	9.026766E-04	1.347497E-05
4.330556E+03	9.053109E-04	1.340022E-05
4.340511E+03	9.083577E-04	1.333126E-05
4.350466E+03	9.118642E-04	1.326866E-05
4.360422E+03	9.158921E-04	1.321315E-05
4.370377E+03	9.204615E-04	1.316487E-05
4.380332E+03	9.256093E-04	1.312415E-05
4.390288E+03	9.313341E-04	1.309082E-05
4.400243E+03	9.376472E-04	1.306484E-05
4.410198E+03	9.445710E-04	1.304634E-05
4.420154E+03	9.520980E-04	1.303505E-05
4.430109E+03	9.602696E-04	1.303134E-05
4.440064E+03	9.690270E-04	1.303423E-05
4.450019E+03	9.783189E-04	1.304288E-05
4.459975E+03	9.881019E-04	1.305655E-05
4.469930E+03	9.982981E-04	1.307410E-05
4.479885E+03	1.008850E-03	1.309469E-05
4.489841E+03	1.019679E-03	1.311724E-05
4.499796E+03	1.030728E-03	1.314097E-05
4.509751E+03	1.041905E-03	1.316471E-05
4.519707E+03	1.053154E-03	1.318778E-05
4.529662E+03	1.064387E-03	1.320911E-05
4.539617E+03	1.075527E-03	1.322783E-05
4.549572E+03	1.086481E-03	1.324290E-05
4.559528E+03	1.097196E-03	1.325381E-05
4.569483E+03	1.107581E-03	1.325961E-05
4.579438E+03	1.117546E-03	1.325942E-05
4.589394E+03	1.127048E-03	1.325294E-05
4.599349E+03	1.136025E-03	1.323965E-05
4.609304E+03	1.144419E-03	1.321913E-05
4.619260E+03	1.152186E-03	1.319111E-05
4.629215E+03	1.159287E-03	1.315543E-05
4.639170E+03	1.165727E-03	1.311241E-05
4.649125E+03	1.171479E-03	1.306201E-05
4.659081E+03	1.176568E-03	1.300478E-05
4.669036E+03	1.180991E-03	1.294094E-05
4.678991E+03	1.184783E-03	1.287113E-05
4.688947E+03	1.188003E-03	1.279622E-05
4.698902E+03	1.190676E-03	1.271670E-05
4.708857E+03	1.192878E-03	1.263357E-05
4.718813E+03	1.194677E-03	1.254775E-05
4.728768E+03	1.196131E-03	1.245998E-05
4.738723E+03	1.197332E-03	1.237138E-05
4.748678E+03	1.198350E-03	1.228276E-05
4.758634E+03	1.199289E-03	1.219529E-05
4.768589E+03	1.200219E-03	1.210973E-05
4.778544E+03	1.201245E-03	1.202719E-05
4.788500E+03	1.202418E-03	1.194823E-05
4.798455E+03	1.203837E-03	1.187379E-05
4.808410E+03	1.205564E-03	1.180453E-05
4.818366E+03	1.207673E-03	1.174111E-05
4.828321E+03	1.210226E-03	1.168406E-05
4.838276E+03	1.213277E-03	1.163376E-05
4.848231E+03	1.216855E-03	1.159035E-05
4.858187E+03	1.221004E-03	1.155410E-05
4.868142E+03	1.225729E-03	1.152492E-05
4.878097E+03	1.231050E-03	1.150287E-05
4.888053E+03	1.236948E-03	1.148762E-05
4.898008E+03	1.243421E-03	1.147902E-05
4.907963E+03	1.250438E-03	1.147666E-05
4.917919E+03	1.257961E-03	1.148009E-05
4.927874E+03	1.265954E-03	1.148885E-05
4.937829E+03	1.274332E-03	1.150210E-05
4.947784E+03	1.283058E-03	1.151940E-05
4.957740E+03	1.292062E-03	1.154007E-05
4.967695E+03	1.301273E-03	1.156339E-05
4.977650E+03	1.310602E-03	1.158852E-05
4.987606E+03	1.320005E-03	1.161504E-05
4.997561E+03	1.329400E-03	1.164218E-05
5.007516E+03	1.338721E-03	1.166934E-05
5.017472E+03	1.347925E-03	1.169613E-05
5.027427E+03	1.356948E-03	1.172197E-05
5.037382E+03	1.365762E-03	1.174661E-05
5.047337E+03	1.374335E-03	1.176978E-05
5.057293E+03	1.382642E-03	1.179124E-05
5.067248E+03	1.390667E-03	1.181085E-05
5.077203E+03	1.398400E-03	1.182853E-05
5.087159E+03	1.405838E-03	1.184425E-05
5.097114E+03	1.412982E-03	1.185801E-05
5.107069E+03	1.419851E-03	1.186996E-05
5.117025E+03	1.426435E-03	1.188002E-05
5.126980E+03	1.432757E-03	1.188837E-05
5.136935E+03	1.438821E-03	1.189504E-05
5.146890E+03	1.444616E-03	1.189993E-05
5.156846E+03	1.450158E-03	1.190317E-05
5.166801E+03	1.455446E-03	1.190474E-05
5.176756E+03	1.460459E-03	1.190446E-05
5.186712E+03	1.465217E-03	1.190252E-05
5.196667E+03	1.469693E-03	1.189868E-05
5.206622E+03	1.473870E-03	1.189281E-05
5.216578E+03	1.477728E-03	1.188476E-05
5.226533E+03	1.481244E-03	1.187434E-05
5.236488E+03	1.484394E-03	1.186139E-05
5.246443E+03	1.487164E-03	1.184580E-05
5.256399E+03	1.489525E-03	1.182737E-05
5.266354E+03	1.491416E-03	1.180564E-05
5.276309E+03	1.492852E-03	1.178075E-05
5.286265E+03	1.493774E-03	1.175226E-05
5.296220E+03	1.494149E-03	1.171997E-05
5.306175E+03	1.493968E-03	1.168382E-05
5.316131E+03	1.493203E-03	1.164365E-05
5.326086E+03	1.491832E-03	1.159933E-05
5.336041E+03	1.489823E-03	1.155065E-05
5.345996E+03	1.487174E-03	1.149766E-05
5.355952E+03	1.483877E-03	1.144033E-05
5.365907E+03	1.479927E-03	1.137868E-05
5.375862E+03	1.475309E-03	1.131265E-05
5.385818E+03	1.470058E-03	1.124256E-05
5.395773E+03	1.464158E-03	1.116833E-05
5.405728E+03	1.457637E-03	1.109023E-05
5.415684E+03	1.450519E-03	1.100848E-05
5.425639E+03	1.442812E-03	1.092321E-05
5.435594E+03	1.434578E-03	1.083490E-05
5.445549E+03	1.425820E-03	1.074364E-05
5.455505E+03	1.416578E-03	1.064975E-05
5.465460E+03	1.406910E-03	1.055366E-05
5.475415E+03	1.396860E-03	1.045563E-05
5.485371E+03	1.386452E-03	1.035578E-05
5.495326E+03	1.375729E-03	1.025436E-05
5.505281E+03	1.364740E-03	1.015169E-05
5.515237E+03	1.353559E-03	1.004823E-05
5.525192E+03	1.342238E-03	9.944322E-06
5.535147E+03	1.330867E-03	9.840557E-06
5.545102E+03	1.319529E-03	9.737496E-06
5.555058E+03	1.308305E-03	9.635664E-06
5.565013E+03	1.297309E-03	9.535840E-06
5.574968E+03	1.286635E-03	9.438658E-06
5.584924E+03	1.276424E-03	9.345072E-06
5.594879E+03	1.266753E-03	9.255600E-06
5.604834E+03	1.257769E-03	9.171227E-06
5.614790E+03	1.249590E-03	9.092753E-06
5.624745E+03	1.242321E-03	9.020865E-06
5.634700E+03	1.236086E-03	8.956386E-06
5.644655E+03	1.230965E-03	8.899824E-06
5.654611E+03	1.227081E-03	8.851971E-06
5.664566E+03	1.224505E-03	8.813264E-06
5.674521E+03	1.223311E-03	8.784138E-06
5.684477E+03	1.223556E-03	8.764911E-06
5.694432E+03	1.225270E-03	8.755704E-06
5.704387E+03	1.228501E-03	8.756759E-06
5.714343E+03	1.233229E-03	8.767839E-06
5.724298E+03	1.239441E-03	8.788732E-06
5.734253E+03	1.247111E-03	8.819167E-06
5.744209E+03	1.256167E-03	8.858541E-06
5.754164E+03	1.266543E-03	8.906273E-06
5.764119E+03	1.278108E-03	8.961366E-06
5.774074E+03	1.290748E-03	9.022933E-06
5.784030E+03	1.304313E-03	9.089857E-06
5.793985E+03	1.318635E-03	9.160892E-06
5.803940E+03	1.333512E-03	9.234587E-06
5.813896E+03	1.348750E-03	9.309572E-06
5.823851E+03	1.364117E-03	9.384231E-06
5.833806E+03	1.379385E-03	9.456996E-06
5.843762E+03	1.394335E-03	9.526387E-06
5.853717E+03	1.408706E-03	9.590677E-06
5.863672E+03	1.422286E-03	9.648493E-06
5.873627E+03	1.434859E-03	9.698473E-06
5.883583E+03	1.446218E-03	9.739318E-06
5.893538E+03	1.456215E-03	9.770193E-06
5.903493E+03	1.464667E-03	9.790014E-06
5.913449E+03	1.471490E-03	9.798412E-06
5.923404E+03	1.476597E-03	9.794992E-06
5.933359E+03	1.479953E-03	9.779731E-06
5.943315E+03	1.481578E-03	9.752968E-06
5.953270E+03	1.481486E-03	9.715019E-06
5.963225E+03	1.479789E-03	9.666827E-06
5.973180E+03	1.476574E-03	9.609171E-06
5.983136E+03	1.472001E-03	9.543304E-06
5.993091E+03	1.466258E-03	9.470629E-06
6.003046E+03	1.459508E-03	9.392384E-06
6.013002E+03	1.451972E-03	9.310161E-06
6.022957E+03	1.443866E-03	9.225499E-06
6.032912E+03	1.435410E-03	9.139933E-06
6.042868E+03	1.426822E-03	9.054972E-06
6.052823E+03	1.418299E-03	8.971981E-06
6.062778E+03	1.410071E-03	8.892506E-06
6.072733E+03	1.402297E-03	8.817643E-06
6.082689E+03	1.395165E-03	8.748637E-06
6.092644E+03	1.388827E-03	8.686524E-06
6.102599E+03	1.383403E-03	8.632126E-06
6.112555E+03	1.379034E-03	8.586384E-06
6.122510E+03	1.375768E-03	8.549682E-06
6.132465E+03	1.373714E-03	8.522771E-06
6.142421E+03	1.372902E-03	8.505931E-06
6.152376E+03	1.373354E-03	8.499391E-06
6.162331E+03	1.375067E-03	8.503246E-06
6.172286E+03	1.378016E-03	8.517460E-06
6.182242E+03	1.382151E-03	8.541869E-06
6.192197E+03	1.387401E-03	8.576182E-06
6.202152E+03	1.393672E-03	8.619970E-06
6.212108E+03	1.400863E-03	8.672650E-06
6.222063E+03	1.408815E-03	8.733258E-06
6.232018E+03	1.417417E-03	8.801121E-06
6.241974E+03	1.426518E-03	8.875321E-06
6.251929E+03	1.435943E-03	8.954775E-06
6.261884E+03	1.445524E-03	9.038445E-06
6.271839E+03	1.455106E-03	9.125359E-06
6.281795E+03	1.464507E-03	9.214363E-06
6.291750E+03	1.473598E-03	9.304610E-06
6.301705E+03	1.482200E-03	9.394920E-06
6.311661E+03	1.490190E-03	9.484461E-06
6.321616E+03	1.497451E-03	9.572398E-06
6.331571E+03	1.503883E-03	9.657989E-06
6.341527E+03	1.509405E-03	9.740605E-06
6.351482E+03	1.513961E-03	9.819738E-06
6.361437E+03	1.517527E-03	9.895093E-06
6.371392E+03	1.520071E-03	9.966298E-06
6.381348E+03	1.521609E-03	1.003329E-05
6.391303E+03	1.522142E-03	1.009589E-05
6.401258E+03	1.521733E-03	1.015434E-05
6.411214E+03	1.520393E-03	1.020852E-05
6.421169E+03	1.518187E-03	1.025870E-05
6.431124E+03	1.515189E-03	1.030519E-05
6.441080E+03	1.511461E-03	1.034823E-05
6.451035E+03	1.507049E-03	1.038797E-05
6.460990E+03	1.502066E-03	1.042502E-05
6.470945E+03	1.496544E-03	1.045941E-05
6.480901E+03	1.490576E-03	1.049157E-05
6.490856E+03	1.484206E-03	1.052160E-05
6.500811E+03	1.477467E-03	1.054952E-05
6.510767E+03	1.470389E-03	1.057537E-05
6.520722E+03	1.463004E-03	1.059918E-05
6.530677E+03	1.455258E-03	1.062038E-05
6.540633E+03	1.447186E-03	1.063904E-05
6.550588E+03	1.438743E-03	1.065466E-05
6.560543E+03	1.429930E-03	1.066707E-05
6.570498E+03	1.420749E-03	1.067611E-05
6.580454E+03	1.411155E-03	1.068127E-05
6.590409E+03	1.401169E-03	1.068254E-05
6.600364E+03	1.390787E-03	1.067974E-05
6.610320E+03	1.379991E-03	1.067256E-05
6.620275E+03	1.368787E-03	1.066091E-05
6.630230E+03	1.357221E-03	1.064499E-05
6.640186E+03	1.345299E-03	1.062473E-05
6.650141E+03	1.333053E-03	1.060025E-05
6.660096E+03	1.320528E-03	1.057178E-05
6.670051E+03	1.307775E-03	1.053966E-05
6.680007E+03	1.294874E-03	1.050442E-05
6.689962E+03	1.281881E-03	1.046648E-05
6.699917E+03	1.268894E-03	1.042656E-05
6.709873E+03	1.255988E-03	1.038525E-05
6.719828E+03	1.243272E-03	1.034345E-05
6.729783E+03	1.230848E-03	1.030200E-05
6.739739E+03	1.218817E-03	1.026178E-05
6.749694E+03	1.207285E-03	1.022372E-05
6.759649E+03	1.196343E-03	1.018864E-05
6.769604E+03	1.186119E-03	1.015772E-05
6.779560E+03	1.176700E-03	1.013178E-05
6.789515E+03	1.168178E-03	1.011172E-05
6.799470E+03	1.160641E-03	1.009842E-05
6.809426E+03	1.154168E-03	1.009269E-05
6.819381E+03	1.148846E-03	1.009540E-05
6.829336E+03	1.144721E-03	1.010710E-05
6.839292E+03	1.141845E-03	1.012839E-05
6.849247E+03	1.140272E-03	1.015989E-05
6.859202E+03	1.140018E-03	1.020185E-05
6.869157E+03	1.141113E-03	1.025470E-05
6.879113E+03	1.143562E-03	1.031859E-05
6.889068E+03	1.147345E-03	1.039345E-05
6.899023E+03	1.152440E-03	1.047922E-05
6.908979E+03	1.158846E-03	1.057594E-05
6.918934E+03	1.166489E-03	1.068307E-05
6.928889E+03	1.175331E-03	1.080030E-05
6.938845E+03	1.185293E-03	1.092698E-05
6.948800E+03	1.196317E-03	1.106261E-05
6.958755E+03	1.208338E-03	1.120663E-05
6.968710E+03	1.221241E-03	1.135799E-05
6.978666E+03	1.234953E-03	1.151602E-05
6.988621E+03	1.249368E-03	1.167973E-05
6.998576E+03	1.264428E-03	1.184854E-05
7.008532E+03	1.280029E-03	1.202146E-05
7.018487E+03	1.296089E-03	1.219769E-05
7.028442E+03	1.312529E-03	1.237643E-05
7.038398E+03	1.329277E-03	1.255697E-05
7.048353E+03	1.346267E-03	1.273861E-05
7.058308E+03	1.363440E-03	1.292073E-05
7.068263E+03	1.380741E-03	1.310276E-05
7.078219E+03	1.398136E-03	1.328430E-05
7.088174E+03	1.415558E-03	1.346466E-05
7.098129E+03	1.432958E-03	1.364329E-05
7.108085E+03	1.450280E-03	1.381960E-05
7.118040E+03	1.467480E-03	1.399311E-05
7.127995E+03	1.484469E-03	1.416289E-05
7.137951E+03	1.501181E-03	1.432826E-05
7.147906E+03	1.517497E-03	1.448800E-05
7.157861E+03	1.533318E-03	1.464113E-05
7.167817E+03	1.548508E-03	1.478630E-05
7.177772E+03	1.562892E-03	1.492179E-05
7.187727E+03	1.576300E-03	1.504593E-05
7.197682E+03	1.588583E-03	1.515727E-05
7.207638E+03	1.599503E-03	1.525353E-05
7.217593E+03	1.608873E-03	1.533293E-05
7.227548E+03	1.616488E-03	1.539353E-05
7.237504E+03	1.622147E-03	1.543345E-05
7.247459E+03	1.625663E-03	1.545096E-05
7.257414E+03	1.626849E-03	1.544438E-05
7.267370E+03	1.625611E-03	1.541290E-05
7.277325E+03	1.621826E-03	1.535549E-05
7.287280E+03	1.615437E-03	1.527175E-05
7.297235E+03	1.606411E-03	1.516155E-05
7.307191E+03	1.594830E-03	1.502583E-05
7.317146E+03	1.580762E-03	1.486544E-05
7.327101E+03	1.564345E-03	1.468189E-05
7.337057E+03	1.545784E-03	1.447733E-05
7.347012E+03	1.525264E-03	1.425368E-05
7.356967E+03	1.503082E-03	1.401398E-05
7.366923E+03	1.479503E-03	1.376088E-05
7.376878E+03	1.454867E-03	1.349774E-05
7.386833E+03	1.429442E-03	1.322723E-05
7.396788E+03	1.403556E-03	1.295254E-05
7.406744E+03	1.377526E-03	1.267675E-05
7.416699E+03	1.351599E-03	1.240225E-05
7.426654E+03	1.326041E-03	1.213155E-05
7.436610E+03	1.301091E-03	1.186693E-05
7.446565E+03	1.276980E-03	1.161053E-05
7.456520E+03	1.253857E-03	1.136373E-05
7.466476E+03	1.231893E-03	1.112809E-05
7.476431E+03	1.211198E-03	1.090458E-05
7.486386E+03	1.191868E-03	1.069405E-05
7.496341E+03	1.173994E-03	1.049725E-05
7.506297E+03	1.157592E-03	1.031429E-05
7.516252E+03	1.142724E-03	1.014562E-05
7.526207E+03	1.129384E-03	9.991113E-06
7.536163E+03	1.117556E-03	9.850520E-06
7.546118E+03	1.107243E-03	9.723775E-06
7.556073E+03	1.098426E-03	9.610612E-06
7.566029E+03	1.091065E-03	9.510595E-06
7.575984E+03	1.085151E-03	9.423537E-06
7.585939E+03	1.080637E-03	9.348954E-06
7.595894E+03	1.077475E-03	9.286343E-06
7.605850E+03	1.075626E-03	9.235297E-06
7.615805E+03	1.075040E-03	9.195301E-06
7.625760E+03	1.075634E-03	9.165607E-06
7.635716E+03	1.077389E-03	9.145984E-06
7.645671E+03	1.080237E-03	9.135823E-06
7.655626E+03	1.084124E-03	9.134636E-06
7.665582E+03	1.088993E-03	9.141923E-06
7.675537E+03	1.094783E-03	9.157167E-06
7.685492E+03	1.101429E-03	9.179826E-06
7.695447E+03	1.108876E-03	9.209474E-06
7.705403E+03	1.117036E-03	9.245402E-06
7.715358E+03	1.125830E-03	9.287015E-06
7.725313E+03	1.135176E-03	9.333700E-06
