#wls	flux	fluxerr
1.592848E+03	2.471175E-05	2.354551E-05
1.632669E+03	2.580410E-05	2.438990E-05
1.672491E+03	2.683873E-05	2.516046E-05
1.712312E+03	2.780130E-05	2.584481E-05
1.752133E+03	2.867215E-05	2.642615E-05
1.791954E+03	2.941670E-05	2.687477E-05
1.831775E+03	2.997878E-05	2.714259E-05
1.871597E+03	3.029908E-05	2.718063E-05
1.911418E+03	3.032925E-05	2.695185E-05
1.951239E+03	3.002487E-05	2.642444E-05
1.991060E+03	2.940548E-05	2.562413E-05
2.030881E+03	2.860456E-05	2.467444E-05
2.070703E+03	2.788992E-05	2.380909E-05
2.110524E+03	2.763351E-05	2.334017E-05
2.150345E+03	2.816532E-05	2.353099E-05
2.190166E+03	2.967222E-05	2.451407E-05
2.229987E+03	3.210506E-05	2.622146E-05
2.269809E+03	3.526216E-05	2.846326E-05
2.309630E+03	3.889740E-05	3.102123E-05
2.349451E+03	4.279922E-05	3.371346E-05
2.389272E+03	4.681670E-05	3.641322E-05
2.429093E+03	5.087011E-05	3.905432E-05
2.468915E+03	5.491046E-05	4.159700E-05
2.508736E+03	5.895060E-05	4.404971E-05
2.548557E+03	6.298608E-05	4.640764E-05
2.588378E+03	6.703646E-05	4.868359E-05
2.628199E+03	7.112423E-05	5.089163E-05
2.668021E+03	7.528291E-05	5.305265E-05
2.707842E+03	7.952419E-05	5.517087E-05
2.747663E+03	8.386753E-05	5.725531E-05
2.787484E+03	8.835300E-05	5.932785E-05
2.827305E+03	9.297308E-05	6.137710E-05
2.867127E+03	9.776301E-05	6.341969E-05
2.906948E+03	1.027447E-04	6.546199E-05
2.946769E+03	1.079244E-04	6.749956E-05
2.986590E+03	1.133175E-04	6.953296E-05
2.996546E+03	1.147071E-04	7.004445E-05
3.006501E+03	1.161152E-04	7.055810E-05
3.016456E+03	1.175290E-04	7.106583E-05
3.026411E+03	1.189631E-04	7.157646E-05
3.036367E+03	1.204253E-04	7.209437E-05
3.046322E+03	1.219235E-04	7.262409E-05
3.056277E+03	1.234555E-04	7.316383E-05
3.066233E+03	1.250056E-04	7.370412E-05
3.076188E+03	1.265975E-04	7.425857E-05
3.086143E+03	1.282160E-04	7.481798E-05
3.096099E+03	1.298591E-04	7.538084E-05
3.106054E+03	1.315248E-04	7.594571E-05
3.116009E+03	1.332111E-04	7.651132E-05
3.125964E+03	1.349294E-04	7.708389E-05
3.135920E+03	1.366649E-04	7.765465E-05
3.145875E+03	1.384158E-04	7.822245E-05
3.155830E+03	1.401939E-04	7.879371E-05
3.165786E+03	1.419843E-04	7.935987E-05
3.175741E+03	1.437990E-04	7.992735E-05
3.185696E+03	1.456365E-04	8.049513E-05
3.195652E+03	1.474821E-04	8.105489E-05
3.205607E+03	1.493479E-04	8.161312E-05
3.215562E+03	1.512193E-04	8.216163E-05
3.225517E+03	1.531218E-04	8.271413E-05
3.235473E+03	1.550274E-04	8.325526E-05
3.245428E+03	1.569617E-04	8.379864E-05
3.255383E+03	1.588969E-04	8.432917E-05
3.265339E+03	1.608586E-04	8.486034E-05
3.275294E+03	1.628323E-04	8.538425E-05
3.285249E+03	1.648170E-04	8.590021E-05
3.295205E+03	1.668250E-04	8.641447E-05
3.305160E+03	1.688419E-04	8.691939E-05
3.315115E+03	1.708800E-04	8.742113E-05
3.325070E+03	1.729249E-04	8.791209E-05
3.335026E+03	1.749890E-04	8.839846E-05
3.344981E+03	1.770712E-04	8.887952E-05
3.354936E+03	1.791573E-04	8.934787E-05
3.364892E+03	1.812729E-04	8.981620E-05
3.374847E+03	1.834036E-04	9.027713E-05
3.384802E+03	1.855485E-04	9.072993E-05
3.394758E+03	1.877066E-04	9.117406E-05
3.404713E+03	1.898770E-04	9.160886E-05
3.414668E+03	1.920720E-04	9.204006E-05
3.424623E+03	1.942775E-04	9.246070E-05
3.434579E+03	1.965057E-04	9.287646E-05
3.444534E+03	1.987558E-04	9.328666E-05
3.454489E+03	2.010272E-04	9.369074E-05
3.464445E+03	2.033064E-04	9.408226E-05
3.474400E+03	2.056189E-04	9.447282E-05
3.484355E+03	2.079515E-04	9.485608E-05
3.494311E+03	2.103049E-04	9.523201E-05
3.504266E+03	2.126920E-04	9.560629E-05
3.514221E+03	2.151013E-04	9.597339E-05
3.524176E+03	2.175342E-04	9.633363E-05
3.534132E+03	2.200180E-04	9.669881E-05
3.544087E+03	2.225299E-04	9.705842E-05
3.554042E+03	2.250978E-04	9.742423E-05
3.563998E+03	2.277001E-04	9.778639E-05
3.573953E+03	2.303658E-04	9.815684E-05
3.583908E+03	2.330868E-04	9.853148E-05
3.593864E+03	2.358804E-04	9.891707E-05
3.603819E+03	2.387400E-04	9.931000E-05
3.613774E+03	2.416841E-04	9.971724E-05
3.623729E+03	2.447194E-04	1.001407E-04
3.633685E+03	2.478535E-04	1.005824E-04
3.643640E+03	2.510946E-04	1.010447E-04
3.653595E+03	2.544635E-04	1.015348E-04
3.663551E+03	2.579574E-04	1.020502E-04
3.673506E+03	2.615860E-04	1.025933E-04
3.683461E+03	2.653717E-04	1.031716E-04
3.693417E+03	2.693245E-04	1.037872E-04
3.703372E+03	2.734553E-04	1.044426E-04
3.713327E+03	2.777743E-04	1.051397E-04
3.723282E+03	2.823041E-04	1.058850E-04
3.733238E+03	2.870429E-04	1.066757E-04
3.743193E+03	2.920008E-04	1.075133E-04
3.753148E+03	2.971989E-04	1.084032E-04
3.763104E+03	3.026340E-04	1.093418E-04
3.773059E+03	3.083376E-04	1.103377E-04
3.783014E+03	3.143039E-04	1.113862E-04
3.792970E+03	3.205381E-04	1.124863E-04
3.802925E+03	3.270430E-04	1.136362E-04
3.812880E+03	3.338196E-04	1.148333E-04
3.822835E+03	3.408783E-04	1.160784E-04
3.832791E+03	3.482145E-04	1.173669E-04
3.842746E+03	3.558088E-04	1.186894E-04
3.852701E+03	3.636744E-04	1.200475E-04
3.862657E+03	3.717718E-04	1.214256E-04
3.872612E+03	3.800942E-04	1.228189E-04
3.882567E+03	3.886299E-04	1.242213E-04
3.892523E+03	3.973244E-04	1.256134E-04
3.902478E+03	4.061674E-04	1.269901E-04
3.912433E+03	4.151185E-04	1.283376E-04
3.922388E+03	4.241196E-04	1.296368E-04
3.932344E+03	4.331216E-04	1.308725E-04
3.942299E+03	4.420851E-04	1.320328E-04
3.952254E+03	4.509444E-04	1.330987E-04
3.962210E+03	4.596583E-04	1.340594E-04
3.972165E+03	4.681751E-04	1.349014E-04
3.982120E+03	4.764445E-04	1.356126E-04
3.992076E+03	4.844077E-04	1.361791E-04
4.002031E+03	4.920233E-04	1.365927E-04
4.011986E+03	4.992813E-04	1.368543E-04
4.021941E+03	5.061274E-04	1.369530E-04
4.031897E+03	5.125405E-04	1.368876E-04
4.041852E+03	5.185194E-04	1.366625E-04
4.051807E+03	5.240460E-04	1.362775E-04
4.061763E+03	5.291346E-04	1.357412E-04
4.071718E+03	5.337832E-04	1.350578E-04
4.081673E+03	5.379976E-04	1.342334E-04
4.091629E+03	5.418271E-04	1.332849E-04
4.101584E+03	5.452793E-04	1.322182E-04
4.111539E+03	5.484034E-04	1.310492E-04
4.121494E+03	5.512290E-04	1.297884E-04
4.131450E+03	5.538011E-04	1.284495E-04
4.141405E+03	5.561661E-04	1.270459E-04
4.151360E+03	5.583713E-04	1.255905E-04
4.161316E+03	5.604413E-04	1.240905E-04
4.171271E+03	5.624338E-04	1.225602E-04
4.181226E+03	5.643939E-04	1.210100E-04
4.191182E+03	5.663537E-04	1.194473E-04
4.201137E+03	5.683444E-04	1.178786E-04
4.211092E+03	5.704056E-04	1.163118E-04
4.221047E+03	5.725757E-04	1.147541E-04
4.231003E+03	5.748807E-04	1.132095E-04
4.240958E+03	5.773460E-04	1.116817E-04
4.250913E+03	5.800068E-04	1.101759E-04
4.260869E+03	5.828876E-04	1.086947E-04
4.270824E+03	5.860230E-04	1.072425E-04
4.280779E+03	5.894194E-04	1.058178E-04
4.290735E+03	5.931332E-04	1.044280E-04
4.300690E+03	5.971644E-04	1.030702E-04
4.310645E+03	6.015728E-04	1.017512E-04
4.320601E+03	6.063731E-04	1.004699E-04
4.330556E+03	6.116024E-04	9.922846E-05
4.340511E+03	6.173092E-04	9.803045E-05
4.350466E+03	6.235272E-04	9.687644E-05
4.360422E+03	6.302923E-04	9.576692E-05
4.370377E+03	6.376520E-04	9.470364E-05
4.380332E+03	6.456551E-04	9.368796E-05
4.390288E+03	6.543421E-04	9.271939E-05
4.400243E+03	6.637430E-04	9.179554E-05
4.410198E+03	6.739133E-04	9.091702E-05
4.420154E+03	6.848853E-04	9.008080E-05
4.430109E+03	6.966843E-04	8.928247E-05
4.440064E+03	7.093439E-04	8.851846E-05
4.450019E+03	7.228944E-04	8.778440E-05
4.459975E+03	7.373296E-04	8.707127E-05
4.469930E+03	7.526517E-04	8.637118E-05
4.479885E+03	7.688098E-04	8.567041E-05
4.489841E+03	7.857563E-04	8.495635E-05
4.499796E+03	8.033851E-04	8.421100E-05
4.509751E+03	8.215807E-04	8.341687E-05
4.519707E+03	8.401868E-04	8.255411E-05
4.529662E+03	8.590286E-04	8.160323E-05
4.539617E+03	8.778953E-04	8.054380E-05
4.549572E+03	8.965662E-04	7.935733E-05
4.559528E+03	9.147962E-04	7.802614E-05
4.569483E+03	9.323346E-04	7.653531E-05
4.579438E+03	9.489471E-04	7.487442E-05
4.589394E+03	9.644035E-04	7.303639E-05
4.599349E+03	9.785108E-04	7.101968E-05
4.609304E+03	9.910888E-04	6.882607E-05
4.619260E+03	1.002035E-03	6.646466E-05
4.629215E+03	1.011267E-03	6.394712E-05
4.639170E+03	1.018761E-03	6.128943E-05
4.649125E+03	1.024510E-03	5.850885E-05
4.659081E+03	1.028582E-03	5.562664E-05
4.669036E+03	1.031040E-03	5.266305E-05
4.678991E+03	1.032004E-03	4.964013E-05
4.688947E+03	1.031604E-03	4.657912E-05
4.698902E+03	1.030007E-03	4.350123E-05
4.708857E+03	1.027361E-03	4.042529E-05
4.718813E+03	1.023865E-03	3.737060E-05
4.728768E+03	1.019699E-03	3.435407E-05
4.738723E+03	1.015055E-03	3.139183E-05
4.748678E+03	1.010136E-03	2.849947E-05
4.758634E+03	1.005128E-03	2.569206E-05
4.768589E+03	1.000284E-03	2.298719E-05
4.778544E+03	9.958027E-04	2.040361E-05
4.788500E+03	9.918944E-04	1.796593E-05
4.798455E+03	9.887141E-04	1.570799E-05
4.808410E+03	9.864665E-04	1.368196E-05
4.818366E+03	9.853054E-04	1.196572E-05
4.828321E+03	9.853739E-04	1.067007E-05
4.838276E+03	9.867996E-04	9.926306E-06
4.848231E+03	9.897128E-04	9.833612E-06
4.858187E+03	9.941798E-04	1.037159E-05
4.868142E+03	1.000275E-03	1.141144E-05
4.878097E+03	1.008032E-03	1.280389E-05
4.888053E+03	1.017468E-03	1.442935E-05
4.898008E+03	1.028532E-03	1.620607E-05
4.907963E+03	1.041179E-03	1.808218E-05
4.917919E+03	1.055288E-03	2.002386E-05
4.927874E+03	1.070704E-03	2.200797E-05
4.937829E+03	1.087235E-03	2.401695E-05
4.947784E+03	1.104614E-03	2.603484E-05
4.957740E+03	1.122564E-03	2.804672E-05
4.967695E+03	1.140729E-03	3.003581E-05
4.977650E+03	1.158768E-03	3.198524E-05
4.987606E+03	1.176343E-03	3.387742E-05
4.997561E+03	1.193113E-03	3.569404E-05
5.007516E+03	1.208805E-03	3.741828E-05
5.017472E+03	1.223196E-03	3.903473E-05
5.027427E+03	1.236144E-03	4.053074E-05
5.037382E+03	1.247594E-03	4.189701E-05
5.047337E+03	1.257569E-03	4.312780E-05
5.057293E+03	1.266170E-03	4.422108E-05
5.067248E+03	1.273529E-03	4.517711E-05
5.077203E+03	1.279809E-03	4.599830E-05
5.087159E+03	1.285184E-03	4.668851E-05
5.097114E+03	1.289828E-03	4.725246E-05
5.107069E+03	1.293915E-03	4.769568E-05
5.117025E+03	1.297563E-03	4.802210E-05
5.126980E+03	1.300928E-03	4.823759E-05
5.136935E+03	1.304072E-03	4.834487E-05
5.146890E+03	1.307069E-03	4.834729E-05
5.156846E+03	1.309937E-03	4.824641E-05
5.166801E+03	1.312710E-03	4.804452E-05
5.176756E+03	1.315346E-03	4.774145E-05
5.186712E+03	1.317829E-03	4.733817E-05
5.196667E+03	1.320118E-03	4.683507E-05
5.206622E+03	1.322167E-03	4.623284E-05
5.216578E+03	1.323929E-03	4.553253E-05
5.226533E+03	1.325359E-03	4.473585E-05
5.236488E+03	1.326416E-03	4.384521E-05
5.246443E+03	1.327045E-03	4.286334E-05
5.256399E+03	1.327221E-03	4.179466E-05
5.266354E+03	1.326901E-03	4.064397E-05
5.276309E+03	1.326026E-03	3.941662E-05
5.286265E+03	1.324557E-03	3.811984E-05
5.296220E+03	1.322423E-03	3.676139E-05
5.306175E+03	1.319579E-03	3.535146E-05
5.316131E+03	1.315938E-03	3.390115E-05
5.326086E+03	1.311471E-03	3.242543E-05
5.336041E+03	1.306101E-03	3.094077E-05
5.345996E+03	1.299804E-03	2.946799E-05
5.355952E+03	1.292542E-03	2.803097E-05
5.365907E+03	1.284314E-03	2.665811E-05
5.375862E+03	1.275108E-03	2.538111E-05
5.385818E+03	1.264920E-03	2.423502E-05
5.395773E+03	1.253789E-03	2.325759E-05
5.405728E+03	1.241707E-03	2.248514E-05
5.415684E+03	1.228705E-03	2.195076E-05
5.425639E+03	1.214803E-03	2.167903E-05
5.435594E+03	1.200012E-03	2.167500E-05
5.445549E+03	1.184394E-03	2.191285E-05
5.455505E+03	1.167982E-03	2.235417E-05
5.465460E+03	1.150866E-03	2.295764E-05
5.475415E+03	1.133067E-03	2.368073E-05
5.485371E+03	1.114549E-03	2.448249E-05
5.495326E+03	1.095224E-03	2.532502E-05
5.505281E+03	1.075089E-03	2.617687E-05
5.515237E+03	1.054142E-03	2.701126E-05
5.525192E+03	1.032422E-03	2.780684E-05
5.535147E+03	1.010006E-03	2.854715E-05
5.545102E+03	9.870094E-04	2.922049E-05
5.555058E+03	9.635779E-04	2.981938E-05
5.565013E+03	9.399243E-04	3.034145E-05
5.574968E+03	9.162743E-04	3.078776E-05
5.584924E+03	8.928691E-04	3.116258E-05
5.594879E+03	8.699762E-04	3.147357E-05
5.604834E+03	8.478781E-04	3.173127E-05
5.614790E+03	8.268461E-04	3.194790E-05
5.624745E+03	8.071502E-04	3.213742E-05
5.634700E+03	7.890214E-04	3.231375E-05
5.644655E+03	7.727040E-04	3.249256E-05
5.654611E+03	7.584071E-04	3.268901E-05
5.664566E+03	7.463115E-04	3.291767E-05
5.674521E+03	7.365903E-04	3.319318E-05
5.684477E+03	7.293783E-04	3.352859E-05
5.694432E+03	7.248066E-04	3.393670E-05
5.704387E+03	7.229496E-04	3.442738E-05
5.714343E+03	7.238836E-04	3.501007E-05
5.724298E+03	7.276263E-04	3.569072E-05
5.734253E+03	7.341948E-04	3.647440E-05
5.744209E+03	7.435602E-04	3.736298E-05
5.754164E+03	7.556440E-04	3.835479E-05
5.764119E+03	7.703548E-04	3.944638E-05
5.774074E+03	7.875355E-04	4.062975E-05
5.784030E+03	8.069491E-04	4.189162E-05
5.793985E+03	8.283159E-04	4.321528E-05
5.803940E+03	8.512570E-04	4.457780E-05
5.813896E+03	8.752967E-04	4.595021E-05
5.823851E+03	8.998839E-04	4.729888E-05
5.833806E+03	9.244068E-04	4.858658E-05
5.843762E+03	9.481884E-04	4.977266E-05
5.853717E+03	9.705513E-04	5.081688E-05
5.863672E+03	9.908128E-04	5.167964E-05
5.873627E+03	1.008347E-03	5.232567E-05
5.883583E+03	1.022594E-03	5.272483E-05
5.893538E+03	1.033123E-03	5.285570E-05
5.903493E+03	1.039593E-03	5.270364E-05
5.913449E+03	1.041811E-03	5.226367E-05
5.923404E+03	1.039724E-03	5.153997E-05
5.933359E+03	1.033454E-03	5.054727E-05
5.943315E+03	1.023257E-03	4.930803E-05
5.953270E+03	1.009536E-03	4.785265E-05
5.963225E+03	9.928090E-04	4.621711E-05
5.973180E+03	9.736815E-04	4.444078E-05
5.983136E+03	9.527985E-04	4.256366E-05
5.993091E+03	9.308330E-04	4.062521E-05
6.003046E+03	9.084421E-04	3.866193E-05
6.013002E+03	8.862423E-04	3.670598E-05
6.022957E+03	8.647728E-04	3.478363E-05
6.032912E+03	8.445382E-04	3.291702E-05
6.042868E+03	8.259348E-04	3.112137E-05
6.052823E+03	8.093133E-04	2.940771E-05
6.062778E+03	7.949321E-04	2.778147E-05
6.072733E+03	7.830076E-04	2.624466E-05
6.082689E+03	7.737049E-04	2.479589E-05
6.092644E+03	7.671511E-04	2.343113E-05
6.102599E+03	7.634315E-04	2.214395E-05
6.112555E+03	7.626310E-04	2.092711E-05
6.122510E+03	7.648133E-04	1.977211E-05
6.132465E+03	7.700500E-04	1.867035E-05
6.142421E+03	7.784106E-04	1.761306E-05
6.152376E+03	7.899645E-04	1.659179E-05
6.162331E+03	8.048267E-04	1.559977E-05
6.172286E+03	8.231338E-04	1.463193E-05
6.182242E+03	8.449901E-04	1.368494E-05
6.192197E+03	8.704969E-04	1.275959E-05
6.202152E+03	8.997437E-04	1.186313E-05
6.212108E+03	9.327142E-04	1.101189E-05
6.222063E+03	9.692756E-04	1.023676E-05
6.232018E+03	1.009061E-03	9.588186E-06
6.241974E+03	1.051564E-03	9.140600E-06
6.251929E+03	1.096134E-03	8.985018E-06
6.261884E+03	1.142026E-03	9.198818E-06
6.271839E+03	1.188429E-03	9.776691E-06
6.281795E+03	1.234505E-03	1.064895E-05
6.291750E+03	1.279395E-03	1.172472E-05
6.301705E+03	1.322350E-03	1.291527E-05
6.311661E+03	1.362688E-03	1.414343E-05
6.321616E+03	1.399889E-03	1.534629E-05
6.331571E+03	1.433547E-03	1.647342E-05
6.341527E+03	1.463485E-03	1.748661E-05
6.351482E+03	1.489588E-03	1.835668E-05
6.361437E+03	1.511953E-03	1.906436E-05
6.371392E+03	1.530747E-03	1.959787E-05
6.381348E+03	1.546228E-03	1.995264E-05
6.391303E+03	1.558761E-03	2.013114E-05
6.401258E+03	1.568678E-03	2.014077E-05
6.411214E+03	1.576359E-03	1.999472E-05
6.421169E+03	1.582116E-03	1.971073E-05
6.431124E+03	1.586293E-03	1.931278E-05
6.441080E+03	1.589128E-03	1.883019E-05
6.451035E+03	1.590851E-03	1.830011E-05
6.460990E+03	1.591664E-03	1.776846E-05
6.470945E+03	1.591748E-03	1.729102E-05
6.480901E+03	1.591276E-03	1.693319E-05
6.490856E+03	1.590480E-03	1.676781E-05
6.500811E+03	1.589580E-03	1.686781E-05
6.510767E+03	1.588709E-03	1.729503E-05
6.520722E+03	1.587845E-03	1.806657E-05
6.530677E+03	1.586928E-03	1.914731E-05
6.540633E+03	1.585909E-03	2.048940E-05
6.550588E+03	1.584697E-03	2.204261E-05
6.560543E+03	1.583183E-03	2.375993E-05
6.570498E+03	1.581198E-03	2.559910E-05
6.580454E+03	1.578560E-03	2.752330E-05
6.590409E+03	1.574988E-03	2.949879E-05
6.600364E+03	1.570202E-03	3.149519E-05
6.610320E+03	1.563879E-03	3.348362E-05
6.620275E+03	1.555714E-03	3.543693E-05
6.630230E+03	1.545413E-03	3.732899E-05
6.640186E+03	1.532761E-03	3.913606E-05
6.650141E+03	1.517609E-03	4.083672E-05
6.660096E+03	1.499895E-03	4.241252E-05
6.670051E+03	1.479713E-03	4.385057E-05
6.680007E+03	1.457221E-03	4.514170E-05
6.689962E+03	1.432664E-03	4.628132E-05
6.699917E+03	1.406356E-03	4.726936E-05
6.709873E+03	1.378654E-03	4.810986E-05
6.719828E+03	1.349961E-03	4.881097E-05
6.729783E+03	1.320678E-03	4.938343E-05
6.739739E+03	1.291189E-03	4.983991E-05
6.749694E+03	1.261918E-03	5.019692E-05
6.759649E+03	1.233233E-03	5.047098E-05
6.769604E+03	1.205514E-03	5.068106E-05
6.779560E+03	1.179084E-03	5.084530E-05
6.789515E+03	1.154309E-03	5.098536E-05
6.799470E+03	1.131463E-03	5.112004E-05
6.809426E+03	1.110834E-03	5.126961E-05
6.819381E+03	1.092664E-03	5.145313E-05
6.829336E+03	1.077164E-03	5.168857E-05
6.839292E+03	1.064518E-03	5.199281E-05
6.849247E+03	1.054890E-03	5.238194E-05
6.859202E+03	1.048379E-03	5.286851E-05
6.869157E+03	1.045084E-03	5.346474E-05
6.879113E+03	1.045061E-03	5.418003E-05
6.889068E+03	1.048281E-03	5.501883E-05
6.899023E+03	1.054681E-03	5.598279E-05
6.908979E+03	1.064097E-03	5.706700E-05
6.918934E+03	1.076342E-03	5.826434E-05
6.928889E+03	1.091139E-03	5.956141E-05
6.938845E+03	1.108114E-03	6.093833E-05
6.948800E+03	1.126888E-03	6.237353E-05
6.958755E+03	1.146999E-03	6.383986E-05
6.968710E+03	1.167920E-03	6.530530E-05
6.978666E+03	1.189154E-03	6.673895E-05
6.988621E+03	1.210167E-03	6.810700E-05
6.998576E+03	1.230484E-03	6.937879E-05
7.008532E+03	1.249648E-03	7.052457E-05
7.018487E+03	1.267354E-03	7.152348E-05
7.028442E+03	1.283369E-03	7.235916E-05
7.038398E+03	1.297612E-03	7.302428E-05
7.048353E+03	1.310140E-03	7.352005E-05
7.058308E+03	1.321145E-03	7.385561E-05
7.068263E+03	1.330919E-03	7.404617E-05
7.078219E+03	1.339880E-03	7.411419E-05
7.088174E+03	1.348502E-03	7.408478E-05
7.098129E+03	1.357293E-03	7.398474E-05
7.108085E+03	1.366757E-03	7.383964E-05
7.118040E+03	1.377414E-03	7.367498E-05
7.127995E+03	1.389705E-03	7.351073E-05
7.137951E+03	1.404020E-03	7.336275E-05
7.147906E+03	1.420655E-03	7.324068E-05
7.157861E+03	1.439793E-03	7.314692E-05
7.167817E+03	1.461482E-03	7.307616E-05
7.177772E+03	1.485602E-03	7.301403E-05
7.187727E+03	1.511903E-03	7.293983E-05
7.197682E+03	1.539921E-03	7.282328E-05
7.207638E+03	1.569044E-03	7.262888E-05
7.217593E+03	1.598416E-03	7.231257E-05
7.227548E+03	1.627083E-03	7.183001E-05
7.237504E+03	1.653839E-03	7.113077E-05
7.247459E+03	1.677459E-03	7.017042E-05
7.257414E+03	1.696619E-03	6.890758E-05
7.267370E+03	1.709935E-03	6.730689E-05
7.277325E+03	1.716247E-03	6.535056E-05
7.287280E+03	1.714450E-03	6.303126E-05
7.297235E+03	1.703814E-03	6.036313E-05
7.307191E+03	1.683931E-03	5.737777E-05
7.317146E+03	1.654840E-03	5.412579E-05
7.327101E+03	1.616982E-03	5.067215E-05
7.337057E+03	1.571278E-03	4.709523E-05
7.347012E+03	1.518948E-03	4.347780E-05
7.356967E+03	1.461429E-03	3.990220E-05
7.366923E+03	1.400318E-03	3.644694E-05
7.376878E+03	1.337215E-03	3.318145E-05
7.386833E+03	1.273591E-03	3.016283E-05
7.396788E+03	1.210791E-03	2.743653E-05
7.406744E+03	1.149945E-03	2.503516E-05
7.416699E+03	1.091964E-03	2.297920E-05
7.426654E+03	1.037495E-03	2.127676E-05
7.436610E+03	9.870265E-04	1.992609E-05
7.446565E+03	9.407903E-04	1.891366E-05
7.456520E+03	8.989248E-04	1.820972E-05
7.466476E+03	8.613871E-04	1.776842E-05
7.476431E+03	8.280653E-04	1.754525E-05
7.486386E+03	7.987376E-04	1.749918E-05
7.496341E+03	7.731507E-04	1.759517E-05
7.506297E+03	7.509996E-04	1.780368E-05
7.516252E+03	7.319699E-04	1.810076E-05
7.526207E+03	7.156883E-04	1.846555E-05
7.536163E+03	7.018091E-04	1.888116E-05
7.546118E+03	6.899561E-04	1.933206E-05
7.556073E+03	6.797829E-04	1.980477E-05
7.566029E+03	6.709651E-04	2.028704E-05
7.575984E+03	6.632387E-04	2.076871E-05
7.585939E+03	6.564584E-04	2.124351E-05
7.595894E+03	6.506679E-04	2.171176E-05
7.605850E+03	6.460208E-04	2.217841E-05
7.615805E+03	6.426786E-04	2.264963E-05
7.625760E+03	6.407635E-04	2.313098E-05
7.635716E+03	6.403504E-04	2.362665E-05
7.645671E+03	6.414691E-04	2.413919E-05
7.655626E+03	6.440679E-04	2.466784E-05
7.665582E+03	6.480458E-04	2.520940E-05
7.675537E+03	6.532803E-04	2.575919E-05
7.685492E+03	6.596071E-04	2.631017E-05
7.695447E+03	6.668451E-04	2.685395E-05
7.705403E+03	6.747683E-04	2.737972E-05
7.715358E+03	6.831662E-04	2.787673E-05
7.725313E+03	6.918289E-04	2.833390E-05
