#wls	flux	fluxerr
1.592848E+03	2.193548E-05	2.231789E-05
1.632669E+03	2.301718E-05	2.321363E-05
1.672491E+03	2.405265E-05	2.404134E-05
1.712312E+03	2.503670E-05	2.479675E-05
1.752133E+03	2.594645E-05	2.545850E-05
1.791954E+03	2.674442E-05	2.599191E-05
1.831775E+03	2.738711E-05	2.635798E-05
1.871597E+03	2.781789E-05	2.650691E-05
1.911418E+03	2.797891E-05	2.639005E-05
1.951239E+03	2.783007E-05	2.597775E-05
1.991060E+03	2.738511E-05	2.529178E-05
2.030881E+03	2.676451E-05	2.445117E-05
2.070703E+03	2.622200E-05	2.369059E-05
2.110524E+03	2.609651E-05	2.331062E-05
2.150345E+03	2.672491E-05	2.359592E-05
2.190166E+03	2.828178E-05	2.467525E-05
2.229987E+03	3.073674E-05	2.649280E-05
2.269809E+03	3.390711E-05	2.886382E-05
2.309630E+03	3.756930E-05	3.157641E-05
2.349451E+03	4.151136E-05	3.443762E-05
2.389272E+03	4.559379E-05	3.732276E-05
2.429093E+03	4.973802E-05	4.016240E-05
2.468915E+03	5.389498E-05	4.291400E-05
2.508736E+03	5.807422E-05	4.558324E-05
2.548557E+03	6.226036E-05	4.815609E-05
2.588378E+03	6.648732E-05	5.065676E-05
2.628199E+03	7.075632E-05	5.308334E-05
2.668021E+03	7.510631E-05	5.546173E-05
2.707842E+03	7.953588E-05	5.778665E-05
2.747663E+03	8.407143E-05	6.007267E-05
2.787484E+03	8.872702E-05	6.232443E-05
2.827305E+03	9.351405E-05	6.454393E-05
2.867127E+03	9.844103E-05	6.673066E-05
2.906948E+03	1.035372E-04	6.889739E-05
2.946769E+03	1.087941E-04	7.103069E-05
2.986590E+03	1.142357E-04	7.313835E-05
2.996546E+03	1.156221E-04	7.365841E-05
3.006501E+03	1.170258E-04	7.417987E-05
3.016456E+03	1.184341E-04	7.469454E-05
3.026411E+03	1.198614E-04	7.521134E-05
3.036367E+03	1.213155E-04	7.573497E-05
3.046322E+03	1.227920E-04	7.626237E-05
3.056277E+03	1.243009E-04	7.679955E-05
3.066233E+03	1.258397E-04	7.734458E-05
3.076188E+03	1.274061E-04	7.789578E-05
3.086143E+03	1.289852E-04	7.844369E-05
3.096099E+03	1.305876E-04	7.899469E-05
3.106054E+03	1.322241E-04	7.955501E-05
3.116009E+03	1.338673E-04	8.010783E-05
3.125964E+03	1.355283E-04	8.065967E-05
3.135920E+03	1.372053E-04	8.120932E-05
3.145875E+03	1.389097E-04	8.176327E-05
3.155830E+03	1.406141E-04	8.230519E-05
3.165786E+03	1.423431E-04	8.284934E-05
3.175741E+03	1.440822E-04	8.338713E-05
3.185696E+03	1.458304E-04	8.391775E-05
3.195652E+03	1.475862E-04	8.444033E-05
3.205607E+03	1.493616E-04	8.496158E-05
3.215562E+03	1.511558E-04	8.548072E-05
3.225517E+03	1.529413E-04	8.598217E-05
3.235473E+03	1.547565E-04	8.648745E-05
3.245428E+03	1.565613E-04	8.697390E-05
3.255383E+03	1.583941E-04	8.746286E-05
3.265339E+03	1.602281E-04	8.793924E-05
3.275294E+03	1.620753E-04	8.840966E-05
3.285249E+03	1.639354E-04	8.887370E-05
3.295205E+03	1.657946E-04	8.932376E-05
3.305160E+03	1.676784E-04	8.977355E-05
3.315115E+03	1.695602E-04	9.020862E-05
3.325070E+03	1.714657E-04	9.064253E-05
3.335026E+03	1.733684E-04	9.106109E-05
3.344981E+03	1.752942E-04	9.147781E-05
3.354936E+03	1.772297E-04	9.188553E-05
3.364892E+03	1.791878E-04	9.229071E-05
3.374847E+03	1.811422E-04	9.267967E-05
3.384802E+03	1.831321E-04	9.307240E-05
3.394758E+03	1.851185E-04	9.344868E-05
3.404713E+03	1.871405E-04	9.382823E-05
3.414668E+03	1.891594E-04	9.419140E-05
3.424623E+03	1.912145E-04	9.455758E-05
3.434579E+03	1.932932E-04	9.492018E-05
3.444534E+03	1.953832E-04	9.527299E-05
3.454489E+03	1.974982E-04	9.562243E-05
3.464445E+03	1.996517E-04	9.597480E-05
3.474400E+03	2.018191E-04	9.631784E-05
3.484355E+03	2.040271E-04	9.666410E-05
3.494311E+03	2.062642E-04	9.700764E-05
3.504266E+03	2.085317E-04	9.734888E-05
3.514221E+03	2.108442E-04	9.769408E-05
3.524176E+03	2.131903E-04	9.803765E-05
3.534132E+03	2.155848E-04	9.838589E-05
3.544087E+03	2.180297E-04	9.873917E-05
3.554042E+03	2.205147E-04	9.909234E-05
3.563998E+03	2.230671E-04	9.945712E-05
3.573953E+03	2.256644E-04	9.982280E-05
3.583908E+03	2.283344E-04	1.002011E-04
3.593864E+03	2.310547E-04	1.005816E-04
3.603819E+03	2.338533E-04	1.009756E-04
3.613774E+03	2.367207E-04	1.013783E-04
3.623729E+03	2.396723E-04	1.017955E-04
3.633685E+03	2.426990E-04	1.022225E-04
3.643640E+03	2.458161E-04	1.026647E-04
3.653595E+03	2.490148E-04	1.031176E-04
3.663551E+03	2.523224E-04	1.035916E-04
3.673506E+03	2.557176E-04	1.040767E-04
3.683461E+03	2.592156E-04	1.045781E-04
3.693417E+03	2.628314E-04	1.051007E-04
3.703372E+03	2.665433E-04	1.056346E-04
3.713327E+03	2.703776E-04	1.061891E-04
3.723282E+03	2.743368E-04	1.067639E-04
3.733238E+03	2.783978E-04	1.073486E-04
3.743193E+03	2.825987E-04	1.079567E-04
3.753148E+03	2.869155E-04	1.085776E-04
3.763104E+03	2.913607E-04	1.092147E-04
3.773059E+03	2.959215E-04	1.098619E-04
3.783014E+03	3.006212E-04	1.105265E-04
3.792970E+03	3.054336E-04	1.111973E-04
3.802925E+03	3.103800E-04	1.118809E-04
3.812880E+03	3.154448E-04	1.125702E-04
3.822835E+03	3.206232E-04	1.132623E-04
3.832791E+03	3.259219E-04	1.139581E-04
3.842746E+03	3.313217E-04	1.146498E-04
3.852701E+03	3.368150E-04	1.153337E-04
3.862657E+03	3.424047E-04	1.160097E-04
3.872612E+03	3.480811E-04	1.166735E-04
3.882567E+03	3.538204E-04	1.173162E-04
3.892523E+03	3.596227E-04	1.179373E-04
3.902478E+03	3.654747E-04	1.185317E-04
3.912433E+03	3.713497E-04	1.190903E-04
3.922388E+03	3.772574E-04	1.196160E-04
3.932344E+03	3.831579E-04	1.200959E-04
3.942299E+03	3.890476E-04	1.205288E-04
3.952254E+03	3.949102E-04	1.209102E-04
3.962210E+03	4.007302E-04	1.212355E-04
3.972165E+03	4.064923E-04	1.215006E-04
3.982120E+03	4.121818E-04	1.217019E-04
3.992076E+03	4.177731E-04	1.218327E-04
4.002031E+03	4.232785E-04	1.218977E-04
4.011986E+03	4.286632E-04	1.218880E-04
4.021941E+03	4.339309E-04	1.218059E-04
4.031897E+03	4.390748E-04	1.216509E-04
4.041852E+03	4.440790E-04	1.214201E-04
4.051807E+03	4.489534E-04	1.211177E-04
4.061763E+03	4.536988E-04	1.207455E-04
4.071718E+03	4.582949E-04	1.202994E-04
4.081673E+03	4.627710E-04	1.197889E-04
4.091629E+03	4.671117E-04	1.192115E-04
4.101584E+03	4.713514E-04	1.185772E-04
4.111539E+03	4.754794E-04	1.178846E-04
4.121494E+03	4.795221E-04	1.171416E-04
4.131450E+03	4.834849E-04	1.163504E-04
4.141405E+03	4.873747E-04	1.155136E-04
4.151360E+03	4.912343E-04	1.146421E-04
4.161316E+03	4.950619E-04	1.137359E-04
4.171271E+03	4.988797E-04	1.128005E-04
4.181226E+03	5.027107E-04	1.118413E-04
4.191182E+03	5.065673E-04	1.108609E-04
4.201137E+03	5.104844E-04	1.098667E-04
4.211092E+03	5.144647E-04	1.088587E-04
4.221047E+03	5.185438E-04	1.078438E-04
4.231003E+03	5.227250E-04	1.068218E-04
4.240958E+03	5.270544E-04	1.058008E-04
4.250913E+03	5.315253E-04	1.047782E-04
4.260869E+03	5.361730E-04	1.037595E-04
4.270824E+03	5.410124E-04	1.027456E-04
4.280779E+03	5.460578E-04	1.017375E-04
4.290735E+03	5.513443E-04	1.007394E-04
4.300690E+03	5.568758E-04	9.974968E-05
4.310645E+03	5.626765E-04	9.877020E-05
4.320601E+03	5.687702E-04	9.780236E-05
4.330556E+03	5.751698E-04	9.684544E-05
4.340511E+03	5.818873E-04	9.589841E-05
4.350466E+03	5.889437E-04	9.496152E-05
4.360422E+03	5.963589E-04	9.403460E-05
4.370377E+03	6.041303E-04	9.311373E-05
4.380332E+03	6.122835E-04	9.219934E-05
4.390288E+03	6.208211E-04	9.128808E-05
4.400243E+03	6.297424E-04	9.037622E-05
4.410198E+03	6.390528E-04	8.946085E-05
4.420154E+03	6.487430E-04	8.853703E-05
4.430109E+03	6.588089E-04	8.760073E-05
4.440064E+03	6.692407E-04	8.664723E-05
4.450019E+03	6.800120E-04	8.566993E-05
4.459975E+03	6.910997E-04	8.466303E-05
4.469930E+03	7.024736E-04	8.362029E-05
4.479885E+03	7.140755E-04	8.253266E-05
4.489841E+03	7.258819E-04	8.139588E-05
4.499796E+03	7.378304E-04	8.020180E-05
4.509751E+03	7.498408E-04	7.894133E-05
4.519707E+03	7.618814E-04	7.761147E-05
4.529662E+03	7.738498E-04	7.620275E-05
4.539617E+03	7.856841E-04	7.471094E-05
4.549572E+03	7.973091E-04	7.313154E-05
4.559528E+03	8.086371E-04	7.145997E-05
4.569483E+03	8.196172E-04	6.969601E-05
4.579438E+03	8.301433E-04	6.783565E-05
4.589394E+03	8.401725E-04	6.588128E-05
4.599349E+03	8.496455E-04	6.383470E-05
4.609304E+03	8.584889E-04	6.169748E-05
4.619260E+03	8.666859E-04	5.947610E-05
4.629215E+03	8.742073E-04	5.717652E-05
4.639170E+03	8.810127E-04	5.480446E-05
4.649125E+03	8.871214E-04	5.236974E-05
4.659081E+03	8.925301E-04	4.988083E-05
4.669036E+03	8.972714E-04	4.734829E-05
4.678991E+03	9.013537E-04	4.478133E-05
4.688947E+03	9.048561E-04	4.219261E-05
4.698902E+03	9.077959E-04	3.959161E-05
4.708857E+03	9.102700E-04	3.699139E-05
4.718813E+03	9.123228E-04	3.440273E-05
4.728768E+03	9.140391E-04	3.183842E-05
4.738723E+03	9.154958E-04	2.931168E-05
4.748678E+03	9.167709E-04	2.683717E-05
4.758634E+03	9.179430E-04	2.443208E-05
4.768589E+03	9.191003E-04	2.211785E-05
4.778544E+03	9.203171E-04	1.992176E-05
4.788500E+03	9.216518E-04	1.788020E-05
4.798455E+03	9.231921E-04	1.604358E-05
4.808410E+03	9.249854E-04	1.447870E-05
4.818366E+03	9.270953E-04	1.327001E-05
4.828321E+03	9.295666E-04	1.250872E-05
4.838276E+03	9.324359E-04	1.226657E-05
4.848231E+03	9.357432E-04	1.255013E-05
4.858187E+03	9.394955E-04	1.328747E-05
4.868142E+03	9.437257E-04	1.437540E-05
4.878097E+03	9.484219E-04	1.571227E-05
4.888053E+03	9.535853E-04	1.721562E-05
4.898008E+03	9.592074E-04	1.882434E-05
4.907963E+03	9.652350E-04	2.049416E-05
4.917919E+03	9.716638E-04	2.219459E-05
4.927874E+03	9.784224E-04	2.390249E-05
4.937829E+03	9.854783E-04	2.560144E-05
4.947784E+03	9.927580E-04	2.727784E-05
4.957740E+03	1.000218E-03	2.892146E-05
4.967695E+03	1.007763E-03	3.052224E-05
4.977650E+03	1.015358E-03	3.207296E-05
4.987606E+03	1.022895E-03	3.356492E-05
4.997561E+03	1.030340E-03	3.499229E-05
5.007516E+03	1.037617E-03	3.634819E-05
5.017472E+03	1.044666E-03	3.762663E-05
5.027427E+03	1.051447E-03	3.882262E-05
5.037382E+03	1.057904E-03	3.993083E-05
5.047337E+03	1.064025E-03	4.094795E-05
5.057293E+03	1.069758E-03	4.186940E-05
5.067248E+03	1.075109E-03	4.269318E-05
5.077203E+03	1.080053E-03	4.341646E-05
5.087159E+03	1.084584E-03	4.403750E-05
5.097114E+03	1.088715E-03	4.455568E-05
5.107069E+03	1.092450E-03	4.497039E-05
5.117025E+03	1.095783E-03	4.528095E-05
5.126980E+03	1.098735E-03	4.548817E-05
5.136935E+03	1.101315E-03	4.559271E-05
5.146890E+03	1.103520E-03	4.559502E-05
5.156846E+03	1.105370E-03	4.549692E-05
5.166801E+03	1.106872E-03	4.529997E-05
5.176756E+03	1.108031E-03	4.500603E-05
5.186712E+03	1.108838E-03	4.461667E-05
5.196667E+03	1.109306E-03	4.413482E-05
5.206622E+03	1.109421E-03	4.356271E-05
5.216578E+03	1.109193E-03	4.290392E-05
5.226533E+03	1.108605E-03	4.216143E-05
5.236488E+03	1.107651E-03	4.133921E-05
5.246443E+03	1.106323E-03	4.044172E-05
5.256399E+03	1.104614E-03	3.947403E-05
5.266354E+03	1.102501E-03	3.844146E-05
5.276309E+03	1.099976E-03	3.735058E-05
5.286265E+03	1.097041E-03	3.620929E-05
5.296220E+03	1.093674E-03	3.502568E-05
5.306175E+03	1.089852E-03	3.380905E-05
5.316131E+03	1.085567E-03	3.257056E-05
5.326086E+03	1.080824E-03	3.132323E-05
5.336041E+03	1.075602E-03	3.008112E-05
5.345996E+03	1.069884E-03	2.886028E-05
5.355952E+03	1.063668E-03	2.767916E-05
5.365907E+03	1.056950E-03	2.655837E-05
5.375862E+03	1.049744E-03	2.552072E-05
5.385818E+03	1.042016E-03	2.458937E-05
5.395773E+03	1.033797E-03	2.378962E-05
5.405728E+03	1.025082E-03	2.314523E-05
5.415684E+03	1.015883E-03	2.267780E-05
5.425639E+03	1.006215E-03	2.240441E-05
5.435594E+03	9.960847E-04	2.233224E-05
5.445549E+03	9.855278E-04	2.244726E-05
5.455505E+03	9.745648E-04	2.272547E-05
5.465460E+03	9.632455E-04	2.314047E-05
5.475415E+03	9.516042E-04	2.366462E-05
5.485371E+03	9.397130E-04	2.427223E-05
5.495326E+03	9.276073E-04	2.493885E-05
5.505281E+03	9.153594E-04	2.564388E-05
5.515237E+03	9.030360E-04	2.636972E-05
5.525192E+03	8.907073E-04	2.710206E-05
5.535147E+03	8.784675E-04	2.783026E-05
5.545102E+03	8.663737E-04	2.854527E-05
5.555058E+03	8.545253E-04	2.924177E-05
5.565013E+03	8.429943E-04	2.991565E-05
5.574968E+03	8.318727E-04	3.056534E-05
5.584924E+03	8.212434E-04	3.119052E-05
5.594879E+03	8.112063E-04	3.179289E-05
5.604834E+03	8.018231E-04	3.237383E-05
5.614790E+03	7.931801E-04	3.293661E-05
5.624745E+03	7.853591E-04	3.348513E-05
5.634700E+03	7.784362E-04	3.402370E-05
5.644655E+03	7.724558E-04	3.455569E-05
5.654611E+03	7.674897E-04	3.508605E-05
5.664566E+03	7.635835E-04	3.561874E-05
5.674521E+03	7.607740E-04	3.615741E-05
5.684477E+03	7.590870E-04	3.670519E-05
5.694432E+03	7.585455E-04	3.726494E-05
5.704387E+03	7.591514E-04	3.783834E-05
5.714343E+03	7.608833E-04	3.842560E-05
5.724298E+03	7.637308E-04	3.902716E-05
5.734253E+03	7.676411E-04	3.964094E-05
5.744209E+03	7.725530E-04	4.026399E-05
5.754164E+03	7.783950E-04	4.089242E-05
5.764119E+03	7.850596E-04	4.152000E-05
5.774074E+03	7.924376E-04	4.214001E-05
5.784030E+03	8.003923E-04	4.274390E-05
5.793985E+03	8.087598E-04	4.332136E-05
5.803940E+03	8.173792E-04	4.386202E-05
5.813896E+03	8.260665E-04	4.435412E-05
5.823851E+03	8.346295E-04	4.478548E-05
5.833806E+03	8.428608E-04	4.514319E-05
5.843762E+03	8.505733E-04	4.541568E-05
5.853717E+03	8.575767E-04	4.559159E-05
5.863672E+03	8.636843E-04	4.566024E-05
5.873627E+03	8.687483E-04	4.561362E-05
5.883583E+03	8.726263E-04	4.544467E-05
5.893538E+03	8.752262E-04	4.514969E-05
5.903493E+03	8.764705E-04	4.472648E-05
5.913449E+03	8.763192E-04	4.417547E-05
5.923404E+03	8.748006E-04	4.350121E-05
5.933359E+03	8.719523E-04	4.270922E-05
5.943315E+03	8.678472E-04	4.180718E-05
5.953270E+03	8.626124E-04	4.080564E-05
5.963225E+03	8.563840E-04	3.971563E-05
5.973180E+03	8.493315E-04	3.854962E-05
5.983136E+03	8.416418E-04	3.732056E-05
5.993091E+03	8.335136E-04	3.604143E-05
6.003046E+03	8.251419E-04	3.472440E-05
6.013002E+03	8.167408E-04	3.338167E-05
6.022957E+03	8.085008E-04	3.202360E-05
6.032912E+03	8.006223E-04	3.065995E-05
6.042868E+03	7.932660E-04	2.929796E-05
6.052823E+03	7.866067E-04	2.794447E-05
6.062778E+03	7.807850E-04	2.660406E-05
6.072733E+03	7.759440E-04	2.528050E-05
6.082689E+03	7.721920E-04	2.397556E-05
6.092644E+03	7.696309E-04	2.269012E-05
6.102599E+03	7.683563E-04	2.142427E-05
6.112555E+03	7.684225E-04	2.017651E-05
6.122510E+03	7.698878E-04	1.894537E-05
6.132465E+03	7.728159E-04	1.772955E-05
6.142421E+03	7.772123E-04	1.652689E-05
6.152376E+03	7.831244E-04	1.533720E-05
6.162331E+03	7.905314E-04	1.416061E-05
6.172286E+03	7.994449E-04	1.300079E-05
6.182242E+03	8.098332E-04	1.186504E-05
6.192197E+03	8.216574E-04	1.076754E-05
6.202152E+03	8.348682E-04	9.732888E-06
6.212108E+03	8.493732E-04	8.800716E-06
6.222063E+03	8.650653E-04	8.031425E-06
6.232018E+03	8.818116E-04	7.506784E-06
6.241974E+03	8.994541E-04	7.316182E-06
6.251929E+03	9.178119E-04	7.512441E-06
6.261884E+03	9.366964E-04	8.055930E-06
6.271839E+03	9.558871E-04	8.860737E-06
6.281795E+03	9.751700E-04	9.837748E-06
6.291750E+03	9.943431E-04	1.091288E-05
6.301705E+03	1.013189E-03	1.202932E-05
6.311661E+03	1.031513E-03	1.314442E-05
6.321616E+03	1.049151E-03	1.422567E-05
6.331571E+03	1.065949E-03	1.524744E-05
6.341527E+03	1.081762E-03	1.618896E-05
6.351482E+03	1.096501E-03	1.703383E-05
6.361437E+03	1.110089E-03	1.776878E-05
6.371392E+03	1.122462E-03	1.838328E-05
6.381348E+03	1.133624E-03	1.887023E-05
6.391303E+03	1.143559E-03	1.922453E-05
6.401258E+03	1.152288E-03	1.944394E-05
6.411214E+03	1.159848E-03	1.952887E-05
6.421169E+03	1.166288E-03	1.948244E-05
6.431124E+03	1.171685E-03	1.931094E-05
6.441080E+03	1.176106E-03	1.902357E-05
6.451035E+03	1.179609E-03	1.863293E-05
6.460990E+03	1.182278E-03	1.815642E-05
6.470945E+03	1.184184E-03	1.761637E-05
6.480901E+03	1.185406E-03	1.704178E-05
6.490856E+03	1.185975E-03	1.646868E-05
6.500811E+03	1.185973E-03	1.594278E-05
6.510767E+03	1.185444E-03	1.551841E-05
6.520722E+03	1.184422E-03	1.525705E-05
6.530677E+03	1.182931E-03	1.522233E-05
6.540633E+03	1.180987E-03	1.547147E-05
6.550588E+03	1.178596E-03	1.603813E-05
6.560543E+03	1.175775E-03	1.690587E-05
6.570498E+03	1.172518E-03	1.803578E-05
6.580454E+03	1.168812E-03	1.938295E-05
6.590409E+03	1.164645E-03	2.090319E-05
6.600364E+03	1.160016E-03	2.255697E-05
6.610320E+03	1.154912E-03	2.431023E-05
6.620275E+03	1.149312E-03	2.613410E-05
6.630230E+03	1.143242E-03	2.800565E-05
6.640186E+03	1.136696E-03	2.990513E-05
6.650141E+03	1.129708E-03	3.181704E-05
6.660096E+03	1.122293E-03	3.372802E-05
6.670051E+03	1.114523E-03	3.562867E-05
6.680007E+03	1.106425E-03	3.751006E-05
6.689962E+03	1.098098E-03	3.936735E-05
6.699917E+03	1.089608E-03	4.119619E-05
6.709873E+03	1.081061E-03	4.299519E-05
6.719828E+03	1.072558E-03	4.476420E-05
6.729783E+03	1.064208E-03	4.650477E-05
6.739739E+03	1.056124E-03	4.822000E-05
6.749694E+03	1.048437E-03	4.991511E-05
6.759649E+03	1.041253E-03	5.159532E-05
6.769604E+03	1.034691E-03	5.326764E-05
6.779560E+03	1.028881E-03	5.494084E-05
6.789515E+03	1.023936E-03	5.662382E-05
6.799470E+03	1.019952E-03	5.832541E-05
6.809426E+03	1.017058E-03	6.005721E-05
6.819381E+03	1.015317E-03	6.182792E-05
6.829336E+03	1.014844E-03	6.364962E-05
6.839292E+03	1.015699E-03	6.553180E-05
6.849247E+03	1.017942E-03	6.748429E-05
6.859202E+03	1.021637E-03	6.951741E-05
6.869157E+03	1.026806E-03	7.163882E-05
6.879113E+03	1.033469E-03	7.385600E-05
6.889068E+03	1.041646E-03	7.617630E-05
6.899023E+03	1.051311E-03	7.860360E-05
6.908979E+03	1.062436E-03	8.114112E-05
6.918934E+03	1.074993E-03	8.379169E-05
6.928889E+03	1.088923E-03	8.655513E-05
6.938845E+03	1.104121E-03	8.942700E-05
6.948800E+03	1.120547E-03	9.240721E-05
6.958755E+03	1.138056E-03	9.548644E-05
6.968710E+03	1.156577E-03	9.866036E-05
6.978666E+03	1.175998E-03	1.019208E-04
6.988621E+03	1.196176E-03	1.052557E-04
6.998576E+03	1.217036E-03	1.086582E-04
7.008532E+03	1.238457E-03	1.121169E-04
7.018487E+03	1.260348E-03	1.156220E-04
7.028442E+03	1.282626E-03	1.191640E-04
7.038398E+03	1.305224E-03	1.227346E-04
7.048353E+03	1.328089E-03	1.263262E-04
7.058308E+03	1.351184E-03	1.299323E-04
7.068263E+03	1.374464E-03	1.335458E-04
7.078219E+03	1.397914E-03	1.371617E-04
7.088174E+03	1.421546E-03	1.407780E-04
7.098129E+03	1.445332E-03	1.443885E-04
7.108085E+03	1.469262E-03	1.479886E-04
7.118040E+03	1.493311E-03	1.515723E-04
7.127995E+03	1.517442E-03	1.551319E-04
7.137951E+03	1.541565E-03	1.586544E-04
7.147906E+03	1.565610E-03	1.621284E-04
7.157861E+03	1.589421E-03	1.655333E-04
7.167817E+03	1.612824E-03	1.688466E-04
7.177772E+03	1.635580E-03	1.720382E-04
7.187727E+03	1.657448E-03	1.750781E-04
7.197682E+03	1.678124E-03	1.779287E-04
7.207638E+03	1.697239E-03	1.805457E-04
7.217593E+03	1.714391E-03	1.828812E-04
7.227548E+03	1.729229E-03	1.848928E-04
7.237504E+03	1.741271E-03	1.865241E-04
7.247459E+03	1.750163E-03	1.877333E-04
7.257414E+03	1.755503E-03	1.884737E-04
7.267370E+03	1.756952E-03	1.887067E-04
7.277325E+03	1.754208E-03	1.883987E-04
7.287280E+03	1.747097E-03	1.875307E-04
7.297235E+03	1.735457E-03	1.860870E-04
7.307191E+03	1.719331E-03	1.840750E-04
7.317146E+03	1.698765E-03	1.815039E-04
7.327101E+03	1.673984E-03	1.784036E-04
7.337057E+03	1.645264E-03	1.748103E-04
7.347012E+03	1.612994E-03	1.707732E-04
7.356967E+03	1.577635E-03	1.663498E-04
7.366923E+03	1.539699E-03	1.616033E-04
7.376878E+03	1.499734E-03	1.566003E-04
7.386833E+03	1.458275E-03	1.514062E-04
7.396788E+03	1.415897E-03	1.460892E-04
7.406744E+03	1.373128E-03	1.407120E-04
7.416699E+03	1.330439E-03	1.353302E-04
7.426654E+03	1.288293E-03	1.299970E-04
7.436610E+03	1.247058E-03	1.247549E-04
7.446565E+03	1.207085E-03	1.196428E-04
7.456520E+03	1.168643E-03	1.146902E-04
7.466476E+03	1.131948E-03	1.099196E-04
7.476431E+03	1.097145E-03	1.053454E-04
7.486386E+03	1.064366E-03	1.009795E-04
7.496341E+03	1.033683E-03	9.682710E-05
7.506297E+03	1.005136E-03	9.288916E-05
7.516252E+03	9.787470E-04	8.916446E-05
7.526207E+03	9.544889E-04	8.564622E-05
7.536163E+03	9.323308E-04	8.232699E-05
7.546118E+03	9.122413E-04	7.919869E-05
7.556073E+03	8.941664E-04	7.625083E-05
7.566029E+03	8.780447E-04	7.347193E-05
7.575984E+03	8.638108E-04	7.084995E-05
7.585939E+03	8.513834E-04	6.837136E-05
7.595894E+03	8.407178E-04	6.602542E-05
7.605850E+03	8.317400E-04	6.379893E-05
7.615805E+03	8.243626E-04	6.167758E-05
7.625760E+03	8.185090E-04	5.964803E-05
7.635716E+03	8.141107E-04	5.769756E-05
7.645671E+03	8.110723E-04	5.581168E-05
7.655626E+03	8.093325E-04	5.397851E-05
7.665582E+03	8.087784E-04	5.218293E-05
7.675537E+03	8.093303E-04	5.041251E-05
7.685492E+03	8.108844E-04	4.865374E-05
7.695447E+03	8.133710E-04	4.689574E-05
7.705403E+03	8.166742E-04	4.512551E-05
7.715358E+03	8.207149E-04	4.333291E-05
7.725313E+03	8.254068E-04	4.150812E-05
