#wls	flux	fluxerr
1.592848E+03	1.694872E-05	7.601650E-06
1.632669E+03	1.766904E-05	7.868743E-06
1.672491E+03	1.834824E-05	8.112125E-06
1.712312E+03	1.897717E-05	8.328059E-06
1.752133E+03	1.953981E-05	8.509942E-06
1.791954E+03	2.001303E-05	8.648351E-06
1.831775E+03	2.035972E-05	8.728185E-06
1.871597E+03	2.054782E-05	8.737049E-06
1.911418E+03	2.053149E-05	8.657235E-06
1.951239E+03	2.028953E-05	8.482051E-06
1.991060E+03	1.983348E-05	8.218747E-06
2.030881E+03	1.925828E-05	7.908733E-06
2.070703E+03	1.873871E-05	7.624544E-06
2.110524E+03	1.852470E-05	7.466369E-06
2.150345E+03	1.884533E-05	7.522151E-06
2.190166E+03	1.980669E-05	7.827499E-06
2.229987E+03	2.137833E-05	8.362711E-06
2.269809E+03	2.342244E-05	9.066792E-06
2.309630E+03	2.576919E-05	9.868542E-06
2.349451E+03	2.827221E-05	1.070831E-05
2.389272E+03	3.083569E-05	1.154779E-05
2.429093E+03	3.339240E-05	1.236081E-05
2.468915E+03	3.592664E-05	1.314123E-05
2.508736E+03	3.842047E-05	1.388238E-05
2.548557E+03	4.088984E-05	1.459000E-05
2.588378E+03	4.333795E-05	1.526505E-05
2.628199E+03	4.578299E-05	1.591369E-05
2.668021E+03	4.822206E-05	1.653447E-05
2.707842E+03	5.068085E-05	1.713568E-05
2.747663E+03	5.316218E-05	1.771749E-05
2.787484E+03	5.568403E-05	1.828500E-05
2.827305E+03	5.824717E-05	1.883735E-05
2.867127E+03	6.085979E-05	1.937603E-05
2.906948E+03	6.352966E-05	1.990223E-05
2.946769E+03	6.627436E-05	2.041996E-05
2.986590E+03	6.909206E-05	2.092698E-05
2.996546E+03	6.980976E-05	2.105242E-05
3.006501E+03	7.053195E-05	2.117704E-05
3.016456E+03	7.125875E-05	2.130084E-05
3.026411E+03	7.200230E-05	2.142741E-05
3.036367E+03	7.274625E-05	2.155182E-05
3.046322E+03	7.350637E-05	2.167873E-05
3.056277E+03	7.429231E-05	2.181088E-05
3.066233E+03	7.509210E-05	2.194467E-05
3.076188E+03	7.589347E-05	2.207645E-05
3.086143E+03	7.671761E-05	2.221237E-05
3.096099E+03	7.755258E-05	2.234886E-05
3.106054E+03	7.839749E-05	2.248562E-05
3.116009E+03	7.925161E-05	2.262239E-05
3.125964E+03	8.011424E-05	2.275892E-05
3.135920E+03	8.098477E-05	2.289500E-05
3.145875E+03	8.186264E-05	2.303043E-05
3.155830E+03	8.275934E-05	2.316838E-05
3.165786E+03	8.365058E-05	2.330200E-05
3.175741E+03	8.456004E-05	2.343787E-05
3.185696E+03	8.546314E-05	2.356911E-05
3.195652E+03	8.638408E-05	2.370239E-05
3.205607E+03	8.731043E-05	2.383423E-05
3.215562E+03	8.824203E-05	2.396456E-05
3.225517E+03	8.917871E-05	2.409328E-05
3.235473E+03	9.012039E-05	2.422036E-05
3.245428E+03	9.106698E-05	2.434573E-05
3.255383E+03	9.201847E-05	2.446936E-05
3.265339E+03	9.297483E-05	2.459121E-05
3.275294E+03	9.394941E-05	2.471477E-05
3.285249E+03	9.491577E-05	2.483302E-05
3.295205E+03	9.588720E-05	2.494946E-05
3.305160E+03	9.687743E-05	2.506759E-05
3.315115E+03	9.787319E-05	2.518392E-05
3.325070E+03	9.886078E-05	2.529490E-05
3.335026E+03	9.986798E-05	2.540763E-05
3.344981E+03	1.008812E-04	2.551859E-05
3.354936E+03	1.019008E-04	2.562778E-05
3.364892E+03	1.029268E-04	2.573525E-05
3.374847E+03	1.039596E-04	2.584099E-05
3.384802E+03	1.049994E-04	2.594505E-05
3.394758E+03	1.060612E-04	2.605103E-05
3.404713E+03	1.071160E-04	2.615179E-05
3.414668E+03	1.081786E-04	2.625094E-05
3.424623E+03	1.092644E-04	2.635212E-05
3.434579E+03	1.103439E-04	2.644815E-05
3.444534E+03	1.114473E-04	2.654627E-05
3.454489E+03	1.125602E-04	2.664291E-05
3.464445E+03	1.136673E-04	2.673446E-05
3.474400E+03	1.147998E-04	2.682821E-05
3.484355E+03	1.159427E-04	2.692056E-05
3.494311E+03	1.170964E-04	2.701152E-05
3.504266E+03	1.182612E-04	2.710113E-05
3.514221E+03	1.194375E-04	2.718941E-05
3.524176E+03	1.206256E-04	2.727638E-05
3.534132E+03	1.218260E-04	2.736205E-05
3.544087E+03	1.230553E-04	2.745011E-05
3.554042E+03	1.242813E-04	2.753324E-05
3.563998E+03	1.255207E-04	2.761512E-05
3.573953E+03	1.267906E-04	2.769944E-05
3.583908E+03	1.280578E-04	2.777886E-05
3.593864E+03	1.293566E-04	2.786072E-05
3.603819E+03	1.306705E-04	2.794137E-05
3.613774E+03	1.319825E-04	2.801712E-05
3.623729E+03	1.333275E-04	2.809532E-05
3.633685E+03	1.346887E-04	2.817231E-05
3.643640E+03	1.360665E-04	2.824805E-05
3.653595E+03	1.374434E-04	2.831886E-05
3.663551E+03	1.388553E-04	2.839211E-05
3.673506E+03	1.402849E-04	2.846408E-05
3.683461E+03	1.417325E-04	2.853476E-05
3.693417E+03	1.431985E-04	2.860412E-05
3.703372E+03	1.446832E-04	2.867214E-05
3.713327E+03	1.462059E-04	2.874249E-05
3.723282E+03	1.477293E-04	2.880774E-05
3.733238E+03	1.492725E-04	2.887156E-05
3.743193E+03	1.508359E-04	2.893391E-05
3.753148E+03	1.524391E-04	2.899845E-05
3.763104E+03	1.540438E-04	2.905774E-05
3.773059E+03	1.556696E-04	2.911542E-05
3.783014E+03	1.573367E-04	2.917515E-05
3.792970E+03	1.590058E-04	2.922948E-05
3.802925E+03	1.607172E-04	2.928575E-05
3.812880E+03	1.624308E-04	2.933651E-05
3.822835E+03	1.641876E-04	2.938907E-05
3.832791E+03	1.659468E-04	2.943601E-05
3.842746E+03	1.677502E-04	2.948461E-05
3.852701E+03	1.695562E-04	2.952745E-05
3.862657E+03	1.714071E-04	2.957182E-05
3.872612E+03	1.732823E-04	2.961394E-05
3.882567E+03	1.751603E-04	2.965008E-05
3.892523E+03	1.770846E-04	2.968749E-05
3.902478E+03	1.790338E-04	2.972241E-05
3.912433E+03	1.809858E-04	2.975109E-05
3.922388E+03	1.829853E-04	2.978077E-05
3.932344E+03	1.850102E-04	2.980768E-05
3.942299E+03	1.870380E-04	2.982810E-05
3.952254E+03	1.891142E-04	2.984920E-05
3.962210E+03	1.912163E-04	2.986723E-05
3.972165E+03	1.933445E-04	2.988209E-05
3.982120E+03	1.954753E-04	2.989007E-05
3.992076E+03	1.976557E-04	2.989829E-05
4.002031E+03	1.998624E-04	2.990301E-05
4.011986E+03	2.020953E-04	2.990409E-05
4.021941E+03	2.043302E-04	2.989788E-05
4.031897E+03	2.066156E-04	2.989138E-05
4.041852E+03	2.089275E-04	2.988095E-05
4.051807E+03	2.112658E-04	2.986644E-05
4.061763E+03	2.136048E-04	2.984414E-05
4.071718E+03	2.159951E-04	2.982106E-05
4.081673E+03	2.184115E-04	2.979352E-05
4.091629E+03	2.208275E-04	2.975786E-05
4.101584E+03	2.232954E-04	2.972103E-05
4.111539E+03	2.257887E-04	2.967934E-05
4.121494E+03	2.282805E-04	2.962919E-05
4.131450E+03	2.308239E-04	2.957743E-05
4.141405E+03	2.333650E-04	2.951701E-05
4.151360E+03	2.359573E-04	2.945465E-05
4.161316E+03	2.385462E-04	2.938341E-05
4.171271E+03	2.411864E-04	2.931000E-05
4.181226E+03	2.438214E-04	2.922744E-05
4.191182E+03	2.465074E-04	2.914242E-05
4.201137E+03	2.491870E-04	2.904807E-05
4.211092E+03	2.518879E-04	2.894764E-05
4.221047E+03	2.546391E-04	2.884438E-05
4.231003E+03	2.573813E-04	2.873148E-05
4.240958E+03	2.601430E-04	2.861217E-05
4.250913E+03	2.629236E-04	2.848637E-05
4.260869E+03	2.657223E-04	2.835398E-05
4.270824E+03	2.685383E-04	2.821488E-05
4.280779E+03	2.713709E-04	2.806903E-05
4.290735E+03	2.742194E-04	2.791634E-05
4.300690E+03	2.770825E-04	2.775671E-05
4.310645E+03	2.799595E-04	2.759009E-05
4.320601E+03	2.828494E-04	2.741644E-05
4.330556E+03	2.857511E-04	2.723568E-05
4.340511E+03	2.886312E-04	2.704479E-05
4.350466E+03	2.915532E-04	2.684981E-05
4.360422E+03	2.944835E-04	2.664766E-05
4.370377E+03	2.973880E-04	2.643541E-05
4.380332E+03	3.002980E-04	2.621608E-05
4.390288E+03	3.032459E-04	2.599259E-05
4.400243E+03	3.061631E-04	2.575917E-05
4.410198E+03	3.090820E-04	2.551882E-05
4.420154E+03	3.120008E-04	2.527160E-05
4.430109E+03	3.149531E-04	2.502040E-05
4.440064E+03	3.178680E-04	2.475978E-05
4.450019E+03	3.207430E-04	2.448995E-05
4.459975E+03	3.236470E-04	2.421654E-05
4.469930E+03	3.265434E-04	2.393700E-05
4.479885E+03	3.294303E-04	2.365154E-05
4.489841E+03	3.322700E-04	2.335787E-05
4.499796E+03	3.351330E-04	2.306141E-05
4.509751E+03	3.379445E-04	2.275737E-05
4.519707E+03	3.407766E-04	2.245114E-05
4.529662E+03	3.435532E-04	2.213814E-05
4.539617E+03	3.463093E-04	2.182126E-05
4.549572E+03	3.490429E-04	2.150096E-05
4.559528E+03	3.517526E-04	2.117776E-05
4.569483E+03	3.544365E-04	2.085219E-05
4.579438E+03	3.570921E-04	2.052480E-05
4.589394E+03	3.596794E-04	2.019410E-05
4.599349E+03	3.622734E-04	1.986514E-05
4.609304E+03	3.648339E-04	1.953643E-05
4.619260E+03	3.673193E-04	1.920671E-05
4.629215E+03	3.697669E-04	1.887897E-05
4.639170E+03	3.722148E-04	1.855610E-05
4.649125E+03	3.745811E-04	1.823502E-05
4.659081E+03	3.769041E-04	1.791879E-05
4.669036E+03	3.791415E-04	1.760661E-05
4.678991E+03	3.813717E-04	1.730337E-05
4.688947E+03	3.835533E-04	1.700836E-05
4.698902E+03	3.856842E-04	1.672280E-05
4.708857E+03	3.877216E-04	1.644619E-05
4.718813E+03	3.897045E-04	1.618165E-05
4.728768E+03	3.916731E-04	1.593218E-05
4.738723E+03	3.935428E-04	1.569570E-05
4.748678E+03	3.953532E-04	1.547523E-05
4.758634E+03	3.971034E-04	1.527209E-05
4.768589E+03	3.987497E-04	1.508592E-05
4.778544E+03	4.003746E-04	1.492111E-05
4.788500E+03	4.019351E-04	1.477714E-05
4.798455E+03	4.033879E-04	1.465347E-05
4.808410E+03	4.047740E-04	1.455223E-05
4.818366E+03	4.061351E-04	1.447456E-05
4.828321E+03	4.073855E-04	1.441671E-05
4.838276E+03	4.085676E-04	1.437936E-05
4.848231E+03	4.096807E-04	1.436152E-05
4.858187E+03	4.106816E-04	1.436059E-05
4.868142E+03	4.116558E-04	1.437836E-05
4.878097E+03	4.125175E-04	1.441055E-05
4.888053E+03	4.133523E-04	1.445882E-05
4.898008E+03	4.140745E-04	1.451881E-05
4.907963E+03	4.147269E-04	1.459059E-05
4.917919E+03	4.153096E-04	1.467279E-05
4.927874E+03	4.158231E-04	1.476403E-05
4.937829E+03	4.162674E-04	1.486296E-05
4.947784E+03	4.166001E-04	1.496675E-05
4.957740E+03	4.169073E-04	1.507721E-05
4.967695E+03	4.171037E-04	1.519006E-05
4.977650E+03	4.172756E-04	1.530727E-05
4.987606E+03	4.173380E-04	1.542468E-05
4.997561E+03	4.173344E-04	1.554284E-05
5.007516E+03	4.172656E-04	1.566084E-05
5.017472E+03	4.170894E-04	1.577622E-05
5.027427E+03	4.168921E-04	1.589142E-05
5.037382E+03	4.165895E-04	1.600252E-05
5.047337E+03	4.162676E-04	1.611213E-05
5.057293E+03	4.158422E-04	1.621640E-05
5.067248E+03	4.153571E-04	1.631649E-05
5.077203E+03	4.148132E-04	1.641194E-05
5.087159E+03	4.142117E-04	1.650239E-05
5.097114E+03	4.135534E-04	1.658749E-05
5.107069E+03	4.127980E-04	1.666531E-05
5.117025E+03	4.120302E-04	1.673898E-05
5.126980E+03	4.111680E-04	1.680496E-05
5.136935E+03	4.102958E-04	1.686653E-05
5.146890E+03	4.093315E-04	1.692019E-05
5.156846E+03	4.083184E-04	1.696762E-05
5.166801E+03	4.072576E-04	1.700881E-05
5.176756E+03	4.061098E-04	1.704210E-05
5.186712E+03	4.049579E-04	1.707096E-05
5.196667E+03	4.037220E-04	1.709209E-05
5.206622E+03	4.024846E-04	1.710906E-05
5.216578E+03	4.011663E-04	1.711858E-05
5.226533E+03	3.998091E-04	1.712259E-05
5.236488E+03	3.984141E-04	1.712127E-05
5.246443E+03	3.969830E-04	1.711487E-05
5.256399E+03	3.955171E-04	1.710365E-05
5.266354E+03	3.939787E-04	1.708619E-05
5.276309E+03	3.924479E-04	1.706618E-05
5.286265E+03	3.908478E-04	1.704054E-05
5.296220E+03	3.892580E-04	1.701298E-05
5.306175E+03	3.876019E-04	1.698045E-05
5.316131E+03	3.859203E-04	1.694498E-05
5.326086E+03	3.842144E-04	1.690694E-05
5.336041E+03	3.824477E-04	1.686501E-05
5.345996E+03	3.806979E-04	1.682290E-05
5.355952E+03	3.789282E-04	1.677930E-05
5.365907E+03	3.771025E-04	1.673292E-05
5.375862E+03	3.752601E-04	1.668580E-05
5.385818E+03	3.734394E-04	1.663993E-05
5.395773E+03	3.715676E-04	1.659239E-05
5.405728E+03	3.696834E-04	1.654517E-05
5.415684E+03	3.677878E-04	1.649861E-05
5.425639E+03	3.658463E-04	1.645141E-05
5.435594E+03	3.639327E-04	1.640698E-05
5.445549E+03	3.619770E-04	1.636188E-05
5.455505E+03	3.600530E-04	1.631912E-05
5.465460E+03	3.580923E-04	1.627526E-05
5.475415E+03	3.561325E-04	1.623169E-05
5.485371E+03	3.541759E-04	1.618818E-05
5.495326E+03	3.522252E-04	1.614455E-05
5.505281E+03	3.502821E-04	1.610057E-05
5.515237E+03	3.483492E-04	1.605606E-05
5.525192E+03	3.463938E-04	1.600923E-05
5.535147E+03	3.444873E-04	1.596310E-05
5.545102E+03	3.425627E-04	1.591431E-05
5.555058E+03	3.406902E-04	1.586585E-05
5.565013E+03	3.388044E-04	1.581445E-05
5.574968E+03	3.369408E-04	1.576154E-05
5.584924E+03	3.351010E-04	1.570697E-05
5.594879E+03	3.332872E-04	1.565065E-05
5.604834E+03	3.315007E-04	1.559244E-05
5.614790E+03	3.297112E-04	1.553074E-05
5.624745E+03	3.279852E-04	1.546851E-05
5.634700E+03	3.262594E-04	1.540261E-05
5.644655E+03	3.246002E-04	1.533603E-05
5.654611E+03	3.229449E-04	1.526567E-05
5.664566E+03	3.213274E-04	1.519301E-05
5.674521E+03	3.197487E-04	1.511798E-05
5.684477E+03	3.182104E-04	1.504056E-05
5.694432E+03	3.167141E-04	1.496071E-05
5.704387E+03	3.152612E-04	1.487842E-05
5.714343E+03	3.138528E-04	1.479366E-05
5.724298E+03	3.124598E-04	1.470498E-05
5.734253E+03	3.111450E-04	1.461526E-05
5.744209E+03	3.098485E-04	1.452163E-05
5.754164E+03	3.086324E-04	1.442695E-05
5.764119E+03	3.074373E-04	1.432838E-05
5.774074E+03	3.062950E-04	1.422737E-05
5.784030E+03	3.052066E-04	1.412393E-05
5.793985E+03	3.041732E-04	1.401806E-05
5.803940E+03	3.031960E-04	1.390978E-05
5.813896E+03	3.022766E-04	1.379914E-05
5.823851E+03	3.014158E-04	1.368615E-05
5.833806E+03	3.005853E-04	1.356950E-05
5.843762E+03	2.998456E-04	1.345190E-05
5.853717E+03	2.991389E-04	1.333072E-05
5.863672E+03	2.985250E-04	1.320864E-05
5.873627E+03	2.979467E-04	1.308309E-05
5.883583E+03	2.974342E-04	1.295539E-05
5.893538E+03	2.969891E-04	1.282561E-05
5.903493E+03	2.966122E-04	1.269378E-05
5.913449E+03	2.963343E-04	1.256118E-05
5.923404E+03	2.960690E-04	1.242417E-05
5.933359E+03	2.959048E-04	1.228648E-05
5.943315E+03	2.958144E-04	1.214696E-05
5.953270E+03	2.957987E-04	1.200566E-05
5.963225E+03	2.958301E-04	1.186148E-05
5.973180E+03	2.959682E-04	1.171686E-05
5.983136E+03	2.961851E-04	1.157067E-05
5.993091E+03	2.964535E-04	1.142191E-05
6.003046E+03	2.968037E-04	1.127182E-05
6.013002E+03	2.972665E-04	1.112161E-05
6.022957E+03	2.977850E-04	1.096921E-05
6.032912E+03	2.983903E-04	1.081587E-05
6.042868E+03	2.990835E-04	1.066175E-05
6.052823E+03	2.998669E-04	1.050705E-05
6.062778E+03	3.007418E-04	1.035195E-05
6.072733E+03	3.017100E-04	1.019669E-05
6.082689E+03	3.027737E-04	1.004156E-05
6.092644E+03	3.039347E-04	9.886824E-06
6.102599E+03	3.051648E-04	9.731879E-06
6.112555E+03	3.065262E-04	9.579035E-06
6.122510E+03	3.079909E-04	9.427737E-06
6.132465E+03	3.095306E-04	9.277562E-06
6.142421E+03	3.112085E-04	9.130893E-06
6.152376E+03	3.129655E-04	8.986518E-06
6.162331E+03	3.148345E-04	8.846029E-06
6.172286E+03	3.168491E-04	8.711036E-06
6.182242E+03	3.189493E-04	8.580641E-06
6.192197E+03	3.211689E-04	8.456641E-06
6.202152E+03	3.235101E-04	8.340039E-06
6.212108E+03	3.259753E-04	8.231924E-06
6.222063E+03	3.285995E-04	8.134288E-06
6.232018E+03	3.313206E-04	8.046780E-06
6.241974E+03	3.341393E-04	7.970746E-06
6.251929E+03	3.371222E-04	7.909125E-06
6.261884E+03	3.402357E-04	7.862495E-06
6.271839E+03	3.434785E-04	7.832233E-06
6.281795E+03	3.468472E-04	7.819206E-06
6.291750E+03	3.503031E-04	7.822541E-06
6.301705E+03	3.539102E-04	7.843488E-06
6.311661E+03	3.576300E-04	7.880918E-06
6.321616E+03	3.614216E-04	7.933626E-06
6.331571E+03	3.653511E-04	8.002702E-06
6.341527E+03	3.693411E-04	8.086063E-06
6.351482E+03	3.734586E-04	8.184774E-06
6.361437E+03	3.776243E-04	8.296696E-06
6.371392E+03	3.818686E-04	8.422100E-06
6.381348E+03	3.862233E-04	8.561335E-06
6.391303E+03	3.906056E-04	8.712252E-06
6.401258E+03	3.950462E-04	8.875252E-06
6.411214E+03	3.995379E-04	9.049967E-06
6.421169E+03	4.040732E-04	9.236081E-06
6.431124E+03	4.086440E-04	9.433338E-06
6.441080E+03	4.132832E-04	9.642508E-06
6.451035E+03	4.179012E-04	9.861584E-06
6.460990E+03	4.225296E-04	1.009144E-05
6.470945E+03	4.271173E-04	1.033108E-05
6.480901E+03	4.317392E-04	1.058257E-05
6.490856E+03	4.363443E-04	1.084506E-05
6.500811E+03	4.409231E-04	1.111872E-05
6.510767E+03	4.454660E-04	1.140377E-05
6.520722E+03	4.499648E-04	1.170052E-05
6.530677E+03	4.543658E-04	1.200809E-05
6.540633E+03	4.587515E-04	1.232920E-05
6.550588E+03	4.630706E-04	1.266311E-05
6.560543E+03	4.672715E-04	1.300896E-05
6.570498E+03	4.714415E-04	1.336976E-05
6.580454E+03	4.754844E-04	1.374309E-05
6.590409E+03	4.794916E-04	1.413093E-05
6.600364E+03	4.833666E-04	1.452966E-05
6.610320E+03	4.872032E-04	1.494121E-05
6.620275E+03	4.909024E-04	1.536167E-05
6.630230E+03	4.945110E-04	1.579155E-05
6.640186E+03	4.980769E-04	1.623150E-05
6.650141E+03	5.014999E-04	1.667735E-05
6.660096E+03	5.048281E-04	1.712971E-05
6.670051E+03	5.081106E-04	1.758938E-05
6.680007E+03	5.112455E-04	1.805195E-05
6.689962E+03	5.142821E-04	1.851819E-05
6.699917E+03	5.172200E-04	1.898720E-05
6.709873E+03	5.200578E-04	1.945806E-05
6.719828E+03	5.227955E-04	1.992992E-05
6.729783E+03	5.254850E-04	2.040396E-05
6.739739E+03	5.280212E-04	2.087531E-05
6.749694E+03	5.304557E-04	2.134515E-05
6.759649E+03	5.327890E-04	2.181272E-05
6.769604E+03	5.349669E-04	2.227501E-05
6.779560E+03	5.370971E-04	2.273572E-05
6.789515E+03	5.391259E-04	2.319193E-05
6.799470E+03	5.410534E-04	2.364297E-05
6.809426E+03	5.428806E-04	2.408819E-05
6.819381E+03	5.446073E-04	2.452693E-05
6.829336E+03	5.461798E-04	2.495611E-05
6.839292E+03	5.477078E-04	2.538009E-05
6.849247E+03	5.491377E-04	2.579585E-05
6.859202E+03	5.504700E-04	2.620286E-05
6.869157E+03	5.516501E-04	2.659792E-05
6.879113E+03	5.527897E-04	2.698586E-05
6.889068E+03	5.537789E-04	2.736083E-05
6.899023E+03	5.547298E-04	2.772786E-05
6.908979E+03	5.555882E-04	2.808380E-05
6.918934E+03	5.562991E-04	2.842542E-05
6.928889E+03	5.569196E-04	2.875512E-05
6.938845E+03	5.575072E-04	2.907550E-05
6.948800E+03	5.579507E-04	2.938037E-05
6.958755E+03	5.583642E-04	2.967537E-05
6.968710E+03	5.586363E-04	2.995422E-05
6.978666E+03	5.588245E-04	3.021962E-05
6.988621E+03	5.589871E-04	3.047443E-05
6.998576E+03	5.590128E-04	3.071230E-05
7.008532E+03	5.589591E-04	3.093605E-05
7.018487E+03	5.588277E-04	3.114550E-05
7.028442E+03	5.586203E-04	3.134052E-05
7.038398E+03	5.583949E-04	3.152411E-05
7.048353E+03	5.580398E-04	3.168980E-05
7.058308E+03	5.576134E-04	3.184064E-05
7.068263E+03	5.571173E-04	3.197655E-05
7.078219E+03	5.565531E-04	3.209744E-05
7.088174E+03	5.559220E-04	3.220323E-05
7.098129E+03	5.552265E-04	3.229392E-05
7.108085E+03	5.544673E-04	3.236942E-05
7.118040E+03	5.535900E-04	3.242643E-05
7.127995E+03	5.527091E-04	3.247155E-05
7.137951E+03	5.517698E-04	3.250151E-05
7.147906E+03	5.507733E-04	3.251628E-05
7.157861E+03	5.496658E-04	3.251265E-05
7.167817E+03	5.485603E-04	3.249723E-05
7.177772E+03	5.474030E-04	3.246682E-05
7.187727E+03	5.461389E-04	3.241813E-05
7.197682E+03	5.448819E-04	3.235790E-05
7.207638E+03	5.435772E-04	3.228291E-05
7.217593E+03	5.421706E-04	3.218993E-05
7.227548E+03	5.407752E-04	3.208572E-05
7.237504E+03	5.392813E-04	3.196379E-05
7.247459E+03	5.377461E-04	3.182759E-05
7.257414E+03	5.362257E-04	3.168049E-05
7.267370E+03	5.346116E-04	3.151616E-05
7.277325E+03	5.329601E-04	3.133801E-05
7.287280E+03	5.313271E-04	3.114939E-05
7.297235E+03	5.296047E-04	3.094408E-05
7.307191E+03	5.278491E-04	3.072549E-05
7.317146E+03	5.260615E-04	3.049380E-05
7.327101E+03	5.242430E-04	3.024921E-05
7.337057E+03	5.223950E-04	2.999195E-05
7.347012E+03	5.205185E-04	2.972221E-05
7.356967E+03	5.186148E-04	2.944023E-05
7.366923E+03	5.166848E-04	2.914623E-05
7.376878E+03	5.147300E-04	2.884046E-05
7.386833E+03	5.127510E-04	2.852315E-05
7.396788E+03	5.107490E-04	2.819456E-05
7.406744E+03	5.086725E-04	2.785209E-05
7.416699E+03	5.066279E-04	2.750179E-05
7.426654E+03	5.045633E-04	2.714103E-05
7.436610E+03	5.024276E-04	2.676734E-05
7.446565E+03	5.003259E-04	2.638658E-05
7.456520E+03	4.981550E-04	2.599357E-05
7.466476E+03	4.960197E-04	2.559407E-05
7.476431E+03	4.938170E-04	2.518304E-05
7.486386E+03	4.916512E-04	2.476614E-05
7.496341E+03	4.894200E-04	2.433851E-05
7.506297E+03	4.871757E-04	2.390317E-05
7.516252E+03	4.849699E-04	2.346298E-05
7.526207E+03	4.827009E-04	2.301338E-05
7.536163E+03	4.804211E-04	2.255735E-05
7.546118E+03	4.781308E-04	2.209535E-05
7.556073E+03	4.758304E-04	2.162786E-05
7.566029E+03	4.735202E-04	2.115540E-05
7.575984E+03	4.712014E-04	2.067856E-05
7.585939E+03	4.688741E-04	2.019794E-05
7.595894E+03	4.665389E-04	1.971417E-05
7.605850E+03	4.641960E-04	1.922794E-05
7.615805E+03	4.617977E-04	1.873807E-05
7.625760E+03	4.594411E-04	1.824932E-05
7.635716E+03	4.570783E-04	1.776059E-05
7.645671E+03	4.546616E-04	1.727102E-05
7.655626E+03	4.522876E-04	1.678537E-05
7.665582E+03	4.498605E-04	1.630119E-05
7.675537E+03	4.474764E-04	1.582328E-05
7.685492E+03	4.450405E-04	1.534965E-05
7.695447E+03	4.426005E-04	1.488356E-05
7.705403E+03	4.402035E-04	1.442827E-05
7.715358E+03	4.377563E-04	1.398257E-05
7.725313E+03	4.353057E-04	1.355010E-05
