#wls	flux	fluxerr
1.592848E+03	1.074805E-16	4.174391E-18
1.632669E+03	1.121429E-16	4.328780E-18
1.672491E+03	1.165387E-16	4.470100E-18
1.712312E+03	1.205992E-16	4.595840E-18
1.752133E+03	1.242389E-16	4.702940E-18
1.791954E+03	1.272687E-16	4.784546E-18
1.831775E+03	1.293932E-16	4.830035E-18
1.871597E+03	1.303243E-16	4.829412E-18
1.911418E+03	1.297437E-16	4.771915E-18
1.951239E+03	1.274497E-16	4.651441E-18
1.991060E+03	1.235534E-16	4.473493E-18
2.030881E+03	1.187529E-16	4.264597E-18
2.070703E+03	1.144447E-16	4.075366E-18
2.110524E+03	1.125014E-16	3.971529E-18
2.150345E+03	1.146905E-16	4.012775E-18
2.190166E+03	1.219890E-16	4.229024E-18
2.229987E+03	1.343678E-16	4.614212E-18
2.269809E+03	1.509998E-16	5.134985E-18
2.309630E+03	1.707051E-16	5.747019E-18
2.349451E+03	1.923783E-16	6.409952E-18
2.389272E+03	2.152089E-16	7.094567E-18
2.429093E+03	2.387182E-16	7.783561E-18
2.468915E+03	2.627367E-16	8.470247E-18
2.508736E+03	2.872610E-16	9.153455E-18
2.548557E+03	3.124360E-16	9.836671E-18
2.588378E+03	3.384510E-16	1.052451E-17
2.628199E+03	3.655563E-16	1.122312E-17
2.668021E+03	3.940114E-16	1.193853E-17
2.707842E+03	4.241073E-16	1.267721E-17
2.747663E+03	4.561664E-16	1.344604E-17
2.787484E+03	4.905361E-16	1.425199E-17
2.827305E+03	5.276109E-16	1.510275E-17
2.867127E+03	5.678735E-16	1.600769E-17
2.906948E+03	6.118537E-16	1.697656E-17
2.946769E+03	6.602509E-16	1.802266E-17
2.986590E+03	7.138342E-16	1.915976E-17
2.996546E+03	7.281678E-16	1.946071E-17
3.006501E+03	7.428899E-16	1.976840E-17
3.016456E+03	7.580157E-16	2.008309E-17
3.026411E+03	7.736092E-16	2.040630E-17
3.036367E+03	7.897292E-16	2.073939E-17
3.046322E+03	8.064500E-16	2.108411E-17
3.056277E+03	8.238299E-16	2.144173E-17
3.066233E+03	8.418567E-16	2.181171E-17
3.076188E+03	8.605354E-16	2.219392E-17
3.086143E+03	8.799104E-16	2.258923E-17
3.096099E+03	8.999547E-16	2.299671E-17
3.106054E+03	9.206972E-16	2.341682E-17
3.116009E+03	9.421308E-16	2.384912E-17
3.125964E+03	9.643253E-16	2.429508E-17
3.135920E+03	9.872391E-16	2.475337E-17
3.145875E+03	1.010906E-15	2.522456E-17
3.155830E+03	1.035363E-15	2.570924E-17
3.165786E+03	1.060626E-15	2.620754E-17
3.175741E+03	1.086674E-15	2.671859E-17
3.185696E+03	1.113585E-15	2.724398E-17
3.195652E+03	1.141336E-15	2.778285E-17
3.205607E+03	1.169966E-15	2.833576E-17
3.215562E+03	1.199470E-15	2.890227E-17
3.225517E+03	1.229885E-15	2.948289E-17
3.235473E+03	1.261223E-15	3.007759E-17
3.245428E+03	1.293497E-15	3.068627E-17
3.255383E+03	1.326692E-15	3.130820E-17
3.265339E+03	1.360833E-15	3.194359E-17
3.275294E+03	1.395917E-15	3.259201E-17
3.285249E+03	1.431913E-15	3.325234E-17
3.295205E+03	1.468826E-15	3.392434E-17
3.305160E+03	1.506607E-15	3.460646E-17
3.315115E+03	1.545238E-15	3.529800E-17
3.325070E+03	1.584645E-15	3.599689E-17
3.335026E+03	1.624757E-15	3.670121E-17
3.344981E+03	1.665488E-15	3.740872E-17
3.354936E+03	1.706727E-15	3.811670E-17
3.364892E+03	1.748339E-15	3.882192E-17
3.374847E+03	1.790136E-15	3.952005E-17
3.384802E+03	1.831946E-15	4.020723E-17
3.394758E+03	1.873485E-15	4.087724E-17
3.404713E+03	1.914536E-15	4.152546E-17
3.414668E+03	1.954741E-15	4.214433E-17
3.424623E+03	1.993759E-15	4.272686E-17
3.434579E+03	2.031219E-15	4.326559E-17
3.444534E+03	2.066693E-15	4.375206E-17
3.454489E+03	2.099792E-15	4.417883E-17
3.464445E+03	2.130057E-15	4.453724E-17
3.474400E+03	2.157025E-15	4.481880E-17
3.484355E+03	2.180274E-15	4.501606E-17
3.494311E+03	2.199368E-15	4.512156E-17
3.504266E+03	2.213957E-15	4.512980E-17
3.514221E+03	2.223618E-15	4.503398E-17
3.524176E+03	2.228086E-15	4.483077E-17
3.534132E+03	2.227099E-15	4.451697E-17
3.544087E+03	2.220494E-15	4.409152E-17
3.554042E+03	2.208134E-15	4.355400E-17
3.563998E+03	2.190011E-15	4.290654E-17
3.573953E+03	2.166294E-15	4.215474E-17
3.583908E+03	2.137230E-15	4.130564E-17
3.593864E+03	2.103494E-15	4.037436E-17
3.603819E+03	2.065913E-15	3.937854E-17
3.613774E+03	2.025364E-15	3.833637E-17
3.623729E+03	1.982792E-15	3.726678E-17
3.633685E+03	1.939184E-15	3.618903E-17
3.643640E+03	1.895479E-15	3.512098E-17
3.653595E+03	1.852673E-15	3.408097E-17
3.663551E+03	1.811658E-15	3.308498E-17
3.673506E+03	1.773359E-15	3.214905E-17
3.683461E+03	1.738632E-15	3.128755E-17
3.693417E+03	1.708309E-15	3.051391E-17
3.703372E+03	1.683132E-15	2.983954E-17
3.713327E+03	1.663818E-15	2.927502E-17
3.723282E+03	1.651017E-15	2.882935E-17
3.733238E+03	1.645349E-15	2.851067E-17
3.743193E+03	1.647376E-15	2.832582E-17
3.753148E+03	1.657638E-15	2.828095E-17
3.763104E+03	1.676633E-15	2.838119E-17
3.773059E+03	1.704822E-15	2.863081E-17
3.783014E+03	1.742668E-15	2.903387E-17
3.792970E+03	1.790489E-15	2.959177E-17
3.802925E+03	1.848578E-15	3.030537E-17
3.812880E+03	1.917095E-15	3.117318E-17
3.822835E+03	1.995966E-15	3.218987E-17
3.832791E+03	2.084916E-15	3.334697E-17
3.842746E+03	2.183385E-15	3.463162E-17
3.852701E+03	2.290431E-15	3.602526E-17
3.862657E+03	2.404691E-15	3.750330E-17
3.872612E+03	2.524316E-15	3.903438E-17
3.882567E+03	2.647037E-15	4.058164E-17
3.892523E+03	2.770139E-15	4.210272E-17
3.902478E+03	2.890578E-15	4.355170E-17
3.912433E+03	3.005105E-15	4.488126E-17
3.922388E+03	3.110473E-15	4.604577E-17
3.932344E+03	3.203677E-15	4.700491E-17
3.942299E+03	3.282098E-15	4.772552E-17
3.952254E+03	3.343681E-15	4.818392E-17
3.962210E+03	3.387217E-15	4.836957E-17
3.972165E+03	3.412221E-15	4.828278E-17
3.982120E+03	3.419085E-15	4.793640E-17
3.992076E+03	3.408946E-15	4.735334E-17
4.002031E+03	3.383556E-15	4.656438E-17
4.011986E+03	3.345237E-15	4.560715E-17
4.021941E+03	3.296532E-15	4.452099E-17
4.031897E+03	3.240175E-15	4.334648E-17
4.041852E+03	3.178836E-15	4.212194E-17
4.051807E+03	3.115019E-15	4.088212E-17
4.061763E+03	3.050961E-15	3.965704E-17
4.071718E+03	2.988600E-15	3.847170E-17
4.081673E+03	2.929443E-15	3.734465E-17
4.091629E+03	2.874655E-15	3.628939E-17
4.101584E+03	2.825096E-15	3.531501E-17
4.111539E+03	2.781185E-15	3.442477E-17
4.121494E+03	2.743123E-15	3.361902E-17
4.131450E+03	2.710828E-15	3.289467E-17
4.141405E+03	2.683997E-15	3.224598E-17
4.151360E+03	2.662150E-15	3.166531E-17
4.161316E+03	2.644675E-15	3.114369E-17
4.171271E+03	2.630865E-15	3.067139E-17
4.181226E+03	2.619944E-15	3.023823E-17
4.191182E+03	2.611130E-15	2.983430E-17
4.201137E+03	2.603735E-15	2.945121E-17
4.211092E+03	2.597075E-15	2.908088E-17
4.221047E+03	2.590528E-15	2.871625E-17
4.231003E+03	2.583638E-15	2.835236E-17
4.240958E+03	2.575980E-15	2.798481E-17
4.250913E+03	2.567161E-15	2.760971E-17
4.260869E+03	2.557071E-15	2.722634E-17
4.270824E+03	2.545654E-15	2.683461E-17
4.280779E+03	2.532927E-15	2.643519E-17
4.290735E+03	2.519090E-15	2.603061E-17
4.300690E+03	2.504352E-15	2.562342E-17
4.310645E+03	2.488957E-15	2.521643E-17
4.320601E+03	2.473040E-15	2.481119E-17
4.330556E+03	2.456714E-15	2.440890E-17
4.340511E+03	2.439850E-15	2.400834E-17
4.350466E+03	2.422141E-15	2.360654E-17
4.360422E+03	2.403280E-15	2.320071E-17
4.370377E+03	2.383292E-15	2.279129E-17
4.380332E+03	2.363309E-15	2.238920E-17
4.390288E+03	2.345669E-15	2.201628E-17
4.400243E+03	2.332810E-15	2.169448E-17
4.410198E+03	2.326825E-15	2.144179E-17
4.420154E+03	2.329455E-15	2.127233E-17
4.430109E+03	2.341970E-15	2.119544E-17
4.440064E+03	2.365128E-15	2.121555E-17
4.450019E+03	2.399219E-15	2.133277E-17
4.459975E+03	2.444004E-15	2.154258E-17
4.469930E+03	2.498880E-15	2.183742E-17
4.479885E+03	2.562701E-15	2.220535E-17
4.489841E+03	2.633822E-15	2.263050E-17
4.499796E+03	2.710387E-15	2.309581E-17
4.509751E+03	2.790119E-15	2.358122E-17
4.519707E+03	2.870388E-15	2.406439E-17
4.529662E+03	2.948572E-15	2.452377E-17
4.539617E+03	3.021878E-15	2.493711E-17
4.549572E+03	3.087460E-15	2.528238E-17
4.559528E+03	3.142887E-15	2.554162E-17
4.569483E+03	3.185770E-15	2.569772E-17
4.579438E+03	3.214025E-15	2.573647E-17
4.589394E+03	3.226394E-15	2.565061E-17
4.599349E+03	3.221986E-15	2.543592E-17
4.609304E+03	3.200290E-15	2.509118E-17
4.619260E+03	3.162047E-15	2.462492E-17
4.629215E+03	3.108251E-15	2.404727E-17
4.639170E+03	3.040530E-15	2.337290E-17
4.649125E+03	2.961355E-15	2.262245E-17
4.659081E+03	2.873416E-15	2.181763E-17
4.669036E+03	2.779460E-15	2.098000E-17
4.678991E+03	2.682593E-15	2.013324E-17
4.688947E+03	2.585666E-15	1.929854E-17
4.698902E+03	2.490858E-15	1.849162E-17
4.708857E+03	2.399767E-15	1.772339E-17
4.718813E+03	2.313273E-15	1.699928E-17
4.728768E+03	2.231226E-15	1.631710E-17
4.738723E+03	2.152414E-15	1.566705E-17
4.748678E+03	2.075139E-15	1.503600E-17
4.758634E+03	1.997909E-15	1.441258E-17
4.768589E+03	1.920290E-15	1.379327E-17
4.778544E+03	1.845463E-15	1.320044E-17
4.788500E+03	1.777254E-15	1.266075E-17
4.798455E+03	1.718101E-15	1.219060E-17
4.808410E+03	1.669545E-15	1.179984E-17
4.818366E+03	1.632407E-15	1.149314E-17
4.828321E+03	1.606391E-15	1.126731E-17
4.838276E+03	1.590647E-15	1.111536E-17
4.848231E+03	1.584083E-15	1.102875E-17
4.858187E+03	1.585459E-15	1.099804E-17
4.868142E+03	1.593334E-15	1.101256E-17
4.878097E+03	1.606188E-15	1.106127E-17
4.888053E+03	1.622484E-15	1.113313E-17
4.898008E+03	1.640712E-15	1.121750E-17
4.907963E+03	1.659449E-15	1.130442E-17
4.917919E+03	1.677667E-15	1.138680E-17
4.927874E+03	1.694611E-15	1.145949E-17
4.937829E+03	1.709756E-15	1.151896E-17
4.947784E+03	1.723140E-15	1.156551E-17
4.957740E+03	1.735016E-15	1.160090E-17
4.967695E+03	1.745819E-15	1.162807E-17
4.977650E+03	1.756228E-15	1.165153E-17
4.987606E+03	1.767018E-15	1.167637E-17
4.997561E+03	1.778834E-15	1.170677E-17
5.007516E+03	1.792324E-15	1.174682E-17
5.017472E+03	1.808007E-15	1.179972E-17
5.027427E+03	1.826191E-15	1.186725E-17
5.037382E+03	1.847066E-15	1.195039E-17
5.047337E+03	1.870660E-15	1.204903E-17
5.057293E+03	1.896858E-15	1.216218E-17
5.067248E+03	1.925462E-15	1.228829E-17
5.077203E+03	1.956214E-15	1.242549E-17
5.087159E+03	1.988843E-15	1.257185E-17
5.097114E+03	2.023080E-15	1.272546E-17
5.107069E+03	2.058757E-15	1.288513E-17
5.117025E+03	2.095647E-15	1.304929E-17
5.126980E+03	2.133746E-15	1.321781E-17
5.136935E+03	2.173039E-15	1.339049E-17
5.146890E+03	2.213555E-15	1.356742E-17
5.156846E+03	2.255377E-15	1.374902E-17
5.166801E+03	2.298549E-15	1.393548E-17
5.176756E+03	2.343061E-15	1.412667E-17
5.186712E+03	2.388749E-15	1.432155E-17
5.196667E+03	2.435398E-15	1.451882E-17
5.206622E+03	2.482521E-15	1.471561E-17
5.216578E+03	2.529500E-15	1.490836E-17
5.226533E+03	2.575564E-15	1.509273E-17
5.236488E+03	2.619866E-15	1.526405E-17
5.246443E+03	2.661423E-15	1.541700E-17
5.256399E+03	2.699354E-15	1.554699E-17
5.266354E+03	2.732803E-15	1.564973E-17
5.276309E+03	2.761038E-15	1.572173E-17
5.286265E+03	2.783447E-15	1.576031E-17
5.296220E+03	2.799634E-15	1.576404E-17
5.306175E+03	2.809237E-15	1.573177E-17
5.316131E+03	2.812107E-15	1.566355E-17
5.326086E+03	2.808219E-15	1.556009E-17
5.336041E+03	2.797688E-15	1.542289E-17
5.345996E+03	2.780658E-15	1.525351E-17
5.355952E+03	2.757525E-15	1.505488E-17
5.365907E+03	2.728745E-15	1.483012E-17
5.375862E+03	2.694912E-15	1.458303E-17
5.385818E+03	2.656715E-15	1.431780E-17
5.395773E+03	2.615055E-15	1.403965E-17
5.405728E+03	2.571000E-15	1.375455E-17
5.415684E+03	2.525744E-15	1.346903E-17
5.425639E+03	2.480931E-15	1.319189E-17
5.435594E+03	2.438259E-15	1.293208E-17
5.445549E+03	2.399725E-15	1.270001E-17
5.455505E+03	2.368295E-15	1.251082E-17
5.465460E+03	2.346201E-15	1.237566E-17
5.475415E+03	2.333584E-15	1.229466E-17
5.485371E+03	2.327998E-15	1.225444E-17
5.495326E+03	2.325787E-15	1.223538E-17
5.505281E+03	2.323017E-15	1.221646E-17
5.515237E+03	2.317100E-15	1.218379E-17
5.525192E+03	2.306032E-15	1.212656E-17
5.535147E+03	2.288441E-15	1.203722E-17
5.545102E+03	2.263836E-15	1.191284E-17
5.555058E+03	2.232375E-15	1.175390E-17
5.565013E+03	2.194675E-15	1.156326E-17
5.574968E+03	2.151900E-15	1.134667E-17
5.584924E+03	2.105460E-15	1.111124E-17
5.594879E+03	2.056999E-15	1.086531E-17
5.604834E+03	2.008252E-15	1.061778E-17
5.614790E+03	1.960940E-15	1.037752E-17
5.624745E+03	1.916711E-15	1.015310E-17
5.634700E+03	1.876995E-15	9.951968E-18
5.644655E+03	1.843088E-15	9.780920E-18
5.654611E+03	1.816072E-15	9.645651E-18
5.664566E+03	1.796713E-15	9.550202E-18
5.674521E+03	1.785573E-15	9.497542E-18
5.684477E+03	1.783012E-15	9.489563E-18
5.694432E+03	1.789143E-15	9.526830E-18
5.704387E+03	1.803810E-15	9.608454E-18
5.714343E+03	1.826748E-15	9.732948E-18
5.724298E+03	1.857395E-15	9.897190E-18
5.734253E+03	1.894962E-15	1.009684E-17
5.744209E+03	1.938516E-15	1.032673E-17
5.754164E+03	1.986911E-15	1.058054E-17
5.764119E+03	2.038769E-15	1.085073E-17
5.774074E+03	2.092564E-15	1.112894E-17
5.784030E+03	2.146684E-15	1.140636E-17
5.793985E+03	2.199346E-15	1.167332E-17
5.803940E+03	2.248851E-15	1.192065E-17
5.813896E+03	2.293620E-15	1.213988E-17
5.823851E+03	2.332279E-15	1.232369E-17
5.833806E+03	2.363773E-15	1.246657E-17
5.843762E+03	2.387375E-15	1.256481E-17
5.853717E+03	2.402849E-15	1.261736E-17
5.863672E+03	2.410233E-15	1.262472E-17
5.873627E+03	2.409914E-15	1.258922E-17
5.883583E+03	2.402542E-15	1.251463E-17
5.893538E+03	2.388941E-15	1.240564E-17
5.903493E+03	2.370008E-15	1.226729E-17
5.913449E+03	2.346607E-15	1.210446E-17
5.923404E+03	2.319645E-15	1.192221E-17
5.933359E+03	2.289937E-15	1.172507E-17
5.943315E+03	2.258196E-15	1.151705E-17
5.953270E+03	2.225001E-15	1.130140E-17
5.963225E+03	2.190890E-15	1.108115E-17
5.973180E+03	2.156169E-15	1.085811E-17
5.983136E+03	2.121195E-15	1.063432E-17
5.993091E+03	2.086034E-15	1.041036E-17
6.003046E+03	2.050722E-15	1.018662E-17
6.013002E+03	2.015213E-15	9.963125E-18
6.022957E+03	1.979313E-15	9.739141E-18
6.032912E+03	1.942803E-15	9.513844E-18
6.042868E+03	1.905460E-15	9.286399E-18
6.052823E+03	1.867290E-15	9.057099E-18
6.062778E+03	1.828328E-15	8.826362E-18
6.072733E+03	1.788946E-15	8.596228E-18
6.082689E+03	1.749851E-15	8.370276E-18
6.092644E+03	1.711965E-15	8.153043E-18
6.102599E+03	1.676420E-15	7.949980E-18
6.112555E+03	1.644678E-15	7.767983E-18
6.122510E+03	1.618168E-15	7.613717E-18
6.132465E+03	1.598170E-15	7.493034E-18
6.142421E+03	1.585686E-15	7.410470E-18
6.152376E+03	1.581230E-15	7.368257E-18
6.162331E+03	1.584682E-15	7.365696E-18
6.172286E+03	1.594863E-15	7.397150E-18
6.182242E+03	1.609603E-15	7.452493E-18
6.192197E+03	1.625528E-15	7.516182E-18
6.202152E+03	1.638071E-15	7.567265E-18
6.212108E+03	1.642942E-15	7.586125E-18
6.222063E+03	1.639197E-15	7.568562E-18
6.232018E+03	1.629558E-15	7.527205E-18
6.241974E+03	1.617878E-15	7.479845E-18
6.251929E+03	1.607936E-15	7.443950E-18
6.261884E+03	1.601500E-15	7.427754E-18
6.271839E+03	1.599549E-15	7.435922E-18
6.281795E+03	1.602618E-15	7.471154E-18
6.291750E+03	1.610481E-15	7.532663E-18
6.301705E+03	1.622415E-15	7.617395E-18
6.311661E+03	1.637452E-15	7.721148E-18
6.321616E+03	1.654446E-15	7.838839E-18
6.331571E+03	1.672022E-15	7.964225E-18
6.341527E+03	1.688831E-15	8.091056E-18
6.351482E+03	1.703751E-15	8.214027E-18
6.361437E+03	1.715753E-15	8.328031E-18
6.371392E+03	1.723987E-15	8.428496E-18
6.381348E+03	1.728262E-15	8.513873E-18
6.391303E+03	1.728537E-15	8.583288E-18
6.401258E+03	1.725032E-15	8.637105E-18
6.411214E+03	1.718381E-15	8.677764E-18
6.421169E+03	1.709354E-15	8.708494E-18
6.431124E+03	1.698778E-15	8.732925E-18
6.441080E+03	1.687479E-15	8.754826E-18
6.451035E+03	1.676293E-15	8.778195E-18
6.460990E+03	1.665918E-15	8.806448E-18
6.470945E+03	1.656980E-15	8.842785E-18
6.480901E+03	1.649990E-15	8.889939E-18
6.490856E+03	1.645399E-15	8.950422E-18
6.500811E+03	1.643584E-15	9.026459E-18
6.510767E+03	1.644680E-15	9.119035E-18
6.520722E+03	1.648557E-15	9.227681E-18
6.530677E+03	1.654970E-15	9.351275E-18
6.540633E+03	1.663657E-15	9.488544E-18
6.550588E+03	1.674257E-15	9.637595E-18
6.560543E+03	1.686341E-15	9.796065E-18
6.570498E+03	1.699458E-15	9.961385E-18
6.580454E+03	1.713096E-15	1.013051E-17
6.590409E+03	1.726642E-15	1.029971E-17
6.600364E+03	1.739538E-15	1.046543E-17
6.610320E+03	1.751188E-15	1.062382E-17
6.620275E+03	1.761110E-15	1.077158E-17
6.630230E+03	1.768772E-15	1.090501E-17
6.640186E+03	1.773779E-15	1.102121E-17
6.650141E+03	1.775853E-15	1.111791E-17
6.660096E+03	1.774796E-15	1.119334E-17
6.670051E+03	1.770492E-15	1.124623E-17
6.680007E+03	1.762956E-15	1.127616E-17
6.689962E+03	1.752353E-15	1.128368E-17
6.699917E+03	1.738881E-15	1.126965E-17
6.709873E+03	1.722867E-15	1.123580E-17
6.719828E+03	1.704619E-15	1.118383E-17
6.729783E+03	1.684616E-15	1.111664E-17
6.739739E+03	1.663229E-15	1.103651E-17
6.749694E+03	1.640967E-15	1.094670E-17
6.759649E+03	1.618217E-15	1.084978E-17
6.769604E+03	1.595426E-15	1.074873E-17
6.779560E+03	1.572993E-15	1.064631E-17
6.789515E+03	1.551274E-15	1.054504E-17
6.799470E+03	1.530647E-15	1.044762E-17
6.809426E+03	1.511409E-15	1.035624E-17
6.819381E+03	1.493877E-15	1.027325E-17
6.829336E+03	1.478227E-15	1.020005E-17
6.839292E+03	1.464711E-15	1.013856E-17
6.849247E+03	1.453452E-15	1.008982E-17
6.859202E+03	1.444550E-15	1.005472E-17
6.869157E+03	1.438034E-15	1.003359E-17
6.879113E+03	1.433963E-15	1.002701E-17
6.889068E+03	1.432197E-15	1.003411E-17
6.899023E+03	1.432710E-15	1.005480E-17
6.908979E+03	1.435290E-15	1.008769E-17
6.918934E+03	1.439731E-15	1.013135E-17
6.928889E+03	1.445816E-15	1.018430E-17
6.938845E+03	1.453239E-15	1.024439E-17
6.948800E+03	1.461684E-15	1.030937E-17
6.958755E+03	1.470809E-15	1.037683E-17
6.968710E+03	1.480262E-15	1.044423E-17
6.978666E+03	1.489668E-15	1.050892E-17
6.988621E+03	1.498630E-15	1.056805E-17
6.998576E+03	1.506846E-15	1.061950E-17
7.008532E+03	1.513886E-15	1.066022E-17
7.018487E+03	1.519528E-15	1.068866E-17
7.028442E+03	1.523413E-15	1.070234E-17
7.038398E+03	1.525377E-15	1.070016E-17
7.048353E+03	1.525226E-15	1.068087E-17
7.058308E+03	1.522874E-15	1.064396E-17
7.068263E+03	1.518335E-15	1.058968E-17
7.078219E+03	1.511625E-15	1.051829E-17
7.088174E+03	1.502941E-15	1.043136E-17
7.098129E+03	1.492502E-15	1.033057E-17
7.108085E+03	1.480657E-15	1.021853E-17
7.118040E+03	1.467769E-15	1.009794E-17
7.127995E+03	1.454183E-15	9.971317E-18
7.137951E+03	1.440302E-15	9.841581E-18
7.147906E+03	1.426411E-15	9.710808E-18
7.157861E+03	1.412850E-15	9.581412E-18
7.167817E+03	1.399816E-15	9.454815E-18
7.177772E+03	1.387453E-15	9.332045E-18
7.187727E+03	1.375883E-15	9.213983E-18
7.197682E+03	1.365149E-15	9.100952E-18
7.207638E+03	1.355227E-15	8.992818E-18
7.217593E+03	1.346078E-15	8.889360E-18
7.227548E+03	1.337642E-15	8.790215E-18
7.237504E+03	1.329847E-15	8.694946E-18
7.247459E+03	1.322612E-15	8.603068E-18
7.257414E+03	1.315804E-15	8.513773E-18
7.267370E+03	1.309406E-15	8.427012E-18
7.277325E+03	1.303316E-15	8.342197E-18
7.287280E+03	1.297445E-15	8.258841E-18
7.297235E+03	1.291770E-15	8.176880E-18
7.307191E+03	1.286177E-15	8.095693E-18
7.317146E+03	1.280619E-15	8.015090E-18
7.327101E+03	1.275054E-15	7.934916E-18
7.337057E+03	1.269388E-15	7.854712E-18
7.347012E+03	1.263592E-15	7.774423E-18
7.356967E+03	1.257542E-15	7.693418E-18
7.366923E+03	1.251225E-15	7.611769E-18
7.376878E+03	1.244543E-15	7.529021E-18
7.386833E+03	1.237493E-15	7.445315E-18
7.396788E+03	1.229999E-15	7.360342E-18
7.406744E+03	1.222032E-15	7.274088E-18
7.416699E+03	1.213623E-15	7.186883E-18
7.426654E+03	1.204748E-15	7.098734E-18
7.436610E+03	1.195515E-15	7.010416E-18
7.446565E+03	1.185930E-15	6.922082E-18
7.456520E+03	1.176120E-15	6.834511E-18
7.466476E+03	1.166157E-15	6.748082E-18
7.476431E+03	1.156240E-15	6.663870E-18
7.486386E+03	1.146484E-15	6.582474E-18
7.496341E+03	1.137052E-15	6.504749E-18
7.506297E+03	1.128131E-15	6.431671E-18
7.516252E+03	1.119830E-15	6.363784E-18
7.526207E+03	1.112296E-15	6.301818E-18
7.536163E+03	1.105537E-15	6.245743E-18
7.546118E+03	1.099531E-15	6.195345E-18
7.556073E+03	1.094220E-15	6.150223E-18
7.566029E+03	1.089492E-15	6.109696E-18
7.575984E+03	1.085299E-15	6.073434E-18
7.585939E+03	1.081539E-15	6.040835E-18
7.595894E+03	1.078097E-15	6.011214E-18
7.605850E+03	1.074778E-15	5.983467E-18
7.615805E+03	1.071524E-15	5.957264E-18
7.625760E+03	1.068221E-15	5.931957E-18
7.635716E+03	1.064904E-15	5.907736E-18
7.645671E+03	1.061535E-15	5.884397E-18
7.655626E+03	1.058196E-15	5.862400E-18
7.665582E+03	1.054918E-15	5.841929E-18
7.675537E+03	1.051776E-15	5.823399E-18
7.685492E+03	1.048849E-15	5.807276E-18
7.695447E+03	1.046225E-15	5.794059E-18
7.705403E+03	1.043982E-15	5.784222E-18
7.715358E+03	1.042162E-15	5.778016E-18
7.725313E+03	1.040853E-15	5.775976E-18
