#wls	flux	fluxerr
1.592848E+03	1.083420E-16	3.532459E-18
1.632669E+03	1.130005E-16	3.661474E-18
1.672491E+03	1.173852E-16	3.779256E-18
1.712312E+03	1.214267E-16	3.883692E-18
1.752133E+03	1.250395E-16	3.972215E-18
1.791954E+03	1.280335E-16	4.039053E-18
1.831775E+03	1.301123E-16	4.075278E-18
1.871597E+03	1.309876E-16	4.072509E-18
1.911418E+03	1.303414E-16	4.021743E-18
1.951239E+03	1.279733E-16	3.917924E-18
1.991060E+03	1.239976E-16	3.765786E-18
2.030881E+03	1.191172E-16	3.587741E-18
2.070703E+03	1.147339E-16	3.426399E-18
2.110524E+03	1.127235E-16	3.336969E-18
2.150345E+03	1.148524E-16	3.369440E-18
2.190166E+03	1.220913E-16	3.548684E-18
2.229987E+03	1.344023E-16	3.869329E-18
2.269809E+03	1.509498E-16	4.303142E-18
2.309630E+03	1.705473E-16	4.812778E-18
2.349451E+03	1.920859E-16	5.364312E-18
2.389272E+03	2.147533E-16	5.933237E-18
2.429093E+03	2.380709E-16	6.505076E-18
2.468915E+03	2.618690E-16	7.074264E-18
2.508736E+03	2.861447E-16	7.639871E-18
2.548557E+03	3.110429E-16	8.204856E-18
2.588378E+03	3.367526E-16	8.773124E-18
2.628199E+03	3.635232E-16	9.349859E-18
2.668021E+03	3.916137E-16	9.940137E-18
2.707842E+03	4.213142E-16	1.054941E-17
2.747663E+03	4.529453E-16	1.118346E-17
2.787484E+03	4.868533E-16	1.184818E-17
2.827305E+03	5.234298E-16	1.255000E-17
2.867127E+03	5.631547E-16	1.329679E-17
2.906948E+03	6.065517E-16	1.409668E-17
2.946769E+03	6.543117E-16	1.496073E-17
2.986590E+03	7.071924E-16	1.590037E-17
2.996546E+03	7.213379E-16	1.614913E-17
3.006501E+03	7.358658E-16	1.640346E-17
3.016456E+03	7.507918E-16	1.666359E-17
3.026411E+03	7.661784E-16	1.693077E-17
3.036367E+03	7.820838E-16	1.720615E-17
3.046322E+03	7.985802E-16	1.749113E-17
3.056277E+03	8.157264E-16	1.778680E-17
3.066233E+03	8.335080E-16	1.809266E-17
3.076188E+03	8.519308E-16	1.840863E-17
3.086143E+03	8.710371E-16	1.873541E-17
3.096099E+03	8.907996E-16	1.907220E-17
3.106054E+03	9.112455E-16	1.941937E-17
3.116009E+03	9.323673E-16	1.977654E-17
3.125964E+03	9.542324E-16	2.014493E-17
3.135920E+03	9.767979E-16	2.052338E-17
3.145875E+03	1.000097E-15	2.091235E-17
3.155830E+03	1.024162E-15	2.131231E-17
3.165786E+03	1.049009E-15	2.172332E-17
3.175741E+03	1.074614E-15	2.214463E-17
3.185696E+03	1.101051E-15	2.257752E-17
3.195652E+03	1.128295E-15	2.302120E-17
3.205607E+03	1.156382E-15	2.347613E-17
3.215562E+03	1.185302E-15	2.394186E-17
3.225517E+03	1.215088E-15	2.441875E-17
3.235473E+03	1.245749E-15	2.490673E-17
3.245428E+03	1.277292E-15	2.540561E-17
3.255383E+03	1.309697E-15	2.591471E-17
3.265339E+03	1.342982E-15	2.643414E-17
3.275294E+03	1.377141E-15	2.696345E-17
3.285249E+03	1.412134E-15	2.750159E-17
3.295205E+03	1.447962E-15	2.804828E-17
3.305160E+03	1.484566E-15	2.860214E-17
3.315115E+03	1.521925E-15	2.916248E-17
3.325070E+03	1.559957E-15	2.972748E-17
3.335026E+03	1.598584E-15	3.029546E-17
3.344981E+03	1.637714E-15	3.086447E-17
3.354936E+03	1.677232E-15	3.143217E-17
3.364892E+03	1.717000E-15	3.199586E-17
3.374847E+03	1.756826E-15	3.255191E-17
3.384802E+03	1.796541E-15	3.309715E-17
3.394758E+03	1.835868E-15	3.362653E-17
3.404713E+03	1.874599E-15	3.413640E-17
3.414668E+03	1.912391E-15	3.462073E-17
3.424623E+03	1.948924E-15	3.507403E-17
3.434579E+03	1.983849E-15	3.549048E-17
3.444534E+03	2.016768E-15	3.586353E-17
3.454489E+03	2.047322E-15	3.618744E-17
3.464445E+03	2.075088E-15	3.645555E-17
3.474400E+03	2.099640E-15	3.666136E-17
3.484355E+03	2.120593E-15	3.679919E-17
3.494311E+03	2.137549E-15	3.686335E-17
3.504266E+03	2.150192E-15	3.684976E-17
3.514221E+03	2.158139E-15	3.675327E-17
3.524176E+03	2.161157E-15	3.657149E-17
3.534132E+03	2.159016E-15	3.630216E-17
3.544087E+03	2.151575E-15	3.594461E-17
3.554042E+03	2.138719E-15	3.549867E-17
3.563998E+03	2.120450E-15	3.496615E-17
3.573953E+03	2.096936E-15	3.435158E-17
3.583908E+03	2.068436E-15	3.366091E-17
3.593864E+03	2.035617E-15	3.290656E-17
3.603819E+03	1.999299E-15	3.210308E-17
3.613774E+03	1.960349E-15	3.126551E-17
3.623729E+03	1.919691E-15	3.040932E-17
3.633685E+03	1.878277E-15	2.955004E-17
3.643640E+03	1.837005E-15	2.870197E-17
3.653595E+03	1.796817E-15	2.787968E-17
3.663551E+03	1.758541E-15	2.709559E-17
3.673506E+03	1.723031E-15	2.636213E-17
3.683461E+03	1.691071E-15	2.569033E-17
3.693417E+03	1.663413E-15	2.509041E-17
3.703372E+03	1.640722E-15	2.457092E-17
3.713327E+03	1.623648E-15	2.413991E-17
3.723282E+03	1.612775E-15	2.380421E-17
3.733238E+03	1.608665E-15	2.357004E-17
3.743193E+03	1.611823E-15	2.344258E-17
3.753148E+03	1.622728E-15	2.342641E-17
3.763104E+03	1.641813E-15	2.352522E-17
3.773059E+03	1.669471E-15	2.374199E-17
3.783014E+03	1.706092E-15	2.407950E-17
3.792970E+03	1.751918E-15	2.453826E-17
3.802925E+03	1.807161E-15	2.511829E-17
3.812880E+03	1.871905E-15	2.581774E-17
3.822835E+03	1.946001E-15	2.663160E-17
3.832791E+03	2.029117E-15	2.755237E-17
3.842746E+03	2.120658E-15	2.856923E-17
3.852701E+03	2.219682E-15	2.966696E-17
3.862657E+03	2.324876E-15	3.082584E-17
3.872612E+03	2.434503E-15	3.202115E-17
3.882567E+03	2.546464E-15	3.322419E-17
3.892523E+03	2.658284E-15	3.440226E-17
3.902478E+03	2.767235E-15	3.552055E-17
3.912433E+03	2.870423E-15	3.654320E-17
3.922388E+03	2.964960E-15	3.743572E-17
3.932344E+03	3.048271E-15	3.816869E-17
3.942299E+03	3.118111E-15	3.871788E-17
3.952254E+03	3.172702E-15	3.906573E-17
3.962210E+03	3.211088E-15	3.920544E-17
3.972165E+03	3.232909E-15	3.913776E-17
3.982120E+03	3.238525E-15	3.887227E-17
3.992076E+03	3.228974E-15	3.842636E-17
4.002031E+03	3.205798E-15	3.782296E-17
4.011986E+03	3.171014E-15	3.708987E-17
4.021941E+03	3.126840E-15	3.625638E-17
4.031897E+03	3.075662E-15	3.535276E-17
4.041852E+03	3.019803E-15	3.440762E-17
4.051807E+03	2.961460E-15	3.344713E-17
4.061763E+03	2.902608E-15	3.249415E-17
4.071718E+03	2.844958E-15	3.156779E-17
4.081673E+03	2.789863E-15	3.068253E-17
4.091629E+03	2.738379E-15	2.984912E-17
4.101584E+03	2.691303E-15	2.907508E-17
4.111539E+03	2.649045E-15	2.836350E-17
4.121494E+03	2.611826E-15	2.771531E-17
4.131450E+03	2.579616E-15	2.712877E-17
4.141405E+03	2.552188E-15	2.660007E-17
4.151360E+03	2.529143E-15	2.612377E-17
4.161316E+03	2.509968E-15	2.569339E-17
4.171271E+03	2.494084E-15	2.530204E-17
4.181226E+03	2.480854E-15	2.494242E-17
4.191182E+03	2.469633E-15	2.460744E-17
4.201137E+03	2.459850E-15	2.429096E-17
4.211092E+03	2.450957E-15	2.398729E-17
4.221047E+03	2.442477E-15	2.369163E-17
4.231003E+03	2.434061E-15	2.340057E-17
4.240958E+03	2.425417E-15	2.311136E-17
4.250913E+03	2.416300E-15	2.282181E-17
4.260869E+03	2.406655E-15	2.253158E-17
4.270824E+03	2.396495E-15	2.224097E-17
4.280779E+03	2.385907E-15	2.195094E-17
4.290735E+03	2.375054E-15	2.166315E-17
4.300690E+03	2.364109E-15	2.137927E-17
4.310645E+03	2.353267E-15	2.110109E-17
4.320601E+03	2.342521E-15	2.082855E-17
4.330556E+03	2.331844E-15	2.056132E-17
4.340511E+03	2.320986E-15	2.029713E-17
4.350466E+03	2.309463E-15	2.003175E-17
4.360422E+03	2.296774E-15	1.976094E-17
4.370377E+03	2.282782E-15	1.948368E-17
4.380332E+03	2.268394E-15	1.920786E-17
4.390288E+03	2.255713E-15	1.895112E-17
4.400243E+03	2.246980E-15	1.873175E-17
4.410198E+03	2.244058E-15	1.856432E-17
4.420154E+03	2.248496E-15	1.846039E-17
4.430109E+03	2.261413E-15	1.842770E-17
4.440064E+03	2.283404E-15	1.846952E-17
4.450019E+03	2.314661E-15	1.858579E-17
4.459975E+03	2.354933E-15	1.877298E-17
4.469930E+03	2.403602E-15	1.902473E-17
4.479885E+03	2.459641E-15	1.933168E-17
4.489841E+03	2.521653E-15	1.968188E-17
4.499796E+03	2.587939E-15	2.006136E-17
4.509751E+03	2.656516E-15	2.045437E-17
4.519707E+03	2.725191E-15	2.084398E-17
4.529662E+03	2.791647E-15	2.121277E-17
4.539617E+03	2.853489E-15	2.154320E-17
4.549572E+03	2.908354E-15	2.181840E-17
4.559528E+03	2.954072E-15	2.202333E-17
4.569483E+03	2.988585E-15	2.214417E-17
4.579438E+03	3.010217E-15	2.217021E-17
4.589394E+03	3.017813E-15	2.209475E-17
4.599349E+03	3.010686E-15	2.191463E-17
4.609304E+03	2.988629E-15	2.163022E-17
4.619260E+03	2.952263E-15	2.124774E-17
4.629215E+03	2.902555E-15	2.077573E-17
4.639170E+03	2.841151E-15	2.022731E-17
4.649125E+03	2.770126E-15	1.961833E-17
4.659081E+03	2.691828E-15	1.896619E-17
4.669036E+03	2.608709E-15	1.828860E-17
4.678991E+03	2.523228E-15	1.760298E-17
4.688947E+03	2.437680E-15	1.692522E-17
4.698902E+03	2.353842E-15	1.626731E-17
4.708857E+03	2.272948E-15	1.563720E-17
4.718813E+03	2.195691E-15	1.503899E-17
4.728768E+03	2.121921E-15	1.447101E-17
4.738723E+03	2.050606E-15	1.392564E-17
4.748678E+03	1.980283E-15	1.339248E-17
4.758634E+03	1.909816E-15	1.286356E-17
4.768589E+03	1.839288E-15	1.233919E-17
4.778544E+03	1.771087E-15	1.183511E-17
4.788500E+03	1.708213E-15	1.137091E-17
4.798455E+03	1.652879E-15	1.096067E-17
4.808410E+03	1.606470E-15	1.061281E-17
4.818366E+03	1.569706E-15	1.033127E-17
4.828321E+03	1.542497E-15	1.011463E-17
4.838276E+03	1.524253E-15	9.958258E-18
4.848231E+03	1.514150E-15	9.856041E-18
4.858187E+03	1.511171E-15	9.800738E-18
4.868142E+03	1.514164E-15	9.784324E-18
4.878097E+03	1.521941E-15	9.798677E-18
4.888053E+03	1.533192E-15	9.834993E-18
4.898008E+03	1.546676E-15	9.885037E-18
4.907963E+03	1.561269E-15	9.941449E-18
4.917919E+03	1.576064E-15	9.998334E-18
4.927874E+03	1.590409E-15	1.005152E-17
4.937829E+03	1.603876E-15	1.009828E-17
4.947784E+03	1.616379E-15	1.013810E-17
4.957740E+03	1.628032E-15	1.017172E-17
4.967695E+03	1.639136E-15	1.020103E-17
4.977650E+03	1.650139E-15	1.022881E-17
4.987606E+03	1.661606E-15	1.025853E-17
4.997561E+03	1.674026E-15	1.029313E-17
5.007516E+03	1.687870E-15	1.033538E-17
5.017472E+03	1.703543E-15	1.038762E-17
5.027427E+03	1.721305E-15	1.045127E-17
5.037382E+03	1.741309E-15	1.052708E-17
5.047337E+03	1.763598E-15	1.061509E-17
5.057293E+03	1.788117E-15	1.071479E-17
5.067248E+03	1.814694E-15	1.082496E-17
5.077203E+03	1.843120E-15	1.094417E-17
5.087159E+03	1.873184E-15	1.107103E-17
5.097114E+03	1.904632E-15	1.120389E-17
5.107069E+03	1.937303E-15	1.134171E-17
5.117025E+03	1.970985E-15	1.148315E-17
5.126980E+03	2.005651E-15	1.162799E-17
5.136935E+03	2.041265E-15	1.177596E-17
5.146890E+03	2.077840E-15	1.192709E-17
5.156846E+03	2.115416E-15	1.208156E-17
5.166801E+03	2.154013E-15	1.223945E-17
5.176756E+03	2.193616E-15	1.240063E-17
5.186712E+03	2.234056E-15	1.256415E-17
5.196667E+03	2.275147E-15	1.272897E-17
5.206622E+03	2.316470E-15	1.289279E-17
5.216578E+03	2.357480E-15	1.305268E-17
5.226533E+03	2.397507E-15	1.320510E-17
5.236488E+03	2.435837E-15	1.334635E-17
5.246443E+03	2.471646E-15	1.347223E-17
5.256399E+03	2.504213E-15	1.357919E-17
5.266354E+03	2.532842E-15	1.366392E-17
5.276309E+03	2.556928E-15	1.372368E-17
5.286265E+03	2.575966E-15	1.375632E-17
5.296220E+03	2.589640E-15	1.376074E-17
5.306175E+03	2.597623E-15	1.373585E-17
5.316131E+03	2.599780E-15	1.368153E-17
5.326086E+03	2.596080E-15	1.359824E-17
5.336041E+03	2.586615E-15	1.348707E-17
5.345996E+03	2.571503E-15	1.334917E-17
5.355952E+03	2.551108E-15	1.318697E-17
5.365907E+03	2.525844E-15	1.300306E-17
5.375862E+03	2.496266E-15	1.280069E-17
5.385818E+03	2.463025E-15	1.258353E-17
5.395773E+03	2.426918E-15	1.235589E-17
5.405728E+03	2.388896E-15	1.212279E-17
5.415684E+03	2.349987E-15	1.188954E-17
5.425639E+03	2.311465E-15	1.166261E-17
5.435594E+03	2.274696E-15	1.144883E-17
5.445549E+03	2.241410E-15	1.125680E-17
5.455505E+03	2.213815E-15	1.109724E-17
5.465460E+03	2.193718E-15	1.097876E-17
5.475415E+03	2.181387E-15	1.090225E-17
5.485371E+03	2.174621E-15	1.085634E-17
5.495326E+03	2.170299E-15	1.082517E-17
5.505281E+03	2.165307E-15	1.079299E-17
5.515237E+03	2.157442E-15	1.074864E-17
5.525192E+03	2.145075E-15	1.068382E-17
5.535147E+03	2.127199E-15	1.059332E-17
5.545102E+03	2.103502E-15	1.047539E-17
5.555058E+03	2.074253E-15	1.033115E-17
5.565013E+03	2.040082E-15	1.016349E-17
5.574968E+03	2.002036E-15	9.977409E-18
5.584924E+03	1.961349E-15	9.778826E-18
5.594879E+03	1.919434E-15	9.574576E-18
5.604834E+03	1.877747E-15	9.371744E-18
5.614790E+03	1.837732E-15	9.177370E-18
5.624745E+03	1.800771E-15	8.998231E-18
5.634700E+03	1.768029E-15	8.840052E-18
5.644655E+03	1.740572E-15	8.708086E-18
5.654611E+03	1.719296E-15	8.606761E-18
5.664566E+03	1.704821E-15	8.539150E-18
5.674521E+03	1.697604E-15	8.507503E-18
5.684477E+03	1.697932E-15	8.513238E-18
5.694432E+03	1.705873E-15	8.556658E-18
5.704387E+03	1.721258E-15	8.636887E-18
5.714343E+03	1.743837E-15	8.752612E-18
5.724298E+03	1.773073E-15	8.901070E-18
5.734253E+03	1.808236E-15	9.078511E-18
5.744209E+03	1.848484E-15	9.280610E-18
5.754164E+03	1.892786E-15	9.502067E-18
5.764119E+03	1.939915E-15	9.736602E-18
5.774074E+03	1.988542E-15	9.977405E-18
5.784030E+03	2.037280E-15	1.021739E-17
5.793985E+03	2.084599E-15	1.044876E-17
5.803940E+03	2.129057E-15	1.066420E-17
5.813896E+03	2.169311E-15	1.085690E-17
5.823851E+03	2.204182E-15	1.102092E-17
5.833806E+03	2.232757E-15	1.115171E-17
5.843762E+03	2.254395E-15	1.124612E-17
5.853717E+03	2.268875E-15	1.130313E-17
5.863672E+03	2.276185E-15	1.132282E-17
5.873627E+03	2.276613E-15	1.130679E-17
5.883583E+03	2.270674E-15	1.125777E-17
5.893538E+03	2.259026E-15	1.117926E-17
5.903493E+03	2.242399E-15	1.107507E-17
5.913449E+03	2.221505E-15	1.094893E-17
5.923404E+03	2.197105E-15	1.080484E-17
5.933359E+03	2.169895E-15	1.064641E-17
5.943315E+03	2.140506E-15	1.047696E-17
5.953270E+03	2.109465E-15	1.029924E-17
5.963225E+03	2.077267E-15	1.011588E-17
5.973180E+03	2.044222E-15	9.928538E-18
5.983136E+03	2.010713E-15	9.739249E-18
5.993091E+03	1.976851E-15	9.548696E-18
6.003046E+03	1.942750E-15	9.357578E-18
6.013002E+03	1.908477E-15	9.166369E-18
6.022957E+03	1.873941E-15	8.974767E-18
6.032912E+03	1.839052E-15	8.782493E-18
6.042868E+03	1.803733E-15	8.589312E-18
6.052823E+03	1.768076E-15	8.395813E-18
6.062778E+03	1.732189E-15	8.202637E-18
6.072733E+03	1.696485E-15	8.011853E-18
6.082689E+03	1.661590E-15	7.826518E-18
6.092644E+03	1.628313E-15	7.650501E-18
6.102599E+03	1.597634E-15	7.488431E-18
6.112555E+03	1.570707E-15	7.345710E-18
6.122510E+03	1.548654E-15	7.227555E-18
6.132465E+03	1.532446E-15	7.138440E-18
6.142421E+03	1.522748E-15	7.081419E-18
6.152376E+03	1.519776E-15	7.057468E-18
6.162331E+03	1.523231E-15	7.065182E-18
6.172286E+03	1.531935E-15	7.099090E-18
6.182242E+03	1.543953E-15	7.150269E-18
6.192197E+03	1.556526E-15	7.206037E-18
6.202152E+03	1.566126E-15	7.250187E-18
6.212108E+03	1.569662E-15	7.268515E-18
6.222063E+03	1.566421E-15	7.257796E-18
6.232018E+03	1.558399E-15	7.227289E-18
6.241974E+03	1.548542E-15	7.190641E-18
6.251929E+03	1.539598E-15	7.160639E-18
6.261884E+03	1.533284E-15	7.145322E-18
6.271839E+03	1.530549E-15	7.149235E-18
6.281795E+03	1.531845E-15	7.174671E-18
6.291750E+03	1.537068E-15	7.221363E-18
6.301705E+03	1.545700E-15	7.287131E-18
6.311661E+03	1.557012E-15	7.368807E-18
6.321616E+03	1.570019E-15	7.461968E-18
6.331571E+03	1.583551E-15	7.561270E-18
6.341527E+03	1.596524E-15	7.661674E-18
6.351482E+03	1.607981E-15	7.758643E-18
6.361437E+03	1.617099E-15	7.848072E-18
6.371392E+03	1.623264E-15	7.926664E-18
6.381348E+03	1.626264E-15	7.992995E-18
6.391303E+03	1.626074E-15	8.046488E-18
6.401258E+03	1.622951E-15	8.087931E-18
6.411214E+03	1.617372E-15	8.119230E-18
6.421169E+03	1.609959E-15	8.143078E-18
6.431124E+03	1.601396E-15	8.162548E-18
6.441080E+03	1.592338E-15	8.180684E-18
6.451035E+03	1.583434E-15	8.200591E-18
6.460990E+03	1.575193E-15	8.224758E-18
6.470945E+03	1.568140E-15	8.255860E-18
6.480901E+03	1.562686E-15	8.296062E-18
6.490856E+03	1.559177E-15	8.347274E-18
6.500811E+03	1.557970E-15	8.411533E-18
6.510767E+03	1.559175E-15	8.489609E-18
6.520722E+03	1.562633E-15	8.580826E-18
6.530677E+03	1.568108E-15	8.684063E-18
6.540633E+03	1.575352E-15	8.798100E-18
6.550588E+03	1.584026E-15	8.921151E-18
6.560543E+03	1.593790E-15	9.051373E-18
6.570498E+03	1.604278E-15	9.186718E-18
6.580454E+03	1.615052E-15	9.324633E-18
6.590409E+03	1.625624E-15	9.462214E-18
6.600364E+03	1.635531E-15	9.596608E-18
6.610320E+03	1.644258E-15	9.724565E-18
6.620275E+03	1.651445E-15	9.843660E-18
6.630230E+03	1.656659E-15	9.950990E-18
6.640186E+03	1.659570E-15	1.004418E-17
6.650141E+03	1.659963E-15	1.012151E-17
6.660096E+03	1.657665E-15	1.018150E-17
6.670051E+03	1.652557E-15	1.022298E-17
6.680007E+03	1.644675E-15	1.024572E-17
6.689962E+03	1.634159E-15	1.025019E-17
6.699917E+03	1.621163E-15	1.023698E-17
6.709873E+03	1.605993E-15	1.020768E-17
6.719828E+03	1.588913E-15	1.016368E-17
6.729783E+03	1.570330E-15	1.010736E-17
6.739739E+03	1.550585E-15	1.004073E-17
6.749694E+03	1.530137E-15	9.966638E-18
6.759649E+03	1.509313E-15	9.887176E-18
6.769604E+03	1.488514E-15	9.804939E-18
6.779560E+03	1.468085E-15	9.722241E-18
6.789515E+03	1.448320E-15	9.641097E-18
6.799470E+03	1.429554E-15	9.563844E-18
6.809426E+03	1.412041E-15	9.492308E-18
6.819381E+03	1.396044E-15	9.428423E-18
6.829336E+03	1.381711E-15	9.373349E-18
6.839292E+03	1.369252E-15	9.328691E-18
6.849247E+03	1.358761E-15	9.295281E-18
6.859202E+03	1.350316E-15	9.273821E-18
6.869157E+03	1.343933E-15	9.264607E-18
6.879113E+03	1.339663E-15	9.268155E-18
6.889068E+03	1.337368E-15	9.283662E-18
6.899023E+03	1.337022E-15	9.311076E-18
6.908979E+03	1.338436E-15	9.349203E-18
6.918934E+03	1.341431E-15	9.396884E-18
6.928889E+03	1.345822E-15	9.452887E-18
6.938845E+03	1.351342E-15	9.515405E-18
6.948800E+03	1.357727E-15	9.582591E-18
6.958755E+03	1.364688E-15	9.652432E-18
6.968710E+03	1.371925E-15	9.722789E-18
6.978666E+03	1.379131E-15	9.791472E-18
6.988621E+03	1.385968E-15	9.856053E-18
6.998576E+03	1.392189E-15	9.914736E-18
7.008532E+03	1.397431E-15	9.964896E-18
7.018487E+03	1.401520E-15	1.000525E-17
7.028442E+03	1.404144E-15	1.003353E-17
7.038398E+03	1.405185E-15	1.004887E-17
7.048353E+03	1.404484E-15	1.005010E-17
7.058308E+03	1.401963E-15	1.003666E-17
7.068263E+03	1.397653E-15	1.000878E-17
7.078219E+03	1.391558E-15	9.966507E-18
7.088174E+03	1.383833E-15	9.910973E-18
7.098129E+03	1.374659E-15	9.843526E-18
7.108085E+03	1.364326E-15	9.766297E-18
7.118040E+03	1.353119E-15	9.681389E-18
7.127995E+03	1.341310E-15	9.590806E-18
7.137951E+03	1.329222E-15	9.496939E-18
7.147906E+03	1.317074E-15	9.401411E-18
7.157861E+03	1.305145E-15	9.306275E-18
7.167817E+03	1.293592E-15	9.212715E-18
7.177772E+03	1.282533E-15	9.121616E-18
7.187727E+03	1.272080E-15	9.033825E-18
7.197682E+03	1.262281E-15	8.949728E-18
7.207638E+03	1.253132E-15	8.869318E-18
7.217593E+03	1.244616E-15	8.792530E-18
7.227548E+03	1.236706E-15	8.719194E-18
7.237504E+03	1.229365E-15	8.649086E-18
7.247459E+03	1.222533E-15	8.581817E-18
7.257414E+03	1.216104E-15	8.516663E-18
7.267370E+03	1.210074E-15	8.453649E-18
7.277325E+03	1.204360E-15	8.392223E-18
7.287280E+03	1.198882E-15	8.331860E-18
7.297235E+03	1.193614E-15	8.272442E-18
7.307191E+03	1.188463E-15	8.213354E-18
7.317146E+03	1.183381E-15	8.154318E-18
7.327101E+03	1.178316E-15	8.095036E-18
7.337057E+03	1.173196E-15	8.035066E-18
7.347012E+03	1.167988E-15	7.974245E-18
7.356967E+03	1.162557E-15	7.911731E-18
7.366923E+03	1.156915E-15	7.847666E-18
7.376878E+03	1.150971E-15	7.781522E-18
7.386833E+03	1.144709E-15	7.713265E-18
7.396788E+03	1.138081E-15	7.642665E-18
7.406744E+03	1.131068E-15	7.569672E-18
7.416699E+03	1.123682E-15	7.494465E-18
7.426654E+03	1.115934E-15	7.417200E-18
7.436610E+03	1.107941E-15	7.338737E-18
7.446565E+03	1.099708E-15	7.259197E-18
7.456520E+03	1.091356E-15	7.179440E-18
7.466476E+03	1.082946E-15	7.099875E-18
7.476431E+03	1.074637E-15	7.021569E-18
7.486386E+03	1.066521E-15	6.945127E-18
7.496341E+03	1.058713E-15	6.871281E-18
7.506297E+03	1.051337E-15	6.800837E-18
7.516252E+03	1.044487E-15	6.734379E-18
7.526207E+03	1.038275E-15	6.672621E-18
7.536163E+03	1.032682E-15	6.615407E-18
7.546118E+03	1.027699E-15	6.562668E-18
7.556073E+03	1.023294E-15	6.514179E-18
7.566029E+03	1.019389E-15	6.469442E-18
7.575984E+03	1.015953E-15	6.428245E-18
7.585939E+03	1.012889E-15	6.389985E-18
7.595894E+03	1.010100E-15	6.354062E-18
7.605850E+03	1.007389E-15	6.319248E-18
7.615805E+03	1.004686E-15	6.285142E-18
7.625760E+03	1.001882E-15	6.251101E-18
7.635716E+03	9.990022E-16	6.217312E-18
7.645671E+03	9.960139E-16	6.183621E-18
7.655626E+03	9.930017E-16	6.150596E-18
7.665582E+03	9.900033E-16	6.118511E-18
7.675537E+03	9.870950E-16	6.087877E-18
7.685492E+03	9.843570E-16	6.059230E-18
7.695447E+03	9.818744E-16	6.033131E-18
7.705403E+03	9.797289E-16	6.010121E-18
7.715358E+03	9.779652E-16	5.990513E-18
7.725313E+03	9.766604E-16	5.974820E-18
