#wls	flux	fluxerr
1.592848E+03	1.095676E-16	3.547877E-18
1.632669E+03	1.146178E-16	3.685864E-18
1.672491E+03	1.194269E-16	3.813282E-18
1.712312E+03	1.239225E-16	3.927921E-18
1.752133E+03	1.280144E-16	4.027075E-18
1.791954E+03	1.315041E-16	4.104761E-18
1.831775E+03	1.340800E-16	4.151705E-18
1.871597E+03	1.354348E-16	4.159098E-18
1.911418E+03	1.352258E-16	4.117403E-18
1.951239E+03	1.332275E-16	4.021034E-18
1.991060E+03	1.295395E-16	3.874423E-18
2.030881E+03	1.248798E-16	3.700282E-18
2.070703E+03	1.207117E-16	3.542435E-18
2.110524E+03	1.190197E-16	3.458191E-18
2.150345E+03	1.217008E-16	3.499966E-18
2.190166E+03	1.298327E-16	3.694476E-18
2.229987E+03	1.434312E-16	4.037042E-18
2.269809E+03	1.616562E-16	4.498935E-18
2.309630E+03	1.832760E-16	5.041524E-18
2.349451E+03	2.071223E-16	5.629334E-18
2.389272E+03	2.323289E-16	6.236430E-18
2.429093E+03	2.583762E-16	6.847150E-18
2.468915E+03	2.850712E-16	7.455043E-18
2.508736E+03	3.123962E-16	8.058410E-18
2.548557E+03	3.404912E-16	8.659561E-18
2.588378E+03	3.695406E-16	9.261676E-18
2.628199E+03	3.997904E-16	9.869152E-18
2.668021E+03	4.314932E-16	1.048612E-17
2.707842E+03	4.649270E-16	1.111686E-17
2.747663E+03	5.003964E-16	1.176579E-17
2.787484E+03	5.382206E-16	1.243711E-17
2.827305E+03	5.787563E-16	1.313522E-17
2.867127E+03	6.224387E-16	1.386561E-17
2.906948E+03	6.697300E-16	1.463349E-17
2.946769E+03	7.212502E-16	1.544654E-17
2.986590E+03	7.776604E-16	1.631205E-17
2.996546E+03	7.926406E-16	1.653811E-17
3.006501E+03	8.079795E-16	1.676793E-17
3.016456E+03	8.236887E-16	1.700161E-17
3.026411E+03	8.398340E-16	1.724036E-17
3.036367E+03	8.564745E-16	1.748521E-17
3.046322E+03	8.736851E-16	1.773750E-17
3.056277E+03	8.915248E-16	1.799820E-17
3.066233E+03	9.099732E-16	1.826668E-17
3.076188E+03	9.290307E-16	1.854269E-17
3.086143E+03	9.487388E-16	1.882685E-17
3.096099E+03	9.690618E-16	1.911818E-17
3.106054E+03	9.900242E-16	1.941694E-17
3.116009E+03	1.011612E-15	1.972261E-17
3.125964E+03	1.033894E-15	2.003627E-17
3.135920E+03	1.056817E-15	2.035664E-17
3.145875E+03	1.080411E-15	2.068403E-17
3.155830E+03	1.104708E-15	2.101878E-17
3.165786E+03	1.129719E-15	2.136083E-17
3.175741E+03	1.155413E-15	2.170933E-17
3.185696E+03	1.181866E-15	2.206542E-17
3.195652E+03	1.209049E-15	2.242822E-17
3.205607E+03	1.236994E-15	2.279809E-17
3.215562E+03	1.265692E-15	2.317451E-17
3.225517E+03	1.295176E-15	2.355780E-17
3.235473E+03	1.325454E-15	2.394780E-17
3.245428E+03	1.356536E-15	2.434434E-17
3.255383E+03	1.388401E-15	2.474675E-17
3.265339E+03	1.421075E-15	2.515515E-17
3.275294E+03	1.454555E-15	2.556915E-17
3.285249E+03	1.488807E-15	2.598786E-17
3.295205E+03	1.523840E-15	2.641107E-17
3.305160E+03	1.559602E-15	2.683761E-17
3.315115E+03	1.596084E-15	2.726699E-17
3.325070E+03	1.633210E-15	2.769764E-17
3.335026E+03	1.670918E-15	2.812821E-17
3.344981E+03	1.709121E-15	2.855703E-17
3.354936E+03	1.747715E-15	2.898213E-17
3.364892E+03	1.786570E-15	2.940122E-17
3.374847E+03	1.825500E-15	2.981110E-17
3.384802E+03	1.864342E-15	3.020908E-17
3.394758E+03	1.902815E-15	3.059066E-17
3.404713E+03	1.940714E-15	3.095266E-17
3.414668E+03	1.977688E-15	3.128974E-17
3.424623E+03	2.013410E-15	3.159708E-17
3.434579E+03	2.047520E-15	3.186955E-17
3.444534E+03	2.079609E-15	3.210143E-17
3.454489E+03	2.109304E-15	3.228778E-17
3.464445E+03	2.136169E-15	3.242290E-17
3.474400E+03	2.159769E-15	3.250132E-17
3.484355E+03	2.179708E-15	3.251840E-17
3.494311E+03	2.195588E-15	3.246967E-17
3.504266E+03	2.207099E-15	3.235219E-17
3.514221E+03	2.213870E-15	3.216229E-17
3.524176E+03	2.215702E-15	3.189896E-17
3.534132E+03	2.212413E-15	3.156156E-17
3.544087E+03	2.203935E-15	3.115116E-17
3.554042E+03	2.190247E-15	3.066956E-17
3.563998E+03	2.171470E-15	3.012048E-17
3.573953E+03	2.147896E-15	2.951002E-17
3.583908E+03	2.119850E-15	2.884453E-17
3.593864E+03	2.087893E-15	2.813333E-17
3.603819E+03	2.052647E-15	2.738638E-17
3.613774E+03	2.014805E-15	2.661415E-17
3.623729E+03	1.975148E-15	2.582791E-17
3.633685E+03	1.934520E-15	2.503937E-17
3.643640E+03	1.893755E-15	2.425963E-17
3.653595E+03	1.853776E-15	2.350049E-17
3.663551E+03	1.815446E-15	2.277249E-17
3.673506E+03	1.779688E-15	2.208647E-17
3.683461E+03	1.747389E-15	2.145231E-17
3.693417E+03	1.719430E-15	2.087937E-17
3.703372E+03	1.696620E-15	2.037565E-17
3.713327E+03	1.679761E-15	1.994863E-17
3.723282E+03	1.669599E-15	1.960473E-17
3.733238E+03	1.666866E-15	1.934976E-17
3.743193E+03	1.672250E-15	1.918869E-17
3.753148E+03	1.686440E-15	1.912610E-17
3.763104E+03	1.710103E-15	1.916595E-17
3.773059E+03	1.743893E-15	1.931174E-17
3.783014E+03	1.788500E-15	1.956700E-17
3.792970E+03	1.844497E-15	1.993364E-17
3.802925E+03	1.912460E-15	2.041331E-17
3.812880E+03	1.992855E-15	2.100620E-17
3.822835E+03	2.085921E-15	2.170992E-17
3.832791E+03	2.191691E-15	2.251986E-17
3.842746E+03	2.309874E-15	2.342813E-17
3.852701E+03	2.439728E-15	2.442252E-17
3.862657E+03	2.579983E-15	2.548600E-17
3.872612E+03	2.728724E-15	2.659599E-17
3.882567E+03	2.883416E-15	2.772499E-17
3.892523E+03	3.040859E-15	2.884054E-17
3.902478E+03	3.197280E-15	2.990655E-17
3.912433E+03	3.348470E-15	3.088490E-17
3.922388E+03	3.490015E-15	3.173780E-17
3.932344E+03	3.617613E-15	3.243078E-17
3.942299E+03	3.727302E-15	3.293456E-17
3.952254E+03	3.815746E-15	3.322735E-17
3.962210E+03	3.880656E-15	3.329796E-17
3.972165E+03	3.920746E-15	3.314486E-17
3.982120E+03	3.935999E-15	3.277755E-17
3.992076E+03	3.927541E-15	3.221493E-17
4.002031E+03	3.897532E-15	3.148352E-17
4.011986E+03	3.849065E-15	3.061610E-17
4.021941E+03	3.785710E-15	2.964756E-17
4.031897E+03	3.711401E-15	2.861374E-17
4.041852E+03	3.630050E-15	2.754834E-17
4.051807E+03	3.545346E-15	2.648144E-17
4.061763E+03	3.460602E-15	2.543853E-17
4.071718E+03	3.378661E-15	2.444014E-17
4.081673E+03	3.301750E-15	2.350105E-17
4.091629E+03	3.231570E-15	2.263138E-17
4.101584E+03	3.169345E-15	2.183720E-17
4.111539E+03	3.115686E-15	2.111993E-17
4.121494E+03	3.070866E-15	2.047854E-17
4.131450E+03	3.034791E-15	1.990954E-17
4.141405E+03	3.007077E-15	1.940772E-17
4.151360E+03	2.987120E-15	1.896669E-17
4.161316E+03	2.974155E-15	1.857942E-17
4.171271E+03	2.967297E-15	1.823854E-17
4.181226E+03	2.965585E-15	1.793667E-17
4.191182E+03	2.968031E-15	1.766672E-17
4.201137E+03	2.973643E-15	1.742202E-17
4.211092E+03	2.981421E-15	1.719629E-17
4.221047E+03	2.990407E-15	1.698390E-17
4.231003E+03	2.999698E-15	1.677991E-17
4.240958E+03	3.008408E-15	1.657978E-17
4.250913E+03	3.015654E-15	1.637929E-17
4.260869E+03	3.020711E-15	1.617534E-17
4.270824E+03	3.022924E-15	1.596537E-17
4.280779E+03	3.021747E-15	1.574753E-17
4.290735E+03	3.016753E-15	1.552068E-17
4.300690E+03	3.007592E-15	1.528409E-17
4.310645E+03	2.994066E-15	1.503776E-17
4.320601E+03	2.975872E-15	1.478112E-17
4.330556E+03	2.952736E-15	1.451362E-17
4.340511E+03	2.924120E-15	1.423303E-17
4.350466E+03	2.889247E-15	1.393583E-17
4.360422E+03	2.847243E-15	1.361801E-17
4.370377E+03	2.797809E-15	1.327830E-17
4.380332E+03	2.744099E-15	1.293155E-17
4.390288E+03	2.692217E-15	1.260593E-17
4.400243E+03	2.647819E-15	1.232680E-17
4.410198E+03	2.615487E-15	1.211400E-17
4.420154E+03	2.598705E-15	1.198215E-17
4.430109E+03	2.599859E-15	1.194073E-17
4.440064E+03	2.620416E-15	1.199518E-17
4.450019E+03	2.661071E-15	1.214760E-17
4.459975E+03	2.721748E-15	1.239685E-17
4.469930E+03	2.801750E-15	1.273923E-17
4.479885E+03	2.899654E-15	1.316800E-17
4.489841E+03	3.013249E-15	1.367311E-17
4.499796E+03	3.139530E-15	1.424107E-17
4.509751E+03	3.274715E-15	1.485500E-17
4.519707E+03	3.414396E-15	1.549524E-17
4.529662E+03	3.553738E-15	1.614017E-17
4.539617E+03	3.687682E-15	1.676704E-17
4.549572E+03	3.811260E-15	1.735333E-17
4.559528E+03	3.920000E-15	1.787858E-17
4.569483E+03	4.009946E-15	1.832439E-17
4.579438E+03	4.078025E-15	1.867613E-17
4.589394E+03	4.122211E-15	1.892370E-17
4.599349E+03	4.141432E-15	1.906118E-17
4.609304E+03	4.135399E-15	1.908608E-17
4.619260E+03	4.104867E-15	1.900063E-17
4.629215E+03	4.051083E-15	1.880928E-17
4.639170E+03	3.976290E-15	1.852111E-17
4.649125E+03	3.883277E-15	1.814787E-17
4.659081E+03	3.775389E-15	1.770403E-17
4.669036E+03	3.656346E-15	1.720603E-17
4.678991E+03	3.530009E-15	1.667122E-17
4.688947E+03	3.400127E-15	1.611671E-17
4.698902E+03	3.269816E-15	1.555684E-17
4.708857E+03	3.141383E-15	1.500236E-17
4.718813E+03	3.016078E-15	1.445899E-17
4.728768E+03	2.893770E-15	1.392591E-17
4.738723E+03	2.773247E-15	1.339712E-17
4.748678E+03	2.652438E-15	1.286243E-17
4.758634E+03	2.529773E-15	1.231398E-17
4.768589E+03	2.406277E-15	1.175652E-17
4.778544E+03	2.287156E-15	1.121543E-17
4.788500E+03	2.178139E-15	1.071908E-17
4.798455E+03	2.083539E-15	1.028927E-17
4.808410E+03	2.005916E-15	9.939398E-18
4.818366E+03	1.946422E-15	9.676040E-18
4.828321E+03	1.905023E-15	9.499883E-18
4.838276E+03	1.880824E-15	9.407266E-18
4.848231E+03	1.872338E-15	9.391457E-18
4.858187E+03	1.877598E-15	9.443156E-18
4.868142E+03	1.894163E-15	9.550517E-18
4.878097E+03	1.919257E-15	9.699826E-18
4.888053E+03	1.949769E-15	9.875488E-18
4.898008E+03	1.982572E-15	1.006167E-17
4.907963E+03	2.014773E-15	1.024357E-17
4.917919E+03	2.044016E-15	1.040904E-17
4.927874E+03	2.068699E-15	1.054968E-17
4.937829E+03	2.087937E-15	1.066078E-17
4.947784E+03	2.101643E-15	1.074167E-17
4.957740E+03	2.110352E-15	1.079493E-17
4.967695E+03	2.115136E-15	1.082593E-17
4.977650E+03	2.117389E-15	1.084174E-17
4.987606E+03	2.118746E-15	1.085068E-17
4.997561E+03	2.120735E-15	1.086055E-17
5.007516E+03	2.124739E-15	1.087844E-17
5.017472E+03	2.131900E-15	1.091016E-17
5.027427E+03	2.142999E-15	1.095966E-17
5.037382E+03	2.158484E-15	1.102917E-17
5.047337E+03	2.178497E-15	1.111932E-17
5.057293E+03	2.202949E-15	1.122954E-17
5.067248E+03	2.231571E-15	1.135831E-17
5.077203E+03	2.264035E-15	1.150383E-17
5.087159E+03	2.300048E-15	1.166444E-17
5.097114E+03	2.339326E-15	1.183854E-17
5.107069E+03	2.381792E-15	1.202558E-17
5.117025E+03	2.427372E-15	1.222500E-17
5.126980E+03	2.476235E-15	1.243747E-17
5.136935E+03	2.528560E-15	1.266370E-17
5.146890E+03	2.584577E-15	1.290463E-17
5.156846E+03	2.644483E-15	1.316102E-17
5.166801E+03	2.708349E-15	1.343298E-17
5.176756E+03	2.776102E-15	1.371992E-17
5.186712E+03	2.847411E-15	1.401997E-17
5.196667E+03	2.921763E-15	1.433040E-17
5.206622E+03	2.998206E-15	1.464638E-17
5.216578E+03	3.075608E-15	1.496229E-17
5.226533E+03	3.152557E-15	1.527127E-17
5.236488E+03	3.227446E-15	1.556567E-17
5.246443E+03	3.298500E-15	1.583717E-17
5.256399E+03	3.364039E-15	1.607811E-17
5.266354E+03	3.422429E-15	1.628123E-17
5.276309E+03	3.472278E-15	1.644059E-17
5.286265E+03	3.512446E-15	1.655158E-17
5.296220E+03	3.542186E-15	1.661160E-17
5.306175E+03	3.560983E-15	1.661918E-17
5.316131E+03	3.568714E-15	1.657476E-17
5.326086E+03	3.565481E-15	1.647981E-17
5.336041E+03	3.551646E-15	1.633701E-17
5.345996E+03	3.527584E-15	1.614904E-17
5.355952E+03	3.493935E-15	1.591973E-17
5.365907E+03	3.451346E-15	1.565287E-17
5.375862E+03	3.400574E-15	1.535266E-17
5.385818E+03	3.342461E-15	1.502356E-17
5.395773E+03	3.278143E-15	1.467125E-17
5.405728E+03	3.209109E-15	1.430284E-17
5.415684E+03	3.137240E-15	1.392703E-17
5.425639E+03	3.065194E-15	1.355578E-17
5.435594E+03	2.996309E-15	1.320381E-17
5.445549E+03	2.934818E-15	1.288955E-17
5.455505E+03	2.885676E-15	1.263406E-17
5.465460E+03	2.853329E-15	1.245586E-17
5.475415E+03	2.839158E-15	1.236000E-17
5.485371E+03	2.838641E-15	1.232590E-17
5.495326E+03	2.845410E-15	1.232529E-17
5.505281E+03	2.853203E-15	1.233064E-17
5.515237E+03	2.856883E-15	1.231953E-17
5.525192E+03	2.852548E-15	1.227503E-17
5.535147E+03	2.837725E-15	1.218652E-17
5.545102E+03	2.811131E-15	1.204849E-17
5.555058E+03	2.772709E-15	1.186076E-17
5.565013E+03	2.723344E-15	1.162716E-17
5.574968E+03	2.664724E-15	1.135493E-17
5.584924E+03	2.598982E-15	1.105316E-17
5.594879E+03	2.528625E-15	1.073249E-17
5.604834E+03	2.456294E-15	1.040409E-17
5.614790E+03	2.384570E-15	1.007879E-17
5.624745E+03	2.315901E-15	9.766804E-18
5.634700E+03	2.252440E-15	9.477041E-18
5.644655E+03	2.196092E-15	9.217289E-18
5.654611E+03	2.148441E-15	8.993918E-18
5.664566E+03	2.110724E-15	8.811766E-18
5.674521E+03	2.083882E-15	8.674374E-18
5.684477E+03	2.068581E-15	8.584064E-18
5.694432E+03	2.065270E-15	8.542188E-18
5.704387E+03	2.074066E-15	8.548665E-18
5.714343E+03	2.094926E-15	8.602690E-18
5.724298E+03	2.127481E-15	8.702090E-18
5.734253E+03	2.171047E-15	8.843361E-18
5.744209E+03	2.224656E-15	9.021852E-18
5.754164E+03	2.286982E-15	9.231474E-18
5.764119E+03	2.356267E-15	9.464464E-18
5.774074E+03	2.430401E-15	9.711756E-18
5.784030E+03	2.506991E-15	9.963308E-18
5.793985E+03	2.583297E-15	1.020791E-17
5.803940E+03	2.656577E-15	1.043460E-17
5.813896E+03	2.724176E-15	1.063304E-17
5.823851E+03	2.783725E-15	1.079432E-17
5.833806E+03	2.833350E-15	1.091173E-17
5.843762E+03	2.871692E-15	1.098079E-17
5.853717E+03	2.898168E-15	1.100020E-17
5.863672E+03	2.912725E-15	1.097083E-17
5.873627E+03	2.915902E-15	1.089581E-17
5.883583E+03	2.908682E-15	1.077994E-17
5.893538E+03	2.892343E-15	1.062907E-17
5.903493E+03	2.868362E-15	1.044965E-17
5.913449E+03	2.838166E-15	1.024780E-17
5.923404E+03	2.803192E-15	1.002955E-17
5.933359E+03	2.764786E-15	9.800435E-18
5.943315E+03	2.724093E-15	9.565121E-18
5.953270E+03	2.682015E-15	9.327297E-18
5.963225E+03	2.639388E-15	9.090299E-18
5.973180E+03	2.596701E-15	8.856180E-18
5.983136E+03	2.554441E-15	8.626930E-18
5.993091E+03	2.512731E-15	8.403244E-18
6.003046E+03	2.471604E-15	8.185519E-18
6.013002E+03	2.430950E-15	7.973667E-18
6.022957E+03	2.390441E-15	7.766913E-18
6.032912E+03	2.349685E-15	7.564303E-18
6.042868E+03	2.308218E-15	7.364700E-18
6.052823E+03	2.265770E-15	7.167609E-18
6.062778E+03	2.222120E-15	6.972696E-18
6.072733E+03	2.177507E-15	6.781051E-18
6.082689E+03	2.132522E-15	6.594792E-18
6.092644E+03	2.088231E-15	6.417400E-18
6.102599E+03	2.046217E-15	6.253829E-18
6.112555E+03	2.008543E-15	6.110374E-18
6.122510E+03	1.977501E-15	5.993916E-18
6.132465E+03	1.955432E-15	5.911459E-18
6.142421E+03	1.944468E-15	5.869413E-18
6.152376E+03	1.945999E-15	5.872082E-18
6.162331E+03	1.960318E-15	5.920623E-18
6.172286E+03	1.985929E-15	6.010700E-18
6.182242E+03	2.018883E-15	6.130608E-18
6.192197E+03	2.052106E-15	6.259099E-18
6.202152E+03	2.075661E-15	6.365777E-18
6.212108E+03	2.079336E-15	6.418572E-18
6.222063E+03	2.060646E-15	6.408294E-18
6.232018E+03	2.028090E-15	6.359568E-18
6.241974E+03	1.991801E-15	6.302785E-18
6.251929E+03	1.959730E-15	6.262426E-18
6.261884E+03	1.936789E-15	6.254189E-18
6.271839E+03	1.925308E-15	6.286137E-18
6.281795E+03	1.925757E-15	6.360678E-18
6.291750E+03	1.937277E-15	6.476011E-18
6.301705E+03	1.958088E-15	6.627209E-18
6.311661E+03	1.985951E-15	6.807600E-18
6.321616E+03	2.018377E-15	7.009316E-18
6.331571E+03	2.052739E-15	7.223613E-18
6.341527E+03	2.086575E-15	7.441866E-18
6.351482E+03	2.117600E-15	7.655613E-18
6.361437E+03	2.143870E-15	7.857194E-18
6.371392E+03	2.163893E-15	8.040139E-18
6.381348E+03	2.176772E-15	8.199842E-18
6.391303E+03	2.182071E-15	8.333242E-18
6.401258E+03	2.179983E-15	8.439606E-18
6.411214E+03	2.171128E-15	8.519909E-18
6.421169E+03	2.156529E-15	8.576865E-18
6.431124E+03	2.137532E-15	8.614710E-18
6.441080E+03	2.115626E-15	8.638580E-18
6.451035E+03	2.092391E-15	8.654313E-18
6.460990E+03	2.069244E-15	8.667432E-18
6.470945E+03	2.047579E-15	8.683675E-18
6.480901E+03	2.028522E-15	8.707944E-18
6.490856E+03	2.012950E-15	8.744291E-18
6.500811E+03	2.001563E-15	8.796200E-18
6.510767E+03	1.994821E-15	8.866200E-18
6.520722E+03	1.992968E-15	8.955955E-18
6.530677E+03	1.996015E-15	9.066095E-18
6.540633E+03	2.003774E-15	9.196328E-18
6.550588E+03	2.015778E-15	9.345005E-18
6.560543E+03	2.031396E-15	9.509613E-18
6.570498E+03	2.049870E-15	9.686892E-18
6.580454E+03	2.070273E-15	9.872632E-18
6.590409E+03	2.091553E-15	1.006184E-17
6.600364E+03	2.112677E-15	1.024945E-17
6.610320E+03	2.132551E-15	1.042991E-17
6.620275E+03	2.150252E-15	1.059836E-17
6.630230E+03	2.164822E-15	1.074963E-17
6.640186E+03	2.175521E-15	1.087954E-17
6.650141E+03	2.181828E-15	1.098493E-17
6.660096E+03	2.183378E-15	1.106341E-17
6.670051E+03	2.179963E-15	1.111339E-17
6.680007E+03	2.171606E-15	1.113447E-17
6.689962E+03	2.158542E-15	1.112742E-17
6.699917E+03	2.141079E-15	1.109344E-17
6.709873E+03	2.119724E-15	1.103486E-17
6.719828E+03	2.094963E-15	1.095400E-17
6.729783E+03	2.067488E-15	1.085434E-17
6.739739E+03	2.037870E-15	1.073881E-17
6.749694E+03	2.006832E-15	1.061122E-17
6.759649E+03	1.974929E-15	1.047458E-17
6.769604E+03	1.942806E-15	1.033240E-17
6.779560E+03	1.911036E-15	1.018788E-17
6.789515E+03	1.880138E-15	1.004394E-17
6.799470E+03	1.850676E-15	9.903778E-18
6.809426E+03	1.823114E-15	9.770059E-18
6.819381E+03	1.797929E-15	9.645526E-18
6.829336E+03	1.775438E-15	9.532042E-18
6.839292E+03	1.756029E-15	9.431845E-18
6.849247E+03	1.739932E-15	9.346282E-18
6.859202E+03	1.727345E-15	9.276516E-18
6.869157E+03	1.718369E-15	9.223140E-18
6.879113E+03	1.713119E-15	9.186791E-18
6.889068E+03	1.711455E-15	9.166706E-18
6.899023E+03	1.713347E-15	9.162669E-18
6.908979E+03	1.718523E-15	9.173141E-18
6.918934E+03	1.726697E-15	9.196501E-18
6.928889E+03	1.737545E-15	9.230888E-18
6.938845E+03	1.750606E-15	9.273723E-18
6.948800E+03	1.765384E-15	9.322246E-18
6.958755E+03	1.781329E-15	9.373423E-18
6.968710E+03	1.797841E-15	9.424002E-18
6.978666E+03	1.814293E-15	9.470629E-18
6.988621E+03	1.830010E-15	9.509757E-18
6.998576E+03	1.844438E-15	9.538538E-18
7.008532E+03	1.856881E-15	9.553476E-18
7.018487E+03	1.866924E-15	9.552599E-18
7.028442E+03	1.874016E-15	9.533311E-18
7.038398E+03	1.877900E-15	9.494608E-18
7.048353E+03	1.878329E-15	9.435603E-18
7.058308E+03	1.875232E-15	9.356343E-18
7.068263E+03	1.868721E-15	9.257835E-18
7.078219E+03	1.858940E-15	9.141259E-18
7.088174E+03	1.846281E-15	9.009014E-18
7.098129E+03	1.831181E-15	8.863682E-18
7.108085E+03	1.814235E-15	8.708556E-18
7.118040E+03	1.796033E-15	8.546830E-18
7.127995E+03	1.777122E-15	8.381419E-18
7.137951E+03	1.758085E-15	8.215303E-18
7.147906E+03	1.739330E-15	8.050570E-18
7.157861E+03	1.721322E-15	7.889493E-18
7.167817E+03	1.704327E-15	7.733364E-18
7.177772E+03	1.688523E-15	7.583019E-18
7.187727E+03	1.674068E-15	7.439181E-18
7.197682E+03	1.661012E-15	7.302061E-18
7.207638E+03	1.649305E-15	7.171436E-18
7.217593E+03	1.638883E-15	7.047025E-18
7.227548E+03	1.629643E-15	6.928405E-18
7.237504E+03	1.621455E-15	6.815062E-18
7.247459E+03	1.614172E-15	6.706439E-18
7.257414E+03	1.607566E-15	6.601697E-18
7.267370E+03	1.601543E-15	6.500580E-18
7.277325E+03	1.595908E-15	6.402464E-18
7.287280E+03	1.590475E-15	6.306807E-18
7.297235E+03	1.585141E-15	6.213433E-18
7.307191E+03	1.579723E-15	6.121896E-18
7.317146E+03	1.574127E-15	6.032116E-18
7.327101E+03	1.568277E-15	5.944120E-18
7.337057E+03	1.562087E-15	5.857901E-18
7.347012E+03	1.555543E-15	5.773750E-18
7.356967E+03	1.548510E-15	5.691502E-18
7.366923E+03	1.541018E-15	5.611614E-18
7.376878E+03	1.532962E-15	5.534047E-18
7.386833E+03	1.524334E-15	5.459108E-18
7.396788E+03	1.515067E-15	5.386872E-18
7.406744E+03	1.505130E-15	5.317535E-18
7.416699E+03	1.494549E-15	5.251466E-18
7.426654E+03	1.483320E-15	5.188889E-18
7.436610E+03	1.471595E-15	5.130540E-18
7.446565E+03	1.459388E-15	5.076626E-18
7.456520E+03	1.446864E-15	5.027695E-18
7.466476E+03	1.434111E-15	4.983796E-18
7.476431E+03	1.421363E-15	4.945453E-18
7.486386E+03	1.408745E-15	4.912801E-18
7.496341E+03	1.396428E-15	4.886127E-18
7.506297E+03	1.384623E-15	4.865864E-18
7.516252E+03	1.373510E-15	4.852352E-18
7.526207E+03	1.363307E-15	4.846100E-18
7.536163E+03	1.354071E-15	4.847070E-18
7.546118E+03	1.345893E-15	4.855371E-18
7.556073E+03	1.338795E-15	4.870893E-18
7.566029E+03	1.332671E-15	4.893092E-18
7.575984E+03	1.327423E-15	4.921453E-18
7.585939E+03	1.322882E-15	4.955209E-18
7.595894E+03	1.319032E-15	4.994160E-18
7.605850E+03	1.315757E-15	5.037742E-18
7.615805E+03	1.313051E-15	5.085820E-18
7.625760E+03	1.310781E-15	5.137765E-18
7.635716E+03	1.308933E-15	5.193425E-18
7.645671E+03	1.307390E-15	5.252237E-18
7.655626E+03	1.306176E-15	5.314205E-18
7.665582E+03	1.305255E-15	5.379104E-18
7.675537E+03	1.304646E-15	5.446945E-18
7.685492E+03	1.304394E-15	5.517860E-18
7.695447E+03	1.304558E-15	5.592067E-18
7.705403E+03	1.305200E-15	5.669830E-18
7.715358E+03	1.306346E-15	5.751267E-18
7.725313E+03	1.308089E-15	5.836815E-18
