#wls	flux	fluxerr
1.592848E+03	1.062214E-16	4.430070E-18
1.632669E+03	1.109807E-16	4.600063E-18
1.672491E+03	1.154936E-16	4.756766E-18
1.712312E+03	1.196909E-16	4.897458E-18
1.752133E+03	1.234869E-16	5.018814E-18
1.791954E+03	1.266918E-16	5.113424E-18
1.831775E+03	1.290083E-16	5.169800E-18
1.871597E+03	1.301447E-16	5.177045E-18
1.911418E+03	1.297767E-16	5.123367E-18
1.951239E+03	1.276946E-16	5.001898E-18
1.991060E+03	1.240004E-16	4.818219E-18
2.030881E+03	1.193874E-16	4.600623E-18
2.070703E+03	1.152563E-16	4.403604E-18
2.110524E+03	1.134983E-16	4.298377E-18
2.150345E+03	1.159115E-16	4.350071E-18
2.190166E+03	1.235065E-16	4.591908E-18
2.229987E+03	1.362807E-16	5.018174E-18
2.269809E+03	1.534203E-16	5.593356E-18
2.309630E+03	1.737454E-16	6.269707E-18
2.349451E+03	1.961433E-16	7.003457E-18
2.389272E+03	2.197924E-16	7.762707E-18
2.429093E+03	2.442048E-16	8.528389E-18
2.468915E+03	2.692033E-16	9.292896E-18
2.508736E+03	2.947789E-16	1.005461E-17
2.548557E+03	3.210733E-16	1.081695E-17
2.588378E+03	3.482713E-16	1.158453E-17
2.628199E+03	3.766192E-16	1.236359E-17
2.668021E+03	4.063713E-16	1.316018E-17
2.707842E+03	4.378103E-16	1.398069E-17
2.747663E+03	4.712479E-16	1.483189E-17
2.787484E+03	5.070175E-16	1.572053E-17
2.827305E+03	5.454941E-16	1.665389E-17
2.867127E+03	5.871375E-16	1.764098E-17
2.906948E+03	6.324450E-16	1.869090E-17
2.946769E+03	6.820803E-16	1.981641E-17
2.986590E+03	7.367653E-16	2.103044E-17
2.996546E+03	7.513472E-16	2.135019E-17
3.006501E+03	7.663046E-16	2.167643E-17
3.016456E+03	7.816508E-16	2.200937E-17
3.026411E+03	7.974510E-16	2.235067E-17
3.036367E+03	8.137637E-16	2.270175E-17
3.046322E+03	8.306634E-16	2.306447E-17
3.056277E+03	8.482093E-16	2.344019E-17
3.066233E+03	8.663854E-16	2.382821E-17
3.076188E+03	8.851958E-16	2.422837E-17
3.086143E+03	9.046834E-16	2.464154E-17
3.096099E+03	9.248186E-16	2.506663E-17
3.106054E+03	9.456290E-16	2.550411E-17
3.116009E+03	9.671056E-16	2.595342E-17
3.125964E+03	9.893176E-16	2.641613E-17
3.135920E+03	1.012220E-15	2.689071E-17
3.145875E+03	1.035848E-15	2.737774E-17
3.155830E+03	1.060234E-15	2.787780E-17
3.165786E+03	1.085395E-15	2.839100E-17
3.175741E+03	1.111309E-15	2.891634E-17
3.185696E+03	1.138052E-15	2.945554E-17
3.195652E+03	1.165603E-15	3.000760E-17
3.205607E+03	1.193999E-15	3.057314E-17
3.215562E+03	1.223236E-15	3.115169E-17
3.225517E+03	1.253353E-15	3.174379E-17
3.235473E+03	1.284364E-15	3.234944E-17
3.245428E+03	1.316283E-15	3.296855E-17
3.255383E+03	1.349097E-15	3.360038E-17
3.265339E+03	1.382836E-15	3.424526E-17
3.275294E+03	1.417501E-15	3.490280E-17
3.285249E+03	1.453066E-15	3.557189E-17
3.295205E+03	1.489541E-15	3.625239E-17
3.305160E+03	1.526883E-15	3.694280E-17
3.315115E+03	1.565084E-15	3.764251E-17
3.325070E+03	1.604073E-15	3.834943E-17
3.335026E+03	1.643790E-15	3.906175E-17
3.344981E+03	1.684153E-15	3.977719E-17
3.354936E+03	1.725061E-15	4.049303E-17
3.364892E+03	1.766386E-15	4.120601E-17
3.374847E+03	1.807943E-15	4.191163E-17
3.384802E+03	1.849566E-15	4.260591E-17
3.394758E+03	1.890970E-15	4.328228E-17
3.404713E+03	1.931938E-15	4.393585E-17
3.414668E+03	1.972107E-15	4.455859E-17
3.424623E+03	2.011130E-15	4.514301E-17
3.434579E+03	2.048627E-15	4.568113E-17
3.444534E+03	2.084160E-15	4.616388E-17
3.454489E+03	2.117327E-15	4.658329E-17
3.464445E+03	2.147657E-15	4.693010E-17
3.474400E+03	2.174674E-15	4.719521E-17
3.484355E+03	2.197946E-15	4.737081E-17
3.494311E+03	2.217029E-15	4.744909E-17
3.504266E+03	2.231568E-15	4.742433E-17
3.514221E+03	2.241142E-15	4.728977E-17
3.524176E+03	2.245498E-15	4.704233E-17
3.534132E+03	2.244392E-15	4.667934E-17
3.544087E+03	2.237699E-15	4.620069E-17
3.554042E+03	2.225336E-15	4.560726E-17
3.563998E+03	2.207365E-15	4.490293E-17
3.573953E+03	2.184047E-15	4.409555E-17
3.583908E+03	2.155690E-15	4.319382E-17
3.593864E+03	2.122880E-15	4.221169E-17
3.603819E+03	2.086301E-15	4.116476E-17
3.613774E+03	2.046710E-15	4.006964E-17
3.623729E+03	2.004952E-15	3.894416E-17
3.633685E+03	1.961946E-15	3.780707E-17
3.643640E+03	1.918571E-15	3.667583E-17
3.653595E+03	1.875785E-15	3.556876E-17
3.663551E+03	1.834539E-15	3.450355E-17
3.673506E+03	1.795819E-15	3.349794E-17
3.683461E+03	1.760542E-15	3.256772E-17
3.693417E+03	1.729640E-15	3.172842E-17
3.703372E+03	1.703955E-15	3.099339E-17
3.713327E+03	1.684298E-15	3.037484E-17
3.723282E+03	1.671406E-15	2.988319E-17
3.733238E+03	1.665998E-15	2.952804E-17
3.743193E+03	1.668741E-15	2.931767E-17
3.753148E+03	1.680281E-15	2.925954E-17
3.763104E+03	1.701249E-15	2.936047E-17
3.773059E+03	1.732266E-15	2.962673E-17
3.783014E+03	1.773948E-15	3.006408E-17
3.792970E+03	1.826812E-15	3.067626E-17
3.802925E+03	1.891396E-15	3.146707E-17
3.812880E+03	1.968045E-15	3.243674E-17
3.822835E+03	2.056905E-15	3.358212E-17
3.832791E+03	2.157964E-15	3.489735E-17
3.842746E+03	2.270797E-15	3.637004E-17
3.852701E+03	2.394572E-15	3.798159E-17
3.862657E+03	2.527997E-15	3.970672E-17
3.872612E+03	2.669093E-15	4.151028E-17
3.882567E+03	2.815302E-15	4.334945E-17
3.892523E+03	2.963467E-15	4.517391E-17
3.902478E+03	3.109989E-15	4.692857E-17
3.912433E+03	3.250852E-15	4.855443E-17
3.922388E+03	3.381863E-15	4.999227E-17
3.932344E+03	3.499169E-15	5.119047E-17
3.942299E+03	3.599216E-15	5.210409E-17
3.952254E+03	3.678998E-15	5.269818E-17
3.962210E+03	3.736712E-15	5.295665E-17
3.972165E+03	3.771419E-15	5.287656E-17
3.982120E+03	3.783241E-15	5.247025E-17
3.992076E+03	3.773487E-15	5.176617E-17
4.002031E+03	3.744300E-15	5.080329E-17
4.011986E+03	3.698565E-15	4.962912E-17
4.021941E+03	3.639601E-15	4.829522E-17
4.031897E+03	3.571019E-15	4.685490E-17
4.041852E+03	3.496357E-15	4.535835E-17
4.051807E+03	3.418879E-15	4.385010E-17
4.061763E+03	3.341551E-15	4.236898E-17
4.071718E+03	3.266952E-15	4.094720E-17
4.081673E+03	3.196977E-15	3.960703E-17
4.091629E+03	3.133136E-15	3.836489E-17
4.101584E+03	3.076576E-15	3.723200E-17
4.111539E+03	3.027717E-15	3.621023E-17
4.121494E+03	2.986743E-15	3.529849E-17
4.131450E+03	2.953563E-15	3.449236E-17
4.141405E+03	2.927721E-15	3.378340E-17
4.151360E+03	2.908586E-15	3.316136E-17
4.161316E+03	2.895404E-15	3.261509E-17
4.171271E+03	2.887278E-15	3.213225E-17
4.181226E+03	2.883242E-15	3.170032E-17
4.191182E+03	2.882324E-15	3.130721E-17
4.201137E+03	2.883574E-15	3.094168E-17
4.211092E+03	2.886057E-15	3.059310E-17
4.221047E+03	2.888899E-15	3.025205E-17
4.231003E+03	2.891288E-15	2.991016E-17
4.240958E+03	2.892469E-15	2.956010E-17
4.250913E+03	2.891744E-15	2.919544E-17
4.260869E+03	2.888602E-15	2.881199E-17
4.270824E+03	2.882657E-15	2.840699E-17
4.280779E+03	2.873674E-15	2.797933E-17
4.290735E+03	2.861534E-15	2.752907E-17
4.300690E+03	2.846256E-15	2.705760E-17
4.310645E+03	2.828025E-15	2.656785E-17
4.320601E+03	2.806850E-15	2.606097E-17
4.330556E+03	2.782918E-15	2.553960E-17
4.340511E+03	2.756205E-15	2.500423E-17
4.350466E+03	2.725973E-15	2.444891E-17
4.360422E+03	2.691774E-15	2.387052E-17
4.370377E+03	2.654064E-15	2.327399E-17
4.380332E+03	2.614712E-15	2.267629E-17
4.390288E+03	2.577611E-15	2.211100E-17
4.400243E+03	2.547010E-15	2.161328E-17
4.410198E+03	2.526286E-15	2.120944E-17
4.420154E+03	2.518230E-15	2.091983E-17
4.430109E+03	2.524964E-15	2.075848E-17
4.440064E+03	2.547632E-15	2.073087E-17
4.450019E+03	2.586838E-15	2.083799E-17
4.459975E+03	2.642607E-15	2.107618E-17
4.469930E+03	2.714200E-15	2.143596E-17
4.479885E+03	2.800312E-15	2.190386E-17
4.489841E+03	2.899075E-15	2.246259E-17
4.499796E+03	3.007695E-15	2.308852E-17
4.509751E+03	3.122791E-15	2.375444E-17
4.519707E+03	3.240587E-15	2.443123E-17
4.529662E+03	3.357005E-15	2.508856E-17
4.539617E+03	3.467848E-15	2.569631E-17
4.549572E+03	3.569023E-15	2.622614E-17
4.559528E+03	3.656790E-15	2.665321E-17
4.569483E+03	3.727831E-15	2.695644E-17
4.579438E+03	3.779550E-15	2.712056E-17
4.589394E+03	3.810067E-15	2.713569E-17
4.599349E+03	3.818387E-15	2.699844E-17
4.609304E+03	3.804297E-15	2.671079E-17
4.619260E+03	3.768230E-15	2.627902E-17
4.629215E+03	3.711220E-15	2.571322E-17
4.639170E+03	3.635432E-15	2.503081E-17
4.649125E+03	3.543586E-15	2.425240E-17
4.659081E+03	3.438996E-15	2.340198E-17
4.669036E+03	3.325367E-15	2.250549E-17
4.678991E+03	3.206507E-15	2.158887E-17
4.688947E+03	3.086137E-15	2.067687E-17
4.698902E+03	2.967322E-15	1.978934E-17
4.708857E+03	2.852127E-15	1.893904E-17
4.718813E+03	2.741836E-15	1.813315E-17
4.728768E+03	2.636459E-15	1.737033E-17
4.738723E+03	2.534151E-15	1.663722E-17
4.748678E+03	2.432495E-15	1.591695E-17
4.758634E+03	2.329439E-15	1.519532E-17
4.768589E+03	2.224764E-15	1.447025E-17
4.778544E+03	2.123330E-15	1.377267E-17
4.788500E+03	2.030752E-15	1.313815E-17
4.798455E+03	1.950804E-15	1.259005E-17
4.808410E+03	1.885783E-15	1.214212E-17
4.818366E+03	1.836818E-15	1.180055E-17
4.828321E+03	1.803607E-15	1.156242E-17
4.838276E+03	1.785098E-15	1.142010E-17
4.848231E+03	1.779869E-15	1.136369E-17
4.858187E+03	1.786047E-15	1.138057E-17
4.868142E+03	1.801445E-15	1.145621E-17
4.878097E+03	1.823726E-15	1.157528E-17
4.888053E+03	1.850353E-15	1.172128E-17
4.898008E+03	1.878785E-15	1.187782E-17
4.907963E+03	1.906641E-15	1.202965E-17
4.917919E+03	1.932219E-15	1.216590E-17
4.927874E+03	1.954346E-15	1.227914E-17
4.937829E+03	1.972319E-15	1.236494E-17
4.947784E+03	1.986174E-15	1.242354E-17
4.957740E+03	1.996446E-15	1.245833E-17
4.967695E+03	2.004077E-15	1.247521E-17
4.977650E+03	2.010189E-15	1.248116E-17
4.987606E+03	2.016169E-15	1.248472E-17
4.997561E+03	2.023339E-15	1.249400E-17
5.007516E+03	2.032676E-15	1.251485E-17
5.017472E+03	2.045044E-15	1.255238E-17
5.027427E+03	2.061103E-15	1.261038E-17
5.037382E+03	2.081062E-15	1.268982E-17
5.047337E+03	2.104920E-15	1.279038E-17
5.057293E+03	2.132559E-15	1.291101E-17
5.067248E+03	2.163687E-15	1.304962E-17
5.077203E+03	2.197959E-15	1.320382E-17
5.087159E+03	2.235062E-15	1.337142E-17
5.097114E+03	2.274721E-15	1.355051E-17
5.107069E+03	2.316823E-15	1.374016E-17
5.117025E+03	2.361217E-15	1.393922E-17
5.126980E+03	2.407990E-15	1.414796E-17
5.136935E+03	2.457232E-15	1.436667E-17
5.146890E+03	2.509091E-15	1.459596E-17
5.156846E+03	2.563682E-15	1.483626E-17
5.166801E+03	2.621057E-15	1.508762E-17
5.176756E+03	2.681186E-15	1.534963E-17
5.186712E+03	2.743774E-15	1.562037E-17
5.196667E+03	2.808428E-15	1.589747E-17
5.206622E+03	2.874420E-15	1.617669E-17
5.216578E+03	2.940797E-15	1.645269E-17
5.226533E+03	3.006398E-15	1.671912E-17
5.236488E+03	3.069948E-15	1.696918E-17
5.246443E+03	3.129940E-15	1.719502E-17
5.256399E+03	3.184975E-15	1.738959E-17
5.266354E+03	3.233716E-15	1.754645E-17
5.276309E+03	3.275006E-15	1.766029E-17
5.286265E+03	3.307910E-15	1.772720E-17
5.296220E+03	3.331847E-15	1.774529E-17
5.306175E+03	3.346333E-15	1.771328E-17
5.316131E+03	3.351269E-15	1.763194E-17
5.326086E+03	3.346779E-15	1.750322E-17
5.336041E+03	3.333006E-15	1.732913E-17
5.345996E+03	3.310187E-15	1.711211E-17
5.355952E+03	3.278909E-15	1.685630E-17
5.365907E+03	3.239600E-15	1.656493E-17
5.375862E+03	3.192913E-15	1.624222E-17
5.385818E+03	3.139697E-15	1.589326E-17
5.395773E+03	3.080956E-15	1.552374E-17
5.405728E+03	3.018081E-15	1.514113E-17
5.415684E+03	2.952887E-15	1.475480E-17
5.425639E+03	2.887891E-15	1.437742E-17
5.435594E+03	2.826031E-15	1.402348E-17
5.445549E+03	2.770832E-15	1.371013E-17
5.455505E+03	2.726699E-15	1.345823E-17
5.465460E+03	2.697172E-15	1.328420E-17
5.475415E+03	2.682974E-15	1.319060E-17
5.485371E+03	2.680516E-15	1.315895E-17
5.495326E+03	2.684466E-15	1.316245E-17
5.505281E+03	2.689246E-15	1.317327E-17
5.515237E+03	2.690555E-15	1.316998E-17
5.525192E+03	2.685052E-15	1.313589E-17
5.535147E+03	2.670473E-15	1.305956E-17
5.545102E+03	2.645655E-15	1.293494E-17
5.555058E+03	2.610462E-15	1.276100E-17
5.565013E+03	2.565564E-15	1.254061E-17
5.574968E+03	2.512417E-15	1.228051E-17
5.584924E+03	2.452881E-15	1.198944E-17
5.594879E+03	2.389189E-15	1.167799E-17
5.604834E+03	2.323783E-15	1.135781E-17
5.614790E+03	2.259076E-15	1.104046E-17
5.624745E+03	2.197355E-15	1.073692E-17
5.634700E+03	2.140643E-15	1.045690E-17
5.644655E+03	2.090756E-15	1.020911E-17
5.654611E+03	2.049198E-15	1.000074E-17
5.664566E+03	2.017061E-15	9.836965E-18
5.674521E+03	1.995186E-15	9.721675E-18
5.684477E+03	1.984156E-15	9.657483E-18
5.694432E+03	1.984243E-15	9.645422E-18
5.704387E+03	1.995430E-15	9.685058E-18
5.714343E+03	2.017580E-15	9.775321E-18
5.724298E+03	2.050155E-15	9.913139E-18
5.734253E+03	2.092347E-15	1.009408E-17
5.744209E+03	2.143154E-15	1.031276E-17
5.754164E+03	2.201243E-15	1.056218E-17
5.764119E+03	2.264936E-15	1.083371E-17
5.774074E+03	2.332293E-15	1.111752E-17
5.784030E+03	2.401151E-15	1.140284E-17
5.793985E+03	2.469038E-15	1.167757E-17
5.803940E+03	2.533502E-15	1.192992E-17
5.813896E+03	2.592331E-15	1.214947E-17
5.823851E+03	2.643534E-15	1.232708E-17
5.833806E+03	2.685497E-15	1.245563E-17
5.843762E+03	2.717202E-15	1.253099E-17
5.853717E+03	2.738266E-15	1.255219E-17
5.863672E+03	2.748689E-15	1.252014E-17
5.873627E+03	2.749043E-15	1.243842E-17
5.883583E+03	2.740267E-15	1.231234E-17
5.893538E+03	2.723526E-15	1.214816E-17
5.903493E+03	2.700120E-15	1.195268E-17
5.913449E+03	2.671316E-15	1.173242E-17
5.923404E+03	2.638400E-15	1.149389E-17
5.933359E+03	2.602506E-15	1.124278E-17
5.943315E+03	2.564621E-15	1.098401E-17
5.953270E+03	2.525527E-15	1.072153E-17
5.963225E+03	2.485910E-15	1.045876E-17
5.973180E+03	2.446158E-15	1.019779E-17
5.983136E+03	2.406685E-15	9.940750E-18
5.993091E+03	2.367519E-15	9.688162E-18
6.003046E+03	2.328647E-15	9.440349E-18
6.013002E+03	2.289945E-15	9.197203E-18
6.022957E+03	2.251009E-15	8.957531E-18
6.032912E+03	2.211404E-15	8.720047E-18
6.042868E+03	2.170688E-15	8.483510E-18
6.052823E+03	2.128660E-15	8.247648E-18
6.062778E+03	2.085153E-15	8.012314E-18
6.072733E+03	2.040444E-15	7.779044E-18
6.082689E+03	1.995366E-15	7.551400E-18
6.092644E+03	1.951074E-15	7.334004E-18
6.102599E+03	1.909062E-15	7.132608E-18
6.112555E+03	1.871459E-15	6.955164E-18
6.122510E+03	1.840456E-15	6.809702E-18
6.132465E+03	1.818104E-15	6.703675E-18
6.142421E+03	1.806201E-15	6.643613E-18
6.152376E+03	1.805949E-15	6.633992E-18
6.162331E+03	1.817582E-15	6.675870E-18
6.172286E+03	1.839566E-15	6.763696E-18
6.182242E+03	1.868699E-15	6.885897E-18
6.192197E+03	1.899393E-15	7.022146E-18
6.202152E+03	1.922852E-15	7.139980E-18
6.212108E+03	1.930421E-15	7.206758E-18
6.222063E+03	1.920317E-15	7.214634E-18
6.232018E+03	1.898283E-15	7.183691E-18
6.241974E+03	1.871737E-15	7.140727E-18
6.251929E+03	1.847401E-15	7.110638E-18
6.261884E+03	1.829324E-15	7.108853E-18
6.271839E+03	1.819719E-15	7.144313E-18
6.281795E+03	1.819481E-15	7.221215E-18
6.291750E+03	1.828075E-15	7.338339E-18
6.301705E+03	1.844139E-15	7.491148E-18
6.311661E+03	1.865935E-15	7.673427E-18
6.321616E+03	1.891476E-15	7.877654E-18
6.331571E+03	1.918593E-15	8.095195E-18
6.341527E+03	1.945224E-15	8.317408E-18
6.351482E+03	1.969491E-15	8.536003E-18
6.361437E+03	1.989789E-15	8.743413E-18
6.371392E+03	2.004884E-15	8.933190E-18
6.381348E+03	2.014129E-15	9.101106E-18
6.391303E+03	2.017264E-15	9.244510E-18
6.401258E+03	2.014550E-15	9.363059E-18
6.411214E+03	2.006589E-15	9.458079E-18
6.421169E+03	1.994302E-15	9.532562E-18
6.431124E+03	1.978864E-15	9.590992E-18
6.441080E+03	1.961516E-15	9.638491E-18
6.451035E+03	1.943578E-15	9.680955E-18
6.460990E+03	1.926235E-15	9.723945E-18
6.470945E+03	1.910524E-15	9.772629E-18
6.480901E+03	1.897277E-15	9.831411E-18
6.490856E+03	1.887166E-15	9.904085E-18
6.500811E+03	1.880676E-15	9.993639E-18
6.510767E+03	1.878108E-15	1.010221E-17
6.520722E+03	1.879614E-15	1.023120E-17
6.530677E+03	1.885125E-15	1.038083E-17
6.540633E+03	1.894437E-15	1.055051E-17
6.550588E+03	1.907135E-15	1.073845E-17
6.560543E+03	1.922662E-15	1.094188E-17
6.570498E+03	1.940362E-15	1.115735E-17
6.580454E+03	1.959450E-15	1.138047E-17
6.590409E+03	1.979045E-15	1.160609E-17
6.600364E+03	1.998275E-15	1.182894E-17
6.610320E+03	2.016203E-15	1.204314E-17
6.620275E+03	2.032083E-15	1.224380E-17
6.630230E+03	2.045092E-15	1.242540E-17
6.640186E+03	2.054576E-15	1.258334E-17
6.650141E+03	2.060121E-15	1.271440E-17
6.660096E+03	2.061417E-15	1.281597E-17
6.670051E+03	2.058256E-15	1.288608E-17
6.680007E+03	2.050689E-15	1.292439E-17
6.689962E+03	2.038933E-15	1.293171E-17
6.699917E+03	2.023239E-15	1.290912E-17
6.709873E+03	2.004074E-15	1.285920E-17
6.719828E+03	1.981865E-15	1.278437E-17
6.729783E+03	1.957215E-15	1.268832E-17
6.739739E+03	1.930641E-15	1.257427E-17
6.749694E+03	1.902792E-15	1.244642E-17
6.759649E+03	1.874162E-15	1.230801E-17
6.769604E+03	1.845342E-15	1.216305E-17
6.779560E+03	1.816853E-15	1.201510E-17
6.789515E+03	1.789151E-15	1.186736E-17
6.799470E+03	1.762773E-15	1.172361E-17
6.809426E+03	1.738151E-15	1.158696E-17
6.819381E+03	1.715729E-15	1.146057E-17
6.829336E+03	1.695767E-15	1.134642E-17
6.839292E+03	1.678604E-15	1.124698E-17
6.849247E+03	1.664435E-15	1.116375E-17
6.859202E+03	1.653425E-15	1.109799E-17
6.869157E+03	1.645667E-15	1.105043E-17
6.879113E+03	1.641281E-15	1.102196E-17
6.889068E+03	1.640098E-15	1.101151E-17
6.899023E+03	1.642072E-15	1.101876E-17
6.908979E+03	1.646952E-15	1.104199E-17
6.918934E+03	1.654462E-15	1.107928E-17
6.928889E+03	1.664300E-15	1.112856E-17
6.938845E+03	1.676058E-15	1.118696E-17
6.948800E+03	1.689292E-15	1.125144E-17
6.958755E+03	1.703517E-15	1.131864E-17
6.968710E+03	1.718214E-15	1.138505E-17
6.978666E+03	1.732847E-15	1.144703E-17
6.988621E+03	1.746833E-15	1.150072E-17
6.998576E+03	1.759700E-15	1.154304E-17
7.008532E+03	1.770853E-15	1.157015E-17
7.018487E+03	1.779940E-15	1.157989E-17
7.028442E+03	1.786457E-15	1.156919E-17
7.038398E+03	1.790176E-15	1.153684E-17
7.048353E+03	1.790842E-15	1.148152E-17
7.058308E+03	1.788338E-15	1.140288E-17
7.068263E+03	1.782734E-15	1.130179E-17
7.078219E+03	1.774097E-15	1.117914E-17
7.088174E+03	1.762718E-15	1.103721E-17
7.098129E+03	1.748979E-15	1.087889E-17
7.108085E+03	1.733416E-15	1.070794E-17
7.118040E+03	1.716563E-15	1.052806E-17
7.127995E+03	1.698924E-15	1.034267E-17
7.137951E+03	1.681060E-15	1.015546E-17
7.147906E+03	1.663380E-15	9.969103E-18
7.157861E+03	1.646323E-15	9.786394E-18
7.167817E+03	1.630154E-15	9.608997E-18
7.177772E+03	1.615059E-15	9.438067E-18
7.187727E+03	1.601181E-15	9.274469E-18
7.197682E+03	1.588561E-15	9.118440E-18
7.207638E+03	1.577150E-15	8.969718E-18
7.217593E+03	1.566873E-15	8.827875E-18
7.227548E+03	1.557621E-15	8.692339E-18
7.237504E+03	1.549277E-15	8.562505E-18
7.247459E+03	1.541699E-15	8.437666E-18
7.257414E+03	1.534688E-15	8.316831E-18
7.267370E+03	1.528180E-15	8.199802E-18
7.277325E+03	1.522017E-15	8.085894E-18
7.287280E+03	1.516054E-15	7.974516E-18
7.297235E+03	1.510217E-15	7.865513E-18
7.307191E+03	1.504365E-15	7.758389E-18
7.317146E+03	1.498423E-15	7.653025E-18
7.327101E+03	1.492312E-15	7.549294E-18
7.337057E+03	1.485958E-15	7.447126E-18
7.347012E+03	1.479337E-15	7.346703E-18
7.356967E+03	1.472283E-15	7.247523E-18
7.366923E+03	1.464833E-15	7.150085E-18
7.376878E+03	1.456877E-15	7.054176E-18
7.386833E+03	1.448380E-15	6.959943E-18
7.396788E+03	1.439288E-15	6.867437E-18
7.406744E+03	1.429560E-15	6.776756E-18
7.416699E+03	1.419181E-15	6.688110E-18
7.426654E+03	1.408177E-15	6.601865E-18
7.436610E+03	1.396697E-15	6.518932E-18
7.446565E+03	1.384742E-15	6.439471E-18
7.456520E+03	1.372486E-15	6.364217E-18
7.466476E+03	1.360030E-15	6.293377E-18
7.476431E+03	1.347601E-15	6.227736E-18
7.486386E+03	1.335356E-15	6.167727E-18
7.496341E+03	1.323481E-15	6.113934E-18
7.506297E+03	1.312183E-15	6.067030E-18
7.516252E+03	1.301657E-15	6.027643E-18
7.526207E+03	1.292119E-15	5.996529E-18
7.536163E+03	1.283600E-15	5.973605E-18
7.546118E+03	1.276132E-15	5.958815E-18
7.556073E+03	1.269660E-15	5.951730E-18
7.566029E+03	1.263989E-15	5.951261E-18
7.575984E+03	1.258869E-15	5.956085E-18
7.585939E+03	1.254010E-15	5.964662E-18
7.595894E+03	1.249471E-15	5.977118E-18
7.605850E+03	1.245248E-15	5.993284E-18
7.615805E+03	1.241394E-15	6.013296E-18
7.625760E+03	1.237823E-15	6.036618E-18
7.635716E+03	1.234548E-15	6.063213E-18
7.645671E+03	1.231481E-15	6.092542E-18
7.655626E+03	1.228661E-15	6.124723E-18
7.665582E+03	1.226078E-15	6.159624E-18
7.675537E+03	1.223772E-15	6.197390E-18
7.685492E+03	1.221803E-15	6.238285E-18
7.695447E+03	1.220241E-15	6.282642E-18
7.705403E+03	1.219166E-15	6.330875E-18
7.715358E+03	1.218626E-15	6.383254E-18
7.725313E+03	1.218695E-15	6.440201E-18
