#wls	flux	fluxerr
1.592848E+03	4.220703E-17	6.526685E-18
1.632669E+03	4.403935E-17	6.774693E-18
1.672491E+03	4.574161E-17	6.999019E-18
1.712312E+03	4.727735E-17	7.194322E-18
1.752133E+03	4.861789E-17	7.356581E-18
1.791954E+03	4.967307E-17	7.472641E-18
1.831775E+03	5.035390E-17	7.529870E-18
1.871597E+03	5.053777E-17	7.510993E-18
1.911418E+03	5.011158E-17	7.400649E-18
1.951239E+03	4.900969E-17	7.190934E-18
1.991060E+03	4.729619E-17	6.893182E-18
2.030881E+03	4.525729E-17	6.550715E-18
2.070703E+03	4.342741E-17	6.241431E-18
2.110524E+03	4.253702E-17	6.069016E-18
2.150345E+03	4.324653E-17	6.124087E-18
2.190166E+03	4.593059E-17	6.454108E-18
2.229987E+03	5.059623E-17	7.053399E-18
2.269809E+03	5.695564E-17	7.875208E-18
2.309630E+03	6.459150E-17	8.856075E-18
2.349451E+03	7.310912E-17	9.937342E-18
2.389272E+03	8.217110E-17	1.106978E-17
2.429093E+03	9.157317E-17	1.222347E-17
2.468915E+03	1.011598E-16	1.337585E-17
2.508736E+03	1.108609E-16	1.451631E-17
2.548557E+03	1.206029E-16	1.563409E-17
2.588378E+03	1.303412E-16	1.672254E-17
2.628199E+03	1.400189E-16	1.777365E-17
2.668021E+03	1.495836E-16	1.878028E-17
2.707842E+03	1.589251E-16	1.972846E-17
2.747663E+03	1.679662E-16	2.060885E-17
2.787484E+03	1.765874E-16	2.140751E-17
2.827305E+03	1.846620E-16	2.211038E-17
2.867127E+03	1.920595E-16	2.270379E-17
2.906948E+03	1.986808E-16	2.317863E-17
2.946769E+03	2.044359E-16	2.352758E-17
2.986590E+03	2.092544E-16	2.374623E-17
2.996546E+03	2.103132E-16	2.378106E-17
3.006501E+03	2.113080E-16	2.380746E-17
3.016456E+03	2.122362E-16	2.382521E-17
3.026411E+03	2.131139E-16	2.383617E-17
3.036367E+03	2.139467E-16	2.384103E-17
3.046322E+03	2.147534E-16	2.384192E-17
3.056277E+03	2.155286E-16	2.383829E-17
3.066233E+03	2.162852E-16	2.383158E-17
3.076188E+03	2.170011E-16	2.381940E-17
3.086143E+03	2.176764E-16	2.380178E-17
3.096099E+03	2.183108E-16	2.377877E-17
3.106054E+03	2.188981E-16	2.374973E-17
3.116009E+03	2.194392E-16	2.371480E-17
3.125964E+03	2.199223E-16	2.367279E-17
3.135920E+03	2.203555E-16	2.362462E-17
3.145875E+03	2.207344E-16	2.356990E-17
3.155830E+03	2.210612E-16	2.350892E-17
3.165786E+03	2.213263E-16	2.344073E-17
3.175741E+03	2.215329E-16	2.336576E-17
3.185696E+03	2.216845E-16	2.328443E-17
3.195652E+03	2.217787E-16	2.319659E-17
3.205607E+03	2.218197E-16	2.310273E-17
3.215562E+03	2.218061E-16	2.300278E-17
3.225517E+03	2.217424E-16	2.289729E-17
3.235473E+03	2.216282E-16	2.278628E-17
3.245428E+03	2.214633E-16	2.266979E-17
3.255383E+03	2.212534E-16	2.254847E-17
3.265339E+03	2.209991E-16	2.242247E-17
3.275294E+03	2.207016E-16	2.229194E-17
3.285249E+03	2.203723E-16	2.215811E-17
3.295205E+03	2.200081E-16	2.202069E-17
3.305160E+03	2.196112E-16	2.187998E-17
3.315115E+03	2.191845E-16	2.173630E-17
3.325070E+03	2.187401E-16	2.159089E-17
3.335026E+03	2.182726E-16	2.144324E-17
3.344981E+03	2.177902E-16	2.129421E-17
3.354936E+03	2.172974E-16	2.114423E-17
3.364892E+03	2.167947E-16	2.099340E-17
3.374847E+03	2.162877E-16	2.084225E-17
3.384802E+03	2.157861E-16	2.069174E-17
3.394758E+03	2.152845E-16	2.054133E-17
3.404713E+03	2.147976E-16	2.039244E-17
3.414668E+03	2.143216E-16	2.024467E-17
3.424623E+03	2.138683E-16	2.009914E-17
3.434579E+03	2.134357E-16	1.995563E-17
3.444534E+03	2.130369E-16	1.981532E-17
3.454489E+03	2.126717E-16	1.967815E-17
3.464445E+03	2.123509E-16	1.954508E-17
3.474400E+03	2.120763E-16	1.941620E-17
3.484355E+03	2.118602E-16	1.929256E-17
3.494311E+03	2.117060E-16	1.917440E-17
3.504266E+03	2.116245E-16	1.906260E-17
3.514221E+03	2.116239E-16	1.895779E-17
3.524176E+03	2.117133E-16	1.886065E-17
3.534132E+03	2.119054E-16	1.877219E-17
3.544087E+03	2.122044E-16	1.869262E-17
3.554042E+03	2.126243E-16	1.862300E-17
3.563998E+03	2.131790E-16	1.856436E-17
3.573953E+03	2.138797E-16	1.851748E-17
3.583908E+03	2.147380E-16	1.848312E-17
3.593864E+03	2.157651E-16	1.846201E-17
3.603819E+03	2.169753E-16	1.845510E-17
3.613774E+03	2.183826E-16	1.846329E-17
3.623729E+03	2.199929E-16	1.848677E-17
3.633685E+03	2.218230E-16	1.852663E-17
3.643640E+03	2.238814E-16	1.858323E-17
3.653595E+03	2.261874E-16	1.865780E-17
3.663551E+03	2.287519E-16	1.875086E-17
3.673506E+03	2.315884E-16	1.886307E-17
3.683461E+03	2.347125E-16	1.899528E-17
3.693417E+03	2.381366E-16	1.914803E-17
3.703372E+03	2.418778E-16	1.932219E-17
3.713327E+03	2.459443E-16	1.951791E-17
3.723282E+03	2.503507E-16	1.973582E-17
3.733238E+03	2.551078E-16	1.997620E-17
3.743193E+03	2.602271E-16	2.023940E-17
3.753148E+03	2.657125E-16	2.052510E-17
3.763104E+03	2.715706E-16	2.083322E-17
3.773059E+03	2.778020E-16	2.116321E-17
3.783014E+03	2.844070E-16	2.151445E-17
3.792970E+03	2.913753E-16	2.188557E-17
3.802925E+03	2.987043E-16	2.227576E-17
3.812880E+03	3.063709E-16	2.268271E-17
3.822835E+03	3.143587E-16	2.310466E-17
3.832791E+03	3.226356E-16	2.353871E-17
3.842746E+03	3.311762E-16	2.398255E-17
3.852701E+03	3.399321E-16	2.443224E-17
3.862657E+03	3.488579E-16	2.488418E-17
3.872612E+03	3.579055E-16	2.533465E-17
3.882567E+03	3.670105E-16	2.577893E-17
3.892523E+03	3.761097E-16	2.621249E-17
3.902478E+03	3.851359E-16	2.663068E-17
3.912433E+03	3.940111E-16	2.702826E-17
3.922388E+03	4.026669E-16	2.740081E-17
3.932344E+03	4.110274E-16	2.774354E-17
3.942299E+03	4.190142E-16	2.805170E-17
3.952254E+03	4.265652E-16	2.832177E-17
3.962210E+03	4.336154E-16	2.855019E-17
3.972165E+03	4.401120E-16	2.873433E-17
3.982120E+03	4.460038E-16	2.887182E-17
3.992076E+03	4.512586E-16	2.896158E-17
4.002031E+03	4.558516E-16	2.900311E-17
4.011986E+03	4.597723E-16	2.899687E-17
4.021941E+03	4.630310E-16	2.894461E-17
4.031897E+03	4.656343E-16	2.884787E-17
4.041852E+03	4.676196E-16	2.871007E-17
4.051807E+03	4.690219E-16	2.853439E-17
4.061763E+03	4.698970E-16	2.832517E-17
4.071718E+03	4.703026E-16	2.808677E-17
4.081673E+03	4.703019E-16	2.782375E-17
4.091629E+03	4.699744E-16	2.754146E-17
4.101584E+03	4.693902E-16	2.724455E-17
4.111539E+03	4.686241E-16	2.693777E-17
4.121494E+03	4.677522E-16	2.662579E-17
4.131450E+03	4.668501E-16	2.631307E-17
4.141405E+03	4.659833E-16	2.600334E-17
4.151360E+03	4.652196E-16	2.570033E-17
4.161316E+03	4.646131E-16	2.540684E-17
4.171271E+03	4.642120E-16	2.512525E-17
4.181226E+03	4.640693E-16	2.485808E-17
4.191182E+03	4.642194E-16	2.460677E-17
4.201137E+03	4.646883E-16	2.437220E-17
4.211092E+03	4.655043E-16	2.415536E-17
4.221047E+03	4.666750E-16	2.395609E-17
4.231003E+03	4.682157E-16	2.377462E-17
4.240958E+03	4.701257E-16	2.361033E-17
4.250913E+03	4.724001E-16	2.346241E-17
4.260869E+03	4.750329E-16	2.333000E-17
4.270824E+03	4.780053E-16	2.321165E-17
4.280779E+03	4.813057E-16	2.310629E-17
4.290735E+03	4.849072E-16	2.301216E-17
4.300690E+03	4.887943E-16	2.292811E-17
4.310645E+03	4.929461E-16	2.285274E-17
4.320601E+03	4.973462E-16	2.278497E-17
4.330556E+03	5.019755E-16	2.272357E-17
4.340511E+03	5.068322E-16	2.266819E-17
4.350466E+03	5.119238E-16	2.261888E-17
4.360422E+03	5.172835E-16	2.257679E-17
4.370377E+03	5.229497E-16	2.254324E-17
4.380332E+03	5.289817E-16	2.252037E-17
4.390288E+03	5.354707E-16	2.251156E-17
4.400243E+03	5.425015E-16	2.251970E-17
4.410198E+03	5.501772E-16	2.254831E-17
4.420154E+03	5.586031E-16	2.260077E-17
4.430109E+03	5.678723E-16	2.267978E-17
4.440064E+03	5.780801E-16	2.278796E-17
4.450019E+03	5.893109E-16	2.292734E-17
4.459975E+03	6.016182E-16	2.309858E-17
4.469930E+03	6.150553E-16	2.330230E-17
4.479885E+03	6.296301E-16	2.353730E-17
4.489841E+03	6.453364E-16	2.380193E-17
4.499796E+03	6.621318E-16	2.409325E-17
4.509751E+03	6.799227E-16	2.440661E-17
4.519707E+03	6.985945E-16	2.473687E-17
4.529662E+03	7.179788E-16	2.507725E-17
4.539617E+03	7.378705E-16	2.542009E-17
4.549572E+03	7.580179E-16	2.575657E-17
4.559528E+03	7.781373E-16	2.607731E-17
4.569483E+03	7.979091E-16	2.637231E-17
4.579438E+03	8.169973E-16	2.663161E-17
4.589394E+03	8.350552E-16	2.684556E-17
4.599349E+03	8.517307E-16	2.700494E-17
4.609304E+03	8.666950E-16	2.710185E-17
4.619260E+03	8.796530E-16	2.712996E-17
4.629215E+03	8.903610E-16	2.708498E-17
4.639170E+03	8.986137E-16	2.696407E-17
4.649125E+03	9.042964E-16	2.676736E-17
4.659081E+03	9.073646E-16	2.649710E-17
4.669036E+03	9.078618E-16	2.615801E-17
4.678991E+03	9.058760E-16	2.575592E-17
4.688947E+03	9.015938E-16	2.529914E-17
4.698902E+03	8.952338E-16	2.479646E-17
4.708857E+03	8.870832E-16	2.425813E-17
4.718813E+03	8.774621E-16	2.369472E-17
4.728768E+03	8.667339E-16	2.311747E-17
4.738723E+03	8.552616E-16	2.253697E-17
4.748678E+03	8.434264E-16	2.196381E-17
4.758634E+03	8.316095E-16	2.140801E-17
4.768589E+03	8.201754E-16	2.087869E-17
4.778544E+03	8.094666E-16	2.038403E-17
4.788500E+03	7.997804E-16	1.993068E-17
4.798455E+03	7.913796E-16	1.952422E-17
4.808410E+03	7.845011E-16	1.916936E-17
4.818366E+03	7.793239E-16	1.886932E-17
4.828321E+03	7.759685E-16	1.862584E-17
4.838276E+03	7.745236E-16	1.843974E-17
4.848231E+03	7.749987E-16	1.830980E-17
4.858187E+03	7.773790E-16	1.823432E-17
4.868142E+03	7.815859E-16	1.821026E-17
4.878097E+03	7.874890E-16	1.823353E-17
4.888053E+03	7.949055E-16	1.829904E-17
4.898008E+03	8.036109E-16	1.840091E-17
4.907963E+03	8.133178E-16	1.853200E-17
4.917919E+03	8.237098E-16	1.868469E-17
4.927874E+03	8.344286E-16	1.885058E-17
4.937829E+03	8.451020E-16	1.902107E-17
4.947784E+03	8.553415E-16	1.918731E-17
4.957740E+03	8.647636E-16	1.934065E-17
4.967695E+03	8.730416E-16	1.947373E-17
4.977650E+03	8.798781E-16	1.957990E-17
4.987606E+03	8.850534E-16	1.965421E-17
4.997561E+03	8.884347E-16	1.969361E-17
5.007516E+03	8.899888E-16	1.969721E-17
5.017472E+03	8.897672E-16	1.966597E-17
5.027427E+03	8.878967E-16	1.960243E-17
5.037382E+03	8.845969E-16	1.951114E-17
5.047337E+03	8.801327E-16	1.939762E-17
5.057293E+03	8.748008E-16	1.926806E-17
5.067248E+03	8.689341E-16	1.912942E-17
5.077203E+03	8.628594E-16	1.898855E-17
5.087159E+03	8.568949E-16	1.885210E-17
5.097114E+03	8.513311E-16	1.872612E-17
5.107069E+03	8.464567E-16	1.861666E-17
5.117025E+03	8.424900E-16	1.852823E-17
5.126980E+03	8.396613E-16	1.846566E-17
5.136935E+03	8.381545E-16	1.843275E-17
5.146890E+03	8.381148E-16	1.843248E-17
5.156846E+03	8.396694E-16	1.846747E-17
5.166801E+03	8.429233E-16	1.853985E-17
5.176756E+03	8.479288E-16	1.865062E-17
5.186712E+03	8.547300E-16	1.880060E-17
5.196667E+03	8.633268E-16	1.898966E-17
5.206622E+03	8.736818E-16	1.921684E-17
5.216578E+03	8.857068E-16	1.948006E-17
5.226533E+03	8.992834E-16	1.977660E-17
5.236488E+03	9.142210E-16	2.010214E-17
5.246443E+03	9.303125E-16	2.045200E-17
5.256399E+03	9.472686E-16	2.081971E-17
5.266354E+03	9.647842E-16	2.119846E-17
5.276309E+03	9.825064E-16	2.158040E-17
5.286265E+03	1.000037E-15	2.195671E-17
5.296220E+03	1.017005E-15	2.231919E-17
5.306175E+03	1.033002E-15	2.265886E-17
5.316131E+03	1.047661E-15	2.296770E-17
5.326086E+03	1.060671E-15	2.323890E-17
5.336041E+03	1.071761E-15	2.346663E-17
5.345996E+03	1.080750E-15	2.364704E-17
5.355952E+03	1.087540E-15	2.377814E-17
5.365907E+03	1.092158E-15	2.386070E-17
5.375862E+03	1.094713E-15	2.389730E-17
5.385818E+03	1.095424E-15	2.389292E-17
5.395773E+03	1.094594E-15	2.385439E-17
5.405728E+03	1.092586E-15	2.378986E-17
5.415684E+03	1.089786E-15	2.370789E-17
5.425639E+03	1.086573E-15	2.361693E-17
5.435594E+03	1.083302E-15	2.352487E-17
5.445549E+03	1.080221E-15	2.343722E-17
5.455505E+03	1.077477E-15	2.335733E-17
5.465460E+03	1.075037E-15	2.328459E-17
5.475415E+03	1.072730E-15	2.321548E-17
5.485371E+03	1.070172E-15	2.314182E-17
5.495326E+03	1.066846E-15	2.305256E-17
5.505281E+03	1.062197E-15	2.293549E-17
5.515237E+03	1.055640E-15	2.277784E-17
5.525192E+03	1.046662E-15	2.256830E-17
5.535147E+03	1.034907E-15	2.229905E-17
5.545102E+03	1.020163E-15	2.196544E-17
5.555058E+03	1.002437E-15	2.156749E-17
5.565013E+03	9.819463E-16	2.110981E-17
5.574968E+03	9.591039E-16	2.060124E-17
5.584924E+03	9.344858E-16	2.005413E-17
5.594879E+03	9.087842E-16	1.948330E-17
5.604834E+03	8.827599E-16	1.890503E-17
5.614790E+03	8.571906E-16	1.833596E-17
5.624745E+03	8.328315E-16	1.779213E-17
5.634700E+03	8.103840E-16	1.728843E-17
5.644655E+03	7.904817E-16	1.683818E-17
5.654611E+03	7.736566E-16	1.645246E-17
5.664566E+03	7.603563E-16	1.614045E-17
5.674521E+03	7.509805E-16	1.591020E-17
5.684477E+03	7.458089E-16	1.576711E-17
5.694432E+03	7.451097E-16	1.571619E-17
5.704387E+03	7.490523E-16	1.576025E-17
5.714343E+03	7.578081E-16	1.590203E-17
5.724298E+03	7.714583E-16	1.614221E-17
5.734253E+03	7.900855E-16	1.648137E-17
5.744209E+03	8.136896E-16	1.691826E-17
5.754164E+03	8.422005E-16	1.745000E-17
5.764119E+03	8.754868E-16	1.807239E-17
5.774074E+03	9.133176E-16	1.877908E-17
5.784030E+03	9.553258E-16	1.956086E-17
5.793985E+03	1.001021E-15	2.040606E-17
5.803940E+03	1.049783E-15	2.130041E-17
5.813896E+03	1.100826E-15	2.222649E-17
5.823851E+03	1.153253E-15	2.316486E-17
5.833806E+03	1.206043E-15	2.409395E-17
5.843762E+03	1.258108E-15	2.499132E-17
5.853717E+03	1.308279E-15	2.583344E-17
5.863672E+03	1.355458E-15	2.659880E-17
5.873627E+03	1.398586E-15	2.726725E-17
5.883583E+03	1.436721E-15	2.782162E-17
5.893538E+03	1.469089E-15	2.824862E-17
5.903493E+03	1.495120E-15	2.853945E-17
5.913449E+03	1.514490E-15	2.869045E-17
5.923404E+03	1.527090E-15	2.870246E-17
5.933359E+03	1.533046E-15	2.858087E-17
5.943315E+03	1.532706E-15	2.833536E-17
5.953270E+03	1.526600E-15	2.797889E-17
5.963225E+03	1.515340E-15	2.752570E-17
5.973180E+03	1.499709E-15	2.699286E-17
5.983136E+03	1.480525E-15	2.639764E-17
5.993091E+03	1.458582E-15	2.575644E-17
6.003046E+03	1.434692E-15	2.508544E-17
6.013002E+03	1.409633E-15	2.439977E-17
6.022957E+03	1.384043E-15	2.371158E-17
6.032912E+03	1.358564E-15	2.303266E-17
6.042868E+03	1.333674E-15	2.237160E-17
6.052823E+03	1.309793E-15	2.173567E-17
6.062778E+03	1.287230E-15	2.113004E-17
6.072733E+03	1.266238E-15	2.055868E-17
6.082689E+03	1.246956E-15	2.002361E-17
6.092644E+03	1.229448E-15	1.952556E-17
6.102599E+03	1.213713E-15	1.906417E-17
6.112555E+03	1.199688E-15	1.863818E-17
6.122510E+03	1.187246E-15	1.824539E-17
6.132465E+03	1.176231E-15	1.788327E-17
6.142421E+03	1.166432E-15	1.754865E-17
6.152376E+03	1.157673E-15	1.723902E-17
6.162331E+03	1.149697E-15	1.695082E-17
6.172286E+03	1.142283E-15	1.668119E-17
6.182242E+03	1.135188E-15	1.642713E-17
6.192197E+03	1.128191E-15	1.618607E-17
6.202152E+03	1.121106E-15	1.595604E-17
6.212108E+03	1.113831E-15	1.573629E-17
6.222063E+03	1.106340E-15	1.552706E-17
6.232018E+03	1.098654E-15	1.532869E-17
6.241974E+03	1.090898E-15	1.514278E-17
6.251929E+03	1.083244E-15	1.497155E-17
6.261884E+03	1.075876E-15	1.481732E-17
6.271839E+03	1.068985E-15	1.468247E-17
6.281795E+03	1.062771E-15	1.456949E-17
6.291750E+03	1.057414E-15	1.448061E-17
6.301705E+03	1.053057E-15	1.441759E-17
6.311661E+03	1.049832E-15	1.438208E-17
6.321616E+03	1.047825E-15	1.437516E-17
6.331571E+03	1.047120E-15	1.439801E-17
6.341527E+03	1.047741E-15	1.445105E-17
6.351482E+03	1.049701E-15	1.453458E-17
6.361437E+03	1.052981E-15	1.464865E-17
6.371392E+03	1.057558E-15	1.479326E-17
6.381348E+03	1.063358E-15	1.496775E-17
6.391303E+03	1.070297E-15	1.517145E-17
6.401258E+03	1.078282E-15	1.540351E-17
6.411214E+03	1.087215E-15	1.566310E-17
6.421169E+03	1.096923E-15	1.594828E-17
6.431124E+03	1.107308E-15	1.625816E-17
6.441080E+03	1.118178E-15	1.659043E-17
6.451035E+03	1.129356E-15	1.694265E-17
6.460990E+03	1.140684E-15	1.731210E-17
6.470945E+03	1.151905E-15	1.769441E-17
6.480901E+03	1.162872E-15	1.808664E-17
6.490856E+03	1.173382E-15	1.848489E-17
6.500811E+03	1.183347E-15	1.888685E-17
6.510767E+03	1.192820E-15	1.929242E-17
6.520722E+03	1.201938E-15	1.970289E-17
6.530677E+03	1.210931E-15	2.012121E-17
6.540633E+03	1.220039E-15	2.055069E-17
6.550588E+03	1.229462E-15	2.099418E-17
6.560543E+03	1.239304E-15	2.145309E-17
6.570498E+03	1.249633E-15	2.192831E-17
6.580454E+03	1.260346E-15	2.241777E-17
6.590409E+03	1.271301E-15	2.291858E-17
6.600364E+03	1.282235E-15	2.342556E-17
6.610320E+03	1.292855E-15	2.393270E-17
6.620275E+03	1.302779E-15	2.443205E-17
6.630230E+03	1.311618E-15	2.491522E-17
6.640186E+03	1.319001E-15	2.537373E-17
6.650141E+03	1.324536E-15	2.579841E-17
6.660096E+03	1.327897E-15	2.618100E-17
6.670051E+03	1.328819E-15	2.651422E-17
6.680007E+03	1.327137E-15	2.679257E-17
6.689962E+03	1.322733E-15	2.701144E-17
6.699917E+03	1.315604E-15	2.716856E-17
6.709873E+03	1.305843E-15	2.726365E-17
6.719828E+03	1.293630E-15	2.729853E-17
6.729783E+03	1.279225E-15	2.727689E-17
6.739739E+03	1.262975E-15	2.720462E-17
6.749694E+03	1.245237E-15	2.708823E-17
6.759649E+03	1.226447E-15	2.693628E-17
6.769604E+03	1.206997E-15	2.675683E-17
6.779560E+03	1.187371E-15	2.656030E-17
6.789515E+03	1.167999E-15	2.635639E-17
6.799470E+03	1.149276E-15	2.615429E-17
6.809426E+03	1.131587E-15	2.596336E-17
6.819381E+03	1.115302E-15	2.579280E-17
6.829336E+03	1.100712E-15	2.565028E-17
6.839292E+03	1.088100E-15	2.554345E-17
6.849247E+03	1.077666E-15	2.547810E-17
6.859202E+03	1.069596E-15	2.545986E-17
6.869157E+03	1.064012E-15	2.549276E-17
6.879113E+03	1.060959E-15	2.557912E-17
6.889068E+03	1.060492E-15	2.572133E-17
6.899023E+03	1.062532E-15	2.591855E-17
6.908979E+03	1.066986E-15	2.616942E-17
6.918934E+03	1.073741E-15	2.647197E-17
6.928889E+03	1.082550E-15	2.682082E-17
6.938845E+03	1.093191E-15	2.721094E-17
6.948800E+03	1.105309E-15	2.763391E-17
6.958755E+03	1.118563E-15	2.808134E-17
6.968710E+03	1.132551E-15	2.854325E-17
6.978666E+03	1.146872E-15	2.900935E-17
6.988621E+03	1.161043E-15	2.946728E-17
6.998576E+03	1.174677E-15	2.990677E-17
7.008532E+03	1.187342E-15	3.031648E-17
7.018487E+03	1.198649E-15	3.068595E-17
7.028442E+03	1.208354E-15	3.100849E-17
7.038398E+03	1.216153E-15	3.127575E-17
7.048353E+03	1.221933E-15	3.148444E-17
7.058308E+03	1.225601E-15	3.163172E-17
7.068263E+03	1.227194E-15	3.171823E-17
7.078219E+03	1.226779E-15	3.174552E-17
7.088174E+03	1.224540E-15	3.171818E-17
7.098129E+03	1.220669E-15	3.164110E-17
7.108085E+03	1.215439E-15	3.152146E-17
7.118040E+03	1.209126E-15	3.136643E-17
7.127995E+03	1.201986E-15	3.118282E-17
7.137951E+03	1.194333E-15	3.097899E-17
7.147906E+03	1.186369E-15	3.076036E-17
7.157861E+03	1.178310E-15	3.053275E-17
7.167817E+03	1.170381E-15	3.030220E-17
7.177772E+03	1.162694E-15	3.007181E-17
7.187727E+03	1.155343E-15	2.984420E-17
7.197682E+03	1.148380E-15	2.962089E-17
7.207638E+03	1.141840E-15	2.940299E-17
7.217593E+03	1.135661E-15	2.918900E-17
7.227548E+03	1.129845E-15	2.897916E-17
7.237504E+03	1.124307E-15	2.877141E-17
7.247459E+03	1.118994E-15	2.856458E-17
7.257414E+03	1.113807E-15	2.835630E-17
7.267370E+03	1.108693E-15	2.814541E-17
7.277325E+03	1.103561E-15	2.792978E-17
7.287280E+03	1.098377E-15	2.770878E-17
7.297235E+03	1.093098E-15	2.748154E-17
7.307191E+03	1.087718E-15	2.724815E-17
7.317146E+03	1.082196E-15	2.700786E-17
7.327101E+03	1.076524E-15	2.676074E-17
7.337057E+03	1.070752E-15	2.650827E-17
7.347012E+03	1.064857E-15	2.625019E-17
7.356967E+03	1.058867E-15	2.598742E-17
7.366923E+03	1.052777E-15	2.572017E-17
7.376878E+03	1.046629E-15	2.544967E-17
7.386833E+03	1.040403E-15	2.517575E-17
7.396788E+03	1.034051E-15	2.489753E-17
7.406744E+03	1.027565E-15	2.461508E-17
7.416699E+03	1.020883E-15	2.432726E-17
7.426654E+03	1.013922E-15	2.403240E-17
7.436610E+03	1.006669E-15	2.373055E-17
7.446565E+03	9.990722E-16	2.342090E-17
7.456520E+03	9.910951E-16	2.310296E-17
7.466476E+03	9.827371E-16	2.277707E-17
7.476431E+03	9.740187E-16	2.244391E-17
7.486386E+03	9.649809E-16	2.210458E-17
7.496341E+03	9.556613E-16	2.176010E-17
7.506297E+03	9.461614E-16	2.141292E-17
7.516252E+03	9.365524E-16	2.106476E-17
7.526207E+03	9.269363E-16	2.071800E-17
7.536163E+03	9.174636E-16	2.037604E-17
7.546118E+03	9.081739E-16	2.003977E-17
7.556073E+03	8.992094E-16	1.971229E-17
7.566029E+03	8.906429E-16	1.939512E-17
7.575984E+03	8.825850E-16	1.909058E-17
7.585939E+03	8.751124E-16	1.880018E-17
7.595894E+03	8.683622E-16	1.852668E-17
7.605850E+03	8.624275E-16	1.827186E-17
7.615805E+03	8.574295E-16	1.803800E-17
7.625760E+03	8.534174E-16	1.782584E-17
7.635716E+03	8.504509E-16	1.763632E-17
7.645671E+03	8.485361E-16	1.746923E-17
7.655626E+03	8.476285E-16	1.732334E-17
7.665582E+03	8.476736E-16	1.719728E-17
7.675537E+03	8.486350E-16	1.709007E-17
7.685492E+03	8.503715E-16	1.699868E-17
7.695447E+03	8.527674E-16	1.692071E-17
7.705403E+03	8.557370E-16	1.685441E-17
7.715358E+03	8.591015E-16	1.679633E-17
7.725313E+03	8.627457E-16	1.674434E-17
