#wls	flux	fluxerr
1.592848E+03	4.293199E-17	6.844522E-18
1.632669E+03	4.484939E-17	7.110707E-18
1.672491E+03	4.663642E-17	7.352020E-18
1.712312E+03	4.826135E-17	7.563710E-18
1.752133E+03	4.969405E-17	7.741418E-18
1.791954E+03	5.084771E-17	7.872138E-18
1.831775E+03	5.161720E-17	7.940413E-18
1.871597E+03	5.188092E-17	7.928725E-18
1.911418E+03	5.151421E-17	7.819643E-18
1.951239E+03	5.046351E-17	7.607047E-18
1.991060E+03	4.876863E-17	7.299109E-18
2.030881E+03	4.673311E-17	6.943105E-18
2.070703E+03	4.491251E-17	6.622199E-18
2.110524E+03	4.405394E-17	6.445087E-18
2.150345E+03	4.485078E-17	6.509130E-18
2.190166E+03	4.770264E-17	6.865957E-18
2.229987E+03	5.262464E-17	7.510119E-18
2.269809E+03	5.933024E-17	8.393102E-18
2.309630E+03	6.740329E-17	9.449356E-18
2.349451E+03	7.641581E-17	1.061356E-17
2.389272E+03	8.604957E-17	1.183755E-17
2.429093E+03	9.606169E-17	1.308495E-17
2.468915E+03	1.063180E-16	1.433531E-17
2.508736E+03	1.167314E-16	1.557513E-17
2.548557E+03	1.272412E-16	1.679481E-17
2.588378E+03	1.378011E-16	1.798701E-17
2.628199E+03	1.483433E-16	1.914181E-17
2.668021E+03	1.588193E-16	2.025215E-17
2.707842E+03	1.691213E-16	2.130384E-17
2.747663E+03	1.791557E-16	2.228509E-17
2.787484E+03	1.888005E-16	2.318127E-17
2.827305E+03	1.979071E-16	2.397538E-17
2.867127E+03	2.063533E-16	2.465460E-17
2.906948E+03	2.140202E-16	2.520745E-17
2.946769E+03	2.208106E-16	2.562589E-17
2.986590E+03	2.266428E-16	2.590450E-17
2.996546E+03	2.279511E-16	2.595282E-17
3.006501E+03	2.291861E-16	2.599123E-17
3.016456E+03	2.303522E-16	2.602032E-17
3.026411E+03	2.314654E-16	2.604198E-17
3.036367E+03	2.325322E-16	2.605699E-17
3.046322E+03	2.335648E-16	2.606678E-17
3.056277E+03	2.345793E-16	2.607318E-17
3.066233E+03	2.355522E-16	2.607360E-17
3.076188E+03	2.364959E-16	2.606947E-17
3.086143E+03	2.373951E-16	2.605912E-17
3.096099E+03	2.382422E-16	2.604181E-17
3.106054E+03	2.390438E-16	2.601831E-17
3.116009E+03	2.397864E-16	2.598721E-17
3.125964E+03	2.404773E-16	2.594938E-17
3.135920E+03	2.411042E-16	2.590357E-17
3.145875E+03	2.416622E-16	2.584934E-17
3.155830E+03	2.421658E-16	2.578834E-17
3.165786E+03	2.425984E-16	2.571886E-17
3.175741E+03	2.429686E-16	2.564194E-17
3.185696E+03	2.432734E-16	2.555731E-17
3.195652E+03	2.435100E-16	2.546482E-17
3.205607E+03	2.436822E-16	2.536493E-17
3.215562E+03	2.437885E-16	2.525758E-17
3.225517E+03	2.438387E-16	2.514389E-17
3.235473E+03	2.438210E-16	2.502271E-17
3.245428E+03	2.437461E-16	2.489526E-17
3.255383E+03	2.436141E-16	2.476162E-17
3.265339E+03	2.434310E-16	2.462248E-17
3.275294E+03	2.431925E-16	2.447750E-17
3.285249E+03	2.429054E-16	2.432743E-17
3.295205E+03	2.425718E-16	2.417255E-17
3.305160E+03	2.421990E-16	2.401368E-17
3.315115E+03	2.417898E-16	2.385113E-17
3.325070E+03	2.413429E-16	2.368485E-17
3.335026E+03	2.408668E-16	2.351573E-17
3.344981E+03	2.403615E-16	2.334382E-17
3.354936E+03	2.398363E-16	2.317005E-17
3.364892E+03	2.392923E-16	2.299458E-17
3.374847E+03	2.387355E-16	2.281800E-17
3.384802E+03	2.381682E-16	2.264057E-17
3.394758E+03	2.375978E-16	2.246298E-17
3.404713E+03	2.370278E-16	2.228561E-17
3.414668E+03	2.364670E-16	2.210925E-17
3.424623E+03	2.359128E-16	2.193368E-17
3.434579E+03	2.353791E-16	2.176015E-17
3.444534E+03	2.348691E-16	2.158895E-17
3.454489E+03	2.343872E-16	2.142044E-17
3.464445E+03	2.339457E-16	2.125569E-17
3.474400E+03	2.335472E-16	2.109489E-17
3.484355E+03	2.331993E-16	2.093863E-17
3.494311E+03	2.329168E-16	2.078818E-17
3.504266E+03	2.327023E-16	2.064366E-17
3.514221E+03	2.325724E-16	2.050643E-17
3.524176E+03	2.325319E-16	2.037677E-17
3.534132E+03	2.325988E-16	2.025611E-17
3.544087E+03	2.327797E-16	2.014484E-17
3.554042E+03	2.330907E-16	2.004417E-17
3.563998E+03	2.335454E-16	1.995504E-17
3.573953E+03	2.341604E-16	1.987863E-17
3.583908E+03	2.349494E-16	1.981582E-17
3.593864E+03	2.359232E-16	1.976725E-17
3.603819E+03	2.371011E-16	1.973418E-17
3.613774E+03	2.384910E-16	1.971695E-17
3.623729E+03	2.401092E-16	1.971652E-17
3.633685E+03	2.419666E-16	1.973341E-17
3.643640E+03	2.440824E-16	1.976875E-17
3.653595E+03	2.464674E-16	1.982298E-17
3.663551E+03	2.491380E-16	1.989694E-17
3.673506E+03	2.521132E-16	1.999164E-17
3.683461E+03	2.554058E-16	2.010756E-17
3.693417E+03	2.590366E-16	2.024578E-17
3.703372E+03	2.630173E-16	2.040662E-17
3.713327E+03	2.673668E-16	2.059090E-17
3.723282E+03	2.720999E-16	2.079913E-17
3.733238E+03	2.772270E-16	2.103140E-17
3.743193E+03	2.827619E-16	2.128806E-17
3.753148E+03	2.887131E-16	2.156901E-17
3.763104E+03	2.950888E-16	2.187413E-17
3.773059E+03	3.018908E-16	2.220279E-17
3.783014E+03	3.091197E-16	2.255426E-17
3.792970E+03	3.167650E-16	2.292702E-17
3.802925E+03	3.248229E-16	2.332003E-17
3.812880E+03	3.332682E-16	2.373075E-17
3.822835E+03	3.420841E-16	2.415730E-17
3.832791E+03	3.512344E-16	2.459644E-17
3.842746E+03	3.606842E-16	2.504515E-17
3.852701E+03	3.703810E-16	2.549924E-17
3.862657E+03	3.802740E-16	2.595479E-17
3.872612E+03	3.902977E-16	2.640699E-17
3.882567E+03	4.003790E-16	2.685069E-17
3.892523E+03	4.104460E-16	2.728097E-17
3.902478E+03	4.204132E-16	2.769220E-17
3.912433E+03	4.301916E-16	2.807875E-17
3.922388E+03	4.396944E-16	2.843531E-17
3.932344E+03	4.488347E-16	2.875679E-17
3.942299E+03	4.575250E-16	2.903829E-17
3.952254E+03	4.656821E-16	2.927537E-17
3.962210E+03	4.732309E-16	2.946431E-17
3.972165E+03	4.801149E-16	2.960273E-17
3.982120E+03	4.862813E-16	2.968862E-17
3.992076E+03	4.916921E-16	2.972097E-17
4.002031E+03	4.963232E-16	2.969973E-17
4.011986E+03	5.001685E-16	2.962595E-17
4.021941E+03	5.032453E-16	2.950212E-17
4.031897E+03	5.055713E-16	2.933065E-17
4.041852E+03	5.071994E-16	2.911597E-17
4.051807E+03	5.081697E-16	2.886168E-17
4.061763E+03	5.085619E-16	2.857346E-17
4.071718E+03	5.084461E-16	2.825628E-17
4.081673E+03	5.079040E-16	2.791561E-17
4.091629E+03	5.070225E-16	2.755697E-17
4.101584E+03	5.058904E-16	2.718579E-17
4.111539E+03	5.046005E-16	2.680747E-17
4.121494E+03	5.032400E-16	2.642692E-17
4.131450E+03	5.018878E-16	2.604839E-17
4.141405E+03	5.006219E-16	2.567590E-17
4.151360E+03	4.995176E-16	2.531314E-17
4.161316E+03	4.986398E-16	2.496308E-17
4.171271E+03	4.980443E-16	2.462812E-17
4.181226E+03	4.977751E-16	2.430990E-17
4.191182E+03	4.978708E-16	2.400973E-17
4.201137E+03	4.983660E-16	2.372862E-17
4.211092E+03	4.992826E-16	2.346690E-17
4.221047E+03	5.006252E-16	2.322405E-17
4.231003E+03	5.024116E-16	2.300016E-17
4.240958E+03	5.046259E-16	2.279373E-17
4.250913E+03	5.072634E-16	2.260383E-17
4.260869E+03	5.103127E-16	2.242922E-17
4.270824E+03	5.137445E-16	2.226795E-17
4.280779E+03	5.175392E-16	2.211854E-17
4.290735E+03	5.216657E-16	2.197908E-17
4.300690E+03	5.260971E-16	2.184793E-17
4.310645E+03	5.308063E-16	2.172350E-17
4.320601E+03	5.357617E-16	2.160409E-17
4.330556E+03	5.409402E-16	2.148843E-17
4.340511E+03	5.463315E-16	2.137581E-17
4.350466E+03	5.519442E-16	2.126627E-17
4.360422E+03	5.577927E-16	2.116007E-17
4.370377E+03	5.639171E-16	2.105841E-17
4.380332E+03	5.703914E-16	2.096364E-17
4.390288E+03	5.773037E-16	2.087845E-17
4.400243E+03	5.847739E-16	2.080649E-17
4.410198E+03	5.929233E-16	2.075118E-17
4.420154E+03	6.018762E-16	2.071580E-17
4.430109E+03	6.117639E-16	2.070356E-17
4.440064E+03	6.226954E-16	2.071671E-17
4.450019E+03	6.347824E-16	2.075733E-17
4.459975E+03	6.481020E-16	2.082616E-17
4.469930E+03	6.627180E-16	2.092339E-17
4.479885E+03	6.786709E-16	2.104839E-17
4.489841E+03	6.959504E-16	2.119895E-17
4.499796E+03	7.145241E-16	2.137227E-17
4.509751E+03	7.342963E-16	2.156382E-17
4.519707E+03	7.551365E-16	2.176835E-17
4.529662E+03	7.768626E-16	2.197948E-17
4.539617E+03	7.992419E-16	2.218990E-17
4.549572E+03	8.219834E-16	2.239124E-17
4.559528E+03	8.447576E-16	2.257478E-17
4.569483E+03	8.671889E-16	2.273134E-17
4.579438E+03	8.888791E-16	2.285192E-17
4.589394E+03	9.094239E-16	2.292824E-17
4.599349E+03	9.284042E-16	2.295243E-17
4.609304E+03	9.454189E-16	2.291788E-17
4.619260E+03	9.601216E-16	2.282002E-17
4.629215E+03	9.722047E-16	2.265576E-17
4.639170E+03	9.814492E-16	2.242454E-17
4.649125E+03	9.876944E-16	2.212739E-17
4.659081E+03	9.908992E-16	2.176811E-17
4.669036E+03	9.911027E-16	2.135215E-17
4.678991E+03	9.884370E-16	2.088670E-17
4.688947E+03	9.831048E-16	2.038001E-17
4.698902E+03	9.754205E-16	1.984207E-17
4.708857E+03	9.657227E-16	1.928271E-17
4.718813E+03	9.544006E-16	1.871205E-17
4.728768E+03	9.418580E-16	1.813977E-17
4.738723E+03	9.285389E-16	1.757563E-17
4.748678E+03	9.148334E-16	1.702766E-17
4.758634E+03	9.011734E-16	1.650407E-17
4.768589E+03	8.879731E-16	1.601219E-17
4.778544E+03	8.756265E-16	1.555853E-17
4.788500E+03	8.644986E-16	1.514865E-17
4.798455E+03	8.549152E-16	1.478719E-17
4.808410E+03	8.471405E-16	1.447749E-17
4.818366E+03	8.413652E-16	1.422162E-17
4.828321E+03	8.377284E-16	1.402077E-17
4.838276E+03	8.363092E-16	1.387485E-17
4.848231E+03	8.371043E-16	1.378218E-17
4.858187E+03	8.400757E-16	1.374065E-17
4.868142E+03	8.451278E-16	1.374745E-17
4.878097E+03	8.520936E-16	1.379880E-17
4.888053E+03	8.607533E-16	1.389027E-17
4.898008E+03	8.708461E-16	1.401693E-17
4.907963E+03	8.820318E-16	1.417269E-17
4.917919E+03	8.939180E-16	1.435071E-17
4.927874E+03	9.061055E-16	1.454408E-17
4.937829E+03	9.181276E-16	1.474480E-17
4.947784E+03	9.295344E-16	1.494507E-17
4.957740E+03	9.398877E-16	1.513721E-17
4.967695E+03	9.487904E-16	1.531408E-17
4.977650E+03	9.559242E-16	1.546968E-17
4.987606E+03	9.610444E-16	1.559908E-17
4.997561E+03	9.640301E-16	1.569930E-17
5.007516E+03	9.648550E-16	1.576879E-17
5.017472E+03	9.636214E-16	1.580812E-17
5.027427E+03	9.605230E-16	1.581937E-17
5.037382E+03	9.558255E-16	1.580588E-17
5.047337E+03	9.498721E-16	1.577238E-17
5.057293E+03	9.430412E-16	1.572433E-17
5.067248E+03	9.356981E-16	1.566711E-17
5.077203E+03	9.282307E-16	1.560666E-17
5.087159E+03	9.209961E-16	1.554854E-17
5.097114E+03	9.143153E-16	1.549787E-17
5.107069E+03	9.085003E-16	1.545974E-17
5.117025E+03	9.037943E-16	1.543817E-17
5.126980E+03	9.004312E-16	1.543716E-17
5.136935E+03	8.985977E-16	1.545992E-17
5.146890E+03	8.984671E-16	1.550953E-17
5.156846E+03	9.001677E-16	1.558833E-17
5.166801E+03	9.038170E-16	1.569849E-17
5.176756E+03	9.094840E-16	1.584135E-17
5.186712E+03	9.172042E-16	1.601768E-17
5.196667E+03	9.270004E-16	1.622801E-17
5.206622E+03	9.388233E-16	1.647159E-17
5.216578E+03	9.525748E-16	1.674680E-17
5.226533E+03	9.681177E-16	1.705128E-17
5.236488E+03	9.852369E-16	1.738130E-17
5.246443E+03	1.003676E-15	1.773233E-17
5.256399E+03	1.023089E-15	1.809823E-17
5.266354E+03	1.043102E-15	1.847241E-17
5.276309E+03	1.063287E-15	1.884722E-17
5.286265E+03	1.083179E-15	1.921439E-17
5.296220E+03	1.102275E-15	1.956499E-17
5.306175E+03	1.120117E-15	1.989093E-17
5.316131E+03	1.136245E-15	2.018408E-17
5.326086E+03	1.150249E-15	2.043726E-17
5.336041E+03	1.161821E-15	2.064518E-17
5.345996E+03	1.170723E-15	2.080376E-17
5.355952E+03	1.176880E-15	2.091201E-17
5.365907E+03	1.180313E-15	2.097056E-17
5.375862E+03	1.181199E-15	2.098292E-17
5.385818E+03	1.179862E-15	2.095523E-17
5.395773E+03	1.176712E-15	2.089511E-17
5.405728E+03	1.172268E-15	2.081224E-17
5.415684E+03	1.167117E-15	2.071739E-17
5.425639E+03	1.161825E-15	2.062101E-17
5.435594E+03	1.156930E-15	2.053301E-17
5.445549E+03	1.152826E-15	2.046075E-17
5.455505E+03	1.149728E-15	2.040844E-17
5.465460E+03	1.147647E-15	2.037662E-17
5.475415E+03	1.146338E-15	2.036135E-17
5.485371E+03	1.145336E-15	2.035472E-17
5.495326E+03	1.143942E-15	2.034445E-17
5.505281E+03	1.141364E-15	2.031601E-17
5.515237E+03	1.136788E-15	2.025445E-17
5.525192E+03	1.129439E-15	2.014539E-17
5.535147E+03	1.118767E-15	1.997840E-17
5.545102E+03	1.104390E-15	1.974597E-17
5.555058E+03	1.086249E-15	1.944635E-17
5.565013E+03	1.064557E-15	1.908268E-17
5.574968E+03	1.039788E-15	1.866281E-17
5.584924E+03	1.012631E-15	1.819853E-17
5.594879E+03	9.839348E-16	1.770463E-17
5.604834E+03	9.546056E-16	1.719705E-17
5.614790E+03	9.255999E-16	1.669279E-17
5.624745E+03	8.978312E-16	1.620816E-17
5.634700E+03	8.721306E-16	1.575812E-17
5.644655E+03	8.492581E-16	1.535640E-17
5.654611E+03	8.298381E-16	1.501432E-17
5.664566E+03	8.143923E-16	1.474136E-17
5.674521E+03	8.033437E-16	1.454518E-17
5.684477E+03	7.970248E-16	1.443175E-17
5.694432E+03	7.956952E-16	1.440566E-17
5.704387E+03	7.995515E-16	1.447024E-17
5.714343E+03	8.087357E-16	1.462774E-17
5.724298E+03	8.233506E-16	1.487953E-17
5.734253E+03	8.434279E-16	1.522559E-17
5.744209E+03	8.689465E-16	1.566475E-17
5.754164E+03	8.998212E-16	1.619455E-17
5.764119E+03	9.358533E-16	1.681033E-17
5.774074E+03	9.767626E-16	1.750581E-17
5.784030E+03	1.022097E-15	1.827155E-17
5.793985E+03	1.071275E-15	1.909570E-17
5.803940E+03	1.123587E-15	1.996409E-17
5.813896E+03	1.178132E-15	2.085929E-17
5.823851E+03	1.233900E-15	2.176198E-17
5.833806E+03	1.289739E-15	2.265066E-17
5.843762E+03	1.344441E-15	2.350314E-17
5.853717E+03	1.396806E-15	2.429779E-17
5.863672E+03	1.445606E-15	2.501305E-17
5.873627E+03	1.489771E-15	2.563064E-17
5.883583E+03	1.528347E-15	2.613481E-17
5.893538E+03	1.560551E-15	2.651344E-17
5.903493E+03	1.585865E-15	2.675942E-17
5.913449E+03	1.604020E-15	2.687030E-17
5.923404E+03	1.614954E-15	2.684755E-17
5.933359E+03	1.618906E-15	2.669784E-17
5.943315E+03	1.616265E-15	2.643053E-17
5.953270E+03	1.607619E-15	2.605816E-17
5.963225E+03	1.593732E-15	2.559604E-17
5.973180E+03	1.575418E-15	2.505999E-17
5.983136E+03	1.553539E-15	2.446626E-17
5.993091E+03	1.528983E-15	2.383110E-17
6.003046E+03	1.502609E-15	2.316979E-17
6.013002E+03	1.475199E-15	2.249598E-17
6.022957E+03	1.447458E-15	2.182162E-17
6.032912E+03	1.420034E-15	2.115737E-17
6.042868E+03	1.393440E-15	2.051144E-17
6.052823E+03	1.368103E-15	1.989041E-17
6.062778E+03	1.344337E-15	1.929892E-17
6.072733E+03	1.322393E-15	1.874047E-17
6.082689E+03	1.302384E-15	1.821645E-17
6.092644E+03	1.284362E-15	1.772732E-17
6.102599E+03	1.268340E-15	1.727298E-17
6.112555E+03	1.254217E-15	1.685179E-17
6.122510E+03	1.241821E-15	1.646130E-17
6.132465E+03	1.230962E-15	1.609895E-17
6.142421E+03	1.221424E-15	1.576206E-17
6.152376E+03	1.212926E-15	1.544728E-17
6.162331E+03	1.205240E-15	1.515223E-17
6.172286E+03	1.198031E-15	1.487331E-17
6.182242E+03	1.191009E-15	1.460778E-17
6.192197E+03	1.183903E-15	1.435326E-17
6.202152E+03	1.176453E-15	1.410770E-17
6.212108E+03	1.168500E-15	1.387034E-17
6.222063E+03	1.160026E-15	1.364181E-17
6.232018E+03	1.151129E-15	1.342344E-17
6.241974E+03	1.142038E-15	1.321781E-17
6.251929E+03	1.133024E-15	1.302787E-17
6.261884E+03	1.124372E-15	1.285666E-17
6.271839E+03	1.116311E-15	1.270649E-17
6.281795E+03	1.109125E-15	1.258033E-17
6.291750E+03	1.103009E-15	1.248010E-17
6.301705E+03	1.098141E-15	1.240756E-17
6.311661E+03	1.094685E-15	1.236446E-17
6.321616E+03	1.092722E-15	1.235166E-17
6.331571E+03	1.092323E-15	1.237002E-17
6.341527E+03	1.093505E-15	1.241989E-17
6.351482E+03	1.096278E-15	1.250173E-17
6.361437E+03	1.100591E-15	1.261533E-17
6.371392E+03	1.106395E-15	1.276068E-17
6.381348E+03	1.113587E-15	1.293722E-17
6.391303E+03	1.122060E-15	1.314439E-17
6.401258E+03	1.131690E-15	1.338151E-17
6.411214E+03	1.142357E-15	1.364797E-17
6.421169E+03	1.153894E-15	1.394259E-17
6.431124E+03	1.166153E-15	1.426442E-17
6.441080E+03	1.178955E-15	1.461202E-17
6.451035E+03	1.192105E-15	1.498316E-17
6.460990E+03	1.205400E-15	1.537480E-17
6.470945E+03	1.218555E-15	1.578264E-17
6.480901E+03	1.231338E-15	1.620277E-17
6.490856E+03	1.243454E-15	1.663022E-17
6.500811E+03	1.254768E-15	1.706192E-17
6.510767E+03	1.265292E-15	1.749662E-17
6.520722E+03	1.275258E-15	1.793619E-17
6.530677E+03	1.285037E-15	1.838465E-17
6.540633E+03	1.294969E-15	1.884598E-17
6.550588E+03	1.305301E-15	1.932308E-17
6.560543E+03	1.316211E-15	1.981816E-17
6.570498E+03	1.327700E-15	2.033087E-17
6.580454E+03	1.339733E-15	2.086033E-17
6.590409E+03	1.352082E-15	2.140262E-17
6.600364E+03	1.364504E-15	2.195339E-17
6.610320E+03	1.376598E-15	2.250538E-17
6.620275E+03	1.387966E-15	2.305108E-17
6.630230E+03	1.398142E-15	2.358140E-17
6.640186E+03	1.406701E-15	2.408748E-17
6.650141E+03	1.413200E-15	2.455976E-17
6.660096E+03	1.417268E-15	2.498956E-17
6.670051E+03	1.418632E-15	2.536961E-17
6.680007E+03	1.417064E-15	2.569325E-17
6.689962E+03	1.412463E-15	2.595598E-17
6.699917E+03	1.404854E-15	2.615570E-17
6.709873E+03	1.394325E-15	2.629156E-17
6.719828E+03	1.381082E-15	2.636517E-17
6.729783E+03	1.365422E-15	2.638017E-17
6.739739E+03	1.347710E-15	2.634194E-17
6.749694E+03	1.328393E-15	2.625784E-17
6.759649E+03	1.307904E-15	2.613552E-17
6.769604E+03	1.286745E-15	2.598437E-17
6.779560E+03	1.265355E-15	2.581304E-17
6.789515E+03	1.244251E-15	2.563213E-17
6.799470E+03	1.223881E-15	2.545134E-17
6.809426E+03	1.204621E-15	2.527913E-17
6.819381E+03	1.186913E-15	2.512565E-17
6.829336E+03	1.171029E-15	2.499772E-17
6.839292E+03	1.157314E-15	2.490391E-17
6.849247E+03	1.145941E-15	2.484923E-17
6.859202E+03	1.137152E-15	2.484021E-17
6.869157E+03	1.131033E-15	2.488003E-17
6.879113E+03	1.127655E-15	2.497154E-17
6.889068E+03	1.127050E-15	2.511666E-17
6.899023E+03	1.129174E-15	2.531550E-17
6.908979E+03	1.133922E-15	2.556668E-17
6.918934E+03	1.141127E-15	2.586729E-17
6.928889E+03	1.150541E-15	2.621236E-17
6.938845E+03	1.161916E-15	2.659676E-17
6.948800E+03	1.174865E-15	2.701194E-17
6.958755E+03	1.189010E-15	2.744941E-17
6.968710E+03	1.203915E-15	2.789906E-17
6.978666E+03	1.219135E-15	2.835044E-17
6.988621E+03	1.234148E-15	2.879114E-17
6.998576E+03	1.248528E-15	2.921085E-17
7.008532E+03	1.261808E-15	2.959821E-17
7.018487E+03	1.273592E-15	2.994346E-17
7.028442E+03	1.283551E-15	3.023837E-17
7.038398E+03	1.291456E-15	3.047713E-17
7.048353E+03	1.297122E-15	3.065501E-17
7.058308E+03	1.300510E-15	3.077075E-17
7.068263E+03	1.301619E-15	3.082419E-17
7.078219E+03	1.300587E-15	3.081844E-17
7.088174E+03	1.297598E-15	3.075790E-17
7.098129E+03	1.292870E-15	3.064783E-17
7.108085E+03	1.286712E-15	3.049568E-17
7.118040E+03	1.279427E-15	3.030889E-17
7.127995E+03	1.271322E-15	3.009502E-17
7.137951E+03	1.262719E-15	2.986193E-17
7.147906E+03	1.253835E-15	2.961512E-17
7.157861E+03	1.244928E-15	2.936091E-17
7.167817E+03	1.236213E-15	2.910468E-17
7.177772E+03	1.227803E-15	2.884938E-17
7.187727E+03	1.219793E-15	2.859742E-17
7.197682E+03	1.212253E-15	2.835072E-17
7.207638E+03	1.205165E-15	2.810899E-17
7.217593E+03	1.198523E-15	2.787234E-17
7.227548E+03	1.192245E-15	2.763903E-17
7.237504E+03	1.186281E-15	2.740811E-17
7.247459E+03	1.180548E-15	2.717783E-17
7.257414E+03	1.174959E-15	2.694645E-17
7.267370E+03	1.169413E-15	2.671188E-17
7.277325E+03	1.163892E-15	2.647398E-17
7.287280E+03	1.158297E-15	2.623081E-17
7.297235E+03	1.152621E-15	2.598250E-17
7.307191E+03	1.146849E-15	2.572905E-17
7.317146E+03	1.140982E-15	2.547079E-17
7.327101E+03	1.135030E-15	2.520829E-17
7.337057E+03	1.129009E-15	2.494223E-17
7.347012E+03	1.122935E-15	2.467332E-17
7.356967E+03	1.116843E-15	2.440262E-17
7.366923E+03	1.110683E-15	2.412941E-17
7.376878E+03	1.104492E-15	2.385478E-17
7.386833E+03	1.098241E-15	2.357847E-17
7.396788E+03	1.091887E-15	2.329988E-17
7.406744E+03	1.085350E-15	2.301768E-17
7.416699E+03	1.078563E-15	2.273086E-17
7.426654E+03	1.071459E-15	2.243842E-17
7.436610E+03	1.063971E-15	2.213939E-17
7.446565E+03	1.056043E-15	2.183310E-17
7.456520E+03	1.047635E-15	2.151917E-17
7.466476E+03	1.038730E-15	2.119755E-17
7.476431E+03	1.029335E-15	2.086850E-17
7.486386E+03	1.019465E-15	2.053239E-17
7.496341E+03	1.009236E-15	2.019164E-17
7.506297E+03	9.986918E-16	1.984719E-17
7.516252E+03	9.879715E-16	1.950183E-17
7.526207E+03	9.772045E-16	1.915810E-17
7.536163E+03	9.665488E-16	1.881904E-17
7.546118E+03	9.560892E-16	1.848621E-17
7.556073E+03	9.459716E-16	1.816230E-17
7.566029E+03	9.363270E-16	1.784965E-17
7.575984E+03	9.272072E-16	1.754905E-17
7.585939E+03	9.187615E-16	1.726310E-17
7.595894E+03	9.110886E-16	1.699339E-17
7.605850E+03	9.043771E-16	1.674313E-17
7.615805E+03	8.987203E-16	1.651368E-17
7.625760E+03	8.941971E-16	1.630612E-17
7.635716E+03	8.908453E-16	1.612073E-17
7.645671E+03	8.886402E-16	1.595669E-17
7.655626E+03	8.876121E-16	1.581417E-17
7.665582E+03	8.876254E-16	1.569042E-17
7.675537E+03	8.886079E-16	1.558391E-17
7.685492E+03	8.904641E-16	1.549273E-17
7.695447E+03	8.930155E-16	1.541367E-17
7.705403E+03	8.961626E-16	1.534498E-17
7.715358E+03	8.997541E-16	1.528411E-17
7.725313E+03	9.035939E-16	1.522787E-17
