#wls	flux	fluxerr
1.592848E+03	6.970606E-17	4.582964E-18
1.632669E+03	7.301752E-17	4.768361E-18
1.672491E+03	7.616339E-17	4.939443E-18
1.712312E+03	7.909089E-17	5.092950E-18
1.752133E+03	8.174604E-17	5.225648E-18
1.791954E+03	8.399054E-17	5.329068E-18
1.831775E+03	8.564257E-17	5.392282E-18
1.871597E+03	8.649679E-17	5.403276E-18
1.911418E+03	8.632997E-17	5.349369E-18
1.951239E+03	8.501110E-17	5.224051E-18
1.991060E+03	8.262055E-17	5.034020E-18
2.030881E+03	7.960277E-17	4.807858E-18
2.070703E+03	7.692031E-17	4.604257E-18
2.110524E+03	7.584295E-17	4.498050E-18
2.150345E+03	7.759364E-17	4.558460E-18
2.190166E+03	8.289124E-17	4.822506E-18
2.229987E+03	9.181967E-17	5.288806E-18
2.269809E+03	1.039466E-16	5.926145E-18
2.309630E+03	1.185562E-16	6.688131E-18
2.349451E+03	1.349214E-16	7.529302E-18
2.389272E+03	1.524583E-16	8.413746E-18
2.429093E+03	1.708027E-16	9.318892E-18
2.468915E+03	1.897574E-16	1.023203E-17
2.508736E+03	2.092300E-16	1.114651E-17
2.548557E+03	2.291851E-16	1.205887E-17
2.588378E+03	2.496078E-16	1.296679E-17
2.628199E+03	2.704796E-16	1.386777E-17
2.668021E+03	2.917622E-16	1.475835E-17
2.707842E+03	3.133502E-16	1.563178E-17
2.747663E+03	3.351354E-16	1.648148E-17
2.787484E+03	3.569296E-16	1.729727E-17
2.827305E+03	3.784610E-16	1.806553E-17
2.867127E+03	3.994477E-16	1.877298E-17
2.906948E+03	4.196006E-16	1.940689E-17
2.946769E+03	4.387584E-16	1.996123E-17
2.986590E+03	4.567470E-16	2.042999E-17
2.996546E+03	4.610475E-16	2.053345E-17
3.006501E+03	4.652584E-16	2.063100E-17
3.016456E+03	4.693828E-16	2.072284E-17
3.026411E+03	4.734213E-16	2.080903E-17
3.036367E+03	4.774002E-16	2.089077E-17
3.046322E+03	4.813552E-16	2.096963E-17
3.056277E+03	4.852993E-16	2.104621E-17
3.066233E+03	4.892004E-16	2.111910E-17
3.076188E+03	4.930604E-16	2.118841E-17
3.086143E+03	4.968488E-16	2.125286E-17
3.096099E+03	5.005693E-16	2.131265E-17
3.106054E+03	5.041930E-16	2.136657E-17
3.116009E+03	5.077243E-16	2.141487E-17
3.125964E+03	5.111359E-16	2.145647E-17
3.135920E+03	5.144233E-16	2.149123E-17
3.145875E+03	5.175821E-16	2.151904E-17
3.155830E+03	5.205877E-16	2.153897E-17
3.165786E+03	5.234481E-16	2.155143E-17
3.175741E+03	5.261509E-16	2.155600E-17
3.185696E+03	5.286846E-16	2.155229E-17
3.195652E+03	5.310488E-16	2.154041E-17
3.205607E+03	5.332347E-16	2.152009E-17
3.215562E+03	5.352429E-16	2.149148E-17
3.225517E+03	5.370668E-16	2.145440E-17
3.235473E+03	5.386995E-16	2.140871E-17
3.245428E+03	5.401459E-16	2.135471E-17
3.255383E+03	5.414111E-16	2.129272E-17
3.265339E+03	5.424825E-16	2.122236E-17
3.275294E+03	5.433593E-16	2.114372E-17
3.285249E+03	5.440586E-16	2.105758E-17
3.295205E+03	5.445720E-16	2.096374E-17
3.305160E+03	5.449100E-16	2.086272E-17
3.315115E+03	5.450747E-16	2.075470E-17
3.325070E+03	5.450617E-16	2.063964E-17
3.335026E+03	5.448837E-16	2.051812E-17
3.344981E+03	5.445538E-16	2.039075E-17
3.354936E+03	5.440623E-16	2.025726E-17
3.364892E+03	5.434232E-16	2.011828E-17
3.374847E+03	5.426441E-16	1.997419E-17
3.384802E+03	5.417321E-16	1.982533E-17
3.394758E+03	5.406815E-16	1.967160E-17
3.404713E+03	5.395155E-16	1.951392E-17
3.414668E+03	5.382299E-16	1.935223E-17
3.424623E+03	5.368296E-16	1.918677E-17
3.434579E+03	5.353338E-16	1.901832E-17
3.444534E+03	5.337364E-16	1.884671E-17
3.454489E+03	5.320543E-16	1.867263E-17
3.464445E+03	5.302996E-16	1.849655E-17
3.474400E+03	5.284814E-16	1.831884E-17
3.484355E+03	5.266124E-16	1.813998E-17
3.494311E+03	5.247088E-16	1.796057E-17
3.504266E+03	5.227734E-16	1.778073E-17
3.514221E+03	5.208379E-16	1.760156E-17
3.524176E+03	5.189207E-16	1.742368E-17
3.534132E+03	5.170345E-16	1.724752E-17
3.544087E+03	5.152030E-16	1.707384E-17
3.554042E+03	5.134608E-16	1.690376E-17
3.563998E+03	5.118307E-16	1.673797E-17
3.573953E+03	5.103438E-16	1.657740E-17
3.583908E+03	5.090385E-16	1.642322E-17
3.593864E+03	5.079488E-16	1.627640E-17
3.603819E+03	5.071320E-16	1.613862E-17
3.613774E+03	5.066375E-16	1.601127E-17
3.623729E+03	5.065355E-16	1.589635E-17
3.633685E+03	5.068834E-16	1.579539E-17
3.643640E+03	5.077513E-16	1.571027E-17
3.653595E+03	5.092156E-16	1.564300E-17
3.663551E+03	5.113455E-16	1.559529E-17
3.673506E+03	5.142257E-16	1.556928E-17
3.683461E+03	5.179293E-16	1.556666E-17
3.693417E+03	5.225344E-16	1.558923E-17
3.703372E+03	5.281292E-16	1.563900E-17
3.713327E+03	5.347935E-16	1.571766E-17
3.723282E+03	5.426103E-16	1.582692E-17
3.733238E+03	5.516566E-16	1.596826E-17
3.743193E+03	5.620118E-16	1.614313E-17
3.753148E+03	5.737507E-16	1.635282E-17
3.763104E+03	5.869330E-16	1.659807E-17
3.773059E+03	6.016282E-16	1.687990E-17
3.783014E+03	6.178827E-16	1.719859E-17
3.792970E+03	6.357270E-16	1.755396E-17
3.802925E+03	6.551854E-16	1.794561E-17
3.812880E+03	6.762500E-16	1.837227E-17
3.822835E+03	6.988900E-16	1.883205E-17
3.832791E+03	7.230360E-16	1.932207E-17
3.842746E+03	7.485899E-16	1.983873E-17
3.852701E+03	7.753978E-16	2.037708E-17
3.862657E+03	8.032609E-16	2.093113E-17
3.872612E+03	8.319270E-16	2.149367E-17
3.882567E+03	8.610838E-16	2.205621E-17
3.892523E+03	8.903723E-16	2.260933E-17
3.902478E+03	9.193855E-16	2.314274E-17
3.912433E+03	9.476802E-16	2.364559E-17
3.922388E+03	9.747749E-16	2.410650E-17
3.932344E+03	1.000213E-15	2.451511E-17
3.942299E+03	1.023515E-15	2.486091E-17
3.952254E+03	1.044278E-15	2.513563E-17
3.962210E+03	1.062121E-15	2.533196E-17
3.972165E+03	1.076760E-15	2.544510E-17
3.982120E+03	1.087992E-15	2.547249E-17
3.992076E+03	1.095738E-15	2.541452E-17
4.002031E+03	1.099991E-15	2.527340E-17
4.011986E+03	1.100897E-15	2.505476E-17
4.021941E+03	1.098662E-15	2.476544E-17
4.031897E+03	1.093612E-15	2.441480E-17
4.041852E+03	1.086128E-15	2.401312E-17
4.051807E+03	1.076649E-15	2.357159E-17
4.061763E+03	1.065614E-15	2.310105E-17
4.071718E+03	1.053512E-15	2.261300E-17
4.081673E+03	1.040785E-15	2.211755E-17
4.091629E+03	1.027855E-15	2.162397E-17
4.101584E+03	1.015115E-15	2.114056E-17
4.111539E+03	1.002902E-15	2.067417E-17
4.121494E+03	9.915069E-16	2.023043E-17
4.131450E+03	9.811945E-16	1.981415E-17
4.141405E+03	9.721585E-16	1.942853E-17
4.151360E+03	9.645870E-16	1.907651E-17
4.161316E+03	9.586190E-16	1.875990E-17
4.171271E+03	9.543634E-16	1.847985E-17
4.181226E+03	9.519124E-16	1.823708E-17
4.191182E+03	9.513055E-16	1.803126E-17
4.201137E+03	9.525706E-16	1.786182E-17
4.211092E+03	9.556807E-16	1.772717E-17
4.221047E+03	9.606014E-16	1.762560E-17
4.231003E+03	9.672367E-16	1.755434E-17
4.240958E+03	9.754579E-16	1.751013E-17
4.250913E+03	9.850963E-16	1.748910E-17
4.260869E+03	9.959490E-16	1.748693E-17
4.270824E+03	1.007770E-15	1.749874E-17
4.280779E+03	1.020289E-15	1.751940E-17
4.290735E+03	1.033191E-15	1.754328E-17
4.300690E+03	1.046173E-15	1.756518E-17
4.310645E+03	1.058876E-15	1.757921E-17
4.320601E+03	1.070962E-15	1.758008E-17
4.330556E+03	1.082107E-15	1.756302E-17
4.340511E+03	1.092008E-15	1.752377E-17
4.350466E+03	1.100461E-15	1.745991E-17
4.360422E+03	1.107359E-15	1.737065E-17
4.370377E+03	1.112775E-15	1.725806E-17
4.380332E+03	1.117051E-15	1.712826E-17
4.390288E+03	1.120768E-15	1.699076E-17
4.400243E+03	1.124658E-15	1.685687E-17
4.410198E+03	1.129522E-15	1.673852E-17
4.420154E+03	1.136199E-15	1.664754E-17
4.430109E+03	8.922375E-16	1.292588E-17
4.430741E+03	8.915560E-16	1.290673E-17
4.431374E+03	8.908522E-16	1.288728E-17
4.432006E+03	8.899243E-16	1.286462E-17
4.432638E+03	8.891750E-16	1.284456E-17
4.433272E+03	8.884362E-16	1.282467E-17
4.433904E+03	8.875519E-16	1.280271E-17
4.434537E+03	8.866444E-16	1.278044E-17
4.435169E+03	8.859491E-16	1.276126E-17
4.435801E+03	8.854212E-16	1.274451E-17
4.436434E+03	8.848932E-16	1.272777E-17
4.437067E+03	8.843086E-16	1.271024E-17
4.437699E+03	8.837352E-16	1.269290E-17
4.438332E+03	8.831613E-16	1.267555E-17
4.438964E+03	8.826654E-16	1.265936E-17
4.439596E+03	8.821242E-16	1.264253E-17
4.440229E+03	8.815946E-16	1.262588E-17
4.440862E+03	8.813441E-16	1.261326E-17
4.441494E+03	8.817890E-16	1.261059E-17
4.442127E+03	8.822229E-16	1.260775E-17
4.442759E+03	8.823987E-16	1.260123E-17
4.443391E+03	8.823274E-16	1.259120E-17
4.444024E+03	8.821784E-16	1.258005E-17
4.444656E+03	8.822080E-16	1.257147E-17
4.445290E+03	8.822940E-16	1.256369E-17
4.445922E+03	8.821772E-16	1.255304E-17
4.446554E+03	8.822066E-16	1.254448E-17
4.447187E+03	8.821578E-16	1.253481E-17
4.447819E+03	8.821308E-16	1.252546E-17
4.448451E+03	8.822496E-16	1.251820E-17
4.449085E+03	8.823916E-16	1.251125E-17
4.449717E+03	8.827355E-16	1.250719E-17
4.450350E+03	8.833724E-16	1.250725E-17
4.450982E+03	8.839190E-16	1.250605E-17
4.451614E+03	8.843643E-16	1.250342E-17
4.452247E+03	8.849228E-16	1.250237E-17
4.452880E+03	8.854811E-16	1.250132E-17
4.453512E+03	8.862199E-16	1.250282E-17
4.454145E+03	8.871056E-16	1.250637E-17
4.454777E+03	8.880585E-16	1.251087E-17
4.455409E+03	8.889894E-16	1.251505E-17
4.456042E+03	8.898651E-16	1.251843E-17
4.456675E+03	8.908528E-16	1.252339E-17
4.457307E+03	8.922808E-16	1.253452E-17
4.457940E+03	8.938904E-16	1.254816E-17
4.458572E+03	8.953534E-16	1.255974E-17
4.459204E+03	8.967381E-16	1.257020E-17
4.459837E+03	8.982589E-16	1.258253E-17
4.460469E+03	8.999724E-16	1.259755E-17
4.461103E+03	9.018557E-16	1.261491E-17
4.461735E+03	9.037621E-16	1.263257E-17
4.462367E+03	9.055225E-16	1.264817E-17
4.463000E+03	9.074530E-16	1.266609E-17
4.463632E+03	9.093166E-16	1.268307E-17
4.464264E+03	9.111695E-16	1.269987E-17
4.464898E+03	9.132608E-16	1.271995E-17
4.465530E+03	9.153753E-16	1.274033E-17
4.466163E+03	9.172645E-16	1.275753E-17
4.466795E+03	9.192222E-16	1.277566E-17
4.467427E+03	9.212145E-16	1.279425E-17
4.468060E+03	9.233098E-16	1.281422E-17
4.468693E+03	9.257226E-16	1.283857E-17
4.469325E+03	9.282270E-16	1.286416E-17
4.469958E+03	9.307326E-16	1.288970E-17
4.470590E+03	9.332047E-16	1.291476E-17
4.471222E+03	9.355875E-16	1.293854E-17
4.471855E+03	9.381755E-16	1.296510E-17
4.472488E+03	9.409456E-16	1.299415E-17
4.473120E+03	9.436710E-16	1.302254E-17
4.473753E+03	9.463530E-16	1.305027E-17
4.474385E+03	9.492736E-16	1.308126E-17
4.475017E+03	9.518780E-16	1.310784E-17
4.475650E+03	9.545287E-16	1.313500E-17
4.476282E+03	9.574530E-16	1.316590E-17
4.476916E+03	9.601515E-16	1.319363E-17
4.477548E+03	9.630894E-16	1.322462E-17
4.478180E+03	9.662668E-16	1.325885E-17
4.478813E+03	9.693549E-16	1.329178E-17
4.479445E+03	9.724097E-16	1.332422E-17
4.480077E+03	9.754885E-16	1.335694E-17
4.480711E+03	9.787059E-16	1.339149E-17
4.481343E+03	9.819574E-16	1.342647E-17
4.481975E+03	9.852906E-16	1.346251E-17
4.482608E+03	9.886249E-16	1.349849E-17
4.483240E+03	9.918468E-16	1.353290E-17
4.483873E+03	9.951268E-16	1.356804E-17
4.484506E+03	9.984650E-16	1.360392E-17
4.485138E+03	1.002066E-15	1.364334E-17
4.485771E+03	1.005692E-15	1.368301E-17
4.486403E+03	1.009114E-15	1.371986E-17
4.487035E+03	1.012617E-15	1.375776E-17
4.487668E+03	1.016225E-15	1.379700E-17
4.488301E+03	1.019879E-15	1.383683E-17
4.488933E+03	1.023523E-15	1.387646E-17
4.489566E+03	1.027203E-15	1.391651E-17
4.490198E+03	1.030896E-15	1.395668E-17
4.490830E+03	1.034533E-15	1.399603E-17
4.491463E+03	1.038217E-15	1.403595E-17
4.492095E+03	1.042199E-15	1.407985E-17
4.492729E+03	1.046435E-15	1.412708E-17
4.493361E+03	1.050797E-15	1.417597E-17
4.493993E+03	1.054887E-15	1.422112E-17
4.494626E+03	1.058968E-15	1.426605E-17
4.495258E+03	1.063289E-15	1.431417E-17
4.495890E+03	1.067761E-15	1.436425E-17
4.496524E+03	1.072179E-15	1.441350E-17
4.497156E+03	1.076551E-15	1.446208E-17
4.497788E+03	1.080971E-15	1.451124E-17
4.498421E+03	1.085577E-15	1.456279E-17
4.499053E+03	1.090321E-15	1.461614E-17
4.499686E+03	1.094884E-15	1.466697E-17
4.500319E+03	1.099322E-15	1.471607E-17
4.500951E+03	1.103763E-15	1.476513E-17
4.501584E+03	1.108401E-15	1.481672E-17
4.502216E+03	1.113051E-15	1.486842E-17
4.502848E+03	1.117577E-15	1.491839E-17
4.503481E+03	1.122231E-15	1.496997E-17
4.504114E+03	1.127104E-15	1.502442E-17
4.504746E+03	1.131796E-15	1.507637E-17
4.505379E+03	1.136513E-15	1.512856E-17
4.506011E+03	1.141220E-15	1.518055E-17
4.506643E+03	1.146009E-15	1.523356E-17
4.507276E+03	1.151294E-15	1.529306E-17
4.507908E+03	1.156477E-15	1.535113E-17
4.508541E+03	1.161778E-15	1.541068E-17
4.509174E+03	1.166850E-15	1.546710E-17
4.509806E+03	1.171925E-15	1.552347E-17
4.510439E+03	1.177232E-15	1.558282E-17
4.511071E+03	1.182425E-15	1.564060E-17
4.511703E+03	1.187505E-15	1.569680E-17
4.512337E+03	1.192703E-15	1.575445E-17
4.512969E+03	1.197903E-15	1.581206E-17
4.513601E+03	1.203104E-15	1.586960E-17
4.514234E+03	1.208193E-15	1.592555E-17
4.514866E+03	1.213168E-15	1.597995E-17
4.515499E+03	1.218146E-15	1.603428E-17
4.516132E+03	1.223125E-15	1.608856E-17
4.516764E+03	1.228221E-15	1.614430E-17
4.517397E+03	1.233205E-15	1.619846E-17
4.518029E+03	1.238420E-15	1.625560E-17
4.518661E+03	1.243522E-15	1.631117E-17
4.519294E+03	1.248857E-15	1.636969E-17
4.519927E+03	1.254308E-15	1.642967E-17
4.520559E+03	1.259762E-15	1.648959E-17
4.521192E+03	1.264988E-15	1.654643E-17
4.521824E+03	1.270215E-15	1.660321E-17
4.522456E+03	1.275329E-15	1.665843E-17
4.523089E+03	1.280445E-15	1.671358E-17
4.523721E+03	1.285679E-15	1.677020E-17
4.524354E+03	1.290913E-15	1.682674E-17
4.524987E+03	1.295920E-15	1.688022E-17
4.525619E+03	1.301044E-15	1.693516E-17
4.526252E+03	1.306054E-15	1.698852E-17
4.526884E+03	1.311066E-15	1.704185E-17
4.527516E+03	1.315964E-15	1.709361E-17
4.528150E+03	1.320865E-15	1.714531E-17
4.528782E+03	1.325767E-15	1.719697E-17
4.529414E+03	1.330786E-15	1.725007E-17
4.530047E+03	1.335807E-15	1.730311E-17
4.530679E+03	1.341177E-15	1.736060E-17
4.531312E+03	1.346549E-15	1.741801E-17
4.531945E+03	1.351692E-15	1.747239E-17
4.532577E+03	1.356836E-15	1.752671E-17
4.533210E+03	1.362215E-15	1.758395E-17
4.533842E+03	1.367594E-15	1.764115E-17
4.534474E+03	1.372629E-15	1.769380E-17
4.535107E+03	1.378244E-15	1.775385E-17
4.535740E+03	1.383746E-15	1.781236E-17
4.536372E+03	1.388323E-15	1.785889E-17
4.537005E+03	1.393365E-15	1.791131E-17
4.537637E+03	1.398524E-15	1.796518E-17
4.538269E+03	1.403454E-15	1.801602E-17
4.538902E+03	1.407805E-15	1.805935E-17
4.539534E+03	1.411810E-15	1.809820E-17
4.540167E+03	1.416629E-15	1.814740E-17
4.540800E+03	1.421798E-15	1.820100E-17
4.541432E+03	1.426852E-15	1.825307E-17
4.542065E+03	1.432140E-15	1.830804E-17
4.542697E+03	1.438475E-15	1.837631E-17
4.543329E+03	1.444697E-15	1.844304E-17
4.543963E+03	1.450688E-15	1.850672E-17
4.544595E+03	1.456565E-15	1.856886E-17
4.545227E+03	1.462096E-15	1.862651E-17
4.545860E+03	1.467861E-15	1.868704E-17
4.546492E+03	1.474210E-15	1.875491E-17
4.547124E+03	1.480677E-15	1.882419E-17
4.547758E+03	1.487030E-15	1.889192E-17
4.548390E+03	1.493386E-15	1.895958E-17
4.549023E+03	1.499628E-15	1.902570E-17
4.549655E+03	1.505755E-15	1.909028E-17
4.550287E+03	1.512583E-15	1.916363E-17
4.550920E+03	1.519181E-15	1.923396E-17
4.551553E+03	1.525897E-15	1.930570E-17
4.552185E+03	1.532150E-15	1.937147E-17
4.552818E+03	1.538405E-15	1.943717E-17
4.553450E+03	1.545012E-15	1.950723E-17
4.554082E+03	1.551505E-15	1.957574E-17
4.554715E+03	1.558233E-15	1.964711E-17
4.555347E+03	1.564847E-15	1.971695E-17
4.555980E+03	1.571347E-15	1.978525E-17
4.556613E+03	1.578199E-15	1.985788E-17
4.557245E+03	1.585170E-15	1.993191E-17
4.557877E+03	1.591793E-15	2.000146E-17
4.558510E+03	1.598653E-15	2.007386E-17
4.559142E+03	1.605398E-15	2.014474E-17
4.559776E+03	1.612379E-15	2.021846E-17
4.560408E+03	1.619479E-15	2.029358E-17
4.561040E+03	1.626699E-15	2.037009E-17
4.561673E+03	1.634271E-15	2.045089E-17
4.562305E+03	1.642080E-15	2.053455E-17
4.562937E+03	1.650359E-15	2.062396E-17
4.563571E+03	1.658291E-15	2.070889E-17
4.564203E+03	1.665758E-15	2.078792E-17
4.564836E+03	1.673344E-15	2.086830E-17
4.565468E+03	1.681166E-15	2.095153E-17
4.566100E+03	1.688875E-15	2.103323E-17
4.566733E+03	1.696938E-15	2.111920E-17
4.567366E+03	1.705236E-15	2.120800E-17
4.567998E+03	1.713421E-15	2.129526E-17
4.568631E+03	1.721375E-15	2.137951E-17
4.569263E+03	1.729098E-15	2.146078E-17
4.569895E+03	1.736939E-15	2.154342E-17
4.570528E+03	1.744902E-15	2.162742E-17
4.571160E+03	1.752867E-15	2.171134E-17
4.571793E+03	1.761185E-15	2.179953E-17
4.572426E+03	1.769157E-15	2.188327E-17
4.573058E+03	1.777364E-15	2.196984E-17
4.573690E+03	1.785692E-15	2.205777E-17
4.574323E+03	1.793905E-15	2.214415E-17
4.574955E+03	1.801652E-15	2.222466E-17
4.575589E+03	1.809402E-15	2.230508E-17
4.576221E+03	1.817506E-15	2.238977E-17
4.576853E+03	1.825847E-15	2.247727E-17
4.577486E+03	1.834193E-15	2.256466E-17
4.578118E+03	1.842305E-15	2.264909E-17
4.578750E+03	1.850655E-15	2.273632E-17
4.579384E+03	1.858891E-15	2.282201E-17
4.580016E+03	1.866542E-15	2.290042E-17
4.580649E+03	1.874313E-15	2.298017E-17
4.581281E+03	1.882322E-15	2.306273E-17
4.581913E+03	1.889980E-15	2.314090E-17
4.582546E+03	1.898112E-15	2.322472E-17
4.583179E+03	1.906481E-15	2.331136E-17
4.583811E+03	1.914618E-15	2.339503E-17
4.584444E+03	1.922758E-15	2.347859E-17
4.585076E+03	1.930665E-15	2.355922E-17
4.585708E+03	1.938810E-15	2.364264E-17
4.586341E+03	1.946723E-15	2.372309E-17
4.586973E+03	1.954402E-15	2.380061E-17
4.587606E+03	1.961730E-15	2.387374E-17
4.588239E+03	1.968943E-15	2.394535E-17
4.588871E+03	1.976276E-15	2.401834E-17
4.589503E+03	1.983729E-15	2.409268E-17
4.590136E+03	1.991068E-15	2.416550E-17
4.590768E+03	1.998290E-15	2.423684E-17
4.591402E+03	2.005515E-15	2.430808E-17
4.592034E+03	2.012623E-15	2.437784E-17
4.592666E+03	2.019380E-15	2.444324E-17
4.593299E+03	2.026022E-15	2.450714E-17
4.593931E+03	2.032901E-15	2.457383E-17
4.594563E+03	2.039782E-15	2.464046E-17
4.595197E+03	2.046548E-15	2.470558E-17
4.595829E+03	2.053315E-15	2.477065E-17
4.596461E+03	2.060085E-15	2.483565E-17
4.597094E+03	2.066503E-15	2.489630E-17
4.597726E+03	2.072921E-15	2.495690E-17
4.598359E+03	2.079107E-15	2.501459E-17
4.598992E+03	2.085293E-15	2.507222E-17
4.599624E+03	2.091362E-15	2.512838E-17
4.600257E+03	2.096962E-15	2.517878E-17
4.600889E+03	2.102326E-15	2.522632E-17
4.601521E+03	2.108164E-15	2.527947E-17
4.602154E+03	2.114005E-15	2.533255E-17
4.602786E+03	2.119610E-15	2.538276E-17
4.603419E+03	2.124980E-15	2.543009E-17
4.604052E+03	2.130233E-15	2.547592E-17
4.604684E+03	2.135369E-15	2.552032E-17
4.605316E+03	2.140388E-15	2.556326E-17
4.605949E+03	2.145527E-15	2.560754E-17
4.606581E+03	2.150193E-15	2.564614E-17
4.607215E+03	2.154980E-15	2.568610E-17
4.607847E+03	2.159411E-15	2.572180E-17
4.608479E+03	2.163725E-15	2.575605E-17
4.609112E+03	2.167922E-15	2.578883E-17
4.609744E+03	2.172475E-15	2.582583E-17
4.610376E+03	2.176674E-15	2.585856E-17
4.611010E+03	2.180518E-15	2.588701E-17
4.611642E+03	2.184362E-15	2.591544E-17
4.612274E+03	2.188682E-15	2.594947E-17
4.612907E+03	2.192885E-15	2.598205E-17
4.613539E+03	2.196495E-15	2.600757E-17
4.614172E+03	2.199987E-15	2.603165E-17
4.614805E+03	2.203361E-15	2.605431E-17
4.615437E+03	2.206498E-15	2.607414E-17
4.616070E+03	2.209517E-15	2.609252E-17
4.616702E+03	2.212417E-15	2.610950E-17
4.617334E+03	2.215555E-15	2.612926E-17
4.617967E+03	2.218695E-15	2.614898E-17
4.618599E+03	2.221715E-15	2.616730E-17
4.619232E+03	2.224498E-15	2.618279E-17
4.619865E+03	2.227163E-15	2.619685E-17
4.620497E+03	2.229471E-15	2.620671E-17
4.621129E+03	2.232136E-15	2.622076E-17
4.621762E+03	2.234683E-15	2.623337E-17
4.622394E+03	2.237350E-15	2.624738E-17
4.623027E+03	2.240015E-15	2.626137E-17
4.623660E+03	2.242563E-15	2.627393E-17
4.624292E+03	2.244992E-15	2.628510E-17
4.624925E+03	2.247184E-15	2.629345E-17
4.625557E+03	2.249017E-15	2.629763E-17
4.626189E+03	2.250612E-15	2.629901E-17
4.626823E+03	2.252208E-15	2.630037E-17
4.627455E+03	2.254041E-15	2.630453E-17
4.628087E+03	2.255994E-15	2.631006E-17
4.628720E+03	2.257709E-15	2.631279E-17
4.629352E+03	2.259065E-15	2.631137E-17
4.629985E+03	2.260184E-15	2.630716E-17
4.630618E+03	2.261421E-15	2.630434E-17
4.631250E+03	2.262896E-15	2.630430E-17
4.631883E+03	2.264252E-15	2.630285E-17
4.632515E+03	2.265369E-15	2.629864E-17
4.633147E+03	2.266963E-15	2.629997E-17
4.633780E+03	2.268558E-15	2.630128E-17
4.634412E+03	2.269793E-15	2.629845E-17
4.635045E+03	2.270670E-15	2.629147E-17
4.635678E+03	2.271787E-15	2.628725E-17
4.636310E+03	2.272902E-15	2.628303E-17
4.636942E+03	2.273778E-15	2.627606E-17
4.637575E+03	2.274893E-15	2.627183E-17
4.638207E+03	2.276008E-15	2.626763E-17
4.638840E+03	2.277122E-15	2.626342E-17
4.639473E+03	2.278236E-15	2.625919E-17
