#wls	flux	fluxerr
1.592848E+03	6.293974E-17	3.792401E-18
1.632669E+03	6.586199E-17	3.946703E-18
1.672491E+03	6.862895E-17	4.089276E-18
1.712312E+03	7.119360E-17	4.217414E-18
1.752133E+03	7.350799E-17	4.328434E-18
1.791954E+03	7.544867E-17	4.415310E-18
1.831775E+03	7.685366E-17	4.468969E-18
1.871597E+03	7.754050E-17	4.479423E-18
1.911418E+03	7.731150E-17	4.436119E-18
1.951239E+03	7.605225E-17	4.333601E-18
1.991060E+03	7.383775E-17	4.177366E-18
2.030881E+03	7.106771E-17	3.991078E-18
2.070703E+03	6.860230E-17	3.823439E-18
2.110524E+03	6.757185E-17	3.736623E-18
2.150345E+03	6.906039E-17	3.788244E-18
2.190166E+03	7.369921E-17	4.009231E-18
2.229987E+03	8.155295E-17	4.398636E-18
2.269809E+03	9.222787E-17	4.930688E-18
2.309630E+03	1.050804E-16	5.566950E-18
2.349451E+03	1.194595E-16	6.269691E-18
2.389272E+03	1.348434E-16	7.009073E-18
2.429093E+03	1.509064E-16	7.766318E-18
2.468915E+03	1.674714E-16	8.530833E-18
2.508736E+03	1.844541E-16	9.297051E-18
2.548557E+03	2.018206E-16	1.006204E-17
2.588378E+03	2.195549E-16	1.082381E-17
2.628199E+03	2.376376E-16	1.158021E-17
2.668021E+03	2.560316E-16	1.232825E-17
2.707842E+03	2.746407E-16	1.306221E-17
2.747663E+03	2.933669E-16	1.377646E-17
2.787484E+03	3.120416E-16	1.446235E-17
2.827305E+03	3.304245E-16	1.510836E-17
2.867127E+03	3.482675E-16	1.570323E-17
2.906948E+03	3.653175E-16	1.623616E-17
2.946769E+03	3.814352E-16	1.670200E-17
2.986590E+03	3.964713E-16	1.709564E-17
2.996546E+03	4.000499E-16	1.718247E-17
3.006501E+03	4.035466E-16	1.726432E-17
3.016456E+03	4.069647E-16	1.734135E-17
3.026411E+03	4.103047E-16	1.741362E-17
3.036367E+03	4.135897E-16	1.748215E-17
3.046322E+03	4.168502E-16	1.754824E-17
3.056277E+03	4.200980E-16	1.761238E-17
3.066233E+03	4.233052E-16	1.767341E-17
3.076188E+03	4.264739E-16	1.773145E-17
3.086143E+03	4.295775E-16	1.778540E-17
3.096099E+03	4.326198E-16	1.783543E-17
3.106054E+03	4.355755E-16	1.788056E-17
3.116009E+03	4.384493E-16	1.792100E-17
3.125964E+03	4.412175E-16	1.795584E-17
3.135920E+03	4.438767E-16	1.798497E-17
3.145875E+03	4.464232E-16	1.800832E-17
3.155830E+03	4.488364E-16	1.802510E-17
3.165786E+03	4.511236E-16	1.803569E-17
3.175741E+03	4.532745E-16	1.803972E-17
3.185696E+03	4.552796E-16	1.803690E-17
3.195652E+03	4.571392E-16	1.802732E-17
3.205607E+03	4.588460E-16	1.801077E-17
3.215562E+03	4.604014E-16	1.798738E-17
3.225517E+03	4.617997E-16	1.795701E-17
3.235473E+03	4.630360E-16	1.791956E-17
3.245428E+03	4.641144E-16	1.787527E-17
3.255383E+03	4.650405E-16	1.782446E-17
3.265339E+03	4.658039E-16	1.776679E-17
3.275294E+03	4.664040E-16	1.770235E-17
3.285249E+03	4.668562E-16	1.763181E-17
3.295205E+03	4.671537E-16	1.755500E-17
3.305160E+03	4.673060E-16	1.747236E-17
3.315115E+03	4.673158E-16	1.738407E-17
3.325070E+03	4.671793E-16	1.729009E-17
3.335026E+03	4.669082E-16	1.719091E-17
3.344981E+03	4.665141E-16	1.708706E-17
3.354936E+03	4.659888E-16	1.697830E-17
3.364892E+03	4.653460E-16	1.686521E-17
3.374847E+03	4.645916E-16	1.674807E-17
3.384802E+03	4.637335E-16	1.662724E-17
3.394758E+03	4.627668E-16	1.650260E-17
3.404713E+03	4.617128E-16	1.637498E-17
3.414668E+03	4.605687E-16	1.624433E-17
3.424623E+03	4.593397E-16	1.611090E-17
3.434579E+03	4.580427E-16	1.597533E-17
3.444534E+03	4.566745E-16	1.583755E-17
3.454489E+03	4.552498E-16	1.569811E-17
3.464445E+03	4.537804E-16	1.555747E-17
3.474400E+03	4.522750E-16	1.541594E-17
3.484355E+03	4.507448E-16	1.527394E-17
3.494311E+03	4.492048E-16	1.513199E-17
3.504266E+03	4.476583E-16	1.499022E-17
3.514221E+03	4.461324E-16	1.484952E-17
3.524176E+03	4.446431E-16	1.471044E-17
3.534132E+03	4.432018E-16	1.457332E-17
3.544087E+03	4.418288E-16	1.443881E-17
3.554042E+03	4.405535E-16	1.430782E-17
3.563998E+03	4.393950E-16	1.418092E-17
3.573953E+03	4.383805E-16	1.405891E-17
3.583908E+03	4.375418E-16	1.394273E-17
3.593864E+03	4.369064E-16	1.383314E-17
3.603819E+03	4.365220E-16	1.373152E-17
3.613774E+03	4.364285E-16	1.363898E-17
3.623729E+03	4.366843E-16	1.355715E-17
3.633685E+03	4.373367E-16	1.348727E-17
3.643640E+03	4.384442E-16	1.343090E-17
3.653595E+03	4.400693E-16	1.338966E-17
3.663551E+03	4.422701E-16	1.336499E-17
3.673506E+03	4.451170E-16	1.335864E-17
3.683461E+03	4.486699E-16	1.337200E-17
3.693417E+03	4.529940E-16	1.340656E-17
3.703372E+03	4.581629E-16	1.346400E-17
3.713327E+03	4.642420E-16	1.354570E-17
3.723282E+03	4.713000E-16	1.365309E-17
3.733238E+03	4.794010E-16	1.378739E-17
3.743193E+03	4.886096E-16	1.394979E-17
3.753148E+03	4.989873E-16	1.414134E-17
3.763104E+03	5.105822E-16	1.436265E-17
3.773059E+03	5.234517E-16	1.461456E-17
3.783014E+03	5.376320E-16	1.489726E-17
3.792970E+03	5.531469E-16	1.521058E-17
3.802925E+03	5.700142E-16	1.555417E-17
3.812880E+03	5.882239E-16	1.592689E-17
3.822835E+03	6.077484E-16	1.632716E-17
3.832791E+03	6.285269E-16	1.675252E-17
3.842746E+03	6.504756E-16	1.719997E-17
3.852701E+03	6.734648E-16	1.766536E-17
3.862657E+03	6.973288E-16	1.814373E-17
3.872612E+03	7.218592E-16	1.862915E-17
3.882567E+03	7.467979E-16	1.911461E-17
3.892523E+03	7.718504E-16	1.959238E-17
3.902478E+03	7.966848E-16	2.005405E-17
3.912433E+03	8.209400E-16	2.049076E-17
3.922388E+03	8.442236E-16	2.089319E-17
3.932344E+03	8.661647E-16	2.125288E-17
3.942299E+03	8.863713E-16	2.156116E-17
3.952254E+03	9.045139E-16	2.181122E-17
3.962210E+03	9.202810E-16	2.199695E-17
3.972165E+03	9.334348E-16	2.211425E-17
3.982120E+03	9.438053E-16	2.216082E-17
3.992076E+03	9.513187E-16	2.213672E-17
4.002031E+03	9.559603E-16	2.204346E-17
4.011986E+03	9.578396E-16	2.188538E-17
4.021941E+03	9.571112E-16	2.166775E-17
4.031897E+03	9.540321E-16	2.139801E-17
4.041852E+03	9.489026E-16	2.108433E-17
4.051807E+03	9.420733E-16	2.073574E-17
4.061763E+03	9.338979E-16	2.036104E-17
4.071718E+03	9.247752E-16	1.996969E-17
4.081673E+03	9.150679E-16	1.957007E-17
4.091629E+03	9.051267E-16	1.916999E-17
4.101584E+03	8.952819E-16	1.877653E-17
4.111539E+03	8.858219E-16	1.839564E-17
4.121494E+03	8.770007E-16	1.803231E-17
4.131450E+03	8.690504E-16	1.769090E-17
4.141405E+03	8.621439E-16	1.737436E-17
4.151360E+03	8.564515E-16	1.708549E-17
4.161316E+03	8.521013E-16	1.682609E-17
4.171271E+03	8.491945E-16	1.659734E-17
4.181226E+03	8.478184E-16	1.640009E-17
4.191182E+03	8.480151E-16	1.623425E-17
4.201137E+03	8.498163E-16	1.609953E-17
4.211092E+03	8.532064E-16	1.599471E-17
4.221047E+03	8.581633E-16	1.591848E-17
4.231003E+03	8.646125E-16	1.586862E-17
4.240958E+03	8.724520E-16	1.584245E-17
4.250913E+03	8.815451E-16	1.583677E-17
4.260869E+03	8.917277E-16	1.584801E-17
4.270824E+03	9.027969E-16	1.587207E-17
4.280779E+03	9.145284E-16	1.590462E-17
4.290735E+03	9.266599E-16	1.594087E-17
4.300690E+03	9.389385E-16	1.597638E-17
4.310645E+03	9.510628E-16	1.600612E-17
4.320601E+03	9.627522E-16	1.602561E-17
4.330556E+03	9.737413E-16	1.603082E-17
4.340511E+03	9.837817E-16	1.601820E-17
4.350466E+03	9.927157E-16	1.598584E-17
4.360422E+03	1.000470E-15	1.593327E-17
4.370377E+03	1.007118E-15	1.586239E-17
4.380332E+03	1.012943E-15	1.577827E-17
4.390288E+03	1.018411E-15	1.568863E-17
4.400243E+03	1.024119E-15	1.560284E-17
4.410198E+03	1.030735E-15	1.553094E-17
4.420154E+03	1.038969E-15	1.548318E-17
4.430109E+03	1.049512E-15	1.546904E-17
4.440064E+03	1.063036E-15	1.549732E-17
4.450019E+03	1.080187E-15	1.557602E-17
4.459975E+03	1.101490E-15	1.571098E-17
4.469930E+03	1.127378E-15	1.590652E-17
4.479885E+03	1.158172E-15	1.616514E-17
4.489841E+03	1.194101E-15	1.648796E-17
4.499796E+03	1.235208E-15	1.687352E-17
4.509751E+03	1.281426E-15	1.731885E-17
4.519707E+03	1.332513E-15	1.781881E-17
4.529662E+03	1.388004E-15	1.836546E-17
4.539617E+03	1.447231E-15	1.894855E-17
4.549572E+03	1.509277E-15	1.955502E-17
4.559528E+03	1.572979E-15	2.016921E-17
4.569483E+03	1.636897E-15	2.077255E-17
4.579438E+03	1.699453E-15	2.134556E-17
4.589394E+03	1.758930E-15	2.186781E-17
4.599349E+03	1.813562E-15	2.231912E-17
4.609304E+03	1.861655E-15	2.268102E-17
4.619260E+03	1.901717E-15	2.293824E-17
4.629215E+03	1.932467E-15	2.307867E-17
4.639170E+03	1.952988E-15	2.309497E-17
4.649125E+03	1.962770E-15	2.298491E-17
4.659081E+03	1.961648E-15	2.275035E-17
4.669036E+03	1.949928E-15	2.239849E-17
4.678991E+03	1.928343E-15	2.194111E-17
4.688947E+03	1.897997E-15	2.139377E-17
4.698902E+03	1.860260E-15	2.077436E-17
4.708857E+03	1.816734E-15	2.010270E-17
4.718813E+03	1.769141E-15	1.939916E-17
4.728768E+03	1.719166E-15	1.868301E-17
4.738723E+03	1.668540E-15	1.797326E-17
4.748678E+03	1.618854E-15	1.728679E-17
4.758634E+03	1.571532E-15	1.663809E-17
4.768589E+03	1.527776E-15	1.603884E-17
4.778544E+03	1.488616E-15	1.549854E-17
4.788500E+03	1.454865E-15	1.502415E-17
4.798455E+03	1.427030E-15	1.461928E-17
4.808410E+03	1.405521E-15	1.428645E-17
4.818366E+03	1.390557E-15	1.402626E-17
4.828321E+03	1.382140E-15	1.383703E-17
4.838276E+03	1.380105E-15	1.371546E-17
4.848231E+03	1.384324E-15	1.365871E-17
4.858187E+03	1.394542E-15	1.366278E-17
4.868142E+03	1.410457E-15	1.372337E-17
4.878097E+03	1.431730E-15	1.383595E-17
4.888053E+03	1.457870E-15	1.399470E-17
4.898008E+03	1.488273E-15	1.419285E-17
4.907963E+03	1.522112E-15	1.442172E-17
4.917919E+03	1.558193E-15	1.466937E-17
4.927874E+03	1.595049E-15	1.492165E-17
4.937829E+03	1.630932E-15	1.516208E-17
4.947784E+03	1.663750E-15	1.537147E-17
4.957740E+03	1.691180E-15	1.552889E-17
4.967695E+03	1.711247E-15	1.561716E-17
4.977650E+03	1.722666E-15	1.562573E-17
4.987606E+03	1.724705E-15	1.554931E-17
4.997561E+03	1.717300E-15	1.538872E-17
5.007516E+03	1.701571E-15	1.515536E-17
5.017472E+03	1.679130E-15	1.486470E-17
5.027427E+03	1.651778E-15	1.453355E-17
5.037382E+03	1.621406E-15	1.417910E-17
5.047337E+03	1.589828E-15	1.381753E-17
5.057293E+03	1.558645E-15	1.346276E-17
5.067248E+03	1.529249E-15	1.312660E-17
5.077203E+03	1.502763E-15	1.281828E-17
5.087159E+03	1.480015E-15	1.254431E-17
5.097114E+03	1.461204E-15	1.230573E-17
5.107069E+03	1.446285E-15	1.210148E-17
5.117025E+03	1.435174E-15	1.193022E-17
5.126980E+03	1.427813E-15	1.179084E-17
5.136935E+03	1.424156E-15	1.168235E-17
5.146890E+03	1.424268E-15	1.160468E-17
5.156846E+03	1.428505E-15	1.156009E-17
5.166801E+03	1.437336E-15	1.155169E-17
5.176756E+03	1.451232E-15	1.158251E-17
5.186712E+03	1.470618E-15	1.165511E-17
5.196667E+03	1.495931E-15	1.177205E-17
5.206622E+03	1.527481E-15	1.193483E-17
5.216578E+03	1.565127E-15	1.214139E-17
5.226533E+03	1.608545E-15	1.238832E-17
5.236488E+03	1.657226E-15	1.267087E-17
5.246443E+03	1.710318E-15	1.298186E-17
5.256399E+03	1.766671E-15	1.331206E-17
5.266354E+03	1.824997E-15	1.365153E-17
5.276309E+03	1.883724E-15	1.398853E-17
5.286265E+03	1.941077E-15	1.431019E-17
5.296220E+03	1.995305E-15	1.460427E-17
5.306175E+03	2.044654E-15	1.485887E-17
5.316131E+03	2.087464E-15	1.506317E-17
5.326086E+03	2.122240E-15	1.520788E-17
5.336041E+03	2.147798E-15	1.528620E-17
5.345996E+03	2.163225E-15	1.529344E-17
5.355952E+03	2.168075E-15	1.522830E-17
5.365907E+03	2.162522E-15	1.509382E-17
5.375862E+03	2.147245E-15	1.489641E-17
5.385818E+03	2.123478E-15	1.464607E-17
5.395773E+03	2.093468E-15	1.435944E-17
5.405728E+03	2.059815E-15	1.405513E-17
5.415684E+03	2.025511E-15	1.375396E-17
5.425639E+03	1.994192E-15	1.348063E-17
5.435594E+03	1.969525E-15	1.325963E-17
5.445549E+03	1.954780E-15	1.311246E-17
5.455505E+03	1.952833E-15	1.305778E-17
5.465460E+03	1.965199E-15	1.310516E-17
5.475415E+03	1.991302E-15	1.325041E-17
5.485371E+03	2.028220E-15	1.347386E-17
5.495326E+03	2.070752E-15	1.374067E-17
5.505281E+03	2.112516E-15	1.400840E-17
5.515237E+03	2.147615E-15	1.423788E-17
5.525192E+03	2.170351E-15	1.439119E-17
5.535147E+03	2.176102E-15	1.443733E-17
5.545102E+03	2.163033E-15	1.436346E-17
5.555058E+03	2.131049E-15	1.416806E-17
5.565013E+03	2.081272E-15	1.385746E-17
5.574968E+03	2.016481E-15	1.344897E-17
5.584924E+03	1.940111E-15	1.296427E-17
5.594879E+03	1.855918E-15	1.242737E-17
5.604834E+03	1.767929E-15	1.186430E-17
5.614790E+03	1.679897E-15	1.129953E-17
5.624745E+03	1.595129E-15	1.075486E-17
5.634700E+03	1.516491E-15	1.024937E-17
5.644655E+03	1.446371E-15	9.799201E-18
5.654611E+03	1.386570E-15	9.416721E-18
5.664566E+03	1.338449E-15	9.111489E-18
5.674521E+03	1.303105E-15	8.891352E-18
5.684477E+03	1.281201E-15	8.761308E-18
5.694432E+03	1.272620E-15	8.720990E-18
5.704387E+03	1.277083E-15	8.768911E-18
5.714343E+03	1.294484E-15	8.904686E-18
5.724298E+03	1.324610E-15	9.127106E-18
5.734253E+03	1.367329E-15	9.435444E-18
5.744209E+03	1.422541E-15	9.829082E-18
5.754164E+03	1.489847E-15	1.030521E-17
5.764119E+03	1.568592E-15	1.085914E-17
5.774074E+03	1.657811E-15	1.148388E-17
5.784030E+03	1.755893E-15	1.216784E-17
5.793985E+03	1.860514E-15	1.289433E-17
5.803940E+03	1.968940E-15	1.364376E-17
5.813896E+03	2.078342E-15	1.439581E-17
5.823851E+03	2.185548E-15	1.512781E-17
5.833806E+03	2.287322E-15	1.581671E-17
5.843762E+03	2.380971E-15	1.644333E-17
5.853717E+03	2.464113E-15	1.699086E-17
5.863672E+03	2.534690E-15	1.744493E-17
5.873627E+03	2.591523E-15	1.779748E-17
5.883583E+03	2.633936E-15	1.804415E-17
5.893538E+03	2.661674E-15	1.818369E-17
5.903493E+03	2.675114E-15	1.821938E-17
5.913449E+03	2.674994E-15	1.815711E-17
5.923404E+03	2.662369E-15	1.800504E-17
5.933359E+03	2.638488E-15	1.777268E-17
5.943315E+03	2.604904E-15	1.747164E-17
5.953270E+03	2.563151E-15	1.711333E-17
5.963225E+03	2.514927E-15	1.671016E-17
5.973180E+03	2.461946E-15	1.627453E-17
5.983136E+03	2.405850E-15	1.581819E-17
5.993091E+03	2.348309E-15	1.535286E-17
6.003046E+03	2.290865E-15	1.488922E-17
6.013002E+03	2.234917E-15	1.443680E-17
6.022957E+03	2.181620E-15	1.400330E-17
6.032912E+03	2.131893E-15	1.359472E-17
6.042868E+03	2.086479E-15	1.321577E-17
6.052823E+03	2.045747E-15	1.286866E-17
6.062778E+03	2.009867E-15	1.255424E-17
6.072733E+03	1.978916E-15	1.227276E-17
6.082689E+03	1.952732E-15	1.202296E-17
6.092644E+03	1.931140E-15	1.180353E-17
6.102599E+03	1.913829E-15	1.161235E-17
6.112555E+03	1.900401E-15	1.144687E-17
6.122510E+03	1.890379E-15	1.130413E-17
6.132465E+03	1.883134E-15	1.118038E-17
6.142421E+03	1.877895E-15	1.107117E-17
6.152376E+03	1.873724E-15	1.097122E-17
6.162331E+03	1.869611E-15	1.087501E-17
6.172286E+03	1.864083E-15	1.077451E-17
6.182242E+03	1.855737E-15	1.066230E-17
6.192197E+03	1.843219E-15	1.053124E-17
6.202152E+03	1.825558E-15	1.037635E-17
6.212108E+03	1.802327E-15	1.019574E-17
6.222063E+03	1.773830E-15	9.991612E-18
6.232018E+03	1.741349E-15	9.771519E-18
6.241974E+03	1.706661E-15	9.545591E-18
6.251929E+03	1.671517E-15	9.323631E-18
6.261884E+03	1.637604E-15	9.114938E-18
6.271839E+03	1.606290E-15	8.926963E-18
6.281795E+03	1.578681E-15	8.765682E-18
6.291750E+03	1.555469E-15	8.634809E-18
6.301705E+03	1.537165E-15	8.537132E-18
6.311661E+03	1.524017E-15	8.474063E-18
6.321616E+03	1.516018E-15	8.445725E-18
6.331571E+03	1.512982E-15	8.451351E-18
6.341527E+03	1.514625E-15	8.489734E-18
6.351482E+03	1.520387E-15	8.558202E-18
6.361437E+03	1.529665E-15	8.653900E-18
6.371392E+03	1.541793E-15	8.773639E-18
6.381348E+03	1.556000E-15	8.913612E-18
6.391303E+03	1.571576E-15	9.070305E-18
6.401258E+03	1.587756E-15	9.239784E-18
6.411214E+03	1.603971E-15	9.418863E-18
6.421169E+03	1.619640E-15	9.603904E-18
6.431124E+03	1.634389E-15	9.792336E-18
6.441080E+03	1.647939E-15	9.982015E-18
6.451035E+03	1.660184E-15	1.017174E-17
6.460990E+03	1.671132E-15	1.036094E-17
6.470945E+03	1.680707E-15	1.054848E-17
6.480901E+03	1.688947E-15	1.073391E-17
6.490856E+03	1.696123E-15	1.091824E-17
6.500811E+03	1.702524E-15	1.110271E-17
6.510767E+03	1.708869E-15	1.129144E-17
6.520722E+03	1.716375E-15	1.149220E-17
6.530677E+03	1.725941E-15	1.171097E-17
6.540633E+03	1.738483E-15	1.195427E-17
6.550588E+03	1.754829E-15	1.222831E-17
6.560543E+03	1.775216E-15	1.253549E-17
6.570498E+03	1.799629E-15	1.287651E-17
6.580454E+03	1.827799E-15	1.325025E-17
6.590409E+03	1.858805E-15	1.365067E-17
6.600364E+03	1.891517E-15	1.406989E-17
6.610320E+03	1.924563E-15	1.449771E-17
6.620275E+03	1.956433E-15	1.492239E-17
6.630230E+03	1.985623E-15	1.533168E-17
6.640186E+03	2.010598E-15	1.571249E-17
6.650141E+03	2.030351E-15	1.605534E-17
6.660096E+03	2.043957E-15	1.635110E-17
6.670051E+03	2.050854E-15	1.659322E-17
6.680007E+03	2.050815E-15	1.677775E-17
6.689962E+03	2.043862E-15	1.690279E-17
6.699917E+03	2.030322E-15	1.696903E-17
6.709873E+03	2.010704E-15	1.697887E-17
6.719828E+03	1.985696E-15	1.693652E-17
6.729783E+03	1.956072E-15	1.684720E-17
6.739739E+03	1.922715E-15	1.671741E-17
6.749694E+03	1.886562E-15	1.655445E-17
6.759649E+03	1.848436E-15	1.636501E-17
6.769604E+03	1.809290E-15	1.615720E-17
6.779560E+03	1.769931E-15	1.593815E-17
6.789515E+03	1.731148E-15	1.571510E-17
6.799470E+03	1.693738E-15	1.549558E-17
6.809426E+03	1.658378E-15	1.528628E-17
6.819381E+03	1.625699E-15	1.509361E-17
6.829336E+03	1.596262E-15	1.492348E-17
6.839292E+03	1.570596E-15	1.478164E-17
6.849247E+03	1.549097E-15	1.467263E-17
6.859202E+03	1.532078E-15	1.460030E-17
6.869157E+03	1.519806E-15	1.456803E-17
6.879113E+03	1.512510E-15	1.457887E-17
6.889068E+03	1.510259E-15	1.463431E-17
6.899023E+03	1.513018E-15	1.473474E-17
6.908979E+03	1.520782E-15	1.488080E-17
6.918934E+03	1.533254E-15	1.507020E-17
6.928889E+03	1.550096E-15	1.530008E-17
6.938845E+03	1.570790E-15	1.556572E-17
6.948800E+03	1.594588E-15	1.585997E-17
6.958755E+03	1.620614E-15	1.617424E-17
6.968710E+03	1.647835E-15	1.649820E-17
6.978666E+03	1.675191E-15	1.682112E-17
6.988621E+03	1.701478E-15	1.713070E-17
6.998576E+03	1.725552E-15	1.741508E-17
7.008532E+03	1.746527E-15	1.766500E-17
7.018487E+03	1.763557E-15	1.787153E-17
7.028442E+03	1.775987E-15	1.802767E-17
7.038398E+03	1.783569E-15	1.813059E-17
7.048353E+03	1.786189E-15	1.817889E-17
7.058308E+03	1.783976E-15	1.817371E-17
7.068263E+03	1.777292E-15	1.811865E-17
7.078219E+03	1.766723E-15	1.801965E-17
7.088174E+03	1.752867E-15	1.788289E-17
7.098129E+03	1.736499E-15	1.771637E-17
7.108085E+03	1.718460E-15	1.752884E-17
7.118040E+03	1.699534E-15	1.732846E-17
7.127995E+03	1.680428E-15	1.712265E-17
7.137951E+03	1.661832E-15	1.691860E-17
7.147906E+03	1.644397E-15	1.672310E-17
7.157861E+03	1.628429E-15	1.653940E-17
7.167817E+03	1.614340E-15	1.637178E-17
7.177772E+03	1.602213E-15	1.622117E-17
7.187727E+03	1.592109E-15	1.608822E-17
7.197682E+03	1.583821E-15	1.597086E-17
7.207638E+03	1.577155E-15	1.586715E-17
7.217593E+03	1.571736E-15	1.577333E-17
7.227548E+03	1.567089E-15	1.568470E-17
7.237504E+03	1.562812E-15	1.559726E-17
7.247459E+03	1.558498E-15	1.550707E-17
7.257414E+03	1.553731E-15	1.541013E-17
7.267370E+03	1.548250E-15	1.530400E-17
7.277325E+03	1.541967E-15	1.518806E-17
7.287280E+03	1.534892E-15	1.506260E-17
7.297235E+03	1.527080E-15	1.492840E-17
7.307191E+03	1.518848E-15	1.478878E-17
7.317146E+03	1.510538E-15	1.464726E-17
7.327101E+03	1.502455E-15	1.450693E-17
7.337057E+03	1.494944E-15	1.437125E-17
7.347012E+03	1.488357E-15	1.424367E-17
7.356967E+03	1.482903E-15	1.412622E-17
7.366923E+03	1.478709E-15	1.402009E-17
7.376878E+03	1.475757E-15	1.392512E-17
7.386833E+03	1.474009E-15	1.384092E-17
7.396788E+03	1.473196E-15	1.376496E-17
7.406744E+03	1.472962E-15	1.369397E-17
7.416699E+03	1.472931E-15	1.362453E-17
7.426654E+03	1.472556E-15	1.355177E-17
7.436610E+03	1.471317E-15	1.347111E-17
7.446565E+03	1.468675E-15	1.337796E-17
7.456520E+03	1.464164E-15	1.326843E-17
7.466476E+03	1.457362E-15	1.313910E-17
7.476431E+03	1.447942E-15	1.298733E-17
7.486386E+03	1.435951E-15	1.281390E-17
7.496341E+03	1.421430E-15	1.261953E-17
7.506297E+03	1.404711E-15	1.240745E-17
7.516252E+03	1.386274E-15	1.218221E-17
7.526207E+03	1.366808E-15	1.195004E-17
7.536163E+03	1.346962E-15	1.171673E-17
7.546118E+03	1.327385E-15	1.148793E-17
7.556073E+03	1.308769E-15	1.126958E-17
7.566029E+03	1.291659E-15	1.106623E-17
7.575984E+03	1.276485E-15	1.088138E-17
7.585939E+03	1.263646E-15	1.071817E-17
7.595894E+03	1.253389E-15	1.057843E-17
7.605850E+03	1.245813E-15	1.046270E-17
7.615805E+03	1.240953E-15	1.037099E-17
7.625760E+03	1.238840E-15	1.030328E-17
7.635716E+03	1.239308E-15	1.025793E-17
7.645671E+03	1.242283E-15	1.023413E-17
7.655626E+03	1.247563E-15	1.023000E-17
7.665582E+03	1.254906E-15	1.024344E-17
7.675537E+03	1.264034E-15	1.027209E-17
7.685492E+03	1.274621E-15	1.031325E-17
7.695447E+03	1.286217E-15	1.036332E-17
7.705403E+03	1.298354E-15	1.041862E-17
7.715358E+03	1.310548E-15	1.047542E-17
7.725313E+03	1.322319E-15	1.053011E-17
