#wls	flux	fluxerr
1.592848E+03	3.975931E-17	4.339832E-18
1.632669E+03	4.134831E-17	4.496833E-18
1.672491E+03	4.279609E-17	4.636860E-18
1.712312E+03	4.407514E-17	4.757067E-18
1.752133E+03	4.515510E-17	4.854354E-18
1.791954E+03	4.596616E-17	4.921463E-18
1.831775E+03	4.641247E-17	4.948492E-18
1.871597E+03	4.639761E-17	4.925674E-18
1.911418E+03	4.581845E-17	4.842731E-18
1.951239E+03	4.462837E-17	4.695563E-18
1.991060E+03	4.289375E-17	4.492029E-18
2.030881E+03	4.087587E-17	4.260212E-18
2.070703E+03	3.906397E-17	4.051338E-18
2.110524E+03	3.810709E-17	3.932117E-18
2.150345E+03	3.857681E-17	3.959900E-18
2.190166E+03	4.079785E-17	4.165526E-18
2.229987E+03	4.473808E-17	4.542763E-18
2.269809E+03	5.012503E-17	5.061057E-18
2.309630E+03	5.656225E-17	5.677915E-18
2.349451E+03	6.368304E-17	6.354649E-18
2.389272E+03	7.118551E-17	7.059810E-18
2.429093E+03	7.888026E-17	7.773728E-18
2.468915E+03	8.663374E-17	8.482651E-18
2.508736E+03	9.436438E-17	9.178208E-18
2.548557E+03	1.020285E-16	9.855896E-18
2.588378E+03	1.095681E-16	1.050996E-17
2.628199E+03	1.169449E-16	1.113667E-17
2.668021E+03	1.240969E-16	1.173018E-17
2.707842E+03	1.309673E-16	1.228532E-17
2.747663E+03	1.374641E-16	1.279383E-17
2.787484E+03	1.435087E-16	1.324898E-17
2.827305E+03	1.490145E-16	1.364356E-17
2.867127E+03	1.538820E-16	1.396952E-17
2.906948E+03	1.580186E-16	1.421980E-17
2.946769E+03	1.613785E-16	1.439184E-17
2.986590E+03	1.639400E-16	1.448545E-17
2.996546E+03	1.644546E-16	1.449672E-17
3.006501E+03	1.649227E-16	1.450353E-17
3.016456E+03	1.653427E-16	1.450577E-17
3.026411E+03	1.657163E-16	1.450362E-17
3.036367E+03	1.660544E-16	1.449805E-17
3.046322E+03	1.663730E-16	1.449049E-17
3.056277E+03	1.666740E-16	1.448111E-17
3.066233E+03	1.669577E-16	1.446994E-17
3.076188E+03	1.672126E-16	1.445600E-17
3.086143E+03	1.674398E-16	1.443941E-17
3.096099E+03	1.676407E-16	1.442029E-17
3.106054E+03	1.678053E-16	1.439782E-17
3.116009E+03	1.679358E-16	1.437219E-17
3.125964E+03	1.680345E-16	1.434364E-17
3.135920E+03	1.680928E-16	1.431145E-17
3.145875E+03	1.681194E-16	1.427637E-17
3.155830E+03	1.681117E-16	1.423823E-17
3.165786E+03	1.680625E-16	1.419641E-17
3.175741E+03	1.679807E-16	1.415173E-17
3.185696E+03	1.678651E-16	1.410408E-17
3.195652E+03	1.677146E-16	1.405339E-17
3.205607E+03	1.675284E-16	1.399964E-17
3.215562E+03	1.673162E-16	1.394364E-17
3.225517E+03	1.670774E-16	1.388538E-17
3.235473E+03	1.668075E-16	1.382448E-17
3.245428E+03	1.665161E-16	1.376178E-17
3.255383E+03	1.662037E-16	1.369733E-17
3.265339E+03	1.658711E-16	1.363121E-17
3.275294E+03	1.655194E-16	1.356352E-17
3.285249E+03	1.651586E-16	1.349510E-17
3.295205E+03	1.647858E-16	1.342572E-17
3.305160E+03	1.644070E-16	1.335588E-17
3.315115E+03	1.640241E-16	1.328573E-17
3.325070E+03	1.636434E-16	1.321578E-17
3.335026E+03	1.632632E-16	1.314591E-17
3.344981E+03	1.628903E-16	1.307666E-17
3.354936E+03	1.625240E-16	1.300796E-17
3.364892E+03	1.621751E-16	1.294068E-17
3.374847E+03	1.618433E-16	1.287479E-17
3.384802E+03	1.615327E-16	1.281058E-17
3.394758E+03	1.612442E-16	1.274813E-17
3.404713E+03	1.609858E-16	1.268804E-17
3.414668E+03	1.607592E-16	1.263044E-17
3.424623E+03	1.605667E-16	1.257547E-17
3.434579E+03	1.604142E-16	1.252358E-17
3.444534E+03	1.603080E-16	1.247522E-17
3.454489E+03	1.602456E-16	1.243017E-17
3.464445E+03	1.602346E-16	1.238898E-17
3.474400E+03	1.602796E-16	1.235198E-17
3.484355E+03	1.603833E-16	1.231931E-17
3.494311E+03	1.605515E-16	1.229139E-17
3.504266E+03	1.607852E-16	1.226824E-17
3.514221E+03	1.610940E-16	1.225055E-17
3.524176E+03	1.614801E-16	1.223841E-17
3.534132E+03	1.619513E-16	1.223236E-17
3.544087E+03	1.625131E-16	1.223275E-17
3.554042E+03	1.631688E-16	1.223975E-17
3.563998E+03	1.639273E-16	1.225396E-17
3.573953E+03	1.647951E-16	1.227578E-17
3.583908E+03	1.657763E-16	1.230541E-17
3.593864E+03	1.668801E-16	1.234348E-17
3.603819E+03	1.681135E-16	1.239036E-17
3.613774E+03	1.694855E-16	1.244664E-17
3.623729E+03	1.710078E-16	1.251306E-17
3.633685E+03	1.726895E-16	1.259013E-17
3.643640E+03	1.745391E-16	1.267838E-17
3.653595E+03	1.765702E-16	1.277864E-17
3.663551E+03	1.787935E-16	1.289152E-17
3.673506E+03	1.812169E-16	1.301744E-17
3.683461E+03	1.838504E-16	1.315694E-17
3.693417E+03	1.867034E-16	1.331054E-17
3.703372E+03	1.897874E-16	1.347884E-17
3.713327E+03	1.931079E-16	1.366206E-17
3.723282E+03	1.966723E-16	1.386051E-17
3.733238E+03	2.004893E-16	1.407460E-17
3.743193E+03	2.045637E-16	1.430445E-17
3.753148E+03	2.088965E-16	1.454991E-17
3.763104E+03	2.134918E-16	1.481104E-17
3.773059E+03	2.183494E-16	1.508761E-17
3.783014E+03	2.234693E-16	1.537938E-17
3.792970E+03	2.288410E-16	1.568542E-17
3.802925E+03	2.344618E-16	1.600532E-17
3.812880E+03	2.403206E-16	1.633810E-17
3.822835E+03	2.464001E-16	1.668239E-17
3.832791E+03	2.526877E-16	1.703715E-17
3.842746E+03	2.591589E-16	1.740054E-17
3.852701E+03	2.657850E-16	1.777048E-17
3.862657E+03	2.725452E-16	1.814545E-17
3.872612E+03	2.794003E-16	1.852272E-17
3.882567E+03	2.863196E-16	1.890018E-17
3.892523E+03	2.932567E-16	1.927471E-17
3.902478E+03	3.001749E-16	1.964390E-17
3.912433E+03	3.070259E-16	2.000460E-17
3.922388E+03	3.137693E-16	2.035424E-17
3.932344E+03	3.203511E-16	2.068942E-17
3.942299E+03	3.267268E-16	2.100742E-17
3.952254E+03	3.328536E-16	2.130567E-17
3.962210E+03	3.386870E-16	2.158154E-17
3.972165E+03	3.441821E-16	2.183243E-17
3.982120E+03	3.493050E-16	2.205650E-17
3.992076E+03	3.540270E-16	2.225226E-17
4.002031E+03	3.583182E-16	2.241819E-17
4.011986E+03	3.621590E-16	2.255344E-17
4.021941E+03	3.655411E-16	2.265790E-17
4.031897E+03	3.684605E-16	2.273172E-17
4.041852E+03	3.709217E-16	2.277558E-17
4.051807E+03	3.729377E-16	2.279068E-17
4.061763E+03	3.745334E-16	2.277893E-17
4.071718E+03	3.757340E-16	2.274224E-17
4.081673E+03	3.765752E-16	2.268310E-17
4.091629E+03	3.771023E-16	2.260455E-17
4.101584E+03	3.773577E-16	2.250939E-17
4.111539E+03	3.773939E-16	2.240101E-17
4.121494E+03	3.772578E-16	2.228237E-17
4.131450E+03	3.770041E-16	2.215683E-17
4.141405E+03	3.766789E-16	2.202722E-17
4.151360E+03	3.763301E-16	2.189638E-17
4.161316E+03	3.760025E-16	2.176695E-17
4.171271E+03	3.757378E-16	2.164131E-17
4.181226E+03	3.755735E-16	2.152157E-17
4.191182E+03	3.755360E-16	2.140915E-17
4.201137E+03	3.756584E-16	2.130583E-17
4.211092E+03	3.759588E-16	2.121250E-17
4.221047E+03	3.764588E-16	2.113022E-17
4.231003E+03	3.771729E-16	2.105965E-17
4.240958E+03	3.781160E-16	2.100142E-17
4.250913E+03	3.792900E-16	2.095546E-17
4.260869E+03	3.807018E-16	2.092195E-17
4.270824E+03	3.823569E-16	2.090099E-17
4.280779E+03	3.842601E-16	2.089266E-17
4.290735E+03	3.864057E-16	2.089643E-17
4.300690E+03	3.888025E-16	2.091258E-17
4.310645E+03	3.914501E-16	2.094087E-17
4.320601E+03	3.943566E-16	2.098156E-17
4.330556E+03	3.975258E-16	2.103461E-17
4.340511E+03	4.009711E-16	2.110053E-17
4.350466E+03	4.047132E-16	2.118017E-17
4.360422E+03	4.087844E-16	2.127499E-17
4.370377E+03	4.132150E-16	2.138628E-17
4.380332E+03	4.180608E-16	2.151663E-17
4.390288E+03	4.233695E-16	2.166814E-17
4.400243E+03	4.291996E-16	2.184343E-17
4.410198E+03	4.356110E-16	2.204510E-17
4.420154E+03	4.426630E-16	2.227565E-17
4.430109E+03	4.503989E-16	2.253676E-17
4.440064E+03	4.588727E-16	2.283056E-17
4.450019E+03	4.681223E-16	2.315834E-17
4.459975E+03	4.781662E-16	2.352039E-17
4.469930E+03	4.890223E-16	2.391695E-17
4.479885E+03	5.006849E-16	2.434711E-17
4.489841E+03	5.131242E-16	2.480881E-17
4.499796E+03	5.262989E-16	2.529948E-17
4.509751E+03	5.401391E-16	2.581521E-17
4.519707E+03	5.545458E-16	2.635081E-17
4.529662E+03	5.693992E-16	2.690023E-17
4.539617E+03	5.845467E-16	2.745601E-17
4.549572E+03	5.998173E-16	2.801000E-17
4.559528E+03	6.150078E-16	2.855274E-17
4.569483E+03	6.299114E-16	2.907485E-17
4.579438E+03	6.442890E-16	2.956566E-17
4.589394E+03	6.579233E-16	3.001578E-17
4.599349E+03	6.705648E-16	3.041456E-17
4.609304E+03	6.820094E-16	3.075369E-17
4.619260E+03	6.920442E-16	3.102464E-17
4.629215E+03	7.005061E-16	3.122134E-17
4.639170E+03	7.072431E-16	3.133835E-17
4.649125E+03	7.121702E-16	3.137333E-17
4.659081E+03	7.152366E-16	3.132552E-17
4.669036E+03	7.164344E-16	3.119605E-17
4.678991E+03	7.158147E-16	3.098860E-17
4.688947E+03	7.134723E-16	3.070864E-17
4.698902E+03	7.095431E-16	3.036331E-17
4.708857E+03	7.042207E-16	2.996206E-17
4.718813E+03	6.977149E-16	2.951476E-17
4.728768E+03	6.902913E-16	2.903348E-17
4.738723E+03	6.822101E-16	2.852973E-17
4.748678E+03	6.737665E-16	2.801626E-17
4.758634E+03	6.652489E-16	2.750521E-17
4.768589E+03	6.569236E-16	2.700758E-17
4.778544E+03	6.490453E-16	2.653361E-17
4.788500E+03	6.418385E-16	2.609210E-17
4.798455E+03	6.355066E-16	2.569080E-17
4.808410E+03	6.302178E-16	2.533584E-17
4.818366E+03	6.261214E-16	2.503250E-17
4.828321E+03	6.233305E-16	2.478447E-17
4.838276E+03	6.219368E-16	2.459455E-17
4.848231E+03	6.219758E-16	2.446320E-17
4.858187E+03	6.234746E-16	2.439052E-17
4.868142E+03	6.263961E-16	2.437414E-17
4.878097E+03	6.306873E-16	2.441109E-17
4.888053E+03	6.362412E-16	2.449641E-17
4.898008E+03	6.429267E-16	2.462431E-17
4.907963E+03	6.505524E-16	2.478682E-17
4.917919E+03	6.589180E-16	2.497581E-17
4.927874E+03	6.677551E-16	2.518073E-17
4.937829E+03	6.768051E-16	2.539162E-17
4.947784E+03	6.857665E-16	2.559714E-17
4.957740E+03	6.943488E-16	2.578656E-17
4.967695E+03	7.022504E-16	2.594897E-17
4.977650E+03	7.092269E-16	2.607576E-17
4.987606E+03	7.150648E-16	2.615964E-17
4.997561E+03	7.196022E-16	2.619534E-17
5.007516E+03	7.227599E-16	2.618068E-17
5.017472E+03	7.245199E-16	2.611574E-17
5.027427E+03	7.249487E-16	2.600360E-17
5.037382E+03	7.241723E-16	2.584945E-17
5.047337E+03	7.223688E-16	2.566020E-17
5.057293E+03	7.197507E-16	2.544385E-17
5.067248E+03	7.165677E-16	2.520956E-17
5.077203E+03	7.130718E-16	2.496639E-17
5.087159E+03	7.095072E-16	2.472296E-17
5.097114E+03	7.061189E-16	2.448776E-17
5.107069E+03	7.031145E-16	2.426782E-17
5.117025E+03	7.007105E-16	2.407036E-17
5.126980E+03	6.990600E-16	2.390025E-17
5.136935E+03	6.983245E-16	2.376262E-17
5.146890E+03	6.986206E-16	2.366093E-17
5.156846E+03	7.000409E-16	2.359778E-17
5.166801E+03	7.026775E-16	2.357571E-17
5.176756E+03	7.065714E-16	2.359549E-17
5.186712E+03	7.117545E-16	2.365759E-17
5.196667E+03	7.182411E-16	2.376185E-17
5.206622E+03	7.260082E-16	2.390693E-17
5.216578E+03	7.350100E-16	2.409072E-17
5.226533E+03	7.451748E-16	2.431031E-17
5.236488E+03	7.563985E-16	2.456182E-17
5.246443E+03	7.685416E-16	2.484024E-17
5.256399E+03	7.814496E-16	2.514022E-17
5.266354E+03	7.949264E-16	2.545513E-17
5.276309E+03	8.087605E-16	2.577800E-17
5.286265E+03	8.227163E-16	2.610122E-17
5.296220E+03	8.365644E-16	2.641749E-17
5.306175E+03	8.500682E-16	2.671945E-17
5.316131E+03	8.629842E-16	2.699966E-17
5.326086E+03	8.751131E-16	2.725217E-17
5.336041E+03	8.862776E-16	2.747185E-17
5.345996E+03	8.963291E-16	2.765456E-17
5.355952E+03	9.051792E-16	2.779807E-17
5.365907E+03	9.127575E-16	2.790076E-17
5.375862E+03	9.190674E-16	2.796329E-17
5.385818E+03	9.241328E-16	2.798694E-17
5.395773E+03	9.280289E-16	2.797451E-17
5.405728E+03	9.308258E-16	2.792862E-17
5.415684E+03	9.326399E-16	2.785320E-17
5.425639E+03	9.335444E-16	2.775086E-17
5.435594E+03	9.336220E-16	2.762443E-17
5.445549E+03	9.329054E-16	2.747523E-17
5.455505E+03	9.313901E-16	2.730346E-17
5.465460E+03	9.290074E-16	2.710746E-17
5.475415E+03	9.256259E-16	2.688377E-17
5.485371E+03	9.210471E-16	2.662706E-17
5.495326E+03	9.150047E-16	2.633016E-17
5.505281E+03	9.072618E-16	2.598684E-17
5.515237E+03	8.976034E-16	2.559158E-17
5.525192E+03	8.858789E-16	2.514079E-17
5.535147E+03	8.720251E-16	2.463343E-17
5.545102E+03	8.560927E-16	2.407170E-17
5.555058E+03	8.382278E-16	2.346042E-17
5.565013E+03	8.186903E-16	2.280753E-17
5.574968E+03	7.978734E-16	2.212451E-17
5.584924E+03	7.762014E-16	2.142352E-17
5.594879E+03	7.542031E-16	2.071935E-17
5.604834E+03	7.323959E-16	2.002623E-17
5.614790E+03	7.113169E-16	1.935866E-17
5.624745E+03	6.914897E-16	1.873051E-17
5.634700E+03	6.733939E-16	1.815419E-17
5.644655E+03	6.574636E-16	1.764067E-17
5.654611E+03	6.440791E-16	1.719923E-17
5.664566E+03	6.335695E-16	1.683764E-17
5.674521E+03	6.262164E-16	1.656222E-17
5.684477E+03	6.222591E-16	1.637805E-17
5.694432E+03	6.219009E-16	1.628914E-17
5.704387E+03	6.253228E-16	1.629883E-17
5.714343E+03	6.326715E-16	1.640946E-17
5.724298E+03	6.440628E-16	1.662251E-17
5.734253E+03	6.595871E-16	1.693874E-17
5.744209E+03	6.793142E-16	1.735836E-17
5.754164E+03	7.032347E-16	1.787950E-17
5.764119E+03	7.313069E-16	1.849951E-17
5.774074E+03	7.633785E-16	1.921295E-17
5.784030E+03	7.992325E-16	2.001288E-17
5.793985E+03	8.385142E-16	2.088902E-17
5.803940E+03	8.807642E-16	2.182868E-17
5.813896E+03	9.253820E-16	2.281596E-17
5.823851E+03	9.716308E-16	2.383191E-17
5.833806E+03	1.018675E-15	2.485556E-17
5.843762E+03	1.065586E-15	2.586417E-17
5.853717E+03	1.111339E-15	2.683309E-17
5.863672E+03	1.154946E-15	2.773914E-17
5.873627E+03	1.195387E-15	2.855888E-17
5.883583E+03	1.231745E-15	2.927182E-17
5.893538E+03	1.263259E-15	2.986170E-17
5.903493E+03	1.289302E-15	3.031569E-17
5.913449E+03	1.309463E-15	3.062642E-17
5.923404E+03	1.323567E-15	3.079216E-17
5.933359E+03	1.331631E-15	3.081568E-17
5.943315E+03	1.333909E-15	3.070523E-17
5.953270E+03	1.330835E-15	3.047298E-17
5.963225E+03	1.322938E-15	3.013310E-17
5.973180E+03	1.310909E-15	2.970307E-17
5.983136E+03	1.295453E-15	2.920036E-17
5.993091E+03	1.277333E-15	2.864341E-17
6.003046E+03	1.257222E-15	2.804823E-17
6.013002E+03	1.235838E-15	2.743149E-17
6.022957E+03	1.213774E-15	2.680679E-17
6.032912E+03	1.191560E-15	2.618603E-17
6.042868E+03	1.169640E-15	2.557906E-17
6.052823E+03	1.148377E-15	2.499366E-17
6.062778E+03	1.128063E-15	2.443601E-17
6.072733E+03	1.108899E-15	2.391016E-17
6.082689E+03	1.091033E-15	2.341897E-17
6.092644E+03	1.074522E-15	2.296333E-17
6.102599E+03	1.059413E-15	2.254389E-17
6.112555E+03	1.045708E-15	2.216034E-17
6.122510E+03	1.033358E-15	2.181130E-17
6.132465E+03	1.022323E-15	2.149568E-17
6.142421E+03	1.012526E-15	2.121162E-17
6.152376E+03	1.003801E-15	2.095537E-17
6.162331E+03	9.959953E-16	2.072366E-17
6.172286E+03	9.889343E-16	2.051273E-17
6.182242E+03	9.824603E-16	2.031927E-17
6.192197E+03	9.764327E-16	2.014035E-17
6.202152E+03	9.707668E-16	1.997425E-17
6.212108E+03	9.653572E-16	1.981884E-17
6.222063E+03	9.601563E-16	1.967313E-17
6.232018E+03	9.551092E-16	1.953590E-17
6.241974E+03	9.502077E-16	1.940688E-17
6.251929E+03	9.454448E-16	1.928581E-17
6.261884E+03	9.408510E-16	1.917321E-17
6.271839E+03	9.364774E-16	1.907003E-17
6.281795E+03	9.324012E-16	1.897773E-17
6.291750E+03	9.286922E-16	1.889764E-17
6.301705E+03	9.254129E-16	1.883093E-17
6.311661E+03	9.226447E-16	1.877920E-17
6.321616E+03	9.204497E-16	1.874362E-17
6.331571E+03	9.188807E-16	1.872525E-17
6.341527E+03	9.179770E-16	1.872483E-17
6.351482E+03	9.177754E-16	1.874312E-17
6.361437E+03	9.182746E-16	1.878011E-17
6.371392E+03	9.194681E-16	1.883567E-17
6.381348E+03	9.213378E-16	1.890950E-17
6.391303E+03	9.238627E-16	1.900123E-17
6.401258E+03	9.269737E-16	1.910949E-17
6.411214E+03	9.306291E-16	1.923353E-17
6.421169E+03	9.347678E-16	1.937216E-17
6.431124E+03	9.393236E-16	1.952409E-17
6.441080E+03	9.442014E-16	1.968743E-17
6.451035E+03	9.493595E-16	1.986137E-17
6.460990E+03	9.547078E-16	2.004394E-17
6.470945E+03	9.601907E-16	2.023388E-17
6.480901E+03	9.657805E-16	2.043047E-17
6.490856E+03	9.714260E-16	2.063251E-17
6.500811E+03	9.771440E-16	2.084021E-17
6.510767E+03	9.829990E-16	2.105481E-17
6.520722E+03	9.890946E-16	2.127842E-17
6.530677E+03	9.955983E-16	2.151458E-17
6.540633E+03	1.002601E-15	2.176521E-17
6.550588E+03	1.010212E-15	2.203266E-17
6.560543E+03	1.018424E-15	2.231684E-17
6.570498E+03	1.027209E-15	2.261715E-17
6.580454E+03	1.036456E-15	2.293114E-17
6.590409E+03	1.045984E-15	2.325480E-17
6.600364E+03	1.055554E-15	2.358271E-17
6.610320E+03	1.064863E-15	2.390792E-17
6.620275E+03	1.073609E-15	2.422337E-17
6.630230E+03	1.081474E-15	2.452150E-17
6.640186E+03	1.088095E-15	2.479359E-17
6.650141E+03	1.093182E-15	2.503239E-17
6.660096E+03	1.096466E-15	2.523102E-17
6.670051E+03	1.097731E-15	2.538371E-17
6.680007E+03	1.096841E-15	2.548649E-17
6.689962E+03	1.093686E-15	2.553587E-17
6.699917E+03	1.088295E-15	2.553162E-17
6.709873E+03	1.080721E-15	2.547411E-17
6.719828E+03	1.071122E-15	2.536624E-17
6.729783E+03	1.059689E-15	2.521173E-17
6.739739E+03	1.046679E-15	2.501607E-17
6.749694E+03	1.032414E-15	2.478633E-17
6.759649E+03	1.017225E-15	2.453009E-17
6.769604E+03	1.001453E-15	2.425517E-17
6.779560E+03	9.854719E-16	2.397052E-17
6.789515E+03	9.696268E-16	2.368442E-17
6.799470E+03	9.542965E-16	2.340621E-17
6.809426E+03	9.397766E-16	2.314330E-17
6.819381E+03	9.263849E-16	2.290377E-17
6.829336E+03	9.143765E-16	2.269428E-17
6.839292E+03	9.040180E-16	2.252188E-17
6.849247E+03	8.954935E-16	2.239160E-17
6.859202E+03	8.889476E-16	2.230758E-17
6.869157E+03	8.845300E-16	2.227408E-17
6.879113E+03	8.822873E-16	2.229282E-17
6.889068E+03	8.822811E-16	2.236588E-17
6.899023E+03	8.844691E-16	2.249267E-17
6.908979E+03	8.888185E-16	2.267284E-17
6.918934E+03	8.952017E-16	2.290353E-17
6.928889E+03	9.034391E-16	2.318052E-17
6.938845E+03	9.133598E-16	2.349972E-17
6.948800E+03	9.246486E-16	2.385322E-17
6.958755E+03	9.370064E-16	2.423344E-17
6.968710E+03	9.500933E-16	2.463166E-17
6.978666E+03	9.634936E-16	2.503707E-17
6.988621E+03	9.768406E-16	2.544003E-17
6.998576E+03	9.897214E-16	2.582962E-17
7.008532E+03	1.001775E-15	2.619619E-17
7.018487E+03	1.012644E-15	2.653012E-17
7.028442E+03	1.022041E-15	2.682358E-17
7.038398E+03	1.029747E-15	2.707051E-17
7.048353E+03	1.035618E-15	2.726680E-17
7.058308E+03	1.039611E-15	2.741105E-17
7.068263E+03	1.041744E-15	2.750345E-17
7.078219E+03	1.042087E-15	2.754567E-17
7.088174E+03	1.040796E-15	2.754165E-17
7.098129E+03	1.038075E-15	2.749660E-17
7.108085E+03	1.034199E-15	2.741779E-17
7.118040E+03	1.029365E-15	2.731037E-17
7.127995E+03	1.023869E-15	2.718222E-17
7.137951E+03	1.017957E-15	2.703984E-17
7.147906E+03	1.011851E-15	2.688922E-17
7.157861E+03	1.005726E-15	2.673505E-17
7.167817E+03	9.997575E-16	2.658206E-17
7.177772E+03	9.940642E-16	2.643349E-17
7.187727E+03	9.887255E-16	2.629151E-17
7.197682E+03	9.837639E-16	2.615679E-17
7.207638E+03	9.792247E-16	2.603060E-17
7.217593E+03	9.750650E-16	2.591185E-17
7.227548E+03	9.712571E-16	2.579987E-17
7.237504E+03	9.677130E-16	2.569236E-17
7.247459E+03	9.643507E-16	2.558721E-17
7.257414E+03	9.611195E-16	2.548312E-17
7.267370E+03	9.578885E-16	2.537668E-17
7.277325E+03	9.546078E-16	2.526664E-17
7.287280E+03	9.511758E-16	2.515038E-17
7.297235E+03	9.475405E-16	2.502662E-17
7.307191E+03	9.436632E-16	2.489443E-17
7.317146E+03	9.394803E-16	2.475223E-17
7.327101E+03	9.350025E-16	2.460042E-17
7.337057E+03	9.301935E-16	2.443817E-17
7.347012E+03	9.250685E-16	2.426600E-17
7.356967E+03	9.196526E-16	2.408471E-17
7.366923E+03	9.139564E-16	2.389470E-17
7.376878E+03	9.080155E-16	2.369704E-17
7.386833E+03	9.018473E-16	2.349233E-17
7.396788E+03	8.954888E-16	2.328166E-17
7.406744E+03	8.889180E-16	2.306460E-17
7.416699E+03	8.821516E-16	2.284172E-17
7.426654E+03	8.752050E-16	2.261357E-17
7.436610E+03	8.680779E-16	2.238028E-17
7.446565E+03	8.607694E-16	2.214196E-17
7.456520E+03	8.532848E-16	2.189891E-17
7.466476E+03	8.456523E-16	2.165198E-17
7.476431E+03	8.379071E-16	2.140222E-17
7.486386E+03	8.300913E-16	2.115080E-17
7.496341E+03	8.222188E-16	2.089816E-17
7.506297E+03	8.143642E-16	2.064630E-17
7.516252E+03	8.065918E-16	2.039692E-17
7.526207E+03	7.989510E-16	2.015132E-17
7.536163E+03	7.915138E-16	1.991139E-17
7.546118E+03	7.843516E-16	1.967895E-17
7.556073E+03	7.775543E-16	1.945628E-17
7.566029E+03	7.711575E-16	1.924428E-17
7.575984E+03	7.652474E-16	1.904510E-17
7.585939E+03	7.598767E-16	1.886004E-17
7.595894E+03	7.551555E-16	1.869179E-17
7.605850E+03	7.511220E-16	1.854124E-17
7.615805E+03	7.478542E-16	1.841028E-17
7.625760E+03	7.453799E-16	1.829952E-17
7.635716E+03	7.437425E-16	1.820996E-17
7.645671E+03	7.429481E-16	1.814167E-17
7.655626E+03	7.429808E-16	1.809421E-17
7.665582E+03	7.437863E-16	1.806619E-17
7.675537E+03	7.453251E-16	1.805663E-17
7.685492E+03	7.475200E-16	1.806365E-17
7.695447E+03	7.502785E-16	1.808501E-17
7.705403E+03	7.534945E-16	1.811820E-17
7.715358E+03	7.570329E-16	1.816003E-17
7.725313E+03	7.608063E-16	1.820851E-17
