#wls	flux	fluxerr
1.592848E+03	2.985453E-17	1.537474E-18
1.632669E+03	3.066715E-17	1.571044E-18
1.672491E+03	3.134150E-17	1.596932E-18
1.712312E+03	3.185026E-17	1.613852E-18
1.752133E+03	3.217824E-17	1.621167E-18
1.791954E+03	3.228453E-17	1.616973E-18
1.831775E+03	3.210624E-17	1.598332E-18
1.871597E+03	3.160000E-17	1.563356E-18
1.911418E+03	3.070198E-17	1.509218E-18
1.951239E+03	2.940626E-17	1.436016E-18
1.991060E+03	2.777242E-17	1.347052E-18
2.030881E+03	2.599268E-17	1.251949E-18
2.070703E+03	2.437851E-17	1.165787E-18
2.110524E+03	2.331789E-17	1.106844E-18
2.150345E+03	2.313279E-17	1.089724E-18
2.190166E+03	2.394167E-17	1.119018E-18
2.229987E+03	2.567256E-17	1.190270E-18
2.269809E+03	2.808686E-17	1.291428E-18
2.309630E+03	3.090593E-17	1.408940E-18
2.349451E+03	3.388820E-17	1.531345E-18
2.389272E+03	3.684390E-17	1.649871E-18
2.429093E+03	3.967359E-17	1.760062E-18
2.468915E+03	4.229965E-17	1.858593E-18
2.508736E+03	4.470840E-17	1.945056E-18
2.548557E+03	4.687920E-17	2.018779E-18
2.588378E+03	4.882101E-17	2.080401E-18
2.628199E+03	5.054766E-17	2.130759E-18
2.668021E+03	5.205320E-17	2.169853E-18
2.707842E+03	5.335350E-17	2.198604E-18
2.747663E+03	5.445035E-17	2.217341E-18
2.787484E+03	5.536054E-17	2.227003E-18
2.827305E+03	5.608732E-17	2.227970E-18
2.867127E+03	5.663564E-17	2.220690E-18
2.906948E+03	5.701270E-17	2.205702E-18
2.946769E+03	5.724191E-17	2.184155E-18
2.986590E+03	5.736171E-17	2.157723E-18
2.996546E+03	5.737513E-17	2.150394E-18
3.006501E+03	5.737997E-17	2.142707E-18
3.016456E+03	5.738316E-17	2.134925E-18
3.026411E+03	5.738602E-17	2.127098E-18
3.036367E+03	5.739305E-17	2.119390E-18
3.046322E+03	5.740182E-17	2.111712E-18
3.056277E+03	5.742023E-17	2.104353E-18
3.066233E+03	5.744055E-17	2.097025E-18
3.076188E+03	5.747432E-17	2.090148E-18
3.086143E+03	5.750791E-17	2.083222E-18
3.096099E+03	5.755291E-17	2.076666E-18
3.106054E+03	5.759622E-17	2.070003E-18
3.116009E+03	5.764952E-17	2.063654E-18
3.125964E+03	5.770000E-17	2.057155E-18
3.135920E+03	5.775948E-17	2.050929E-18
3.145875E+03	5.782749E-17	2.044956E-18
3.155830E+03	5.789181E-17	2.038800E-18
3.165786E+03	5.796419E-17	2.032875E-18
3.175741E+03	5.804447E-17	2.027172E-18
3.185696E+03	5.812660E-17	2.021478E-18
3.195652E+03	5.821654E-17	2.015998E-18
3.205607E+03	5.831420E-17	2.010725E-18
3.215562E+03	5.841964E-17	2.005657E-18
3.225517E+03	5.853288E-17	2.000793E-18
3.235473E+03	5.865978E-17	1.996327E-18
3.245428E+03	5.878899E-17	1.991869E-18
3.255383E+03	5.893204E-17	1.987806E-18
3.265339E+03	5.908904E-17	1.984137E-18
3.275294E+03	5.926010E-17	1.980857E-18
3.285249E+03	5.944529E-17	1.977963E-18
3.295205E+03	5.963924E-17	1.975271E-18
3.305160E+03	5.985315E-17	1.973145E-18
3.315115E+03	6.008706E-17	1.971577E-18
3.325070E+03	6.033559E-17	1.970382E-18
3.335026E+03	6.060427E-17	1.969733E-18
3.344981E+03	6.089844E-17	1.969793E-18
3.354936E+03	6.120743E-17	1.970206E-18
3.364892E+03	6.154189E-17	1.971305E-18
3.374847E+03	6.190177E-17	1.973078E-18
3.384802E+03	6.228692E-17	1.975507E-18
3.394758E+03	6.269720E-17	1.978574E-18
3.404713E+03	6.313762E-17	1.982426E-18
3.414668E+03	6.360273E-17	1.986876E-18
3.424623E+03	7.342707E-17	2.282018E-18
3.426615E+03	7.493049E-17	2.326338E-18
3.428606E+03	7.583291E-17	2.351920E-18
3.430597E+03	7.732481E-17	2.395707E-18
3.432588E+03	7.961235E-17	2.464021E-18
3.434579E+03	8.119218E-17	2.510305E-18
3.436570E+03	8.374753E-17	2.586616E-18
3.438561E+03	8.792205E-17	2.712718E-18
3.440552E+03	8.943437E-17	2.756496E-18
3.442543E+03	9.131779E-17	2.811601E-18
3.444534E+03	9.361899E-17	2.879433E-18
3.446525E+03	9.607188E-17	2.951774E-18
3.448516E+03	9.848758E-17	3.022814E-18
3.450507E+03	1.000158E-16	3.066486E-18
3.452498E+03	1.009774E-16	3.092700E-18
3.454489E+03	1.020341E-16	3.121762E-18
3.456480E+03	1.046343E-16	3.197930E-18
3.458471E+03	1.061851E-16	3.241884E-18
3.460463E+03	1.074810E-16	3.277963E-18
3.462454E+03	1.077825E-16	3.283663E-18
3.464445E+03	1.084349E-16	3.300018E-18
3.466436E+03	1.090780E-16	3.316047E-18
3.468427E+03	1.099016E-16	3.337514E-18
3.470418E+03	1.105075E-16	3.352318E-18
3.472409E+03	1.108097E-16	3.357882E-18
3.474400E+03	1.114064E-16	3.372337E-18
3.476391E+03	1.108541E-16	3.352005E-18
3.478382E+03	1.116314E-16	3.371871E-18
3.480373E+03	1.130839E-16	3.412056E-18
3.482364E+03	1.123600E-16	3.386546E-18
3.484355E+03	1.128718E-16	3.398286E-18
3.486346E+03	1.125085E-16	3.383674E-18
3.488337E+03	1.123733E-16	3.375934E-18
3.490328E+03	1.117905E-16	3.354767E-18
3.492319E+03	1.099406E-16	3.295654E-18
3.494311E+03	1.094135E-16	3.276270E-18
3.496302E+03	1.093719E-16	3.271440E-18
3.498293E+03	1.083674E-16	3.237841E-18
3.500284E+03	1.077341E-16	3.215384E-18
3.502275E+03	1.075294E-16	3.205745E-18
3.504266E+03	1.064085E-16	3.168835E-18
3.506257E+03	1.044471E-16	3.106990E-18
3.508248E+03	1.028566E-16	3.056295E-18
3.510239E+03	1.012077E-16	3.003970E-18
3.512230E+03	9.888896E-17	2.931893E-18
3.514221E+03	9.698918E-17	2.872373E-18
3.516212E+03	9.555462E-17	2.826739E-18
3.518203E+03	9.413913E-17	2.781761E-18
3.520194E+03	9.309863E-17	2.747943E-18
3.522185E+03	9.100306E-17	2.683085E-18
3.524176E+03	9.048904E-17	2.664941E-18
3.526168E+03	8.907091E-17	2.620233E-18
3.528159E+03	8.852904E-17	2.601366E-18
3.530150E+03	8.713425E-17	2.557498E-18
3.532141E+03	8.740100E-17	2.562434E-18
3.534132E+03	8.720102E-17	2.553683E-18
3.536123E+03	8.782351E-17	2.569002E-18
3.538114E+03	8.781335E-17	2.565794E-18
3.540105E+03	8.816954E-17	2.573276E-18
3.542096E+03	8.771888E-17	2.557212E-18
3.544087E+03	8.688392E-17	2.529985E-18
3.546078E+03	8.658898E-17	2.518520E-18
3.548069E+03	8.543519E-17	2.482120E-18
3.550060E+03	8.462745E-17	2.455839E-18
3.552051E+03	8.496092E-17	2.462688E-18
3.554042E+03	8.578961E-17	2.483852E-18
3.556033E+03	8.655524E-17	2.503135E-18
3.558024E+03	8.646333E-17	2.497595E-18
3.560016E+03	8.637417E-17	2.492139E-18
3.562007E+03	8.694994E-17	2.505850E-18
3.563998E+03	8.655850E-17	2.491679E-18
3.565989E+03	8.691406E-17	2.499011E-18
3.567980E+03	8.703383E-17	2.499546E-18
3.569971E+03	8.760164E-17	2.512923E-18
3.571962E+03	8.854660E-17	2.537068E-18
3.573953E+03	8.928771E-17	2.555314E-18
3.575944E+03	8.933195E-17	2.553588E-18
3.577935E+03	8.973210E-17	2.562020E-18
3.579926E+03	9.020582E-17	2.572521E-18
3.581917E+03	9.010546E-17	2.566637E-18
3.583908E+03	9.057467E-17	2.576963E-18
3.585899E+03	9.108565E-17	2.588443E-18
3.587890E+03	9.155633E-17	2.598743E-18
3.589881E+03	9.253363E-17	2.623372E-18
3.591872E+03	9.377724E-17	2.655476E-18
3.593864E+03	9.452845E-17	2.673568E-18
3.595855E+03	9.611769E-17	2.715281E-18
3.597846E+03	9.749202E-17	2.750822E-18
3.599837E+03	9.832326E-17	2.770964E-18
3.601828E+03	9.969709E-17	2.806320E-18
3.603819E+03	1.011007E-16	2.842419E-18
3.605810E+03	1.022145E-16	2.870285E-18
3.607801E+03	1.025926E-16	2.877440E-18
3.609792E+03	1.035815E-16	2.901676E-18
3.611783E+03	1.037857E-16	2.903891E-18
3.613774E+03	1.046203E-16	2.923705E-18
3.615765E+03	1.051935E-16	2.936165E-18
3.617756E+03	1.055244E-16	2.941831E-18
3.619747E+03	1.055644E-16	2.939371E-18
3.621738E+03	1.052063E-16	2.925838E-18
3.623729E+03	1.060328E-16	2.945228E-18
3.625721E+03	1.062671E-16	2.948135E-18
3.627712E+03	1.064919E-16	2.950759E-18
3.629703E+03	1.069404E-16	2.959556E-18
3.631694E+03	1.078558E-16	2.981228E-18
3.633685E+03	1.086160E-16	2.998553E-18
3.635676E+03	1.091822E-16	3.010474E-18
3.637667E+03	1.095541E-16	3.017004E-18
3.639658E+03	1.093520E-16	3.007717E-18
3.641649E+03	1.100357E-16	3.022778E-18
3.643640E+03	1.100771E-16	3.020168E-18
3.645631E+03	1.093976E-16	2.997798E-18
3.647622E+03	1.094973E-16	2.996799E-18
3.649613E+03	1.089635E-16	2.978474E-18
3.651604E+03	1.091703E-16	2.980406E-18
3.653595E+03	1.097382E-16	2.992165E-18
3.655586E+03	1.098772E-16	2.992203E-18
3.657577E+03	1.100065E-16	2.991967E-18
3.659569E+03	1.095600E-16	2.976080E-18
3.661560E+03	1.091913E-16	2.962333E-18
3.663551E+03	1.088127E-16	2.948340E-18
3.665542E+03	1.085120E-16	2.936482E-18
3.667533E+03	1.083773E-16	2.929128E-18
3.669524E+03	1.080861E-16	2.917557E-18
3.671515E+03	1.078926E-16	2.908638E-18
3.673506E+03	1.074936E-16	2.894197E-18
3.675497E+03	1.061943E-16	2.855573E-18
3.677488E+03	1.060294E-16	2.847504E-18
3.679479E+03	1.051793E-16	2.821064E-18
3.681470E+03	1.032809E-16	2.766600E-18
3.683461E+03	1.023021E-16	2.736870E-18
3.685452E+03	1.008133E-16	2.693576E-18
3.687443E+03	9.889245E-17	2.638855E-18
3.689434E+03	9.722242E-17	2.590949E-18
3.691425E+03	9.496893E-17	2.527627E-18
3.693417E+03	9.300547E-17	2.472169E-18
3.695408E+03	9.064642E-17	2.406343E-18
3.697399E+03	8.858635E-17	2.348605E-18
3.699390E+03	8.634544E-17	2.286219E-18
3.701381E+03	8.383803E-17	2.216939E-18
3.703372E+03	8.108853E-17	2.141438E-18
3.705363E+03	7.839635E-17	2.067637E-18
3.707354E+03	7.624029E-17	2.008142E-18
3.709345E+03	7.438290E-17	1.956652E-18
3.711336E+03	7.235032E-17	1.900686E-18
3.713327E+03	7.054381E-17	1.850791E-18
3.715318E+03	6.892722E-17	1.805996E-18
3.717309E+03	6.657133E-17	1.741967E-18
3.719300E+03	6.485515E-17	1.694817E-18
3.721291E+03	6.257939E-17	1.633181E-18
3.723282E+03	6.150743E-17	1.603077E-18
3.725274E+03	6.004154E-17	1.562792E-18
3.727265E+03	5.907762E-17	1.535657E-18
3.729256E+03	5.816146E-17	1.509827E-18
3.731247E+03	5.775289E-17	1.497219E-18
3.733238E+03	5.662167E-17	1.465930E-18
3.735229E+03	5.639800E-17	1.458183E-18
3.737220E+03	5.505839E-17	1.421636E-18
3.739211E+03	5.388888E-17	1.389569E-18
3.741202E+03	5.268706E-17	1.356749E-18
3.743193E+03	5.152308E-17	1.324986E-18
3.745184E+03	5.057986E-17	1.298972E-18
3.747175E+03	4.902292E-17	1.257284E-18
3.749166E+03	4.901424E-17	1.255357E-18
3.751157E+03	4.871563E-17	1.246014E-18
3.753148E+03	4.799910E-17	1.226018E-18
3.755139E+03	4.703963E-17	1.199873E-18
3.757130E+03	4.624891E-17	1.178094E-18
3.759122E+03	4.580253E-17	1.165128E-18
3.761113E+03	4.515867E-17	1.147176E-18
3.763104E+03	4.484556E-17	1.137659E-18
3.765095E+03	4.455209E-17	1.128661E-18
3.767086E+03	4.398271E-17	1.112703E-18
3.769077E+03	4.340602E-17	1.096600E-18
3.771068E+03	4.325983E-17	1.091397E-18
3.773059E+03	4.335980E-17	1.092405E-18
3.775050E+03	4.248049E-17	1.068769E-18
3.777041E+03	4.232196E-17	1.063302E-18
3.779032E+03	4.217734E-17	1.058195E-18
3.781023E+03	4.227119E-17	1.059073E-18
3.783014E+03	4.230251E-17	1.058379E-18
3.785005E+03	4.123753E-17	1.030292E-18
3.786996E+03	4.111333E-17	1.025751E-18
3.788987E+03	4.134546E-17	1.030095E-18
3.790979E+03	4.234847E-17	1.053603E-18
3.792970E+03	4.265388E-17	1.059708E-18
3.794961E+03	4.347068E-17	1.078478E-18
3.796952E+03	4.368996E-17	1.082388E-18
3.798943E+03	4.445581E-17	1.099804E-18
3.800934E+03	4.528901E-17	1.118830E-18
3.802925E+03	4.561196E-17	1.125209E-18
3.804916E+03	4.597305E-17	1.132505E-18
3.806907E+03	4.621358E-17	1.136809E-18
3.808898E+03	4.695366E-17	1.153367E-18
3.810889E+03	4.749646E-17	1.165033E-18
3.812880E+03	4.783974E-17	1.171774E-18
3.814871E+03	4.802533E-17	1.174634E-18
3.816862E+03	4.865006E-17	1.188205E-18
3.818853E+03	4.897216E-17	1.194352E-18
3.820844E+03	4.889824E-17	1.190831E-18
3.822835E+03	4.892839E-17	1.189845E-18
3.824827E+03	4.861812E-17	1.180591E-18
3.826818E+03	4.829767E-17	1.171111E-18
3.828809E+03	4.830271E-17	1.169535E-18
3.830800E+03	4.833681E-17	1.168660E-18
3.832791E+03	4.795689E-17	1.157787E-18
3.834782E+03	4.699000E-17	1.132790E-18
3.836773E+03	4.630544E-17	1.114657E-18
3.838764E+03	4.630793E-17	1.113086E-18
3.840755E+03	4.632148E-17	1.111781E-18
3.842746E+03	4.681513E-17	1.121980E-18
3.844737E+03	4.730712E-17	1.132104E-18
3.846728E+03	4.868992E-17	1.163480E-18
3.848719E+03	4.955692E-17	1.182451E-18
3.850710E+03	5.162634E-17	1.230008E-18
3.852701E+03	5.345675E-17	1.271733E-18
3.854692E+03	5.550075E-17	1.318402E-18
3.856683E+03	5.824588E-17	1.381557E-18
3.858675E+03	6.122954E-17	1.450167E-18
3.860666E+03	6.452761E-17	1.526001E-18
3.862657E+03	6.777958E-17	1.600514E-18
3.864648E+03	7.188263E-17	1.694864E-18
3.866639E+03	7.595831E-17	1.788279E-18
3.868630E+03	8.054631E-17	1.893449E-18
3.870621E+03	8.485698E-17	1.991786E-18
3.872612E+03	8.993687E-17	2.107845E-18
3.874603E+03	9.481032E-17	2.218713E-18
3.876594E+03	9.950739E-17	2.325116E-18
3.878585E+03	1.040552E-16	2.427703E-18
3.880576E+03	1.095706E-16	2.552510E-18
3.882567E+03	1.153833E-16	2.683839E-18
3.884558E+03	1.207549E-16	2.804514E-18
3.886549E+03	1.264948E-16	2.933348E-18
3.888540E+03	1.317224E-16	3.049915E-18
3.890532E+03	1.366804E-16	3.159878E-18
3.892523E+03	1.425436E-16	3.290384E-18
3.894514E+03	1.477726E-16	3.405857E-18
3.896505E+03	1.533906E-16	3.529912E-18
3.898496E+03	1.586476E-16	3.645273E-18
3.900487E+03	1.638273E-16	3.758488E-18
3.902478E+03	1.687773E-16	3.866077E-18
3.904469E+03	1.739442E-16	3.978272E-18
3.906460E+03	1.796532E-16	4.102480E-18
3.908451E+03	1.849091E-16	4.215954E-18
3.910442E+03	1.890409E-16	4.303463E-18
3.912433E+03	1.933791E-16	4.395371E-18
3.914424E+03	1.976087E-16	4.484505E-18
3.916415E+03	2.016176E-16	4.568338E-18
3.918406E+03	2.055379E-16	4.649884E-18
3.920397E+03	2.093085E-16	4.727768E-18
3.922388E+03	2.131735E-16	4.807516E-18
3.924380E+03	2.163996E-16	4.872602E-18
3.926371E+03	2.196792E-16	4.938660E-18
3.928362E+03	2.221965E-16	4.987376E-18
3.930353E+03	2.245833E-16	5.032987E-18
3.932344E+03	2.267780E-16	5.074131E-18
3.934335E+03	2.284437E-16	5.103301E-18
3.936326E+03	2.303047E-16	5.136709E-18
3.938317E+03	2.322591E-16	5.172066E-18
3.940308E+03	2.338167E-16	5.198457E-18
3.942299E+03	2.346189E-16	5.207975E-18
3.944290E+03	2.350845E-16	5.209971E-18
3.946281E+03	2.353561E-16	5.207644E-18
3.948272E+03	2.357918E-16	5.208922E-18
3.950263E+03	2.359516E-16	5.204082E-18
3.952254E+03	2.359579E-16	5.195852E-18
3.954245E+03	2.356160E-16	5.179966E-18
3.956236E+03	2.352432E-16	5.163426E-18
3.958228E+03	2.349113E-16	5.147809E-18
3.960219E+03	2.346100E-16	5.132884E-18
3.962210E+03	2.345343E-16	5.122909E-18
3.964201E+03	2.342740E-16	5.108912E-18
3.966192E+03	2.341265E-16	5.097391E-18
3.968183E+03	2.341948E-16	5.090569E-18
3.970174E+03	2.336671E-16	5.070811E-18
3.972165E+03	2.333448E-16	5.055540E-18
3.974156E+03	2.326624E-16	5.032503E-18
3.976147E+03	2.327924E-16	5.027057E-18
3.978138E+03	2.329431E-16	5.022050E-18
3.980129E+03	2.332897E-16	5.021247E-18
3.982120E+03	2.336470E-16	5.020651E-18
3.984111E+03	2.344580E-16	5.029763E-18
3.986102E+03	2.358471E-16	5.051198E-18
3.988093E+03	2.374332E-16	5.076747E-18
3.990085E+03	2.397118E-16	5.116968E-18
3.992076E+03	2.416104E-16	5.148930E-18
3.994067E+03	2.433145E-16	5.176618E-18
3.996058E+03	2.448858E-16	5.201364E-18
3.998049E+03	2.470266E-16	5.238078E-18
4.000040E+03	2.487867E-16	5.266582E-18
4.002031E+03	2.508379E-16	5.301111E-18
4.004022E+03	2.536356E-16	5.351246E-18
4.006013E+03	2.565079E-16	5.402757E-18
4.008004E+03	2.596415E-16	5.459556E-18
4.009995E+03	2.626429E-16	5.513361E-18
4.011986E+03	2.656054E-16	5.566139E-18
4.013977E+03	2.682697E-16	5.612470E-18
4.015968E+03	2.715584E-16	5.671652E-18
4.017959E+03	2.736984E-16	5.706654E-18
4.019950E+03	2.762034E-16	5.749101E-18
4.021941E+03	2.780773E-16	5.778258E-18
4.023933E+03	2.801293E-16	5.810979E-18
4.025924E+03	2.817882E-16	5.835416E-18
4.027915E+03	2.834902E-16	5.860626E-18
4.029906E+03	2.848920E-16	5.879524E-18
4.031897E+03	2.860143E-16	5.892565E-18
4.033888E+03	2.869191E-16	5.901053E-18
4.035879E+03	2.884285E-16	5.921893E-18
4.037870E+03	2.897204E-16	5.938172E-18
4.039861E+03	2.904302E-16	5.942447E-18
4.041852E+03	2.909425E-16	5.942643E-18
4.043843E+03	2.907568E-16	5.928572E-18
4.045834E+03	2.906337E-16	5.915788E-18
4.047825E+03	2.904166E-16	5.901107E-18
4.049816E+03	2.909407E-16	5.901476E-18
4.051807E+03	2.909326E-16	5.891035E-18
4.053798E+03	2.905172E-16	5.872363E-18
4.055790E+03	2.900807E-16	5.853296E-18
4.057781E+03	2.902399E-16	5.846262E-18
4.059772E+03	2.893428E-16	5.817980E-18
4.061763E+03	2.887172E-16	5.795212E-18
4.063754E+03	2.879445E-16	5.769545E-18
4.065745E+03	2.867106E-16	5.734708E-18
4.067736E+03	2.855701E-16	5.701826E-18
4.069727E+03	2.838522E-16	5.657519E-18
4.071718E+03	2.831396E-16	5.633337E-18
4.073709E+03	2.818182E-16	5.597115E-18
4.075700E+03	2.803802E-16	5.558680E-18
4.077691E+03	2.795816E-16	5.533001E-18
4.079682E+03	2.791500E-16	5.514631E-18
4.081673E+03	2.780668E-16	5.483444E-18
4.083664E+03	2.766778E-16	5.446318E-18
4.085655E+03	2.753509E-16	5.410512E-18
4.087646E+03	2.735075E-16	5.364671E-18
4.089638E+03	2.722730E-16	5.330886E-18
4.091629E+03	2.709008E-16	5.294498E-18
4.093620E+03	2.695485E-16	5.258599E-18
4.095611E+03	2.685219E-16	5.229138E-18
4.097602E+03	2.671676E-16	5.193386E-18
4.099593E+03	2.659178E-16	5.159757E-18
4.101584E+03	2.650046E-16	5.132739E-18
4.103575E+03	2.647029E-16	5.117610E-18
4.105566E+03	2.638625E-16	5.092110E-18
4.107557E+03	2.623559E-16	5.053840E-18
4.109548E+03	2.608905E-16	5.016469E-18
4.111539E+03	2.603013E-16	4.996023E-18
4.113530E+03	2.598069E-16	4.977438E-18
4.115521E+03	2.593016E-16	4.958681E-18
4.117512E+03	2.591558E-16	4.946827E-18
4.119503E+03	2.588723E-16	4.932361E-18
4.121494E+03	2.584296E-16	4.914894E-18
4.123486E+03	2.576899E-16	4.891821E-18
4.125477E+03	2.566633E-16	4.863368E-18
4.127468E+03	2.561663E-16	4.845006E-18
4.129459E+03	2.566347E-16	4.844908E-18
4.131450E+03	2.565514E-16	4.834386E-18
4.133441E+03	2.565423E-16	4.825270E-18
4.135432E+03	2.561828E-16	4.809578E-18
4.137423E+03	2.557060E-16	4.791719E-18
4.139414E+03	2.553458E-16	4.776078E-18
4.141405E+03	2.552726E-16	4.765824E-18
4.143396E+03	2.550078E-16	4.752010E-18
4.145387E+03	2.550516E-16	4.743957E-18
4.147378E+03	2.549144E-16	4.732546E-18
4.149369E+03	2.548304E-16	4.722134E-18
4.151360E+03	2.541813E-16	4.701281E-18
4.153351E+03	2.536597E-16	4.682830E-18
4.155343E+03	2.536499E-16	4.673851E-18
4.157334E+03	2.535867E-16	4.663896E-18
4.159325E+03	2.537477E-16	4.658065E-18
4.161316E+03	2.532037E-16	4.639312E-18
4.163307E+03	2.529800E-16	4.626456E-18
4.165298E+03	2.530876E-16	4.619670E-18
4.167289E+03	2.528209E-16	4.606061E-18
4.169280E+03	2.517299E-16	4.577487E-18
4.171271E+03	2.516872E-16	4.568021E-18
4.173262E+03	2.510983E-16	4.548666E-18
4.175253E+03	2.511411E-16	4.540779E-18
4.177244E+03	2.512483E-16	4.534057E-18
4.179235E+03	2.512055E-16	4.524630E-18
4.181226E+03	2.509480E-16	4.511353E-18
4.183217E+03	2.510017E-16	4.503682E-18
4.185208E+03	2.503788E-16	4.483897E-18
4.187199E+03	2.501637E-16	4.471448E-18
4.189191E+03	2.500451E-16	4.460741E-18
4.191182E+03	2.493028E-16	4.438943E-18
4.193173E+03	2.484523E-16	4.415279E-18
4.195164E+03	2.480530E-16	4.399682E-18
4.197155E+03	2.478795E-16	4.388115E-18
4.199146E+03	2.479860E-16	4.381513E-18
4.201137E+03	2.482002E-16	4.376810E-18
4.203128E+03	2.484255E-16	4.372291E-18
4.205119E+03	2.481764E-16	4.359431E-18
4.207110E+03	2.477976E-16	4.344321E-18
4.209101E+03	2.475588E-16	4.331692E-18
4.211092E+03	2.472766E-16	4.318328E-18
4.213083E+03	2.471670E-16	4.307997E-18
4.215074E+03	2.474032E-16	4.303696E-18
4.217065E+03	2.470665E-16	4.289438E-18
4.219056E+03	2.470865E-16	4.281391E-18
4.221047E+03	2.468035E-16	4.268109E-18
4.223039E+03	2.466609E-16	4.257277E-18
4.225030E+03	2.467349E-16	4.250192E-18
4.227021E+03	2.472640E-16	4.250933E-18
4.229012E+03	2.477286E-16	4.250537E-18
4.231003E+03	2.483128E-16	4.252167E-18
4.232994E+03	2.487131E-16	4.250619E-18
4.234985E+03	2.488749E-16	4.244985E-18
4.236976E+03	2.489608E-16	4.238055E-18
4.238967E+03	2.488729E-16	4.228173E-18
4.240958E+03	2.486980E-16	4.216829E-18
4.242949E+03	2.484359E-16	4.204030E-18
4.244940E+03	2.483585E-16	4.194374E-18
4.246931E+03	2.488687E-16	4.194636E-18
4.248922E+03	2.489438E-16	4.187552E-18
4.250913E+03	2.488338E-16	4.177363E-18
4.252904E+03	2.484186E-16	4.162075E-18
4.254896E+03	2.482428E-16	4.150827E-18
4.256887E+03	2.485139E-16	4.147057E-18
4.258878E+03	2.479997E-16	4.130197E-18
4.260869E+03	2.476924E-16	4.116819E-18
4.262860E+03	2.469371E-16	4.096038E-18
4.264851E+03	2.465415E-16	4.081272E-18
4.266842E+03	2.464845E-16	4.072132E-18
4.268833E+03	2.463290E-16	4.061382E-18
4.270824E+03	2.460421E-16	4.048487E-18
4.272815E+03	2.460613E-16	4.040647E-18
4.274806E+03	2.457739E-16	4.027789E-18
4.276797E+03	2.461325E-16	4.025526E-18
4.278788E+03	2.460749E-16	4.016454E-18
4.280779E+03	2.460173E-16	4.007394E-18
4.282770E+03	2.462996E-16	4.003873E-18
4.284761E+03	2.461212E-16	3.992868E-18
