#wls	flux	fluxerr
1.592848E+03	3.746546E-17	2.730330E-18
1.632669E+03	3.863212E-17	2.804880E-18
1.672491E+03	3.962571E-17	2.865997E-18
1.712312E+03	4.043059E-17	2.912672E-18
1.752133E+03	4.101806E-17	2.942984E-18
1.791954E+03	4.133210E-17	2.953101E-18
1.831775E+03	4.129543E-17	2.937759E-18
1.871597E+03	4.082412E-17	2.891332E-18
1.911418E+03	3.986327E-17	2.810368E-18
1.951239E+03	3.838091E-17	2.693114E-18
1.991060E+03	3.644515E-17	2.544878E-18
2.030881E+03	3.429869E-17	2.383028E-18
2.070703E+03	3.236040E-17	2.236787E-18
2.110524E+03	3.115710E-17	2.142197E-18
2.150345E+03	3.111665E-17	2.127736E-18
2.190166E+03	3.245133E-17	2.206524E-18
2.229987E+03	3.507109E-17	2.370843E-18
2.269809E+03	3.868864E-17	2.599793E-18
2.309630E+03	4.294742E-17	2.868243E-18
2.349451E+03	4.750470E-17	3.152525E-18
2.389272E+03	5.211704E-17	3.436068E-18
2.429093E+03	5.662194E-17	3.708012E-18
2.468915E+03	6.091607E-17	3.961635E-18
2.508736E+03	6.494567E-17	4.193611E-18
2.548557E+03	6.868138E-17	4.402287E-18
2.588378E+03	7.211391E-17	4.587363E-18
2.628199E+03	7.521464E-17	4.747352E-18
2.668021E+03	7.798866E-17	4.882953E-18
2.707842E+03	8.042513E-17	4.993887E-18
2.747663E+03	8.252131E-17	5.080418E-18
2.787484E+03	8.428316E-17	5.143366E-18
2.827305E+03	8.570163E-17	5.182657E-18
2.867127E+03	8.676305E-17	5.197980E-18
2.906948E+03	8.743656E-17	5.188061E-18
2.946769E+03	8.774493E-17	5.154874E-18
2.986590E+03	8.768859E-17	5.099067E-18
2.996546E+03	8.761473E-17	5.081496E-18
3.006501E+03	8.752832E-17	5.063154E-18
3.016456E+03	8.742280E-17	5.043670E-18
3.026411E+03	8.730027E-17	5.023175E-18
3.036367E+03	8.716762E-17	5.002071E-18
3.046322E+03	8.703100E-17	4.980714E-18
3.056277E+03	8.689255E-17	4.959230E-18
3.066233E+03	8.675024E-17	4.937504E-18
3.076188E+03	8.660890E-17	4.915812E-18
3.086143E+03	8.646045E-17	4.893696E-18
3.096099E+03	8.630374E-17	4.871095E-18
3.106054E+03	8.614404E-17	4.848311E-18
3.116009E+03	8.597427E-17	4.824947E-18
3.125964E+03	8.579995E-17	4.801317E-18
3.135920E+03	8.562057E-17	4.777397E-18
3.145875E+03	8.542974E-17	4.752832E-18
3.155830E+03	8.523339E-17	4.727958E-18
3.165786E+03	8.503718E-17	4.703091E-18
3.175741E+03	8.482954E-17	4.677593E-18
3.185696E+03	8.462217E-17	4.652115E-18
3.195652E+03	8.440392E-17	4.626044E-18
3.205607E+03	8.419210E-17	4.600334E-18
3.215562E+03	8.397584E-17	4.574388E-18
3.225517E+03	8.375570E-17	4.548240E-18
3.235473E+03	8.354304E-17	4.522508E-18
3.245428E+03	8.332771E-17	4.496640E-18
3.255383E+03	8.312090E-17	4.471240E-18
3.265339E+03	8.291796E-17	4.446055E-18
3.275294E+03	8.272474E-17	4.421397E-18
3.285249E+03	8.253674E-17	4.397020E-18
3.295205E+03	8.235985E-17	4.373237E-18
3.305160E+03	8.219969E-17	4.350337E-18
3.315115E+03	8.205191E-17	4.328085E-18
3.325070E+03	8.192211E-17	4.306766E-18
3.335026E+03	8.181098E-17	4.286411E-18
3.344981E+03	8.171924E-17	4.267045E-18
3.354936E+03	8.165222E-17	4.248936E-18
3.364892E+03	8.161061E-17	4.232108E-18
3.374847E+03	8.159512E-17	4.216583E-18
3.384802E+03	8.161094E-17	4.202614E-18
3.394758E+03	8.165884E-17	4.190224E-18
3.404713E+03	8.174832E-17	4.179882E-18
3.414668E+03	8.187125E-17	4.171150E-18
3.424623E+03	8.203726E-17	4.164498E-18
3.434579E+03	8.225131E-17	4.160154E-18
3.444534E+03	8.251428E-17	4.158135E-18
3.454489E+03	8.283130E-17	4.158670E-18
3.464445E+03	8.320743E-17	4.161983E-18
3.474400E+03	8.363981E-17	4.167896E-18
3.484355E+03	8.414591E-17	4.177245E-18
3.494311E+03	8.471903E-17	4.189656E-18
3.504266E+03	8.536869E-17	4.205558E-18
3.514221E+03	8.609677E-17	4.224999E-18
3.524176E+03	8.691299E-17	4.248408E-18
3.534132E+03	8.781573E-17	4.275654E-18
3.544087E+03	8.880760E-17	4.306811E-18
3.554042E+03	8.988766E-17	4.341782E-18
3.563998E+03	9.106315E-17	4.380861E-18
3.573953E+03	9.233010E-17	4.423800E-18
3.583908E+03	9.369635E-17	4.470918E-18
3.593864E+03	9.516254E-17	4.522183E-18
3.603819E+03	9.673349E-17	4.577764E-18
3.613774E+03	9.840691E-17	4.637486E-18
3.623729E+03	1.001958E-16	4.701894E-18
3.633685E+03	1.020947E-16	4.770668E-18
3.643640E+03	1.041136E-16	4.844197E-18
3.653595E+03	1.062553E-16	4.922535E-18
3.663551E+03	1.085265E-16	5.005917E-18
3.673506E+03	1.109267E-16	5.094233E-18
3.683461E+03	1.134705E-16	5.188075E-18
3.693417E+03	1.161577E-16	5.287340E-18
3.703372E+03	1.189958E-16	5.392270E-18
3.713327E+03	1.219882E-16	5.502931E-18
3.723282E+03	1.251423E-16	5.619548E-18
3.733238E+03	1.284613E-16	5.742165E-18
3.743193E+03	1.319559E-16	5.871147E-18
3.753148E+03	1.356247E-16	6.006320E-18
3.763104E+03	1.394734E-16	6.147822E-18
3.773059E+03	1.435071E-16	6.295757E-18
3.783014E+03	1.477300E-16	6.450190E-18
3.792970E+03	1.521371E-16	6.610775E-18
3.802925E+03	1.567383E-16	6.777819E-18
3.812880E+03	1.615216E-16	6.950679E-18
3.822835E+03	1.664895E-16	7.129339E-18
3.832791E+03	1.716343E-16	7.313352E-18
3.842746E+03	1.769506E-16	7.502360E-18
3.852701E+03	1.824302E-16	7.695912E-18
3.862657E+03	1.880584E-16	7.893274E-18
3.872612E+03	1.938174E-16	8.093602E-18
3.882567E+03	1.996957E-16	8.296327E-18
3.892523E+03	2.056698E-16	8.500400E-18
3.902478E+03	2.117135E-16	8.704670E-18
3.912433E+03	2.178022E-16	8.908082E-18
3.922388E+03	2.239088E-16	9.109502E-18
3.932344E+03	2.299993E-16	9.307529E-18
3.942299E+03	2.360371E-16	9.500705E-18
3.952254E+03	2.419945E-16	9.687945E-18
3.962210E+03	2.478327E-16	9.867750E-18
3.972165E+03	2.535174E-16	1.003884E-17
3.982120E+03	2.590098E-16	1.019979E-17
3.992076E+03	2.642722E-16	1.034924E-17
4.002031E+03	2.692737E-16	1.048614E-17
4.011986E+03	2.739917E-16	1.060978E-17
4.021941E+03	2.783915E-16	1.071901E-17
4.031897E+03	2.824479E-16	1.081308E-17
4.041852E+03	2.861563E-16	1.089204E-17
4.051807E+03	2.894966E-16	1.095537E-17
4.061763E+03	2.924596E-16	1.100296E-17
4.071718E+03	2.950529E-16	1.103534E-17
4.081673E+03	2.972788E-16	1.105286E-17
4.091629E+03	2.991510E-16	1.105627E-17
4.101584E+03	3.006879E-16	1.104648E-17
4.111539E+03	3.019025E-16	1.102420E-17
4.121494E+03	3.028271E-16	1.099082E-17
4.131450E+03	3.034922E-16	1.094764E-17
4.141405E+03	3.039255E-16	1.089582E-17
4.151360E+03	3.041566E-16	1.083659E-17
4.161316E+03	3.042310E-16	1.077169E-17
4.171271E+03	3.041747E-16	1.070217E-17
4.181226E+03	3.040282E-16	1.062951E-17
4.191182E+03	3.038214E-16	1.055484E-17
4.201137E+03	3.035926E-16	1.047951E-17
4.211092E+03	3.033641E-16	1.040432E-17
4.221047E+03	3.031799E-16	1.033078E-17
4.231003E+03	3.030585E-16	1.025948E-17
4.240958E+03	3.030300E-16	1.019142E-17
4.250913E+03	3.031127E-16	1.012713E-17
4.260869E+03	3.033408E-16	1.006771E-17
4.270824E+03	3.037232E-16	1.001335E-17
4.280779E+03	3.042842E-16	9.964750E-18
4.290735E+03	3.050365E-16	9.922223E-18
4.300690E+03	3.059992E-16	9.886268E-18
4.310645E+03	3.071713E-16	9.856725E-18
4.320601E+03	3.085764E-16	9.834216E-18
4.330556E+03	3.102186E-16	9.818736E-18
4.340511E+03	3.121013E-16	9.810246E-18
4.350466E+03	3.142419E-16	9.809145E-18
4.360422E+03	3.166510E-16	9.815612E-18
4.370377E+03	3.193399E-16	9.829831E-18
4.380332E+03	3.223407E-16	9.852620E-18
4.390288E+03	3.256801E-16	9.884608E-18
4.400243E+03	3.293937E-16	9.926665E-18
4.410198E+03	3.335275E-16	9.979954E-18
4.420154E+03	3.381090E-16	1.004504E-17
4.430109E+03	3.431713E-16	1.012264E-17
4.440064E+03	3.487342E-16	1.021306E-17
4.450019E+03	3.548112E-16	1.031639E-17
4.459975E+03	3.614080E-16	1.043252E-17
4.469930E+03	3.685218E-16	1.056107E-17
4.479885E+03	3.761402E-16	1.070140E-17
4.489841E+03	3.842401E-16	1.085259E-17
4.499796E+03	3.927869E-16	1.101340E-17
4.509751E+03	4.017289E-16	1.118218E-17
4.519707E+03	4.110071E-16	1.135709E-17
4.529662E+03	4.205550E-16	1.153617E-17
4.539617E+03	4.302839E-16	1.171690E-17
4.549572E+03	4.401043E-16	1.189680E-17
4.559528E+03	4.499115E-16	1.207307E-17
4.569483E+03	4.595867E-16	1.224262E-17
4.579438E+03	4.690218E-16	1.240273E-17
4.589394E+03	4.780824E-16	1.255009E-17
4.599349E+03	4.866624E-16	1.268221E-17
4.609304E+03	4.946289E-16	1.279600E-17
4.619260E+03	5.018724E-16	1.288906E-17
4.629215E+03	5.082988E-16	1.295947E-17
4.639170E+03	5.138079E-16	1.300521E-17
4.649125E+03	5.183328E-16	1.302517E-17
4.659081E+03	5.218181E-16	1.301855E-17
4.669036E+03	5.242214E-16	1.298491E-17
4.678991E+03	5.255332E-16	1.292466E-17
4.688947E+03	5.257650E-16	1.283869E-17
4.698902E+03	5.249428E-16	1.272823E-17
4.708857E+03	5.231128E-16	1.259495E-17
4.718813E+03	5.203575E-16	1.244136E-17
4.728768E+03	5.167584E-16	1.226988E-17
4.738723E+03	5.124240E-16	1.208348E-17
4.748678E+03	5.074715E-16	1.188528E-17
4.758634E+03	5.020337E-16	1.167864E-17
4.768589E+03	4.962763E-16	1.146762E-17
4.778544E+03	4.903828E-16	1.125657E-17
4.788500E+03	4.845411E-16	1.104981E-17
4.798455E+03	4.789418E-16	1.085161E-17
4.808410E+03	4.737588E-16	1.066577E-17
4.818366E+03	4.691341E-16	1.049527E-17
4.828321E+03	4.651958E-16	1.034269E-17
4.838276E+03	4.620462E-16	1.020997E-17
4.848231E+03	4.597560E-16	1.009829E-17
4.858187E+03	4.583746E-16	1.000833E-17
4.868142E+03	4.579246E-16	9.940190E-18
4.878097E+03	4.584029E-16	9.893425E-18
4.888053E+03	4.597755E-16	9.866931E-18
4.898008E+03	4.619982E-16	9.859421E-18
4.907963E+03	4.649826E-16	9.868700E-18
4.917919E+03	4.686372E-16	9.892568E-18
4.927874E+03	4.728299E-16	9.928014E-18
4.937829E+03	4.774309E-16	9.972150E-18
4.947784E+03	4.822823E-16	1.002156E-17
4.957740E+03	4.872236E-16	1.007285E-17
4.967695E+03	4.920988E-16	1.012279E-17
4.977650E+03	4.967537E-16	1.016824E-17
4.987606E+03	5.010485E-16	1.020642E-17
4.997561E+03	5.048597E-16	1.023493E-17
5.007516E+03	5.081075E-16	1.025229E-17
5.017472E+03	5.107234E-16	1.025728E-17
5.027427E+03	5.126945E-16	1.024980E-17
5.037382E+03	5.140314E-16	1.023022E-17
5.047337E+03	5.147712E-16	1.019943E-17
5.057293E+03	5.149893E-16	1.015905E-17
5.067248E+03	5.147779E-16	1.011101E-17
5.077203E+03	5.142452E-16	1.005748E-17
5.087159E+03	5.135084E-16	1.000083E-17
5.097114E+03	5.126835E-16	9.943308E-18
5.107069E+03	5.119061E-16	9.887537E-18
5.117025E+03	5.112742E-16	9.835362E-18
5.126980E+03	5.109039E-16	9.788949E-18
5.136935E+03	5.108845E-16	9.749916E-18
5.146890E+03	5.113036E-16	9.719832E-18
5.156846E+03	5.122258E-16	9.699801E-18
5.166801E+03	5.137128E-16	9.690862E-18
5.176756E+03	5.158029E-16	9.693597E-18
5.186712E+03	5.185314E-16	9.708529E-18
5.196667E+03	5.219152E-16	9.735831E-18
5.206622E+03	5.259527E-16	9.775331E-18
5.216578E+03	5.306392E-16	9.826808E-18
5.226533E+03	5.359515E-16	9.889701E-18
5.236488E+03	5.418472E-16	9.963107E-18
5.246443E+03	5.482816E-16	1.004610E-17
5.256399E+03	5.551914E-16	1.013742E-17
5.266354E+03	5.625017E-16	1.023563E-17
5.276309E+03	5.701200E-16	1.033899E-17
5.286265E+03	5.779509E-16	1.044571E-17
5.296220E+03	5.858968E-16	1.055402E-17
5.306175E+03	5.938424E-16	1.066184E-17
5.316131E+03	6.016838E-16	1.076733E-17
5.326086E+03	6.093033E-16	1.086842E-17
5.336041E+03	6.165978E-16	1.096333E-17
5.345996E+03	6.234584E-16	1.105020E-17
5.355952E+03	6.297827E-16	1.112732E-17
5.365907E+03	6.354983E-16	1.119351E-17
5.375862E+03	6.405219E-16	1.124742E-17
5.385818E+03	6.447848E-16	1.128799E-17
5.395773E+03	6.482477E-16	1.131466E-17
5.405728E+03	6.508570E-16	1.132664E-17
5.415684E+03	6.525887E-16	1.132366E-17
5.425639E+03	6.534148E-16	1.130538E-17
5.435594E+03	6.533232E-16	1.127173E-17
5.445549E+03	6.522921E-16	1.122250E-17
5.455505E+03	6.503051E-16	1.115754E-17
5.465460E+03	6.473218E-16	1.107629E-17
5.475415E+03	6.432769E-16	1.097780E-17
5.485371E+03	6.380758E-16	1.086060E-17
5.495326E+03	6.316095E-16	1.072295E-17
5.505281E+03	6.237782E-16	1.056329E-17
5.515237E+03	6.145542E-16	1.038125E-17
5.525192E+03	6.039380E-16	1.017697E-17
5.535147E+03	5.919912E-16	9.951592E-18
5.545102E+03	5.788575E-16	9.707632E-18
5.555058E+03	5.647169E-16	9.448188E-18
5.565013E+03	5.498302E-16	9.177680E-18
5.574968E+03	5.344704E-16	8.900689E-18
5.584924E+03	5.189543E-16	8.622489E-18
5.594879E+03	5.036064E-16	8.348433E-18
5.604834E+03	4.887506E-16	8.083820E-18
5.614790E+03	4.746991E-16	7.833712E-18
5.624745E+03	4.617436E-16	7.602792E-18
5.634700E+03	4.501542E-16	7.395352E-18
5.644655E+03	4.401630E-16	7.215019E-18
5.654611E+03	4.319863E-16	7.065137E-18
5.664566E+03	4.257913E-16	6.948219E-18
5.674521E+03	4.217474E-16	6.866790E-18
5.684477E+03	4.199860E-16	6.822739E-18
5.694432E+03	4.206215E-16	6.817658E-18
5.704387E+03	4.237664E-16	6.853093E-18
5.714343E+03	4.295024E-16	6.930079E-18
5.724298E+03	4.379139E-16	7.049682E-18
5.734253E+03	4.490552E-16	7.212470E-18
5.744209E+03	4.629618E-16	7.418703E-18
5.754164E+03	4.796387E-16	7.668149E-18
5.764119E+03	4.990509E-16	7.959931E-18
5.774074E+03	5.211168E-16	8.292442E-18
5.784030E+03	5.456814E-16	8.662918E-18
5.793985E+03	5.725196E-16	9.067510E-18
5.803940E+03	6.013222E-16	9.501078E-18
5.813896E+03	6.316900E-16	9.957106E-18
5.823851E+03	6.631344E-16	1.042774E-17
5.833806E+03	6.950834E-16	1.090389E-17
5.843762E+03	7.268962E-16	1.137550E-17
5.853717E+03	7.578857E-16	1.183186E-17
5.863672E+03	7.873389E-16	1.226200E-17
5.873627E+03	8.145746E-16	1.265553E-17
5.883583E+03	8.389554E-16	1.300288E-17
5.893538E+03	8.599125E-16	1.329560E-17
5.903493E+03	8.770299E-16	1.352772E-17
5.913449E+03	8.900037E-16	1.369504E-17
5.923404E+03	8.986809E-16	1.379572E-17
5.933359E+03	9.030830E-16	1.383064E-17
5.943315E+03	9.033576E-16	1.380256E-17
5.953270E+03	8.997984E-16	1.371646E-17
5.963225E+03	8.927766E-16	1.357844E-17
5.973180E+03	8.827646E-16	1.339609E-17
5.983136E+03	8.702724E-16	1.317748E-17
5.993091E+03	8.558258E-16	1.293084E-17
6.003046E+03	8.399275E-16	1.266397E-17
6.013002E+03	8.230854E-16	1.238468E-17
6.022957E+03	8.057319E-16	1.209957E-17
6.032912E+03	7.882805E-16	1.181490E-17
6.042868E+03	7.710535E-16	1.153551E-17
6.052823E+03	7.543484E-16	1.126583E-17
6.062778E+03	7.383740E-16	1.100895E-17
6.072733E+03	7.233107E-16	1.076750E-17
6.082689E+03	7.092917E-16	1.054339E-17
6.092644E+03	6.964004E-16	1.033780E-17
6.102599E+03	6.846855E-16	1.015140E-17
6.112555E+03	6.741662E-16	9.984396E-18
6.122510E+03	6.648427E-16	9.836759E-18
6.132465E+03	6.566965E-16	9.708171E-18
6.142421E+03	6.496907E-16	9.598062E-18
6.152376E+03	6.437697E-16	9.505598E-18
6.162331E+03	6.388742E-16	9.429908E-18
6.172286E+03	6.349223E-16	9.369793E-18
6.182242E+03	6.318420E-16	9.324224E-18
6.192197E+03	6.295362E-16	9.291808E-18
6.202152E+03	6.279194E-16	9.271326E-18
6.212108E+03	6.268943E-16	9.261350E-18
6.222063E+03	6.263645E-16	9.260439E-18
6.232018E+03	6.262172E-16	9.266914E-18
6.241974E+03	6.263555E-16	9.279329E-18
6.251929E+03	6.266753E-16	9.296132E-18
6.261884E+03	6.270818E-16	9.315902E-18
6.271839E+03	6.275051E-16	9.337583E-18
6.281795E+03	6.278747E-16	9.360103E-18
6.291750E+03	6.281490E-16	9.382810E-18
6.301705E+03	6.282836E-16	9.405008E-18
6.311661E+03	6.282498E-16	9.426228E-18
6.321616E+03	6.280513E-16	9.446478E-18
6.331571E+03	6.276749E-16	9.465513E-18
6.341527E+03	6.271310E-16	9.483440E-18
6.351482E+03	6.264388E-16	9.500498E-18
6.361437E+03	6.256234E-16	9.517017E-18
6.371392E+03	6.247137E-16	9.533390E-18
6.381348E+03	6.237356E-16	9.549965E-18
6.391303E+03	6.227222E-16	9.567210E-18
6.401258E+03	6.217076E-16	9.585610E-18
6.411214E+03	6.207267E-16	9.605676E-18
6.421169E+03	6.198108E-16	9.627866E-18
6.431124E+03	6.189899E-16	9.652630E-18
6.441080E+03	6.182912E-16	9.680376E-18
6.451035E+03	6.177514E-16	9.711647E-18
6.460990E+03	6.173887E-16	9.746679E-18
6.470945E+03	6.172227E-16	9.785749E-18
6.480901E+03	6.172686E-16	9.829061E-18
6.490856E+03	6.175387E-16	9.876788E-18
6.500811E+03	6.180331E-16	9.928905E-18
6.510767E+03	6.187961E-16	9.986112E-18
6.520722E+03	6.198817E-16	1.004927E-17
6.530677E+03	6.213397E-16	1.011921E-17
6.540633E+03	6.232048E-16	1.019650E-17
6.550588E+03	6.254982E-16	1.028153E-17
6.560543E+03	6.281820E-16	1.037372E-17
6.570498E+03	6.312262E-16	1.047258E-17
6.580454E+03	6.345386E-16	1.057662E-17
6.590409E+03	6.380064E-16	1.068394E-17
6.600364E+03	6.414948E-16	1.079226E-17
6.610320E+03	6.448595E-16	1.089909E-17
6.620275E+03	6.479463E-16	1.100172E-17
6.630230E+03	6.505830E-16	1.109709E-17
6.640186E+03	6.526111E-16	1.118233E-17
6.650141E+03	6.539022E-16	1.125503E-17
6.660096E+03	6.543182E-16	1.131257E-17
6.670051E+03	6.537718E-16	1.135319E-17
6.680007E+03	6.522092E-16	1.137569E-17
6.689962E+03	6.495891E-16	1.137905E-17
6.699917E+03	6.459473E-16	1.136364E-17
6.709873E+03	6.413156E-16	1.132974E-17
6.719828E+03	6.357781E-16	1.127860E-17
6.729783E+03	6.294657E-16	1.121232E-17
6.739739E+03	6.225023E-16	1.113293E-17
6.749694E+03	6.150582E-16	1.104332E-17
6.759649E+03	6.073115E-16	1.094660E-17
6.769604E+03	5.994472E-16	1.084603E-17
6.779560E+03	5.916560E-16	1.074505E-17
6.789515E+03	5.841332E-16	1.064724E-17
6.799470E+03	5.770457E-16	1.055570E-17
6.809426E+03	5.705798E-16	1.047393E-17
6.819381E+03	5.648856E-16	1.040481E-17
6.829336E+03	5.601046E-16	1.035111E-17
6.839292E+03	5.563598E-16	1.031528E-17
6.849247E+03	5.537537E-16	1.029939E-17
6.859202E+03	5.523749E-16	1.030530E-17
6.869157E+03	5.522736E-16	1.033415E-17
6.879113E+03	5.534832E-16	1.038675E-17
6.889068E+03	5.560191E-16	1.046358E-17
6.899023E+03	5.598463E-16	1.056417E-17
6.908979E+03	5.649324E-16	1.068807E-17
6.918934E+03	5.711924E-16	1.083382E-17
6.928889E+03	5.785186E-16	1.099950E-17
6.938845E+03	5.867736E-16	1.118258E-17
6.948800E+03	5.957924E-16	1.137998E-17
6.958755E+03	6.053905E-16	1.158823E-17
6.968710E+03	6.153402E-16	1.180295E-17
6.978666E+03	6.254215E-16	1.201992E-17
6.988621E+03	6.354102E-16	1.223476E-17
6.998576E+03	6.450587E-16	1.244263E-17
7.008532E+03	6.541483E-16	1.263921E-17
7.018487E+03	6.625060E-16	1.282106E-17
7.028442E+03	6.699522E-16	1.298457E-17
7.038398E+03	6.763779E-16	1.312751E-17
7.048353E+03	6.817112E-16	1.324835E-17
7.058308E+03	6.859172E-16	1.334632E-17
7.068263E+03	6.890193E-16	1.342177E-17
7.078219E+03	6.910946E-16	1.347611E-17
7.088174E+03	6.922361E-16	1.351108E-17
7.098129E+03	6.925754E-16	1.352921E-17
7.108085E+03	6.922625E-16	1.353339E-17
7.118040E+03	6.914638E-16	1.352686E-17
7.127995E+03	6.903159E-16	1.351228E-17
7.137951E+03	6.889728E-16	1.349267E-17
7.147906E+03	6.875525E-16	1.347035E-17
7.157861E+03	6.861786E-16	1.344777E-17
7.167817E+03	6.848960E-16	1.342581E-17
7.177772E+03	6.837721E-16	1.340584E-17
7.187727E+03	6.828118E-16	1.338795E-17
7.197682E+03	6.820135E-16	1.337214E-17
7.207638E+03	6.813164E-16	1.335725E-17
7.217593E+03	6.806682E-16	1.334226E-17
7.227548E+03	6.799762E-16	1.332538E-17
7.237504E+03	6.791560E-16	1.330498E-17
7.247459E+03	6.780938E-16	1.327885E-17
7.257414E+03	6.766946E-16	1.324518E-17
7.267370E+03	6.748357E-16	1.320159E-17
7.277325E+03	6.724369E-16	1.314658E-17
7.287280E+03	6.694222E-16	1.307870E-17
7.297235E+03	6.657246E-16	1.299671E-17
7.307191E+03	6.613097E-16	1.290002E-17
7.317146E+03	6.561795E-16	1.278873E-17
7.327101E+03	6.503297E-16	1.266286E-17
7.337057E+03	6.438094E-16	1.252344E-17
7.347012E+03	6.366718E-16	1.237161E-17
7.356967E+03	6.290061E-16	1.220918E-17
7.366923E+03	6.208867E-16	1.203768E-17
7.376878E+03	6.124271E-16	1.185940E-17
7.386833E+03	6.037245E-16	1.167631E-17
7.396788E+03	5.948882E-16	1.149058E-17
7.406744E+03	5.860214E-16	1.130427E-17
7.416699E+03	5.772307E-16	1.111950E-17
7.426654E+03	5.685843E-16	1.093761E-17
7.436610E+03	5.601851E-16	1.076063E-17
7.446565E+03	5.520778E-16	1.058945E-17
7.456520E+03	5.443210E-16	1.042522E-17
7.466476E+03	5.369518E-16	1.026864E-17
7.476431E+03	5.300033E-16	1.012038E-17
7.486386E+03	5.234804E-16	9.980521E-18
7.496341E+03	5.173948E-16	9.849263E-18
7.506297E+03	5.117419E-16	9.726502E-18
7.516252E+03	5.065102E-16	9.612005E-18
7.526207E+03	5.016842E-16	9.505462E-18
7.536163E+03	4.972469E-16	9.406534E-18
7.546118E+03	4.931904E-16	9.315060E-18
7.556073E+03	4.894947E-16	9.230649E-18
7.566029E+03	4.861615E-16	9.153324E-18
7.575984E+03	4.831841E-16	9.082947E-18
7.585939E+03	4.805751E-16	9.019749E-18
7.595894E+03	4.783375E-16	8.963773E-18
7.605850E+03	4.764756E-16	8.915095E-18
7.615805E+03	4.749970E-16	8.873848E-18
7.625760E+03	4.739103E-16	8.840187E-18
7.635716E+03	4.732217E-16	8.814222E-18
7.645671E+03	4.729320E-16	8.795964E-18
7.655626E+03	4.730417E-16	8.785420E-18
7.665582E+03	4.735176E-16	8.781976E-18
7.675537E+03	4.743474E-16	8.785411E-18
7.685492E+03	4.754842E-16	8.794866E-18
7.695447E+03	4.768788E-16	8.809448E-18
7.705403E+03	4.784733E-16	8.828114E-18
7.715358E+03	4.802034E-16	8.849708E-18
7.725313E+03	4.820006E-16	8.873003E-18
