#wls	flux	fluxerr
1.592848E+03	3.260023E-17	2.129360E-18
1.632669E+03	3.351663E-17	2.178913E-18
1.672491E+03	3.428339E-17	2.217942E-18
1.712312E+03	3.487064E-17	2.244644E-18
1.752133E+03	3.526720E-17	2.258454E-18
1.791954E+03	3.541495E-17	2.255846E-18
1.831775E+03	3.526280E-17	2.233826E-18
1.871597E+03	3.474259E-17	2.188413E-18
1.911418E+03	3.380124E-17	2.116688E-18
1.951239E+03	3.241750E-17	2.017813E-18
1.991060E+03	3.066060E-17	1.896603E-18
2.030881E+03	2.873019E-17	1.765805E-18
2.070703E+03	2.698997E-17	1.647885E-18
2.110524E+03	2.586385E-17	1.568362E-18
2.150345E+03	2.571121E-17	1.548139E-18
2.190166E+03	2.667401E-17	1.594453E-18
2.229987E+03	2.866973E-17	1.700913E-18
2.269809E+03	3.145295E-17	1.851612E-18
2.309630E+03	3.470808E-17	2.026939E-18
2.349451E+03	3.815989E-17	2.210173E-18
2.389272E+03	4.160628E-17	2.389300E-18
2.429093E+03	4.491958E-17	2.556934E-18
2.468915E+03	4.802222E-17	2.708773E-18
2.508736E+03	5.087221E-17	2.842680E-18
2.548557E+03	5.346232E-17	2.958541E-18
2.588378E+03	5.578204E-17	3.056094E-18
2.628199E+03	5.784017E-17	3.136168E-18
2.668021E+03	5.964008E-17	3.199299E-18
2.707842E+03	6.117832E-17	3.245671E-18
2.747663E+03	6.247439E-17	3.276697E-18
2.787484E+03	6.352603E-17	3.292640E-18
2.827305E+03	6.434725E-17	3.294613E-18
2.867127E+03	6.493220E-17	3.282715E-18
2.906948E+03	6.527894E-17	3.257269E-18
2.946769E+03	6.541072E-17	3.219866E-18
2.986590E+03	6.534074E-17	3.171564E-18
2.996546E+03	6.529652E-17	3.158066E-18
3.006501E+03	6.524566E-17	3.144204E-18
3.016456E+03	6.518203E-17	3.129688E-18
3.026411E+03	6.510729E-17	3.114605E-18
3.036367E+03	6.503953E-17	3.099821E-18
3.046322E+03	6.496408E-17	3.084639E-18
3.056277E+03	6.490171E-17	3.070042E-18
3.066233E+03	6.483826E-17	3.055358E-18
3.076188E+03	6.477876E-17	3.040824E-18
3.086143E+03	6.472209E-17	3.026384E-18
3.096099E+03	6.466114E-17	3.011707E-18
3.106054E+03	6.460744E-17	2.997329E-18
3.116009E+03	6.454809E-17	2.982650E-18
3.125964E+03	6.449472E-17	2.968209E-18
3.135920E+03	6.443492E-17	2.953433E-18
3.145875E+03	6.438029E-17	2.938857E-18
3.155830E+03	6.432465E-17	2.924195E-18
3.165786E+03	6.427374E-17	2.909709E-18
3.175741E+03	6.422168E-17	2.895131E-18
3.185696E+03	6.417418E-17	2.880718E-18
3.195652E+03	6.412574E-17	2.866220E-18
3.205607E+03	6.408203E-17	2.851893E-18
3.215562E+03	6.404323E-17	2.837739E-18
3.225517E+03	6.400952E-17	2.823766E-18
3.235473E+03	6.398655E-17	2.810217E-18
3.245428E+03	6.396370E-17	2.796623E-18
3.255383E+03	6.395211E-17	2.783467E-18
3.265339E+03	6.395191E-17	2.770750E-18
3.275294E+03	6.396338E-17	2.758475E-18
3.285249E+03	6.398154E-17	2.746423E-18
3.295205E+03	6.401713E-17	2.735047E-18
3.305160E+03	6.406515E-17	2.724126E-18
3.315115E+03	6.413099E-17	2.713878E-18
3.325070E+03	6.421480E-17	2.704300E-18
3.335026E+03	6.431680E-17	2.695388E-18
3.344981E+03	6.443713E-17	2.687139E-18
3.354936E+03	6.458089E-17	2.679750E-18
3.364892E+03	6.474821E-17	2.673213E-18
3.374847E+03	6.493910E-17	2.667513E-18
3.384802E+03	6.515847E-17	2.662835E-18
3.394758E+03	6.540626E-17	2.659159E-18
3.404713E+03	6.568252E-17	2.656467E-18
3.414668E+03	6.599192E-17	2.654928E-18
3.424623E+03	6.633443E-17	2.654519E-18
3.434579E+03	6.670999E-17	2.655217E-18
3.444534E+03	6.712336E-17	2.657185E-18
3.454489E+03	6.757910E-17	2.660579E-18
3.464445E+03	6.807287E-17	2.665201E-18
3.474400E+03	6.861403E-17	2.671387E-18
3.484355E+03	6.919850E-17	2.678947E-18
3.494311E+03	6.983599E-17	2.688226E-18
3.504266E+03	7.052278E-17	2.699043E-18
3.514221E+03	7.126006E-17	2.711411E-18
3.524176E+03	7.205798E-17	2.725675E-18
3.534132E+03	7.291360E-17	2.741684E-18
3.544087E+03	7.383316E-17	2.759630E-18
3.554042E+03	7.481426E-17	2.779377E-18
3.563998E+03	7.586351E-17	2.801125E-18
3.573953E+03	7.698342E-17	2.824917E-18
3.583908E+03	7.817249E-17	2.850646E-18
3.593864E+03	7.943804E-17	2.878529E-18
3.603819E+03	8.078347E-17	2.908630E-18
3.613774E+03	8.220396E-17	2.940718E-18
3.623729E+03	8.371207E-17	2.975184E-18
3.633685E+03	8.531219E-17	3.012117E-18
3.643640E+03	8.700072E-17	3.051323E-18
3.653595E+03	8.879127E-17	3.093209E-18
3.663551E+03	9.068100E-17	3.137599E-18
3.673506E+03	9.268016E-17	3.184772E-18
3.683461E+03	9.479093E-17	3.234717E-18
3.693417E+03	9.702436E-17	3.287724E-18
3.703372E+03	9.938323E-17	3.343793E-18
3.713327E+03	1.018749E-16	3.403075E-18
3.723282E+03	1.045071E-16	3.465720E-18
3.733238E+03	1.072875E-16	3.531873E-18
3.743193E+03	1.102193E-16	3.601529E-18
3.753148E+03	1.133105E-16	3.674821E-18
3.763104E+03	1.165683E-16	3.751861E-18
3.773059E+03	1.199954E-16	3.832606E-18
3.783014E+03	1.236030E-16	3.917271E-18
3.792970E+03	1.273924E-16	4.005761E-18
3.802925E+03	1.313688E-16	4.098087E-18
3.812880E+03	1.355359E-16	4.194223E-18
3.822835E+03	1.398870E-16	4.293801E-18
3.832791E+03	1.444320E-16	4.396979E-18
3.842746E+03	1.491601E-16	4.503275E-18
3.852701E+03	1.540723E-16	4.612565E-18
3.862657E+03	1.591522E-16	4.724217E-18
3.872612E+03	1.644004E-16	4.838101E-18
3.882567E+03	1.697888E-16	4.953265E-18
3.892523E+03	1.753114E-16	5.069412E-18
3.902478E+03	1.809382E-16	5.185569E-18
3.912433E+03	1.866461E-16	5.300985E-18
3.922388E+03	1.924087E-16	5.414842E-18
3.932344E+03	1.981965E-16	5.526269E-18
3.942299E+03	2.039725E-16	5.634204E-18
3.952254E+03	2.097024E-16	5.737713E-18
3.962210E+03	2.153450E-16	5.835703E-18
3.972165E+03	2.208639E-16	5.927253E-18
3.982120E+03	2.262221E-16	6.011473E-18
3.992076E+03	2.313780E-16	6.087381E-18
4.002031E+03	2.362970E-16	6.154230E-18
4.011986E+03	2.409413E-16	6.211223E-18
4.021941E+03	2.452881E-16	6.257996E-18
4.031897E+03	2.493018E-16	6.293880E-18
4.041852E+03	2.529696E-16	6.318817E-18
4.051807E+03	2.562734E-16	6.332631E-18
4.061763E+03	2.592071E-16	6.335467E-18
4.071718E+03	2.617659E-16	6.327504E-18
4.081673E+03	2.639573E-16	6.309225E-18
4.091629E+03	2.657953E-16	6.281256E-18
4.101584E+03	2.672937E-16	6.244208E-18
4.111539E+03	2.684824E-16	6.199054E-18
4.121494E+03	2.693846E-16	6.146571E-18
4.131450E+03	2.700263E-16	6.087590E-18
4.141405E+03	2.704524E-16	6.023325E-18
4.151360E+03	2.706820E-16	5.954377E-18
4.161316E+03	2.707617E-16	5.881929E-18
4.171271E+03	2.707170E-16	5.806652E-18
4.181226E+03	2.705933E-16	5.729619E-18
4.191182E+03	2.704190E-16	5.651497E-18
4.201137E+03	2.702212E-16	5.572890E-18
4.211092E+03	2.700398E-16	5.494638E-18
4.221047E+03	2.698924E-16	5.417087E-18
4.231003E+03	2.698137E-16	5.340907E-18
4.240958E+03	2.698162E-16	5.266291E-18
4.250913E+03	2.699292E-16	5.193743E-18
4.260869E+03	2.701692E-16	5.123495E-18
4.270824E+03	2.705453E-16	5.055619E-18
4.280779E+03	2.710732E-16	4.990302E-18
4.290735E+03	2.717610E-16	4.927575E-18
4.300690E+03	2.726188E-16	4.867493E-18
4.310645E+03	2.736491E-16	4.809973E-18
4.320601E+03	2.748524E-16	4.754889E-18
4.330556E+03	2.762267E-16	4.702080E-18
4.340511E+03	2.777776E-16	4.651509E-18
4.350466E+03	2.794964E-16	4.602903E-18
4.360422E+03	2.813854E-16	4.556173E-18
4.370377E+03	2.834447E-16	4.511199E-18
4.380332E+03	2.857031E-16	4.468311E-18
4.390288E+03	2.881958E-16	4.427903E-18
4.400243E+03	2.909600E-16	4.390367E-18
4.410198E+03	2.940432E-16	4.356209E-18
4.420154E+03	2.974819E-16	4.325724E-18
4.430109E+03	3.013177E-16	4.299246E-18
4.440064E+03	3.055738E-16	4.276808E-18
4.450019E+03	3.102850E-16	4.258584E-18
4.459975E+03	3.154696E-16	4.244493E-18
4.469930E+03	3.211277E-16	4.234200E-18
4.479885E+03	3.272630E-16	4.227424E-18
4.489841E+03	3.338580E-16	4.223623E-18
4.499796E+03	3.408921E-16	4.222243E-18
4.509751E+03	3.483168E-16	4.222422E-18
4.519707E+03	3.560833E-16	4.223362E-18
4.529662E+03	3.641195E-16	4.224052E-18
4.539617E+03	3.723448E-16	4.223477E-18
4.549572E+03	3.806617E-16	4.220525E-18
4.559528E+03	3.889628E-16	4.214095E-18
4.569483E+03	3.971444E-16	4.203243E-18
4.579438E+03	4.050887E-16	4.186995E-18
4.589394E+03	4.126824E-16	4.164553E-18
4.599349E+03	4.198095E-16	4.135208E-18
4.609304E+03	4.263643E-16	4.098474E-18
4.619260E+03	4.322487E-16	4.054038E-18
4.629215E+03	4.373740E-16	4.001771E-18
4.639170E+03	4.416572E-16	3.941671E-18
4.649125E+03	4.450389E-16	3.874016E-18
4.659081E+03	4.474634E-16	3.799156E-18
4.669036E+03	4.488969E-16	3.717660E-18
4.678991E+03	4.493242E-16	3.630253E-18
4.688947E+03	4.487501E-16	3.537812E-18
4.698902E+03	4.471955E-16	3.441303E-18
4.708857E+03	4.447144E-16	3.341892E-18
4.718813E+03	4.413711E-16	3.240745E-18
4.728768E+03	4.372552E-16	3.139124E-18
4.738723E+03	4.324688E-16	3.038274E-18
4.748678E+03	4.271356E-16	2.939483E-18
4.758634E+03	4.213979E-16	2.844041E-18
4.768589E+03	4.154083E-16	2.753190E-18
4.778544E+03	4.093423E-16	2.668200E-18
4.788500E+03	4.033881E-16	2.590315E-18
4.798455E+03	3.977290E-16	2.520643E-18
4.808410E+03	3.925258E-16	2.460074E-18
4.818366E+03	3.879317E-16	2.409402E-18
4.828321E+03	3.840770E-16	2.369244E-18
4.838276E+03	3.810763E-16	2.340016E-18
4.848231E+03	3.790231E-16	2.321926E-18
4.858187E+03	3.779801E-16	2.315025E-18
4.868142E+03	3.779918E-16	2.319308E-18
4.878097E+03	3.790829E-16	2.334701E-18
4.888053E+03	3.812438E-16	2.360976E-18
4.898008E+03	3.844456E-16	2.397834E-18
4.907963E+03	3.886247E-16	2.444803E-18
4.917919E+03	3.936883E-16	2.501253E-18
4.927874E+03	3.994959E-16	2.566257E-18
4.937829E+03	4.058837E-16	2.638725E-18
4.947784E+03	4.126502E-16	2.717285E-18
4.957740E+03	4.195712E-16	2.800353E-18
4.967695E+03	4.263973E-16	2.886097E-18
4.977650E+03	4.328824E-16	2.972613E-18
4.987606E+03	4.388015E-16	3.058038E-18
4.997561E+03	4.439566E-16	3.140599E-18
5.007516E+03	4.482122E-16	3.218885E-18
5.017472E+03	4.514911E-16	3.291843E-18
5.027427E+03	4.537829E-16	3.358882E-18
5.037382E+03	4.551365E-16	3.419853E-18
5.047337E+03	4.556699E-16	3.475163E-18
5.057293E+03	4.555215E-16	3.525441E-18
5.067248E+03	4.548740E-16	3.571737E-18
5.077203E+03	4.539102E-16	3.615199E-18
5.087159E+03	4.527988E-16	3.656958E-18
5.097114E+03	4.517181E-16	3.698309E-18
5.107069E+03	4.507961E-16	3.740224E-18
5.117025E+03	4.501646E-16	3.783769E-18
5.126980E+03	4.499052E-16	3.829650E-18
5.136935E+03	4.500960E-16	3.878582E-18
5.146890E+03	4.507778E-16	3.930989E-18
5.156846E+03	4.519918E-16	3.987319E-18
5.166801E+03	4.537703E-16	4.047954E-18
5.176756E+03	4.561298E-16	4.113149E-18
5.186712E+03	4.590878E-16	4.183165E-18
5.196667E+03	4.626573E-16	4.258229E-18
5.206622E+03	4.668449E-16	4.338504E-18
5.216578E+03	4.716534E-16	4.424115E-18
5.226533E+03	4.770693E-16	4.515027E-18
5.236488E+03	4.830604E-16	4.611014E-18
5.246443E+03	4.895837E-16	4.711729E-18
5.256399E+03	4.965852E-16	4.816697E-18
5.266354E+03	5.039870E-16	4.925186E-18
5.276309E+03	5.117085E-16	5.036411E-18
5.286265E+03	5.196534E-16	5.149406E-18
5.296220E+03	5.277123E-16	5.263041E-18
5.306175E+03	5.357813E-16	5.376216E-18
5.316131E+03	5.437437E-16	5.487680E-18
5.326086E+03	5.514965E-16	5.596292E-18
5.336041E+03	5.589316E-16	5.700844E-18
5.345996E+03	5.659626E-16	5.800337E-18
5.355952E+03	5.725058E-16	5.893787E-18
5.365907E+03	5.785075E-16	5.980519E-18
5.375862E+03	5.839223E-16	6.059944E-18
5.385818E+03	5.887385E-16	6.131831E-18
5.395773E+03	5.929551E-16	6.196071E-18
5.405728E+03	5.965990E-16	6.252858E-18
5.415684E+03	5.996974E-16	6.302407E-18
5.425639E+03	6.022839E-16	6.345011E-18
5.435594E+03	6.043892E-16	6.380952E-18
5.445549E+03	6.060083E-16	6.410143E-18
5.455505E+03	6.071135E-16	6.432267E-18
5.465460E+03	6.076182E-16	6.446391E-18
5.475415E+03	6.073480E-16	6.450653E-18
5.485371E+03	6.060272E-16	6.442120E-18
5.495326E+03	6.033277E-16	6.417302E-18
5.505281E+03	5.989318E-16	6.372808E-18
5.515237E+03	5.925748E-16	6.305828E-18
5.525192E+03	5.840820E-16	6.214539E-18
5.535147E+03	5.734063E-16	6.098510E-18
5.545102E+03	5.606365E-16	5.958794E-18
5.555058E+03	5.459904E-16	5.797844E-18
5.565013E+03	5.298069E-16	5.619425E-18
5.574968E+03	5.125006E-16	5.428115E-18
5.584924E+03	4.945306E-16	5.228959E-18
5.594879E+03	4.763897E-16	5.027339E-18
5.604834E+03	4.585481E-16	4.828368E-18
5.614790E+03	4.414493E-16	4.636827E-18
5.624745E+03	4.255079E-16	4.457147E-18
5.634700E+03	4.110765E-16	4.293043E-18
5.644655E+03	3.984617E-16	4.147685E-18
5.654611E+03	3.879218E-16	4.023674E-18
5.664566E+03	3.796760E-16	3.923138E-18
5.674521E+03	3.739005E-16	3.847691E-18
5.684477E+03	3.707507E-16	3.798667E-18
5.694432E+03	3.703528E-16	3.777035E-18
5.704387E+03	3.728218E-16	3.783587E-18
5.714343E+03	3.782656E-16	3.818973E-18
5.724298E+03	3.867768E-16	3.883630E-18
5.734253E+03	3.984305E-16	3.977755E-18
5.744209E+03	4.132878E-16	4.101344E-18
5.754164E+03	4.313673E-16	4.253922E-18
5.764119E+03	4.526454E-16	4.434554E-18
5.774074E+03	4.770204E-16	4.641510E-18
5.784030E+03	5.043074E-16	4.872256E-18
5.793985E+03	5.342059E-16	5.123167E-18
5.803940E+03	5.662817E-16	5.389408E-18
5.813896E+03	5.999701E-16	5.665028E-18
5.823851E+03	6.345857E-16	5.943102E-18
5.833806E+03	6.693242E-16	6.215821E-18
5.843762E+03	7.033278E-16	6.475149E-18
5.853717E+03	7.356919E-16	6.712920E-18
5.863672E+03	7.655646E-16	6.921776E-18
5.873627E+03	7.921453E-16	7.095144E-18
5.883583E+03	8.147502E-16	7.227798E-18
5.893538E+03	8.328677E-16	7.316310E-18
5.903493E+03	8.461215E-16	7.358649E-18
5.913449E+03	8.543755E-16	7.355031E-18
5.923404E+03	8.576386E-16	7.306989E-18
5.933359E+03	8.561478E-16	7.218004E-18
5.943315E+03	8.502798E-16	7.092662E-18
5.953270E+03	8.405458E-16	6.936532E-18
5.963225E+03	8.275670E-16	6.755903E-18
5.973180E+03	8.119994E-16	6.557119E-18
5.983136E+03	7.945148E-16	6.346403E-18
5.993091E+03	7.757514E-16	6.129465E-18
6.003046E+03	7.563090E-16	5.911476E-18
6.013002E+03	7.366933E-16	5.696656E-18
6.022957E+03	7.173526E-16	5.488603E-18
6.032912E+03	6.986388E-16	5.290023E-18
6.042868E+03	6.808270E-16	5.102930E-18
6.052823E+03	6.641297E-16	4.928782E-18
6.062778E+03	6.486967E-16	4.768518E-18
6.072733E+03	6.346159E-16	4.622591E-18
6.082689E+03	6.219429E-16	4.491207E-18
6.092644E+03	6.107010E-16	4.374349E-18
6.102599E+03	6.008763E-16	4.271746E-18
6.112555E+03	5.924495E-16	4.183121E-18
6.122510E+03	5.853755E-16	4.108047E-18
6.132465E+03	5.795926E-16	4.046018E-18
6.142421E+03	5.750315E-16	3.996515E-18
6.152376E+03	5.716155E-16	3.959011E-18
6.162331E+03	5.692484E-16	3.932879E-18
6.172286E+03	5.678139E-16	3.917391E-18
6.182242E+03	5.671915E-16	3.911818E-18
6.192197E+03	5.672316E-16	3.915233E-18
6.202152E+03	5.677778E-16	3.926514E-18
6.212108E+03	5.686529E-16	3.944307E-18
6.222063E+03	5.697072E-16	3.967444E-18
6.232018E+03	5.708326E-16	3.995020E-18
6.241974E+03	5.719216E-16	4.026112E-18
6.251929E+03	5.728776E-16	4.059850E-18
6.261884E+03	5.735918E-16	4.095244E-18
6.271839E+03	5.739855E-16	4.131486E-18
6.281795E+03	5.739878E-16	4.167793E-18
6.291750E+03	5.735523E-16	4.203532E-18
6.301705E+03	5.726716E-16	4.238338E-18
6.311661E+03	5.713472E-16	4.271901E-18
6.321616E+03	5.696105E-16	4.304134E-18
6.331571E+03	5.675231E-16	4.335189E-18
6.341527E+03	5.651515E-16	4.365275E-18
6.351482E+03	5.625481E-16	4.394522E-18
6.361437E+03	5.597869E-16	4.423253E-18
6.371392E+03	5.569290E-16	4.451723E-18
6.381348E+03	5.540195E-16	4.480090E-18
6.391303E+03	5.510923E-16	4.508446E-18
6.401258E+03	5.481709E-16	4.536822E-18
6.411214E+03	5.452757E-16	4.565241E-18
6.421169E+03	5.424178E-16	4.593666E-18
6.431124E+03	5.396095E-16	4.622083E-18
6.441080E+03	5.368646E-16	4.650506E-18
6.451035E+03	5.342091E-16	4.679067E-18
6.460990E+03	5.317031E-16	4.708216E-18
6.470945E+03	5.294133E-16	4.738492E-18
6.480901E+03	5.274283E-16	4.770665E-18
6.490856E+03	5.258425E-16	4.805598E-18
6.500811E+03	5.247681E-16	4.844355E-18
6.510767E+03	5.242985E-16	4.887871E-18
6.520722E+03	5.245462E-16	4.937295E-18
6.530677E+03	5.255847E-16	4.993443E-18
6.540633E+03	5.274440E-16	5.056739E-18
6.550588E+03	5.301279E-16	5.127355E-18
6.560543E+03	5.335745E-16	5.204819E-18
6.570498E+03	5.376806E-16	5.288227E-18
6.580454E+03	5.422997E-16	5.376201E-18
6.590409E+03	5.472471E-16	5.466933E-18
6.600364E+03	5.523140E-16	5.558313E-18
6.610320E+03	5.572657E-16	5.647901E-18
6.620275E+03	5.618523E-16	5.733041E-18
6.630230E+03	5.658432E-16	5.811210E-18
6.640186E+03	5.690221E-16	5.879979E-18
6.650141E+03	5.712067E-16	5.937236E-18
6.660096E+03	5.722654E-16	5.981368E-18
6.670051E+03	5.721021E-16	6.011126E-18
6.680007E+03	5.706860E-16	6.025952E-18
6.689962E+03	5.680225E-16	6.025690E-18
6.699917E+03	5.641825E-16	6.010907E-18
6.709873E+03	5.592488E-16	5.982336E-18
6.719828E+03	5.533645E-16	5.941394E-18
6.729783E+03	5.466788E-16	5.889609E-18
6.739739E+03	5.393678E-16	5.828841E-18
6.749694E+03	5.316284E-16	5.761212E-18
6.759649E+03	5.236587E-16	5.688896E-18
6.769604E+03	5.156535E-16	5.614059E-18
6.779560E+03	5.078256E-16	5.539086E-18
6.789515E+03	5.003565E-16	5.466037E-18
6.799470E+03	4.934382E-16	5.397097E-18
6.809426E+03	4.872518E-16	5.334331E-18
6.819381E+03	4.819529E-16	5.279522E-18
6.829336E+03	4.776896E-16	5.234360E-18
6.839292E+03	4.745957E-16	5.200359E-18
6.849247E+03	4.727955E-16	5.178910E-18
6.859202E+03	4.723840E-16	5.171054E-18
6.869157E+03	4.734470E-16	5.177704E-18
6.879113E+03	4.760324E-16	5.199326E-18
6.889068E+03	4.801690E-16	5.236147E-18
6.899023E+03	4.858415E-16	5.287878E-18
6.908979E+03	4.930135E-16	5.353974E-18
6.918934E+03	5.016060E-16	5.433404E-18
6.928889E+03	5.114928E-16	5.524607E-18
6.938845E+03	5.225076E-16	5.625579E-18
6.948800E+03	5.344473E-16	5.733926E-18
6.958755E+03	5.470265E-16	5.846385E-18
6.968710E+03	5.599598E-16	5.959732E-18
6.978666E+03	5.728893E-16	6.070015E-18
6.988621E+03	5.854793E-16	6.173590E-18
6.998576E+03	5.973869E-16	6.266814E-18
7.008532E+03	6.082903E-16	6.346351E-18
7.018487E+03	6.179254E-16	6.409560E-18
7.028442E+03	6.260944E-16	6.454576E-18
7.038398E+03	6.326799E-16	6.480435E-18
7.048353E+03	6.376615E-16	6.487227E-18
7.058308E+03	6.410751E-16	6.475645E-18
7.068263E+03	6.430603E-16	6.447448E-18
7.078219E+03	6.438151E-16	6.404961E-18
7.088174E+03	6.435749E-16	6.350841E-18
7.098129E+03	6.426248E-16	6.288179E-18
7.108085E+03	6.412447E-16	6.219937E-18
7.118040E+03	6.397146E-16	6.148996E-18
7.127995E+03	6.382932E-16	6.077940E-18
7.137951E+03	6.371928E-16	6.008834E-18
7.147906E+03	6.366069E-16	5.943484E-18
7.157861E+03	6.366312E-16	5.882726E-18
7.167817E+03	6.373420E-16	5.827180E-18
7.177772E+03	6.387567E-16	5.776905E-18
7.187727E+03	6.408051E-16	5.731171E-18
7.197682E+03	6.434082E-16	5.689204E-18
7.207638E+03	6.464161E-16	5.649650E-18
7.217593E+03	6.496398E-16	5.610886E-18
7.227548E+03	6.528806E-16	5.571300E-18
7.237504E+03	6.558928E-16	5.528976E-18
7.247459E+03	6.584401E-16	5.482196E-18
7.257414E+03	6.602973E-16	5.429444E-18
7.267370E+03	6.612255E-16	5.369202E-18
7.277325E+03	6.610260E-16	5.300384E-18
7.287280E+03	6.595284E-16	5.222220E-18
7.297235E+03	6.566280E-16	5.134521E-18
7.307191E+03	6.522487E-16	5.037360E-18
7.317146E+03	6.463855E-16	4.931374E-18
7.327101E+03	6.391147E-16	4.817795E-18
7.337057E+03	6.305561E-16	4.698129E-18
7.347012E+03	6.208789E-16	4.574179E-18
7.356967E+03	6.102986E-16	4.447991E-18
7.366923E+03	5.990362E-16	4.321550E-18
7.376878E+03	5.873479E-16	4.196989E-18
7.386833E+03	5.754769E-16	4.076245E-18
7.396788E+03	5.636295E-16	3.960904E-18
7.406744E+03	5.520285E-16	3.852594E-18
7.416699E+03	5.408519E-16	3.752567E-18
7.426654E+03	5.302447E-16	3.661806E-18
7.436610E+03	5.203199E-16	3.581047E-18
7.446565E+03	5.111662E-16	3.510851E-18
7.456520E+03	5.028361E-16	3.451528E-18
7.466476E+03	4.953629E-16	3.403269E-18
7.476431E+03	4.887559E-16	3.366115E-18
7.486386E+03	4.830029E-16	3.339877E-18
7.496341E+03	4.780519E-16	3.323995E-18
7.506297E+03	4.738731E-16	3.318081E-18
7.516252E+03	4.703716E-16	3.321313E-18
7.526207E+03	4.674745E-16	3.333034E-18
7.536163E+03	4.650699E-16	3.352310E-18
7.546118E+03	4.630213E-16	3.378019E-18
7.556073E+03	4.611975E-16	3.409042E-18
7.566029E+03	4.594385E-16	3.444008E-18
7.575984E+03	4.575994E-16	3.481600E-18
7.585939E+03	4.555633E-16	3.520650E-18
7.595894E+03	4.534469E-16	3.561772E-18
7.605850E+03	4.514320E-16	3.606153E-18
7.615805E+03	4.496760E-16	3.654895E-18
7.625760E+03	4.483111E-16	3.708991E-18
7.635716E+03	4.474384E-16	3.769271E-18
7.645671E+03	4.471252E-16	3.836358E-18
7.655626E+03	4.474096E-16	3.910693E-18
7.665582E+03	4.482887E-16	3.992390E-18
7.675537E+03	4.497198E-16	4.081233E-18
7.685492E+03	4.516380E-16	4.176786E-18
7.695447E+03	4.539599E-16	4.278414E-18
7.705403E+03	4.565686E-16	4.385116E-18
7.715358E+03	4.593453E-16	4.495799E-18
7.725313E+03	4.621495E-16	4.609076E-18
