#wls	flux	fluxerr
1.592848E+03	2.265246E-17	1.408989E-18
1.632669E+03	2.330372E-17	1.442339E-18
1.672491E+03	2.384275E-17	1.468200E-18
1.712312E+03	2.426156E-17	1.486173E-18
1.752133E+03	2.453919E-17	1.495084E-18
1.791954E+03	2.464905E-17	1.493453E-18
1.831775E+03	2.454245E-17	1.478509E-18
1.871597E+03	2.417719E-17	1.447949E-18
1.911418E+03	2.351294E-17	1.399653E-18
1.951239E+03	2.254072E-17	1.333427E-18
1.991060E+03	2.130202E-17	1.252074E-18
2.030881E+03	1.994194E-17	1.164397E-18
2.070703E+03	1.870489E-17	1.084746E-18
2.110524E+03	1.789015E-17	1.030239E-18
2.150345E+03	1.773946E-17	1.014201E-18
2.190166E+03	1.834670E-17	1.041136E-18
2.229987E+03	1.965316E-17	1.106753E-18
2.269809E+03	2.147386E-17	1.199767E-18
2.309630E+03	2.360301E-17	1.308034E-18
2.349451E+03	2.585388E-17	1.420809E-18
2.389272E+03	2.808314E-17	1.530041E-18
2.429093E+03	3.022472E-17	1.632123E-18
2.468915E+03	3.222853E-17	1.724433E-18
2.508736E+03	3.407968E-17	1.806318E-18
2.548557E+03	3.578403E-17	1.878256E-18
2.588378E+03	3.735539E-17	1.941131E-18
2.628199E+03	3.879214E-17	1.995015E-18
2.668021E+03	4.011174E-17	2.040961E-18
2.707842E+03	4.133191E-17	2.080006E-18
2.747663E+03	4.246355E-17	2.112813E-18
2.787484E+03	4.351036E-17	2.139674E-18
2.827305E+03	4.450211E-17	2.162142E-18
2.867127E+03	4.544850E-17	2.180744E-18
2.906948E+03	4.635914E-17	2.195982E-18
2.946769E+03	4.726334E-17	2.209256E-18
2.986590E+03	4.817711E-17	2.221283E-18
2.996546E+03	4.840628E-17	2.224053E-18
3.006501E+03	4.864455E-17	2.227131E-18
3.016456E+03	4.887895E-17	2.229919E-18
3.026411E+03	4.912362E-17	2.233063E-18
3.036367E+03	4.937577E-17	2.236430E-18
3.046322E+03	4.963882E-17	2.240169E-18
3.056277E+03	4.991397E-17	2.244330E-18
3.066233E+03	5.020653E-17	2.249143E-18
3.076188E+03	5.050246E-17	2.253972E-18
3.086143E+03	5.082028E-17	2.259638E-18
3.096099E+03	5.113965E-17	2.265230E-18
3.106054E+03	5.147282E-17	2.271285E-18
3.116009E+03	5.181906E-17	2.277765E-18
3.125964E+03	5.217134E-17	2.284353E-18
3.135920E+03	5.253549E-17	2.291300E-18
3.145875E+03	5.291111E-17	2.298582E-18
3.155830E+03	5.329130E-17	2.305894E-18
3.165786E+03	5.368853E-17	2.313770E-18
3.175741E+03	5.408966E-17	2.321636E-18
3.185696E+03	5.450081E-17	2.329750E-18
3.195652E+03	5.492815E-17	2.338371E-18
3.205607E+03	5.536499E-17	2.347203E-18
3.215562E+03	5.580486E-17	2.355969E-18
3.225517E+03	5.626667E-17	2.365461E-18
3.235473E+03	5.673755E-17	2.375126E-18
3.245428E+03	5.721736E-17	2.384955E-18
3.255383E+03	5.771244E-17	2.395203E-18
3.265339E+03	5.822261E-17	2.405854E-18
3.275294E+03	5.874149E-17	2.416638E-18
3.285249E+03	5.927539E-17	2.427805E-18
3.295205E+03	5.983049E-17	2.439599E-18
3.305160E+03	6.040049E-17	2.451752E-18
3.315115E+03	6.097904E-17	2.463997E-18
3.325070E+03	6.158497E-17	2.477086E-18
3.335026E+03	6.220570E-17	2.490499E-18
3.344981E+03	6.284120E-17	2.504225E-18
3.354936E+03	6.349775E-17	2.518505E-18
3.364892E+03	6.417535E-17	2.533324E-18
3.374847E+03	6.487399E-17	2.548669E-18
3.384802E+03	6.559374E-17	2.564530E-18
3.394758E+03	6.633466E-17	2.580896E-18
3.404713E+03	6.710302E-17	2.597995E-18
3.414668E+03	6.789277E-17	2.615578E-18
3.424623E+03	6.871022E-17	2.633874E-18
3.434579E+03	6.954941E-17	2.652636E-18
3.444534E+03	7.042291E-17	2.672329E-18
3.454489E+03	7.132488E-17	2.692709E-18
3.464445E+03	7.224958E-17	2.713544E-18
3.474400E+03	7.321584E-17	2.735521E-18
3.484355E+03	7.421192E-17	2.758179E-18
3.494311E+03	7.523851E-17	2.781524E-18
3.504266E+03	7.630240E-17	2.805784E-18
3.514221E+03	7.741051E-17	2.831191E-18
3.524176E+03	7.855168E-17	2.857309E-18
3.534132E+03	7.973903E-17	2.884591E-18
3.544087E+03	8.096778E-17	2.912836E-18
3.554042E+03	8.224528E-17	2.942280E-18
3.563998E+03	8.357299E-17	2.972944E-18
3.573953E+03	8.494655E-17	3.004640E-18
3.583908E+03	8.637971E-17	3.037822E-18
3.593864E+03	8.786839E-17	3.072310E-18
3.603819E+03	8.942068E-17	3.108347E-18
3.613774E+03	9.103274E-17	3.145760E-18
3.623729E+03	9.271295E-17	3.184798E-18
3.633685E+03	9.445777E-17	3.225296E-18
3.643640E+03	9.628177E-17	3.267704E-18
3.653595E+03	9.818169E-17	3.311863E-18
3.663551E+03	1.001663E-16	3.358015E-18
3.673506E+03	1.022324E-16	3.405998E-18
3.683461E+03	1.043889E-16	3.456054E-18
3.693417E+03	1.066326E-16	3.508020E-18
3.703372E+03	1.089785E-16	3.562325E-18
3.713327E+03	1.114232E-16	3.618794E-18
3.723282E+03	1.139694E-16	3.677447E-18
3.733238E+03	1.166196E-16	3.738293E-18
3.743193E+03	1.193818E-16	3.801526E-18
3.753148E+03	1.222582E-16	3.867133E-18
3.763104E+03	1.252438E-16	3.934888E-18
3.773059E+03	1.283522E-16	4.005135E-18
3.783014E+03	1.315713E-16	4.077420E-18
3.792970E+03	1.349132E-16	4.152045E-18
3.802925E+03	1.383709E-16	4.228707E-18
3.812880E+03	1.419487E-16	4.307461E-18
3.822835E+03	1.456376E-16	4.387953E-18
3.832791E+03	1.494336E-16	4.469990E-18
3.842746E+03	1.533381E-16	4.553544E-18
3.852701E+03	1.573452E-16	4.638359E-18
3.862657E+03	1.614473E-16	4.724150E-18
3.872612E+03	1.656291E-16	4.810406E-18
3.882567E+03	1.698872E-16	4.896971E-18
3.892523E+03	1.742166E-16	4.983653E-18
3.902478E+03	1.785915E-16	5.069668E-18
3.912433E+03	1.830045E-16	5.154775E-18
3.922388E+03	1.874470E-16	5.238711E-18
3.932344E+03	1.918895E-16	5.320633E-18
3.942299E+03	1.963217E-16	5.400256E-18
3.952254E+03	2.007257E-16	5.477101E-18
3.962210E+03	2.050900E-16	5.550875E-18
3.972165E+03	2.093830E-16	5.620751E-18
3.982120E+03	2.135863E-16	5.686291E-18
3.992076E+03	2.176956E-16	5.747443E-18
4.002031E+03	2.216805E-16	5.803473E-18
4.011986E+03	2.255252E-16	5.854054E-18
4.021941E+03	2.292218E-16	5.899082E-18
4.031897E+03	2.327575E-16	5.938330E-18
4.041852E+03	2.361084E-16	5.971304E-18
4.051807E+03	2.392726E-16	5.998085E-18
4.061763E+03	2.422440E-16	6.018651E-18
4.071718E+03	2.450127E-16	6.032889E-18
4.081673E+03	2.475779E-16	6.040920E-18
4.091629E+03	2.499476E-16	6.043084E-18
4.101584E+03	2.521137E-16	6.039317E-18
4.111539E+03	2.540831E-16	6.029932E-18
4.121494E+03	2.558653E-16	6.015286E-18
4.131450E+03	2.574778E-16	5.995921E-18
4.141405E+03	2.589159E-16	5.971849E-18
4.151360E+03	2.602011E-16	5.943683E-18
4.161316E+03	2.613500E-16	5.911913E-18
4.171271E+03	2.623745E-16	5.876904E-18
4.181226E+03	2.632936E-16	5.839168E-18
4.191182E+03	2.641155E-16	5.798964E-18
4.201137E+03	2.648658E-16	5.756923E-18
4.211092E+03	2.655646E-16	5.713533E-18
4.221047E+03	2.662210E-16	5.669035E-18
4.231003E+03	2.668496E-16	5.623775E-18
4.240958E+03	2.674756E-16	5.578305E-18
4.250913E+03	2.681125E-16	5.532921E-18
4.260869E+03	2.687739E-16	5.487901E-18
4.270824E+03	2.694727E-16	5.443503E-18
4.280779E+03	2.702211E-16	5.399961E-18
4.290735E+03	2.710407E-16	5.357681E-18
4.300690E+03	2.719376E-16	5.316750E-18
4.310645E+03	2.729218E-16	5.277329E-18
4.320601E+03	2.740035E-16	5.239568E-18
4.330556E+03	2.752010E-16	5.203770E-18
4.340511E+03	2.765135E-16	5.169862E-18
4.350466E+03	2.779535E-16	5.138022E-18
4.360422E+03	2.795331E-16	5.108404E-18
4.370377E+03	2.812492E-16	5.080892E-18
4.380332E+03	2.831209E-16	5.055758E-18
4.390288E+03	2.851429E-16	5.032837E-18
4.400243E+03	2.873178E-16	5.012105E-18
4.410198E+03	2.896556E-16	4.993668E-18
4.420154E+03	2.921561E-16	4.977448E-18
4.430109E+03	2.948164E-16	4.963330E-18
4.440064E+03	2.976366E-16	4.951241E-18
4.450019E+03	3.006092E-16	4.940997E-18
4.459975E+03	3.037246E-16	4.932378E-18
4.469930E+03	3.069834E-16	4.925340E-18
4.479885E+03	3.103697E-16	4.919587E-18
4.489841E+03	3.138650E-16	4.914787E-18
4.499796E+03	3.174562E-16	4.910716E-18
4.509751E+03	3.211229E-16	4.907051E-18
4.519707E+03	3.248422E-16	4.903442E-18
4.529662E+03	3.285882E-16	4.899523E-18
4.539617E+03	3.323333E-16	4.894918E-18
4.549572E+03	3.360522E-16	4.889310E-18
4.559528E+03	3.397098E-16	4.882258E-18
4.569483E+03	3.432834E-16	4.873528E-18
4.579438E+03	3.467371E-16	4.862712E-18
4.589394E+03	3.500353E-16	4.849434E-18
4.599349E+03	3.531616E-16	4.833607E-18
4.609304E+03	3.560790E-16	4.814873E-18
4.619260E+03	3.587665E-16	4.793111E-18
4.629215E+03	3.612013E-16	4.768189E-18
4.639170E+03	3.633643E-16	4.740034E-18
4.649125E+03	3.652448E-16	4.708691E-18
4.659081E+03	3.668272E-16	4.674144E-18
4.669036E+03	3.681048E-16	4.636497E-18
4.678991E+03	3.690801E-16	4.595966E-18
4.688947E+03	3.697509E-16	4.552699E-18
4.698902E+03	3.701283E-16	4.507008E-18
4.708857E+03	3.702186E-16	4.459128E-18
4.718813E+03	3.700310E-16	4.409325E-18
4.728768E+03	3.695909E-16	4.358042E-18
4.738723E+03	3.689074E-16	4.305511E-18
4.748678E+03	3.680020E-16	4.252100E-18
4.758634E+03	3.668902E-16	4.198087E-18
4.768589E+03	3.656019E-16	4.143904E-18
4.778544E+03	3.642170E-16	4.090522E-18
4.788500E+03	3.628094E-16	4.038810E-18
4.798455E+03	3.614584E-16	3.989660E-18
4.808410E+03	3.602316E-16	3.943802E-18
4.818366E+03	3.591807E-16	3.901724E-18
4.828321E+03	3.583624E-16	3.863929E-18
4.838276E+03	3.578208E-16	3.830772E-18
4.848231E+03	3.575830E-16	3.802421E-18
4.858187E+03	3.576754E-16	3.779034E-18
4.868142E+03	3.581149E-16	3.760669E-18
4.878097E+03	3.589050E-16	3.747245E-18
4.888053E+03	3.600437E-16	3.738630E-18
4.898008E+03	3.615154E-16	3.734562E-18
4.907963E+03	3.632996E-16	3.734733E-18
4.917919E+03	3.653550E-16	3.738635E-18
4.927874E+03	3.676530E-16	3.745899E-18
4.937829E+03	3.701423E-16	3.755933E-18
4.947784E+03	3.727703E-16	3.768148E-18
4.957740E+03	3.754856E-16	3.781973E-18
4.967695E+03	3.782319E-16	3.796794E-18
4.977650E+03	3.809498E-16	3.811980E-18
4.987606E+03	3.835969E-16	3.827072E-18
4.997561E+03	3.861245E-16	3.841554E-18
5.007516E+03	3.884967E-16	3.855040E-18
5.017472E+03	3.906920E-16	3.867292E-18
5.027427E+03	3.926912E-16	3.878095E-18
5.037382E+03	3.944996E-16	3.887473E-18
5.047337E+03	3.961112E-16	3.895342E-18
5.057293E+03	3.975553E-16	3.901963E-18
5.067248E+03	3.988513E-16	3.907499E-18
5.077203E+03	4.000243E-16	3.912168E-18
5.087159E+03	4.011154E-16	3.916343E-18
5.097114E+03	4.021496E-16	3.920239E-18
5.107069E+03	4.031687E-16	3.924234E-18
5.117025E+03	4.041988E-16	3.928556E-18
5.126980E+03	4.052671E-16	3.933442E-18
5.136935E+03	4.063966E-16	3.939089E-18
5.146890E+03	4.076055E-16	3.945651E-18
5.156846E+03	4.089074E-16	3.953237E-18
5.166801E+03	4.103154E-16	3.961953E-18
5.176756E+03	4.118292E-16	3.971779E-18
5.186712E+03	4.134489E-16	3.982700E-18
5.196667E+03	4.151700E-16	3.994662E-18
5.206622E+03	4.169848E-16	4.007581E-18
5.216578E+03	4.188817E-16	4.021337E-18
5.226533E+03	4.208459E-16	4.035786E-18
5.236488E+03	4.228637E-16	4.050795E-18
5.246443E+03	4.249056E-16	4.066083E-18
5.256399E+03	4.269571E-16	4.081517E-18
5.266354E+03	4.289836E-16	4.096775E-18
5.276309E+03	4.309627E-16	4.111655E-18
5.286265E+03	4.328662E-16	4.125903E-18
5.296220E+03	4.346659E-16	4.139267E-18
5.306175E+03	4.363342E-16	4.151506E-18
5.316131E+03	4.378448E-16	4.162394E-18
5.326086E+03	4.391693E-16	4.171686E-18
5.336041E+03	4.402867E-16	4.179211E-18
5.345996E+03	4.411886E-16	4.184920E-18
5.355952E+03	4.418482E-16	4.188589E-18
5.365907E+03	4.422651E-16	4.190248E-18
5.375862E+03	4.424343E-16	4.189882E-18
5.385818E+03	4.423497E-16	4.187468E-18
5.395773E+03	4.420132E-16	4.183055E-18
5.405728E+03	4.414285E-16	4.176714E-18
5.415684E+03	4.406008E-16	4.168523E-18
5.425639E+03	4.395346E-16	4.158559E-18
5.435594E+03	4.382330E-16	4.146879E-18
5.445549E+03	4.366962E-16	4.133513E-18
5.455505E+03	4.349161E-16	4.118411E-18
5.465460E+03	4.328898E-16	4.101566E-18
5.475415E+03	4.305990E-16	4.082792E-18
5.485371E+03	4.280253E-16	4.061859E-18
5.495326E+03	4.251412E-16	4.038447E-18
5.505281E+03	4.219280E-16	4.012317E-18
5.515237E+03	4.183795E-16	3.983345E-18
5.525192E+03	4.144921E-16	3.951435E-18
5.535147E+03	4.102890E-16	3.916746E-18
5.545102E+03	4.057889E-16	3.879394E-18
5.555058E+03	4.010514E-16	3.839890E-18
5.565013E+03	3.961360E-16	3.798747E-18
5.574968E+03	3.911207E-16	3.756666E-18
5.584924E+03	3.860999E-16	3.714508E-18
5.594879E+03	3.811651E-16	3.673119E-18
5.604834E+03	3.764260E-16	3.633527E-18
5.614790E+03	3.719947E-16	3.596791E-18
5.624745E+03	3.679716E-16	3.563874E-18
5.634700E+03	3.644690E-16	3.535855E-18
5.644655E+03	3.615788E-16	3.513631E-18
5.654611E+03	3.594003E-16	3.498174E-18
5.664566E+03	3.580093E-16	3.490238E-18
5.674521E+03	3.574821E-16	3.490587E-18
5.684477E+03	3.578809E-16	3.499849E-18
5.694432E+03	3.592526E-16	3.518509E-18
5.704387E+03	3.616355E-16	3.546968E-18
5.714343E+03	3.650581E-16	3.585531E-18
5.724298E+03	3.695279E-16	3.634296E-18
5.734253E+03	3.750437E-16	3.693276E-18
5.744209E+03	3.815768E-16	3.762209E-18
5.754164E+03	3.890902E-16	3.840747E-18
5.764119E+03	3.975226E-16	3.928298E-18
5.774074E+03	4.067902E-16	4.024044E-18
5.784030E+03	4.167812E-16	4.126883E-18
5.793985E+03	4.273674E-16	4.235545E-18
5.803940E+03	4.383837E-16	4.348391E-18
5.813896E+03	4.496593E-16	4.463719E-18
5.823851E+03	4.609919E-16	4.579509E-18
5.833806E+03	4.721649E-16	4.693597E-18
5.843762E+03	4.829629E-16	4.803829E-18
5.853717E+03	4.931623E-16	4.907967E-18
5.863672E+03	5.025576E-16	5.003954E-18
5.873627E+03	5.109518E-16	5.089819E-18
5.883583E+03	5.181737E-16	5.163853E-18
5.893538E+03	5.241003E-16	5.224828E-18
5.903493E+03	5.286272E-16	5.271711E-18
5.913449E+03	5.317072E-16	5.304037E-18
5.923404E+03	5.333256E-16	5.321679E-18
5.933359E+03	5.335148E-16	5.324977E-18
5.943315E+03	5.323503E-16	5.314712E-18
5.953270E+03	5.299254E-16	5.291843E-18
5.963225E+03	5.263809E-16	5.257806E-18
5.973180E+03	5.218569E-16	5.214033E-18
5.983136E+03	5.165261E-16	5.162285E-18
5.993091E+03	5.105470E-16	5.104181E-18
6.003046E+03	5.040879E-16	5.041438E-18
6.013002E+03	4.973206E-16	4.975808E-18
6.022957E+03	4.903877E-16	4.908755E-18
6.032912E+03	4.834333E-16	4.841755E-18
6.042868E+03	4.765817E-16	4.776090E-18
6.052823E+03	4.699409E-16	4.712879E-18
6.062778E+03	4.635986E-16	4.653037E-18
6.072733E+03	4.576392E-16	4.597455E-18
6.082689E+03	4.521146E-16	4.546694E-18
6.092644E+03	4.470795E-16	4.501350E-18
6.102599E+03	4.425580E-16	4.461713E-18
6.112555E+03	4.385705E-16	4.428044E-18
6.122510E+03	4.351306E-16	4.400533E-18
6.132465E+03	4.322285E-16	4.379141E-18
6.142421E+03	4.298449E-16	4.363739E-18
6.152376E+03	4.279557E-16	4.354147E-18
6.162331E+03	4.265364E-16	4.350184E-18
6.172286E+03	4.255497E-16	4.351545E-18
6.182242E+03	4.249589E-16	4.357926E-18
6.192197E+03	4.247193E-16	4.368940E-18
6.202152E+03	4.247666E-16	4.383950E-18
6.212108E+03	4.250378E-16	4.402302E-18
6.222063E+03	4.254831E-16	4.423470E-18
6.232018E+03	4.260740E-16	4.447141E-18
6.241974E+03	4.267769E-16	4.472952E-18
6.251929E+03	4.275644E-16	4.500595E-18
6.261884E+03	4.284083E-16	4.529749E-18
6.271839E+03	4.292682E-16	4.559960E-18
6.281795E+03	4.301223E-16	4.590965E-18
6.291750E+03	4.309433E-16	4.622435E-18
6.301705E+03	4.317030E-16	4.654026E-18
6.311661E+03	4.323898E-16	4.685569E-18
6.321616E+03	4.329793E-16	4.716748E-18
6.331571E+03	4.334685E-16	4.747481E-18
6.341527E+03	4.338498E-16	4.777628E-18
6.351482E+03	4.341150E-16	4.807045E-18
6.361437E+03	4.342721E-16	4.835763E-18
6.371392E+03	4.343186E-16	4.863701E-18
6.381348E+03	4.342633E-16	4.890899E-18
6.391303E+03	4.341079E-16	4.917325E-18
6.401258E+03	4.338602E-16	4.943011E-18
6.411214E+03	4.335384E-16	4.968117E-18
6.421169E+03	4.331402E-16	4.992568E-18
6.431124E+03	4.326826E-16	5.016514E-18
6.441080E+03	4.321758E-16	5.040029E-18
6.451035E+03	4.316364E-16	5.063260E-18
6.460990E+03	4.310784E-16	5.086322E-18
6.470945E+03	4.305176E-16	5.109354E-18
6.480901E+03	4.299838E-16	5.132670E-18
6.490856E+03	4.295017E-16	5.156530E-18
6.500811E+03	4.290974E-16	5.181222E-18
6.510767E+03	4.287783E-16	5.206813E-18
6.520722E+03	4.285580E-16	5.233451E-18
6.530677E+03	4.284385E-16	5.261141E-18
6.540633E+03	4.284091E-16	5.289738E-18
6.550588E+03	4.284513E-16	5.318996E-18
6.560543E+03	4.285432E-16	5.348624E-18
6.570498E+03	4.286510E-16	5.378173E-18
6.580454E+03	4.287384E-16	5.407157E-18
6.590409E+03	4.287501E-16	5.434842E-18
6.600364E+03	4.286455E-16	5.460665E-18
6.610320E+03	4.283687E-16	5.483862E-18
6.620275E+03	4.278740E-16	5.503784E-18
6.630230E+03	4.271147E-16	5.519766E-18
6.640186E+03	4.260504E-16	5.531209E-18
6.650141E+03	4.246442E-16	5.537557E-18
6.660096E+03	4.228837E-16	5.538574E-18
6.670051E+03	4.207543E-16	5.533987E-18
6.680007E+03	4.182535E-16	5.523692E-18
6.689962E+03	4.154055E-16	5.507938E-18
6.699917E+03	4.122325E-16	5.486959E-18
6.709873E+03	4.087769E-16	5.461266E-18
6.719828E+03	4.050812E-16	5.431386E-18
6.729783E+03	4.012010E-16	5.398031E-18
6.739739E+03	3.972022E-16	5.362071E-18
6.749694E+03	3.931464E-16	5.324325E-18
6.759649E+03	3.891068E-16	5.285787E-18
6.769604E+03	3.851484E-16	5.247355E-18
6.779560E+03	3.813451E-16	5.210054E-18
6.789515E+03	3.777596E-16	5.174769E-18
6.799470E+03	3.744650E-16	5.142536E-18
6.809426E+03	3.715081E-16	5.114038E-18
6.819381E+03	3.689569E-16	5.090253E-18
6.829336E+03	3.668519E-16	5.071783E-18
6.839292E+03	3.652399E-16	5.059319E-18
6.849247E+03	3.641565E-16	5.053396E-18
6.859202E+03	3.636293E-16	5.054435E-18
6.869157E+03	3.636733E-16	5.062683E-18
6.879113E+03	3.643031E-16	5.078369E-18
6.889068E+03	3.655191E-16	5.101526E-18
6.899023E+03	3.673071E-16	5.131970E-18
6.908979E+03	3.696504E-16	5.169479E-18
6.918934E+03	3.725125E-16	5.213546E-18
6.928889E+03	3.758588E-16	5.263680E-18
6.938845E+03	3.796220E-16	5.318928E-18
6.948800E+03	3.837470E-16	5.378500E-18
6.958755E+03	3.881625E-16	5.441371E-18
6.968710E+03	3.927857E-16	5.506357E-18
6.978666E+03	3.975357E-16	5.572290E-18
6.988621E+03	4.023354E-16	5.638062E-18
6.998576E+03	4.071015E-16	5.702472E-18
7.008532E+03	4.117608E-16	5.764468E-18
7.018487E+03	4.162493E-16	5.823127E-18
7.028442E+03	4.205139E-16	5.877688E-18
7.038398E+03	4.245101E-16	5.927508E-18
7.048353E+03	4.282223E-16	5.972363E-18
7.058308E+03	4.316298E-16	6.011956E-18
7.068263E+03	4.347408E-16	6.046401E-18
7.078219E+03	4.375662E-16	6.075852E-18
7.088174E+03	4.401325E-16	6.100684E-18
7.098129E+03	4.424801E-16	6.121463E-18
7.108085E+03	4.446433E-16	6.138672E-18
7.118040E+03	4.466637E-16	6.152895E-18
7.127995E+03	4.485815E-16	6.164691E-18
7.137951E+03	4.504264E-16	6.174475E-18
7.147906E+03	4.522318E-16	6.182707E-18
7.157861E+03	4.540160E-16	6.189640E-18
7.167817E+03	4.557796E-16	6.195285E-18
7.177772E+03	4.575163E-16	6.199560E-18
7.187727E+03	4.592070E-16	6.202210E-18
7.197682E+03	4.608251E-16	6.202887E-18
7.207638E+03	4.623159E-16	6.200869E-18
7.217593E+03	4.636316E-16	6.195544E-18
7.227548E+03	4.647057E-16	6.186058E-18
7.237504E+03	4.654843E-16	6.171741E-18
7.247459E+03	4.658831E-16	6.151541E-18
7.257414E+03	4.658485E-16	6.124829E-18
7.267370E+03	4.653149E-16	6.090837E-18
7.277325E+03	4.642366E-16	6.049076E-18
7.287280E+03	4.625621E-16	5.998997E-18
7.297235E+03	4.602763E-16	5.940546E-18
7.307191E+03	4.573571E-16	5.873578E-18
7.317146E+03	4.538215E-16	5.798468E-18
7.327101E+03	4.496802E-16	5.715510E-18
7.337057E+03	4.449829E-16	5.625488E-18
7.347012E+03	4.397707E-16	5.529077E-18
7.356967E+03	4.341199E-16	5.427377E-18
7.366923E+03	4.280992E-16	5.321380E-18
7.376878E+03	4.217847E-16	5.212149E-18
7.386833E+03	4.152718E-16	5.100966E-18
7.396788E+03	4.086463E-16	4.988963E-18
7.406744E+03	4.019811E-16	4.877100E-18
7.416699E+03	3.953611E-16	4.766448E-18
7.426654E+03	3.888596E-16	4.657916E-18
7.436610E+03	3.825467E-16	4.552356E-18
7.446565E+03	3.764697E-16	4.450319E-18
7.456520E+03	3.706813E-16	4.352405E-18
7.466476E+03	3.652150E-16	4.258975E-18
7.476431E+03	3.601093E-16	4.170431E-18
7.486386E+03	3.553748E-16	4.086840E-18
7.496341E+03	3.510229E-16	4.008277E-18
7.506297E+03	3.470618E-16	3.934768E-18
7.516252E+03	3.434835E-16	3.866137E-18
7.526207E+03	3.402786E-16	3.802183E-18
7.536163E+03	3.374323E-16	3.742649E-18
7.546118E+03	3.349304E-16	3.687288E-18
7.556073E+03	3.327470E-16	3.635732E-18
7.566029E+03	3.308630E-16	3.587696E-18
7.575984E+03	3.292459E-16	3.542756E-18
7.585939E+03	3.278843E-16	3.500726E-18
7.595894E+03	3.267712E-16	3.461470E-18
7.605850E+03	3.259137E-16	3.425005E-18
7.615805E+03	3.253099E-16	3.391253E-18
7.625760E+03	3.249612E-16	3.360169E-18
7.635716E+03	3.248716E-16	3.331740E-18
7.645671E+03	3.250344E-16	3.305839E-18
7.655626E+03	3.254482E-16	3.282401E-18
7.665582E+03	3.261001E-16	3.261244E-18
7.675537E+03	3.269817E-16	3.242241E-18
7.685492E+03	3.280728E-16	3.225151E-18
7.695447E+03	3.293625E-16	3.209836E-18
7.705403E+03	3.308198E-16	3.195967E-18
7.715358E+03	3.324197E-16	3.183290E-18
7.725313E+03	3.341446E-16	3.171631E-18
