#wls	flux	fluxerr
1.592848E+03	2.207199E-17	7.023442E-19
1.632669E+03	2.271826E-17	7.198499E-19
1.672491E+03	2.325563E-17	7.336669E-19
1.712312E+03	2.367624E-17	7.435867E-19
1.752133E+03	2.395971E-17	7.490158E-19
1.791954E+03	2.408009E-17	7.492012E-19
1.831775E+03	2.398972E-17	7.427376E-19
1.871597E+03	2.364724E-17	7.284463E-19
1.911418E+03	2.300856E-17	7.050966E-19
1.951239E+03	2.206922E-17	6.727000E-19
1.991060E+03	2.086562E-17	6.325169E-19
2.030881E+03	1.954401E-17	5.891013E-19
2.070703E+03	1.834035E-17	5.495994E-19
2.110524E+03	1.754900E-17	5.227307E-19
2.150345E+03	1.741146E-17	5.154306E-19
2.190166E+03	1.801825E-17	5.300012E-19
2.229987E+03	1.931336E-17	5.643766E-19
2.269809E+03	2.112475E-17	6.131469E-19
2.309630E+03	2.324553E-17	6.700178E-19
2.349451E+03	2.549387E-17	7.295689E-19
2.389272E+03	2.774986E-17	7.882819E-19
2.429093E+03	2.992752E-17	8.436953E-19
2.468915E+03	3.199950E-17	8.950612E-19
2.508736E+03	3.395981E-17	9.422522E-19
2.548557E+03	3.580529E-17	9.852254E-19
2.588378E+03	3.755057E-17	1.024430E-18
2.628199E+03	3.921319E-17	1.060383E-18
2.668021E+03	4.081128E-17	1.093602E-18
2.707842E+03	4.235576E-17	1.124398E-18
2.747663E+03	4.386902E-17	1.153373E-18
2.787484E+03	4.535904E-17	1.180734E-18
2.827305E+03	4.685211E-17	1.207150E-18
2.867127E+03	4.835302E-17	1.232716E-18
2.906948E+03	4.987843E-17	1.257819E-18
2.946769E+03	5.145014E-17	1.282957E-18
2.986590E+03	5.306800E-17	1.308060E-18
2.996546E+03	5.348200E-17	1.314379E-18
3.006501E+03	5.390382E-17	1.320812E-18
3.016456E+03	5.432661E-17	1.327188E-18
3.026411E+03	5.475806E-17	1.333694E-18
3.036367E+03	5.520219E-17	1.340426E-18
3.046322E+03	5.565588E-17	1.347305E-18
3.056277E+03	5.612703E-17	1.354518E-18
3.066233E+03	5.660743E-17	1.361865E-18
3.076188E+03	5.710917E-17	1.369631E-18
3.086143E+03	5.761750E-17	1.377460E-18
3.096099E+03	5.814471E-17	1.385641E-18
3.106054E+03	5.867626E-17	1.393826E-18
3.116009E+03	5.922450E-17	1.402304E-18
3.125964E+03	5.977508E-17	1.410733E-18
3.135920E+03	6.034053E-17	1.419406E-18
3.145875E+03	6.091324E-17	1.428142E-18
3.155830E+03	6.149251E-17	1.436920E-18
3.165786E+03	6.207753E-17	1.445720E-18
3.175741E+03	6.267436E-17	1.454682E-18
3.185696E+03	6.328233E-17	1.463785E-18
3.195652E+03	6.389409E-17	1.472858E-18
3.205607E+03	6.451581E-17	1.482040E-18
3.215562E+03	6.514020E-17	1.491162E-18
3.225517E+03	6.577350E-17	1.500365E-18
3.235473E+03	6.641517E-17	1.509634E-18
3.245428E+03	6.706475E-17	1.518955E-18
3.255383E+03	6.772177E-17	1.528316E-18
3.265339E+03	6.838589E-17	1.537706E-18
3.275294E+03	6.905668E-17	1.547114E-18
3.285249E+03	6.974033E-17	1.556675E-18
3.295205E+03	7.042341E-17	1.566087E-18
3.305160E+03	7.112518E-17	1.575775E-18
3.315115E+03	7.182580E-17	1.585298E-18
3.325070E+03	7.254450E-17	1.595077E-18
3.335026E+03	7.326797E-17	1.604815E-18
3.344981E+03	7.400252E-17	1.614649E-18
3.354936E+03	7.474791E-17	1.624569E-18
3.364892E+03	7.550391E-17	1.634568E-18
3.374847E+03	7.627040E-17	1.644638E-18
3.384802E+03	7.705357E-17	1.654911E-18
3.394758E+03	7.784697E-17	1.665243E-18
3.404713E+03	7.865058E-17	1.675630E-18
3.414668E+03	7.947064E-17	1.686200E-18
3.424623E+03	8.030092E-17	1.696819E-18
3.434579E+03	8.115401E-17	1.707747E-18
3.444534E+03	8.201751E-17	1.718717E-18
3.454489E+03	8.290402E-17	1.729989E-18
3.464445E+03	8.380757E-17	1.741433E-18
3.474400E+03	8.472847E-17	1.753049E-18
3.484355E+03	8.567322E-17	1.764966E-18
3.494311E+03	8.663615E-17	1.777061E-18
3.504266E+03	8.762381E-17	1.789461E-18
3.514221E+03	8.863684E-17	1.802173E-18
3.524176E+03	8.967585E-17	1.815201E-18
3.534132E+03	9.074163E-17	1.828553E-18
3.544087E+03	9.184092E-17	1.842357E-18
3.554042E+03	9.296869E-17	1.856501E-18
3.563998E+03	9.412600E-17	1.870999E-18
3.573953E+03	9.532563E-17	1.886095E-18
3.583908E+03	9.655699E-17	1.901567E-18
3.593864E+03	9.783296E-17	1.917658E-18
3.603819E+03	9.914896E-17	1.934266E-18
3.613774E+03	1.005063E-16	1.951404E-18
3.623729E+03	1.019120E-16	1.969197E-18
3.633685E+03	1.033619E-16	1.987546E-18
3.643640E+03	1.048686E-16	2.006684E-18
3.653595E+03	1.064220E-16	2.026401E-18
3.663551E+03	1.080350E-16	2.046923E-18
3.673506E+03	1.097029E-16	2.068149E-18
3.683461E+03	1.114271E-16	2.090085E-18
3.693417E+03	1.132197E-16	2.112942E-18
3.703372E+03	1.150705E-16	2.136507E-18
3.713327E+03	1.169856E-16	2.160880E-18
3.723282E+03	1.189655E-16	2.186048E-18
3.733238E+03	1.210161E-16	2.212099E-18
3.743193E+03	1.231316E-16	2.238906E-18
3.753148E+03	1.253171E-16	2.266543E-18
3.763104E+03	1.275717E-16	2.294972E-18
3.773059E+03	1.298886E-16	2.324049E-18
3.783014E+03	1.322769E-16	2.353920E-18
3.792970E+03	1.347290E-16	2.384425E-18
3.802925E+03	1.372418E-16	2.415492E-18
3.812880E+03	1.398175E-16	2.447140E-18
3.822835E+03	1.424518E-16	2.479276E-18
3.832791E+03	1.451345E-16	2.511705E-18
3.842746E+03	1.478658E-16	2.544415E-18
3.852701E+03	1.506394E-16	2.577284E-18
3.862657E+03	1.534487E-16	2.610185E-18
3.872612E+03	1.562863E-16	2.642984E-18
3.882567E+03	1.591497E-16	2.675630E-18
3.892523E+03	1.620195E-16	2.707788E-18
3.902478E+03	1.648975E-16	2.739490E-18
3.912433E+03	1.677746E-16	2.770579E-18
3.922388E+03	1.706355E-16	2.800806E-18
3.932344E+03	1.734702E-16	2.830014E-18
3.942299E+03	1.762744E-16	2.858139E-18
3.952254E+03	1.790380E-16	2.885029E-18
3.962210E+03	1.817406E-16	2.910372E-18
3.972165E+03	1.843889E-16	2.934290E-18
3.982120E+03	1.869580E-16	2.956408E-18
3.992076E+03	1.894501E-16	2.976787E-18
4.002031E+03	1.918577E-16	2.995332E-18
4.011986E+03	1.941635E-16	3.011802E-18
4.021941E+03	1.963671E-16	3.026224E-18
4.031897E+03	1.984689E-16	3.038636E-18
4.041852E+03	2.004552E-16	3.048860E-18
4.051807E+03	2.023236E-16	3.056900E-18
4.061763E+03	2.040782E-16	3.062855E-18
4.071718E+03	2.057144E-16	3.066690E-18
4.081673E+03	2.072335E-16	3.068465E-18
4.091629E+03	2.086337E-16	3.068191E-18
4.101584E+03	2.099239E-16	3.066034E-18
4.111539E+03	2.110998E-16	3.061972E-18
4.121494E+03	2.121773E-16	3.056268E-18
4.131450E+03	2.131500E-16	3.048863E-18
4.141405E+03	2.140309E-16	3.039979E-18
4.151360E+03	2.148296E-16	3.029780E-18
4.161316E+03	2.155473E-16	3.018310E-18
4.171271E+03	2.161992E-16	3.005810E-18
4.181226E+03	2.167926E-16	2.992404E-18
4.191182E+03	2.173351E-16	2.978216E-18
4.201137E+03	2.178392E-16	2.963435E-18
4.211092E+03	2.183175E-16	2.948247E-18
4.221047E+03	2.187747E-16	2.932725E-18
4.231003E+03	2.192240E-16	2.917058E-18
4.240958E+03	2.196745E-16	2.901369E-18
4.250913E+03	2.201394E-16	2.885836E-18
4.260869E+03	2.206238E-16	2.870528E-18
4.270824E+03	2.211448E-16	2.855660E-18
4.280779E+03	2.217034E-16	2.841243E-18
4.290735E+03	2.223196E-16	2.827522E-18
4.300690E+03	2.229906E-16	2.814452E-18
4.310645E+03	2.237317E-16	2.802213E-18
4.320601E+03	2.245467E-16	2.790838E-18
4.330556E+03	2.254458E-16	2.780435E-18
4.340511E+03	2.264275E-16	2.770971E-18
4.350466E+03	2.274999E-16	2.762524E-18
4.360422E+03	2.286617E-16	2.755062E-18
4.370377E+03	2.299132E-16	2.748568E-18
4.380332E+03	2.312494E-16	2.742965E-18
4.390288E+03	2.326734E-16	2.738275E-18
4.400243E+03	2.341791E-16	2.734410E-18
4.410198E+03	2.357584E-16	2.731262E-18
4.420154E+03	2.374043E-16	2.728737E-18
4.430109E+03	2.391050E-16	2.726693E-18
4.440064E+03	2.408537E-16	2.725043E-18
4.450019E+03	2.426520E-16	2.723801E-18
4.459975E+03	2.444964E-16	2.722925E-18
4.469930E+03	2.463792E-16	2.722325E-18
4.479885E+03	2.483041E-16	2.722040E-18
4.489841E+03	2.502542E-16	2.721886E-18
4.499796E+03	2.522244E-16	2.721811E-18
4.509751E+03	2.542057E-16	2.721725E-18
4.519707E+03	2.561883E-16	2.721530E-18
4.529662E+03	2.581585E-16	2.721094E-18
4.539617E+03	2.601058E-16	2.720320E-18
4.549572E+03	2.620160E-16	2.719079E-18
4.559528E+03	2.638789E-16	2.717286E-18
4.569483E+03	2.656810E-16	2.714826E-18
4.579438E+03	2.674131E-16	2.711634E-18
4.589394E+03	2.690669E-16	2.707654E-18
4.599349E+03	2.706286E-16	2.702780E-18
4.609304E+03	2.720994E-16	2.697055E-18
4.619260E+03	2.734652E-16	2.690376E-18
4.629215E+03	2.747272E-16	2.682788E-18
4.639170E+03	2.758850E-16	2.674323E-18
4.649125E+03	2.769368E-16	2.664998E-18
4.659081E+03	2.778825E-16	2.654847E-18
4.669036E+03	2.787342E-16	2.644018E-18
4.678991E+03	2.794917E-16	2.632541E-18
4.688947E+03	2.801633E-16	2.620523E-18
4.698902E+03	2.807615E-16	2.608108E-18
4.708857E+03	2.812959E-16	2.595412E-18
4.718813E+03	2.817734E-16	2.582518E-18
4.728768E+03	2.822069E-16	2.569567E-18
4.738723E+03	2.826052E-16	2.556656E-18
4.748678E+03	2.829756E-16	2.543867E-18
4.758634E+03	2.833296E-16	2.531319E-18
4.768589E+03	2.836700E-16	2.519049E-18
4.778544E+03	2.840199E-16	2.507274E-18
4.788500E+03	2.844030E-16	2.496209E-18
4.798455E+03	2.848366E-16	2.486012E-18
4.808410E+03	2.853384E-16	2.476836E-18
4.818366E+03	2.859201E-16	2.468772E-18
4.828321E+03	2.865944E-16	2.461912E-18
4.838276E+03	2.873678E-16	2.456296E-18
4.848231E+03	2.882482E-16	2.451972E-18
4.858187E+03	2.892410E-16	2.448968E-18
4.868142E+03	2.903465E-16	2.447269E-18
4.878097E+03	2.915659E-16	2.446868E-18
4.888053E+03	2.929018E-16	2.447771E-18
4.898008E+03	2.943452E-16	2.449885E-18
4.907963E+03	2.958984E-16	2.453218E-18
4.917919E+03	2.975489E-16	2.457650E-18
4.927874E+03	2.992928E-16	2.463138E-18
4.937829E+03	3.011214E-16	2.469599E-18
4.947784E+03	3.030218E-16	2.476919E-18
4.957740E+03	3.049869E-16	2.485030E-18
4.967695E+03	3.070058E-16	2.493836E-18
4.977650E+03	3.090673E-16	2.503240E-18
4.987606E+03	3.111565E-16	2.513118E-18
4.997561E+03	3.132658E-16	2.523401E-18
5.007516E+03	3.153845E-16	2.534001E-18
5.017472E+03	3.175026E-16	2.544835E-18
5.027427E+03	3.196108E-16	2.555824E-18
5.037382E+03	3.217006E-16	2.566901E-18
5.047337E+03	3.237647E-16	2.578004E-18
5.057293E+03	3.257967E-16	2.589080E-18
5.067248E+03	3.277946E-16	2.600114E-18
5.077203E+03	3.297504E-16	2.611039E-18
5.087159E+03	3.316604E-16	2.621826E-18
5.097114E+03	3.335216E-16	2.632450E-18
5.107069E+03	3.353350E-16	2.642918E-18
5.117025E+03	3.370987E-16	2.653213E-18
5.126980E+03	3.388072E-16	2.663291E-18
5.136935E+03	3.404588E-16	2.673138E-18
5.146890E+03	3.420590E-16	2.682796E-18
5.156846E+03	3.435986E-16	2.692191E-18
5.166801E+03	3.450790E-16	2.701333E-18
5.176756E+03	3.464976E-16	2.710202E-18
5.186712E+03	3.478514E-16	2.718773E-18
5.196667E+03	3.491369E-16	2.727018E-18
5.206622E+03	3.503502E-16	2.734906E-18
5.216578E+03	3.514869E-16	2.742403E-18
5.226533E+03	3.525421E-16	2.749469E-18
5.236488E+03	3.535107E-16	2.756063E-18
5.246443E+03	3.543907E-16	2.762172E-18
5.256399E+03	3.551727E-16	2.767722E-18
5.266354E+03	3.558507E-16	2.772665E-18
5.276309E+03	3.564224E-16	2.776984E-18
5.286265E+03	3.568746E-16	2.780574E-18
5.296220E+03	3.572125E-16	2.783478E-18
5.306175E+03	3.574197E-16	2.785567E-18
5.316131E+03	3.574983E-16	2.786856E-18
5.326086E+03	3.574438E-16	2.787311E-18
5.336041E+03	3.572451E-16	2.786844E-18
5.345996E+03	3.569061E-16	2.785484E-18
5.355952E+03	3.564245E-16	2.783213E-18
5.365907E+03	3.557915E-16	2.779960E-18
5.375862E+03	3.550137E-16	2.775775E-18
5.385818E+03	3.540880E-16	2.770632E-18
5.395773E+03	3.530193E-16	2.764567E-18
5.405728E+03	3.518030E-16	2.757541E-18
5.415684E+03	3.504497E-16	2.749634E-18
5.425639E+03	3.489569E-16	2.740825E-18
5.435594E+03	3.473372E-16	2.731207E-18
5.445549E+03	3.455902E-16	2.720774E-18
5.455505E+03	3.437302E-16	2.709635E-18
5.465460E+03	3.417583E-16	2.697788E-18
5.475415E+03	3.396915E-16	2.685352E-18
5.485371E+03	3.375453E-16	2.672429E-18
5.495326E+03	3.353296E-16	2.659081E-18
5.505281E+03	3.330719E-16	2.645510E-18
5.515237E+03	3.307805E-16	2.631765E-18
5.525192E+03	3.284812E-16	2.618038E-18
5.535147E+03	3.261910E-16	2.604450E-18
5.545102E+03	3.239308E-16	2.591158E-18
5.555058E+03	3.217226E-16	2.578325E-18
5.565013E+03	3.195887E-16	2.566121E-18
5.574968E+03	3.175520E-16	2.554725E-18
5.584924E+03	3.156356E-16	2.544315E-18
5.594879E+03	3.138654E-16	2.535097E-18
5.604834E+03	3.122608E-16	2.527225E-18
5.614790E+03	3.108437E-16	2.520876E-18
5.624745E+03	3.096349E-16	2.516219E-18
5.634700E+03	3.086568E-16	2.513441E-18
5.644655E+03	3.079211E-16	2.512640E-18
5.654611E+03	3.074497E-16	2.514000E-18
5.664566E+03	3.072530E-16	2.517614E-18
5.674521E+03	3.073449E-16	2.523604E-18
5.684477E+03	3.077273E-16	2.531993E-18
5.694432E+03	3.084081E-16	2.542858E-18
5.704387E+03	3.093919E-16	2.556242E-18
5.714343E+03	3.106703E-16	2.572091E-18
5.724298E+03	3.122405E-16	2.590388E-18
5.734253E+03	3.140925E-16	2.611063E-18
5.744209E+03	3.162126E-16	2.634007E-18
5.754164E+03	3.185826E-16	2.659081E-18
5.764119E+03	3.211772E-16	2.686079E-18
5.774074E+03	3.239702E-16	2.714790E-18
5.784030E+03	3.269349E-16	2.744994E-18
5.793985E+03	3.300345E-16	2.776386E-18
5.803940E+03	3.332356E-16	2.808686E-18
5.813896E+03	3.364922E-16	2.841508E-18
5.823851E+03	3.397694E-16	2.874556E-18
5.833806E+03	3.430180E-16	2.907408E-18
5.843762E+03	3.462012E-16	2.939748E-18
5.853717E+03	3.492695E-16	2.971149E-18
5.863672E+03	3.521844E-16	3.001276E-18
5.873627E+03	3.549035E-16	3.029755E-18
5.883583E+03	3.573940E-16	3.056296E-18
5.893538E+03	3.596206E-16	3.080585E-18
5.903493E+03	3.615565E-16	3.102380E-18
5.913449E+03	3.631805E-16	3.121483E-18
5.923404E+03	3.644814E-16	3.137786E-18
5.933359E+03	3.654438E-16	3.151142E-18
5.943315E+03	3.660699E-16	3.161558E-18
5.953270E+03	3.663653E-16	3.169066E-18
5.963225E+03	3.663383E-16	3.173729E-18
5.973180E+03	3.660072E-16	3.175694E-18
5.983136E+03	3.653957E-16	3.175157E-18
5.993091E+03	3.645359E-16	3.172390E-18
6.003046E+03	3.634537E-16	3.167610E-18
6.013002E+03	3.621848E-16	3.161125E-18
6.022957E+03	3.607708E-16	3.153295E-18
6.032912E+03	3.592442E-16	3.144404E-18
6.042868E+03	3.576519E-16	3.134861E-18
6.052823E+03	3.560230E-16	3.124923E-18
6.062778E+03	3.544028E-16	3.114992E-18
6.072733E+03	3.528209E-16	3.105333E-18
6.082689E+03	3.513150E-16	3.096285E-18
6.092644E+03	3.499130E-16	3.088102E-18
6.102599E+03	3.486395E-16	3.081008E-18
6.112555E+03	3.475259E-16	3.075292E-18
6.122510E+03	3.465894E-16	3.071115E-18
6.132465E+03	3.458467E-16	3.068638E-18
6.142421E+03	3.453139E-16	3.068016E-18
6.152376E+03	3.449996E-16	3.069337E-18
6.162331E+03	3.449117E-16	3.072687E-18
6.172286E+03	3.450443E-16	3.078023E-18
6.182242E+03	3.453939E-16	3.085332E-18
6.192197E+03	3.459575E-16	3.094596E-18
6.202152E+03	3.467216E-16	3.105708E-18
6.212108E+03	3.476769E-16	3.118590E-18
6.222063E+03	3.488081E-16	3.133113E-18
6.232018E+03	3.500863E-16	3.149024E-18
6.241974E+03	3.514905E-16	3.166137E-18
6.251929E+03	3.529881E-16	3.184165E-18
6.261884E+03	3.545562E-16	3.202905E-18
6.271839E+03	3.561647E-16	3.222086E-18
6.281795E+03	3.577833E-16	3.241438E-18
6.291750E+03	3.593863E-16	3.260727E-18
6.301705E+03	3.609455E-16	3.279698E-18
6.311661E+03	3.624382E-16	3.298142E-18
6.321616E+03	3.638363E-16	3.315802E-18
6.331571E+03	3.651181E-16	3.332477E-18
6.341527E+03	3.662719E-16	3.348056E-18
6.351482E+03	3.672816E-16	3.362386E-18
6.361437E+03	3.681266E-16	3.375274E-18
6.371392E+03	3.688003E-16	3.386655E-18
6.381348E+03	3.692995E-16	3.396490E-18
6.391303E+03	3.696118E-16	3.404660E-18
6.401258E+03	3.697390E-16	3.411176E-18
6.411214E+03	3.696779E-16	3.415999E-18
6.421169E+03	3.694266E-16	3.419106E-18
6.431124E+03	3.689936E-16	3.420567E-18
6.441080E+03	3.683731E-16	3.420321E-18
6.451035E+03	3.675689E-16	3.418394E-18
6.460990E+03	3.665937E-16	3.414889E-18
6.470945E+03	3.654505E-16	3.409816E-18
6.480901E+03	3.641509E-16	3.403269E-18
6.490856E+03	3.627152E-16	3.395422E-18
6.500811E+03	3.611645E-16	3.386458E-18
6.510767E+03	3.595051E-16	3.376424E-18
6.520722E+03	3.577373E-16	3.365308E-18
6.530677E+03	3.558687E-16	3.353171E-18
6.540633E+03	3.538891E-16	3.339905E-18
6.550588E+03	3.518043E-16	3.325553E-18
6.560543E+03	3.496174E-16	3.310131E-18
6.570498E+03	3.473250E-16	3.293598E-18
6.580454E+03	3.449325E-16	3.275993E-18
6.590409E+03	3.424461E-16	3.257366E-18
6.600364E+03	3.398621E-16	3.237672E-18
6.610320E+03	3.371965E-16	3.217055E-18
6.620275E+03	3.344481E-16	3.195496E-18
6.630230E+03	3.316284E-16	3.173095E-18
6.640186E+03	3.287461E-16	3.149931E-18
6.650141E+03	3.258083E-16	3.126065E-18
6.660096E+03	3.228341E-16	3.101677E-18
6.670051E+03	3.198333E-16	3.076856E-18
6.680007E+03	3.168172E-16	3.051708E-18
6.689962E+03	3.138092E-16	3.026455E-18
6.699917E+03	3.108192E-16	3.001193E-18
6.709873E+03	3.078691E-16	2.976132E-18
6.719828E+03	3.049778E-16	2.951456E-18
6.729783E+03	3.021681E-16	2.927386E-18
6.739739E+03	2.994527E-16	2.904049E-18
6.749694E+03	2.968549E-16	2.881670E-18
6.759649E+03	2.943904E-16	2.860408E-18
6.769604E+03	2.920847E-16	2.840514E-18
6.779560E+03	2.899525E-16	2.822134E-18
6.789515E+03	2.880073E-16	2.805402E-18
6.799470E+03	2.862714E-16	2.790543E-18
6.809426E+03	2.847524E-16	2.777632E-18
6.819381E+03	2.834661E-16	2.766830E-18
6.829336E+03	2.824235E-16	2.758246E-18
6.839292E+03	2.816302E-16	2.751939E-18
6.849247E+03	2.810998E-16	2.748044E-18
6.859202E+03	2.808306E-16	2.746548E-18
6.869157E+03	2.808322E-16	2.747546E-18
6.879113E+03	2.810988E-16	2.750981E-18
6.889068E+03	2.816323E-16	2.756874E-18
6.899023E+03	2.824293E-16	2.765190E-18
6.908979E+03	2.834810E-16	2.775842E-18
6.918934E+03	2.847870E-16	2.788822E-18
6.928889E+03	2.863346E-16	2.804005E-18
6.938845E+03	2.881096E-16	2.821249E-18
6.948800E+03	2.901031E-16	2.840459E-18
6.958755E+03	2.923050E-16	2.861535E-18
6.968710E+03	2.946934E-16	2.884255E-18
6.978666E+03	2.972563E-16	2.908496E-18
6.988621E+03	2.999771E-16	2.934091E-18
6.998576E+03	3.028428E-16	2.960904E-18
7.008532E+03	3.058289E-16	2.988690E-18
7.018487E+03	3.089216E-16	3.017308E-18
7.028442E+03	3.121038E-16	3.046584E-18
7.038398E+03	3.153582E-16	3.076342E-18
7.048353E+03	3.186677E-16	3.106411E-18
7.058308E+03	3.220193E-16	3.136655E-18
7.068263E+03	3.253879E-16	3.166827E-18
7.078219E+03	3.287645E-16	3.196833E-18
7.088174E+03	3.321272E-16	3.226457E-18
7.098129E+03	3.354581E-16	3.255520E-18
7.108085E+03	3.387381E-16	3.283836E-18
7.118040E+03	3.419471E-16	3.311208E-18
7.127995E+03	3.450681E-16	3.337471E-18
7.137951E+03	3.480740E-16	3.362364E-18
7.147906E+03	3.509404E-16	3.385652E-18
7.157861E+03	3.536411E-16	3.407090E-18
7.167817E+03	3.561530E-16	3.426459E-18
7.177772E+03	3.584428E-16	3.443446E-18
7.187727E+03	3.604849E-16	3.457817E-18
7.197682E+03	3.622441E-16	3.469247E-18
7.207638E+03	3.636947E-16	3.477502E-18
7.217593E+03	3.648021E-16	3.482272E-18
7.227548E+03	3.655428E-16	3.483351E-18
7.237504E+03	3.658861E-16	3.480470E-18
7.247459E+03	3.658144E-16	3.473485E-18
7.257414E+03	3.653093E-16	3.462251E-18
7.267370E+03	3.643576E-16	3.446672E-18
7.277325E+03	3.629473E-16	3.426665E-18
7.287280E+03	3.610821E-16	3.402298E-18
7.297235E+03	3.587677E-16	3.373659E-18
7.307191E+03	3.560170E-16	3.340904E-18
7.317146E+03	3.528494E-16	3.304249E-18
7.327101E+03	3.492962E-16	3.264019E-18
7.337057E+03	3.453847E-16	3.220505E-18
7.347012E+03	3.411529E-16	3.174089E-18
7.356967E+03	3.366473E-16	3.125235E-18
7.366923E+03	3.319138E-16	3.074394E-18
7.376878E+03	3.270047E-16	3.022075E-18
7.386833E+03	3.219604E-16	2.968670E-18
7.396788E+03	3.168393E-16	2.914737E-18
7.406744E+03	3.116900E-16	2.860734E-18
7.416699E+03	3.065555E-16	2.807068E-18
7.426654E+03	3.014806E-16	2.754156E-18
7.436610E+03	2.965074E-16	2.702385E-18
7.446565E+03	2.916704E-16	2.652071E-18
7.456520E+03	2.870047E-16	2.603532E-18
7.466476E+03	2.825413E-16	2.557046E-18
7.476431E+03	2.783039E-16	2.512820E-18
7.486386E+03	2.743199E-16	2.471094E-18
7.496341E+03	2.706094E-16	2.432039E-18
7.506297E+03	2.671817E-16	2.395728E-18
7.516252E+03	2.640578E-16	2.362338E-18
7.526207E+03	2.612416E-16	2.331890E-18
7.536163E+03	2.587453E-16	2.304472E-18
7.546118E+03	2.565751E-16	2.280121E-18
7.556073E+03	2.547316E-16	2.258823E-18
7.566029E+03	2.532205E-16	2.240611E-18
7.575984E+03	2.520418E-16	2.225465E-18
7.585939E+03	2.511892E-16	2.213313E-18
7.595894E+03	2.506560E-16	2.204080E-18
7.605850E+03	2.504359E-16	2.197697E-18
7.615805E+03	2.505148E-16	2.194023E-18
7.625760E+03	2.508806E-16	2.192942E-18
7.635716E+03	2.515238E-16	2.194360E-18
7.645671E+03	2.524240E-16	2.198089E-18
7.655626E+03	2.535742E-16	2.204060E-18
7.665582E+03	2.549560E-16	2.212106E-18
7.675537E+03	2.565576E-16	2.222121E-18
7.685492E+03	2.583560E-16	2.233902E-18
7.695447E+03	2.603414E-16	2.247363E-18
7.705403E+03	2.624928E-16	2.262322E-18
7.715358E+03	2.647953E-16	2.278652E-18
7.725313E+03	2.672218E-16	2.296124E-18
