#wls	flux	fluxerr
1.592848E+03	1.204793E-17	3.099004E-18
1.632669E+03	1.245897E-17	3.185791E-18
1.672491E+03	1.281694E-17	3.257392E-18
1.712312E+03	1.311189E-17	3.311499E-18
1.752133E+03	1.333915E-17	3.347199E-18
1.791954E+03	1.347300E-17	3.358381E-18
1.831775E+03	1.349555E-17	3.341054E-18
1.871597E+03	1.337129E-17	3.287054E-18
1.911418E+03	1.308309E-17	3.192965E-18
1.951239E+03	1.261562E-17	3.055973E-18
1.991060E+03	1.199651E-17	2.883750E-18
2.030881E+03	1.130046E-17	2.695015E-18
2.070703E+03	1.066572E-17	2.522989E-18
2.110524E+03	1.026725E-17	2.408429E-18
2.150345E+03	1.024563E-17	2.382668E-18
2.190166E+03	1.067081E-17	2.459544E-18
2.229987E+03	1.150824E-17	2.628344E-18
2.269809E+03	1.266861E-17	2.866137E-18
2.309630E+03	1.403397E-17	3.144262E-18
2.349451E+03	1.549604E-17	3.437162E-18
2.389272E+03	1.698053E-17	3.727672E-18
2.429093E+03	1.844703E-17	4.006652E-18
2.468915E+03	1.986647E-17	4.267772E-18
2.508736E+03	2.123691E-17	4.510744E-18
2.548557E+03	2.256246E-17	4.736590E-18
2.588378E+03	2.384421E-17	4.945663E-18
2.628199E+03	2.509965E-17	5.141686E-18
2.668021E+03	2.633167E-17	5.325255E-18
2.707842E+03	2.755423E-17	5.499149E-18
2.747663E+03	2.877683E-17	5.665122E-18
2.787484E+03	3.000798E-17	5.824637E-18
2.827305E+03	3.125527E-17	5.978884E-18
2.867127E+03	3.252954E-17	6.129569E-18
2.906948E+03	3.384085E-17	6.278132E-18
2.946769E+03	3.519814E-17	6.425677E-18
2.986590E+03	3.660937E-17	6.573011E-18
2.996546E+03	3.697442E-17	6.610410E-18
3.006501E+03	3.734069E-17	6.647353E-18
3.016456E+03	3.770811E-17	6.683820E-18
3.026411E+03	3.808634E-17	6.721510E-18
3.036367E+03	3.846914E-17	6.759298E-18
3.046322E+03	3.886356E-17	6.798403E-18
3.056277E+03	3.926591E-17	6.838149E-18
3.066233E+03	3.968423E-17	6.879911E-18
3.076188E+03	4.011306E-17	6.922705E-18
3.086143E+03	4.054699E-17	6.965571E-18
3.096099E+03	4.099422E-17	7.009894E-18
3.106054E+03	4.144948E-17	7.054745E-18
3.116009E+03	4.191203E-17	7.099971E-18
3.125964E+03	4.238117E-17	7.145435E-18
3.135920E+03	4.286083E-17	7.191775E-18
3.145875E+03	4.334126E-17	7.237334E-18
3.155830E+03	4.383558E-17	7.284285E-18
3.165786E+03	4.432955E-17	7.330234E-18
3.175741E+03	4.483636E-17	7.377350E-18
3.185696E+03	4.534183E-17	7.423273E-18
3.195652E+03	4.585918E-17	7.470155E-18
3.205607E+03	4.637884E-17	7.516413E-18
3.215562E+03	4.690496E-17	7.562703E-18
3.225517E+03	4.743713E-17	7.608941E-18
3.235473E+03	4.797497E-17	7.655045E-18
3.245428E+03	4.851812E-17	7.700939E-18
3.255383E+03	4.906621E-17	7.746546E-18
3.265339E+03	4.961890E-17	7.791797E-18
3.275294E+03	5.018040E-17	7.837329E-18
3.285249E+03	5.074587E-17	7.882365E-18
3.295205E+03	5.131499E-17	7.926842E-18
3.305160E+03	5.189199E-17	7.971395E-18
3.315115E+03	5.247208E-17	8.015265E-18
3.325070E+03	5.305947E-17	8.059078E-18
3.335026E+03	5.365393E-17	8.102778E-18
3.344981E+03	5.425513E-17	8.146290E-18
3.354936E+03	5.486283E-17	8.189557E-18
3.364892E+03	5.548129E-17	8.233187E-18
3.374847E+03	5.610132E-17	8.275793E-18
3.384802E+03	5.672717E-17	8.317986E-18
3.394758E+03	5.736752E-17	8.361014E-18
3.404713E+03	5.800890E-17	8.402878E-18
3.414668E+03	5.866437E-17	8.445455E-18
3.424623E+03	5.932499E-17	8.487418E-18
3.434579E+03	5.999507E-17	8.529363E-18
3.444534E+03	6.067451E-17	8.571246E-18
3.454489E+03	6.136331E-17	8.613034E-18
3.464445E+03	6.206148E-17	8.654698E-18
3.474400E+03	6.277344E-17	8.696823E-18
3.484355E+03	6.349501E-17	8.738785E-18
3.494311E+03	6.423073E-17	8.781177E-18
3.504266E+03	6.497661E-17	8.823411E-18
3.514221E+03	6.574162E-17	8.866663E-18
3.524176E+03	6.652196E-17	8.910366E-18
3.534132E+03	6.731406E-17	8.953998E-18
3.544087E+03	6.812706E-17	8.998726E-18
3.554042E+03	6.896175E-17	9.044588E-18
3.563998E+03	6.981493E-17	9.091105E-18
3.573953E+03	7.069183E-17	9.138892E-18
3.583908E+03	7.159366E-17	9.188032E-18
3.593864E+03	7.251763E-17	9.238093E-18
3.603819E+03	7.347339E-17	9.290226E-18
3.613774E+03	7.445842E-17	9.344019E-18
3.623729E+03	7.547849E-17	9.400098E-18
3.633685E+03	7.653129E-17	9.458073E-18
3.643640E+03	7.762280E-17	9.518577E-18
3.653595E+03	7.875499E-17	9.581729E-18
3.663551E+03	7.992991E-17	9.647653E-18
3.673506E+03	8.114965E-17	9.716469E-18
3.683461E+03	8.242027E-17	9.788759E-18
3.693417E+03	8.373601E-17	9.863688E-18
3.703372E+03	8.511078E-17	9.942742E-18
3.713327E+03	8.653872E-17	1.002506E-17
3.723282E+03	8.802958E-17	1.011160E-17
3.733238E+03	8.957716E-17	1.020146E-17
3.743193E+03	9.118702E-17	1.029510E-17
3.753148E+03	9.286425E-17	1.039289E-17
3.763104E+03	9.460596E-17	1.049429E-17
3.773059E+03	9.641656E-17	1.059960E-17
3.783014E+03	9.829231E-17	1.070820E-17
3.792970E+03	1.002367E-16	1.082025E-17
3.802925E+03	1.022488E-16	1.093544E-17
3.812880E+03	1.043271E-16	1.105340E-17
3.822835E+03	1.064691E-16	1.117366E-17
3.832791E+03	1.086720E-16	1.129571E-17
3.842746E+03	1.109317E-16	1.141896E-17
3.852701E+03	1.132475E-16	1.154315E-17
3.862657E+03	1.156100E-16	1.166714E-17
3.872612E+03	1.180126E-16	1.179013E-17
3.882567E+03	1.204521E-16	1.191166E-17
3.892523E+03	1.229163E-16	1.203043E-17
3.902478E+03	1.254004E-16	1.214588E-17
3.912433E+03	1.278909E-16	1.225664E-17
3.922388E+03	1.303777E-16	1.236175E-17
3.932344E+03	1.328544E-16	1.246059E-17
3.942299E+03	1.353064E-16	1.255183E-17
3.952254E+03	1.377269E-16	1.263492E-17
3.962210E+03	1.400973E-16	1.270828E-17
3.972165E+03	1.424156E-16	1.277185E-17
3.982120E+03	1.446678E-16	1.282458E-17
3.992076E+03	1.468411E-16	1.286552E-17
4.002031E+03	1.489313E-16	1.289457E-17
4.011986E+03	1.509274E-16	1.291103E-17
4.021941E+03	1.528235E-16	1.291471E-17
4.031897E+03	1.546189E-16	1.290585E-17
4.041852E+03	1.563026E-16	1.288386E-17
4.051807E+03	1.578727E-16	1.284895E-17
4.061763E+03	1.593328E-16	1.280175E-17
4.071718E+03	1.606762E-16	1.274209E-17
4.081673E+03	1.619056E-16	1.267055E-17
4.091629E+03	1.630286E-16	1.258807E-17
4.101584E+03	1.640428E-16	1.249483E-17
4.111539E+03	1.649547E-16	1.239166E-17
4.121494E+03	1.657681E-16	1.227916E-17
4.131450E+03	1.664950E-16	1.215853E-17
4.141405E+03	1.671373E-16	1.203020E-17
4.151360E+03	1.677051E-16	1.189515E-17
4.161316E+03	1.682086E-16	1.175435E-17
4.171271E+03	1.686520E-16	1.160830E-17
4.181226E+03	1.690466E-16	1.145797E-17
4.191182E+03	1.694037E-16	1.130428E-17
4.201137E+03	1.697316E-16	1.114791E-17
4.211092E+03	1.700390E-16	1.098952E-17
4.221047E+03	1.703344E-16	1.082974E-17
4.231003E+03	1.706296E-16	1.066936E-17
4.240958E+03	1.709362E-16	1.050911E-17
4.250913E+03	1.712598E-16	1.034931E-17
4.260869E+03	1.716091E-16	1.019043E-17
4.270824E+03	1.719984E-16	1.003326E-17
4.280779E+03	1.724362E-16	9.878169E-18
4.290735E+03	1.729309E-16	9.725502E-18
4.300690E+03	1.734909E-16	9.575564E-18
4.310645E+03	1.741302E-16	9.428929E-18
4.320601E+03	1.748571E-16	9.285814E-18
4.330556E+03	1.756826E-16	9.146540E-18
4.340511E+03	1.766173E-16	9.011368E-18
4.350466E+03	1.776716E-16	8.880508E-18
4.360422E+03	1.788550E-16	8.754079E-18
4.370377E+03	1.801786E-16	8.632246E-18
4.380332E+03	1.816521E-16	8.515058E-18
4.390288E+03	1.832804E-16	8.402322E-18
4.400243E+03	1.850699E-16	8.293886E-18
4.410198E+03	1.870284E-16	8.189630E-18
4.420154E+03	1.891539E-16	8.089008E-18
4.430109E+03	1.914515E-16	7.991771E-18
4.440064E+03	1.939166E-16	7.897263E-18
4.450019E+03	1.965430E-16	7.804790E-18
4.459975E+03	1.993225E-16	7.713618E-18
4.469930E+03	2.022479E-16	7.623081E-18
4.479885E+03	2.052984E-16	7.532066E-18
4.489841E+03	2.084678E-16	7.440062E-18
4.499796E+03	2.117306E-16	7.345931E-18
4.509751E+03	2.150730E-16	7.249038E-18
4.519707E+03	2.184678E-16	7.148370E-18
4.529662E+03	2.218968E-16	7.043330E-18
4.539617E+03	2.253318E-16	6.933084E-18
4.549572E+03	2.287519E-16	6.817145E-18
4.559528E+03	2.321267E-16	6.694844E-18
4.569483E+03	2.354315E-16	6.565801E-18
4.579438E+03	2.386419E-16	6.429753E-18
4.589394E+03	2.417347E-16	6.286574E-18
4.599349E+03	2.446885E-16	6.136283E-18
4.609304E+03	2.474810E-16	5.978981E-18
4.619260E+03	2.500988E-16	5.815067E-18
4.629215E+03	2.525289E-16	5.645019E-18
4.639170E+03	2.547583E-16	5.469392E-18
4.649125E+03	2.567815E-16	5.288953E-18
4.659081E+03	2.585995E-16	5.104651E-18
4.669036E+03	2.602114E-16	4.917429E-18
4.678991E+03	2.616264E-16	4.728453E-18
4.688947E+03	2.628546E-16	4.538914E-18
4.698902E+03	2.639069E-16	4.350040E-18
4.708857E+03	2.648008E-16	4.163186E-18
4.718813E+03	2.655604E-16	3.979826E-18
4.728768E+03	2.662064E-16	3.801396E-18
4.738723E+03	2.667652E-16	3.629443E-18
4.748678E+03	2.672706E-16	3.465641E-18
4.758634E+03	2.677440E-16	3.311537E-18
4.768589E+03	2.682182E-16	3.168866E-18
4.778544E+03	2.687143E-16	3.039260E-18
4.788500E+03	2.692576E-16	2.924428E-18
4.798455E+03	2.698686E-16	2.826006E-18
4.808410E+03	2.705669E-16	2.745547E-18
4.818366E+03	2.713737E-16	2.684460E-18
4.828321E+03	2.723085E-16	2.643890E-18
4.838276E+03	2.733892E-16	2.624347E-18
4.848231E+03	2.746250E-16	2.625049E-18
4.858187E+03	2.760342E-16	2.644798E-18
4.868142E+03	2.776169E-16	2.681963E-18
4.878097E+03	2.793815E-16	2.734841E-18
4.888053E+03	2.813263E-16	2.801580E-18
4.898008E+03	2.834484E-16	2.880353E-18
4.907963E+03	2.857378E-16	2.969350E-18
4.917919E+03	2.881833E-16	3.066876E-18
4.927874E+03	2.907637E-16	3.171270E-18
4.937829E+03	2.934601E-16	3.281032E-18
4.947784E+03	2.962509E-16	3.394760E-18
4.957740E+03	2.991059E-16	3.511063E-18
4.967695E+03	3.020001E-16	3.628708E-18
4.977650E+03	3.049048E-16	3.746499E-18
4.987606E+03	3.077920E-16	3.863315E-18
4.997561E+03	3.106388E-16	3.978162E-18
5.007516E+03	3.134182E-16	4.090051E-18
5.017472E+03	3.161101E-16	4.198124E-18
5.027427E+03	3.187016E-16	4.301674E-18
5.037382E+03	3.211839E-16	4.400100E-18
5.047337E+03	3.235427E-16	4.492773E-18
5.057293E+03	3.257740E-16	4.579254E-18
5.067248E+03	3.278845E-16	4.659304E-18
5.077203E+03	3.298769E-16	4.732679E-18
5.087159E+03	3.317491E-16	4.799111E-18
5.097114E+03	3.335145E-16	4.858600E-18
5.107069E+03	3.351764E-16	4.911046E-18
5.117025E+03	3.367453E-16	4.956490E-18
5.126980E+03	3.382239E-16	4.994902E-18
5.136935E+03	3.396175E-16	5.026321E-18
5.146890E+03	3.409370E-16	5.050906E-18
5.156846E+03	3.421774E-16	5.068617E-18
5.166801E+03	3.433427E-16	5.079577E-18
5.176756E+03	3.444319E-16	5.083867E-18
5.186712E+03	3.454386E-16	5.081524E-18
5.196667E+03	3.463656E-16	5.072759E-18
5.206622E+03	3.472040E-16	5.057642E-18
5.216578E+03	3.479468E-16	5.036317E-18
5.226533E+03	3.485867E-16	5.008959E-18
5.236488E+03	3.491184E-16	4.975823E-18
5.246443E+03	3.495295E-16	4.937103E-18
5.256399E+03	3.498137E-16	4.893136E-18
5.266354E+03	3.499576E-16	4.844209E-18
5.276309E+03	3.499547E-16	4.790759E-18
5.286265E+03	3.497914E-16	4.733185E-18
5.296220E+03	3.494652E-16	4.672093E-18
5.306175E+03	3.489598E-16	4.607960E-18
5.316131E+03	3.482707E-16	4.541478E-18
5.326086E+03	3.473906E-16	4.473354E-18
5.336041E+03	3.463172E-16	4.404411E-18
5.345996E+03	3.450391E-16	4.335393E-18
5.355952E+03	3.435609E-16	4.267281E-18
5.365907E+03	3.418817E-16	4.201005E-18
5.375862E+03	3.399957E-16	4.137439E-18
5.385818E+03	3.379129E-16	4.077638E-18
5.395773E+03	3.356346E-16	4.022517E-18
5.405728E+03	3.331708E-16	3.973033E-18
5.415684E+03	3.305261E-16	3.930002E-18
5.425639E+03	3.277130E-16	3.894222E-18
5.435594E+03	3.247382E-16	3.866295E-18
5.445549E+03	3.216121E-16	3.846388E-18
5.455505E+03	3.183495E-16	3.833893E-18
5.465460E+03	3.149586E-16	3.827954E-18
5.475415E+03	3.114524E-16	3.827713E-18
5.485371E+03	3.078334E-16	3.832156E-18
5.495326E+03	3.041156E-16	3.840407E-18
5.505281E+03	3.003044E-16	3.851507E-18
5.515237E+03	2.964133E-16	3.864636E-18
5.525192E+03	2.924497E-16	3.878952E-18
5.535147E+03	2.884365E-16	3.893883E-18
5.545102E+03	2.843913E-16	3.908873E-18
5.555058E+03	2.803386E-16	3.923541E-18
5.565013E+03	2.763065E-16	3.937655E-18
5.574968E+03	2.723261E-16	3.951118E-18
5.584924E+03	2.684312E-16	3.963972E-18
5.594879E+03	2.646571E-16	3.976375E-18
5.604834E+03	2.610403E-16	3.988597E-18
5.614790E+03	2.576172E-16	4.000989E-18
5.624745E+03	2.544211E-16	4.013935E-18
5.634700E+03	2.514862E-16	4.027900E-18
5.644655E+03	2.488471E-16	4.043415E-18
5.654611E+03	2.465303E-16	4.060934E-18
5.664566E+03	2.445638E-16	4.080970E-18
5.674521E+03	2.429645E-16	4.103880E-18
5.684477E+03	2.417523E-16	4.130082E-18
5.694432E+03	2.409394E-16	4.159882E-18
5.704387E+03	2.405314E-16	4.193456E-18
5.714343E+03	2.405305E-16	4.230917E-18
5.724298E+03	2.409360E-16	4.272306E-18
5.734253E+03	2.417345E-16	4.317414E-18
5.744209E+03	2.429162E-16	4.366069E-18
5.754164E+03	2.444561E-16	4.417789E-18
5.764119E+03	2.463302E-16	4.472082E-18
5.774074E+03	2.485041E-16	4.528227E-18
5.784030E+03	2.509423E-16	4.585454E-18
5.793985E+03	2.535965E-16	4.642732E-18
5.803940E+03	2.564231E-16	4.699092E-18
5.813896E+03	2.593644E-16	4.753288E-18
5.823851E+03	2.623662E-16	4.804136E-18
5.833806E+03	2.653669E-16	4.850314E-18
5.843762E+03	2.683088E-16	4.890588E-18
5.853717E+03	2.711290E-16	4.923651E-18
5.863672E+03	2.737693E-16	4.948316E-18
5.873627E+03	2.761748E-16	4.963503E-18
5.883583E+03	2.782960E-16	4.968281E-18
5.893538E+03	2.800876E-16	4.961856E-18
5.903493E+03	2.815181E-16	4.943742E-18
5.913449E+03	2.825631E-16	4.913645E-18
5.923404E+03	2.832057E-16	4.871466E-18
5.933359E+03	2.834432E-16	4.817412E-18
5.943315E+03	2.832865E-16	4.751973E-18
5.953270E+03	2.827549E-16	4.675816E-18
5.963225E+03	2.818720E-16	4.589716E-18
5.973180E+03	2.806816E-16	4.494787E-18
5.983136E+03	2.792295E-16	4.392173E-18
5.993091E+03	2.775650E-16	4.283056E-18
6.003046E+03	2.757468E-16	4.168736E-18
6.013002E+03	2.738339E-16	4.050471E-18
6.022957E+03	2.718863E-16	3.929476E-18
6.032912E+03	2.699664E-16	3.806942E-18
6.042868E+03	2.681321E-16	3.683924E-18
6.052823E+03	2.664363E-16	3.561339E-18
6.062778E+03	2.649390E-16	3.440132E-18
6.072733E+03	2.636833E-16	3.320952E-18
6.082689E+03	2.627185E-16	3.204475E-18
6.092644E+03	2.620817E-16	3.091174E-18
6.102599E+03	2.618105E-16	2.981493E-18
6.112555E+03	2.619356E-16	2.875777E-18
6.122510E+03	2.624831E-16	2.774319E-18
6.132465E+03	2.634720E-16	2.677358E-18
6.142421E+03	2.649190E-16	2.585162E-18
6.152376E+03	2.668306E-16	2.497975E-18
6.162331E+03	2.692214E-16	2.416228E-18
6.172286E+03	2.720870E-16	2.340311E-18
6.182242E+03	2.754274E-16	2.270830E-18
6.192197E+03	2.792314E-16	2.208489E-18
6.202152E+03	2.834781E-16	2.154137E-18
6.212108E+03	2.881457E-16	2.108835E-18
6.222063E+03	2.931999E-16	2.073753E-18
6.232018E+03	2.985999E-16	2.050163E-18
6.241974E+03	3.043011E-16	2.039359E-18
6.251929E+03	3.102547E-16	2.041803E-18
6.261884E+03	3.163938E-16	2.056549E-18
6.271839E+03	3.226632E-16	2.082396E-18
6.281795E+03	3.289969E-16	2.117869E-18
6.291750E+03	3.353288E-16	2.161353E-18
6.301705E+03	3.416012E-16	2.211222E-18
6.311661E+03	3.477568E-16	2.265851E-18
6.321616E+03	3.537398E-16	2.323686E-18
6.331571E+03	3.595041E-16	2.383346E-18
6.341527E+03	3.650184E-16	2.443694E-18
6.351482E+03	3.702442E-16	2.503724E-18
6.361437E+03	3.751618E-16	2.562751E-18
6.371392E+03	3.797592E-16	2.620350E-18
6.381348E+03	3.840233E-16	2.676309E-18
6.391303E+03	3.879591E-16	2.730752E-18
6.401258E+03	3.915682E-16	2.784001E-18
6.411214E+03	3.948601E-16	2.836634E-18
6.421169E+03	3.978384E-16	2.889379E-18
6.431124E+03	4.005243E-16	2.943263E-18
6.441080E+03	4.029267E-16	2.999371E-18
6.451035E+03	4.050576E-16	3.058926E-18
6.460990E+03	4.069268E-16	3.123207E-18
6.470945E+03	4.085416E-16	3.193510E-18
6.480901E+03	4.098951E-16	3.271000E-18
6.490856E+03	4.110004E-16	3.356927E-18
6.500811E+03	4.118505E-16	3.452166E-18
6.510767E+03	4.124624E-16	3.556576E-18
6.520722E+03	4.128302E-16	3.669067E-18
6.530677E+03	4.129632E-16	3.788581E-18
6.540633E+03	4.128544E-16	3.913867E-18
6.550588E+03	4.125113E-16	4.043789E-18
6.560543E+03	4.119203E-16	4.177020E-18
6.570498E+03	4.110788E-16	4.312358E-18
6.580454E+03	4.099734E-16	4.448520E-18
6.590409E+03	4.085944E-16	4.584298E-18
6.600364E+03	4.069326E-16	4.718526E-18
6.610320E+03	4.049845E-16	4.850150E-18
6.620275E+03	4.027401E-16	4.978087E-18
6.630230E+03	4.001976E-16	5.101398E-18
6.640186E+03	3.973636E-16	5.219309E-18
6.650141E+03	3.942458E-16	5.331121E-18
6.660096E+03	3.908530E-16	5.436213E-18
6.670051E+03	3.872127E-16	5.534300E-18
6.680007E+03	3.833410E-16	5.625012E-18
6.689962E+03	3.792725E-16	5.708332E-18
6.699917E+03	3.750465E-16	5.784405E-18
6.709873E+03	3.706982E-16	5.853412E-18
6.719828E+03	3.662746E-16	5.915808E-18
6.729783E+03	3.618209E-16	5.972121E-18
6.739739E+03	3.573799E-16	6.022928E-18
6.749694E+03	3.530074E-16	6.069115E-18
6.759649E+03	3.487465E-16	6.111435E-18
6.769604E+03	3.446432E-16	6.150771E-18
6.779560E+03	3.407420E-16	6.188045E-18
6.789515E+03	3.370887E-16	6.224261E-18
6.799470E+03	3.337215E-16	6.260345E-18
6.809426E+03	3.306716E-16	6.297126E-18
6.819381E+03	3.279773E-16	6.335599E-18
6.829336E+03	3.256572E-16	6.376404E-18
6.839292E+03	3.237363E-16	6.420313E-18
6.849247E+03	3.222346E-16	6.468007E-18
6.859202E+03	3.211553E-16	6.519819E-18
6.869157E+03	3.205112E-16	6.576264E-18
6.879113E+03	3.203020E-16	6.637570E-18
6.889068E+03	3.205176E-16	6.703733E-18
6.899023E+03	3.211465E-16	6.774681E-18
6.908979E+03	3.221748E-16	6.850264E-18
6.918934E+03	3.235800E-16	6.930105E-18
6.928889E+03	3.253305E-16	7.013592E-18
6.938845E+03	3.273982E-16	7.100148E-18
6.948800E+03	3.297475E-16	7.188992E-18
6.958755E+03	3.323359E-16	7.279162E-18
6.968710E+03	3.351314E-16	7.369887E-18
6.978666E+03	3.380854E-16	7.460008E-18
6.988621E+03	3.411624E-16	7.548626E-18
6.998576E+03	3.443287E-16	7.634871E-18
7.008532E+03	3.475417E-16	7.717664E-18
7.018487E+03	3.507797E-16	7.796384E-18
7.028442E+03	3.540093E-16	7.870150E-18
7.038398E+03	3.572200E-16	7.938593E-18
7.048353E+03	3.603940E-16	8.001195E-18
7.058308E+03	3.635236E-16	8.057668E-18
7.068263E+03	3.666061E-16	8.107848E-18
7.078219E+03	3.696475E-16	8.151775E-18
7.088174E+03	3.726475E-16	8.189358E-18
7.098129E+03	3.756116E-16	8.220652E-18
7.108085E+03	3.785496E-16	8.245809E-18
7.118040E+03	3.814595E-16	8.264741E-18
7.127995E+03	3.843450E-16	8.277495E-18
7.137951E+03	3.871994E-16	8.283906E-18
7.147906E+03	3.900039E-16	8.283573E-18
7.157861E+03	3.927411E-16	8.276158E-18
7.167817E+03	3.953747E-16	8.260952E-18
7.177772E+03	3.978742E-16	8.237424E-18
7.187727E+03	4.001791E-16	8.204474E-18
7.197682E+03	4.022413E-16	8.161333E-18
7.207638E+03	4.039896E-16	8.106846E-18
7.217593E+03	4.053523E-16	8.039956E-18
7.227548E+03	4.062551E-16	7.959657E-18
7.237504E+03	4.066286E-16	7.865164E-18
7.247459E+03	4.063959E-16	7.755668E-18
7.257414E+03	4.054922E-16	7.630721E-18
7.267370E+03	4.038736E-16	7.490379E-18
7.277325E+03	4.014883E-16	7.334662E-18
7.287280E+03	3.983119E-16	7.164177E-18
7.297235E+03	3.943490E-16	6.980121E-18
7.307191E+03	3.896030E-16	6.783702E-18
7.317146E+03	3.841084E-16	6.576677E-18
7.327101E+03	3.779239E-16	6.361194E-18
7.337057E+03	3.711161E-16	6.139463E-18
7.347012E+03	3.637759E-16	5.914014E-18
7.356967E+03	3.559915E-16	5.687209E-18
7.366923E+03	3.478688E-16	5.461566E-18
7.376878E+03	3.395220E-16	5.239577E-18
7.386833E+03	3.310512E-16	5.023362E-18
7.396788E+03	3.225672E-16	4.815044E-18
7.406744E+03	3.141606E-16	4.616298E-18
7.416699E+03	3.059352E-16	4.428847E-18
7.426654E+03	2.979624E-16	4.253820E-18
7.436610E+03	2.903151E-16	4.092256E-18
7.446565E+03	2.830494E-16	3.944869E-18
7.456520E+03	2.762139E-16	3.812191E-18
7.466476E+03	2.698415E-16	3.694478E-18
7.476431E+03	2.639507E-16	3.591745E-18
7.486386E+03	2.585576E-16	3.503613E-18
7.496341E+03	2.536613E-16	3.429066E-18
7.506297E+03	2.492561E-16	3.367056E-18
7.516252E+03	2.453336E-16	3.316565E-18
7.526207E+03	2.418734E-16	3.276488E-18
7.536163E+03	2.388586E-16	3.245831E-18
7.546118E+03	2.362601E-16	3.223509E-18
7.556073E+03	2.340579E-16	3.208616E-18
7.566029E+03	2.322295E-16	3.200270E-18
7.575984E+03	2.307541E-16	3.197660E-18
7.585939E+03	2.296108E-16	3.200021E-18
7.595894E+03	2.287853E-16	3.206712E-18
7.605850E+03	2.282694E-16	3.217218E-18
7.615805E+03	2.280510E-16	3.230993E-18
7.625760E+03	2.281224E-16	3.247578E-18
7.635716E+03	2.284793E-16	3.266583E-18
7.645671E+03	2.291075E-16	3.287486E-18
7.655626E+03	2.300011E-16	3.309897E-18
7.665582E+03	2.311527E-16	3.333407E-18
7.675537E+03	2.325436E-16	3.357447E-18
7.685492E+03	2.341629E-16	3.381560E-18
7.695447E+03	2.359946E-16	3.405216E-18
7.705403E+03	2.380217E-16	3.427863E-18
7.715358E+03	2.402289E-16	3.448978E-18
7.725313E+03	2.425904E-16	3.467885E-18
