#wls	flux	fluxerr
1.592848E+03	5.531700E-18	4.737419E-18
1.632669E+03	5.796301E-18	4.917264E-18
1.672491E+03	6.042076E-18	5.076491E-18
1.712312E+03	6.264612E-18	5.211826E-18
1.752133E+03	6.458217E-18	5.319093E-18
1.791954E+03	6.611470E-18	5.389655E-18
1.831775E+03	6.711179E-18	5.413847E-18
1.871597E+03	6.741069E-18	5.380019E-18
1.911418E+03	6.684362E-18	5.276720E-18
1.951239E+03	6.534586E-18	5.101166E-18
1.991060E+03	6.298684E-18	4.861205E-18
2.030881E+03	6.015314E-18	4.588680E-18
2.070703E+03	5.757034E-18	4.339633E-18
2.110524E+03	5.618587E-18	4.184006E-18
2.150345E+03	5.686223E-18	4.181989E-18
2.190166E+03	6.004863E-18	4.360490E-18
2.229987E+03	6.568613E-18	4.708198E-18
2.269809E+03	7.332507E-18	5.186261E-18
2.309630E+03	8.237645E-18	5.747696E-18
2.349451E+03	9.225245E-18	6.347770E-18
2.389272E+03	1.025333E-17	6.955367E-18
2.429093E+03	1.129434E-17	7.550626E-18
2.468915E+03	1.233708E-17	8.125530E-18
2.508736E+03	1.337566E-17	8.675940E-18
2.548557E+03	1.440896E-17	9.201023E-18
2.588378E+03	1.544275E-17	9.704306E-18
2.628199E+03	1.647977E-17	1.018722E-17
2.668021E+03	1.752516E-17	1.065256E-17
2.707842E+03	1.858394E-17	1.110282E-17
2.747663E+03	1.966330E-17	1.154156E-17
2.787484E+03	2.076745E-17	1.197032E-17
2.827305E+03	2.189714E-17	1.238851E-17
2.867127E+03	2.306333E-17	1.280117E-17
2.906948E+03	2.426536E-17	1.320651E-17
2.946769E+03	2.550726E-17	1.360530E-17
2.986590E+03	2.679522E-17	1.399924E-17
2.996546E+03	2.712431E-17	1.409672E-17
3.006501E+03	2.745730E-17	1.419427E-17
3.016456E+03	2.779113E-17	1.429031E-17
3.026411E+03	2.813224E-17	1.438811E-17
3.036367E+03	2.847668E-17	1.448560E-17
3.046322E+03	2.882930E-17	1.458520E-17
3.056277E+03	2.919073E-17	1.468716E-17
3.066233E+03	2.956024E-17	1.479104E-17
3.076188E+03	2.993711E-17	1.489639E-17
3.086143E+03	3.032066E-17	1.500284E-17
3.096099E+03	3.071026E-17	1.510999E-17
3.106054E+03	3.110532E-17	1.521752E-17
3.116009E+03	3.150836E-17	1.532659E-17
3.125964E+03	3.191266E-17	1.543389E-17
3.135920E+03	3.232387E-17	1.554212E-17
3.145875E+03	3.274155E-17	1.565100E-17
3.155830E+03	3.316211E-17	1.575878E-17
3.165786E+03	3.358510E-17	1.586520E-17
3.175741E+03	3.401325E-17	1.597153E-17
3.185696E+03	3.444299E-17	1.607606E-17
3.195652E+03	3.487711E-17	1.618006E-17
3.205607E+03	3.531522E-17	1.628331E-17
3.215562E+03	3.575696E-17	1.638561E-17
3.225517E+03	3.619890E-17	1.648536E-17
3.235473E+03	3.664381E-17	1.658381E-17
3.245428E+03	3.709455E-17	1.668222E-17
3.255383E+03	3.754454E-17	1.677758E-17
3.265339E+03	3.799975E-17	1.687257E-17
3.275294E+03	3.845362E-17	1.696424E-17
3.285249E+03	3.891220E-17	1.705523E-17
3.295205E+03	3.937205E-17	1.714403E-17
3.305160E+03	3.983609E-17	1.723186E-17
3.315115E+03	4.030093E-17	1.731724E-17
3.325070E+03	4.076944E-17	1.740139E-17
3.335026E+03	4.123827E-17	1.748284E-17
3.344981E+03	4.171348E-17	1.756414E-17
3.354936E+03	4.218542E-17	1.764121E-17
3.364892E+03	4.266332E-17	1.771790E-17
3.374847E+03	4.314382E-17	1.779276E-17
3.384802E+03	4.362671E-17	1.786569E-17
3.394758E+03	4.411183E-17	1.793660E-17
3.404713E+03	4.460212E-17	1.800665E-17
3.414668E+03	4.509432E-17	1.807450E-17
3.424623E+03	4.558829E-17	1.814007E-17
3.434579E+03	4.608701E-17	1.820451E-17
3.444534E+03	4.658735E-17	1.826656E-17
3.454489E+03	4.709534E-17	1.832854E-17
3.464445E+03	4.760487E-17	1.838804E-17
3.474400E+03	4.811904E-17	1.844621E-17
3.484355E+03	4.863796E-17	1.850307E-17
3.494311E+03	4.916478E-17	1.855975E-17
3.504266E+03	4.969675E-17	1.861517E-17
3.514221E+03	5.023416E-17	1.866937E-17
3.524176E+03	5.078038E-17	1.872355E-17
3.534132E+03	5.133298E-17	1.877675E-17
3.544087E+03	5.189842E-17	1.883125E-17
3.554042E+03	5.247152E-17	1.888508E-17
3.563998E+03	5.305598E-17	1.893948E-17
3.573953E+03	5.365272E-17	1.899469E-17
3.583908E+03	5.426561E-17	1.905195E-17
3.593864E+03	5.489288E-17	1.911050E-17
3.603819E+03	5.553577E-17	1.917065E-17
3.613774E+03	5.620133E-17	1.923467E-17
3.623729E+03	5.688529E-17	1.930091E-17
3.633685E+03	5.758921E-17	1.936973E-17
3.643640E+03	5.832040E-17	1.944340E-17
3.653595E+03	5.908061E-17	1.952224E-17
3.663551E+03	5.986597E-17	1.960475E-17
3.673506E+03	6.068404E-17	1.969314E-17
3.683461E+03	6.153394E-17	1.978684E-17
3.693417E+03	6.242316E-17	1.988797E-17
3.703372E+03	6.334814E-17	1.999505E-17
3.713327E+03	6.431356E-17	2.010923E-17
3.723282E+03	6.532136E-17	2.023074E-17
3.733238E+03	6.637333E-17	2.035977E-17
3.743193E+03	6.747397E-17	2.049730E-17
3.753148E+03	6.862202E-17	2.064251E-17
3.763104E+03	6.982169E-17	2.079623E-17
3.773059E+03	7.107411E-17	2.095835E-17
3.783014E+03	7.237739E-17	2.112784E-17
3.792970E+03	7.373759E-17	2.130602E-17
3.802925E+03	7.514942E-17	2.149087E-17
3.812880E+03	7.661811E-17	2.168340E-17
3.822835E+03	7.814300E-17	2.188295E-17
3.832791E+03	7.972009E-17	2.208789E-17
3.842746E+03	8.134759E-17	2.229730E-17
3.852701E+03	8.302591E-17	2.251083E-17
3.862657E+03	8.475487E-17	2.272799E-17
3.867081E+03	2.766660E-17	7.382620E-18
3.869193E+03	2.975451E-17	7.921023E-18
3.871306E+03	3.176106E-17	8.435185E-18
3.873419E+03	3.390224E-17	8.982482E-18
3.875532E+03	3.604357E-17	9.527133E-18
3.877645E+03	3.825227E-17	1.008684E-17
3.879760E+03	4.036419E-17	1.061829E-17
3.881874E+03	4.250450E-17	1.115454E-17
3.883988E+03	4.463571E-17	1.168571E-17
3.886103E+03	4.677625E-17	1.221661E-17
3.888219E+03	4.902298E-17	1.277248E-17
3.890334E+03	5.124391E-17	1.331882E-17
3.892450E+03	5.358460E-17	1.389340E-17
3.894565E+03	5.576231E-17	1.442288E-17
3.896682E+03	5.805532E-17	1.497934E-17
3.898798E+03	6.029388E-17	1.551891E-17
3.900916E+03	6.246152E-17	1.603742E-17
3.903032E+03	6.474947E-17	1.658403E-17
3.905150E+03	6.687478E-17	1.708619E-17
3.907268E+03	6.896669E-17	1.757713E-17
3.909386E+03	7.120172E-17	1.810184E-17
3.911504E+03	7.332868E-17	1.859631E-17
3.913624E+03	7.556966E-17	1.911692E-17
3.915742E+03	7.774908E-17	1.961919E-17
3.917862E+03	7.993021E-17	2.011912E-17
3.919981E+03	8.215065E-17	2.062616E-17
3.922101E+03	8.425116E-17	2.110037E-17
3.924221E+03	8.634138E-17	2.156934E-17
3.926342E+03	8.850776E-17	2.205465E-17
3.928462E+03	9.048271E-17	2.248965E-17
3.930584E+03	9.235228E-17	2.289601E-17
3.932705E+03	9.424240E-17	2.330509E-17
3.934827E+03	9.628762E-17	2.375004E-17
3.936948E+03	9.828262E-17	2.418007E-17
3.939071E+03	1.002748E-16	2.460685E-17
3.941193E+03	1.020656E-16	2.498184E-17
3.943316E+03	1.037656E-16	2.533239E-17
3.945439E+03	1.055018E-16	2.568958E-17
3.947561E+03	1.070908E-16	2.600888E-17
3.949686E+03	1.085801E-16	2.630198E-17
3.951809E+03	1.099533E-16	2.656515E-17
3.953934E+03	1.113940E-16	2.684284E-17
3.956058E+03	1.127822E-16	2.710611E-17
3.958183E+03	1.140375E-16	2.733576E-17
3.960308E+03	1.152638E-16	2.755687E-17
3.962433E+03	1.165495E-16	2.779062E-17
3.964558E+03	1.176853E-16	2.798710E-17
3.966685E+03	1.187998E-16	2.817705E-17
3.968811E+03	1.198283E-16	2.834524E-17
3.970936E+03	1.207459E-16	2.848604E-17
3.973064E+03	1.216498E-16	2.862236E-17
3.975190E+03	1.223286E-16	2.870480E-17
3.977318E+03	1.230011E-16	2.878486E-17
3.979445E+03	1.236426E-16	2.885684E-17
3.981573E+03	1.242449E-16	2.891891E-17
3.983701E+03	1.247427E-16	2.895592E-17
3.985830E+03	1.253233E-16	2.901147E-17
3.987958E+03	1.257662E-16	2.903453E-17
3.990087E+03	1.260137E-16	2.901204E-17
3.992216E+03	1.263191E-16	2.900250E-17
3.994345E+03	1.265430E-16	2.897394E-17
3.996475E+03	1.267098E-16	2.893207E-17
3.998605E+03	1.268934E-16	2.889377E-17
4.000736E+03	1.269949E-16	2.883661E-17
4.002866E+03	1.269645E-16	2.874946E-17
4.004997E+03	1.268429E-16	2.864179E-17
4.007128E+03	1.268036E-16	2.855276E-17
4.009259E+03	1.266397E-16	2.843583E-17
4.011391E+03	1.264172E-16	2.830597E-17
4.013522E+03	1.262354E-16	2.818551E-17
4.015655E+03	1.260779E-16	2.807067E-17
4.017787E+03	1.257616E-16	2.792078E-17
4.019920E+03	1.255276E-16	2.778953E-17
4.022053E+03	1.252429E-16	2.764733E-17
4.024185E+03	1.251994E-16	2.755867E-17
4.026319E+03	1.251056E-16	2.745896E-17
4.028453E+03	1.248269E-16	2.731891E-17
4.030587E+03	1.246731E-16	2.720651E-17
4.032721E+03	1.246028E-16	2.711245E-17
4.034855E+03	1.244059E-16	2.699102E-17
4.036990E+03	1.242925E-16	2.688792E-17
4.039125E+03	1.243981E-16	2.683217E-17
4.041261E+03	1.244530E-16	2.676540E-17
4.043396E+03	1.244740E-16	2.669131E-17
4.045532E+03	1.244441E-16	2.660631E-17
4.047668E+03	1.245496E-16	2.655021E-17
4.049804E+03	1.246977E-16	2.650303E-17
4.051941E+03	1.249564E-16	2.647914E-17
4.054077E+03	1.251305E-16	2.643705E-17
4.056215E+03	1.253305E-16	2.640016E-17
4.058352E+03	1.256760E-16	2.639359E-17
4.060489E+03	1.259281E-16	2.636706E-17
4.062627E+03	1.261721E-16	2.633853E-17
4.064765E+03	1.265537E-16	2.633832E-17
4.066904E+03	1.268503E-16	2.631999E-17
4.069042E+03	1.272077E-16	2.631388E-17
4.071181E+03	1.275400E-16	2.630212E-17
4.073320E+03	1.277867E-16	2.627241E-17
4.075459E+03	1.279735E-16	2.623008E-17
4.077599E+03	1.280051E-16	2.615582E-17
4.079739E+03	1.279673E-16	2.606737E-17
4.081879E+03	1.280679E-16	2.600708E-17
4.084019E+03	1.281770E-16	2.594846E-17
4.086160E+03	1.281040E-16	2.585288E-17
4.088301E+03	1.279087E-16	2.573284E-17
4.090442E+03	1.277562E-16	2.562163E-17
4.092582E+03	1.276467E-16	2.551924E-17
4.094725E+03	1.273097E-16	2.537161E-17
4.096866E+03	1.268754E-16	2.520511E-17
4.099008E+03	1.264660E-16	2.504409E-17
4.101151E+03	1.260114E-16	2.487468E-17
4.103293E+03	1.255905E-16	2.471249E-17
4.105436E+03	1.251946E-16	2.455576E-17
4.107579E+03	1.246302E-16	2.436657E-17
4.109722E+03	1.241435E-16	2.419324E-17
4.111866E+03	1.235758E-16	2.400481E-17
4.114009E+03	1.232096E-16	2.385613E-17
4.116153E+03	1.227006E-16	2.368035E-17
4.118298E+03	1.220749E-16	2.348277E-17
4.120442E+03	1.216248E-16	2.331966E-17
4.122587E+03	1.212976E-16	2.318063E-17
4.124732E+03	1.209693E-16	2.304180E-17
4.126876E+03	1.207200E-16	2.291843E-17
4.129022E+03	1.203183E-16	2.276652E-17
4.131168E+03	1.200761E-16	2.264518E-17
4.133313E+03	1.197704E-16	2.251226E-17
4.135460E+03	1.195890E-16	2.240301E-17
4.137606E+03	1.195415E-16	2.231899E-17
4.139753E+03	1.194486E-16	2.222662E-17
4.141900E+03	1.191846E-16	2.210261E-17
4.144046E+03	1.191356E-16	2.201873E-17
4.146194E+03	1.191223E-16	2.194148E-17
4.148341E+03	1.190727E-16	2.185760E-17
4.150488E+03	1.190769E-16	2.178366E-17
4.152637E+03	1.190810E-16	2.170966E-17
4.154785E+03	1.190757E-16	2.163399E-17
4.156933E+03	1.190248E-16	2.155010E-17
4.159082E+03	1.191644E-16	2.150065E-17
4.161231E+03	1.192860E-16	2.144778E-17
4.163379E+03	1.192800E-16	2.137196E-17
4.165529E+03	1.193103E-16	2.130262E-17
4.167679E+03	1.193496E-16	2.123484E-17
4.169828E+03	1.194437E-16	2.117676E-17
4.171978E+03	1.197208E-16	2.115095E-17
4.174128E+03	1.196776E-16	2.106837E-17
4.176279E+03	1.197993E-16	2.101480E-17
4.178430E+03	1.198567E-16	2.094984E-17
4.180580E+03	1.198679E-16	2.087683E-17
4.182732E+03	1.199528E-16	2.081656E-17
4.184883E+03	1.200745E-16	2.076259E-17
4.187034E+03	1.203073E-16	2.072763E-17
4.189187E+03	1.204386E-16	2.067496E-17
4.191338E+03	1.207460E-16	2.065231E-17
4.193490E+03	1.209613E-16	2.061355E-17
4.195643E+03	1.212141E-16	2.058092E-17
4.197796E+03	1.212346E-16	2.050869E-17
4.199948E+03	1.216369E-16	2.050084E-17
4.202102E+03	1.218256E-16	2.045660E-17
4.204255E+03	1.220050E-16	2.041062E-17
4.206408E+03	1.222502E-16	2.037539E-17
4.208562E+03	1.224770E-16	2.033684E-17
4.210716E+03	1.228074E-16	2.031513E-17
4.212870E+03	1.232135E-16	2.030553E-17
4.215025E+03	1.235922E-16	2.029095E-17
4.217179E+03	1.239810E-16	2.027758E-17
4.219333E+03	1.243423E-16	2.025927E-17
4.221489E+03	1.245816E-16	2.022071E-17
4.223644E+03	1.250104E-16	2.021251E-17
4.225799E+03	1.253926E-16	2.019632E-17
4.227954E+03	1.257850E-16	2.018132E-17
4.230111E+03	1.260644E-16	2.014777E-17
4.232266E+03	1.263061E-16	2.010794E-17
4.234422E+03	1.264721E-16	2.005580E-17
4.236579E+03	1.269050E-16	2.004566E-17
4.238736E+03	1.273294E-16	2.003361E-17
4.240892E+03	1.275443E-16	1.998829E-17
4.243050E+03	1.277117E-16	1.993529E-17
4.245207E+03	1.277930E-16	1.986874E-17
4.247364E+03	1.280852E-16	1.983478E-17
4.249522E+03	1.283395E-16	1.979465E-17
4.251680E+03	1.285847E-16	1.975279E-17
4.253838E+03	1.287627E-16	1.970039E-17
4.255996E+03	1.292108E-16	1.968901E-17
4.258155E+03	1.295827E-16	1.966547E-17
4.260313E+03	1.299165E-16	1.963579E-17
4.262472E+03	1.302994E-16	1.961307E-17
4.264631E+03	1.308380E-16	1.961330E-17
4.266790E+03	1.312515E-16	1.959421E-17
4.268950E+03	1.317048E-16	1.958051E-17
4.271110E+03	1.320615E-16	1.955204E-17
4.273270E+03	1.325066E-16	1.953616E-17
4.275429E+03	1.330110E-16	1.952851E-17
4.277590E+03	1.333505E-16	1.949613E-17
4.279750E+03	1.336709E-16	1.946060E-17
4.281911E+03	1.340801E-16	1.943755E-17
4.284072E+03	1.344997E-16	1.941558E-17
4.286233E+03	1.348023E-16	1.937628E-17
4.288394E+03	1.352431E-16	1.935643E-17
4.290555E+03	1.356944E-16	1.933759E-17
4.292717E+03	1.358509E-16	1.927640E-17
4.294879E+03	1.360076E-16	1.921504E-17
4.297040E+03	1.364212E-16	1.918972E-17
4.299203E+03	1.367168E-16	1.914738E-17
4.301366E+03	1.370428E-16	1.910891E-17
4.303528E+03	1.373393E-16	1.906604E-17
4.305690E+03	1.375667E-16	1.901330E-17
4.307854E+03	1.376652E-16	1.894255E-17
4.310017E+03	1.377436E-16	1.886898E-17
4.312180E+03	1.381210E-16	1.883614E-17
4.314344E+03	1.382894E-16	1.877451E-17
4.316507E+03	1.384179E-16	1.870733E-17
4.318671E+03	1.386866E-16	1.865887E-17
4.320835E+03	1.388554E-16	1.859674E-17
4.323000E+03	1.389941E-16	1.853046E-17
4.325164E+03	1.392033E-16	1.847340E-17
4.327328E+03	1.392817E-16	1.839887E-17
4.329494E+03	1.394710E-16	1.833883E-17
4.331658E+03	1.395492E-16	1.826413E-17
4.333823E+03	1.396578E-16	1.819329E-17
4.335988E+03	1.397055E-16	1.811448E-17
4.338154E+03	1.397632E-16	1.803695E-17
4.340320E+03	1.398308E-16	1.796065E-17
4.342485E+03	1.400098E-16	1.789860E-17
4.344652E+03	1.402704E-16	1.784673E-17
4.346818E+03	1.404295E-16	1.778173E-17
4.348984E+03	1.405274E-16	1.770890E-17
4.351151E+03	1.405437E-16	1.762573E-17
4.353318E+03	1.408764E-16	1.758212E-17
4.355485E+03	1.409129E-16	1.750134E-17
4.357652E+03	1.411130E-16	1.744080E-17
4.359819E+03	1.412312E-16	1.737000E-17
4.361987E+03	1.413390E-16	1.729784E-17
4.364154E+03	1.414364E-16	1.722436E-17
4.366322E+03	1.415029E-16	1.714702E-17
4.368490E+03	1.416827E-16	1.708332E-17
4.370658E+03	1.417798E-16	1.700959E-17
4.372826E+03	1.418148E-16	1.692835E-17
4.374995E+03	1.419842E-16	1.686306E-17
4.377164E+03	1.421225E-16	1.679398E-17
4.379333E+03	1.421882E-16	1.671623E-17
4.381501E+03	1.420977E-16	1.662024E-17
4.383670E+03	1.421315E-16	1.653884E-17
4.385840E+03	1.422276E-16	1.646467E-17
4.388009E+03	1.426468E-16	1.642766E-17
4.390179E+03	1.425655E-16	1.633285E-17
4.392348E+03	1.424521E-16	1.623458E-17
4.394519E+03	1.422754E-16	1.612929E-17
4.396689E+03	1.424332E-16	1.606200E-17
4.398859E+03	1.425176E-16	1.598636E-17
4.401029E+03	1.423811E-16	1.588604E-17
4.403201E+03	1.424124E-16	1.580453E-17
4.405371E+03	1.423273E-16	1.571025E-17
4.407542E+03	1.421152E-16	1.560215E-17
4.409713E+03	1.419655E-16	1.550119E-17
4.411885E+03	1.418784E-16	1.540729E-17
4.414056E+03	1.416955E-16	1.530320E-17
4.416228E+03	1.415966E-16	1.520839E-17
4.418399E+03	1.415713E-16	1.512167E-17
4.420571E+03	1.415455E-16	1.503500E-17
4.422744E+03	1.414768E-16	1.494383E-17
4.424915E+03	1.414288E-16	1.485505E-17
4.427087E+03	1.413269E-16	1.476075E-17
4.429261E+03	1.412886E-16	1.467321E-17
4.431433E+03	1.411642E-16	1.457693E-17
4.433606E+03	1.410177E-16	1.447857E-17
4.435779E+03	1.409026E-16	1.438366E-17
4.437952E+03	1.410121E-16	1.431180E-17
4.440125E+03	1.411861E-16	1.424635E-17
4.442299E+03	1.413709E-16	1.418184E-17
4.444472E+03	1.416311E-16	1.412473E-17
4.446647E+03	1.417622E-16	1.405456E-17
4.448820E+03	1.421414E-16	1.400882E-17
4.450995E+03	1.426944E-16	1.397966E-17
4.453168E+03	1.430317E-16	1.392900E-17
4.455344E+03	1.433262E-16	1.387380E-17
4.457518E+03	1.437511E-16	1.383094E-17
4.459692E+03	1.441440E-16	1.378460E-17
4.461867E+03	1.446464E-16	1.374826E-17
4.464041E+03	1.453672E-16	1.373210E-17
4.466217E+03	1.462204E-16	1.372757E-17
4.468393E+03	1.469334E-16	1.370901E-17
4.470568E+03	1.477022E-16	1.369494E-17
4.472743E+03	1.486148E-16	1.369331E-17
4.474919E+03	1.494963E-16	1.368786E-17
4.477095E+03	1.505879E-16	1.370057E-17
4.479271E+03	1.515610E-16	1.370139E-17
4.481446E+03	1.525029E-16	1.369842E-17
4.483623E+03	1.536670E-16	1.371425E-17
4.485800E+03	1.546901E-16	1.371630E-17
4.487976E+03	1.560573E-16	1.374762E-17
4.490153E+03	1.574828E-16	1.378253E-17
4.492329E+03	1.588668E-16	1.381234E-17
4.494507E+03	1.604642E-16	1.385905E-17
4.496683E+03	1.620982E-16	1.390722E-17
4.498860E+03	1.638578E-16	1.396430E-17
4.501038E+03	1.656546E-16	1.402257E-17
4.503216E+03	1.677110E-16	1.410078E-17
4.505394E+03	1.697386E-16	1.417430E-17
4.507571E+03	1.720828E-16	1.427192E-17
4.509749E+03	1.742422E-16	1.435174E-17
4.511926E+03	1.765851E-16	1.444428E-17
4.514105E+03	1.788659E-16	1.452919E-17
4.516283E+03	1.813085E-16	1.462469E-17
4.518462E+03	1.837116E-16	1.471434E-17
4.520641E+03	1.859737E-16	1.479020E-17
4.522820E+03	1.882405E-16	1.486405E-17
4.524998E+03	1.906584E-16	1.494734E-17
4.527177E+03	1.929576E-16	1.501875E-17
4.529356E+03	1.954196E-16	1.510030E-17
4.531535E+03	1.978755E-16	1.517876E-17
4.533715E+03	2.000876E-16	1.523605E-17
4.535894E+03	2.021570E-16	1.528023E-17
4.538074E+03	2.043895E-16	1.533443E-17
4.540253E+03	2.064448E-16	1.537316E-17
4.542433E+03	2.085726E-16	1.541507E-17
4.544614E+03	2.108413E-16	1.546510E-17
4.546793E+03	2.127725E-16	1.548828E-17
4.548974E+03	2.147878E-16	1.551544E-17
4.551154E+03	2.167726E-16	1.553842E-17
4.553335E+03	2.187500E-16	1.555885E-17
4.555516E+03	2.209946E-16	1.559609E-17
4.557696E+03	2.226820E-16	1.559208E-17
4.559877E+03	2.245678E-16	1.560012E-17
4.562058E+03	2.264457E-16	1.560574E-17
4.564239E+03	2.284191E-16	1.561608E-17
4.566420E+03	2.303389E-16	1.562077E-17
4.568601E+03	2.321355E-16	1.561528E-17
4.570783E+03	2.338318E-16	1.560128E-17
4.572964E+03	2.354733E-16	1.558208E-17
4.575147E+03	2.371180E-16	1.556145E-17
4.577328E+03	2.386728E-16	1.553348E-17
4.579510E+03	2.402769E-16	1.550717E-17
4.581692E+03	2.416402E-16	1.546393E-17
4.583874E+03	2.427967E-16	1.540634E-17
4.586057E+03	2.440364E-16	1.535297E-17
4.588239E+03	2.452432E-16	1.529646E-17
4.590421E+03	2.464869E-16	1.524118E-17
4.592604E+03	2.475226E-16	1.517201E-17
4.594786E+03	2.485014E-16	1.509859E-17
4.596970E+03	2.496220E-16	1.503286E-17
4.599152E+03	2.504514E-16	1.494889E-17
4.601335E+03	2.512117E-16	1.486014E-17
4.603518E+03	2.520784E-16	1.477712E-17
4.605701E+03	2.529463E-16	1.469351E-17
4.607886E+03	2.535096E-16	1.459168E-17
4.610069E+03	2.540143E-16	1.448626E-17
4.612252E+03	2.545664E-16	1.438328E-17
4.614436E+03	2.550011E-16	1.427338E-17
4.616619E+03	2.551522E-16	1.414767E-17
4.618804E+03	2.553738E-16	1.402592E-17
4.620988E+03	2.557018E-16	1.391003E-17
4.623172E+03	2.554250E-16	1.376154E-17
4.625356E+03	2.552061E-16	1.361675E-17
4.627540E+03	2.550690E-16	1.347683E-17
4.629725E+03	2.549189E-16	1.333671E-17
4.631910E+03	2.546011E-16	1.318833E-17
4.634094E+03	2.540909E-16	1.303081E-17
4.636279E+03	2.536864E-16	1.287947E-17
4.638463E+03	2.533038E-16	1.273005E-17
4.640648E+03	2.527403E-16	1.257232E-17
4.642834E+03	2.520790E-16	1.241071E-17
4.645018E+03	2.515112E-16	1.225475E-17
4.647204E+03	2.508697E-16	1.209606E-17
4.649389E+03	2.502137E-16	1.193777E-17
4.651574E+03	2.494353E-16	1.177474E-17
4.653760E+03	2.488229E-16	1.162063E-17
4.655946E+03	2.479676E-16	1.145624E-17
4.658131E+03	2.471818E-16	1.129633E-17
4.660317E+03	2.464178E-16	1.113854E-17
4.662503E+03	2.456514E-16	1.098180E-17
4.664690E+03	2.449067E-16	1.082720E-17
4.666876E+03	2.441596E-16	1.067365E-17
4.669061E+03	2.432039E-16	1.051229E-17
4.671248E+03	2.423791E-16	1.035778E-17
4.673434E+03	2.415760E-16	1.020549E-17
4.675620E+03	2.409405E-16	1.006143E-17
4.677807E+03	2.402421E-16	9.915834E-18
4.679994E+03	2.395904E-16	9.773222E-18
4.682181E+03	2.390462E-16	9.636042E-18
4.684367E+03	2.383657E-16	9.494478E-18
4.686554E+03	2.379153E-16	9.363054E-18
4.688741E+03	2.373774E-16	9.229198E-18
4.690929E+03	2.370461E-16	9.104188E-18
4.693116E+03	2.369707E-16	8.989760E-18
4.695303E+03	2.368698E-16	8.874971E-18
4.697490E+03	2.367310E-16	8.759410E-18
4.699677E+03	2.364067E-16	8.637741E-18
4.701865E+03	2.364502E-16	8.530205E-18
