#wls	flux	fluxerr
1.592848E+03	5.171189E-18	4.501321E-18
1.632669E+03	5.412326E-18	4.674895E-18
1.672491E+03	5.635606E-18	4.829328E-18
1.712312E+03	5.837006E-18	4.961490E-18
1.752133E+03	6.011319E-18	5.067374E-18
1.791954E+03	6.149169E-18	5.139652E-18
1.831775E+03	6.236191E-18	5.167154E-18
1.871597E+03	6.258535E-18	5.139576E-18
1.911418E+03	6.201919E-18	5.046714E-18
1.951239E+03	6.058291E-18	4.883860E-18
1.991060E+03	5.835381E-18	4.659213E-18
2.030881E+03	5.569141E-18	4.403099E-18
2.070703E+03	5.326750E-18	4.169204E-18
2.110524E+03	5.195752E-18	4.024856E-18
2.150345E+03	5.255679E-18	4.028366E-18
2.190166E+03	5.546811E-18	4.205573E-18
2.229987E+03	6.065305E-18	4.547746E-18
2.269809E+03	6.767450E-18	5.016565E-18
2.309630E+03	7.599811E-18	5.567937E-18
2.349451E+03	8.509638E-18	6.160001E-18
2.389272E+03	9.455751E-18	6.760949E-18
2.429093E+03	1.041594E-17	7.353795E-18
2.468915E+03	1.137528E-17	7.927396E-18
2.508736E+03	1.233366E-17	8.481367E-18
2.548557E+03	1.328878E-17	9.013808E-18
2.588378E+03	1.424430E-17	9.526928E-18
2.628199E+03	1.520513E-17	1.002360E-17
2.668021E+03	1.617657E-17	1.050675E-17
2.707842E+03	1.716620E-17	1.098060E-17
2.747663E+03	1.817667E-17	1.144590E-17
2.787484E+03	1.921231E-17	1.190435E-17
2.827305E+03	2.027951E-17	1.235873E-17
2.867127E+03	2.138690E-17	1.281288E-17
2.906948E+03	2.253193E-17	1.326365E-17
2.946769E+03	2.372470E-17	1.371531E-17
2.986590E+03	2.496931E-17	1.416829E-17
2.996546E+03	2.528927E-17	1.428190E-17
3.006501E+03	2.561354E-17	1.439602E-17
3.016456E+03	2.593919E-17	1.450898E-17
3.026411E+03	2.626951E-17	1.462259E-17
3.036367E+03	2.660643E-17	1.473787E-17
3.046322E+03	2.695170E-17	1.485574E-17
3.056277E+03	2.730595E-17	1.497645E-17
3.066233E+03	2.766848E-17	1.509955E-17
3.076188E+03	2.803866E-17	1.522462E-17
3.086143E+03	2.841588E-17	1.535126E-17
3.096099E+03	2.879957E-17	1.547910E-17
3.106054E+03	2.918918E-17	1.560778E-17
3.116009E+03	2.958419E-17	1.573696E-17
3.125964E+03	2.998708E-17	1.586792E-17
3.135920E+03	3.039739E-17	1.600033E-17
3.145875E+03	3.080874E-17	1.613079E-17
3.155830E+03	3.122665E-17	1.626214E-17
3.165786E+03	3.165074E-17	1.639414E-17
3.175741E+03	3.207763E-17	1.652497E-17
3.185696E+03	3.250995E-17	1.665596E-17
3.195652E+03	3.294433E-17	1.678533E-17
3.205607E+03	3.338649E-17	1.691597E-17
3.215562E+03	3.383005E-17	1.704456E-17
3.225517E+03	3.427771E-17	1.717246E-17
3.235473E+03	3.472920E-17	1.729949E-17
3.245428E+03	3.518421E-17	1.742544E-17
3.255383E+03	3.564550E-17	1.755165E-17
3.265339E+03	3.610673E-17	1.767493E-17
3.275294E+03	3.657371E-17	1.779812E-17
3.285249E+03	3.704313E-17	1.791956E-17
3.295205E+03	3.751779E-17	1.804056E-17
3.305160E+03	3.799437E-17	1.815948E-17
3.315115E+03	3.847572E-17	1.827765E-17
3.325070E+03	3.895851E-17	1.839346E-17
3.335026E+03	3.944557E-17	1.850819E-17
3.344981E+03	3.993665E-17	1.862171E-17
3.354936E+03	4.043155E-17	1.873386E-17
3.364892E+03	4.092997E-17	1.884447E-17
3.374847E+03	4.143476E-17	1.895481E-17
3.384802E+03	4.193959E-17	1.906193E-17
3.394758E+03	4.245032E-17	1.916847E-17
3.404713E+03	4.296368E-17	1.927291E-17
3.414668E+03	4.348243E-17	1.937643E-17
3.424623E+03	4.400334E-17	1.947758E-17
3.434579E+03	4.452920E-17	1.957752E-17
3.444534E+03	4.506271E-17	1.967741E-17
3.454489E+03	4.559772E-17	1.977448E-17
3.464445E+03	4.613699E-17	1.986992E-17
3.474400E+03	4.668029E-17	1.996358E-17
3.484355E+03	4.723045E-17	2.005661E-17
3.494311E+03	4.778445E-17	2.014767E-17
3.504266E+03	4.834233E-17	2.023674E-17
3.514221E+03	4.890723E-17	2.032508E-17
3.524176E+03	4.947945E-17	2.041275E-17
3.534132E+03	5.005944E-17	2.049985E-17
3.544087E+03	5.064779E-17	2.058655E-17
3.554042E+03	5.124811E-17	2.067422E-17
3.563998E+03	5.185540E-17	2.076074E-17
3.573953E+03	5.247629E-17	2.084869E-17
3.583908E+03	5.310898E-17	2.093720E-17
3.593864E+03	5.375738E-17	2.102771E-17
3.603819E+03	5.442280E-17	2.112057E-17
3.613774E+03	5.510665E-17	2.121614E-17
3.623729E+03	5.581057E-17	2.131490E-17
3.633685E+03	5.653642E-17	2.141735E-17
3.643640E+03	5.728905E-17	2.152510E-17
3.653595E+03	5.806793E-17	2.163770E-17
3.663551E+03	5.887826E-17	2.175681E-17
3.673506E+03	5.971983E-17	2.188206E-17
3.683461E+03	6.059808E-17	2.201514E-17
3.693417E+03	6.151851E-17	2.215767E-17
3.703372E+03	6.247834E-17	2.230825E-17
3.713327E+03	6.348589E-17	2.246946E-17
3.723282E+03	6.454119E-17	2.264085E-17
3.733238E+03	6.564975E-17	2.282388E-17
3.743193E+03	6.681434E-17	2.301900E-17
3.753148E+03	6.803480E-17	2.322561E-17
3.763104E+03	6.931915E-17	2.344589E-17
3.773059E+03	7.066423E-17	2.367817E-17
3.783014E+03	7.207754E-17	2.392436E-17
3.792970E+03	7.355800E-17	2.418345E-17
3.802925E+03	7.510961E-17	2.445610E-17
3.812880E+03	7.673021E-17	2.474093E-17
3.822835E+03	7.842253E-17	2.503814E-17
3.832791E+03	8.018297E-17	2.534591E-17
3.842746E+03	8.201539E-17	2.566478E-17
3.852701E+03	8.391152E-17	2.599152E-17
3.862657E+03	8.587322E-17	2.632606E-17
3.872612E+03	8.789270E-17	2.666541E-17
3.882567E+03	8.996080E-17	2.700627E-17
3.892523E+03	9.207834E-17	2.734842E-17
3.902478E+03	9.422743E-17	2.768610E-17
3.912433E+03	9.640323E-17	2.801762E-17
3.922388E+03	9.859378E-17	2.833928E-17
3.932344E+03	1.007804E-16	2.864562E-17
3.942299E+03	1.029585E-16	2.893540E-17
3.952254E+03	1.051087E-16	2.920329E-17
3.962210E+03	1.072175E-16	2.944589E-17
3.972165E+03	1.092752E-16	2.966096E-17
3.982120E+03	1.112669E-16	2.984500E-17
3.992076E+03	1.131849E-16	2.999658E-17
4.002031E+03	1.150194E-16	3.011391E-17
4.011986E+03	1.167563E-16	3.019411E-17
4.021941E+03	1.183947E-16	3.023793E-17
4.031897E+03	1.199265E-16	3.024426E-17
4.041852E+03	1.213482E-16	3.021332E-17
4.051807E+03	1.226584E-16	3.014581E-17
4.061763E+03	1.238577E-16	3.004295E-17
4.071718E+03	1.249457E-16	2.990580E-17
4.081673E+03	1.259300E-16	2.973719E-17
4.091629E+03	1.268143E-16	2.953903E-17
4.101584E+03	1.276093E-16	2.931475E-17
4.111539E+03	1.283188E-16	2.906608E-17
4.121494E+03	1.289528E-16	2.879614E-17
4.131450E+03	1.295248E-16	2.850865E-17
4.141405E+03	1.300404E-16	2.820544E-17
4.151360E+03	1.305162E-16	2.789061E-17
4.161316E+03	1.309552E-16	2.756524E-17
4.171271E+03	1.313710E-16	2.723252E-17
4.181226E+03	1.317743E-16	2.689485E-17
4.191182E+03	1.321726E-16	2.655396E-17
4.201137E+03	1.325736E-16	2.621139E-17
4.211092E+03	1.329893E-16	2.586951E-17
4.221047E+03	1.334216E-16	2.552859E-17
4.231003E+03	1.338842E-16	2.519108E-17
4.240958E+03	1.343811E-16	2.485748E-17
4.250913E+03	1.349208E-16	2.452902E-17
4.260869E+03	1.355094E-16	2.420645E-17
4.270824E+03	1.361530E-16	2.389041E-17
4.280779E+03	1.368578E-16	2.358151E-17
4.290735E+03	1.376348E-16	2.328107E-17
4.300690E+03	1.384862E-16	2.298884E-17
4.310645E+03	1.394215E-16	2.270571E-17
4.320601E+03	1.404483E-16	2.243218E-17
4.330556E+03	1.415750E-16	2.216875E-17
4.340511E+03	1.428106E-16	2.191595E-17
4.350466E+03	1.441646E-16	2.167429E-17
4.360422E+03	1.456455E-16	2.144396E-17
4.370377E+03	1.472664E-16	2.122577E-17
4.380332E+03	1.490346E-16	2.101955E-17
4.390288E+03	1.509660E-16	2.082625E-17
4.400243E+03	1.530701E-16	2.064575E-17
4.410198E+03	1.553558E-16	2.047776E-17
4.420154E+03	1.578332E-16	2.032206E-17
4.430109E+03	1.605149E-16	2.017865E-17
4.440064E+03	1.634029E-16	2.004606E-17
4.450019E+03	1.665047E-16	1.992353E-17
4.459975E+03	1.698225E-16	1.980958E-17
4.469930E+03	1.733540E-16	1.970222E-17
4.479885E+03	1.770893E-16	1.959873E-17
4.489841E+03	1.810174E-16	1.949636E-17
4.499796E+03	1.851208E-16	1.939189E-17
4.509751E+03	1.893675E-16	1.928084E-17
4.519707E+03	1.937251E-16	1.915912E-17
4.529662E+03	1.981512E-16	1.902210E-17
4.539617E+03	2.025992E-16	1.886527E-17
4.549572E+03	2.070116E-16	1.868374E-17
4.559528E+03	2.113325E-16	1.847342E-17
4.569483E+03	2.155019E-16	1.823055E-17
4.579438E+03	2.194608E-16	1.795219E-17
4.589394E+03	2.231519E-16	1.763614E-17
4.599349E+03	2.265322E-16	1.728201E-17
4.609304E+03	2.295595E-16	1.688993E-17
4.619260E+03	2.322049E-16	1.646142E-17
4.629215E+03	2.344528E-16	1.599922E-17
4.639170E+03	2.362945E-16	1.550672E-17
4.649125E+03	2.377333E-16	1.498811E-17
4.659081E+03	2.387749E-16	1.444772E-17
4.669036E+03	2.394372E-16	1.389052E-17
4.678991E+03	2.397445E-16	1.332167E-17
4.688947E+03	2.397265E-16	1.274640E-17
4.698902E+03	2.394183E-16	1.216994E-17
4.708857E+03	2.388595E-16	1.159746E-17
4.718813E+03	2.380969E-16	1.103417E-17
4.728768E+03	2.371806E-16	1.048509E-17
4.738723E+03	2.361660E-16	9.955151E-18
4.748678E+03	2.351124E-16	9.449118E-18
4.758634E+03	2.340735E-16	8.971246E-18
4.768589E+03	2.330915E-16	8.525174E-18
4.778544E+03	2.322102E-16	8.114519E-18
4.788500E+03	2.314616E-16	7.742422E-18
4.798455E+03	2.308857E-16	7.412286E-18
4.808410E+03	2.305211E-16	7.127364E-18
4.818366E+03	2.303991E-16	6.890543E-18
4.828321E+03	2.305588E-16	6.704702E-18
4.838276E+03	2.310286E-16	6.572037E-18
4.848231E+03	2.318387E-16	6.493995E-18
4.858187E+03	2.330175E-16	6.469397E-18
4.868142E+03	2.345833E-16	6.495446E-18
4.878097E+03	2.365482E-16	6.568803E-18
4.888053E+03	2.389238E-16	6.685934E-18
4.898008E+03	2.417048E-16	6.842820E-18
4.907963E+03	2.448802E-16	7.035380E-18
4.917919E+03	2.484209E-16	7.259204E-18
4.927874E+03	2.522896E-16	7.509845E-18
4.937829E+03	2.564353E-16	7.782636E-18
4.947784E+03	2.607880E-16	8.072486E-18
4.957740E+03	2.652738E-16	8.374260E-18
4.967695E+03	2.698008E-16	8.682312E-18
4.977650E+03	2.742743E-16	8.990895E-18
4.987606E+03	2.786028E-16	9.294364E-18
4.997561E+03	2.827023E-16	9.587324E-18
5.007516E+03	2.865004E-16	9.864817E-18
5.017472E+03	2.899408E-16	1.012253E-17
5.027427E+03	2.929988E-16	1.035740E-17
5.037382E+03	2.956641E-16	1.056707E-17
5.047337E+03	2.979539E-16	1.075042E-17
5.057293E+03	2.998987E-16	1.090707E-17
5.067248E+03	3.015414E-16	1.103734E-17
5.077203E+03	3.029344E-16	1.114218E-17
5.087159E+03	3.041257E-16	1.122256E-17
5.097114E+03	3.051675E-16	1.127983E-17
5.107069E+03	3.061035E-16	1.131514E-17
5.117025E+03	3.069702E-16	1.132951E-17
5.126980E+03	3.077985E-16	1.132385E-17
5.136935E+03	3.086039E-16	1.129856E-17
5.146890E+03	3.093964E-16	1.125388E-17
5.156846E+03	3.101807E-16	1.118997E-17
5.166801E+03	3.109523E-16	1.110667E-17
5.176756E+03	3.116996E-16	1.100365E-17
5.186712E+03	3.124184E-16	1.088094E-17
5.196667E+03	3.130879E-16	1.073807E-17
5.206622E+03	3.137065E-16	1.057537E-17
5.216578E+03	3.142605E-16	1.039283E-17
5.226533E+03	3.147371E-16	1.019064E-17
5.236488E+03	3.151299E-16	9.969350E-18
5.246443E+03	3.154297E-16	9.729560E-18
5.256399E+03	3.156266E-16	9.472045E-18
5.266354E+03	3.157092E-16	9.197754E-18
5.276309E+03	3.156612E-16	8.907749E-18
5.286265E+03	3.154710E-16	8.603519E-18
5.296220E+03	3.151220E-16	8.286768E-18
5.306175E+03	3.145937E-16	7.959506E-18
5.316131E+03	3.138722E-16	7.624397E-18
5.326086E+03	3.129418E-16	7.284608E-18
5.336041E+03	3.117894E-16	6.943993E-18
5.345996E+03	3.104051E-16	6.607197E-18
5.355952E+03	3.087825E-16	6.279712E-18
5.365907E+03	3.069182E-16	5.967934E-18
5.375862E+03	3.048155E-16	5.679199E-18
5.385818E+03	3.024776E-16	5.421523E-18
5.395773E+03	2.999131E-16	5.203393E-18
5.405728E+03	2.971297E-16	5.033087E-18
5.415684E+03	2.941393E-16	4.917948E-18
5.425639E+03	2.909543E-16	4.863338E-18
5.435594E+03	2.875869E-16	4.869811E-18
5.445549E+03	2.840492E-16	4.931064E-18
5.455505E+03	2.803500E-16	5.038367E-18
5.465460E+03	2.764996E-16	5.182202E-18
5.475415E+03	2.724982E-16	5.352962E-18
5.485371E+03	2.683337E-16	5.541469E-18
5.495326E+03	2.639809E-16	5.739227E-18
5.505281E+03	2.594312E-16	5.939090E-18
5.515237E+03	2.546727E-16	6.134854E-18
5.525192E+03	2.496989E-16	6.321337E-18
5.535147E+03	2.445186E-16	6.494550E-18
5.545102E+03	2.391528E-16	6.651580E-18
5.555058E+03	2.336303E-16	6.790442E-18
5.565013E+03	2.280007E-16	6.910403E-18
5.574968E+03	2.223200E-16	7.011601E-18
5.584924E+03	2.166559E-16	7.095154E-18
5.594879E+03	2.110807E-16	7.162944E-18
5.604834E+03	2.056687E-16	7.217478E-18
5.614790E+03	2.004892E-16	7.261585E-18
5.624745E+03	1.956190E-16	7.298803E-18
5.634700E+03	1.911205E-16	7.332517E-18
5.644655E+03	1.870551E-16	7.366363E-18
5.654611E+03	1.834802E-16	7.404051E-18
5.664566E+03	1.804432E-16	7.449053E-18
5.674521E+03	1.779870E-16	7.504754E-18
5.684477E+03	1.761498E-16	7.574371E-18
5.694432E+03	1.749613E-16	7.660748E-18
5.704387E+03	1.744417E-16	7.766243E-18
5.714343E+03	1.746065E-16	7.892878E-18
5.724298E+03	1.754585E-16	8.041949E-18
5.734253E+03	1.769952E-16	8.214310E-18
5.744209E+03	1.792043E-16	8.410127E-18
5.754164E+03	1.820649E-16	8.628925E-18
5.764119E+03	1.855450E-16	8.869446E-18
5.774074E+03	1.896053E-16	9.129810E-18
5.784030E+03	1.941914E-16	9.407155E-18
5.793985E+03	1.992338E-16	9.697626E-18
5.803940E+03	2.046434E-16	9.996184E-18
5.813896E+03	2.103169E-16	1.029689E-17
5.823851E+03	2.161336E-16	1.059282E-17
5.833806E+03	2.219498E-16	1.087583E-17
5.843762E+03	2.276239E-16	1.113787E-17
5.853717E+03	2.329984E-16	1.137022E-17
5.863672E+03	2.379256E-16	1.156480E-17
5.873627E+03	2.422535E-16	1.171362E-17
5.883583E+03	2.458583E-16	1.181043E-17
5.893538E+03	2.486222E-16	1.184966E-17
5.903493E+03	2.504679E-16	1.182820E-17
5.913449E+03	2.513340E-16	1.174411E-17
5.923404E+03	2.512058E-16	1.159816E-17
5.933359E+03	2.500972E-16	1.139278E-17
5.943315E+03	2.480597E-16	1.113247E-17
5.953270E+03	2.451779E-16	1.082339E-17
5.963225E+03	2.415644E-16	1.047299E-17
5.973180E+03	2.373508E-16	1.008946E-17
5.983136E+03	2.326853E-16	9.681433E-18
5.993091E+03	2.277239E-16	9.257544E-18
6.003046E+03	2.226147E-16	8.825608E-18
6.013002E+03	2.175049E-16	8.392876E-18
6.022957E+03	2.125244E-16	7.965359E-18
6.032912E+03	2.077887E-16	7.547923E-18
6.042868E+03	2.034006E-16	7.144413E-18
6.052823E+03	1.994405E-16	6.757333E-18
6.062778E+03	1.959801E-16	6.388393E-18
6.072733E+03	1.930735E-16	6.038289E-18
6.082689E+03	1.907639E-16	5.706996E-18
6.092644E+03	1.890879E-16	5.393958E-18
6.102599E+03	1.880736E-16	5.098114E-18
6.112555E+03	1.877466E-16	4.818116E-18
6.122510E+03	1.881334E-16	4.552479E-18
6.132465E+03	1.892522E-16	4.299392E-18
6.142421E+03	1.911341E-16	4.057311E-18
6.152376E+03	1.938076E-16	3.824639E-18
6.162331E+03	1.972928E-16	3.599763E-18
6.172286E+03	2.016059E-16	3.381375E-18
6.182242E+03	2.067697E-16	3.168905E-18
6.192197E+03	2.128002E-16	2.962678E-18
6.202152E+03	2.197050E-16	2.764462E-18
6.212108E+03	2.274833E-16	2.578289E-18
6.222063E+03	2.360883E-16	2.411079E-18
6.232018E+03	2.454273E-16	2.273839E-18
6.241974E+03	2.553741E-16	2.182167E-18
6.251929E+03	2.657694E-16	2.154452E-18
6.261884E+03	2.764470E-16	2.205682E-18
6.271839E+03	2.872174E-16	2.333672E-18
6.281795E+03	2.978889E-16	2.524073E-18
6.291750E+03	3.082781E-16	2.758371E-18
6.301705E+03	3.182119E-16	3.018059E-18
6.311661E+03	3.275389E-16	3.286770E-18
6.321616E+03	3.361364E-16	3.550855E-18
6.331571E+03	3.439153E-16	3.799309E-18
6.341527E+03	3.508229E-16	4.023539E-18
6.351482E+03	3.568465E-16	4.217175E-18
6.361437E+03	3.619961E-16	4.375694E-18
6.371392E+03	3.663252E-16	4.496519E-18
6.381348E+03	3.698942E-16	4.578473E-18
6.391303E+03	3.727940E-16	4.621959E-18
6.401258E+03	3.751030E-16	4.628358E-18
6.411214E+03	3.769238E-16	4.600435E-18
6.421169E+03	3.783304E-16	4.541704E-18
6.431124E+03	3.794041E-16	4.456945E-18
6.441080E+03	3.802115E-16	4.352096E-18
6.451035E+03	3.808055E-16	4.234501E-18
6.460990E+03	3.812387E-16	4.113352E-18
6.470945E+03	3.815498E-16	3.999795E-18
6.480901E+03	3.817836E-16	3.907241E-18
6.490856E+03	3.819828E-16	3.850938E-18
6.500811E+03	3.821900E-16	3.846976E-18
6.510767E+03	3.824250E-16	3.910262E-18
6.520722E+03	3.826801E-16	4.050601E-18
6.530677E+03	3.829386E-16	4.264638E-18
6.540633E+03	3.831798E-16	4.542842E-18
6.550588E+03	3.833843E-16	4.874365E-18
6.560543E+03	3.835162E-16	5.248335E-18
6.570498E+03	3.835260E-16	5.654633E-18
6.580454E+03	3.833700E-16	6.084393E-18
6.590409E+03	3.829735E-16	6.529343E-18
6.600364E+03	3.822703E-16	6.982162E-18
6.610320E+03	3.811810E-16	7.435890E-18
6.620275E+03	3.796266E-16	7.883939E-18
6.630230E+03	3.775394E-16	8.320175E-18
6.640186E+03	3.748579E-16	8.738757E-18
6.650141E+03	3.715534E-16	9.134753E-18
6.660096E+03	3.676134E-16	9.503853E-18
6.670051E+03	3.630478E-16	9.842594E-18
6.680007E+03	3.578996E-16	1.014878E-17
6.689962E+03	3.522289E-16	1.042119E-17
6.699917E+03	3.461119E-16	1.065962E-17
6.709873E+03	3.396435E-16	1.086502E-17
6.719828E+03	3.329093E-16	1.103868E-17
6.729783E+03	3.260099E-16	1.118296E-17
6.739739E+03	3.190430E-16	1.130069E-17
6.749694E+03	3.121056E-16	1.139524E-17
6.759649E+03	3.052968E-16	1.147054E-17
6.769604E+03	2.987057E-16	1.153062E-17
6.779560E+03	2.924248E-16	1.158005E-17
6.789515E+03	2.865343E-16	1.162325E-17
6.799470E+03	2.811185E-16	1.166511E-17
6.809426E+03	2.762407E-16	1.170989E-17
6.819381E+03	2.719699E-16	1.176225E-17
6.829336E+03	2.683539E-16	1.182606E-17
6.839292E+03	2.654448E-16	1.190542E-17
6.849247E+03	2.632771E-16	1.200366E-17
6.859202E+03	2.618795E-16	1.212377E-17
6.869157E+03	2.612753E-16	1.226842E-17
6.879113E+03	2.614714E-16	1.243937E-17
6.889068E+03	2.624669E-16	1.263783E-17
6.899023E+03	2.642507E-16	1.286432E-17
6.908979E+03	2.667892E-16	1.311800E-17
6.918934E+03	2.700367E-16	1.339721E-17
6.928889E+03	2.739230E-16	1.369872E-17
6.938845E+03	2.783664E-16	1.401849E-17
6.948800E+03	2.832660E-16	1.435119E-17
6.958755E+03	2.884999E-16	1.469016E-17
6.968710E+03	2.939530E-16	1.502888E-17
6.978666E+03	2.994870E-16	1.535942E-17
6.988621E+03	3.049701E-16	1.567409E-17
6.998576E+03	3.102779E-16	1.596553E-17
7.008532E+03	3.153053E-16	1.622735E-17
7.018487E+03	3.199619E-16	1.645401E-17
7.028442E+03	3.241944E-16	1.664199E-17
7.038398E+03	3.279754E-16	1.678924E-17
7.048353E+03	3.313129E-16	1.689569E-17
7.058308E+03	3.342612E-16	1.696372E-17
7.068263E+03	3.368930E-16	1.699678E-17
7.078219E+03	3.393106E-16	1.699978E-17
7.088174E+03	3.416338E-16	1.697848E-17
7.098129E+03	3.439891E-16	1.693883E-17
7.108085E+03	3.465143E-16	1.688710E-17
7.118040E+03	3.493382E-16	1.682885E-17
7.127995E+03	3.525728E-16	1.676849E-17
7.137951E+03	3.563159E-16	1.670938E-17
7.147906E+03	3.606444E-16	1.665355E-17
7.157861E+03	3.655954E-16	1.660084E-17
7.167817E+03	3.711765E-16	1.654951E-17
7.177772E+03	3.773524E-16	1.649579E-17
7.187727E+03	3.840618E-16	1.643475E-17
7.197682E+03	3.911805E-16	1.635897E-17
7.207638E+03	3.985529E-16	1.626014E-17
7.217593E+03	4.059668E-16	1.612836E-17
7.227548E+03	4.131710E-16	1.595316E-17
7.237504E+03	4.198825E-16	1.572416E-17
7.247459E+03	4.257751E-16	1.543097E-17
7.257414E+03	4.305310E-16	1.506539E-17
7.267370E+03	4.338156E-16	1.462066E-17
7.277325E+03	4.353369E-16	1.409367E-17
7.287280E+03	4.348405E-16	1.348460E-17
7.297235E+03	4.321543E-16	1.279810E-17
7.307191E+03	4.271859E-16	1.204271E-17
7.317146E+03	4.199576E-16	1.123123E-17
7.327101E+03	4.105837E-16	1.037932E-17
7.337057E+03	3.992956E-16	9.505333E-18
7.347012E+03	3.864007E-16	8.628514E-18
7.356967E+03	3.722599E-16	7.767906E-18
7.366923E+03	3.572504E-16	6.941220E-18
7.376878E+03	3.417625E-16	6.164737E-18
7.386833E+03	3.261546E-16	5.452580E-18
7.396788E+03	3.107464E-16	4.816991E-18
7.406744E+03	2.958129E-16	4.268573E-18
7.416699E+03	2.815784E-16	3.816243E-18
7.426654E+03	2.682084E-16	3.466555E-18
7.436610E+03	2.558183E-16	3.222419E-18
7.446565E+03	2.444823E-16	3.081073E-18
7.456520E+03	2.342292E-16	3.029417E-18
7.466476E+03	2.250593E-16	3.048432E-18
7.476431E+03	2.169505E-16	3.119799E-18
7.486386E+03	2.098582E-16	3.228175E-18
7.496341E+03	2.037202E-16	3.361905E-18
7.506297E+03	1.984686E-16	3.512765E-18
7.516252E+03	1.940226E-16	3.675006E-18
7.526207E+03	1.902936E-16	3.844544E-18
7.536163E+03	1.871860E-16	4.018254E-18
7.546118E+03	1.845978E-16	4.193445E-18
7.556073E+03	1.824228E-16	4.367518E-18
7.566029E+03	1.805541E-16	4.537819E-18
7.575984E+03	1.788768E-16	4.701292E-18
7.585939E+03	1.773118E-16	4.855584E-18
7.595894E+03	1.759002E-16	5.001579E-18
7.605850E+03	1.747097E-16	5.141255E-18
7.615805E+03	1.738008E-16	5.276702E-18
7.625760E+03	1.732178E-16	5.409731E-18
7.635716E+03	1.729863E-16	5.541683E-18
7.645671E+03	1.731232E-16	5.673617E-18
7.655626E+03	1.736208E-16	5.805723E-18
7.665582E+03	1.744644E-16	5.937819E-18
7.675537E+03	1.756271E-16	6.069144E-18
7.685492E+03	1.770650E-16	6.198181E-18
7.695447E+03	1.787361E-16	6.323280E-18
7.705403E+03	1.805860E-16	6.442194E-18
7.715358E+03	1.825592E-16	6.552507E-18
7.725313E+03	1.846000E-16	6.651689E-18
