#wls	flux	fluxerr
1.592848E+03	3.945688E-18	3.613602E-18
1.632669E+03	4.153576E-18	3.771907E-18
1.672491E+03	4.349968E-18	3.916209E-18
1.712312E+03	4.532316E-18	4.044444E-18
1.752133E+03	4.694739E-18	4.151684E-18
1.791954E+03	4.830226E-18	4.232215E-18
1.831775E+03	4.927000E-18	4.276428E-18
1.871597E+03	4.973313E-18	4.275148E-18
1.911418E+03	4.956027E-18	4.218437E-18
1.951239E+03	4.869262E-18	4.102956E-18
1.991060E+03	4.717197E-18	3.933996E-18
2.030881E+03	4.527130E-18	3.735826E-18
2.070703E+03	4.353475E-18	3.553924E-18
2.110524E+03	4.269930E-18	3.447407E-18
2.150345E+03	4.342209E-18	3.466336E-18
2.190166E+03	4.607018E-18	3.635405E-18
2.229987E+03	5.062421E-18	3.947711E-18
2.269809E+03	5.677770E-18	4.374181E-18
2.309630E+03	6.406616E-18	4.874760E-18
2.349451E+03	7.205055E-18	5.412990E-18
2.389272E+03	8.041777E-18	5.963386E-18
2.429093E+03	8.894159E-18	6.508004E-18
2.468915E+03	9.750090E-18	7.037366E-18
2.508736E+03	1.060848E-17	7.550312E-18
2.548557E+03	1.146515E-17	8.043555E-18
2.588378E+03	1.232216E-17	8.518308E-18
2.628199E+03	1.318451E-17	8.977673E-18
2.668021E+03	1.405234E-17	9.421314E-18
2.707842E+03	1.492906E-17	9.851032E-18
2.747663E+03	1.581792E-17	1.026838E-17
2.787484E+03	1.672399E-17	1.067592E-17
2.827305E+03	1.764370E-17	1.107058E-17
2.867127E+03	1.858564E-17	1.145693E-17
2.906948E+03	1.954743E-17	1.183252E-17
2.946769E+03	2.053061E-17	1.219729E-17
2.986590E+03	2.153883E-17	1.255238E-17
2.996546E+03	2.179547E-17	1.263990E-17
3.006501E+03	2.205343E-17	1.272658E-17
3.016456E+03	2.231267E-17	1.281238E-17
3.026411E+03	2.257363E-17	1.289753E-17
3.036367E+03	2.284032E-17	1.298431E-17
3.046322E+03	2.310951E-17	1.307082E-17
3.056277E+03	2.338655E-17	1.316004E-17
3.066233E+03	2.366843E-17	1.325024E-17
3.076188E+03	2.395712E-17	1.334245E-17
3.086143E+03	2.424965E-17	1.343496E-17
3.096099E+03	2.454561E-17	1.352751E-17
3.106054E+03	2.484454E-17	1.361982E-17
3.116009E+03	2.514852E-17	1.371297E-17
3.125964E+03	2.545473E-17	1.380541E-17
3.135920E+03	2.576532E-17	1.389826E-17
3.145875E+03	2.607751E-17	1.398998E-17
3.155830E+03	2.639095E-17	1.408038E-17
3.165786E+03	2.670796E-17	1.417066E-17
3.175741E+03	2.702829E-17	1.426066E-17
3.185696E+03	2.734919E-17	1.434890E-17
3.195652E+03	2.767044E-17	1.443525E-17
3.205607E+03	2.799702E-17	1.452229E-17
3.215562E+03	2.832106E-17	1.460591E-17
3.225517E+03	2.865017E-17	1.469003E-17
3.235473E+03	2.897904E-17	1.477188E-17
3.245428E+03	2.931015E-17	1.485274E-17
3.255383E+03	2.964348E-17	1.493255E-17
3.265339E+03	2.997632E-17	1.500994E-17
3.275294E+03	3.031120E-17	1.508616E-17
3.285249E+03	3.064815E-17	1.516122E-17
3.295205E+03	3.098711E-17	1.523504E-17
3.305160E+03	3.132808E-17	1.530762E-17
3.315115E+03	3.166843E-17	1.537765E-17
3.325070E+03	3.201346E-17	1.544768E-17
3.335026E+03	3.235795E-17	1.551518E-17
3.344981E+03	3.270718E-17	1.558265E-17
3.354936E+03	3.305598E-17	1.564760E-17
3.364892E+03	3.340964E-17	1.571251E-17
3.374847E+03	3.376566E-17	1.577618E-17
3.384802E+03	3.412146E-17	1.583737E-17
3.394758E+03	3.448244E-17	1.589857E-17
3.404713E+03	3.484608E-17	1.595858E-17
3.414668E+03	3.521512E-17	1.601861E-17
3.424623E+03	3.558708E-17	1.607749E-17
3.434579E+03	3.595945E-17	1.613405E-17
3.444534E+03	3.634034E-17	1.619192E-17
3.454489E+03	3.672192E-17	1.624753E-17
3.464445E+03	3.710971E-17	1.630330E-17
3.474400E+03	3.750386E-17	1.635924E-17
3.484355E+03	3.790190E-17	1.641421E-17
3.494311E+03	3.830404E-17	1.646826E-17
3.504266E+03	3.871312E-17	1.652256E-17
3.514221E+03	3.912673E-17	1.657601E-17
3.524176E+03	3.954764E-17	1.662974E-17
3.534132E+03	3.997614E-17	1.668380E-17
3.544087E+03	4.040976E-17	1.673709E-17
3.554042E+03	4.085138E-17	1.679073E-17
3.563998E+03	4.130123E-17	1.684474E-17
3.573953E+03	4.175947E-17	1.689910E-17
3.583908E+03	4.222372E-17	1.695278E-17
3.593864E+03	4.269686E-17	1.700685E-17
3.603819E+03	4.317905E-17	1.706130E-17
3.613774E+03	4.367054E-17	1.711614E-17
3.623729E+03	4.417149E-17	1.717132E-17
3.633685E+03	4.467949E-17	1.722582E-17
3.643640E+03	4.519997E-17	1.728166E-17
3.653595E+03	4.573054E-17	1.733780E-17
3.663551E+03	4.626860E-17	1.739316E-17
3.673506E+03	4.681970E-17	1.744974E-17
3.683461E+03	4.738128E-17	1.750645E-17
3.693417E+03	4.795347E-17	1.756326E-17
3.703372E+03	4.853634E-17	1.762006E-17
3.713327E+03	4.913005E-17	1.767682E-17
3.723282E+03	4.973723E-17	1.773436E-17
3.733238E+03	5.035263E-17	1.779069E-17
3.743193E+03	5.098163E-17	1.784762E-17
3.753148E+03	5.162154E-17	1.790407E-17
3.763104E+03	5.227496E-17	1.796084E-17
3.773059E+03	5.293921E-17	1.801687E-17
3.783014E+03	5.361151E-17	1.807112E-17
3.792970E+03	5.429979E-17	1.812615E-17
3.802925E+03	5.499586E-17	1.817910E-17
3.812880E+03	5.570497E-17	1.823162E-17
3.822835E+03	5.642427E-17	1.828264E-17
3.832791E+03	5.715617E-17	1.833284E-17
3.842746E+03	5.789780E-17	1.838118E-17
3.852701E+03	5.864893E-17	1.842750E-17
3.862657E+03	5.941199E-17	1.847245E-17
3.872612E+03	6.018405E-17	1.851502E-17
3.882567E+03	6.096479E-17	1.855502E-17
3.892523E+03	6.175396E-17	1.859229E-17
3.902478E+03	6.255393E-17	1.862746E-17
3.912433E+03	6.336180E-17	1.865955E-17
3.922388E+03	6.417995E-17	1.868921E-17
3.932344E+03	6.500278E-17	1.871470E-17
3.942299E+03	6.583539E-17	1.873744E-17
3.952254E+03	6.667497E-17	1.875653E-17
3.962210E+03	6.752124E-17	1.877186E-17
3.972165E+03	6.837690E-17	1.878407E-17
3.982120E+03	6.923634E-17	1.879158E-17
3.992076E+03	7.010503E-17	1.879581E-17
4.002031E+03	7.097754E-17	1.879524E-17
4.011986E+03	7.185665E-17	1.879055E-17
4.021941E+03	7.274524E-17	1.878245E-17
4.031897E+03	7.363813E-17	1.876952E-17
4.041852E+03	7.453831E-17	1.875247E-17
4.051807E+03	7.544346E-17	1.873068E-17
4.061763E+03	7.635941E-17	1.870552E-17
4.071718E+03	7.728140E-17	1.867575E-17
4.081673E+03	7.820996E-17	1.864145E-17
4.091629E+03	7.914855E-17	1.860337E-17
4.101584E+03	8.009527E-17	1.856100E-17
4.111539E+03	8.105097E-17	1.851445E-17
4.121494E+03	8.201666E-17	1.846388E-17
4.131450E+03	8.299611E-17	1.841004E-17
4.141405E+03	8.398498E-17	1.835186E-17
4.151360E+03	8.498719E-17	1.829011E-17
4.161316E+03	8.600398E-17	1.822495E-17
4.171271E+03	8.703675E-17	1.815652E-17
4.181226E+03	8.808409E-17	1.808442E-17
4.191182E+03	8.914740E-17	1.800879E-17
4.201137E+03	9.023096E-17	1.793036E-17
4.211092E+03	9.133344E-17	1.784869E-17
4.221047E+03	9.245640E-17	1.776392E-17
4.231003E+03	9.359864E-17	1.767564E-17
4.240958E+03	9.476711E-17	1.758499E-17
4.250913E+03	9.595790E-17	1.749102E-17
4.260869E+03	9.717248E-17	1.739381E-17
4.270824E+03	9.841507E-17	1.729391E-17
4.280779E+03	9.968436E-17	1.719084E-17
4.290735E+03	1.009817E-16	1.708461E-17
4.300690E+03	1.023055E-16	1.697474E-17
4.310645E+03	1.036627E-16	1.686212E-17
4.320601E+03	1.050487E-16	1.674575E-17
4.330556E+03	1.064645E-16	1.662555E-17
4.340511E+03	1.079140E-16	1.650187E-17
4.350466E+03	1.093949E-16	1.637411E-17
4.360422E+03	1.109080E-16	1.624211E-17
4.370377E+03	1.124536E-16	1.610569E-17
4.380332E+03	1.140291E-16	1.596425E-17
4.390288E+03	1.156376E-16	1.581795E-17
4.400243E+03	1.172760E-16	1.566616E-17
4.410198E+03	1.189469E-16	1.550902E-17
4.420154E+03	1.206470E-16	1.534585E-17
4.430109E+03	1.223725E-16	1.517601E-17
4.440064E+03	1.241284E-16	1.499995E-17
4.450019E+03	1.259078E-16	1.481665E-17
4.459975E+03	1.277121E-16	1.462619E-17
4.469930E+03	1.295368E-16	1.442792E-17
4.479885E+03	1.313833E-16	1.422191E-17
4.489841E+03	1.332434E-16	1.400723E-17
4.499796E+03	1.351211E-16	1.378431E-17
4.509751E+03	1.370111E-16	1.355258E-17
4.519707E+03	1.389109E-16	1.331186E-17
4.529662E+03	1.408149E-16	1.306168E-17
4.539617E+03	1.427268E-16	1.280251E-17
4.549572E+03	1.446343E-16	1.253341E-17
4.559528E+03	1.465441E-16	1.225518E-17
4.569483E+03	1.484441E-16	1.196702E-17
4.579438E+03	1.503376E-16	1.166953E-17
4.589394E+03	1.522222E-16	1.136282E-17
4.599349E+03	1.540885E-16	1.104657E-17
4.609304E+03	1.559406E-16	1.072153E-17
4.619260E+03	1.577727E-16	1.038776E-17
4.629215E+03	1.595825E-16	1.004564E-17
4.639170E+03	1.613643E-16	9.695429E-18
4.649125E+03	1.631230E-16	9.338088E-18
4.659081E+03	1.648533E-16	8.974020E-18
4.669036E+03	1.665501E-16	8.603771E-18
4.678991E+03	1.682188E-16	8.228531E-18
4.688947E+03	1.698512E-16	7.848899E-18
4.698902E+03	1.714497E-16	7.466154E-18
4.708857E+03	1.730133E-16	7.081565E-18
4.718813E+03	1.745413E-16	6.696617E-18
4.728768E+03	1.760333E-16	6.313064E-18
4.738723E+03	1.774855E-16	5.932884E-18
4.748678E+03	1.789047E-16	5.558847E-18
4.758634E+03	1.802845E-16	5.193814E-18
4.768589E+03	1.816290E-16	4.841689E-18
4.778544E+03	1.829392E-16	4.507156E-18
4.788500E+03	1.842168E-16	4.195965E-18
4.798455E+03	1.854597E-16	3.915005E-18
4.808410E+03	1.866769E-16	3.672609E-18
4.818366E+03	1.878665E-16	3.477740E-18
4.828321E+03	1.890305E-16	3.339467E-18
4.838276E+03	1.901667E-16	3.265381E-18
4.848231E+03	1.912837E-16	3.259491E-18
4.858187E+03	1.923827E-16	3.318425E-18
4.868142E+03	1.934573E-16	3.434138E-18
4.878097E+03	1.945157E-16	3.596800E-18
4.888053E+03	1.955545E-16	3.796010E-18
4.898008E+03	1.965738E-16	4.022223E-18
4.907963E+03	1.975774E-16	4.267320E-18
4.917919E+03	1.985612E-16	4.524478E-18
4.927874E+03	1.995282E-16	4.788357E-18
4.937829E+03	2.004739E-16	5.054551E-18
4.947784E+03	2.014010E-16	5.319717E-18
4.957740E+03	2.023080E-16	5.581115E-18
4.967695E+03	2.031899E-16	5.836429E-18
4.977650E+03	2.040487E-16	6.083961E-18
4.987606E+03	2.048826E-16	6.322235E-18
4.997561E+03	2.056897E-16	6.550020E-18
5.007516E+03	2.064680E-16	6.766287E-18
5.017472E+03	2.072116E-16	6.970039E-18
5.027427E+03	2.079260E-16	7.160787E-18
5.037382E+03	2.086052E-16	7.337778E-18
5.047337E+03	2.092433E-16	7.500343E-18
5.057293E+03	2.098456E-16	7.648299E-18
5.067248E+03	2.104102E-16	7.781284E-18
5.077203E+03	2.109273E-16	7.898714E-18
5.087159E+03	2.113987E-16	8.000491E-18
5.097114E+03	2.118263E-16	8.086590E-18
5.107069E+03	2.122045E-16	8.156759E-18
5.117025E+03	2.125353E-16	8.211096E-18
5.126980E+03	2.128094E-16	8.249329E-18
5.136935E+03	2.130367E-16	8.271977E-18
5.146890E+03	2.132042E-16	8.278739E-18
5.156846E+03	2.133183E-16	8.270124E-18
5.166801E+03	2.133739E-16	8.246260E-18
5.176756E+03	2.133735E-16	8.207640E-18
5.186712E+03	2.133123E-16	8.154541E-18
5.196667E+03	2.131894E-16	8.087463E-18
5.206622E+03	2.130077E-16	8.007125E-18
5.216578E+03	2.127664E-16	7.914187E-18
5.226533E+03	2.124610E-16	7.809264E-18
5.236488E+03	2.120912E-16	7.693212E-18
5.246443E+03	2.116601E-16	7.567114E-18
5.256399E+03	2.111637E-16	7.431907E-18
5.266354E+03	2.106055E-16	7.288898E-18
5.276309E+03	2.099817E-16	7.139273E-18
5.286265E+03	2.092923E-16	6.984477E-18
5.296220E+03	2.085412E-16	6.826224E-18
5.306175E+03	2.077250E-16	6.666134E-18
5.316131E+03	2.068477E-16	6.506222E-18
5.326086E+03	2.059064E-16	6.348425E-18
5.336041E+03	2.049053E-16	6.195065E-18
5.345996E+03	2.038418E-16	6.048381E-18
5.355952E+03	2.027205E-16	5.910940E-18
5.365907E+03	2.015391E-16	5.785180E-18
5.375862E+03	2.002991E-16	5.673663E-18
5.385818E+03	1.990055E-16	5.578987E-18
5.395773E+03	1.976569E-16	5.503414E-18
5.405728E+03	1.962584E-16	5.449138E-18
5.415684E+03	1.948091E-16	5.417812E-18
5.425639E+03	1.933114E-16	5.410238E-18
5.435594E+03	1.917717E-16	5.425038E-18
5.445549E+03	1.901940E-16	5.459998E-18
5.455505E+03	1.885796E-16	5.512605E-18
5.465460E+03	1.869370E-16	5.580441E-18
5.475415E+03	1.852684E-16	5.660900E-18
5.485371E+03	1.835829E-16	5.751662E-18
5.495326E+03	1.818830E-16	5.850361E-18
5.505281E+03	1.801782E-16	5.955025E-18
5.515237E+03	1.784743E-16	6.063798E-18
5.525192E+03	1.767741E-16	6.174933E-18
5.535147E+03	1.750865E-16	6.287115E-18
5.545102E+03	1.734169E-16	6.399128E-18
5.555058E+03	1.717705E-16	6.509945E-18
5.565013E+03	1.701523E-16	6.618713E-18
5.574968E+03	1.685638E-16	6.724612E-18
5.584924E+03	1.670150E-16	6.827304E-18
5.594879E+03	1.655039E-16	6.926097E-18
5.604834E+03	1.640396E-16	7.020867E-18
5.614790E+03	1.626193E-16	7.111093E-18
5.624745E+03	1.612511E-16	7.196803E-18
5.634700E+03	1.599341E-16	7.277709E-18
5.644655E+03	1.586699E-16	7.353686E-18
5.654611E+03	1.574622E-16	7.424761E-18
5.664566E+03	1.563089E-16	7.490730E-18
5.674521E+03	1.552101E-16	7.551523E-18
5.684477E+03	1.541682E-16	7.607209E-18
5.694432E+03	1.531798E-16	7.657590E-18
5.704387E+03	1.522465E-16	7.702734E-18
5.714343E+03	1.513640E-16	7.742424E-18
5.724298E+03	1.505332E-16	7.776709E-18
5.734253E+03	1.497519E-16	7.805485E-18
5.744209E+03	1.490151E-16	7.828511E-18
5.754164E+03	1.483227E-16	7.845798E-18
5.764119E+03	1.476719E-16	7.857213E-18
5.774074E+03	1.470597E-16	7.862618E-18
5.784030E+03	1.464806E-16	7.861737E-18
5.793985E+03	1.459366E-16	7.854697E-18
5.803940E+03	1.454198E-16	7.841090E-18
5.813896E+03	1.449323E-16	7.821055E-18
5.823851E+03	1.444662E-16	7.794200E-18
5.833806E+03	1.440218E-16	7.760556E-18
5.843762E+03	1.435993E-16	7.720173E-18
5.853717E+03	1.431917E-16	7.672718E-18
5.863672E+03	1.428026E-16	7.618424E-18
5.873627E+03	1.424260E-16	7.557019E-18
5.883583E+03	1.420661E-16	7.488786E-18
5.893538E+03	1.417204E-16	7.413651E-18
5.903493E+03	1.413891E-16	7.331694E-18
5.913449E+03	1.410732E-16	7.243033E-18
5.923404E+03	1.407740E-16	7.147817E-18
5.933359E+03	1.404933E-16	7.046213E-18
5.943315E+03	1.402360E-16	6.938545E-18
5.953270E+03	1.400023E-16	6.824902E-18
5.963225E+03	1.397931E-16	6.705400E-18
5.973180E+03	1.396169E-16	6.580524E-18
5.983136E+03	1.394753E-16	6.450410E-18
5.993091E+03	1.393750E-16	6.315424E-18
6.003046E+03	1.393155E-16	6.175595E-18
6.013002E+03	1.393066E-16	6.031391E-18
6.022957E+03	1.393484E-16	5.882836E-18
6.032912E+03	1.394506E-16	5.730368E-18
6.042868E+03	1.396160E-16	5.574083E-18
6.052823E+03	1.398496E-16	5.414179E-18
6.062778E+03	1.401565E-16	5.250826E-18
6.072733E+03	1.405417E-16	5.084186E-18
6.082689E+03	1.410124E-16	4.914485E-18
6.092644E+03	1.415685E-16	4.741684E-18
6.102599E+03	1.422193E-16	4.566085E-18
6.112555E+03	1.429668E-16	4.387740E-18
6.122510E+03	1.438123E-16	4.206734E-18
6.132465E+03	1.447648E-16	4.023422E-18
6.142421E+03	1.458253E-16	3.837986E-18
6.152376E+03	1.469969E-16	3.650784E-18
6.162331E+03	1.482852E-16	3.462369E-18
6.172286E+03	1.496876E-16	3.273304E-18
6.182242E+03	1.512087E-16	3.084609E-18
6.192197E+03	1.528533E-16	2.897666E-18
6.202152E+03	1.546176E-16	2.714207E-18
6.212108E+03	1.565079E-16	2.536852E-18
6.222063E+03	1.585186E-16	2.368916E-18
6.232018E+03	1.606545E-16	2.215033E-18
6.241974E+03	1.629108E-16	2.081011E-18
6.251929E+03	1.652846E-16	1.973981E-18
6.261884E+03	1.677748E-16	1.901888E-18
6.271839E+03	1.703699E-16	1.872192E-18
6.281795E+03	1.730691E-16	1.888910E-18
6.291750E+03	1.758613E-16	1.948253E-18
6.301705E+03	1.787377E-16	2.043011E-18
6.311661E+03	1.816925E-16	2.164937E-18
6.321616E+03	1.847094E-16	2.305919E-18
6.331571E+03	1.877850E-16	2.458955E-18
6.341527E+03	1.909090E-16	2.618119E-18
6.351482E+03	1.940633E-16	2.778458E-18
6.361437E+03	1.972474E-16	2.936171E-18
6.371392E+03	2.004391E-16	3.087871E-18
6.381348E+03	2.036336E-16	3.231012E-18
6.391303E+03	2.068191E-16	3.363421E-18
6.401258E+03	2.099795E-16	3.483262E-18
6.411214E+03	2.131024E-16	3.589119E-18
6.421169E+03	2.161833E-16	3.680069E-18
6.431124E+03	2.191976E-16	3.755206E-18
6.441080E+03	2.221449E-16	3.814424E-18
6.451035E+03	2.250047E-16	3.857695E-18
6.460990E+03	2.277689E-16	3.885684E-18
6.470945E+03	2.304256E-16	3.899547E-18
6.480901E+03	2.329639E-16	3.901091E-18
6.490856E+03	2.353743E-16	3.892881E-18
6.500811E+03	2.376449E-16	3.878262E-18
6.510767E+03	2.397784E-16	3.861727E-18
6.520722E+03	2.417672E-16	3.848537E-18
6.530677E+03	2.436094E-16	3.844965E-18
6.540633E+03	2.453052E-16	3.858073E-18
6.550588E+03	2.468566E-16	3.895393E-18
6.560543E+03	2.482666E-16	3.964447E-18
6.570498E+03	2.495448E-16	4.072223E-18
6.580454E+03	2.506920E-16	4.223351E-18
6.590409E+03	2.517200E-16	4.416989E-18
6.600364E+03	2.526264E-16	4.649690E-18
6.610320E+03	2.534335E-16	4.917672E-18
6.620275E+03	2.541397E-16	5.216410E-18
6.630230E+03	2.547529E-16	5.541609E-18
6.640186E+03	2.552918E-16	5.889481E-18
6.650141E+03	2.557550E-16	6.256201E-18
6.660096E+03	2.561512E-16	6.638575E-18
6.670051E+03	2.564993E-16	7.034116E-18
6.680007E+03	2.567982E-16	7.440218E-18
6.689962E+03	2.570618E-16	7.855030E-18
6.699917E+03	2.572990E-16	8.276895E-18
6.709873E+03	2.575185E-16	8.704436E-18
6.719828E+03	2.577241E-16	9.136343E-18
6.729783E+03	2.579343E-16	9.572049E-18
6.739739E+03	2.581523E-16	1.001065E-17
6.749694E+03	2.583863E-16	1.045157E-17
6.759649E+03	2.586437E-16	1.089438E-17
6.769604E+03	2.589320E-16	1.133876E-17
6.779560E+03	2.592635E-16	1.178472E-17
6.789515E+03	2.596341E-16	1.223167E-17
6.799470E+03	2.600604E-16	1.268003E-17
6.809426E+03	2.605424E-16	1.312953E-17
6.819381E+03	2.610853E-16	1.358021E-17
6.829336E+03	2.616984E-16	1.403239E-17
6.839292E+03	2.623751E-16	1.448558E-17
6.849247E+03	2.631287E-16	1.494043E-17
6.859202E+03	2.639617E-16	1.539700E-17
6.869157E+03	2.648651E-16	1.585474E-17
6.879113E+03	2.658503E-16	1.631428E-17
6.889068E+03	2.669122E-16	1.677528E-17
6.899023E+03	2.680556E-16	1.723801E-17
6.908979E+03	2.692736E-16	1.770200E-17
6.918934E+03	2.705645E-16	1.816707E-17
6.928889E+03	2.719250E-16	1.863295E-17
6.938845E+03	2.733573E-16	1.909971E-17
6.948800E+03	2.748517E-16	1.956657E-17
6.958755E+03	2.764029E-16	2.003302E-17
6.968710E+03	2.780112E-16	2.049894E-17
6.978666E+03	2.796587E-16	2.096282E-17
6.988621E+03	2.813499E-16	2.142478E-17
6.998576E+03	2.830717E-16	2.188356E-17
7.008532E+03	2.848157E-16	2.233827E-17
7.018487E+03	2.865731E-16	2.278788E-17
7.028442E+03	2.883408E-16	2.323182E-17
7.038398E+03	2.900969E-16	2.366795E-17
7.048353E+03	2.918374E-16	2.409552E-17
7.058308E+03	2.935575E-16	2.451374E-17
7.068263E+03	2.952341E-16	2.492020E-17
7.078219E+03	2.968619E-16	2.531400E-17
7.088174E+03	2.984354E-16	2.569416E-17
7.098129E+03	2.999302E-16	2.605810E-17
7.108085E+03	3.013342E-16	2.640422E-17
7.118040E+03	3.026480E-16	2.673205E-17
7.127995E+03	3.038465E-16	2.703886E-17
7.137951E+03	3.049242E-16	2.732362E-17
7.147906E+03	3.058626E-16	2.758417E-17
7.157861E+03	3.066566E-16	2.781955E-17
7.167817E+03	3.072887E-16	2.802767E-17
7.177772E+03	3.077547E-16	2.820770E-17
7.187727E+03	3.080383E-16	2.835775E-17
7.197682E+03	3.081371E-16	2.847718E-17
7.207638E+03	3.080369E-16	2.856435E-17
7.217593E+03	3.077307E-16	2.861831E-17
7.227548E+03	3.072132E-16	2.863835E-17
7.237504E+03	3.064872E-16	2.862451E-17
7.247459E+03	3.055373E-16	2.857526E-17
7.257414E+03	3.043758E-16	2.849166E-17
7.267370E+03	3.029912E-16	2.837267E-17
7.277325E+03	3.013992E-16	2.821981E-17
7.287280E+03	2.995920E-16	2.803250E-17
7.297235E+03	2.975829E-16	2.781217E-17
7.307191E+03	2.953802E-16	2.755988E-17
7.317146E+03	2.929942E-16	2.727691E-17
7.327101E+03	2.904309E-16	2.696418E-17
7.337057E+03	2.877097E-16	2.662392E-17
7.347012E+03	2.848455E-16	2.625798E-17
7.356967E+03	2.818479E-16	2.586775E-17
7.366923E+03	2.787400E-16	2.545585E-17
7.376878E+03	2.755332E-16	2.502390E-17
7.386833E+03	2.722515E-16	2.457462E-17
7.396788E+03	2.689074E-16	2.410969E-17
7.406744E+03	2.655250E-16	2.363183E-17
7.416699E+03	2.621112E-16	2.314216E-17
7.426654E+03	2.587006E-16	2.264428E-17
7.436610E+03	2.552939E-16	2.213871E-17
7.446565E+03	2.519186E-16	2.162828E-17
7.456520E+03	2.485851E-16	2.111427E-17
7.466476E+03	2.453079E-16	2.059828E-17
7.476431E+03	2.421062E-16	2.008221E-17
7.486386E+03	2.389820E-16	1.956645E-17
7.496341E+03	2.359569E-16	1.905297E-17
7.506297E+03	2.330362E-16	1.854228E-17
7.516252E+03	2.302286E-16	1.803516E-17
7.526207E+03	2.275417E-16	1.753219E-17
7.536163E+03	2.249822E-16	1.703383E-17
7.546118E+03	2.225551E-16	1.654033E-17
7.556073E+03	2.202648E-16	1.605184E-17
7.566029E+03	2.181190E-16	1.556867E-17
7.575984E+03	2.161102E-16	1.508999E-17
7.585939E+03	2.142439E-16	1.461590E-17
7.595894E+03	2.125249E-16	1.414632E-17
7.605850E+03	2.109431E-16	1.368016E-17
7.615805E+03	2.095012E-16	1.321719E-17
7.625760E+03	2.081966E-16	1.275678E-17
7.635716E+03	2.070305E-16	1.229852E-17
7.645671E+03	2.059897E-16	1.184112E-17
7.655626E+03	2.050740E-16	1.138413E-17
7.665582E+03	2.042732E-16	1.092651E-17
7.675537E+03	2.035904E-16	1.046799E-17
7.685492E+03	2.030142E-16	1.000757E-17
7.695447E+03	2.025374E-16	9.544557E-18
7.705403E+03	2.021475E-16	9.078093E-18
7.715358E+03	2.018406E-16	8.607864E-18
7.725313E+03	2.016076E-16	8.133462E-18
