#wls	flux	fluxerr
1.592848E+03	3.337235E-18	1.548170E-18
1.632669E+03	3.493539E-18	1.609157E-18
1.672491E+03	3.637798E-18	1.663405E-18
1.712312E+03	3.768721E-18	1.710423E-18
1.752133E+03	3.881748E-18	1.748270E-18
1.791954E+03	3.970126E-18	1.774094E-18
1.831775E+03	4.026734E-18	1.784979E-18
1.871597E+03	4.040620E-18	1.776441E-18
1.911418E+03	4.004044E-18	1.745565E-18
1.951239E+03	3.910551E-18	1.690127E-18
1.991060E+03	3.765955E-18	1.613272E-18
2.030881E+03	3.593539E-18	1.525493E-18
2.070703E+03	3.435597E-18	1.444929E-18
2.110524E+03	3.349330E-18	1.395266E-18
2.150345E+03	3.385972E-18	1.396794E-18
2.190166E+03	3.571384E-18	1.458570E-18
2.229987E+03	3.900979E-18	1.576866E-18
2.269809E+03	4.348842E-18	1.739442E-18
2.309630E+03	4.878389E-18	1.930232E-18
2.349451E+03	5.453675E-18	2.134010E-18
2.389272E+03	6.050567E-18	2.340726E-18
2.429093E+03	6.653056E-18	2.543856E-18
2.468915E+03	7.250481E-18	2.739175E-18
2.508736E+03	7.842861E-18	2.926641E-18
2.548557E+03	8.426335E-18	3.104780E-18
2.588378E+03	9.004734E-18	3.274995E-18
2.628199E+03	9.580326E-18	3.438054E-18
2.668021E+03	1.015564E-17	3.594775E-18
2.707842E+03	1.072990E-17	3.744778E-18
2.747663E+03	1.131028E-17	3.890422E-18
2.787484E+03	1.189568E-17	4.031130E-18
2.827305E+03	1.248991E-17	4.167974E-18
2.867127E+03	1.309500E-17	4.301367E-18
2.906948E+03	1.371089E-17	4.430989E-18
2.946769E+03	1.434132E-17	4.557741E-18
2.986590E+03	1.498816E-17	4.681844E-18
2.996546E+03	1.515362E-17	4.712778E-18
3.006501E+03	1.531999E-17	4.743475E-18
3.016456E+03	1.548505E-17	4.773249E-18
3.026411E+03	1.565358E-17	4.803566E-18
3.036367E+03	1.582455E-17	4.834095E-18
3.046322E+03	1.599906E-17	4.865161E-18
3.056277E+03	1.617751E-17	4.896869E-18
3.066233E+03	1.636190E-17	4.929798E-18
3.076188E+03	1.654724E-17	4.962427E-18
3.086143E+03	1.673792E-17	4.996064E-18
3.096099E+03	1.692894E-17	5.029192E-18
3.106054E+03	1.712483E-17	5.063150E-18
3.116009E+03	1.732299E-17	5.097148E-18
3.125964E+03	1.752318E-17	5.131110E-18
3.135920E+03	1.772525E-17	5.164972E-18
3.145875E+03	1.792900E-17	5.198673E-18
3.155830E+03	1.813683E-17	5.232893E-18
3.165786E+03	1.834355E-17	5.266120E-18
3.175741E+03	1.855414E-17	5.299781E-18
3.185696E+03	1.876333E-17	5.332361E-18
3.195652E+03	1.897624E-17	5.365309E-18
3.205607E+03	1.919021E-17	5.397857E-18
3.215562E+03	1.940516E-17	5.429977E-18
3.225517E+03	1.962104E-17	5.461649E-18
3.235473E+03	1.983781E-17	5.492854E-18
3.245428E+03	2.005543E-17	5.523577E-18
3.255383E+03	2.027667E-17	5.554568E-18
3.265339E+03	2.049597E-17	5.584296E-18
3.275294E+03	2.071892E-17	5.614278E-18
3.285249E+03	2.094274E-17	5.643749E-18
3.295205E+03	2.116745E-17	5.672707E-18
3.305160E+03	2.139306E-17	5.701150E-18
3.315115E+03	2.161960E-17	5.729079E-18
3.325070E+03	2.184711E-17	5.756496E-18
3.335026E+03	2.207562E-17	5.783405E-18
3.344981E+03	2.230818E-17	5.810590E-18
3.354936E+03	2.253888E-17	5.836501E-18
3.364892E+03	2.277377E-17	5.862705E-18
3.374847E+03	2.300687E-17	5.887646E-18
3.384802E+03	2.324435E-17	5.912899E-18
3.394758E+03	2.348322E-17	5.937690E-18
3.404713E+03	2.372357E-17	5.962028E-18
3.414668E+03	2.396548E-17	5.985925E-18
3.424623E+03	2.421219E-17	6.010180E-18
3.434579E+03	2.445747E-17	6.033224E-18
3.444534E+03	2.470453E-17	6.055856E-18
3.454489E+03	2.495674E-17	6.078880E-18
3.464445E+03	2.520769E-17	6.100723E-18
3.474400E+03	2.546402E-17	6.122980E-18
3.484355E+03	2.572254E-17	6.144867E-18
3.494311E+03	2.598337E-17	6.166397E-18
3.504266E+03	2.624660E-17	6.187577E-18
3.514221E+03	2.651232E-17	6.208417E-18
3.524176E+03	2.678063E-17	6.228925E-18
3.534132E+03	2.705164E-17	6.249111E-18
3.544087E+03	2.732892E-17	6.269780E-18
3.554042E+03	2.760564E-17	6.289344E-18
3.563998E+03	2.788889E-17	6.309406E-18
3.573953E+03	2.817172E-17	6.328374E-18
3.583908E+03	2.846134E-17	6.347853E-18
3.593864E+03	2.875432E-17	6.367050E-18
3.603819E+03	2.905076E-17	6.385967E-18
3.613774E+03	2.935075E-17	6.404609E-18
3.623729E+03	2.965441E-17	6.422979E-18
3.633685E+03	2.996184E-17	6.441079E-18
3.643640E+03	3.027314E-17	6.458911E-18
3.653595E+03	3.058842E-17	6.476476E-18
3.663551E+03	3.090777E-17	6.493773E-18
3.673506E+03	3.123515E-17	6.511604E-18
3.683461E+03	3.156299E-17	6.528364E-18
3.693417E+03	3.189912E-17	6.545655E-18
3.703372E+03	3.223586E-17	6.561869E-18
3.713327E+03	3.258115E-17	6.578607E-18
3.723282E+03	3.293119E-17	6.595062E-18
3.733238E+03	3.328609E-17	6.611230E-18
3.743193E+03	3.364185E-17	6.626300E-18
3.753148E+03	3.400670E-17	6.641872E-18
3.763104E+03	3.437670E-17	6.657135E-18
3.773059E+03	3.475193E-17	6.672079E-18
3.783014E+03	3.513250E-17	6.686696E-18
3.792970E+03	3.551850E-17	6.700976E-18
3.802925E+03	3.591429E-17	6.715706E-18
3.812880E+03	3.631146E-17	6.729275E-18
3.822835E+03	3.671434E-17	6.742472E-18
3.832791E+03	3.712302E-17	6.755282E-18
3.842746E+03	3.754200E-17	6.768487E-18
3.852701E+03	3.796256E-17	6.780478E-18
3.862657E+03	3.839366E-17	6.792828E-18
3.872612E+03	3.882647E-17	6.803938E-18
3.882567E+03	3.927008E-17	6.815376E-18
3.892523E+03	3.971542E-17	6.825529E-18
3.902478E+03	4.017179E-17	6.835969E-18
3.912433E+03	4.063000E-17	6.845090E-18
3.922388E+03	4.109945E-17	6.854452E-18
3.932344E+03	4.157559E-17	6.863249E-18
3.942299E+03	4.205365E-17	6.870664E-18
3.952254E+03	4.254330E-17	6.878253E-18
3.962210E+03	4.303978E-17	6.885196E-18
3.972165E+03	4.353824E-17	6.890691E-18
3.982120E+03	4.404861E-17	6.896282E-18
3.992076E+03	4.456600E-17	6.901156E-18
4.002031E+03	4.508535E-17	6.904499E-18
4.011986E+03	4.561689E-17	6.907856E-18
4.021941E+03	4.615556E-17	6.910407E-18
4.031897E+03	4.670145E-17	6.912130E-18
4.041852E+03	4.724929E-17	6.912221E-18
4.051807E+03	4.780957E-17	6.912190E-18
4.061763E+03	4.837715E-17	6.911240E-18
4.071718E+03	4.895200E-17	6.909335E-18
4.081673E+03	4.952864E-17	6.905678E-18
4.091629E+03	5.011799E-17	6.901766E-18
4.101584E+03	5.071463E-17	6.896802E-18
4.111539E+03	5.131292E-17	6.889997E-18
4.121494E+03	5.192407E-17	6.882835E-18
4.131450E+03	5.254246E-17	6.874520E-18
4.141405E+03	5.316223E-17	6.864265E-18
4.151360E+03	5.379492E-17	6.853540E-18
4.161316E+03	5.442882E-17	6.840817E-18
4.171271E+03	5.507563E-17	6.827546E-18
4.181226E+03	5.572342E-17	6.812215E-18
4.191182E+03	5.638411E-17	6.796264E-18
4.201137E+03	5.704549E-17	6.778186E-18
4.211092E+03	5.771350E-17	6.758687E-18
4.221047E+03	5.839435E-17	6.738461E-18
4.231003E+03	5.907540E-17	6.716019E-18
4.240958E+03	5.976274E-17	6.692056E-18
4.250913E+03	6.045625E-17	6.666543E-18
4.260869E+03	6.115584E-17	6.639456E-18
4.270824E+03	6.186125E-17	6.610754E-18
4.280779E+03	6.257236E-17	6.580412E-18
4.290735E+03	6.328901E-17	6.548406E-18
4.300690E+03	6.401101E-17	6.514712E-18
4.310645E+03	6.473814E-17	6.479302E-18
4.320601E+03	6.546338E-17	6.441486E-18
4.330556E+03	6.620006E-17	6.402588E-18
4.340511E+03	6.694120E-17	6.361917E-18
4.350466E+03	6.767952E-17	6.318800E-18
4.360422E+03	6.842166E-17	6.273894E-18
4.370377E+03	6.917447E-17	6.227830E-18
4.380332E+03	6.992347E-17	6.179314E-18
4.390288E+03	7.067541E-17	6.128989E-18
4.400243E+03	7.142995E-17	6.076854E-18
4.410198E+03	7.218676E-17	6.022914E-18
4.420154E+03	7.294557E-17	5.967185E-18
4.430109E+03	7.370593E-17	5.909672E-18
4.440064E+03	7.446754E-17	5.850400E-18
4.450019E+03	7.522236E-17	5.788803E-18
4.459975E+03	7.598516E-17	5.726092E-18
4.469930E+03	7.674023E-17	5.661135E-18
4.479885E+03	7.749484E-17	5.594568E-18
4.489841E+03	7.824850E-17	5.526435E-18
4.499796E+03	7.900868E-17	5.457343E-18
4.509751E+03	7.975121E-17	5.385715E-18
4.519707E+03	8.049936E-17	5.313268E-18
4.529662E+03	8.124473E-17	5.239535E-18
4.539617E+03	8.198687E-17	5.164611E-18
4.549572E+03	8.271704E-17	5.088093E-18
4.559528E+03	8.344287E-17	5.010618E-18
4.569483E+03	8.417218E-17	4.932800E-18
4.579438E+03	8.488780E-17	4.853789E-18
4.589394E+03	8.559756E-17	4.774238E-18
4.599349E+03	8.630093E-17	4.694310E-18
4.609304E+03	8.698885E-17	4.613733E-18
4.619260E+03	8.767777E-17	4.533615E-18
4.629215E+03	8.835873E-17	4.453706E-18
4.639170E+03	8.902245E-17	4.373804E-18
4.649125E+03	8.967708E-17	4.294601E-18
4.659081E+03	9.032200E-17	4.216354E-18
4.669036E+03	9.095674E-17	4.139344E-18
4.678991E+03	9.158078E-17	4.063867E-18
4.688947E+03	9.218469E-17	3.989850E-18
4.698902E+03	9.278574E-17	3.918399E-18
4.708857E+03	9.336556E-17	3.849095E-18
4.718813E+03	9.394167E-17	3.783044E-18
4.728768E+03	9.449547E-17	3.719872E-18
4.738723E+03	9.503558E-17	3.660328E-18
4.748678E+03	9.555235E-17	3.604438E-18
4.758634E+03	9.606365E-17	3.553272E-18
4.768589E+03	9.655075E-17	3.506508E-18
4.778544E+03	9.703172E-17	3.465172E-18
4.788500E+03	9.748762E-17	3.428921E-18
4.798455E+03	9.792746E-17	3.398390E-18
4.808410E+03	9.835087E-17	3.373821E-18
4.818366E+03	9.874820E-17	3.354899E-18
4.828321E+03	9.913805E-17	3.342098E-18
4.838276E+03	9.950138E-17	3.334559E-18
4.848231E+03	9.984741E-17	3.332339E-18
4.858187E+03	1.001856E-16	3.335455E-18
4.868142E+03	1.004873E-16	3.342629E-18
4.878097E+03	1.007809E-16	3.354451E-18
4.888053E+03	1.010569E-16	3.370233E-18
4.898008E+03	1.013057E-16	3.389268E-18
4.907963E+03	1.015367E-16	3.411480E-18
4.917919E+03	1.017500E-16	3.436481E-18
4.927874E+03	1.019456E-16	3.463881E-18
4.937829E+03	1.021235E-16	3.493306E-18
4.947784E+03	1.022838E-16	3.524391E-18
4.957740E+03	1.024169E-16	3.556454E-18
4.967695E+03	1.025325E-16	3.589497E-18
4.977650E+03	1.026403E-16	3.623541E-18
4.987606E+03	1.027117E-16	3.657287E-18
4.997561E+03	1.027755E-16	3.691475E-18
5.007516E+03	1.028223E-16	3.725518E-18
5.017472E+03	1.028427E-16	3.758843E-18
5.027427E+03	1.028465E-16	3.791583E-18
5.037382E+03	1.028433E-16	3.823906E-18
5.047337E+03	1.028049E-16	3.854583E-18
5.057293E+03	1.027599E-16	3.884526E-18
5.067248E+03	1.026991E-16	3.913250E-18
5.077203E+03	1.026133E-16	3.940281E-18
5.087159E+03	1.025122E-16	3.965877E-18
5.097114E+03	1.024054E-16	3.990325E-18
5.107069E+03	1.022651E-16	4.012459E-18
5.117025E+03	1.021197E-16	4.033326E-18
5.126980E+03	1.019601E-16	4.052520E-18
5.136935E+03	1.017772E-16	4.069639E-18
5.146890E+03	1.015808E-16	4.085042E-18
5.156846E+03	1.013803E-16	4.099100E-18
5.166801E+03	1.011484E-16	4.110694E-18
5.176756E+03	1.009131E-16	4.120968E-18
5.186712E+03	1.006655E-16	4.129569E-18
5.196667E+03	1.003968E-16	4.136160E-18
5.206622E+03	1.001165E-16	4.141159E-18
5.216578E+03	9.983396E-17	4.144993E-18
5.226533E+03	9.952239E-17	4.146592E-18
5.236488E+03	9.920930E-17	4.147149E-18
5.246443E+03	9.888604E-17	4.146363E-18
5.256399E+03	9.854398E-17	4.143933E-18
5.266354E+03	9.820133E-17	4.140691E-18
5.276309E+03	9.784066E-17	4.135976E-18
5.286265E+03	9.747124E-17	4.130254E-18
5.296220E+03	9.708467E-17	4.123247E-18
5.306175E+03	9.669885E-17	4.115798E-18
5.316131E+03	9.629671E-17	4.107267E-18
5.326086E+03	9.589594E-17	4.098496E-18
5.336041E+03	9.547959E-17	4.088850E-18
5.345996E+03	9.505671E-17	4.078805E-18
5.355952E+03	9.462769E-17	4.068470E-18
5.365907E+03	9.418433E-17	4.057580E-18
5.375862E+03	9.374405E-17	4.046978E-18
5.385818E+03	9.329022E-17	4.036032E-18
5.395773E+03	9.284003E-17	4.025574E-18
5.405728E+03	9.237716E-17	4.014982E-18
5.415684E+03	9.191028E-17	4.004710E-18
5.425639E+03	9.143153E-17	3.994494E-18
5.435594E+03	9.095770E-17	3.985070E-18
5.445549E+03	9.047309E-17	3.975664E-18
5.455505E+03	8.999451E-17	3.966917E-18
5.465460E+03	8.950652E-17	3.958054E-18
5.475415E+03	8.901782E-17	3.949362E-18
5.485371E+03	8.852907E-17	3.940776E-18
5.495326E+03	8.803306E-17	3.931882E-18
5.505281E+03	8.754614E-17	3.923319E-18
5.515237E+03	8.706101E-17	3.914676E-18
5.525192E+03	8.657056E-17	3.905547E-18
5.535147E+03	8.608310E-17	3.896225E-18
5.545102E+03	8.559929E-17	3.886661E-18
5.555058E+03	8.511960E-17	3.876803E-18
5.565013E+03	8.464457E-17	3.866604E-18
5.574968E+03	8.416731E-17	3.855683E-18
5.584924E+03	8.370332E-17	3.844684E-18
5.594879E+03	8.323811E-17	3.832884E-18
5.604834E+03	8.277973E-17	3.820595E-18
5.614790E+03	8.232862E-17	3.807786E-18
5.624745E+03	8.188530E-17	3.794431E-18
5.634700E+03	8.145018E-17	3.780504E-18
5.644655E+03	8.102372E-17	3.765984E-18
5.654611E+03	8.059918E-17	3.750517E-18
5.664566E+03	8.019134E-17	3.734755E-18
5.674521E+03	7.978639E-17	3.718022E-18
5.684477E+03	7.939183E-17	3.700636E-18
5.694432E+03	7.900805E-17	3.682587E-18
5.704387E+03	7.863551E-17	3.663869E-18
5.714343E+03	7.827457E-17	3.644478E-18
5.724298E+03	7.792555E-17	3.624405E-18
5.734253E+03	7.758197E-17	3.603330E-18
5.744209E+03	7.725803E-17	3.581895E-18
5.754164E+03	7.694027E-17	3.559458E-18
5.764119E+03	7.664273E-17	3.536655E-18
5.774074E+03	7.635214E-17	3.512860E-18
5.784030E+03	7.607573E-17	3.488394E-18
5.793985E+03	7.581375E-17	3.463256E-18
5.803940E+03	7.555983E-17	3.437149E-18
5.813896E+03	7.532777E-17	3.410689E-18
5.823851E+03	7.511111E-17	3.383574E-18
5.833806E+03	7.490362E-17	3.355516E-18
5.843762E+03	7.471221E-17	3.326821E-18
5.853717E+03	7.454392E-17	3.297794E-18
5.863672E+03	7.438573E-17	3.267849E-18
5.873627E+03	7.424465E-17	3.237294E-18
5.883583E+03	7.412097E-17	3.206135E-18
5.893538E+03	7.401511E-17	3.174386E-18
5.903493E+03	7.392729E-17	3.142052E-18
5.913449E+03	7.385134E-17	3.108869E-18
5.923404E+03	7.380074E-17	3.075404E-18
5.933359E+03	7.376274E-17	3.041121E-18
5.943315E+03	7.375073E-17	3.006573E-18
5.953270E+03	7.375202E-17	2.971239E-18
5.963225E+03	7.377352E-17	2.935403E-18
5.973180E+03	7.381561E-17	2.899084E-18
5.983136E+03	7.387868E-17	2.862300E-18
5.993091E+03	7.396314E-17	2.825072E-18
6.003046E+03	7.406936E-17	2.787423E-18
6.013002E+03	7.419775E-17	2.749377E-18
6.022957E+03	7.434219E-17	2.710726E-18
6.032912E+03	7.451630E-17	2.671988E-18
6.042868E+03	7.471392E-17	2.632955E-18
6.052823E+03	7.492891E-17	2.593442E-18
6.062778E+03	7.516831E-17	2.553733E-18
6.072733E+03	7.543942E-17	2.514111E-18
6.082689E+03	7.572927E-17	2.474186E-18
6.092644E+03	7.604515E-17	2.434261E-18
6.102599E+03	7.638755E-17	2.394418E-18
6.112555E+03	7.675711E-17	2.354752E-18
6.122510E+03	7.715436E-17	2.315371E-18
6.132465E+03	7.757991E-17	2.276397E-18
6.142421E+03	7.802745E-17	2.237771E-18
6.152376E+03	7.851151E-17	2.200051E-18
6.162331E+03	7.902575E-17	2.163211E-18
6.172286E+03	7.956384E-17	2.127262E-18
6.182242E+03	8.014058E-17	2.092808E-18
6.192197E+03	8.074244E-17	2.059720E-18
6.202152E+03	8.137719E-17	2.028460E-18
6.212108E+03	8.205292E-17	1.999508E-18
6.222063E+03	8.275574E-17	1.972831E-18
6.232018E+03	8.349358E-17	1.948959E-18
6.241974E+03	8.426695E-17	1.928263E-18
6.251929E+03	8.507603E-17	1.911126E-18
6.261884E+03	8.592084E-17	1.897941E-18
6.271839E+03	8.680092E-17	1.889098E-18
6.281795E+03	8.771555E-17	1.884903E-18
6.291750E+03	8.866354E-17	1.885355E-18
6.301705E+03	8.963575E-17	1.890195E-18
6.311661E+03	9.064680E-17	1.899645E-18
6.321616E+03	9.168748E-17	1.913401E-18
6.331571E+03	9.274801E-17	1.931137E-18
6.341527E+03	9.384348E-17	1.953037E-18
6.351482E+03	9.495570E-17	1.978582E-18
6.361437E+03	9.609988E-17	2.007955E-18
6.371392E+03	9.725724E-17	2.040632E-18
6.381348E+03	9.843448E-17	2.076629E-18
6.391303E+03	9.963867E-17	2.115992E-18
6.401258E+03	1.008501E-16	2.158212E-18
6.411214E+03	1.020757E-16	2.203364E-18
6.421169E+03	1.033132E-16	2.251354E-18
6.431124E+03	1.045604E-16	2.302110E-18
6.441080E+03	1.058151E-16	2.355582E-18
6.451035E+03	1.070749E-16	2.411747E-18
6.460990E+03	1.083373E-16	2.470600E-18
6.470945E+03	1.096000E-16	2.532160E-18
6.480901E+03	1.108602E-16	2.596465E-18
6.490856E+03	1.121154E-16	2.663576E-18
6.500811E+03	1.133629E-16	2.733570E-18
6.510767E+03	1.145897E-16	2.806286E-18
6.520722E+03	1.158141E-16	2.882340E-18
6.530677E+03	1.170236E-16	2.961613E-18
6.540633E+03	1.182054E-16	3.043970E-18
6.550588E+03	1.193790E-16	3.130104E-18
6.560543E+03	1.205214E-16	3.219618E-18
6.570498E+03	1.216529E-16	3.313249E-18
6.580454E+03	1.227508E-16	3.410518E-18
6.590409E+03	1.238364E-16	3.511880E-18
6.600364E+03	1.248870E-16	3.616476E-18
6.610320E+03	1.259244E-16	3.724695E-18
6.620275E+03	1.269256E-16	3.835621E-18
6.630230E+03	1.279014E-16	3.949310E-18
6.640186E+03	1.288513E-16	4.065497E-18
6.650141E+03	1.297869E-16	4.184291E-18
6.660096E+03	1.306843E-16	4.304678E-18
6.670051E+03	1.315549E-16	4.426756E-18
6.680007E+03	1.323984E-16	4.550262E-18
6.689962E+03	1.332147E-16	4.674934E-18
6.699917E+03	1.340036E-16	4.800521E-18
6.709873E+03	1.347648E-16	4.926769E-18
6.719828E+03	1.354984E-16	5.053438E-18
6.729783E+03	1.362042E-16	5.180285E-18
6.739739E+03	1.368822E-16	5.307086E-18
6.749694E+03	1.375324E-16	5.433611E-18
6.759649E+03	1.381548E-16	5.559642E-18
6.769604E+03	1.387493E-16	5.684970E-18
6.779560E+03	1.393036E-16	5.808866E-18
6.789515E+03	1.398430E-16	5.932178E-18
6.799470E+03	1.403547E-16	6.054193E-18
6.809426E+03	1.408265E-16	6.174176E-18
6.819381E+03	1.412838E-16	6.293059E-18
6.829336E+03	1.417143E-16	6.410126E-18
6.839292E+03	1.421051E-16	6.524622E-18
6.849247E+03	1.424824E-16	6.637569E-18
6.859202E+03	1.428203E-16	6.747618E-18
6.869157E+03	1.431455E-16	6.855857E-18
6.879113E+03	1.434319E-16	6.960906E-18
6.889068E+03	1.437061E-16	7.063901E-18
6.899023E+03	1.439421E-16	7.163437E-18
6.908979E+03	1.441667E-16	7.260708E-18
6.918934E+03	1.443539E-16	7.354283E-18
6.928889E+03	1.445170E-16	7.444711E-18
6.938845E+03	1.446566E-16	7.531907E-18
6.948800E+03	1.447864E-16	7.616473E-18
6.958755E+03	1.448801E-16	7.696939E-18
6.968710E+03	1.449515E-16	7.773922E-18
6.978666E+03	1.450010E-16	7.847348E-18
6.988621E+03	1.450289E-16	7.917144E-18
6.998576E+03	1.450358E-16	7.983260E-18
7.008532E+03	1.450221E-16	8.045636E-18
7.018487E+03	1.449882E-16	8.104220E-18
7.028442E+03	1.449345E-16	8.158969E-18
7.038398E+03	1.448616E-16	8.209841E-18
7.048353E+03	1.447698E-16	8.256801E-18
7.058308E+03	1.446597E-16	8.299820E-18
7.068263E+03	1.445315E-16	8.338868E-18
7.078219E+03	1.443726E-16	8.373149E-18
7.088174E+03	1.442099E-16	8.404191E-18
7.098129E+03	1.440306E-16	8.431208E-18
7.108085E+03	1.438352E-16	8.454191E-18
7.118040E+03	1.436108E-16	8.472350E-18
7.127995E+03	1.433845E-16	8.487249E-18
7.137951E+03	1.431300E-16	8.497316E-18
7.147906E+03	1.428745E-16	8.504134E-18
7.157861E+03	1.425919E-16	8.506132E-18
7.167817E+03	1.423089E-16	8.504901E-18
7.177772E+03	1.419997E-16	8.498874E-18
7.187727E+03	1.416779E-16	8.488867E-18
7.197682E+03	1.413570E-16	8.475676E-18
7.207638E+03	1.410111E-16	8.457755E-18
7.217593E+03	1.406539E-16	8.435916E-18
7.227548E+03	1.402857E-16	8.410194E-18
7.237504E+03	1.399070E-16	8.380615E-18
7.247459E+03	1.395181E-16	8.347213E-18
7.257414E+03	1.391193E-16	8.310024E-18
7.267370E+03	1.387112E-16	8.269090E-18
7.277325E+03	1.382939E-16	8.224441E-18
7.287280E+03	1.378681E-16	8.176131E-18
7.297235E+03	1.374339E-16	8.124199E-18
7.307191E+03	1.369917E-16	8.068691E-18
7.317146E+03	1.365418E-16	8.009656E-18
7.327101E+03	1.360719E-16	7.946398E-18
7.337057E+03	1.356078E-16	7.880463E-18
7.347012E+03	1.351243E-16	7.810424E-18
7.356967E+03	1.346472E-16	7.737807E-18
7.366923E+03	1.341514E-16	7.661209E-18
7.376878E+03	1.336624E-16	7.582135E-18
7.386833E+03	1.331554E-16	7.499218E-18
7.396788E+03	1.326559E-16	7.413939E-18
7.406744E+03	1.321388E-16	7.324955E-18
7.416699E+03	1.316171E-16	7.233036E-18
7.426654E+03	1.310910E-16	7.138260E-18
7.436610E+03	1.305609E-16	7.040694E-18
7.446565E+03	1.300268E-16	6.940413E-18
7.456520E+03	1.294889E-16	6.837491E-18
7.466476E+03	1.289476E-16	6.732011E-18
7.476431E+03	1.284030E-16	6.624051E-18
7.486386E+03	1.278554E-16	6.513700E-18
7.496341E+03	1.273047E-16	6.401043E-18
7.506297E+03	1.267514E-16	6.286178E-18
7.516252E+03	1.261835E-16	6.168611E-18
7.526207E+03	1.256252E-16	6.049629E-18
7.536163E+03	1.250528E-16	5.928181E-18
7.546118E+03	1.244901E-16	5.805519E-18
7.556073E+03	1.239137E-16	5.680647E-18
7.566029E+03	1.233472E-16	5.554788E-18
7.575984E+03	1.227673E-16	5.427008E-18
7.585939E+03	1.221857E-16	5.297995E-18
7.595894E+03	1.216027E-16	5.167916E-18
7.605850E+03	1.210183E-16	5.036934E-18
7.615805E+03	1.204327E-16	4.905242E-18
7.625760E+03	1.198458E-16	4.773043E-18
7.635716E+03	1.192578E-16	4.640557E-18
7.645671E+03	1.186688E-16	4.508037E-18
7.655626E+03	1.180787E-16	4.375745E-18
7.665582E+03	1.174763E-16	4.243574E-18
7.675537E+03	1.168845E-16	4.112692E-18
7.685492E+03	1.162918E-16	3.983040E-18
7.695447E+03	1.156871E-16	3.854659E-18
7.705403E+03	1.150816E-16	3.728406E-18
7.715358E+03	1.144867E-16	3.605143E-18
7.725313E+03	1.138801E-16	3.484732E-18
