#wls	flux	fluxerr
1.592848E+03	1.843186E-18	7.083651E-19
1.632669E+03	1.929091E-18	7.364098E-19
1.672491E+03	2.009132E-18	7.617017E-19
1.712312E+03	2.081249E-18	7.835004E-19
1.752133E+03	2.144394E-18	8.014670E-19
1.791954E+03	2.194538E-18	8.141700E-19
1.831775E+03	2.227409E-18	8.201360E-19
1.871597E+03	2.236920E-18	8.172802E-19
1.911418E+03	2.218778E-18	8.042435E-19
1.951239E+03	2.169314E-18	7.799479E-19
1.991060E+03	2.092042E-18	7.459280E-19
2.030881E+03	1.999056E-18	7.067181E-19
2.070703E+03	1.914859E-18	6.710599E-19
2.110524E+03	1.870369E-18	6.496228E-19
2.150345E+03	1.894856E-18	6.521129E-19
2.190166E+03	2.003283E-18	6.829706E-19
2.229987E+03	2.194108E-18	7.408462E-19
2.269809E+03	2.453232E-18	8.201877E-19
2.309630E+03	2.759800E-18	9.133719E-19
2.349451E+03	3.095847E-18	1.013987E-18
2.389272E+03	3.446784E-18	1.116949E-18
2.429093E+03	3.803730E-18	1.219203E-18
2.468915E+03	4.162808E-18	1.319398E-18
2.508736E+03	4.520931E-18	1.416487E-18
2.548557E+03	4.879656E-18	1.510904E-18
2.588378E+03	5.239248E-18	1.602667E-18
2.628199E+03	5.602121E-18	1.692437E-18
2.668021E+03	5.968015E-18	1.780039E-18
2.707842E+03	6.340569E-18	1.866449E-18
2.747663E+03	6.720418E-18	1.951714E-18
2.787484E+03	7.109088E-18	2.036121E-18
2.827305E+03	7.508032E-18	2.119911E-18
2.867127E+03	7.919990E-18	2.203656E-18
2.906948E+03	8.345069E-18	2.287157E-18
2.946769E+03	8.784552E-18	2.370527E-18
2.986590E+03	9.239684E-18	2.453844E-18
2.996546E+03	9.356453E-18	2.474776E-18
3.006501E+03	9.472694E-18	2.495285E-18
3.016456E+03	9.591627E-18	2.516217E-18
3.026411E+03	9.711861E-18	2.537198E-18
3.036367E+03	9.834139E-18	2.558416E-18
3.046322E+03	9.959160E-18	2.580045E-18
3.056277E+03	1.008719E-17	2.602141E-18
3.066233E+03	1.021801E-17	2.624641E-18
3.076188E+03	1.034970E-17	2.647037E-18
3.086143E+03	1.048554E-17	2.670166E-18
3.096099E+03	1.062365E-17	2.693535E-18
3.106054E+03	1.076388E-17	2.717095E-18
3.116009E+03	1.090609E-17	2.740804E-18
3.125964E+03	1.105016E-17	2.764623E-18
3.135920E+03	1.119598E-17	2.788516E-18
3.145875E+03	1.134343E-17	2.812449E-18
3.155830E+03	1.149242E-17	2.836393E-18
3.165786E+03	1.164288E-17	2.860320E-18
3.175741E+03	1.179472E-17	2.884206E-18
3.185696E+03	1.194788E-17	2.908027E-18
3.195652E+03	1.210230E-17	2.931763E-18
3.205607E+03	1.225793E-17	2.955397E-18
3.215562E+03	1.241472E-17	2.978913E-18
3.225517E+03	1.257264E-17	3.002294E-18
3.235473E+03	1.273165E-17	3.025530E-18
3.245428E+03	1.289174E-17	3.048610E-18
3.255383E+03	1.305287E-17	3.071522E-18
3.265339E+03	1.321504E-17	3.094260E-18
3.275294E+03	1.337825E-17	3.116816E-18
3.285249E+03	1.354475E-17	3.139709E-18
3.295205E+03	1.371004E-17	3.161888E-18
3.305160E+03	1.387636E-17	3.183870E-18
3.315115E+03	1.404372E-17	3.205652E-18
3.325070E+03	1.421214E-17	3.227233E-18
3.335026E+03	1.438163E-17	3.248611E-18
3.344981E+03	1.455222E-17	3.269784E-18
3.354936E+03	1.472391E-17	3.290754E-18
3.364892E+03	1.489923E-17	3.312070E-18
3.374847E+03	1.507327E-17	3.332635E-18
3.384802E+03	1.524850E-17	3.352996E-18
3.394758E+03	1.542496E-17	3.373157E-18
3.404713E+03	1.560269E-17	3.393118E-18
3.414668E+03	1.578434E-17	3.413447E-18
3.424623E+03	1.596474E-17	3.433017E-18
3.434579E+03	1.614651E-17	3.452391E-18
3.444534E+03	1.632969E-17	3.471572E-18
3.454489E+03	1.651433E-17	3.490564E-18
3.464445E+03	1.670324E-17	3.509949E-18
3.474400E+03	1.689095E-17	3.528568E-18
3.484355E+03	1.708024E-17	3.547002E-18
3.494311E+03	1.727115E-17	3.565253E-18
3.504266E+03	1.746374E-17	3.583323E-18
3.514221E+03	1.766096E-17	3.601808E-18
3.524176E+03	1.785705E-17	3.619521E-18
3.534132E+03	1.805494E-17	3.637055E-18
3.544087E+03	1.825467E-17	3.654411E-18
3.554042E+03	1.845934E-17	3.672197E-18
3.563998E+03	1.866292E-17	3.689201E-18
3.573953E+03	1.886848E-17	3.706028E-18
3.583908E+03	1.907919E-17	3.723290E-18
3.593864E+03	1.928885E-17	3.739763E-18
3.603819E+03	1.950060E-17	3.756054E-18
3.613774E+03	1.971449E-17	3.772164E-18
3.623729E+03	1.993384E-17	3.788713E-18
3.633685E+03	2.015215E-17	3.804455E-18
3.643640E+03	2.037271E-17	3.820008E-18
3.653595E+03	2.059894E-17	3.835999E-18
3.663551E+03	2.082414E-17	3.851167E-18
3.673506E+03	2.105169E-17	3.866135E-18
3.683461E+03	2.128163E-17	3.880900E-18
3.693417E+03	2.151751E-17	3.896094E-18
3.703372E+03	2.175234E-17	3.910439E-18
3.713327E+03	2.198965E-17	3.924564E-18
3.723282E+03	2.223309E-17	3.939109E-18
3.733238E+03	2.247546E-17	3.952780E-18
3.743193E+03	2.272037E-17	3.966213E-18
3.753148E+03	2.297160E-17	3.980052E-18
3.763104E+03	2.322170E-17	3.992989E-18
3.773059E+03	2.347440E-17	4.005667E-18
3.783014E+03	2.372972E-17	4.018076E-18
3.792970E+03	2.399159E-17	4.030864E-18
3.802925E+03	2.425222E-17	4.042711E-18
3.812880E+03	2.451551E-17	4.054263E-18
3.822835E+03	2.478549E-17	4.066172E-18
3.832791E+03	2.505415E-17	4.077105E-18
3.842746E+03	2.532547E-17	4.087713E-18
3.852701E+03	2.560362E-17	4.098651E-18
3.862657E+03	2.588031E-17	4.108577E-18
3.872612E+03	2.615967E-17	4.118146E-18
3.882567E+03	2.644168E-17	4.127345E-18
3.892523E+03	2.673066E-17	4.136832E-18
3.902478E+03	2.701799E-17	4.145257E-18
3.912433E+03	2.730793E-17	4.153276E-18
3.922388E+03	2.760494E-17	4.161550E-18
3.932344E+03	2.790010E-17	4.168720E-18
3.942299E+03	2.819782E-17	4.175448E-18
3.952254E+03	2.849807E-17	4.181718E-18
3.962210E+03	2.880546E-17	4.188194E-18
3.972165E+03	2.911072E-17	4.193511E-18
3.982120E+03	2.941841E-17	4.198332E-18
3.992076E+03	2.972849E-17	4.202643E-18
4.002031E+03	3.004576E-17	4.207108E-18
4.011986E+03	3.036055E-17	4.210357E-18
4.021941E+03	3.067760E-17	4.213056E-18
4.031897E+03	3.099685E-17	4.215191E-18
4.041852E+03	3.132329E-17	4.217426E-18
4.051807E+03	3.164684E-17	4.218392E-18
4.061763E+03	3.197242E-17	4.218753E-18
4.071718E+03	3.229997E-17	4.218496E-18
4.081673E+03	3.262942E-17	4.217609E-18
4.091629E+03	3.296599E-17	4.216755E-18
4.101584E+03	3.329908E-17	4.214569E-18
4.111539E+03	3.363384E-17	4.211714E-18
4.121494E+03	3.397019E-17	4.208179E-18
4.131450E+03	3.430805E-17	4.203953E-18
4.141405E+03	3.464732E-17	4.199025E-18
4.151360E+03	3.499352E-17	4.194054E-18
4.161316E+03	3.533541E-17	4.187689E-18
4.171271E+03	3.567842E-17	4.180590E-18
4.181226E+03	3.602245E-17	4.172749E-18
4.191182E+03	3.636741E-17	4.164158E-18
4.201137E+03	3.671317E-17	4.154808E-18
4.211092E+03	3.705962E-17	4.144693E-18
4.221047E+03	3.740665E-17	4.133807E-18
4.231003E+03	3.775414E-17	4.122144E-18
4.240958E+03	3.810803E-17	4.110354E-18
4.250913E+03	3.845610E-17	4.097122E-18
4.260869E+03	3.880426E-17	4.083102E-18
4.270824E+03	3.915234E-17	4.068292E-18
4.280779E+03	3.950024E-17	4.052693E-18
4.290735E+03	3.984780E-17	4.036303E-18
4.300690E+03	4.019487E-17	4.019127E-18
4.310645E+03	4.054133E-17	4.001166E-18
4.320601E+03	4.088701E-17	3.982425E-18
4.330556E+03	4.123177E-17	3.962910E-18
4.340511E+03	4.157546E-17	3.942628E-18
4.350466E+03	4.191791E-17	3.921589E-18
4.360422E+03	4.225898E-17	3.899802E-18
4.370377E+03	4.259849E-17	3.877280E-18
4.380332E+03	4.292952E-17	3.853427E-18
4.390288E+03	4.326541E-17	3.829482E-18
4.400243E+03	4.359926E-17	3.804849E-18
4.410198E+03	4.393091E-17	3.779547E-18
4.420154E+03	4.426020E-17	3.753599E-18
4.430109E+03	4.458695E-17	3.727026E-18
4.440064E+03	4.491100E-17	3.699855E-18
4.450019E+03	4.523217E-17	3.672114E-18
4.459975E+03	4.554312E-17	3.643259E-18
4.469930E+03	4.585800E-17	3.614475E-18
4.479885E+03	4.616950E-17	3.585217E-18
4.489841E+03	4.647745E-17	3.555523E-18
4.499796E+03	4.678168E-17	3.525434E-18
4.509751E+03	4.707463E-17	3.494439E-18
4.519707E+03	4.737090E-17	3.463690E-18
4.529662E+03	4.766295E-17	3.432678E-18
4.539617E+03	4.794310E-17	3.400919E-18
4.549572E+03	4.822620E-17	3.369538E-18
4.559528E+03	4.850462E-17	3.338052E-18
4.569483E+03	4.877053E-17	3.305999E-18
4.579438E+03	4.903906E-17	3.274481E-18
4.589394E+03	4.930243E-17	3.243037E-18
4.599349E+03	4.955275E-17	3.211229E-18
4.609304E+03	4.980534E-17	3.180135E-18
4.619260E+03	5.005235E-17	3.149316E-18
4.629215E+03	5.028577E-17	3.118357E-18
4.639170E+03	5.052117E-17	3.088309E-18
4.649125E+03	5.074264E-17	3.058279E-18
4.659081E+03	5.096590E-17	3.029303E-18
4.669036E+03	5.117492E-17	3.000506E-18
4.678991E+03	5.138552E-17	2.972907E-18
4.688947E+03	5.158159E-17	2.945654E-18
4.698902E+03	5.177914E-17	2.919752E-18
4.708857E+03	5.196176E-17	2.894353E-18
4.718813E+03	5.214570E-17	2.870453E-18
4.728768E+03	5.231446E-17	2.847218E-18
4.738723E+03	5.247611E-17	2.825178E-18
4.748678E+03	5.263867E-17	2.804835E-18
4.758634E+03	5.278576E-17	2.785387E-18
4.768589E+03	5.292533E-17	2.767330E-18
4.778544E+03	5.306566E-17	2.751157E-18
4.788500E+03	5.319012E-17	2.736032E-18
4.798455E+03	5.330697E-17	2.722362E-18
4.808410E+03	5.342457E-17	2.710538E-18
4.818366E+03	5.352626E-17	2.699672E-18
4.828321E+03	5.362041E-17	2.690147E-18
4.838276E+03	5.370697E-17	2.681909E-18
4.848231E+03	5.379435E-17	2.675324E-18
4.858187E+03	5.386584E-17	2.669498E-18
4.868142E+03	5.392990E-17	2.664793E-18
4.878097E+03	5.398644E-17	2.661138E-18
4.888053E+03	5.403559E-17	2.658473E-18
4.898008E+03	5.407732E-17	2.656724E-18
4.907963E+03	5.411172E-17	2.655826E-18
4.917919E+03	5.413880E-17	2.655707E-18
4.927874E+03	5.416705E-17	2.656709E-18
4.937829E+03	5.417973E-17	2.657938E-18
4.947784E+03	5.418536E-17	2.659739E-18
4.957740E+03	5.418387E-17	2.662037E-18
4.967695E+03	5.417551E-17	2.664773E-18
4.977650E+03	5.416028E-17	2.667876E-18
4.987606E+03	5.413826E-17	2.671282E-18
4.997561E+03	5.410120E-17	2.674517E-18
5.007516E+03	5.406596E-17	2.678349E-18
5.017472E+03	5.402428E-17	2.682309E-18
5.027427E+03	5.397622E-17	2.686339E-18
5.037382E+03	5.392198E-17	2.690394E-18
5.047337E+03	5.386161E-17	2.694420E-18
5.057293E+03	5.379527E-17	2.698374E-18
5.067248E+03	5.371478E-17	2.701796E-18
5.077203E+03	5.363693E-17	2.705482E-18
5.087159E+03	5.355349E-17	2.708977E-18
5.097114E+03	5.346461E-17	2.712249E-18
5.107069E+03	5.336229E-17	2.714851E-18
5.117025E+03	5.326303E-17	2.717588E-18
5.126980E+03	5.315883E-17	2.720022E-18
5.136935E+03	5.304980E-17	2.722128E-18
5.146890E+03	5.292799E-17	2.723471E-18
5.156846E+03	5.280979E-17	2.724868E-18
5.166801E+03	5.267919E-17	2.725474E-18
5.176756E+03	5.255251E-17	2.726112E-18
5.186712E+03	5.242183E-17	2.726355E-18
5.196667E+03	5.227927E-17	2.725779E-18
5.206622E+03	5.214109E-17	2.725218E-18
5.216578E+03	5.199141E-17	2.723832E-18
5.226533E+03	5.184640E-17	2.722458E-18
5.236488E+03	5.169028E-17	2.720264E-18
5.246443E+03	5.153913E-17	2.718087E-18
5.256399E+03	5.137725E-17	2.715100E-18
5.266354E+03	5.121277E-17	2.711727E-18
5.276309E+03	5.105368E-17	2.708394E-18
5.286265E+03	5.088446E-17	2.704278E-18
5.296220E+03	5.072092E-17	2.700223E-18
5.306175E+03	5.054765E-17	2.695412E-18
5.316131E+03	5.037263E-17	2.690275E-18
5.326086E+03	5.020370E-17	2.685238E-18
5.336041E+03	5.002562E-17	2.679493E-18
5.345996E+03	4.984628E-17	2.673470E-18
5.355952E+03	4.966584E-17	2.667186E-18
5.365907E+03	4.949204E-17	2.661068E-18
5.375862E+03	4.930986E-17	2.654318E-18
5.385818E+03	4.912706E-17	2.647363E-18
5.395773E+03	4.894379E-17	2.640225E-18
5.405728E+03	4.876022E-17	2.632921E-18
5.415684E+03	4.858390E-17	2.625875E-18
5.425639E+03	4.840012E-17	2.618300E-18
5.435594E+03	4.821645E-17	2.610620E-18
5.445549E+03	4.803306E-17	2.602837E-18
5.455505E+03	4.785013E-17	2.594940E-18
5.465460E+03	4.766783E-17	2.586918E-18
5.475415E+03	4.748635E-17	2.578760E-18
5.485371E+03	4.730586E-17	2.570457E-18
5.495326E+03	4.712656E-17	2.562000E-18
5.505281E+03	4.694864E-17	2.553381E-18
5.515237E+03	4.677229E-17	2.544592E-18
5.525192E+03	4.659766E-17	2.535626E-18
5.535147E+03	4.642496E-17	2.526475E-18
5.545102E+03	4.625435E-17	2.517135E-18
5.555058E+03	4.608600E-17	2.507598E-18
5.565013E+03	4.591306E-17	2.497479E-18
5.574968E+03	4.574975E-17	2.487536E-18
5.584924E+03	4.558917E-17	2.477382E-18
5.594879E+03	4.543150E-17	2.467014E-18
5.604834E+03	4.527688E-17	2.456428E-18
5.614790E+03	4.512547E-17	2.445622E-18
5.624745E+03	4.497055E-17	2.434222E-18
5.634700E+03	4.482602E-17	2.422970E-18
5.644655E+03	4.468515E-17	2.411493E-18
5.654611E+03	4.454127E-17	2.399424E-18
5.664566E+03	4.440814E-17	2.387495E-18
5.674521E+03	4.427909E-17	2.375339E-18
5.684477E+03	4.414753E-17	2.362598E-18
5.694432E+03	4.402707E-17	2.349993E-18
5.704387E+03	4.391111E-17	2.337164E-18
5.714343E+03	4.379311E-17	2.323759E-18
5.724298E+03	4.368657E-17	2.310490E-18
5.734253E+03	4.358493E-17	2.297004E-18
5.744209E+03	4.348171E-17	2.282956E-18
5.754164E+03	4.339029E-17	2.269046E-18
5.764119E+03	4.329760E-17	2.254585E-18
5.774074E+03	4.321695E-17	2.240266E-18
5.784030E+03	4.313530E-17	2.225408E-18
5.793985E+03	4.306596E-17	2.210697E-18
5.803940E+03	4.299591E-17	2.195462E-18
5.813896E+03	4.293839E-17	2.180378E-18
5.823851E+03	4.288047E-17	2.164787E-18
5.833806E+03	4.282881E-17	2.149027E-18
5.843762E+03	4.279007E-17	2.133431E-18
5.853717E+03	4.275135E-17	2.117354E-18
5.863672E+03	4.272582E-17	2.101450E-18
5.873627E+03	4.270059E-17	2.085084E-18
5.883583E+03	4.268233E-17	2.068589E-18
5.893538E+03	4.267765E-17	2.052284E-18
5.903493E+03	4.267371E-17	2.035553E-18
5.913449E+03	4.267717E-17	2.018721E-18
5.923404E+03	4.268816E-17	2.001798E-18
5.933359E+03	4.271332E-17	1.985099E-18
5.943315E+03	4.273982E-17	1.968030E-18
5.953270E+03	4.277431E-17	1.950908E-18
5.963225E+03	4.281694E-17	1.933750E-18
5.973180E+03	4.287438E-17	1.916861E-18
5.983136E+03	4.293376E-17	1.899674E-18
5.993091E+03	4.300177E-17	1.882501E-18
6.003046E+03	4.307856E-17	1.865363E-18
6.013002E+03	4.316430E-17	1.848280E-18
6.022957E+03	4.325915E-17	1.831277E-18
6.032912E+03	4.336990E-17	1.814655E-18
6.042868E+03	4.348353E-17	1.797887E-18
6.052823E+03	4.360680E-17	1.781281E-18
6.062778E+03	4.373991E-17	1.764871E-18
6.072733E+03	4.388301E-17	1.748692E-18
6.082689E+03	4.403629E-17	1.732782E-18
6.092644E+03	4.419995E-17	1.717182E-18
6.102599E+03	4.437416E-17	1.701939E-18
6.112555E+03	4.455911E-17	1.687099E-18
6.122510E+03	4.475498E-17	1.672717E-18
6.132465E+03	4.496195E-17	1.658848E-18
6.142421E+03	4.518020E-17	1.645553E-18
6.152376E+03	4.540992E-17	1.632898E-18
6.162331E+03	4.565125E-17	1.620953E-18
6.172286E+03	4.590437E-17	1.609791E-18
6.182242E+03	4.616942E-17	1.599493E-18
6.192197E+03	4.643948E-17	1.589899E-18
6.202152E+03	4.672879E-17	1.581583E-18
6.212108E+03	4.703047E-17	1.574397E-18
6.222063E+03	4.734467E-17	1.568437E-18
6.232018E+03	4.767157E-17	1.563807E-18
6.241974E+03	4.801133E-17	1.560614E-18
6.251929E+03	4.836406E-17	1.558963E-18
6.261884E+03	4.872229E-17	1.558723E-18
6.271839E+03	4.910060E-17	1.560449E-18
6.281795E+03	4.949129E-17	1.563918E-18
6.291750E+03	4.989402E-17	1.569125E-18
6.301705E+03	5.030076E-17	1.575826E-18
6.311661E+03	5.072635E-17	1.584488E-18
6.321616E+03	5.116276E-17	1.594863E-18
6.331571E+03	5.160956E-17	1.606935E-18
6.341527E+03	5.205836E-17	1.620443E-18
6.351482E+03	5.252443E-17	1.635860E-18
6.361437E+03	5.299942E-17	1.652924E-18
6.371392E+03	5.347465E-17	1.671359E-18
6.381348E+03	5.396577E-17	1.691652E-18
6.391303E+03	5.446412E-17	1.713527E-18
6.401258E+03	5.496075E-17	1.736701E-18
6.411214E+03	5.547168E-17	1.761675E-18
6.421169E+03	5.598796E-17	1.788166E-18
6.431124E+03	5.650033E-17	1.815876E-18
6.441080E+03	5.702520E-17	1.845332E-18
6.451035E+03	5.754457E-17	1.875955E-18
6.460990E+03	5.807512E-17	1.908288E-18
6.470945E+03	5.859850E-17	1.941735E-18
6.480901E+03	5.913165E-17	1.976861E-18
6.490856E+03	5.966496E-17	2.013356E-18
6.500811E+03	6.018845E-17	2.050887E-18
6.510767E+03	6.071956E-17	2.090054E-18
6.520722E+03	6.123911E-17	2.130209E-18
6.530677E+03	6.176491E-17	2.171977E-18
6.540633E+03	6.227753E-17	2.214689E-18
6.550588E+03	6.279521E-17	2.259000E-18
6.560543E+03	6.329844E-17	2.304221E-18
6.570498E+03	6.379626E-17	2.350680E-18
6.580454E+03	6.429819E-17	2.398694E-18
6.590409E+03	6.478441E-17	2.447456E-18
6.600364E+03	6.527433E-17	2.497618E-18
6.610320E+03	6.574790E-17	2.548340E-18
6.620275E+03	6.622486E-17	2.600306E-18
6.630230E+03	6.668488E-17	2.652641E-18
6.640186E+03	6.713764E-17	2.705643E-18
6.650141E+03	6.759326E-17	2.759644E-18
6.660096E+03	6.803103E-17	2.813724E-18
6.670051E+03	6.846094E-17	2.868207E-18
6.680007E+03	6.889332E-17	2.923453E-18
6.689962E+03	6.930700E-17	2.978491E-18
6.699917E+03	6.971218E-17	3.033671E-18
6.709873E+03	7.011942E-17	3.089381E-18
6.719828E+03	7.050728E-17	3.144609E-18
6.729783E+03	7.088614E-17	3.199731E-18
6.739739E+03	7.125585E-17	3.254667E-18
6.749694E+03	7.162727E-17	3.309848E-18
6.759649E+03	7.197839E-17	3.364193E-18
6.769604E+03	7.231997E-17	3.418122E-18
6.779560E+03	7.265185E-17	3.471562E-18
6.789515E+03	7.298517E-17	3.524983E-18
6.799470E+03	7.329747E-17	3.577242E-18
6.809426E+03	7.359983E-17	3.628806E-18
6.819381E+03	7.389214E-17	3.679607E-18
6.829336E+03	7.417427E-17	3.729578E-18
6.839292E+03	7.445759E-17	3.779237E-18
6.849247E+03	7.471933E-17	3.827377E-18
6.859202E+03	7.497069E-17	3.874505E-18
6.869157E+03	7.521169E-17	3.920569E-18
6.879113E+03	7.544224E-17	3.965511E-18
6.889068E+03	7.566236E-17	4.009281E-18
6.899023E+03	7.587203E-17	4.051830E-18
6.908979E+03	7.608281E-17	4.093731E-18
6.918934E+03	7.627151E-17	4.133696E-18
6.928889E+03	7.644968E-17	4.172297E-18
6.938845E+03	7.661730E-17	4.209490E-18
6.948800E+03	7.677450E-17	4.245242E-18
6.958755E+03	7.692111E-17	4.279505E-18
6.968710E+03	7.705734E-17	4.312251E-18
6.978666E+03	7.718311E-17	4.343441E-18
6.988621E+03	7.729849E-17	4.373044E-18
6.998576E+03	7.740353E-17	4.401032E-18
7.008532E+03	7.749818E-17	4.427370E-18
7.018487E+03	7.758264E-17	4.452040E-18
7.028442E+03	7.765686E-17	4.475012E-18
7.038398E+03	7.772090E-17	4.496265E-18
7.048353E+03	7.777485E-17	4.515778E-18
7.058308E+03	7.781879E-17	4.533534E-18
7.068263E+03	7.785281E-17	4.549518E-18
7.078219E+03	7.787700E-17	4.563716E-18
7.088174E+03	7.789138E-17	4.576111E-18
7.098129E+03	7.789603E-17	4.586693E-18
7.108085E+03	7.787917E-17	4.594754E-18
7.118040E+03	7.786472E-17	4.601689E-18
7.127995E+03	7.784084E-17	4.606792E-18
7.137951E+03	7.780771E-17	4.610064E-18
7.147906E+03	7.776534E-17	4.611499E-18
7.157861E+03	7.771386E-17	4.611097E-18
7.167817E+03	7.765336E-17	4.608861E-18
7.177772E+03	7.758402E-17	4.604799E-18
7.187727E+03	7.749399E-17	4.598207E-18
7.197682E+03	7.740723E-17	4.590507E-18
7.207638E+03	7.731190E-17	4.580999E-18
7.217593E+03	7.720825E-17	4.569702E-18
7.227548E+03	7.709626E-17	4.556620E-18
7.237504E+03	7.696427E-17	4.541073E-18
7.247459E+03	7.683608E-17	4.524474E-18
7.257414E+03	7.669997E-17	4.506143E-18
7.267370E+03	7.655607E-17	4.486098E-18
7.277325E+03	7.639277E-17	4.463676E-18
7.287280E+03	7.623370E-17	4.440273E-18
7.297235E+03	7.606729E-17	4.415229E-18
7.307191E+03	7.589356E-17	4.388564E-18
7.317146E+03	7.570107E-17	4.359639E-18
7.327101E+03	7.551333E-17	4.329832E-18
7.337057E+03	7.531866E-17	4.298493E-18
7.347012E+03	7.510567E-17	4.265000E-18
7.356967E+03	7.489774E-17	4.230711E-18
7.366923E+03	7.468334E-17	4.194997E-18
7.376878E+03	7.445116E-17	4.157257E-18
7.386833E+03	7.422427E-17	4.118815E-18
7.396788E+03	7.399137E-17	4.079072E-18
7.406744E+03	7.374116E-17	4.037446E-18
7.416699E+03	7.349662E-17	3.995236E-18
7.426654E+03	7.323511E-17	3.951249E-18
7.436610E+03	7.297944E-17	3.906764E-18
7.446565E+03	7.271839E-17	3.861214E-18
7.456520E+03	7.244093E-17	3.814065E-18
7.466476E+03	7.216959E-17	3.766561E-18
7.476431E+03	7.188217E-17	3.717589E-18
7.486386E+03	7.160108E-17	3.668367E-18
7.496341E+03	7.130425E-17	3.617819E-18
7.506297E+03	7.101393E-17	3.567139E-18
7.516252E+03	7.070823E-17	3.515285E-18
7.526207E+03	7.040921E-17	3.463428E-18
7.536163E+03	7.009517E-17	3.410564E-18
7.546118E+03	6.978799E-17	3.357838E-18
7.556073E+03	6.946613E-17	3.304286E-18
7.566029E+03	6.915129E-17	3.251028E-18
7.575984E+03	6.882213E-17	3.197141E-18
7.585939E+03	6.850016E-17	3.143722E-18
7.595894E+03	6.816421E-17	3.089888E-18
7.605850E+03	6.783561E-17	3.036714E-18
7.615805E+03	6.749340E-17	2.983359E-18
7.625760E+03	6.714826E-17	2.930422E-18
7.635716E+03	6.681068E-17	2.878470E-18
7.645671E+03	6.646001E-17	2.826731E-18
7.655626E+03	6.611705E-17	2.776225E-18
7.665582E+03	6.576136E-17	2.726223E-18
7.675537E+03	6.540335E-17	2.677309E-18
7.685492E+03	6.505326E-17	2.630044E-18
7.695447E+03	6.469096E-17	2.583761E-18
7.705403E+03	6.432670E-17	2.539040E-18
7.715358E+03	6.397056E-17	2.496436E-18
7.725313E+03	6.360272E-17	2.455339E-18
