#wls	flux	fluxerr
1.600000E+03	1.524944E-17	1.409395E-17
1.640000E+03	1.586716E-17	1.456789E-17
1.680000E+03	1.652466E-17	1.506873E-17
1.720000E+03	1.722344E-17	1.559683E-17
1.760000E+03	1.796649E-17	1.615382E-17
1.800000E+03	1.875828E-17	1.674256E-17
1.840000E+03	1.959691E-17	1.736009E-17
1.880000E+03	2.048821E-17	1.801027E-17
1.920000E+03	2.143311E-17	1.869250E-17
1.960000E+03	2.243239E-17	1.940593E-17
2.000000E+03	2.348494E-17	2.014809E-17
2.040000E+03	2.459104E-17	2.091761E-17
2.080000E+03	2.574743E-17	2.171013E-17
2.120000E+03	2.694729E-17	2.251834E-17
2.160000E+03	2.818835E-17	2.333888E-17
2.200000E+03	2.946152E-17	2.416280E-17
2.240000E+03	3.075901E-17	2.498247E-17
2.280000E+03	3.207605E-17	2.579292E-17
2.320000E+03	3.341092E-17	2.659170E-17
2.360000E+03	3.476654E-17	2.738009E-17
2.400000E+03	3.614718E-17	2.816028E-17
2.440000E+03	3.755677E-17	2.893401E-17
2.480000E+03	3.900367E-17	2.970627E-17
2.520000E+03	4.049088E-17	3.047765E-17
2.560000E+03	4.202405E-17	3.125057E-17
2.600000E+03	4.360338E-17	3.202322E-17
2.640000E+03	4.523006E-17	3.279442E-17
2.680000E+03	4.690141E-17	3.356015E-17
2.720000E+03	4.861415E-17	3.431602E-17
2.760000E+03	5.036437E-17	3.505729E-17
2.800000E+03	5.214598E-17	3.577784E-17
2.840000E+03	5.395234E-17	3.647137E-17
2.880000E+03	5.577927E-17	3.713348E-17
2.920000E+03	5.761896E-17	3.775754E-17
2.960000E+03	5.947037E-17	3.834158E-17
3.000000E+03	6.132729E-17	3.888042E-17
3.010000E+03	6.179368E-17	3.900876E-17
3.020000E+03	6.225924E-17	3.913345E-17
3.030000E+03	6.272377E-17	3.925436E-17
3.040000E+03	6.318989E-17	3.937311E-17
3.050000E+03	6.365597E-17	3.948865E-17
3.060000E+03	6.412179E-17	3.960085E-17
3.070000E+03	6.458851E-17	3.971041E-17
3.080000E+03	6.505453E-17	3.981633E-17
3.090000E+03	6.551963E-17	3.991846E-17
3.100000E+03	6.598631E-17	4.001831E-17
3.110000E+03	6.645161E-17	4.011408E-17
3.120000E+03	6.691666E-17	4.020643E-17
3.130000E+03	6.737988E-17	4.029441E-17
3.140000E+03	6.784505E-17	4.038028E-17
3.150000E+03	6.830791E-17	4.046148E-17
3.160000E+03	6.876957E-17	4.053868E-17
3.170000E+03	6.923110E-17	4.061248E-17
3.180000E+03	6.969224E-17	4.068275E-17
3.190000E+03	7.015013E-17	4.074779E-17
3.200000E+03	7.060844E-17	4.080976E-17
3.210000E+03	7.106431E-17	4.086698E-17
3.220000E+03	7.151878E-17	4.092007E-17
3.230000E+03	7.197033E-17	4.096815E-17
3.240000E+03	7.241998E-17	4.101182E-17
3.250000E+03	7.286747E-17	4.105095E-17
3.260000E+03	7.331256E-17	4.108539E-17
3.270000E+03	7.375375E-17	4.111432E-17
3.280000E+03	7.419203E-17	4.113832E-17
3.290000E+03	7.462716E-17	4.115727E-17
3.300000E+03	7.505767E-17	4.117037E-17
3.310000E+03	7.548455E-17	4.117821E-17
3.320000E+03	7.590634E-17	4.118000E-17
3.330000E+03	7.632402E-17	4.117632E-17
3.340000E+03	7.673616E-17	4.116643E-17
3.350000E+03	7.714254E-17	4.115024E-17
3.360000E+03	7.754294E-17	4.112769E-17
3.370000E+03	7.793717E-17	4.109871E-17
3.380000E+03	7.832500E-17	4.106325E-17
3.390000E+03	7.870509E-17	4.102064E-17
3.400000E+03	7.907839E-17	4.097145E-17
3.410000E+03	7.944245E-17	4.091446E-17
3.420000E+03	7.979936E-17	4.085084E-17
3.430000E+03	8.014671E-17	4.077940E-17
3.440000E+03	8.048434E-17	4.070015E-17
3.450000E+03	8.081214E-17	4.061313E-17
3.460000E+03	8.112887E-17	4.051780E-17
3.470000E+03	8.143552E-17	4.041474E-17
3.480000E+03	8.173090E-17	4.030347E-17
3.490000E+03	8.201383E-17	4.018351E-17
3.500000E+03	8.228427E-17	4.005496E-17
3.510000E+03	8.254111E-17	3.991738E-17
3.520000E+03	8.278535E-17	3.977140E-17
3.530000E+03	8.301386E-17	3.961563E-17
3.540000E+03	8.322770E-17	3.945073E-17
3.550000E+03	8.342586E-17	3.927637E-17
3.560000E+03	8.360838E-17	3.909271E-17
3.570000E+03	8.377334E-17	3.889901E-17
3.580000E+03	8.391983E-17	3.869503E-17
3.590000E+03	8.404899E-17	3.848147E-17
3.600000E+03	8.415801E-17	3.825723E-17
3.610000E+03	8.424806E-17	3.802303E-17
3.620000E+03	8.431837E-17	3.777871E-17
3.630000E+03	8.436725E-17	3.752373E-17
3.640000E+03	8.439404E-17	3.725802E-17
3.650000E+03	8.439903E-17	3.698192E-17
3.660000E+03	8.438071E-17	3.669499E-17
3.670000E+03	8.434032E-17	3.639802E-17
3.680000E+03	8.427551E-17	3.609022E-17
3.690000E+03	8.418671E-17	3.577204E-17
3.700000E+03	8.407345E-17	3.544351E-17
3.710000E+03	8.393618E-17	3.510510E-17
3.720000E+03	8.377364E-17	3.475652E-17
3.730000E+03	8.358634E-17	3.439826E-17
3.740000E+03	8.337395E-17	3.403043E-17
3.750000E+03	8.313700E-17	3.365354E-17
3.760000E+03	8.287522E-17	3.326772E-17
3.770000E+03	8.258918E-17	3.287347E-17
3.780000E+03	8.227864E-17	3.247097E-17
3.790000E+03	8.194341E-17	3.206040E-17
3.800000E+03	8.158571E-17	3.164289E-17
3.810000E+03	8.120375E-17	3.121801E-17
3.820000E+03	8.079896E-17	3.078656E-17
3.830000E+03	8.037276E-17	3.034934E-17
3.840000E+03	7.992421E-17	2.990623E-17
3.850000E+03	7.945399E-17	2.945774E-17
3.860000E+03	7.896348E-17	2.900461E-17
3.870000E+03	7.845331E-17	2.854731E-17
3.880000E+03	7.792411E-17	2.808629E-17
3.890000E+03	7.737579E-17	2.762173E-17
3.900000E+03	7.680969E-17	2.715434E-17
3.910000E+03	7.622645E-17	2.668453E-17
3.920000E+03	7.562667E-17	2.621273E-17
3.930000E+03	7.501097E-17	2.573933E-17
3.940000E+03	7.437995E-17	2.526474E-17
3.950000E+03	7.373490E-17	2.478957E-17
3.960000E+03	7.307639E-17	2.431417E-17
3.970000E+03	7.240434E-17	2.383870E-17
3.980000E+03	7.172064E-17	2.336392E-17
3.990000E+03	7.102518E-17	2.288996E-17
4.000000E+03	7.031916E-17	2.241733E-17
4.010000E+03	6.960310E-17	2.194635E-17
4.020000E+03	6.887693E-17	2.147711E-17
4.030000E+03	6.814238E-17	2.101028E-17
4.040000E+03	6.739937E-17	2.054595E-17
4.050000E+03	6.664899E-17	2.008456E-17
4.060000E+03	6.589171E-17	1.962636E-17
4.070000E+03	6.512801E-17	1.917157E-17
4.080000E+03	6.435837E-17	1.872043E-17
4.090000E+03	6.358379E-17	1.827332E-17
4.100000E+03	6.280418E-17	1.783027E-17
4.110000E+03	6.201997E-17	1.739150E-17
4.120000E+03	6.123268E-17	1.695749E-17
4.130000E+03	6.044164E-17	1.652811E-17
4.140000E+03	5.964781E-17	1.610368E-17
4.150000E+03	5.885159E-17	1.568436E-17
4.160000E+03	5.805338E-17	1.527030E-17
4.170000E+03	5.725355E-17	1.486164E-17
4.180000E+03	5.645250E-17	1.445852E-17
4.190000E+03	5.565059E-17	1.406106E-17
4.200000E+03	5.484819E-17	1.366938E-17
4.210000E+03	5.404565E-17	1.328360E-17
4.220000E+03	5.324334E-17	1.290381E-17
4.230000E+03	5.244113E-17	1.253001E-17
4.240000E+03	5.163939E-17	1.216230E-17
4.250000E+03	5.083889E-17	1.180087E-17
4.260000E+03	5.003998E-17	1.144580E-17
4.270000E+03	4.924208E-17	1.109697E-17
4.280000E+03	4.844598E-17	1.075454E-17
4.290000E+03	4.765199E-17	1.041858E-17
4.300000E+03	4.686042E-17	1.008916E-17
4.310000E+03	4.607156E-17	9.766310E-18
4.320000E+03	4.528531E-17	9.450007E-18
4.330000E+03	4.450276E-17	9.140453E-18
4.340000E+03	4.372338E-17	8.837515E-18
4.350000E+03	4.294823E-17	8.541380E-18
4.360000E+03	4.217755E-17	8.252058E-18
4.370000E+03	4.141193E-17	7.969627E-18
4.380000E+03	4.065157E-17	7.694083E-18
4.390000E+03	3.989705E-17	7.425481E-18
4.400000E+03	3.914853E-17	7.163797E-18
4.410000E+03	3.840688E-17	6.909125E-18
4.420000E+03	3.767224E-17	6.661416E-18
4.430000E+03	3.694472E-17	6.420621E-18
4.440000E+03	3.622511E-17	6.186799E-18
4.450000E+03	3.551349E-17	5.959883E-18
4.460000E+03	3.481024E-17	5.739855E-18
4.470000E+03	3.411605E-17	5.526740E-18
4.480000E+03	3.343062E-17	5.320400E-18
4.490000E+03	3.275458E-17	5.120845E-18
4.500000E+03	3.208823E-17	4.928024E-18
4.510000E+03	3.143153E-17	4.741835E-18
4.520000E+03	3.078473E-17	4.562221E-18
4.530000E+03	3.014807E-17	4.389115E-18
4.540000E+03	2.952176E-17	4.222446E-18
4.550000E+03	2.890598E-17	4.062138E-18
4.560000E+03	2.830064E-17	3.908070E-18
4.570000E+03	2.770562E-17	3.760124E-18
4.580000E+03	2.712161E-17	3.618286E-18
4.590000E+03	2.654820E-17	3.482392E-18
4.600000E+03	2.598525E-17	3.352316E-18
4.610000E+03	2.543313E-17	3.227995E-18
4.620000E+03	2.489191E-17	3.109325E-18
4.630000E+03	2.436096E-17	2.996114E-18
4.640000E+03	2.384104E-17	2.888342E-18
4.650000E+03	2.333128E-17	2.785784E-18
4.660000E+03	2.283219E-17	2.688385E-18
4.670000E+03	2.234359E-17	2.595997E-18
4.680000E+03	2.186527E-17	2.508475E-18
4.690000E+03	2.139705E-17	2.425669E-18
4.700000E+03	2.093874E-17	2.347429E-18
4.710000E+03	2.049057E-17	2.273646E-18
4.720000E+03	2.005212E-17	2.204137E-18
4.730000E+03	1.962325E-17	2.138713E-18
4.740000E+03	1.920408E-17	2.077147E-18
4.750000E+03	1.879415E-17	2.019150E-18
4.760000E+03	1.839397E-17	1.964542E-18
4.770000E+03	1.800287E-17	1.913030E-18
4.780000E+03	1.762114E-17	1.864429E-18
4.790000E+03	1.724867E-17	1.818526E-18
4.800000E+03	1.688500E-17	1.775080E-18
4.810000E+03	1.653022E-17	1.733916E-18
4.820000E+03	1.618437E-17	1.694870E-18
4.830000E+03	1.584700E-17	1.657737E-18
4.840000E+03	1.551817E-17	1.622375E-18
4.850000E+03	1.519775E-17	1.588634E-18
4.860000E+03	1.488547E-17	1.556361E-18
4.870000E+03	1.458120E-17	1.525430E-18
4.880000E+03	1.428497E-17	1.495741E-18
4.890000E+03	1.399652E-17	1.467169E-18
4.900000E+03	1.371584E-17	1.439635E-18
4.910000E+03	1.344254E-17	1.413018E-18
4.920000E+03	1.317663E-17	1.387256E-18
4.930000E+03	1.291799E-17	1.362276E-18
4.940000E+03	1.266635E-17	1.337999E-18
4.950000E+03	1.242173E-17	1.314382E-18
4.960000E+03	1.218387E-17	1.291360E-18
4.970000E+03	1.195278E-17	1.268901E-18
4.980000E+03	1.172820E-17	1.246953E-18
4.990000E+03	1.151002E-17	1.225479E-18
5.000000E+03	1.129800E-17	1.204437E-18
5.010000E+03	1.109226E-17	1.183826E-18
5.020000E+03	1.089245E-17	1.163597E-18
5.030000E+03	1.069847E-17	1.143732E-18
5.040000E+03	1.051032E-17	1.124226E-18
5.050000E+03	1.032777E-17	1.105054E-18
5.060000E+03	1.015072E-17	1.086203E-18
5.070000E+03	9.979065E-18	1.067666E-18
5.080000E+03	9.812706E-18	1.049433E-18
5.090000E+03	9.651441E-18	1.031490E-18
5.100000E+03	9.495178E-18	1.013833E-18
5.110000E+03	9.343920E-18	9.964679E-19
5.120000E+03	9.197384E-18	9.793743E-19
5.130000E+03	9.055673E-18	9.625718E-19
5.140000E+03	8.918420E-18	9.460312E-19
5.150000E+03	8.785731E-18	9.297741E-19
5.160000E+03	8.657435E-18	9.137931E-19
5.170000E+03	8.533456E-18	8.980914E-19
5.180000E+03	8.413720E-18	8.826728E-19
5.190000E+03	8.298071E-18	8.675328E-19
5.200000E+03	8.186442E-18	8.526766E-19
5.210000E+03	8.078686E-18	8.381013E-19
5.220000E+03	7.974909E-18	8.238304E-19
5.230000E+03	7.874806E-18	8.098451E-19
5.240000E+03	7.778404E-18	7.961613E-19
5.250000E+03	7.685651E-18	7.827869E-19
5.260000E+03	7.596498E-18	7.697298E-19
5.270000E+03	7.510742E-18	7.569832E-19
5.280000E+03	7.428418E-18	7.445643E-19
5.290000E+03	7.349411E-18	7.324754E-19
5.300000E+03	7.273684E-18	7.207269E-19
5.310000E+03	7.201129E-18	7.093225E-19
5.320000E+03	7.131788E-18	6.982809E-19
5.330000E+03	7.065486E-18	6.875999E-19
5.340000E+03	7.002201E-18	6.772923E-19
5.350000E+03	6.941840E-18	6.673645E-19
5.360000E+03	6.884453E-18	6.578371E-19
5.370000E+03	6.829815E-18	6.487045E-19
5.380000E+03	6.777985E-18	6.399885E-19
5.390000E+03	6.728883E-18	6.316980E-19
5.400000E+03	6.682433E-18	6.238425E-19
5.410000E+03	6.638433E-18	6.164201E-19
5.420000E+03	6.596816E-18	6.094417E-19
5.430000E+03	6.557521E-18	6.029189E-19
5.440000E+03	6.520226E-18	5.968393E-19
5.450000E+03	6.484880E-18	5.912154E-19
5.460000E+03	6.451237E-18	5.860416E-19
5.470000E+03	6.419186E-18	5.813245E-19
5.480000E+03	6.388938E-18	5.770989E-19
5.490000E+03	6.360446E-18	5.733752E-19
5.500000E+03	6.333897E-18	5.701756E-19
5.510000E+03	6.309293E-18	5.674794E-19
5.520000E+03	6.286813E-18	5.652777E-19
5.530000E+03	6.266323E-18	5.635329E-19
5.540000E+03	6.247879E-18	5.622252E-19
5.550000E+03	6.231415E-18	5.613233E-19
5.560000E+03	6.217052E-18	5.608140E-19
5.570000E+03	6.204666E-18	5.606617E-19
5.580000E+03	6.194256E-18	5.608432E-19
5.590000E+03	6.185763E-18	5.613303E-19
5.600000E+03	6.179256E-18	5.621071E-19
5.610000E+03	6.174617E-18	5.631416E-19
5.620000E+03	6.171854E-18	5.644141E-19
5.630000E+03	6.170979E-18	5.659059E-19
5.640000E+03	6.171943E-18	5.675937E-19
5.650000E+03	6.174762E-18	5.694608E-19
5.660000E+03	6.179323E-18	5.714799E-19
5.670000E+03	6.185646E-18	5.736364E-19
5.680000E+03	6.193753E-18	5.759166E-19
5.690000E+03	6.203600E-18	5.783021E-19
5.700000E+03	6.215148E-18	5.807750E-19
5.710000E+03	6.228356E-18	5.833185E-19
5.720000E+03	6.243318E-18	5.859291E-19
5.730000E+03	6.259865E-18	5.885793E-19
5.740000E+03	6.278094E-18	5.912674E-19
5.750000E+03	6.297969E-18	5.939801E-19
5.760000E+03	6.319389E-18	5.966985E-19
5.770000E+03	6.342389E-18	5.994173E-19
5.780000E+03	6.367003E-18	6.021322E-19
5.790000E+03	6.393133E-18	6.048265E-19
5.800000E+03	6.420746E-18	6.074913E-19
5.810000E+03	6.449950E-18	6.101313E-19
5.820000E+03	6.480576E-18	6.127260E-19
5.830000E+03	6.512664E-18	6.152756E-19
5.840000E+03	6.546183E-18	6.177746E-19
5.850000E+03	6.581104E-18	6.202186E-19
5.860000E+03	6.617469E-18	6.226110E-19
5.870000E+03	6.655102E-18	6.249360E-19
5.880000E+03	6.694121E-18	6.272062E-19
5.890000E+03	6.734420E-18	6.294149E-19
5.900000E+03	6.775968E-18	6.315639E-19
5.910000E+03	6.818733E-18	6.336561E-19
5.920000E+03	6.862683E-18	6.356962E-19
5.930000E+03	6.907861E-18	6.376976E-19
5.940000E+03	6.954079E-18	6.396542E-19
5.950000E+03	7.001298E-18	6.415756E-19
5.960000E+03	7.049561E-18	6.434813E-19
5.970000E+03	7.098831E-18	6.453853E-19
5.980000E+03	7.148904E-18	6.472891E-19
5.990000E+03	7.199904E-18	6.492265E-19
6.000000E+03	7.251535E-18	6.511958E-19
6.010000E+03	7.304005E-18	6.532436E-19
6.020000E+03	7.357011E-18	6.553734E-19
6.030000E+03	7.410499E-18	6.576139E-19
6.040000E+03	7.464504E-18	6.600046E-19
6.050000E+03	7.518882E-18	6.625722E-19
6.060000E+03	7.573575E-18	6.653536E-19
6.070000E+03	7.628340E-18	6.683726E-19
6.080000E+03	7.683293E-18	6.716869E-19
6.090000E+03	7.738091E-18	6.753166E-19
6.100000E+03	7.792846E-18	6.793238E-19
6.110000E+03	7.847392E-18	6.837480E-19
6.120000E+03	7.901556E-18	6.886297E-19
6.130000E+03	7.955256E-18	6.940183E-19
6.140000E+03	8.008507E-18	6.999721E-19
6.150000E+03	8.061127E-18	7.065320E-19
6.160000E+03	8.113027E-18	7.137464E-19
6.170000E+03	8.164323E-18	7.216802E-19
6.180000E+03	8.214722E-18	7.303606E-19
6.190000E+03	8.264237E-18	7.398383E-19
6.200000E+03	8.312901E-18	7.501426E-19
6.210000E+03	8.360786E-18	7.612688E-19
6.220000E+03	8.407754E-18	7.731860E-19
6.230000E+03	8.453771E-18	7.858688E-19
6.240000E+03	8.498914E-18	7.992985E-19
6.250000E+03	8.543041E-18	8.134333E-19
6.260000E+03	8.586230E-18	8.282494E-19
6.270000E+03	8.628451E-18	8.437107E-19
6.280000E+03	8.669788E-18	8.597912E-19
6.290000E+03	8.710213E-18	8.764526E-19
6.300000E+03	8.749701E-18	8.936560E-19
6.310000E+03	8.788342E-18	9.113741E-19
6.320000E+03	8.826233E-18	9.295806E-19
6.330000E+03	8.863233E-18	9.482245E-19
6.340000E+03	8.899441E-18	9.672802E-19
6.350000E+03	8.934963E-18	9.867240E-19
6.360000E+03	8.969656E-18	1.006506E-18
6.370000E+03	9.003755E-18	1.026618E-18
6.380000E+03	9.037250E-18	1.047028E-18
6.390000E+03	9.070129E-18	1.067702E-18
6.400000E+03	9.102380E-18	1.088609E-18
6.410000E+03	9.134258E-18	1.109750E-18
6.420000E+03	9.165627E-18	1.131080E-18
6.430000E+03	9.196751E-18	1.152607E-18
6.440000E+03	9.227633E-18	1.174306E-18
6.450000E+03	9.258275E-18	1.196154E-18
6.460000E+03	9.288819E-18	1.218146E-18
6.470000E+03	9.319273E-18	1.240263E-18
6.480000E+03	9.349787E-18	1.262505E-18
6.490000E+03	9.380087E-18	1.284817E-18
6.500000E+03	9.410466E-18	1.307219E-18
6.510000E+03	9.440938E-18	1.329698E-18
6.520000E+03	9.471369E-18	1.352217E-18
6.530000E+03	9.501918E-18	1.374786E-18
6.540000E+03	9.532599E-18	1.397390E-18
6.550000E+03	9.563429E-18	1.420020E-18
6.560000E+03	9.594422E-18	1.442664E-18
6.570000E+03	9.625750E-18	1.465336E-18
6.580000E+03	9.657277E-18	1.488004E-18
6.590000E+03	9.689019E-18	1.510660E-18
6.600000E+03	9.721155E-18	1.533322E-18
6.610000E+03	9.753705E-18	1.555983E-18
6.620000E+03	9.786531E-18	1.578613E-18
6.630000E+03	9.819814E-18	1.601233E-18
6.640000E+03	9.853414E-18	1.623812E-18
6.650000E+03	9.887684E-18	1.646400E-18
6.660000E+03	9.922316E-18	1.668940E-18
6.670000E+03	9.957330E-18	1.691429E-18
6.680000E+03	9.992920E-18	1.713893E-18
6.690000E+03	1.002911E-17	1.736331E-18
6.700000E+03	1.006576E-17	1.758711E-18
6.710000E+03	1.010288E-17	1.781034E-18
6.720000E+03	1.014067E-17	1.803328E-18
6.730000E+03	1.017900E-17	1.825563E-18
6.740000E+03	1.021805E-17	1.847771E-18
6.750000E+03	1.025749E-17	1.869888E-18
6.760000E+03	1.029772E-17	1.891980E-18
6.770000E+03	1.033839E-17	1.913982E-18
6.780000E+03	1.037989E-17	1.935962E-18
6.790000E+03	1.042188E-17	1.957854E-18
6.800000E+03	1.046457E-17	1.979694E-18
6.810000E+03	1.050800E-17	2.001485E-18
6.820000E+03	1.055198E-17	2.023192E-18
6.830000E+03	1.059674E-17	2.044855E-18
6.840000E+03	1.064211E-17	2.066440E-18
6.850000E+03	1.068832E-17	2.087988E-18
6.860000E+03	1.073499E-17	2.109425E-18
6.870000E+03	1.078255E-17	2.130831E-18
6.880000E+03	1.083082E-17	2.152172E-18
6.890000E+03	1.087982E-17	2.173452E-18
6.900000E+03	1.092939E-17	2.194633E-18
6.910000E+03	1.097995E-17	2.215802E-18
6.920000E+03	1.103091E-17	2.236839E-18
6.930000E+03	1.108292E-17	2.257874E-18
6.940000E+03	1.113558E-17	2.278827E-18
6.950000E+03	1.118893E-17	2.299703E-18
6.960000E+03	1.124319E-17	2.320552E-18
6.970000E+03	1.129818E-17	2.341334E-18
6.980000E+03	1.135393E-17	2.362056E-18
6.990000E+03	1.141046E-17	2.382722E-18
7.000000E+03	1.146780E-17	2.403339E-18
7.010000E+03	1.152596E-17	2.423914E-18
7.020000E+03	1.158476E-17	2.444405E-18
7.030000E+03	1.164466E-17	2.464916E-18
7.040000E+03	1.170502E-17	2.485308E-18
7.050000E+03	1.176653E-17	2.505735E-18
7.060000E+03	1.182854E-17	2.526057E-18
7.070000E+03	1.189154E-17	2.546381E-18
7.080000E+03	1.195531E-17	2.566664E-18
7.090000E+03	1.201988E-17	2.586915E-18
7.100000E+03	1.208552E-17	2.607195E-18
7.110000E+03	1.215177E-17	2.627409E-18
7.120000E+03	1.221889E-17	2.647617E-18
7.130000E+03	1.228666E-17	2.667776E-18
7.140000E+03	1.235535E-17	2.687950E-18
7.150000E+03	1.242499E-17	2.708148E-18
7.160000E+03	1.249536E-17	2.728326E-18
7.170000E+03	1.256673E-17	2.748552E-18
7.180000E+03	1.263861E-17	2.768723E-18
7.190000E+03	1.271154E-17	2.788964E-18
7.200000E+03	1.278529E-17	2.809230E-18
7.210000E+03	1.285962E-17	2.829476E-18
7.220000E+03	1.293481E-17	2.849771E-18
7.230000E+03	1.301088E-17	2.870127E-18
7.240000E+03	1.308760E-17	2.890501E-18
7.250000E+03	1.316498E-17	2.910903E-18
7.260000E+03	1.324305E-17	2.931348E-18
7.270000E+03	1.332181E-17	2.951848E-18
7.280000E+03	1.340130E-17	2.972419E-18
7.290000E+03	1.348098E-17	2.992951E-18
7.300000E+03	1.356142E-17	3.013581E-18
7.310000E+03	1.364235E-17	3.034263E-18
7.320000E+03	1.372351E-17	3.054946E-18
7.330000E+03	1.380519E-17	3.075709E-18
7.340000E+03	1.388684E-17	3.096439E-18
7.350000E+03	1.396845E-17	3.117148E-18
7.360000E+03	1.405002E-17	3.137850E-18
7.370000E+03	1.413128E-17	3.158492E-18
7.380000E+03	1.421250E-17	3.179155E-18
7.390000E+03	1.429280E-17	3.199649E-18
7.400000E+03	1.437277E-17	3.220122E-18
7.410000E+03	1.445178E-17	3.240449E-18
7.420000E+03	1.453013E-17	3.260710E-18
7.430000E+03	1.460751E-17	3.280847E-18
7.440000E+03	1.468388E-17	3.300872E-18
7.450000E+03	1.475956E-17	3.320866E-18
7.460000E+03	1.483421E-17	3.340770E-18
7.470000E+03	1.490878E-17	3.360813E-18
7.480000E+03	1.498263E-17	3.380863E-18
7.490000E+03	1.505638E-17	3.401081E-18
7.500000E+03	1.512973E-17	3.421410E-18
7.510000E+03	1.520366E-17	3.442089E-18
7.520000E+03	1.527785E-17	3.463048E-18
7.530000E+03	1.535228E-17	3.484275E-18
7.540000E+03	1.542728E-17	3.505834E-18
7.550000E+03	1.550285E-17	3.527710E-18
7.560000E+03	1.557967E-17	3.550048E-18
7.570000E+03	1.565706E-17	3.572680E-18
7.580000E+03	1.573537E-17	3.595670E-18
7.590000E+03	1.581495E-17	3.619087E-18
7.600000E+03	1.589546E-17	3.642840E-18
7.610000E+03	1.597727E-17	3.666995E-18
7.620000E+03	1.606001E-17	3.691461E-18
7.630000E+03	1.614443E-17	3.716389E-18
7.640000E+03	1.622982E-17	3.741601E-18
7.650000E+03	1.631691E-17	3.767254E-18
7.660000E+03	1.640499E-17	3.793164E-18
7.670000E+03	1.649480E-17	3.819492E-18
7.680000E+03	1.658563E-17	3.846050E-18
7.690000E+03	1.667822E-17	3.873000E-18
7.700000E+03	1.677223E-17	3.900242E-18
7.710000E+03	1.686766E-17	3.927762E-18
7.720000E+03	1.696454E-17	3.955547E-18
7.730000E+03	1.706287E-17	3.983582E-18
7.740000E+03	1.716267E-17	4.011853E-18
7.750000E+03	1.726356E-17	4.040252E-18
7.760000E+03	1.736634E-17	4.068951E-18
