#wls	flux	fluxerr
1.600000E+03	6.243614E-18	5.936759E-18
1.640000E+03	6.452095E-18	6.095033E-18
1.680000E+03	6.672916E-18	6.261468E-18
1.720000E+03	6.906305E-18	6.435951E-18
1.760000E+03	7.153053E-18	6.618868E-18
1.800000E+03	7.414504E-18	6.811086E-18
1.840000E+03	7.689441E-18	7.011084E-18
1.880000E+03	7.979673E-18	7.220100E-18
1.920000E+03	8.285048E-18	7.437553E-18
1.960000E+03	8.605322E-18	7.662766E-18
2.000000E+03	8.939533E-18	7.894420E-18
2.040000E+03	9.287232E-18	8.131666E-18
2.080000E+03	9.646645E-18	8.372502E-18
2.120000E+03	1.001470E-17	8.613851E-18
2.160000E+03	1.039007E-17	8.854223E-18
2.200000E+03	1.076898E-17	9.090065E-18
2.240000E+03	1.114820E-17	9.318434E-18
2.280000E+03	1.152570E-17	9.537460E-18
2.320000E+03	1.190058E-17	9.746272E-18
2.360000E+03	1.227359E-17	9.945379E-18
2.400000E+03	1.264592E-17	1.013561E-17
2.440000E+03	1.301858E-17	1.031760E-17
2.480000E+03	1.339405E-17	1.049313E-17
2.520000E+03	1.377285E-17	1.066234E-17
2.560000E+03	1.415638E-17	1.082605E-17
2.600000E+03	1.454410E-17	1.098355E-17
2.640000E+03	1.493582E-17	1.113440E-17
2.680000E+03	1.533004E-17	1.127721E-17
2.720000E+03	1.572508E-17	1.141055E-17
2.760000E+03	1.611912E-17	1.153291E-17
2.800000E+03	1.650969E-17	1.164242E-17
2.840000E+03	1.689420E-17	1.173727E-17
2.880000E+03	1.727091E-17	1.181631E-17
2.920000E+03	1.763705E-17	1.187780E-17
2.960000E+03	1.799198E-17	1.192155E-17
3.000000E+03	1.833352E-17	1.194640E-17
3.010000E+03	1.841717E-17	1.194994E-17
3.020000E+03	1.849961E-17	1.195208E-17
3.030000E+03	1.858078E-17	1.195280E-17
3.040000E+03	1.866146E-17	1.195261E-17
3.050000E+03	1.874115E-17	1.195118E-17
3.060000E+03	1.881980E-17	1.194850E-17
3.070000E+03	1.889773E-17	1.194477E-17
3.080000E+03	1.897448E-17	1.193972E-17
3.090000E+03	1.904997E-17	1.193330E-17
3.100000E+03	1.912494E-17	1.192598E-17
3.110000E+03	1.919853E-17	1.191723E-17
3.120000E+03	1.927104E-17	1.190726E-17
3.130000E+03	1.934204E-17	1.189579E-17
3.140000E+03	1.941260E-17	1.188352E-17
3.150000E+03	1.948150E-17	1.186969E-17
3.160000E+03	1.954906E-17	1.185450E-17
3.170000E+03	1.961558E-17	1.183817E-17
3.180000E+03	1.968098E-17	1.182064E-17
3.190000E+03	1.974447E-17	1.180146E-17
3.200000E+03	1.980706E-17	1.178124E-17
3.210000E+03	1.986797E-17	1.175953E-17
3.220000E+03	1.992748E-17	1.173651E-17
3.230000E+03	1.998517E-17	1.171194E-17
3.240000E+03	2.004133E-17	1.168602E-17
3.250000E+03	2.009589E-17	1.165872E-17
3.260000E+03	2.014879E-17	1.163001E-17
3.270000E+03	2.019961E-17	1.159968E-17
3.280000E+03	2.024864E-17	1.156791E-17
3.290000E+03	2.029582E-17	1.153467E-17
3.300000E+03	2.034075E-17	1.149978E-17
3.310000E+03	2.038371E-17	1.146340E-17
3.320000E+03	2.042431E-17	1.142533E-17
3.330000E+03	2.046284E-17	1.138577E-17
3.340000E+03	2.049891E-17	1.134451E-17
3.350000E+03	2.053249E-17	1.130156E-17
3.360000E+03	2.056352E-17	1.125691E-17
3.370000E+03	2.059197E-17	1.121059E-17
3.380000E+03	2.061780E-17	1.116258E-17
3.390000E+03	2.064066E-17	1.111273E-17
3.400000E+03	2.066084E-17	1.106122E-17
3.410000E+03	2.067770E-17	1.100774E-17
3.420000E+03	2.069181E-17	1.095263E-17
3.430000E+03	2.070257E-17	1.089559E-17
3.440000E+03	2.070997E-17	1.083666E-17
3.450000E+03	2.071399E-17	1.077587E-17
3.460000E+03	2.071436E-17	1.071310E-17
3.470000E+03	2.071135E-17	1.064853E-17
3.480000E+03	2.070470E-17	1.058206E-17
3.490000E+03	2.069412E-17	1.051360E-17
3.500000E+03	2.067966E-17	1.044319E-17
3.510000E+03	2.066106E-17	1.037075E-17
3.520000E+03	2.063862E-17	1.029648E-17
3.530000E+03	2.061159E-17	1.022004E-17
3.540000E+03	2.058028E-17	1.014162E-17
3.550000E+03	2.054449E-17	1.006119E-17
3.560000E+03	2.050428E-17	9.978807E-18
3.570000E+03	2.045921E-17	9.894313E-18
3.580000E+03	2.040912E-17	9.807681E-18
3.590000E+03	2.035435E-17	9.719117E-18
3.600000E+03	2.029426E-17	9.628377E-18
3.610000E+03	2.022920E-17	9.535674E-18
3.620000E+03	2.015904E-17	9.441001E-18
3.630000E+03	2.008345E-17	9.344252E-18
3.640000E+03	2.000232E-17	9.245441E-18
3.650000E+03	1.991581E-17	9.144688E-18
3.660000E+03	1.982361E-17	9.041916E-18
3.670000E+03	1.972610E-17	8.937349E-18
3.680000E+03	1.962279E-17	8.830825E-18
3.690000E+03	1.951387E-17	8.722483E-18
3.700000E+03	1.939930E-17	8.612366E-18
3.710000E+03	1.927926E-17	8.500612E-18
3.720000E+03	1.915354E-17	8.387182E-18
3.730000E+03	1.902234E-17	8.272220E-18
3.740000E+03	1.888566E-17	8.155783E-18
3.750000E+03	1.874371E-17	8.038015E-18
3.760000E+03	1.859650E-17	7.918976E-18
3.770000E+03	1.844425E-17	7.798805E-18
3.780000E+03	1.828698E-17	7.677567E-18
3.790000E+03	1.812472E-17	7.555326E-18
3.800000E+03	1.795805E-17	7.432367E-18
3.810000E+03	1.778666E-17	7.308606E-18
3.820000E+03	1.761093E-17	7.184249E-18
3.830000E+03	1.743126E-17	7.059493E-18
3.840000E+03	1.724751E-17	6.934326E-18
3.850000E+03	1.705990E-17	6.808875E-18
3.860000E+03	1.686880E-17	6.683325E-18
3.870000E+03	1.667442E-17	6.557788E-18
3.880000E+03	1.647696E-17	6.432375E-18
3.890000E+03	1.627647E-17	6.307132E-18
3.900000E+03	1.607329E-17	6.182222E-18
3.910000E+03	1.586763E-17	6.057744E-18
3.920000E+03	1.565966E-17	5.933791E-18
3.930000E+03	1.544957E-17	5.810453E-18
3.940000E+03	1.523756E-17	5.687817E-18
3.950000E+03	1.502392E-17	5.566016E-18
3.960000E+03	1.480884E-17	5.445124E-18
3.970000E+03	1.459235E-17	5.325166E-18
3.980000E+03	1.437487E-17	5.206305E-18
3.990000E+03	1.415643E-17	5.088559E-18
4.000000E+03	1.393731E-17	4.972030E-18
4.010000E+03	1.371766E-17	4.856775E-18
4.020000E+03	1.349750E-17	4.742801E-18
4.030000E+03	1.327722E-17	4.630242E-18
4.040000E+03	1.305682E-17	4.519098E-18
4.050000E+03	1.283655E-17	4.409451E-18
4.060000E+03	1.261655E-17	4.301336E-18
4.070000E+03	1.239692E-17	4.194784E-18
4.080000E+03	1.217779E-17	4.089825E-18
4.090000E+03	1.195937E-17	3.986522E-18
4.100000E+03	1.174167E-17	3.884861E-18
4.110000E+03	1.152480E-17	3.784864E-18
4.120000E+03	1.130905E-17	3.686615E-18
4.130000E+03	1.109433E-17	3.590061E-18
4.140000E+03	1.088082E-17	3.495247E-18
4.150000E+03	1.066862E-17	3.402182E-18
4.160000E+03	1.045781E-17	3.310873E-18
4.170000E+03	1.024849E-17	3.221325E-18
4.180000E+03	1.004072E-17	3.133539E-18
4.190000E+03	9.834587E-18	3.047517E-18
4.200000E+03	9.630167E-18	2.963257E-18
4.210000E+03	9.427531E-18	2.880755E-18
4.220000E+03	9.226750E-18	2.800006E-18
4.230000E+03	9.027810E-18	2.720978E-18
4.240000E+03	8.830780E-18	2.643666E-18
4.250000E+03	8.635802E-18	2.568082E-18
4.260000E+03	8.442934E-18	2.494215E-18
4.270000E+03	8.252087E-18	2.422008E-18
4.280000E+03	8.063394E-18	2.351470E-18
4.290000E+03	7.876910E-18	2.282586E-18
4.300000E+03	7.692686E-18	2.215340E-18
4.310000E+03	7.510771E-18	2.149714E-18
4.320000E+03	7.331147E-18	2.085671E-18
4.330000E+03	7.153989E-18	2.023228E-18
4.340000E+03	6.979210E-18	1.962329E-18
4.350000E+03	6.806971E-18	1.902985E-18
4.360000E+03	6.637305E-18	1.845172E-18
4.370000E+03	6.470298E-18	1.788882E-18
4.380000E+03	6.305972E-18	1.734087E-18
4.390000E+03	6.144402E-18	1.680775E-18
4.400000E+03	5.985600E-18	1.628916E-18
4.410000E+03	5.829682E-18	1.578508E-18
4.420000E+03	5.676651E-18	1.529521E-18
4.430000E+03	5.526504E-18	1.481920E-18
4.440000E+03	5.379338E-18	1.435701E-18
4.450000E+03	5.235139E-18	1.390829E-18
4.460000E+03	5.093941E-18	1.347282E-18
4.470000E+03	4.955816E-18	1.305050E-18
4.480000E+03	4.820692E-18	1.264085E-18
4.490000E+03	4.688631E-18	1.224374E-18
4.500000E+03	4.559643E-18	1.185893E-18
4.510000E+03	4.433689E-18	1.148606E-18
4.520000E+03	4.310771E-18	1.112487E-18
4.530000E+03	4.190888E-18	1.077512E-18
4.540000E+03	4.074031E-18	1.043654E-18
4.550000E+03	3.960189E-18	1.010889E-18
4.560000E+03	3.849308E-18	9.791804E-19
4.570000E+03	3.741337E-18	9.484950E-19
4.580000E+03	3.636325E-18	9.188258E-19
4.590000E+03	3.534178E-18	8.901301E-19
4.600000E+03	3.434839E-18	8.623756E-19
4.610000E+03	3.338313E-18	8.355468E-19
4.620000E+03	3.244568E-18	8.096201E-19
4.630000E+03	3.153479E-18	7.845489E-19
4.640000E+03	3.065106E-18	7.603339E-19
4.650000E+03	2.979294E-18	7.369234E-19
4.660000E+03	2.896068E-18	7.143107E-19
4.670000E+03	2.815361E-18	6.924676E-19
4.680000E+03	2.737108E-18	6.713671E-19
4.690000E+03	2.661245E-18	6.509829E-19
4.700000E+03	2.587710E-18	6.312899E-19
4.710000E+03	2.516489E-18	6.122759E-19
4.720000E+03	2.447495E-18	5.939106E-19
4.730000E+03	2.380665E-18	5.761712E-19
4.740000E+03	2.315963E-18	5.590411E-19
4.750000E+03	2.253283E-18	5.424878E-19
4.760000E+03	2.192634E-18	5.265071E-19
4.770000E+03	2.133892E-18	5.110631E-19
4.780000E+03	2.077046E-18	4.961473E-19
4.790000E+03	2.022040E-18	4.817411E-19
4.800000E+03	1.968779E-18	4.678171E-19
4.810000E+03	1.917234E-18	4.543636E-19
4.820000E+03	1.867372E-18	4.413687E-19
4.830000E+03	1.819107E-18	4.288077E-19
4.840000E+03	1.772409E-18	4.166704E-19
4.850000E+03	1.727233E-18	4.049421E-19
4.860000E+03	1.683515E-18	3.936049E-19
4.870000E+03	1.641213E-18	3.826459E-19
4.880000E+03	1.600300E-18	3.720561E-19
4.890000E+03	1.560720E-18	3.618194E-19
4.900000E+03	1.522447E-18	3.519278E-19
4.910000E+03	1.485411E-18	3.423627E-19
4.920000E+03	1.449592E-18	3.331169E-19
4.930000E+03	1.414952E-18	3.241799E-19
4.940000E+03	1.381441E-18	3.155386E-19
4.950000E+03	1.349040E-18	3.071864E-19
4.960000E+03	1.317702E-18	2.991111E-19
4.970000E+03	1.287409E-18	2.913068E-19
4.980000E+03	1.258116E-18	2.837619E-19
4.990000E+03	1.229792E-18	2.764682E-19
5.000000E+03	1.202397E-18	2.694151E-19
5.010000E+03	1.175928E-18	2.626006E-19
5.020000E+03	1.150333E-18	2.560118E-19
5.030000E+03	1.125587E-18	2.496420E-19
5.040000E+03	1.101675E-18	2.434871E-19
5.050000E+03	1.078562E-18	2.375379E-19
5.060000E+03	1.056225E-18	2.317884E-19
5.070000E+03	1.034641E-18	2.262326E-19
5.080000E+03	1.013788E-18	2.208648E-19
5.090000E+03	9.936345E-19	2.156772E-19
5.100000E+03	9.741612E-19	2.106648E-19
5.110000E+03	9.553584E-19	2.058246E-19
5.120000E+03	9.371876E-19	2.011475E-19
5.130000E+03	9.196502E-19	1.966332E-19
5.140000E+03	9.027006E-19	1.922711E-19
5.150000E+03	8.863409E-19	1.880610E-19
5.160000E+03	8.705461E-19	1.839969E-19
5.170000E+03	8.553010E-19	1.800749E-19
5.180000E+03	8.405906E-19	1.762914E-19
5.190000E+03	8.263924E-19	1.726409E-19
5.200000E+03	8.126930E-19	1.691201E-19
5.210000E+03	7.994714E-19	1.657242E-19
5.220000E+03	7.867316E-19	1.624534E-19
5.230000E+03	7.744375E-19	1.592997E-19
5.240000E+03	7.625861E-19	1.562622E-19
5.250000E+03	7.511666E-19	1.533380E-19
5.260000E+03	7.401684E-19	1.505247E-19
5.270000E+03	7.295666E-19	1.478168E-19
5.280000E+03	7.193596E-19	1.452134E-19
5.290000E+03	7.095309E-19	1.427109E-19
5.300000E+03	7.000721E-19	1.403073E-19
5.310000E+03	6.909680E-19	1.379991E-19
5.320000E+03	6.822179E-19	1.357858E-19
5.330000E+03	6.738004E-19	1.336630E-19
5.340000E+03	6.657087E-19	1.316288E-19
5.350000E+03	6.579294E-19	1.296804E-19
5.360000E+03	6.504629E-19	1.278175E-19
5.370000E+03	6.432834E-19	1.260348E-19
5.380000E+03	6.363918E-19	1.243321E-19
5.390000E+03	6.297763E-19	1.227068E-19
5.400000E+03	6.234253E-19	1.211564E-19
5.410000E+03	6.173154E-19	1.196761E-19
5.420000E+03	6.114360E-19	1.182635E-19
5.430000E+03	6.057771E-19	1.169164E-19
5.440000E+03	6.003046E-19	1.156279E-19
5.450000E+03	5.950093E-19	1.143960E-19
5.460000E+03	5.898646E-19	1.132151E-19
5.470000E+03	5.848559E-19	1.120824E-19
5.480000E+03	5.799982E-19	1.110002E-19
5.490000E+03	5.752828E-19	1.099665E-19
5.500000E+03	5.707236E-19	1.089836E-19
5.510000E+03	5.663229E-19	1.080513E-19
5.520000E+03	5.620993E-19	1.071730E-19
5.530000E+03	5.580431E-19	1.063461E-19
5.540000E+03	5.541612E-19	1.055714E-19
5.550000E+03	5.504492E-19	1.048477E-19
5.560000E+03	5.469193E-19	1.041767E-19
5.570000E+03	5.435612E-19	1.035560E-19
5.580000E+03	5.403761E-19	1.029851E-19
5.590000E+03	5.373593E-19	1.024628E-19
5.600000E+03	5.345173E-19	1.019897E-19
5.610000E+03	5.318401E-19	1.015633E-19
5.620000E+03	5.293287E-19	1.011835E-19
5.630000E+03	5.269840E-19	1.008500E-19
5.640000E+03	5.248019E-19	1.005613E-19
5.650000E+03	5.227835E-19	1.003174E-19
5.660000E+03	5.209191E-19	1.001160E-19
5.670000E+03	5.192101E-19	9.995694E-20
5.680000E+03	5.176580E-19	9.984013E-20
5.690000E+03	5.162588E-19	9.976450E-20
5.700000E+03	5.150089E-19	9.972900E-20
5.710000E+03	5.139044E-19	9.973266E-20
5.720000E+03	5.129527E-19	9.977665E-20
5.730000E+03	5.121394E-19	9.985795E-20
5.740000E+03	5.114722E-19	9.997787E-20
5.750000E+03	5.109476E-19	1.001356E-19
5.760000E+03	5.105572E-19	1.003294E-19
5.770000E+03	5.103034E-19	1.005596E-19
5.780000E+03	5.101886E-19	1.008267E-19
5.790000E+03	5.102046E-19	1.011290E-19
5.800000E+03	5.103486E-19	1.014659E-19
5.810000E+03	5.106291E-19	1.018393E-19
5.820000E+03	5.110323E-19	1.022465E-19
5.830000E+03	5.115614E-19	1.026882E-19
5.840000E+03	5.122140E-19	1.031640E-19
5.850000E+03	5.129878E-19	1.036737E-19
5.860000E+03	5.138861E-19	1.042183E-19
5.870000E+03	5.148955E-19	1.047951E-19
5.880000E+03	5.160253E-19	1.054064E-19
5.890000E+03	5.172676E-19	1.060509E-19
5.900000E+03	5.186204E-19	1.067284E-19
5.910000E+03	5.200819E-19	1.074390E-19
5.920000E+03	5.216499E-19	1.081826E-19
5.930000E+03	5.233287E-19	1.089605E-19
5.940000E+03	5.251044E-19	1.097703E-19
5.950000E+03	5.269752E-19	1.106120E-19
5.960000E+03	5.289451E-19	1.114869E-19
5.970000E+03	5.310125E-19	1.123953E-19
5.980000E+03	5.331631E-19	1.133346E-19
5.990000E+03	5.354076E-19	1.143077E-19
6.000000E+03	5.377252E-19	1.153106E-19
6.010000E+03	5.401329E-19	1.163475E-19
6.020000E+03	5.426097E-19	1.174146E-19
6.030000E+03	5.451537E-19	1.185119E-19
6.040000E+03	5.477690E-19	1.196410E-19
6.050000E+03	5.504471E-19	1.208005E-19
6.060000E+03	5.531857E-19	1.219907E-19
6.070000E+03	5.559695E-19	1.232085E-19
6.080000E+03	5.588091E-19	1.244571E-19
6.090000E+03	5.616821E-19	1.257318E-19
6.100000E+03	5.645991E-19	1.270357E-19
6.110000E+03	5.675509E-19	1.283671E-19
6.120000E+03	5.705278E-19	1.297244E-19
6.130000E+03	5.735266E-19	1.311072E-19
6.140000E+03	5.765517E-19	1.325171E-19
6.150000E+03	5.795929E-19	1.339520E-19
6.160000E+03	5.826472E-19	1.354116E-19
6.170000E+03	5.857262E-19	1.368989E-19
6.180000E+03	5.888123E-19	1.384103E-19
6.190000E+03	5.919098E-19	1.399468E-19
6.200000E+03	5.950235E-19	1.415100E-19
6.210000E+03	5.981581E-19	1.431011E-19
6.220000E+03	6.013035E-19	1.447179E-19
6.230000E+03	6.044568E-19	1.463599E-19
6.240000E+03	6.076232E-19	1.480283E-19
6.250000E+03	6.107921E-19	1.497208E-19
6.260000E+03	6.139686E-19	1.514386E-19
6.270000E+03	6.171503E-19	1.531809E-19
6.280000E+03	6.203427E-19	1.549493E-19
6.290000E+03	6.235436E-19	1.567430E-19
6.300000E+03	6.267505E-19	1.585613E-19
6.310000E+03	6.299696E-19	1.604057E-19
6.320000E+03	6.332075E-19	1.622777E-19
6.330000E+03	6.364536E-19	1.641744E-19
6.340000E+03	6.397146E-19	1.660975E-19
6.350000E+03	6.429976E-19	1.680485E-19
6.360000E+03	6.462921E-19	1.700246E-19
6.370000E+03	6.496146E-19	1.720298E-19
6.380000E+03	6.529639E-19	1.740637E-19
6.390000E+03	6.563387E-19	1.761257E-19
6.400000E+03	6.597379E-19	1.782153E-19
6.410000E+03	6.631796E-19	1.803372E-19
6.420000E+03	6.666534E-19	1.824884E-19
6.430000E+03	6.701785E-19	1.846740E-19
6.440000E+03	6.737545E-19	1.868937E-19
6.450000E+03	6.773815E-19	1.891475E-19
6.460000E+03	6.810697E-19	1.914381E-19
6.470000E+03	6.848195E-19	1.937655E-19
6.480000E+03	6.886416E-19	1.961328E-19
6.490000E+03	6.925158E-19	1.985340E-19
6.500000E+03	6.964636E-19	2.009752E-19
6.510000E+03	7.004860E-19	2.034568E-19
6.520000E+03	7.045729E-19	2.059758E-19
6.530000E+03	7.087360E-19	2.085354E-19
6.540000E+03	7.129764E-19	2.111361E-19
6.550000E+03	7.172954E-19	2.137782E-19
6.560000E+03	7.216939E-19	2.164620E-19
6.570000E+03	7.261850E-19	2.191914E-19
6.580000E+03	7.307585E-19	2.219634E-19
6.590000E+03	7.354157E-19	2.247785E-19
6.600000E+03	7.401703E-19	2.276407E-19
6.610000E+03	7.450241E-19	2.305508E-19
6.620000E+03	7.499665E-19	2.335057E-19
6.630000E+03	7.550119E-19	2.365097E-19
6.640000E+03	7.601494E-19	2.395597E-19
6.650000E+03	7.654068E-19	2.426645E-19
6.660000E+03	7.707604E-19	2.458167E-19
6.670000E+03	7.762121E-19	2.490169E-19
6.680000E+03	7.817773E-19	2.522703E-19
6.690000E+03	7.874583E-19	2.555778E-19
6.700000E+03	7.932438E-19	2.589357E-19
6.710000E+03	7.991361E-19	2.623450E-19
6.720000E+03	8.051512E-19	2.658110E-19
6.730000E+03	8.112777E-19	2.693302E-19
6.740000E+03	8.175324E-19	2.729082E-19
6.750000E+03	8.238886E-19	2.765363E-19
6.760000E+03	8.303781E-19	2.802252E-19
6.770000E+03	8.369736E-19	2.839660E-19
6.780000E+03	8.437078E-19	2.877698E-19
6.790000E+03	8.505529E-19	2.916273E-19
6.800000E+03	8.575266E-19	2.955446E-19
6.810000E+03	8.646318E-19	2.995230E-19
6.820000E+03	8.718550E-19	3.035579E-19
6.830000E+03	8.792150E-19	3.076558E-19
6.840000E+03	8.866982E-19	3.118123E-19
6.850000E+03	8.943237E-19	3.160341E-19
6.860000E+03	9.020608E-19	3.203106E-19
6.870000E+03	9.099456E-19	3.246545E-19
6.880000E+03	9.179642E-19	3.290611E-19
6.890000E+03	9.261190E-19	3.335314E-19
6.900000E+03	9.343952E-19	3.380600E-19
6.910000E+03	9.428308E-19	3.426609E-19
6.920000E+03	9.513748E-19	3.473154E-19
6.930000E+03	9.600840E-19	3.520445E-19
6.940000E+03	9.689248E-19	3.568359E-19
6.950000E+03	9.778995E-19	3.616905E-19
6.960000E+03	9.870297E-19	3.666163E-19
6.970000E+03	9.962992E-19	3.716073E-19
6.980000E+03	1.005711E-18	3.766646E-19
6.990000E+03	1.015267E-18	3.817890E-19
7.000000E+03	1.024970E-18	3.869817E-19
7.010000E+03	1.034822E-18	3.922436E-19
7.020000E+03	1.044807E-18	3.975679E-19
7.030000E+03	1.054968E-18	4.029713E-19
7.040000E+03	1.065245E-18	4.084309E-19
7.050000E+03	1.075703E-18	4.139718E-19
7.060000E+03	1.086282E-18	4.195704E-19
7.070000E+03	1.097027E-18	4.252441E-19
7.080000E+03	1.107918E-18	4.309854E-19
7.090000E+03	1.118958E-18	4.367952E-19
7.100000E+03	1.130173E-18	4.426831E-19
7.110000E+03	1.141519E-18	4.486323E-19
7.120000E+03	1.153021E-18	4.546524E-19
7.130000E+03	1.164659E-18	4.607349E-19
7.140000E+03	1.176458E-18	4.668899E-19
7.150000E+03	1.188420E-18	4.731180E-19
7.160000E+03	1.200524E-18	4.794106E-19
7.170000E+03	1.212797E-18	4.857779E-19
7.180000E+03	1.225191E-18	4.922008E-19
7.190000E+03	1.237757E-18	4.986998E-19
7.200000E+03	1.250474E-18	5.052654E-19
7.210000E+03	1.263317E-18	5.118876E-19
7.220000E+03	1.276313E-18	5.185772E-19
7.230000E+03	1.289464E-18	5.253347E-19
7.240000E+03	1.302747E-18	5.321496E-19
7.250000E+03	1.316161E-18	5.390219E-19
7.260000E+03	1.329708E-18	5.459518E-19
7.270000E+03	1.343389E-18	5.529393E-19
7.280000E+03	1.357206E-18	5.599843E-19
7.290000E+03	1.371102E-18	5.670635E-19
7.300000E+03	1.385135E-18	5.741997E-19
7.310000E+03	1.399276E-18	5.813808E-19
7.320000E+03	1.413496E-18	5.885941E-19
7.330000E+03	1.427825E-18	5.958510E-19
7.340000E+03	1.442201E-18	6.031257E-19
7.350000E+03	1.456624E-18	6.104167E-19
7.360000E+03	1.471090E-18	6.177224E-19
7.370000E+03	1.485567E-18	6.250280E-19
7.380000E+03	1.500083E-18	6.323446E-19
7.390000E+03	1.514540E-18	6.396301E-19
7.400000E+03	1.528997E-18	6.469083E-19
7.410000E+03	1.543386E-18	6.541494E-19
7.420000E+03	1.557733E-18	6.613638E-19
7.430000E+03	1.572001E-18	6.685344E-19
7.440000E+03	1.586183E-18	6.756577E-19
7.450000E+03	1.600307E-18	6.827445E-19
7.460000E+03	1.614334E-18	6.897771E-19
7.470000E+03	1.628364E-18	6.967967E-19
7.480000E+03	1.642321E-18	7.037708E-19
7.490000E+03	1.656272E-18	7.107271E-19
7.500000E+03	1.670178E-18	7.176478E-19
7.510000E+03	1.684145E-18	7.245775E-19
7.520000E+03	1.698136E-18	7.314993E-19
7.530000E+03	1.712147E-18	7.384116E-19
7.540000E+03	1.726215E-18	7.453290E-19
7.550000E+03	1.740339E-18	7.522507E-19
7.560000E+03	1.754597E-18	7.592091E-19
7.570000E+03	1.768911E-18	7.661704E-19
7.580000E+03	1.783320E-18	7.731508E-19
7.590000E+03	1.797866E-18	7.801672E-19
7.600000E+03	1.812508E-18	7.872020E-19
7.610000E+03	1.827290E-18	7.942729E-19
7.620000E+03	1.842170E-18	8.013617E-19
7.630000E+03	1.857234E-18	8.085046E-19
7.640000E+03	1.872400E-18	8.156655E-19
7.650000E+03	1.887755E-18	8.228813E-19
7.660000E+03	1.903215E-18	8.301150E-19
7.670000E+03	1.918868E-18	8.374043E-19
7.680000E+03	1.934629E-18	8.447116E-19
7.690000E+03	1.950589E-18	8.520753E-19
7.700000E+03	1.966705E-18	8.594767E-19
7.710000E+03	1.982981E-18	8.669159E-19
7.720000E+03	1.999417E-18	8.743932E-19
7.730000E+03	2.016016E-18	8.819088E-19
7.740000E+03	2.032781E-18	8.894629E-19
7.750000E+03	2.049666E-18	8.970350E-19
7.760000E+03	2.066768E-18	9.046668E-19
