#wls	flux	fluxerr
1.600000E+03	9.442443E-18	1.184999E-17
1.640000E+03	9.680926E-18	1.208006E-17
1.680000E+03	9.931372E-18	1.231973E-17
1.720000E+03	1.019374E-17	1.256850E-17
1.760000E+03	1.046883E-17	1.282690E-17
1.800000E+03	1.075825E-17	1.309636E-17
1.840000E+03	1.105987E-17	1.337379E-17
1.880000E+03	1.137600E-17	1.366141E-17
1.920000E+03	1.170613E-17	1.395802E-17
1.960000E+03	1.204972E-17	1.426234E-17
2.000000E+03	1.240527E-17	1.457200E-17
2.040000E+03	1.277215E-17	1.488563E-17
2.080000E+03	1.314802E-17	1.519991E-17
2.120000E+03	1.352895E-17	1.550976E-17
2.160000E+03	1.391362E-17	1.581320E-17
2.200000E+03	1.429760E-17	1.610475E-17
2.240000E+03	1.467746E-17	1.638029E-17
2.280000E+03	1.505159E-17	1.663777E-17
2.320000E+03	1.542000E-17	1.687702E-17
2.360000E+03	1.578497E-17	1.710033E-17
2.400000E+03	1.614942E-17	1.731055E-17
2.440000E+03	1.651608E-17	1.751020E-17
2.480000E+03	1.688963E-17	1.770370E-17
2.520000E+03	1.727234E-17	1.789274E-17
2.560000E+03	1.766770E-17	1.808011E-17
2.600000E+03	1.807695E-17	1.826612E-17
2.640000E+03	1.850188E-17	1.845153E-17
2.680000E+03	1.894290E-17	1.863563E-17
2.720000E+03	1.940042E-17	1.881761E-17
2.760000E+03	1.987486E-17	1.899663E-17
2.800000E+03	2.036603E-17	1.917123E-17
2.840000E+03	2.087387E-17	1.933998E-17
2.880000E+03	2.139950E-17	1.950254E-17
2.920000E+03	2.194295E-17	1.965746E-17
2.960000E+03	2.250707E-17	1.980573E-17
3.000000E+03	2.309300E-17	1.994664E-17
3.010000E+03	2.324380E-17	1.998129E-17
3.020000E+03	2.339582E-17	2.001521E-17
3.030000E+03	2.354904E-17	2.004836E-17
3.040000E+03	2.370450E-17	2.008158E-17
3.050000E+03	2.386165E-17	2.011439E-17
3.060000E+03	2.402048E-17	2.014672E-17
3.070000E+03	2.418149E-17	2.017898E-17
3.080000E+03	2.434414E-17	2.021066E-17
3.090000E+03	2.450842E-17	2.024173E-17
3.100000E+03	2.467533E-17	2.027298E-17
3.110000E+03	2.484384E-17	2.030351E-17
3.120000E+03	2.501443E-17	2.033369E-17
3.130000E+03	2.518659E-17	2.036305E-17
3.140000E+03	2.536180E-17	2.039277E-17
3.150000E+03	2.553854E-17	2.042157E-17
3.160000E+03	2.571730E-17	2.044980E-17
3.170000E+03	2.589856E-17	2.047781E-17
3.180000E+03	2.608230E-17	2.050553E-17
3.190000E+03	2.626752E-17	2.053213E-17
3.200000E+03	2.645567E-17	2.055871E-17
3.210000E+03	2.664576E-17	2.058446E-17
3.220000E+03	2.683827E-17	2.060968E-17
3.230000E+03	2.703270E-17	2.063397E-17
3.240000E+03	2.722952E-17	2.065764E-17
3.250000E+03	2.742871E-17	2.068062E-17
3.260000E+03	2.763027E-17	2.070286E-17
3.270000E+03	2.783370E-17	2.072396E-17
3.280000E+03	2.803948E-17	2.074422E-17
3.290000E+03	2.824760E-17	2.076358E-17
3.300000E+03	2.845757E-17	2.078166E-17
3.310000E+03	2.866986E-17	2.079875E-17
3.320000E+03	2.888401E-17	2.081446E-17
3.330000E+03	2.910047E-17	2.082908E-17
3.340000E+03	2.931878E-17	2.084224E-17
3.350000E+03	2.953894E-17	2.085390E-17
3.360000E+03	2.976096E-17	2.086401E-17
3.370000E+03	2.998482E-17	2.087255E-17
3.380000E+03	3.021055E-17	2.087947E-17
3.390000E+03	3.043769E-17	2.088443E-17
3.400000E+03	3.066671E-17	2.088771E-17
3.410000E+03	3.089672E-17	2.088868E-17
3.420000E+03	3.112861E-17	2.088790E-17
3.430000E+03	3.136152E-17	2.088476E-17
3.440000E+03	3.159547E-17	2.087925E-17
3.450000E+03	3.183048E-17	2.087135E-17
3.460000E+03	3.206612E-17	2.086077E-17
3.470000E+03	3.230286E-17	2.084778E-17
3.480000E+03	3.254027E-17	2.083208E-17
3.490000E+03	3.277797E-17	2.081342E-17
3.500000E+03	3.301598E-17	2.079178E-17
3.510000E+03	3.325390E-17	2.076692E-17
3.520000E+03	3.349218E-17	2.073911E-17
3.530000E+03	3.372961E-17	2.070758E-17
3.540000E+03	3.396663E-17	2.067262E-17
3.550000E+03	3.420286E-17	2.063401E-17
3.560000E+03	3.443836E-17	2.059177E-17
3.570000E+03	3.467233E-17	2.054545E-17
3.580000E+03	3.490440E-17	2.049487E-17
3.590000E+03	3.513505E-17	2.044032E-17
3.600000E+03	3.536309E-17	2.038114E-17
3.610000E+03	3.558899E-17	2.031764E-17
3.620000E+03	3.581240E-17	2.024967E-17
3.630000E+03	3.603256E-17	2.017684E-17
3.640000E+03	3.624914E-17	2.009902E-17
3.650000E+03	3.646220E-17	2.001632E-17
3.660000E+03	3.667101E-17	1.992841E-17
3.670000E+03	3.687603E-17	1.983560E-17
3.680000E+03	3.707614E-17	1.973738E-17
3.690000E+03	3.727141E-17	1.963388E-17
3.700000E+03	3.746152E-17	1.952502E-17
3.710000E+03	3.764655E-17	1.941095E-17
3.720000E+03	3.782577E-17	1.929139E-17
3.730000E+03	3.799926E-17	1.916650E-17
3.740000E+03	3.816672E-17	1.903624E-17
3.750000E+03	3.832820E-17	1.890077E-17
3.760000E+03	3.848340E-17	1.876006E-17
3.770000E+03	3.863239E-17	1.861427E-17
3.780000E+03	3.877484E-17	1.846338E-17
3.790000E+03	3.891044E-17	1.830738E-17
3.800000E+03	3.904003E-17	1.814681E-17
3.810000E+03	3.916253E-17	1.798131E-17
3.820000E+03	3.927837E-17	1.781122E-17
3.830000E+03	3.938799E-17	1.763690E-17
3.840000E+03	3.949069E-17	1.745817E-17
3.850000E+03	3.958653E-17	1.727523E-17
3.860000E+03	3.967593E-17	1.708840E-17
3.870000E+03	3.975894E-17	1.689788E-17
3.880000E+03	3.983560E-17	1.670381E-17
3.890000E+03	3.990557E-17	1.650624E-17
3.900000E+03	3.996927E-17	1.630548E-17
3.910000E+03	4.002672E-17	1.610172E-17
3.920000E+03	4.007797E-17	1.589512E-17
3.930000E+03	4.012302E-17	1.568586E-17
3.940000E+03	4.016191E-17	1.547411E-17
3.950000E+03	4.019501E-17	1.526019E-17
3.960000E+03	4.022234E-17	1.504426E-17
3.970000E+03	4.024355E-17	1.482636E-17
3.980000E+03	4.025937E-17	1.460692E-17
3.990000E+03	4.026944E-17	1.438600E-17
4.000000E+03	4.027412E-17	1.416388E-17
4.010000E+03	4.027340E-17	1.394073E-17
4.020000E+03	4.026691E-17	1.371660E-17
4.030000E+03	4.025536E-17	1.349191E-17
4.040000E+03	4.023838E-17	1.326671E-17
4.050000E+03	4.021629E-17	1.304128E-17
4.060000E+03	4.018908E-17	1.281581E-17
4.070000E+03	4.015671E-17	1.259046E-17
4.080000E+03	4.011916E-17	1.236542E-17
4.090000E+03	4.007674E-17	1.214096E-17
4.100000E+03	4.002906E-17	1.191717E-17
4.110000E+03	3.997607E-17	1.169422E-17
4.120000E+03	3.991844E-17	1.147252E-17
4.130000E+03	3.985541E-17	1.125203E-17
4.140000E+03	3.978728E-17	1.103307E-17
4.150000E+03	3.971399E-17	1.081582E-17
4.160000E+03	3.963548E-17	1.060048E-17
4.170000E+03	3.955169E-17	1.038726E-17
4.180000E+03	3.946256E-17	1.017635E-17
4.190000E+03	3.936801E-17	9.967975E-18
4.200000E+03	3.926797E-17	9.762343E-18
4.210000E+03	3.916238E-17	9.559670E-18
4.220000E+03	3.905115E-17	9.360175E-18
4.230000E+03	3.893388E-17	9.164001E-18
4.240000E+03	3.881047E-17	8.971374E-18
4.250000E+03	3.868119E-17	8.782601E-18
4.260000E+03	3.854596E-17	8.597907E-18
4.270000E+03	3.840401E-17	8.417367E-18
4.280000E+03	3.825561E-17	8.241284E-18
4.290000E+03	3.810067E-17	8.069882E-18
4.300000E+03	3.793911E-17	7.903376E-18
4.310000E+03	3.777084E-17	7.741978E-18
4.320000E+03	3.759545E-17	7.585820E-18
4.330000E+03	3.741352E-17	7.435228E-18
4.340000E+03	3.722431E-17	7.290243E-18
4.350000E+03	3.702839E-17	7.151154E-18
4.360000E+03	3.682568E-17	7.018093E-18
4.370000E+03	3.661644E-17	6.891224E-18
4.380000E+03	3.640054E-17	6.770603E-18
4.390000E+03	3.617821E-17	6.656269E-18
4.400000E+03	3.594926E-17	6.548089E-18
4.410000E+03	3.571413E-17	6.445939E-18
4.420000E+03	3.547256E-17	6.349507E-18
4.430000E+03	3.522432E-17	6.258450E-18
4.440000E+03	3.496980E-17	6.172517E-18
4.450000E+03	3.470877E-17	6.091331E-18
4.460000E+03	3.444133E-17	6.014567E-18
4.470000E+03	3.416790E-17	5.941950E-18
4.480000E+03	3.388795E-17	5.873039E-18
4.490000E+03	3.360192E-17	5.807564E-18
4.500000E+03	3.330995E-17	5.745205E-18
4.510000E+03	3.301187E-17	5.685597E-18
4.520000E+03	3.270784E-17	5.628442E-18
4.530000E+03	3.239801E-17	5.573455E-18
4.540000E+03	3.208259E-17	5.520364E-18
4.550000E+03	3.176174E-17	5.468914E-18
4.560000E+03	3.143537E-17	5.418818E-18
4.570000E+03	3.110341E-17	5.369804E-18
4.580000E+03	3.076668E-17	5.321775E-18
4.590000E+03	3.042482E-17	5.274447E-18
4.600000E+03	3.007780E-17	5.227607E-18
4.610000E+03	2.972619E-17	5.181161E-18
4.620000E+03	2.937024E-17	5.134980E-18
4.630000E+03	2.900941E-17	5.088807E-18
4.640000E+03	2.864485E-17	5.042697E-18
4.650000E+03	2.827575E-17	4.996376E-18
4.660000E+03	2.790300E-17	4.949879E-18
4.670000E+03	2.752665E-17	4.903108E-18
4.680000E+03	2.714680E-17	4.855977E-18
4.690000E+03	2.676353E-17	4.808414E-18
4.700000E+03	2.637697E-17	4.760355E-18
4.710000E+03	2.598781E-17	4.711838E-18
4.720000E+03	2.559599E-17	4.662764E-18
4.730000E+03	2.520186E-17	4.613078E-18
4.740000E+03	2.480613E-17	4.562769E-18
4.750000E+03	2.440883E-17	4.511690E-18
4.760000E+03	2.401125E-17	4.459929E-18
4.770000E+03	2.361322E-17	4.407316E-18
4.780000E+03	2.321574E-17	4.353915E-18
4.790000E+03	2.281933E-17	4.299709E-18
4.800000E+03	2.242403E-17	4.244608E-18
4.810000E+03	2.203056E-17	4.188662E-18
4.820000E+03	2.163958E-17	4.131930E-18
4.830000E+03	2.125111E-17	4.074353E-18
4.840000E+03	2.086578E-17	4.016005E-18
4.850000E+03	2.048400E-17	3.956928E-18
4.860000E+03	2.010592E-17	3.897128E-18
4.870000E+03	1.973191E-17	3.836659E-18
4.880000E+03	1.936252E-17	3.775620E-18
4.890000E+03	1.899785E-17	3.714034E-18
4.900000E+03	1.863840E-17	3.652005E-18
4.910000E+03	1.828406E-17	3.589528E-18
4.920000E+03	1.793529E-17	3.526712E-18
4.930000E+03	1.759231E-17	3.463630E-18
4.940000E+03	1.725517E-17	3.400322E-18
4.950000E+03	1.692425E-17	3.336898E-18
4.960000E+03	1.659956E-17	3.273397E-18
4.970000E+03	1.628143E-17	3.209929E-18
4.980000E+03	1.596985E-17	3.146533E-18
4.990000E+03	1.566495E-17	3.083281E-18
5.000000E+03	1.536669E-17	3.020214E-18
5.010000E+03	1.507550E-17	2.957461E-18
5.020000E+03	1.479115E-17	2.895028E-18
5.030000E+03	1.451372E-17	2.832981E-18
5.040000E+03	1.424343E-17	2.771410E-18
5.050000E+03	1.398019E-17	2.710346E-18
5.060000E+03	1.372405E-17	2.649845E-18
5.070000E+03	1.347503E-17	2.589961E-18
5.080000E+03	1.323316E-17	2.530745E-18
5.090000E+03	1.299833E-17	2.472219E-18
5.100000E+03	1.277055E-17	2.414428E-18
5.110000E+03	1.254995E-17	2.357442E-18
5.120000E+03	1.233627E-17	2.301250E-18
5.130000E+03	1.212975E-17	2.245939E-18
5.140000E+03	1.193001E-17	2.191475E-18
5.150000E+03	1.173728E-17	2.137936E-18
5.160000E+03	1.155141E-17	2.085332E-18
5.170000E+03	1.137239E-17	2.033693E-18
5.180000E+03	1.120018E-17	1.983047E-18
5.190000E+03	1.103464E-17	1.933399E-18
5.200000E+03	1.087575E-17	1.884776E-18
5.210000E+03	1.072337E-17	1.837186E-18
5.220000E+03	1.057768E-17	1.790690E-18
5.230000E+03	1.043834E-17	1.745258E-18
5.240000E+03	1.030542E-17	1.700935E-18
5.250000E+03	1.017889E-17	1.657746E-18
5.260000E+03	1.005873E-17	1.615718E-18
5.270000E+03	9.944716E-18	1.574848E-18
5.280000E+03	9.836924E-18	1.535183E-18
5.290000E+03	9.735237E-18	1.496742E-18
5.300000E+03	9.639642E-18	1.459563E-18
5.310000E+03	9.550031E-18	1.423672E-18
5.320000E+03	9.466494E-18	1.389130E-18
5.330000E+03	9.388836E-18	1.355957E-18
5.340000E+03	9.317059E-18	1.324212E-18
5.350000E+03	9.251077E-18	1.293943E-18
5.360000E+03	9.190996E-18	1.265233E-18
5.370000E+03	9.136555E-18	1.238120E-18
5.380000E+03	9.087870E-18	1.212701E-18
5.390000E+03	9.044877E-18	1.189054E-18
5.400000E+03	9.007522E-18	1.167269E-18
5.410000E+03	8.975573E-18	1.147415E-18
5.420000E+03	8.948989E-18	1.129598E-18
5.430000E+03	8.927735E-18	1.113927E-18
5.440000E+03	8.911423E-18	1.100471E-18
5.450000E+03	8.900028E-18	1.089348E-18
5.460000E+03	8.893260E-18	1.080644E-18
5.470000E+03	8.891011E-18	1.074460E-18
5.480000E+03	8.893613E-18	1.070942E-18
5.490000E+03	8.901032E-18	1.070162E-18
5.500000E+03	8.913563E-18	1.072188E-18
5.510000E+03	8.931291E-18	1.077004E-18
5.520000E+03	8.954555E-18	1.084583E-18
5.530000E+03	8.983232E-18	1.094821E-18
5.540000E+03	9.017476E-18	1.107636E-18
5.550000E+03	9.057263E-18	1.122921E-18
5.560000E+03	9.102850E-18	1.140601E-18
5.570000E+03	9.154132E-18	1.160558E-18
5.580000E+03	9.211197E-18	1.182701E-18
5.590000E+03	9.274041E-18	1.206932E-18
5.600000E+03	9.342859E-18	1.233182E-18
5.610000E+03	9.417565E-18	1.261354E-18
5.620000E+03	9.498271E-18	1.291381E-18
5.630000E+03	9.585094E-18	1.323205E-18
5.640000E+03	9.678061E-18	1.356762E-18
5.650000E+03	9.777301E-18	1.392007E-18
5.660000E+03	9.882748E-18	1.428876E-18
5.670000E+03	9.994542E-18	1.467338E-18
5.680000E+03	1.011283E-17	1.507370E-18
5.690000E+03	1.023765E-17	1.548939E-18
5.700000E+03	1.036907E-17	1.592016E-18
5.710000E+03	1.050712E-17	1.636578E-18
5.720000E+03	1.065209E-17	1.682640E-18
5.730000E+03	1.080381E-17	1.730150E-18
5.740000E+03	1.096257E-17	1.779132E-18
5.750000E+03	1.112842E-17	1.829579E-18
5.760000E+03	1.130132E-17	1.881462E-18
5.770000E+03	1.148143E-17	1.934798E-18
5.780000E+03	1.166894E-17	1.989604E-18
5.790000E+03	1.186380E-17	2.045859E-18
5.800000E+03	1.206605E-17	2.103562E-18
5.810000E+03	1.227602E-17	2.162763E-18
5.820000E+03	1.249349E-17	2.223418E-18
5.830000E+03	1.271864E-17	2.285555E-18
5.840000E+03	1.295151E-17	2.349179E-18
5.850000E+03	1.319216E-17	2.414296E-18
5.860000E+03	1.344074E-17	2.480940E-18
5.870000E+03	1.369700E-17	2.549064E-18
5.880000E+03	1.396124E-17	2.618732E-18
5.890000E+03	1.423331E-17	2.689925E-18
5.900000E+03	1.451322E-17	2.762651E-18
5.910000E+03	1.480094E-17	2.836920E-18
5.920000E+03	1.509644E-17	2.912744E-18
5.930000E+03	1.539984E-17	2.990167E-18
5.940000E+03	1.571074E-17	3.069137E-18
5.950000E+03	1.602904E-17	3.149663E-18
5.960000E+03	1.635482E-17	3.231795E-18
5.970000E+03	1.668798E-17	3.315550E-18
5.980000E+03	1.702797E-17	3.400868E-18
5.990000E+03	1.737502E-17	3.487843E-18
6.000000E+03	1.772834E-17	3.576374E-18
6.010000E+03	1.808832E-17	3.666602E-18
6.020000E+03	1.845408E-17	3.758421E-18
6.030000E+03	1.882532E-17	3.851848E-18
6.040000E+03	1.920196E-17	3.946950E-18
6.050000E+03	1.958342E-17	4.043703E-18
6.060000E+03	1.996933E-17	4.142129E-18
6.070000E+03	2.035880E-17	4.242150E-18
6.080000E+03	2.075184E-17	4.343888E-18
6.090000E+03	2.114723E-17	4.447205E-18
6.100000E+03	2.154493E-17	4.552225E-18
6.110000E+03	2.194413E-17	4.658910E-18
6.120000E+03	2.234396E-17	4.767218E-18
6.130000E+03	2.274377E-17	4.877155E-18
6.140000E+03	2.314317E-17	4.988786E-18
6.150000E+03	2.354117E-17	5.102053E-18
6.160000E+03	2.393704E-17	5.216947E-18
6.170000E+03	2.433063E-17	5.333588E-18
6.180000E+03	2.472058E-17	5.451823E-18
6.190000E+03	2.510648E-17	5.571675E-18
6.200000E+03	2.548799E-17	5.693148E-18
6.210000E+03	2.586489E-17	5.816224E-18
6.220000E+03	2.623638E-17	5.940710E-18
6.230000E+03	2.660200E-17	6.066470E-18
6.240000E+03	2.696166E-17	6.193432E-18
6.250000E+03	2.731458E-17	6.321353E-18
6.260000E+03	2.766067E-17	6.450140E-18
6.270000E+03	2.799955E-17	6.579611E-18
6.280000E+03	2.833118E-17	6.709663E-18
6.290000E+03	2.865518E-17	6.840101E-18
6.300000E+03	2.897118E-17	6.970721E-18
6.310000E+03	2.927923E-17	7.101408E-18
6.320000E+03	2.957940E-17	7.232051E-18
6.330000E+03	2.987097E-17	7.362337E-18
6.340000E+03	3.015405E-17	7.492148E-18
6.350000E+03	3.042879E-17	7.621373E-18
6.360000E+03	3.069450E-17	7.749688E-18
6.370000E+03	3.095181E-17	7.877091E-18
6.380000E+03	3.120049E-17	8.003371E-18
6.390000E+03	3.144037E-17	8.128316E-18
6.400000E+03	3.167125E-17	8.251716E-18
6.410000E+03	3.189388E-17	8.373602E-18
6.420000E+03	3.210769E-17	8.493656E-18
6.430000E+03	3.231350E-17	8.611933E-18
6.440000E+03	3.251122E-17	8.728250E-18
6.450000E+03	3.270079E-17	8.842431E-18
6.460000E+03	3.288265E-17	8.954434E-18
6.470000E+03	3.305678E-17	9.064098E-18
6.480000E+03	3.322366E-17	9.171404E-18
6.490000E+03	3.338229E-17	9.275922E-18
6.500000E+03	3.353368E-17	9.377785E-18
6.510000E+03	3.367789E-17	9.476860E-18
6.520000E+03	3.381440E-17	9.572867E-18
6.530000E+03	3.394381E-17	9.665828E-18
6.540000E+03	3.406617E-17	9.755627E-18
6.550000E+03	3.418156E-17	9.842151E-18
6.560000E+03	3.429004E-17	9.925297E-18
6.570000E+03	3.439227E-17	1.000513E-17
6.580000E+03	3.448779E-17	1.008140E-17
6.590000E+03	3.457671E-17	1.015402E-17
6.600000E+03	3.465971E-17	1.022309E-17
6.610000E+03	3.473691E-17	1.028853E-17
6.620000E+03	3.480787E-17	1.035013E-17
6.630000E+03	3.487330E-17	1.040798E-17
6.640000E+03	3.493276E-17	1.046188E-17
6.650000E+03	3.498758E-17	1.051214E-17
6.660000E+03	3.503672E-17	1.055836E-17
6.670000E+03	3.508034E-17	1.060051E-17
6.680000E+03	3.511918E-17	1.063875E-17
6.690000E+03	3.515342E-17	1.067307E-17
6.700000E+03	3.518262E-17	1.070326E-17
6.710000E+03	3.520692E-17	1.072932E-17
6.720000E+03	3.522712E-17	1.075144E-17
6.730000E+03	3.524276E-17	1.076942E-17
6.740000E+03	3.525464E-17	1.078347E-17
6.750000E+03	3.526168E-17	1.079322E-17
6.760000E+03	3.526531E-17	1.079907E-17
6.770000E+03	3.526444E-17	1.080065E-17
6.780000E+03	3.526050E-17	1.079838E-17
6.790000E+03	3.525240E-17	1.079190E-17
6.800000E+03	3.524094E-17	1.078143E-17
6.810000E+03	3.522631E-17	1.076702E-17
6.820000E+03	3.520802E-17	1.074850E-17
6.830000E+03	3.518690E-17	1.072613E-17
6.840000E+03	3.516246E-17	1.069975E-17
6.850000E+03	3.513553E-17	1.066961E-17
6.860000E+03	3.510496E-17	1.063536E-17
6.870000E+03	3.507224E-17	1.059747E-17
6.880000E+03	3.503687E-17	1.055580E-17
6.890000E+03	3.499903E-17	1.051040E-17
6.900000E+03	3.495820E-17	1.046115E-17
6.910000E+03	3.491588E-17	1.040852E-17
6.920000E+03	3.487023E-17	1.035197E-17
6.930000E+03	3.482341E-17	1.029219E-17
6.940000E+03	3.477425E-17	1.022884E-17
6.950000E+03	3.472289E-17	1.016201E-17
6.960000E+03	3.467016E-17	1.009199E-17
6.970000E+03	3.461554E-17	1.001864E-17
6.980000E+03	3.455919E-17	9.942075E-18
6.990000E+03	3.450124E-17	9.862369E-18
7.000000E+03	3.444185E-17	9.779616E-18
7.010000E+03	3.438115E-17	9.693910E-18
7.020000E+03	3.431862E-17	9.605157E-18
7.030000E+03	3.425574E-17	9.513835E-18
7.040000E+03	3.419063E-17	9.419480E-18
7.050000E+03	3.412544E-17	9.322757E-18
7.060000E+03	3.405829E-17	9.223216E-18
7.070000E+03	3.399066E-17	9.121336E-18
7.080000E+03	3.392200E-17	9.017046E-18
7.090000E+03	3.385244E-17	8.910462E-18
7.100000E+03	3.378277E-17	8.801881E-18
7.110000E+03	3.371178E-17	8.691069E-18
7.120000E+03	3.364025E-17	8.578332E-18
7.130000E+03	3.356764E-17	8.463628E-18
7.140000E+03	3.349472E-17	8.347264E-18
7.150000E+03	3.342163E-17	8.229378E-18
7.160000E+03	3.334779E-17	8.109948E-18
7.170000E+03	3.327400E-17	7.989289E-18
7.180000E+03	3.319900E-17	7.867233E-18
7.190000E+03	3.312426E-17	7.744266E-18
7.200000E+03	3.304921E-17	7.620398E-18
7.210000E+03	3.297327E-17	7.495652E-18
7.220000E+03	3.289723E-17	7.370373E-18
7.230000E+03	3.282117E-17	7.244754E-18
7.240000E+03	3.274453E-17	7.118853E-18
7.250000E+03	3.266739E-17	6.992889E-18
7.260000E+03	3.258986E-17	6.867093E-18
7.270000E+03	3.251203E-17	6.741707E-18
7.280000E+03	3.243397E-17	6.616986E-18
7.290000E+03	3.235445E-17	6.492928E-18
7.300000E+03	3.227488E-17	6.370094E-18
7.310000E+03	3.219469E-17	6.248650E-18
7.320000E+03	3.211328E-17	6.128788E-18
7.330000E+03	3.203142E-17	6.010974E-18
7.340000E+03	3.194783E-17	5.895315E-18
7.350000E+03	3.186260E-17	5.782191E-18
7.360000E+03	3.177581E-17	5.671998E-18
7.370000E+03	3.168687E-17	5.565033E-18
7.380000E+03	3.159653E-17	5.461841E-18
7.390000E+03	3.150285E-17	5.362523E-18
7.400000E+03	3.140724E-17	5.267765E-18
7.410000E+03	3.130845E-17	5.177807E-18
7.420000E+03	3.120721E-17	5.093227E-18
7.430000E+03	3.110293E-17	5.014381E-18
7.440000E+03	3.099566E-17	4.941724E-18
7.450000E+03	3.088615E-17	4.875798E-18
7.460000E+03	3.077378E-17	4.816911E-18
7.470000E+03	3.066059E-17	4.765747E-18
7.480000E+03	3.054533E-17	4.722432E-18
7.490000E+03	3.042935E-17	4.687446E-18
7.500000E+03	3.031205E-17	4.660887E-18
7.510000E+03	3.019545E-17	4.643147E-18
7.520000E+03	3.007892E-17	4.634057E-18
7.530000E+03	2.996251E-17	4.633390E-18
7.540000E+03	2.984692E-17	4.640907E-18
7.550000E+03	2.973216E-17	4.656200E-18
7.560000E+03	2.961960E-17	4.679022E-18
7.570000E+03	2.950793E-17	4.708692E-18
7.580000E+03	2.939786E-17	4.744816E-18
7.590000E+03	2.929004E-17	4.787001E-18
7.600000E+03	2.918386E-17	4.834638E-18
7.610000E+03	2.907998E-17	4.887343E-18
7.620000E+03	2.897778E-17	4.944525E-18
7.630000E+03	2.887856E-17	5.005942E-18
7.640000E+03	2.878105E-17	5.070926E-18
7.650000E+03	2.868657E-17	5.139283E-18
7.660000E+03	2.859381E-17	5.210385E-18
7.670000E+03	2.850410E-17	5.284092E-18
7.680000E+03	2.841614E-17	5.359815E-18
7.690000E+03	2.833125E-17	5.437473E-18
7.700000E+03	2.824877E-17	5.516643E-18
7.710000E+03	2.816873E-17	5.597045E-18
7.720000E+03	2.809112E-17	5.678424E-18
7.730000E+03	2.801596E-17	5.760541E-18
7.740000E+03	2.794324E-17	5.843178E-18
7.750000E+03	2.787232E-17	5.926000E-18
7.760000E+03	2.780451E-17	6.009094E-18
