#wls	flux	fluxerr
1.600000E+03	7.239347E-18	9.201498E-18
1.640000E+03	7.411060E-18	9.368976E-18
1.680000E+03	7.592008E-18	9.544271E-18
1.720000E+03	7.782179E-18	9.727031E-18
1.760000E+03	7.982201E-18	9.917688E-18
1.800000E+03	8.193312E-18	1.011739E-17
1.840000E+03	8.413921E-18	1.032376E-17
1.880000E+03	8.645805E-18	1.053855E-17
1.920000E+03	8.888611E-18	1.076088E-17
1.960000E+03	9.141936E-18	1.098976E-17
2.000000E+03	9.404687E-18	1.122341E-17
2.040000E+03	9.676409E-18	1.146081E-17
2.080000E+03	9.955354E-18	1.169939E-17
2.120000E+03	1.023858E-17	1.193529E-17
2.160000E+03	1.052513E-17	1.216697E-17
2.200000E+03	1.081164E-17	1.239022E-17
2.240000E+03	1.109557E-17	1.260184E-17
2.280000E+03	1.137567E-17	1.280021E-17
2.320000E+03	1.165196E-17	1.298518E-17
2.360000E+03	1.192615E-17	1.315842E-17
2.400000E+03	1.220038E-17	1.332204E-17
2.440000E+03	1.247669E-17	1.347789E-17
2.480000E+03	1.275852E-17	1.362926E-17
2.520000E+03	1.304753E-17	1.377734E-17
2.560000E+03	1.334624E-17	1.392411E-17
2.600000E+03	1.365546E-17	1.406968E-17
2.640000E+03	1.397643E-17	1.421448E-17
2.680000E+03	1.430930E-17	1.435777E-17
2.720000E+03	1.465421E-17	1.449874E-17
2.760000E+03	1.501127E-17	1.463655E-17
2.800000E+03	1.538014E-17	1.476984E-17
2.840000E+03	1.576051E-17	1.489730E-17
2.880000E+03	1.615297E-17	1.501843E-17
2.920000E+03	1.655726E-17	1.513187E-17
2.960000E+03	1.697521E-17	1.523815E-17
3.000000E+03	1.740732E-17	1.533646E-17
3.010000E+03	1.751821E-17	1.536021E-17
3.020000E+03	1.762984E-17	1.538323E-17
3.030000E+03	1.774220E-17	1.540549E-17
3.040000E+03	1.785607E-17	1.542764E-17
3.050000E+03	1.797102E-17	1.544929E-17
3.060000E+03	1.808704E-17	1.547041E-17
3.070000E+03	1.820450E-17	1.549128E-17
3.080000E+03	1.832299E-17	1.551152E-17
3.090000E+03	1.844249E-17	1.553110E-17
3.100000E+03	1.856374E-17	1.555062E-17
3.110000E+03	1.868597E-17	1.556940E-17
3.120000E+03	1.880953E-17	1.558770E-17
3.130000E+03	1.893402E-17	1.560517E-17
3.140000E+03	1.906056E-17	1.562271E-17
3.150000E+03	1.918799E-17	1.563933E-17
3.160000E+03	1.931667E-17	1.565529E-17
3.170000E+03	1.944696E-17	1.567087E-17
3.180000E+03	1.957883E-17	1.568599E-17
3.190000E+03	1.971152E-17	1.570004E-17
3.200000E+03	1.984612E-17	1.571384E-17
3.210000E+03	1.998188E-17	1.572677E-17
3.220000E+03	2.011913E-17	1.573906E-17
3.230000E+03	2.025750E-17	1.575040E-17
3.240000E+03	2.039734E-17	1.576102E-17
3.250000E+03	2.053862E-17	1.577086E-17
3.260000E+03	2.068132E-17	1.577990E-17
3.270000E+03	2.082509E-17	1.578781E-17
3.280000E+03	2.097024E-17	1.579483E-17
3.290000E+03	2.111677E-17	1.580090E-17
3.300000E+03	2.126432E-17	1.580574E-17
3.310000E+03	2.141322E-17	1.580957E-17
3.320000E+03	2.156311E-17	1.581208E-17
3.330000E+03	2.171433E-17	1.581350E-17
3.340000E+03	2.186652E-17	1.581354E-17
3.350000E+03	2.201967E-17	1.581217E-17
3.360000E+03	2.217378E-17	1.580936E-17
3.370000E+03	2.232884E-17	1.580509E-17
3.380000E+03	2.248485E-17	1.579932E-17
3.390000E+03	2.264146E-17	1.579179E-17
3.400000E+03	2.279901E-17	1.578272E-17
3.410000E+03	2.295684E-17	1.577163E-17
3.420000E+03	2.311560E-17	1.575895E-17
3.430000E+03	2.327464E-17	1.574422E-17
3.440000E+03	2.343397E-17	1.572743E-17
3.450000E+03	2.359359E-17	1.570857E-17
3.460000E+03	2.375319E-17	1.568742E-17
3.470000E+03	2.391311E-17	1.566420E-17
3.480000E+03	2.407302E-17	1.563868E-17
3.490000E+03	2.423263E-17	1.561067E-17
3.500000E+03	2.439196E-17	1.558017E-17
3.510000E+03	2.455070E-17	1.554701E-17
3.520000E+03	2.470919E-17	1.551138E-17
3.530000E+03	2.486652E-17	1.547273E-17
3.540000E+03	2.502303E-17	1.543128E-17
3.550000E+03	2.517843E-17	1.538687E-17
3.560000E+03	2.533276E-17	1.533952E-17
3.570000E+03	2.548544E-17	1.528892E-17
3.580000E+03	2.563619E-17	1.523492E-17
3.590000E+03	2.578537E-17	1.517777E-17
3.600000E+03	2.593211E-17	1.511698E-17
3.610000E+03	2.607676E-17	1.505281E-17
3.620000E+03	2.621907E-17	1.498513E-17
3.630000E+03	2.635848E-17	1.491370E-17
3.640000E+03	2.649476E-17	1.483842E-17
3.650000E+03	2.662798E-17	1.475938E-17
3.660000E+03	2.675759E-17	1.467637E-17
3.670000E+03	2.688396E-17	1.458963E-17
3.680000E+03	2.700627E-17	1.449880E-17
3.690000E+03	2.712459E-17	1.440400E-17
3.700000E+03	2.723871E-17	1.430518E-17
3.710000E+03	2.734869E-17	1.420248E-17
3.720000E+03	2.745404E-17	1.409571E-17
3.730000E+03	2.755482E-17	1.398501E-17
3.740000E+03	2.765083E-17	1.387038E-17
3.750000E+03	2.774214E-17	1.375195E-17
3.760000E+03	2.782854E-17	1.362972E-17
3.770000E+03	2.791011E-17	1.350383E-17
3.780000E+03	2.798666E-17	1.337429E-17
3.790000E+03	2.805796E-17	1.324113E-17
3.800000E+03	2.812466E-17	1.310474E-17
3.810000E+03	2.818599E-17	1.296490E-17
3.820000E+03	2.824232E-17	1.282188E-17
3.830000E+03	2.829397E-17	1.267595E-17
3.840000E+03	2.834049E-17	1.252702E-17
3.850000E+03	2.838193E-17	1.237524E-17
3.860000E+03	2.841864E-17	1.222088E-17
3.870000E+03	2.845068E-17	1.206410E-17
3.880000E+03	2.847812E-17	1.190504E-17
3.890000E+03	2.850075E-17	1.174373E-17
3.900000E+03	2.851890E-17	1.158043E-17
3.910000E+03	2.853262E-17	1.141530E-17
3.920000E+03	2.854198E-17	1.124848E-17
3.930000E+03	2.854704E-17	1.108011E-17
3.940000E+03	2.854784E-17	1.091035E-17
3.950000E+03	2.854469E-17	1.073943E-17
3.960000E+03	2.853765E-17	1.056749E-17
3.970000E+03	2.852649E-17	1.039459E-17
3.980000E+03	2.851180E-17	1.022106E-17
3.990000E+03	2.849333E-17	1.004694E-17
4.000000E+03	2.847140E-17	9.872463E-18
4.010000E+03	2.844604E-17	9.697770E-18
4.020000E+03	2.841703E-17	9.522916E-18
4.030000E+03	2.838492E-17	9.348212E-18
4.040000E+03	2.834947E-17	9.173714E-18
4.050000E+03	2.831097E-17	8.999646E-18
4.060000E+03	2.826944E-17	8.826147E-18
4.070000E+03	2.822492E-17	8.653359E-18
4.080000E+03	2.817741E-17	8.481424E-18
4.090000E+03	2.812718E-17	8.310560E-18
4.100000E+03	2.807401E-17	8.140838E-18
4.110000E+03	2.801791E-17	7.972405E-18
4.120000E+03	2.795937E-17	7.805548E-18
4.130000E+03	2.789792E-17	7.640275E-18
4.140000E+03	2.783380E-17	7.476805E-18
4.150000E+03	2.776701E-17	7.315289E-18
4.160000E+03	2.769756E-17	7.155877E-18
4.170000E+03	2.762544E-17	6.998723E-18
4.180000E+03	2.755063E-17	6.843981E-18
4.190000E+03	2.747313E-17	6.691804E-18
4.200000E+03	2.739291E-17	6.542347E-18
4.210000E+03	2.730996E-17	6.395764E-18
4.220000E+03	2.722424E-17	6.252207E-18
4.230000E+03	2.713549E-17	6.111774E-18
4.240000E+03	2.704368E-17	5.974616E-18
4.250000E+03	2.694900E-17	5.840931E-18
4.260000E+03	2.685139E-17	5.710858E-18
4.270000E+03	2.675035E-17	5.584432E-18
4.280000E+03	2.664603E-17	5.461829E-18
4.290000E+03	2.653838E-17	5.343168E-18
4.300000E+03	2.642731E-17	5.228555E-18
4.310000E+03	2.631276E-17	5.118084E-18
4.320000E+03	2.619439E-17	5.011787E-18
4.330000E+03	2.607257E-17	4.909816E-18
4.340000E+03	2.594674E-17	4.812126E-18
4.350000E+03	2.581725E-17	4.718827E-18
4.360000E+03	2.568396E-17	4.629919E-18
4.370000E+03	2.554697E-17	4.545420E-18
4.380000E+03	2.540616E-17	4.465283E-18
4.390000E+03	2.526159E-17	4.389477E-18
4.400000E+03	2.511311E-17	4.317907E-18
4.410000E+03	2.496102E-17	4.250534E-18
4.420000E+03	2.480514E-17	4.187213E-18
4.430000E+03	2.464530E-17	4.127785E-18
4.440000E+03	2.448178E-17	4.072141E-18
4.450000E+03	2.431439E-17	4.020083E-18
4.460000E+03	2.414318E-17	3.971434E-18
4.470000E+03	2.396842E-17	3.926039E-18
4.480000E+03	2.378969E-17	3.883627E-18
4.490000E+03	2.360727E-17	3.844026E-18
4.500000E+03	2.342119E-17	3.807025E-18
4.510000E+03	2.323130E-17	3.772375E-18
4.520000E+03	2.303764E-17	3.739864E-18
4.530000E+03	2.284028E-17	3.709283E-18
4.540000E+03	2.263929E-17	3.680426E-18
4.550000E+03	2.243474E-17	3.653095E-18
4.560000E+03	2.222652E-17	3.627066E-18
4.570000E+03	2.201452E-17	3.602125E-18
4.580000E+03	2.179927E-17	3.578168E-18
4.590000E+03	2.158048E-17	3.554969E-18
4.600000E+03	2.135810E-17	3.532345E-18
4.610000E+03	2.113248E-17	3.510193E-18
4.620000E+03	2.090381E-17	3.488389E-18
4.630000E+03	2.067166E-17	3.466718E-18
4.640000E+03	2.043685E-17	3.445178E-18
4.650000E+03	2.019882E-17	3.423544E-18
4.660000E+03	1.995821E-17	3.401803E-18
4.670000E+03	1.971508E-17	3.379851E-18
4.680000E+03	1.946953E-17	3.357595E-18
4.690000E+03	1.922166E-17	3.334949E-18
4.700000E+03	1.897162E-17	3.311840E-18
4.710000E+03	1.871991E-17	3.288265E-18
4.720000E+03	1.846653E-17	3.264134E-18
4.730000E+03	1.821166E-17	3.239396E-18
4.740000E+03	1.795569E-17	3.214041E-18
4.750000E+03	1.769846E-17	3.187970E-18
4.760000E+03	1.744074E-17	3.161248E-18
4.770000E+03	1.718226E-17	3.133760E-18
4.780000E+03	1.692360E-17	3.105553E-18
4.790000E+03	1.666502E-17	3.076618E-18
4.800000E+03	1.640645E-17	3.046891E-18
4.810000E+03	1.614833E-17	3.016406E-18
4.820000E+03	1.589110E-17	2.985202E-18
4.830000E+03	1.563469E-17	2.953234E-18
4.840000E+03	1.537955E-17	2.920549E-18
4.850000E+03	1.512593E-17	2.887174E-18
4.860000E+03	1.487395E-17	2.853106E-18
4.870000E+03	1.462386E-17	2.818379E-18
4.880000E+03	1.437606E-17	2.783058E-18
4.890000E+03	1.413065E-17	2.747155E-18
4.900000E+03	1.388799E-17	2.710739E-18
4.910000E+03	1.364803E-17	2.673802E-18
4.920000E+03	1.341112E-17	2.636419E-18
4.930000E+03	1.317747E-17	2.598639E-18
4.940000E+03	1.294711E-17	2.560487E-18
4.950000E+03	1.272038E-17	2.522042E-18
4.960000E+03	1.249731E-17	2.483332E-18
4.970000E+03	1.227818E-17	2.444437E-18
4.980000E+03	1.206301E-17	2.405384E-18
4.990000E+03	1.185193E-17	2.366229E-18
5.000000E+03	1.164496E-17	2.327001E-18
5.010000E+03	1.144243E-17	2.287802E-18
5.020000E+03	1.124423E-17	2.248638E-18
5.030000E+03	1.105044E-17	2.209561E-18
5.040000E+03	1.086127E-17	2.170646E-18
5.050000E+03	1.067668E-17	2.131918E-18
5.060000E+03	1.049674E-17	2.093428E-18
5.070000E+03	1.032150E-17	2.055223E-18
5.080000E+03	1.015102E-17	2.017348E-18
5.090000E+03	9.985237E-18	1.979827E-18
5.100000E+03	9.824197E-18	1.942705E-18
5.110000E+03	9.668034E-18	1.906042E-18
5.120000E+03	9.516575E-18	1.869839E-18
5.130000E+03	9.370042E-18	1.834175E-18
5.140000E+03	9.228163E-18	1.799029E-18
5.150000E+03	9.091147E-18	1.764476E-18
5.160000E+03	8.958912E-18	1.730533E-18
5.170000E+03	8.831467E-18	1.697232E-18
5.180000E+03	8.708819E-18	1.664608E-18
5.190000E+03	8.590883E-18	1.632674E-18
5.200000E+03	8.477664E-18	1.601463E-18
5.210000E+03	8.369078E-18	1.570989E-18
5.220000E+03	8.265300E-18	1.541315E-18
5.230000E+03	8.166075E-18	1.512421E-18
5.240000E+03	8.071491E-18	1.484356E-18
5.250000E+03	7.981548E-18	1.457146E-18
5.260000E+03	7.896247E-18	1.430822E-18
5.270000E+03	7.815430E-18	1.405384E-18
5.280000E+03	7.739182E-18	1.380877E-18
5.290000E+03	7.667429E-18	1.357317E-18
5.300000E+03	7.600177E-18	1.334735E-18
5.310000E+03	7.537358E-18	1.313149E-18
5.320000E+03	7.479059E-18	1.292604E-18
5.330000E+03	7.425139E-18	1.273107E-18
5.340000E+03	7.375614E-18	1.254691E-18
5.350000E+03	7.330425E-18	1.237379E-18
5.360000E+03	7.289665E-18	1.221217E-18
5.370000E+03	7.253134E-18	1.206204E-18
5.380000E+03	7.220928E-18	1.192387E-18
5.390000E+03	7.192999E-18	1.179790E-18
5.400000E+03	7.169301E-18	1.168435E-18
5.410000E+03	7.149645E-18	1.158323E-18
5.420000E+03	7.133992E-18	1.149477E-18
5.430000E+03	7.122300E-18	1.141917E-18
5.440000E+03	7.114242E-18	1.135617E-18
5.450000E+03	7.109778E-18	1.130594E-18
5.460000E+03	7.108651E-18	1.126829E-18
5.470000E+03	7.110743E-18	1.124320E-18
5.480000E+03	7.116291E-18	1.123119E-18
5.490000E+03	7.125241E-18	1.123226E-18
5.500000E+03	7.137822E-18	1.124684E-18
5.510000E+03	7.154120E-18	1.127506E-18
5.520000E+03	7.174435E-18	1.131737E-18
5.530000E+03	7.198706E-18	1.137360E-18
5.540000E+03	7.227089E-18	1.144389E-18
5.550000E+03	7.259594E-18	1.152810E-18
5.560000E+03	7.296453E-18	1.162645E-18
5.570000E+03	7.337605E-18	1.173863E-18
5.580000E+03	7.383135E-18	1.186455E-18
5.590000E+03	7.433057E-18	1.200401E-18
5.600000E+03	7.487537E-18	1.215701E-18
5.610000E+03	7.546513E-18	1.232318E-18
5.620000E+03	7.610080E-18	1.250240E-18
5.630000E+03	7.678333E-18	1.269456E-18
5.640000E+03	7.751293E-18	1.289940E-18
5.650000E+03	7.829063E-18	1.311681E-18
5.660000E+03	7.911584E-18	1.334642E-18
5.670000E+03	7.998961E-18	1.358813E-18
5.680000E+03	8.091304E-18	1.384184E-18
5.690000E+03	8.188641E-18	1.410735E-18
5.700000E+03	8.291001E-18	1.438444E-18
5.710000E+03	8.398411E-18	1.467292E-18
5.720000E+03	8.511081E-18	1.497291E-18
5.730000E+03	8.628862E-18	1.528392E-18
5.740000E+03	8.751967E-18	1.560609E-18
5.750000E+03	8.880429E-18	1.593929E-18
5.760000E+03	9.014185E-18	1.628319E-18
5.770000E+03	9.153357E-18	1.663782E-18
5.780000E+03	9.298076E-18	1.700324E-18
5.790000E+03	9.448270E-18	1.737916E-18
5.800000E+03	9.603960E-18	1.776546E-18
5.810000E+03	9.765379E-18	1.816242E-18
5.820000E+03	9.932337E-18	1.856957E-18
5.830000E+03	1.010495E-17	1.898703E-18
5.840000E+03	1.028324E-17	1.941473E-18
5.850000E+03	1.046720E-17	1.985261E-18
5.860000E+03	1.065695E-17	2.030084E-18
5.870000E+03	1.085224E-17	2.075893E-18
5.880000E+03	1.105331E-17	2.122733E-18
5.890000E+03	1.126001E-17	2.170579E-18
5.900000E+03	1.147231E-17	2.219431E-18
5.910000E+03	1.169015E-17	2.269291E-18
5.920000E+03	1.191349E-17	2.320161E-18
5.930000E+03	1.214240E-17	2.372075E-18
5.940000E+03	1.237654E-17	2.424985E-18
5.950000E+03	1.261579E-17	2.478901E-18
5.960000E+03	1.286020E-17	2.533859E-18
5.970000E+03	1.310966E-17	2.589875E-18
5.980000E+03	1.336371E-17	2.646903E-18
5.990000E+03	1.362252E-17	2.705021E-18
6.000000E+03	1.388544E-17	2.764155E-18
6.010000E+03	1.415275E-17	2.824420E-18
6.020000E+03	1.442376E-17	2.885743E-18
6.030000E+03	1.469822E-17	2.948144E-18
6.040000E+03	1.497605E-17	3.011683E-18
6.050000E+03	1.525681E-17	3.076352E-18
6.060000E+03	1.554021E-17	3.142178E-18
6.070000E+03	1.582555E-17	3.209111E-18
6.080000E+03	1.611287E-17	3.277252E-18
6.090000E+03	1.640125E-17	3.346507E-18
6.100000E+03	1.669069E-17	3.416978E-18
6.110000E+03	1.698060E-17	3.488643E-18
6.120000E+03	1.727038E-17	3.561473E-18
6.130000E+03	1.755959E-17	3.635478E-18
6.140000E+03	1.784802E-17	3.710706E-18
6.150000E+03	1.813500E-17	3.787111E-18
6.160000E+03	1.842008E-17	3.864684E-18
6.170000E+03	1.870328E-17	3.943507E-18
6.180000E+03	1.898369E-17	4.023458E-18
6.190000E+03	1.926108E-17	4.104556E-18
6.200000E+03	1.953528E-17	4.186810E-18
6.210000E+03	1.980611E-17	4.270228E-18
6.220000E+03	2.007289E-17	4.354696E-18
6.230000E+03	2.033523E-17	4.440145E-18
6.240000E+03	2.059297E-17	4.526550E-18
6.250000E+03	2.084547E-17	4.613760E-18
6.260000E+03	2.109261E-17	4.701731E-18
6.270000E+03	2.133403E-17	4.790351E-18
6.280000E+03	2.156966E-17	4.879562E-18
6.290000E+03	2.179918E-17	4.969233E-18
6.300000E+03	2.202228E-17	5.059227E-18
6.310000E+03	2.223896E-17	5.149465E-18
6.320000E+03	2.244924E-17	5.239869E-18
6.330000E+03	2.265257E-17	5.330213E-18
6.340000E+03	2.284902E-17	5.420408E-18
6.350000E+03	2.303869E-17	5.510365E-18
6.360000E+03	2.322106E-17	5.599842E-18
6.370000E+03	2.339659E-17	5.688828E-18
6.380000E+03	2.356512E-17	5.777158E-18
6.390000E+03	2.372652E-17	5.864664E-18
6.400000E+03	2.388066E-17	5.951178E-18
6.410000E+03	2.402810E-17	6.036709E-18
6.420000E+03	2.416843E-17	6.121009E-18
6.430000E+03	2.430226E-17	6.204101E-18
6.440000E+03	2.442957E-17	6.285836E-18
6.450000E+03	2.455030E-17	6.366068E-18
6.460000E+03	2.466480E-17	6.444751E-18
6.470000E+03	2.477308E-17	6.521750E-18
6.480000E+03	2.487552E-17	6.597036E-18
6.490000E+03	2.497137E-17	6.670283E-18
6.500000E+03	2.506142E-17	6.741572E-18
6.510000E+03	2.514571E-17	6.810790E-18
6.520000E+03	2.522391E-17	6.877723E-18
6.530000E+03	2.529644E-17	6.942374E-18
6.540000E+03	2.536338E-17	7.004646E-18
6.550000E+03	2.542480E-17	7.064449E-18
6.560000E+03	2.548077E-17	7.121696E-18
6.570000E+03	2.553179E-17	7.176424E-18
6.580000E+03	2.557754E-17	7.228448E-18
6.590000E+03	2.561812E-17	7.277697E-18
6.600000E+03	2.565404E-17	7.324231E-18
6.610000E+03	2.568541E-17	7.367998E-18
6.620000E+03	2.571193E-17	7.408827E-18
6.630000E+03	2.573413E-17	7.446797E-18
6.640000E+03	2.575171E-17	7.481747E-18
6.650000E+03	2.576565E-17	7.513898E-18
6.660000E+03	2.577521E-17	7.542970E-18
6.670000E+03	2.578052E-17	7.568941E-18
6.680000E+03	2.578214E-17	7.591921E-18
6.690000E+03	2.578021E-17	7.611902E-18
6.700000E+03	2.577442E-17	7.628744E-18
6.710000E+03	2.576490E-17	7.642443E-18
6.720000E+03	2.575223E-17	7.653136E-18
6.730000E+03	2.573610E-17	7.660694E-18
6.740000E+03	2.571711E-17	7.665262E-18
6.750000E+03	2.569447E-17	7.666583E-18
6.760000E+03	2.566924E-17	7.664946E-18
6.770000E+03	2.564064E-17	7.660100E-18
6.780000E+03	2.560972E-17	7.652344E-18
6.790000E+03	2.557571E-17	7.641429E-18
6.800000E+03	2.553919E-17	7.627526E-18
6.810000E+03	2.550030E-17	7.610669E-18
6.820000E+03	2.545872E-17	7.590756E-18
6.830000E+03	2.541505E-17	7.567968E-18
6.840000E+03	2.536895E-17	7.542207E-18
6.850000E+03	2.532102E-17	7.513658E-18
6.860000E+03	2.527046E-17	7.482090E-18
6.870000E+03	2.521834E-17	7.447835E-18
6.880000E+03	2.516431E-17	7.410803E-18
6.890000E+03	2.510851E-17	7.371051E-18
6.900000E+03	2.505059E-17	7.328497E-18
6.910000E+03	2.499163E-17	7.283478E-18
6.920000E+03	2.493032E-17	7.235640E-18
6.930000E+03	2.486822E-17	7.185461E-18
6.940000E+03	2.480450E-17	7.132730E-18
6.950000E+03	2.473927E-17	7.077515E-18
6.960000E+03	2.467314E-17	7.020021E-18
6.970000E+03	2.460574E-17	6.960182E-18
6.980000E+03	2.453720E-17	6.898071E-18
6.990000E+03	2.446762E-17	6.833762E-18
7.000000E+03	2.439713E-17	6.767331E-18
7.010000E+03	2.432584E-17	6.698855E-18
7.020000E+03	2.425338E-17	6.628282E-18
7.030000E+03	2.418081E-17	6.555955E-18
7.040000E+03	2.410682E-17	6.481566E-18
7.050000E+03	2.403293E-17	6.405587E-18
7.060000E+03	2.395783E-17	6.327721E-18
7.070000E+03	2.388257E-17	6.248311E-18
7.080000E+03	2.380678E-17	6.167322E-18
7.090000E+03	2.373057E-17	6.084847E-18
7.100000E+03	2.365450E-17	6.001102E-18
7.110000E+03	2.357772E-17	5.915942E-18
7.120000E+03	2.350081E-17	5.829590E-18
7.130000E+03	2.342339E-17	5.742031E-18
7.140000E+03	2.334602E-17	5.653490E-18
7.150000E+03	2.326881E-17	5.564075E-18
7.160000E+03	2.319137E-17	5.473785E-18
7.170000E+03	2.311425E-17	5.382849E-18
7.180000E+03	2.303662E-17	5.291170E-18
7.190000E+03	2.295949E-17	5.199093E-18
7.200000E+03	2.288249E-17	5.106638E-18
7.210000E+03	2.280523E-17	5.013841E-18
7.220000E+03	2.272827E-17	4.920949E-18
7.230000E+03	2.265168E-17	4.828110E-18
7.240000E+03	2.257508E-17	4.735379E-18
7.250000E+03	2.249855E-17	4.642922E-18
7.260000E+03	2.242218E-17	4.550912E-18
7.270000E+03	2.234603E-17	4.459529E-18
7.280000E+03	2.227020E-17	4.368962E-18
7.290000E+03	2.219382E-17	4.279229E-18
7.300000E+03	2.211790E-17	4.190721E-18
7.310000E+03	2.204205E-17	4.103566E-18
7.320000E+03	2.196588E-17	4.017909E-18
7.330000E+03	2.188992E-17	3.934075E-18
7.340000E+03	2.181333E-17	3.852150E-18
7.350000E+03	2.173618E-17	3.772397E-18
7.360000E+03	2.165853E-17	3.695087E-18
7.370000E+03	2.158000E-17	3.620422E-18
7.380000E+03	2.150110E-17	3.548761E-18
7.390000E+03	2.142054E-17	3.480165E-18
7.400000E+03	2.133930E-17	3.415073E-18
7.410000E+03	2.125652E-17	3.353623E-18
7.420000E+03	2.117272E-17	3.296163E-18
7.430000E+03	2.108749E-17	3.242886E-18
7.440000E+03	2.100090E-17	3.194040E-18
7.450000E+03	2.091345E-17	3.149913E-18
7.460000E+03	2.082472E-17	3.110633E-18
7.470000E+03	2.073611E-17	3.076558E-18
7.480000E+03	2.064676E-17	3.047675E-18
7.490000E+03	2.055759E-17	3.024196E-18
7.500000E+03	2.046818E-17	3.006089E-18
7.510000E+03	2.037989E-17	2.993540E-18
7.520000E+03	2.029230E-17	2.986427E-18
7.530000E+03	2.020543E-17	2.984651E-18
7.540000E+03	2.011972E-17	2.988136E-18
7.550000E+03	2.003520E-17	2.996703E-18
7.560000E+03	1.995274E-17	3.010272E-18
7.570000E+03	1.987148E-17	3.028472E-18
7.580000E+03	1.979185E-17	3.051105E-18
7.590000E+03	1.971428E-17	3.077961E-18
7.600000E+03	1.963835E-17	3.108683E-18
7.610000E+03	1.956448E-17	3.143040E-18
7.620000E+03	1.949223E-17	3.180667E-18
7.630000E+03	1.942247E-17	3.221408E-18
7.640000E+03	1.935430E-17	3.264832E-18
7.650000E+03	1.928861E-17	3.310802E-18
7.660000E+03	1.922449E-17	3.358901E-18
7.670000E+03	1.916282E-17	3.409022E-18
7.680000E+03	1.910270E-17	3.460765E-18
7.690000E+03	1.904500E-17	3.514056E-18
7.700000E+03	1.898926E-17	3.568601E-18
7.710000E+03	1.893547E-17	3.624198E-18
7.720000E+03	1.888363E-17	3.680657E-18
7.730000E+03	1.883370E-17	3.737803E-18
7.740000E+03	1.878568E-17	3.795475E-18
7.750000E+03	1.873912E-17	3.853432E-18
7.760000E+03	1.869487E-17	3.911713E-18
