#wls	flux	fluxerr
1.600000E+03	7.134038E-18	6.723138E-18
1.640000E+03	7.382887E-18	6.910426E-18
1.680000E+03	7.646613E-18	7.107368E-18
1.720000E+03	7.925543E-18	7.313856E-18
1.760000E+03	8.220646E-18	7.530351E-18
1.800000E+03	8.533537E-18	7.757858E-18
1.840000E+03	8.862885E-18	7.994667E-18
1.880000E+03	9.210840E-18	8.242202E-18
1.920000E+03	9.577303E-18	8.499814E-18
1.960000E+03	9.962061E-18	8.766737E-18
2.000000E+03	1.036407E-17	9.041469E-18
2.040000E+03	1.078286E-17	9.323030E-18
2.080000E+03	1.121644E-17	9.609112E-18
2.120000E+03	1.166126E-17	9.896161E-18
2.160000E+03	1.211583E-17	1.018242E-17
2.200000E+03	1.257572E-17	1.046377E-17
2.240000E+03	1.303719E-17	1.073675E-17
2.280000E+03	1.349781E-17	1.099914E-17
2.320000E+03	1.395650E-17	1.124984E-17
2.360000E+03	1.441409E-17	1.148937E-17
2.400000E+03	1.487195E-17	1.171860E-17
2.440000E+03	1.533122E-17	1.193818E-17
2.480000E+03	1.579478E-17	1.215007E-17
2.520000E+03	1.626322E-17	1.235439E-17
2.560000E+03	1.673815E-17	1.255195E-17
2.600000E+03	1.721891E-17	1.274188E-17
2.640000E+03	1.770523E-17	1.292356E-17
2.680000E+03	1.819527E-17	1.309528E-17
2.720000E+03	1.868700E-17	1.325528E-17
2.760000E+03	1.917817E-17	1.340169E-17
2.800000E+03	1.966573E-17	1.353224E-17
2.840000E+03	2.014652E-17	1.364470E-17
2.880000E+03	2.061835E-17	1.373763E-17
2.920000E+03	2.107777E-17	1.380889E-17
2.960000E+03	2.152386E-17	1.385814E-17
3.000000E+03	2.195388E-17	1.388396E-17
3.010000E+03	2.205928E-17	1.388706E-17
3.020000E+03	2.216322E-17	1.388845E-17
3.030000E+03	2.226562E-17	1.388807E-17
3.040000E+03	2.236742E-17	1.388653E-17
3.050000E+03	2.246801E-17	1.388345E-17
3.060000E+03	2.256732E-17	1.387881E-17
3.070000E+03	2.266575E-17	1.387285E-17
3.080000E+03	2.276273E-17	1.386524E-17
3.090000E+03	2.285818E-17	1.385593E-17
3.100000E+03	2.295296E-17	1.384547E-17
3.110000E+03	2.304604E-17	1.383323E-17
3.120000E+03	2.313780E-17	1.381945E-17
3.130000E+03	2.322770E-17	1.380384E-17
3.140000E+03	2.331704E-17	1.378716E-17
3.150000E+03	2.340433E-17	1.376856E-17
3.160000E+03	2.348997E-17	1.374828E-17
3.170000E+03	2.357430E-17	1.372654E-17
3.180000E+03	2.365725E-17	1.370330E-17
3.190000E+03	2.373783E-17	1.367801E-17
3.200000E+03	2.381728E-17	1.365140E-17
3.210000E+03	2.389465E-17	1.362294E-17
3.220000E+03	2.397027E-17	1.359284E-17
3.230000E+03	2.404363E-17	1.356083E-17
3.240000E+03	2.411509E-17	1.352712E-17
3.250000E+03	2.418455E-17	1.349169E-17
3.260000E+03	2.425194E-17	1.345450E-17
3.270000E+03	2.431675E-17	1.341531E-17
3.280000E+03	2.437933E-17	1.337433E-17
3.290000E+03	2.443960E-17	1.333153E-17
3.300000E+03	2.449708E-17	1.328668E-17
3.310000E+03	2.455210E-17	1.323999E-17
3.320000E+03	2.460419E-17	1.319123E-17
3.330000E+03	2.465369E-17	1.314061E-17
3.340000E+03	2.470014E-17	1.308791E-17
3.350000E+03	2.474349E-17	1.303313E-17
3.360000E+03	2.478367E-17	1.297628E-17
3.370000E+03	2.482065E-17	1.291736E-17
3.380000E+03	2.485435E-17	1.285638E-17
3.390000E+03	2.488438E-17	1.279316E-17
3.400000E+03	2.491106E-17	1.272791E-17
3.410000E+03	2.493364E-17	1.266027E-17
3.420000E+03	2.495279E-17	1.259064E-17
3.430000E+03	2.496778E-17	1.251869E-17
3.440000E+03	2.497860E-17	1.244444E-17
3.450000E+03	2.498524E-17	1.236794E-17
3.460000E+03	2.498735E-17	1.228906E-17
3.470000E+03	2.498526E-17	1.220802E-17
3.480000E+03	2.497865E-17	1.212469E-17
3.490000E+03	2.496719E-17	1.203898E-17
3.500000E+03	2.495090E-17	1.195094E-17
3.510000E+03	2.492951E-17	1.186049E-17
3.520000E+03	2.490334E-17	1.176785E-17
3.530000E+03	2.487151E-17	1.167265E-17
3.540000E+03	2.483439E-17	1.157512E-17
3.550000E+03	2.479172E-17	1.147520E-17
3.560000E+03	2.474359E-17	1.137298E-17
3.570000E+03	2.468946E-17	1.126830E-17
3.580000E+03	2.462914E-17	1.116112E-17
3.590000E+03	2.456303E-17	1.105168E-17
3.600000E+03	2.449038E-17	1.093972E-17
3.610000E+03	2.441160E-17	1.082549E-17
3.620000E+03	2.432653E-17	1.070899E-17
3.630000E+03	2.423476E-17	1.059010E-17
3.640000E+03	2.413619E-17	1.046886E-17
3.650000E+03	2.403098E-17	1.034540E-17
3.660000E+03	2.391879E-17	1.021965E-17
3.670000E+03	2.380006E-17	1.009187E-17
3.680000E+03	2.367421E-17	9.961893E-18
3.690000E+03	2.354145E-17	9.829885E-18
3.700000E+03	2.340176E-17	9.695904E-18
3.710000E+03	2.325535E-17	9.560117E-18
3.720000E+03	2.310197E-17	9.422493E-18
3.730000E+03	2.294186E-17	9.283204E-18
3.740000E+03	2.277504E-17	9.142327E-18
3.750000E+03	2.260174E-17	9.000032E-18
3.760000E+03	2.242201E-17	8.856401E-18
3.770000E+03	2.223608E-17	8.711601E-18
3.780000E+03	2.204400E-17	8.565714E-18
3.790000E+03	2.184582E-17	8.418826E-18
3.800000E+03	2.164224E-17	8.271266E-18
3.810000E+03	2.143287E-17	8.122950E-18
3.820000E+03	2.121820E-17	7.974120E-18
3.830000E+03	2.099869E-17	7.825006E-18
3.840000E+03	2.077419E-17	7.675606E-18
3.850000E+03	2.054498E-17	7.526070E-18
3.860000E+03	2.031151E-17	7.376613E-18
3.870000E+03	2.007403E-17	7.227371E-18
3.880000E+03	1.983278E-17	7.078474E-18
3.890000E+03	1.958784E-17	6.929984E-18
3.900000E+03	1.933962E-17	6.782089E-18
3.910000E+03	1.908837E-17	6.634906E-18
3.920000E+03	1.883431E-17	6.488545E-18
3.930000E+03	1.857768E-17	6.343114E-18
3.940000E+03	1.831871E-17	6.198714E-18
3.950000E+03	1.805777E-17	6.055499E-18
3.960000E+03	1.779508E-17	5.913556E-18
3.970000E+03	1.753068E-17	5.772917E-18
3.980000E+03	1.726510E-17	5.633768E-18
3.990000E+03	1.699837E-17	5.496130E-18
4.000000E+03	1.673084E-17	5.360123E-18
4.010000E+03	1.646267E-17	5.225809E-18
4.020000E+03	1.619391E-17	5.093202E-18
4.030000E+03	1.592502E-17	4.962450E-18
4.040000E+03	1.565602E-17	4.833555E-18
4.050000E+03	1.538722E-17	4.706608E-18
4.060000E+03	1.511875E-17	4.581648E-18
4.070000E+03	1.485078E-17	4.458712E-18
4.080000E+03	1.458344E-17	4.337833E-18
4.090000E+03	1.431701E-17	4.219078E-18
4.100000E+03	1.405148E-17	4.102432E-18
4.110000E+03	1.378700E-17	3.987920E-18
4.120000E+03	1.352391E-17	3.875630E-18
4.130000E+03	1.326212E-17	3.765505E-18
4.140000E+03	1.300183E-17	3.657591E-18
4.150000E+03	1.274318E-17	3.551897E-18
4.160000E+03	1.248625E-17	3.448427E-18
4.170000E+03	1.223115E-17	3.347184E-18
4.180000E+03	1.197799E-17	3.248168E-18
4.190000E+03	1.172685E-17	3.151375E-18
4.200000E+03	1.147782E-17	3.056801E-18
4.210000E+03	1.123100E-17	2.964437E-18
4.220000E+03	1.098645E-17	2.874274E-18
4.230000E+03	1.074417E-17	2.786274E-18
4.240000E+03	1.050424E-17	2.700427E-18
4.250000E+03	1.026682E-17	2.616739E-18
4.260000E+03	1.003198E-17	2.535192E-18
4.270000E+03	9.799614E-18	2.455723E-18
4.280000E+03	9.569877E-18	2.378333E-18
4.290000E+03	9.342830E-18	2.303001E-18
4.300000E+03	9.118531E-18	2.229702E-18
4.310000E+03	8.897036E-18	2.158410E-18
4.320000E+03	8.678317E-18	2.089080E-18
4.330000E+03	8.462578E-18	2.021719E-18
4.340000E+03	8.249711E-18	1.956261E-18
4.350000E+03	8.039904E-18	1.892710E-18
4.360000E+03	7.833189E-18	1.831030E-18
4.370000E+03	7.629662E-18	1.771202E-18
4.380000E+03	7.429345E-18	1.713188E-18
4.390000E+03	7.232321E-18	1.656964E-18
4.400000E+03	7.038623E-18	1.602485E-18
4.410000E+03	6.848419E-18	1.549734E-18
4.420000E+03	6.661742E-18	1.498659E-18
4.430000E+03	6.478616E-18	1.449213E-18
4.440000E+03	6.299174E-18	1.401372E-18
4.450000E+03	6.123421E-18	1.355085E-18
4.460000E+03	5.951411E-18	1.310317E-18
4.470000E+03	5.783239E-18	1.267039E-18
4.480000E+03	5.618833E-18	1.225192E-18
4.490000E+03	5.458270E-18	1.184749E-18
4.500000E+03	5.301566E-18	1.145672E-18
4.510000E+03	5.148681E-18	1.107913E-18
4.520000E+03	4.999617E-18	1.071435E-18
4.530000E+03	4.854370E-18	1.036202E-18
4.540000E+03	4.712929E-18	1.002179E-18
4.550000E+03	4.575278E-18	9.693295E-19
4.560000E+03	4.441349E-18	9.376107E-19
4.570000E+03	4.311078E-18	9.069805E-19
4.580000E+03	4.184515E-18	8.774234E-19
4.590000E+03	4.061545E-18	8.488905E-19
4.600000E+03	3.942093E-18	8.213432E-19
4.610000E+03	3.826157E-18	7.947598E-19
4.620000E+03	3.713692E-18	7.691109E-19
4.630000E+03	3.604546E-18	7.443461E-19
4.640000E+03	3.498778E-18	7.204603E-19
4.650000E+03	3.396200E-18	6.973990E-19
4.660000E+03	3.296831E-18	6.751510E-19
4.670000E+03	3.200586E-18	6.536850E-19
4.680000E+03	3.107381E-18	6.329710E-19
4.690000E+03	3.017132E-18	6.129804E-19
4.700000E+03	2.929759E-18	5.936858E-19
4.710000E+03	2.845238E-18	5.750723E-19
4.720000E+03	2.763459E-18	5.571084E-19
4.730000E+03	2.684342E-18	5.397695E-19
4.740000E+03	2.607836E-18	5.230374E-19
4.750000E+03	2.533812E-18	5.068789E-19
4.760000E+03	2.462274E-18	4.912879E-19
4.770000E+03	2.393071E-18	4.762284E-19
4.780000E+03	2.326183E-18	4.616905E-19
4.790000E+03	2.261538E-18	4.476549E-19
4.800000E+03	2.199023E-18	4.340944E-19
4.810000E+03	2.138596E-18	4.209963E-19
4.820000E+03	2.080213E-18	4.083482E-19
4.830000E+03	2.023769E-18	3.961257E-19
4.840000E+03	1.969226E-18	3.843178E-19
4.850000E+03	1.916523E-18	3.729099E-19
4.860000E+03	1.865584E-18	3.618843E-19
4.870000E+03	1.816356E-18	3.512277E-19
4.880000E+03	1.768801E-18	3.409311E-19
4.890000E+03	1.722851E-18	3.309785E-19
4.900000E+03	1.678471E-18	3.213615E-19
4.910000E+03	1.635579E-18	3.120623E-19
4.920000E+03	1.594144E-18	3.030735E-19
4.930000E+03	1.554121E-18	2.943846E-19
4.940000E+03	1.515450E-18	2.859826E-19
4.950000E+03	1.478103E-18	2.778612E-19
4.960000E+03	1.442024E-18	2.700082E-19
4.970000E+03	1.407187E-18	2.624177E-19
4.980000E+03	1.373540E-18	2.550784E-19
4.990000E+03	1.341044E-18	2.479822E-19
5.000000E+03	1.309650E-18	2.411189E-19
5.010000E+03	1.279351E-18	2.344861E-19
5.020000E+03	1.250087E-18	2.280717E-19
5.030000E+03	1.221824E-18	2.218688E-19
5.040000E+03	1.194545E-18	2.158732E-19
5.050000E+03	1.168207E-18	2.100763E-19
5.060000E+03	1.142782E-18	2.044720E-19
5.070000E+03	1.118240E-18	1.990545E-19
5.080000E+03	1.094556E-18	1.938182E-19
5.090000E+03	1.071693E-18	1.887557E-19
5.100000E+03	1.049625E-18	1.838620E-19
5.110000E+03	1.028339E-18	1.791340E-19
5.120000E+03	1.007792E-18	1.745632E-19
5.130000E+03	9.879827E-19	1.701489E-19
5.140000E+03	9.688588E-19	1.658815E-19
5.150000E+03	9.504206E-19	1.617603E-19
5.160000E+03	9.326388E-19	1.577796E-19
5.170000E+03	9.154948E-19	1.539358E-19
5.180000E+03	8.989707E-19	1.502253E-19
5.190000E+03	8.830403E-19	1.466431E-19
5.200000E+03	8.676875E-19	1.431860E-19
5.210000E+03	8.528880E-19	1.398496E-19
5.220000E+03	8.386446E-19	1.366338E-19
5.230000E+03	8.249171E-19	1.335316E-19
5.240000E+03	8.117009E-19	1.305419E-19
5.250000E+03	7.989831E-19	1.276622E-19
5.260000E+03	7.867514E-19	1.248902E-19
5.270000E+03	7.749782E-19	1.222213E-19
5.280000E+03	7.636606E-19	1.196546E-19
5.290000E+03	7.527804E-19	1.171871E-19
5.300000E+03	7.423279E-19	1.148170E-19
5.310000E+03	7.322862E-19	1.125416E-19
5.320000E+03	7.226541E-19	1.103606E-19
5.330000E+03	7.134087E-19	1.082704E-19
5.340000E+03	7.045424E-19	1.062697E-19
5.350000E+03	6.960409E-19	1.043564E-19
5.360000E+03	6.879047E-19	1.025306E-19
5.370000E+03	6.801066E-19	1.007882E-19
5.380000E+03	6.726480E-19	9.912967E-20
5.390000E+03	6.655168E-19	9.755328E-20
5.400000E+03	6.587015E-19	9.605751E-20
5.410000E+03	6.521781E-19	9.463907E-20
5.420000E+03	6.459366E-19	9.329679E-20
5.430000E+03	6.399674E-19	9.202957E-20
5.440000E+03	6.342359E-19	9.083274E-20
5.450000E+03	6.287341E-19	8.970553E-20
5.460000E+03	6.234352E-19	8.864450E-20
5.470000E+03	6.183260E-19	8.764817E-20
5.480000E+03	6.134245E-19	8.671942E-20
5.490000E+03	6.087233E-19	8.585757E-20
5.500000E+03	6.042383E-19	8.506463E-20
5.510000E+03	5.999678E-19	8.433873E-20
5.520000E+03	5.959278E-19	8.368020E-20
5.530000E+03	5.921039E-19	8.308520E-20
5.540000E+03	5.885001E-19	8.255251E-20
5.550000E+03	5.851086E-19	8.207934E-20
5.560000E+03	5.819397E-19	8.166549E-20
5.570000E+03	5.789800E-19	8.130751E-20
5.580000E+03	5.762285E-19	8.100376E-20
5.590000E+03	5.736784E-19	8.075184E-20
5.600000E+03	5.713348E-19	8.055113E-20
5.610000E+03	5.691856E-19	8.039863E-20
5.620000E+03	5.672305E-19	8.029310E-20
5.630000E+03	5.654696E-19	8.023341E-20
5.640000E+03	5.638974E-19	8.021769E-20
5.650000E+03	5.625142E-19	8.024502E-20
5.660000E+03	5.613091E-19	8.031290E-20
5.670000E+03	5.602829E-19	8.042063E-20
5.680000E+03	5.594369E-19	8.056755E-20
5.690000E+03	5.587664E-19	8.075233E-20
5.700000E+03	5.582670E-19	8.097367E-20
5.710000E+03	5.579348E-19	8.123039E-20
5.720000E+03	5.577773E-19	8.152312E-20
5.730000E+03	5.577790E-19	8.184911E-20
5.740000E+03	5.579481E-19	8.220917E-20
5.750000E+03	5.582811E-19	8.260248E-20
5.760000E+03	5.587687E-19	8.302739E-20
5.770000E+03	5.594137E-19	8.348409E-20
5.780000E+03	5.602189E-19	8.397287E-20
5.790000E+03	5.611756E-19	8.449231E-20
5.800000E+03	5.622807E-19	8.504194E-20
5.810000E+03	5.635439E-19	8.562321E-20
5.820000E+03	5.649502E-19	8.623396E-20
5.830000E+03	5.665035E-19	8.687485E-20
5.840000E+03	5.682012E-19	8.754571E-20
5.850000E+03	5.700410E-19	8.824640E-20
5.860000E+03	5.720270E-19	8.897785E-20
5.870000E+03	5.741445E-19	8.973809E-20
5.880000E+03	5.764040E-19	9.052915E-20
5.890000E+03	5.787971E-19	9.135016E-20
5.900000E+03	5.813217E-19	9.220128E-20
5.910000E+03	5.839758E-19	9.308273E-20
5.920000E+03	5.867576E-19	9.399478E-20
5.930000E+03	5.896717E-19	9.493884E-20
5.940000E+03	5.927029E-19	9.591313E-20
5.950000E+03	5.958490E-19	9.691805E-20
5.960000E+03	5.991150E-19	9.795513E-20
5.970000E+03	6.024988E-19	9.902492E-20
5.980000E+03	6.059845E-19	1.001257E-19
5.990000E+03	6.095840E-19	1.012602E-19
6.000000E+03	6.132739E-19	1.024257E-19
6.010000E+03	6.170732E-19	1.036262E-19
6.020000E+03	6.209580E-19	1.048589E-19
6.030000E+03	6.249257E-19	1.061243E-19
6.040000E+03	6.289810E-19	1.074244E-19
6.050000E+03	6.331136E-19	1.087585E-19
6.060000E+03	6.373207E-19	1.101274E-19
6.070000E+03	6.415840E-19	1.115291E-19
6.080000E+03	6.459153E-19	1.129670E-19
6.090000E+03	6.502880E-19	1.144375E-19
6.100000E+03	6.547138E-19	1.159441E-19
6.110000E+03	6.591811E-19	1.174860E-19
6.120000E+03	6.636778E-19	1.190623E-19
6.130000E+03	6.681993E-19	1.206735E-19
6.140000E+03	6.727494E-19	1.223217E-19
6.150000E+03	6.773154E-19	1.240059E-19
6.160000E+03	6.818922E-19	1.257264E-19
6.170000E+03	6.864922E-19	1.274868E-19
6.180000E+03	6.910933E-19	1.292846E-19
6.190000E+03	6.956992E-19	1.311215E-19
6.200000E+03	7.003143E-19	1.329992E-19
6.210000E+03	7.049449E-19	1.349188E-19
6.220000E+03	7.095794E-19	1.368777E-19
6.230000E+03	7.142150E-19	1.388750E-19
6.240000E+03	7.188580E-19	1.409117E-19
6.250000E+03	7.234963E-19	1.429850E-19
6.260000E+03	7.281365E-19	1.450956E-19
6.270000E+03	7.327756E-19	1.472425E-19
6.280000E+03	7.374207E-19	1.494267E-19
6.290000E+03	7.420691E-19	1.516471E-19
6.300000E+03	7.467182E-19	1.539027E-19
6.310000E+03	7.513755E-19	1.561945E-19
6.320000E+03	7.560490E-19	1.585235E-19
6.330000E+03	7.607261E-19	1.608868E-19
6.340000E+03	7.654150E-19	1.632853E-19
6.350000E+03	7.701242E-19	1.657206E-19
6.360000E+03	7.748412E-19	1.681892E-19
6.370000E+03	7.795857E-19	1.706950E-19
6.380000E+03	7.843564E-19	1.732371E-19
6.390000E+03	7.891519E-19	1.758149E-19
6.400000E+03	7.939707E-19	1.784275E-19
6.410000E+03	7.988346E-19	1.810792E-19
6.420000E+03	8.037312E-19	1.837670E-19
6.430000E+03	8.086835E-19	1.864957E-19
6.440000E+03	8.136913E-19	1.892648E-19
6.450000E+03	8.187545E-19	1.920741E-19
6.460000E+03	8.238856E-19	1.949262E-19
6.470000E+03	8.290849E-19	1.978210E-19
6.480000E+03	8.343658E-19	2.007614E-19
6.490000E+03	8.397034E-19	2.037413E-19
6.500000E+03	8.451240E-19	2.067668E-19
6.510000E+03	8.506288E-19	2.098380E-19
6.520000E+03	8.562055E-19	2.129518E-19
6.530000E+03	8.618685E-19	2.161115E-19
6.540000E+03	8.676190E-19	2.193175E-19
6.550000E+03	8.734585E-19	2.225699E-19
6.560000E+03	8.793883E-19	2.258690E-19
6.570000E+03	8.854243E-19	2.292188E-19
6.580000E+03	8.915541E-19	2.326162E-19
6.590000E+03	8.977793E-19	2.360614E-19
6.600000E+03	9.041165E-19	2.395588E-19
6.610000E+03	9.105679E-19	2.431090E-19
6.620000E+03	9.171209E-19	2.467088E-19
6.630000E+03	9.237927E-19	2.503627E-19
6.640000E+03	9.305702E-19	2.540673E-19
6.650000E+03	9.374873E-19	2.578318E-19
6.660000E+03	9.445151E-19	2.616485E-19
6.670000E+03	9.516559E-19	2.655180E-19
6.680000E+03	9.589284E-19	2.694457E-19
6.690000E+03	9.663357E-19	2.734324E-19
6.700000E+03	9.738638E-19	2.774744E-19
6.710000E+03	9.815154E-19	2.815725E-19
6.720000E+03	9.893104E-19	2.857325E-19
6.730000E+03	9.972346E-19	2.899504E-19
6.740000E+03	1.005309E-18	2.942324E-19
6.750000E+03	1.013500E-18	2.985690E-19
6.760000E+03	1.021847E-18	3.029717E-19
6.770000E+03	1.030317E-18	3.074309E-19
6.780000E+03	1.038949E-18	3.119584E-19
6.790000E+03	1.047710E-18	3.165443E-19
6.800000E+03	1.056621E-18	3.211951E-19
6.810000E+03	1.065686E-18	3.259121E-19
6.820000E+03	1.074888E-18	3.306902E-19
6.830000E+03	1.084250E-18	3.355367E-19
6.840000E+03	1.093756E-18	3.404465E-19
6.850000E+03	1.103429E-18	3.454270E-19
6.860000E+03	1.113230E-18	3.504664E-19
6.870000E+03	1.123206E-18	3.555787E-19
6.880000E+03	1.133337E-18	3.607587E-19
6.890000E+03	1.143628E-18	3.660072E-19
6.900000E+03	1.154060E-18	3.713185E-19
6.910000E+03	1.164680E-18	3.767078E-19
6.920000E+03	1.175425E-18	3.821545E-19
6.930000E+03	1.186364E-18	3.876815E-19
6.940000E+03	1.197457E-18	3.932754E-19
6.950000E+03	1.208706E-18	3.989370E-19
6.960000E+03	1.220138E-18	4.046750E-19
6.970000E+03	1.231732E-18	4.104830E-19
6.980000E+03	1.243492E-18	4.163617E-19
6.990000E+03	1.255422E-18	4.223123E-19
7.000000E+03	1.267523E-18	4.283357E-19
7.010000E+03	1.279800E-18	4.344331E-19
7.020000E+03	1.292231E-18	4.405968E-19
7.030000E+03	1.304869E-18	4.468451E-19
7.040000E+03	1.317640E-18	4.531528E-19
7.050000E+03	1.330626E-18	4.595474E-19
7.060000E+03	1.343751E-18	4.660027E-19
7.070000E+03	1.357071E-18	4.725379E-19
7.080000E+03	1.370562E-18	4.791447E-19
7.090000E+03	1.384227E-18	4.858238E-19
7.100000E+03	1.398098E-18	4.925860E-19
7.110000E+03	1.412120E-18	4.994123E-19
7.120000E+03	1.426326E-18	5.063136E-19
7.130000E+03	1.440688E-18	5.132801E-19
7.140000E+03	1.455239E-18	5.203228E-19
7.150000E+03	1.469982E-18	5.274427E-19
7.160000E+03	1.484890E-18	5.346297E-19
7.170000E+03	1.499995E-18	5.418953E-19
7.180000E+03	1.515240E-18	5.492181E-19
7.190000E+03	1.530687E-18	5.566208E-19
7.200000E+03	1.546310E-18	5.640927E-19
7.210000E+03	1.562077E-18	5.716226E-19
7.220000E+03	1.578024E-18	5.792223E-19
7.230000E+03	1.594152E-18	5.868923E-19
7.240000E+03	1.610431E-18	5.946209E-19
7.250000E+03	1.626862E-18	6.024080E-19
7.260000E+03	1.643446E-18	6.102535E-19
7.270000E+03	1.660186E-18	6.181573E-19
7.280000E+03	1.677082E-18	6.261195E-19
7.290000E+03	1.694066E-18	6.341137E-19
7.300000E+03	1.711208E-18	6.421652E-19
7.310000E+03	1.728474E-18	6.502607E-19
7.320000E+03	1.745826E-18	6.583856E-19
7.330000E+03	1.763302E-18	6.665526E-19
7.340000E+03	1.780826E-18	6.747329E-19
7.350000E+03	1.798397E-18	6.829246E-19
7.360000E+03	1.816012E-18	6.911258E-19
7.370000E+03	1.833631E-18	6.993199E-19
7.380000E+03	1.851287E-18	7.075193E-19
7.390000E+03	1.868861E-18	7.156767E-19
7.400000E+03	1.886426E-18	7.238188E-19
7.410000E+03	1.903896E-18	7.319120E-19
7.420000E+03	1.921306E-18	7.399681E-19
7.430000E+03	1.938609E-18	7.479679E-19
7.440000E+03	1.955798E-18	7.559072E-19
7.450000E+03	1.972907E-18	7.637985E-19
7.460000E+03	1.989888E-18	7.716217E-19
7.470000E+03	2.006863E-18	7.794229E-19
7.480000E+03	2.023742E-18	7.871659E-19
7.490000E+03	2.040606E-18	7.948816E-19
7.500000E+03	2.057407E-18	8.025501E-19
7.510000E+03	2.074277E-18	8.102214E-19
7.520000E+03	2.091168E-18	8.178764E-19
7.530000E+03	2.108078E-18	8.255133E-19
7.540000E+03	2.125052E-18	8.331483E-19
7.550000E+03	2.142089E-18	8.407802E-19
7.560000E+03	2.159283E-18	8.484450E-19
7.570000E+03	2.176540E-18	8.561048E-19
7.580000E+03	2.193908E-18	8.637775E-19
7.590000E+03	2.211437E-18	8.714818E-19
7.600000E+03	2.229079E-18	8.791980E-19
7.610000E+03	2.246886E-18	8.869453E-19
7.620000E+03	2.264809E-18	8.947037E-19
7.630000E+03	2.282952E-18	9.025130E-19
7.640000E+03	2.301214E-18	9.103329E-19
7.650000E+03	2.319702E-18	9.182042E-19
7.660000E+03	2.338314E-18	9.260856E-19
7.670000E+03	2.357157E-18	9.340189E-19
7.680000E+03	2.376127E-18	9.419618E-19
7.690000E+03	2.395336E-18	9.499572E-19
7.700000E+03	2.414732E-18	9.579836E-19
7.710000E+03	2.434317E-18	9.660413E-19
7.720000E+03	2.454095E-18	9.741301E-19
7.730000E+03	2.474067E-18	9.822502E-19
7.740000E+03	2.494238E-18	9.904015E-19
7.750000E+03	2.514550E-18	9.985608E-19
7.760000E+03	2.535124E-18	1.006774E-18
