#wls	flux	fluxerr
1.600000E+03	8.029947E-18	7.519407E-18
1.640000E+03	8.320307E-18	7.737121E-18
1.680000E+03	8.628190E-18	7.966103E-18
1.720000E+03	8.954026E-18	8.206259E-18
1.760000E+03	9.298975E-18	8.458134E-18
1.800000E+03	9.664931E-18	8.722888E-18
1.840000E+03	1.005046E-17	8.998623E-18
1.880000E+03	1.045806E-17	9.286969E-18
1.920000E+03	1.088770E-17	9.587218E-18
1.960000E+03	1.133921E-17	9.898528E-18
2.000000E+03	1.181145E-17	1.021922E-17
2.040000E+03	1.230398E-17	1.054819E-17
2.080000E+03	1.281455E-17	1.088283E-17
2.120000E+03	1.333917E-17	1.121910E-17
2.160000E+03	1.387614E-17	1.155500E-17
2.200000E+03	1.442042E-17	1.188581E-17
2.240000E+03	1.496769E-17	1.220755E-17
2.280000E+03	1.551515E-17	1.251763E-17
2.320000E+03	1.606152E-17	1.281475E-17
2.360000E+03	1.660771E-17	1.309942E-17
2.400000E+03	1.715525E-17	1.337255E-17
2.440000E+03	1.770542E-17	1.363483E-17
2.480000E+03	1.826150E-17	1.388843E-17
2.520000E+03	1.882414E-17	1.413341E-17
2.560000E+03	1.939517E-17	1.437066E-17
2.600000E+03	1.997378E-17	1.459909E-17
2.640000E+03	2.055960E-17	1.481793E-17
2.680000E+03	2.115044E-17	1.502516E-17
2.720000E+03	2.174388E-17	1.521866E-17
2.760000E+03	2.233719E-17	1.539623E-17
2.800000E+03	2.292674E-17	1.555517E-17
2.840000E+03	2.350871E-17	1.569282E-17
2.880000E+03	2.408041E-17	1.580746E-17
2.920000E+03	2.463766E-17	1.589653E-17
2.960000E+03	2.517924E-17	1.595956E-17
3.000000E+03	2.570176E-17	1.599484E-17
3.010000E+03	2.582988E-17	1.599967E-17
3.020000E+03	2.595625E-17	1.600247E-17
3.030000E+03	2.608079E-17	1.600319E-17
3.040000E+03	2.620458E-17	1.600250E-17
3.050000E+03	2.632693E-17	1.600000E-17
3.060000E+03	2.644773E-17	1.599564E-17
3.070000E+03	2.656746E-17	1.598970E-17
3.080000E+03	2.668545E-17	1.598180E-17
3.090000E+03	2.680159E-17	1.597188E-17
3.100000E+03	2.691691E-17	1.596058E-17
3.110000E+03	2.703017E-17	1.594717E-17
3.120000E+03	2.714184E-17	1.593194E-17
3.130000E+03	2.725126E-17	1.591452E-17
3.140000E+03	2.735995E-17	1.589582E-17
3.150000E+03	2.746619E-17	1.587484E-17
3.160000E+03	2.757040E-17	1.585186E-17
3.170000E+03	2.767303E-17	1.582713E-17
3.180000E+03	2.777395E-17	1.580062E-17
3.190000E+03	2.787202E-17	1.577168E-17
3.200000E+03	2.796868E-17	1.574117E-17
3.210000E+03	2.806281E-17	1.570845E-17
3.220000E+03	2.815481E-17	1.567378E-17
3.230000E+03	2.824407E-17	1.563684E-17
3.240000E+03	2.833099E-17	1.559789E-17
3.250000E+03	2.841548E-17	1.555689E-17
3.260000E+03	2.849743E-17	1.551381E-17
3.270000E+03	2.857626E-17	1.546835E-17
3.280000E+03	2.865237E-17	1.542077E-17
3.290000E+03	2.872565E-17	1.537103E-17
3.300000E+03	2.879554E-17	1.531887E-17
3.310000E+03	2.886243E-17	1.526453E-17
3.320000E+03	2.892578E-17	1.520775E-17
3.330000E+03	2.898595E-17	1.514876E-17
3.340000E+03	2.904242E-17	1.508731E-17
3.350000E+03	2.909511E-17	1.502342E-17
3.360000E+03	2.914397E-17	1.495709E-17
3.370000E+03	2.918891E-17	1.488831E-17
3.380000E+03	2.922989E-17	1.481711E-17
3.390000E+03	2.926641E-17	1.474328E-17
3.400000E+03	2.929886E-17	1.466705E-17
3.410000E+03	2.932633E-17	1.458803E-17
3.420000E+03	2.934965E-17	1.450666E-17
3.430000E+03	2.936793E-17	1.442257E-17
3.440000E+03	2.938116E-17	1.433579E-17
3.450000E+03	2.938932E-17	1.424638E-17
3.460000E+03	2.939201E-17	1.415419E-17
3.470000E+03	2.938961E-17	1.405947E-17
3.480000E+03	2.938174E-17	1.396208E-17
3.490000E+03	2.936801E-17	1.386191E-17
3.500000E+03	2.934846E-17	1.375903E-17
3.510000E+03	2.932274E-17	1.365334E-17
3.520000E+03	2.929125E-17	1.354511E-17
3.530000E+03	2.925295E-17	1.343390E-17
3.540000E+03	2.920826E-17	1.331999E-17
3.550000E+03	2.915690E-17	1.320332E-17
3.560000E+03	2.909895E-17	1.308398E-17
3.570000E+03	2.903379E-17	1.296179E-17
3.580000E+03	2.896120E-17	1.283673E-17
3.590000E+03	2.888164E-17	1.270906E-17
3.600000E+03	2.879423E-17	1.257848E-17
3.610000E+03	2.869945E-17	1.244529E-17
3.620000E+03	2.859714E-17	1.230949E-17
3.630000E+03	2.848680E-17	1.217096E-17
3.640000E+03	2.836831E-17	1.202973E-17
3.650000E+03	2.824188E-17	1.188596E-17
3.660000E+03	2.810709E-17	1.173958E-17
3.670000E+03	2.796447E-17	1.159089E-17
3.680000E+03	2.781335E-17	1.143970E-17
3.690000E+03	2.765399E-17	1.128620E-17
3.700000E+03	2.748634E-17	1.113046E-17
3.710000E+03	2.731068E-17	1.097269E-17
3.720000E+03	2.712672E-17	1.081284E-17
3.730000E+03	2.693473E-17	1.065112E-17
3.740000E+03	2.673474E-17	1.048763E-17
3.750000E+03	2.652705E-17	1.032255E-17
3.760000E+03	2.631170E-17	1.015599E-17
3.770000E+03	2.608898E-17	9.988148E-18
3.780000E+03	2.585896E-17	9.819114E-18
3.790000E+03	2.562170E-17	9.648990E-18
3.800000E+03	2.537802E-17	9.478158E-18
3.810000E+03	2.512749E-17	9.306525E-18
3.820000E+03	2.487068E-17	9.134370E-18
3.830000E+03	2.460814E-17	8.961959E-18
3.840000E+03	2.433971E-17	8.789292E-18
3.850000E+03	2.406571E-17	8.616543E-18
3.860000E+03	2.378669E-17	8.443961E-18
3.870000E+03	2.350295E-17	8.271701E-18
3.880000E+03	2.321478E-17	8.099915E-18
3.890000E+03	2.292227E-17	7.928675E-18
3.900000E+03	2.262592E-17	7.758196E-18
3.910000E+03	2.232604E-17	7.588613E-18
3.920000E+03	2.202289E-17	7.420054E-18
3.930000E+03	2.171675E-17	7.252640E-18
3.940000E+03	2.140790E-17	7.086489E-18
3.950000E+03	2.109680E-17	6.921775E-18
3.960000E+03	2.078370E-17	6.758598E-18
3.970000E+03	2.046866E-17	6.596994E-18
3.980000E+03	2.015231E-17	6.437175E-18
3.990000E+03	1.983468E-17	6.279163E-18
4.000000E+03	1.951619E-17	6.123093E-18
4.010000E+03	1.919706E-17	5.969037E-18
4.020000E+03	1.887733E-17	5.817007E-18
4.030000E+03	1.855756E-17	5.667170E-18
4.040000E+03	1.823777E-17	5.519528E-18
4.050000E+03	1.791832E-17	5.374181E-18
4.060000E+03	1.759941E-17	5.231172E-18
4.070000E+03	1.728120E-17	5.090540E-18
4.080000E+03	1.696388E-17	4.952319E-18
4.090000E+03	1.664776E-17	4.816583E-18
4.100000E+03	1.633285E-17	4.683314E-18
4.110000E+03	1.601932E-17	4.552534E-18
4.120000E+03	1.570760E-17	4.424340E-18
4.130000E+03	1.539755E-17	4.298666E-18
4.140000E+03	1.508944E-17	4.175560E-18
4.150000E+03	1.478343E-17	4.055027E-18
4.160000E+03	1.447962E-17	3.937069E-18
4.170000E+03	1.417815E-17	3.821684E-18
4.180000E+03	1.387914E-17	3.708869E-18
4.190000E+03	1.358269E-17	3.598616E-18
4.200000E+03	1.328893E-17	3.490915E-18
4.210000E+03	1.299795E-17	3.385753E-18
4.220000E+03	1.270986E-17	3.283114E-18
4.230000E+03	1.242464E-17	3.182952E-18
4.240000E+03	1.214240E-17	3.085249E-18
4.250000E+03	1.186333E-17	2.990010E-18
4.260000E+03	1.158752E-17	2.897210E-18
4.270000E+03	1.131484E-17	2.806772E-18
4.280000E+03	1.104549E-17	2.718695E-18
4.290000E+03	1.077953E-17	2.632950E-18
4.300000E+03	1.051705E-17	2.549504E-18
4.310000E+03	1.025811E-17	2.468325E-18
4.320000E+03	1.000268E-17	2.389357E-18
4.330000E+03	9.751012E-18	2.312606E-18
4.340000E+03	9.502976E-18	2.237994E-18
4.350000E+03	9.258797E-18	2.165521E-18
4.360000E+03	9.018516E-18	2.095145E-18
4.370000E+03	8.782248E-18	2.026842E-18
4.380000E+03	8.550020E-18	1.960566E-18
4.390000E+03	8.321931E-18	1.896289E-18
4.400000E+03	8.097996E-18	1.833963E-18
4.410000E+03	7.878366E-18	1.773572E-18
4.420000E+03	7.663039E-18	1.715066E-18
4.430000E+03	7.452008E-18	1.658393E-18
4.440000E+03	7.245396E-18	1.603532E-18
4.450000E+03	7.043180E-18	1.550432E-18
4.460000E+03	6.845397E-18	1.499055E-18
4.470000E+03	6.652137E-18	1.449373E-18
4.480000E+03	6.463295E-18	1.401322E-18
4.490000E+03	6.278947E-18	1.354875E-18
4.500000E+03	6.099096E-18	1.309991E-18
4.510000E+03	5.923682E-18	1.266618E-18
4.520000E+03	5.752699E-18	1.224717E-18
4.530000E+03	5.586133E-18	1.184248E-18
4.540000E+03	5.423963E-18	1.145172E-18
4.550000E+03	5.266165E-18	1.107450E-18
4.560000E+03	5.112656E-18	1.071034E-18
4.570000E+03	4.963355E-18	1.035876E-18
4.580000E+03	4.818320E-18	1.001960E-18
4.590000E+03	4.677414E-18	9.692306E-19
4.600000E+03	4.540547E-18	9.376431E-19
4.610000E+03	4.407718E-18	9.071734E-19
4.620000E+03	4.278872E-18	8.777877E-19
4.630000E+03	4.153833E-18	8.494286E-19
4.640000E+03	4.032668E-18	8.220897E-19
4.650000E+03	3.915162E-18	7.957087E-19
4.660000E+03	3.801336E-18	7.702722E-19
4.670000E+03	3.691091E-18	7.457442E-19
4.680000E+03	3.584332E-18	7.220897E-19
4.690000E+03	3.480964E-18	6.992756E-19
4.700000E+03	3.380892E-18	6.772700E-19
4.710000E+03	3.284091E-18	6.560552E-19
4.720000E+03	3.190434E-18	6.355946E-19
4.730000E+03	3.099830E-18	6.158596E-19
4.740000E+03	3.012222E-18	5.968288E-19
4.750000E+03	2.927460E-18	5.784639E-19
4.760000E+03	2.845550E-18	5.607571E-19
4.770000E+03	2.766319E-18	5.436670E-19
4.780000E+03	2.689744E-18	5.271818E-19
4.790000E+03	2.615743E-18	5.112787E-19
4.800000E+03	2.544185E-18	4.959263E-19
4.810000E+03	2.475024E-18	4.811096E-19
4.820000E+03	2.408210E-18	4.668137E-19
4.830000E+03	2.343622E-18	4.530106E-19
4.840000E+03	2.281215E-18	4.396870E-19
4.850000E+03	2.220923E-18	4.268260E-19
4.860000E+03	2.162657E-18	4.144067E-19
4.870000E+03	2.106355E-18	4.024137E-19
4.880000E+03	2.051978E-18	3.908362E-19
4.890000E+03	1.999443E-18	3.796556E-19
4.900000E+03	1.948714E-18	3.688621E-19
4.910000E+03	1.899695E-18	3.584348E-19
4.920000E+03	1.852353E-18	3.483650E-19
4.930000E+03	1.806634E-18	3.386405E-19
4.940000E+03	1.762470E-18	3.292462E-19
4.950000E+03	1.719829E-18	3.201744E-19
4.960000E+03	1.678648E-18	3.114112E-19
4.970000E+03	1.638898E-18	3.029495E-19
4.980000E+03	1.600516E-18	2.947762E-19
4.990000E+03	1.563461E-18	2.868819E-19
5.000000E+03	1.527676E-18	2.792548E-19
5.010000E+03	1.493152E-18	2.718919E-19
5.020000E+03	1.459820E-18	2.647791E-19
5.030000E+03	1.427643E-18	2.579088E-19
5.040000E+03	1.396602E-18	2.512757E-19
5.050000E+03	1.366645E-18	2.448701E-19
5.060000E+03	1.337741E-18	2.386847E-19
5.070000E+03	1.309858E-18	2.327129E-19
5.080000E+03	1.282965E-18	2.269483E-19
5.090000E+03	1.257019E-18	2.213822E-19
5.100000E+03	1.231992E-18	2.160087E-19
5.110000E+03	1.207870E-18	2.108245E-19
5.120000E+03	1.184602E-18	2.058198E-19
5.130000E+03	1.162186E-18	2.009935E-19
5.140000E+03	1.140564E-18	1.963344E-19
5.150000E+03	1.119735E-18	1.918421E-19
5.160000E+03	1.099665E-18	1.875098E-19
5.170000E+03	1.080335E-18	1.833332E-19
5.180000E+03	1.061722E-18	1.793082E-19
5.190000E+03	1.043797E-18	1.754290E-19
5.200000E+03	1.026542E-18	1.716919E-19
5.210000E+03	1.009928E-18	1.680914E-19
5.220000E+03	9.939590E-19	1.646278E-19
5.230000E+03	9.785881E-19	1.612926E-19
5.240000E+03	9.638102E-19	1.580844E-19
5.250000E+03	9.496107E-19	1.550004E-19
5.260000E+03	9.359751E-19	1.520376E-19
5.270000E+03	9.228711E-19	1.491904E-19
5.280000E+03	9.102955E-19	1.464578E-19
5.290000E+03	8.982270E-19	1.438358E-19
5.300000E+03	8.866541E-19	1.413224E-19
5.310000E+03	8.755569E-19	1.389139E-19
5.320000E+03	8.649340E-19	1.366096E-19
5.330000E+03	8.547578E-19	1.344050E-19
5.340000E+03	8.450192E-19	1.322981E-19
5.350000E+03	8.357008E-19	1.302860E-19
5.360000E+03	8.268027E-19	1.283683E-19
5.370000E+03	8.182921E-19	1.265396E-19
5.380000E+03	8.101697E-19	1.247998E-19
5.390000E+03	8.024203E-19	1.231460E-19
5.400000E+03	7.950291E-19	1.215758E-19
5.410000E+03	7.879661E-19	1.200842E-19
5.420000E+03	7.812176E-19	1.186689E-19
5.430000E+03	7.747706E-19	1.173275E-19
5.440000E+03	7.685815E-19	1.160531E-19
5.450000E+03	7.626383E-19	1.148436E-19
5.460000E+03	7.569064E-19	1.136935E-19
5.470000E+03	7.513671E-19	1.125995E-19
5.480000E+03	7.460393E-19	1.115641E-19
5.490000E+03	7.409113E-19	1.105850E-19
5.500000E+03	7.360010E-19	1.096644E-19
5.510000E+03	7.313110E-19	1.088022E-19
5.520000E+03	7.268655E-19	1.080014E-19
5.530000E+03	7.226518E-19	1.072593E-19
5.540000E+03	7.186787E-19	1.065766E-19
5.550000E+03	7.149406E-19	1.059519E-19
5.560000E+03	7.114535E-19	1.053867E-19
5.570000E+03	7.082043E-19	1.048783E-19
5.580000E+03	7.051944E-19	1.044264E-19
5.590000E+03	7.024181E-19	1.040292E-19
5.600000E+03	6.998839E-19	1.036874E-19
5.610000E+03	6.975791E-19	1.033983E-19
5.620000E+03	6.955053E-19	1.031614E-19
5.630000E+03	6.936641E-19	1.029764E-19
5.640000E+03	6.920501E-19	1.028418E-19
5.650000E+03	6.906653E-19	1.027571E-19
5.660000E+03	6.894974E-19	1.027201E-19
5.670000E+03	6.885484E-19	1.027304E-19
5.680000E+03	6.878209E-19	1.027878E-19
5.690000E+03	6.873099E-19	1.028911E-19
5.700000E+03	6.870109E-19	1.030393E-19
5.710000E+03	6.869195E-19	1.032311E-19
5.720000E+03	6.870459E-19	1.034678E-19
5.730000E+03	6.873714E-19	1.037462E-19
5.740000E+03	6.879065E-19	1.040677E-19
5.750000E+03	6.886474E-19	1.044313E-19
5.760000E+03	6.895829E-19	1.048352E-19
5.770000E+03	6.907170E-19	1.052799E-19
5.780000E+03	6.920534E-19	1.057658E-19
5.790000E+03	6.935816E-19	1.062912E-19
5.800000E+03	6.952980E-19	1.068557E-19
5.810000E+03	6.972149E-19	1.074612E-19
5.820000E+03	6.993140E-19	1.081049E-19
5.830000E+03	7.016000E-19	1.087877E-19
5.840000E+03	7.040701E-19	1.095094E-19
5.850000E+03	7.067216E-19	1.102699E-19
5.860000E+03	7.095596E-19	1.110702E-19
5.870000E+03	7.125660E-19	1.119078E-19
5.880000E+03	7.157540E-19	1.127853E-19
5.890000E+03	7.191131E-19	1.137015E-19
5.900000E+03	7.226410E-19	1.146564E-19
5.910000E+03	7.263352E-19	1.156503E-19
5.920000E+03	7.301933E-19	1.166835E-19
5.930000E+03	7.342214E-19	1.177574E-19
5.940000E+03	7.384004E-19	1.188699E-19
5.950000E+03	7.427278E-19	1.200212E-19
5.960000E+03	7.472096E-19	1.212131E-19
5.970000E+03	7.518435E-19	1.224462E-19
5.980000E+03	7.566097E-19	1.237180E-19
5.990000E+03	7.615229E-19	1.250319E-19
6.000000E+03	7.665541E-19	1.263841E-19
6.010000E+03	7.717271E-19	1.277796E-19
6.020000E+03	7.770121E-19	1.292144E-19
6.030000E+03	7.824059E-19	1.306891E-19
6.040000E+03	7.879145E-19	1.322057E-19
6.050000E+03	7.935252E-19	1.337632E-19
6.060000E+03	7.992346E-19	1.353623E-19
6.070000E+03	8.050199E-19	1.370000E-19
6.080000E+03	8.108963E-19	1.386802E-19
6.090000E+03	8.168306E-19	1.403982E-19
6.100000E+03	8.228380E-19	1.421578E-19
6.110000E+03	8.289041E-19	1.439575E-19
6.120000E+03	8.350141E-19	1.457959E-19
6.130000E+03	8.411629E-19	1.476730E-19
6.140000E+03	8.473560E-19	1.495907E-19
6.150000E+03	8.535776E-19	1.515474E-19
6.160000E+03	8.598227E-19	1.535428E-19
6.170000E+03	8.661072E-19	1.555808E-19
6.180000E+03	8.724047E-19	1.576573E-19
6.190000E+03	8.787206E-19	1.597741E-19
6.200000E+03	8.850609E-19	1.619329E-19
6.210000E+03	8.914321E-19	1.641356E-19
6.220000E+03	8.978181E-19	1.663798E-19
6.230000E+03	9.042139E-19	1.686650E-19
6.240000E+03	9.106262E-19	1.709930E-19
6.250000E+03	9.170385E-19	1.733608E-19
6.260000E+03	9.234577E-19	1.757702E-19
6.270000E+03	9.298789E-19	1.782203E-19
6.280000E+03	9.363100E-19	1.807128E-19
6.290000E+03	9.427465E-19	1.832470E-19
6.300000E+03	9.491840E-19	1.858219E-19
6.310000E+03	9.556311E-19	1.884393E-19
6.320000E+03	9.620970E-19	1.911009E-19
6.330000E+03	9.685649E-19	1.938031E-19
6.340000E+03	9.750442E-19	1.965478E-19
6.350000E+03	9.815452E-19	1.993367E-19
6.360000E+03	9.880510E-19	2.021662E-19
6.370000E+03	9.945861E-19	2.050411E-19
6.380000E+03	1.001148E-18	2.079606E-19
6.390000E+03	1.007735E-18	2.109238E-19
6.400000E+03	1.014344E-18	2.139300E-19
6.410000E+03	1.021002E-18	2.169845E-19
6.420000E+03	1.027693E-18	2.200835E-19
6.430000E+03	1.034446E-18	2.232330E-19
6.440000E+03	1.041260E-18	2.264324E-19
6.450000E+03	1.048135E-18	2.296815E-19
6.460000E+03	1.055085E-18	2.329832E-19
6.470000E+03	1.062113E-18	2.363375E-19
6.480000E+03	1.069233E-18	2.397478E-19
6.490000E+03	1.076414E-18	2.432067E-19
6.500000E+03	1.083689E-18	2.467213E-19
6.510000E+03	1.091060E-18	2.502919E-19
6.520000E+03	1.098510E-18	2.539144E-19
6.530000E+03	1.106057E-18	2.575929E-19
6.540000E+03	1.113704E-18	2.613274E-19
6.550000E+03	1.121451E-18	2.651181E-19
6.560000E+03	1.129299E-18	2.689652E-19
6.570000E+03	1.137270E-18	2.728733E-19
6.580000E+03	1.145346E-18	2.768384E-19
6.590000E+03	1.153530E-18	2.808608E-19
6.600000E+03	1.161843E-18	2.849454E-19
6.610000E+03	1.170288E-18	2.890928E-19
6.620000E+03	1.178847E-18	2.932989E-19
6.630000E+03	1.187544E-18	2.975690E-19
6.640000E+03	1.196360E-18	3.018987E-19
6.650000E+03	1.205339E-18	3.062990E-19
6.660000E+03	1.214445E-18	3.107603E-19
6.670000E+03	1.223679E-18	3.152832E-19
6.680000E+03	1.233066E-18	3.198738E-19
6.690000E+03	1.242609E-18	3.245330E-19
6.700000E+03	1.252290E-18	3.292562E-19
6.710000E+03	1.262113E-18	3.340440E-19
6.720000E+03	1.272103E-18	3.389032E-19
6.730000E+03	1.282241E-18	3.438288E-19
6.740000E+03	1.292553E-18	3.488279E-19
6.750000E+03	1.302999E-18	3.538892E-19
6.760000E+03	1.313626E-18	3.590259E-19
6.770000E+03	1.324393E-18	3.642264E-19
6.780000E+03	1.335351E-18	3.695048E-19
6.790000E+03	1.346455E-18	3.748487E-19
6.800000E+03	1.357733E-18	3.802660E-19
6.810000E+03	1.369190E-18	3.857577E-19
6.820000E+03	1.380805E-18	3.913178E-19
6.830000E+03	1.392605E-18	3.969547E-19
6.840000E+03	1.404571E-18	4.026620E-19
6.850000E+03	1.416731E-18	4.084484E-19
6.860000E+03	1.429038E-18	4.142997E-19
6.870000E+03	1.441548E-18	4.202323E-19
6.880000E+03	1.454238E-18	4.262397E-19
6.890000E+03	1.467113E-18	4.323230E-19
6.900000E+03	1.480149E-18	4.384749E-19
6.910000E+03	1.493405E-18	4.447133E-19
6.920000E+03	1.506801E-18	4.510138E-19
6.930000E+03	1.520427E-18	4.574032E-19
6.940000E+03	1.534228E-18	4.638653E-19
6.950000E+03	1.548209E-18	4.704011E-19
6.960000E+03	1.562404E-18	4.770208E-19
6.970000E+03	1.576786E-18	4.837163E-19
6.980000E+03	1.591359E-18	4.904886E-19
6.990000E+03	1.606128E-18	4.973387E-19
7.000000E+03	1.621096E-18	5.042678E-19
7.010000E+03	1.636267E-18	5.112768E-19
7.020000E+03	1.651614E-18	5.183568E-19
7.030000E+03	1.667205E-18	5.255291E-19
7.040000E+03	1.682945E-18	5.327637E-19
7.050000E+03	1.698937E-18	5.400930E-19
7.060000E+03	1.715086E-18	5.474861E-19
7.070000E+03	1.731462E-18	5.549654E-19
7.080000E+03	1.748036E-18	5.625210E-19
7.090000E+03	1.764810E-18	5.701535E-19
7.100000E+03	1.781824E-18	5.778755E-19
7.110000E+03	1.799011E-18	5.856648E-19
7.120000E+03	1.816409E-18	5.935337E-19
7.130000E+03	1.833986E-18	6.014710E-19
7.140000E+03	1.851782E-18	6.094893E-19
7.150000E+03	1.869800E-18	6.175896E-19
7.160000E+03	1.888007E-18	6.257601E-19
7.170000E+03	1.906443E-18	6.340142E-19
7.180000E+03	1.925036E-18	6.423267E-19
7.190000E+03	1.943865E-18	6.507239E-19
7.200000E+03	1.962894E-18	6.591936E-19
7.210000E+03	1.982087E-18	6.677223E-19
7.220000E+03	2.001487E-18	6.763240E-19
7.230000E+03	2.021095E-18	6.849991E-19
7.240000E+03	2.040873E-18	6.937337E-19
7.250000E+03	2.060824E-18	7.025279E-19
7.260000E+03	2.080949E-18	7.113814E-19
7.270000E+03	2.101249E-18	7.202943E-19
7.280000E+03	2.121728E-18	7.292663E-19
7.290000E+03	2.142297E-18	7.382667E-19
7.300000E+03	2.163045E-18	7.473253E-19
7.310000E+03	2.183930E-18	7.564261E-19
7.320000E+03	2.204905E-18	7.655524E-19
7.330000E+03	2.226016E-18	7.747190E-19
7.340000E+03	2.247170E-18	7.838922E-19
7.350000E+03	2.268363E-18	7.930700E-19
7.360000E+03	2.289593E-18	8.022502E-19
7.370000E+03	2.310808E-18	8.114135E-19
7.380000E+03	2.332054E-18	8.205744E-19
7.390000E+03	2.353178E-18	8.296779E-19
7.400000E+03	2.374272E-18	8.387553E-19
7.410000E+03	2.395231E-18	8.477676E-19
7.420000E+03	2.416097E-18	8.567285E-19
7.430000E+03	2.436812E-18	8.656159E-19
7.440000E+03	2.457367E-18	8.744251E-19
7.450000E+03	2.477807E-18	8.831704E-19
7.460000E+03	2.498071E-18	8.918287E-19
7.470000E+03	2.518314E-18	9.004535E-19
7.480000E+03	2.538420E-18	9.090028E-19
7.490000E+03	2.558494E-18	9.175123E-19
7.500000E+03	2.578476E-18	9.259591E-19
7.510000E+03	2.598529E-18	9.344008E-19
7.520000E+03	2.618596E-18	9.428155E-19
7.530000E+03	2.638674E-18	9.512010E-19
7.540000E+03	2.658819E-18	9.595763E-19
7.550000E+03	2.679031E-18	9.679400E-19
7.560000E+03	2.699427E-18	9.763339E-19
7.570000E+03	2.719891E-18	9.847143E-19
7.580000E+03	2.740483E-18	9.931018E-19
7.590000E+03	2.761265E-18	1.001518E-18
7.600000E+03	2.782178E-18	1.009941E-18
7.610000E+03	2.803286E-18	1.018391E-18
7.620000E+03	2.824528E-18	1.026847E-18
7.630000E+03	2.846036E-18	1.035354E-18
7.640000E+03	2.867682E-18	1.043866E-18
7.650000E+03	2.889601E-18	1.052429E-18
7.660000E+03	2.911664E-18	1.060996E-18
7.670000E+03	2.934008E-18	1.069615E-18
7.680000E+03	2.956501E-18	1.078238E-18
7.690000E+03	2.979282E-18	1.086913E-18
7.700000E+03	3.002287E-18	1.095616E-18
7.710000E+03	3.025520E-18	1.104347E-18
7.720000E+03	3.048984E-18	1.113106E-18
7.730000E+03	3.072682E-18	1.121893E-18
7.740000E+03	3.096618E-18	1.130707E-18
7.750000E+03	3.120724E-18	1.139523E-18
7.760000E+03	3.145146E-18	1.148392E-18
