#wls	flux	fluxerr
1.600000E+03	1.706132E-16	1.667727E-16
1.640000E+03	1.758039E-16	1.689876E-16
1.680000E+03	1.806949E-16	1.706832E-16
1.720000E+03	1.852328E-16	1.718196E-16
1.760000E+03	1.893413E-16	1.723400E-16
1.800000E+03	1.929585E-16	1.722073E-16
1.840000E+03	1.960017E-16	1.713716E-16
1.880000E+03	1.984226E-16	1.698199E-16
1.920000E+03	2.001540E-16	1.675288E-16
1.960000E+03	2.011146E-16	1.644695E-16
2.000000E+03	2.012599E-16	1.606513E-16
2.040000E+03	2.005200E-16	1.560691E-16
2.080000E+03	1.988367E-16	1.507339E-16
2.120000E+03	1.961937E-16	1.446950E-16
2.160000E+03	1.925234E-16	1.379679E-16
2.200000E+03	1.877882E-16	1.305971E-16
2.240000E+03	1.819508E-16	1.226323E-16
2.280000E+03	1.749479E-16	1.141114E-16
2.320000E+03	1.669971E-16	1.052567E-16
2.360000E+03	1.583201E-16	9.627505E-17
2.400000E+03	1.490945E-16	8.732855E-17
2.440000E+03	1.394721E-16	7.854904E-17
2.480000E+03	1.295980E-16	7.005087E-17
2.520000E+03	1.196043E-16	6.192794E-17
2.560000E+03	1.096084E-16	5.425376E-17
2.600000E+03	9.972919E-17	4.709077E-17
2.640000E+03	9.007513E-17	4.048441E-17
2.680000E+03	8.074442E-17	3.446439E-17
2.720000E+03	7.182460E-17	2.904564E-17
2.760000E+03	6.339562E-17	2.423080E-17
2.800000E+03	5.551470E-17	2.000590E-17
2.840000E+03	4.822905E-17	1.634742E-17
2.880000E+03	4.157602E-17	1.322381E-17
2.920000E+03	3.557777E-17	1.059550E-17
2.960000E+03	3.024276E-17	8.417294E-18
3.000000E+03	2.556026E-17	6.638959E-18
3.010000E+03	2.448828E-17	6.250615E-18
3.020000E+03	2.345464E-17	5.883104E-18
3.030000E+03	2.245902E-17	5.535687E-18
3.040000E+03	2.150052E-17	5.207489E-18
3.050000E+03	2.057824E-17	4.897661E-18
3.060000E+03	1.969169E-17	4.605473E-18
3.070000E+03	1.883951E-17	4.330006E-18
3.080000E+03	1.802155E-17	4.070650E-18
3.090000E+03	1.723642E-17	3.826530E-18
3.100000E+03	1.648351E-17	3.596969E-18
3.110000E+03	1.576183E-17	3.381227E-18
3.120000E+03	1.507068E-17	3.178655E-18
3.130000E+03	1.440905E-17	2.988550E-18
3.140000E+03	1.377598E-17	2.810238E-18
3.150000E+03	1.317078E-17	2.643118E-18
3.160000E+03	1.259224E-17	2.486510E-18
3.170000E+03	1.203991E-17	2.339899E-18
3.180000E+03	1.151265E-17	2.202646E-18
3.190000E+03	1.100975E-17	2.074235E-18
3.200000E+03	1.053029E-17	1.954124E-18
3.210000E+03	1.007338E-17	1.841804E-18
3.220000E+03	9.638291E-18	1.736823E-18
3.230000E+03	9.224152E-18	1.638721E-18
3.240000E+03	8.829954E-18	1.547038E-18
3.250000E+03	8.455301E-18	1.461443E-18
3.260000E+03	8.098941E-18	1.381473E-18
3.270000E+03	7.760479E-18	1.306835E-18
3.280000E+03	7.438876E-18	1.237139E-18
3.290000E+03	7.133492E-18	1.172077E-18
3.300000E+03	6.843686E-18	1.111355E-18
3.310000E+03	6.568530E-18	1.054648E-18
3.320000E+03	6.307532E-18	1.001713E-18
3.330000E+03	6.060009E-18	9.522899E-19
3.340000E+03	5.825228E-18	9.061253E-19
3.350000E+03	5.602572E-18	8.629939E-19
3.360000E+03	5.391455E-18	8.226867E-19
3.370000E+03	5.191386E-18	7.850204E-19
3.380000E+03	5.001681E-18	7.497899E-19
3.390000E+03	4.821962E-18	7.168463E-19
3.400000E+03	4.651608E-18	6.860132E-19
3.410000E+03	4.490157E-18	6.571440E-19
3.420000E+03	4.337222E-18	6.301112E-19
3.430000E+03	4.192222E-18	6.047665E-19
3.440000E+03	4.054868E-18	5.810095E-19
3.450000E+03	3.924731E-18	5.587262E-19
3.460000E+03	3.801324E-18	5.377997E-19
3.470000E+03	3.684410E-18	5.181534E-19
3.480000E+03	3.573551E-18	4.996869E-19
3.490000E+03	3.468463E-18	4.823259E-19
3.500000E+03	3.368836E-18	4.659951E-19
3.510000E+03	3.274273E-18	4.506109E-19
3.520000E+03	3.184552E-18	4.361169E-19
3.530000E+03	3.099358E-18	4.224461E-19
3.540000E+03	3.018404E-18	4.095378E-19
3.550000E+03	2.941455E-18	3.973413E-19
3.560000E+03	2.868233E-18	3.858012E-19
3.570000E+03	2.798512E-18	3.748712E-19
3.580000E+03	2.732053E-18	3.645060E-19
3.590000E+03	2.668690E-18	3.546699E-19
3.600000E+03	2.608240E-18	3.453273E-19
3.610000E+03	2.550511E-18	3.364422E-19
3.620000E+03	2.495368E-18	3.279876E-19
3.630000E+03	2.442685E-18	3.199385E-19
3.640000E+03	2.392299E-18	3.122664E-19
3.650000E+03	2.344163E-18	3.049585E-19
3.660000E+03	2.298125E-18	2.979890E-19
3.670000E+03	2.254124E-18	2.913451E-19
3.680000E+03	2.212078E-18	2.850113E-19
3.690000E+03	2.171908E-18	2.789732E-19
3.700000E+03	2.133555E-18	2.732195E-19
3.710000E+03	2.096979E-18	2.677406E-19
3.720000E+03	2.062065E-18	2.625182E-19
3.730000E+03	2.028811E-18	2.575486E-19
3.740000E+03	1.997121E-18	2.528166E-19
3.750000E+03	1.966956E-18	2.483143E-19
3.760000E+03	1.938274E-18	2.440342E-19
3.770000E+03	1.910987E-18	2.399626E-19
3.780000E+03	1.885086E-18	2.360962E-19
3.790000E+03	1.860502E-18	2.324246E-19
3.800000E+03	1.837197E-18	2.289406E-19
3.810000E+03	1.815120E-18	2.256359E-19
3.820000E+03	1.794237E-18	2.225045E-19
3.830000E+03	1.774500E-18	2.195385E-19
3.840000E+03	1.755878E-18	2.167323E-19
3.850000E+03	1.738327E-18	2.140789E-19
3.860000E+03	1.721833E-18	2.115745E-19
3.870000E+03	1.706355E-18	2.092126E-19
3.880000E+03	1.691855E-18	2.069869E-19
3.890000E+03	1.678308E-18	2.048929E-19
3.900000E+03	1.665677E-18	2.029246E-19
3.910000E+03	1.653953E-18	2.010802E-19
3.920000E+03	1.643098E-18	1.993539E-19
3.930000E+03	1.633093E-18	1.977424E-19
3.940000E+03	1.623902E-18	1.962410E-19
3.950000E+03	1.615492E-18	1.948445E-19
3.960000E+03	1.607869E-18	1.935524E-19
3.970000E+03	1.600975E-18	1.923574E-19
3.980000E+03	1.594805E-18	1.912574E-19
3.990000E+03	1.589329E-18	1.902477E-19
4.000000E+03	1.584529E-18	1.893254E-19
4.010000E+03	1.580389E-18	1.884871E-19
4.020000E+03	1.576869E-18	1.877271E-19
4.030000E+03	1.573967E-18	1.870441E-19
4.040000E+03	1.571655E-18	1.864338E-19
4.050000E+03	1.569920E-18	1.858936E-19
4.060000E+03	1.568735E-18	1.854200E-19
4.070000E+03	1.568076E-18	1.850091E-19
4.080000E+03	1.567943E-18	1.846604E-19
4.090000E+03	1.568301E-18	1.843696E-19
4.100000E+03	1.569139E-18	1.841348E-19
4.110000E+03	1.570449E-18	1.839545E-19
4.120000E+03	1.572199E-18	1.838247E-19
4.130000E+03	1.574394E-18	1.837450E-19
4.140000E+03	1.577003E-18	1.837110E-19
4.150000E+03	1.580021E-18	1.837217E-19
4.160000E+03	1.583441E-18	1.837752E-19
4.170000E+03	1.587232E-18	1.838673E-19
4.180000E+03	1.591401E-18	1.839982E-19
4.190000E+03	1.595905E-18	1.841623E-19
4.200000E+03	1.600764E-18	1.843609E-19
4.210000E+03	1.605936E-18	1.845889E-19
4.220000E+03	1.611415E-18	1.848449E-19
4.230000E+03	1.617186E-18	1.851267E-19
4.240000E+03	1.623246E-18	1.854334E-19
4.250000E+03	1.629554E-18	1.857596E-19
4.260000E+03	1.636121E-18	1.861060E-19
4.270000E+03	1.642921E-18	1.864692E-19
4.280000E+03	1.649926E-18	1.868454E-19
4.290000E+03	1.657138E-18	1.872340E-19
4.300000E+03	1.664541E-18	1.876332E-19
4.310000E+03	1.672098E-18	1.880381E-19
4.320000E+03	1.679795E-18	1.884467E-19
4.330000E+03	1.687618E-18	1.888575E-19
4.340000E+03	1.695553E-18	1.892684E-19
4.350000E+03	1.703586E-18	1.896776E-19
4.360000E+03	1.711715E-18	1.900852E-19
4.370000E+03	1.719925E-18	1.904889E-19
4.380000E+03	1.728200E-18	1.908865E-19
4.390000E+03	1.736565E-18	1.912809E-19
4.400000E+03	1.745003E-18	1.916695E-19
4.410000E+03	1.753511E-18	1.920516E-19
4.420000E+03	1.762100E-18	1.924286E-19
4.430000E+03	1.770767E-18	1.927994E-19
4.440000E+03	1.779494E-18	1.931617E-19
4.450000E+03	1.788291E-18	1.935169E-19
4.460000E+03	1.797142E-18	1.938629E-19
4.470000E+03	1.806046E-18	1.941995E-19
4.480000E+03	1.814999E-18	1.945274E-19
4.490000E+03	1.823974E-18	1.948433E-19
4.500000E+03	1.832986E-18	1.951496E-19
4.510000E+03	1.842024E-18	1.954456E-19
4.520000E+03	1.851075E-18	1.957302E-19
4.530000E+03	1.860145E-18	1.960040E-19
4.540000E+03	1.869208E-18	1.962653E-19
4.550000E+03	1.878272E-18	1.965150E-19
4.560000E+03	1.887345E-18	1.967545E-19
4.570000E+03	1.896418E-18	1.969844E-19
4.580000E+03	1.905471E-18	1.972030E-19
4.590000E+03	1.914513E-18	1.974127E-19
4.600000E+03	1.923540E-18	1.976145E-19
4.610000E+03	1.932548E-18	1.978087E-19
4.620000E+03	1.941550E-18	1.979975E-19
4.630000E+03	1.950526E-18	1.981804E-19
4.640000E+03	1.959492E-18	1.983597E-19
4.650000E+03	1.968446E-18	1.985363E-19
4.660000E+03	1.977389E-18	1.987115E-19
4.670000E+03	1.986322E-18	1.988855E-19
4.680000E+03	1.995244E-18	1.990587E-19
4.690000E+03	2.004158E-18	1.992315E-19
4.700000E+03	2.013099E-18	1.994065E-19
4.710000E+03	2.022069E-18	1.995828E-19
4.720000E+03	2.031069E-18	1.997599E-19
4.730000E+03	2.040137E-18	1.999398E-19
4.740000E+03	2.049258E-18	2.001193E-19
4.750000E+03	2.058437E-18	2.002979E-19
4.760000E+03	2.067695E-18	2.004755E-19
4.770000E+03	2.077038E-18	2.006508E-19
4.780000E+03	2.086452E-18	2.008215E-19
4.790000E+03	2.095961E-18	2.009876E-19
4.800000E+03	2.105572E-18	2.011480E-19
4.810000E+03	2.115272E-18	2.013005E-19
4.820000E+03	2.125086E-18	2.014459E-19
4.830000E+03	2.135022E-18	2.015839E-19
4.840000E+03	2.145089E-18	2.017151E-19
4.850000E+03	2.155293E-18	2.018398E-19
4.860000E+03	2.165623E-18	2.019574E-19
4.870000E+03	2.176128E-18	2.020738E-19
4.880000E+03	2.186777E-18	2.021872E-19
4.890000E+03	2.197580E-18	2.023006E-19
4.900000E+03	2.208568E-18	2.024196E-19
4.910000E+03	2.219751E-18	2.025466E-19
4.920000E+03	2.231142E-18	2.026849E-19
4.930000E+03	2.242709E-18	2.028344E-19
4.940000E+03	2.254505E-18	2.030016E-19
4.950000E+03	2.266519E-18	2.031880E-19
4.960000E+03	2.278763E-18	2.033974E-19
4.970000E+03	2.291248E-18	2.036322E-19
4.980000E+03	2.303987E-18	2.038950E-19
4.990000E+03	2.316969E-18	2.041869E-19
5.000000E+03	2.330204E-18	2.045082E-19
5.010000E+03	2.343722E-18	2.048618E-19
5.020000E+03	2.357507E-18	2.052465E-19
5.030000E+03	2.371541E-18	2.056586E-19
5.040000E+03	2.385874E-18	2.061006E-19
5.050000E+03	2.400439E-18	2.065655E-19
5.060000E+03	2.415285E-18	2.070544E-19
5.070000E+03	2.430415E-18	2.075653E-19
5.080000E+03	2.445762E-18	2.080909E-19
5.090000E+03	2.461397E-18	2.086348E-19
5.100000E+03	2.477276E-18	2.091914E-19
5.110000E+03	2.493400E-18	2.097606E-19
5.120000E+03	2.509793E-18	2.103423E-19
5.130000E+03	2.526408E-18	2.109320E-19
5.140000E+03	2.543245E-18	2.115302E-19
5.150000E+03	2.560328E-18	2.121393E-19
5.160000E+03	2.577629E-18	2.127590E-19
5.170000E+03	2.595149E-18	2.133928E-19
5.180000E+03	2.612861E-18	2.140422E-19
5.190000E+03	2.630789E-18	2.147148E-19
5.200000E+03	2.648882E-18	2.154133E-19
5.210000E+03	2.667188E-18	2.161475E-19
5.220000E+03	2.685679E-18	2.169222E-19
5.230000E+03	2.704326E-18	2.177438E-19
5.240000E+03	2.723123E-18	2.186190E-19
5.250000E+03	2.742092E-18	2.195579E-19
5.260000E+03	2.761173E-18	2.205658E-19
5.270000E+03	2.780385E-18	2.216516E-19
5.280000E+03	2.799745E-18	2.228257E-19
5.290000E+03	2.819163E-18	2.240910E-19
5.300000E+03	2.838706E-18	2.254607E-19
5.310000E+03	2.858279E-18	2.269359E-19
5.320000E+03	2.877949E-18	2.285322E-19
5.330000E+03	2.897612E-18	2.302483E-19
5.340000E+03	2.917302E-18	2.320950E-19
5.350000E+03	2.936998E-18	2.340793E-19
5.360000E+03	2.956651E-18	2.362020E-19
5.370000E+03	2.976300E-18	2.384712E-19
5.380000E+03	2.995835E-18	2.408841E-19
5.390000E+03	3.015328E-18	2.434479E-19
5.400000E+03	3.034730E-18	2.461610E-19
5.410000E+03	3.054024E-18	2.490245E-19
5.420000E+03	3.073193E-18	2.520360E-19
5.430000E+03	3.092223E-18	2.551938E-19
5.440000E+03	3.111068E-18	2.584940E-19
5.450000E+03	3.129714E-18	2.619326E-19
5.460000E+03	3.148149E-18	2.655062E-19
5.470000E+03	3.166359E-18	2.692119E-19
5.480000E+03	3.184295E-18	2.730404E-19
5.490000E+03	3.201903E-18	2.769826E-19
5.500000E+03	3.219195E-18	2.810358E-19
5.510000E+03	3.236114E-18	2.851889E-19
5.520000E+03	3.252604E-18	2.894319E-19
5.530000E+03	3.268606E-18	2.937554E-19
5.540000E+03	3.284125E-18	2.981542E-19
5.550000E+03	3.299068E-18	3.026152E-19
5.560000E+03	3.313442E-18	3.071355E-19
5.570000E+03	3.327152E-18	3.117003E-19
5.580000E+03	3.340170E-18	3.163023E-19
5.590000E+03	3.352503E-18	3.209378E-19
5.600000E+03	3.364053E-18	3.255910E-19
5.610000E+03	3.374825E-18	3.302566E-19
5.620000E+03	3.384790E-18	3.349270E-19
5.630000E+03	3.393881E-18	3.395903E-19
5.640000E+03	3.402067E-18	3.442388E-19
5.650000E+03	3.409357E-18	3.488701E-19
5.660000E+03	3.415722E-18	3.534774E-19
5.670000E+03	3.421102E-18	3.580517E-19
5.680000E+03	3.425512E-18	3.625926E-19
5.690000E+03	3.428968E-18	3.670991E-19
5.700000E+03	3.431386E-18	3.715599E-19
5.710000E+03	3.432789E-18	3.759761E-19
5.720000E+03	3.433206E-18	3.803483E-19
5.730000E+03	3.432631E-18	3.846742E-19
5.740000E+03	3.431063E-18	3.889522E-19
5.750000E+03	3.428500E-18	3.931799E-19
5.760000E+03	3.424945E-18	3.973555E-19
5.770000E+03	3.420439E-18	4.014818E-19
5.780000E+03	3.414947E-18	4.055505E-19
5.790000E+03	3.408549E-18	4.095665E-19
5.800000E+03	3.401216E-18	4.135219E-19
5.810000E+03	3.392957E-18	4.174098E-19
5.820000E+03	3.383855E-18	4.212324E-19
5.830000E+03	3.373850E-18	4.249740E-19
5.840000E+03	3.362995E-18	4.286307E-19
5.850000E+03	3.351345E-18	4.321988E-19
5.860000E+03	3.338885E-18	4.356659E-19
5.870000E+03	3.325678E-18	4.390280E-19
5.880000E+03	3.311718E-18	4.422722E-19
5.890000E+03	3.297112E-18	4.454008E-19
5.900000E+03	3.281870E-18	4.484012E-19
5.910000E+03	3.266044E-18	4.512666E-19
5.920000E+03	3.249723E-18	4.539964E-19
5.930000E+03	3.232917E-18	4.565803E-19
5.940000E+03	3.215713E-18	4.590194E-19
5.950000E+03	3.198122E-18	4.613056E-19
5.960000E+03	3.180226E-18	4.634416E-19
5.970000E+03	3.162069E-18	4.654262E-19
5.980000E+03	3.143696E-18	4.672589E-19
5.990000E+03	3.125111E-18	4.689344E-19
6.000000E+03	3.106392E-18	4.704588E-19
6.010000E+03	3.087579E-18	4.718339E-19
6.020000E+03	3.068673E-18	4.730563E-19
6.030000E+03	3.049746E-18	4.741340E-19
6.040000E+03	3.030799E-18	4.750649E-19
6.050000E+03	3.011828E-18	4.758467E-19
6.060000E+03	2.992937E-18	4.764945E-19
6.070000E+03	2.974085E-18	4.770015E-19
6.080000E+03	2.955336E-18	4.773777E-19
6.090000E+03	2.936646E-18	4.776163E-19
6.100000E+03	2.918077E-18	4.777280E-19
6.110000E+03	2.899617E-18	4.777120E-19
6.120000E+03	2.881290E-18	4.775732E-19
6.130000E+03	2.863115E-18	4.773170E-19
6.140000E+03	2.845079E-18	4.769425E-19
6.150000E+03	2.827197E-18	4.764550E-19
6.160000E+03	2.809489E-18	4.758597E-19
6.170000E+03	2.791968E-18	4.751617E-19
6.180000E+03	2.774650E-18	4.743661E-19
6.190000E+03	2.757511E-18	4.734722E-19
6.200000E+03	2.740599E-18	4.724907E-19
6.210000E+03	2.723924E-18	4.714267E-19
6.220000E+03	2.707496E-18	4.702852E-19
6.230000E+03	2.691357E-18	4.690769E-19
6.240000E+03	2.675549E-18	4.678126E-19
6.250000E+03	2.660116E-18	4.665033E-19
6.260000E+03	2.645095E-18	4.651595E-19
6.270000E+03	2.630528E-18	4.637918E-19
6.280000E+03	2.616488E-18	4.624172E-19
6.290000E+03	2.602944E-18	4.610335E-19
6.300000E+03	2.590038E-18	4.596697E-19
6.310000E+03	2.577739E-18	4.583238E-19
6.320000E+03	2.566118E-18	4.570122E-19
6.330000E+03	2.555213E-18	4.557448E-19
6.340000E+03	2.545060E-18	4.545321E-19
6.350000E+03	2.535662E-18	4.533772E-19
6.360000E+03	2.527055E-18	4.522902E-19
6.370000E+03	2.519277E-18	4.512809E-19
6.380000E+03	2.512331E-18	4.503525E-19
6.390000E+03	2.506217E-18	4.495083E-19
6.400000E+03	2.500975E-18	4.487581E-19
6.410000E+03	2.496535E-18	4.480916E-19
6.420000E+03	2.492899E-18	4.475116E-19
6.430000E+03	2.490031E-18	4.470146E-19
6.440000E+03	2.487861E-18	4.465895E-19
6.450000E+03	2.486427E-18	4.462454E-19
6.460000E+03	2.485655E-18	4.459713E-19
6.470000E+03	2.485585E-18	4.457759E-19
6.480000E+03	2.486219E-18	4.456614E-19
6.490000E+03	2.487519E-18	4.456231E-19
6.500000E+03	2.489489E-18	4.456628E-19
6.510000E+03	2.492128E-18	4.457823E-19
6.520000E+03	2.495440E-18	4.459834E-19
6.530000E+03	2.499426E-18	4.462678E-19
6.540000E+03	2.504128E-18	4.466441E-19
6.550000E+03	2.509508E-18	4.471070E-19
6.560000E+03	2.515529E-18	4.476508E-19
6.570000E+03	2.522274E-18	4.482911E-19
6.580000E+03	2.529663E-18	4.490152E-19
6.590000E+03	2.537740E-18	4.498314E-19
6.600000E+03	2.546507E-18	4.507410E-19
6.610000E+03	2.555967E-18	4.517454E-19
6.620000E+03	2.566123E-18	4.528457E-19
6.630000E+03	2.576936E-18	4.540355E-19
6.640000E+03	2.588450E-18	4.553235E-19
6.650000E+03	2.600626E-18	4.567032E-19
6.660000E+03	2.613509E-18	4.581829E-19
6.670000E+03	2.627059E-18	4.597564E-19
6.680000E+03	2.641279E-18	4.614242E-19
6.690000E+03	2.656215E-18	4.631951E-19
6.700000E+03	2.671874E-18	4.650702E-19
6.710000E+03	2.688167E-18	4.670346E-19
6.720000E+03	2.705188E-18	4.691049E-19
6.730000E+03	2.722851E-18	4.712662E-19
6.740000E+03	2.741251E-18	4.735353E-19
6.750000E+03	2.760347E-18	4.759050E-19
6.760000E+03	2.780094E-18	4.783681E-19
6.770000E+03	2.800594E-18	4.809419E-19
6.780000E+03	2.821754E-18	4.836104E-19
6.790000E+03	2.843628E-18	4.863832E-19
6.800000E+03	2.866221E-18	4.892608E-19
6.810000E+03	2.889538E-18	4.922443E-19
6.820000E+03	2.913533E-18	4.953257E-19
6.830000E+03	2.938263E-18	4.985144E-19
6.840000E+03	2.963678E-18	5.018021E-19
6.850000E+03	2.989838E-18	5.051988E-19
6.860000E+03	3.016692E-18	5.086958E-19
6.870000E+03	3.044245E-18	5.122934E-19
6.880000E+03	3.072555E-18	5.160019E-19
6.890000E+03	3.101514E-18	5.198025E-19
6.900000E+03	3.131239E-18	5.237147E-19
6.910000E+03	3.161676E-18	5.277295E-19
6.920000E+03	3.192829E-18	5.318470E-19
6.930000E+03	3.224699E-18	5.360676E-19
6.940000E+03	3.257291E-18	5.403917E-19
6.950000E+03	3.290544E-18	5.448091E-19
6.960000E+03	3.324521E-18	5.493301E-19
6.970000E+03	3.359226E-18	5.539552E-19
6.980000E+03	3.394660E-18	5.586843E-19
6.990000E+03	3.430694E-18	5.634959E-19
7.000000E+03	3.467525E-18	5.684227E-19
7.010000E+03	3.504954E-18	5.734315E-19
7.020000E+03	3.543114E-18	5.785442E-19
7.030000E+03	3.581938E-18	5.837497E-19
7.040000E+03	3.621424E-18	5.890476E-19
7.050000E+03	3.661570E-18	5.944374E-19
7.060000E+03	3.702373E-18	5.999189E-19
7.070000E+03	3.743758E-18	6.054796E-19
7.080000E+03	3.785793E-18	6.111307E-19
7.090000E+03	3.828477E-18	6.168720E-19
7.100000E+03	3.871729E-18	6.226902E-19
7.110000E+03	3.915620E-18	6.285971E-19
7.120000E+03	3.960067E-18	6.345794E-19
7.130000E+03	4.005063E-18	6.406358E-19
7.140000E+03	4.050599E-18	6.467650E-19
7.150000E+03	4.096751E-18	6.529796E-19
7.160000E+03	4.143344E-18	6.592511E-19
7.170000E+03	4.190362E-18	6.655778E-19
7.180000E+03	4.237969E-18	6.719859E-19
7.190000E+03	4.285979E-18	6.784459E-19
7.200000E+03	4.334377E-18	6.849555E-19
7.210000E+03	4.383241E-18	6.915276E-19
7.220000E+03	4.432464E-18	6.981455E-19
7.230000E+03	4.482030E-18	7.048068E-19
7.240000E+03	4.531921E-18	7.115095E-19
7.250000E+03	4.582120E-18	7.182510E-19
7.260000E+03	4.632708E-18	7.250441E-19
7.270000E+03	4.683467E-18	7.318557E-19
7.280000E+03	4.734577E-18	7.387141E-19
7.290000E+03	4.785919E-18	7.456009E-19
7.300000E+03	4.837470E-18	7.525135E-19
7.310000E+03	4.889315E-18	7.594652E-19
7.320000E+03	4.941326E-18	7.664367E-19
7.330000E+03	4.993590E-18	7.734424E-19
7.340000E+03	5.046088E-18	7.804793E-19
7.350000E+03	5.098912E-18	7.875623E-19
7.360000E+03	5.152047E-18	7.946900E-19
7.370000E+03	5.205595E-18	8.018778E-19
7.380000E+03	5.259424E-18	8.091059E-19
7.390000E+03	5.313882E-18	8.164285E-19
7.400000E+03	5.368967E-18	8.238450E-19
7.410000E+03	5.424550E-18	8.313360E-19
7.420000E+03	5.481008E-18	8.389592E-19
7.430000E+03	5.538218E-18	8.466957E-19
7.440000E+03	5.596314E-18	8.545658E-19
7.450000E+03	5.655174E-18	8.625508E-19
7.460000E+03	5.714934E-18	8.706711E-19
7.470000E+03	5.775193E-18	8.788652E-19
7.480000E+03	5.836219E-18	8.871741E-19
7.490000E+03	5.897592E-18	8.955334E-19
7.500000E+03	5.959440E-18	9.039620E-19
7.510000E+03	6.021608E-18	9.124367E-19
7.520000E+03	6.083933E-18	9.209319E-19
7.530000E+03	6.146540E-18	9.294662E-19
7.540000E+03	6.208960E-18	9.379688E-19
7.550000E+03	6.271461E-18	9.464794E-19
7.560000E+03	6.333864E-18	9.549704E-19
7.570000E+03	6.396138E-18	9.634370E-19
7.580000E+03	6.458091E-18	9.718494E-19
7.590000E+03	6.519843E-18	9.802253E-19
7.600000E+03	6.581200E-18	9.885353E-19
7.610000E+03	6.642120E-18	9.967723E-19
7.620000E+03	6.702731E-18	1.004955E-18
7.630000E+03	6.762829E-18	1.013053E-18
7.640000E+03	6.822543E-18	1.021085E-18
7.650000E+03	6.881493E-18	1.028994E-18
7.660000E+03	6.939983E-18	1.036825E-18
7.670000E+03	6.997798E-18	1.044547E-18
7.680000E+03	7.055076E-18	1.052179E-18
7.690000E+03	7.111601E-18	1.059691E-18
7.700000E+03	7.167329E-18	1.067074E-18
7.710000E+03	7.222215E-18	1.074322E-18
7.720000E+03	7.276598E-18	1.081486E-18
7.730000E+03	7.329871E-18	1.088477E-18
7.740000E+03	7.382567E-18	1.095372E-18
7.750000E+03	7.434265E-18	1.102111E-18
7.760000E+03	7.485120E-18	1.108716E-18
