#wls	flux	fluxerr
1.600000E+03	1.701228E-16	1.654970E-16
1.640000E+03	1.750408E-16	1.674427E-16
1.680000E+03	1.796272E-16	1.688528E-16
1.720000E+03	1.838289E-16	1.696896E-16
1.760000E+03	1.875702E-16	1.698999E-16
1.800000E+03	1.907910E-16	1.694504E-16
1.840000E+03	1.934116E-16	1.682966E-16
1.880000E+03	1.953871E-16	1.664303E-16
1.920000E+03	1.966555E-16	1.638344E-16
1.960000E+03	1.971416E-16	1.604871E-16
2.000000E+03	1.968084E-16	1.564043E-16
2.040000E+03	1.955948E-16	1.515885E-16
2.080000E+03	1.934528E-16	1.460582E-16
2.120000E+03	1.903765E-16	1.398689E-16
2.160000E+03	1.863109E-16	1.330436E-16
2.200000E+03	1.812317E-16	1.256327E-16
2.240000E+03	1.751156E-16	1.176910E-16
2.280000E+03	1.679148E-16	1.092611E-16
2.320000E+03	1.598512E-16	1.005607E-16
2.360000E+03	1.511481E-16	9.179010E-17
2.400000E+03	1.419833E-16	8.310418E-17
2.440000E+03	1.325079E-16	7.462690E-17
2.480000E+03	1.228636E-16	6.646365E-17
2.520000E+03	1.131773E-16	5.869882E-17
2.560000E+03	1.035593E-16	5.139620E-17
2.600000E+03	9.411865E-17	4.460823E-17
2.640000E+03	8.495228E-17	3.837075E-17
2.680000E+03	7.614528E-17	3.270462E-17
2.720000E+03	6.777096E-17	2.761705E-17
2.760000E+03	5.989437E-17	2.310438E-17
2.800000E+03	5.255854E-17	1.914816E-17
2.840000E+03	4.579720E-17	1.572214E-17
2.880000E+03	3.963562E-17	1.279383E-17
2.920000E+03	3.408625E-17	1.032446E-17
2.960000E+03	2.915068E-17	8.271159E-18
3.000000E+03	2.481476E-17	6.587183E-18
3.010000E+03	2.382109E-17	6.218143E-18
3.020000E+03	2.286246E-17	5.868362E-18
3.030000E+03	2.193857E-17	5.537171E-18
3.040000E+03	2.104858E-17	5.223770E-18
3.050000E+03	2.019163E-17	4.927379E-18
3.060000E+03	1.936730E-17	4.647343E-18
3.070000E+03	1.857428E-17	4.382810E-18
3.080000E+03	1.781250E-17	4.133241E-18
3.090000E+03	1.708065E-17	3.897827E-18
3.100000E+03	1.637819E-17	3.675958E-18
3.110000E+03	1.570422E-17	3.466957E-18
3.120000E+03	1.505813E-17	3.270236E-18
3.130000E+03	1.443900E-17	3.085155E-18
3.140000E+03	1.384591E-17	2.911097E-18
3.150000E+03	1.327824E-17	2.747527E-18
3.160000E+03	1.273484E-17	2.593820E-18
3.170000E+03	1.221531E-17	2.449525E-18
3.180000E+03	1.171856E-17	2.314067E-18
3.190000E+03	1.124393E-17	2.186984E-18
3.200000E+03	1.079059E-17	2.067789E-18
3.210000E+03	1.035772E-17	1.956022E-18
3.220000E+03	9.944688E-18	1.851275E-18
3.230000E+03	9.550694E-18	1.753125E-18
3.240000E+03	9.174813E-18	1.661144E-18
3.250000E+03	8.816754E-18	1.575036E-18
3.260000E+03	8.475337E-18	1.494359E-18
3.270000E+03	8.150272E-18	1.418846E-18
3.280000E+03	7.840599E-18	1.348127E-18
3.290000E+03	7.545782E-18	1.281919E-18
3.300000E+03	7.265286E-18	1.219954E-18
3.310000E+03	6.998262E-18	1.161922E-18
3.320000E+03	6.744327E-18	1.107604E-18
3.330000E+03	6.502889E-18	1.056758E-18
3.340000E+03	6.273292E-18	1.009142E-18
3.350000E+03	6.055005E-18	9.645464E-19
3.360000E+03	5.847518E-18	9.227734E-19
3.370000E+03	5.650420E-18	8.836506E-19
3.380000E+03	5.463084E-18	8.469807E-19
3.390000E+03	5.285210E-18	8.126255E-19
3.400000E+03	5.116227E-18	7.804122E-19
3.410000E+03	4.955731E-18	7.502016E-19
3.420000E+03	4.803399E-18	7.218730E-19
3.430000E+03	4.658680E-18	6.952780E-19
3.440000E+03	4.521349E-18	6.703226E-19
3.450000E+03	4.391014E-18	6.468936E-19
3.460000E+03	4.267211E-18	6.248719E-19
3.470000E+03	4.149754E-18	6.041843E-19
3.480000E+03	4.038222E-18	5.847275E-19
3.490000E+03	3.932362E-18	5.664266E-19
3.500000E+03	3.831890E-18	5.492055E-19
3.510000E+03	3.736414E-18	5.329767E-19
3.520000E+03	3.645738E-18	5.176832E-19
3.530000E+03	3.559556E-18	5.032554E-19
3.540000E+03	3.477586E-18	4.896301E-19
3.550000E+03	3.399607E-18	4.767545E-19
3.560000E+03	3.325339E-18	4.645702E-19
3.570000E+03	3.254562E-18	4.530288E-19
3.580000E+03	3.187038E-18	4.420814E-19
3.590000E+03	3.122608E-18	4.316919E-19
3.600000E+03	3.061093E-18	4.218225E-19
3.610000E+03	3.002297E-18	4.124344E-19
3.620000E+03	2.946093E-18	4.034998E-19
3.630000E+03	2.892359E-18	3.949924E-19
3.640000E+03	2.840927E-18	3.868807E-19
3.650000E+03	2.791768E-18	3.791527E-19
3.660000E+03	2.744723E-18	3.717798E-19
3.670000E+03	2.699740E-18	3.647485E-19
3.680000E+03	2.656742E-18	3.580425E-19
3.690000E+03	2.615654E-18	3.516465E-19
3.700000E+03	2.576425E-18	3.455485E-19
3.710000E+03	2.539026E-18	3.397402E-19
3.720000E+03	2.503338E-18	3.342017E-19
3.730000E+03	2.469376E-18	3.289312E-19
3.740000E+03	2.437045E-18	3.239127E-19
3.750000E+03	2.406315E-18	3.191391E-19
3.760000E+03	2.377157E-18	3.146034E-19
3.770000E+03	2.349480E-18	3.102912E-19
3.780000E+03	2.323293E-18	3.062011E-19
3.790000E+03	2.298527E-18	3.023220E-19
3.800000E+03	2.275154E-18	2.986476E-19
3.810000E+03	2.253124E-18	2.951700E-19
3.820000E+03	2.232410E-18	2.918835E-19
3.830000E+03	2.212965E-18	2.887804E-19
3.840000E+03	2.194761E-18	2.858556E-19
3.850000E+03	2.177755E-18	2.831018E-19
3.860000E+03	2.161937E-18	2.805166E-19
3.870000E+03	2.147265E-18	2.780932E-19
3.880000E+03	2.133698E-18	2.758248E-19
3.890000E+03	2.121210E-18	2.737074E-19
3.900000E+03	2.109763E-18	2.717347E-19
3.910000E+03	2.099352E-18	2.699051E-19
3.920000E+03	2.089937E-18	2.682125E-19
3.930000E+03	2.081499E-18	2.666535E-19
3.940000E+03	2.074001E-18	2.652226E-19
3.950000E+03	2.067409E-18	2.639143E-19
3.960000E+03	2.061735E-18	2.627296E-19
3.970000E+03	2.056916E-18	2.616594E-19
3.980000E+03	2.052950E-18	2.607028E-19
3.990000E+03	2.049804E-18	2.598548E-19
4.000000E+03	2.047465E-18	2.591129E-19
4.010000E+03	2.045918E-18	2.584744E-19
4.020000E+03	2.045116E-18	2.579328E-19
4.030000E+03	2.045064E-18	2.574878E-19
4.040000E+03	2.045732E-18	2.571350E-19
4.050000E+03	2.047110E-18	2.568721E-19
4.060000E+03	2.049169E-18	2.566952E-19
4.070000E+03	2.051885E-18	2.566000E-19
4.080000E+03	2.055262E-18	2.565868E-19
4.090000E+03	2.059260E-18	2.566495E-19
4.100000E+03	2.063871E-18	2.567864E-19
4.110000E+03	2.069086E-18	2.569956E-19
4.120000E+03	2.074866E-18	2.572716E-19
4.130000E+03	2.081220E-18	2.576147E-19
4.140000E+03	2.088110E-18	2.580194E-19
4.150000E+03	2.095528E-18	2.584842E-19
4.160000E+03	2.103471E-18	2.590075E-19
4.170000E+03	2.111900E-18	2.595841E-19
4.180000E+03	2.120828E-18	2.602146E-19
4.190000E+03	2.130200E-18	2.608918E-19
4.200000E+03	2.140046E-18	2.616183E-19
4.210000E+03	2.150313E-18	2.623870E-19
4.220000E+03	2.160998E-18	2.631969E-19
4.230000E+03	2.172081E-18	2.640447E-19
4.240000E+03	2.183559E-18	2.649295E-19
4.250000E+03	2.195381E-18	2.658441E-19
4.260000E+03	2.207559E-18	2.667898E-19
4.270000E+03	2.220059E-18	2.677614E-19
4.280000E+03	2.232843E-18	2.687539E-19
4.290000E+03	2.245909E-18	2.697666E-19
4.300000E+03	2.259239E-18	2.707965E-19
4.310000E+03	2.272775E-18	2.718365E-19
4.320000E+03	2.286500E-18	2.728839E-19
4.330000E+03	2.300390E-18	2.739356E-19
4.340000E+03	2.314426E-18	2.749889E-19
4.350000E+03	2.328586E-18	2.760410E-19
4.360000E+03	2.342867E-18	2.770912E-19
4.370000E+03	2.357247E-18	2.781368E-19
4.380000E+03	2.371706E-18	2.791752E-19
4.390000E+03	2.386278E-18	2.802104E-19
4.400000E+03	2.400943E-18	2.812399E-19
4.410000E+03	2.415700E-18	2.822636E-19
4.420000E+03	2.430568E-18	2.832837E-19
4.430000E+03	2.445548E-18	2.843003E-19
4.440000E+03	2.460620E-18	2.853114E-19
4.450000E+03	2.475807E-18	2.863198E-19
4.460000E+03	2.491091E-18	2.873235E-19
4.470000E+03	2.506475E-18	2.883233E-19
4.480000E+03	2.521963E-18	2.893199E-19
4.490000E+03	2.537519E-18	2.903097E-19
4.500000E+03	2.553168E-18	2.912959E-19
4.510000E+03	2.568895E-18	2.922775E-19
4.520000E+03	2.584686E-18	2.932533E-19
4.530000E+03	2.600548E-18	2.942249E-19
4.540000E+03	2.616446E-18	2.951890E-19
4.550000E+03	2.632388E-18	2.961471E-19
4.560000E+03	2.648384E-18	2.971012E-19
4.570000E+03	2.664423E-18	2.980507E-19
4.580000E+03	2.680470E-18	2.989926E-19
4.590000E+03	2.696539E-18	2.999290E-19
4.600000E+03	2.712619E-18	3.008595E-19
4.610000E+03	2.728700E-18	3.017837E-19
4.620000E+03	2.744798E-18	3.027039E-19
4.630000E+03	2.760881E-18	3.036172E-19
4.640000E+03	2.776965E-18	3.045261E-19
4.650000E+03	2.793044E-18	3.054301E-19
4.660000E+03	2.809112E-18	3.063291E-19
4.670000E+03	2.825165E-18	3.072227E-19
4.680000E+03	2.841197E-18	3.081107E-19
4.690000E+03	2.857204E-18	3.089928E-19
4.700000E+03	2.873234E-18	3.098740E-19
4.710000E+03	2.889285E-18	3.107541E-19
4.720000E+03	2.905357E-18	3.116330E-19
4.730000E+03	2.921501E-18	3.125159E-19
4.740000E+03	2.937692E-18	3.133998E-19
4.750000E+03	2.953931E-18	3.142848E-19
4.760000E+03	2.970249E-18	3.151734E-19
4.770000E+03	2.986647E-18	3.160658E-19
4.780000E+03	3.003103E-18	3.169591E-19
4.790000E+03	3.019647E-18	3.178564E-19
4.800000E+03	3.036284E-18	3.187579E-19
4.810000E+03	3.052992E-18	3.196610E-19
4.820000E+03	3.069803E-18	3.205692E-19
4.830000E+03	3.086722E-18	3.214831E-19
4.840000E+03	3.103758E-18	3.224034E-19
4.850000E+03	3.120915E-18	3.233308E-19
4.860000E+03	3.138173E-18	3.242635E-19
4.870000E+03	3.155595E-18	3.252083E-19
4.880000E+03	3.173131E-18	3.261605E-19
4.890000E+03	3.190787E-18	3.271213E-19
4.900000E+03	3.208601E-18	3.280948E-19
4.910000E+03	3.226579E-18	3.290825E-19
4.920000E+03	3.244729E-18	3.300857E-19
4.930000E+03	3.262998E-18	3.310994E-19
4.940000E+03	3.281453E-18	3.321312E-19
4.950000E+03	3.300070E-18	3.331791E-19
4.960000E+03	3.318856E-18	3.342442E-19
4.970000E+03	3.337815E-18	3.353277E-19
4.980000E+03	3.356955E-18	3.364304E-19
4.990000E+03	3.376247E-18	3.375500E-19
5.000000E+03	3.395697E-18	3.386872E-19
5.010000E+03	3.415340E-18	3.398459E-19
5.020000E+03	3.435147E-18	3.410232E-19
5.030000E+03	3.455088E-18	3.422163E-19
5.040000E+03	3.475231E-18	3.434321E-19
5.050000E+03	3.495477E-18	3.446610E-19
5.060000E+03	3.515893E-18	3.459097E-19
5.070000E+03	3.536479E-18	3.471786E-19
5.080000E+03	3.557133E-18	3.484579E-19
5.090000E+03	3.577953E-18	3.497580E-19
5.100000E+03	3.598868E-18	3.510725E-19
5.110000E+03	3.619876E-18	3.524020E-19
5.120000E+03	3.641004E-18	3.537506E-19
5.130000E+03	3.662180E-18	3.551125E-19
5.140000E+03	3.683394E-18	3.564888E-19
5.150000E+03	3.704675E-18	3.578843E-19
5.160000E+03	3.725979E-18	3.592972E-19
5.170000E+03	3.747297E-18	3.607294E-19
5.180000E+03	3.768582E-18	3.621798E-19
5.190000E+03	3.789859E-18	3.636543E-19
5.200000E+03	3.811041E-18	3.651486E-19
5.210000E+03	3.832191E-18	3.666729E-19
5.220000E+03	3.853256E-18	3.682269E-19
5.230000E+03	3.874185E-18	3.698106E-19
5.240000E+03	3.894960E-18	3.714277E-19
5.250000E+03	3.915604E-18	3.730856E-19
5.260000E+03	3.936022E-18	3.747811E-19
5.270000E+03	3.956234E-18	3.765218E-19
5.280000E+03	3.976261E-18	3.783155E-19
5.290000E+03	3.995966E-18	3.801551E-19
5.300000E+03	4.015446E-18	3.820559E-19
5.310000E+03	4.034564E-18	3.840104E-19
5.320000E+03	4.053417E-18	3.860337E-19
5.330000E+03	4.071866E-18	3.881178E-19
5.340000E+03	4.089969E-18	3.902736E-19
5.350000E+03	4.107707E-18	3.925041E-19
5.360000E+03	4.125018E-18	3.948079E-19
5.370000E+03	4.141965E-18	3.971952E-19
5.380000E+03	4.158404E-18	3.996560E-19
5.390000E+03	4.174440E-18	4.022036E-19
5.400000E+03	4.190014E-18	4.048351E-19
5.410000E+03	4.205107E-18	4.075511E-19
5.420000E+03	4.219703E-18	4.103516E-19
5.430000E+03	4.233785E-18	4.132364E-19
5.440000E+03	4.247295E-18	4.162005E-19
5.450000E+03	4.260217E-18	4.192426E-19
5.460000E+03	4.272537E-18	4.223609E-19
5.470000E+03	4.284240E-18	4.255534E-19
5.480000E+03	4.295272E-18	4.288131E-19
5.490000E+03	4.305574E-18	4.321328E-19
5.500000E+03	4.315180E-18	4.355135E-19
5.510000E+03	4.324035E-18	4.389470E-19
5.520000E+03	4.332083E-18	4.424252E-19
5.530000E+03	4.339273E-18	4.459390E-19
5.540000E+03	4.345638E-18	4.494887E-19
5.550000E+03	4.351083E-18	4.530604E-19
5.560000E+03	4.355643E-18	4.566538E-19
5.570000E+03	4.359225E-18	4.602548E-19
5.580000E+03	4.361823E-18	4.638584E-19
5.590000E+03	4.363477E-18	4.674641E-19
5.600000E+03	4.364095E-18	4.710576E-19
5.610000E+03	4.363719E-18	4.746386E-19
5.620000E+03	4.362348E-18	4.782023E-19
5.630000E+03	4.359940E-18	4.817390E-19
5.640000E+03	4.356495E-18	4.852442E-19
5.650000E+03	4.352063E-18	4.887183E-19
5.660000E+03	4.346648E-18	4.921571E-19
5.670000E+03	4.340212E-18	4.955515E-19
5.680000E+03	4.332809E-18	4.989024E-19
5.690000E+03	4.324494E-18	5.022115E-19
5.700000E+03	4.315188E-18	5.054646E-19
5.710000E+03	4.304951E-18	5.086633E-19
5.720000E+03	4.293841E-18	5.118096E-19
5.730000E+03	4.281877E-18	5.149002E-19
5.740000E+03	4.269076E-18	5.179318E-19
5.750000E+03	4.255459E-18	5.209013E-19
5.760000E+03	4.241049E-18	5.238054E-19
5.770000E+03	4.225913E-18	5.266464E-19
5.780000E+03	4.210032E-18	5.294155E-19
5.790000E+03	4.193522E-18	5.321208E-19
5.800000E+03	4.176368E-18	5.347535E-19
5.810000E+03	4.158598E-18	5.373102E-19
5.820000E+03	4.140333E-18	5.397993E-19
5.830000E+03	4.121516E-18	5.422060E-19
5.840000E+03	4.102226E-18	5.445328E-19
5.850000E+03	4.082541E-18	5.467826E-19
5.860000E+03	4.062453E-18	5.489463E-19
5.870000E+03	4.042042E-18	5.510271E-19
5.880000E+03	4.021300E-18	5.530160E-19
5.890000E+03	4.000355E-18	5.549227E-19
5.900000E+03	3.979199E-18	5.567387E-19
5.910000E+03	3.957872E-18	5.584619E-19
5.920000E+03	3.936454E-18	5.600965E-19
5.930000E+03	3.914941E-18	5.616350E-19
5.940000E+03	3.893414E-18	5.630822E-19
5.950000E+03	3.871866E-18	5.644310E-19
5.960000E+03	3.850378E-18	5.656872E-19
5.970000E+03	3.828987E-18	5.668507E-19
5.980000E+03	3.807727E-18	5.679216E-19
5.990000E+03	3.786588E-18	5.688940E-19
6.000000E+03	3.765649E-18	5.697752E-19
6.010000E+03	3.744940E-18	5.705665E-19
6.020000E+03	3.724449E-18	5.712629E-19
6.030000E+03	3.704249E-18	5.718727E-19
6.040000E+03	3.684324E-18	5.723913E-19
6.050000E+03	3.664658E-18	5.728144E-19
6.060000E+03	3.645362E-18	5.731580E-19
6.070000E+03	3.626374E-18	5.734113E-19
6.080000E+03	3.607758E-18	5.735842E-19
6.090000E+03	3.589450E-18	5.736657E-19
6.100000E+03	3.571510E-18	5.736662E-19
6.110000E+03	3.553914E-18	5.735818E-19
6.120000E+03	3.536678E-18	5.734159E-19
6.130000E+03	3.519817E-18	5.731720E-19
6.140000E+03	3.503299E-18	5.728464E-19
6.150000E+03	3.487136E-18	5.724424E-19
6.160000E+03	3.471340E-18	5.719636E-19
6.170000E+03	3.455918E-18	5.714132E-19
6.180000E+03	3.440877E-18	5.707948E-19
6.190000E+03	3.426181E-18	5.701043E-19
6.200000E+03	3.411877E-18	5.693522E-19
6.210000E+03	3.397968E-18	5.685417E-19
6.220000E+03	3.384458E-18	5.676760E-19
6.230000E+03	3.371390E-18	5.667654E-19
6.240000E+03	3.358809E-18	5.658205E-19
6.250000E+03	3.346760E-18	5.648516E-19
6.260000E+03	3.335285E-18	5.638693E-19
6.270000E+03	3.324427E-18	5.628842E-19
6.280000E+03	3.314275E-18	5.619142E-19
6.290000E+03	3.304782E-18	5.609548E-19
6.300000E+03	3.296127E-18	5.600395E-19
6.310000E+03	3.288262E-18	5.591636E-19
6.320000E+03	3.281278E-18	5.583456E-19
6.330000E+03	3.275219E-18	5.575963E-19
6.340000E+03	3.270133E-18	5.569264E-19
6.350000E+03	3.266019E-18	5.563391E-19
6.360000E+03	3.262926E-18	5.558452E-19
6.370000E+03	3.260902E-18	5.554558E-19
6.380000E+03	3.259951E-18	5.551739E-19
6.390000E+03	3.260075E-18	5.550025E-19
6.400000E+03	3.261327E-18	5.549528E-19
6.410000E+03	3.263616E-18	5.550114E-19
6.420000E+03	3.266947E-18	5.551813E-19
6.430000E+03	3.271275E-18	5.554568E-19
6.440000E+03	3.276506E-18	5.558238E-19
6.450000E+03	3.282693E-18	5.562929E-19
6.460000E+03	3.289739E-18	5.568495E-19
6.470000E+03	3.297695E-18	5.575040E-19
6.480000E+03	3.306567E-18	5.582584E-19
6.490000E+03	3.316304E-18	5.591061E-19
6.500000E+03	3.326911E-18	5.600489E-19
6.510000E+03	3.338389E-18	5.610884E-19
6.520000E+03	3.350743E-18	5.622263E-19
6.530000E+03	3.363973E-18	5.634643E-19
6.540000E+03	3.378139E-18	5.648129E-19
6.550000E+03	3.393190E-18	5.662648E-19
6.560000E+03	3.409077E-18	5.678127E-19
6.570000E+03	3.425912E-18	5.694759E-19
6.580000E+03	3.443591E-18	5.712378E-19
6.590000E+03	3.462172E-18	5.731090E-19
6.600000E+03	3.481661E-18	5.750909E-19
6.610000E+03	3.502063E-18	5.771848E-19
6.620000E+03	3.523384E-18	5.793923E-19
6.630000E+03	3.545572E-18	5.817051E-19
6.640000E+03	3.568689E-18	5.841340E-19
6.650000E+03	3.592683E-18	5.866705E-19
6.660000E+03	3.617618E-18	5.893257E-19
6.670000E+03	3.643442E-18	5.920910E-19
6.680000E+03	3.670158E-18	5.949673E-19
6.690000E+03	3.697836E-18	5.979659E-19
6.700000E+03	3.726483E-18	6.010882E-19
6.710000E+03	3.755979E-18	6.043146E-19
6.720000E+03	3.786458E-18	6.076669E-19
6.730000E+03	3.817796E-18	6.111252E-19
6.740000E+03	3.850133E-18	6.147116E-19
6.750000E+03	3.883409E-18	6.184165E-19
6.760000E+03	3.917562E-18	6.222301E-19
6.770000E+03	3.952737E-18	6.261751E-19
6.780000E+03	3.988802E-18	6.302303E-19
6.790000E+03	4.025834E-18	6.344078E-19
6.800000E+03	4.063841E-18	6.387085E-19
6.810000E+03	4.102830E-18	6.431332E-19
6.820000E+03	4.142735E-18	6.476713E-19
6.830000E+03	4.183637E-18	6.523351E-19
6.840000E+03	4.225466E-18	6.571136E-19
6.850000E+03	4.268307E-18	6.620194E-19
6.860000E+03	4.312089E-18	6.670410E-19
6.870000E+03	4.356817E-18	6.721790E-19
6.880000E+03	4.402577E-18	6.774463E-19
6.890000E+03	4.449213E-18	6.828185E-19
6.900000E+03	4.496894E-18	6.883210E-19
6.910000E+03	4.545543E-18	6.939418E-19
6.920000E+03	4.595166E-18	6.996812E-19
6.930000E+03	4.645767E-18	7.055395E-19
6.940000E+03	4.697352E-18	7.115169E-19
6.950000E+03	4.749833E-18	7.176002E-19
6.960000E+03	4.803304E-18	7.238029E-19
6.970000E+03	4.857768E-18	7.301252E-19
6.980000E+03	4.913230E-18	7.365672E-19
6.990000E+03	4.969501E-18	7.431004E-19
7.000000E+03	5.026869E-18	7.497675E-19
7.010000E+03	5.085044E-18	7.565249E-19
7.020000E+03	5.144222E-18	7.634015E-19
7.030000E+03	5.204303E-18	7.703821E-19
7.040000E+03	5.265285E-18	7.774662E-19
7.050000E+03	5.327166E-18	7.846531E-19
7.060000E+03	5.389942E-18	7.919423E-19
7.070000E+03	5.453501E-18	7.993171E-19
7.080000E+03	5.517945E-18	8.067923E-19
7.090000E+03	5.583270E-18	8.143672E-19
7.100000E+03	5.649356E-18	8.220243E-19
7.110000E+03	5.716308E-18	8.297790E-19
7.120000E+03	5.784003E-18	8.376134E-19
7.130000E+03	5.852429E-18	8.455259E-19
7.140000E+03	5.921573E-18	8.535150E-19
7.150000E+03	5.991545E-18	8.615967E-19
7.160000E+03	6.062086E-18	8.697342E-19
7.170000E+03	6.133175E-18	8.779250E-19
7.180000E+03	6.205049E-18	8.862037E-19
7.190000E+03	6.277436E-18	8.945318E-19
7.200000E+03	6.350311E-18	9.029067E-19
7.210000E+03	6.423787E-18	9.113453E-19
7.220000E+03	6.497706E-18	9.198262E-19
7.230000E+03	6.572043E-18	9.283469E-19
7.240000E+03	6.646770E-18	9.369047E-19
7.250000E+03	6.721860E-18	9.454972E-19
7.260000E+03	6.797431E-18	9.541422E-19
7.270000E+03	6.873161E-18	9.627963E-19
7.280000E+03	6.949316E-18	9.714983E-19
7.290000E+03	7.025717E-18	9.802248E-19
7.300000E+03	7.102333E-18	9.889734E-19
7.310000E+03	7.179287E-18	9.977633E-19
7.320000E+03	7.256394E-18	1.006570E-18
7.330000E+03	7.333780E-18	1.015414E-18
7.340000E+03	7.411418E-18	1.024294E-18
7.350000E+03	7.489448E-18	1.033229E-18
7.360000E+03	7.567848E-18	1.042220E-18
7.370000E+03	7.646768E-18	1.051289E-18
7.380000E+03	7.726019E-18	1.060412E-18
7.390000E+03	7.806113E-18	1.069661E-18
7.400000E+03	7.887051E-18	1.079038E-18
7.410000E+03	7.968650E-18	1.088518E-18
7.420000E+03	8.051462E-18	1.098178E-18
7.430000E+03	8.135316E-18	1.107997E-18
7.440000E+03	8.220414E-18	1.118002E-18
7.450000E+03	8.306577E-18	1.128170E-18
7.460000E+03	8.394014E-18	1.138530E-18
7.470000E+03	8.482141E-18	1.149002E-18
7.480000E+03	8.571358E-18	1.159640E-18
7.490000E+03	8.661056E-18	1.170364E-18
7.500000E+03	8.751428E-18	1.181197E-18
7.510000E+03	8.842252E-18	1.192110E-18
7.520000E+03	8.933298E-18	1.203071E-18
7.530000E+03	9.024755E-18	1.214105E-18
7.540000E+03	9.115943E-18	1.225118E-18
7.550000E+03	9.207262E-18	1.236163E-18
7.560000E+03	9.298456E-18	1.247204E-18
7.570000E+03	9.389486E-18	1.258233E-18
7.580000E+03	9.480075E-18	1.269213E-18
7.590000E+03	9.570410E-18	1.280166E-18
7.600000E+03	9.660206E-18	1.291052E-18
7.610000E+03	9.749410E-18	1.301861E-18
7.620000E+03	9.838210E-18	1.312618E-18
7.630000E+03	9.926308E-18	1.323279E-18
7.640000E+03	1.001390E-17	1.333870E-18
7.650000E+03	1.010042E-17	1.344313E-18
7.660000E+03	1.018631E-17	1.354667E-18
7.670000E+03	1.027127E-17	1.364887E-18
7.680000E+03	1.035548E-17	1.375000E-18
7.690000E+03	1.043862E-17	1.384960E-18
7.700000E+03	1.052063E-17	1.394758E-18
7.710000E+03	1.060143E-17	1.404385E-18
7.720000E+03	1.068151E-17	1.413904E-18
7.730000E+03	1.075998E-17	1.423196E-18
7.740000E+03	1.083761E-17	1.432364E-18
7.750000E+03	1.091377E-17	1.441326E-18
7.760000E+03	1.098867E-17	1.450110E-18
