#wls	flux	fluxerr
1.600000E+03	3.286960E-16	3.304330E-16
1.640000E+03	3.343940E-16	3.309204E-16
1.680000E+03	3.399732E-16	3.309845E-16
1.720000E+03	3.453803E-16	3.305732E-16
1.760000E+03	3.505886E-16	3.296626E-16
1.800000E+03	3.555342E-16	3.281975E-16
1.840000E+03	3.602090E-16	3.261780E-16
1.880000E+03	3.645670E-16	3.235723E-16
1.920000E+03	3.685295E-16	3.203243E-16
1.960000E+03	3.720166E-16	3.163838E-16
2.000000E+03	3.749486E-16	3.117085E-16
2.040000E+03	3.772732E-16	3.062857E-16
2.080000E+03	3.788165E-16	3.000126E-16
2.120000E+03	3.794951E-16	2.928719E-16
2.160000E+03	3.791919E-16	2.848308E-16
2.200000E+03	3.777262E-16	2.758215E-16
2.240000E+03	3.750567E-16	2.658938E-16
2.280000E+03	3.711233E-16	2.550908E-16
2.320000E+03	3.659844E-16	2.435429E-16
2.360000E+03	3.597397E-16	2.314046E-16
2.400000E+03	3.525196E-16	2.188434E-16
2.440000E+03	3.444901E-16	2.060386E-16
2.480000E+03	3.357399E-16	1.931115E-16
2.520000E+03	3.263927E-16	1.801960E-16
2.560000E+03	3.165447E-16	1.674011E-16
2.600000E+03	3.062487E-16	1.548056E-16
2.640000E+03	2.955700E-16	1.424897E-16
2.680000E+03	2.845538E-16	1.305182E-16
2.720000E+03	2.732606E-16	1.189581E-16
2.760000E+03	2.617382E-16	1.078648E-16
2.800000E+03	2.500437E-16	9.729178E-17
2.840000E+03	2.382370E-16	8.728670E-17
2.880000E+03	2.264137E-16	7.790186E-17
2.920000E+03	2.146658E-16	6.917732E-17
2.960000E+03	2.030913E-16	6.114366E-17
3.000000E+03	1.918179E-16	5.382771E-17
3.010000E+03	1.890623E-16	5.211287E-17
3.020000E+03	1.863338E-16	5.044331E-17
3.030000E+03	1.836338E-16	4.881893E-17
3.040000E+03	1.809679E-16	4.724066E-17
3.050000E+03	1.783375E-16	4.570821E-17
3.060000E+03	1.757440E-16	4.422127E-17
3.070000E+03	1.731887E-16	4.277952E-17
3.080000E+03	1.706733E-16	4.138260E-17
3.090000E+03	1.681993E-16	4.003013E-17
3.100000E+03	1.657717E-16	3.872251E-17
3.110000E+03	1.633918E-16	3.745919E-17
3.120000E+03	1.610579E-16	3.623889E-17
3.130000E+03	1.587779E-16	3.506253E-17
3.140000E+03	1.565470E-16	3.392808E-17
3.150000E+03	1.543698E-16	3.283567E-17
3.160000E+03	1.522507E-16	3.178524E-17
3.170000E+03	1.501883E-16	3.077549E-17
3.180000E+03	1.481869E-16	2.980631E-17
3.190000E+03	1.462450E-16	2.887639E-17
3.200000E+03	1.443669E-16	2.798555E-17
3.210000E+03	1.425539E-16	2.713300E-17
3.220000E+03	1.408049E-16	2.631748E-17
3.230000E+03	1.391238E-16	2.553869E-17
3.240000E+03	1.375121E-16	2.479582E-17
3.250000E+03	1.359711E-16	2.408806E-17
3.260000E+03	1.345022E-16	2.341458E-17
3.270000E+03	1.331067E-16	2.277455E-17
3.280000E+03	1.317861E-16	2.216715E-17
3.290000E+03	1.305397E-16	2.159122E-17
3.300000E+03	1.293730E-16	2.104662E-17
3.310000E+03	1.282834E-16	2.053186E-17
3.320000E+03	1.272743E-16	2.004646E-17
3.330000E+03	1.263454E-16	1.958932E-17
3.340000E+03	1.254999E-16	1.915997E-17
3.350000E+03	1.247396E-16	1.875760E-17
3.360000E+03	1.240621E-16	1.838090E-17
3.370000E+03	1.234729E-16	1.802969E-17
3.380000E+03	1.229700E-16	1.770272E-17
3.390000E+03	1.225569E-16	1.739955E-17
3.400000E+03	1.222354E-16	1.711950E-17
3.410000E+03	1.220039E-16	1.686145E-17
3.420000E+03	1.218677E-16	1.662525E-17
3.430000E+03	1.218254E-16	1.640984E-17
3.440000E+03	1.218791E-16	1.621467E-17
3.450000E+03	1.220310E-16	1.603921E-17
3.460000E+03	1.222816E-16	1.588274E-17
3.470000E+03	1.226348E-16	1.574502E-17
3.480000E+03	1.230898E-16	1.562519E-17
3.490000E+03	1.236490E-16	1.552285E-17
3.500000E+03	1.243134E-16	1.543745E-17
3.510000E+03	1.250871E-16	1.536882E-17
3.520000E+03	1.259696E-16	1.531629E-17
3.530000E+03	1.269621E-16	1.527938E-17
3.540000E+03	1.280688E-16	1.525803E-17
3.550000E+03	1.292879E-16	1.525148E-17
3.560000E+03	1.306221E-16	1.525952E-17
3.570000E+03	1.320743E-16	1.528198E-17
3.580000E+03	1.336442E-16	1.531835E-17
3.590000E+03	1.353343E-16	1.536849E-17
3.600000E+03	1.371442E-16	1.543193E-17
3.610000E+03	1.390750E-16	1.550839E-17
3.620000E+03	1.411290E-16	1.559775E-17
3.630000E+03	1.433038E-16	1.569941E-17
3.640000E+03	1.456028E-16	1.581342E-17
3.650000E+03	1.480249E-16	1.593935E-17
3.660000E+03	1.505698E-16	1.607689E-17
3.670000E+03	1.532355E-16	1.622559E-17
3.680000E+03	1.560229E-16	1.638528E-17
3.690000E+03	1.589307E-16	1.655562E-17
3.700000E+03	1.619556E-16	1.673607E-17
3.710000E+03	1.650972E-16	1.692638E-17
3.720000E+03	1.683526E-16	1.712611E-17
3.730000E+03	1.717171E-16	1.733458E-17
3.740000E+03	1.751917E-16	1.755177E-17
3.750000E+03	1.787687E-16	1.777675E-17
3.760000E+03	1.824446E-16	1.800902E-17
3.770000E+03	1.862173E-16	1.824824E-17
3.780000E+03	1.900767E-16	1.849327E-17
3.790000E+03	1.940211E-16	1.874383E-17
3.800000E+03	1.980411E-16	1.899882E-17
3.810000E+03	2.021317E-16	1.925765E-17
3.820000E+03	2.062859E-16	1.951947E-17
3.830000E+03	2.104938E-16	1.978319E-17
3.840000E+03	2.147472E-16	2.004785E-17
3.850000E+03	2.190389E-16	2.031261E-17
3.860000E+03	2.233575E-16	2.057619E-17
3.870000E+03	2.276952E-16	2.083766E-17
3.880000E+03	2.320395E-16	2.109565E-17
3.890000E+03	2.363818E-16	2.134914E-17
3.900000E+03	2.407110E-16	2.159686E-17
3.910000E+03	2.450158E-16	2.183755E-17
3.920000E+03	2.492870E-16	2.207008E-17
3.930000E+03	2.535109E-16	2.229293E-17
3.940000E+03	2.576780E-16	2.250498E-17
3.950000E+03	2.617790E-16	2.270508E-17
3.960000E+03	2.657979E-16	2.289150E-17
3.970000E+03	2.697302E-16	2.306352E-17
3.980000E+03	2.735625E-16	2.321965E-17
3.990000E+03	2.772838E-16	2.335859E-17
4.000000E+03	2.808859E-16	2.347933E-17
4.010000E+03	2.843562E-16	2.358044E-17
4.020000E+03	2.876898E-16	2.366119E-17
4.030000E+03	2.908773E-16	2.372046E-17
4.040000E+03	2.939098E-16	2.375723E-17
4.050000E+03	2.967765E-16	2.377030E-17
4.060000E+03	2.994745E-16	2.375918E-17
4.070000E+03	3.019967E-16	2.372306E-17
4.080000E+03	3.043364E-16	2.366118E-17
4.090000E+03	3.064879E-16	2.357292E-17
4.100000E+03	3.084457E-16	2.345772E-17
4.110000E+03	3.102081E-16	2.331536E-17
4.120000E+03	3.117687E-16	2.314533E-17
4.130000E+03	3.131273E-16	2.294765E-17
4.140000E+03	3.142819E-16	2.272228E-17
4.150000E+03	3.152314E-16	2.246935E-17
4.160000E+03	3.159756E-16	2.218916E-17
4.170000E+03	3.165154E-16	2.188220E-17
4.180000E+03	3.168554E-16	2.154937E-17
4.190000E+03	3.169932E-16	2.119124E-17
4.200000E+03	3.169354E-16	2.080919E-17
4.210000E+03	3.166900E-16	2.040491E-17
4.220000E+03	3.162578E-16	1.997983E-17
4.230000E+03	3.156488E-16	1.953631E-17
4.240000E+03	3.148689E-16	1.907672E-17
4.250000E+03	3.139304E-16	1.860418E-17
4.260000E+03	3.128411E-16	1.812193E-17
4.270000E+03	3.116102E-16	1.763373E-17
4.280000E+03	3.102555E-16	1.714427E-17
4.290000E+03	3.087829E-16	1.665802E-17
4.300000E+03	3.072120E-16	1.618072E-17
4.310000E+03	3.055554E-16	1.571816E-17
4.320000E+03	3.038291E-16	1.527668E-17
4.330000E+03	3.020470E-16	1.486283E-17
4.340000E+03	3.002284E-16	1.448352E-17
4.350000E+03	2.983904E-16	1.414540E-17
4.360000E+03	2.965470E-16	1.385453E-17
4.370000E+03	2.947219E-16	1.361656E-17
4.380000E+03	2.929274E-16	1.343532E-17
4.390000E+03	2.911812E-16	1.331317E-17
4.400000E+03	2.894856E-16	1.324843E-17
4.410000E+03	2.878386E-16	1.323611E-17
4.420000E+03	2.862295E-16	1.326941E-17
4.430000E+03	2.846567E-16	1.334118E-17
4.440000E+03	2.831115E-16	1.344357E-17
4.450000E+03	2.815855E-16	1.356883E-17
4.460000E+03	2.800787E-16	1.371000E-17
4.470000E+03	2.785845E-16	1.386042E-17
4.480000E+03	2.770999E-16	1.401431E-17
4.490000E+03	2.756229E-16	1.416675E-17
4.500000E+03	2.741525E-16	1.431364E-17
4.510000E+03	2.726864E-16	1.445157E-17
4.520000E+03	2.712280E-16	1.457814E-17
4.530000E+03	2.697790E-16	1.469152E-17
4.540000E+03	2.683395E-16	1.479039E-17
4.550000E+03	2.669103E-16	1.487397E-17
4.560000E+03	2.654974E-16	1.494226E-17
4.570000E+03	2.641051E-16	1.499557E-17
4.580000E+03	2.627329E-16	1.503431E-17
4.590000E+03	2.613906E-16	1.505981E-17
4.600000E+03	2.600759E-16	1.507299E-17
4.610000E+03	2.587965E-16	1.507561E-17
4.620000E+03	2.575577E-16	1.506951E-17
4.630000E+03	2.563628E-16	1.505660E-17
4.640000E+03	2.552175E-16	1.503913E-17
4.650000E+03	2.541229E-16	1.501920E-17
4.660000E+03	2.530900E-16	1.499960E-17
4.670000E+03	2.521180E-16	1.498250E-17
4.680000E+03	2.512163E-16	1.497070E-17
4.690000E+03	2.503896E-16	1.496673E-17
4.700000E+03	2.496457E-16	1.497321E-17
4.710000E+03	2.489878E-16	1.499238E-17
4.720000E+03	2.484247E-16	1.502661E-17
4.730000E+03	2.479573E-16	1.507691E-17
4.740000E+03	2.475878E-16	1.514288E-17
4.750000E+03	2.473082E-16	1.522312E-17
4.760000E+03	2.471186E-16	1.531658E-17
4.770000E+03	2.470171E-16	1.542202E-17
4.780000E+03	2.469995E-16	1.553802E-17
4.790000E+03	2.470671E-16	1.566350E-17
4.800000E+03	2.472166E-16	1.579713E-17
4.810000E+03	2.474470E-16	1.593781E-17
4.820000E+03	2.477574E-16	1.608454E-17
4.830000E+03	2.481471E-16	1.623638E-17
4.840000E+03	2.486125E-16	1.639236E-17
4.850000E+03	2.491575E-16	1.655204E-17
4.860000E+03	2.497732E-16	1.671427E-17
4.870000E+03	2.504631E-16	1.687879E-17
4.880000E+03	2.512226E-16	1.704489E-17
4.890000E+03	2.520522E-16	1.721226E-17
4.900000E+03	2.529444E-16	1.738012E-17
4.910000E+03	2.538989E-16	1.754825E-17
4.920000E+03	2.549129E-16	1.771627E-17
4.930000E+03	2.559807E-16	1.788365E-17
4.940000E+03	2.571015E-16	1.805025E-17
4.950000E+03	2.582693E-16	1.821556E-17
4.960000E+03	2.594834E-16	1.837947E-17
4.970000E+03	2.607349E-16	1.854132E-17
4.980000E+03	2.620256E-16	1.870119E-17
4.990000E+03	2.633469E-16	1.885844E-17
5.000000E+03	2.646979E-16	1.901300E-17
5.010000E+03	2.660729E-16	1.916443E-17
5.020000E+03	2.674715E-16	1.931269E-17
5.030000E+03	2.688908E-16	1.945757E-17
5.040000E+03	2.703227E-16	1.959845E-17
5.050000E+03	2.717673E-16	1.973534E-17
5.060000E+03	2.732222E-16	1.986806E-17
5.070000E+03	2.746854E-16	1.999643E-17
5.080000E+03	2.761490E-16	2.011988E-17
5.090000E+03	2.776165E-16	2.023866E-17
5.100000E+03	2.790859E-16	2.035262E-17
5.110000E+03	2.805468E-16	2.046098E-17
5.120000E+03	2.820053E-16	2.056420E-17
5.130000E+03	2.834535E-16	2.066170E-17
5.140000E+03	2.848887E-16	2.075330E-17
5.150000E+03	2.863082E-16	2.083880E-17
5.160000E+03	2.877059E-16	2.091781E-17
5.170000E+03	2.890809E-16	2.099028E-17
5.180000E+03	2.904262E-16	2.105578E-17
5.190000E+03	2.917373E-16	2.111403E-17
5.200000E+03	2.930091E-16	2.116475E-17
5.210000E+03	2.942298E-16	2.120720E-17
5.220000E+03	2.953992E-16	2.124149E-17
5.230000E+03	2.965075E-16	2.126707E-17
5.240000E+03	2.975445E-16	2.128338E-17
5.250000E+03	2.985023E-16	2.129007E-17
5.260000E+03	2.993728E-16	2.128682E-17
5.270000E+03	3.001448E-16	2.127309E-17
5.280000E+03	3.008125E-16	2.124882E-17
5.290000E+03	3.013614E-16	2.121334E-17
5.300000E+03	3.017861E-16	2.116668E-17
5.310000E+03	3.020725E-16	2.110833E-17
5.320000E+03	3.022158E-16	2.103847E-17
5.330000E+03	3.022062E-16	2.095699E-17
5.340000E+03	3.020374E-16	2.086411E-17
5.350000E+03	3.017046E-16	2.076017E-17
5.360000E+03	3.011979E-16	2.064525E-17
5.370000E+03	3.005180E-16	2.052018E-17
5.380000E+03	2.996613E-16	2.038558E-17
5.390000E+03	2.986289E-16	2.024238E-17
5.400000E+03	2.974176E-16	2.009128E-17
5.410000E+03	2.960386E-16	1.993393E-17
5.420000E+03	2.944898E-16	1.977110E-17
5.430000E+03	2.927803E-16	1.960424E-17
5.440000E+03	2.909211E-16	1.943492E-17
5.450000E+03	2.889107E-16	1.926374E-17
5.460000E+03	2.867500E-16	1.909135E-17
5.470000E+03	2.844416E-16	1.891838E-17
5.480000E+03	2.820155E-16	1.874712E-17
5.490000E+03	2.794999E-16	1.857948E-17
5.500000E+03	2.769175E-16	1.841676E-17
5.510000E+03	2.742904E-16	1.825983E-17
5.520000E+03	2.716411E-16	1.810935E-17
5.530000E+03	2.689863E-16	1.796553E-17
5.540000E+03	2.663536E-16	1.782919E-17
5.550000E+03	2.637594E-16	1.770040E-17
5.560000E+03	2.612218E-16	1.757934E-17
5.570000E+03	2.587635E-16	1.746654E-17
5.580000E+03	2.563980E-16	1.736198E-17
5.590000E+03	2.541429E-16	1.726598E-17
5.600000E+03	2.520139E-16	1.717882E-17
5.610000E+03	2.500226E-16	1.710060E-17
5.620000E+03	2.481814E-16	1.703153E-17
5.630000E+03	2.464981E-16	1.697163E-17
5.640000E+03	2.449789E-16	1.692081E-17
5.650000E+03	2.436303E-16	1.687915E-17
5.660000E+03	2.424520E-16	1.684624E-17
5.670000E+03	2.414517E-16	1.682232E-17
5.680000E+03	2.406231E-16	1.680667E-17
5.690000E+03	2.399678E-16	1.679915E-17
5.700000E+03	2.394811E-16	1.679920E-17
5.710000E+03	2.391542E-16	1.680600E-17
5.720000E+03	2.389845E-16	1.681915E-17
5.730000E+03	2.389608E-16	1.683767E-17
5.740000E+03	2.390760E-16	1.686085E-17
5.750000E+03	2.393195E-16	1.688773E-17
5.760000E+03	2.396829E-16	1.691752E-17
5.770000E+03	2.401521E-16	1.694898E-17
5.780000E+03	2.407206E-16	1.698142E-17
5.790000E+03	2.413714E-16	1.701340E-17
5.800000E+03	2.420956E-16	1.704401E-17
5.810000E+03	2.428843E-16	1.707235E-17
5.820000E+03	2.437267E-16	1.709736E-17
5.830000E+03	2.446098E-16	1.711780E-17
5.840000E+03	2.455264E-16	1.713284E-17
5.850000E+03	2.464701E-16	1.714170E-17
5.860000E+03	2.474272E-16	1.714307E-17
5.870000E+03	2.483931E-16	1.713625E-17
5.880000E+03	2.493637E-16	1.712061E-17
5.890000E+03	2.503277E-16	1.709500E-17
5.900000E+03	2.512857E-16	1.705911E-17
5.910000E+03	2.522337E-16	1.701231E-17
5.920000E+03	2.531625E-16	1.695368E-17
5.930000E+03	2.540724E-16	1.688294E-17
5.940000E+03	2.549645E-16	1.679991E-17
5.950000E+03	2.558319E-16	1.670394E-17
5.960000E+03	2.566770E-16	1.659505E-17
5.970000E+03	2.575001E-16	1.647321E-17
5.980000E+03	2.582991E-16	1.633830E-17
5.990000E+03	2.590757E-16	1.619057E-17
6.000000E+03	2.598319E-16	1.603042E-17
6.010000E+03	2.605676E-16	1.585824E-17
6.020000E+03	2.612891E-16	1.567501E-17
6.030000E+03	2.619976E-16	1.548156E-17
6.040000E+03	2.626978E-16	1.527918E-17
6.050000E+03	2.633890E-16	1.506908E-17
6.060000E+03	2.640835E-16	1.485353E-17
6.070000E+03	2.647786E-16	1.463427E-17
6.080000E+03	2.654884E-16	1.441432E-17
6.090000E+03	2.662115E-16	1.419630E-17
6.100000E+03	2.669637E-16	1.398413E-17
6.110000E+03	2.677451E-16	1.378138E-17
6.120000E+03	2.685700E-16	1.359282E-17
6.130000E+03	2.694499E-16	1.342346E-17
6.140000E+03	2.703943E-16	1.327861E-17
6.150000E+03	2.714133E-16	1.316382E-17
6.160000E+03	2.725244E-16	1.308514E-17
6.170000E+03	2.737424E-16	1.304833E-17
6.180000E+03	2.750827E-16	1.305877E-17
6.190000E+03	2.765606E-16	1.312115E-17
6.200000E+03	2.781878E-16	1.323757E-17
6.210000E+03	2.799555E-16	1.340569E-17
6.220000E+03	2.818424E-16	1.362143E-17
6.230000E+03	2.838410E-16	1.388068E-17
6.240000E+03	2.859332E-16	1.417838E-17
6.250000E+03	2.881043E-16	1.450942E-17
6.260000E+03	2.903477E-16	1.486909E-17
6.270000E+03	2.926501E-16	1.525248E-17
6.280000E+03	2.950024E-16	1.565516E-17
6.290000E+03	2.973921E-16	1.607282E-17
6.300000E+03	2.998076E-16	1.650151E-17
6.310000E+03	3.022496E-16	1.693833E-17
6.320000E+03	3.046996E-16	1.737966E-17
6.330000E+03	3.071559E-16	1.782314E-17
6.340000E+03	3.096049E-16	1.826604E-17
6.350000E+03	3.120460E-16	1.870666E-17
6.360000E+03	3.144668E-16	1.914287E-17
6.370000E+03	3.168637E-16	1.957326E-17
6.380000E+03	3.192337E-16	1.999672E-17
6.390000E+03	3.215609E-16	2.041145E-17
6.400000E+03	3.238477E-16	2.081699E-17
6.410000E+03	3.260881E-16	2.121246E-17
6.420000E+03	3.282763E-16	2.159712E-17
6.430000E+03	3.304118E-16	2.197068E-17
6.440000E+03	3.324945E-16	2.233297E-17
6.450000E+03	3.345251E-16	2.268394E-17
6.460000E+03	3.364998E-16	2.302331E-17
6.470000E+03	3.384150E-16	2.335088E-17
6.480000E+03	3.402725E-16	2.366683E-17
6.490000E+03	3.420593E-16	2.397036E-17
6.500000E+03	3.437831E-16	2.426213E-17
6.510000E+03	3.454416E-16	2.454212E-17
6.520000E+03	3.470331E-16	2.481036E-17
6.530000E+03	3.485558E-16	2.506692E-17
6.540000E+03	3.500086E-16	2.531188E-17
6.550000E+03	3.513960E-16	2.554573E-17
6.560000E+03	3.527116E-16	2.576821E-17
6.570000E+03	3.539607E-16	2.597987E-17
6.580000E+03	3.551431E-16	2.618088E-17
6.590000E+03	3.562530E-16	2.637099E-17
6.600000E+03	3.572963E-16	2.655080E-17
6.610000E+03	3.582736E-16	2.672051E-17
6.620000E+03	3.591852E-16	2.688031E-17
6.630000E+03	3.600318E-16	2.703042E-17
6.640000E+03	3.608142E-16	2.717102E-17
6.650000E+03	3.615331E-16	2.730231E-17
6.660000E+03	3.621833E-16	2.742404E-17
6.670000E+03	3.627715E-16	2.753683E-17
6.680000E+03	3.632925E-16	2.764040E-17
6.690000E+03	3.637532E-16	2.773539E-17
6.700000E+03	3.641543E-16	2.782194E-17
6.710000E+03	3.644902E-16	2.789972E-17
6.720000E+03	3.647616E-16	2.796886E-17
6.730000E+03	3.649752E-16	2.802994E-17
6.740000E+03	3.651187E-16	2.808209E-17
6.750000E+03	3.652055E-16	2.812637E-17
6.760000E+03	3.652294E-16	2.816234E-17
6.770000E+03	3.651842E-16	2.818956E-17
6.780000E+03	3.650768E-16	2.820858E-17
6.790000E+03	3.649074E-16	2.821941E-17
6.800000E+03	3.646697E-16	2.822157E-17
6.810000E+03	3.643707E-16	2.821559E-17
6.820000E+03	3.640041E-16	2.820097E-17
6.830000E+03	3.635771E-16	2.817824E-17
6.840000E+03	3.630766E-16	2.814638E-17
6.850000E+03	3.625167E-16	2.810646E-17
6.860000E+03	3.618846E-16	2.805746E-17
6.870000E+03	3.611945E-16	2.800047E-17
6.880000E+03	3.604339E-16	2.793450E-17
6.890000E+03	3.596104E-16	2.786015E-17
6.900000E+03	3.587185E-16	2.777696E-17
6.910000E+03	3.577662E-16	2.768558E-17
6.920000E+03	3.567479E-16	2.758558E-17
6.930000E+03	3.556720E-16	2.747762E-17
6.940000E+03	3.545263E-16	2.736080E-17
6.950000E+03	3.533263E-16	2.723631E-17
6.960000E+03	3.520668E-16	2.710380E-17
6.970000E+03	3.507429E-16	2.696290E-17
6.980000E+03	3.493702E-16	2.681484E-17
6.990000E+03	3.479371E-16	2.665875E-17
7.000000E+03	3.464524E-16	2.649533E-17
7.010000E+03	3.449118E-16	2.632424E-17
7.020000E+03	3.433241E-16	2.614615E-17
7.030000E+03	3.416850E-16	2.596073E-17
7.040000E+03	3.400036E-16	2.576863E-17
7.050000E+03	3.382691E-16	2.556899E-17
7.060000E+03	3.364974E-16	2.536294E-17
7.070000E+03	3.346778E-16	2.514962E-17
7.080000E+03	3.328263E-16	2.493012E-17
7.090000E+03	3.309324E-16	2.470354E-17
7.100000E+03	3.290055E-16	2.447046E-17
7.110000E+03	3.270420E-16	2.423046E-17
7.120000E+03	3.250513E-16	2.398407E-17
7.130000E+03	3.230364E-16	2.373132E-17
7.140000E+03	3.209872E-16	2.347127E-17
7.150000E+03	3.189196E-16	2.320490E-17
7.160000E+03	3.168366E-16	2.293218E-17
7.170000E+03	3.147282E-16	2.265217E-17
7.180000E+03	3.126038E-16	2.236532E-17
7.190000E+03	3.104662E-16	2.207160E-17
7.200000E+03	3.083119E-16	2.177054E-17
7.210000E+03	3.061564E-16	2.146300E-17
7.220000E+03	3.039894E-16	2.114807E-17
7.230000E+03	3.018138E-16	2.082577E-17
7.240000E+03	2.996381E-16	2.049654E-17
7.250000E+03	2.974524E-16	2.015957E-17
7.260000E+03	2.952713E-16	1.981581E-17
7.270000E+03	2.930910E-16	1.946495E-17
7.280000E+03	2.909137E-16	1.910720E-17
7.290000E+03	2.887354E-16	1.874242E-17
7.300000E+03	2.865585E-16	1.837099E-17
7.310000E+03	2.843914E-16	1.799377E-17
7.320000E+03	2.822304E-16	1.761097E-17
7.330000E+03	2.800723E-16	1.722299E-17
7.340000E+03	2.779199E-16	1.683077E-17
7.350000E+03	2.757764E-16	1.643548E-17
7.360000E+03	2.736454E-16	1.603850E-17
7.370000E+03	2.715250E-16	1.564114E-17
7.380000E+03	2.694140E-16	1.524505E-17
7.390000E+03	2.673176E-16	1.485253E-17
7.400000E+03	2.652302E-16	1.446563E-17
7.410000E+03	2.631697E-16	1.408805E-17
7.420000E+03	2.611267E-16	1.372232E-17
7.430000E+03	2.591095E-16	1.337232E-17
7.440000E+03	2.571329E-16	1.304253E-17
7.450000E+03	2.552126E-16	1.273774E-17
7.460000E+03	2.533541E-16	1.246234E-17
7.470000E+03	2.515802E-16	1.222161E-17
7.480000E+03	2.499036E-16	1.202014E-17
7.490000E+03	2.483480E-16	1.186265E-17
7.500000E+03	2.469213E-16	1.175244E-17
7.510000E+03	2.456473E-16	1.169267E-17
7.520000E+03	2.445275E-16	1.168319E-17
7.530000E+03	2.435486E-16	1.172043E-17
7.540000E+03	2.427020E-16	1.180014E-17
7.550000E+03	2.419689E-16	1.191704E-17
7.560000E+03	2.413477E-16	1.206643E-17
7.570000E+03	2.408216E-16	1.224282E-17
7.580000E+03	2.403807E-16	1.244122E-17
7.590000E+03	2.400214E-16	1.265727E-17
7.600000E+03	2.397360E-16	1.288677E-17
7.610000E+03	2.395178E-16	1.312599E-17
7.620000E+03	2.393556E-16	1.337138E-17
7.630000E+03	2.392552E-16	1.362078E-17
7.640000E+03	2.392013E-16	1.387123E-17
7.650000E+03	2.392013E-16	1.412144E-17
7.660000E+03	2.392408E-16	1.436921E-17
7.670000E+03	2.393280E-16	1.461396E-17
7.680000E+03	2.394493E-16	1.485408E-17
7.690000E+03	2.396134E-16	1.508953E-17
7.700000E+03	2.398128E-16	1.531947E-17
7.710000E+03	2.400453E-16	1.554357E-17
7.720000E+03	2.403036E-16	1.576127E-17
7.730000E+03	2.405972E-16	1.597321E-17
7.740000E+03	2.409187E-16	1.617904E-17
7.750000E+03	2.412664E-16	1.637884E-17
7.760000E+03	2.416332E-16	1.657233E-17
