#wls	flux	fluxerr
1.600000E+03	1.097712E-16	1.063520E-16
1.640000E+03	1.135653E-16	1.081975E-16
1.680000E+03	1.172851E-16	1.098100E-16
1.720000E+03	1.208801E-16	1.111430E-16
1.760000E+03	1.243423E-16	1.121919E-16
1.800000E+03	1.276139E-16	1.129086E-16
1.840000E+03	1.306565E-16	1.132671E-16
1.880000E+03	1.334511E-16	1.132605E-16
1.920000E+03	1.359310E-16	1.128447E-16
1.960000E+03	1.380615E-16	1.120070E-16
2.000000E+03	1.397853E-16	1.107206E-16
2.040000E+03	1.410669E-16	1.089807E-16
2.080000E+03	1.418329E-16	1.067578E-16
2.120000E+03	1.420273E-16	1.040421E-16
2.160000E+03	1.415943E-16	1.008298E-16
2.200000E+03	1.404487E-16	9.710256E-17
2.240000E+03	1.385215E-16	9.286132E-17
2.280000E+03	1.358011E-16	8.815151E-17
2.320000E+03	1.323252E-16	8.305163E-17
2.360000E+03	1.282150E-16	7.768905E-17
2.400000E+03	1.235711E-16	7.216920E-17
2.440000E+03	1.184826E-16	6.658290E-17
2.480000E+03	1.130438E-16	6.101637E-17
2.520000E+03	1.073137E-16	5.552919E-17
2.560000E+03	1.013618E-16	5.018086E-17
2.600000E+03	9.524913E-17	4.502019E-17
2.640000E+03	8.904083E-17	4.009206E-17
2.680000E+03	8.279246E-17	3.543069E-17
2.720000E+03	7.656162E-17	3.106537E-17
2.760000E+03	7.040400E-17	2.701864E-17
2.800000E+03	6.437303E-17	2.330627E-17
2.840000E+03	5.852080E-17	1.993788E-17
2.880000E+03	5.289873E-17	1.691728E-17
2.920000E+03	4.755378E-17	1.424160E-17
2.960000E+03	4.252777E-17	1.190172E-17
3.000000E+03	3.785343E-17	9.881995E-18
3.010000E+03	3.674363E-17	9.424961E-18
3.020000E+03	3.565662E-17	8.986021E-18
3.030000E+03	3.459406E-17	8.565154E-18
3.040000E+03	3.355513E-17	8.161702E-18
3.050000E+03	3.254053E-17	7.775391E-18
3.060000E+03	3.155085E-17	7.405899E-18
3.070000E+03	3.058461E-17	7.052428E-18
3.080000E+03	2.964363E-17	6.714947E-18
3.090000E+03	2.872648E-17	6.392672E-18
3.100000E+03	2.783416E-17	6.085380E-18
3.110000E+03	2.696589E-17	5.792445E-18
3.120000E+03	2.612146E-17	5.513384E-18
3.130000E+03	2.530166E-17	5.247923E-18
3.140000E+03	2.450524E-17	4.995361E-18
3.150000E+03	2.373332E-17	4.755503E-18
3.160000E+03	2.298425E-17	4.527588E-18
3.170000E+03	2.225903E-17	4.311401E-18
3.180000E+03	2.155648E-17	4.106309E-18
3.190000E+03	2.087708E-17	3.912000E-18
3.200000E+03	2.022007E-17	3.727944E-18
3.210000E+03	1.958543E-17	3.553759E-18
3.220000E+03	1.897277E-17	3.389004E-18
3.230000E+03	1.838167E-17	3.233248E-18
3.240000E+03	1.781141E-17	3.086020E-18
3.250000E+03	1.726219E-17	2.947020E-18
3.260000E+03	1.673326E-17	2.815799E-18
3.270000E+03	1.622443E-17	2.692018E-18
3.280000E+03	1.573498E-17	2.575261E-18
3.290000E+03	1.526445E-17	2.465171E-18
3.300000E+03	1.481262E-17	2.361441E-18
3.310000E+03	1.437878E-17	2.263702E-18
3.320000E+03	1.396265E-17	2.171667E-18
3.330000E+03	1.356375E-17	2.085027E-18
3.340000E+03	1.318121E-17	2.003428E-18
3.350000E+03	1.281493E-17	1.926651E-18
3.360000E+03	1.246426E-17	1.854399E-18
3.370000E+03	1.212872E-17	1.786420E-18
3.380000E+03	1.180785E-17	1.722470E-18
3.390000E+03	1.150089E-17	1.662278E-18
3.400000E+03	1.120771E-17	1.605672E-18
3.410000E+03	1.092773E-17	1.552428E-18
3.420000E+03	1.066039E-17	1.502331E-18
3.430000E+03	1.040528E-17	1.455202E-18
3.440000E+03	1.016202E-17	1.410872E-18
3.450000E+03	9.929985E-18	1.369146E-18
3.460000E+03	9.708933E-18	1.329893E-18
3.470000E+03	9.498289E-18	1.292942E-18
3.480000E+03	9.297732E-18	1.258163E-18
3.490000E+03	9.106842E-18	1.225421E-18
3.500000E+03	8.925222E-18	1.194590E-18
3.510000E+03	8.752496E-18	1.165554E-18
3.520000E+03	8.588307E-18	1.138203E-18
3.530000E+03	8.432225E-18	1.112423E-18
3.540000E+03	8.283847E-18	1.088110E-18
3.550000E+03	8.142887E-18	1.065179E-18
3.560000E+03	8.008983E-18	1.043539E-18
3.570000E+03	7.881884E-18	1.023118E-18
3.580000E+03	7.761185E-18	1.003826E-18
3.590000E+03	7.646669E-18	9.856039E-19
3.600000E+03	7.538051E-18	9.683833E-19
3.610000E+03	7.435211E-18	9.521216E-19
3.620000E+03	7.337812E-18	9.367503E-19
3.630000E+03	7.245680E-18	9.222244E-19
3.640000E+03	7.158440E-18	9.084753E-19
3.650000E+03	7.075946E-18	8.954652E-19
3.660000E+03	6.997987E-18	8.831504E-19
3.670000E+03	6.924365E-18	8.714897E-19
3.680000E+03	6.854951E-18	8.604528E-19
3.690000E+03	6.789621E-18	8.500108E-19
3.700000E+03	6.728193E-18	8.401285E-19
3.710000E+03	6.670611E-18	8.307880E-19
3.720000E+03	6.616699E-18	8.219569E-19
3.730000E+03	6.566461E-18	8.136265E-19
3.740000E+03	6.519784E-18	8.057737E-19
3.750000E+03	6.476555E-18	7.983765E-19
3.760000E+03	6.436719E-18	7.914205E-19
3.770000E+03	6.400276E-18	7.848986E-19
3.780000E+03	6.367115E-18	7.787902E-19
3.790000E+03	6.337233E-18	7.730888E-19
3.800000E+03	6.310518E-18	7.677748E-19
3.810000E+03	6.286916E-18	7.628355E-19
3.820000E+03	6.266423E-18	7.582652E-19
3.830000E+03	6.249033E-18	7.540579E-19
3.840000E+03	6.234638E-18	7.501952E-19
3.850000E+03	6.223283E-18	7.466777E-19
3.860000E+03	6.214810E-18	7.434813E-19
3.870000E+03	6.209314E-18	7.406129E-19
3.880000E+03	6.206638E-18	7.380488E-19
3.890000E+03	6.206876E-18	7.357957E-19
3.900000E+03	6.209922E-18	7.338362E-19
3.910000E+03	6.215768E-18	7.321650E-19
3.920000E+03	6.224360E-18	7.307710E-19
3.930000E+03	6.235690E-18	7.296488E-19
3.940000E+03	6.249703E-18	7.287873E-19
3.950000E+03	6.266442E-18	7.281872E-19
3.960000E+03	6.285801E-18	7.278315E-19
3.970000E+03	6.307775E-18	7.277152E-19
3.980000E+03	6.332308E-18	7.278272E-19
3.990000E+03	6.359445E-18	7.281683E-19
4.000000E+03	6.389132E-18	7.287277E-19
4.010000E+03	6.421313E-18	7.294947E-19
4.020000E+03	6.455934E-18	7.304588E-19
4.030000E+03	6.493042E-18	7.316211E-19
4.040000E+03	6.532534E-18	7.329656E-19
4.050000E+03	6.574459E-18	7.344938E-19
4.060000E+03	6.618713E-18	7.361901E-19
4.070000E+03	6.665295E-18	7.380508E-19
4.080000E+03	6.714207E-18	7.400723E-19
4.090000E+03	6.765399E-18	7.422458E-19
4.100000E+03	6.818820E-18	7.445626E-19
4.110000E+03	6.874420E-18	7.470144E-19
4.120000E+03	6.932259E-18	7.496052E-19
4.130000E+03	6.992234E-18	7.523216E-19
4.140000E+03	7.054353E-18	7.551627E-19
4.150000E+03	7.118512E-18	7.581162E-19
4.160000E+03	7.184720E-18	7.611819E-19
4.170000E+03	7.252987E-18	7.643605E-19
4.180000E+03	7.323210E-18	7.676413E-19
4.190000E+03	7.395401E-18	7.710263E-19
4.200000E+03	7.469456E-18	7.745059E-19
4.210000E+03	7.545386E-18	7.780833E-19
4.220000E+03	7.623086E-18	7.817505E-19
4.230000E+03	7.702569E-18	7.855120E-19
4.240000E+03	7.783726E-18	7.893612E-19
4.250000E+03	7.866507E-18	7.932978E-19
4.260000E+03	7.950799E-18	7.973164E-19
4.270000E+03	8.036612E-18	8.014241E-19
4.280000E+03	8.123827E-18	8.056165E-19
4.290000E+03	8.212388E-18	8.098955E-19
4.300000E+03	8.302168E-18	8.142569E-19
4.310000E+03	8.393039E-18	8.186964E-19
4.320000E+03	8.484930E-18	8.232162E-19
4.330000E+03	8.577769E-18	8.278180E-19
4.340000E+03	8.671414E-18	8.324965E-19
4.350000E+03	8.765782E-18	8.372519E-19
4.360000E+03	8.860718E-18	8.420770E-19
4.370000E+03	8.956205E-18	8.469767E-19
4.380000E+03	9.052148E-18	8.519476E-19
4.390000E+03	9.148676E-18	8.570059E-19
4.400000E+03	9.245697E-18	8.621454E-19
4.410000E+03	9.343266E-18	8.673723E-19
4.420000E+03	9.441367E-18	8.726844E-19
4.430000E+03	9.540141E-18	8.780926E-19
4.440000E+03	9.639500E-18	8.835852E-19
4.450000E+03	9.739435E-18	8.891565E-19
4.460000E+03	9.840018E-18	8.948076E-19
4.470000E+03	9.941247E-18	9.005315E-19
4.480000E+03	1.004312E-17	9.063211E-19
4.490000E+03	1.014556E-17	9.121614E-19
4.500000E+03	1.024864E-17	9.180527E-19
4.510000E+03	1.035230E-17	9.239804E-19
4.520000E+03	1.045653E-17	9.299380E-19
4.530000E+03	1.056136E-17	9.359200E-19
4.540000E+03	1.066661E-17	9.419054E-19
4.550000E+03	1.077240E-17	9.478986E-19
4.560000E+03	1.087864E-17	9.538886E-19
4.570000E+03	1.098537E-17	9.598741E-19
4.580000E+03	1.109242E-17	9.658382E-19
4.590000E+03	1.119992E-17	9.717904E-19
4.600000E+03	1.130770E-17	9.777159E-19
4.610000E+03	1.141591E-17	9.836269E-19
4.620000E+03	1.152439E-17	9.895107E-19
4.630000E+03	1.163318E-17	9.953728E-19
4.640000E+03	1.174225E-17	1.001211E-18
4.650000E+03	1.185175E-17	1.007041E-18
4.660000E+03	1.196154E-17	1.012854E-18
4.670000E+03	1.207179E-17	1.018667E-18
4.680000E+03	1.218250E-17	1.024481E-18
4.690000E+03	1.229362E-17	1.030294E-18
4.700000E+03	1.240538E-17	1.036128E-18
4.710000E+03	1.251764E-17	1.041972E-18
4.720000E+03	1.263051E-17	1.047836E-18
4.730000E+03	1.274388E-17	1.053713E-18
4.740000E+03	1.285786E-17	1.059611E-18
4.750000E+03	1.297221E-17	1.065511E-18
4.760000E+03	1.308706E-17	1.071424E-18
4.770000E+03	1.320229E-17	1.077340E-18
4.780000E+03	1.331803E-17	1.083270E-18
4.790000E+03	1.343416E-17	1.089204E-18
4.800000E+03	1.355068E-17	1.095145E-18
4.810000E+03	1.366760E-17	1.101093E-18
4.820000E+03	1.378492E-17	1.107053E-18
4.830000E+03	1.390265E-17	1.113028E-18
4.840000E+03	1.402067E-17	1.119011E-18
4.850000E+03	1.413910E-17	1.125018E-18
4.860000E+03	1.425793E-17	1.131055E-18
4.870000E+03	1.437705E-17	1.137117E-18
4.880000E+03	1.449643E-17	1.143209E-18
4.890000E+03	1.461621E-17	1.149349E-18
4.900000E+03	1.473608E-17	1.155519E-18
4.910000E+03	1.485631E-17	1.161745E-18
4.920000E+03	1.497674E-17	1.168021E-18
4.930000E+03	1.509717E-17	1.174335E-18
4.940000E+03	1.521773E-17	1.180700E-18
4.950000E+03	1.533834E-17	1.187112E-18
4.960000E+03	1.545883E-17	1.193557E-18
4.970000E+03	1.557925E-17	1.200039E-18
4.980000E+03	1.569924E-17	1.206526E-18
4.990000E+03	1.581900E-17	1.213031E-18
5.000000E+03	1.593829E-17	1.219528E-18
5.010000E+03	1.605684E-17	1.225992E-18
5.020000E+03	1.617468E-17	1.232418E-18
5.030000E+03	1.629151E-17	1.238775E-18
5.040000E+03	1.640721E-17	1.245046E-18
5.050000E+03	1.652159E-17	1.251209E-18
5.060000E+03	1.663450E-17	1.257245E-18
5.070000E+03	1.674559E-17	1.263121E-18
5.080000E+03	1.685482E-17	1.268827E-18
5.090000E+03	1.696184E-17	1.274333E-18
5.100000E+03	1.706644E-17	1.279618E-18
5.110000E+03	1.716822E-17	1.284650E-18
5.120000E+03	1.726712E-17	1.289425E-18
5.130000E+03	1.736258E-17	1.293900E-18
5.140000E+03	1.745469E-17	1.298087E-18
5.150000E+03	1.754285E-17	1.301949E-18
5.160000E+03	1.762701E-17	1.305486E-18
5.170000E+03	1.770672E-17	1.308678E-18
5.180000E+03	1.778156E-17	1.311507E-18
5.190000E+03	1.785144E-17	1.313982E-18
5.200000E+03	1.791595E-17	1.316088E-18
5.210000E+03	1.797482E-17	1.317829E-18
5.220000E+03	1.802780E-17	1.319206E-18
5.230000E+03	1.807448E-17	1.320212E-18
5.240000E+03	1.811461E-17	1.320854E-18
5.250000E+03	1.814779E-17	1.321127E-18
5.260000E+03	1.817399E-17	1.321054E-18
5.270000E+03	1.819281E-17	1.320631E-18
5.280000E+03	1.820408E-17	1.319870E-18
5.290000E+03	1.820763E-17	1.318780E-18
5.300000E+03	1.820314E-17	1.317360E-18
5.310000E+03	1.819050E-17	1.315621E-18
5.320000E+03	1.816962E-17	1.313573E-18
5.330000E+03	1.814046E-17	1.311227E-18
5.340000E+03	1.810282E-17	1.308581E-18
5.350000E+03	1.805692E-17	1.305659E-18
5.360000E+03	1.800282E-17	1.302472E-18
5.370000E+03	1.794065E-17	1.299031E-18
5.380000E+03	1.787039E-17	1.295335E-18
5.390000E+03	1.779263E-17	1.291421E-18
5.400000E+03	1.770744E-17	1.287290E-18
5.410000E+03	1.761552E-17	1.282981E-18
5.420000E+03	1.751704E-17	1.278496E-18
5.430000E+03	1.741261E-17	1.273862E-18
5.440000E+03	1.730270E-17	1.269097E-18
5.450000E+03	1.718817E-17	1.264242E-18
5.460000E+03	1.706939E-17	1.259304E-18
5.470000E+03	1.694679E-17	1.254289E-18
5.480000E+03	1.682066E-17	1.249194E-18
5.490000E+03	1.669168E-17	1.244039E-18
5.500000E+03	1.656019E-17	1.238823E-18
5.510000E+03	1.642676E-17	1.233557E-18
5.520000E+03	1.629195E-17	1.228254E-18
5.530000E+03	1.615634E-17	1.222926E-18
5.540000E+03	1.602052E-17	1.217589E-18
5.550000E+03	1.588522E-17	1.212269E-18
5.560000E+03	1.575102E-17	1.206982E-18
5.570000E+03	1.561878E-17	1.201769E-18
5.580000E+03	1.548887E-17	1.196634E-18
5.590000E+03	1.536226E-17	1.191631E-18
5.600000E+03	1.523928E-17	1.186765E-18
5.610000E+03	1.512065E-17	1.182078E-18
5.620000E+03	1.500707E-17	1.177612E-18
5.630000E+03	1.489874E-17	1.173372E-18
5.640000E+03	1.479658E-17	1.169423E-18
5.650000E+03	1.470085E-17	1.165783E-18
5.660000E+03	1.461176E-17	1.162468E-18
5.670000E+03	1.453009E-17	1.159542E-18
5.680000E+03	1.445583E-17	1.157006E-18
5.690000E+03	1.438938E-17	1.154900E-18
5.700000E+03	1.433109E-17	1.153258E-18
5.710000E+03	1.428114E-17	1.152105E-18
5.720000E+03	1.423969E-17	1.151460E-18
5.730000E+03	1.420686E-17	1.151344E-18
5.740000E+03	1.418291E-17	1.151785E-18
5.750000E+03	1.416806E-17	1.152811E-18
5.760000E+03	1.416211E-17	1.154410E-18
5.770000E+03	1.416555E-17	1.156629E-18
5.780000E+03	1.417815E-17	1.159451E-18
5.790000E+03	1.420025E-17	1.162906E-18
5.800000E+03	1.423175E-17	1.166983E-18
5.810000E+03	1.427284E-17	1.171697E-18
5.820000E+03	1.432357E-17	1.177044E-18
5.830000E+03	1.438414E-17	1.183032E-18
5.840000E+03	1.445443E-17	1.189643E-18
5.850000E+03	1.453447E-17	1.196866E-18
5.860000E+03	1.462447E-17	1.204703E-18
5.870000E+03	1.472462E-17	1.213156E-18
5.880000E+03	1.483462E-17	1.222183E-18
5.890000E+03	1.495484E-17	1.231796E-18
5.900000E+03	1.508512E-17	1.241964E-18
5.910000E+03	1.522564E-17	1.252683E-18
5.920000E+03	1.537641E-17	1.263936E-18
5.930000E+03	1.553722E-17	1.275688E-18
5.940000E+03	1.570824E-17	1.287937E-18
5.950000E+03	1.588940E-17	1.300662E-18
5.960000E+03	1.608045E-17	1.313831E-18
5.970000E+03	1.628166E-17	1.327455E-18
5.980000E+03	1.649255E-17	1.341488E-18
5.990000E+03	1.671315E-17	1.355928E-18
6.000000E+03	1.694326E-17	1.370760E-18
6.010000E+03	1.718249E-17	1.385956E-18
6.020000E+03	1.743076E-17	1.401520E-18
6.030000E+03	1.768737E-17	1.417410E-18
6.040000E+03	1.795239E-17	1.433653E-18
6.050000E+03	1.822500E-17	1.450210E-18
6.060000E+03	1.850500E-17	1.467098E-18
6.070000E+03	1.879166E-17	1.484299E-18
6.080000E+03	1.908447E-17	1.501819E-18
6.090000E+03	1.938261E-17	1.519647E-18
6.100000E+03	1.968521E-17	1.537775E-18
6.110000E+03	1.999182E-17	1.556233E-18
6.120000E+03	2.030099E-17	1.574979E-18
6.130000E+03	2.061219E-17	1.594046E-18
6.140000E+03	2.092409E-17	1.613410E-18
6.150000E+03	2.123586E-17	1.633084E-18
6.160000E+03	2.154558E-17	1.652999E-18
6.170000E+03	2.185261E-17	1.673176E-18
6.180000E+03	2.215524E-17	1.693552E-18
6.190000E+03	2.245231E-17	1.714090E-18
6.200000E+03	2.274244E-17	1.734720E-18
6.210000E+03	2.302544E-17	1.755439E-18
6.220000E+03	2.330157E-17	1.776257E-18
6.230000E+03	2.357118E-17	1.797182E-18
6.240000E+03	2.383477E-17	1.818218E-18
6.250000E+03	2.409200E-17	1.839298E-18
6.260000E+03	2.434417E-17	1.860470E-18
6.270000E+03	2.459079E-17	1.881641E-18
6.280000E+03	2.483269E-17	1.902819E-18
6.290000E+03	2.507047E-17	1.923987E-18
6.300000E+03	2.530378E-17	1.945060E-18
6.310000E+03	2.553332E-17	1.966031E-18
6.320000E+03	2.575950E-17	1.986874E-18
6.330000E+03	2.598275E-17	2.007570E-18
6.340000E+03	2.620285E-17	2.028049E-18
6.350000E+03	2.642029E-17	2.048302E-18
6.360000E+03	2.663522E-17	2.068300E-18
6.370000E+03	2.684781E-17	2.088017E-18
6.380000E+03	2.705785E-17	2.107405E-18
6.390000E+03	2.726512E-17	2.126418E-18
6.400000E+03	2.746940E-17	2.145014E-18
6.410000E+03	2.767081E-17	2.163185E-18
6.420000E+03	2.786913E-17	2.180897E-18
6.430000E+03	2.806325E-17	2.198053E-18
6.440000E+03	2.825452E-17	2.214750E-18
6.450000E+03	2.844307E-17	2.230997E-18
6.460000E+03	2.862947E-17	2.246836E-18
6.470000E+03	2.881474E-17	2.262350E-18
6.480000E+03	2.899863E-17	2.277524E-18
6.490000E+03	2.918220E-17	2.292447E-18
6.500000E+03	2.936563E-17	2.307142E-18
6.510000E+03	2.954958E-17	2.321670E-18
6.520000E+03	2.973334E-17	2.335982E-18
6.530000E+03	2.991845E-17	2.350214E-18
6.540000E+03	3.010421E-17	2.364316E-18
6.550000E+03	3.029124E-17	2.378351E-18
6.560000E+03	3.047974E-17	2.392343E-18
6.570000E+03	3.066940E-17	2.406276E-18
6.580000E+03	3.086085E-17	2.420211E-18
6.590000E+03	3.105426E-17	2.434167E-18
6.600000E+03	3.124928E-17	2.448125E-18
6.610000E+03	3.144604E-17	2.462103E-18
6.620000E+03	3.164466E-17	2.476115E-18
6.630000E+03	3.184578E-17	2.490217E-18
6.640000E+03	3.204846E-17	2.504341E-18
6.650000E+03	3.225332E-17	2.518539E-18
6.660000E+03	3.246045E-17	2.532822E-18
6.670000E+03	3.266938E-17	2.547155E-18
6.680000E+03	3.288073E-17	2.561590E-18
6.690000E+03	3.309399E-17	2.576089E-18
6.700000E+03	3.330978E-17	2.590700E-18
6.710000E+03	3.352700E-17	2.605337E-18
6.720000E+03	3.374625E-17	2.620047E-18
6.730000E+03	3.396813E-17	2.634874E-18
6.740000E+03	3.419150E-17	2.649725E-18
6.750000E+03	3.441694E-17	2.664642E-18
6.760000E+03	3.464385E-17	2.679574E-18
6.770000E+03	3.487283E-17	2.694559E-18
6.780000E+03	3.510325E-17	2.709540E-18
6.790000E+03	3.533508E-17	2.724506E-18
6.800000E+03	3.556894E-17	2.739492E-18
6.810000E+03	3.580350E-17	2.754387E-18
6.820000E+03	3.604000E-17	2.769273E-18
6.830000E+03	3.627709E-17	2.784034E-18
6.840000E+03	3.651603E-17	2.798753E-18
6.850000E+03	3.675542E-17	2.813311E-18
6.860000E+03	3.699516E-17	2.827689E-18
6.870000E+03	3.723583E-17	2.841921E-18
6.880000E+03	3.747734E-17	2.855991E-18
6.890000E+03	3.771820E-17	2.869777E-18
6.900000E+03	3.795966E-17	2.883371E-18
6.910000E+03	3.820090E-17	2.896707E-18
6.920000E+03	3.844250E-17	2.909829E-18
6.930000E+03	3.868288E-17	2.922618E-18
6.940000E+03	3.892261E-17	2.935122E-18
6.950000E+03	3.916153E-17	2.947335E-18
6.960000E+03	3.939874E-17	2.959198E-18
6.970000E+03	3.963482E-17	2.970765E-18
6.980000E+03	3.986965E-17	2.982037E-18
6.990000E+03	4.010228E-17	2.992957E-18
7.000000E+03	4.033258E-17	3.003527E-18
7.010000E+03	4.056038E-17	3.013749E-18
7.020000E+03	4.078636E-17	3.023687E-18
7.030000E+03	4.100878E-17	3.033225E-18
7.040000E+03	4.122914E-17	3.042486E-18
7.050000E+03	4.144571E-17	3.051355E-18
7.060000E+03	4.165922E-17	3.059893E-18
7.070000E+03	4.186875E-17	3.068043E-18
7.080000E+03	4.207508E-17	3.075867E-18
7.090000E+03	4.227814E-17	3.083366E-18
7.100000E+03	4.247708E-17	3.090477E-18
7.110000E+03	4.267098E-17	3.097136E-18
7.120000E+03	4.286155E-17	3.103463E-18
7.130000E+03	4.304794E-17	3.109392E-18
7.140000E+03	4.323015E-17	3.114916E-18
7.150000E+03	4.340822E-17	3.120029E-18
7.160000E+03	4.358128E-17	3.124658E-18
7.170000E+03	4.375026E-17	3.128857E-18
7.180000E+03	4.391430E-17	3.132554E-18
7.190000E+03	4.407346E-17	3.135739E-18
7.200000E+03	4.422869E-17	3.138466E-18
7.210000E+03	4.437914E-17	3.140663E-18
7.220000E+03	4.452579E-17	3.142387E-18
7.230000E+03	4.466684E-17	3.143503E-18
7.240000E+03	4.480325E-17	3.144071E-18
7.250000E+03	4.493507E-17	3.144093E-18
7.260000E+03	4.506235E-17	3.143571E-18
7.270000E+03	4.518512E-17	3.142515E-18
7.280000E+03	4.530341E-17	3.140936E-18
7.290000E+03	4.541627E-17	3.138787E-18
7.300000E+03	4.552468E-17	3.136158E-18
7.310000E+03	4.562867E-17	3.133081E-18
7.320000E+03	4.572824E-17	3.129596E-18
7.330000E+03	4.582241E-17	3.125680E-18
7.340000E+03	4.591219E-17	3.121455E-18
7.350000E+03	4.599859E-17	3.117053E-18
7.360000E+03	4.607964E-17	3.112407E-18
7.370000E+03	4.615636E-17	3.107666E-18
7.380000E+03	4.622879E-17	3.102916E-18
7.390000E+03	4.629801E-17	3.098322E-18
7.400000E+03	4.636306E-17	3.093916E-18
7.410000E+03	4.642503E-17	3.089873E-18
7.420000E+03	4.648509E-17	3.086376E-18
7.430000E+03	4.654228E-17	3.083466E-18
7.440000E+03	4.659884E-17	3.081397E-18
7.450000E+03	4.665281E-17	3.080137E-18
7.460000E+03	4.670536E-17	3.079861E-18
7.470000E+03	4.675559E-17	3.080588E-18
7.480000E+03	4.680471E-17	3.082468E-18
7.490000E+03	4.685069E-17	3.085419E-18
7.500000E+03	4.689476E-17	3.089549E-18
7.510000E+03	4.693704E-17	3.094872E-18
7.520000E+03	4.697658E-17	3.101301E-18
7.530000E+03	4.701570E-17	3.108937E-18
7.540000E+03	4.705234E-17	3.117566E-18
7.550000E+03	4.708771E-17	3.127172E-18
7.560000E+03	4.712080E-17	3.137575E-18
7.570000E+03	4.715283E-17	3.148732E-18
7.580000E+03	4.718275E-17	3.160441E-18
7.590000E+03	4.721174E-17	3.172651E-18
7.600000E+03	4.723873E-17	3.185160E-18
7.610000E+03	4.726375E-17	3.197846E-18
7.620000E+03	4.728793E-17	3.210677E-18
7.630000E+03	4.731015E-17	3.223477E-18
7.640000E+03	4.733039E-17	3.236159E-18
7.650000E+03	4.734975E-17	3.248732E-18
7.660000E+03	4.736705E-17	3.261062E-18
7.670000E+03	4.738338E-17	3.273190E-18
7.680000E+03	4.739632E-17	3.284929E-18
7.690000E+03	4.740812E-17	3.296425E-18
7.700000E+03	4.741867E-17	3.307677E-18
7.710000E+03	4.742669E-17	3.318609E-18
7.720000E+03	4.743321E-17	3.329316E-18
7.730000E+03	4.743692E-17	3.339735E-18
7.740000E+03	4.743765E-17	3.349884E-18
7.750000E+03	4.743642E-17	3.359870E-18
7.760000E+03	4.743308E-17	3.369714E-18
