#wls	flux	fluxerr
1.600000E+03	2.762990E-16	2.708652E-16
1.640000E+03	2.851006E-16	2.748841E-16
1.680000E+03	2.938457E-16	2.784559E-16
1.720000E+03	3.025828E-16	2.816184E-16
1.760000E+03	3.112113E-16	2.842705E-16
1.800000E+03	3.196778E-16	2.863605E-16
1.840000E+03	3.279468E-16	2.878567E-16
1.880000E+03	3.359182E-16	2.886756E-16
1.920000E+03	3.435112E-16	2.887578E-16
1.960000E+03	3.506365E-16	2.880446E-16
2.000000E+03	3.571476E-16	2.864394E-16
2.040000E+03	3.629713E-16	2.839166E-16
2.080000E+03	3.679092E-16	2.803625E-16
2.120000E+03	3.717739E-16	2.756905E-16
2.160000E+03	3.744165E-16	2.698595E-16
2.200000E+03	3.756407E-16	2.628108E-16
2.240000E+03	3.752204E-16	2.544856E-16
2.280000E+03	3.731338E-16	2.449818E-16
2.320000E+03	3.693426E-16	2.343926E-16
2.360000E+03	3.639790E-16	2.229220E-16
2.400000E+03	3.571898E-16	2.107740E-16
2.440000E+03	3.491155E-16	1.981380E-16
2.480000E+03	3.399045E-16	1.851971E-16
2.520000E+03	3.296419E-16	1.720889E-16
2.560000E+03	3.184691E-16	1.589722E-16
2.600000E+03	3.064621E-16	1.459618E-16
2.640000E+03	2.937193E-16	1.331756E-16
2.680000E+03	2.803282E-16	1.207167E-16
2.720000E+03	2.663991E-16	1.086883E-16
2.760000E+03	2.520364E-16	9.717910E-17
2.800000E+03	2.373509E-16	8.626849E-17
2.840000E+03	2.224790E-16	7.603162E-17
2.880000E+03	2.075556E-16	6.652755E-17
2.920000E+03	1.927328E-16	5.780514E-17
2.960000E+03	1.781644E-16	4.989656E-17
3.000000E+03	1.639990E-16	4.281573E-17
3.010000E+03	1.605361E-16	4.117444E-17
3.020000E+03	1.571094E-16	3.958448E-17
3.030000E+03	1.537201E-16	3.804537E-17
3.040000E+03	1.503729E-16	3.655738E-17
3.050000E+03	1.470656E-16	3.511907E-17
3.060000E+03	1.437997E-16	3.372985E-17
3.070000E+03	1.405824E-16	3.239045E-17
3.080000E+03	1.374088E-16	3.109869E-17
3.090000E+03	1.342857E-16	2.985511E-17
3.100000E+03	1.312113E-16	2.865819E-17
3.110000E+03	1.281868E-16	2.750707E-17
3.120000E+03	1.252181E-16	2.640191E-17
3.130000E+03	1.223010E-16	2.534064E-17
3.140000E+03	1.194390E-16	2.432279E-17
3.150000E+03	1.166329E-16	2.334733E-17
3.160000E+03	1.138857E-16	2.241361E-17
3.170000E+03	1.111958E-16	2.152012E-17
3.180000E+03	1.085661E-16	2.066613E-17
3.190000E+03	1.059971E-16	1.985049E-17
3.200000E+03	1.034875E-16	1.907170E-17
3.210000E+03	1.010397E-16	1.832895E-17
3.220000E+03	9.865595E-17	1.762138E-17
3.230000E+03	9.633308E-17	1.694717E-17
3.240000E+03	9.407476E-17	1.630575E-17
3.250000E+03	9.187800E-17	1.569538E-17
3.260000E+03	8.974754E-17	1.511568E-17
3.270000E+03	8.767887E-17	1.456470E-17
3.280000E+03	8.567349E-17	1.404157E-17
3.290000E+03	8.373263E-17	1.354536E-17
3.300000E+03	8.185464E-17	1.307473E-17
3.310000E+03	8.004049E-17	1.262878E-17
3.320000E+03	7.828729E-17	1.220605E-17
3.330000E+03	7.659584E-17	1.180569E-17
3.340000E+03	7.496560E-17	1.142669E-17
3.350000E+03	7.339597E-17	1.106806E-17
3.360000E+03	7.188626E-17	1.072884E-17
3.370000E+03	7.043471E-17	1.040795E-17
3.380000E+03	6.904063E-17	1.010452E-17
3.390000E+03	6.770327E-17	9.817704E-18
3.400000E+03	6.642182E-17	9.546683E-18
3.410000E+03	6.519456E-17	9.290552E-18
3.420000E+03	6.402068E-17	9.048579E-18
3.430000E+03	6.289937E-17	8.820062E-18
3.440000E+03	6.182896E-17	8.604220E-18
3.450000E+03	6.080865E-17	8.400427E-18
3.460000E+03	5.983761E-17	8.208087E-18
3.470000E+03	5.891353E-17	8.026435E-18
3.480000E+03	5.803639E-17	7.855052E-18
3.490000E+03	5.720470E-17	7.693345E-18
3.500000E+03	5.641703E-17	7.540763E-18
3.510000E+03	5.567267E-17	7.396875E-18
3.520000E+03	5.496964E-17	7.261108E-18
3.530000E+03	5.430732E-17	7.133096E-18
3.540000E+03	5.368447E-17	7.012411E-18
3.550000E+03	5.309994E-17	6.898657E-18
3.560000E+03	5.255259E-17	6.791463E-18
3.570000E+03	5.204135E-17	6.690483E-18
3.580000E+03	5.156465E-17	6.595322E-18
3.590000E+03	5.112209E-17	6.505756E-18
3.600000E+03	5.071219E-17	6.421433E-18
3.610000E+03	5.033462E-17	6.342162E-18
3.620000E+03	4.998747E-17	6.267566E-18
3.630000E+03	4.967102E-17	6.197551E-18
3.640000E+03	4.938296E-17	6.131711E-18
3.650000E+03	4.912309E-17	6.069915E-18
3.660000E+03	4.889024E-17	6.011920E-18
3.670000E+03	4.868425E-17	5.957613E-18
3.680000E+03	4.850354E-17	5.906714E-18
3.690000E+03	4.834798E-17	5.859131E-18
3.700000E+03	4.821653E-17	5.814663E-18
3.710000E+03	4.810908E-17	5.773230E-18
3.720000E+03	4.802462E-17	5.734646E-18
3.730000E+03	4.796352E-17	5.698896E-18
3.740000E+03	4.792432E-17	5.665750E-18
3.750000E+03	4.790739E-17	5.635201E-18
3.760000E+03	4.791218E-17	5.607135E-18
3.770000E+03	4.793860E-17	5.581492E-18
3.780000E+03	4.798610E-17	5.558166E-18
3.790000E+03	4.805502E-17	5.537150E-18
3.800000E+03	4.814435E-17	5.518291E-18
3.810000E+03	4.825442E-17	5.501584E-18
3.820000E+03	4.838508E-17	5.486977E-18
3.830000E+03	4.853621E-17	5.474417E-18
3.840000E+03	4.870764E-17	5.463850E-18
3.850000E+03	4.889879E-17	5.455175E-18
3.860000E+03	4.911036E-17	5.448435E-18
3.870000E+03	4.934215E-17	5.443575E-18
3.880000E+03	4.959355E-17	5.440492E-18
3.890000E+03	4.986479E-17	5.439176E-18
3.900000E+03	5.015566E-17	5.439569E-18
3.910000E+03	5.046635E-17	5.441657E-18
3.920000E+03	5.079619E-17	5.445333E-18
3.930000E+03	5.114579E-17	5.450625E-18
3.940000E+03	5.151444E-17	5.457419E-18
3.950000E+03	5.190272E-17	5.465739E-18
3.960000E+03	5.230989E-17	5.475465E-18
3.970000E+03	5.273560E-17	5.486523E-18
3.980000E+03	5.318040E-17	5.498927E-18
3.990000E+03	5.364346E-17	5.512549E-18
4.000000E+03	5.412483E-17	5.527353E-18
4.010000E+03	5.462407E-17	5.543252E-18
4.020000E+03	5.514118E-17	5.560203E-18
4.030000E+03	5.567567E-17	5.578116E-18
4.040000E+03	5.622703E-17	5.596897E-18
4.050000E+03	5.679514E-17	5.616499E-18
4.060000E+03	5.737990E-17	5.636872E-18
4.070000E+03	5.797972E-17	5.657827E-18
4.080000E+03	5.859535E-17	5.679405E-18
4.090000E+03	5.922510E-17	5.701417E-18
4.100000E+03	5.986917E-17	5.723858E-18
4.110000E+03	6.052624E-17	5.746585E-18
4.120000E+03	6.119592E-17	5.769549E-18
4.130000E+03	6.187728E-17	5.792657E-18
4.140000E+03	6.256929E-17	5.815819E-18
4.150000E+03	6.327088E-17	5.838947E-18
4.160000E+03	6.398091E-17	5.861958E-18
4.170000E+03	6.469869E-17	5.884823E-18
4.180000E+03	6.542292E-17	5.907470E-18
4.190000E+03	6.615171E-17	5.929788E-18
4.200000E+03	6.688360E-17	5.951720E-18
4.210000E+03	6.761706E-17	5.973223E-18
4.220000E+03	6.835103E-17	5.994311E-18
4.230000E+03	6.908328E-17	6.014913E-18
4.240000E+03	6.981205E-17	6.035021E-18
4.250000E+03	7.053491E-17	6.054593E-18
4.260000E+03	7.125055E-17	6.073697E-18
4.270000E+03	7.195643E-17	6.092321E-18
4.280000E+03	7.265053E-17	6.110515E-18
4.290000E+03	7.333080E-17	6.128346E-18
4.300000E+03	7.399396E-17	6.145791E-18
4.310000E+03	7.463914E-17	6.163042E-18
4.320000E+03	7.526303E-17	6.180096E-18
4.330000E+03	7.586359E-17	6.197057E-18
4.340000E+03	7.643818E-17	6.213978E-18
4.350000E+03	7.698619E-17	6.231063E-18
4.360000E+03	7.750391E-17	6.248246E-18
4.370000E+03	7.799101E-17	6.265704E-18
4.380000E+03	7.844605E-17	6.283484E-18
4.390000E+03	7.886853E-17	6.301655E-18
4.400000E+03	7.925907E-17	6.320265E-18
4.410000E+03	7.961816E-17	6.339239E-18
4.420000E+03	7.994790E-17	6.358577E-18
4.430000E+03	8.024796E-17	6.378037E-18
4.440000E+03	8.052091E-17	6.397576E-18
4.450000E+03	8.076748E-17	6.416982E-18
4.460000E+03	8.098925E-17	6.436091E-18
4.470000E+03	8.118932E-17	6.454855E-18
4.480000E+03	8.136739E-17	6.472959E-18
4.490000E+03	8.152749E-17	6.490435E-18
4.500000E+03	8.166943E-17	6.506998E-18
4.510000E+03	8.179666E-17	6.522662E-18
4.520000E+03	8.191047E-17	6.537296E-18
4.530000E+03	8.201290E-17	6.550849E-18
4.540000E+03	8.210599E-17	6.563294E-18
4.550000E+03	8.219028E-17	6.574511E-18
4.560000E+03	8.226921E-17	6.584638E-18
4.570000E+03	8.234326E-17	6.593598E-18
4.580000E+03	8.241431E-17	6.601456E-18
4.590000E+03	8.248422E-17	6.608295E-18
4.600000E+03	8.255479E-17	6.614215E-18
4.610000E+03	8.262699E-17	6.619272E-18
4.620000E+03	8.270174E-17	6.623534E-18
4.630000E+03	8.278065E-17	6.627139E-18
4.640000E+03	8.286527E-17	6.630237E-18
4.650000E+03	8.295710E-17	6.632981E-18
4.660000E+03	8.305602E-17	6.635407E-18
4.670000E+03	8.316418E-17	6.637736E-18
4.680000E+03	8.328211E-17	6.640068E-18
4.690000E+03	8.341029E-17	6.642497E-18
4.700000E+03	8.354992E-17	6.645179E-18
4.710000E+03	8.370136E-17	6.648197E-18
4.720000E+03	8.386491E-17	6.651631E-18
4.730000E+03	8.404080E-17	6.655550E-18
4.740000E+03	8.422920E-17	6.660009E-18
4.750000E+03	8.443022E-17	6.665055E-18
4.760000E+03	8.464391E-17	6.670725E-18
4.770000E+03	8.487028E-17	6.677049E-18
4.780000E+03	8.510843E-17	6.683981E-18
4.790000E+03	8.535909E-17	6.691597E-18
4.800000E+03	8.562043E-17	6.699775E-18
4.810000E+03	8.589388E-17	6.708640E-18
4.820000E+03	8.617752E-17	6.718057E-18
4.830000E+03	8.647186E-17	6.728078E-18
4.840000E+03	8.677654E-17	6.738686E-18
4.850000E+03	8.708947E-17	6.749730E-18
4.860000E+03	8.741189E-17	6.761317E-18
4.870000E+03	8.774247E-17	6.773352E-18
4.880000E+03	8.808156E-17	6.785871E-18
4.890000E+03	8.842604E-17	6.798639E-18
4.900000E+03	8.877791E-17	6.811818E-18
4.910000E+03	8.913486E-17	6.825229E-18
4.920000E+03	8.949713E-17	6.838893E-18
4.930000E+03	8.986323E-17	6.852691E-18
4.940000E+03	9.023337E-17	6.866632E-18
4.950000E+03	9.060513E-17	6.880517E-18
4.960000E+03	9.097870E-17	6.894345E-18
4.970000E+03	9.135431E-17	6.908108E-18
4.980000E+03	9.172944E-17	6.921587E-18
4.990000E+03	9.210339E-17	6.934694E-18
5.000000E+03	9.247634E-17	6.947403E-18
5.010000E+03	9.284755E-17	6.959615E-18
5.020000E+03	9.321442E-17	6.971086E-18
5.030000E+03	9.357710E-17	6.981775E-18
5.040000E+03	9.393480E-17	6.991571E-18
5.050000E+03	9.428669E-17	7.000356E-18
5.060000E+03	9.463098E-17	7.007944E-18
5.070000E+03	9.496680E-17	7.014215E-18
5.080000E+03	9.529417E-17	7.019122E-18
5.090000E+03	9.561022E-17	7.022406E-18
5.100000E+03	9.591492E-17	7.024024E-18
5.110000E+03	9.620625E-17	7.023793E-18
5.120000E+03	9.648310E-17	7.021606E-18
5.130000E+03	9.674433E-17	7.017361E-18
5.140000E+03	9.698873E-17	7.010961E-18
5.150000E+03	9.721408E-17	7.002248E-18
5.160000E+03	9.742004E-17	6.991209E-18
5.170000E+03	9.760329E-17	6.977634E-18
5.180000E+03	9.776341E-17	6.961528E-18
5.190000E+03	9.789797E-17	6.942769E-18
5.200000E+03	9.800549E-17	6.921315E-18
5.210000E+03	9.808447E-17	6.897137E-18
5.220000E+03	9.813339E-17	6.870216E-18
5.230000E+03	9.814877E-17	6.840411E-18
5.240000E+03	9.813108E-17	6.807865E-18
5.250000E+03	9.807592E-17	6.772399E-18
5.260000E+03	9.798383E-17	6.734186E-18
5.270000E+03	9.785155E-17	6.693144E-18
5.280000E+03	9.767884E-17	6.649411E-18
5.290000E+03	9.746363E-17	6.603008E-18
5.300000E+03	9.720405E-17	6.553977E-18
5.310000E+03	9.690033E-17	6.502510E-18
5.320000E+03	9.655005E-17	6.448626E-18
5.330000E+03	9.615393E-17	6.392561E-18
5.340000E+03	9.571104E-17	6.334447E-18
5.350000E+03	9.522079E-17	6.274444E-18
5.360000E+03	9.468388E-17	6.212799E-18
5.370000E+03	9.410136E-17	6.149791E-18
5.380000E+03	9.347467E-17	6.085722E-18
5.390000E+03	9.280376E-17	6.020802E-18
5.400000E+03	9.209182E-17	5.955450E-18
5.410000E+03	9.134054E-17	5.889985E-18
5.420000E+03	9.055388E-17	5.824867E-18
5.430000E+03	8.973340E-17	5.760391E-18
5.440000E+03	8.888557E-17	5.697146E-18
5.450000E+03	8.801525E-17	5.635599E-18
5.460000E+03	8.713191E-17	5.576471E-18
5.470000E+03	8.623808E-17	5.519996E-18
5.480000E+03	8.533219E-17	5.466082E-18
5.490000E+03	8.441462E-17	5.414685E-18
5.500000E+03	8.348832E-17	5.365824E-18
5.510000E+03	8.255936E-17	5.319596E-18
5.520000E+03	8.162948E-17	5.275748E-18
5.530000E+03	8.070530E-17	5.234299E-18
5.540000E+03	7.978924E-17	5.194981E-18
5.550000E+03	7.888604E-17	5.157685E-18
5.560000E+03	7.800033E-17	5.122313E-18
5.570000E+03	7.713656E-17	5.088790E-18
5.580000E+03	7.629744E-17	5.056965E-18
5.590000E+03	7.548704E-17	5.026818E-18
5.600000E+03	7.470919E-17	4.998358E-18
5.610000E+03	7.396665E-17	4.971565E-18
5.620000E+03	7.326193E-17	4.946441E-18
5.630000E+03	7.259870E-17	4.923107E-18
5.640000E+03	7.197808E-17	4.901539E-18
5.650000E+03	7.140233E-17	4.881825E-18
5.660000E+03	7.087266E-17	4.864003E-18
5.670000E+03	7.039067E-17	4.848158E-18
5.680000E+03	6.995693E-17	4.834321E-18
5.690000E+03	6.957172E-17	4.822514E-18
5.700000E+03	6.923575E-17	4.812797E-18
5.710000E+03	6.894949E-17	4.805220E-18
5.720000E+03	6.871178E-17	4.799715E-18
5.730000E+03	6.852269E-17	4.796303E-18
5.740000E+03	6.838142E-17	4.794938E-18
5.750000E+03	6.828705E-17	4.795558E-18
5.760000E+03	6.824002E-17	4.798187E-18
5.770000E+03	6.823783E-17	4.802631E-18
5.780000E+03	6.828082E-17	4.808883E-18
5.790000E+03	6.836715E-17	4.816771E-18
5.800000E+03	6.849643E-17	4.826207E-18
5.810000E+03	6.866758E-17	4.837041E-18
5.820000E+03	6.887954E-17	4.849109E-18
5.830000E+03	6.913204E-17	4.862285E-18
5.840000E+03	6.942334E-17	4.876328E-18
5.850000E+03	6.975326E-17	4.891090E-18
5.860000E+03	7.012091E-17	4.906362E-18
5.870000E+03	7.052465E-17	4.921871E-18
5.880000E+03	7.096521E-17	4.937501E-18
5.890000E+03	7.144023E-17	4.952913E-18
5.900000E+03	7.195048E-17	4.967985E-18
5.910000E+03	7.249441E-17	4.982429E-18
5.920000E+03	7.307123E-17	4.996016E-18
5.930000E+03	7.368098E-17	5.008578E-18
5.940000E+03	7.432123E-17	5.019790E-18
5.950000E+03	7.499198E-17	5.029504E-18
5.960000E+03	7.569323E-17	5.037595E-18
5.970000E+03	7.642244E-17	5.043785E-18
5.980000E+03	7.717955E-17	5.047996E-18
5.990000E+03	7.796366E-17	5.050123E-18
6.000000E+03	7.877293E-17	5.050045E-18
6.010000E+03	7.960640E-17	5.047742E-18
6.020000E+03	8.046308E-17	5.043246E-18
6.030000E+03	8.134104E-17	5.036598E-18
6.040000E+03	8.223926E-17	5.027963E-18
6.050000E+03	8.315773E-17	5.017652E-18
6.060000E+03	8.409258E-17	5.005832E-18
6.070000E+03	8.504482E-17	4.993069E-18
6.080000E+03	8.601057E-17	4.979754E-18
6.090000E+03	8.699101E-17	4.966695E-18
6.100000E+03	8.798230E-17	4.954542E-18
6.110000E+03	8.898482E-17	4.944319E-18
6.120000E+03	8.999587E-17	4.937012E-18
6.130000E+03	9.101609E-17	4.933907E-18
6.140000E+03	9.204299E-17	4.936217E-18
6.150000E+03	9.307519E-17	4.945278E-18
6.160000E+03	9.411366E-17	4.962547E-18
6.170000E+03	9.515587E-17	4.989224E-18
6.180000E+03	9.620257E-17	5.026506E-18
6.190000E+03	9.725302E-17	5.075233E-18
6.200000E+03	9.830595E-17	5.135775E-18
6.210000E+03	9.935955E-17	5.207922E-18
6.220000E+03	1.004141E-16	5.291199E-18
6.230000E+03	1.014670E-16	5.384689E-18
6.240000E+03	1.025170E-16	5.487327E-18
6.250000E+03	1.035628E-16	5.597925E-18
6.260000E+03	1.046059E-16	5.715393E-18
6.270000E+03	1.056428E-16	5.838357E-18
6.280000E+03	1.066728E-16	5.965633E-18
6.290000E+03	1.076966E-16	6.096194E-18
6.300000E+03	1.087142E-16	6.229036E-18
6.310000E+03	1.097240E-16	6.363176E-18
6.320000E+03	1.107246E-16	6.497735E-18
6.330000E+03	1.117179E-16	6.632115E-18
6.340000E+03	1.127013E-16	6.765558E-18
6.350000E+03	1.136753E-16	6.897584E-18
6.360000E+03	1.146391E-16	7.027709E-18
6.370000E+03	1.155917E-16	7.155530E-18
6.380000E+03	1.165324E-16	7.280717E-18
6.390000E+03	1.174604E-16	7.403004E-18
6.400000E+03	1.183750E-16	7.522179E-18
6.410000E+03	1.192736E-16	7.637972E-18
6.420000E+03	1.201573E-16	7.750372E-18
6.430000E+03	1.210254E-16	7.859297E-18
6.440000E+03	1.218788E-16	7.964813E-18
6.450000E+03	1.227189E-16	8.067023E-18
6.460000E+03	1.235433E-16	8.165817E-18
6.470000E+03	1.243550E-16	8.261465E-18
6.480000E+03	1.251538E-16	8.354016E-18
6.490000E+03	1.259411E-16	8.443659E-18
6.500000E+03	1.267148E-16	8.530338E-18
6.510000E+03	1.274784E-16	8.614391E-18
6.520000E+03	1.282299E-16	8.695774E-18
6.530000E+03	1.289711E-16	8.774705E-18
6.540000E+03	1.296999E-16	8.851138E-18
6.550000E+03	1.304183E-16	8.925296E-18
6.560000E+03	1.311284E-16	8.997408E-18
6.570000E+03	1.318261E-16	9.067274E-18
6.580000E+03	1.325135E-16	9.135115E-18
6.590000E+03	1.331928E-16	9.201157E-18
6.600000E+03	1.338600E-16	9.265179E-18
6.610000E+03	1.345193E-16	9.327550E-18
6.620000E+03	1.351665E-16	9.388032E-18
6.630000E+03	1.358061E-16	9.446996E-18
6.640000E+03	1.364338E-16	9.504192E-18
6.650000E+03	1.370516E-16	9.559828E-18
6.660000E+03	1.376597E-16	9.613959E-18
6.670000E+03	1.382557E-16	9.666468E-18
6.680000E+03	1.388418E-16	9.717558E-18
6.690000E+03	1.394155E-16	9.767100E-18
6.700000E+03	1.399766E-16	9.815119E-18
6.710000E+03	1.405273E-16	9.861806E-18
6.720000E+03	1.410649E-16	9.907002E-18
6.730000E+03	1.415867E-16	9.950534E-18
6.740000E+03	1.420973E-16	9.992738E-18
6.750000E+03	1.425914E-16	1.003324E-17
6.760000E+03	1.430710E-16	1.007219E-17
6.770000E+03	1.435359E-16	1.010952E-17
6.780000E+03	1.439830E-16	1.014501E-17
6.790000E+03	1.444118E-16	1.017857E-17
6.800000E+03	1.448220E-16	1.021011E-17
6.810000E+03	1.452156E-16	1.023973E-17
6.820000E+03	1.455895E-16	1.026713E-17
6.830000E+03	1.459407E-16	1.029201E-17
6.840000E+03	1.462713E-16	1.031445E-17
6.850000E+03	1.465807E-16	1.033433E-17
6.860000E+03	1.468686E-16	1.035154E-17
6.870000E+03	1.471317E-16	1.036579E-17
6.880000E+03	1.473696E-16	1.037698E-17
6.890000E+03	1.475845E-16	1.038521E-17
6.900000E+03	1.477734E-16	1.039023E-17
6.910000E+03	1.479357E-16	1.039198E-17
6.920000E+03	1.480711E-16	1.039042E-17
6.930000E+03	1.481794E-16	1.038553E-17
6.940000E+03	1.482601E-16	1.037730E-17
6.950000E+03	1.483130E-16	1.036574E-17
6.960000E+03	1.483350E-16	1.035069E-17
6.970000E+03	1.483260E-16	1.033217E-17
6.980000E+03	1.482887E-16	1.031044E-17
6.990000E+03	1.482230E-16	1.028553E-17
7.000000E+03	1.481233E-16	1.025713E-17
7.010000E+03	1.479952E-16	1.022568E-17
7.020000E+03	1.478360E-16	1.019106E-17
7.030000E+03	1.476460E-16	1.015331E-17
7.040000E+03	1.474225E-16	1.011231E-17
7.050000E+03	1.471687E-16	1.006830E-17
7.060000E+03	1.468851E-16	1.002132E-17
7.070000E+03	1.465721E-16	9.971395E-18
7.080000E+03	1.462274E-16	9.918348E-18
7.090000E+03	1.458516E-16	9.862180E-18
7.100000E+03	1.454484E-16	9.803074E-18
7.110000E+03	1.450157E-16	9.740802E-18
7.120000E+03	1.445514E-16	9.675123E-18
7.130000E+03	1.440623E-16	9.606363E-18
7.140000E+03	1.435466E-16	9.534246E-18
7.150000E+03	1.430053E-16	9.458677E-18
7.160000E+03	1.424368E-16	9.379355E-18
7.170000E+03	1.418452E-16	9.296354E-18
7.180000E+03	1.412318E-16	9.209542E-18
7.190000E+03	1.405952E-16	9.118597E-18
7.200000E+03	1.399367E-16	9.023381E-18
7.210000E+03	1.392608E-16	8.923945E-18
7.220000E+03	1.385661E-16	8.819971E-18
7.230000E+03	1.378541E-16	8.711336E-18
7.240000E+03	1.371264E-16	8.597935E-18
7.250000E+03	1.363846E-16	8.479679E-18
7.260000E+03	1.356275E-16	8.356332E-18
7.270000E+03	1.348623E-16	8.228215E-18
7.280000E+03	1.340878E-16	8.095162E-18
7.290000E+03	1.333000E-16	7.956893E-18
7.300000E+03	1.325091E-16	7.814031E-18
7.310000E+03	1.317082E-16	7.666256E-18
7.320000E+03	1.309047E-16	7.514156E-18
7.330000E+03	1.300977E-16	7.357909E-18
7.340000E+03	1.292891E-16	7.197959E-18
7.350000E+03	1.284782E-16	7.034708E-18
7.360000E+03	1.276673E-16	6.868847E-18
7.370000E+03	1.268587E-16	6.701205E-18
7.380000E+03	1.260551E-16	6.532773E-18
7.390000E+03	1.252540E-16	6.364443E-18
7.400000E+03	1.244614E-16	6.197728E-18
7.410000E+03	1.236754E-16	6.033946E-18
7.420000E+03	1.228972E-16	5.874786E-18
7.430000E+03	1.221285E-16	5.722171E-18
7.440000E+03	1.213764E-16	5.578486E-18
7.450000E+03	1.206460E-16	5.446168E-18
7.460000E+03	1.199475E-16	5.328006E-18
7.470000E+03	1.192915E-16	5.226797E-18
7.480000E+03	1.186803E-16	5.144875E-18
7.490000E+03	1.181212E-16	5.084514E-18
7.500000E+03	1.176234E-16	5.047590E-18
7.510000E+03	1.171842E-16	5.034808E-18
7.520000E+03	1.168091E-16	5.046212E-18
7.530000E+03	1.164960E-16	5.080412E-18
7.540000E+03	1.162417E-16	5.135313E-18
7.550000E+03	1.160419E-16	5.208361E-18
7.560000E+03	1.158919E-16	5.296784E-18
7.570000E+03	1.157899E-16	5.397900E-18
7.580000E+03	1.157286E-16	5.508899E-18
7.590000E+03	1.157066E-16	5.627424E-18
7.600000E+03	1.157172E-16	5.751118E-18
7.610000E+03	1.157595E-16	5.878159E-18
7.620000E+03	1.158304E-16	6.006881E-18
7.630000E+03	1.159241E-16	6.135740E-18
7.640000E+03	1.160407E-16	6.263724E-18
7.650000E+03	1.161778E-16	6.389908E-18
7.660000E+03	1.163305E-16	6.513420E-18
7.670000E+03	1.164994E-16	6.633866E-18
7.680000E+03	1.166800E-16	6.750701E-18
7.690000E+03	1.168760E-16	6.863988E-18
7.700000E+03	1.170804E-16	6.973264E-18
7.710000E+03	1.172945E-16	7.078639E-18
7.720000E+03	1.175141E-16	7.179967E-18
7.730000E+03	1.177407E-16	7.277499E-18
7.740000E+03	1.179731E-16	7.371364E-18
7.750000E+03	1.182103E-16	7.461722E-18
7.760000E+03	1.184482E-16	7.548570E-18
