#wls	flux	fluxerr
1.600000E+03	1.709283E-16	1.660273E-16
1.640000E+03	1.759719E-16	1.680793E-16
1.680000E+03	1.806911E-16	1.695996E-16
1.720000E+03	1.850484E-16	1.705649E-16
1.760000E+03	1.889302E-16	1.708865E-16
1.800000E+03	1.923272E-16	1.705768E-16
1.840000E+03	1.951213E-16	1.695558E-16
1.880000E+03	1.972816E-16	1.678275E-16
1.920000E+03	1.987421E-16	1.653705E-16
1.960000E+03	1.994083E-16	1.621467E-16
2.000000E+03	1.992559E-16	1.581826E-16
2.040000E+03	1.982206E-16	1.534775E-16
2.080000E+03	1.962511E-16	1.480474E-16
2.120000E+03	1.933125E-16	1.419264E-16
2.160000E+03	1.893649E-16	1.351497E-16
2.200000E+03	1.843511E-16	1.277456E-16
2.240000E+03	1.782254E-16	1.197568E-16
2.280000E+03	1.710243E-16	1.112848E-16
2.320000E+03	1.628959E-16	1.024997E-16
2.360000E+03	1.540871E-16	9.361993E-17
2.400000E+03	1.447961E-16	8.481458E-17
2.440000E+03	1.352028E-16	7.622510E-17
2.480000E+03	1.254395E-16	6.795108E-17
2.520000E+03	1.156432E-16	6.008213E-17
2.560000E+03	1.059255E-16	5.268228E-17
2.600000E+03	9.639957E-17	4.580527E-17
2.640000E+03	8.715637E-17	3.948358E-17
2.680000E+03	7.827922E-17	3.373705E-17
2.720000E+03	6.984129E-17	2.857278E-17
2.760000E+03	6.189780E-17	2.398330E-17
2.800000E+03	5.449429E-17	1.995175E-17
2.840000E+03	4.766314E-17	1.645196E-17
2.880000E+03	4.142689E-17	1.345119E-17
2.920000E+03	3.579733E-17	1.091120E-17
2.960000E+03	3.077299E-17	8.789010E-18
3.000000E+03	2.634016E-17	7.038833E-18
3.010000E+03	2.532148E-17	6.653874E-18
3.020000E+03	2.433713E-17	6.288345E-18
3.030000E+03	2.338750E-17	5.941753E-18
3.040000E+03	2.247073E-17	5.613055E-18
3.050000E+03	2.158708E-17	5.301758E-18
3.060000E+03	2.073571E-17	5.007104E-18
3.070000E+03	1.991620E-17	4.728461E-18
3.080000E+03	1.912688E-17	4.464908E-18
3.090000E+03	1.836812E-17	4.216035E-18
3.100000E+03	1.763829E-17	3.980975E-18
3.110000E+03	1.693725E-17	3.759232E-18
3.120000E+03	1.626413E-17	3.550150E-18
3.130000E+03	1.561774E-17	3.353031E-18
3.140000E+03	1.499785E-17	3.167403E-18
3.150000E+03	1.440330E-17	2.992613E-18
3.160000E+03	1.383354E-17	2.828151E-18
3.170000E+03	1.328771E-17	2.673470E-18
3.180000E+03	1.276500E-17	2.528042E-18
3.190000E+03	1.226482E-17	2.391409E-18
3.200000E+03	1.178635E-17	2.263079E-18
3.210000E+03	1.132862E-17	2.142551E-18
3.220000E+03	1.089124E-17	2.029454E-18
3.230000E+03	1.047327E-17	1.923325E-18
3.240000E+03	1.007413E-17	1.823791E-18
3.250000E+03	9.693106E-18	1.730463E-18
3.260000E+03	9.329327E-18	1.642943E-18
3.270000E+03	8.982414E-18	1.560935E-18
3.280000E+03	8.651407E-18	1.484056E-18
3.290000E+03	8.335936E-18	1.412038E-18
3.300000E+03	8.035355E-18	1.344579E-18
3.310000E+03	7.748809E-18	1.281356E-18
3.320000E+03	7.475950E-18	1.222143E-18
3.330000E+03	7.216195E-18	1.166685E-18
3.340000E+03	6.968883E-18	1.114727E-18
3.350000E+03	6.733487E-18	1.066047E-18
3.360000E+03	6.509498E-18	1.020436E-18
3.370000E+03	6.296427E-18	9.776986E-19
3.380000E+03	6.093800E-18	9.376489E-19
3.390000E+03	5.901163E-18	9.001144E-19
3.400000E+03	5.718003E-18	8.649219E-19
3.410000E+03	5.543840E-18	8.319106E-19
3.420000E+03	5.378424E-18	8.009621E-19
3.430000E+03	5.221171E-18	7.719146E-19
3.440000E+03	5.071797E-18	7.446574E-19
3.450000E+03	4.929901E-18	7.190683E-19
3.460000E+03	4.795161E-18	6.950429E-19
3.470000E+03	4.667160E-18	6.724674E-19
3.480000E+03	4.545565E-18	6.512455E-19
3.490000E+03	4.430110E-18	6.312949E-19
3.500000E+03	4.320445E-18	6.125251E-19
3.510000E+03	4.216336E-18	5.948663E-19
3.520000E+03	4.117380E-18	5.782279E-19
3.530000E+03	4.023380E-18	5.625521E-19
3.540000E+03	3.934022E-18	5.477671E-19
3.550000E+03	3.849057E-18	5.338130E-19
3.560000E+03	3.768250E-18	5.206346E-19
3.570000E+03	3.691308E-18	5.081706E-19
3.580000E+03	3.618107E-18	4.963851E-19
3.590000E+03	3.548417E-18	4.852297E-19
3.600000E+03	3.482028E-18	4.746599E-19
3.610000E+03	3.418841E-18	4.646484E-19
3.620000E+03	3.358631E-18	4.551516E-19
3.630000E+03	3.301250E-18	4.461380E-19
3.640000E+03	3.246560E-18	4.375783E-19
3.650000E+03	3.194429E-18	4.294452E-19
3.660000E+03	3.144731E-18	4.217130E-19
3.670000E+03	3.097346E-18	4.143579E-19
3.680000E+03	3.052189E-18	4.073610E-19
3.690000E+03	3.009174E-18	4.007045E-19
3.700000E+03	2.968194E-18	3.943682E-19
3.710000E+03	2.929248E-18	3.883463E-19
3.720000E+03	2.892205E-18	3.826166E-19
3.730000E+03	2.857039E-18	3.771710E-19
3.740000E+03	2.823673E-18	3.719955E-19
3.750000E+03	2.792058E-18	3.670797E-19
3.760000E+03	2.762190E-18	3.624197E-19
3.770000E+03	2.733949E-18	3.579965E-19
3.780000E+03	2.707332E-18	3.538071E-19
3.790000E+03	2.682314E-18	3.498454E-19
3.800000E+03	2.658800E-18	3.460968E-19
3.810000E+03	2.636788E-18	3.425590E-19
3.820000E+03	2.616252E-18	3.392265E-19
3.830000E+03	2.597124E-18	3.360888E-19
3.840000E+03	2.579358E-18	3.331385E-19
3.850000E+03	2.562973E-18	3.303765E-19
3.860000E+03	2.547883E-18	3.277902E-19
3.870000E+03	2.534084E-18	3.253784E-19
3.880000E+03	2.521535E-18	3.231342E-19
3.890000E+03	2.510214E-18	3.210541E-19
3.900000E+03	2.500100E-18	3.191343E-19
3.910000E+03	2.491131E-18	3.173662E-19
3.920000E+03	2.483290E-18	3.157467E-19
3.930000E+03	2.476576E-18	3.142750E-19
3.940000E+03	2.470951E-18	3.129455E-19
3.950000E+03	2.466379E-18	3.117529E-19
3.960000E+03	2.462843E-18	3.106944E-19
3.970000E+03	2.460308E-18	3.097648E-19
3.980000E+03	2.458757E-18	3.089616E-19
3.990000E+03	2.458177E-18	3.082823E-19
4.000000E+03	2.458553E-18	3.077243E-19
4.010000E+03	2.459835E-18	3.072806E-19
4.020000E+03	2.462009E-18	3.069489E-19
4.030000E+03	2.465064E-18	3.067269E-19
4.040000E+03	2.468988E-18	3.066126E-19
4.050000E+03	2.473753E-18	3.066015E-19
4.060000E+03	2.479329E-18	3.066891E-19
4.070000E+03	2.485707E-18	3.068735E-19
4.080000E+03	2.492860E-18	3.071504E-19
4.090000E+03	2.500779E-18	3.075178E-19
4.100000E+03	2.509438E-18	3.079715E-19
4.110000E+03	2.518830E-18	3.085097E-19
4.120000E+03	2.528929E-18	3.091283E-19
4.130000E+03	2.539711E-18	3.098232E-19
4.140000E+03	2.551170E-18	3.105925E-19
4.150000E+03	2.563281E-18	3.114323E-19
4.160000E+03	2.576040E-18	3.123410E-19
4.170000E+03	2.589405E-18	3.133121E-19
4.180000E+03	2.603371E-18	3.143441E-19
4.190000E+03	2.617895E-18	3.154307E-19
4.200000E+03	2.632993E-18	3.165727E-19
4.210000E+03	2.648625E-18	3.177640E-19
4.220000E+03	2.664786E-18	3.190032E-19
4.230000E+03	2.681413E-18	3.202815E-19
4.240000E+03	2.698525E-18	3.216000E-19
4.250000E+03	2.716058E-18	3.229502E-19
4.260000E+03	2.734030E-18	3.243333E-19
4.270000E+03	2.752376E-18	3.257407E-19
4.280000E+03	2.771051E-18	3.271660E-19
4.290000E+03	2.790074E-18	3.286107E-19
4.300000E+03	2.809356E-18	3.300636E-19
4.310000E+03	2.828916E-18	3.315262E-19
4.320000E+03	2.848663E-18	3.329871E-19
4.330000E+03	2.868615E-18	3.344479E-19
4.340000E+03	2.888724E-18	3.359025E-19
4.350000E+03	2.908940E-18	3.373447E-19
4.360000E+03	2.929260E-18	3.387736E-19
4.370000E+03	2.949656E-18	3.401858E-19
4.380000E+03	2.970148E-18	3.415834E-19
4.390000E+03	2.990685E-18	3.429604E-19
4.400000E+03	3.011314E-18	3.443219E-19
4.410000E+03	3.032032E-18	3.456678E-19
4.420000E+03	3.052841E-18	3.469980E-19
4.430000E+03	3.073739E-18	3.483127E-19
4.440000E+03	3.094755E-18	3.496151E-19
4.450000E+03	3.115865E-18	3.509028E-19
4.460000E+03	3.137098E-18	3.521795E-19
4.470000E+03	3.158459E-18	3.534462E-19
4.480000E+03	3.179954E-18	3.547041E-19
4.490000E+03	3.201563E-18	3.559517E-19
4.500000E+03	3.223292E-18	3.571906E-19
4.510000E+03	3.245122E-18	3.584196E-19
4.520000E+03	3.267090E-18	3.596436E-19
4.530000E+03	3.289150E-18	3.608589E-19
4.540000E+03	3.311312E-18	3.620677E-19
4.550000E+03	3.333586E-18	3.632726E-19
4.560000E+03	3.355930E-18	3.644700E-19
4.570000E+03	3.378383E-18	3.656659E-19
4.580000E+03	3.400902E-18	3.668567E-19
4.590000E+03	3.423501E-18	3.680456E-19
4.600000E+03	3.446137E-18	3.692290E-19
4.610000E+03	3.468855E-18	3.704131E-19
4.620000E+03	3.491644E-18	3.715980E-19
4.630000E+03	3.514461E-18	3.727800E-19
4.640000E+03	3.537325E-18	3.739622E-19
4.650000E+03	3.560258E-18	3.751476E-19
4.660000E+03	3.583251E-18	3.763358E-19
4.670000E+03	3.606265E-18	3.775232E-19
4.680000E+03	3.629387E-18	3.787193E-19
4.690000E+03	3.652645E-18	3.799271E-19
4.700000E+03	3.676004E-18	3.811427E-19
4.710000E+03	3.699494E-18	3.823692E-19
4.720000E+03	3.723147E-18	3.836095E-19
4.730000E+03	3.746896E-18	3.848562E-19
4.740000E+03	3.770773E-18	3.861124E-19
4.750000E+03	3.794746E-18	3.873742E-19
4.760000E+03	3.818850E-18	3.886446E-19
4.770000E+03	3.843087E-18	3.899234E-19
4.780000E+03	3.867424E-18	3.912071E-19
4.790000E+03	3.891899E-18	3.924990E-19
4.800000E+03	3.916481E-18	3.937957E-19
4.810000E+03	3.941209E-18	3.951012E-19
4.820000E+03	3.966052E-18	3.964122E-19
4.830000E+03	3.991014E-18	3.977294E-19
4.840000E+03	4.016100E-18	3.990536E-19
4.850000E+03	4.041351E-18	4.003892E-19
4.860000E+03	4.066737E-18	4.017338E-19
4.870000E+03	4.092263E-18	4.030884E-19
4.880000E+03	4.117894E-18	4.044506E-19
4.890000E+03	4.143714E-18	4.058292E-19
4.900000E+03	4.169689E-18	4.072218E-19
4.910000E+03	4.195823E-18	4.086298E-19
4.920000E+03	4.222083E-18	4.100506E-19
4.930000E+03	4.248512E-18	4.114894E-19
4.940000E+03	4.275074E-18	4.129433E-19
4.950000E+03	4.301771E-18	4.144136E-19
4.960000E+03	4.328647E-18	4.159049E-19
4.970000E+03	4.355663E-18	4.174141E-19
4.980000E+03	4.382822E-18	4.189418E-19
4.990000E+03	4.410081E-18	4.204845E-19
5.000000E+03	4.437484E-18	4.220464E-19
5.010000E+03	4.465029E-18	4.236276E-19
5.020000E+03	4.492673E-18	4.252242E-19
5.030000E+03	4.520413E-18	4.268361E-19
5.040000E+03	4.548246E-18	4.284630E-19
5.050000E+03	4.576125E-18	4.301006E-19
5.060000E+03	4.604089E-18	4.317528E-19
5.070000E+03	4.632131E-18	4.334196E-19
5.080000E+03	4.660157E-18	4.350923E-19
5.090000E+03	4.688203E-18	4.367751E-19
5.100000E+03	4.716260E-18	4.384684E-19
5.110000E+03	4.744273E-18	4.401681E-19
5.120000E+03	4.772230E-18	4.418749E-19
5.130000E+03	4.800120E-18	4.435896E-19
5.140000E+03	4.827930E-18	4.453135E-19
5.150000E+03	4.855596E-18	4.470438E-19
5.160000E+03	4.883152E-18	4.487867E-19
5.170000E+03	4.910484E-18	4.505358E-19
5.180000E+03	4.937622E-18	4.522979E-19
5.190000E+03	4.964496E-18	4.540718E-19
5.200000E+03	4.991085E-18	4.558607E-19
5.210000E+03	5.017365E-18	4.576683E-19
5.220000E+03	5.043312E-18	4.594987E-19
5.230000E+03	5.068802E-18	4.613471E-19
5.240000E+03	5.093905E-18	4.632272E-19
5.250000E+03	5.118544E-18	4.651391E-19
5.260000E+03	5.142689E-18	4.670878E-19
5.270000E+03	5.166261E-18	4.690737E-19
5.280000E+03	5.189227E-18	4.711019E-19
5.290000E+03	5.211556E-18	4.731774E-19
5.300000E+03	5.233216E-18	4.753052E-19
5.310000E+03	5.254177E-18	4.774903E-19
5.320000E+03	5.274355E-18	4.797326E-19
5.330000E+03	5.293823E-18	4.820460E-19
5.340000E+03	5.312449E-18	4.844254E-19
5.350000E+03	5.330202E-18	4.868745E-19
5.360000E+03	5.347161E-18	4.894066E-19
5.370000E+03	5.363195E-18	4.920151E-19
5.380000E+03	5.378387E-18	4.947125E-19
5.390000E+03	5.392661E-18	4.974960E-19
5.400000E+03	5.406051E-18	5.003723E-19
5.410000E+03	5.418487E-18	5.033376E-19
5.420000E+03	5.430062E-18	5.064027E-19
5.430000E+03	5.440708E-18	5.095625E-19
5.440000E+03	5.450470E-18	5.128217E-19
5.450000E+03	5.459232E-18	5.161691E-19
5.460000E+03	5.467043E-18	5.196080E-19
5.470000E+03	5.473845E-18	5.231310E-19
5.480000E+03	5.479581E-18	5.267300E-19
5.490000E+03	5.484309E-18	5.304068E-19
5.500000E+03	5.487921E-18	5.341468E-19
5.510000E+03	5.490368E-18	5.379402E-19
5.520000E+03	5.491657E-18	5.417818E-19
5.530000E+03	5.491687E-18	5.456552E-19
5.540000E+03	5.490524E-18	5.495602E-19
5.550000E+03	5.488017E-18	5.534740E-19
5.560000E+03	5.484289E-18	5.574013E-19
5.570000E+03	5.479304E-18	5.613300E-19
5.580000E+03	5.473024E-18	5.652479E-19
5.590000E+03	5.465468E-18	5.691484E-19
5.600000E+03	5.456658E-18	5.730250E-19
5.610000E+03	5.446562E-18	5.768653E-19
5.620000E+03	5.435314E-18	5.806750E-19
5.630000E+03	5.422828E-18	5.844363E-19
5.640000E+03	5.409242E-18	5.881554E-19
5.650000E+03	5.394472E-18	5.918150E-19
5.660000E+03	5.378657E-18	5.954220E-19
5.670000E+03	5.361827E-18	5.989719E-19
5.680000E+03	5.343956E-18	6.024540E-19
5.690000E+03	5.325131E-18	6.058706E-19
5.700000E+03	5.305383E-18	6.092177E-19
5.710000E+03	5.284801E-18	6.124983E-19
5.720000E+03	5.263419E-18	6.157092E-19
5.730000E+03	5.241216E-18	6.188409E-19
5.740000E+03	5.218338E-18	6.219035E-19
5.750000E+03	5.194821E-18	6.248944E-19
5.760000E+03	5.170648E-18	6.278044E-19
5.770000E+03	5.145912E-18	6.306376E-19
5.780000E+03	5.120707E-18	6.333983E-19
5.790000E+03	5.095073E-18	6.360843E-19
5.800000E+03	5.068995E-18	6.386865E-19
5.810000E+03	5.042571E-18	6.412093E-19
5.820000E+03	5.015896E-18	6.436573E-19
5.830000E+03	4.989013E-18	6.460286E-19
5.840000E+03	4.961910E-18	6.483140E-19
5.850000E+03	4.934687E-18	6.505185E-19
5.860000E+03	4.907386E-18	6.526400E-19
5.870000E+03	4.880104E-18	6.546841E-19
5.880000E+03	4.852886E-18	6.566490E-19
5.890000E+03	4.825720E-18	6.585261E-19
5.900000E+03	4.798705E-18	6.603215E-19
5.910000E+03	4.771827E-18	6.620267E-19
5.920000E+03	4.745290E-18	6.636631E-19
5.930000E+03	4.718973E-18	6.652080E-19
5.940000E+03	4.692971E-18	6.666687E-19
5.950000E+03	4.667374E-18	6.680527E-19
5.960000E+03	4.642167E-18	6.693529E-19
5.970000E+03	4.617386E-18	6.705700E-19
5.980000E+03	4.593118E-18	6.717126E-19
5.990000E+03	4.569344E-18	6.727744E-19
6.000000E+03	4.546146E-18	6.737646E-19
6.010000E+03	4.523452E-18	6.746695E-19
6.020000E+03	4.501392E-18	6.755067E-19
6.030000E+03	4.479889E-18	6.762630E-19
6.040000E+03	4.459072E-18	6.769565E-19
6.050000E+03	4.438807E-18	6.775661E-19
6.060000E+03	4.419220E-18	6.781105E-19
6.070000E+03	4.400278E-18	6.785848E-19
6.080000E+03	4.382000E-18	6.789919E-19
6.090000E+03	4.364295E-18	6.793189E-19
6.100000E+03	4.347284E-18	6.795850E-19
6.110000E+03	4.330823E-18	6.797689E-19
6.120000E+03	4.315027E-18	6.798902E-19
6.130000E+03	4.299747E-18	6.799274E-19
6.140000E+03	4.284993E-18	6.798832E-19
6.150000E+03	4.270716E-18	6.797524E-19
6.160000E+03	4.256920E-18	6.795376E-19
6.170000E+03	4.243451E-18	6.792163E-19
6.180000E+03	4.230306E-18	6.787907E-19
6.190000E+03	4.217430E-18	6.782545E-19
6.200000E+03	4.204821E-18	6.776097E-19
6.210000E+03	4.192470E-18	6.768582E-19
6.220000E+03	4.180479E-18	6.760190E-19
6.230000E+03	4.169000E-18	6.751203E-19
6.240000E+03	4.158079E-18	6.741729E-19
6.250000E+03	4.147817E-18	6.731965E-19
6.260000E+03	4.138314E-18	6.722110E-19
6.270000E+03	4.129617E-18	6.712277E-19
6.280000E+03	4.121830E-18	6.702669E-19
6.290000E+03	4.115000E-18	6.693401E-19
6.300000E+03	4.109178E-18	6.684587E-19
6.310000E+03	4.104471E-18	6.676437E-19
6.320000E+03	4.100875E-18	6.668978E-19
6.330000E+03	4.098500E-18	6.662419E-19
6.340000E+03	4.097290E-18	6.656698E-19
6.350000E+03	4.097299E-18	6.651934E-19
6.360000E+03	4.098527E-18	6.648154E-19
6.370000E+03	4.101035E-18	6.645480E-19
6.380000E+03	4.104764E-18	6.643843E-19
6.390000E+03	4.109718E-18	6.643271E-19
6.400000E+03	4.115838E-18	6.643691E-19
6.410000E+03	4.123007E-18	6.644934E-19
6.420000E+03	4.131163E-18	6.646921E-19
6.430000E+03	4.140304E-18	6.649669E-19
6.440000E+03	4.150427E-18	6.653191E-19
6.450000E+03	4.161531E-18	6.657504E-19
6.460000E+03	4.173677E-18	6.662719E-19
6.470000E+03	4.186927E-18	6.668954E-19
6.480000E+03	4.201284E-18	6.676224E-19
6.490000E+03	4.216687E-18	6.684445E-19
6.500000E+03	4.233267E-18	6.693835E-19
6.510000E+03	4.251030E-18	6.704414E-19
6.520000E+03	4.269914E-18	6.716094E-19
6.530000E+03	4.289993E-18	6.728996E-19
6.540000E+03	4.311273E-18	6.743138E-19
6.550000E+03	4.333694E-18	6.758430E-19
6.560000E+03	4.357262E-18	6.774887E-19
6.570000E+03	4.382124E-18	6.792741E-19
6.580000E+03	4.408080E-18	6.811684E-19
6.590000E+03	4.435278E-18	6.831948E-19
6.600000E+03	4.463729E-18	6.853550E-19
6.610000E+03	4.493297E-18	6.876284E-19
6.620000E+03	4.524139E-18	6.900385E-19
6.630000E+03	4.556116E-18	6.925645E-19
6.640000E+03	4.589388E-18	6.952304E-19
6.650000E+03	4.623815E-18	6.980146E-19
6.660000E+03	4.659483E-18	7.009301E-19
6.670000E+03	4.696405E-18	7.039783E-19
6.680000E+03	4.734513E-18	7.071487E-19
6.690000E+03	4.773816E-18	7.104422E-19
6.700000E+03	4.814408E-18	7.138724E-19
6.710000E+03	4.856218E-18	7.174281E-19
6.720000E+03	4.899259E-18	7.211107E-19
6.730000E+03	4.943542E-18	7.249211E-19
6.740000E+03	4.989078E-18	7.288604E-19
6.750000E+03	5.035880E-18	7.329299E-19
6.760000E+03	5.083962E-18	7.371304E-19
6.770000E+03	5.133245E-18	7.414502E-19
6.780000E+03	5.183832E-18	7.459030E-19
6.790000E+03	5.235736E-18	7.504901E-19
6.800000E+03	5.288878E-18	7.551989E-19
6.810000E+03	5.343364E-18	7.600440E-19
6.820000E+03	5.399112E-18	7.650125E-19
6.830000E+03	5.456133E-18	7.701051E-19
6.840000E+03	5.514438E-18	7.753226E-19
6.850000E+03	5.574040E-18	7.806656E-19
6.860000E+03	5.635053E-18	7.861492E-19
6.870000E+03	5.697285E-18	7.917454E-19
6.880000E+03	5.760848E-18	7.974690E-19
6.890000E+03	5.825757E-18	8.033208E-19
6.900000E+03	5.891913E-18	8.092863E-19
6.910000E+03	5.959435E-18	8.153809E-19
6.920000E+03	6.028336E-18	8.216052E-19
6.930000E+03	6.098513E-18	8.279443E-19
6.940000E+03	6.169974E-18	8.343982E-19
6.950000E+03	6.242845E-18	8.409831E-19
6.960000E+03	6.317018E-18	8.476832E-19
6.970000E+03	6.392499E-18	8.544987E-19
6.980000E+03	6.469296E-18	8.614296E-19
6.990000E+03	6.547415E-18	8.684758E-19
7.000000E+03	6.626733E-18	8.756203E-19
7.010000E+03	6.707512E-18	8.828968E-19
7.020000E+03	6.789499E-18	8.902711E-19
7.030000E+03	6.872826E-18	8.977601E-19
7.040000E+03	6.957363E-18	9.053457E-19
7.050000E+03	7.043107E-18	9.130271E-19
7.060000E+03	7.130197E-18	9.208218E-19
7.070000E+03	7.218494E-18	9.287110E-19
7.080000E+03	7.307847E-18	9.366751E-19
7.090000E+03	7.398542E-18	9.447503E-19
7.100000E+03	7.490432E-18	9.529173E-19
7.110000E+03	7.583356E-18	9.611555E-19
7.120000E+03	7.677457E-18	9.694828E-19
7.130000E+03	7.772571E-18	9.778785E-19
7.140000E+03	7.868842E-18	9.863608E-19
7.150000E+03	7.966098E-18	9.949085E-19
7.160000E+03	8.064489E-18	1.003540E-18
7.170000E+03	8.163667E-18	1.012214E-18
7.180000E+03	8.263776E-18	1.020947E-18
7.190000E+03	8.364969E-18	1.029761E-18
7.200000E+03	8.466881E-18	1.038610E-18
7.210000E+03	8.569479E-18	1.047494E-18
7.220000E+03	8.672915E-18	1.056431E-18
7.230000E+03	8.777164E-18	1.065421E-18
7.240000E+03	8.882011E-18	1.074440E-18
7.250000E+03	8.987612E-18	1.083510E-18
7.260000E+03	9.093744E-18	1.092606E-18
7.270000E+03	9.200368E-18	1.101727E-18
7.280000E+03	9.307647E-18	1.110897E-18
7.290000E+03	9.415344E-18	1.120090E-18
7.300000E+03	9.523624E-18	1.129331E-18
7.310000E+03	9.632244E-18	1.138596E-18
7.320000E+03	9.741160E-18	1.147885E-18
7.330000E+03	9.850762E-18	1.157248E-18
7.340000E+03	9.960582E-18	1.166637E-18
7.350000E+03	1.007102E-17	1.176104E-18
7.360000E+03	1.018183E-17	1.185625E-18
7.370000E+03	1.029320E-17	1.195230E-18
7.380000E+03	1.040534E-17	1.204947E-18
7.390000E+03	1.051799E-17	1.214755E-18
7.400000E+03	1.063161E-17	1.224711E-18
7.410000E+03	1.074620E-17	1.234820E-18
7.420000E+03	1.086201E-17	1.245116E-18
7.430000E+03	1.097903E-17	1.255604E-18
7.440000E+03	1.109729E-17	1.266290E-18
7.450000E+03	1.121705E-17	1.277208E-18
7.460000E+03	1.133780E-17	1.288303E-18
7.470000E+03	1.145955E-17	1.299578E-18
7.480000E+03	1.158203E-17	1.311004E-18
7.490000E+03	1.170549E-17	1.322612E-18
7.500000E+03	1.182968E-17	1.334369E-18
7.510000E+03	1.195429E-17	1.346241E-18
7.520000E+03	1.207930E-17	1.358224E-18
7.530000E+03	1.220469E-17	1.370311E-18
7.540000E+03	1.233015E-17	1.382461E-18
7.550000E+03	1.245593E-17	1.394699E-18
7.560000E+03	1.258141E-17	1.406947E-18
7.570000E+03	1.270716E-17	1.419261E-18
7.580000E+03	1.283282E-17	1.431595E-18
7.590000E+03	1.295836E-17	1.443936E-18
7.600000E+03	1.308341E-17	1.456237E-18
7.610000E+03	1.320823E-17	1.468518E-18
7.620000E+03	1.333277E-17	1.480766E-18
7.630000E+03	1.345697E-17	1.492967E-18
7.640000E+03	1.358043E-17	1.505071E-18
7.650000E+03	1.370342E-17	1.517101E-18
7.660000E+03	1.382551E-17	1.529007E-18
7.670000E+03	1.394732E-17	1.540851E-18
7.680000E+03	1.406773E-17	1.552507E-18
7.690000E+03	1.418768E-17	1.564079E-18
7.700000E+03	1.430676E-17	1.575516E-18
7.710000E+03	1.442449E-17	1.586769E-18
7.720000E+03	1.454114E-17	1.597867E-18
7.730000E+03	1.465661E-17	1.608798E-18
7.740000E+03	1.477079E-17	1.619555E-18
7.750000E+03	1.488359E-17	1.630127E-18
7.760000E+03	1.499527E-17	1.640548E-18
