#wls	flux	fluxerr
1.600000E+03	2.762987E-16	2.708649E-16
1.640000E+03	2.851003E-16	2.748838E-16
1.680000E+03	2.938454E-16	2.784556E-16
1.720000E+03	3.025824E-16	2.816181E-16
1.760000E+03	3.112110E-16	2.842702E-16
1.800000E+03	3.196775E-16	2.863602E-16
1.840000E+03	3.279464E-16	2.878564E-16
1.880000E+03	3.359178E-16	2.886753E-16
1.920000E+03	3.435108E-16	2.887574E-16
1.960000E+03	3.506361E-16	2.880442E-16
2.000000E+03	3.571472E-16	2.864391E-16
2.040000E+03	3.629709E-16	2.839162E-16
2.080000E+03	3.679087E-16	2.803622E-16
2.120000E+03	3.717735E-16	2.756902E-16
2.160000E+03	3.744161E-16	2.698592E-16
2.200000E+03	3.756403E-16	2.628105E-16
2.240000E+03	3.752200E-16	2.544853E-16
2.280000E+03	3.731334E-16	2.449815E-16
2.320000E+03	3.693422E-16	2.343923E-16
2.360000E+03	3.639786E-16	2.229218E-16
2.400000E+03	3.571894E-16	2.107738E-16
2.440000E+03	3.491151E-16	1.981378E-16
2.480000E+03	3.399042E-16	1.851969E-16
2.520000E+03	3.296416E-16	1.720887E-16
2.560000E+03	3.184688E-16	1.589720E-16
2.600000E+03	3.064618E-16	1.459617E-16
2.640000E+03	2.937190E-16	1.331755E-16
2.680000E+03	2.803279E-16	1.207166E-16
2.720000E+03	2.663989E-16	1.086882E-16
2.760000E+03	2.520362E-16	9.717902E-17
2.800000E+03	2.373507E-16	8.626842E-17
2.840000E+03	2.224789E-16	7.603156E-17
2.880000E+03	2.075555E-16	6.652751E-17
2.920000E+03	1.927327E-16	5.780510E-17
2.960000E+03	1.781643E-16	4.989653E-17
3.000000E+03	1.639989E-16	4.281571E-17
3.010000E+03	1.605361E-16	4.117442E-17
3.020000E+03	1.571093E-16	3.958446E-17
3.030000E+03	1.537200E-16	3.804535E-17
3.040000E+03	1.503728E-16	3.655736E-17
3.050000E+03	1.470656E-16	3.511905E-17
3.060000E+03	1.437996E-16	3.372983E-17
3.070000E+03	1.405823E-16	3.239043E-17
3.080000E+03	1.374087E-16	3.109868E-17
3.090000E+03	1.342856E-16	2.985510E-17
3.100000E+03	1.312113E-16	2.865818E-17
3.110000E+03	1.281867E-16	2.750706E-17
3.120000E+03	1.252180E-16	2.640190E-17
3.130000E+03	1.223010E-16	2.534063E-17
3.140000E+03	1.194390E-16	2.432278E-17
3.150000E+03	1.166329E-16	2.334732E-17
3.160000E+03	1.138856E-16	2.241361E-17
3.170000E+03	1.111958E-16	2.152011E-17
3.180000E+03	1.085660E-16	2.066612E-17
3.190000E+03	1.059970E-16	1.985049E-17
3.200000E+03	1.034874E-16	1.907169E-17
3.210000E+03	1.010397E-16	1.832895E-17
3.220000E+03	9.865593E-17	1.762137E-17
3.230000E+03	9.633306E-17	1.694717E-17
3.240000E+03	9.407474E-17	1.630575E-17
3.250000E+03	9.187798E-17	1.569538E-17
3.260000E+03	8.974753E-17	1.511568E-17
3.270000E+03	8.767886E-17	1.456470E-17
3.280000E+03	8.567348E-17	1.404157E-17
3.290000E+03	8.373262E-17	1.354536E-17
3.300000E+03	8.185464E-17	1.307473E-17
3.310000E+03	8.004049E-17	1.262878E-17
3.320000E+03	7.828728E-17	1.220604E-17
3.330000E+03	7.659583E-17	1.180569E-17
3.340000E+03	7.496560E-17	1.142669E-17
3.350000E+03	7.339597E-17	1.106806E-17
3.360000E+03	7.188626E-17	1.072884E-17
3.370000E+03	7.043471E-17	1.040795E-17
3.380000E+03	6.904063E-17	1.010452E-17
3.390000E+03	6.770327E-17	9.817703E-18
3.400000E+03	6.642182E-17	9.546682E-18
3.410000E+03	6.519456E-17	9.290551E-18
3.420000E+03	6.402069E-17	9.048578E-18
3.430000E+03	6.289938E-17	8.820062E-18
3.440000E+03	6.182897E-17	8.604220E-18
3.450000E+03	6.080866E-17	8.400426E-18
3.460000E+03	5.983762E-17	8.208087E-18
3.470000E+03	5.891354E-17	8.026435E-18
3.480000E+03	5.803640E-17	7.855052E-18
3.490000E+03	5.720471E-17	7.693345E-18
3.500000E+03	5.641704E-17	7.540763E-18
3.510000E+03	5.567268E-17	7.396875E-18
3.520000E+03	5.496965E-17	7.261109E-18
3.530000E+03	5.430733E-17	7.133096E-18
3.540000E+03	5.368449E-17	7.012411E-18
3.550000E+03	5.309995E-17	6.898657E-18
3.560000E+03	5.255260E-17	6.791463E-18
3.570000E+03	5.204137E-17	6.690483E-18
3.580000E+03	5.156467E-17	6.595323E-18
3.590000E+03	5.112210E-17	6.505756E-18
3.600000E+03	5.071220E-17	6.421434E-18
3.610000E+03	5.033463E-17	6.342163E-18
3.620000E+03	4.998749E-17	6.267567E-18
3.630000E+03	4.967104E-17	6.197552E-18
3.640000E+03	4.938297E-17	6.131711E-18
3.650000E+03	4.912310E-17	6.069916E-18
3.660000E+03	4.889025E-17	6.011920E-18
3.670000E+03	4.868427E-17	5.957614E-18
3.680000E+03	4.850356E-17	5.906715E-18
3.690000E+03	4.834800E-17	5.859132E-18
3.700000E+03	4.821655E-17	5.814664E-18
3.710000E+03	4.810910E-17	5.773231E-18
3.720000E+03	4.802464E-17	5.734647E-18
3.730000E+03	4.796354E-17	5.698897E-18
3.740000E+03	4.792434E-17	5.665751E-18
3.750000E+03	4.790741E-17	5.635202E-18
3.760000E+03	4.791220E-17	5.607136E-18
3.770000E+03	4.793863E-17	5.581493E-18
3.780000E+03	4.798613E-17	5.558167E-18
3.790000E+03	4.805504E-17	5.537151E-18
3.800000E+03	4.814438E-17	5.518292E-18
3.810000E+03	4.825444E-17	5.501585E-18
3.820000E+03	4.838511E-17	5.486979E-18
3.830000E+03	4.853624E-17	5.474418E-18
3.840000E+03	4.870767E-17	5.463851E-18
3.850000E+03	4.889882E-17	5.455177E-18
3.860000E+03	4.911039E-17	5.448437E-18
3.870000E+03	4.934218E-17	5.443576E-18
3.880000E+03	4.959358E-17	5.440493E-18
3.890000E+03	4.986482E-17	5.439177E-18
3.900000E+03	5.015569E-17	5.439570E-18
3.910000E+03	5.046638E-17	5.441659E-18
3.920000E+03	5.079622E-17	5.445335E-18
3.930000E+03	5.114582E-17	5.450626E-18
3.940000E+03	5.151447E-17	5.457420E-18
3.950000E+03	5.190275E-17	5.465740E-18
3.960000E+03	5.230992E-17	5.475466E-18
3.970000E+03	5.273564E-17	5.486524E-18
3.980000E+03	5.318044E-17	5.498928E-18
3.990000E+03	5.364350E-17	5.512550E-18
4.000000E+03	5.412486E-17	5.527354E-18
4.010000E+03	5.462411E-17	5.543253E-18
4.020000E+03	5.514122E-17	5.560204E-18
4.030000E+03	5.567571E-17	5.578117E-18
4.040000E+03	5.622706E-17	5.596898E-18
4.050000E+03	5.679518E-17	5.616500E-18
4.060000E+03	5.737994E-17	5.636873E-18
4.070000E+03	5.797975E-17	5.657828E-18
4.080000E+03	5.859538E-17	5.679406E-18
4.090000E+03	5.922514E-17	5.701418E-18
4.100000E+03	5.986921E-17	5.723859E-18
4.110000E+03	6.052628E-17	5.746585E-18
4.120000E+03	6.119596E-17	5.769550E-18
4.130000E+03	6.187732E-17	5.792658E-18
4.140000E+03	6.256933E-17	5.815820E-18
4.150000E+03	6.327092E-17	5.838948E-18
4.160000E+03	6.398095E-17	5.861959E-18
4.170000E+03	6.469873E-17	5.884824E-18
4.180000E+03	6.542296E-17	5.907471E-18
4.190000E+03	6.615175E-17	5.929788E-18
4.200000E+03	6.688364E-17	5.951721E-18
4.210000E+03	6.761710E-17	5.973223E-18
4.220000E+03	6.835108E-17	5.994311E-18
4.230000E+03	6.908332E-17	6.014913E-18
4.240000E+03	6.981209E-17	6.035021E-18
4.250000E+03	7.053495E-17	6.054593E-18
4.260000E+03	7.125060E-17	6.073697E-18
4.270000E+03	7.195647E-17	6.092321E-18
4.280000E+03	7.265057E-17	6.110515E-18
4.290000E+03	7.333085E-17	6.128346E-18
4.300000E+03	7.399401E-17	6.145791E-18
4.310000E+03	7.463918E-17	6.163042E-18
4.320000E+03	7.526307E-17	6.180095E-18
4.330000E+03	7.586363E-17	6.197056E-18
4.340000E+03	7.643822E-17	6.213977E-18
4.350000E+03	7.698623E-17	6.231062E-18
4.360000E+03	7.750395E-17	6.248245E-18
4.370000E+03	7.799104E-17	6.265703E-18
4.380000E+03	7.844609E-17	6.283483E-18
4.390000E+03	7.886857E-17	6.301654E-18
4.400000E+03	7.925911E-17	6.320264E-18
4.410000E+03	7.961820E-17	6.339238E-18
4.420000E+03	7.994794E-17	6.358575E-18
4.430000E+03	8.024799E-17	6.378035E-18
4.440000E+03	8.052094E-17	6.397575E-18
4.450000E+03	8.076752E-17	6.416980E-18
4.460000E+03	8.098928E-17	6.436089E-18
4.470000E+03	8.118935E-17	6.454853E-18
4.480000E+03	8.136742E-17	6.472957E-18
4.490000E+03	8.152752E-17	6.490433E-18
4.500000E+03	8.166946E-17	6.506995E-18
4.510000E+03	8.179669E-17	6.522659E-18
4.520000E+03	8.191050E-17	6.537294E-18
4.530000E+03	8.201293E-17	6.550847E-18
4.540000E+03	8.210602E-17	6.563292E-18
4.550000E+03	8.219030E-17	6.574509E-18
4.560000E+03	8.226923E-17	6.584635E-18
4.570000E+03	8.234328E-17	6.593595E-18
4.580000E+03	8.241433E-17	6.601453E-18
4.590000E+03	8.248424E-17	6.608292E-18
4.600000E+03	8.255481E-17	6.614212E-18
4.610000E+03	8.262700E-17	6.619269E-18
4.620000E+03	8.270176E-17	6.623530E-18
4.630000E+03	8.278067E-17	6.627136E-18
4.640000E+03	8.286529E-17	6.630233E-18
4.650000E+03	8.295712E-17	6.632977E-18
4.660000E+03	8.305604E-17	6.635403E-18
4.670000E+03	8.316419E-17	6.637732E-18
4.680000E+03	8.328212E-17	6.640064E-18
4.690000E+03	8.341030E-17	6.642493E-18
4.700000E+03	8.354993E-17	6.645174E-18
4.710000E+03	8.370137E-17	6.648192E-18
4.720000E+03	8.386492E-17	6.651627E-18
4.730000E+03	8.404081E-17	6.655545E-18
4.740000E+03	8.422921E-17	6.660004E-18
4.750000E+03	8.443023E-17	6.665050E-18
4.760000E+03	8.464392E-17	6.670720E-18
4.770000E+03	8.487028E-17	6.677043E-18
4.780000E+03	8.510844E-17	6.683975E-18
4.790000E+03	8.535910E-17	6.691592E-18
4.800000E+03	8.562044E-17	6.699769E-18
4.810000E+03	8.589389E-17	6.708634E-18
4.820000E+03	8.617753E-17	6.718051E-18
4.830000E+03	8.647186E-17	6.728072E-18
4.840000E+03	8.677654E-17	6.738680E-18
4.850000E+03	8.708947E-17	6.749724E-18
4.860000E+03	8.741189E-17	6.761311E-18
4.870000E+03	8.774247E-17	6.773346E-18
4.880000E+03	8.808157E-17	6.785865E-18
4.890000E+03	8.842604E-17	6.798633E-18
4.900000E+03	8.877791E-17	6.811811E-18
4.910000E+03	8.913486E-17	6.825222E-18
4.920000E+03	8.949713E-17	6.838887E-18
4.930000E+03	8.986323E-17	6.852685E-18
4.940000E+03	9.023337E-17	6.866626E-18
4.950000E+03	9.060513E-17	6.880511E-18
4.960000E+03	9.097870E-17	6.894338E-18
4.970000E+03	9.135431E-17	6.908101E-18
4.980000E+03	9.172944E-17	6.921580E-18
4.990000E+03	9.210339E-17	6.934686E-18
5.000000E+03	9.247634E-17	6.947395E-18
5.010000E+03	9.284755E-17	6.959607E-18
5.020000E+03	9.321442E-17	6.971078E-18
5.030000E+03	9.357710E-17	6.981768E-18
5.040000E+03	9.393479E-17	6.991563E-18
5.050000E+03	9.428668E-17	7.000348E-18
5.060000E+03	9.463098E-17	7.007936E-18
5.070000E+03	9.496680E-17	7.014207E-18
5.080000E+03	9.529416E-17	7.019114E-18
5.090000E+03	9.561022E-17	7.022398E-18
5.100000E+03	9.591492E-17	7.024016E-18
5.110000E+03	9.620624E-17	7.023785E-18
5.120000E+03	9.648310E-17	7.021598E-18
5.130000E+03	9.674433E-17	7.017353E-18
5.140000E+03	9.698873E-17	7.010953E-18
5.150000E+03	9.721408E-17	7.002239E-18
5.160000E+03	9.742003E-17	6.991201E-18
5.170000E+03	9.760329E-17	6.977625E-18
5.180000E+03	9.776341E-17	6.961519E-18
5.190000E+03	9.789797E-17	6.942760E-18
5.200000E+03	9.800549E-17	6.921307E-18
5.210000E+03	9.808447E-17	6.897129E-18
5.220000E+03	9.813339E-17	6.870208E-18
5.230000E+03	9.814877E-17	6.840402E-18
5.240000E+03	9.813108E-17	6.807857E-18
5.250000E+03	9.807591E-17	6.772390E-18
5.260000E+03	9.798383E-17	6.734177E-18
5.270000E+03	9.785155E-17	6.693135E-18
5.280000E+03	9.767884E-17	6.649402E-18
5.290000E+03	9.746363E-17	6.603000E-18
5.300000E+03	9.720405E-17	6.553968E-18
5.310000E+03	9.690033E-17	6.502502E-18
5.320000E+03	9.655005E-17	6.448618E-18
5.330000E+03	9.615393E-17	6.392553E-18
5.340000E+03	9.571104E-17	6.334439E-18
5.350000E+03	9.522079E-17	6.274435E-18
5.360000E+03	9.468388E-17	6.212791E-18
5.370000E+03	9.410136E-17	6.149783E-18
5.380000E+03	9.347467E-17	6.085714E-18
5.390000E+03	9.280376E-17	6.020794E-18
5.400000E+03	9.209182E-17	5.955442E-18
5.410000E+03	9.134054E-17	5.889978E-18
5.420000E+03	9.055388E-17	5.824860E-18
5.430000E+03	8.973341E-17	5.760383E-18
5.440000E+03	8.888557E-17	5.697139E-18
5.450000E+03	8.801525E-17	5.635592E-18
5.460000E+03	8.713191E-17	5.576464E-18
5.470000E+03	8.623808E-17	5.519989E-18
5.480000E+03	8.533219E-17	5.466075E-18
5.490000E+03	8.441462E-17	5.414678E-18
5.500000E+03	8.348832E-17	5.365818E-18
5.510000E+03	8.255936E-17	5.319590E-18
5.520000E+03	8.162948E-17	5.275741E-18
5.530000E+03	8.070530E-17	5.234292E-18
5.540000E+03	7.978923E-17	5.194975E-18
5.550000E+03	7.888604E-17	5.157679E-18
5.560000E+03	7.800033E-17	5.122307E-18
5.570000E+03	7.713656E-17	5.088784E-18
5.580000E+03	7.629743E-17	5.056959E-18
5.590000E+03	7.548704E-17	5.026812E-18
5.600000E+03	7.470918E-17	4.998351E-18
5.610000E+03	7.396664E-17	4.971558E-18
5.620000E+03	7.326192E-17	4.946435E-18
5.630000E+03	7.259869E-17	4.923100E-18
5.640000E+03	7.197807E-17	4.901533E-18
5.650000E+03	7.140232E-17	4.881819E-18
5.660000E+03	7.087265E-17	4.863997E-18
5.670000E+03	7.039066E-17	4.848152E-18
5.680000E+03	6.995692E-17	4.834315E-18
5.690000E+03	6.957171E-17	4.822508E-18
5.700000E+03	6.923574E-17	4.812791E-18
5.710000E+03	6.894949E-17	4.805213E-18
5.720000E+03	6.871178E-17	4.799709E-18
5.730000E+03	6.852268E-17	4.796297E-18
5.740000E+03	6.838141E-17	4.794932E-18
5.750000E+03	6.828704E-17	4.795552E-18
5.760000E+03	6.824002E-17	4.798181E-18
5.770000E+03	6.823782E-17	4.802624E-18
5.780000E+03	6.828081E-17	4.808877E-18
5.790000E+03	6.836714E-17	4.816764E-18
5.800000E+03	6.849642E-17	4.826201E-18
5.810000E+03	6.866758E-17	4.837035E-18
5.820000E+03	6.887954E-17	4.849103E-18
5.830000E+03	6.913203E-17	4.862279E-18
5.840000E+03	6.942333E-17	4.876322E-18
5.850000E+03	6.975325E-17	4.891084E-18
5.860000E+03	7.012090E-17	4.906356E-18
5.870000E+03	7.052465E-17	4.921865E-18
5.880000E+03	7.096521E-17	4.937495E-18
5.890000E+03	7.144023E-17	4.952907E-18
5.900000E+03	7.195048E-17	4.967978E-18
5.910000E+03	7.249440E-17	4.982423E-18
5.920000E+03	7.307122E-17	4.996010E-18
5.930000E+03	7.368098E-17	5.008572E-18
5.940000E+03	7.432123E-17	5.019784E-18
5.950000E+03	7.499198E-17	5.029498E-18
5.960000E+03	7.569323E-17	5.037589E-18
5.970000E+03	7.642244E-17	5.043779E-18
5.980000E+03	7.717955E-17	5.047990E-18
5.990000E+03	7.796365E-17	5.050117E-18
6.000000E+03	7.877293E-17	5.050039E-18
6.010000E+03	7.960640E-17	5.047736E-18
6.020000E+03	8.046308E-17	5.043240E-18
6.030000E+03	8.134104E-17	5.036592E-18
6.040000E+03	8.223926E-17	5.027957E-18
6.050000E+03	8.315774E-17	5.017646E-18
6.060000E+03	8.409259E-17	5.005826E-18
6.070000E+03	8.504483E-17	4.993064E-18
6.080000E+03	8.601057E-17	4.979748E-18
6.090000E+03	8.699101E-17	4.966689E-18
6.100000E+03	8.798231E-17	4.954536E-18
6.110000E+03	8.898482E-17	4.944314E-18
6.120000E+03	8.999587E-17	4.937006E-18
6.130000E+03	9.101609E-17	4.933901E-18
6.140000E+03	9.204299E-17	4.936212E-18
6.150000E+03	9.307520E-17	4.945272E-18
6.160000E+03	9.411367E-17	4.962542E-18
6.170000E+03	9.515588E-17	4.989219E-18
6.180000E+03	9.620258E-17	5.026500E-18
6.190000E+03	9.725302E-17	5.075228E-18
6.200000E+03	9.830596E-17	5.135769E-18
6.210000E+03	9.935956E-17	5.207916E-18
6.220000E+03	1.004141E-16	5.291193E-18
6.230000E+03	1.014670E-16	5.384683E-18
6.240000E+03	1.025170E-16	5.487321E-18
6.250000E+03	1.035628E-16	5.597919E-18
6.260000E+03	1.046059E-16	5.715386E-18
6.270000E+03	1.056428E-16	5.838350E-18
6.280000E+03	1.066728E-16	5.965625E-18
6.290000E+03	1.076966E-16	6.096186E-18
6.300000E+03	1.087142E-16	6.229028E-18
6.310000E+03	1.097239E-16	6.363168E-18
6.320000E+03	1.107246E-16	6.497726E-18
6.330000E+03	1.117179E-16	6.632106E-18
6.340000E+03	1.127013E-16	6.765549E-18
6.350000E+03	1.136753E-16	6.897574E-18
6.360000E+03	1.146391E-16	7.027699E-18
6.370000E+03	1.155917E-16	7.155520E-18
6.380000E+03	1.165324E-16	7.280707E-18
6.390000E+03	1.174604E-16	7.402993E-18
6.400000E+03	1.183750E-16	7.522168E-18
6.410000E+03	1.192736E-16	7.637961E-18
6.420000E+03	1.201573E-16	7.750361E-18
6.430000E+03	1.210254E-16	7.859285E-18
6.440000E+03	1.218788E-16	7.964801E-18
6.450000E+03	1.227189E-16	8.067010E-18
6.460000E+03	1.235432E-16	8.165804E-18
6.470000E+03	1.243550E-16	8.261452E-18
6.480000E+03	1.251538E-16	8.354003E-18
6.490000E+03	1.259411E-16	8.443646E-18
6.500000E+03	1.267148E-16	8.530325E-18
6.510000E+03	1.274784E-16	8.614378E-18
6.520000E+03	1.282299E-16	8.695760E-18
6.530000E+03	1.289711E-16	8.774691E-18
6.540000E+03	1.296999E-16	8.851124E-18
6.550000E+03	1.304183E-16	8.925281E-18
6.560000E+03	1.311283E-16	8.997393E-18
6.570000E+03	1.318260E-16	9.067259E-18
6.580000E+03	1.325134E-16	9.135100E-18
6.590000E+03	1.331928E-16	9.201142E-18
6.600000E+03	1.338599E-16	9.265164E-18
6.610000E+03	1.345193E-16	9.327534E-18
6.620000E+03	1.351665E-16	9.388016E-18
6.630000E+03	1.358061E-16	9.446981E-18
6.640000E+03	1.364337E-16	9.504176E-18
6.650000E+03	1.370516E-16	9.559812E-18
6.660000E+03	1.376597E-16	9.613943E-18
6.670000E+03	1.382557E-16	9.666451E-18
6.680000E+03	1.388418E-16	9.717541E-18
6.690000E+03	1.394154E-16	9.767083E-18
6.700000E+03	1.399765E-16	9.815102E-18
6.710000E+03	1.405272E-16	9.861789E-18
6.720000E+03	1.410649E-16	9.906985E-18
6.730000E+03	1.415867E-16	9.950517E-18
6.740000E+03	1.420973E-16	9.992721E-18
6.750000E+03	1.425913E-16	1.003322E-17
6.760000E+03	1.430710E-16	1.007217E-17
6.770000E+03	1.435358E-16	1.010950E-17
6.780000E+03	1.439829E-16	1.014499E-17
6.790000E+03	1.444118E-16	1.017855E-17
6.800000E+03	1.448219E-16	1.021009E-17
6.810000E+03	1.452155E-16	1.023971E-17
6.820000E+03	1.455895E-16	1.026711E-17
6.830000E+03	1.459407E-16	1.029199E-17
6.840000E+03	1.462712E-16	1.031443E-17
6.850000E+03	1.465807E-16	1.033431E-17
6.860000E+03	1.468685E-16	1.035153E-17
6.870000E+03	1.471317E-16	1.036577E-17
6.880000E+03	1.473695E-16	1.037696E-17
6.890000E+03	1.475845E-16	1.038520E-17
6.900000E+03	1.477733E-16	1.039021E-17
6.910000E+03	1.479357E-16	1.039196E-17
6.920000E+03	1.480711E-16	1.039040E-17
6.930000E+03	1.481793E-16	1.038551E-17
6.940000E+03	1.482600E-16	1.037728E-17
6.950000E+03	1.483129E-16	1.036573E-17
6.960000E+03	1.483350E-16	1.035067E-17
6.970000E+03	1.483260E-16	1.033215E-17
6.980000E+03	1.482887E-16	1.031042E-17
6.990000E+03	1.482230E-16	1.028551E-17
7.000000E+03	1.481232E-16	1.025711E-17
7.010000E+03	1.479951E-16	1.022566E-17
7.020000E+03	1.478360E-16	1.019104E-17
7.030000E+03	1.476460E-16	1.015330E-17
7.040000E+03	1.474225E-16	1.011229E-17
7.050000E+03	1.471687E-16	1.006828E-17
7.060000E+03	1.468850E-16	1.002130E-17
7.070000E+03	1.465720E-16	9.971376E-18
7.080000E+03	1.462273E-16	9.918329E-18
7.090000E+03	1.458516E-16	9.862161E-18
7.100000E+03	1.454484E-16	9.803055E-18
7.110000E+03	1.450157E-16	9.740784E-18
7.120000E+03	1.445514E-16	9.675105E-18
7.130000E+03	1.440623E-16	9.606345E-18
7.140000E+03	1.435465E-16	9.534228E-18
7.150000E+03	1.430053E-16	9.458659E-18
7.160000E+03	1.424368E-16	9.379338E-18
7.170000E+03	1.418451E-16	9.296336E-18
7.180000E+03	1.412318E-16	9.209525E-18
7.190000E+03	1.405951E-16	9.118580E-18
7.200000E+03	1.399367E-16	9.023364E-18
7.210000E+03	1.392607E-16	8.923929E-18
7.220000E+03	1.385660E-16	8.819954E-18
7.230000E+03	1.378540E-16	8.711320E-18
7.240000E+03	1.371263E-16	8.597919E-18
7.250000E+03	1.363846E-16	8.479663E-18
7.260000E+03	1.356274E-16	8.356316E-18
7.270000E+03	1.348622E-16	8.228200E-18
7.280000E+03	1.340878E-16	8.095148E-18
7.290000E+03	1.333000E-16	7.956879E-18
7.300000E+03	1.325090E-16	7.814017E-18
7.310000E+03	1.317081E-16	7.666243E-18
7.320000E+03	1.309047E-16	7.514143E-18
7.330000E+03	1.300977E-16	7.357897E-18
7.340000E+03	1.292891E-16	7.197947E-18
7.350000E+03	1.284782E-16	7.034696E-18
7.360000E+03	1.276672E-16	6.868835E-18
7.370000E+03	1.268586E-16	6.701194E-18
7.380000E+03	1.260551E-16	6.532762E-18
7.390000E+03	1.252540E-16	6.364433E-18
7.400000E+03	1.244614E-16	6.197719E-18
7.410000E+03	1.236753E-16	6.033937E-18
7.420000E+03	1.228972E-16	5.874777E-18
7.430000E+03	1.221284E-16	5.722162E-18
7.440000E+03	1.213764E-16	5.578478E-18
7.450000E+03	1.206459E-16	5.446161E-18
7.460000E+03	1.199474E-16	5.327998E-18
7.470000E+03	1.192914E-16	5.226790E-18
7.480000E+03	1.186802E-16	5.144868E-18
7.490000E+03	1.181212E-16	5.084507E-18
7.500000E+03	1.176234E-16	5.047583E-18
7.510000E+03	1.171841E-16	5.034801E-18
7.520000E+03	1.168090E-16	5.046205E-18
7.530000E+03	1.164960E-16	5.080406E-18
7.540000E+03	1.162417E-16	5.135306E-18
7.550000E+03	1.160418E-16	5.208355E-18
7.560000E+03	1.158919E-16	5.296777E-18
7.570000E+03	1.157898E-16	5.397892E-18
7.580000E+03	1.157286E-16	5.508891E-18
7.590000E+03	1.157065E-16	5.627416E-18
7.600000E+03	1.157171E-16	5.751109E-18
7.610000E+03	1.157595E-16	5.878150E-18
7.620000E+03	1.158303E-16	6.006872E-18
7.630000E+03	1.159240E-16	6.135731E-18
7.640000E+03	1.160407E-16	6.263714E-18
7.650000E+03	1.161778E-16	6.389897E-18
7.660000E+03	1.163304E-16	6.513409E-18
7.670000E+03	1.164994E-16	6.633855E-18
7.680000E+03	1.166799E-16	6.750690E-18
7.690000E+03	1.168759E-16	6.863977E-18
7.700000E+03	1.170803E-16	6.973252E-18
7.710000E+03	1.172944E-16	7.078626E-18
7.720000E+03	1.175140E-16	7.179954E-18
7.730000E+03	1.177406E-16	7.277486E-18
7.740000E+03	1.179730E-16	7.371350E-18
7.750000E+03	1.182102E-16	7.461708E-18
7.760000E+03	1.184481E-16	7.548555E-18
