#wls	flux	fluxerr
1.600000E+03	2.516508E-16	2.439443E-16
1.640000E+03	2.605999E-16	2.484137E-16
1.680000E+03	2.694050E-16	2.523644E-16
1.720000E+03	2.780305E-16	2.557616E-16
1.760000E+03	2.863529E-16	2.584939E-16
1.800000E+03	2.943171E-16	2.605198E-16
1.840000E+03	3.018075E-16	2.617501E-16
1.880000E+03	3.087512E-16	2.621413E-16
1.920000E+03	3.150424E-16	2.616296E-16
1.960000E+03	3.205694E-16	2.601556E-16
2.000000E+03	3.251707E-16	2.576309E-16
2.040000E+03	3.287351E-16	2.540207E-16
2.080000E+03	3.311333E-16	2.492878E-16
2.120000E+03	3.321834E-16	2.433693E-16
2.160000E+03	3.317298E-16	2.362386E-16
2.200000E+03	3.295913E-16	2.278676E-16
2.240000E+03	3.256186E-16	2.182673E-16
2.280000E+03	3.197890E-16	2.075474E-16
2.320000E+03	3.121566E-16	1.958706E-16
2.360000E+03	3.029601E-16	1.835096E-16
2.400000E+03	2.924147E-16	1.707051E-16
2.440000E+03	2.807163E-16	1.576691E-16
2.480000E+03	2.680796E-16	1.446078E-16
2.520000E+03	2.546746E-16	1.316854E-16
2.560000E+03	2.406512E-16	1.190409E-16
2.600000E+03	2.261906E-16	1.068137E-16
2.640000E+03	2.114285E-16	9.510557E-17
2.680000E+03	1.965233E-16	8.401406E-17
2.720000E+03	1.816086E-16	7.361052E-17
2.760000E+03	1.668410E-16	6.396094E-17
2.800000E+03	1.523527E-16	5.510618E-17
2.840000E+03	1.382838E-16	4.707538E-17
2.880000E+03	1.247669E-16	3.988059E-17
2.920000E+03	1.119240E-16	3.351677E-17
2.960000E+03	9.986200E-17	2.796221E-17
3.000000E+03	8.866630E-17	2.317913E-17
3.010000E+03	8.600947E-17	2.209787E-17
3.020000E+03	8.341210E-17	2.106091E-17
3.030000E+03	8.087245E-17	2.006671E-17
3.040000E+03	7.839418E-17	1.911505E-17
3.050000E+03	7.597540E-17	1.820434E-17
3.060000E+03	7.361605E-17	1.733344E-17
3.070000E+03	7.131603E-17	1.650123E-17
3.080000E+03	6.907804E-17	1.570721E-17
3.090000E+03	6.689880E-17	1.494949E-17
3.100000E+03	6.478067E-17	1.422753E-17
3.110000E+03	6.272179E-17	1.353980E-17
3.120000E+03	6.072289E-17	1.288537E-17
3.130000E+03	5.878327E-17	1.226304E-17
3.140000E+03	5.690225E-17	1.167160E-17
3.150000E+03	5.507909E-17	1.110986E-17
3.160000E+03	5.331404E-17	1.057686E-17
3.170000E+03	5.160522E-17	1.007124E-17
3.180000E+03	4.995273E-17	9.592035E-18
3.190000E+03	4.835561E-17	9.138121E-18
3.200000E+03	4.681286E-17	8.708390E-18
3.210000E+03	4.532427E-17	8.301908E-18
3.220000E+03	4.388721E-17	7.917327E-18
3.230000E+03	4.250289E-17	7.554032E-18
3.240000E+03	4.116799E-17	7.210625E-18
3.250000E+03	3.988350E-17	6.886506E-18
3.260000E+03	3.864690E-17	6.580490E-18
3.270000E+03	3.745767E-17	6.291780E-18
3.280000E+03	3.631464E-17	6.019491E-18
3.290000E+03	3.521605E-17	5.762680E-18
3.300000E+03	3.416182E-17	5.520715E-18
3.310000E+03	3.314969E-17	5.292634E-18
3.320000E+03	3.217852E-17	5.077698E-18
3.330000E+03	3.124811E-17	4.875343E-18
3.340000E+03	3.035632E-17	4.684730E-18
3.350000E+03	2.950203E-17	4.505214E-18
3.360000E+03	2.868415E-17	4.336177E-18
3.370000E+03	2.790195E-17	4.177092E-18
3.380000E+03	2.715354E-17	4.027280E-18
3.390000E+03	2.643791E-17	3.886218E-18
3.400000E+03	2.575438E-17	3.753463E-18
3.410000E+03	2.510157E-17	3.628488E-18
3.420000E+03	2.447851E-17	3.510851E-18
3.430000E+03	2.388362E-17	3.400042E-18
3.440000E+03	2.331631E-17	3.295720E-18
3.450000E+03	2.277570E-17	3.197514E-18
3.460000E+03	2.226037E-17	3.105000E-18
3.470000E+03	2.176951E-17	3.017859E-18
3.480000E+03	2.130212E-17	2.935756E-18
3.490000E+03	2.085769E-17	2.858447E-18
3.500000E+03	2.043479E-17	2.785568E-18
3.510000E+03	2.003299E-17	2.716913E-18
3.520000E+03	1.965121E-17	2.652193E-18
3.530000E+03	1.928862E-17	2.591171E-18
3.540000E+03	1.894447E-17	2.533629E-18
3.550000E+03	1.861782E-17	2.479333E-18
3.560000E+03	1.830820E-17	2.428123E-18
3.570000E+03	1.801457E-17	2.379771E-18
3.580000E+03	1.773634E-17	2.334117E-18
3.590000E+03	1.747312E-17	2.291037E-18
3.600000E+03	1.722420E-17	2.250364E-18
3.610000E+03	1.698905E-17	2.211972E-18
3.620000E+03	1.676703E-17	2.175715E-18
3.630000E+03	1.655751E-17	2.141463E-18
3.640000E+03	1.636007E-17	2.109113E-18
3.650000E+03	1.617400E-17	2.078528E-18
3.660000E+03	1.599907E-17	2.049643E-18
3.670000E+03	1.583463E-17	2.022334E-18
3.680000E+03	1.568033E-17	1.996528E-18
3.690000E+03	1.553601E-17	1.972171E-18
3.700000E+03	1.540105E-17	1.949158E-18
3.710000E+03	1.527517E-17	1.927428E-18
3.720000E+03	1.515836E-17	1.906956E-18
3.730000E+03	1.505019E-17	1.887666E-18
3.740000E+03	1.495038E-17	1.869505E-18
3.750000E+03	1.485894E-17	1.852453E-18
3.760000E+03	1.477545E-17	1.836442E-18
3.770000E+03	1.469979E-17	1.821441E-18
3.780000E+03	1.463195E-17	1.807434E-18
3.790000E+03	1.457167E-17	1.794374E-18
3.800000E+03	1.451882E-17	1.782231E-18
3.810000E+03	1.447327E-17	1.770977E-18
3.820000E+03	1.443488E-17	1.760584E-18
3.830000E+03	1.440366E-17	1.751038E-18
3.840000E+03	1.437935E-17	1.742298E-18
3.850000E+03	1.436193E-17	1.734353E-18
3.860000E+03	1.435142E-17	1.727190E-18
3.870000E+03	1.434754E-17	1.720768E-18
3.880000E+03	1.435018E-17	1.715062E-18
3.890000E+03	1.435945E-17	1.710076E-18
3.900000E+03	1.437521E-17	1.705784E-18
3.910000E+03	1.439722E-17	1.702146E-18
3.920000E+03	1.442560E-17	1.699166E-18
3.930000E+03	1.446033E-17	1.696834E-18
3.940000E+03	1.450104E-17	1.695095E-18
3.950000E+03	1.454784E-17	1.693954E-18
3.960000E+03	1.460074E-17	1.693400E-18
3.970000E+03	1.465959E-17	1.693409E-18
3.980000E+03	1.472416E-17	1.693942E-18
3.990000E+03	1.479467E-17	1.695018E-18
4.000000E+03	1.487087E-17	1.696598E-18
4.010000E+03	1.495265E-17	1.698659E-18
4.020000E+03	1.504011E-17	1.701205E-18
4.030000E+03	1.513300E-17	1.704201E-18
4.040000E+03	1.523146E-17	1.707650E-18
4.050000E+03	1.533509E-17	1.711504E-18
4.060000E+03	1.544415E-17	1.715782E-18
4.070000E+03	1.555839E-17	1.720449E-18
4.080000E+03	1.567768E-17	1.725487E-18
4.090000E+03	1.580216E-17	1.730903E-18
4.100000E+03	1.593144E-17	1.736650E-18
4.110000E+03	1.606579E-17	1.742755E-18
4.120000E+03	1.620482E-17	1.749171E-18
4.130000E+03	1.634856E-17	1.755899E-18
4.140000E+03	1.649699E-17	1.762939E-18
4.150000E+03	1.664989E-17	1.770263E-18
4.160000E+03	1.680726E-17	1.777876E-18
4.170000E+03	1.696898E-17	1.785768E-18
4.180000E+03	1.713480E-17	1.793917E-18
4.190000E+03	1.730488E-17	1.802347E-18
4.200000E+03	1.747882E-17	1.811024E-18
4.210000E+03	1.765678E-17	1.819976E-18
4.220000E+03	1.783837E-17	1.829172E-18
4.230000E+03	1.802361E-17	1.838630E-18
4.240000E+03	1.821238E-17	1.848353E-18
4.250000E+03	1.840426E-17	1.858315E-18
4.260000E+03	1.859942E-17	1.868553E-18
4.270000E+03	1.879759E-17	1.879059E-18
4.280000E+03	1.899849E-17	1.889827E-18
4.290000E+03	1.920183E-17	1.900851E-18
4.300000E+03	1.940761E-17	1.912154E-18
4.310000E+03	1.961571E-17	1.923746E-18
4.320000E+03	1.982549E-17	1.935587E-18
4.330000E+03	2.003710E-17	1.947717E-18
4.340000E+03	2.024991E-17	1.960093E-18
4.350000E+03	2.046406E-17	1.972748E-18
4.360000E+03	2.067903E-17	1.985651E-18
4.370000E+03	2.089479E-17	1.998814E-18
4.380000E+03	2.111134E-17	2.012246E-18
4.390000E+03	2.132864E-17	2.025954E-18
4.400000E+03	2.154668E-17	2.039939E-18
4.410000E+03	2.176561E-17	2.054218E-18
4.420000E+03	2.198560E-17	2.068803E-18
4.430000E+03	2.220664E-17	2.083687E-18
4.440000E+03	2.242893E-17	2.098876E-18
4.450000E+03	2.265229E-17	2.114339E-18
4.460000E+03	2.287710E-17	2.130096E-18
4.470000E+03	2.310321E-17	2.146114E-18
4.480000E+03	2.333062E-17	2.162372E-18
4.490000E+03	2.355939E-17	2.178853E-18
4.500000E+03	2.378954E-17	2.195535E-18
4.510000E+03	2.402113E-17	2.212400E-18
4.520000E+03	2.425420E-17	2.229429E-18
4.530000E+03	2.448839E-17	2.246566E-18
4.540000E+03	2.472420E-17	2.263832E-18
4.550000E+03	2.496127E-17	2.281175E-18
4.560000E+03	2.519967E-17	2.298583E-18
4.570000E+03	2.543926E-17	2.316025E-18
4.580000E+03	2.568037E-17	2.333515E-18
4.590000E+03	2.592288E-17	2.351028E-18
4.600000E+03	2.616643E-17	2.368522E-18
4.610000E+03	2.641160E-17	2.386040E-18
4.620000E+03	2.665807E-17	2.403546E-18
4.630000E+03	2.690572E-17	2.421026E-18
4.640000E+03	2.715495E-17	2.438512E-18
4.650000E+03	2.740592E-17	2.456018E-18
4.660000E+03	2.765808E-17	2.473495E-18
4.670000E+03	2.791210E-17	2.491005E-18
4.680000E+03	2.816794E-17	2.508549E-18
4.690000E+03	2.842556E-17	2.526126E-18
4.700000E+03	2.868518E-17	2.543764E-18
4.710000E+03	2.894678E-17	2.561465E-18
4.720000E+03	2.921062E-17	2.579258E-18
4.730000E+03	2.947615E-17	2.597104E-18
4.740000E+03	2.974363E-17	2.615031E-18
4.750000E+03	3.001334E-17	2.633072E-18
4.760000E+03	3.028445E-17	2.651161E-18
4.770000E+03	3.055752E-17	2.669357E-18
4.780000E+03	3.083226E-17	2.687642E-18
4.790000E+03	3.110839E-17	2.706000E-18
4.800000E+03	3.138650E-17	2.724492E-18
4.810000E+03	3.166570E-17	2.743049E-18
4.820000E+03	3.194689E-17	2.761760E-18
4.830000E+03	3.222915E-17	2.780553E-18
4.840000E+03	3.251311E-17	2.799492E-18
4.850000E+03	3.279811E-17	2.818532E-18
4.860000E+03	3.308477E-17	2.837733E-18
4.870000E+03	3.337245E-17	2.857050E-18
4.880000E+03	3.366141E-17	2.876516E-18
4.890000E+03	3.395162E-17	2.896134E-18
4.900000E+03	3.424270E-17	2.915880E-18
4.910000E+03	3.453458E-17	2.935755E-18
4.920000E+03	3.482718E-17	2.955755E-18
4.930000E+03	3.512074E-17	2.975906E-18
4.940000E+03	3.541447E-17	2.996143E-18
4.950000E+03	3.570892E-17	3.016513E-18
4.960000E+03	3.600326E-17	3.036943E-18
4.970000E+03	3.629766E-17	3.057445E-18
4.980000E+03	3.659157E-17	3.077969E-18
4.990000E+03	3.688478E-17	3.098489E-18
5.000000E+03	3.717703E-17	3.118977E-18
5.010000E+03	3.746843E-17	3.139432E-18
5.020000E+03	3.775794E-17	3.159756E-18
5.030000E+03	3.804562E-17	3.179943E-18
5.040000E+03	3.833074E-17	3.199919E-18
5.050000E+03	3.861329E-17	3.219673E-18
5.060000E+03	3.889249E-17	3.239127E-18
5.070000E+03	3.916752E-17	3.258202E-18
5.080000E+03	3.943829E-17	3.276880E-18
5.090000E+03	3.970431E-17	3.295114E-18
5.100000E+03	3.996467E-17	3.312820E-18
5.110000E+03	4.021842E-17	3.329916E-18
5.120000E+03	4.046580E-17	3.346421E-18
5.130000E+03	4.070540E-17	3.362220E-18
5.140000E+03	4.093662E-17	3.377267E-18
5.150000E+03	4.115882E-17	3.391520E-18
5.160000E+03	4.137136E-17	3.404936E-18
5.170000E+03	4.157317E-17	3.417444E-18
5.180000E+03	4.176400E-17	3.429040E-18
5.190000E+03	4.194236E-17	3.439626E-18
5.200000E+03	4.210801E-17	3.449206E-18
5.210000E+03	4.225944E-17	3.457685E-18
5.220000E+03	4.239685E-17	3.465110E-18
5.230000E+03	4.251878E-17	3.471393E-18
5.240000E+03	4.262505E-17	3.476554E-18
5.250000E+03	4.271426E-17	3.480513E-18
5.260000E+03	4.278630E-17	3.483296E-18
5.270000E+03	4.284070E-17	3.484901E-18
5.280000E+03	4.287619E-17	3.485258E-18
5.290000E+03	4.289241E-17	3.484372E-18
5.300000E+03	4.288952E-17	3.482287E-18
5.310000E+03	4.286690E-17	3.478982E-18
5.320000E+03	4.282400E-17	3.474439E-18
5.330000E+03	4.276082E-17	3.468683E-18
5.340000E+03	4.267746E-17	3.461741E-18
5.350000E+03	4.257412E-17	3.453646E-18
5.360000E+03	4.245069E-17	3.444402E-18
5.370000E+03	4.230805E-17	3.434087E-18
5.380000E+03	4.214632E-17	3.422717E-18
5.390000E+03	4.196661E-17	3.410380E-18
5.400000E+03	4.176930E-17	3.397101E-18
5.410000E+03	4.155615E-17	3.383013E-18
5.420000E+03	4.132859E-17	3.368218E-18
5.430000E+03	4.108735E-17	3.352757E-18
5.440000E+03	4.083487E-17	3.336806E-18
5.450000E+03	4.057247E-17	3.320445E-18
5.460000E+03	4.029992E-17	3.303625E-18
5.470000E+03	4.001992E-17	3.286531E-18
5.480000E+03	3.973319E-17	3.269188E-18
5.490000E+03	3.944053E-17	3.251621E-18
5.500000E+03	3.914321E-17	3.233890E-18
5.510000E+03	3.884210E-17	3.216025E-18
5.520000E+03	3.853813E-17	3.198058E-18
5.530000E+03	3.823302E-17	3.180085E-18
5.540000E+03	3.792770E-17	3.162138E-18
5.550000E+03	3.762422E-17	3.144347E-18
5.560000E+03	3.732423E-17	3.126804E-18
5.570000E+03	3.702891E-17	3.109572E-18
5.580000E+03	3.674017E-17	3.092774E-18
5.590000E+03	3.645945E-17	3.076496E-18
5.600000E+03	3.618811E-17	3.060827E-18
5.610000E+03	3.592780E-17	3.045879E-18
5.620000E+03	3.567970E-17	3.031732E-18
5.630000E+03	3.544492E-17	3.018463E-18
5.640000E+03	3.522481E-17	3.006173E-18
5.650000E+03	3.502029E-17	2.994933E-18
5.660000E+03	3.483252E-17	2.984836E-18
5.670000E+03	3.466225E-17	2.975943E-18
5.680000E+03	3.451011E-17	2.968309E-18
5.690000E+03	3.437701E-17	2.962016E-18
5.700000E+03	3.426346E-17	2.957112E-18
5.710000E+03	3.416987E-17	2.953638E-18
5.720000E+03	3.409695E-17	2.951663E-18
5.730000E+03	3.404501E-17	2.951221E-18
5.740000E+03	3.401464E-17	2.952371E-18
5.750000E+03	3.400570E-17	2.955106E-18
5.760000E+03	3.401907E-17	2.959509E-18
5.770000E+03	3.405453E-17	2.965565E-18
5.780000E+03	3.411217E-17	2.973285E-18
5.790000E+03	3.419282E-17	2.982739E-18
5.800000E+03	3.429580E-17	2.993867E-18
5.810000E+03	3.442189E-17	3.006732E-18
5.820000E+03	3.457113E-17	3.021330E-18
5.830000E+03	3.474353E-17	3.037652E-18
5.840000E+03	3.493874E-17	3.055653E-18
5.850000E+03	3.515750E-17	3.075384E-18
5.860000E+03	3.539942E-17	3.096792E-18
5.870000E+03	3.566486E-17	3.119890E-18
5.880000E+03	3.595379E-17	3.144653E-18
5.890000E+03	3.626575E-17	3.171019E-18
5.900000E+03	3.660106E-17	3.198993E-18
5.910000E+03	3.696003E-17	3.228578E-18
5.920000E+03	3.734172E-17	3.259668E-18
5.930000E+03	3.774638E-17	3.292265E-18
5.940000E+03	3.817382E-17	3.326331E-18
5.950000E+03	3.862424E-17	3.361866E-18
5.960000E+03	3.909651E-17	3.398758E-18
5.970000E+03	3.959117E-17	3.437043E-18
5.980000E+03	4.010697E-17	3.476609E-18
5.990000E+03	4.064392E-17	3.517455E-18
6.000000E+03	4.120151E-17	3.559547E-18
6.010000E+03	4.177872E-17	3.602810E-18
6.020000E+03	4.237540E-17	3.647252E-18
6.030000E+03	4.298985E-17	3.692760E-18
6.040000E+03	4.362228E-17	3.739391E-18
6.050000E+03	4.427032E-17	3.786989E-18
6.060000E+03	4.493403E-17	3.835618E-18
6.070000E+03	4.561134E-17	3.885170E-18
6.080000E+03	4.630167E-17	3.935670E-18
6.090000E+03	4.700276E-17	3.987011E-18
6.100000E+03	4.771333E-17	4.039176E-18
6.110000E+03	4.843146E-17	4.092101E-18
6.120000E+03	4.915574E-17	4.145768E-18
6.130000E+03	4.988351E-17	4.200059E-18
6.140000E+03	5.061264E-17	4.254899E-18
6.150000E+03	5.134151E-17	4.310255E-18
6.160000E+03	5.206790E-17	4.366038E-18
6.170000E+03	5.278823E-17	4.422039E-18
6.180000E+03	5.350081E-17	4.478194E-18
6.190000E+03	5.420327E-17	4.534373E-18
6.200000E+03	5.489397E-17	4.590482E-18
6.210000E+03	5.557198E-17	4.646472E-18
6.220000E+03	5.623650E-17	4.702286E-18
6.230000E+03	5.688758E-17	4.757918E-18
6.240000E+03	5.752692E-17	4.813484E-18
6.250000E+03	5.815427E-17	4.868922E-18
6.260000E+03	5.876874E-17	4.924104E-18
6.270000E+03	5.937263E-17	4.979158E-18
6.280000E+03	5.996618E-17	5.034031E-18
6.290000E+03	6.054812E-17	5.088537E-18
6.300000E+03	6.112133E-17	5.142831E-18
6.310000E+03	6.168396E-17	5.196675E-18
6.320000E+03	6.223836E-17	5.250175E-18
6.330000E+03	6.278366E-17	5.303174E-18
6.340000E+03	6.332075E-17	5.355662E-18
6.350000E+03	6.384974E-17	5.407568E-18
6.360000E+03	6.437078E-17	5.458830E-18
6.370000E+03	6.488407E-17	5.509393E-18
6.380000E+03	6.538895E-17	5.559137E-18
6.390000E+03	6.588471E-17	5.607942E-18
6.400000E+03	6.637252E-17	5.655857E-18
6.410000E+03	6.685076E-17	5.702699E-18
6.420000E+03	6.732063E-17	5.748531E-18
6.430000E+03	6.778144E-17	5.793262E-18
6.440000E+03	6.823345E-17	5.836889E-18
6.450000E+03	6.867793E-17	5.879500E-18
6.460000E+03	6.911727E-17	5.921286E-18
6.470000E+03	6.955185E-17	5.962272E-18
6.480000E+03	6.998313E-17	6.002577E-18
6.490000E+03	7.041261E-17	6.042332E-18
6.500000E+03	7.083969E-17	6.081486E-18
6.510000E+03	7.126699E-17	6.120270E-18
6.520000E+03	7.169500E-17	6.158735E-18
6.530000E+03	7.212309E-17	6.196838E-18
6.540000E+03	7.255397E-17	6.234822E-18
6.550000E+03	7.298700E-17	6.272643E-18
6.560000E+03	7.342146E-17	6.310254E-18
6.570000E+03	7.386010E-17	6.347903E-18
6.580000E+03	7.430219E-17	6.385540E-18
6.590000E+03	7.474812E-17	6.423210E-18
6.600000E+03	7.519948E-17	6.461063E-18
6.610000E+03	7.565422E-17	6.498932E-18
6.620000E+03	7.611261E-17	6.536852E-18
6.630000E+03	7.657745E-17	6.575072E-18
6.640000E+03	7.704653E-17	6.613408E-18
6.650000E+03	7.752005E-17	6.651887E-18
6.660000E+03	7.799953E-17	6.690643E-18
6.670000E+03	7.848386E-17	6.729586E-18
6.680000E+03	7.897319E-17	6.768730E-18
6.690000E+03	7.946899E-17	6.808203E-18
6.700000E+03	7.996868E-17	6.847784E-18
6.710000E+03	8.047229E-17	6.887473E-18
6.720000E+03	8.098262E-17	6.927507E-18
6.730000E+03	8.149693E-17	6.967646E-18
6.740000E+03	8.201516E-17	7.007879E-18
6.750000E+03	8.253872E-17	7.048318E-18
6.760000E+03	8.306610E-17	7.088824E-18
6.770000E+03	8.359721E-17	7.129380E-18
6.780000E+03	8.413191E-17	7.169961E-18
6.790000E+03	8.467008E-17	7.210544E-18
6.800000E+03	8.521001E-17	7.250971E-18
6.810000E+03	8.575305E-17	7.291339E-18
6.820000E+03	8.629900E-17	7.331618E-18
6.830000E+03	8.684607E-17	7.371642E-18
6.840000E+03	8.739560E-17	7.411508E-18
6.850000E+03	8.794574E-17	7.451046E-18
6.860000E+03	8.849621E-17	7.490218E-18
6.870000E+03	8.904671E-17	7.528988E-18
6.880000E+03	8.959527E-17	7.567179E-18
6.890000E+03	9.014490E-17	7.605035E-18
6.900000E+03	9.069364E-17	7.642385E-18
6.910000E+03	9.123945E-17	7.679053E-18
6.920000E+03	9.178373E-17	7.715152E-18
6.930000E+03	9.232440E-17	7.750510E-18
6.940000E+03	9.286112E-17	7.785098E-18
6.950000E+03	9.339533E-17	7.819044E-18
6.960000E+03	9.392495E-17	7.852178E-18
6.970000E+03	9.444967E-17	7.884482E-18
6.980000E+03	9.496919E-17	7.915942E-18
6.990000E+03	9.548323E-17	7.946544E-18
7.000000E+03	9.598967E-17	7.976123E-18
7.010000E+03	9.649200E-17	8.004981E-18
7.020000E+03	9.698627E-17	8.032800E-18
7.030000E+03	9.747225E-17	8.059574E-18
7.040000E+03	9.795168E-17	8.085455E-18
7.050000E+03	9.842251E-17	8.110282E-18
7.060000E+03	9.888461E-17	8.134051E-18
7.070000E+03	9.933789E-17	8.156760E-18
7.080000E+03	9.978229E-17	8.178406E-18
7.090000E+03	1.002198E-16	8.199151E-18
7.100000E+03	1.006465E-16	8.218665E-18
7.110000E+03	1.010622E-16	8.236943E-18
7.120000E+03	1.014693E-16	8.254147E-18
7.130000E+03	1.018676E-16	8.270275E-18
7.140000E+03	1.022553E-16	8.285155E-18
7.150000E+03	1.026347E-16	8.298954E-18
7.160000E+03	1.030016E-16	8.311329E-18
7.170000E+03	1.033605E-16	8.322617E-18
7.180000E+03	1.037094E-16	8.332648E-18
7.190000E+03	1.040486E-16	8.341423E-18
7.200000E+03	1.043760E-16	8.348773E-18
7.210000E+03	1.046963E-16	8.355051E-18
7.220000E+03	1.050052E-16	8.359922E-18
7.230000E+03	1.053052E-16	8.363575E-18
7.240000E+03	1.055943E-16	8.365858E-18
7.250000E+03	1.058749E-16	8.366976E-18
7.260000E+03	1.061450E-16	8.366790E-18
7.270000E+03	1.064046E-16	8.365347E-18
7.280000E+03	1.066564E-16	8.362880E-18
7.290000E+03	1.068980E-16	8.359280E-18
7.300000E+03	1.071321E-16	8.354806E-18
7.310000E+03	1.073542E-16	8.349193E-18
7.320000E+03	1.075667E-16	8.342728E-18
7.330000E+03	1.077722E-16	8.335709E-18
7.340000E+03	1.079660E-16	8.327915E-18
7.350000E+03	1.081508E-16	8.319675E-18
7.360000E+03	1.083243E-16	8.310972E-18
7.370000E+03	1.084890E-16	8.302165E-18
7.380000E+03	1.086429E-16	8.293262E-18
7.390000E+03	1.087860E-16	8.284464E-18
7.400000E+03	1.089187E-16	8.275979E-18
7.410000E+03	1.090387E-16	8.267839E-18
7.420000E+03	1.091462E-16	8.260257E-18
7.430000E+03	1.092416E-16	8.253449E-18
7.440000E+03	1.093250E-16	8.247619E-18
7.450000E+03	1.093993E-16	8.243148E-18
7.460000E+03	1.094623E-16	8.240032E-18
7.470000E+03	1.095191E-16	8.238801E-18
7.480000E+03	1.095703E-16	8.239589E-18
7.490000E+03	1.096161E-16	8.242501E-18
7.500000E+03	1.096568E-16	8.247604E-18
7.510000E+03	1.096927E-16	8.254925E-18
7.520000E+03	1.097292E-16	8.264814E-18
7.530000E+03	1.097612E-16	8.276813E-18
7.540000E+03	1.097914E-16	8.290987E-18
7.550000E+03	1.098199E-16	8.307181E-18
7.560000E+03	1.098492E-16	8.325407E-18
7.570000E+03	1.098742E-16	8.345078E-18
7.580000E+03	1.098975E-16	8.366171E-18
7.590000E+03	1.099190E-16	8.388461E-18
7.600000E+03	1.099413E-16	8.411924E-18
7.610000E+03	1.099591E-16	8.435946E-18
7.620000E+03	1.099774E-16	8.460713E-18
7.630000E+03	1.099938E-16	8.485830E-18
7.640000E+03	1.100053E-16	8.510913E-18
7.650000E+03	1.100172E-16	8.536204E-18
7.660000E+03	1.100266E-16	8.561360E-18
7.670000E+03	1.100334E-16	8.586258E-18
7.680000E+03	1.100375E-16	8.610798E-18
7.690000E+03	1.100386E-16	8.634900E-18
7.700000E+03	1.100366E-16	8.658501E-18
7.710000E+03	1.100340E-16	8.681769E-18
7.720000E+03	1.100251E-16	8.704252E-18
7.730000E+03	1.100150E-16	8.726358E-18
7.740000E+03	1.100009E-16	8.747868E-18
7.750000E+03	1.099825E-16	8.768783E-18
7.760000E+03	1.099594E-16	8.789111E-18
