#wls	flux	fluxerr
1.600000E+03	1.348058E-16	1.340910E-16
1.640000E+03	1.379375E-16	1.350086E-16
1.680000E+03	1.410138E-16	1.357196E-16
1.720000E+03	1.440653E-16	1.362518E-16
1.760000E+03	1.470519E-16	1.365656E-16
1.800000E+03	1.499575E-16	1.366460E-16
1.840000E+03	1.527753E-16	1.364879E-16
1.880000E+03	1.554699E-16	1.360619E-16
1.920000E+03	1.580158E-16	1.353502E-16
1.960000E+03	1.603854E-16	1.343352E-16
2.000000E+03	1.625255E-16	1.329816E-16
2.040000E+03	1.644178E-16	1.312865E-16
2.080000E+03	1.659876E-16	1.292053E-16
2.120000E+03	1.671664E-16	1.267052E-16
2.160000E+03	1.679028E-16	1.237725E-16
2.200000E+03	1.681234E-16	1.203835E-16
2.240000E+03	1.677405E-16	1.165119E-16
2.280000E+03	1.667552E-16	1.122001E-16
2.320000E+03	1.651581E-16	1.074853E-16
2.360000E+03	1.630122E-16	1.024523E-16
2.400000E+03	1.603836E-16	9.718316E-17
2.440000E+03	1.573321E-16	9.175173E-17
2.480000E+03	1.539180E-16	8.622732E-17
2.520000E+03	1.501696E-16	8.065728E-17
2.560000E+03	1.461381E-16	7.509846E-17
2.600000E+03	1.418416E-16	6.958725E-17
2.640000E+03	1.373058E-16	6.416192E-17
2.680000E+03	1.325483E-16	5.885484E-17
2.720000E+03	1.275953E-16	5.370012E-17
2.760000E+03	1.224679E-16	4.872713E-17
2.800000E+03	1.171893E-16	4.396346E-17
2.840000E+03	1.117950E-16	3.943809E-17
2.880000E+03	1.063205E-16	3.517585E-17
2.920000E+03	1.008128E-16	3.120070E-17
2.960000E+03	9.532398E-17	2.753249E-17
3.000000E+03	8.990922E-17	2.418582E-17
3.010000E+03	8.857316E-17	2.340040E-17
3.020000E+03	8.724625E-17	2.263575E-17
3.030000E+03	8.592904E-17	2.189183E-17
3.040000E+03	8.462394E-17	2.116904E-17
3.050000E+03	8.332959E-17	2.046682E-17
3.060000E+03	8.204664E-17	1.978509E-17
3.070000E+03	8.077914E-17	1.912458E-17
3.080000E+03	7.952420E-17	1.848429E-17
3.090000E+03	7.828576E-17	1.786485E-17
3.100000E+03	7.706274E-17	1.726568E-17
3.110000E+03	7.585579E-17	1.668659E-17
3.120000E+03	7.466856E-17	1.612802E-17
3.130000E+03	7.349864E-17	1.558906E-17
3.140000E+03	7.234818E-17	1.506977E-17
3.150000E+03	7.121784E-17	1.456988E-17
3.160000E+03	7.010962E-17	1.408936E-17
3.170000E+03	6.902286E-17	1.362762E-17
3.180000E+03	6.795952E-17	1.318458E-17
3.190000E+03	6.692027E-17	1.275989E-17
3.200000E+03	6.590460E-17	1.235296E-17
3.210000E+03	6.491444E-17	1.196365E-17
3.220000E+03	6.395158E-17	1.159177E-17
3.230000E+03	6.301445E-17	1.123652E-17
3.240000E+03	6.210593E-17	1.089788E-17
3.250000E+03	6.122456E-17	1.057506E-17
3.260000E+03	6.037404E-17	1.026817E-17
3.270000E+03	5.955194E-17	9.976260E-18
3.280000E+03	5.875989E-17	9.699075E-18
3.290000E+03	5.799936E-17	9.436333E-18
3.300000E+03	5.726994E-17	9.187438E-18
3.310000E+03	5.657299E-17	8.952097E-18
3.320000E+03	5.590722E-17	8.729598E-18
3.330000E+03	5.527396E-17	8.519654E-18
3.340000E+03	5.467362E-17	8.321842E-18
3.350000E+03	5.410655E-17	8.135743E-18
3.360000E+03	5.357311E-17	7.960945E-18
3.370000E+03	5.307284E-17	7.796932E-18
3.380000E+03	5.260609E-17	7.643321E-18
3.390000E+03	5.217315E-17	7.499734E-18
3.400000E+03	5.177432E-17	7.365808E-18
3.410000E+03	5.140917E-17	7.241087E-18
3.420000E+03	5.107799E-17	7.125238E-18
3.430000E+03	5.078104E-17	7.017937E-18
3.440000E+03	5.051791E-17	6.918782E-18
3.450000E+03	5.028889E-17	6.827480E-18
3.460000E+03	5.009424E-17	6.743751E-18
3.470000E+03	4.993295E-17	6.667161E-18
3.480000E+03	4.980594E-17	6.597547E-18
3.490000E+03	4.971286E-17	6.534592E-18
3.500000E+03	4.965338E-17	6.477997E-18
3.510000E+03	4.962780E-17	6.427557E-18
3.520000E+03	4.963522E-17	6.382928E-18
3.530000E+03	4.967595E-17	6.343934E-18
3.540000E+03	4.974972E-17	6.310336E-18
3.550000E+03	4.985625E-17	6.281908E-18
3.560000E+03	4.999530E-17	6.258436E-18
3.570000E+03	5.016659E-17	6.239717E-18
3.580000E+03	5.036932E-17	6.225491E-18
3.590000E+03	5.060378E-17	6.215644E-18
3.600000E+03	5.086914E-17	6.209931E-18
3.610000E+03	5.116566E-17	6.208252E-18
3.620000E+03	5.149195E-17	6.210310E-18
3.630000E+03	5.184877E-17	6.216080E-18
3.640000E+03	5.223414E-17	6.225210E-18
3.650000E+03	5.264821E-17	6.237616E-18
3.660000E+03	5.309003E-17	6.253084E-18
3.670000E+03	5.355965E-17	6.271528E-18
3.680000E+03	5.405550E-17	6.292671E-18
3.690000E+03	5.457752E-17	6.316427E-18
3.700000E+03	5.512455E-17	6.342578E-18
3.710000E+03	5.569643E-17	6.371032E-18
3.720000E+03	5.629185E-17	6.401566E-18
3.730000E+03	5.691106E-17	6.434137E-18
3.740000E+03	5.755206E-17	6.468455E-18
3.750000E+03	5.821494E-17	6.504464E-18
3.760000E+03	5.889865E-17	6.541985E-18
3.770000E+03	5.960257E-17	6.580891E-18
3.780000E+03	6.032550E-17	6.620986E-18
3.790000E+03	6.106722E-17	6.662193E-18
3.800000E+03	6.182580E-17	6.704242E-18
3.810000E+03	6.260089E-17	6.747042E-18
3.820000E+03	6.339152E-17	6.790432E-18
3.830000E+03	6.419663E-17	6.834244E-18
3.840000E+03	6.501511E-17	6.878306E-18
3.850000E+03	6.584521E-17	6.922377E-18
3.860000E+03	6.668682E-17	6.966393E-18
3.870000E+03	6.753865E-17	7.010161E-18
3.880000E+03	6.839877E-17	7.053424E-18
3.890000E+03	6.926635E-17	7.096038E-18
3.900000E+03	7.013994E-17	7.137795E-18
3.910000E+03	7.101865E-17	7.178542E-18
3.920000E+03	7.190034E-17	7.218000E-18
3.930000E+03	7.278468E-17	7.256069E-18
3.940000E+03	7.366946E-17	7.292460E-18
3.950000E+03	7.455435E-17	7.327066E-18
3.960000E+03	7.543709E-17	7.359593E-18
3.970000E+03	7.631607E-17	7.389806E-18
3.980000E+03	7.719094E-17	7.417592E-18
3.990000E+03	7.805945E-17	7.442653E-18
4.000000E+03	7.892063E-17	7.464817E-18
4.010000E+03	7.977291E-17	7.483849E-18
4.020000E+03	8.061539E-17	7.499584E-18
4.030000E+03	8.144654E-17	7.511798E-18
4.040000E+03	8.226485E-17	7.520272E-18
4.050000E+03	8.306956E-17	7.524861E-18
4.060000E+03	8.385994E-17	7.525429E-18
4.070000E+03	8.463325E-17	7.521664E-18
4.080000E+03	8.539026E-17	7.513580E-18
4.090000E+03	8.612832E-17	7.500899E-18
4.100000E+03	8.684764E-17	7.483605E-18
4.110000E+03	8.754636E-17	7.461521E-18
4.120000E+03	8.822409E-17	7.434615E-18
4.130000E+03	8.887982E-17	7.402820E-18
4.140000E+03	8.951254E-17	7.366097E-18
4.150000E+03	9.012132E-17	7.324442E-18
4.160000E+03	9.070524E-17	7.277884E-18
4.170000E+03	9.126417E-17	7.226553E-18
4.180000E+03	9.179727E-17	7.170560E-18
4.190000E+03	9.230295E-17	7.110007E-18
4.200000E+03	9.278037E-17	7.045104E-18
4.210000E+03	9.322865E-17	6.976118E-18
4.220000E+03	9.364768E-17	6.903430E-18
4.230000E+03	9.403575E-17	6.827369E-18
4.240000E+03	9.439185E-17	6.748387E-18
4.250000E+03	9.471410E-17	6.666946E-18
4.260000E+03	9.500205E-17	6.583687E-18
4.270000E+03	9.525358E-17	6.499206E-18
4.280000E+03	9.546716E-17	6.414216E-18
4.290000E+03	9.564111E-17	6.329486E-18
4.300000E+03	9.577196E-17	6.245726E-18
4.310000E+03	9.585919E-17	6.163885E-18
4.320000E+03	9.589892E-17	6.084719E-18
4.330000E+03	9.588863E-17	6.009078E-18
4.340000E+03	9.582489E-17	5.937722E-18
4.350000E+03	9.570653E-17	5.871490E-18
4.360000E+03	9.552845E-17	5.810867E-18
4.370000E+03	9.528970E-17	5.756445E-18
4.380000E+03	9.498818E-17	5.708538E-18
4.390000E+03	9.462327E-17	5.667302E-18
4.400000E+03	9.419837E-17	5.632670E-18
4.410000E+03	9.371906E-17	5.604265E-18
4.420000E+03	9.319304E-17	5.581623E-18
4.430000E+03	9.262504E-17	5.563957E-18
4.440000E+03	9.202294E-17	5.550581E-18
4.450000E+03	9.139209E-17	5.540621E-18
4.460000E+03	9.073831E-17	5.533246E-18
4.470000E+03	9.006863E-17	5.527750E-18
4.480000E+03	8.938581E-17	5.523240E-18
4.490000E+03	8.869688E-17	5.519187E-18
4.500000E+03	8.800383E-17	5.514861E-18
4.510000E+03	8.731217E-17	5.509867E-18
4.520000E+03	8.662476E-17	5.503765E-18
4.530000E+03	8.594490E-17	5.496263E-18
4.540000E+03	8.527562E-17	5.487165E-18
4.550000E+03	8.461815E-17	5.476267E-18
4.560000E+03	8.397653E-17	5.463648E-18
4.570000E+03	8.335157E-17	5.449268E-18
4.580000E+03	8.274537E-17	5.433256E-18
4.590000E+03	8.215988E-17	5.415803E-18
4.600000E+03	8.159688E-17	5.397155E-18
4.610000E+03	8.105723E-17	5.377552E-18
4.620000E+03	8.054171E-17	5.357274E-18
4.630000E+03	8.005167E-17	5.336679E-18
4.640000E+03	7.958836E-17	5.316145E-18
4.650000E+03	7.915292E-17	5.296062E-18
4.660000E+03	7.874490E-17	5.276727E-18
4.670000E+03	7.836595E-17	5.258580E-18
4.680000E+03	7.801615E-17	5.241949E-18
4.690000E+03	7.769550E-17	5.227144E-18
4.700000E+03	7.740461E-17	5.214492E-18
4.710000E+03	7.714331E-17	5.204242E-18
4.720000E+03	7.691132E-17	5.196599E-18
4.730000E+03	7.670845E-17	5.191708E-18
4.740000E+03	7.653466E-17	5.189639E-18
4.750000E+03	7.638987E-17	5.190414E-18
4.760000E+03	7.627396E-17	5.194015E-18
4.770000E+03	7.618668E-17	5.200386E-18
4.780000E+03	7.612701E-17	5.209391E-18
4.790000E+03	7.609531E-17	5.220967E-18
4.800000E+03	7.608966E-17	5.234881E-18
4.810000E+03	7.611102E-17	5.251085E-18
4.820000E+03	7.615735E-17	5.269317E-18
4.830000E+03	7.622877E-17	5.289464E-18
4.840000E+03	7.632460E-17	5.311355E-18
4.850000E+03	7.644266E-17	5.334720E-18
4.860000E+03	7.658370E-17	5.359495E-18
4.870000E+03	7.674620E-17	5.385466E-18
4.880000E+03	7.693014E-17	5.412531E-18
4.890000E+03	7.713245E-17	5.440382E-18
4.900000E+03	7.735458E-17	5.469036E-18
4.910000E+03	7.759418E-17	5.498251E-18
4.920000E+03	7.785121E-17	5.527952E-18
4.930000E+03	7.812405E-17	5.557963E-18
4.940000E+03	7.841266E-17	5.588224E-18
4.950000E+03	7.871467E-17	5.618512E-18
4.960000E+03	7.903003E-17	5.648777E-18
4.970000E+03	7.935871E-17	5.678971E-18
4.980000E+03	7.969836E-17	5.708884E-18
4.990000E+03	8.004816E-17	5.738417E-18
5.000000E+03	8.040814E-17	5.767531E-18
5.010000E+03	8.077750E-17	5.796136E-18
5.020000E+03	8.115389E-17	5.824023E-18
5.030000E+03	8.153730E-17	5.851160E-18
5.040000E+03	8.192698E-17	5.877457E-18
5.050000E+03	8.232213E-17	5.902829E-18
5.060000E+03	8.272113E-17	5.927129E-18
5.070000E+03	8.312316E-17	5.950273E-18
5.080000E+03	8.352820E-17	5.972237E-18
5.090000E+03	8.393370E-17	5.992822E-18
5.100000E+03	8.433958E-17	6.012009E-18
5.110000E+03	8.474401E-17	6.029659E-18
5.120000E+03	8.514598E-17	6.045699E-18
5.130000E+03	8.554440E-17	6.060057E-18
5.140000E+03	8.593809E-17	6.072664E-18
5.150000E+03	8.632498E-17	6.083394E-18
5.160000E+03	8.670462E-17	6.092244E-18
5.170000E+03	8.707386E-17	6.099034E-18
5.180000E+03	8.743210E-17	6.103770E-18
5.190000E+03	8.777689E-17	6.106341E-18
5.200000E+03	8.810656E-17	6.106700E-18
5.210000E+03	8.841937E-17	6.104808E-18
5.220000E+03	8.871349E-17	6.100628E-18
5.230000E+03	8.898526E-17	6.094010E-18
5.240000E+03	8.923449E-17	6.085054E-18
5.250000E+03	8.945651E-17	6.073563E-18
5.260000E+03	8.965108E-17	6.059650E-18
5.270000E+03	8.981436E-17	6.043197E-18
5.280000E+03	8.994521E-17	6.024277E-18
5.290000E+03	9.004076E-17	6.002852E-18
5.300000E+03	9.009817E-17	5.978900E-18
5.310000E+03	9.011652E-17	5.952530E-18
5.320000E+03	9.009231E-17	5.923689E-18
5.330000E+03	9.002489E-17	5.892520E-18
5.340000E+03	8.991202E-17	5.859067E-18
5.350000E+03	8.975169E-17	5.823395E-18
5.360000E+03	8.954302E-17	5.785651E-18
5.370000E+03	8.928546E-17	5.746005E-18
5.380000E+03	8.897871E-17	5.704649E-18
5.390000E+03	8.862110E-17	5.661688E-18
5.400000E+03	8.821392E-17	5.617420E-18
5.410000E+03	8.775708E-17	5.572051E-18
5.420000E+03	8.725264E-17	5.525918E-18
5.430000E+03	8.670039E-17	5.479206E-18
5.440000E+03	8.610485E-17	5.432381E-18
5.450000E+03	8.546911E-17	5.385802E-18
5.460000E+03	8.480086E-17	5.340087E-18
5.470000E+03	8.410121E-17	5.295407E-18
5.480000E+03	8.336750E-17	5.251654E-18
5.490000E+03	8.259920E-17	5.208807E-18
5.500000E+03	8.179920E-17	5.166943E-18
5.510000E+03	8.097531E-17	5.126230E-18
5.520000E+03	8.013158E-17	5.086540E-18
5.530000E+03	7.927693E-17	5.048036E-18
5.540000E+03	7.841613E-17	5.010617E-18
5.550000E+03	7.755617E-17	4.974340E-18
5.560000E+03	7.670374E-17	4.939263E-18
5.570000E+03	7.586518E-17	4.905454E-18
5.580000E+03	7.504488E-17	4.872893E-18
5.590000E+03	7.424837E-17	4.841670E-18
5.600000E+03	7.348071E-17	4.811886E-18
5.610000E+03	7.274571E-17	4.783599E-18
5.620000E+03	7.204671E-17	4.756873E-18
5.630000E+03	7.138801E-17	4.731869E-18
5.640000E+03	7.077121E-17	4.708602E-18
5.650000E+03	7.019891E-17	4.687178E-18
5.660000E+03	6.967248E-17	4.667644E-18
5.670000E+03	6.919359E-17	4.650085E-18
5.680000E+03	6.876274E-17	4.634525E-18
5.690000E+03	6.838005E-17	4.620970E-18
5.700000E+03	6.804600E-17	4.609458E-18
5.710000E+03	6.776073E-17	4.600010E-18
5.720000E+03	6.752269E-17	4.592529E-18
5.730000E+03	6.733152E-17	4.587002E-18
5.740000E+03	6.718595E-17	4.583344E-18
5.750000E+03	6.708454E-17	4.581456E-18
5.760000E+03	6.702718E-17	4.581320E-18
5.770000E+03	6.701082E-17	4.582708E-18
5.780000E+03	6.703523E-17	4.585571E-18
5.790000E+03	6.709801E-17	4.589702E-18
5.800000E+03	6.719821E-17	4.594979E-18
5.810000E+03	6.733421E-17	4.601221E-18
5.820000E+03	6.750443E-17	4.608238E-18
5.830000E+03	6.770809E-17	4.615880E-18
5.840000E+03	6.794303E-17	4.623893E-18
5.850000E+03	6.820864E-17	4.632118E-18
5.860000E+03	6.850367E-17	4.640341E-18
5.870000E+03	6.882621E-17	4.648299E-18
5.880000E+03	6.917670E-17	4.655881E-18
5.890000E+03	6.955263E-17	4.662779E-18
5.900000E+03	6.995464E-17	4.668892E-18
5.910000E+03	7.038115E-17	4.673978E-18
5.920000E+03	7.083141E-17	4.677856E-18
5.930000E+03	7.130555E-17	4.680412E-18
5.940000E+03	7.180135E-17	4.681397E-18
5.950000E+03	7.231905E-17	4.680735E-18
5.960000E+03	7.285894E-17	4.678380E-18
5.970000E+03	7.341891E-17	4.674152E-18
5.980000E+03	7.399934E-17	4.668065E-18
5.990000E+03	7.459980E-17	4.660113E-18
6.000000E+03	7.521904E-17	4.650277E-18
6.010000E+03	7.585664E-17	4.638636E-18
6.020000E+03	7.651219E-17	4.625317E-18
6.030000E+03	7.718436E-17	4.610446E-18
6.040000E+03	7.787269E-17	4.594260E-18
6.050000E+03	7.857756E-17	4.577115E-18
6.060000E+03	7.929564E-17	4.559219E-18
6.070000E+03	8.002811E-17	4.541118E-18
6.080000E+03	8.077135E-17	4.523169E-18
6.090000E+03	8.152631E-17	4.506072E-18
6.100000E+03	8.228900E-17	4.490332E-18
6.110000E+03	8.305905E-17	4.476745E-18
6.120000E+03	8.383293E-17	4.466005E-18
6.130000E+03	8.460983E-17	4.459015E-18
6.140000E+03	8.538562E-17	4.456546E-18
6.150000E+03	8.615686E-17	4.459425E-18
6.160000E+03	8.692192E-17	4.468551E-18
6.170000E+03	8.767575E-17	4.484593E-18
6.180000E+03	8.841628E-17	4.508269E-18
6.190000E+03	8.914034E-17	4.540089E-18
6.200000E+03	8.984611E-17	4.580255E-18
6.210000E+03	9.053418E-17	4.628574E-18
6.220000E+03	9.120770E-17	4.684758E-18
6.230000E+03	9.186755E-17	4.748244E-18
6.240000E+03	9.251574E-17	4.818405E-18
6.250000E+03	9.315415E-17	4.894528E-18
6.260000E+03	9.378702E-17	4.975985E-18
6.270000E+03	9.441360E-17	5.061876E-18
6.280000E+03	9.503540E-17	5.151436E-18
6.290000E+03	9.565507E-17	5.244003E-18
6.300000E+03	9.627388E-17	5.338895E-18
6.310000E+03	9.689174E-17	5.435421E-18
6.320000E+03	9.750836E-17	5.532943E-18
6.330000E+03	9.812597E-17	5.631040E-18
6.340000E+03	9.874275E-17	5.729133E-18
6.350000E+03	9.935942E-17	5.826854E-18
6.360000E+03	9.997527E-17	5.923816E-18
6.370000E+03	1.005895E-16	6.019686E-18
6.380000E+03	1.012011E-16	6.114179E-18
6.390000E+03	1.018092E-16	6.207051E-18
6.400000E+03	1.024127E-16	6.298095E-18
6.410000E+03	1.030089E-16	6.387048E-18
6.420000E+03	1.035981E-16	6.473854E-18
6.430000E+03	1.041792E-16	6.558393E-18
6.440000E+03	1.047524E-16	6.640665E-18
6.450000E+03	1.053180E-16	6.720694E-18
6.460000E+03	1.058733E-16	6.798324E-18
6.470000E+03	1.064204E-16	6.873715E-18
6.480000E+03	1.069581E-16	6.946839E-18
6.490000E+03	1.074871E-16	7.017784E-18
6.500000E+03	1.080049E-16	7.086436E-18
6.510000E+03	1.085137E-16	7.153008E-18
6.520000E+03	1.090113E-16	7.217395E-18
6.530000E+03	1.094984E-16	7.279715E-18
6.540000E+03	1.099728E-16	7.339865E-18
6.550000E+03	1.104356E-16	7.397969E-18
6.560000E+03	1.108881E-16	7.454159E-18
6.570000E+03	1.113262E-16	7.508217E-18
6.580000E+03	1.117514E-16	7.560272E-18
6.590000E+03	1.121651E-16	7.610466E-18
6.600000E+03	1.125635E-16	7.658571E-18
6.610000E+03	1.129499E-16	7.704853E-18
6.620000E+03	1.133205E-16	7.749081E-18
6.630000E+03	1.136789E-16	7.791530E-18
6.640000E+03	1.140210E-16	7.831964E-18
6.650000E+03	1.143488E-16	7.870536E-18
6.660000E+03	1.146620E-16	7.907269E-18
6.670000E+03	1.149586E-16	7.942053E-18
6.680000E+03	1.152405E-16	7.975045E-18
6.690000E+03	1.155055E-16	8.006131E-18
6.700000E+03	1.157537E-16	8.035329E-18
6.710000E+03	1.159868E-16	8.062795E-18
6.720000E+03	1.162028E-16	8.088402E-18
6.730000E+03	1.163996E-16	8.112017E-18
6.740000E+03	1.165811E-16	8.133923E-18
6.750000E+03	1.167433E-16	8.153831E-18
6.760000E+03	1.168880E-16	8.171870E-18
6.770000E+03	1.170153E-16	8.188022E-18
6.780000E+03	1.171231E-16	8.202111E-18
6.790000E+03	1.172112E-16	8.214101E-18
6.800000E+03	1.172798E-16	8.223950E-18
6.810000E+03	1.173310E-16	8.231757E-18
6.820000E+03	1.173626E-16	8.237324E-18
6.830000E+03	1.173725E-16	8.240446E-18
6.840000E+03	1.173631E-16	8.241221E-18
6.850000E+03	1.173344E-16	8.239597E-18
6.860000E+03	1.172865E-16	8.235532E-18
6.870000E+03	1.172174E-16	8.228834E-18
6.880000E+03	1.171273E-16	8.219476E-18
6.890000E+03	1.170187E-16	8.207595E-18
6.900000E+03	1.168895E-16	8.193034E-18
6.910000E+03	1.167401E-16	8.175803E-18
6.920000E+03	1.165708E-16	8.155929E-18
6.930000E+03	1.163819E-16	8.133449E-18
6.940000E+03	1.161738E-16	8.108419E-18
6.950000E+03	1.159471E-16	8.080905E-18
6.960000E+03	1.156998E-16	8.050828E-18
6.970000E+03	1.154326E-16	8.018278E-18
6.980000E+03	1.151483E-16	7.983504E-18
6.990000E+03	1.148474E-16	7.946611E-18
7.000000E+03	1.145262E-16	7.907395E-18
7.010000E+03	1.141899E-16	7.866274E-18
7.020000E+03	1.138369E-16	7.823205E-18
7.030000E+03	1.134680E-16	7.778295E-18
7.040000E+03	1.130819E-16	7.731497E-18
7.050000E+03	1.126818E-16	7.683062E-18
7.060000E+03	1.122684E-16	7.633085E-18
7.070000E+03	1.118430E-16	7.581648E-18
7.080000E+03	1.114042E-16	7.528674E-18
7.090000E+03	1.109531E-16	7.474229E-18
7.100000E+03	1.104931E-16	7.418512E-18
7.110000E+03	1.100231E-16	7.361414E-18
7.120000E+03	1.095421E-16	7.302814E-18
7.130000E+03	1.090558E-16	7.243019E-18
7.140000E+03	1.085633E-16	7.181883E-18
7.150000E+03	1.080658E-16	7.119393E-18
7.160000E+03	1.075624E-16	7.055382E-18
7.170000E+03	1.070568E-16	6.989962E-18
7.180000E+03	1.065503E-16	6.923090E-18
7.190000E+03	1.060421E-16	6.854575E-18
7.200000E+03	1.055335E-16	6.784365E-18
7.210000E+03	1.050281E-16	6.712541E-18
7.220000E+03	1.045251E-16	6.638908E-18
7.230000E+03	1.040257E-16	6.563410E-18
7.240000E+03	1.035312E-16	6.485998E-18
7.250000E+03	1.030428E-16	6.406629E-18
7.260000E+03	1.025595E-16	6.325143E-18
7.270000E+03	1.020865E-16	6.241790E-18
7.280000E+03	1.016227E-16	6.156444E-18
7.290000E+03	1.011646E-16	6.068879E-18
7.300000E+03	1.007194E-16	5.979544E-18
7.310000E+03	1.002811E-16	5.888155E-18
7.320000E+03	9.985471E-17	5.795106E-18
7.330000E+03	9.943823E-17	5.700459E-18
7.340000E+03	9.903191E-17	5.604457E-18
7.350000E+03	9.863368E-17	5.507288E-18
7.360000E+03	9.824344E-17	5.409328E-18
7.370000E+03	9.786091E-17	5.311032E-18
7.380000E+03	9.748565E-17	5.212936E-18
7.390000E+03	9.711283E-17	5.115447E-18
7.400000E+03	9.674374E-17	5.019404E-18
7.410000E+03	9.637316E-17	4.925415E-18
7.420000E+03	9.599773E-17	4.834303E-18
7.430000E+03	9.561387E-17	4.746981E-18
7.440000E+03	9.522191E-17	4.664646E-18
7.450000E+03	9.481980E-17	4.588435E-18
7.460000E+03	9.440941E-17	4.519698E-18
7.470000E+03	9.399233E-17	4.459744E-18
7.480000E+03	9.356372E-17	4.409496E-18
7.490000E+03	9.312279E-17	4.369930E-18
7.500000E+03	9.267081E-17	4.341900E-18
7.510000E+03	9.220097E-17	4.325592E-18
7.520000E+03	9.171764E-17	4.321045E-18
7.530000E+03	9.122494E-17	4.327498E-18
7.540000E+03	9.072725E-17	4.343926E-18
7.550000E+03	9.022882E-17	4.369138E-18
7.560000E+03	8.973359E-17	4.401854E-18
7.570000E+03	8.924719E-17	4.440871E-18
7.580000E+03	8.877075E-17	4.484825E-18
7.590000E+03	8.830904E-17	4.532628E-18
7.600000E+03	8.786232E-17	4.583098E-18
7.610000E+03	8.743454E-17	4.635381E-18
7.620000E+03	8.702722E-17	4.688659E-18
7.630000E+03	8.663951E-17	4.742133E-18
7.640000E+03	8.627430E-17	4.795354E-18
7.650000E+03	8.593218E-17	4.847885E-18
7.660000E+03	8.561148E-17	4.899283E-18
7.670000E+03	8.531436E-17	4.949433E-18
7.680000E+03	8.503874E-17	4.998070E-18
7.690000E+03	8.478843E-17	5.045355E-18
7.700000E+03	8.455906E-17	5.091037E-18
7.710000E+03	8.435216E-17	5.135266E-18
7.720000E+03	8.416516E-17	5.177988E-18
7.730000E+03	8.399943E-17	5.219421E-18
7.740000E+03	8.385426E-17	5.259678E-18
7.750000E+03	8.372888E-17	5.298885E-18
7.760000E+03	8.362049E-17	5.337041E-18
