#wls	flux	fluxerr
1.600000E+03	1.493130E-16	1.446160E-16
1.640000E+03	1.541020E-16	1.467772E-16
1.680000E+03	1.586991E-16	1.485500E-16
1.720000E+03	1.630292E-16	1.498703E-16
1.760000E+03	1.670756E-16	1.507321E-16
1.800000E+03	1.707554E-16	1.510728E-16
1.840000E+03	1.740145E-16	1.508613E-16
1.880000E+03	1.768258E-16	1.500942E-16
1.920000E+03	1.791017E-16	1.487212E-16
1.960000E+03	1.807999E-16	1.467361E-16
2.000000E+03	1.818517E-16	1.441165E-16
2.040000E+03	1.822207E-16	1.408716E-16
2.080000E+03	1.818255E-16	1.369808E-16
2.120000E+03	1.806119E-16	1.324518E-16
2.160000E+03	1.785308E-16	1.273017E-16
2.200000E+03	1.755017E-16	1.215315E-16
2.240000E+03	1.714702E-16	1.151682E-16
2.280000E+03	1.664583E-16	1.082942E-16
2.320000E+03	1.605497E-16	1.010310E-16
2.360000E+03	1.539290E-16	9.355478E-17
2.400000E+03	1.467503E-16	8.600941E-17
2.440000E+03	1.391494E-16	7.851517E-17
2.480000E+03	1.312633E-16	7.118129E-17
2.520000E+03	1.231823E-16	6.408052E-17
2.560000E+03	1.150046E-16	5.728103E-17
2.600000E+03	1.068129E-16	5.083447E-17
2.640000E+03	9.869020E-17	4.478436E-17
2.680000E+03	9.070321E-17	3.915902E-17
2.720000E+03	8.291629E-17	3.397881E-17
2.760000E+03	7.538711E-17	2.925480E-17
2.800000E+03	6.816665E-17	2.498948E-17
2.840000E+03	6.130079E-17	2.117810E-17
2.880000E+03	5.483160E-17	1.780978E-17
2.920000E+03	4.879395E-17	1.486701E-17
2.960000E+03	4.321560E-17	1.232675E-17
3.000000E+03	3.811385E-17	1.016047E-17
3.010000E+03	3.691483E-17	9.673819E-18
3.020000E+03	3.574514E-17	9.207726E-18
3.030000E+03	3.460617E-17	8.762014E-18
3.040000E+03	3.349685E-17	8.335869E-18
3.050000E+03	3.241762E-17	7.928869E-18
3.060000E+03	3.136880E-17	7.540555E-18
3.070000E+03	3.034866E-17	7.169984E-18
3.080000E+03	2.935875E-17	6.817007E-18
3.090000E+03	2.839739E-17	6.480710E-18
3.100000E+03	2.746531E-17	6.160757E-18
3.110000E+03	2.656146E-17	5.856410E-18
3.120000E+03	2.568541E-17	5.567082E-18
3.130000E+03	2.483765E-17	5.292402E-18
3.140000E+03	2.401670E-17	5.031577E-18
3.150000E+03	2.322342E-17	4.784326E-18
3.160000E+03	2.245592E-17	4.549807E-18
3.170000E+03	2.171496E-17	4.327732E-18
3.180000E+03	2.099915E-17	4.117397E-18
3.190000E+03	2.030872E-17	3.918428E-18
3.200000E+03	1.964270E-17	3.730236E-18
3.210000E+03	1.900089E-17	3.552387E-18
3.220000E+03	1.838267E-17	3.384387E-18
3.230000E+03	1.778746E-17	3.225763E-18
3.240000E+03	1.721440E-17	3.076003E-18
3.250000E+03	1.666347E-17	2.934769E-18
3.260000E+03	1.613380E-17	2.801580E-18
3.270000E+03	1.562508E-17	2.676067E-18
3.280000E+03	1.513645E-17	2.557787E-18
3.290000E+03	1.466735E-17	2.446359E-18
3.300000E+03	1.421745E-17	2.341454E-18
3.310000E+03	1.378595E-17	2.242682E-18
3.320000E+03	1.337250E-17	2.149742E-18
3.330000E+03	1.297653E-17	2.062309E-18
3.340000E+03	1.259713E-17	1.980014E-18
3.350000E+03	1.223414E-17	1.902627E-18
3.360000E+03	1.188685E-17	1.829841E-18
3.370000E+03	1.155476E-17	1.761393E-18
3.380000E+03	1.123735E-17	1.697032E-18
3.390000E+03	1.093385E-17	1.636479E-18
3.400000E+03	1.064410E-17	1.579558E-18
3.410000E+03	1.036748E-17	1.526035E-18
3.420000E+03	1.010342E-17	1.475694E-18
3.430000E+03	9.851512E-18	1.428352E-18
3.440000E+03	9.611335E-18	1.383834E-18
3.450000E+03	9.382263E-18	1.341943E-18
3.460000E+03	9.164042E-18	1.302546E-18
3.470000E+03	8.956092E-18	1.265469E-18
3.480000E+03	8.758078E-18	1.230581E-18
3.490000E+03	8.569575E-18	1.197745E-18
3.500000E+03	8.390180E-18	1.166833E-18
3.510000E+03	8.219510E-18	1.137728E-18
3.520000E+03	8.057204E-18	1.110319E-18
3.530000E+03	7.902831E-18	1.084492E-18
3.540000E+03	7.755990E-18	1.060141E-18
3.550000E+03	7.616386E-18	1.037180E-18
3.560000E+03	7.483661E-18	1.015519E-18
3.570000E+03	7.357555E-18	9.950833E-19
3.580000E+03	7.237670E-18	9.757847E-19
3.590000E+03	7.123785E-18	9.575608E-19
3.600000E+03	7.015613E-18	9.403443E-19
3.610000E+03	6.913024E-18	9.240908E-19
3.620000E+03	6.815688E-18	9.087318E-19
3.630000E+03	6.723426E-18	8.942213E-19
3.640000E+03	6.635875E-18	8.804906E-19
3.650000E+03	6.552882E-18	8.675013E-19
3.660000E+03	6.474241E-18	8.552090E-19
3.670000E+03	6.399753E-18	8.435722E-19
3.680000E+03	6.329287E-18	8.325598E-19
3.690000E+03	6.262717E-18	8.221422E-19
3.700000E+03	6.199861E-18	8.122842E-19
3.710000E+03	6.140659E-18	8.029668E-19
3.720000E+03	6.084938E-18	7.941579E-19
3.730000E+03	6.032692E-18	7.858477E-19
3.740000E+03	5.983807E-18	7.780131E-19
3.750000E+03	5.938169E-18	7.706319E-19
3.760000E+03	5.895722E-18	7.636895E-19
3.770000E+03	5.856455E-18	7.571784E-19
3.780000E+03	5.820257E-18	7.510784E-19
3.790000E+03	5.787120E-18	7.453826E-19
3.800000E+03	5.756933E-18	7.400720E-19
3.810000E+03	5.729637E-18	7.351343E-19
3.820000E+03	5.705222E-18	7.305638E-19
3.830000E+03	5.683675E-18	7.263549E-19
3.840000E+03	5.664890E-18	7.224900E-19
3.850000E+03	5.648902E-18	7.189700E-19
3.860000E+03	5.635559E-18	7.157723E-19
3.870000E+03	5.624942E-18	7.129040E-19
3.880000E+03	5.616902E-18	7.103431E-19
3.890000E+03	5.611519E-18	7.080967E-19
3.900000E+03	5.608690E-18	7.061491E-19
3.910000E+03	5.608406E-18	7.044964E-19
3.920000E+03	5.610610E-18	7.031289E-19
3.930000E+03	5.615295E-18	7.020428E-19
3.940000E+03	5.622406E-18	7.012290E-19
3.950000E+03	5.631980E-18	7.006895E-19
3.960000E+03	5.643919E-18	7.004096E-19
3.970000E+03	5.658218E-18	7.003860E-19
3.980000E+03	5.674825E-18	7.006101E-19
3.990000E+03	5.693779E-18	7.010842E-19
4.000000E+03	5.715032E-18	7.017998E-19
4.010000E+03	5.738536E-18	7.027484E-19
4.020000E+03	5.764241E-18	7.039216E-19
4.030000E+03	5.792191E-18	7.053223E-19
4.040000E+03	5.822295E-18	7.069367E-19
4.050000E+03	5.854597E-18	7.087679E-19
4.060000E+03	5.889007E-18	7.108023E-19
4.070000E+03	5.925525E-18	7.130377E-19
4.080000E+03	5.964153E-18	7.154717E-19
4.090000E+03	6.004849E-18	7.180969E-19
4.100000E+03	6.047567E-18	7.209056E-19
4.110000E+03	6.092265E-18	7.238904E-19
4.120000E+03	6.138996E-18	7.270554E-19
4.130000E+03	6.187668E-18	7.303877E-19
4.140000E+03	6.238288E-18	7.338862E-19
4.150000E+03	6.290764E-18	7.375382E-19
4.160000E+03	6.345102E-18	7.413428E-19
4.170000E+03	6.401310E-18	7.452993E-19
4.180000E+03	6.459294E-18	7.493958E-19
4.190000E+03	6.519060E-18	7.536318E-19
4.200000E+03	6.580515E-18	7.579957E-19
4.210000E+03	6.643664E-18	7.624877E-19
4.220000E+03	6.708409E-18	7.670961E-19
4.230000E+03	6.774756E-18	7.718218E-19
4.240000E+03	6.842602E-18	7.766534E-19
4.250000E+03	6.911898E-18	7.815858E-19
4.260000E+03	6.982536E-18	7.866080E-19
4.270000E+03	7.054517E-18	7.917212E-19
4.280000E+03	7.127728E-18	7.969143E-19
4.290000E+03	7.202111E-18	8.021826E-19
4.300000E+03	7.277547E-18	8.075147E-19
4.310000E+03	7.353912E-18	8.128994E-19
4.320000E+03	7.431137E-18	8.183312E-19
4.330000E+03	7.509150E-18	8.238047E-19
4.340000E+03	7.587815E-18	8.293078E-19
4.350000E+03	7.667053E-18	8.348344E-19
4.360000E+03	7.746722E-18	8.403714E-19
4.370000E+03	7.826796E-18	8.459185E-19
4.380000E+03	7.907189E-18	8.514686E-19
4.390000E+03	7.988007E-18	8.570349E-19
4.400000E+03	8.069165E-18	8.626096E-19
4.410000E+03	8.150711E-18	8.681987E-19
4.420000E+03	8.232631E-18	8.738010E-19
4.430000E+03	8.315047E-18	8.794296E-19
4.440000E+03	8.397885E-18	8.850761E-19
4.450000E+03	8.481138E-18	8.907394E-19
4.460000E+03	8.564872E-18	8.964256E-19
4.470000E+03	8.649087E-18	9.021338E-19
4.480000E+03	8.733786E-18	9.078635E-19
4.490000E+03	8.818902E-18	9.136064E-19
4.500000E+03	8.904514E-18	9.193700E-19
4.510000E+03	8.990558E-18	9.251470E-19
4.520000E+03	9.077046E-18	9.309377E-19
4.530000E+03	9.163993E-18	9.367433E-19
4.540000E+03	9.251259E-18	9.425493E-19
4.550000E+03	9.338942E-18	9.483655E-19
4.560000E+03	9.426983E-18	9.541863E-19
4.570000E+03	9.515409E-18	9.600146E-19
4.580000E+03	9.604081E-18	9.658372E-19
4.590000E+03	9.693112E-18	9.716662E-19
4.600000E+03	9.782367E-18	9.774890E-19
4.610000E+03	9.871968E-18	9.833190E-19
4.620000E+03	9.961781E-18	9.891439E-19
4.630000E+03	1.005185E-17	9.949692E-19
4.640000E+03	1.014213E-17	1.000792E-18
4.650000E+03	1.023277E-17	1.006627E-18
4.660000E+03	1.032364E-17	1.012464E-18
4.670000E+03	1.041489E-17	1.018317E-18
4.680000E+03	1.050651E-17	1.024186E-18
4.690000E+03	1.059845E-17	1.030069E-18
4.700000E+03	1.069091E-17	1.035982E-18
4.710000E+03	1.078376E-17	1.041915E-18
4.720000E+03	1.087709E-17	1.047877E-18
4.730000E+03	1.097079E-17	1.053856E-18
4.740000E+03	1.106495E-17	1.059862E-18
4.750000E+03	1.115936E-17	1.065875E-18
4.760000E+03	1.125411E-17	1.071902E-18
4.770000E+03	1.134908E-17	1.077935E-18
4.780000E+03	1.144438E-17	1.083982E-18
4.790000E+03	1.153990E-17	1.090033E-18
4.800000E+03	1.163561E-17	1.096088E-18
4.810000E+03	1.173152E-17	1.102148E-18
4.820000E+03	1.182761E-17	1.108214E-18
4.830000E+03	1.192389E-17	1.114285E-18
4.840000E+03	1.202021E-17	1.120352E-18
4.850000E+03	1.211670E-17	1.126428E-18
4.860000E+03	1.221333E-17	1.132512E-18
4.870000E+03	1.230998E-17	1.138596E-18
4.880000E+03	1.240663E-17	1.144680E-18
4.890000E+03	1.250339E-17	1.150777E-18
4.900000E+03	1.259998E-17	1.156865E-18
4.910000E+03	1.269663E-17	1.162966E-18
4.920000E+03	1.279318E-17	1.169069E-18
4.930000E+03	1.288950E-17	1.175162E-18
4.940000E+03	1.298565E-17	1.181255E-18
4.950000E+03	1.308161E-17	1.187346E-18
4.960000E+03	1.317720E-17	1.193421E-18
4.970000E+03	1.327251E-17	1.199487E-18
4.980000E+03	1.336722E-17	1.205517E-18
4.990000E+03	1.346152E-17	1.211529E-18
5.000000E+03	1.355524E-17	1.217507E-18
5.010000E+03	1.364816E-17	1.223430E-18
5.020000E+03	1.374034E-17	1.229303E-18
5.030000E+03	1.383158E-17	1.235108E-18
5.040000E+03	1.392177E-17	1.240834E-18
5.050000E+03	1.401083E-17	1.246474E-18
5.060000E+03	1.409866E-17	1.252018E-18
5.070000E+03	1.418502E-17	1.257445E-18
5.080000E+03	1.426994E-17	1.262757E-18
5.090000E+03	1.435316E-17	1.267934E-18
5.100000E+03	1.443457E-17	1.272967E-18
5.110000E+03	1.451391E-17	1.277834E-18
5.120000E+03	1.459117E-17	1.282540E-18
5.130000E+03	1.466596E-17	1.287053E-18
5.140000E+03	1.473841E-17	1.291391E-18
5.150000E+03	1.480810E-17	1.295524E-18
5.160000E+03	1.487503E-17	1.299459E-18
5.170000E+03	1.493892E-17	1.303181E-18
5.180000E+03	1.499947E-17	1.306674E-18
5.190000E+03	1.505668E-17	1.309949E-18
5.200000E+03	1.511026E-17	1.312993E-18
5.210000E+03	1.516005E-17	1.315806E-18
5.220000E+03	1.520593E-17	1.318391E-18
5.230000E+03	1.524759E-17	1.320737E-18
5.240000E+03	1.528490E-17	1.322848E-18
5.250000E+03	1.531759E-17	1.324715E-18
5.260000E+03	1.534567E-17	1.326357E-18
5.270000E+03	1.536889E-17	1.327767E-18
5.280000E+03	1.538713E-17	1.328951E-18
5.290000E+03	1.540030E-17	1.329917E-18
5.300000E+03	1.540818E-17	1.330660E-18
5.310000E+03	1.541070E-17	1.331188E-18
5.320000E+03	1.540781E-17	1.331508E-18
5.330000E+03	1.539948E-17	1.331631E-18
5.340000E+03	1.538554E-17	1.331551E-18
5.350000E+03	1.536617E-17	1.331291E-18
5.360000E+03	1.534139E-17	1.330860E-18
5.370000E+03	1.531125E-17	1.330267E-18
5.380000E+03	1.527569E-17	1.329508E-18
5.390000E+03	1.523510E-17	1.328618E-18
5.400000E+03	1.518947E-17	1.327595E-18
5.410000E+03	1.513924E-17	1.326473E-18
5.420000E+03	1.508444E-17	1.325249E-18
5.430000E+03	1.502540E-17	1.323945E-18
5.440000E+03	1.496236E-17	1.322571E-18
5.450000E+03	1.489584E-17	1.321161E-18
5.460000E+03	1.482595E-17	1.319714E-18
5.470000E+03	1.475281E-17	1.318225E-18
5.480000E+03	1.467642E-17	1.316678E-18
5.490000E+03	1.459710E-17	1.315084E-18
5.500000E+03	1.451488E-17	1.313426E-18
5.510000E+03	1.442994E-17	1.311702E-18
5.520000E+03	1.434250E-17	1.309911E-18
5.530000E+03	1.425276E-17	1.308051E-18
5.540000E+03	1.416096E-17	1.306122E-18
5.550000E+03	1.406745E-17	1.304136E-18
5.560000E+03	1.397246E-17	1.302094E-18
5.570000E+03	1.387649E-17	1.300022E-18
5.580000E+03	1.377963E-17	1.297909E-18
5.590000E+03	1.368250E-17	1.295795E-18
5.600000E+03	1.358516E-17	1.293670E-18
5.610000E+03	1.348808E-17	1.291561E-18
5.620000E+03	1.339171E-17	1.289499E-18
5.630000E+03	1.329609E-17	1.287472E-18
5.640000E+03	1.320189E-17	1.285537E-18
5.650000E+03	1.310925E-17	1.283695E-18
5.660000E+03	1.301828E-17	1.281950E-18
5.670000E+03	1.292962E-17	1.280357E-18
5.680000E+03	1.284320E-17	1.278905E-18
5.690000E+03	1.275937E-17	1.277623E-18
5.700000E+03	1.267843E-17	1.276538E-18
5.710000E+03	1.260053E-17	1.275664E-18
5.720000E+03	1.252584E-17	1.275014E-18
5.730000E+03	1.245447E-17	1.274600E-18
5.740000E+03	1.238667E-17	1.274448E-18
5.750000E+03	1.232267E-17	1.274581E-18
5.760000E+03	1.226231E-17	1.274981E-18
5.770000E+03	1.220606E-17	1.275698E-18
5.780000E+03	1.215371E-17	1.276711E-18
5.790000E+03	1.210559E-17	1.278053E-18
5.800000E+03	1.206162E-17	1.279716E-18
5.810000E+03	1.202197E-17	1.281717E-18
5.820000E+03	1.198666E-17	1.284059E-18
5.830000E+03	1.195587E-17	1.286757E-18
5.840000E+03	1.192946E-17	1.289798E-18
5.850000E+03	1.190746E-17	1.293181E-18
5.860000E+03	1.189001E-17	1.296918E-18
5.870000E+03	1.187724E-17	1.301023E-18
5.880000E+03	1.186887E-17	1.305463E-18
5.890000E+03	1.186517E-17	1.310262E-18
5.900000E+03	1.186598E-17	1.315403E-18
5.910000E+03	1.187142E-17	1.320895E-18
5.920000E+03	1.188146E-17	1.326731E-18
5.930000E+03	1.189594E-17	1.332892E-18
5.940000E+03	1.191495E-17	1.339386E-18
5.950000E+03	1.193845E-17	1.346205E-18
5.960000E+03	1.196625E-17	1.353327E-18
5.970000E+03	1.199857E-17	1.360775E-18
5.980000E+03	1.203507E-17	1.368512E-18
5.990000E+03	1.207582E-17	1.376543E-18
6.000000E+03	1.212074E-17	1.384862E-18
6.010000E+03	1.216962E-17	1.393444E-18
6.020000E+03	1.222249E-17	1.402295E-18
6.030000E+03	1.227899E-17	1.411376E-18
6.040000E+03	1.233928E-17	1.420708E-18
6.050000E+03	1.240298E-17	1.430251E-18
6.060000E+03	1.247010E-17	1.440010E-18
6.070000E+03	1.254039E-17	1.449960E-18
6.080000E+03	1.261370E-17	1.460090E-18
6.090000E+03	1.268975E-17	1.470373E-18
6.100000E+03	1.276824E-17	1.480779E-18
6.110000E+03	1.284919E-17	1.491315E-18
6.120000E+03	1.293196E-17	1.501915E-18
6.130000E+03	1.301655E-17	1.512584E-18
6.140000E+03	1.310248E-17	1.523272E-18
6.150000E+03	1.318957E-17	1.533964E-18
6.160000E+03	1.327700E-17	1.544568E-18
6.170000E+03	1.336473E-17	1.555087E-18
6.180000E+03	1.345209E-17	1.565443E-18
6.190000E+03	1.353868E-17	1.575596E-18
6.200000E+03	1.362397E-17	1.585485E-18
6.210000E+03	1.370807E-17	1.595126E-18
6.220000E+03	1.379132E-17	1.604558E-18
6.230000E+03	1.387405E-17	1.613821E-18
6.240000E+03	1.395666E-17	1.622959E-18
6.250000E+03	1.403900E-17	1.631956E-18
6.260000E+03	1.412189E-17	1.640902E-18
6.270000E+03	1.420504E-17	1.649763E-18
6.280000E+03	1.428893E-17	1.658592E-18
6.290000E+03	1.437390E-17	1.667423E-18
6.300000E+03	1.445971E-17	1.676226E-18
6.310000E+03	1.454673E-17	1.685038E-18
6.320000E+03	1.463512E-17	1.693878E-18
6.330000E+03	1.472511E-17	1.702763E-18
6.340000E+03	1.481649E-17	1.711669E-18
6.350000E+03	1.490948E-17	1.720617E-18
6.360000E+03	1.500412E-17	1.729606E-18
6.370000E+03	1.510042E-17	1.738636E-18
6.380000E+03	1.519821E-17	1.747685E-18
6.390000E+03	1.529731E-17	1.756728E-18
6.400000E+03	1.539752E-17	1.765741E-18
6.410000E+03	1.549886E-17	1.774726E-18
6.420000E+03	1.560112E-17	1.783658E-18
6.430000E+03	1.570365E-17	1.792461E-18
6.440000E+03	1.580711E-17	1.801214E-18
6.450000E+03	1.591153E-17	1.809918E-18
6.460000E+03	1.601717E-17	1.818605E-18
6.470000E+03	1.612454E-17	1.827333E-18
6.480000E+03	1.623344E-17	1.836083E-18
6.490000E+03	1.634441E-17	1.844915E-18
6.500000E+03	1.645750E-17	1.853839E-18
6.510000E+03	1.657303E-17	1.862891E-18
6.520000E+03	1.669056E-17	1.872023E-18
6.530000E+03	1.681092E-17	1.881331E-18
6.540000E+03	1.693366E-17	1.890767E-18
6.550000E+03	1.705911E-17	1.900369E-18
6.560000E+03	1.718736E-17	1.910148E-18
6.570000E+03	1.731818E-17	1.920082E-18
6.580000E+03	1.745194E-17	1.930211E-18
6.590000E+03	1.758869E-17	1.940545E-18
6.600000E+03	1.772824E-17	1.951061E-18
6.610000E+03	1.787063E-17	1.961768E-18
6.620000E+03	1.801593E-17	1.972673E-18
6.630000E+03	1.816451E-17	1.983817E-18
6.640000E+03	1.831583E-17	1.995142E-18
6.650000E+03	1.847025E-17	2.006688E-18
6.660000E+03	1.862782E-17	2.018462E-18
6.670000E+03	1.878830E-17	2.030435E-18
6.680000E+03	1.895206E-17	2.042647E-18
6.690000E+03	1.911882E-17	2.055070E-18
6.700000E+03	1.928897E-17	2.067743E-18
6.710000E+03	1.946189E-17	2.080599E-18
6.720000E+03	1.963797E-17	2.093678E-18
6.730000E+03	1.981758E-17	2.107019E-18
6.740000E+03	2.000009E-17	2.120553E-18
6.750000E+03	2.018588E-17	2.134317E-18
6.760000E+03	2.037464E-17	2.148277E-18
6.770000E+03	2.056676E-17	2.162472E-18
6.780000E+03	2.076191E-17	2.176863E-18
6.790000E+03	2.096012E-17	2.191452E-18
6.800000E+03	2.116179E-17	2.206277E-18
6.810000E+03	2.136619E-17	2.221259E-18
6.820000E+03	2.157410E-17	2.236477E-18
6.830000E+03	2.178478E-17	2.251849E-18
6.840000E+03	2.199903E-17	2.267455E-18
6.850000E+03	2.221606E-17	2.283212E-18
6.860000E+03	2.243588E-17	2.299115E-18
6.870000E+03	2.265889E-17	2.315206E-18
6.880000E+03	2.288512E-17	2.331483E-18
6.890000E+03	2.311371E-17	2.347856E-18
6.900000E+03	2.334550E-17	2.364409E-18
6.910000E+03	2.358006E-17	2.381097E-18
6.920000E+03	2.381782E-17	2.397962E-18
6.930000E+03	2.405787E-17	2.414911E-18
6.940000E+03	2.430065E-17	2.431987E-18
6.950000E+03	2.454613E-17	2.449186E-18
6.960000E+03	2.479381E-17	2.466461E-18
6.970000E+03	2.504414E-17	2.483854E-18
6.980000E+03	2.529709E-17	2.501365E-18
6.990000E+03	2.555214E-17	2.518943E-18
7.000000E+03	2.580926E-17	2.536585E-18
7.010000E+03	2.606839E-17	2.554287E-18
7.020000E+03	2.633001E-17	2.572097E-18
7.030000E+03	2.659305E-17	2.589913E-18
7.040000E+03	2.685849E-17	2.607831E-18
7.050000E+03	2.712526E-17	2.625748E-18
7.060000E+03	2.739382E-17	2.643710E-18
7.070000E+03	2.766358E-17	2.661661E-18
7.080000E+03	2.793504E-17	2.679651E-18
7.090000E+03	2.820816E-17	2.697674E-18
7.100000E+03	2.848233E-17	2.715674E-18
7.110000E+03	2.875691E-17	2.733590E-18
7.120000E+03	2.903299E-17	2.751525E-18
7.130000E+03	2.930995E-17	2.769420E-18
7.140000E+03	2.958772E-17	2.787268E-18
7.150000E+03	2.986626E-17	2.805065E-18
7.160000E+03	3.014490E-17	2.822746E-18
7.170000E+03	3.042418E-17	2.840363E-18
7.180000E+03	3.070341E-17	2.857851E-18
7.190000E+03	3.098253E-17	2.875205E-18
7.200000E+03	3.126212E-17	2.892479E-18
7.210000E+03	3.154145E-17	2.909608E-18
7.220000E+03	3.182113E-17	2.926650E-18
7.230000E+03	3.209976E-17	2.943480E-18
7.240000E+03	3.237792E-17	2.960157E-18
7.250000E+03	3.265554E-17	2.976680E-18
7.260000E+03	3.293255E-17	2.993052E-18
7.270000E+03	3.320886E-17	3.009275E-18
7.280000E+03	3.348442E-17	3.025356E-18
7.290000E+03	3.375843E-17	3.041236E-18
7.300000E+03	3.403151E-17	3.056990E-18
7.310000E+03	3.430361E-17	3.072630E-18
7.320000E+03	3.457465E-17	3.088173E-18
7.330000E+03	3.484381E-17	3.103569E-18
7.340000E+03	3.511178E-17	3.118904E-18
7.350000E+03	3.537926E-17	3.134272E-18
7.360000E+03	3.564466E-17	3.149560E-18
7.370000E+03	3.590870E-17	3.164866E-18
7.380000E+03	3.617133E-17	3.180219E-18
7.390000E+03	3.643331E-17	3.195722E-18
7.400000E+03	3.669383E-17	3.211340E-18
7.410000E+03	3.695367E-17	3.227177E-18
7.420000E+03	3.721368E-17	3.243342E-18
7.430000E+03	3.747304E-17	3.259800E-18
7.440000E+03	3.773347E-17	3.276733E-18
7.450000E+03	3.799332E-17	3.294026E-18
7.460000E+03	3.825348E-17	3.311784E-18
7.470000E+03	3.851312E-17	3.329960E-18
7.480000E+03	3.877315E-17	3.348651E-18
7.490000E+03	3.903183E-17	3.367720E-18
7.500000E+03	3.929007E-17	3.387253E-18
7.510000E+03	3.954789E-17	3.407253E-18
7.520000E+03	3.980438E-17	3.427636E-18
7.530000E+03	4.006140E-17	3.448547E-18
7.540000E+03	4.031708E-17	3.469806E-18
7.550000E+03	4.057236E-17	3.491467E-18
7.560000E+03	4.082626E-17	3.513413E-18
7.570000E+03	4.107971E-17	3.535691E-18
7.580000E+03	4.133170E-17	3.558175E-18
7.590000E+03	4.158315E-17	3.580906E-18
7.600000E+03	4.183301E-17	3.603754E-18
7.610000E+03	4.208119E-17	3.626670E-18
7.620000E+03	4.232862E-17	3.649696E-18
7.630000E+03	4.257416E-17	3.672697E-18
7.640000E+03	4.281770E-17	3.695630E-18
7.650000E+03	4.306012E-17	3.718540E-18
7.660000E+03	4.330025E-17	3.741299E-18
7.670000E+03	4.353896E-17	3.763961E-18
7.680000E+03	4.377395E-17	3.786307E-18
7.690000E+03	4.400713E-17	3.808491E-18
7.700000E+03	4.423833E-17	3.830485E-18
7.710000E+03	4.446621E-17	3.852171E-18
7.720000E+03	4.469165E-17	3.873621E-18
7.730000E+03	4.491326E-17	3.894718E-18
7.740000E+03	4.513079E-17	3.915442E-18
7.750000E+03	4.534507E-17	3.935874E-18
7.760000E+03	4.555583E-17	3.956000E-18
