#wls	flux	fluxerr
1.600000E+03	1.706439E-16	1.661346E-16
1.640000E+03	1.756147E-16	1.681238E-16
1.680000E+03	1.802568E-16	1.695771E-16
1.720000E+03	1.845166E-16	1.704565E-16
1.760000E+03	1.883179E-16	1.707077E-16
1.800000E+03	1.915998E-16	1.702969E-16
1.840000E+03	1.942819E-16	1.691782E-16
1.880000E+03	1.963183E-16	1.673430E-16
1.920000E+03	1.976458E-16	1.647728E-16
1.960000E+03	1.981878E-16	1.614448E-16
2.000000E+03	1.979061E-16	1.573743E-16
2.040000E+03	1.967378E-16	1.525625E-16
2.080000E+03	1.946334E-16	1.470273E-16
2.120000E+03	1.915855E-16	1.408236E-16
2.160000E+03	1.875371E-16	1.339738E-16
2.200000E+03	1.824626E-16	1.265281E-16
2.240000E+03	1.763368E-16	1.185413E-16
2.280000E+03	1.691105E-16	1.100563E-16
2.320000E+03	1.610064E-16	1.012925E-16
2.360000E+03	1.522484E-16	9.245219E-17
2.400000E+03	1.430160E-16	8.369215E-17
2.440000E+03	1.334613E-16	7.513823E-17
2.480000E+03	1.237279E-16	6.689772E-17
2.520000E+03	1.139446E-16	5.905684E-17
2.560000E+03	1.042238E-16	5.168110E-17
2.600000E+03	9.467706E-17	4.482449E-17
2.640000E+03	8.540384E-17	3.852419E-17
2.680000E+03	7.649176E-17	3.280211E-17
2.720000E+03	6.801664E-17	2.766623E-17
2.760000E+03	6.004579E-17	2.311324E-17
2.800000E+03	5.262423E-17	1.912476E-17
2.840000E+03	4.578723E-17	1.567425E-17
2.880000E+03	3.956111E-17	1.272865E-17
2.920000E+03	3.395879E-17	1.024835E-17
2.960000E+03	2.898171E-17	8.189505E-18
3.000000E+03	2.461501E-17	6.504293E-18
3.010000E+03	2.361521E-17	6.135494E-18
3.020000E+03	2.265102E-17	5.786140E-18
3.030000E+03	2.172213E-17	5.455547E-18
3.040000E+03	2.082768E-17	5.142900E-18
3.050000E+03	1.996679E-17	4.847405E-18
3.060000E+03	1.913901E-17	4.568392E-18
3.070000E+03	1.834303E-17	4.304996E-18
3.080000E+03	1.757872E-17	4.056664E-18
3.090000E+03	1.684478E-17	3.822576E-18
3.100000E+03	1.614065E-17	3.602109E-18
3.110000E+03	1.546538E-17	3.394573E-18
3.120000E+03	1.481836E-17	3.199371E-18
3.130000E+03	1.419864E-17	3.015850E-18
3.140000E+03	1.360529E-17	2.843386E-18
3.150000E+03	1.303767E-17	2.681431E-18
3.160000E+03	1.249460E-17	2.529355E-18
3.170000E+03	1.197568E-17	2.386698E-18
3.180000E+03	1.147978E-17	2.252876E-18
3.190000E+03	1.100625E-17	2.127420E-18
3.200000E+03	1.055422E-17	2.009838E-18
3.210000E+03	1.012285E-17	1.899665E-18
3.220000E+03	9.711508E-18	1.796486E-18
3.230000E+03	9.319367E-18	1.699874E-18
3.240000E+03	8.945491E-18	1.609400E-18
3.250000E+03	8.589563E-18	1.524760E-18
3.260000E+03	8.250399E-18	1.445514E-18
3.270000E+03	7.927684E-18	1.371390E-18
3.280000E+03	7.620450E-18	1.302017E-18
3.290000E+03	7.328143E-18	1.237111E-18
3.300000E+03	7.050211E-18	1.176402E-18
3.310000E+03	6.785800E-18	1.119580E-18
3.320000E+03	6.534505E-18	1.066426E-18
3.330000E+03	6.295725E-18	1.016697E-18
3.340000E+03	6.068795E-18	9.701519E-19
3.350000E+03	5.853173E-18	9.265809E-19
3.360000E+03	5.648339E-18	8.857873E-19
3.370000E+03	5.453870E-18	8.475987E-19
3.380000E+03	5.269135E-18	8.118194E-19
3.390000E+03	5.093823E-18	7.783112E-19
3.400000E+03	4.927358E-18	7.469032E-19
3.410000E+03	4.769331E-18	7.174572E-19
3.420000E+03	4.619410E-18	6.898532E-19
3.430000E+03	4.477046E-18	6.639450E-19
3.440000E+03	4.342004E-18	6.396391E-19
3.450000E+03	4.213891E-18	6.168239E-19
3.460000E+03	4.092243E-18	5.953825E-19
3.470000E+03	3.976868E-18	5.752422E-19
3.480000E+03	3.867347E-18	5.563016E-19
3.490000E+03	3.763424E-18	5.384871E-19
3.500000E+03	3.664815E-18	5.217241E-19
3.510000E+03	3.571133E-18	5.059271E-19
3.520000E+03	3.482177E-18	4.910400E-19
3.530000E+03	3.397647E-18	4.769951E-19
3.540000E+03	3.317264E-18	4.637309E-19
3.550000E+03	3.240806E-18	4.511956E-19
3.560000E+03	3.168000E-18	4.393327E-19
3.570000E+03	3.098627E-18	4.280950E-19
3.580000E+03	3.032452E-18	4.174353E-19
3.590000E+03	2.969319E-18	4.073182E-19
3.600000E+03	2.909050E-18	3.977071E-19
3.610000E+03	2.851454E-18	3.885647E-19
3.620000E+03	2.796403E-18	3.798636E-19
3.630000E+03	2.743777E-18	3.715785E-19
3.640000E+03	2.693413E-18	3.636789E-19
3.650000E+03	2.645275E-18	3.561528E-19
3.660000E+03	2.599211E-18	3.489728E-19
3.670000E+03	2.555167E-18	3.421255E-19
3.680000E+03	2.513065E-18	3.355951E-19
3.690000E+03	2.472830E-18	3.293665E-19
3.700000E+03	2.434411E-18	3.234281E-19
3.710000E+03	2.397776E-18	3.177714E-19
3.720000E+03	2.362809E-18	3.123774E-19
3.730000E+03	2.329520E-18	3.072437E-19
3.740000E+03	2.297817E-18	3.023551E-19
3.750000E+03	2.267668E-18	2.977042E-19
3.760000E+03	2.239042E-18	2.932842E-19
3.770000E+03	2.211850E-18	2.890809E-19
3.780000E+03	2.186099E-18	2.850928E-19
3.790000E+03	2.161720E-18	2.813088E-19
3.800000E+03	2.138683E-18	2.777229E-19
3.810000E+03	2.116940E-18	2.743270E-19
3.820000E+03	2.096462E-18	2.711155E-19
3.830000E+03	2.077204E-18	2.680808E-19
3.840000E+03	2.059137E-18	2.652178E-19
3.850000E+03	2.042218E-18	2.625193E-19
3.860000E+03	2.026436E-18	2.599826E-19
3.870000E+03	2.011750E-18	2.576011E-19
3.880000E+03	1.998118E-18	2.553682E-19
3.890000E+03	1.985518E-18	2.532798E-19
3.900000E+03	1.973910E-18	2.513297E-19
3.910000E+03	1.963287E-18	2.495160E-19
3.920000E+03	1.953613E-18	2.478331E-19
3.930000E+03	1.944867E-18	2.462773E-19
3.940000E+03	1.937014E-18	2.448432E-19
3.950000E+03	1.930020E-18	2.435255E-19
3.960000E+03	1.923896E-18	2.423250E-19
3.970000E+03	1.918581E-18	2.412327E-19
3.980000E+03	1.914072E-18	2.402478E-19
3.990000E+03	1.910339E-18	2.393653E-19
4.000000E+03	1.907366E-18	2.385827E-19
4.010000E+03	1.905139E-18	2.378973E-19
4.020000E+03	1.903614E-18	2.373028E-19
4.030000E+03	1.902792E-18	2.367987E-19
4.040000E+03	1.902647E-18	2.363807E-19
4.050000E+03	1.903167E-18	2.360468E-19
4.060000E+03	1.904325E-18	2.357928E-19
4.070000E+03	1.906097E-18	2.356150E-19
4.080000E+03	1.908486E-18	2.355131E-19
4.090000E+03	1.911454E-18	2.354816E-19
4.100000E+03	1.914993E-18	2.355187E-19
4.110000E+03	1.919093E-18	2.356228E-19
4.120000E+03	1.923718E-18	2.357884E-19
4.130000E+03	1.928876E-18	2.360159E-19
4.140000E+03	1.934529E-18	2.363000E-19
4.150000E+03	1.940673E-18	2.366392E-19
4.160000E+03	1.947300E-18	2.370323E-19
4.170000E+03	1.954377E-18	2.374741E-19
4.180000E+03	1.961913E-18	2.379653E-19
4.190000E+03	1.969858E-18	2.384991E-19
4.200000E+03	1.978240E-18	2.390779E-19
4.210000E+03	1.987008E-18	2.396952E-19
4.220000E+03	1.996160E-18	2.403499E-19
4.230000E+03	2.005677E-18	2.410391E-19
4.240000E+03	2.015557E-18	2.417619E-19
4.250000E+03	2.025750E-18	2.425116E-19
4.260000E+03	2.036270E-18	2.432894E-19
4.270000E+03	2.047083E-18	2.440906E-19
4.280000E+03	2.058156E-18	2.449107E-19
4.290000E+03	2.069486E-18	2.457488E-19
4.300000E+03	2.081056E-18	2.466024E-19
4.310000E+03	2.092814E-18	2.474649E-19
4.320000E+03	2.104743E-18	2.483337E-19
4.330000E+03	2.116822E-18	2.492063E-19
4.340000E+03	2.129032E-18	2.500799E-19
4.350000E+03	2.141354E-18	2.509519E-19
4.360000E+03	2.153784E-18	2.518219E-19
4.370000E+03	2.166303E-18	2.526872E-19
4.380000E+03	2.178891E-18	2.535453E-19
4.390000E+03	2.191579E-18	2.543999E-19
4.400000E+03	2.204348E-18	2.552486E-19
4.410000E+03	2.217197E-18	2.560911E-19
4.420000E+03	2.230143E-18	2.569295E-19
4.430000E+03	2.243185E-18	2.577636E-19
4.440000E+03	2.256305E-18	2.585915E-19
4.450000E+03	2.269523E-18	2.594155E-19
4.460000E+03	2.282822E-18	2.602340E-19
4.470000E+03	2.296204E-18	2.610472E-19
4.480000E+03	2.309671E-18	2.618560E-19
4.490000E+03	2.323190E-18	2.626567E-19
4.500000E+03	2.336783E-18	2.634525E-19
4.510000E+03	2.350437E-18	2.642421E-19
4.520000E+03	2.364137E-18	2.650246E-19
4.530000E+03	2.377890E-18	2.658012E-19
4.540000E+03	2.391664E-18	2.665691E-19
4.550000E+03	2.405466E-18	2.673297E-19
4.560000E+03	2.419305E-18	2.680848E-19
4.570000E+03	2.433172E-18	2.688339E-19
4.580000E+03	2.447035E-18	2.695744E-19
4.590000E+03	2.460905E-18	2.703083E-19
4.600000E+03	2.474776E-18	2.710354E-19
4.610000E+03	2.488637E-18	2.717555E-19
4.620000E+03	2.502504E-18	2.724708E-19
4.630000E+03	2.516349E-18	2.731788E-19
4.640000E+03	2.530187E-18	2.738817E-19
4.650000E+03	2.544014E-18	2.745795E-19
4.660000E+03	2.557824E-18	2.752720E-19
4.670000E+03	2.571615E-18	2.759590E-19
4.680000E+03	2.585383E-18	2.766403E-19
4.690000E+03	2.599125E-18	2.773156E-19
4.700000E+03	2.612885E-18	2.779897E-19
4.710000E+03	2.626663E-18	2.786621E-19
4.720000E+03	2.640459E-18	2.793327E-19
4.730000E+03	2.654321E-18	2.800061E-19
4.740000E+03	2.668227E-18	2.806795E-19
4.750000E+03	2.682180E-18	2.813528E-19
4.760000E+03	2.696206E-18	2.820282E-19
4.770000E+03	2.710310E-18	2.827057E-19
4.780000E+03	2.724471E-18	2.833825E-19
4.790000E+03	2.738719E-18	2.840614E-19
4.800000E+03	2.753057E-18	2.847423E-19
4.810000E+03	2.767468E-18	2.854230E-19
4.820000E+03	2.781981E-18	2.861065E-19
4.830000E+03	2.796604E-18	2.867934E-19
4.840000E+03	2.811342E-18	2.874843E-19
4.850000E+03	2.826204E-18	2.881802E-19
4.860000E+03	2.841171E-18	2.888794E-19
4.870000E+03	2.856302E-18	2.895884E-19
4.880000E+03	2.871554E-18	2.903032E-19
4.890000E+03	2.886933E-18	2.910253E-19
4.900000E+03	2.902474E-18	2.917588E-19
4.910000E+03	2.918186E-18	2.925052E-19
4.920000E+03	2.934077E-18	2.932663E-19
4.930000E+03	2.950100E-18	2.940382E-19
4.940000E+03	2.966319E-18	2.948279E-19
4.950000E+03	2.982713E-18	2.956341E-19
4.960000E+03	2.999289E-18	2.964583E-19
4.970000E+03	3.016056E-18	2.973017E-19
4.980000E+03	3.033019E-18	2.981656E-19
4.990000E+03	3.050156E-18	2.990481E-19
5.000000E+03	3.067473E-18	2.999499E-19
5.010000E+03	3.085004E-18	3.008747E-19
5.020000E+03	3.102724E-18	3.018200E-19
5.030000E+03	3.120607E-18	3.027832E-19
5.040000E+03	3.138716E-18	3.037705E-19
5.050000E+03	3.156964E-18	3.047732E-19
5.060000E+03	3.175412E-18	3.057971E-19
5.070000E+03	3.194062E-18	3.068424E-19
5.080000E+03	3.212821E-18	3.079002E-19
5.090000E+03	3.231782E-18	3.089794E-19
5.100000E+03	3.250882E-18	3.100745E-19
5.110000E+03	3.270118E-18	3.111858E-19
5.120000E+03	3.289518E-18	3.123168E-19
5.130000E+03	3.309017E-18	3.134625E-19
5.140000E+03	3.328609E-18	3.146239E-19
5.150000E+03	3.348321E-18	3.158055E-19
5.160000E+03	3.368115E-18	3.170061E-19
5.170000E+03	3.387984E-18	3.182279E-19
5.180000E+03	3.407888E-18	3.194701E-19
5.190000E+03	3.427850E-18	3.207389E-19
5.200000E+03	3.447795E-18	3.220312E-19
5.210000E+03	3.467780E-18	3.233567E-19
5.220000E+03	3.487760E-18	3.247163E-19
5.230000E+03	3.507690E-18	3.261109E-19
5.240000E+03	3.527555E-18	3.275448E-19
5.250000E+03	3.547378E-18	3.290257E-19
5.260000E+03	3.567073E-18	3.305519E-19
5.270000E+03	3.586662E-18	3.321313E-19
5.280000E+03	3.606162E-18	3.337719E-19
5.290000E+03	3.625452E-18	3.354687E-19
5.300000E+03	3.644620E-18	3.372361E-19
5.310000E+03	3.663541E-18	3.390685E-19
5.320000E+03	3.682305E-18	3.409803E-19
5.330000E+03	3.700785E-18	3.429653E-19
5.340000E+03	3.719034E-18	3.450338E-19
5.350000E+03	3.737033E-18	3.471893E-19
5.360000E+03	3.754728E-18	3.494310E-19
5.370000E+03	3.772172E-18	3.517684E-19
5.380000E+03	3.789236E-18	3.541929E-19
5.390000E+03	3.806013E-18	3.567165E-19
5.400000E+03	3.822448E-18	3.593366E-19
5.410000E+03	3.838523E-18	3.620537E-19
5.420000E+03	3.854222E-18	3.648678E-19
5.430000E+03	3.869526E-18	3.677781E-19
5.440000E+03	3.884382E-18	3.707799E-19
5.450000E+03	3.898772E-18	3.738715E-19
5.460000E+03	3.912679E-18	3.770508E-19
5.470000E+03	3.926090E-18	3.803151E-19
5.480000E+03	3.938948E-18	3.836576E-19
5.490000E+03	3.951199E-18	3.870709E-19
5.500000E+03	3.962867E-18	3.905549E-19
5.510000E+03	3.973898E-18	3.941017E-19
5.520000E+03	3.984237E-18	3.977028E-19
5.530000E+03	3.993830E-18	4.013492E-19
5.540000E+03	4.002701E-18	4.050401E-19
5.550000E+03	4.010758E-18	4.087620E-19
5.560000E+03	4.018026E-18	4.125137E-19
5.570000E+03	4.024413E-18	4.162814E-19
5.580000E+03	4.029905E-18	4.200596E-19
5.590000E+03	4.034532E-18	4.238471E-19
5.600000E+03	4.038202E-18	4.276299E-19
5.610000E+03	4.040946E-18	4.314069E-19
5.620000E+03	4.042756E-18	4.351729E-19
5.630000E+03	4.043583E-18	4.389184E-19
5.640000E+03	4.043422E-18	4.426385E-19
5.650000E+03	4.042309E-18	4.463331E-19
5.660000E+03	4.040242E-18	4.499976E-19
5.670000E+03	4.037179E-18	4.536232E-19
5.680000E+03	4.033161E-18	4.572106E-19
5.690000E+03	4.028233E-18	4.607606E-19
5.700000E+03	4.022315E-18	4.642601E-19
5.710000E+03	4.015457E-18	4.677102E-19
5.720000E+03	4.007706E-18	4.711124E-19
5.730000E+03	3.999075E-18	4.744634E-19
5.740000E+03	3.989575E-18	4.777600E-19
5.750000E+03	3.979219E-18	4.809989E-19
5.760000E+03	3.968024E-18	4.841768E-19
5.770000E+03	3.956049E-18	4.872954E-19
5.780000E+03	3.943273E-18	4.903462E-19
5.790000E+03	3.929800E-18	4.933360E-19
5.800000E+03	3.915612E-18	4.962559E-19
5.810000E+03	3.900734E-18	4.991023E-19
5.820000E+03	3.885276E-18	5.018821E-19
5.830000E+03	3.869184E-18	5.045806E-19
5.840000E+03	3.852529E-18	5.071993E-19
5.850000E+03	3.835384E-18	5.097397E-19
5.860000E+03	3.817741E-18	5.121925E-19
5.870000E+03	3.799675E-18	5.145594E-19
5.880000E+03	3.781181E-18	5.168312E-19
5.890000E+03	3.762378E-18	5.190156E-19
5.900000E+03	3.743262E-18	5.211039E-19
5.910000E+03	3.723870E-18	5.230930E-19
5.920000E+03	3.704283E-18	5.249861E-19
5.930000E+03	3.684497E-18	5.267751E-19
5.940000E+03	3.664592E-18	5.284640E-19
5.950000E+03	3.644565E-18	5.300454E-19
5.960000E+03	3.624496E-18	5.315242E-19
5.970000E+03	3.604422E-18	5.328999E-19
5.980000E+03	3.584379E-18	5.341722E-19
5.990000E+03	3.564362E-18	5.353354E-19
6.000000E+03	3.544447E-18	5.363961E-19
6.010000E+03	3.524668E-18	5.373555E-19
6.020000E+03	3.505015E-18	5.382089E-19
6.030000E+03	3.485560E-18	5.389643E-19
6.040000E+03	3.466293E-18	5.396175E-19
6.050000E+03	3.447201E-18	5.401646E-19
6.060000E+03	3.428392E-18	5.406211E-19
6.070000E+03	3.409810E-18	5.409771E-19
6.080000E+03	3.391520E-18	5.412421E-19
6.090000E+03	3.373461E-18	5.414065E-19
6.100000E+03	3.355697E-18	5.414803E-19
6.110000E+03	3.338205E-18	5.414605E-19
6.120000E+03	3.321003E-18	5.413506E-19
6.130000E+03	3.304107E-18	5.411545E-19
6.140000E+03	3.287492E-18	5.408692E-19
6.150000E+03	3.271171E-18	5.404984E-19
6.160000E+03	3.255156E-18	5.400460E-19
6.170000E+03	3.239457E-18	5.395156E-19
6.180000E+03	3.224084E-18	5.389111E-19
6.190000E+03	3.209003E-18	5.382292E-19
6.200000E+03	3.194261E-18	5.374804E-19
6.210000E+03	3.179865E-18	5.366682E-19
6.220000E+03	3.165817E-18	5.357962E-19
6.230000E+03	3.152162E-18	5.348746E-19
6.240000E+03	3.138944E-18	5.339140E-19
6.250000E+03	3.126205E-18	5.329247E-19
6.260000E+03	3.113987E-18	5.319170E-19
6.270000E+03	3.102332E-18	5.309014E-19
6.280000E+03	3.091322E-18	5.298953E-19
6.290000E+03	3.080917E-18	5.288950E-19
6.300000E+03	3.071282E-18	5.279323E-19
6.310000E+03	3.062376E-18	5.270034E-19
6.320000E+03	3.054283E-18	5.261259E-19
6.330000E+03	3.047045E-18	5.253103E-19
6.340000E+03	3.040706E-18	5.245671E-19
6.350000E+03	3.035267E-18	5.238997E-19
6.360000E+03	3.030772E-18	5.233185E-19
6.370000E+03	3.027267E-18	5.228341E-19
6.380000E+03	3.024754E-18	5.224497E-19
6.390000E+03	3.023237E-18	5.221684E-19
6.400000E+03	3.022764E-18	5.220008E-19
6.410000E+03	3.023249E-18	5.219347E-19
6.420000E+03	3.024698E-18	5.219729E-19
6.430000E+03	3.027069E-18	5.221104E-19
6.440000E+03	3.030275E-18	5.223341E-19
6.450000E+03	3.034364E-18	5.226540E-19
6.460000E+03	3.039246E-18	5.230568E-19
6.470000E+03	3.044971E-18	5.235523E-19
6.480000E+03	3.051539E-18	5.241426E-19
6.490000E+03	3.058909E-18	5.248215E-19
6.500000E+03	3.067081E-18	5.255910E-19
6.510000E+03	3.076057E-18	5.264527E-19
6.520000E+03	3.085841E-18	5.274084E-19
6.530000E+03	3.096436E-18	5.284598E-19
6.540000E+03	3.107892E-18	5.296167E-19
6.550000E+03	3.120166E-18	5.308726E-19
6.560000E+03	3.133210E-18	5.322206E-19
6.570000E+03	3.147128E-18	5.336790E-19
6.580000E+03	3.161824E-18	5.352323E-19
6.590000E+03	3.177351E-18	5.368905E-19
6.600000E+03	3.193714E-18	5.386549E-19
6.610000E+03	3.210917E-18	5.405271E-19
6.620000E+03	3.228967E-18	5.425084E-19
6.630000E+03	3.247813E-18	5.445912E-19
6.640000E+03	3.267514E-18	5.467856E-19
6.650000E+03	3.288020E-18	5.490840E-19
6.660000E+03	3.309393E-18	5.514965E-19
6.670000E+03	3.331580E-18	5.540152E-19
6.680000E+03	3.354588E-18	5.566412E-19
6.690000E+03	3.378477E-18	5.593849E-19
6.700000E+03	3.403256E-18	5.622477E-19
6.710000E+03	3.428813E-18	5.652115E-19
6.720000E+03	3.455272E-18	5.682966E-19
6.730000E+03	3.482518E-18	5.714845E-19
6.740000E+03	3.510679E-18	5.747958E-19
6.750000E+03	3.539700E-18	5.782219E-19
6.760000E+03	3.569524E-18	5.817534E-19
6.770000E+03	3.600284E-18	5.854117E-19
6.780000E+03	3.631859E-18	5.891771E-19
6.790000E+03	3.664318E-18	5.930609E-19
6.800000E+03	3.697669E-18	5.970639E-19
6.810000E+03	3.731918E-18	6.011872E-19
6.820000E+03	3.767005E-18	6.054207E-19
6.830000E+03	3.803003E-18	6.097761E-19
6.840000E+03	3.839850E-18	6.142431E-19
6.850000E+03	3.877620E-18	6.188335E-19
6.860000E+03	3.916251E-18	6.235368E-19
6.870000E+03	3.955745E-18	6.283534E-19
6.880000E+03	3.996182E-18	6.332955E-19
6.890000E+03	4.037420E-18	6.383403E-19
6.900000E+03	4.079611E-18	6.435117E-19
6.910000E+03	4.122687E-18	6.487984E-19
6.920000E+03	4.166650E-18	6.542008E-19
6.930000E+03	4.211507E-18	6.597192E-19
6.940000E+03	4.257260E-18	6.653538E-19
6.950000E+03	4.303831E-18	6.710924E-19
6.960000E+03	4.351304E-18	6.769474E-19
6.970000E+03	4.399683E-18	6.829192E-19
6.980000E+03	4.448971E-18	6.890080E-19
6.990000E+03	4.498997E-18	6.951871E-19
7.000000E+03	4.550021E-18	7.014964E-19
7.010000E+03	4.601781E-18	7.078953E-19
7.020000E+03	4.654455E-18	7.144106E-19
7.030000E+03	4.707950E-18	7.210284E-19
7.040000E+03	4.762267E-18	7.277481E-19
7.050000E+03	4.817401E-18	7.345691E-19
7.060000E+03	4.873350E-18	7.414909E-19
7.070000E+03	4.930014E-18	7.484980E-19
7.080000E+03	4.987482E-18	7.556042E-19
7.090000E+03	5.045752E-18	7.628088E-19
7.100000E+03	5.104715E-18	7.700955E-19
7.110000E+03	5.164467E-18	7.774788E-19
7.120000E+03	5.224896E-18	7.849418E-19
7.130000E+03	5.285991E-18	7.924831E-19
7.140000E+03	5.347741E-18	8.001011E-19
7.150000E+03	5.410245E-18	8.078110E-19
7.160000E+03	5.473268E-18	8.155780E-19
7.170000E+03	5.536794E-18	8.233999E-19
7.180000E+03	5.601035E-18	8.313089E-19
7.190000E+03	5.665745E-18	8.392688E-19
7.200000E+03	5.730904E-18	8.472772E-19
7.210000E+03	5.796612E-18	8.553497E-19
7.220000E+03	5.862727E-18	8.634660E-19
7.230000E+03	5.929228E-18	8.716237E-19
7.240000E+03	5.996088E-18	8.798199E-19
7.250000E+03	6.063284E-18	8.880521E-19
7.260000E+03	6.130922E-18	8.963368E-19
7.270000E+03	6.198712E-18	9.046328E-19
7.280000E+03	6.266894E-18	9.129761E-19
7.290000E+03	6.335307E-18	9.213447E-19
7.300000E+03	6.403922E-18	9.297355E-19
7.310000E+03	6.472851E-18	9.381661E-19
7.320000E+03	6.541926E-18	9.466135E-19
7.330000E+03	6.611261E-18	9.550957E-19
7.340000E+03	6.680831E-18	9.636103E-19
7.350000E+03	6.750762E-18	9.721768E-19
7.360000E+03	6.821033E-18	9.807936E-19
7.370000E+03	6.891780E-18	9.894814E-19
7.380000E+03	6.962830E-18	9.982166E-19
7.390000E+03	7.034645E-18	1.007066E-18
7.400000E+03	7.107225E-18	1.016032E-18
7.410000E+03	7.180402E-18	1.025090E-18
7.420000E+03	7.254675E-18	1.034312E-18
7.430000E+03	7.329885E-18	1.043676E-18
7.440000E+03	7.406214E-18	1.053209E-18
7.450000E+03	7.483500E-18	1.062887E-18
7.460000E+03	7.561928E-18	1.072737E-18
7.470000E+03	7.640970E-18	1.082685E-18
7.480000E+03	7.720984E-18	1.092781E-18
7.490000E+03	7.801420E-18	1.102946E-18
7.500000E+03	7.882448E-18	1.113205E-18
7.510000E+03	7.963868E-18	1.123530E-18
7.520000E+03	8.045468E-18	1.133889E-18
7.530000E+03	8.127418E-18	1.144307E-18
7.540000E+03	8.209102E-18	1.154694E-18
7.550000E+03	8.290878E-18	1.165102E-18
7.560000E+03	8.372513E-18	1.175496E-18
7.570000E+03	8.453969E-18	1.185869E-18
7.580000E+03	8.534996E-18	1.196187E-18
7.590000E+03	8.615760E-18	1.206469E-18
7.600000E+03	8.696003E-18	1.216680E-18
7.610000E+03	8.775675E-18	1.226811E-18
7.620000E+03	8.854945E-18	1.236885E-18
7.630000E+03	8.933546E-18	1.246862E-18
7.640000E+03	9.011649E-18	1.256766E-18
7.650000E+03	9.088749E-18	1.266525E-18
7.660000E+03	9.165247E-18	1.276193E-18
7.670000E+03	9.240859E-18	1.285732E-18
7.680000E+03	9.315765E-18	1.295164E-18
7.690000E+03	9.389675E-18	1.304450E-18
7.700000E+03	9.462530E-18	1.313579E-18
7.710000E+03	9.534269E-18	1.322544E-18
7.720000E+03	9.605331E-18	1.331404E-18
7.730000E+03	9.674917E-18	1.340050E-18
7.740000E+03	9.743721E-18	1.348577E-18
7.750000E+03	9.811186E-18	1.356908E-18
7.760000E+03	9.877510E-18	1.365071E-18
