#wls	flux	fluxerr
1.600000E+03	1.721810E-16	1.673630E-16
1.640000E+03	1.772812E-16	1.694490E-16
1.680000E+03	1.820549E-16	1.709980E-16
1.720000E+03	1.864636E-16	1.719860E-16
1.760000E+03	1.903924E-16	1.723229E-16
1.800000E+03	1.938311E-16	1.720206E-16
1.840000E+03	1.966599E-16	1.709979E-16
1.880000E+03	1.988468E-16	1.692580E-16
1.920000E+03	2.003242E-16	1.667788E-16
1.960000E+03	2.009960E-16	1.635213E-16
2.000000E+03	2.008368E-16	1.595119E-16
2.040000E+03	1.997805E-16	1.547494E-16
2.080000E+03	1.977747E-16	1.492500E-16
2.120000E+03	1.947836E-16	1.430482E-16
2.160000E+03	1.907664E-16	1.361797E-16
2.200000E+03	1.856652E-16	1.286740E-16
2.240000E+03	1.794343E-16	1.205749E-16
2.280000E+03	1.721115E-16	1.119865E-16
2.320000E+03	1.638470E-16	1.030816E-16
2.360000E+03	1.548910E-16	9.408194E-17
2.400000E+03	1.454450E-16	8.515960E-17
2.440000E+03	1.356921E-16	7.645857E-17
2.480000E+03	1.257679E-16	6.808067E-17
2.520000E+03	1.158125E-16	6.011745E-17
2.560000E+03	1.059409E-16	5.263447E-17
2.600000E+03	9.626940E-17	4.568660E-17
2.640000E+03	8.689183E-17	3.930699E-17
2.680000E+03	7.789408E-17	3.351571E-17
2.720000E+03	6.935146E-17	2.831960E-17
2.760000E+03	6.132077E-17	2.371051E-17
2.800000E+03	5.384856E-17	1.967054E-17
2.840000E+03	4.696753E-17	1.617213E-17
2.880000E+03	4.069985E-17	1.318089E-17
2.920000E+03	3.505621E-17	1.065681E-17
2.960000E+03	3.003342E-17	8.555062E-18
3.000000E+03	2.561556E-17	6.828099E-18
3.010000E+03	2.460243E-17	6.449184E-18
3.020000E+03	2.362429E-17	6.089753E-18
3.030000E+03	2.268145E-17	5.749282E-18
3.040000E+03	2.177205E-17	5.426719E-18
3.050000E+03	2.089629E-17	5.121542E-18
3.060000E+03	2.005329E-17	4.832978E-18
3.070000E+03	1.924258E-17	4.560373E-18
3.080000E+03	1.846248E-17	4.302800E-18
3.090000E+03	1.771328E-17	4.059824E-18
3.100000E+03	1.699333E-17	3.830571E-18
3.110000E+03	1.630246E-17	3.614527E-18
3.120000E+03	1.563975E-17	3.411025E-18
3.130000E+03	1.500398E-17	3.219361E-18
3.140000E+03	1.439487E-17	3.039048E-18
3.150000E+03	1.381124E-17	2.869427E-18
3.160000E+03	1.325249E-17	2.709982E-18
3.170000E+03	1.271775E-17	2.560158E-18
3.180000E+03	1.220615E-17	2.419423E-18
3.190000E+03	1.171708E-17	2.287314E-18
3.200000E+03	1.124969E-17	2.163337E-18
3.210000E+03	1.080298E-17	2.046990E-18
3.220000E+03	1.037654E-17	1.937899E-18
3.230000E+03	9.969393E-18	1.835602E-18
3.240000E+03	9.580949E-18	1.739727E-18
3.250000E+03	9.210453E-18	1.649884E-18
3.260000E+03	8.857036E-18	1.565682E-18
3.270000E+03	8.520282E-18	1.486824E-18
3.280000E+03	8.199231E-18	1.412933E-18
3.290000E+03	7.893486E-18	1.343743E-18
3.300000E+03	7.602389E-18	1.278958E-18
3.310000E+03	7.325088E-18	1.218260E-18
3.320000E+03	7.061214E-18	1.161427E-18
3.330000E+03	6.810177E-18	1.108210E-18
3.340000E+03	6.571316E-18	1.058361E-18
3.350000E+03	6.344100E-18	1.011663E-18
3.360000E+03	6.128018E-18	9.679125E-19
3.370000E+03	5.922577E-18	9.269196E-19
3.380000E+03	5.727304E-18	8.885051E-19
3.390000E+03	5.541745E-18	8.525017E-19
3.400000E+03	5.365393E-18	8.187421E-19
3.410000E+03	5.197773E-18	7.870716E-19
3.420000E+03	5.038629E-18	7.573755E-19
3.430000E+03	4.887393E-18	7.294987E-19
3.440000E+03	4.743779E-18	7.033345E-19
3.450000E+03	4.607392E-18	6.787657E-19
3.460000E+03	4.477917E-18	6.556918E-19
3.470000E+03	4.354946E-18	6.340043E-19
3.480000E+03	4.238153E-18	6.136106E-19
3.490000E+03	4.127276E-18	5.944321E-19
3.500000E+03	4.021974E-18	5.763822E-19
3.510000E+03	3.922019E-18	5.593941E-19
3.520000E+03	3.827020E-18	5.433815E-19
3.530000E+03	3.736786E-18	5.282889E-19
3.540000E+03	3.651014E-18	5.140482E-19
3.550000E+03	3.569461E-18	5.006021E-19
3.560000E+03	3.491902E-18	4.878980E-19
3.570000E+03	3.418054E-18	4.758777E-19
3.580000E+03	3.347795E-18	4.645068E-19
3.590000E+03	3.280904E-18	4.537393E-19
3.600000E+03	3.217179E-18	4.435330E-19
3.610000E+03	3.156521E-18	4.338616E-19
3.620000E+03	3.098715E-18	4.246839E-19
3.630000E+03	3.043618E-18	4.159699E-19
3.640000E+03	2.991097E-18	4.076917E-19
3.650000E+03	2.941023E-18	3.998234E-19
3.660000E+03	2.893275E-18	3.923406E-19
3.670000E+03	2.847737E-18	3.852206E-19
3.680000E+03	2.804324E-18	3.784455E-19
3.690000E+03	2.762953E-18	3.719982E-19
3.700000E+03	2.723520E-18	3.658594E-19
3.710000E+03	2.686020E-18	3.600235E-19
3.720000E+03	2.650328E-18	3.544694E-19
3.730000E+03	2.616414E-18	3.491892E-19
3.740000E+03	2.584205E-18	3.441694E-19
3.750000E+03	2.553651E-18	3.393999E-19
3.760000E+03	2.524745E-18	3.348769E-19
3.770000E+03	2.497372E-18	3.305822E-19
3.780000E+03	2.471527E-18	3.265127E-19
3.790000E+03	2.447182E-18	3.226623E-19
3.800000E+03	2.424248E-18	3.190172E-19
3.810000E+03	2.402719E-18	3.155745E-19
3.820000E+03	2.382570E-18	3.123291E-19
3.830000E+03	2.363734E-18	3.092707E-19
3.840000E+03	2.346167E-18	3.063920E-19
3.850000E+03	2.329884E-18	3.036935E-19
3.860000E+03	2.314804E-18	3.011631E-19
3.870000E+03	2.300922E-18	2.987993E-19
3.880000E+03	2.288197E-18	2.965954E-19
3.890000E+03	2.276607E-18	2.945477E-19
3.900000E+03	2.266130E-18	2.926523E-19
3.910000E+03	2.256711E-18	2.909009E-19
3.920000E+03	2.248329E-18	2.892903E-19
3.930000E+03	2.240984E-18	2.878194E-19
3.940000E+03	2.234640E-18	2.864827E-19
3.950000E+03	2.229260E-18	2.852750E-19
3.960000E+03	2.224829E-18	2.841934E-19
3.970000E+03	2.221314E-18	2.832328E-19
3.980000E+03	2.218698E-18	2.823906E-19
3.990000E+03	2.216967E-18	2.816642E-19
4.000000E+03	2.216108E-18	2.810510E-19
4.010000E+03	2.216072E-18	2.805444E-19
4.020000E+03	2.216847E-18	2.801419E-19
4.030000E+03	2.218421E-18	2.798415E-19
4.040000E+03	2.220784E-18	2.796409E-19
4.050000E+03	2.223907E-18	2.795359E-19
4.060000E+03	2.227763E-18	2.795223E-19
4.070000E+03	2.232343E-18	2.795981E-19
4.080000E+03	2.237620E-18	2.797594E-19
4.090000E+03	2.243588E-18	2.800043E-19
4.100000E+03	2.250220E-18	2.803289E-19
4.110000E+03	2.257511E-18	2.807314E-19
4.120000E+03	2.265435E-18	2.812081E-19
4.130000E+03	2.273970E-18	2.817553E-19
4.140000E+03	2.283109E-18	2.823712E-19
4.150000E+03	2.292831E-18	2.830524E-19
4.160000E+03	2.303131E-18	2.837972E-19
4.170000E+03	2.313969E-18	2.846000E-19
4.180000E+03	2.325341E-18	2.854594E-19
4.190000E+03	2.337208E-18	2.863697E-19
4.200000E+03	2.349584E-18	2.873318E-19
4.210000E+03	2.362430E-18	2.883400E-19
4.220000E+03	2.375745E-18	2.893932E-19
4.230000E+03	2.389470E-18	2.904836E-19
4.240000E+03	2.403621E-18	2.916122E-19
4.250000E+03	2.418141E-18	2.927713E-19
4.260000E+03	2.433045E-18	2.939620E-19
4.270000E+03	2.448275E-18	2.951766E-19
4.280000E+03	2.463791E-18	2.964094E-19
4.290000E+03	2.479608E-18	2.976619E-19
4.300000E+03	2.495648E-18	2.989237E-19
4.310000E+03	2.511926E-18	3.001964E-19
4.320000E+03	2.528360E-18	3.014696E-19
4.330000E+03	2.544967E-18	3.027449E-19
4.340000E+03	2.561703E-18	3.040167E-19
4.350000E+03	2.578523E-18	3.052794E-19
4.360000E+03	2.595423E-18	3.065322E-19
4.370000E+03	2.612378E-18	3.077721E-19
4.380000E+03	2.629406E-18	3.090009E-19
4.390000E+03	2.646461E-18	3.102132E-19
4.400000E+03	2.663582E-18	3.114136E-19
4.410000E+03	2.680767E-18	3.126020E-19
4.420000E+03	2.698016E-18	3.137784E-19
4.430000E+03	2.715328E-18	3.149427E-19
4.440000E+03	2.732726E-18	3.160980E-19
4.450000E+03	2.750190E-18	3.172419E-19
4.460000E+03	2.767743E-18	3.183779E-19
4.470000E+03	2.785390E-18	3.195065E-19
4.480000E+03	2.803136E-18	3.206289E-19
4.490000E+03	2.820961E-18	3.217436E-19
4.500000E+03	2.838872E-18	3.228517E-19
4.510000E+03	2.856852E-18	3.239522E-19
4.520000E+03	2.874933E-18	3.250492E-19
4.530000E+03	2.893074E-18	3.261391E-19
4.540000E+03	2.911285E-18	3.272238E-19
4.550000E+03	2.929576E-18	3.283052E-19
4.560000E+03	2.947908E-18	3.293801E-19
4.570000E+03	2.966318E-18	3.304533E-19
4.580000E+03	2.984769E-18	3.315216E-19
4.590000E+03	3.003273E-18	3.325874E-19
4.600000E+03	3.021794E-18	3.336475E-19
4.610000E+03	3.040372E-18	3.347072E-19
4.620000E+03	3.058999E-18	3.357663E-19
4.630000E+03	3.077639E-18	3.368215E-19
4.640000E+03	3.096310E-18	3.378755E-19
4.650000E+03	3.115031E-18	3.389309E-19
4.660000E+03	3.133797E-18	3.399875E-19
4.670000E+03	3.152574E-18	3.410420E-19
4.680000E+03	3.171441E-18	3.421031E-19
4.690000E+03	3.190423E-18	3.431738E-19
4.700000E+03	3.209491E-18	3.442507E-19
4.710000E+03	3.228671E-18	3.453367E-19
4.720000E+03	3.247994E-18	3.464349E-19
4.730000E+03	3.267402E-18	3.475388E-19
4.740000E+03	3.286925E-18	3.486515E-19
4.750000E+03	3.306535E-18	3.497697E-19
4.760000E+03	3.326264E-18	3.508965E-19
4.770000E+03	3.346115E-18	3.520320E-19
4.780000E+03	3.366062E-18	3.531731E-19
4.790000E+03	3.386138E-18	3.543232E-19
4.800000E+03	3.406318E-18	3.554794E-19
4.810000E+03	3.426636E-18	3.566453E-19
4.820000E+03	3.447067E-18	3.578181E-19
4.830000E+03	3.467616E-18	3.589984E-19
4.840000E+03	3.488289E-18	3.601870E-19
4.850000E+03	3.509123E-18	3.613880E-19
4.860000E+03	3.530093E-18	3.625990E-19
4.870000E+03	3.551204E-18	3.638210E-19
4.880000E+03	3.572431E-18	3.650517E-19
4.890000E+03	3.593845E-18	3.662989E-19
4.900000E+03	3.615419E-18	3.675605E-19
4.910000E+03	3.637161E-18	3.688376E-19
4.920000E+03	3.659042E-18	3.701279E-19
4.930000E+03	3.681102E-18	3.714360E-19
4.940000E+03	3.703312E-18	3.727594E-19
4.950000E+03	3.725676E-18	3.740993E-19
4.960000E+03	3.748236E-18	3.754600E-19
4.970000E+03	3.770960E-18	3.768389E-19
4.980000E+03	3.793853E-18	3.782368E-19
4.990000E+03	3.816880E-18	3.796506E-19
5.000000E+03	3.840081E-18	3.810846E-19
5.010000E+03	3.863459E-18	3.825391E-19
5.020000E+03	3.886979E-18	3.840110E-19
5.030000E+03	3.910640E-18	3.855004E-19
5.040000E+03	3.934442E-18	3.870076E-19
5.050000E+03	3.958347E-18	3.885291E-19
5.060000E+03	3.982392E-18	3.900688E-19
5.070000E+03	4.006573E-18	3.916269E-19
5.080000E+03	4.030810E-18	3.931960E-19
5.090000E+03	4.055138E-18	3.947802E-19
5.100000E+03	4.079550E-18	3.963801E-19
5.110000E+03	4.104002E-18	3.979923E-19
5.120000E+03	4.128484E-18	3.996174E-19
5.130000E+03	4.152990E-18	4.012565E-19
5.140000E+03	4.177509E-18	4.029107E-19
5.150000E+03	4.201990E-18	4.045774E-19
5.160000E+03	4.226462E-18	4.062622E-19
5.170000E+03	4.250830E-18	4.079591E-19
5.180000E+03	4.275121E-18	4.096742E-19
5.190000E+03	4.299278E-18	4.114060E-19
5.200000E+03	4.323284E-18	4.131570E-19
5.210000E+03	4.347121E-18	4.149304E-19
5.220000E+03	4.370771E-18	4.167292E-19
5.230000E+03	4.394129E-18	4.185487E-19
5.240000E+03	4.417258E-18	4.204007E-19
5.250000E+03	4.440095E-18	4.222849E-19
5.260000E+03	4.462617E-18	4.242051E-19
5.270000E+03	4.484757E-18	4.261610E-19
5.280000E+03	4.506491E-18	4.281568E-19
5.290000E+03	4.527794E-18	4.301963E-19
5.300000E+03	4.548640E-18	4.322835E-19
5.310000E+03	4.569007E-18	4.344223E-19
5.320000E+03	4.588822E-18	4.366119E-19
5.330000E+03	4.608152E-18	4.388647E-19
5.340000E+03	4.626881E-18	4.411751E-19
5.350000E+03	4.644986E-18	4.435463E-19
5.360000E+03	4.662533E-18	4.459896E-19
5.370000E+03	4.679410E-18	4.484987E-19
5.380000E+03	4.695686E-18	4.510845E-19
5.390000E+03	4.711294E-18	4.537441E-19
5.400000E+03	4.726263E-18	4.564834E-19
5.410000E+03	4.740526E-18	4.592987E-19
5.420000E+03	4.754162E-18	4.621994E-19
5.430000E+03	4.767108E-18	4.651810E-19
5.440000E+03	4.779398E-18	4.682478E-19
5.450000E+03	4.790924E-18	4.713894E-19
5.460000E+03	4.801722E-18	4.746093E-19
5.470000E+03	4.811734E-18	4.779007E-19
5.480000E+03	4.820904E-18	4.812566E-19
5.490000E+03	4.829271E-18	4.846791E-19
5.500000E+03	4.836733E-18	4.881553E-19
5.510000E+03	4.843237E-18	4.916768E-19
5.520000E+03	4.848777E-18	4.952397E-19
5.530000E+03	4.853255E-18	4.988295E-19
5.540000E+03	4.856717E-18	5.024468E-19
5.550000E+03	4.859017E-18	5.060716E-19
5.560000E+03	4.860254E-18	5.097089E-19
5.570000E+03	4.860381E-18	5.133485E-19
5.580000E+03	4.859355E-18	5.169800E-19
5.590000E+03	4.857180E-18	5.205981E-19
5.600000E+03	4.853864E-18	5.241976E-19
5.610000E+03	4.849365E-18	5.277679E-19
5.620000E+03	4.843793E-18	5.313147E-19
5.630000E+03	4.837060E-18	5.348222E-19
5.640000E+03	4.829278E-18	5.382964E-19
5.650000E+03	4.820363E-18	5.417219E-19
5.660000E+03	4.810429E-18	5.451052E-19
5.670000E+03	4.799493E-18	5.484422E-19
5.680000E+03	4.787524E-18	5.517232E-19
5.690000E+03	4.774593E-18	5.549500E-19
5.700000E+03	4.760720E-18	5.581189E-19
5.710000E+03	4.745978E-18	5.612323E-19
5.720000E+03	4.730390E-18	5.642868E-19
5.730000E+03	4.713934E-18	5.672734E-19
5.740000E+03	4.696735E-18	5.702007E-19
5.750000E+03	4.678821E-18	5.730658E-19
5.760000E+03	4.660173E-18	5.758598E-19
5.770000E+03	4.640870E-18	5.785858E-19
5.780000E+03	4.620994E-18	5.812471E-19
5.790000E+03	4.600579E-18	5.838411E-19
5.800000E+03	4.579609E-18	5.863587E-19
5.810000E+03	4.558169E-18	5.888035E-19
5.820000E+03	4.536344E-18	5.911792E-19
5.830000E+03	4.514172E-18	5.934832E-19
5.840000E+03	4.491641E-18	5.957066E-19
5.850000E+03	4.468839E-18	5.978535E-19
5.860000E+03	4.445806E-18	5.999214E-19
5.870000E+03	4.422628E-18	6.019148E-19
5.880000E+03	4.399346E-18	6.038317E-19
5.890000E+03	4.375951E-18	6.056637E-19
5.900000E+03	4.352531E-18	6.074158E-19
5.910000E+03	4.329077E-18	6.090799E-19
5.920000E+03	4.305775E-18	6.106751E-19
5.930000E+03	4.282517E-18	6.121803E-19
5.940000E+03	4.259390E-18	6.136015E-19
5.950000E+03	4.236480E-18	6.149455E-19
5.960000E+03	4.213775E-18	6.162053E-19
5.970000E+03	4.191311E-18	6.173812E-19
5.980000E+03	4.169171E-18	6.184809E-19
5.990000E+03	4.147340E-18	6.194982E-19
6.000000E+03	4.125898E-18	6.204415E-19
6.010000E+03	4.104781E-18	6.212980E-19
6.020000E+03	4.084114E-18	6.220838E-19
6.030000E+03	4.063829E-18	6.227864E-19
6.040000E+03	4.044049E-18	6.234226E-19
6.050000E+03	4.024656E-18	6.239729E-19
6.060000E+03	4.005769E-18	6.244547E-19
6.070000E+03	3.987363E-18	6.248632E-19
6.080000E+03	3.969458E-18	6.252015E-19
6.090000E+03	3.951979E-18	6.254577E-19
6.100000E+03	3.935038E-18	6.256497E-19
6.110000E+03	3.918509E-18	6.257582E-19
6.120000E+03	3.902502E-18	6.258014E-19
6.130000E+03	3.886887E-18	6.257598E-19
6.140000E+03	3.871675E-18	6.256364E-19
6.150000E+03	3.856828E-18	6.254265E-19
6.160000E+03	3.842355E-18	6.251331E-19
6.170000E+03	3.828118E-18	6.247358E-19
6.180000E+03	3.814122E-18	6.242372E-19
6.190000E+03	3.800321E-18	6.236318E-19
6.200000E+03	3.786715E-18	6.229221E-19
6.210000E+03	3.773304E-18	6.221103E-19
6.220000E+03	3.760180E-18	6.212144E-19
6.230000E+03	3.747486E-18	6.202606E-19
6.240000E+03	3.735266E-18	6.192596E-19
6.250000E+03	3.723614E-18	6.182298E-19
6.260000E+03	3.712622E-18	6.171902E-19
6.270000E+03	3.702335E-18	6.161514E-19
6.280000E+03	3.692848E-18	6.151325E-19
6.290000E+03	3.684206E-18	6.141446E-19
6.300000E+03	3.676455E-18	6.131988E-19
6.310000E+03	3.669692E-18	6.123143E-19
6.320000E+03	3.663917E-18	6.114942E-19
6.330000E+03	3.659226E-18	6.107582E-19
6.340000E+03	3.655571E-18	6.101007E-19
6.350000E+03	3.653002E-18	6.095331E-19
6.360000E+03	3.651518E-18	6.090583E-19
6.370000E+03	3.651172E-18	6.086876E-19
6.380000E+03	3.651915E-18	6.084152E-19
6.390000E+03	3.653748E-18	6.082438E-19
6.400000E+03	3.656620E-18	6.081671E-19
6.410000E+03	3.660426E-18	6.081700E-19
6.420000E+03	3.665111E-18	6.082454E-19
6.430000E+03	3.670675E-18	6.083952E-19
6.440000E+03	3.677115E-18	6.086210E-19
6.450000E+03	3.684430E-18	6.089244E-19
6.460000E+03	3.692672E-18	6.093160E-19
6.470000E+03	3.701899E-18	6.098067E-19
6.480000E+03	3.712112E-18	6.103983E-19
6.490000E+03	3.723257E-18	6.110831E-19
6.500000E+03	3.735448E-18	6.118815E-19
6.510000E+03	3.748690E-18	6.127953E-19
6.520000E+03	3.762930E-18	6.138168E-19
6.530000E+03	3.778231E-18	6.149573E-19
6.540000E+03	3.794599E-18	6.162187E-19
6.550000E+03	3.811979E-18	6.175928E-19
6.560000E+03	3.830377E-18	6.190814E-19
6.570000E+03	3.849921E-18	6.207057E-19
6.580000E+03	3.870435E-18	6.224379E-19
6.590000E+03	3.892048E-18	6.242992E-19
6.600000E+03	3.914770E-18	6.262916E-19
6.610000E+03	3.938481E-18	6.283963E-19
6.620000E+03	3.963318E-18	6.306352E-19
6.630000E+03	3.989158E-18	6.329891E-19
6.640000E+03	4.016141E-18	6.354805E-19
6.650000E+03	4.044145E-18	6.380899E-19
6.660000E+03	4.073244E-18	6.408291E-19
6.670000E+03	4.103448E-18	6.436997E-19
6.680000E+03	4.134698E-18	6.466923E-19
6.690000E+03	4.167003E-18	6.498081E-19
6.700000E+03	4.200441E-18	6.530595E-19
6.710000E+03	4.234954E-18	6.564368E-19
6.720000E+03	4.270550E-18	6.599411E-19
6.730000E+03	4.307238E-18	6.635737E-19
6.740000E+03	4.345030E-18	6.673358E-19
6.750000E+03	4.383935E-18	6.712287E-19
6.760000E+03	4.423965E-18	6.752536E-19
6.770000E+03	4.465051E-18	6.793997E-19
6.780000E+03	4.507282E-18	6.836801E-19
6.790000E+03	4.550670E-18	6.880959E-19
6.800000E+03	4.595145E-18	6.926361E-19
6.810000E+03	4.640800E-18	6.973140E-19
6.820000E+03	4.687561E-18	7.021182E-19
6.830000E+03	4.735440E-18	7.070497E-19
6.840000E+03	4.784446E-18	7.121092E-19
6.850000E+03	4.834588E-18	7.172976E-19
6.860000E+03	4.885966E-18	7.226290E-19
6.870000E+03	4.938412E-18	7.280778E-19
6.880000E+03	4.992025E-18	7.336580E-19
6.890000E+03	5.046816E-18	7.393704E-19
6.900000E+03	5.102698E-18	7.452020E-19
6.910000E+03	5.159777E-18	7.511671E-19
6.920000E+03	5.218061E-18	7.572666E-19
6.930000E+03	5.277462E-18	7.634867E-19
6.940000E+03	5.337986E-18	7.698278E-19
6.950000E+03	5.399742E-18	7.763049E-19
6.960000E+03	5.462636E-18	7.829039E-19
6.970000E+03	5.526673E-18	7.896248E-19
6.980000E+03	5.591860E-18	7.964680E-19
6.990000E+03	5.658202E-18	8.034335E-19
7.000000E+03	5.725592E-18	8.105057E-19
7.010000E+03	5.794256E-18	8.177161E-19
7.020000E+03	5.863976E-18	8.250331E-19
7.030000E+03	5.934866E-18	8.324724E-19
7.040000E+03	6.006812E-18	8.400176E-19
7.050000E+03	6.079813E-18	8.476679E-19
7.060000E+03	6.153988E-18	8.554399E-19
7.070000E+03	6.229216E-18	8.633161E-19
7.080000E+03	6.305369E-18	8.712785E-19
7.090000E+03	6.382692E-18	8.793610E-19
7.100000E+03	6.461057E-18	8.875456E-19
7.110000E+03	6.540328E-18	8.958133E-19
7.120000E+03	6.620626E-18	9.041810E-19
7.130000E+03	6.701810E-18	9.126292E-19
7.140000E+03	6.784004E-18	9.211753E-19
7.150000E+03	6.867061E-18	9.297994E-19
7.160000E+03	6.951109E-18	9.385190E-19
7.170000E+03	7.035847E-18	9.472944E-19
7.180000E+03	7.121401E-18	9.561428E-19
7.190000E+03	7.207904E-18	9.650830E-19
7.200000E+03	7.295038E-18	9.740734E-19
7.210000E+03	7.382777E-18	9.831117E-19
7.220000E+03	7.471253E-18	9.922165E-19
7.230000E+03	7.560443E-18	1.001386E-18
7.240000E+03	7.650163E-18	1.010599E-18
7.250000E+03	7.740547E-18	1.019873E-18
7.260000E+03	7.831405E-18	1.029186E-18
7.270000E+03	7.922704E-18	1.038535E-18
7.280000E+03	8.014582E-18	1.047942E-18
7.290000E+03	8.106838E-18	1.057382E-18
7.300000E+03	8.199615E-18	1.066878E-18
7.310000E+03	8.292703E-18	1.076404E-18
7.320000E+03	8.386066E-18	1.085958E-18
7.330000E+03	8.480038E-18	1.095589E-18
7.340000E+03	8.574218E-18	1.105246E-18
7.350000E+03	8.668953E-18	1.114979E-18
7.360000E+03	8.764024E-18	1.124761E-18
7.370000E+03	8.859598E-18	1.134620E-18
7.380000E+03	8.955853E-18	1.144579E-18
7.390000E+03	9.052570E-18	1.154615E-18
7.400000E+03	9.150141E-18	1.164781E-18
7.410000E+03	9.248560E-18	1.175078E-18
7.420000E+03	9.348037E-18	1.185537E-18
7.430000E+03	9.448575E-18	1.196159E-18
7.440000E+03	9.550180E-18	1.206947E-18
7.450000E+03	9.653080E-18	1.217933E-18
7.460000E+03	9.756838E-18	1.229061E-18
7.470000E+03	9.861448E-18	1.240333E-18
7.480000E+03	9.966674E-18	1.251719E-18
7.490000E+03	1.007274E-17	1.263247E-18
7.500000E+03	1.017940E-17	1.274887E-18
7.510000E+03	1.028639E-17	1.286605E-18
7.520000E+03	1.039370E-17	1.298396E-18
7.530000E+03	1.050129E-17	1.310257E-18
7.540000E+03	1.060889E-17	1.322148E-18
7.550000E+03	1.071671E-17	1.334096E-18
7.560000E+03	1.082420E-17	1.346027E-18
7.570000E+03	1.093184E-17	1.357999E-18
7.580000E+03	1.103933E-17	1.369969E-18
7.590000E+03	1.114663E-17	1.381928E-18
7.600000E+03	1.125341E-17	1.393834E-18
7.610000E+03	1.135989E-17	1.405708E-18
7.620000E+03	1.146602E-17	1.417541E-18
7.630000E+03	1.157175E-17	1.429322E-18
7.640000E+03	1.167673E-17	1.441005E-18
7.650000E+03	1.178118E-17	1.452615E-18
7.660000E+03	1.188475E-17	1.464105E-18
7.670000E+03	1.198796E-17	1.475536E-18
7.680000E+03	1.208984E-17	1.486788E-18
7.690000E+03	1.219122E-17	1.497962E-18
7.700000E+03	1.229174E-17	1.509010E-18
7.710000E+03	1.239099E-17	1.519884E-18
7.720000E+03	1.248923E-17	1.530612E-18
7.730000E+03	1.258635E-17	1.541185E-18
7.740000E+03	1.268230E-17	1.551592E-18
7.750000E+03	1.277698E-17	1.561826E-18
7.760000E+03	1.287065E-17	1.571917E-18
