#wls	flux	fluxerr
1.600000E+03	1.207929E-16	1.169924E-16
1.640000E+03	1.249113E-16	1.189703E-16
1.680000E+03	1.289303E-16	1.206776E-16
1.720000E+03	1.327933E-16	1.220631E-16
1.760000E+03	1.364902E-16	1.231215E-16
1.800000E+03	1.399564E-16	1.238007E-16
1.840000E+03	1.431493E-16	1.240725E-16
1.880000E+03	1.460479E-16	1.239308E-16
1.920000E+03	1.485794E-16	1.233287E-16
1.960000E+03	1.507065E-16	1.222547E-16
2.000000E+03	1.523683E-16	1.206819E-16
2.040000E+03	1.535281E-16	1.186081E-16
2.080000E+03	1.541090E-16	1.160050E-16
2.120000E+03	1.540539E-16	1.128659E-16
2.160000E+03	1.533068E-16	1.091909E-16
2.200000E+03	1.517813E-16	1.049651E-16
2.240000E+03	1.494093E-16	1.001944E-16
2.280000E+03	1.461858E-16	9.493295E-17
2.320000E+03	1.421586E-16	8.926987E-17
2.360000E+03	1.374657E-16	8.334598E-17
2.400000E+03	1.322213E-16	7.727732E-17
2.440000E+03	1.265267E-16	7.116304E-17
2.480000E+03	1.204874E-16	6.509625E-17
2.520000E+03	1.141702E-16	5.914054E-17
2.560000E+03	1.076521E-16	5.335847E-17
2.600000E+03	1.009994E-16	4.780037E-17
2.640000E+03	9.428225E-17	4.251172E-17
2.680000E+03	8.755888E-17	3.752602E-17
2.720000E+03	8.088875E-17	3.287118E-17
2.760000E+03	7.432816E-17	2.856769E-17
2.800000E+03	6.792999E-17	2.462883E-17
2.840000E+03	6.174485E-17	2.106146E-17
2.880000E+03	5.582191E-17	1.786659E-17
2.920000E+03	5.020504E-17	1.503855E-17
2.960000E+03	4.493228E-17	1.256562E-17
3.000000E+03	4.003171E-17	1.042976E-17
3.010000E+03	3.886801E-17	9.946101E-18
3.020000E+03	3.772792E-17	9.481421E-18
3.030000E+03	3.661312E-17	9.035691E-18
3.040000E+03	3.552263E-17	8.608220E-18
3.050000E+03	3.445711E-17	8.198713E-18
3.060000E+03	3.341711E-17	7.806836E-18
3.070000E+03	3.240097E-17	7.431749E-18
3.080000E+03	3.141056E-17	7.073427E-18
3.090000E+03	3.044427E-17	6.731052E-18
3.100000E+03	2.950314E-17	6.404397E-18
3.110000E+03	2.858629E-17	6.092818E-18
3.120000E+03	2.769351E-17	5.795822E-18
3.130000E+03	2.682566E-17	5.513139E-18
3.140000E+03	2.598149E-17	5.244055E-18
3.150000E+03	2.516229E-17	4.988385E-18
3.160000E+03	2.436641E-17	4.745350E-18
3.170000E+03	2.359502E-17	4.514744E-18
3.180000E+03	2.284699E-17	4.295917E-18
3.190000E+03	2.212292E-17	4.088557E-18
3.200000E+03	2.142209E-17	3.892119E-18
3.210000E+03	2.074459E-17	3.706214E-18
3.220000E+03	2.009010E-17	3.530386E-18
3.230000E+03	1.945828E-17	3.364193E-18
3.240000E+03	1.884851E-17	3.207149E-18
3.250000E+03	1.826106E-17	3.058942E-18
3.260000E+03	1.769525E-17	2.919104E-18
3.270000E+03	1.715096E-17	2.787279E-18
3.280000E+03	1.662748E-17	2.663029E-18
3.290000E+03	1.612438E-17	2.545974E-18
3.300000E+03	1.564144E-17	2.435786E-18
3.310000E+03	1.517791E-17	2.332067E-18
3.320000E+03	1.473353E-17	2.234509E-18
3.330000E+03	1.430775E-17	2.142775E-18
3.340000E+03	1.389966E-17	2.056486E-18
3.350000E+03	1.350913E-17	1.975399E-18
3.360000E+03	1.313544E-17	1.899193E-18
3.370000E+03	1.277809E-17	1.827592E-18
3.380000E+03	1.243655E-17	1.760333E-18
3.390000E+03	1.210999E-17	1.697118E-18
3.400000E+03	1.179826E-17	1.637759E-18
3.410000E+03	1.150071E-17	1.582010E-18
3.420000E+03	1.121671E-17	1.529637E-18
3.430000E+03	1.094581E-17	1.480442E-18
3.440000E+03	1.068758E-17	1.434238E-18
3.450000E+03	1.044132E-17	1.390812E-18
3.460000E+03	1.020676E-17	1.350019E-18
3.470000E+03	9.983264E-18	1.311671E-18
3.480000E+03	9.770477E-18	1.275625E-18
3.490000E+03	9.567938E-18	1.241734E-18
3.500000E+03	9.375213E-18	1.209860E-18
3.510000E+03	9.191897E-18	1.179874E-18
3.520000E+03	9.017604E-18	1.151660E-18
3.530000E+03	8.851875E-18	1.125093E-18
3.540000E+03	8.694281E-18	1.100062E-18
3.550000E+03	8.544514E-18	1.076475E-18
3.560000E+03	8.402194E-18	1.054235E-18
3.570000E+03	8.267047E-18	1.033263E-18
3.580000E+03	8.138647E-18	1.013466E-18
3.590000E+03	8.016761E-18	9.947773E-19
3.600000E+03	7.901084E-18	9.771266E-19
3.610000E+03	7.791485E-18	9.604670E-19
3.620000E+03	7.687608E-18	9.447267E-19
3.630000E+03	7.589266E-18	9.298573E-19
3.640000E+03	7.496065E-18	9.157877E-19
3.650000E+03	7.407850E-18	9.024777E-19
3.660000E+03	7.324400E-18	8.898816E-19
3.670000E+03	7.245506E-18	8.779567E-19
3.680000E+03	7.171037E-18	8.666709E-19
3.690000E+03	7.100862E-18	8.559940E-19
3.700000E+03	7.034793E-18	8.458896E-19
3.710000E+03	6.972770E-18	8.363383E-19
3.720000E+03	6.914609E-18	8.273065E-19
3.730000E+03	6.860317E-18	8.187839E-19
3.740000E+03	6.809770E-18	8.107461E-19
3.750000E+03	6.762850E-18	8.031695E-19
3.760000E+03	6.719496E-18	7.960384E-19
3.770000E+03	6.679707E-18	7.893447E-19
3.780000E+03	6.643362E-18	7.830666E-19
3.790000E+03	6.610458E-18	7.771966E-19
3.800000E+03	6.580878E-18	7.717143E-19
3.810000E+03	6.554566E-18	7.666066E-19
3.820000E+03	6.531521E-18	7.618668E-19
3.830000E+03	6.511740E-18	7.574889E-19
3.840000E+03	6.495114E-18	7.534538E-19
3.850000E+03	6.481698E-18	7.497621E-19
3.860000E+03	6.471330E-18	7.463894E-19
3.870000E+03	6.464118E-18	7.433422E-19
3.880000E+03	6.459902E-18	7.405965E-19
3.890000E+03	6.458786E-18	7.381586E-19
3.900000E+03	6.460661E-18	7.360107E-19
3.910000E+03	6.465525E-18	7.341468E-19
3.920000E+03	6.473321E-18	7.325550E-19
3.930000E+03	6.484045E-18	7.312291E-19
3.940000E+03	6.497637E-18	7.301573E-19
3.950000E+03	6.514146E-18	7.293390E-19
3.960000E+03	6.533460E-18	7.287564E-19
3.970000E+03	6.555574E-18	7.284029E-19
3.980000E+03	6.580428E-18	7.282664E-19
3.990000E+03	6.608068E-18	7.283459E-19
4.000000E+03	6.638435E-18	7.286290E-19
4.010000E+03	6.671469E-18	7.291029E-19
4.020000E+03	6.707110E-18	7.297551E-19
4.030000E+03	6.745406E-18	7.305844E-19
4.040000E+03	6.786246E-18	7.315728E-19
4.050000E+03	6.829678E-18	7.327194E-19
4.060000E+03	6.875594E-18	7.340064E-19
4.070000E+03	6.923992E-18	7.354279E-19
4.080000E+03	6.974874E-18	7.369785E-19
4.090000E+03	7.028189E-18	7.386471E-19
4.100000E+03	7.083886E-18	7.404236E-19
4.110000E+03	7.141915E-18	7.422979E-19
4.120000E+03	7.202339E-18	7.442721E-19
4.130000E+03	7.265053E-18	7.463315E-19
4.140000E+03	7.330065E-18	7.484729E-19
4.150000E+03	7.397271E-18	7.506819E-19
4.160000E+03	7.466678E-18	7.529561E-19
4.170000E+03	7.538300E-18	7.552933E-19
4.180000E+03	7.612028E-18	7.576799E-19
4.190000E+03	7.687878E-18	7.601143E-19
4.200000E+03	7.765741E-18	7.625841E-19
4.210000E+03	7.845631E-18	7.650893E-19
4.220000E+03	7.927442E-18	7.676186E-19
4.230000E+03	8.011188E-18	7.701742E-19
4.240000E+03	8.096760E-18	7.727472E-19
4.250000E+03	8.184109E-18	7.753360E-19
4.260000E+03	8.273121E-18	7.779347E-19
4.270000E+03	8.363809E-18	7.805509E-19
4.280000E+03	8.456056E-18	7.831816E-19
4.290000E+03	8.549803E-18	7.858316E-19
4.300000E+03	8.644924E-18	7.885009E-19
4.310000E+03	8.741283E-18	7.911910E-19
4.320000E+03	8.838808E-18	7.939107E-19
4.330000E+03	8.937423E-18	7.966697E-19
4.340000E+03	9.036972E-18	7.994722E-19
4.350000E+03	9.137367E-18	8.023282E-19
4.360000E+03	9.238438E-18	8.052407E-19
4.370000E+03	9.340157E-18	8.082236E-19
4.380000E+03	9.442418E-18	8.112817E-19
4.390000E+03	9.545342E-18	8.144351E-19
4.400000E+03	9.648821E-18	8.176793E-19
4.410000E+03	9.752900E-18	8.210176E-19
4.420000E+03	9.857548E-18	8.244424E-19
4.430000E+03	9.962901E-18	8.279561E-19
4.440000E+03	1.006885E-17	8.315389E-19
4.450000E+03	1.017539E-17	8.351759E-19
4.460000E+03	1.028256E-17	8.388583E-19
4.470000E+03	1.039038E-17	8.425699E-19
4.480000E+03	1.049882E-17	8.462948E-19
4.490000E+03	1.060779E-17	8.500100E-19
4.500000E+03	1.071738E-17	8.537073E-19
4.510000E+03	1.082748E-17	8.573654E-19
4.520000E+03	1.093810E-17	8.609711E-19
4.530000E+03	1.104923E-17	8.645130E-19
4.540000E+03	1.116068E-17	8.679673E-19
4.550000E+03	1.127255E-17	8.713349E-19
4.560000E+03	1.138474E-17	8.746048E-19
4.570000E+03	1.149726E-17	8.777769E-19
4.580000E+03	1.160992E-17	8.808388E-19
4.590000E+03	1.172285E-17	8.838043E-19
4.600000E+03	1.183585E-17	8.866666E-19
4.610000E+03	1.194907E-17	8.894444E-19
4.620000E+03	1.206232E-17	8.921349E-19
4.630000E+03	1.217566E-17	8.947520E-19
4.640000E+03	1.228901E-17	8.973020E-19
4.650000E+03	1.240255E-17	8.998076E-19
4.660000E+03	1.251613E-17	9.022673E-19
4.670000E+03	1.262994E-17	9.047031E-19
4.680000E+03	1.274394E-17	9.071202E-19
4.690000E+03	1.285811E-17	9.095229E-19
4.700000E+03	1.297268E-17	9.119307E-19
4.710000E+03	1.308750E-17	9.143374E-19
4.720000E+03	1.320271E-17	9.167513E-19
4.730000E+03	1.331817E-17	9.191623E-19
4.740000E+03	1.343404E-17	9.215746E-19
4.750000E+03	1.355006E-17	9.239647E-19
4.760000E+03	1.366639E-17	9.263322E-19
4.770000E+03	1.378292E-17	9.286586E-19
4.780000E+03	1.389979E-17	9.309413E-19
4.790000E+03	1.401689E-17	9.331611E-19
4.800000E+03	1.413425E-17	9.353084E-19
4.810000E+03	1.425186E-17	9.373762E-19
4.820000E+03	1.436975E-17	9.393607E-19
4.830000E+03	1.448792E-17	9.412624E-19
4.840000E+03	1.460624E-17	9.430782E-19
4.850000E+03	1.472486E-17	9.448280E-19
4.860000E+03	1.484379E-17	9.465284E-19
4.870000E+03	1.496291E-17	9.481925E-19
4.880000E+03	1.508221E-17	9.498462E-19
4.890000E+03	1.520186E-17	9.515276E-19
4.900000E+03	1.532157E-17	9.532486E-19
4.910000E+03	1.544165E-17	9.550563E-19
4.920000E+03	1.556195E-17	9.569673E-19
4.930000E+03	1.568231E-17	9.589928E-19
4.940000E+03	1.580287E-17	9.611553E-19
4.950000E+03	1.592359E-17	9.634606E-19
4.960000E+03	1.604430E-17	9.658973E-19
4.970000E+03	1.616510E-17	9.684649E-19
4.980000E+03	1.628560E-17	9.711283E-19
4.990000E+03	1.640606E-17	9.738845E-19
5.000000E+03	1.652623E-17	9.766980E-19
5.010000E+03	1.664584E-17	9.795305E-19
5.020000E+03	1.676494E-17	9.823609E-19
5.030000E+03	1.688325E-17	9.851489E-19
5.040000E+03	1.700062E-17	9.878639E-19
5.050000E+03	1.711689E-17	9.904765E-19
5.060000E+03	1.723189E-17	9.929584E-19
5.070000E+03	1.734527E-17	9.952731E-19
5.080000E+03	1.745699E-17	9.974047E-19
5.090000E+03	1.756667E-17	9.993194E-19
5.100000E+03	1.767409E-17	1.000994E-18
5.110000E+03	1.777884E-17	1.002398E-18
5.120000E+03	1.788087E-17	1.003521E-18
5.130000E+03	1.797960E-17	1.004324E-18
5.140000E+03	1.807514E-17	1.004813E-18
5.150000E+03	1.816694E-17	1.004956E-18
5.160000E+03	1.825494E-17	1.004753E-18
5.170000E+03	1.833877E-17	1.004195E-18
5.180000E+03	1.841801E-17	1.003280E-18
5.190000E+03	1.849264E-17	1.002036E-18
5.200000E+03	1.856225E-17	1.000480E-18
5.210000E+03	1.862664E-17	9.986484E-19
5.220000E+03	1.868556E-17	9.965876E-19
5.230000E+03	1.873862E-17	9.943384E-19
5.240000E+03	1.878557E-17	9.919558E-19
5.250000E+03	1.882601E-17	9.894858E-19
5.260000E+03	1.885987E-17	9.869921E-19
5.270000E+03	1.888673E-17	9.845152E-19
5.280000E+03	1.890634E-17	9.821002E-19
5.290000E+03	1.891846E-17	9.797866E-19
5.300000E+03	1.892266E-17	9.775982E-19
5.310000E+03	1.891871E-17	9.755633E-19
5.320000E+03	1.890638E-17	9.737045E-19
5.330000E+03	1.888548E-17	9.720392E-19
5.340000E+03	1.885563E-17	9.705700E-19
5.350000E+03	1.881687E-17	9.693132E-19
5.360000E+03	1.876907E-17	9.682702E-19
5.370000E+03	1.871217E-17	9.674373E-19
5.380000E+03	1.864594E-17	9.667968E-19
5.390000E+03	1.857081E-17	9.663556E-19
5.400000E+03	1.848667E-17	9.660890E-19
5.410000E+03	1.839409E-17	9.659992E-19
5.420000E+03	1.829312E-17	9.660585E-19
5.430000E+03	1.818427E-17	9.662580E-19
5.440000E+03	1.806795E-17	9.665795E-19
5.450000E+03	1.794500E-17	9.670243E-19
5.460000E+03	1.781579E-17	9.675649E-19
5.470000E+03	1.768077E-17	9.681738E-19
5.480000E+03	1.754029E-17	9.688131E-19
5.490000E+03	1.739512E-17	9.694647E-19
5.500000E+03	1.724573E-17	9.700910E-19
5.510000E+03	1.709282E-17	9.706655E-19
5.520000E+03	1.693715E-17	9.711634E-19
5.530000E+03	1.677947E-17	9.715620E-19
5.540000E+03	1.662058E-17	9.718413E-19
5.550000E+03	1.646145E-17	9.719938E-19
5.560000E+03	1.630286E-17	9.720047E-19
5.570000E+03	1.614593E-17	9.718821E-19
5.580000E+03	1.599126E-17	9.716076E-19
5.590000E+03	1.584005E-17	9.712065E-19
5.600000E+03	1.569283E-17	9.706685E-19
5.610000E+03	1.555055E-17	9.700178E-19
5.620000E+03	1.541406E-17	9.692831E-19
5.630000E+03	1.528370E-17	9.684675E-19
5.640000E+03	1.516048E-17	9.676280E-19
5.650000E+03	1.504473E-17	9.667856E-19
5.660000E+03	1.493667E-17	9.659647E-19
5.670000E+03	1.483708E-17	9.652325E-19
5.680000E+03	1.474588E-17	9.646090E-19
5.690000E+03	1.466341E-17	9.641456E-19
5.700000E+03	1.458989E-17	9.638950E-19
5.710000E+03	1.452540E-17	9.638998E-19
5.720000E+03	1.446991E-17	9.642014E-19
5.730000E+03	1.442340E-17	9.648392E-19
5.740000E+03	1.438596E-17	9.658593E-19
5.750000E+03	1.435767E-17	9.673033E-19
5.760000E+03	1.433815E-17	9.691772E-19
5.770000E+03	1.432782E-17	9.715322E-19
5.780000E+03	1.432633E-17	9.743621E-19
5.790000E+03	1.433397E-17	9.776959E-19
5.800000E+03	1.435064E-17	9.815254E-19
5.810000E+03	1.437651E-17	9.858575E-19
5.820000E+03	1.441166E-17	9.906832E-19
5.830000E+03	1.445632E-17	9.959995E-19
5.840000E+03	1.451042E-17	1.001777E-18
5.850000E+03	1.457407E-17	1.007994E-18
5.860000E+03	1.464750E-17	1.014634E-18
5.870000E+03	1.473097E-17	1.021682E-18
5.880000E+03	1.482427E-17	1.029083E-18
5.890000E+03	1.492778E-17	1.036827E-18
5.900000E+03	1.504146E-17	1.044871E-18
5.910000E+03	1.516553E-17	1.053193E-18
5.920000E+03	1.530007E-17	1.061759E-18
5.930000E+03	1.544497E-17	1.070528E-18
5.940000E+03	1.560043E-17	1.079481E-18
5.950000E+03	1.576645E-17	1.088590E-18
5.960000E+03	1.594284E-17	1.097817E-18
5.970000E+03	1.612992E-17	1.107166E-18
5.980000E+03	1.632723E-17	1.116589E-18
5.990000E+03	1.653486E-17	1.126084E-18
6.000000E+03	1.675264E-17	1.135637E-18
6.010000E+03	1.698019E-17	1.145223E-18
6.020000E+03	1.721747E-17	1.154851E-18
6.030000E+03	1.746379E-17	1.164490E-18
6.040000E+03	1.771922E-17	1.174171E-18
6.050000E+03	1.798294E-17	1.183872E-18
6.060000E+03	1.825473E-17	1.193622E-18
6.070000E+03	1.853383E-17	1.203424E-18
6.080000E+03	1.881968E-17	1.213305E-18
6.090000E+03	1.911139E-17	1.223284E-18
6.100000E+03	1.940800E-17	1.233389E-18
6.110000E+03	1.970894E-17	1.243685E-18
6.120000E+03	2.001262E-17	1.254183E-18
6.130000E+03	2.031831E-17	1.264964E-18
6.140000E+03	2.062451E-17	1.276067E-18
6.150000E+03	2.093013E-17	1.287567E-18
6.160000E+03	2.123301E-17	1.299472E-18
6.170000E+03	2.153227E-17	1.311863E-18
6.180000E+03	2.182597E-17	1.324744E-18
6.190000E+03	2.211278E-17	1.338131E-18
6.200000E+03	2.239125E-17	1.351989E-18
6.210000E+03	2.266125E-17	1.366322E-18
6.220000E+03	2.292315E-17	1.381122E-18
6.230000E+03	2.317750E-17	1.396363E-18
6.240000E+03	2.342499E-17	1.412009E-18
6.250000E+03	2.366554E-17	1.427958E-18
6.260000E+03	2.390064E-17	1.444200E-18
6.270000E+03	2.413003E-17	1.460613E-18
6.280000E+03	2.435470E-17	1.477153E-18
6.290000E+03	2.457543E-17	1.493765E-18
6.300000E+03	2.479200E-17	1.510340E-18
6.310000E+03	2.500521E-17	1.526836E-18
6.320000E+03	2.521555E-17	1.543200E-18
6.330000E+03	2.542352E-17	1.559389E-18
6.340000E+03	2.562894E-17	1.575325E-18
6.350000E+03	2.583233E-17	1.590981E-18
6.360000E+03	2.603387E-17	1.606318E-18
6.370000E+03	2.623375E-17	1.621304E-18
6.380000E+03	2.643177E-17	1.635893E-18
6.390000E+03	2.662775E-17	1.650043E-18
6.400000E+03	2.682147E-17	1.663721E-18
6.410000E+03	2.701308E-17	1.676922E-18
6.420000E+03	2.720236E-17	1.689622E-18
6.430000E+03	2.738825E-17	1.701753E-18
6.440000E+03	2.757206E-17	1.713399E-18
6.450000E+03	2.775394E-17	1.724579E-18
6.460000E+03	2.793443E-17	1.735338E-18
6.470000E+03	2.811452E-17	1.745755E-18
6.480000E+03	2.829399E-17	1.755835E-18
6.490000E+03	2.847383E-17	1.765662E-18
6.500000E+03	2.865425E-17	1.775268E-18
6.510000E+03	2.883584E-17	1.784715E-18
6.520000E+03	2.901792E-17	1.793980E-18
6.530000E+03	2.920197E-17	1.803176E-18
6.540000E+03	2.938726E-17	1.812276E-18
6.550000E+03	2.957441E-17	1.821335E-18
6.560000E+03	2.976357E-17	1.830375E-18
6.570000E+03	2.995442E-17	1.839390E-18
6.580000E+03	3.014756E-17	1.848425E-18
6.590000E+03	3.034315E-17	1.857497E-18
6.600000E+03	3.054084E-17	1.866589E-18
6.610000E+03	3.074075E-17	1.875712E-18
6.620000E+03	3.094301E-17	1.884874E-18
6.630000E+03	3.114824E-17	1.894115E-18
6.640000E+03	3.135553E-17	1.903380E-18
6.650000E+03	3.156548E-17	1.912707E-18
6.660000E+03	3.177818E-17	1.922101E-18
6.670000E+03	3.199316E-17	1.931537E-18
6.680000E+03	3.221100E-17	1.941052E-18
6.690000E+03	3.243121E-17	1.950620E-18
6.700000E+03	3.265436E-17	1.960279E-18
6.710000E+03	3.287937E-17	1.969970E-18
6.720000E+03	3.310681E-17	1.979729E-18
6.730000E+03	3.333727E-17	1.989598E-18
6.740000E+03	3.356963E-17	1.999510E-18
6.750000E+03	3.380449E-17	2.009502E-18
6.760000E+03	3.404128E-17	2.019537E-18
6.770000E+03	3.428062E-17	2.029645E-18
6.780000E+03	3.452194E-17	2.039779E-18
6.790000E+03	3.476528E-17	2.049924E-18
6.800000E+03	3.501129E-17	2.060093E-18
6.810000E+03	3.525876E-17	2.070186E-18
6.820000E+03	3.550898E-17	2.080243E-18
6.830000E+03	3.576072E-17	2.090152E-18
6.840000E+03	3.601527E-17	2.099946E-18
6.850000E+03	3.627134E-17	2.109504E-18
6.860000E+03	3.652889E-17	2.118783E-18
6.870000E+03	3.678855E-17	2.127778E-18
6.880000E+03	3.705027E-17	2.136453E-18
6.890000E+03	3.731259E-17	2.144696E-18
6.900000E+03	3.757677E-17	2.152563E-18
6.910000E+03	3.784199E-17	2.159997E-18
6.920000E+03	3.810882E-17	2.167031E-18
6.930000E+03	3.837565E-17	2.173583E-18
6.940000E+03	3.864301E-17	2.179698E-18
6.950000E+03	3.891071E-17	2.185388E-18
6.960000E+03	3.917779E-17	2.190626E-18
6.970000E+03	3.944479E-17	2.195473E-18
6.980000E+03	3.971149E-17	2.199949E-18
6.990000E+03	3.997692E-17	2.204037E-18
7.000000E+03	4.024086E-17	2.207762E-18
7.010000E+03	4.050310E-17	2.211150E-18
7.020000E+03	4.076425E-17	2.214271E-18
7.030000E+03	4.102254E-17	2.217067E-18
7.040000E+03	4.127941E-17	2.219651E-18
7.050000E+03	4.153310E-17	2.221960E-18
7.060000E+03	4.178430E-17	2.224060E-18
7.070000E+03	4.203206E-17	2.225926E-18
7.080000E+03	4.227712E-17	2.227619E-18
7.090000E+03	4.251944E-17	2.229150E-18
7.100000E+03	4.275810E-17	2.230481E-18
7.110000E+03	4.299221E-17	2.231571E-18
7.120000E+03	4.322349E-17	2.232506E-18
7.130000E+03	4.345107E-17	2.233236E-18
7.140000E+03	4.367498E-17	2.233748E-18
7.150000E+03	4.389526E-17	2.234023E-18
7.160000E+03	4.411107E-17	2.233995E-18
7.170000E+03	4.432336E-17	2.233679E-18
7.180000E+03	4.453131E-17	2.232997E-18
7.190000E+03	4.473500E-17	2.231911E-18
7.200000E+03	4.493547E-17	2.230427E-18
7.210000E+03	4.513190E-17	2.228454E-18
7.220000E+03	4.532535E-17	2.225993E-18
7.230000E+03	4.551403E-17	2.222908E-18
7.240000E+03	4.569897E-17	2.219201E-18
7.250000E+03	4.588025E-17	2.214835E-18
7.260000E+03	4.605788E-17	2.209777E-18
7.270000E+03	4.623189E-17	2.204003E-18
7.280000E+03	4.640223E-17	2.197496E-18
7.290000E+03	4.656785E-17	2.190205E-18
7.300000E+03	4.672961E-17	2.182185E-18
7.310000E+03	4.688740E-17	2.173454E-18
7.320000E+03	4.704108E-17	2.164048E-18
7.330000E+03	4.718945E-17	2.153968E-18
7.340000E+03	4.733339E-17	2.143328E-18
7.350000E+03	4.747378E-17	2.132256E-18
7.360000E+03	4.760840E-17	2.120757E-18
7.370000E+03	4.773816E-17	2.108999E-18
7.380000E+03	4.786294E-17	2.097119E-18
7.390000E+03	4.798371E-17	2.085326E-18
7.400000E+03	4.809937E-17	2.073759E-18
7.410000E+03	4.821096E-17	2.062674E-18
7.420000E+03	4.831959E-17	2.052357E-18
7.430000E+03	4.842424E-17	2.043031E-18
7.440000E+03	4.852724E-17	2.035087E-18
7.450000E+03	4.862657E-17	2.028758E-18
7.460000E+03	4.872353E-17	2.024438E-18
7.470000E+03	4.881726E-17	2.022435E-18
7.480000E+03	4.890916E-17	2.023139E-18
7.490000E+03	4.899725E-17	2.026764E-18
7.500000E+03	4.908294E-17	2.033586E-18
7.510000E+03	4.916648E-17	2.043723E-18
7.520000E+03	4.924693E-17	2.057097E-18
7.530000E+03	4.932675E-17	2.073617E-18
7.540000E+03	4.940378E-17	2.092867E-18
7.550000E+03	4.947929E-17	2.114479E-18
7.560000E+03	4.955225E-17	2.137924E-18
7.570000E+03	4.962394E-17	2.162742E-18
7.580000E+03	4.969333E-17	2.188375E-18
7.590000E+03	4.976172E-17	2.214391E-18
7.600000E+03	4.982807E-17	2.240305E-18
7.610000E+03	4.989247E-17	2.265746E-18
7.620000E+03	4.995620E-17	2.290474E-18
7.630000E+03	5.001813E-17	2.314224E-18
7.640000E+03	5.007827E-17	2.336863E-18
7.650000E+03	5.013781E-17	2.358395E-18
7.660000E+03	5.019549E-17	2.378776E-18
7.670000E+03	5.025246E-17	2.398137E-18
7.680000E+03	5.030615E-17	2.416470E-18
7.690000E+03	5.035888E-17	2.434036E-18
7.700000E+03	5.041051E-17	2.450990E-18
7.710000E+03	5.045966E-17	2.467436E-18
7.720000E+03	5.050739E-17	2.483594E-18
7.730000E+03	5.055229E-17	2.499553E-18
7.740000E+03	5.059417E-17	2.515452E-18
7.750000E+03	5.063410E-17	2.531478E-18
7.760000E+03	5.067189E-17	2.547737E-18
