#wls	flux	fluxerr
1.600000E+03	1.655595E-16	1.605729E-16
1.640000E+03	1.704633E-16	1.625799E-16
1.680000E+03	1.750644E-16	1.640842E-16
1.720000E+03	1.793287E-16	1.650644E-16
1.760000E+03	1.831482E-16	1.654360E-16
1.800000E+03	1.865162E-16	1.652122E-16
1.840000E+03	1.893205E-16	1.643165E-16
1.880000E+03	1.915334E-16	1.627534E-16
1.920000E+03	1.930929E-16	1.605023E-16
1.960000E+03	1.939091E-16	1.575260E-16
2.000000E+03	1.939600E-16	1.538495E-16
2.040000E+03	1.931835E-16	1.494705E-16
2.080000E+03	1.915301E-16	1.444021E-16
2.120000E+03	1.889648E-16	1.386745E-16
2.160000E+03	1.854465E-16	1.323175E-16
2.200000E+03	1.809152E-16	1.253533E-16
2.240000E+03	1.753207E-16	1.178171E-16
2.280000E+03	1.686907E-16	1.098006E-16
2.320000E+03	1.611613E-16	1.014629E-16
2.360000E+03	1.529658E-16	9.301140E-17
2.400000E+03	1.442900E-16	8.460626E-17
2.440000E+03	1.353015E-16	7.638141E-17
2.480000E+03	1.261214E-16	6.843052E-17
2.520000E+03	1.168757E-16	6.083877E-17
2.560000E+03	1.076660E-16	5.366726E-17
2.600000E+03	9.859658E-17	4.696850E-17
2.640000E+03	8.975098E-17	4.077523E-17
2.680000E+03	8.120666E-17	3.510910E-17
2.720000E+03	7.303300E-17	2.998046E-17
2.760000E+03	6.528328E-17	2.538623E-17
2.800000E+03	5.800336E-17	2.131497E-17
2.840000E+03	5.122809E-17	1.774662E-17
2.880000E+03	4.498468E-17	1.465500E-17
2.920000E+03	3.929159E-17	1.200862E-17
2.960000E+03	3.415544E-17	9.770950E-18
3.000000E+03	2.957148E-17	7.902100E-18
3.010000E+03	2.850996E-17	7.487588E-18
3.020000E+03	2.748097E-17	7.092680E-18
3.030000E+03	2.648515E-17	6.716983E-18
3.040000E+03	2.552064E-17	6.359475E-18
3.050000E+03	2.458795E-17	6.019748E-18
3.060000E+03	2.368635E-17	5.697096E-18
3.070000E+03	2.281560E-17	5.390944E-18
3.080000E+03	2.197401E-17	5.100387E-18
3.090000E+03	2.116226E-17	4.825095E-18
3.100000E+03	2.037869E-17	4.564208E-18
3.110000E+03	1.962341E-17	4.317288E-18
3.120000E+03	1.889564E-17	4.083705E-18
3.130000E+03	1.819425E-17	3.862777E-18
3.140000E+03	1.751923E-17	3.654073E-18
3.150000E+03	1.686949E-17	3.456949E-18
3.160000E+03	1.624460E-17	3.270919E-18
3.170000E+03	1.564382E-17	3.095447E-18
3.180000E+03	1.506644E-17	2.930016E-18
3.190000E+03	1.451200E-17	2.774179E-18
3.200000E+03	1.397979E-17	2.627450E-18
3.210000E+03	1.346889E-17	2.489322E-18
3.220000E+03	1.297909E-17	2.359438E-18
3.230000E+03	1.250954E-17	2.237325E-18
3.240000E+03	1.205980E-17	2.122610E-18
3.250000E+03	1.162925E-17	2.014895E-18
3.260000E+03	1.121711E-17	1.913767E-18
3.270000E+03	1.082313E-17	1.818923E-18
3.280000E+03	1.044636E-17	1.729952E-18
3.290000E+03	1.008655E-17	1.646572E-18
3.300000E+03	9.743077E-18	1.568454E-18
3.310000E+03	9.415072E-18	1.495240E-18
3.320000E+03	9.102250E-18	1.426681E-18
3.330000E+03	8.804032E-18	1.362493E-18
3.340000E+03	8.519729E-18	1.302386E-18
3.350000E+03	8.248807E-18	1.246108E-18
3.360000E+03	7.990745E-18	1.193417E-18
3.370000E+03	7.745034E-18	1.144089E-18
3.380000E+03	7.511180E-18	1.097908E-18
3.390000E+03	7.288701E-18	1.054673E-18
3.400000E+03	7.077039E-18	1.014181E-18
3.410000E+03	6.875665E-18	9.762451E-19
3.420000E+03	6.684334E-18	9.407244E-19
3.430000E+03	6.502377E-18	9.074291E-19
3.440000E+03	6.329492E-18	8.762286E-19
3.450000E+03	6.165229E-18	8.469792E-19
3.460000E+03	6.009234E-18	8.195573E-19
3.470000E+03	5.861026E-18	7.938290E-19
3.480000E+03	5.720227E-18	7.696805E-19
3.490000E+03	5.586543E-18	7.470147E-19
3.500000E+03	5.459570E-18	7.257248E-19
3.510000E+03	5.339048E-18	7.057286E-19
3.520000E+03	5.224500E-18	6.869189E-19
3.530000E+03	5.115713E-18	6.692279E-19
3.540000E+03	5.012317E-18	6.525709E-19
3.550000E+03	4.914026E-18	6.368776E-19
3.560000E+03	4.820572E-18	6.220829E-19
3.570000E+03	4.731605E-18	6.081148E-19
3.580000E+03	4.646992E-18	5.949311E-19
3.590000E+03	4.566468E-18	5.824747E-19
3.600000E+03	4.489782E-18	5.706932E-19
3.610000E+03	4.416832E-18	5.595543E-19
3.620000E+03	4.347350E-18	5.490063E-19
3.630000E+03	4.281168E-18	5.390117E-19
3.640000E+03	4.218127E-18	5.295357E-19
3.650000E+03	4.158078E-18	5.205454E-19
3.660000E+03	4.100879E-18	5.120103E-19
3.670000E+03	4.046398E-18	5.039017E-19
3.680000E+03	3.994541E-18	4.961972E-19
3.690000E+03	3.945222E-18	4.888754E-19
3.700000E+03	3.898319E-18	4.819122E-19
3.710000E+03	3.853853E-18	4.753011E-19
3.720000E+03	3.811672E-18	4.690155E-19
3.730000E+03	3.771761E-18	4.630462E-19
3.740000E+03	3.734039E-18	4.573765E-19
3.750000E+03	3.698456E-18	4.519941E-19
3.760000E+03	3.665026E-18	4.468951E-19
3.770000E+03	3.633602E-18	4.420568E-19
3.780000E+03	3.604198E-18	4.374761E-19
3.790000E+03	3.576790E-18	4.331465E-19
3.800000E+03	3.551267E-18	4.290510E-19
3.810000E+03	3.527638E-18	4.251876E-19
3.820000E+03	3.505879E-18	4.215508E-19
3.830000E+03	3.485908E-18	4.181288E-19
3.840000E+03	3.467677E-18	4.149137E-19
3.850000E+03	3.451219E-18	4.119080E-19
3.860000E+03	3.436426E-18	4.090977E-19
3.870000E+03	3.423306E-18	4.064826E-19
3.880000E+03	3.411807E-18	4.040559E-19
3.890000E+03	3.401910E-18	4.018145E-19
3.900000E+03	3.393592E-18	3.997555E-19
3.910000E+03	3.386780E-18	3.978697E-19
3.920000E+03	3.381454E-18	3.961547E-19
3.930000E+03	3.377622E-18	3.946110E-19
3.940000E+03	3.375238E-18	3.932333E-19
3.950000E+03	3.374257E-18	3.920160E-19
3.960000E+03	3.374662E-18	3.909571E-19
3.970000E+03	3.376409E-18	3.900512E-19
3.980000E+03	3.379482E-18	3.892962E-19
3.990000E+03	3.383866E-18	3.886897E-19
4.000000E+03	3.389545E-18	3.882296E-19
4.010000E+03	3.396452E-18	3.879076E-19
4.020000E+03	3.404576E-18	3.877214E-19
4.030000E+03	3.413904E-18	3.876688E-19
4.040000E+03	3.424426E-18	3.877475E-19
4.050000E+03	3.436104E-18	3.879524E-19
4.060000E+03	3.448905E-18	3.882780E-19
4.070000E+03	3.462820E-18	3.887221E-19
4.080000E+03	3.477816E-18	3.892794E-19
4.090000E+03	3.493886E-18	3.899473E-19
4.100000E+03	3.510997E-18	3.907206E-19
4.110000E+03	3.529143E-18	3.915965E-19
4.120000E+03	3.548293E-18	3.925697E-19
4.130000E+03	3.568414E-18	3.936343E-19
4.140000E+03	3.589502E-18	3.947877E-19
4.150000E+03	3.611525E-18	3.960240E-19
4.160000E+03	3.634480E-18	3.973402E-19
4.170000E+03	3.658310E-18	3.987273E-19
4.180000E+03	3.683012E-18	4.001822E-19
4.190000E+03	3.708529E-18	4.016957E-19
4.200000E+03	3.734888E-18	4.032679E-19
4.210000E+03	3.762032E-18	4.048896E-19
4.220000E+03	3.789961E-18	4.065581E-19
4.230000E+03	3.818587E-18	4.082612E-19
4.240000E+03	3.847939E-18	4.099994E-19
4.250000E+03	3.877926E-18	4.117610E-19
4.260000E+03	3.908579E-18	4.135468E-19
4.270000E+03	3.939806E-18	4.153452E-19
4.280000E+03	3.971543E-18	4.171480E-19
4.290000E+03	4.003820E-18	4.189565E-19
4.300000E+03	4.036512E-18	4.207564E-19
4.310000E+03	4.069647E-18	4.225494E-19
4.320000E+03	4.103100E-18	4.243212E-19
4.330000E+03	4.136899E-18	4.260739E-19
4.340000E+03	4.170981E-18	4.277997E-19
4.350000E+03	4.205278E-18	4.294906E-19
4.360000E+03	4.239791E-18	4.311455E-19
4.370000E+03	4.274484E-18	4.327597E-19
4.380000E+03	4.309392E-18	4.343351E-19
4.390000E+03	4.344446E-18	4.358636E-19
4.400000E+03	4.379717E-18	4.373505E-19
4.410000E+03	4.415208E-18	4.387944E-19
4.420000E+03	4.450922E-18	4.401940E-19
4.430000E+03	4.486864E-18	4.415480E-19
4.440000E+03	4.523077E-18	4.428590E-19
4.450000E+03	4.559531E-18	4.441226E-19
4.460000E+03	4.596273E-18	4.453419E-19
4.470000E+03	4.633313E-18	4.465169E-19
4.480000E+03	4.670661E-18	4.476479E-19
4.490000E+03	4.708292E-18	4.487323E-19
4.500000E+03	4.746215E-18	4.497716E-19
4.510000E+03	4.784403E-18	4.507646E-19
4.520000E+03	4.822907E-18	4.517182E-19
4.530000E+03	4.861656E-18	4.526288E-19
4.540000E+03	4.900661E-18	4.535014E-19
4.550000E+03	4.939932E-18	4.543418E-19
4.560000E+03	4.979395E-18	4.551489E-19
4.570000E+03	5.019104E-18	4.559341E-19
4.580000E+03	5.058984E-18	4.566976E-19
4.590000E+03	5.099049E-18	4.574478E-19
4.600000E+03	5.139226E-18	4.581854E-19
4.610000E+03	5.179573E-18	4.589228E-19
4.620000E+03	5.220065E-18	4.596642E-19
4.630000E+03	5.260631E-18	4.604091E-19
4.640000E+03	5.301293E-18	4.611638E-19
4.650000E+03	5.342074E-18	4.619338E-19
4.660000E+03	5.382955E-18	4.627194E-19
4.670000E+03	5.423868E-18	4.635152E-19
4.680000E+03	5.464940E-18	4.643313E-19
4.690000E+03	5.506207E-18	4.651687E-19
4.700000E+03	5.547607E-18	4.660190E-19
4.710000E+03	5.589181E-18	4.668816E-19
4.720000E+03	5.630971E-18	4.677553E-19
4.730000E+03	5.672870E-18	4.686259E-19
4.740000E+03	5.714924E-18	4.694915E-19
4.750000E+03	5.757076E-18	4.703419E-19
4.760000E+03	5.799375E-18	4.711755E-19
4.770000E+03	5.841821E-18	4.719867E-19
4.780000E+03	5.884360E-18	4.727666E-19
4.790000E+03	5.927047E-18	4.735155E-19
4.800000E+03	5.969829E-18	4.742260E-19
4.810000E+03	6.012766E-18	4.749007E-19
4.820000E+03	6.055806E-18	4.755345E-19
4.830000E+03	6.098953E-18	4.761282E-19
4.840000E+03	6.142213E-18	4.766840E-19
4.850000E+03	6.185648E-18	4.772098E-19
4.860000E+03	6.229206E-18	4.777062E-19
4.870000E+03	6.272892E-18	4.781795E-19
4.880000E+03	6.316649E-18	4.786325E-19
4.890000E+03	6.360599E-18	4.790822E-19
4.900000E+03	6.404683E-18	4.795326E-19
4.910000E+03	6.448901E-18	4.799919E-19
4.920000E+03	6.493189E-18	4.804638E-19
4.930000E+03	6.537603E-18	4.809595E-19
4.940000E+03	6.582074E-18	4.814806E-19
4.950000E+03	6.626595E-18	4.820314E-19
4.960000E+03	6.671218E-18	4.826196E-19
4.970000E+03	6.715871E-18	4.832421E-19
4.980000E+03	6.760542E-18	4.838991E-19
4.990000E+03	6.805152E-18	4.845849E-19
5.000000E+03	6.849752E-18	4.853018E-19
5.010000E+03	6.894326E-18	4.860465E-19
5.020000E+03	6.938787E-18	4.868098E-19
5.030000E+03	6.983115E-18	4.875867E-19
5.040000E+03	7.027287E-18	4.883714E-19
5.050000E+03	7.071208E-18	4.891533E-19
5.060000E+03	7.114921E-18	4.899314E-19
5.070000E+03	7.158398E-18	4.907003E-19
5.080000E+03	7.201476E-18	4.914461E-19
5.090000E+03	7.244197E-18	4.921697E-19
5.100000E+03	7.286536E-18	4.928683E-19
5.110000E+03	7.328399E-18	4.935354E-19
5.120000E+03	7.369764E-18	4.941702E-19
5.130000E+03	7.410612E-18	4.947729E-19
5.140000E+03	7.450924E-18	4.953450E-19
5.150000E+03	7.490609E-18	4.958842E-19
5.160000E+03	7.529722E-18	4.964000E-19
5.170000E+03	7.568095E-18	4.968893E-19
5.180000E+03	7.605780E-18	4.973664E-19
5.190000E+03	7.642676E-18	4.978386E-19
5.200000E+03	7.678750E-18	4.983216E-19
5.210000E+03	7.713966E-18	4.988337E-19
5.220000E+03	7.748283E-18	4.993957E-19
5.230000E+03	7.781499E-18	5.000207E-19
5.240000E+03	7.813710E-18	5.007421E-19
5.250000E+03	7.844779E-18	5.015788E-19
5.260000E+03	7.874635E-18	5.025542E-19
5.270000E+03	7.903128E-18	5.036857E-19
5.280000E+03	7.930179E-18	5.049941E-19
5.290000E+03	7.955708E-18	5.064991E-19
5.300000E+03	7.979636E-18	5.082190E-19
5.310000E+03	8.001885E-18	5.101709E-19
5.320000E+03	8.022305E-18	5.123654E-19
5.330000E+03	8.040988E-18	5.148271E-19
5.340000E+03	8.057718E-18	5.175591E-19
5.350000E+03	8.072445E-18	5.205727E-19
5.360000E+03	8.085285E-18	5.238879E-19
5.370000E+03	8.096046E-18	5.275019E-19
5.380000E+03	8.104861E-18	5.314305E-19
5.390000E+03	8.111633E-18	5.356712E-19
5.400000E+03	8.116429E-18	5.402293E-19
5.410000E+03	8.119167E-18	5.450968E-19
5.420000E+03	8.120009E-18	5.502796E-19
5.430000E+03	8.118889E-18	5.557648E-19
5.440000E+03	8.115905E-18	5.615486E-19
5.450000E+03	8.110925E-18	5.676081E-19
5.460000E+03	8.104065E-18	5.739353E-19
5.470000E+03	8.095289E-18	5.805091E-19
5.480000E+03	8.084566E-18	5.873060E-19
5.490000E+03	8.072040E-18	5.943126E-19
5.500000E+03	8.057613E-18	6.014960E-19
5.510000E+03	8.041278E-18	6.088276E-19
5.520000E+03	8.023113E-18	6.162838E-19
5.530000E+03	8.003042E-18	6.238279E-19
5.540000E+03	7.981232E-18	6.314418E-19
5.550000E+03	7.957531E-18	6.390822E-19
5.560000E+03	7.932192E-18	6.467379E-19
5.570000E+03	7.905229E-18	6.543791E-19
5.580000E+03	7.876653E-18	6.619767E-19
5.590000E+03	7.846558E-18	6.695088E-19
5.600000E+03	7.815034E-18	6.769552E-19
5.610000E+03	7.782090E-18	6.842897E-19
5.620000E+03	7.747970E-18	6.915093E-19
5.630000E+03	7.712597E-18	6.985847E-19
5.640000E+03	7.676208E-18	7.055172E-19
5.650000E+03	7.638718E-18	7.122819E-19
5.660000E+03	7.600355E-18	7.188854E-19
5.670000E+03	7.561187E-18	7.253220E-19
5.680000E+03	7.521199E-18	7.315813E-19
5.690000E+03	7.480529E-18	7.376699E-19
5.700000E+03	7.439235E-18	7.435887E-19
5.710000E+03	7.397450E-18	7.493484E-19
5.720000E+03	7.355228E-18	7.549531E-19
5.730000E+03	7.312542E-18	7.603996E-19
5.740000E+03	7.269598E-18	7.657091E-19
5.750000E+03	7.226444E-18	7.708869E-19
5.760000E+03	7.183054E-18	7.759295E-19
5.770000E+03	7.139555E-18	7.808490E-19
5.780000E+03	7.096072E-18	7.856568E-19
5.790000E+03	7.052656E-18	7.903551E-19
5.800000E+03	7.009283E-18	7.949363E-19
5.810000E+03	6.966084E-18	7.994087E-19
5.820000E+03	6.923188E-18	8.037800E-19
5.830000E+03	6.880652E-18	8.080487E-19
5.840000E+03	6.838460E-18	8.122038E-19
5.850000E+03	6.796746E-18	8.162511E-19
5.860000E+03	6.755572E-18	8.201878E-19
5.870000E+03	6.715077E-18	8.240198E-19
5.880000E+03	6.675323E-18	8.277442E-19
5.890000E+03	6.636302E-18	8.313490E-19
5.900000E+03	6.598150E-18	8.348409E-19
5.910000E+03	6.560856E-18	8.382086E-19
5.920000E+03	6.524699E-18	8.414786E-19
5.930000E+03	6.489513E-18	8.446220E-19
5.940000E+03	6.455423E-18	8.476480E-19
5.950000E+03	6.422547E-18	8.505666E-19
5.960000E+03	6.390855E-18	8.533694E-19
5.970000E+03	6.360384E-18	8.560579E-19
5.980000E+03	6.331239E-18	8.586441E-19
5.990000E+03	6.303377E-18	8.611209E-19
6.000000E+03	6.276894E-18	8.635013E-19
6.010000E+03	6.251668E-18	8.657688E-19
6.020000E+03	6.227861E-18	8.679470E-19
6.030000E+03	6.205343E-18	8.700197E-19
6.040000E+03	6.184270E-18	8.720112E-19
6.050000E+03	6.164435E-18	8.738950E-19
6.060000E+03	6.145987E-18	8.756957E-19
6.070000E+03	6.128860E-18	8.774073E-19
6.080000E+03	6.113054E-18	8.790338E-19
6.090000E+03	6.098421E-18	8.805583E-19
6.100000E+03	6.085107E-18	8.820057E-19
6.110000E+03	6.072885E-18	8.833478E-19
6.120000E+03	6.061894E-18	8.846096E-19
6.130000E+03	6.051906E-18	8.857621E-19
6.140000E+03	6.042907E-18	8.868080E-19
6.150000E+03	6.034809E-18	8.877393E-19
6.160000E+03	6.027595E-18	8.885580E-19
6.170000E+03	6.021023E-18	8.892332E-19
6.180000E+03	6.015070E-18	8.897662E-19
6.190000E+03	6.009635E-18	8.901469E-19
6.200000E+03	6.004690E-18	8.903761E-19
6.210000E+03	6.000207E-18	8.904542E-19
6.220000E+03	5.996308E-18	8.904045E-19
6.230000E+03	5.993194E-18	8.902620E-19
6.240000E+03	5.990916E-18	8.900392E-19
6.250000E+03	5.989604E-18	8.897604E-19
6.260000E+03	5.989391E-18	8.894502E-19
6.270000E+03	5.990334E-18	8.891220E-19
6.280000E+03	5.992572E-18	8.888009E-19
6.290000E+03	5.996168E-18	8.885007E-19
6.300000E+03	6.001189E-18	8.882355E-19
6.310000E+03	6.007785E-18	8.880315E-19
6.320000E+03	6.015948E-18	8.878909E-19
6.330000E+03	6.025836E-18	8.878406E-19
6.340000E+03	6.037364E-18	8.878710E-19
6.350000E+03	6.050611E-18	8.879967E-19
6.360000E+03	6.065578E-18	8.882202E-19
6.370000E+03	6.082352E-18	8.885566E-19
6.380000E+03	6.100849E-18	8.889958E-19
6.390000E+03	6.121074E-18	8.895402E-19
6.400000E+03	6.142942E-18	8.901792E-19
6.410000E+03	6.166277E-18	8.908889E-19
6.420000E+03	6.190987E-18	8.916578E-19
6.430000E+03	6.217070E-18	8.924869E-19
6.440000E+03	6.244522E-18	8.933772E-19
6.450000E+03	6.273341E-18	8.943298E-19
6.460000E+03	6.303619E-18	8.953589E-19
6.470000E+03	6.335455E-18	8.964793E-19
6.480000E+03	6.368853E-18	8.976922E-19
6.490000E+03	6.403724E-18	8.989854E-19
6.500000E+03	6.440269E-18	9.003875E-19
6.510000E+03	6.478500E-18	9.019001E-19
6.520000E+03	6.518328E-18	9.035106E-19
6.530000E+03	6.559866E-18	9.052345E-19
6.540000E+03	6.603127E-18	9.070731E-19
6.550000E+03	6.648024E-18	9.090135E-19
6.560000E+03	6.694567E-18	9.110568E-19
6.570000E+03	6.742986E-18	9.132332E-19
6.580000E+03	6.792975E-18	9.155002E-19
6.590000E+03	6.844765E-18	9.178880E-19
6.600000E+03	6.898377E-18	9.203979E-19
6.610000E+03	6.953603E-18	9.230010E-19
6.620000E+03	7.010685E-18	9.257281E-19
6.630000E+03	7.069412E-18	9.285497E-19
6.640000E+03	7.130033E-18	9.314968E-19
6.650000E+03	7.192331E-18	9.345395E-19
6.660000E+03	7.256441E-18	9.376935E-19
6.670000E+03	7.322383E-18	9.409595E-19
6.680000E+03	7.390050E-18	9.443218E-19
6.690000E+03	7.459459E-18	9.477806E-19
6.700000E+03	7.530753E-18	9.513521E-19
6.710000E+03	7.603824E-18	9.550205E-19
6.720000E+03	7.678690E-18	9.587856E-19
6.730000E+03	7.755368E-18	9.626475E-19
6.740000E+03	7.833878E-18	9.666062E-19
6.750000E+03	7.914239E-18	9.706616E-19
6.760000E+03	7.996471E-18	9.748137E-19
6.770000E+03	8.080453E-18	9.790450E-19
6.780000E+03	8.166345E-18	9.833723E-19
6.790000E+03	8.254169E-18	9.877954E-19
6.800000E+03	8.343799E-18	9.922962E-19
6.810000E+03	8.435402E-18	9.968917E-19
6.820000E+03	8.528847E-18	1.001563E-18
6.830000E+03	8.624153E-18	1.006310E-18
6.840000E+03	8.721337E-18	1.011131E-18
6.850000E+03	8.820415E-18	1.016025E-18
6.860000E+03	8.921570E-18	1.021009E-18
6.870000E+03	9.024496E-18	1.026045E-18
6.880000E+03	9.129371E-18	1.031151E-18
6.890000E+03	9.236216E-18	1.036325E-18
6.900000E+03	9.344876E-18	1.041546E-18
6.910000E+03	9.455540E-18	1.046834E-18
6.920000E+03	9.568226E-18	1.052185E-18
6.930000E+03	9.682773E-18	1.057580E-18
6.940000E+03	9.799191E-18	1.063017E-18
6.950000E+03	9.917679E-18	1.068515E-18
6.960000E+03	1.003806E-17	1.074051E-18
6.970000E+03	1.016036E-17	1.079625E-18
6.980000E+03	1.028456E-17	1.085234E-18
6.990000E+03	1.041069E-17	1.090878E-18
7.000000E+03	1.053854E-17	1.096532E-18
7.010000E+03	1.066854E-17	1.102238E-18
7.020000E+03	1.080026E-17	1.107951E-18
7.030000E+03	1.093393E-17	1.113691E-18
7.040000E+03	1.106933E-17	1.119434E-18
7.050000E+03	1.120646E-17	1.125177E-18
7.060000E+03	1.134553E-17	1.130941E-18
7.070000E+03	1.148632E-17	1.136701E-18
7.080000E+03	1.162859E-17	1.142431E-18
7.090000E+03	1.177279E-17	1.148174E-18
7.100000E+03	1.191868E-17	1.153905E-18
7.110000E+03	1.206601E-17	1.159597E-18
7.120000E+03	1.221501E-17	1.165270E-18
7.130000E+03	1.236541E-17	1.170897E-18
7.140000E+03	1.251743E-17	1.176498E-18
7.150000E+03	1.267081E-17	1.182046E-18
7.160000E+03	1.282579E-17	1.187561E-18
7.170000E+03	1.298180E-17	1.192991E-18
7.180000E+03	1.313908E-17	1.198356E-18
7.190000E+03	1.329787E-17	1.203678E-18
7.200000E+03	1.345760E-17	1.208904E-18
7.210000E+03	1.361821E-17	1.214031E-18
7.220000E+03	1.377995E-17	1.219082E-18
7.230000E+03	1.394278E-17	1.224056E-18
7.240000E+03	1.410637E-17	1.228924E-18
7.250000E+03	1.427096E-17	1.233714E-18
7.260000E+03	1.443621E-17	1.238400E-18
7.270000E+03	1.460204E-17	1.242982E-18
7.280000E+03	1.476871E-17	1.247491E-18
7.290000E+03	1.493584E-17	1.251903E-18
7.300000E+03	1.510368E-17	1.256251E-18
7.310000E+03	1.527185E-17	1.260515E-18
7.320000E+03	1.544024E-17	1.264701E-18
7.330000E+03	1.560947E-17	1.268876E-18
7.340000E+03	1.577879E-17	1.272996E-18
7.350000E+03	1.594880E-17	1.277131E-18
7.360000E+03	1.611911E-17	1.281271E-18
7.370000E+03	1.629000E-17	1.285461E-18
7.380000E+03	1.646180E-17	1.289754E-18
7.390000E+03	1.663409E-17	1.294145E-18
7.400000E+03	1.680761E-17	1.298718E-18
7.410000E+03	1.698235E-17	1.303506E-18
7.420000E+03	1.715869E-17	1.308568E-18
7.430000E+03	1.733667E-17	1.313941E-18
7.440000E+03	1.751630E-17	1.319661E-18
7.450000E+03	1.769803E-17	1.325794E-18
7.460000E+03	1.788108E-17	1.332315E-18
7.470000E+03	1.806547E-17	1.339259E-18
7.480000E+03	1.825081E-17	1.346625E-18
7.490000E+03	1.843753E-17	1.354470E-18
7.500000E+03	1.862523E-17	1.362777E-18
7.510000E+03	1.881350E-17	1.371521E-18
7.520000E+03	1.900235E-17	1.380691E-18
7.530000E+03	1.919179E-17	1.390260E-18
7.540000E+03	1.938138E-17	1.400153E-18
7.550000E+03	1.957160E-17	1.410352E-18
7.560000E+03	1.976155E-17	1.420731E-18
7.570000E+03	1.995217E-17	1.431292E-18
7.580000E+03	2.014302E-17	1.441935E-18
7.590000E+03	2.033412E-17	1.452591E-18
7.600000E+03	2.052497E-17	1.463162E-18
7.610000E+03	2.071606E-17	1.473622E-18
7.620000E+03	2.090737E-17	1.483917E-18
7.630000E+03	2.109886E-17	1.494002E-18
7.640000E+03	2.128995E-17	1.503805E-18
7.650000E+03	2.148106E-17	1.513334E-18
7.660000E+03	2.167157E-17	1.522533E-18
7.670000E+03	2.186242E-17	1.531469E-18
7.680000E+03	2.205183E-17	1.540021E-18
7.690000E+03	2.224129E-17	1.548309E-18
7.700000E+03	2.243006E-17	1.556299E-18
7.710000E+03	2.261740E-17	1.563960E-18
7.720000E+03	2.280365E-17	1.571342E-18
7.730000E+03	2.298860E-17	1.578456E-18
7.740000E+03	2.317203E-17	1.585314E-18
7.750000E+03	2.335370E-17	1.591925E-18
7.760000E+03	2.353397E-17	1.598341E-18
