#wls	flux	fluxerr
1.600000E+03	1.575235E-16	1.526422E-16
1.640000E+03	1.622938E-16	1.546533E-16
1.680000E+03	1.668010E-16	1.562070E-16
1.720000E+03	1.710151E-16	1.572839E-16
1.760000E+03	1.748358E-16	1.578042E-16
1.800000E+03	1.782588E-16	1.577808E-16
1.840000E+03	1.811792E-16	1.571404E-16
1.880000E+03	1.835720E-16	1.558865E-16
1.920000E+03	1.853792E-16	1.539978E-16
1.960000E+03	1.865152E-16	1.514366E-16
2.000000E+03	1.869583E-16	1.482235E-16
2.040000E+03	1.866476E-16	1.443523E-16
2.080000E+03	1.855327E-16	1.398305E-16
2.120000E+03	1.835757E-16	1.346810E-16
2.160000E+03	1.807308E-16	1.289254E-16
2.200000E+03	1.769318E-16	1.225767E-16
2.240000E+03	1.721188E-16	1.156589E-16
2.280000E+03	1.663059E-16	1.082508E-16
2.320000E+03	1.596117E-16	1.004977E-16
2.360000E+03	1.522515E-16	9.259392E-17
2.400000E+03	1.443945E-16	8.468952E-17
2.440000E+03	1.361937E-16	7.691063E-17
2.480000E+03	1.277563E-16	6.934530E-17
2.520000E+03	1.191960E-16	6.207512E-17
2.560000E+03	1.106033E-16	5.515954E-17
2.600000E+03	1.020735E-16	4.865149E-17
2.640000E+03	9.368274E-17	4.258585E-17
2.680000E+03	8.550331E-17	3.698818E-17
2.720000E+03	7.760212E-17	3.187430E-17
2.760000E+03	7.003217E-17	2.724771E-17
2.800000E+03	6.284183E-17	2.310457E-17
2.840000E+03	5.607102E-17	1.943298E-17
2.880000E+03	4.975484E-17	1.621529E-17
2.920000E+03	4.392219E-17	1.342840E-17
2.960000E+03	3.859191E-17	1.104360E-17
3.000000E+03	3.377274E-17	9.027894E-18
3.010000E+03	3.264758E-17	8.577396E-18
3.020000E+03	3.155337E-17	8.146928E-18
3.030000E+03	3.049108E-17	7.736205E-18
3.040000E+03	2.945886E-17	7.344211E-18
3.050000E+03	2.845754E-17	6.970634E-18
3.060000E+03	2.748655E-17	6.614810E-18
3.070000E+03	2.654590E-17	6.276222E-18
3.080000E+03	2.563387E-17	5.953959E-18
3.090000E+03	2.475152E-17	5.647775E-18
3.100000E+03	2.389718E-17	5.356800E-18
3.110000E+03	2.307123E-17	5.080648E-18
3.120000E+03	2.227302E-17	4.818702E-18
3.130000E+03	2.150146E-17	4.570277E-18
3.140000E+03	2.075679E-17	4.334977E-18
3.150000E+03	2.003793E-17	4.112147E-18
3.160000E+03	1.934463E-17	3.901316E-18
3.170000E+03	1.867625E-17	3.701942E-18
3.180000E+03	1.803215E-17	3.513503E-18
3.190000E+03	1.741202E-17	3.335555E-18
3.200000E+03	1.681521E-17	3.167597E-18
3.210000E+03	1.624081E-17	3.009097E-18
3.220000E+03	1.568878E-17	2.859701E-18
3.230000E+03	1.515822E-17	2.718905E-18
3.240000E+03	1.464879E-17	2.586323E-18
3.250000E+03	1.415987E-17	2.461533E-18
3.260000E+03	1.369065E-17	2.344091E-18
3.270000E+03	1.324098E-17	2.233683E-18
3.280000E+03	1.280985E-17	2.129862E-18
3.290000E+03	1.239709E-17	2.032336E-18
3.300000E+03	1.200211E-17	1.940752E-18
3.310000E+03	1.162397E-17	1.854719E-18
3.320000E+03	1.126247E-17	1.773977E-18
3.330000E+03	1.091704E-17	1.698218E-18
3.340000E+03	1.058698E-17	1.627126E-18
3.350000E+03	1.027174E-17	1.560426E-18
3.360000E+03	9.970808E-18	1.497855E-18
3.370000E+03	9.683678E-18	1.439167E-18
3.380000E+03	9.409848E-18	1.384126E-18
3.390000E+03	9.148830E-18	1.332509E-18
3.400000E+03	8.900032E-18	1.284090E-18
3.410000E+03	8.662893E-18	1.238657E-18
3.420000E+03	8.437203E-18	1.196058E-18
3.430000E+03	8.222215E-18	1.156075E-18
3.440000E+03	8.017637E-18	1.118562E-18
3.450000E+03	7.822984E-18	1.083356E-18
3.460000E+03	7.637889E-18	1.050316E-18
3.470000E+03	7.461820E-18	1.019288E-18
3.480000E+03	7.294368E-18	9.901401E-19
3.490000E+03	7.135225E-18	9.627623E-19
3.500000E+03	6.983939E-18	9.370297E-19
3.510000E+03	6.840239E-18	9.128481E-19
3.520000E+03	6.703569E-18	8.900899E-19
3.530000E+03	6.573705E-18	8.686772E-19
3.540000E+03	6.450224E-18	8.485093E-19
3.550000E+03	6.332799E-18	8.295031E-19
3.560000E+03	6.221126E-18	8.115816E-19
3.570000E+03	6.114795E-18	7.946577E-19
3.580000E+03	6.013670E-18	7.786829E-19
3.590000E+03	5.917441E-18	7.635888E-19
3.600000E+03	5.825818E-18	7.493121E-19
3.610000E+03	5.738699E-18	7.358160E-19
3.620000E+03	5.655763E-18	7.230375E-19
3.630000E+03	5.576819E-18	7.109322E-19
3.640000E+03	5.501686E-18	6.994585E-19
3.650000E+03	5.430191E-18	6.885775E-19
3.660000E+03	5.362171E-18	6.782528E-19
3.670000E+03	5.297469E-18	6.684502E-19
3.680000E+03	5.235983E-18	6.591434E-19
3.690000E+03	5.177614E-18	6.503075E-19
3.700000E+03	5.122217E-18	6.419132E-19
3.710000E+03	5.069834E-18	6.339550E-19
3.720000E+03	5.020278E-18	6.264001E-19
3.730000E+03	4.973543E-18	6.192387E-19
3.740000E+03	4.929533E-18	6.124510E-19
3.750000E+03	4.888196E-18	6.060230E-19
3.760000E+03	4.849562E-18	5.999517E-19
3.770000E+03	4.813453E-18	5.942088E-19
3.780000E+03	4.779894E-18	5.887922E-19
3.790000E+03	4.748871E-18	5.836949E-19
3.800000E+03	4.720246E-18	5.788959E-19
3.810000E+03	4.694042E-18	5.743939E-19
3.820000E+03	4.670241E-18	5.701831E-19
3.830000E+03	4.648745E-18	5.662488E-19
3.840000E+03	4.629499E-18	5.625814E-19
3.850000E+03	4.612558E-18	5.591855E-19
3.860000E+03	4.597790E-18	5.560431E-19
3.870000E+03	4.585212E-18	5.531545E-19
3.880000E+03	4.574769E-18	5.505116E-19
3.890000E+03	4.566441E-18	5.481107E-19
3.900000E+03	4.560210E-18	5.459485E-19
3.910000E+03	4.555983E-18	5.440131E-19
3.920000E+03	4.553743E-18	5.423017E-19
3.930000E+03	4.553510E-18	5.408157E-19
3.940000E+03	4.555230E-18	5.395481E-19
3.950000E+03	4.558850E-18	5.384921E-19
3.960000E+03	4.564356E-18	5.376450E-19
3.970000E+03	4.571698E-18	5.370003E-19
3.980000E+03	4.580860E-18	5.365555E-19
3.990000E+03	4.591830E-18	5.363083E-19
4.000000E+03	4.604595E-18	5.362562E-19
4.010000E+03	4.619073E-18	5.363885E-19
4.020000E+03	4.635254E-18	5.367028E-19
4.030000E+03	4.653126E-18	5.371969E-19
4.040000E+03	4.672683E-18	5.378682E-19
4.050000E+03	4.693881E-18	5.387103E-19
4.060000E+03	4.716677E-18	5.397165E-19
4.070000E+03	4.741065E-18	5.408845E-19
4.080000E+03	4.767003E-18	5.422075E-19
4.090000E+03	4.794488E-18	5.436831E-19
4.100000E+03	4.823480E-18	5.453044E-19
4.110000E+03	4.853975E-18	5.470690E-19
4.120000E+03	4.885935E-18	5.489699E-19
4.130000E+03	4.919319E-18	5.510003E-19
4.140000E+03	4.954128E-18	5.531574E-19
4.150000E+03	4.990322E-18	5.554341E-19
4.160000E+03	5.027903E-18	5.578277E-19
4.170000E+03	5.066793E-18	5.603269E-19
4.180000E+03	5.106994E-18	5.629288E-19
4.190000E+03	5.148427E-18	5.656219E-19
4.200000E+03	5.191136E-18	5.684079E-19
4.210000E+03	5.235041E-18	5.712754E-19
4.220000E+03	5.280145E-18	5.742219E-19
4.230000E+03	5.326328E-18	5.772317E-19
4.240000E+03	5.373633E-18	5.803070E-19
4.250000E+03	5.421936E-18	5.834321E-19
4.260000E+03	5.471281E-18	5.866095E-19
4.270000E+03	5.521542E-18	5.898239E-19
4.280000E+03	5.572633E-18	5.930643E-19
4.290000E+03	5.624596E-18	5.963336E-19
4.300000E+03	5.677256E-18	5.996118E-19
4.310000E+03	5.730654E-18	6.029021E-19
4.320000E+03	5.784609E-18	6.061842E-19
4.330000E+03	5.839163E-18	6.094615E-19
4.340000E+03	5.894219E-18	6.127229E-19
4.350000E+03	5.949682E-18	6.159574E-19
4.360000E+03	6.005545E-18	6.191632E-19
4.370000E+03	6.061755E-18	6.223340E-19
4.380000E+03	6.118356E-18	6.254730E-19
4.390000E+03	6.175247E-18	6.285686E-19
4.400000E+03	6.232523E-18	6.316293E-19
4.410000E+03	6.290186E-18	6.346534E-19
4.420000E+03	6.348238E-18	6.376397E-19
4.430000E+03	6.406681E-18	6.405868E-19
4.440000E+03	6.465573E-18	6.434991E-19
4.450000E+03	6.524869E-18	6.463706E-19
4.460000E+03	6.584629E-18	6.492065E-19
4.470000E+03	6.644865E-18	6.520069E-19
4.480000E+03	6.705588E-18	6.547729E-19
4.490000E+03	6.766756E-18	6.575006E-19
4.500000E+03	6.828380E-18	6.601920E-19
4.510000E+03	6.890418E-18	6.628448E-19
4.520000E+03	6.952939E-18	6.654682E-19
4.530000E+03	7.015843E-18	6.680556E-19
4.540000E+03	7.079143E-18	6.706126E-19
4.550000E+03	7.142855E-18	6.731452E-19
4.560000E+03	7.206874E-18	6.756491E-19
4.570000E+03	7.271277E-18	6.781375E-19
4.580000E+03	7.335959E-18	6.806069E-19
4.590000E+03	7.400939E-18	6.830656E-19
4.600000E+03	7.466110E-18	6.855103E-19
4.610000E+03	7.531557E-18	6.879552E-19
4.620000E+03	7.597243E-18	6.904024E-19
4.630000E+03	7.663062E-18	6.928475E-19
4.640000E+03	7.729043E-18	6.952975E-19
4.650000E+03	7.795218E-18	6.977583E-19
4.660000E+03	7.861554E-18	7.002294E-19
4.670000E+03	7.927951E-18	7.027026E-19
4.680000E+03	7.994589E-18	7.051938E-19
4.690000E+03	8.061518E-18	7.077059E-19
4.700000E+03	8.128645E-18	7.102284E-19
4.710000E+03	8.196024E-18	7.127626E-19
4.720000E+03	8.263714E-18	7.153096E-19
4.730000E+03	8.331554E-18	7.178509E-19
4.740000E+03	8.399603E-18	7.203868E-19
4.750000E+03	8.467776E-18	7.229048E-19
4.760000E+03	8.536137E-18	7.254059E-19
4.770000E+03	8.604679E-18	7.278847E-19
4.780000E+03	8.673315E-18	7.303300E-19
4.790000E+03	8.742120E-18	7.327446E-19
4.800000E+03	8.811006E-18	7.351191E-19
4.810000E+03	8.880051E-18	7.374584E-19
4.820000E+03	8.949169E-18	7.397552E-19
4.830000E+03	9.018355E-18	7.420103E-19
4.840000E+03	9.087604E-18	7.442257E-19
4.850000E+03	9.156996E-18	7.464114E-19
4.860000E+03	9.226441E-18	7.485649E-19
4.870000E+03	9.295934E-18	7.506914E-19
4.880000E+03	9.365378E-18	7.527901E-19
4.890000E+03	9.434937E-18	7.548813E-19
4.900000E+03	9.504514E-18	7.569650E-19
4.910000E+03	9.574094E-18	7.590476E-19
4.920000E+03	9.643570E-18	7.611283E-19
4.930000E+03	9.713013E-18	7.632196E-19
4.940000E+03	9.782309E-18	7.653189E-19
4.950000E+03	9.851432E-18	7.674296E-19
4.960000E+03	9.920447E-18	7.695610E-19
4.970000E+03	9.989231E-18	7.717065E-19
4.980000E+03	1.005775E-17	7.738655E-19
4.990000E+03	1.012587E-17	7.760286E-19
5.000000E+03	1.019365E-17	7.781997E-19
5.010000E+03	1.026104E-17	7.803743E-19
5.020000E+03	1.032791E-17	7.825396E-19
5.030000E+03	1.039419E-17	7.846893E-19
5.040000E+03	1.045985E-17	7.868164E-19
5.050000E+03	1.052473E-17	7.889062E-19
5.060000E+03	1.058887E-17	7.909591E-19
5.070000E+03	1.065221E-17	7.929681E-19
5.080000E+03	1.071450E-17	7.949115E-19
5.090000E+03	1.077577E-17	7.967910E-19
5.100000E+03	1.083598E-17	7.986018E-19
5.110000E+03	1.089494E-17	8.003323E-19
5.120000E+03	1.095261E-17	8.019801E-19
5.130000E+03	1.100891E-17	8.035441E-19
5.140000E+03	1.106381E-17	8.050250E-19
5.150000E+03	1.111711E-17	8.064177E-19
5.160000E+03	1.116887E-17	8.077346E-19
5.170000E+03	1.121881E-17	8.089670E-19
5.180000E+03	1.126697E-17	8.101320E-19
5.190000E+03	1.131317E-17	8.112336E-19
5.200000E+03	1.135734E-17	8.122857E-19
5.210000E+03	1.139939E-17	8.133046E-19
5.220000E+03	1.143925E-17	8.143084E-19
5.230000E+03	1.147662E-17	8.153009E-19
5.240000E+03	1.151161E-17	8.163188E-19
5.250000E+03	1.154405E-17	8.173754E-19
5.260000E+03	1.157383E-17	8.184923E-19
5.270000E+03	1.160075E-17	8.196831E-19
5.280000E+03	1.162471E-17	8.209686E-19
5.290000E+03	1.164564E-17	8.223689E-19
5.300000E+03	1.166345E-17	8.239035E-19
5.310000E+03	1.167806E-17	8.255904E-19
5.320000E+03	1.168930E-17	8.274383E-19
5.330000E+03	1.169734E-17	8.294792E-19
5.340000E+03	1.170189E-17	8.317107E-19
5.350000E+03	1.170294E-17	8.341450E-19
5.360000E+03	1.170069E-17	8.368093E-19
5.370000E+03	1.169491E-17	8.396957E-19
5.380000E+03	1.168584E-17	8.428273E-19
5.390000E+03	1.167338E-17	8.462004E-19
5.400000E+03	1.165769E-17	8.498256E-19
5.410000E+03	1.163871E-17	8.536945E-19
5.420000E+03	1.161673E-17	8.578218E-19
5.430000E+03	1.159173E-17	8.621949E-19
5.440000E+03	1.156390E-17	8.668159E-19
5.450000E+03	1.153313E-17	8.716591E-19
5.460000E+03	1.149964E-17	8.767229E-19
5.470000E+03	1.146347E-17	8.819863E-19
5.480000E+03	1.142463E-17	8.874267E-19
5.490000E+03	1.138339E-17	8.930377E-19
5.500000E+03	1.133969E-17	8.987849E-19
5.510000E+03	1.129359E-17	9.046418E-19
5.520000E+03	1.124526E-17	9.105899E-19
5.530000E+03	1.119467E-17	9.165922E-19
5.540000E+03	1.114210E-17	9.226389E-19
5.550000E+03	1.108743E-17	9.286835E-19
5.560000E+03	1.103107E-17	9.347262E-19
5.570000E+03	1.097309E-17	9.407405E-19
5.580000E+03	1.091359E-17	9.467002E-19
5.590000E+03	1.085274E-17	9.525903E-19
5.600000E+03	1.079074E-17	9.583972E-19
5.610000E+03	1.072765E-17	9.640992E-19
5.620000E+03	1.066387E-17	9.697059E-19
5.630000E+03	1.059934E-17	9.751898E-19
5.640000E+03	1.053444E-17	9.805650E-19
5.650000E+03	1.046911E-17	9.858081E-19
5.660000E+03	1.040370E-17	9.909377E-19
5.670000E+03	1.033834E-17	9.959550E-19
5.680000E+03	1.027306E-17	1.000852E-18
5.690000E+03	1.020808E-17	1.005645E-18
5.700000E+03	1.014351E-17	1.010338E-18
5.710000E+03	1.007956E-17	1.014950E-18
5.720000E+03	1.001632E-17	1.019490E-18
5.730000E+03	9.953777E-18	1.023955E-18
5.740000E+03	9.892224E-18	1.028376E-18
5.750000E+03	9.831738E-18	1.032762E-18
5.760000E+03	9.772287E-18	1.037110E-18
5.770000E+03	9.714043E-18	1.041440E-18
5.780000E+03	9.657173E-18	1.045768E-18
5.790000E+03	9.601739E-18	1.050102E-18
5.800000E+03	9.547696E-18	1.054435E-18
5.810000E+03	9.495202E-18	1.058782E-18
5.820000E+03	9.444414E-18	1.063155E-18
5.830000E+03	9.395382E-18	1.067558E-18
5.840000E+03	9.348055E-18	1.071978E-18
5.850000E+03	9.302583E-18	1.076427E-18
5.860000E+03	9.259014E-18	1.080904E-18
5.870000E+03	9.217494E-18	1.085418E-18
5.880000E+03	9.178067E-18	1.089967E-18
5.890000E+03	9.140671E-18	1.094536E-18
5.900000E+03	9.105446E-18	1.099134E-18
5.910000E+03	9.072327E-18	1.103747E-18
5.920000E+03	9.041649E-18	1.108407E-18
5.930000E+03	9.013135E-18	1.113075E-18
5.940000E+03	8.986911E-18	1.117760E-18
5.950000E+03	8.963096E-18	1.122472E-18
5.960000E+03	8.941603E-18	1.127197E-18
5.970000E+03	8.922443E-18	1.131931E-18
5.980000E+03	8.905723E-18	1.136686E-18
5.990000E+03	8.891340E-18	1.141447E-18
6.000000E+03	8.879394E-18	1.146226E-18
6.010000E+03	8.869672E-18	1.150995E-18
6.020000E+03	8.862367E-18	1.155779E-18
6.030000E+03	8.857258E-18	1.160551E-18
6.040000E+03	8.854531E-18	1.165336E-18
6.050000E+03	8.853854E-18	1.170092E-18
6.060000E+03	8.855408E-18	1.174846E-18
6.070000E+03	8.859058E-18	1.179583E-18
6.080000E+03	8.864775E-18	1.184301E-18
6.090000E+03	8.872309E-18	1.188971E-18
6.100000E+03	8.881837E-18	1.193619E-18
6.110000E+03	8.892996E-18	1.198200E-18
6.120000E+03	8.905957E-18	1.202742E-18
6.130000E+03	8.920351E-18	1.207198E-18
6.140000E+03	8.936126E-18	1.211565E-18
6.150000E+03	8.953118E-18	1.215825E-18
6.160000E+03	8.971271E-18	1.219973E-18
6.170000E+03	8.990191E-18	1.223961E-18
6.180000E+03	9.009811E-18	1.227784E-18
6.190000E+03	9.029947E-18	1.231420E-18
6.200000E+03	9.050527E-18	1.234863E-18
6.210000E+03	9.071475E-18	1.238108E-18
6.220000E+03	9.092950E-18	1.241181E-18
6.230000E+03	9.115233E-18	1.244123E-18
6.240000E+03	9.138378E-18	1.246948E-18
6.250000E+03	9.162567E-18	1.249684E-18
6.260000E+03	9.187988E-18	1.252361E-18
6.270000E+03	9.214716E-18	1.254994E-18
6.280000E+03	9.242959E-18	1.257614E-18
6.290000E+03	9.272806E-18	1.260237E-18
6.300000E+03	9.304357E-18	1.262880E-18
6.310000E+03	9.337842E-18	1.265578E-18
6.320000E+03	9.373251E-18	1.268332E-18
6.330000E+03	9.410831E-18	1.271179E-18
6.340000E+03	9.450453E-18	1.274102E-18
6.350000E+03	9.492247E-18	1.277121E-18
6.360000E+03	9.536219E-18	1.280240E-18
6.370000E+03	9.582512E-18	1.283479E-18
6.380000E+03	9.631003E-18	1.286823E-18
6.390000E+03	9.681706E-18	1.290275E-18
6.400000E+03	9.734494E-18	1.293820E-18
6.410000E+03	9.789096E-18	1.297422E-18
6.420000E+03	9.845372E-18	1.301064E-18
6.430000E+03	9.903323E-18	1.304748E-18
6.440000E+03	9.962948E-18	1.308475E-18
6.450000E+03	1.002425E-17	1.312247E-18
6.460000E+03	1.008739E-17	1.316085E-18
6.470000E+03	1.015252E-17	1.320011E-18
6.480000E+03	1.021966E-17	1.324028E-18
6.490000E+03	1.028868E-17	1.328118E-18
6.500000E+03	1.035990E-17	1.332325E-18
6.510000E+03	1.043335E-17	1.336651E-18
6.520000E+03	1.050890E-17	1.341080E-18
6.530000E+03	1.058673E-17	1.345635E-18
6.540000E+03	1.066687E-17	1.350320E-18
6.550000E+03	1.074919E-17	1.355116E-18
6.560000E+03	1.083371E-17	1.360027E-18
6.570000E+03	1.092081E-17	1.365099E-18
6.580000E+03	1.100999E-17	1.370270E-18
6.590000E+03	1.110163E-17	1.375585E-18
6.600000E+03	1.119578E-17	1.381050E-18
6.610000E+03	1.129210E-17	1.386620E-18
6.620000E+03	1.139098E-17	1.392344E-18
6.630000E+03	1.149208E-17	1.398179E-18
6.640000E+03	1.159581E-17	1.404173E-18
6.650000E+03	1.170183E-17	1.410281E-18
6.660000E+03	1.181034E-17	1.416529E-18
6.670000E+03	1.192139E-17	1.422918E-18
6.680000E+03	1.203479E-17	1.429427E-18
6.690000E+03	1.215059E-17	1.436057E-18
6.700000E+03	1.226900E-17	1.442832E-18
6.710000E+03	1.238986E-17	1.449730E-18
6.720000E+03	1.251318E-17	1.456752E-18
6.730000E+03	1.263900E-17	1.463898E-18
6.740000E+03	1.276734E-17	1.471169E-18
6.750000E+03	1.289822E-17	1.478565E-18
6.760000E+03	1.303168E-17	1.486087E-18
6.770000E+03	1.316751E-17	1.493709E-18
6.780000E+03	1.330596E-17	1.501456E-18
6.790000E+03	1.344706E-17	1.509330E-18
6.800000E+03	1.359059E-17	1.517301E-18
6.810000E+03	1.373683E-17	1.525398E-18
6.820000E+03	1.388554E-17	1.533592E-18
6.830000E+03	1.403675E-17	1.541882E-18
6.840000E+03	1.419047E-17	1.550267E-18
6.850000E+03	1.434672E-17	1.558744E-18
6.860000E+03	1.450579E-17	1.567343E-18
6.870000E+03	1.466716E-17	1.576004E-18
6.880000E+03	1.483112E-17	1.584754E-18
6.890000E+03	1.499767E-17	1.593592E-18
6.900000E+03	1.516656E-17	1.602487E-18
6.910000E+03	1.533806E-17	1.611466E-18
6.920000E+03	1.551221E-17	1.620528E-18
6.930000E+03	1.568872E-17	1.629641E-18
6.940000E+03	1.586759E-17	1.638803E-18
6.950000E+03	1.604912E-17	1.648043E-18
6.960000E+03	1.623302E-17	1.657328E-18
6.970000E+03	1.641929E-17	1.666655E-18
6.980000E+03	1.660792E-17	1.676024E-18
6.990000E+03	1.679892E-17	1.685431E-18
7.000000E+03	1.699194E-17	1.694841E-18
7.010000E+03	1.718765E-17	1.704319E-18
7.020000E+03	1.738536E-17	1.713795E-18
7.030000E+03	1.758540E-17	1.723300E-18
7.040000E+03	1.778742E-17	1.732798E-18
7.050000E+03	1.799139E-17	1.742286E-18
7.060000E+03	1.819764E-17	1.751795E-18
7.070000E+03	1.840581E-17	1.761286E-18
7.080000E+03	1.861549E-17	1.770722E-18
7.090000E+03	1.882739E-17	1.780169E-18
7.100000E+03	1.904113E-17	1.789589E-18
7.110000E+03	1.925627E-17	1.798939E-18
7.120000E+03	1.947317E-17	1.808254E-18
7.130000E+03	1.969140E-17	1.817491E-18
7.140000E+03	1.991131E-17	1.826682E-18
7.150000E+03	2.013246E-17	1.835787E-18
7.160000E+03	2.035521E-17	1.844838E-18
7.170000E+03	2.057868E-17	1.853755E-18
7.180000E+03	2.080324E-17	1.862571E-18
7.190000E+03	2.102925E-17	1.871322E-18
7.200000E+03	2.125580E-17	1.879927E-18
7.210000E+03	2.148281E-17	1.888382E-18
7.220000E+03	2.171065E-17	1.896724E-18
7.230000E+03	2.193927E-17	1.904952E-18
7.240000E+03	2.216813E-17	1.913026E-18
7.250000E+03	2.239762E-17	1.920987E-18
7.260000E+03	2.262719E-17	1.928798E-18
7.270000E+03	2.285674E-17	1.936460E-18
7.280000E+03	2.308669E-17	1.944021E-18
7.290000E+03	2.331644E-17	1.951448E-18
7.300000E+03	2.354641E-17	1.958790E-18
7.310000E+03	2.377600E-17	1.966018E-18
7.320000E+03	2.400511E-17	1.973144E-18
7.330000E+03	2.423470E-17	1.980271E-18
7.340000E+03	2.446362E-17	1.987332E-18
7.350000E+03	2.469288E-17	1.994436E-18
7.360000E+03	2.492185E-17	2.001564E-18
7.370000E+03	2.515103E-17	2.008787E-18
7.380000E+03	2.538094E-17	2.016181E-18
7.390000E+03	2.561097E-17	2.023735E-18
7.400000E+03	2.584226E-17	2.031574E-18
7.410000E+03	2.607483E-17	2.039738E-18
7.420000E+03	2.630929E-17	2.048313E-18
7.430000E+03	2.654570E-17	2.057339E-18
7.440000E+03	2.678410E-17	2.066858E-18
7.450000E+03	2.702519E-17	2.076955E-18
7.460000E+03	2.726780E-17	2.087572E-18
7.470000E+03	2.751198E-17	2.098740E-18
7.480000E+03	2.775714E-17	2.110433E-18
7.490000E+03	2.800398E-17	2.122719E-18
7.500000E+03	2.825191E-17	2.135556E-18
7.510000E+03	2.850029E-17	2.148890E-18
7.520000E+03	2.874917E-17	2.162708E-18
7.530000E+03	2.899858E-17	2.176979E-18
7.540000E+03	2.924783E-17	2.191613E-18
7.550000E+03	2.949766E-17	2.206613E-18
7.560000E+03	2.974665E-17	2.221817E-18
7.570000E+03	2.999624E-17	2.237269E-18
7.580000E+03	3.024571E-17	2.252852E-18
7.590000E+03	3.049506E-17	2.268498E-18
7.600000E+03	3.074350E-17	2.284088E-18
7.610000E+03	3.099175E-17	2.299614E-18
7.620000E+03	3.123973E-17	2.315018E-18
7.630000E+03	3.148738E-17	2.330250E-18
7.640000E+03	3.173383E-17	2.345205E-18
7.650000E+03	3.197971E-17	2.359903E-18
7.660000E+03	3.222409E-17	2.374256E-18
7.670000E+03	3.246839E-17	2.388356E-18
7.680000E+03	3.271000E-17	2.402009E-18
7.690000E+03	3.295114E-17	2.415383E-18
7.700000E+03	3.319076E-17	2.428411E-18
7.710000E+03	3.342777E-17	2.441028E-18
7.720000E+03	3.366271E-17	2.453297E-18
7.730000E+03	3.389531E-17	2.465218E-18
7.740000E+03	3.412525E-17	2.476795E-18
7.750000E+03	3.435221E-17	2.488032E-18
7.760000E+03	3.457676E-17	2.498997E-18
