#wls	flux	fluxerr
1.600000E+03	1.707189E-16	1.662346E-16
1.640000E+03	1.757002E-16	1.682329E-16
1.680000E+03	1.803535E-16	1.696956E-16
1.720000E+03	1.846253E-16	1.705844E-16
1.760000E+03	1.884392E-16	1.708450E-16
1.800000E+03	1.917343E-16	1.704432E-16
1.840000E+03	1.944298E-16	1.693332E-16
1.880000E+03	1.964799E-16	1.675060E-16
1.920000E+03	1.978210E-16	1.649430E-16
1.960000E+03	1.983765E-16	1.616213E-16
2.000000E+03	1.981076E-16	1.575557E-16
2.040000E+03	1.969513E-16	1.527473E-16
2.080000E+03	1.948576E-16	1.472138E-16
2.120000E+03	1.918188E-16	1.410101E-16
2.160000E+03	1.877777E-16	1.341582E-16
2.200000E+03	1.827079E-16	1.267083E-16
2.240000E+03	1.765843E-16	1.187152E-16
2.280000E+03	1.693570E-16	1.102217E-16
2.320000E+03	1.612487E-16	1.014475E-16
2.360000E+03	1.524836E-16	9.259517E-17
2.400000E+03	1.432413E-16	8.382198E-17
2.440000E+03	1.336740E-16	7.525406E-17
2.480000E+03	1.239257E-16	6.699908E-17
2.520000E+03	1.141256E-16	5.914362E-17
2.560000E+03	1.043862E-16	5.175352E-17
2.600000E+03	9.481986E-17	4.488313E-17
2.640000E+03	8.552629E-17	3.856992E-17
2.680000E+03	7.659368E-17	3.283605E-17
2.720000E+03	6.809837E-17	2.768968E-17
2.760000E+03	6.010817E-17	2.312764E-17
2.800000E+03	5.266852E-17	1.913159E-17
2.840000E+03	4.581508E-17	1.567500E-17
2.880000E+03	3.957443E-17	1.272473E-17
2.920000E+03	3.395966E-17	1.024105E-17
2.960000E+03	2.897227E-17	8.179945E-18
3.000000E+03	2.459733E-17	6.493421E-18
3.010000E+03	2.359577E-17	6.124418E-18
3.020000E+03	2.262993E-17	5.774905E-18
3.030000E+03	2.169952E-17	5.444194E-18
3.040000E+03	2.080365E-17	5.131467E-18
3.050000E+03	1.994145E-17	4.835928E-18
3.060000E+03	1.911247E-17	4.556902E-18
3.070000E+03	1.831537E-17	4.293526E-18
3.080000E+03	1.755005E-17	4.045240E-18
3.090000E+03	1.681518E-17	3.811223E-18
3.100000E+03	1.611021E-17	3.590849E-18
3.110000E+03	1.543419E-17	3.383428E-18
3.120000E+03	1.478649E-17	3.188358E-18
3.130000E+03	1.416617E-17	3.004986E-18
3.140000E+03	1.357230E-17	2.832684E-18
3.150000E+03	1.300422E-17	2.670904E-18
3.160000E+03	1.246077E-17	2.519012E-18
3.170000E+03	1.194153E-17	2.376548E-18
3.180000E+03	1.144537E-17	2.242925E-18
3.190000E+03	1.097163E-17	2.117673E-18
3.200000E+03	1.051946E-17	2.000300E-18
3.210000E+03	1.008799E-17	1.890336E-18
3.220000E+03	9.676602E-18	1.787368E-18
3.230000E+03	9.284459E-18	1.690968E-18
3.240000E+03	8.910625E-18	1.600704E-18
3.250000E+03	8.554777E-18	1.516273E-18
3.260000E+03	8.215730E-18	1.437232E-18
3.270000E+03	7.893164E-18	1.363311E-18
3.280000E+03	7.586109E-18	1.294136E-18
3.290000E+03	7.294009E-18	1.229425E-18
3.300000E+03	7.016307E-18	1.168906E-18
3.310000E+03	6.752147E-18	1.112269E-18
3.320000E+03	6.501122E-18	1.059294E-18
3.330000E+03	6.262626E-18	1.009738E-18
3.340000E+03	6.035993E-18	9.633608E-19
3.350000E+03	5.820678E-18	9.199517E-19
3.360000E+03	5.616160E-18	8.793140E-19
3.370000E+03	5.422012E-18	8.412751E-19
3.380000E+03	5.237603E-18	8.056394E-19
3.390000E+03	5.062617E-18	7.722687E-19
3.400000E+03	4.896480E-18	7.409920E-19
3.410000E+03	4.738779E-18	7.116714E-19
3.420000E+03	4.589181E-18	6.841868E-19
3.430000E+03	4.447137E-18	6.583923E-19
3.440000E+03	4.312409E-18	6.341943E-19
3.450000E+03	4.184604E-18	6.114814E-19
3.460000E+03	4.063258E-18	5.901371E-19
3.470000E+03	3.948176E-18	5.700886E-19
3.480000E+03	3.838940E-18	5.512349E-19
3.490000E+03	3.735294E-18	5.335025E-19
3.500000E+03	3.636953E-18	5.168170E-19
3.510000E+03	3.543530E-18	5.010932E-19
3.520000E+03	3.454824E-18	4.862753E-19
3.530000E+03	3.370535E-18	4.722957E-19
3.540000E+03	3.290385E-18	4.590931E-19
3.550000E+03	3.214151E-18	4.466161E-19
3.560000E+03	3.141560E-18	4.348083E-19
3.570000E+03	3.072394E-18	4.236228E-19
3.580000E+03	3.006420E-18	4.130126E-19
3.590000E+03	2.943480E-18	4.029425E-19
3.600000E+03	2.883398E-18	3.933761E-19
3.610000E+03	2.825981E-18	3.842762E-19
3.620000E+03	2.771103E-18	3.756156E-19
3.630000E+03	2.718645E-18	3.673691E-19
3.640000E+03	2.668441E-18	3.595063E-19
3.650000E+03	2.620459E-18	3.520154E-19
3.660000E+03	2.574544E-18	3.448690E-19
3.670000E+03	2.530642E-18	3.380539E-19
3.680000E+03	2.488677E-18	3.315542E-19
3.690000E+03	2.448573E-18	3.253549E-19
3.700000E+03	2.410278E-18	3.194445E-19
3.710000E+03	2.373760E-18	3.138145E-19
3.720000E+03	2.338903E-18	3.084460E-19
3.730000E+03	2.305718E-18	3.033365E-19
3.740000E+03	2.274111E-18	2.984707E-19
3.750000E+03	2.244051E-18	2.938415E-19
3.760000E+03	2.215507E-18	2.894420E-19
3.770000E+03	2.188389E-18	2.852580E-19
3.780000E+03	2.162703E-18	2.812879E-19
3.790000E+03	2.138383E-18	2.775208E-19
3.800000E+03	2.115396E-18	2.739505E-19
3.810000E+03	2.093695E-18	2.705691E-19
3.820000E+03	2.073251E-18	2.673709E-19
3.830000E+03	2.054019E-18	2.643483E-19
3.840000E+03	2.035969E-18	2.614961E-19
3.850000E+03	2.019059E-18	2.588074E-19
3.860000E+03	2.003278E-18	2.562793E-19
3.870000E+03	1.988585E-18	2.539050E-19
3.880000E+03	1.974938E-18	2.516783E-19
3.890000E+03	1.962314E-18	2.495949E-19
3.900000E+03	1.950674E-18	2.476487E-19
3.910000E+03	1.940012E-18	2.458377E-19
3.920000E+03	1.930290E-18	2.441564E-19
3.930000E+03	1.921488E-18	2.426009E-19
3.940000E+03	1.913572E-18	2.411660E-19
3.950000E+03	1.906507E-18	2.398466E-19
3.960000E+03	1.900304E-18	2.386430E-19
3.970000E+03	1.894902E-18	2.375467E-19
3.980000E+03	1.890299E-18	2.365565E-19
3.990000E+03	1.886464E-18	2.356677E-19
4.000000E+03	1.883381E-18	2.348777E-19
4.010000E+03	1.881037E-18	2.341836E-19
4.020000E+03	1.879387E-18	2.335795E-19
4.030000E+03	1.878434E-18	2.330647E-19
4.040000E+03	1.878149E-18	2.326349E-19
4.050000E+03	1.878522E-18	2.322881E-19
4.060000E+03	1.879526E-18	2.320201E-19
4.070000E+03	1.881136E-18	2.318272E-19
4.080000E+03	1.883356E-18	2.317092E-19
4.090000E+03	1.886148E-18	2.316607E-19
4.100000E+03	1.889503E-18	2.316797E-19
4.110000E+03	1.893413E-18	2.317646E-19
4.120000E+03	1.897841E-18	2.319102E-19
4.130000E+03	1.902794E-18	2.321166E-19
4.140000E+03	1.908236E-18	2.323788E-19
4.150000E+03	1.914162E-18	2.326952E-19
4.160000E+03	1.920565E-18	2.330646E-19
4.170000E+03	1.927410E-18	2.334819E-19
4.180000E+03	1.934708E-18	2.339476E-19
4.190000E+03	1.942410E-18	2.344552E-19
4.200000E+03	1.950542E-18	2.350071E-19
4.210000E+03	1.959054E-18	2.355967E-19
4.220000E+03	1.967944E-18	2.362230E-19
4.230000E+03	1.977194E-18	2.368832E-19
4.240000E+03	1.986800E-18	2.375762E-19
4.250000E+03	1.996716E-18	2.382957E-19
4.260000E+03	2.006952E-18	2.390426E-19
4.270000E+03	2.017478E-18	2.398125E-19
4.280000E+03	2.028259E-18	2.406008E-19
4.290000E+03	2.039293E-18	2.414067E-19
4.300000E+03	2.050563E-18	2.422277E-19
4.310000E+03	2.062019E-18	2.430573E-19
4.320000E+03	2.073641E-18	2.438931E-19
4.330000E+03	2.085412E-18	2.447324E-19
4.340000E+03	2.097312E-18	2.455726E-19
4.350000E+03	2.109322E-18	2.464112E-19
4.360000E+03	2.121438E-18	2.472476E-19
4.370000E+03	2.133642E-18	2.480793E-19
4.380000E+03	2.145913E-18	2.489039E-19
4.390000E+03	2.158283E-18	2.497247E-19
4.400000E+03	2.170732E-18	2.505396E-19
4.410000E+03	2.183259E-18	2.513482E-19
4.420000E+03	2.195881E-18	2.521524E-19
4.430000E+03	2.208596E-18	2.529523E-19
4.440000E+03	2.221388E-18	2.537457E-19
4.450000E+03	2.234275E-18	2.545350E-19
4.460000E+03	2.247241E-18	2.553184E-19
4.470000E+03	2.260286E-18	2.560964E-19
4.480000E+03	2.273414E-18	2.568696E-19
4.490000E+03	2.286591E-18	2.576345E-19
4.500000E+03	2.299839E-18	2.583940E-19
4.510000E+03	2.313145E-18	2.591470E-19
4.520000E+03	2.326494E-18	2.598926E-19
4.530000E+03	2.339894E-18	2.606320E-19
4.540000E+03	2.353311E-18	2.613624E-19
4.550000E+03	2.366754E-18	2.620852E-19
4.560000E+03	2.380232E-18	2.628021E-19
4.570000E+03	2.393734E-18	2.635128E-19
4.580000E+03	2.407230E-18	2.642147E-19
4.590000E+03	2.420733E-18	2.649098E-19
4.600000E+03	2.434232E-18	2.655979E-19
4.610000E+03	2.447722E-18	2.662789E-19
4.620000E+03	2.461215E-18	2.669549E-19
4.630000E+03	2.474685E-18	2.676236E-19
4.640000E+03	2.488147E-18	2.682872E-19
4.650000E+03	2.501596E-18	2.689456E-19
4.660000E+03	2.515028E-18	2.695988E-19
4.670000E+03	2.528440E-18	2.702465E-19
4.680000E+03	2.541829E-18	2.708885E-19
4.690000E+03	2.555192E-18	2.715247E-19
4.700000E+03	2.568573E-18	2.721595E-19
4.710000E+03	2.581971E-18	2.727927E-19
4.720000E+03	2.595387E-18	2.734240E-19
4.730000E+03	2.608868E-18	2.740578E-19
4.740000E+03	2.622393E-18	2.746916E-19
4.750000E+03	2.635964E-18	2.753249E-19
4.760000E+03	2.649608E-18	2.759601E-19
4.770000E+03	2.663329E-18	2.765970E-19
4.780000E+03	2.677107E-18	2.772329E-19
4.790000E+03	2.690971E-18	2.778703E-19
4.800000E+03	2.704927E-18	2.785094E-19
4.810000E+03	2.718954E-18	2.791477E-19
4.820000E+03	2.733085E-18	2.797884E-19
4.830000E+03	2.747324E-18	2.804318E-19
4.840000E+03	2.761680E-18	2.810787E-19
4.850000E+03	2.776160E-18	2.817300E-19
4.860000E+03	2.790745E-18	2.823842E-19
4.870000E+03	2.805495E-18	2.830476E-19
4.880000E+03	2.820366E-18	2.837165E-19
4.890000E+03	2.835366E-18	2.843922E-19
4.900000E+03	2.850529E-18	2.850790E-19
4.910000E+03	2.865863E-18	2.857785E-19
4.920000E+03	2.881379E-18	2.864924E-19
4.930000E+03	2.897029E-18	2.872172E-19
4.940000E+03	2.912876E-18	2.879596E-19
4.950000E+03	2.928901E-18	2.887187E-19
4.960000E+03	2.945111E-18	2.894960E-19
4.970000E+03	2.961514E-18	2.902927E-19
4.980000E+03	2.978116E-18	2.911101E-19
4.990000E+03	2.994897E-18	2.919465E-19
5.000000E+03	3.011861E-18	2.928026E-19
5.010000E+03	3.029043E-18	2.936819E-19
5.020000E+03	3.046418E-18	2.945822E-19
5.030000E+03	3.063962E-18	2.955008E-19
5.040000E+03	3.081736E-18	2.964437E-19
5.050000E+03	3.099655E-18	2.974024E-19
5.060000E+03	3.117779E-18	2.983826E-19
5.070000E+03	3.136110E-18	2.993842E-19
5.080000E+03	3.154559E-18	3.003986E-19
5.090000E+03	3.173215E-18	3.014345E-19
5.100000E+03	3.192017E-18	3.024862E-19
5.110000E+03	3.210963E-18	3.035542E-19
5.120000E+03	3.230081E-18	3.046418E-19
5.130000E+03	3.249305E-18	3.057441E-19
5.140000E+03	3.268633E-18	3.068621E-19
5.150000E+03	3.288089E-18	3.080003E-19
5.160000E+03	3.307636E-18	3.091575E-19
5.170000E+03	3.327270E-18	3.103359E-19
5.180000E+03	3.346949E-18	3.115351E-19
5.190000E+03	3.366698E-18	3.127610E-19
5.200000E+03	3.386444E-18	3.140110E-19
5.210000E+03	3.406241E-18	3.152947E-19
5.220000E+03	3.426047E-18	3.166132E-19
5.230000E+03	3.445817E-18	3.179676E-19
5.240000E+03	3.465538E-18	3.193624E-19
5.250000E+03	3.485231E-18	3.208055E-19
5.260000E+03	3.504814E-18	3.222955E-19
5.270000E+03	3.524307E-18	3.238403E-19
5.280000E+03	3.543728E-18	3.254481E-19
5.290000E+03	3.562957E-18	3.271142E-19
5.300000E+03	3.582082E-18	3.288530E-19
5.310000E+03	3.600979E-18	3.306594E-19
5.320000E+03	3.619738E-18	3.325475E-19
5.330000E+03	3.638232E-18	3.345116E-19
5.340000E+03	3.656514E-18	3.365620E-19
5.350000E+03	3.674567E-18	3.387022E-19
5.360000E+03	3.692334E-18	3.409316E-19
5.370000E+03	3.709870E-18	3.432595E-19
5.380000E+03	3.727047E-18	3.456778E-19
5.390000E+03	3.743956E-18	3.481980E-19
5.400000E+03	3.760543E-18	3.508179E-19
5.410000E+03	3.776791E-18	3.535377E-19
5.420000E+03	3.792681E-18	3.563574E-19
5.430000E+03	3.808198E-18	3.592763E-19
5.440000E+03	3.823286E-18	3.622896E-19
5.450000E+03	3.837929E-18	3.653955E-19
5.460000E+03	3.852110E-18	3.685918E-19
5.470000E+03	3.865814E-18	3.718757E-19
5.480000E+03	3.878986E-18	3.752404E-19
5.490000E+03	3.891572E-18	3.786785E-19
5.500000E+03	3.903594E-18	3.821896E-19
5.510000E+03	3.914999E-18	3.857658E-19
5.520000E+03	3.925731E-18	3.893985E-19
5.530000E+03	3.935736E-18	3.930787E-19
5.540000E+03	3.945039E-18	3.968052E-19
5.550000E+03	3.953544E-18	4.005648E-19
5.560000E+03	3.961279E-18	4.043559E-19
5.570000E+03	3.968148E-18	4.081648E-19
5.580000E+03	3.974139E-18	4.119859E-19
5.590000E+03	3.979279E-18	4.158178E-19
5.600000E+03	3.983475E-18	4.196463E-19
5.610000E+03	3.986758E-18	4.234704E-19
5.620000E+03	3.989116E-18	4.272847E-19
5.630000E+03	3.990502E-18	4.310797E-19
5.640000E+03	3.990908E-18	4.348504E-19
5.650000E+03	3.990369E-18	4.385964E-19
5.660000E+03	3.988880E-18	4.423134E-19
5.670000E+03	3.986399E-18	4.459924E-19
5.680000E+03	3.982966E-18	4.496339E-19
5.690000E+03	3.978623E-18	4.532388E-19
5.700000E+03	3.973290E-18	4.567940E-19
5.710000E+03	3.967014E-18	4.603006E-19
5.720000E+03	3.959843E-18	4.637602E-19
5.730000E+03	3.951786E-18	4.671693E-19
5.740000E+03	3.942854E-18	4.705247E-19
5.750000E+03	3.933060E-18	4.738233E-19
5.760000E+03	3.922418E-18	4.770616E-19
5.770000E+03	3.910987E-18	4.802414E-19
5.780000E+03	3.898743E-18	4.833540E-19
5.790000E+03	3.885791E-18	4.864062E-19
5.800000E+03	3.872110E-18	4.893891E-19
5.810000E+03	3.857726E-18	4.922988E-19
5.820000E+03	3.842747E-18	4.951421E-19
5.830000E+03	3.827118E-18	4.979043E-19
5.840000E+03	3.810910E-18	5.005866E-19
5.850000E+03	3.794195E-18	5.031903E-19
5.860000E+03	3.776965E-18	5.057059E-19
5.870000E+03	3.759293E-18	5.081350E-19
5.880000E+03	3.741175E-18	5.104681E-19
5.890000E+03	3.722730E-18	5.127127E-19
5.900000E+03	3.703953E-18	5.148598E-19
5.910000E+03	3.684881E-18	5.169062E-19
5.920000E+03	3.665595E-18	5.188549E-19
5.930000E+03	3.646093E-18	5.206977E-19
5.940000E+03	3.626453E-18	5.224385E-19
5.950000E+03	3.606674E-18	5.240696E-19
5.960000E+03	3.586834E-18	5.255958E-19
5.970000E+03	3.566972E-18	5.270166E-19
5.980000E+03	3.547125E-18	5.283317E-19
5.990000E+03	3.527287E-18	5.295351E-19
6.000000E+03	3.507534E-18	5.306337E-19
6.010000E+03	3.487901E-18	5.316285E-19
6.020000E+03	3.468379E-18	5.325149E-19
6.030000E+03	3.449040E-18	5.333007E-19
6.040000E+03	3.429873E-18	5.339821E-19
6.050000E+03	3.410868E-18	5.345550E-19
6.060000E+03	3.392131E-18	5.350349E-19
6.070000E+03	3.373608E-18	5.354120E-19
6.080000E+03	3.355363E-18	5.356961E-19
6.090000E+03	3.337337E-18	5.358776E-19
6.100000E+03	3.319593E-18	5.359663E-19
6.110000E+03	3.302109E-18	5.359596E-19
6.120000E+03	3.284904E-18	5.358611E-19
6.130000E+03	3.267994E-18	5.356745E-19
6.140000E+03	3.251354E-18	5.353972E-19
6.150000E+03	3.234998E-18	5.350328E-19
6.160000E+03	3.218937E-18	5.345854E-19
6.170000E+03	3.203183E-18	5.340586E-19
6.180000E+03	3.187746E-18	5.334564E-19
6.190000E+03	3.172591E-18	5.327757E-19
6.200000E+03	3.157768E-18	5.320269E-19
6.210000E+03	3.143282E-18	5.312137E-19
6.220000E+03	3.129136E-18	5.303396E-19
6.230000E+03	3.115374E-18	5.294150E-19
6.240000E+03	3.102041E-18	5.284504E-19
6.250000E+03	3.089178E-18	5.274560E-19
6.260000E+03	3.076827E-18	5.264423E-19
6.270000E+03	3.065030E-18	5.254196E-19
6.280000E+03	3.053869E-18	5.244054E-19
6.290000E+03	3.043302E-18	5.233959E-19
6.300000E+03	3.033495E-18	5.224228E-19
6.310000E+03	3.024406E-18	5.214823E-19
6.320000E+03	3.016119E-18	5.205920E-19
6.330000E+03	3.008676E-18	5.197624E-19
6.340000E+03	3.002119E-18	5.190040E-19
6.350000E+03	2.996450E-18	5.183199E-19
6.360000E+03	2.991712E-18	5.177207E-19
6.370000E+03	2.987951E-18	5.172169E-19
6.380000E+03	2.985168E-18	5.168117E-19
6.390000E+03	2.983368E-18	5.165082E-19
6.400000E+03	2.982597E-18	5.163169E-19
6.410000E+03	2.982773E-18	5.162259E-19
6.420000E+03	2.983898E-18	5.162378E-19
6.430000E+03	2.985933E-18	5.163478E-19
6.440000E+03	2.988792E-18	5.165431E-19
6.450000E+03	2.992521E-18	5.168335E-19
6.460000E+03	2.997033E-18	5.172058E-19
6.470000E+03	3.002375E-18	5.176698E-19
6.480000E+03	3.008550E-18	5.182276E-19
6.490000E+03	3.015514E-18	5.188732E-19
6.500000E+03	3.023270E-18	5.196085E-19
6.510000E+03	3.031819E-18	5.204351E-19
6.520000E+03	3.041165E-18	5.213548E-19
6.530000E+03	3.051309E-18	5.223693E-19
6.540000E+03	3.062304E-18	5.234885E-19
6.550000E+03	3.074104E-18	5.247057E-19
6.560000E+03	3.086664E-18	5.260142E-19
6.570000E+03	3.100085E-18	5.274322E-19
6.580000E+03	3.114273E-18	5.289444E-19
6.590000E+03	3.129280E-18	5.305605E-19
6.600000E+03	3.145112E-18	5.322821E-19
6.610000E+03	3.161771E-18	5.341105E-19
6.620000E+03	3.179264E-18	5.360471E-19
6.630000E+03	3.197543E-18	5.380845E-19
6.640000E+03	3.216663E-18	5.402326E-19
6.650000E+03	3.236578E-18	5.424839E-19
6.660000E+03	3.257345E-18	5.448484E-19
6.670000E+03	3.278915E-18	5.473183E-19
6.680000E+03	3.301293E-18	5.498947E-19
6.690000E+03	3.324540E-18	5.525879E-19
6.700000E+03	3.348663E-18	5.553992E-19
6.710000E+03	3.373552E-18	5.583109E-19
6.720000E+03	3.399329E-18	5.613429E-19
6.730000E+03	3.425881E-18	5.644770E-19
6.740000E+03	3.453334E-18	5.677337E-19
6.750000E+03	3.481634E-18	5.711041E-19
6.760000E+03	3.510725E-18	5.745794E-19
6.770000E+03	3.540736E-18	5.781804E-19
6.780000E+03	3.571550E-18	5.818879E-19
6.790000E+03	3.603235E-18	5.857128E-19
6.800000E+03	3.635797E-18	5.896563E-19
6.810000E+03	3.669243E-18	5.937191E-19
6.820000E+03	3.703515E-18	5.978914E-19
6.830000E+03	3.738682E-18	6.021848E-19
6.840000E+03	3.774686E-18	6.065891E-19
6.850000E+03	3.811598E-18	6.111159E-19
6.860000E+03	3.849357E-18	6.157549E-19
6.870000E+03	3.887966E-18	6.205065E-19
6.880000E+03	3.927503E-18	6.253829E-19
6.890000E+03	3.967828E-18	6.303613E-19
6.900000E+03	4.009091E-18	6.354655E-19
6.910000E+03	4.051223E-18	6.406842E-19
6.920000E+03	4.094231E-18	6.460180E-19
6.930000E+03	4.138116E-18	6.514670E-19
6.940000E+03	4.182883E-18	6.570317E-19
6.950000E+03	4.228456E-18	6.626997E-19
6.960000E+03	4.274916E-18	6.684835E-19
6.970000E+03	4.322267E-18	6.743833E-19
6.980000E+03	4.370512E-18	6.803995E-19
6.990000E+03	4.419483E-18	6.865056E-19
7.000000E+03	4.469436E-18	6.927411E-19
7.010000E+03	4.520114E-18	6.990658E-19
7.020000E+03	4.571689E-18	7.055063E-19
7.030000E+03	4.624073E-18	7.120487E-19
7.040000E+03	4.677265E-18	7.186926E-19
7.050000E+03	4.731261E-18	7.254374E-19
7.060000E+03	4.786058E-18	7.322825E-19
7.070000E+03	4.841558E-18	7.392126E-19
7.080000E+03	4.897850E-18	7.462414E-19
7.090000E+03	4.954930E-18	7.533682E-19
7.100000E+03	5.012692E-18	7.605769E-19
7.110000E+03	5.071231E-18	7.678817E-19
7.120000E+03	5.130435E-18	7.752661E-19
7.130000E+03	5.190294E-18	7.827286E-19
7.140000E+03	5.250798E-18	7.902677E-19
7.150000E+03	5.312043E-18	7.978983E-19
7.160000E+03	5.373801E-18	8.055861E-19
7.170000E+03	5.436052E-18	8.133288E-19
7.180000E+03	5.499007E-18	8.211584E-19
7.190000E+03	5.562425E-18	8.290390E-19
7.200000E+03	5.626285E-18	8.369682E-19
7.210000E+03	5.690685E-18	8.449613E-19
7.220000E+03	5.755487E-18	8.529985E-19
7.230000E+03	5.820669E-18	8.610770E-19
7.240000E+03	5.886206E-18	8.691943E-19
7.250000E+03	5.952074E-18	8.773477E-19
7.260000E+03	6.018378E-18	8.855534E-19
7.270000E+03	6.084833E-18	8.937707E-19
7.280000E+03	6.151675E-18	9.020352E-19
7.290000E+03	6.218745E-18	9.103249E-19
7.300000E+03	6.286015E-18	9.186368E-19
7.310000E+03	6.353596E-18	9.269883E-19
7.320000E+03	6.421321E-18	9.353564E-19
7.330000E+03	6.489303E-18	9.437589E-19
7.340000E+03	6.557519E-18	9.521935E-19
7.350000E+03	6.626089E-18	9.606791E-19
7.360000E+03	6.694996E-18	9.692141E-19
7.370000E+03	6.764370E-18	9.778190E-19
7.380000E+03	6.834044E-18	9.864702E-19
7.390000E+03	6.904470E-18	9.952342E-19
7.400000E+03	6.975647E-18	1.004112E-18
7.410000E+03	7.047411E-18	1.013080E-18
7.420000E+03	7.120251E-18	1.022209E-18
7.430000E+03	7.194012E-18	1.031478E-18
7.440000E+03	7.268870E-18	1.040913E-18
7.450000E+03	7.344667E-18	1.050490E-18
7.460000E+03	7.421585E-18	1.060236E-18
7.470000E+03	7.499104E-18	1.070077E-18
7.480000E+03	7.577576E-18	1.080063E-18
7.490000E+03	7.656461E-18	1.090117E-18
7.500000E+03	7.735924E-18	1.100262E-18
7.510000E+03	7.815771E-18	1.110469E-18
7.520000E+03	7.895791E-18	1.120710E-18
7.530000E+03	7.976152E-18	1.131006E-18
7.540000E+03	8.056247E-18	1.141271E-18
7.550000E+03	8.136429E-18	1.151555E-18
7.560000E+03	8.216469E-18	1.161823E-18
7.570000E+03	8.296329E-18	1.172070E-18
7.580000E+03	8.375764E-18	1.182260E-18
7.590000E+03	8.454934E-18	1.192414E-18
7.600000E+03	8.533589E-18	1.202496E-18
7.610000E+03	8.611678E-18	1.212497E-18
7.620000E+03	8.689366E-18	1.222441E-18
7.630000E+03	8.766392E-18	1.232287E-18
7.640000E+03	8.842924E-18	1.242061E-18
7.650000E+03	8.918466E-18	1.251690E-18
7.660000E+03	8.993412E-18	1.261229E-18
7.670000E+03	9.067483E-18	1.270639E-18
7.680000E+03	9.140856E-18	1.279943E-18
7.690000E+03	9.213246E-18	1.289101E-18
7.700000E+03	9.284596E-18	1.298104E-18
7.710000E+03	9.354847E-18	1.306944E-18
7.720000E+03	9.424430E-18	1.315680E-18
7.730000E+03	9.492561E-18	1.324204E-18
7.740000E+03	9.559923E-18	1.332611E-18
7.750000E+03	9.625967E-18	1.340824E-18
7.760000E+03	9.690891E-18	1.348870E-18
