#wls	flux	fluxerr
1.600000E+03	1.673996E-16	1.624164E-16
1.640000E+03	1.723417E-16	1.644296E-16
1.680000E+03	1.769725E-16	1.659296E-16
1.720000E+03	1.812569E-16	1.668946E-16
1.760000E+03	1.850852E-16	1.672388E-16
1.800000E+03	1.884496E-16	1.669752E-16
1.840000E+03	1.912363E-16	1.660265E-16
1.880000E+03	1.934165E-16	1.643970E-16
1.920000E+03	1.949272E-16	1.620662E-16
1.960000E+03	1.956773E-16	1.589969E-16
2.000000E+03	1.956440E-16	1.552147E-16
2.040000E+03	1.947651E-16	1.507181E-16
2.080000E+03	1.929907E-16	1.455216E-16
2.120000E+03	1.902863E-16	1.396568E-16
2.160000E+03	1.866115E-16	1.331555E-16
2.200000E+03	1.819079E-16	1.260422E-16
2.240000E+03	1.761270E-16	1.183546E-16
2.280000E+03	1.692999E-16	1.101878E-16
2.320000E+03	1.615669E-16	1.017044E-16
2.360000E+03	1.531659E-16	9.311529E-17
2.400000E+03	1.442866E-16	8.458333E-17
2.440000E+03	1.351008E-16	7.624465E-17
2.480000E+03	1.257329E-16	6.819459E-17
2.520000E+03	1.163124E-16	6.051949E-17
2.560000E+03	1.069439E-16	5.328110E-17
2.600000E+03	9.773433E-17	4.653206E-17
2.640000E+03	8.876927E-17	4.030474E-17
2.680000E+03	8.012772E-17	3.461996E-17
2.720000E+03	7.187990E-17	2.948680E-17
2.760000E+03	6.407934E-17	2.490058E-17
2.800000E+03	5.677140E-17	2.084798E-17
2.840000E+03	4.998978E-17	1.730687E-17
2.880000E+03	4.375983E-17	1.424892E-17
2.920000E+03	3.809756E-17	1.164045E-17
2.960000E+03	3.300672E-17	9.442884E-18
3.000000E+03	2.847959E-17	7.614535E-18
3.010000E+03	2.743372E-17	7.210024E-18
3.020000E+03	2.642089E-17	6.825031E-18
3.030000E+03	2.544166E-17	6.459131E-18
3.040000E+03	2.449417E-17	6.111298E-18
3.050000E+03	2.357885E-17	5.781099E-18
3.060000E+03	2.269493E-17	5.467813E-18
3.070000E+03	2.184214E-17	5.170848E-18
3.080000E+03	2.101877E-17	4.889296E-18
3.090000E+03	2.022542E-17	4.622803E-18
3.100000E+03	1.946044E-17	4.370509E-18
3.110000E+03	1.872387E-17	4.131959E-18
3.120000E+03	1.801490E-17	3.906515E-18
3.130000E+03	1.733238E-17	3.693494E-18
3.140000E+03	1.667624E-17	3.492451E-18
3.150000E+03	1.604536E-17	3.302739E-18
3.160000E+03	1.543928E-17	3.123870E-18
3.170000E+03	1.485724E-17	2.955302E-18
3.180000E+03	1.429848E-17	2.796517E-18
3.190000E+03	1.376253E-17	2.647066E-18
3.200000E+03	1.324864E-17	2.506460E-18
3.210000E+03	1.275588E-17	2.374194E-18
3.220000E+03	1.228398E-17	2.249906E-18
3.230000E+03	1.183204E-17	2.133126E-18
3.240000E+03	1.139960E-17	2.023478E-18
3.250000E+03	1.098596E-17	1.920565E-18
3.260000E+03	1.059031E-17	1.823978E-18
3.270000E+03	1.021236E-17	1.733415E-18
3.280000E+03	9.851155E-18	1.648474E-18
3.290000E+03	9.506389E-18	1.568877E-18
3.300000E+03	9.177445E-18	1.494305E-18
3.310000E+03	8.863454E-18	1.424412E-18
3.320000E+03	8.564116E-18	1.358957E-18
3.330000E+03	8.278853E-18	1.297667E-18
3.340000E+03	8.006991E-18	1.240264E-18
3.350000E+03	7.748001E-18	1.186506E-18
3.360000E+03	7.501367E-18	1.136165E-18
3.370000E+03	7.266589E-18	1.089023E-18
3.380000E+03	7.043183E-18	1.044877E-18
3.390000E+03	6.830676E-18	1.003536E-18
3.400000E+03	6.628527E-18	9.648063E-19
3.410000E+03	6.436226E-18	9.285091E-19
3.420000E+03	6.253525E-18	8.945123E-19
3.430000E+03	6.079788E-18	8.626348E-19
3.440000E+03	5.914719E-18	8.327527E-19
3.450000E+03	5.757885E-18	8.047293E-19
3.460000E+03	5.608945E-18	7.784472E-19
3.470000E+03	5.467441E-18	7.537791E-19
3.480000E+03	5.333010E-18	7.306167E-19
3.490000E+03	5.205371E-18	7.088678E-19
3.500000E+03	5.084135E-18	6.884309E-19
3.510000E+03	4.969053E-18	6.692278E-19
3.520000E+03	4.859674E-18	6.511568E-19
3.530000E+03	4.755788E-18	6.341531E-19
3.540000E+03	4.657046E-18	6.181362E-19
3.550000E+03	4.563172E-18	6.030390E-19
3.560000E+03	4.473910E-18	5.887997E-19
3.570000E+03	4.388928E-18	5.753493E-19
3.580000E+03	4.308097E-18	5.626478E-19
3.590000E+03	4.231164E-18	5.506409E-19
3.600000E+03	4.157890E-18	5.392785E-19
3.610000E+03	4.088177E-18	5.285300E-19
3.620000E+03	4.021770E-18	5.183463E-19
3.630000E+03	3.958509E-18	5.086920E-19
3.640000E+03	3.898242E-18	4.995341E-19
3.650000E+03	3.840825E-18	4.908416E-19
3.660000E+03	3.786122E-18	4.825856E-19
3.670000E+03	3.734004E-18	4.747392E-19
3.680000E+03	3.684380E-18	4.672811E-19
3.690000E+03	3.637163E-18	4.601911E-19
3.700000E+03	3.592236E-18	4.534464E-19
3.710000E+03	3.549611E-18	4.470410E-19
3.720000E+03	3.509142E-18	4.409494E-19
3.730000E+03	3.470810E-18	4.351631E-19
3.740000E+03	3.434535E-18	4.296660E-19
3.750000E+03	3.400267E-18	4.244469E-19
3.760000E+03	3.368014E-18	4.195016E-19
3.770000E+03	3.337639E-18	4.148091E-19
3.780000E+03	3.309148E-18	4.103661E-19
3.790000E+03	3.282519E-18	4.061665E-19
3.800000E+03	3.257646E-18	4.021941E-19
3.810000E+03	3.234533E-18	3.984467E-19
3.820000E+03	3.213158E-18	3.949191E-19
3.830000E+03	3.193443E-18	3.915998E-19
3.840000E+03	3.175340E-18	3.884811E-19
3.850000E+03	3.158878E-18	3.855650E-19
3.860000E+03	3.143956E-18	3.828380E-19
3.870000E+03	3.130578E-18	3.802993E-19
3.880000E+03	3.118697E-18	3.779424E-19
3.890000E+03	3.108291E-18	3.757638E-19
3.900000E+03	3.099339E-18	3.737603E-19
3.910000E+03	3.091772E-18	3.719230E-19
3.920000E+03	3.085569E-18	3.702490E-19
3.930000E+03	3.080736E-18	3.687386E-19
3.940000E+03	3.077230E-18	3.673861E-19
3.950000E+03	3.075008E-18	3.661862E-19
3.960000E+03	3.074053E-18	3.651365E-19
3.970000E+03	3.074325E-18	3.642317E-19
3.980000E+03	3.075808E-18	3.634695E-19
3.990000E+03	3.078487E-18	3.628475E-19
4.000000E+03	3.082347E-18	3.623636E-19
4.010000E+03	3.087327E-18	3.620099E-19
4.020000E+03	3.093414E-18	3.617841E-19
4.030000E+03	3.100597E-18	3.616841E-19
4.040000E+03	3.108864E-18	3.617077E-19
4.050000E+03	3.118182E-18	3.618498E-19
4.060000E+03	3.128516E-18	3.621054E-19
4.070000E+03	3.139859E-18	3.624724E-19
4.080000E+03	3.152178E-18	3.629458E-19
4.090000E+03	3.165465E-18	3.635232E-19
4.100000E+03	3.179690E-18	3.641996E-19
4.110000E+03	3.194847E-18	3.649727E-19
4.120000E+03	3.210906E-18	3.658374E-19
4.130000E+03	3.227837E-18	3.667885E-19
4.140000E+03	3.245635E-18	3.678236E-19
4.150000E+03	3.264272E-18	3.689375E-19
4.160000E+03	3.283744E-18	3.701278E-19
4.170000E+03	3.303999E-18	3.713862E-19
4.180000E+03	3.325033E-18	3.727105E-19
4.190000E+03	3.346793E-18	3.740924E-19
4.200000E+03	3.369303E-18	3.755324E-19
4.210000E+03	3.392511E-18	3.770225E-19
4.220000E+03	3.416415E-18	3.785604E-19
4.230000E+03	3.440935E-18	3.801352E-19
4.240000E+03	3.466097E-18	3.817477E-19
4.250000E+03	3.491820E-18	3.833872E-19
4.260000E+03	3.518129E-18	3.850547E-19
4.270000E+03	3.544944E-18	3.867396E-19
4.280000E+03	3.572206E-18	3.884341E-19
4.290000E+03	3.599942E-18	3.901399E-19
4.300000E+03	3.628041E-18	3.918433E-19
4.310000E+03	3.656527E-18	3.935459E-19
4.320000E+03	3.685285E-18	3.952342E-19
4.330000E+03	3.714342E-18	3.969101E-19
4.340000E+03	3.743639E-18	3.985660E-19
4.350000E+03	3.773113E-18	4.001945E-19
4.360000E+03	3.802762E-18	4.017945E-19
4.370000E+03	3.832554E-18	4.033615E-19
4.380000E+03	3.862518E-18	4.048978E-19
4.390000E+03	3.892592E-18	4.063958E-19
4.400000E+03	3.922837E-18	4.078610E-19
4.410000E+03	3.953256E-18	4.092928E-19
4.420000E+03	3.983850E-18	4.106904E-19
4.430000E+03	4.014623E-18	4.120535E-19
4.440000E+03	4.045614E-18	4.133849E-19
4.450000E+03	4.076793E-18	4.146816E-19
4.460000E+03	4.108202E-18	4.159471E-19
4.470000E+03	4.139849E-18	4.171822E-19
4.480000E+03	4.171741E-18	4.183881E-19
4.490000E+03	4.203855E-18	4.195627E-19
4.500000E+03	4.236199E-18	4.207082E-19
4.510000E+03	4.268749E-18	4.218235E-19
4.520000E+03	4.301549E-18	4.229152E-19
4.530000E+03	4.334539E-18	4.239797E-19
4.540000E+03	4.367729E-18	4.250212E-19
4.550000E+03	4.401132E-18	4.260442E-19
4.560000E+03	4.434684E-18	4.270465E-19
4.570000E+03	4.468435E-18	4.280372E-19
4.580000E+03	4.502324E-18	4.290145E-19
4.590000E+03	4.536364E-18	4.299843E-19
4.600000E+03	4.570493E-18	4.309451E-19
4.610000E+03	4.604766E-18	4.319064E-19
4.620000E+03	4.639162E-18	4.328699E-19
4.630000E+03	4.673621E-18	4.338335E-19
4.640000E+03	4.708163E-18	4.348020E-19
4.650000E+03	4.742810E-18	4.357795E-19
4.660000E+03	4.777548E-18	4.367661E-19
4.670000E+03	4.812317E-18	4.377571E-19
4.680000E+03	4.847233E-18	4.387629E-19
4.690000E+03	4.882326E-18	4.397856E-19
4.700000E+03	4.917547E-18	4.408189E-19
4.710000E+03	4.952930E-18	4.418642E-19
4.720000E+03	4.988517E-18	4.429224E-19
4.730000E+03	5.024211E-18	4.439822E-19
4.740000E+03	5.060057E-18	4.450443E-19
4.750000E+03	5.096004E-18	4.461014E-19
4.760000E+03	5.132097E-18	4.471543E-19
4.770000E+03	5.168337E-18	4.482001E-19
4.780000E+03	5.204677E-18	4.492321E-19
4.790000E+03	5.241167E-18	4.502526E-19
4.800000E+03	5.277761E-18	4.512560E-19
4.810000E+03	5.314510E-18	4.522458E-19
4.820000E+03	5.351370E-18	4.532178E-19
4.830000E+03	5.388344E-18	4.541729E-19
4.840000E+03	5.425437E-18	4.551126E-19
4.850000E+03	5.462704E-18	4.560436E-19
4.860000E+03	5.500098E-18	4.569647E-19
4.870000E+03	5.537625E-18	4.578795E-19
4.880000E+03	5.575235E-18	4.587879E-19
4.890000E+03	5.613035E-18	4.597030E-19
4.900000E+03	5.650976E-18	4.606251E-19
4.910000E+03	5.689059E-18	4.615588E-19
4.920000E+03	5.727231E-18	4.625040E-19
4.930000E+03	5.765545E-18	4.634692E-19
4.940000E+03	5.803943E-18	4.644533E-19
4.950000E+03	5.842423E-18	4.654591E-19
4.960000E+03	5.881036E-18	4.664931E-19
4.970000E+03	5.919720E-18	4.675522E-19
4.980000E+03	5.958468E-18	4.686367E-19
4.990000E+03	5.997216E-18	4.697419E-19
5.000000E+03	6.036010E-18	4.708712E-19
5.010000E+03	6.074840E-18	4.720230E-19
5.020000E+03	6.113637E-18	4.731905E-19
5.030000E+03	6.152386E-18	4.743710E-19
5.040000E+03	6.191073E-18	4.755615E-19
5.050000E+03	6.229623E-18	4.767544E-19
5.060000E+03	6.268079E-18	4.779511E-19
5.070000E+03	6.306425E-18	4.791488E-19
5.080000E+03	6.344521E-18	4.803354E-19
5.090000E+03	6.382410E-18	4.815135E-19
5.100000E+03	6.420074E-18	4.826813E-19
5.110000E+03	6.457434E-18	4.838333E-19
5.120000E+03	6.494470E-18	4.849693E-19
5.130000E+03	6.531165E-18	4.860899E-19
5.140000E+03	6.567498E-18	4.871969E-19
5.150000E+03	6.603386E-18	4.882884E-19
5.160000E+03	6.638872E-18	4.893734E-19
5.170000E+03	6.673803E-18	4.904476E-19
5.180000E+03	6.708219E-18	4.915229E-19
5.190000E+03	6.742027E-18	4.926028E-19
5.200000E+03	6.775193E-18	4.936970E-19
5.210000E+03	6.807684E-18	4.948168E-19
5.220000E+03	6.839461E-18	4.959744E-19
5.230000E+03	6.870348E-18	4.971733E-19
5.240000E+03	6.900431E-18	4.984371E-19
5.250000E+03	6.929594E-18	4.997754E-19
5.260000E+03	6.957785E-18	5.012026E-19
5.270000E+03	6.984878E-18	5.027282E-19
5.280000E+03	7.010817E-18	5.043662E-19
5.290000E+03	7.035542E-18	5.061304E-19
5.300000E+03	7.058996E-18	5.080337E-19
5.310000E+03	7.081120E-18	5.100885E-19
5.320000E+03	7.101791E-18	5.123014E-19
5.330000E+03	7.121095E-18	5.146933E-19
5.340000E+03	7.138844E-18	5.172638E-19
5.350000E+03	7.154994E-18	5.200216E-19
5.360000E+03	7.169646E-18	5.229845E-19
5.370000E+03	7.182626E-18	5.261484E-19
5.380000E+03	7.194047E-18	5.295287E-19
5.390000E+03	7.203815E-18	5.331234E-19
5.400000E+03	7.211986E-18	5.369398E-19
5.410000E+03	7.218477E-18	5.409729E-19
5.420000E+03	7.223427E-18	5.452320E-19
5.430000E+03	7.226766E-18	5.497089E-19
5.440000E+03	7.228573E-18	5.544047E-19
5.450000E+03	7.228719E-18	5.593023E-19
5.460000E+03	7.227294E-18	5.643996E-19
5.470000E+03	7.224252E-18	5.696819E-19
5.480000E+03	7.219552E-18	5.751329E-19
5.490000E+03	7.213303E-18	5.807464E-19
5.500000E+03	7.205401E-18	5.864978E-19
5.510000E+03	7.195820E-18	5.923667E-19
5.520000E+03	7.184611E-18	5.983381E-19
5.530000E+03	7.171684E-18	6.043839E-19
5.540000E+03	7.157168E-18	6.104936E-19
5.550000E+03	7.140908E-18	6.166320E-19
5.560000E+03	7.123109E-18	6.227946E-19
5.570000E+03	7.103765E-18	6.289584E-19
5.580000E+03	7.082868E-18	6.351007E-19
5.590000E+03	7.060483E-18	6.412056E-19
5.600000E+03	7.036676E-18	6.472579E-19
5.610000E+03	7.011440E-18	6.532368E-19
5.620000E+03	6.984982E-18	6.591426E-19
5.630000E+03	6.957220E-18	6.649500E-19
5.640000E+03	6.928360E-18	6.706620E-19
5.650000E+03	6.898317E-18	6.762560E-19
5.660000E+03	6.867292E-18	6.817382E-19
5.670000E+03	6.835340E-18	6.871026E-19
5.680000E+03	6.802445E-18	6.923375E-19
5.690000E+03	6.768731E-18	6.974466E-19
5.700000E+03	6.734248E-18	7.024279E-19
5.710000E+03	6.699118E-18	7.072875E-19
5.720000E+03	6.663390E-18	7.120252E-19
5.730000E+03	6.627043E-18	7.166339E-19
5.740000E+03	6.590264E-18	7.211293E-19
5.750000E+03	6.553102E-18	7.255123E-19
5.760000E+03	6.515536E-18	7.297762E-19
5.770000E+03	6.477685E-18	7.339293E-19
5.780000E+03	6.439666E-18	7.379798E-19
5.790000E+03	6.401529E-18	7.419279E-19
5.800000E+03	6.363257E-18	7.457652E-19
5.810000E+03	6.324970E-18	7.494986E-19
5.820000E+03	6.286789E-18	7.531352E-19
5.830000E+03	6.248768E-18	7.566732E-19
5.840000E+03	6.210895E-18	7.601028E-19
5.850000E+03	6.173292E-18	7.634298E-19
5.860000E+03	6.136016E-18	7.666520E-19
5.870000E+03	6.099190E-18	7.697757E-19
5.880000E+03	6.062871E-18	7.727988E-19
5.890000E+03	6.027048E-18	7.757109E-19
5.900000E+03	5.991842E-18	7.785188E-19
5.910000E+03	5.957241E-18	7.812124E-19
5.920000E+03	5.923496E-18	7.838169E-19
5.930000E+03	5.890456E-18	7.863057E-19
5.940000E+03	5.858236E-18	7.886874E-19
5.950000E+03	5.826946E-18	7.909714E-19
5.960000E+03	5.796560E-18	7.931496E-19
5.970000E+03	5.767117E-18	7.952234E-19
5.980000E+03	5.738717E-18	7.972037E-19
5.990000E+03	5.711326E-18	7.990836E-19
6.000000E+03	5.685039E-18	8.008748E-19
6.010000E+03	5.659750E-18	8.025619E-19
6.020000E+03	5.635613E-18	8.041664E-19
6.030000E+03	5.612517E-18	8.056731E-19
6.040000E+03	5.590611E-18	8.071045E-19
6.050000E+03	5.569712E-18	8.084358E-19
6.060000E+03	5.549965E-18	8.096897E-19
6.070000E+03	5.531314E-18	8.108608E-19
6.080000E+03	5.513767E-18	8.119528E-19
6.090000E+03	5.497198E-18	8.129501E-19
6.100000E+03	5.481742E-18	8.138760E-19
6.110000E+03	5.467203E-18	8.147049E-19
6.120000E+03	5.453713E-18	8.154598E-19
6.130000E+03	5.441070E-18	8.161145E-19
6.140000E+03	5.429271E-18	8.166720E-19
6.150000E+03	5.418241E-18	8.171252E-19
6.160000E+03	5.407972E-18	8.174767E-19
6.170000E+03	5.398250E-18	8.176983E-19
6.180000E+03	5.389062E-18	8.177921E-19
6.190000E+03	5.380324E-18	8.177492E-19
6.200000E+03	5.372016E-18	8.175711E-19
6.210000E+03	5.364118E-18	8.172589E-19
6.220000E+03	5.356744E-18	8.168344E-19
6.230000E+03	5.350080E-18	8.163305E-19
6.240000E+03	5.344174E-18	8.157591E-19
6.250000E+03	5.339145E-18	8.151431E-19
6.260000E+03	5.335115E-18	8.145056E-19
6.270000E+03	5.332139E-18	8.138591E-19
6.280000E+03	5.330340E-18	8.132273E-19
6.290000E+03	5.329779E-18	8.126231E-19
6.300000E+03	5.330515E-18	8.120598E-19
6.310000E+03	5.332682E-18	8.115616E-19
6.320000E+03	5.336275E-18	8.111311E-19
6.330000E+03	5.341433E-18	8.107929E-19
6.340000E+03	5.348081E-18	8.105387E-19
6.350000E+03	5.356290E-18	8.103821E-19
6.360000E+03	5.366060E-18	8.103257E-19
6.370000E+03	5.377467E-18	8.103835E-19
6.380000E+03	5.390438E-18	8.105465E-19
6.390000E+03	5.404976E-18	8.108173E-19
6.400000E+03	5.421006E-18	8.111863E-19
6.410000E+03	5.438371E-18	8.116322E-19
6.420000E+03	5.456992E-18	8.121446E-19
6.430000E+03	5.476865E-18	8.127247E-19
6.440000E+03	5.497986E-18	8.133736E-19
6.450000E+03	5.520354E-18	8.140925E-19
6.460000E+03	5.544050E-18	8.148947E-19
6.470000E+03	5.569159E-18	8.157935E-19
6.480000E+03	5.595685E-18	8.167905E-19
6.490000E+03	5.623548E-18	8.178746E-19
6.500000E+03	5.652923E-18	8.190720E-19
6.510000E+03	5.683821E-18	8.203843E-19
6.520000E+03	5.716163E-18	8.218004E-19
6.530000E+03	5.750046E-18	8.233343E-19
6.540000E+03	5.785482E-18	8.249876E-19
6.550000E+03	5.822393E-18	8.267488E-19
6.560000E+03	5.860787E-18	8.286189E-19
6.570000E+03	5.900865E-18	8.306257E-19
6.580000E+03	5.942358E-18	8.327307E-19
6.590000E+03	5.985468E-18	8.349617E-19
6.600000E+03	6.030212E-18	8.373201E-19
6.610000E+03	6.076407E-18	8.397797E-19
6.620000E+03	6.124266E-18	8.423689E-19
6.630000E+03	6.173603E-18	8.450610E-19
6.640000E+03	6.224635E-18	8.478849E-19
6.650000E+03	6.277173E-18	8.508133E-19
6.660000E+03	6.331334E-18	8.538610E-19
6.670000E+03	6.387137E-18	8.570290E-19
6.680000E+03	6.444490E-18	8.603035E-19
6.690000E+03	6.503406E-18	8.636850E-19
6.700000E+03	6.564011E-18	8.671886E-19
6.710000E+03	6.626211E-18	8.708003E-19
6.720000E+03	6.690023E-18	8.745204E-19
6.730000E+03	6.755461E-18	8.783493E-19
6.740000E+03	6.822543E-18	8.822873E-19
6.750000E+03	6.891286E-18	8.863348E-19
6.760000E+03	6.961707E-18	8.904922E-19
6.770000E+03	7.033702E-18	8.947439E-19
6.780000E+03	7.107409E-18	8.991056E-19
6.790000E+03	7.182849E-18	9.035777E-19
6.800000E+03	7.259911E-18	9.081441E-19
6.810000E+03	7.338742E-18	9.128209E-19
6.820000E+03	7.419230E-18	9.175918E-19
6.830000E+03	7.501389E-18	9.224563E-19
6.840000E+03	7.585235E-18	9.274141E-19
6.850000E+03	7.670786E-18	9.324649E-19
6.860000E+03	7.758199E-18	9.376253E-19
6.870000E+03	7.847209E-18	9.428608E-19
6.880000E+03	7.937972E-18	9.481880E-19
6.890000E+03	8.030506E-18	9.536064E-19
6.900000E+03	8.124677E-18	9.590977E-19
6.910000E+03	8.220650E-18	9.646790E-19
6.920000E+03	8.318441E-18	9.703500E-19
6.930000E+03	8.417910E-18	9.760918E-19
6.940000E+03	8.519066E-18	9.819034E-19
6.950000E+03	8.622083E-18	9.878027E-19
6.960000E+03	8.726812E-18	9.937704E-19
6.970000E+03	8.833263E-18	9.998054E-19
6.980000E+03	8.941443E-18	1.005907E-18
6.990000E+03	9.051361E-18	1.012074E-18
7.000000E+03	9.162847E-18	1.018285E-18
7.010000E+03	9.276262E-18	1.024579E-18
7.020000E+03	9.391254E-18	1.030916E-18
7.030000E+03	9.508007E-18	1.037313E-18
7.040000E+03	9.626338E-18	1.043749E-18
7.050000E+03	9.746244E-18	1.050223E-18
7.060000E+03	9.867916E-18	1.056753E-18
7.070000E+03	9.991159E-18	1.063318E-18
7.080000E+03	1.011577E-17	1.069893E-18
7.090000E+03	1.024213E-17	1.076519E-18
7.100000E+03	1.037005E-17	1.083173E-18
7.110000E+03	1.049930E-17	1.089831E-18
7.120000E+03	1.063008E-17	1.096512E-18
7.130000E+03	1.076215E-17	1.103191E-18
7.140000E+03	1.089573E-17	1.109889E-18
7.150000E+03	1.103057E-17	1.116580E-18
7.160000E+03	1.116688E-17	1.123284E-18
7.170000E+03	1.130417E-17	1.129953E-18
7.180000E+03	1.144266E-17	1.136607E-18
7.190000E+03	1.158254E-17	1.143268E-18
7.200000E+03	1.172332E-17	1.149886E-18
7.210000E+03	1.186495E-17	1.156458E-18
7.220000E+03	1.200764E-17	1.163007E-18
7.230000E+03	1.215135E-17	1.169531E-18
7.240000E+03	1.229580E-17	1.176007E-18
7.250000E+03	1.244120E-17	1.182457E-18
7.260000E+03	1.258723E-17	1.188857E-18
7.270000E+03	1.273383E-17	1.195209E-18
7.280000E+03	1.288124E-17	1.201539E-18
7.290000E+03	1.302913E-17	1.207824E-18
7.300000E+03	1.317770E-17	1.214095E-18
7.310000E+03	1.332663E-17	1.220330E-18
7.320000E+03	1.347584E-17	1.226533E-18
7.330000E+03	1.362586E-17	1.232767E-18
7.340000E+03	1.377605E-17	1.238986E-18
7.350000E+03	1.392695E-17	1.245255E-18
7.360000E+03	1.407821E-17	1.251558E-18
7.370000E+03	1.423008E-17	1.257935E-18
7.380000E+03	1.438286E-17	1.264430E-18
7.390000E+03	1.453619E-17	1.271032E-18
7.400000E+03	1.469070E-17	1.277816E-18
7.410000E+03	1.484638E-17	1.284802E-18
7.420000E+03	1.500358E-17	1.292039E-18
7.430000E+03	1.516232E-17	1.299551E-18
7.440000E+03	1.532261E-17	1.307359E-18
7.450000E+03	1.548484E-17	1.315514E-18
7.460000E+03	1.564832E-17	1.323976E-18
7.470000E+03	1.581307E-17	1.332762E-18
7.480000E+03	1.597873E-17	1.341856E-18
7.490000E+03	1.614570E-17	1.351296E-18
7.500000E+03	1.631360E-17	1.361057E-18
7.510000E+03	1.648208E-17	1.371105E-18
7.520000E+03	1.665112E-17	1.381431E-18
7.530000E+03	1.682074E-17	1.392017E-18
7.540000E+03	1.699053E-17	1.402810E-18
7.550000E+03	1.716089E-17	1.413814E-18
7.560000E+03	1.733101E-17	1.424929E-18
7.570000E+03	1.750169E-17	1.436187E-18
7.580000E+03	1.767253E-17	1.447515E-18
7.590000E+03	1.784349E-17	1.458876E-18
7.600000E+03	1.801413E-17	1.470195E-18
7.610000E+03	1.818483E-17	1.481471E-18
7.620000E+03	1.835557E-17	1.492668E-18
7.630000E+03	1.852628E-17	1.503758E-18
7.640000E+03	1.869644E-17	1.514674E-18
7.650000E+03	1.886644E-17	1.525431E-18
7.660000E+03	1.903570E-17	1.535972E-18
7.670000E+03	1.920507E-17	1.546358E-18
7.680000E+03	1.937299E-17	1.556463E-18
7.690000E+03	1.954077E-17	1.566393E-18
7.700000E+03	1.970779E-17	1.576106E-18
7.710000E+03	1.987339E-17	1.585559E-18
7.720000E+03	2.003791E-17	1.594788E-18
7.730000E+03	2.020117E-17	1.603796E-18
7.740000E+03	2.036298E-17	1.612580E-18
7.750000E+03	2.052315E-17	1.621144E-18
7.760000E+03	2.068203E-17	1.629528E-18
