#wls	flux	fluxerr
1.600000E+03	1.701228E-16	1.654970E-16
1.640000E+03	1.750408E-16	1.674427E-16
1.680000E+03	1.796273E-16	1.688528E-16
1.720000E+03	1.838289E-16	1.696896E-16
1.760000E+03	1.875702E-16	1.698999E-16
1.800000E+03	1.907910E-16	1.694504E-16
1.840000E+03	1.934116E-16	1.682966E-16
1.880000E+03	1.953872E-16	1.664304E-16
1.920000E+03	1.966555E-16	1.638344E-16
1.960000E+03	1.971417E-16	1.604871E-16
2.000000E+03	1.968085E-16	1.564044E-16
2.040000E+03	1.955949E-16	1.515885E-16
2.080000E+03	1.934528E-16	1.460582E-16
2.120000E+03	1.903765E-16	1.398689E-16
2.160000E+03	1.863109E-16	1.330436E-16
2.200000E+03	1.812317E-16	1.256327E-16
2.240000E+03	1.751156E-16	1.176910E-16
2.280000E+03	1.679148E-16	1.092611E-16
2.320000E+03	1.598513E-16	1.005607E-16
2.360000E+03	1.511481E-16	9.179010E-17
2.400000E+03	1.419833E-16	8.310418E-17
2.440000E+03	1.325079E-16	7.462690E-17
2.480000E+03	1.228636E-16	6.646365E-17
2.520000E+03	1.131773E-16	5.869882E-17
2.560000E+03	1.035593E-16	5.139620E-17
2.600000E+03	9.411865E-17	4.460823E-17
2.640000E+03	8.495229E-17	3.837075E-17
2.680000E+03	7.614528E-17	3.270462E-17
2.720000E+03	6.777096E-17	2.761705E-17
2.760000E+03	5.989437E-17	2.310438E-17
2.800000E+03	5.255854E-17	1.914816E-17
2.840000E+03	4.579720E-17	1.572214E-17
2.880000E+03	3.963562E-17	1.279383E-17
2.920000E+03	3.408625E-17	1.032446E-17
2.960000E+03	2.915068E-17	8.271158E-18
3.000000E+03	2.481475E-17	6.587181E-18
3.010000E+03	2.382109E-17	6.218142E-18
3.020000E+03	2.286245E-17	5.868360E-18
3.030000E+03	2.193857E-17	5.537170E-18
3.040000E+03	2.104857E-17	5.223769E-18
3.050000E+03	2.019162E-17	4.927378E-18
3.060000E+03	1.936729E-17	4.647342E-18
3.070000E+03	1.857428E-17	4.382809E-18
3.080000E+03	1.781250E-17	4.133240E-18
3.090000E+03	1.708065E-17	3.897826E-18
3.100000E+03	1.637819E-17	3.675957E-18
3.110000E+03	1.570422E-17	3.466956E-18
3.120000E+03	1.505813E-17	3.270235E-18
3.130000E+03	1.443899E-17	3.085154E-18
3.140000E+03	1.384591E-17	2.911097E-18
3.150000E+03	1.327824E-17	2.747526E-18
3.160000E+03	1.273483E-17	2.593819E-18
3.170000E+03	1.221531E-17	2.449524E-18
3.180000E+03	1.171855E-17	2.314066E-18
3.190000E+03	1.124393E-17	2.186983E-18
3.200000E+03	1.079059E-17	2.067788E-18
3.210000E+03	1.035772E-17	1.956021E-18
3.220000E+03	9.944685E-18	1.851274E-18
3.230000E+03	9.550691E-18	1.753124E-18
3.240000E+03	9.174810E-18	1.661143E-18
3.250000E+03	8.816751E-18	1.575035E-18
3.260000E+03	8.475334E-18	1.494358E-18
3.270000E+03	8.150269E-18	1.418845E-18
3.280000E+03	7.840596E-18	1.348126E-18
3.290000E+03	7.545779E-18	1.281919E-18
3.300000E+03	7.265283E-18	1.219954E-18
3.310000E+03	6.998259E-18	1.161921E-18
3.320000E+03	6.744324E-18	1.107603E-18
3.330000E+03	6.502886E-18	1.056757E-18
3.340000E+03	6.273289E-18	1.009142E-18
3.350000E+03	6.055002E-18	9.645459E-19
3.360000E+03	5.847516E-18	9.227729E-19
3.370000E+03	5.650417E-18	8.836502E-19
3.380000E+03	5.463081E-18	8.469803E-19
3.390000E+03	5.285208E-18	8.126251E-19
3.400000E+03	5.116224E-18	7.804117E-19
3.410000E+03	4.955729E-18	7.502012E-19
3.420000E+03	4.803396E-18	7.218726E-19
3.430000E+03	4.658678E-18	6.952776E-19
3.440000E+03	4.521346E-18	6.703222E-19
3.450000E+03	4.391012E-18	6.468932E-19
3.460000E+03	4.267209E-18	6.248715E-19
3.470000E+03	4.149752E-18	6.041840E-19
3.480000E+03	4.038220E-18	5.847272E-19
3.490000E+03	3.932360E-18	5.664262E-19
3.500000E+03	3.831888E-18	5.492052E-19
3.510000E+03	3.736412E-18	5.329764E-19
3.520000E+03	3.645736E-18	5.176828E-19
3.530000E+03	3.559553E-18	5.032551E-19
3.540000E+03	3.477584E-18	4.896298E-19
3.550000E+03	3.399605E-18	4.767542E-19
3.560000E+03	3.325337E-18	4.645699E-19
3.570000E+03	3.254560E-18	4.530285E-19
3.580000E+03	3.187036E-18	4.420811E-19
3.590000E+03	3.122606E-18	4.316916E-19
3.600000E+03	3.061091E-18	4.218222E-19
3.610000E+03	3.002295E-18	4.124341E-19
3.620000E+03	2.946091E-18	4.034995E-19
3.630000E+03	2.892357E-18	3.949922E-19
3.640000E+03	2.840926E-18	3.868804E-19
3.650000E+03	2.791766E-18	3.791524E-19
3.660000E+03	2.744721E-18	3.717795E-19
3.670000E+03	2.699738E-18	3.647482E-19
3.680000E+03	2.656740E-18	3.580423E-19
3.690000E+03	2.615652E-18	3.516462E-19
3.700000E+03	2.576423E-18	3.455483E-19
3.710000E+03	2.539024E-18	3.397399E-19
3.720000E+03	2.503336E-18	3.342015E-19
3.730000E+03	2.469374E-18	3.289309E-19
3.740000E+03	2.437043E-18	3.239124E-19
3.750000E+03	2.406314E-18	3.191388E-19
3.760000E+03	2.377155E-18	3.146032E-19
3.770000E+03	2.349478E-18	3.102909E-19
3.780000E+03	2.323291E-18	3.062009E-19
3.790000E+03	2.298526E-18	3.023217E-19
3.800000E+03	2.275152E-18	2.986474E-19
3.810000E+03	2.253122E-18	2.951697E-19
3.820000E+03	2.232408E-18	2.918832E-19
3.830000E+03	2.212963E-18	2.887801E-19
3.840000E+03	2.194759E-18	2.858553E-19
3.850000E+03	2.177753E-18	2.831016E-19
3.860000E+03	2.161936E-18	2.805164E-19
3.870000E+03	2.147264E-18	2.780929E-19
3.880000E+03	2.133696E-18	2.758246E-19
3.890000E+03	2.121208E-18	2.737071E-19
3.900000E+03	2.109762E-18	2.717345E-19
3.910000E+03	2.099350E-18	2.699048E-19
3.920000E+03	2.089935E-18	2.682123E-19
3.930000E+03	2.081497E-18	2.666533E-19
3.940000E+03	2.073999E-18	2.652223E-19
3.950000E+03	2.067407E-18	2.639141E-19
3.960000E+03	2.061734E-18	2.627294E-19
3.970000E+03	2.056914E-18	2.616592E-19
3.980000E+03	2.052948E-18	2.607025E-19
3.990000E+03	2.049803E-18	2.598546E-19
4.000000E+03	2.047463E-18	2.591126E-19
4.010000E+03	2.045916E-18	2.584741E-19
4.020000E+03	2.045115E-18	2.579326E-19
4.030000E+03	2.045062E-18	2.574875E-19
4.040000E+03	2.045730E-18	2.571347E-19
4.050000E+03	2.047108E-18	2.568719E-19
4.060000E+03	2.049167E-18	2.566949E-19
4.070000E+03	2.051883E-18	2.565998E-19
4.080000E+03	2.055260E-18	2.565865E-19
4.090000E+03	2.059258E-18	2.566492E-19
4.100000E+03	2.063869E-18	2.567861E-19
4.110000E+03	2.069084E-18	2.569954E-19
4.120000E+03	2.074864E-18	2.572714E-19
4.130000E+03	2.081218E-18	2.576145E-19
4.140000E+03	2.088108E-18	2.580192E-19
4.150000E+03	2.095526E-18	2.584839E-19
4.160000E+03	2.103469E-18	2.590073E-19
4.170000E+03	2.111898E-18	2.595839E-19
4.180000E+03	2.120826E-18	2.602144E-19
4.190000E+03	2.130198E-18	2.608915E-19
4.200000E+03	2.140044E-18	2.616180E-19
4.210000E+03	2.150311E-18	2.623868E-19
4.220000E+03	2.160996E-18	2.631966E-19
4.230000E+03	2.172079E-18	2.640444E-19
4.240000E+03	2.183557E-18	2.649292E-19
4.250000E+03	2.195378E-18	2.658439E-19
4.260000E+03	2.207557E-18	2.667895E-19
4.270000E+03	2.220057E-18	2.677611E-19
4.280000E+03	2.232841E-18	2.687536E-19
4.290000E+03	2.245907E-18	2.697663E-19
4.300000E+03	2.259236E-18	2.707962E-19
4.310000E+03	2.272773E-18	2.718362E-19
4.320000E+03	2.286497E-18	2.728836E-19
4.330000E+03	2.300388E-18	2.739353E-19
4.340000E+03	2.314423E-18	2.749886E-19
4.350000E+03	2.328583E-18	2.760407E-19
4.360000E+03	2.342864E-18	2.770909E-19
4.370000E+03	2.357245E-18	2.781365E-19
4.380000E+03	2.371704E-18	2.791749E-19
4.390000E+03	2.386276E-18	2.802101E-19
4.400000E+03	2.400941E-18	2.812396E-19
4.410000E+03	2.415698E-18	2.822632E-19
4.420000E+03	2.430566E-18	2.832833E-19
4.430000E+03	2.445545E-18	2.843000E-19
4.440000E+03	2.460617E-18	2.853111E-19
4.450000E+03	2.475804E-18	2.863194E-19
4.460000E+03	2.491088E-18	2.873232E-19
4.470000E+03	2.506472E-18	2.883229E-19
4.480000E+03	2.521961E-18	2.893196E-19
4.490000E+03	2.537516E-18	2.903093E-19
4.500000E+03	2.553165E-18	2.912956E-19
4.510000E+03	2.568892E-18	2.922772E-19
4.520000E+03	2.584683E-18	2.932530E-19
4.530000E+03	2.600545E-18	2.942246E-19
4.540000E+03	2.616443E-18	2.951886E-19
4.550000E+03	2.632385E-18	2.961468E-19
4.560000E+03	2.648381E-18	2.971008E-19
4.570000E+03	2.664420E-18	2.980504E-19
4.580000E+03	2.680467E-18	2.989923E-19
4.590000E+03	2.696536E-18	2.999286E-19
4.600000E+03	2.712616E-18	3.008591E-19
4.610000E+03	2.728697E-18	3.017833E-19
4.620000E+03	2.744795E-18	3.027035E-19
4.630000E+03	2.760877E-18	3.036169E-19
4.640000E+03	2.776962E-18	3.045257E-19
4.650000E+03	2.793041E-18	3.054297E-19
4.660000E+03	2.809109E-18	3.063287E-19
4.670000E+03	2.825162E-18	3.072224E-19
4.680000E+03	2.841193E-18	3.081104E-19
4.690000E+03	2.857201E-18	3.089924E-19
4.700000E+03	2.873231E-18	3.098736E-19
4.710000E+03	2.889282E-18	3.107538E-19
4.720000E+03	2.905354E-18	3.116326E-19
4.730000E+03	2.921497E-18	3.125155E-19
4.740000E+03	2.937688E-18	3.133994E-19
4.750000E+03	2.953928E-18	3.142844E-19
4.760000E+03	2.970245E-18	3.151730E-19
4.770000E+03	2.986644E-18	3.160654E-19
4.780000E+03	3.003099E-18	3.169587E-19
4.790000E+03	3.019643E-18	3.178560E-19
4.800000E+03	3.036280E-18	3.187575E-19
4.810000E+03	3.052988E-18	3.196606E-19
4.820000E+03	3.069799E-18	3.205688E-19
4.830000E+03	3.086719E-18	3.214827E-19
4.840000E+03	3.103754E-18	3.224029E-19
4.850000E+03	3.120912E-18	3.233304E-19
4.860000E+03	3.138169E-18	3.242630E-19
4.870000E+03	3.155591E-18	3.252079E-19
4.880000E+03	3.173127E-18	3.261601E-19
4.890000E+03	3.190783E-18	3.271208E-19
4.900000E+03	3.208597E-18	3.280944E-19
4.910000E+03	3.226575E-18	3.290821E-19
4.920000E+03	3.244725E-18	3.300852E-19
4.930000E+03	3.262994E-18	3.310990E-19
4.940000E+03	3.281449E-18	3.321307E-19
4.950000E+03	3.300066E-18	3.331786E-19
4.960000E+03	3.318851E-18	3.342438E-19
4.970000E+03	3.337811E-18	3.353272E-19
4.980000E+03	3.356950E-18	3.364299E-19
4.990000E+03	3.376243E-18	3.375496E-19
5.000000E+03	3.395693E-18	3.386868E-19
5.010000E+03	3.415336E-18	3.398454E-19
5.020000E+03	3.435143E-18	3.410227E-19
5.030000E+03	3.455084E-18	3.422158E-19
5.040000E+03	3.475227E-18	3.434316E-19
5.050000E+03	3.495473E-18	3.446605E-19
5.060000E+03	3.515889E-18	3.459092E-19
5.070000E+03	3.536475E-18	3.471781E-19
5.080000E+03	3.557128E-18	3.484574E-19
5.090000E+03	3.577948E-18	3.497575E-19
5.100000E+03	3.598864E-18	3.510720E-19
5.110000E+03	3.619871E-18	3.524015E-19
5.120000E+03	3.641000E-18	3.537501E-19
5.130000E+03	3.662175E-18	3.551120E-19
5.140000E+03	3.683389E-18	3.564883E-19
5.150000E+03	3.704670E-18	3.578838E-19
5.160000E+03	3.725974E-18	3.592967E-19
5.170000E+03	3.747292E-18	3.607289E-19
5.180000E+03	3.768577E-18	3.621793E-19
5.190000E+03	3.789854E-18	3.636538E-19
5.200000E+03	3.811037E-18	3.651481E-19
5.210000E+03	3.832186E-18	3.666724E-19
5.220000E+03	3.853252E-18	3.682264E-19
5.230000E+03	3.874180E-18	3.698101E-19
5.240000E+03	3.894956E-18	3.714272E-19
5.250000E+03	3.915599E-18	3.730851E-19
5.260000E+03	3.936017E-18	3.747805E-19
5.270000E+03	3.956230E-18	3.765212E-19
5.280000E+03	3.976256E-18	3.783149E-19
5.290000E+03	3.995961E-18	3.801546E-19
5.300000E+03	4.015441E-18	3.820554E-19
5.310000E+03	4.034559E-18	3.840099E-19
5.320000E+03	4.053412E-18	3.860332E-19
5.330000E+03	4.071861E-18	3.881173E-19
5.340000E+03	4.089964E-18	3.902731E-19
5.350000E+03	4.107702E-18	3.925035E-19
5.360000E+03	4.125013E-18	3.948074E-19
5.370000E+03	4.141960E-18	3.971946E-19
5.380000E+03	4.158399E-18	3.996555E-19
5.390000E+03	4.174435E-18	4.022031E-19
5.400000E+03	4.190009E-18	4.048346E-19
5.410000E+03	4.205103E-18	4.075505E-19
5.420000E+03	4.219699E-18	4.103511E-19
5.430000E+03	4.233781E-18	4.132358E-19
5.440000E+03	4.247290E-18	4.161999E-19
5.450000E+03	4.260212E-18	4.192420E-19
5.460000E+03	4.272532E-18	4.223604E-19
5.470000E+03	4.284236E-18	4.255528E-19
5.480000E+03	4.295267E-18	4.288126E-19
5.490000E+03	4.305570E-18	4.321323E-19
5.500000E+03	4.315176E-18	4.355129E-19
5.510000E+03	4.324030E-18	4.389465E-19
5.520000E+03	4.332079E-18	4.424246E-19
5.530000E+03	4.339268E-18	4.459385E-19
5.540000E+03	4.345634E-18	4.494882E-19
5.550000E+03	4.351078E-18	4.530598E-19
5.560000E+03	4.355639E-18	4.566533E-19
5.570000E+03	4.359221E-18	4.602543E-19
5.580000E+03	4.361819E-18	4.638578E-19
5.590000E+03	4.363473E-18	4.674636E-19
5.600000E+03	4.364091E-18	4.710571E-19
5.610000E+03	4.363715E-18	4.746380E-19
5.620000E+03	4.362344E-18	4.782017E-19
5.630000E+03	4.359936E-18	4.817385E-19
5.640000E+03	4.356491E-18	4.852437E-19
5.650000E+03	4.352059E-18	4.887178E-19
5.660000E+03	4.346644E-18	4.921566E-19
5.670000E+03	4.340208E-18	4.955510E-19
5.680000E+03	4.332805E-18	4.989019E-19
5.690000E+03	4.324490E-18	5.022110E-19
5.700000E+03	4.315184E-18	5.054641E-19
5.710000E+03	4.304947E-18	5.086628E-19
5.720000E+03	4.293837E-18	5.118091E-19
5.730000E+03	4.281873E-18	5.148997E-19
5.740000E+03	4.269072E-18	5.179313E-19
5.750000E+03	4.255456E-18	5.209008E-19
5.760000E+03	4.241045E-18	5.238049E-19
5.770000E+03	4.225909E-18	5.266459E-19
5.780000E+03	4.210028E-18	5.294150E-19
5.790000E+03	4.193519E-18	5.321204E-19
5.800000E+03	4.176364E-18	5.347530E-19
5.810000E+03	4.158594E-18	5.373097E-19
5.820000E+03	4.140330E-18	5.397989E-19
5.830000E+03	4.121513E-18	5.422055E-19
5.840000E+03	4.102223E-18	5.445323E-19
5.850000E+03	4.082538E-18	5.467821E-19
5.860000E+03	4.062450E-18	5.489459E-19
5.870000E+03	4.042038E-18	5.510267E-19
5.880000E+03	4.021297E-18	5.530156E-19
5.890000E+03	4.000352E-18	5.549223E-19
5.900000E+03	3.979196E-18	5.567383E-19
5.910000E+03	3.957869E-18	5.584614E-19
5.920000E+03	3.936451E-18	5.600961E-19
5.930000E+03	3.914938E-18	5.616345E-19
5.940000E+03	3.893411E-18	5.630818E-19
5.950000E+03	3.871863E-18	5.644306E-19
5.960000E+03	3.850375E-18	5.656868E-19
5.970000E+03	3.828984E-18	5.668502E-19
5.980000E+03	3.807724E-18	5.679212E-19
5.990000E+03	3.786585E-18	5.688935E-19
6.000000E+03	3.765646E-18	5.697748E-19
6.010000E+03	3.744937E-18	5.705661E-19
6.020000E+03	3.724446E-18	5.712624E-19
6.030000E+03	3.704246E-18	5.718722E-19
6.040000E+03	3.684322E-18	5.723909E-19
6.050000E+03	3.664655E-18	5.728140E-19
6.060000E+03	3.645359E-18	5.731576E-19
6.070000E+03	3.626371E-18	5.734109E-19
6.080000E+03	3.607756E-18	5.735837E-19
6.090000E+03	3.589447E-18	5.736653E-19
6.100000E+03	3.571507E-18	5.736658E-19
6.110000E+03	3.553912E-18	5.735814E-19
6.120000E+03	3.536675E-18	5.734155E-19
6.130000E+03	3.519814E-18	5.731716E-19
6.140000E+03	3.503296E-18	5.728460E-19
6.150000E+03	3.487134E-18	5.724420E-19
6.160000E+03	3.471337E-18	5.719632E-19
6.170000E+03	3.455915E-18	5.714128E-19
6.180000E+03	3.440875E-18	5.707944E-19
6.190000E+03	3.426178E-18	5.701039E-19
6.200000E+03	3.411874E-18	5.693518E-19
6.210000E+03	3.397966E-18	5.685413E-19
6.220000E+03	3.384455E-18	5.676756E-19
6.230000E+03	3.371387E-18	5.667650E-19
6.240000E+03	3.358806E-18	5.658201E-19
6.250000E+03	3.346757E-18	5.648512E-19
6.260000E+03	3.335282E-18	5.638689E-19
6.270000E+03	3.324424E-18	5.628837E-19
6.280000E+03	3.314273E-18	5.619138E-19
6.290000E+03	3.304780E-18	5.609544E-19
6.300000E+03	3.296124E-18	5.600391E-19
6.310000E+03	3.288259E-18	5.591632E-19
6.320000E+03	3.281275E-18	5.583452E-19
6.330000E+03	3.275216E-18	5.575959E-19
6.340000E+03	3.270130E-18	5.569260E-19
6.350000E+03	3.266016E-18	5.563387E-19
6.360000E+03	3.262923E-18	5.558448E-19
6.370000E+03	3.260899E-18	5.554554E-19
6.380000E+03	3.259948E-18	5.551734E-19
6.390000E+03	3.260072E-18	5.550021E-19
6.400000E+03	3.261324E-18	5.549523E-19
6.410000E+03	3.263613E-18	5.550110E-19
6.420000E+03	3.266944E-18	5.551809E-19
6.430000E+03	3.271272E-18	5.554563E-19
6.440000E+03	3.276503E-18	5.558234E-19
6.450000E+03	3.282689E-18	5.562925E-19
6.460000E+03	3.289735E-18	5.568491E-19
6.470000E+03	3.297692E-18	5.575036E-19
6.480000E+03	3.306563E-18	5.582580E-19
6.490000E+03	3.316301E-18	5.591057E-19
6.500000E+03	3.326908E-18	5.600484E-19
6.510000E+03	3.338386E-18	5.610879E-19
6.520000E+03	3.350739E-18	5.622259E-19
6.530000E+03	3.363970E-18	5.634639E-19
6.540000E+03	3.378135E-18	5.648124E-19
6.550000E+03	3.393187E-18	5.662644E-19
6.560000E+03	3.409074E-18	5.678122E-19
6.570000E+03	3.425909E-18	5.694754E-19
6.580000E+03	3.443587E-18	5.712374E-19
6.590000E+03	3.462169E-18	5.731086E-19
6.600000E+03	3.481657E-18	5.750904E-19
6.610000E+03	3.502060E-18	5.771844E-19
6.620000E+03	3.523380E-18	5.793918E-19
6.630000E+03	3.545568E-18	5.817046E-19
6.640000E+03	3.568685E-18	5.841335E-19
6.650000E+03	3.592679E-18	5.866700E-19
6.660000E+03	3.617614E-18	5.893253E-19
6.670000E+03	3.643437E-18	5.920905E-19
6.680000E+03	3.670154E-18	5.949668E-19
6.690000E+03	3.697832E-18	5.979654E-19
6.700000E+03	3.726479E-18	6.010877E-19
6.710000E+03	3.755974E-18	6.043141E-19
6.720000E+03	3.786453E-18	6.076664E-19
6.730000E+03	3.817792E-18	6.111247E-19
6.740000E+03	3.850128E-18	6.147111E-19
6.750000E+03	3.883404E-18	6.184160E-19
6.760000E+03	3.917557E-18	6.222296E-19
6.770000E+03	3.952732E-18	6.261745E-19
6.780000E+03	3.988798E-18	6.302298E-19
6.790000E+03	4.025830E-18	6.344073E-19
6.800000E+03	4.063836E-18	6.387079E-19
6.810000E+03	4.102825E-18	6.431327E-19
6.820000E+03	4.142730E-18	6.476708E-19
6.830000E+03	4.183632E-18	6.523346E-19
6.840000E+03	4.225461E-18	6.571131E-19
6.850000E+03	4.268302E-18	6.620188E-19
6.860000E+03	4.312084E-18	6.670405E-19
6.870000E+03	4.356812E-18	6.721785E-19
6.880000E+03	4.402572E-18	6.774458E-19
6.890000E+03	4.449207E-18	6.828179E-19
6.900000E+03	4.496888E-18	6.883204E-19
6.910000E+03	4.545538E-18	6.939412E-19
6.920000E+03	4.595161E-18	6.996806E-19
6.930000E+03	4.645762E-18	7.055389E-19
6.940000E+03	4.697346E-18	7.115164E-19
6.950000E+03	4.749827E-18	7.175997E-19
6.960000E+03	4.803298E-18	7.238023E-19
6.970000E+03	4.857762E-18	7.301246E-19
6.980000E+03	4.913224E-18	7.365666E-19
6.990000E+03	4.969495E-18	7.430998E-19
7.000000E+03	5.026863E-18	7.497669E-19
7.010000E+03	5.085038E-18	7.565243E-19
7.020000E+03	5.144215E-18	7.634009E-19
7.030000E+03	5.204296E-18	7.703815E-19
7.040000E+03	5.265278E-18	7.774656E-19
7.050000E+03	5.327159E-18	7.846525E-19
7.060000E+03	5.389935E-18	7.919417E-19
7.070000E+03	5.453494E-18	7.993165E-19
7.080000E+03	5.517938E-18	8.067917E-19
7.090000E+03	5.583263E-18	8.143665E-19
7.100000E+03	5.649348E-18	8.220236E-19
7.110000E+03	5.716301E-18	8.297783E-19
7.120000E+03	5.783996E-18	8.376127E-19
7.130000E+03	5.852421E-18	8.455253E-19
7.140000E+03	5.921565E-18	8.535143E-19
7.150000E+03	5.991537E-18	8.615961E-19
7.160000E+03	6.062078E-18	8.697336E-19
7.170000E+03	6.133167E-18	8.779244E-19
7.180000E+03	6.205041E-18	8.862031E-19
7.190000E+03	6.277428E-18	8.945311E-19
7.200000E+03	6.350303E-18	9.029061E-19
7.210000E+03	6.423778E-18	9.113446E-19
7.220000E+03	6.497698E-18	9.198255E-19
7.230000E+03	6.572034E-18	9.283462E-19
7.240000E+03	6.646762E-18	9.369041E-19
7.250000E+03	6.721852E-18	9.454965E-19
7.260000E+03	6.797422E-18	9.541415E-19
7.270000E+03	6.873152E-18	9.627956E-19
7.280000E+03	6.949307E-18	9.714976E-19
7.290000E+03	7.025708E-18	9.802241E-19
7.300000E+03	7.102323E-18	9.889727E-19
7.310000E+03	7.179278E-18	9.977626E-19
7.320000E+03	7.256384E-18	1.006570E-18
7.330000E+03	7.333771E-18	1.015414E-18
7.340000E+03	7.411409E-18	1.024293E-18
7.350000E+03	7.489439E-18	1.033229E-18
7.360000E+03	7.567838E-18	1.042220E-18
7.370000E+03	7.646758E-18	1.051289E-18
7.380000E+03	7.726009E-18	1.060412E-18
7.390000E+03	7.806103E-18	1.069660E-18
7.400000E+03	7.887041E-18	1.079037E-18
7.410000E+03	7.968639E-18	1.088517E-18
7.420000E+03	8.051452E-18	1.098178E-18
7.430000E+03	8.135306E-18	1.107996E-18
7.440000E+03	8.220403E-18	1.118002E-18
7.450000E+03	8.306566E-18	1.128169E-18
7.460000E+03	8.394003E-18	1.138529E-18
7.470000E+03	8.482130E-18	1.149001E-18
7.480000E+03	8.571347E-18	1.159640E-18
7.490000E+03	8.661045E-18	1.170363E-18
7.500000E+03	8.751416E-18	1.181196E-18
7.510000E+03	8.842241E-18	1.192109E-18
7.520000E+03	8.933286E-18	1.203070E-18
7.530000E+03	9.024744E-18	1.214104E-18
7.540000E+03	9.115931E-18	1.225117E-18
7.550000E+03	9.207250E-18	1.236162E-18
7.560000E+03	9.298444E-18	1.247203E-18
7.570000E+03	9.389473E-18	1.258233E-18
7.580000E+03	9.480063E-18	1.269212E-18
7.590000E+03	9.570397E-18	1.280165E-18
7.600000E+03	9.660194E-18	1.291051E-18
7.610000E+03	9.749397E-18	1.301860E-18
7.620000E+03	9.838197E-18	1.312617E-18
7.630000E+03	9.926296E-18	1.323278E-18
7.640000E+03	1.001389E-17	1.333869E-18
7.650000E+03	1.010041E-17	1.344312E-18
7.660000E+03	1.018630E-17	1.354666E-18
7.670000E+03	1.027125E-17	1.364886E-18
7.680000E+03	1.035546E-17	1.374999E-18
7.690000E+03	1.043861E-17	1.384959E-18
7.700000E+03	1.052061E-17	1.394757E-18
7.710000E+03	1.060142E-17	1.404384E-18
7.720000E+03	1.068150E-17	1.413903E-18
7.730000E+03	1.075997E-17	1.423195E-18
7.740000E+03	1.083759E-17	1.432363E-18
7.750000E+03	1.091375E-17	1.441325E-18
7.760000E+03	1.098866E-17	1.450109E-18
