#wls	flux	fluxerr
1.600000E+03	2.076091E-16	2.015190E-16
1.640000E+03	2.149980E-16	2.052148E-16
1.680000E+03	2.223070E-16	2.085178E-16
1.720000E+03	2.295118E-16	2.114014E-16
1.760000E+03	2.365151E-16	2.137756E-16
1.800000E+03	2.432759E-16	2.156072E-16
1.840000E+03	2.497023E-16	2.168226E-16
1.880000E+03	2.557373E-16	2.173852E-16
1.920000E+03	2.612952E-16	2.172400E-16
1.960000E+03	2.662845E-16	2.163349E-16
2.000000E+03	2.705704E-16	2.145915E-16
2.040000E+03	2.740580E-16	2.119750E-16
2.080000E+03	2.766350E-16	2.084467E-16
2.120000E+03	2.781428E-16	2.039449E-16
2.160000E+03	2.784414E-16	1.984366E-16
2.200000E+03	2.773663E-16	1.918859E-16
2.240000E+03	2.747762E-16	1.842889E-16
2.280000E+03	2.706337E-16	1.757239E-16
2.320000E+03	2.649644E-16	1.663149E-16
2.360000E+03	2.579504E-16	1.562805E-16
2.400000E+03	2.497551E-16	1.458148E-16
2.440000E+03	2.405268E-16	1.350903E-16
2.480000E+03	2.304327E-16	1.242773E-16
2.520000E+03	2.196039E-16	1.135133E-16
2.560000E+03	2.081572E-16	1.029164E-16
2.600000E+03	1.962394E-16	9.260811E-17
2.640000E+03	1.839619E-16	8.267978E-17
2.680000E+03	1.714591E-16	7.322119E-17
2.720000E+03	1.588477E-16	6.430115E-17
2.760000E+03	1.462680E-16	5.598514E-17
2.800000E+03	1.338428E-16	4.831753E-17
2.840000E+03	1.217042E-16	4.133281E-17
2.880000E+03	1.099799E-16	3.505031E-17
2.920000E+03	9.878956E-17	2.947382E-17
2.960000E+03	8.823928E-17	2.459157E-17
3.000000E+03	7.841550E-17	2.037660E-17
3.010000E+03	7.608019E-17	1.942244E-17
3.020000E+03	7.379572E-17	1.850694E-17
3.030000E+03	7.156068E-17	1.762880E-17
3.040000E+03	6.937844E-17	1.678789E-17
3.050000E+03	6.724745E-17	1.598287E-17
3.060000E+03	6.516776E-17	1.521280E-17
3.070000E+03	6.313939E-17	1.447673E-17
3.080000E+03	6.116487E-17	1.377425E-17
3.090000E+03	5.924136E-17	1.310377E-17
3.100000E+03	5.737108E-17	1.246482E-17
3.110000E+03	5.555251E-17	1.185609E-17
3.120000E+03	5.378637E-17	1.127681E-17
3.130000E+03	5.207218E-17	1.072590E-17
3.140000E+03	5.040942E-17	1.020235E-17
3.150000E+03	4.879758E-17	9.705116E-18
3.160000E+03	4.723694E-17	9.233356E-18
3.170000E+03	4.572597E-17	8.785876E-18
3.180000E+03	4.426483E-17	8.361844E-18
3.190000E+03	4.285275E-17	7.960265E-18
3.200000E+03	4.148893E-17	7.580167E-18
3.210000E+03	4.017325E-17	7.220725E-18
3.220000E+03	3.890341E-17	6.880755E-18
3.230000E+03	3.768055E-17	6.559712E-18
3.240000E+03	3.650174E-17	6.256365E-18
3.250000E+03	3.536791E-17	5.970179E-18
3.260000E+03	3.427681E-17	5.700112E-18
3.270000E+03	3.322803E-17	5.445453E-18
3.280000E+03	3.222050E-17	5.205420E-18
3.290000E+03	3.125269E-17	4.979178E-18
3.300000E+03	3.032452E-17	4.766161E-18
3.310000E+03	2.943397E-17	4.565517E-18
3.320000E+03	2.858003E-17	4.376588E-18
3.330000E+03	2.776250E-17	4.198866E-18
3.340000E+03	2.697949E-17	4.031609E-18
3.350000E+03	2.622998E-17	3.874238E-18
3.360000E+03	2.551298E-17	3.726201E-18
3.370000E+03	2.482784E-17	3.587022E-18
3.380000E+03	2.417288E-17	3.456096E-18
3.390000E+03	2.354715E-17	3.332953E-18
3.400000E+03	2.295005E-17	3.217190E-18
3.410000E+03	2.238034E-17	3.108334E-18
3.420000E+03	2.183713E-17	3.005983E-18
3.430000E+03	2.131900E-17	2.909681E-18
3.440000E+03	2.082543E-17	2.819112E-18
3.450000E+03	2.035559E-17	2.733941E-18
3.460000E+03	1.990821E-17	2.653784E-18
3.470000E+03	1.948259E-17	2.578351E-18
3.480000E+03	1.907779E-17	2.507336E-18
3.490000E+03	1.869338E-17	2.440515E-18
3.500000E+03	1.832806E-17	2.377562E-18
3.510000E+03	1.798147E-17	2.318284E-18
3.520000E+03	1.765263E-17	2.262424E-18
3.530000E+03	1.734081E-17	2.209767E-18
3.540000E+03	1.704534E-17	2.160113E-18
3.550000E+03	1.676539E-17	2.113255E-18
3.560000E+03	1.650055E-17	2.069047E-18
3.570000E+03	1.624989E-17	2.027285E-18
3.580000E+03	1.601289E-17	1.987825E-18
3.590000E+03	1.578922E-17	1.950555E-18
3.600000E+03	1.557824E-17	1.915327E-18
3.610000E+03	1.537949E-17	1.882027E-18
3.620000E+03	1.519241E-17	1.850528E-18
3.630000E+03	1.501643E-17	1.820713E-18
3.640000E+03	1.485121E-17	1.792491E-18
3.650000E+03	1.469609E-17	1.765743E-18
3.660000E+03	1.455090E-17	1.740410E-18
3.670000E+03	1.441505E-17	1.716386E-18
3.680000E+03	1.428827E-17	1.693604E-18
3.690000E+03	1.417040E-17	1.672018E-18
3.700000E+03	1.406091E-17	1.651538E-18
3.710000E+03	1.395956E-17	1.632110E-18
3.720000E+03	1.386636E-17	1.613710E-18
3.730000E+03	1.378092E-17	1.596274E-18
3.740000E+03	1.370303E-17	1.579753E-18
3.750000E+03	1.363268E-17	1.564132E-18
3.760000E+03	1.356952E-17	1.549349E-18
3.770000E+03	1.351345E-17	1.535377E-18
3.780000E+03	1.346447E-17	1.522201E-18
3.790000E+03	1.342235E-17	1.509779E-18
3.800000E+03	1.338699E-17	1.498086E-18
3.810000E+03	1.335827E-17	1.487096E-18
3.820000E+03	1.333609E-17	1.476785E-18
3.830000E+03	1.332044E-17	1.467141E-18
3.840000E+03	1.331112E-17	1.458127E-18
3.850000E+03	1.330812E-17	1.449733E-18
3.860000E+03	1.331144E-17	1.441949E-18
3.870000E+03	1.332088E-17	1.434739E-18
3.880000E+03	1.333632E-17	1.428080E-18
3.890000E+03	1.335787E-17	1.421974E-18
3.900000E+03	1.338544E-17	1.416397E-18
3.910000E+03	1.341878E-17	1.411315E-18
3.920000E+03	1.345802E-17	1.406725E-18
3.930000E+03	1.350316E-17	1.402617E-18
3.940000E+03	1.355384E-17	1.398941E-18
3.950000E+03	1.361017E-17	1.395695E-18
3.960000E+03	1.367213E-17	1.392864E-18
3.970000E+03	1.373961E-17	1.390422E-18
3.980000E+03	1.381234E-17	1.388331E-18
3.990000E+03	1.389054E-17	1.386597E-18
4.000000E+03	1.397395E-17	1.385181E-18
4.010000E+03	1.406242E-17	1.384057E-18
4.020000E+03	1.415604E-17	1.383218E-18
4.030000E+03	1.425454E-17	1.382627E-18
4.040000E+03	1.435800E-17	1.382279E-18
4.050000E+03	1.446603E-17	1.382126E-18
4.060000E+03	1.457882E-17	1.382174E-18
4.070000E+03	1.469611E-17	1.382389E-18
4.080000E+03	1.481774E-17	1.382745E-18
4.090000E+03	1.494379E-17	1.383241E-18
4.100000E+03	1.507386E-17	1.383833E-18
4.110000E+03	1.520816E-17	1.384531E-18
4.120000E+03	1.534629E-17	1.385292E-18
4.130000E+03	1.548823E-17	1.386107E-18
4.140000E+03	1.563395E-17	1.386967E-18
4.150000E+03	1.578317E-17	1.387844E-18
4.160000E+03	1.593588E-17	1.388732E-18
4.170000E+03	1.609194E-17	1.389615E-18
4.180000E+03	1.625106E-17	1.390472E-18
4.190000E+03	1.641336E-17	1.391314E-18
4.200000E+03	1.657845E-17	1.392114E-18
4.210000E+03	1.674644E-17	1.392892E-18
4.220000E+03	1.691694E-17	1.393630E-18
4.230000E+03	1.708993E-17	1.394349E-18
4.240000E+03	1.726527E-17	1.395065E-18
4.250000E+03	1.744255E-17	1.395780E-18
4.260000E+03	1.762191E-17	1.396546E-18
4.270000E+03	1.780306E-17	1.397394E-18
4.280000E+03	1.798572E-17	1.398360E-18
4.290000E+03	1.816959E-17	1.399490E-18
4.300000E+03	1.835468E-17	1.400857E-18
4.310000E+03	1.854085E-17	1.402533E-18
4.320000E+03	1.872751E-17	1.404560E-18
4.330000E+03	1.891481E-17	1.407037E-18
4.340000E+03	1.910216E-17	1.410010E-18
4.350000E+03	1.928971E-17	1.413577E-18
4.360000E+03	1.947703E-17	1.417782E-18
4.370000E+03	1.966412E-17	1.422694E-18
4.380000E+03	1.985101E-17	1.428369E-18
4.390000E+03	2.003773E-17	1.434842E-18
4.400000E+03	2.022431E-17	1.442127E-18
4.410000E+03	2.041093E-17	1.450227E-18
4.420000E+03	2.059778E-17	1.459126E-18
4.430000E+03	2.078491E-17	1.468776E-18
4.440000E+03	2.097252E-17	1.479127E-18
4.450000E+03	2.116049E-17	1.490091E-18
4.460000E+03	2.134925E-17	1.501609E-18
4.470000E+03	2.153868E-17	1.513581E-18
4.480000E+03	2.172887E-17	1.525913E-18
4.490000E+03	2.191989E-17	1.538516E-18
4.500000E+03	2.211184E-17	1.551301E-18
4.510000E+03	2.230481E-17	1.564184E-18
4.520000E+03	2.249890E-17	1.577088E-18
4.530000E+03	2.269383E-17	1.589918E-18
4.540000E+03	2.289008E-17	1.602639E-18
4.550000E+03	2.308739E-17	1.615173E-18
4.560000E+03	2.328585E-17	1.627479E-18
4.570000E+03	2.348537E-17	1.639510E-18
4.580000E+03	2.368627E-17	1.651258E-18
4.590000E+03	2.388847E-17	1.662696E-18
4.600000E+03	2.409167E-17	1.673788E-18
4.610000E+03	2.429640E-17	1.684569E-18
4.620000E+03	2.450237E-17	1.695016E-18
4.630000E+03	2.470947E-17	1.705131E-18
4.640000E+03	2.491807E-17	1.714950E-18
4.650000E+03	2.512831E-17	1.724497E-18
4.660000E+03	2.533964E-17	1.733755E-18
4.670000E+03	2.555268E-17	1.742786E-18
4.680000E+03	2.576736E-17	1.751608E-18
4.690000E+03	2.598362E-17	1.760240E-18
4.700000E+03	2.620166E-17	1.768717E-18
4.710000E+03	2.642143E-17	1.777062E-18
4.720000E+03	2.664317E-17	1.785310E-18
4.730000E+03	2.686638E-17	1.793448E-18
4.740000E+03	2.709129E-17	1.801512E-18
4.750000E+03	2.731819E-17	1.809537E-18
4.760000E+03	2.754633E-17	1.817490E-18
4.770000E+03	2.777626E-17	1.825423E-18
4.780000E+03	2.800776E-17	1.833336E-18
4.790000E+03	2.824058E-17	1.841229E-18
4.800000E+03	2.847529E-17	1.849155E-18
4.810000E+03	2.871111E-17	1.857082E-18
4.820000E+03	2.894888E-17	1.865082E-18
4.830000E+03	2.918779E-17	1.873125E-18
4.840000E+03	2.942840E-17	1.881271E-18
4.850000E+03	2.967016E-17	1.889511E-18
4.860000E+03	2.991363E-17	1.897910E-18
4.870000E+03	3.015822E-17	1.906459E-18
4.880000E+03	3.040422E-17	1.915209E-18
4.890000E+03	3.065160E-17	1.924189E-18
4.900000E+03	3.090006E-17	1.933411E-18
4.910000E+03	3.114954E-17	1.942903E-18
4.920000E+03	3.140003E-17	1.952691E-18
4.930000E+03	3.165178E-17	1.962814E-18
4.940000E+03	3.190414E-17	1.973252E-18
4.950000E+03	3.215767E-17	1.984055E-18
4.960000E+03	3.241168E-17	1.995188E-18
4.970000E+03	3.266640E-17	2.006667E-18
4.980000E+03	3.292143E-17	2.018460E-18
4.990000E+03	3.317663E-17	2.030545E-18
5.000000E+03	3.343188E-17	2.042891E-18
5.010000E+03	3.368734E-17	2.055476E-18
5.020000E+03	3.394215E-17	2.068211E-18
5.030000E+03	3.419643E-17	2.081059E-18
5.040000E+03	3.444960E-17	2.093934E-18
5.050000E+03	3.470170E-17	2.106787E-18
5.060000E+03	3.495208E-17	2.119524E-18
5.070000E+03	3.520004E-17	2.132049E-18
5.080000E+03	3.544553E-17	2.144307E-18
5.090000E+03	3.568814E-17	2.156223E-18
5.100000E+03	3.592707E-17	2.167705E-18
5.110000E+03	3.616148E-17	2.178664E-18
5.120000E+03	3.639155E-17	2.189083E-18
5.130000E+03	3.661604E-17	2.198866E-18
5.140000E+03	3.683439E-17	2.207969E-18
5.150000E+03	3.704600E-17	2.216357E-18
5.160000E+03	3.725026E-17	2.224007E-18
5.170000E+03	3.744620E-17	2.230884E-18
5.180000E+03	3.763354E-17	2.237007E-18
5.190000E+03	3.781090E-17	2.242342E-18
5.200000E+03	3.797799E-17	2.246926E-18
5.210000E+03	3.813338E-17	2.250739E-18
5.220000E+03	3.827714E-17	2.253855E-18
5.230000E+03	3.840783E-17	2.256261E-18
5.240000E+03	3.852512E-17	2.258012E-18
5.250000E+03	3.862755E-17	2.259094E-18
5.260000E+03	3.871479E-17	2.259558E-18
5.270000E+03	3.878612E-17	2.259426E-18
5.280000E+03	3.884009E-17	2.258670E-18
5.290000E+03	3.887601E-17	2.257303E-18
5.300000E+03	3.889362E-17	2.255351E-18
5.310000E+03	3.889193E-17	2.252794E-18
5.320000E+03	3.887001E-17	2.249605E-18
5.330000E+03	3.882737E-17	2.245782E-18
5.340000E+03	3.876364E-17	2.241321E-18
5.350000E+03	3.867852E-17	2.236220E-18
5.360000E+03	3.857146E-17	2.230463E-18
5.370000E+03	3.844284E-17	2.224080E-18
5.380000E+03	3.829239E-17	2.217070E-18
5.390000E+03	3.812080E-17	2.209480E-18
5.400000E+03	3.792819E-17	2.201325E-18
5.410000E+03	3.771598E-17	2.192692E-18
5.420000E+03	3.748541E-17	2.183657E-18
5.430000E+03	3.723718E-17	2.174257E-18
5.440000E+03	3.697366E-17	2.164621E-18
5.450000E+03	3.669629E-17	2.154818E-18
5.460000E+03	3.640521E-17	2.144829E-18
5.470000E+03	3.610330E-17	2.134788E-18
5.480000E+03	3.579176E-17	2.124716E-18
5.490000E+03	3.547191E-17	2.114629E-18
5.500000E+03	3.514554E-17	2.104558E-18
5.510000E+03	3.481415E-17	2.094503E-18
5.520000E+03	3.447931E-17	2.084460E-18
5.530000E+03	3.414332E-17	2.074465E-18
5.540000E+03	3.380777E-17	2.064510E-18
5.550000E+03	3.347528E-17	2.054650E-18
5.560000E+03	3.314806E-17	2.044924E-18
5.570000E+03	3.282792E-17	2.035355E-18
5.580000E+03	3.251723E-17	2.026012E-18
5.590000E+03	3.221790E-17	2.016947E-18
5.600000E+03	3.193171E-17	2.008218E-18
5.610000E+03	3.166060E-17	1.999906E-18
5.620000E+03	3.140599E-17	1.992073E-18
5.630000E+03	3.116914E-17	1.984784E-18
5.640000E+03	3.095141E-17	1.978122E-18
5.650000E+03	3.075364E-17	1.972147E-18
5.660000E+03	3.057679E-17	1.966940E-18
5.670000E+03	3.042132E-17	1.962554E-18
5.680000E+03	3.028748E-17	1.959041E-18
5.690000E+03	3.017568E-17	1.956467E-18
5.700000E+03	3.008587E-17	1.954876E-18
5.710000E+03	3.001785E-17	1.954304E-18
5.720000E+03	2.997164E-17	1.954807E-18
5.730000E+03	2.994686E-17	1.956414E-18
5.740000E+03	2.994340E-17	1.959172E-18
5.750000E+03	2.996046E-17	1.963082E-18
5.760000E+03	2.999820E-17	1.968205E-18
5.770000E+03	3.005586E-17	1.974534E-18
5.780000E+03	3.013299E-17	1.982079E-18
5.790000E+03	3.022985E-17	1.990888E-18
5.800000E+03	3.034545E-17	2.000920E-18
5.810000E+03	3.048015E-17	2.012213E-18
5.820000E+03	3.063373E-17	2.024759E-18
5.830000E+03	3.080601E-17	2.038542E-18
5.840000E+03	3.099650E-17	2.053521E-18
5.850000E+03	3.120578E-17	2.069713E-18
5.860000E+03	3.143343E-17	2.087063E-18
5.870000E+03	3.167973E-17	2.105558E-18
5.880000E+03	3.194465E-17	2.125155E-18
5.890000E+03	3.222779E-17	2.145783E-18
5.900000E+03	3.252944E-17	2.167414E-18
5.910000E+03	3.284991E-17	2.190016E-18
5.920000E+03	3.318838E-17	2.213484E-18
5.930000E+03	3.354511E-17	2.237782E-18
5.940000E+03	3.391993E-17	2.262851E-18
5.950000E+03	3.431306E-17	2.288657E-18
5.960000E+03	3.472350E-17	2.315092E-18
5.970000E+03	3.515174E-17	2.342154E-18
5.980000E+03	3.559668E-17	2.369741E-18
5.990000E+03	3.605832E-17	2.397835E-18
6.000000E+03	3.653625E-17	2.426397E-18
6.010000E+03	3.702955E-17	2.455369E-18
6.020000E+03	3.753810E-17	2.484752E-18
6.030000E+03	3.806042E-17	2.514471E-18
6.040000E+03	3.859672E-17	2.544575E-18
6.050000E+03	3.914492E-17	2.574972E-18
6.060000E+03	3.970511E-17	2.605725E-18
6.070000E+03	4.027549E-17	2.636787E-18
6.080000E+03	4.085561E-17	2.668206E-18
6.090000E+03	4.144348E-17	2.699946E-18
6.100000E+03	4.203804E-17	2.732036E-18
6.110000E+03	4.263762E-17	2.764478E-18
6.120000E+03	4.324104E-17	2.797311E-18
6.130000E+03	4.384600E-17	2.830506E-18
6.140000E+03	4.445065E-17	2.864066E-18
6.150000E+03	4.505364E-17	2.898025E-18
6.160000E+03	4.565306E-17	2.932372E-18
6.170000E+03	4.624586E-17	2.967016E-18
6.180000E+03	4.683063E-17	3.001951E-18
6.190000E+03	4.740544E-17	3.037121E-18
6.200000E+03	4.796898E-17	3.072480E-18
6.210000E+03	4.852062E-17	3.107996E-18
6.220000E+03	4.905986E-17	3.143618E-18
6.230000E+03	4.958698E-17	3.179322E-18
6.240000E+03	5.010369E-17	3.215156E-18
6.250000E+03	5.061001E-17	3.251043E-18
6.260000E+03	5.110542E-17	3.286863E-18
6.270000E+03	5.159216E-17	3.322662E-18
6.280000E+03	5.207065E-17	3.358368E-18
6.290000E+03	5.254001E-17	3.393827E-18
6.300000E+03	5.300293E-17	3.429112E-18
6.310000E+03	5.345798E-17	3.464037E-18
6.320000E+03	5.390734E-17	3.498655E-18
6.330000E+03	5.435039E-17	3.532845E-18
6.340000E+03	5.478798E-17	3.566590E-18
6.350000E+03	5.522028E-17	3.599835E-18
6.360000E+03	5.564749E-17	3.632536E-18
6.370000E+03	5.606978E-17	3.664660E-18
6.380000E+03	5.648659E-17	3.696128E-18
6.390000E+03	5.689730E-17	3.726870E-18
6.400000E+03	5.730288E-17	3.756929E-18
6.410000E+03	5.770187E-17	3.786195E-18
6.420000E+03	5.809526E-17	3.814723E-18
6.430000E+03	5.848237E-17	3.842470E-18
6.440000E+03	5.886335E-17	3.869449E-18
6.450000E+03	5.923923E-17	3.895735E-18
6.460000E+03	5.961198E-17	3.921472E-18
6.470000E+03	5.998186E-17	3.946690E-18
6.480000E+03	6.035005E-17	3.971484E-18
6.490000E+03	6.071779E-17	3.995951E-18
6.500000E+03	6.108449E-17	4.020069E-18
6.510000E+03	6.145236E-17	4.043999E-18
6.520000E+03	6.182177E-17	4.067779E-18
6.530000E+03	6.219215E-17	4.091384E-18
6.540000E+03	6.256578E-17	4.114975E-18
6.550000E+03	6.294208E-17	4.138522E-18
6.560000E+03	6.332039E-17	4.161988E-18
6.570000E+03	6.370305E-17	4.185532E-18
6.580000E+03	6.408940E-17	4.209113E-18
6.590000E+03	6.447973E-17	4.232752E-18
6.600000E+03	6.487540E-17	4.256538E-18
6.610000E+03	6.527457E-17	4.280349E-18
6.620000E+03	6.567746E-17	4.304199E-18
6.630000E+03	6.608640E-17	4.328238E-18
6.640000E+03	6.649943E-17	4.352335E-18
6.650000E+03	6.691666E-17	4.376495E-18
6.660000E+03	6.733930E-17	4.400796E-18
6.670000E+03	6.776629E-17	4.425165E-18
6.680000E+03	6.819766E-17	4.449605E-18
6.690000E+03	6.863456E-17	4.474187E-18
6.700000E+03	6.907461E-17	4.498758E-18
6.710000E+03	6.951769E-17	4.523308E-18
6.720000E+03	6.996608E-17	4.547985E-18
6.730000E+03	7.041722E-17	4.572619E-18
6.740000E+03	7.087091E-17	4.597194E-18
6.750000E+03	7.132817E-17	4.621770E-18
6.760000E+03	7.178751E-17	4.646241E-18
6.770000E+03	7.224864E-17	4.670578E-18
6.780000E+03	7.271128E-17	4.694746E-18
6.790000E+03	7.317509E-17	4.718702E-18
6.800000E+03	7.363841E-17	4.742317E-18
6.810000E+03	7.410220E-17	4.765624E-18
6.820000E+03	7.456610E-17	4.788569E-18
6.830000E+03	7.502836E-17	4.811006E-18
6.840000E+03	7.548996E-17	4.832962E-18
6.850000E+03	7.594914E-17	4.854287E-18
6.860000E+03	7.640548E-17	4.874920E-18
6.870000E+03	7.685856E-17	4.894802E-18
6.880000E+03	7.730656E-17	4.913786E-18
6.890000E+03	7.775194E-17	4.932006E-18
6.900000E+03	7.819290E-17	4.949328E-18
6.910000E+03	7.862758E-17	4.965625E-18
6.920000E+03	7.905707E-17	4.980963E-18
6.930000E+03	7.947953E-17	4.995230E-18
6.940000E+03	7.989459E-17	5.008415E-18
6.950000E+03	8.030342E-17	5.020611E-18
6.960000E+03	8.070418E-17	5.031730E-18
6.970000E+03	8.109656E-17	5.041784E-18
6.980000E+03	8.148028E-17	5.050792E-18
6.990000E+03	8.185506E-17	5.058779E-18
7.000000E+03	8.221909E-17	5.065675E-18
7.010000E+03	8.257537E-17	5.071711E-18
7.020000E+03	8.292052E-17	5.076727E-18
7.030000E+03	8.325440E-17	5.080760E-18
7.040000E+03	8.357857E-17	5.083948E-18
7.050000E+03	8.389135E-17	5.086233E-18
7.060000E+03	8.419276E-17	5.087651E-18
7.070000E+03	8.448287E-17	5.088240E-18
7.080000E+03	8.476180E-17	5.088032E-18
7.090000E+03	8.503146E-17	5.087159E-18
7.100000E+03	8.528871E-17	5.085443E-18
7.110000E+03	8.553384E-17	5.082902E-18
7.120000E+03	8.576894E-17	5.079653E-18
7.130000E+03	8.599447E-17	5.075702E-18
7.140000E+03	8.620918E-17	5.070947E-18
7.150000E+03	8.641537E-17	5.065488E-18
7.160000E+03	8.661011E-17	5.059106E-18
7.170000E+03	8.679755E-17	5.051994E-18
7.180000E+03	8.697660E-17	5.044030E-18
7.190000E+03	8.714793E-17	5.035192E-18
7.200000E+03	8.731041E-17	5.025355E-18
7.210000E+03	8.746834E-17	5.014705E-18
7.220000E+03	8.761876E-17	5.003014E-18
7.230000E+03	8.776409E-17	4.990370E-18
7.240000E+03	8.790308E-17	4.976657E-18
7.250000E+03	8.803806E-17	4.961973E-18
7.260000E+03	8.816760E-17	4.946214E-18
7.270000E+03	8.829204E-17	4.929391E-18
7.280000E+03	8.841346E-17	4.911628E-18
7.290000E+03	8.853014E-17	4.892851E-18
7.300000E+03	8.864399E-17	4.873208E-18
7.310000E+03	8.875117E-17	4.852547E-18
7.320000E+03	8.885343E-17	4.831045E-18
7.330000E+03	8.895247E-17	4.808900E-18
7.340000E+03	8.904420E-17	4.786016E-18
7.350000E+03	8.913024E-17	4.762634E-18
7.360000E+03	8.920836E-17	4.738820E-18
7.370000E+03	8.928020E-17	4.714874E-18
7.380000E+03	8.934355E-17	4.690929E-18
7.390000E+03	8.939822E-17	4.667260E-18
7.400000E+03	8.944408E-17	4.644185E-18
7.410000E+03	8.947909E-17	4.621963E-18
7.420000E+03	8.950331E-17	4.600997E-18
7.430000E+03	8.951688E-17	4.581729E-18
7.440000E+03	8.952005E-17	4.564628E-18
7.450000E+03	8.951519E-17	4.550281E-18
7.460000E+03	8.950077E-17	4.539071E-18
7.470000E+03	8.948133E-17	4.531660E-18
7.480000E+03	8.945749E-17	4.528453E-18
7.490000E+03	8.942989E-17	4.529774E-18
7.500000E+03	8.939911E-17	4.535829E-18
7.510000E+03	8.936569E-17	4.546680E-18
7.520000E+03	8.933401E-17	4.562411E-18
7.530000E+03	8.930006E-17	4.582498E-18
7.540000E+03	8.926582E-17	4.606574E-18
7.550000E+03	8.923116E-17	4.634049E-18
7.560000E+03	8.919799E-17	4.664357E-18
7.570000E+03	8.916200E-17	4.696559E-18
7.580000E+03	8.912509E-17	4.730030E-18
7.590000E+03	8.908711E-17	4.764060E-18
7.600000E+03	8.905006E-17	4.798110E-18
7.610000E+03	8.900969E-17	4.831380E-18
7.620000E+03	8.897017E-17	4.863619E-18
7.630000E+03	8.892943E-17	4.894343E-18
7.640000E+03	8.888542E-17	4.923175E-18
7.650000E+03	8.884244E-17	4.950199E-18
7.660000E+03	8.879850E-17	4.975250E-18
7.670000E+03	8.875373E-17	4.998369E-18
7.680000E+03	8.870824E-17	5.019674E-18
7.690000E+03	8.866216E-17	5.039341E-18
7.700000E+03	8.861560E-17	5.057589E-18
7.710000E+03	8.857078E-17	5.074784E-18
7.720000E+03	8.852343E-17	5.090935E-18
7.730000E+03	8.847788E-17	5.106543E-18
7.740000E+03	8.843192E-17	5.121724E-18
7.750000E+03	8.838545E-17	5.136697E-18
7.760000E+03	8.833833E-17	5.151654E-18
