#wls	flux	fluxerr
1.600000E+03	8.303556E-17	9.220087E-17
1.640000E+03	8.097642E-17	8.894681E-17
1.680000E+03	7.888757E-17	8.568920E-17
1.720000E+03	7.676581E-17	8.242735E-17
1.760000E+03	7.461499E-17	7.916831E-17
1.800000E+03	7.244412E-17	7.592445E-17
1.840000E+03	7.023727E-17	7.268188E-17
1.880000E+03	6.800923E-17	6.945904E-17
1.920000E+03	6.575673E-17	6.625543E-17
1.960000E+03	6.347796E-17	6.307221E-17
2.000000E+03	6.116842E-17	5.990807E-17
2.040000E+03	5.883029E-17	5.676845E-17
2.080000E+03	5.645999E-17	5.365324E-17
2.120000E+03	5.405107E-17	5.055982E-17
2.160000E+03	5.161148E-17	4.749932E-17
2.200000E+03	4.913977E-17	4.447381E-17
2.240000E+03	4.664206E-17	4.149223E-17
2.280000E+03	4.413221E-17	3.856983E-17
2.320000E+03	4.162887E-17	3.572507E-17
2.360000E+03	3.915486E-17	3.297865E-17
2.400000E+03	3.673103E-17	3.034805E-17
2.440000E+03	3.437422E-17	2.784602E-17
2.480000E+03	3.210177E-17	2.548446E-17
2.520000E+03	2.992269E-17	2.326745E-17
2.560000E+03	2.784565E-17	2.119809E-17
2.600000E+03	2.587350E-17	1.927434E-17
2.640000E+03	2.400870E-17	1.749356E-17
2.680000E+03	2.225083E-17	1.585069E-17
2.720000E+03	2.059894E-17	1.434019E-17
2.760000E+03	1.905161E-17	1.295614E-17
2.800000E+03	1.760645E-17	1.169195E-17
2.840000E+03	1.626089E-17	1.054096E-17
2.880000E+03	1.501292E-17	9.496959E-18
2.920000E+03	1.385921E-17	8.552993E-18
2.960000E+03	1.279780E-17	7.703101E-18
3.000000E+03	1.182495E-17	6.940407E-18
3.010000E+03	1.159551E-17	6.762785E-18
3.020000E+03	1.137114E-17	6.589998E-18
3.030000E+03	1.115179E-17	6.421941E-18
3.040000E+03	1.093786E-17	6.258788E-18
3.050000E+03	1.072902E-17	6.100272E-18
3.060000E+03	1.052516E-17	5.946277E-18
3.070000E+03	1.032642E-17	5.796815E-18
3.080000E+03	1.013249E-17	5.651644E-18
3.090000E+03	9.943279E-18	5.510656E-18
3.100000E+03	9.759107E-18	5.373967E-18
3.110000E+03	9.579467E-18	5.241238E-18
3.120000E+03	9.404470E-18	5.112471E-18
3.130000E+03	9.233839E-18	4.987458E-18
3.140000E+03	9.068033E-18	4.866391E-18
3.150000E+03	8.906411E-18	4.748867E-18
3.160000E+03	8.749069E-18	4.634887E-18
3.170000E+03	8.596084E-18	4.524436E-18
3.180000E+03	8.447359E-18	4.417411E-18
3.190000E+03	8.302489E-18	4.313548E-18
3.200000E+03	8.161858E-18	4.212999E-18
3.210000E+03	8.025071E-18	4.115507E-18
3.220000E+03	7.892194E-18	4.021061E-18
3.230000E+03	7.763002E-18	3.929498E-18
3.240000E+03	7.637557E-18	3.840805E-18
3.250000E+03	7.515777E-18	3.754895E-18
3.260000E+03	7.397582E-18	3.671683E-18
3.270000E+03	7.282770E-18	3.591029E-18
3.280000E+03	7.171396E-18	3.512917E-18
3.290000E+03	7.063385E-18	3.437269E-18
3.300000E+03	6.958551E-18	3.363956E-18
3.310000E+03	6.856943E-18	3.292963E-18
3.320000E+03	6.758385E-18	3.224169E-18
3.330000E+03	6.662922E-18	3.157557E-18
3.340000E+03	6.570386E-18	3.093012E-18
3.350000E+03	6.480721E-18	3.030474E-18
3.360000E+03	6.393873E-18	2.969884E-18
3.370000E+03	6.309785E-18	2.911182E-18
3.380000E+03	6.228407E-18	2.854314E-18
3.390000E+03	6.149596E-18	2.799181E-18
3.400000E+03	6.073396E-18	2.745776E-18
3.410000E+03	5.999586E-18	2.693967E-18
3.420000E+03	5.928298E-18	2.643786E-18
3.430000E+03	5.859321E-18	2.595110E-18
3.440000E+03	5.792620E-18	2.547897E-18
3.450000E+03	5.728161E-18	2.502106E-18
3.460000E+03	5.665833E-18	2.457663E-18
3.470000E+03	5.605684E-18	2.414564E-18
3.480000E+03	5.547609E-18	2.372739E-18
3.490000E+03	5.491509E-18	2.332122E-18
3.500000E+03	5.437363E-18	2.292681E-18
3.510000E+03	5.385081E-18	2.254357E-18
3.520000E+03	5.334714E-18	2.217148E-18
3.530000E+03	5.286045E-18	2.180943E-18
3.540000E+03	5.239129E-18	2.145746E-18
3.550000E+03	5.193894E-18	2.111506E-18
3.560000E+03	5.150330E-18	2.078201E-18
3.570000E+03	5.108310E-18	2.045759E-18
3.580000E+03	5.067775E-18	2.014140E-18
3.590000E+03	5.028785E-18	1.983350E-18
3.600000E+03	4.991170E-18	1.953304E-18
3.610000E+03	4.954997E-18	1.924011E-18
3.620000E+03	4.920216E-18	1.895437E-18
3.630000E+03	4.886729E-18	1.867527E-18
3.640000E+03	4.854500E-18	1.840252E-18
3.650000E+03	4.823547E-18	1.813604E-18
3.660000E+03	4.793785E-18	1.787536E-18
3.670000E+03	4.765292E-18	1.762063E-18
3.680000E+03	4.737939E-18	1.737123E-18
3.690000E+03	4.711756E-18	1.712712E-18
3.700000E+03	4.686725E-18	1.688811E-18
3.710000E+03	4.662881E-18	1.665418E-18
3.720000E+03	4.640163E-18	1.642497E-18
3.730000E+03	4.618611E-18	1.620050E-18
3.740000E+03	4.598220E-18	1.598061E-18
3.750000E+03	4.579034E-18	1.576531E-18
3.760000E+03	4.561054E-18	1.555446E-18
3.770000E+03	4.544328E-18	1.534810E-18
3.780000E+03	4.528865E-18	1.514609E-18
3.790000E+03	4.514675E-18	1.494834E-18
3.800000E+03	4.501905E-18	1.475517E-18
3.810000E+03	4.490485E-18	1.456621E-18
3.820000E+03	4.480524E-18	1.438163E-18
3.830000E+03	4.472134E-18	1.420164E-18
3.840000E+03	4.465302E-18	1.402602E-18
3.850000E+03	4.460106E-18	1.385484E-18
3.860000E+03	4.456670E-18	1.368829E-18
3.870000E+03	4.455082E-18	1.352644E-18
3.880000E+03	4.455433E-18	1.336937E-18
3.890000E+03	4.457783E-18	1.321702E-18
3.900000E+03	4.462278E-18	1.306962E-18
3.910000E+03	4.469030E-18	1.292725E-18
3.920000E+03	4.478162E-18	1.279001E-18
3.930000E+03	4.489802E-18	1.265799E-18
3.940000E+03	4.504090E-18	1.253131E-18
3.950000E+03	4.521217E-18	1.241021E-18
3.960000E+03	4.541343E-18	1.229480E-18
3.970000E+03	4.564602E-18	1.218511E-18
3.980000E+03	4.591261E-18	1.208150E-18
3.990000E+03	4.621483E-18	1.198403E-18
4.000000E+03	4.655528E-18	1.189296E-18
4.010000E+03	4.693631E-18	1.180848E-18
4.020000E+03	4.736008E-18	1.173068E-18
4.030000E+03	4.783022E-18	1.165998E-18
4.040000E+03	4.834931E-18	1.159651E-18
4.050000E+03	4.892109E-18	1.154064E-18
4.060000E+03	4.954912E-18	1.149263E-18
4.070000E+03	5.023731E-18	1.145279E-18
4.080000E+03	5.098993E-18	1.142145E-18
4.090000E+03	5.181205E-18	1.139908E-18
4.100000E+03	5.270831E-18	1.138599E-18
4.110000E+03	5.368425E-18	1.138262E-18
4.120000E+03	5.474690E-18	1.138966E-18
4.130000E+03	5.590198E-18	1.140746E-18
4.140000E+03	5.715727E-18	1.143674E-18
4.150000E+03	5.852081E-18	1.147817E-18
4.160000E+03	6.000142E-18	1.153250E-18
4.170000E+03	6.160881E-18	1.160059E-18
4.180000E+03	6.335367E-18	1.168339E-18
4.190000E+03	6.524775E-18	1.178197E-18
4.200000E+03	6.730405E-18	1.189753E-18
4.210000E+03	6.953688E-18	1.203142E-18
4.220000E+03	7.196206E-18	1.218518E-18
4.230000E+03	7.459639E-18	1.236044E-18
4.240000E+03	7.745915E-18	1.255916E-18
4.250000E+03	8.057230E-18	1.278367E-18
4.260000E+03	8.395949E-18	1.303651E-18
4.270000E+03	8.764537E-18	1.332030E-18
4.280000E+03	9.165949E-18	1.363843E-18
4.290000E+03	9.603381E-18	1.399456E-18
4.300000E+03	1.008037E-17	1.439289E-18
4.310000E+03	1.060082E-17	1.483813E-18
4.320000E+03	1.116897E-17	1.533547E-18
4.330000E+03	1.178977E-17	1.589117E-18
4.340000E+03	1.246829E-17	1.651164E-18
4.350000E+03	1.321053E-17	1.720463E-18
4.360000E+03	1.402286E-17	1.797842E-18
4.370000E+03	1.491243E-17	1.884231E-18
4.380000E+03	1.588689E-17	1.980632E-18
4.390000E+03	1.695476E-17	2.088154E-18
4.400000E+03	1.812517E-17	2.207982E-18
4.410000E+03	1.940837E-17	2.341433E-18
4.420000E+03	2.081514E-17	2.489888E-18
4.430000E+03	2.235712E-17	2.654819E-18
4.440000E+03	2.404727E-17	2.837849E-18
4.450000E+03	2.589913E-17	3.040661E-18
4.460000E+03	2.792743E-17	3.265069E-18
4.470000E+03	3.014823E-17	3.513031E-18
4.480000E+03	3.257782E-17	3.786529E-18
4.490000E+03	3.523433E-17	4.087751E-18
4.500000E+03	3.813666E-17	4.418973E-18
4.510000E+03	4.130432E-17	4.782543E-18
4.520000E+03	4.475802E-17	5.180961E-18
4.530000E+03	4.851929E-17	5.616833E-18
4.540000E+03	5.261034E-17	6.092876E-18
4.550000E+03	5.705391E-17	6.611908E-18
4.560000E+03	6.187248E-17	7.176774E-18
4.570000E+03	6.708840E-17	7.790388E-18
4.580000E+03	7.272568E-17	8.455955E-18
4.590000E+03	7.880521E-17	9.176458E-18
4.600000E+03	8.534733E-17	9.954976E-18
4.610000E+03	9.237254E-17	1.079481E-17
4.620000E+03	9.989889E-17	1.169922E-17
4.630000E+03	1.079391E-16	1.267111E-17
4.640000E+03	1.165090E-16	1.371406E-17
4.650000E+03	1.256138E-16	1.483074E-17
4.660000E+03	1.352615E-16	1.602451E-17
4.670000E+03	1.454525E-16	1.729819E-17
4.680000E+03	1.561828E-16	1.865440E-17
4.690000E+03	1.674431E-16	2.009547E-17
4.700000E+03	1.792192E-16	2.162335E-17
4.710000E+03	1.914952E-16	2.323999E-17
4.720000E+03	2.042451E-16	2.494615E-17
4.730000E+03	2.174398E-16	2.674211E-17
4.740000E+03	2.310475E-16	2.862766E-17
4.750000E+03	2.450251E-16	3.060088E-17
4.760000E+03	2.593376E-16	3.266034E-17
4.770000E+03	2.739313E-16	3.480176E-17
4.780000E+03	2.887620E-16	3.702137E-17
4.790000E+03	3.037779E-16	3.931368E-17
4.800000E+03	3.189182E-16	4.167129E-17
4.810000E+03	3.341293E-16	4.408682E-17
4.820000E+03	3.493565E-16	4.655200E-17
4.830000E+03	3.645341E-16	4.905617E-17
4.840000E+03	3.796062E-16	5.158916E-17
4.850000E+03	3.945137E-16	5.413956E-17
4.860000E+03	4.091941E-16	5.669473E-17
4.870000E+03	4.235897E-16	5.924199E-17
4.880000E+03	4.376490E-16	6.176887E-17
4.890000E+03	4.513142E-16	6.426145E-17
4.900000E+03	4.645389E-16	6.670697E-17
4.910000E+03	4.772655E-16	6.909069E-17
4.920000E+03	4.894540E-16	7.140003E-17
4.930000E+03	5.010631E-16	7.362213E-17
4.940000E+03	5.120503E-16	7.574378E-17
4.950000E+03	5.223876E-16	7.775390E-17
4.960000E+03	5.320405E-16	7.964059E-17
4.970000E+03	5.409899E-16	8.139433E-17
4.980000E+03	5.492098E-16	8.300490E-17
4.990000E+03	5.566842E-16	8.446388E-17
5.000000E+03	5.633957E-16	8.576302E-17
5.010000E+03	5.693485E-16	8.689780E-17
5.020000E+03	5.745275E-16	8.786134E-17
5.030000E+03	5.789336E-16	8.864963E-17
5.040000E+03	5.825771E-16	8.926080E-17
5.050000E+03	5.854604E-16	8.969229E-17
5.060000E+03	5.875948E-16	8.994359E-17
5.070000E+03	5.889951E-16	9.001530E-17
5.080000E+03	5.896789E-16	8.990911E-17
5.090000E+03	5.896604E-16	8.962681E-17
5.100000E+03	5.889619E-16	8.917207E-17
5.110000E+03	5.876144E-16	8.855038E-17
5.120000E+03	5.856321E-16	8.776536E-17
5.130000E+03	5.830552E-16	8.682500E-17
5.140000E+03	5.798950E-16	8.573352E-17
5.150000E+03	5.761940E-16	8.450023E-17
5.160000E+03	5.719774E-16	8.313230E-17
5.170000E+03	5.672770E-16	8.163831E-17
5.180000E+03	5.621251E-16	8.002718E-17
5.190000E+03	5.565484E-16	7.830740E-17
5.200000E+03	5.505792E-16	7.648855E-17
5.210000E+03	5.442444E-16	7.457965E-17
5.220000E+03	5.375870E-16	7.259217E-17
5.230000E+03	5.306221E-16	7.053391E-17
5.240000E+03	5.233861E-16	6.841574E-17
5.250000E+03	5.159093E-16	6.624779E-17
5.260000E+03	5.082212E-16	6.404014E-17
5.270000E+03	5.003401E-16	6.180158E-17
5.280000E+03	4.922988E-16	5.954278E-17
5.290000E+03	4.841192E-16	5.727308E-17
5.300000E+03	4.758271E-16	5.500239E-17
5.310000E+03	4.674423E-16	5.273995E-17
5.320000E+03	4.589932E-16	5.049604E-17
5.330000E+03	4.504930E-16	4.827929E-17
5.340000E+03	4.419633E-16	4.609936E-17
5.350000E+03	4.334199E-16	4.396545E-17
5.360000E+03	4.248866E-16	4.188758E-17
5.370000E+03	4.163685E-16	3.987410E-17
5.380000E+03	4.078873E-16	3.793505E-17
5.390000E+03	3.994548E-16	3.607957E-17
5.400000E+03	3.910821E-16	3.431675E-17
5.410000E+03	3.827716E-16	3.265479E-17
5.420000E+03	3.745332E-16	3.110228E-17
5.430000E+03	3.663757E-16	2.966715E-17
5.440000E+03	3.582927E-16	2.835517E-17
5.450000E+03	3.502923E-16	2.717203E-17
5.460000E+03	3.423713E-16	2.612075E-17
5.470000E+03	3.345330E-16	2.520264E-17
5.480000E+03	3.267969E-16	2.441761E-17
5.490000E+03	3.191670E-16	2.376157E-17
5.500000E+03	3.116593E-16	2.322855E-17
5.510000E+03	3.042817E-16	2.280940E-17
5.520000E+03	2.970497E-16	2.249354E-17
5.530000E+03	2.899622E-16	2.226771E-17
5.540000E+03	2.830264E-16	2.211857E-17
5.550000E+03	2.762425E-16	2.203221E-17
5.560000E+03	2.696185E-16	2.199584E-17
5.570000E+03	2.631506E-16	2.199667E-17
5.580000E+03	2.568399E-16	2.202356E-17
5.590000E+03	2.506847E-16	2.206647E-17
5.600000E+03	2.446880E-16	2.211719E-17
5.610000E+03	2.388446E-16	2.216821E-17
5.620000E+03	2.331544E-16	2.221371E-17
5.630000E+03	2.276170E-16	2.224903E-17
5.640000E+03	2.222293E-16	2.227030E-17
5.650000E+03	2.169905E-16	2.227475E-17
5.660000E+03	2.118950E-16	2.225994E-17
5.670000E+03	2.069418E-16	2.222448E-17
5.680000E+03	2.021298E-16	2.216759E-17
5.690000E+03	1.974554E-16	2.208864E-17
5.700000E+03	1.929153E-16	2.198742E-17
5.710000E+03	1.885060E-16	2.186398E-17
5.720000E+03	1.842282E-16	2.171911E-17
5.730000E+03	1.800743E-16	2.155285E-17
5.740000E+03	1.760449E-16	2.136632E-17
5.750000E+03	1.721366E-16	2.116028E-17
5.760000E+03	1.683441E-16	2.093539E-17
5.770000E+03	1.646662E-16	2.069280E-17
5.780000E+03	1.611012E-16	2.043373E-17
5.790000E+03	1.576444E-16	2.015895E-17
5.800000E+03	1.542926E-16	1.986952E-17
5.810000E+03	1.510463E-16	1.956690E-17
5.820000E+03	1.478991E-16	1.925172E-17
5.830000E+03	1.448499E-16	1.892523E-17
5.840000E+03	1.418961E-16	1.858848E-17
5.850000E+03	1.390349E-16	1.824248E-17
5.860000E+03	1.362654E-16	1.788845E-17
5.870000E+03	1.335821E-16	1.752700E-17
5.880000E+03	1.309858E-16	1.715952E-17
5.890000E+03	1.284728E-16	1.678678E-17
5.900000E+03	1.260410E-16	1.640976E-17
5.910000E+03	1.236885E-16	1.602942E-17
5.920000E+03	1.214135E-16	1.564672E-17
5.930000E+03	1.192155E-16	1.526279E-17
5.940000E+03	1.170903E-16	1.487824E-17
5.950000E+03	1.150366E-16	1.449404E-17
5.960000E+03	1.130542E-16	1.411134E-17
5.970000E+03	1.111420E-16	1.373113E-17
5.980000E+03	1.092964E-16	1.335412E-17
5.990000E+03	1.075190E-16	1.298168E-17
6.000000E+03	1.058052E-16	1.261443E-17
6.010000E+03	1.041582E-16	1.225396E-17
6.020000E+03	1.025737E-16	1.190102E-17
6.030000E+03	1.010514E-16	1.155685E-17
6.040000E+03	9.959227E-17	1.122290E-17
6.050000E+03	9.819503E-17	1.090041E-17
6.060000E+03	9.685970E-17	1.059082E-17
6.070000E+03	9.558412E-17	1.029541E-17
6.080000E+03	9.437083E-17	1.001600E-17
6.090000E+03	9.321677E-17	9.753889E-18
6.100000E+03	9.212463E-17	9.511005E-18
6.110000E+03	9.109372E-17	9.288943E-18
6.120000E+03	9.012342E-17	9.089291E-18
6.130000E+03	8.921415E-17	8.913699E-18
6.140000E+03	8.836734E-17	8.763819E-18
6.150000E+03	8.758211E-17	8.640921E-18
6.160000E+03	8.685843E-17	8.546157E-18
6.170000E+03	8.619821E-17	8.480611E-18
6.180000E+03	8.559868E-17	8.444602E-18
6.190000E+03	8.505999E-17	8.438404E-18
6.200000E+03	8.458190E-17	8.461905E-18
6.210000E+03	8.416384E-17	8.514627E-18
6.220000E+03	8.380274E-17	8.595533E-18
6.230000E+03	8.349632E-17	8.703402E-18
6.240000E+03	8.324317E-17	8.836894E-18
6.250000E+03	8.303957E-17	8.994281E-18
6.260000E+03	8.288386E-17	9.173962E-18
6.270000E+03	8.277325E-17	9.374179E-18
6.280000E+03	8.270609E-17	9.593305E-18
6.290000E+03	8.267968E-17	9.829635E-18
6.300000E+03	8.269139E-17	1.008153E-17
6.310000E+03	8.273983E-17	1.034758E-17
6.320000E+03	8.282373E-17	1.062648E-17
6.330000E+03	8.293969E-17	1.091674E-17
6.340000E+03	8.308671E-17	1.121727E-17
6.350000E+03	8.326395E-17	1.152709E-17
6.360000E+03	8.346837E-17	1.184497E-17
6.370000E+03	8.370055E-17	1.217031E-17
6.380000E+03	8.395888E-17	1.250222E-17
6.390000E+03	8.424186E-17	1.283992E-17
6.400000E+03	8.454807E-17	1.318266E-17
6.410000E+03	8.487866E-17	1.353016E-17
6.420000E+03	8.523121E-17	1.388162E-17
6.430000E+03	8.560712E-17	1.423689E-17
6.440000E+03	8.600543E-17	1.459547E-17
6.450000E+03	8.642522E-17	1.495691E-17
6.460000E+03	8.686696E-17	1.532099E-17
6.470000E+03	8.732993E-17	1.568735E-17
6.480000E+03	8.781477E-17	1.605586E-17
6.490000E+03	8.831819E-17	1.642569E-17
6.500000E+03	8.884230E-17	1.679703E-17
6.510000E+03	8.938660E-17	1.716958E-17
6.520000E+03	8.994924E-17	1.754280E-17
6.530000E+03	9.053116E-17	1.791667E-17
6.540000E+03	9.113198E-17	1.829094E-17
6.550000E+03	9.175133E-17	1.866536E-17
6.560000E+03	9.238889E-17	1.903969E-17
6.570000E+03	9.304585E-17	1.941400E-17
6.580000E+03	9.372047E-17	1.978776E-17
6.590000E+03	9.441247E-17	2.016073E-17
6.600000E+03	9.512319E-17	2.053301E-17
6.610000E+03	9.585244E-17	2.090439E-17
6.620000E+03	9.659847E-17	2.127432E-17
6.630000E+03	9.736270E-17	2.164291E-17
6.640000E+03	9.814336E-17	2.200959E-17
6.650000E+03	9.894361E-17	2.237486E-17
6.660000E+03	9.976002E-17	2.273776E-17
6.670000E+03	1.005924E-16	2.309802E-17
6.680000E+03	1.014424E-16	2.345582E-17
6.690000E+03	1.023098E-16	2.381089E-17
6.700000E+03	1.031928E-16	2.416259E-17
6.710000E+03	1.040913E-16	2.451063E-17
6.720000E+03	1.050069E-16	2.485517E-17
6.730000E+03	1.059377E-16	2.519550E-17
6.740000E+03	1.068853E-16	2.553178E-17
6.750000E+03	1.078460E-16	2.586280E-17
6.760000E+03	1.088232E-16	2.618915E-17
6.770000E+03	1.098130E-16	2.650959E-17
6.780000E+03	1.108191E-16	2.682473E-17
6.790000E+03	1.118373E-16	2.713325E-17
6.800000E+03	1.128695E-16	2.743529E-17
6.810000E+03	1.139153E-16	2.773048E-17
6.820000E+03	1.149724E-16	2.801792E-17
6.830000E+03	1.160427E-16	2.829774E-17
6.840000E+03	1.171237E-16	2.856901E-17
6.850000E+03	1.182173E-16	2.883184E-17
6.860000E+03	1.193188E-16	2.908473E-17
6.870000E+03	1.204320E-16	2.932831E-17
6.880000E+03	1.215546E-16	2.956158E-17
6.890000E+03	1.226859E-16	2.978409E-17
6.900000E+03	1.238233E-16	2.999479E-17
6.910000E+03	1.249708E-16	3.019433E-17
6.920000E+03	1.261209E-16	3.038049E-17
6.930000E+03	1.272803E-16	3.055450E-17
6.940000E+03	1.284433E-16	3.071469E-17
6.950000E+03	1.296095E-16	3.086054E-17
6.960000E+03	1.307807E-16	3.099210E-17
6.970000E+03	1.319536E-16	3.110827E-17
6.980000E+03	1.331275E-16	3.120850E-17
6.990000E+03	1.343016E-16	3.129225E-17
7.000000E+03	1.354751E-16	3.135898E-17
7.010000E+03	1.366471E-16	3.140817E-17
7.020000E+03	1.378142E-16	3.143865E-17
7.030000E+03	1.389806E-16	3.145114E-17
7.040000E+03	1.401374E-16	3.144325E-17
7.050000E+03	1.412917E-16	3.141633E-17
7.060000E+03	1.424340E-16	3.136801E-17
7.070000E+03	1.435690E-16	3.129905E-17
7.080000E+03	1.446926E-16	3.120835E-17
7.090000E+03	1.458036E-16	3.109544E-17
7.100000E+03	1.469037E-16	3.096054E-17
7.110000E+03	1.479859E-16	3.080199E-17
7.120000E+03	1.490516E-16	3.062003E-17
7.130000E+03	1.500966E-16	3.041371E-17
7.140000E+03	1.511224E-16	3.018336E-17
7.150000E+03	1.521277E-16	2.992870E-17
7.160000E+03	1.531079E-16	2.964893E-17
7.170000E+03	1.540646E-16	2.934448E-17
7.180000E+03	1.549900E-16	2.901409E-17
7.190000E+03	1.558888E-16	2.865890E-17
7.200000E+03	1.567564E-16	2.827838E-17
7.210000E+03	1.575878E-16	2.787207E-17
7.220000E+03	1.583845E-16	2.744079E-17
7.230000E+03	1.591450E-16	2.698485E-17
7.240000E+03	1.598644E-16	2.650411E-17
7.250000E+03	1.605408E-16	2.599915E-17
7.260000E+03	1.611726E-16	2.547066E-17
7.270000E+03	1.617580E-16	2.491949E-17
7.280000E+03	1.622954E-16	2.434663E-17
7.290000E+03	1.627764E-16	2.375228E-17
7.300000E+03	1.632059E-16	2.313885E-17
7.310000E+03	1.635789E-16	2.250748E-17
7.320000E+03	1.638904E-16	2.185959E-17
7.330000E+03	1.641422E-16	2.119783E-17
7.340000E+03	1.643259E-16	2.052382E-17
7.350000E+03	1.644400E-16	1.984047E-17
7.360000E+03	1.644830E-16	1.915109E-17
7.370000E+03	1.644502E-16	1.845901E-17
7.380000E+03	1.643437E-16	1.776890E-17
7.390000E+03	1.641520E-16	1.708443E-17
7.400000E+03	1.638810E-16	1.641176E-17
7.410000E+03	1.635230E-16	1.575623E-17
7.420000E+03	1.630807E-16	1.512484E-17
7.430000E+03	1.625502E-16	1.452453E-17
7.440000E+03	1.619311E-16	1.396305E-17
7.450000E+03	1.612269E-16	1.344878E-17
7.460000E+03	1.604342E-16	1.298953E-17
7.470000E+03	1.595638E-16	1.259386E-17
7.480000E+03	1.586094E-16	1.226807E-17
7.490000E+03	1.575787E-16	1.201815E-17
7.500000E+03	1.564694E-16	1.184726E-17
7.510000E+03	1.552932E-16	1.175724E-17
7.520000E+03	1.540482E-16	1.174629E-17
7.530000E+03	1.527364E-16	1.181032E-17
7.540000E+03	1.513631E-16	1.194335E-17
7.550000E+03	1.499305E-16	1.213754E-17
7.560000E+03	1.484478E-16	1.238456E-17
7.570000E+03	1.469108E-16	1.267464E-17
7.580000E+03	1.453255E-16	1.299893E-17
7.590000E+03	1.436977E-16	1.334908E-17
7.600000E+03	1.420270E-16	1.371688E-17
7.610000E+03	1.403194E-16	1.409555E-17
7.620000E+03	1.385744E-16	1.447856E-17
7.630000E+03	1.368012E-16	1.486120E-17
7.640000E+03	1.349962E-16	1.523825E-17
7.650000E+03	1.331682E-16	1.560655E-17
7.660000E+03	1.313139E-16	1.596218E-17
7.670000E+03	1.294420E-16	1.630325E-17
7.680000E+03	1.275490E-16	1.662687E-17
7.690000E+03	1.256432E-16	1.693209E-17
7.700000E+03	1.237243E-16	1.721719E-17
7.710000E+03	1.217946E-16	1.748116E-17
7.720000E+03	1.198563E-16	1.772325E-17
7.730000E+03	1.179118E-16	1.794296E-17
7.740000E+03	1.159631E-16	1.814000E-17
7.750000E+03	1.140097E-16	1.831380E-17
7.760000E+03	1.120588E-16	1.846525E-17
