#wls	flux	fluxerr
1.600000E+03	2.222104E-16	2.155795E-16
1.640000E+03	2.301305E-16	2.195445E-16
1.680000E+03	2.379519E-16	2.230767E-16
1.720000E+03	2.456464E-16	2.261466E-16
1.760000E+03	2.531081E-16	2.286570E-16
1.800000E+03	2.602914E-16	2.305718E-16
1.840000E+03	2.670963E-16	2.318120E-16
1.880000E+03	2.734603E-16	2.323384E-16
1.920000E+03	2.792909E-16	2.320925E-16
1.960000E+03	2.844894E-16	2.310196E-16
2.000000E+03	2.889115E-16	2.290373E-16
2.040000E+03	2.924563E-16	2.261103E-16
2.080000E+03	2.950051E-16	2.221998E-16
2.120000E+03	2.963907E-16	2.172429E-16
2.160000E+03	2.964667E-16	2.112083E-16
2.200000E+03	2.950621E-16	2.040619E-16
2.240000E+03	2.920316E-16	1.958043E-16
2.280000E+03	2.873417E-16	1.865238E-16
2.320000E+03	2.810268E-16	1.763572E-16
2.360000E+03	2.732872E-16	1.655412E-16
2.400000E+03	2.643031E-16	1.542856E-16
2.440000E+03	2.542388E-16	1.427767E-16
2.480000E+03	2.432771E-16	1.311972E-16
2.520000E+03	2.315627E-16	1.196940E-16
2.560000E+03	2.192237E-16	1.083932E-16
2.600000E+03	2.064193E-16	9.742295E-17
2.640000E+03	1.932699E-16	8.687891E-17
2.680000E+03	1.799193E-16	7.685432E-17
2.720000E+03	1.664911E-16	6.741961E-17
2.760000E+03	1.531326E-16	5.864113E-17
2.800000E+03	1.399714E-16	5.056265E-17
2.840000E+03	1.271438E-16	4.321727E-17
2.880000E+03	1.147808E-16	3.662214E-17
2.920000E+03	1.030041E-16	3.077813E-17
2.960000E+03	9.192153E-17	2.566998E-17
3.000000E+03	8.161999E-17	2.126675E-17
3.010000E+03	7.917372E-17	2.027089E-17
3.020000E+03	7.678170E-17	1.931571E-17
3.030000E+03	7.444243E-17	1.839982E-17
3.040000E+03	7.215936E-17	1.752304E-17
3.050000E+03	6.993082E-17	1.668394E-17
3.060000E+03	6.775685E-17	1.588150E-17
3.070000E+03	6.563740E-17	1.511470E-17
3.080000E+03	6.357503E-17	1.438309E-17
3.090000E+03	6.156677E-17	1.368497E-17
3.100000E+03	5.961486E-17	1.301982E-17
3.110000E+03	5.771763E-17	1.238627E-17
3.120000E+03	5.587578E-17	1.178346E-17
3.130000E+03	5.408873E-17	1.121028E-17
3.140000E+03	5.235588E-17	1.066563E-17
3.150000E+03	5.067658E-17	1.014841E-17
3.160000E+03	4.905108E-17	9.657744E-18
3.170000E+03	4.747769E-17	9.192365E-18
3.180000E+03	4.595651E-17	8.751395E-18
3.190000E+03	4.448665E-17	8.333789E-18
3.200000E+03	4.306723E-17	7.938525E-18
3.210000E+03	4.169805E-17	7.564738E-18
3.220000E+03	4.037667E-17	7.211184E-18
3.230000E+03	3.910422E-17	6.877291E-18
3.240000E+03	3.787764E-17	6.561772E-18
3.250000E+03	3.669780E-17	6.264065E-18
3.260000E+03	3.556240E-17	5.983080E-18
3.270000E+03	3.447093E-17	5.718076E-18
3.280000E+03	3.342229E-17	5.468236E-18
3.290000E+03	3.241486E-17	5.232690E-18
3.300000E+03	3.144853E-17	5.010849E-18
3.310000E+03	3.052121E-17	4.801827E-18
3.320000E+03	2.963183E-17	4.604939E-18
3.330000E+03	2.878018E-17	4.419661E-18
3.340000E+03	2.796429E-17	4.245219E-18
3.350000E+03	2.718310E-17	4.081014E-18
3.360000E+03	2.643558E-17	3.926476E-18
3.370000E+03	2.572105E-17	3.781112E-18
3.380000E+03	2.503776E-17	3.644296E-18
3.390000E+03	2.438476E-17	3.515543E-18
3.400000E+03	2.376141E-17	3.394439E-18
3.410000E+03	2.316643E-17	3.280495E-18
3.420000E+03	2.259890E-17	3.173300E-18
3.430000E+03	2.205737E-17	3.072382E-18
3.440000E+03	2.154128E-17	2.977421E-18
3.450000E+03	2.104982E-17	2.888071E-18
3.460000E+03	2.058165E-17	2.803939E-18
3.470000E+03	2.013605E-17	2.724727E-18
3.480000E+03	1.971206E-17	2.650123E-18
3.490000E+03	1.930924E-17	2.579898E-18
3.500000E+03	1.892624E-17	2.513715E-18
3.510000E+03	1.856268E-17	2.451381E-18
3.520000E+03	1.821754E-17	2.392627E-18
3.530000E+03	1.789009E-17	2.337234E-18
3.540000E+03	1.757961E-17	2.284996E-18
3.550000E+03	1.728525E-17	2.235701E-18
3.560000E+03	1.700658E-17	2.189196E-18
3.570000E+03	1.674263E-17	2.145273E-18
3.580000E+03	1.649286E-17	2.103781E-18
3.590000E+03	1.625692E-17	2.064606E-18
3.600000E+03	1.603416E-17	2.027596E-18
3.610000E+03	1.582409E-17	1.992630E-18
3.620000E+03	1.562612E-17	1.959578E-18
3.630000E+03	1.543968E-17	1.928318E-18
3.640000E+03	1.526439E-17	1.898756E-18
3.650000E+03	1.509958E-17	1.870767E-18
3.660000E+03	1.494507E-17	1.844290E-18
3.670000E+03	1.480023E-17	1.819213E-18
3.680000E+03	1.466477E-17	1.795467E-18
3.690000E+03	1.453854E-17	1.773004E-18
3.700000E+03	1.442098E-17	1.751730E-18
3.710000E+03	1.431182E-17	1.731586E-18
3.720000E+03	1.421107E-17	1.712551E-18
3.730000E+03	1.411833E-17	1.694555E-18
3.740000E+03	1.403335E-17	1.677549E-18
3.750000E+03	1.395615E-17	1.661516E-18
3.760000E+03	1.388634E-17	1.646393E-18
3.770000E+03	1.382382E-17	1.632152E-18
3.780000E+03	1.376858E-17	1.618777E-18
3.790000E+03	1.372039E-17	1.606226E-18
3.800000E+03	1.367913E-17	1.594473E-18
3.810000E+03	1.364469E-17	1.583491E-18
3.820000E+03	1.361694E-17	1.573253E-18
3.830000E+03	1.359589E-17	1.563749E-18
3.840000E+03	1.358131E-17	1.554940E-18
3.850000E+03	1.357318E-17	1.546815E-18
3.860000E+03	1.357152E-17	1.539362E-18
3.870000E+03	1.357609E-17	1.532546E-18
3.880000E+03	1.358678E-17	1.526341E-18
3.890000E+03	1.360368E-17	1.520751E-18
3.900000E+03	1.362669E-17	1.515750E-18
3.910000E+03	1.365557E-17	1.511303E-18
3.920000E+03	1.369043E-17	1.507409E-18
3.930000E+03	1.373125E-17	1.504059E-18
3.940000E+03	1.377769E-17	1.501201E-18
3.950000E+03	1.382986E-17	1.498838E-18
3.960000E+03	1.388772E-17	1.496955E-18
3.970000E+03	1.395117E-17	1.495528E-18
3.980000E+03	1.401995E-17	1.494520E-18
3.990000E+03	1.409426E-17	1.493942E-18
4.000000E+03	1.417388E-17	1.493758E-18
4.010000E+03	1.425865E-17	1.493941E-18
4.020000E+03	1.434867E-17	1.494492E-18
4.030000E+03	1.444368E-17	1.495374E-18
4.040000E+03	1.454379E-17	1.496586E-18
4.050000E+03	1.464861E-17	1.498081E-18
4.060000E+03	1.475835E-17	1.499871E-18
4.070000E+03	1.487276E-17	1.501922E-18
4.080000E+03	1.499170E-17	1.504211E-18
4.090000E+03	1.511525E-17	1.506740E-18
4.100000E+03	1.524305E-17	1.509466E-18
4.110000E+03	1.537530E-17	1.512405E-18
4.120000E+03	1.551164E-17	1.515513E-18
4.130000E+03	1.565205E-17	1.518786E-18
4.140000E+03	1.579650E-17	1.522220E-18
4.150000E+03	1.594474E-17	1.525789E-18
4.160000E+03	1.609677E-17	1.529493E-18
4.170000E+03	1.625244E-17	1.533320E-18
4.180000E+03	1.641151E-17	1.537252E-18
4.190000E+03	1.657408E-17	1.541307E-18
4.200000E+03	1.673978E-17	1.545459E-18
4.210000E+03	1.690874E-17	1.549735E-18
4.220000E+03	1.708056E-17	1.554114E-18
4.230000E+03	1.725524E-17	1.558619E-18
4.240000E+03	1.743267E-17	1.563263E-18
4.250000E+03	1.761243E-17	1.568039E-18
4.260000E+03	1.779467E-17	1.572994E-18
4.270000E+03	1.797912E-17	1.578143E-18
4.280000E+03	1.816551E-17	1.583504E-18
4.290000E+03	1.835357E-17	1.589097E-18
4.300000E+03	1.854330E-17	1.594972E-18
4.310000E+03	1.873457E-17	1.601170E-18
4.320000E+03	1.892679E-17	1.607690E-18
4.330000E+03	1.912014E-17	1.614598E-18
4.340000E+03	1.931400E-17	1.621892E-18
4.350000E+03	1.950854E-17	1.629632E-18
4.360000E+03	1.970330E-17	1.637822E-18
4.370000E+03	1.989828E-17	1.646495E-18
4.380000E+03	2.009351E-17	1.655679E-18
4.390000E+03	2.028898E-17	1.665392E-18
4.400000E+03	2.048471E-17	1.675642E-18
4.410000E+03	2.068089E-17	1.686439E-18
4.420000E+03	2.087768E-17	1.697782E-18
4.430000E+03	2.107512E-17	1.709648E-18
4.440000E+03	2.127341E-17	1.722020E-18
4.450000E+03	2.147241E-17	1.734844E-18
4.460000E+03	2.167251E-17	1.748106E-18
4.470000E+03	2.187360E-17	1.761743E-18
4.480000E+03	2.207572E-17	1.775703E-18
4.490000E+03	2.227893E-17	1.789933E-18
4.500000E+03	2.248331E-17	1.804382E-18
4.510000E+03	2.268892E-17	1.818998E-18
4.520000E+03	2.289585E-17	1.833734E-18
4.530000E+03	2.310379E-17	1.848514E-18
4.540000E+03	2.331322E-17	1.863328E-18
4.550000E+03	2.352384E-17	1.878110E-18
4.560000E+03	2.373573E-17	1.892829E-18
4.570000E+03	2.394879E-17	1.907446E-18
4.580000E+03	2.416334E-17	1.921958E-18
4.590000E+03	2.437927E-17	1.936337E-18
4.600000E+03	2.459627E-17	1.950542E-18
4.610000E+03	2.481490E-17	1.964605E-18
4.620000E+03	2.503484E-17	1.978497E-18
4.630000E+03	2.525599E-17	1.992209E-18
4.640000E+03	2.547873E-17	2.005770E-18
4.650000E+03	2.570321E-17	2.019199E-18
4.660000E+03	2.592889E-17	2.032462E-18
4.670000E+03	2.615640E-17	2.045619E-18
4.680000E+03	2.638570E-17	2.058679E-18
4.690000E+03	2.661674E-17	2.071651E-18
4.700000E+03	2.684971E-17	2.084566E-18
4.710000E+03	2.708460E-17	2.097437E-18
4.720000E+03	2.732164E-17	2.110297E-18
4.730000E+03	2.756032E-17	2.123122E-18
4.740000E+03	2.780087E-17	2.135945E-18
4.750000E+03	2.804357E-17	2.148801E-18
4.760000E+03	2.828763E-17	2.161645E-18
4.770000E+03	2.853360E-17	2.174532E-18
4.780000E+03	2.878121E-17	2.187456E-18
4.790000E+03	2.903021E-17	2.200413E-18
4.800000E+03	2.928116E-17	2.213460E-18
4.810000E+03	2.953324E-17	2.226549E-18
4.820000E+03	2.978729E-17	2.239761E-18
4.830000E+03	3.004248E-17	2.253050E-18
4.840000E+03	3.029938E-17	2.266474E-18
4.850000E+03	3.055741E-17	2.280009E-18
4.860000E+03	3.081715E-17	2.293715E-18
4.870000E+03	3.107800E-17	2.307566E-18
4.880000E+03	3.134023E-17	2.321602E-18
4.890000E+03	3.160383E-17	2.335836E-18
4.900000E+03	3.186846E-17	2.350263E-18
4.910000E+03	3.213406E-17	2.364893E-18
4.920000E+03	3.240060E-17	2.379736E-18
4.930000E+03	3.266832E-17	2.394822E-18
4.940000E+03	3.293651E-17	2.410107E-18
4.950000E+03	3.320573E-17	2.425636E-18
4.960000E+03	3.347523E-17	2.441357E-18
4.970000E+03	3.374521E-17	2.457280E-18
4.980000E+03	3.401521E-17	2.473367E-18
4.990000E+03	3.428505E-17	2.489593E-18
5.000000E+03	3.455455E-17	2.505930E-18
5.010000E+03	3.482385E-17	2.522369E-18
5.020000E+03	3.509203E-17	2.538822E-18
5.030000E+03	3.535916E-17	2.555269E-18
5.040000E+03	3.562462E-17	2.571637E-18
5.050000E+03	3.588842E-17	2.587899E-18
5.060000E+03	3.614987E-17	2.603975E-18
5.070000E+03	3.640822E-17	2.619782E-18
5.080000E+03	3.666342E-17	2.635288E-18
5.090000E+03	3.691501E-17	2.650436E-18
5.100000E+03	3.716216E-17	2.665143E-18
5.110000E+03	3.740401E-17	2.679327E-18
5.120000E+03	3.764074E-17	2.692990E-18
5.130000E+03	3.787105E-17	2.706030E-18
5.140000E+03	3.809438E-17	2.718403E-18
5.150000E+03	3.831009E-17	2.730069E-18
5.160000E+03	3.851757E-17	2.740994E-18
5.170000E+03	3.871579E-17	2.751121E-18
5.180000E+03	3.890447E-17	2.760455E-18
5.190000E+03	3.908217E-17	2.768922E-18
5.200000E+03	3.924860E-17	2.776534E-18
5.210000E+03	3.940228E-17	2.783227E-18
5.220000E+03	3.954330E-17	2.789049E-18
5.230000E+03	3.967020E-17	2.793941E-18
5.240000E+03	3.978270E-17	2.797929E-18
5.250000E+03	3.987932E-17	2.800957E-18
5.260000E+03	3.995984E-17	2.803052E-18
5.270000E+03	4.002362E-17	2.804217E-18
5.280000E+03	4.006929E-17	2.804396E-18
5.290000E+03	4.009632E-17	2.803591E-18
5.300000E+03	4.010462E-17	2.801834E-18
5.310000E+03	4.009338E-17	2.799099E-18
5.320000E+03	4.006188E-17	2.795365E-18
5.330000E+03	4.000986E-17	2.790641E-18
5.340000E+03	3.993719E-17	2.784938E-18
5.350000E+03	3.984383E-17	2.778275E-18
5.360000E+03	3.972949E-17	2.770644E-18
5.370000E+03	3.959479E-17	2.762103E-18
5.380000E+03	3.943971E-17	2.752658E-18
5.390000E+03	3.926517E-17	2.742380E-18
5.400000E+03	3.907146E-17	2.731291E-18
5.410000E+03	3.886018E-17	2.719501E-18
5.420000E+03	3.863269E-17	2.707099E-18
5.430000E+03	3.838974E-17	2.694128E-18
5.440000E+03	3.813375E-17	2.680739E-18
5.450000E+03	3.786610E-17	2.667010E-18
5.460000E+03	3.758681E-17	2.652913E-18
5.470000E+03	3.729865E-17	2.638610E-18
5.480000E+03	3.700259E-17	2.624129E-18
5.490000E+03	3.669973E-17	2.609501E-18
5.500000E+03	3.639160E-17	2.594782E-18
5.510000E+03	3.607941E-17	2.580000E-18
5.520000E+03	3.576442E-17	2.565182E-18
5.530000E+03	3.544863E-17	2.550408E-18
5.540000E+03	3.513332E-17	2.535705E-18
5.550000E+03	3.482079E-17	2.521173E-18
5.560000E+03	3.451294E-17	2.506891E-18
5.570000E+03	3.421127E-17	2.492908E-18
5.580000E+03	3.391786E-17	2.479324E-18
5.590000E+03	3.363435E-17	2.466213E-18
5.600000E+03	3.336227E-17	2.453650E-18
5.610000E+03	3.310336E-17	2.441728E-18
5.620000E+03	3.285888E-17	2.430519E-18
5.630000E+03	3.262997E-17	2.420089E-18
5.640000E+03	3.241793E-17	2.410525E-18
5.650000E+03	3.222361E-17	2.401890E-18
5.660000E+03	3.204805E-17	2.394262E-18
5.670000E+03	3.189181E-17	2.387696E-18
5.680000E+03	3.175532E-17	2.382238E-18
5.690000E+03	3.163924E-17	2.377956E-18
5.700000E+03	3.154378E-17	2.374889E-18
5.710000E+03	3.146905E-17	2.373071E-18
5.720000E+03	3.141543E-17	2.372557E-18
5.730000E+03	3.138286E-17	2.373372E-18
5.740000E+03	3.137160E-17	2.375561E-18
5.750000E+03	3.138117E-17	2.379116E-18
5.760000E+03	3.141208E-17	2.384101E-18
5.770000E+03	3.146382E-17	2.390498E-18
5.780000E+03	3.153620E-17	2.398314E-18
5.790000E+03	3.162969E-17	2.407600E-18
5.800000E+03	3.174346E-17	2.418301E-18
5.810000E+03	3.187799E-17	2.430464E-18
5.820000E+03	3.203315E-17	2.444076E-18
5.830000E+03	3.220878E-17	2.459125E-18
5.840000E+03	3.240441E-17	2.475565E-18
5.850000E+03	3.262063E-17	2.493428E-18
5.860000E+03	3.285698E-17	2.512660E-18
5.870000E+03	3.311371E-17	2.533261E-18
5.880000E+03	3.339073E-17	2.555196E-18
5.890000E+03	3.368759E-17	2.578403E-18
5.900000E+03	3.400452E-17	2.602870E-18
5.910000E+03	3.434180E-17	2.628586E-18
5.920000E+03	3.469852E-17	2.655450E-18
5.930000E+03	3.507490E-17	2.683446E-18
5.940000E+03	3.547074E-17	2.712529E-18
5.950000E+03	3.588622E-17	2.742684E-18
5.960000E+03	3.632026E-17	2.773806E-18
5.970000E+03	3.677337E-17	2.805912E-18
5.980000E+03	3.724437E-17	2.838897E-18
5.990000E+03	3.773327E-17	2.872753E-18
6.000000E+03	3.823960E-17	2.907445E-18
6.010000E+03	3.876241E-17	2.942904E-18
6.020000E+03	3.930156E-17	2.979135E-18
6.030000E+03	3.985551E-17	3.016044E-18
6.040000E+03	4.042447E-17	3.053679E-18
6.050000E+03	4.100626E-17	3.091917E-18
6.060000E+03	4.160099E-17	3.130817E-18
6.070000E+03	4.220678E-17	3.170298E-18
6.080000E+03	4.282316E-17	3.210392E-18
6.090000E+03	4.344809E-17	3.251023E-18
6.100000E+03	4.408047E-17	3.292192E-18
6.110000E+03	4.471861E-17	3.333862E-18
6.120000E+03	4.536130E-17	3.376036E-18
6.130000E+03	4.600620E-17	3.418636E-18
6.140000E+03	4.665143E-17	3.461616E-18
6.150000E+03	4.729565E-17	3.504969E-18
6.160000E+03	4.793692E-17	3.548641E-18
6.170000E+03	4.857208E-17	3.592476E-18
6.180000E+03	4.919971E-17	3.636438E-18
6.190000E+03	4.981778E-17	3.680434E-18
6.200000E+03	5.042491E-17	3.724396E-18
6.210000E+03	5.102037E-17	3.768288E-18
6.220000E+03	5.160356E-17	3.812062E-18
6.230000E+03	5.217463E-17	3.855713E-18
6.240000E+03	5.273526E-17	3.899330E-18
6.250000E+03	5.328531E-17	3.942858E-18
6.260000E+03	5.382409E-17	3.986188E-18
6.270000E+03	5.435378E-17	4.029417E-18
6.280000E+03	5.487469E-17	4.072495E-18
6.290000E+03	5.538574E-17	4.115268E-18
6.300000E+03	5.588963E-17	4.157857E-18
6.310000E+03	5.638472E-17	4.200065E-18
6.320000E+03	5.687322E-17	4.241978E-18
6.330000E+03	5.735438E-17	4.283467E-18
6.340000E+03	5.782904E-17	4.324525E-18
6.350000E+03	5.829731E-17	4.365098E-18
6.360000E+03	5.875935E-17	4.405137E-18
6.370000E+03	5.921535E-17	4.444605E-18
6.380000E+03	5.966468E-17	4.483407E-18
6.390000E+03	6.010669E-17	4.521456E-18
6.400000E+03	6.054243E-17	4.558796E-18
6.410000E+03	6.097039E-17	4.595287E-18
6.420000E+03	6.139164E-17	4.630987E-18
6.430000E+03	6.180551E-17	4.665830E-18
6.440000E+03	6.221219E-17	4.699820E-18
6.450000E+03	6.261282E-17	4.733038E-18
6.460000E+03	6.300952E-17	4.765640E-18
6.470000E+03	6.340262E-17	4.797652E-18
6.480000E+03	6.379340E-17	4.829177E-18
6.490000E+03	6.418319E-17	4.860322E-18
6.500000E+03	6.457143E-17	4.891049E-18
6.510000E+03	6.496045E-17	4.921547E-18
6.520000E+03	6.535069E-17	4.951855E-18
6.530000E+03	6.574156E-17	4.981939E-18
6.540000E+03	6.613550E-17	5.011992E-18
6.550000E+03	6.653189E-17	5.041977E-18
6.560000E+03	6.693009E-17	5.071851E-18
6.570000E+03	6.733255E-17	5.101809E-18
6.580000E+03	6.773860E-17	5.131804E-18
6.590000E+03	6.814858E-17	5.161869E-18
6.600000E+03	6.856392E-17	5.192115E-18
6.610000E+03	6.898271E-17	5.222402E-18
6.620000E+03	6.940517E-17	5.252751E-18
6.630000E+03	6.983383E-17	5.283353E-18
6.640000E+03	7.026660E-17	5.314054E-18
6.650000E+03	7.070365E-17	5.344867E-18
6.660000E+03	7.114629E-17	5.375891E-18
6.670000E+03	7.159346E-17	5.407045E-18
6.680000E+03	7.204521E-17	5.438335E-18
6.690000E+03	7.250282E-17	5.469854E-18
6.700000E+03	7.296384E-17	5.501416E-18
6.710000E+03	7.342820E-17	5.533012E-18
6.720000E+03	7.389836E-17	5.564826E-18
6.730000E+03	7.437171E-17	5.596653E-18
6.740000E+03	7.484810E-17	5.628477E-18
6.750000E+03	7.532867E-17	5.660375E-18
6.760000E+03	7.581193E-17	5.692224E-18
6.770000E+03	7.629767E-17	5.723997E-18
6.780000E+03	7.678564E-17	5.755661E-18
6.790000E+03	7.727557E-17	5.787181E-18
6.800000E+03	7.776581E-17	5.818414E-18
6.810000E+03	7.825742E-17	5.849420E-18
6.820000E+03	7.875010E-17	5.880157E-18
6.830000E+03	7.924209E-17	5.910472E-18
6.840000E+03	7.973448E-17	5.940424E-18
6.850000E+03	8.022548E-17	5.969858E-18
6.860000E+03	8.071470E-17	5.998725E-18
6.870000E+03	8.120177E-17	6.026979E-18
6.880000E+03	8.168478E-17	6.054461E-18
6.890000E+03	8.216641E-17	6.081355E-18
6.900000E+03	8.264476E-17	6.107512E-18
6.910000E+03	8.311791E-17	6.132782E-18
6.920000E+03	8.358705E-17	6.157250E-18
6.930000E+03	8.405025E-17	6.180775E-18
6.940000E+03	8.450714E-17	6.203337E-18
6.950000E+03	8.495899E-17	6.225037E-18
6.960000E+03	8.540387E-17	6.245749E-18
6.970000E+03	8.584148E-17	6.265465E-18
6.980000E+03	8.627152E-17	6.284186E-18
6.990000E+03	8.669375E-17	6.301914E-18
7.000000E+03	8.710624E-17	6.318533E-18
7.010000E+03	8.751218E-17	6.334299E-18
7.020000E+03	8.790800E-17	6.348979E-18
7.030000E+03	8.829355E-17	6.362585E-18
7.040000E+03	8.867047E-17	6.375258E-18
7.050000E+03	8.903697E-17	6.386889E-18
7.060000E+03	8.939302E-17	6.397496E-18
7.070000E+03	8.973864E-17	6.407095E-18
7.080000E+03	9.007393E-17	6.415700E-18
7.090000E+03	9.040082E-17	6.423455E-18
7.100000E+03	9.071587E-17	6.430117E-18
7.110000E+03	9.101928E-17	6.435694E-18
7.120000E+03	9.131314E-17	6.440326E-18
7.130000E+03	9.159776E-17	6.444017E-18
7.140000E+03	9.187164E-17	6.446644E-18
7.150000E+03	9.213703E-17	6.448337E-18
7.160000E+03	9.239058E-17	6.448836E-18
7.170000E+03	9.263648E-17	6.448402E-18
7.180000E+03	9.287330E-17	6.446902E-18
7.190000E+03	9.310150E-17	6.444334E-18
7.200000E+03	9.331959E-17	6.440565E-18
7.210000E+03	9.353190E-17	6.435861E-18
7.220000E+03	9.373500E-17	6.429959E-18
7.230000E+03	9.393122E-17	6.422999E-18
7.240000E+03	9.411900E-17	6.414858E-18
7.250000E+03	9.430065E-17	6.405687E-18
7.260000E+03	9.447448E-17	6.395375E-18
7.270000E+03	9.464074E-17	6.383952E-18
7.280000E+03	9.480164E-17	6.371595E-18
7.290000E+03	9.495531E-17	6.358219E-18
7.300000E+03	9.510390E-17	6.344023E-18
7.310000E+03	9.524341E-17	6.328813E-18
7.320000E+03	9.537589E-17	6.312817E-18
7.330000E+03	9.550338E-17	6.296280E-18
7.340000E+03	9.562177E-17	6.279059E-18
7.350000E+03	9.573306E-17	6.261438E-18
7.360000E+03	9.583516E-17	6.243454E-18
7.370000E+03	9.593011E-17	6.225436E-18
7.380000E+03	9.601584E-17	6.207466E-18
7.390000E+03	9.609239E-17	6.189786E-18
7.400000E+03	9.615982E-17	6.172659E-18
7.410000E+03	9.621616E-17	6.156235E-18
7.420000E+03	9.626157E-17	6.140814E-18
7.430000E+03	9.629629E-17	6.126706E-18
7.440000E+03	9.632061E-17	6.114228E-18
7.450000E+03	9.633704E-17	6.103824E-18
7.460000E+03	9.634384E-17	6.095654E-18
7.470000E+03	9.634579E-17	6.090257E-18
7.480000E+03	9.634338E-17	6.087863E-18
7.490000E+03	9.633713E-17	6.088650E-18
7.500000E+03	9.632754E-17	6.092729E-18
7.510000E+03	9.631504E-17	6.100139E-18
7.520000E+03	9.630430E-17	6.111087E-18
7.530000E+03	9.629091E-17	6.125104E-18
7.540000E+03	9.627701E-17	6.142059E-18
7.550000E+03	9.626250E-17	6.161627E-18
7.560000E+03	9.624948E-17	6.183576E-18
7.570000E+03	9.623333E-17	6.207219E-18
7.580000E+03	9.621614E-17	6.232280E-18
7.590000E+03	9.619777E-17	6.258345E-18
7.600000E+03	9.618034E-17	6.285164E-18
7.610000E+03	9.615924E-17	6.312074E-18
7.620000E+03	9.613891E-17	6.339042E-18
7.630000E+03	9.611699E-17	6.365638E-18
7.640000E+03	9.609116E-17	6.391477E-18
7.650000E+03	9.606594E-17	6.416685E-18
7.660000E+03	9.603902E-17	6.440985E-18
7.670000E+03	9.601037E-17	6.464301E-18
7.680000E+03	9.597997E-17	6.486605E-18
7.690000E+03	9.594780E-17	6.507906E-18
7.700000E+03	9.591381E-17	6.528248E-18
7.710000E+03	9.588029E-17	6.547858E-18
7.720000E+03	9.584251E-17	6.566507E-18
7.730000E+03	9.580504E-17	6.584612E-18
7.740000E+03	9.576544E-17	6.602119E-18
7.750000E+03	9.572354E-17	6.619131E-18
7.760000E+03	9.567918E-17	6.635746E-18
