#wls	flux	fluxerr
1.600000E+03	3.397392E-16	3.319885E-16
1.640000E+03	3.511575E-16	3.374606E-16
1.680000E+03	3.625011E-16	3.423591E-16
1.720000E+03	3.738217E-16	3.467233E-16
1.760000E+03	3.849867E-16	3.504210E-16
1.800000E+03	3.959202E-16	3.533805E-16
1.840000E+03	4.065675E-16	3.555552E-16
1.880000E+03	4.167936E-16	3.568341E-16
1.920000E+03	4.264858E-16	3.571365E-16
1.960000E+03	4.355208E-16	3.563833E-16
2.000000E+03	4.437035E-16	3.544489E-16
2.040000E+03	4.509299E-16	3.512969E-16
2.080000E+03	4.569405E-16	3.467835E-16
2.120000E+03	4.614911E-16	3.408002E-16
2.160000E+03	4.643862E-16	3.332973E-16
2.200000E+03	4.653746E-16	3.242063E-16
2.240000E+03	4.641716E-16	3.134617E-16
2.280000E+03	4.607500E-16	3.011950E-16
2.320000E+03	4.550668E-16	2.875346E-16
2.360000E+03	4.472933E-16	2.727475E-16
2.400000E+03	4.376222E-16	2.571017E-16
2.440000E+03	4.262414E-16	2.408480E-16
2.480000E+03	4.133517E-16	2.242297E-16
2.520000E+03	3.990789E-16	2.074340E-16
2.560000E+03	3.836203E-16	1.906733E-16
2.600000E+03	3.670970E-16	1.741053E-16
2.640000E+03	3.496599E-16	1.578899E-16
2.680000E+03	3.314493E-16	1.421667E-16
2.720000E+03	3.126351E-16	1.270729E-16
2.760000E+03	2.933814E-16	1.127246E-16
2.800000E+03	2.738608E-16	9.922323E-17
2.840000E+03	2.542755E-16	8.666041E-17
2.880000E+03	2.348236E-16	7.510413E-17
2.920000E+03	2.157197E-16	6.460523E-17
2.960000E+03	1.971742E-16	5.519001E-17
3.000000E+03	1.793832E-16	4.685889E-17
3.010000E+03	1.750731E-16	4.494280E-17
3.020000E+03	1.708239E-16	4.309244E-17
3.030000E+03	1.666371E-16	4.130690E-17
3.040000E+03	1.625180E-16	3.958611E-17
3.050000E+03	1.584641E-16	3.792810E-17
3.060000E+03	1.544772E-16	3.633183E-17
3.070000E+03	1.505649E-16	3.479766E-17
3.080000E+03	1.467218E-16	3.332284E-17
3.090000E+03	1.429553E-16	3.190749E-17
3.100000E+03	1.392631E-16	3.054957E-17
3.110000E+03	1.356460E-16	2.924772E-17
3.120000E+03	1.321102E-16	2.800167E-17
3.130000E+03	1.286508E-16	2.680878E-17
3.140000E+03	1.252710E-16	2.566812E-17
3.150000E+03	1.219711E-16	2.457819E-17
3.160000E+03	1.187535E-16	2.353787E-17
3.170000E+03	1.156162E-16	2.254516E-17
3.180000E+03	1.125613E-16	2.159890E-17
3.190000E+03	1.095886E-16	2.069749E-17
3.200000E+03	1.066960E-16	1.983899E-17
3.210000E+03	1.038852E-16	1.902220E-17
3.220000E+03	1.011576E-16	1.824588E-17
3.230000E+03	9.850907E-17	1.750782E-17
3.240000E+03	9.594257E-17	1.680711E-17
3.250000E+03	9.345414E-17	1.614166E-17
3.260000E+03	9.104776E-17	1.551080E-17
3.270000E+03	8.871796E-17	1.491227E-17
3.280000E+03	8.646547E-17	1.434492E-17
3.290000E+03	8.429069E-17	1.380758E-17
3.300000E+03	8.219120E-17	1.329867E-17
3.310000E+03	8.016718E-17	1.281706E-17
3.320000E+03	7.821503E-17	1.236107E-17
3.330000E+03	7.633486E-17	1.192969E-17
3.340000E+03	7.452546E-17	1.152171E-17
3.350000E+03	7.278558E-17	1.113600E-17
3.360000E+03	7.111393E-17	1.077142E-17
3.370000E+03	6.950820E-17	1.042679E-17
3.380000E+03	6.796716E-17	1.010109E-17
3.390000E+03	6.648952E-17	9.793358E-18
3.400000E+03	6.507400E-17	9.502685E-18
3.410000E+03	6.371842E-17	9.228066E-18
3.420000E+03	6.242155E-17	8.968680E-18
3.430000E+03	6.118215E-17	8.723745E-18
3.440000E+03	5.999818E-17	8.492406E-18
3.450000E+03	5.886845E-17	8.273970E-18
3.460000E+03	5.779180E-17	8.067779E-18
3.470000E+03	5.676562E-17	7.873011E-18
3.480000E+03	5.578956E-17	7.689193E-18
3.490000E+03	5.486184E-17	7.515684E-18
3.500000E+03	5.398079E-17	7.351888E-18
3.510000E+03	5.314544E-17	7.197332E-18
3.520000E+03	5.235359E-17	7.051407E-18
3.530000E+03	5.160440E-17	6.913709E-18
3.540000E+03	5.089644E-17	6.783780E-18
3.550000E+03	5.022838E-17	6.661192E-18
3.560000E+03	4.959890E-17	6.545547E-18
3.570000E+03	4.900681E-17	6.436476E-18
3.580000E+03	4.845039E-17	6.333562E-18
3.590000E+03	4.792910E-17	6.236557E-18
3.600000E+03	4.744137E-17	6.145095E-18
3.610000E+03	4.698672E-17	6.058963E-18
3.620000E+03	4.656322E-17	5.977775E-18
3.630000E+03	4.617097E-17	5.901416E-18
3.640000E+03	4.580767E-17	5.829477E-18
3.650000E+03	4.547304E-17	5.761815E-18
3.660000E+03	4.516586E-17	5.698176E-18
3.670000E+03	4.488587E-17	5.638439E-18
3.680000E+03	4.463150E-17	5.582321E-18
3.690000E+03	4.440254E-17	5.529719E-18
3.700000E+03	4.419794E-17	5.480431E-18
3.710000E+03	4.401752E-17	5.434367E-18
3.720000E+03	4.386026E-17	5.391342E-18
3.730000E+03	4.372644E-17	5.351330E-18
3.740000E+03	4.361464E-17	5.314106E-18
3.750000E+03	4.352515E-17	5.279651E-18
3.760000E+03	4.345741E-17	5.247852E-18
3.770000E+03	4.341128E-17	5.218644E-18
3.780000E+03	4.338620E-17	5.191918E-18
3.790000E+03	4.338243E-17	5.167663E-18
3.800000E+03	4.339903E-17	5.145727E-18
3.810000E+03	4.343624E-17	5.126101E-18
3.820000E+03	4.349391E-17	5.108726E-18
3.830000E+03	4.357188E-17	5.093549E-18
3.840000E+03	4.366997E-17	5.080513E-18
3.850000E+03	4.378765E-17	5.069517E-18
3.860000E+03	4.392549E-17	5.060594E-18
3.870000E+03	4.408333E-17	5.053688E-18
3.880000E+03	4.426058E-17	5.048696E-18
3.890000E+03	4.445743E-17	5.045604E-18
3.900000E+03	4.467369E-17	5.044352E-18
3.910000E+03	4.490951E-17	5.044921E-18
3.920000E+03	4.516430E-17	5.047206E-18
3.930000E+03	4.543859E-17	5.051228E-18
3.940000E+03	4.573175E-17	5.056879E-18
3.950000E+03	4.604430E-17	5.064174E-18
3.960000E+03	4.637558E-17	5.073002E-18
3.970000E+03	4.672530E-17	5.083290E-18
3.980000E+03	4.709395E-17	5.095048E-18
3.990000E+03	4.748081E-17	5.108158E-18
4.000000E+03	4.788595E-17	5.122583E-18
4.010000E+03	4.830899E-17	5.138243E-18
4.020000E+03	4.874997E-17	5.155098E-18
4.030000E+03	4.920849E-17	5.173063E-18
4.040000E+03	4.968410E-17	5.192052E-18
4.050000E+03	5.017676E-17	5.212020E-18
4.060000E+03	5.068642E-17	5.232922E-18
4.070000E+03	5.121171E-17	5.254581E-18
4.080000E+03	5.175334E-17	5.277038E-18
4.090000E+03	5.230989E-17	5.300116E-18
4.100000E+03	5.288158E-17	5.323813E-18
4.110000E+03	5.346731E-17	5.347995E-18
4.120000E+03	5.406683E-17	5.372622E-18
4.130000E+03	5.467937E-17	5.397608E-18
4.140000E+03	5.530414E-17	5.422873E-18
4.150000E+03	5.594028E-17	5.448340E-18
4.160000E+03	5.658688E-17	5.473938E-18
4.170000E+03	5.724345E-17	5.499648E-18
4.180000E+03	5.790898E-17	5.525410E-18
4.190000E+03	5.858192E-17	5.551132E-18
4.200000E+03	5.926112E-17	5.576772E-18
4.210000E+03	5.994538E-17	5.602301E-18
4.220000E+03	6.063392E-17	5.627746E-18
4.230000E+03	6.132493E-17	5.653056E-18
4.240000E+03	6.201700E-17	5.678236E-18
4.250000E+03	6.270818E-17	5.703259E-18
4.260000E+03	6.339745E-17	5.728205E-18
4.270000E+03	6.408273E-17	5.753072E-18
4.280000E+03	6.476238E-17	5.777917E-18
4.290000E+03	6.543475E-17	5.802810E-18
4.300000E+03	6.609703E-17	5.827732E-18
4.310000E+03	6.674858E-17	5.852863E-18
4.320000E+03	6.738654E-17	5.878194E-18
4.330000E+03	6.800917E-17	5.903813E-18
4.340000E+03	6.861415E-17	5.929754E-18
4.350000E+03	6.920096E-17	5.956191E-18
4.360000E+03	6.976628E-17	5.983037E-18
4.370000E+03	7.030978E-17	6.010430E-18
4.380000E+03	7.083018E-17	6.038387E-18
4.390000E+03	7.132701E-17	6.066943E-18
4.400000E+03	7.180068E-17	6.096152E-18
4.410000E+03	7.225128E-17	6.125986E-18
4.420000E+03	7.268040E-17	6.156491E-18
4.430000E+03	7.308739E-17	6.187475E-18
4.440000E+03	7.347430E-17	6.218938E-18
4.450000E+03	7.384142E-17	6.250708E-18
4.460000E+03	7.418984E-17	6.282651E-18
4.470000E+03	7.452202E-17	6.314742E-18
4.480000E+03	7.483728E-17	6.346684E-18
4.490000E+03	7.513890E-17	6.378510E-18
4.500000E+03	7.542631E-17	6.409935E-18
4.510000E+03	7.570223E-17	6.440959E-18
4.520000E+03	7.596746E-17	6.471430E-18
4.530000E+03	7.622344E-17	6.501270E-18
4.540000E+03	7.647165E-17	6.530417E-18
4.550000E+03	7.671219E-17	6.558711E-18
4.560000E+03	7.694789E-17	6.586242E-18
4.570000E+03	7.717882E-17	6.612887E-18
4.580000E+03	7.740640E-17	6.638657E-18
4.590000E+03	7.763203E-17	6.663580E-18
4.600000E+03	7.785710E-17	6.687702E-18
4.610000E+03	7.808225E-17	6.711024E-18
4.620000E+03	7.830810E-17	6.733557E-18
4.630000E+03	7.853593E-17	6.755389E-18
4.640000E+03	7.876701E-17	6.776618E-18
4.650000E+03	7.900256E-17	6.797351E-18
4.660000E+03	7.924234E-17	6.817577E-18
4.670000E+03	7.948825E-17	6.837481E-18
4.680000E+03	7.974069E-17	6.857126E-18
4.690000E+03	8.000002E-17	6.876576E-18
4.700000E+03	8.026733E-17	6.895963E-18
4.710000E+03	8.054291E-17	6.915354E-18
4.720000E+03	8.082702E-17	6.934815E-18
4.730000E+03	8.111988E-17	6.954410E-18
4.740000E+03	8.142168E-17	6.974198E-18
4.750000E+03	8.173255E-17	6.994238E-18
4.760000E+03	8.205262E-17	7.014581E-18
4.770000E+03	8.238196E-17	7.035278E-18
4.780000E+03	8.271981E-17	7.056304E-18
4.790000E+03	8.306696E-17	7.077766E-18
4.800000E+03	8.342178E-17	7.099563E-18
4.810000E+03	8.378579E-17	7.121859E-18
4.820000E+03	8.415728E-17	7.144542E-18
4.830000E+03	8.453691E-17	7.167699E-18
4.840000E+03	8.492450E-17	7.191345E-18
4.850000E+03	8.531819E-17	7.215348E-18
4.860000E+03	8.571939E-17	7.239850E-18
4.870000E+03	8.612699E-17	7.264779E-18
4.880000E+03	8.654154E-17	7.290197E-18
4.890000E+03	8.696013E-17	7.315875E-18
4.900000E+03	8.738495E-17	7.342007E-18
4.910000E+03	8.781389E-17	7.368419E-18
4.920000E+03	8.824736E-17	7.395150E-18
4.930000E+03	8.868403E-17	7.422084E-18
4.940000E+03	8.912426E-17	7.449244E-18
4.950000E+03	8.956576E-17	7.476424E-18
4.960000E+03	9.000883E-17	7.503632E-18
4.970000E+03	9.045374E-17	7.530868E-18
4.980000E+03	9.089807E-17	7.557899E-18
4.990000E+03	9.134111E-17	7.584634E-18
5.000000E+03	9.178304E-17	7.611050E-18
5.010000E+03	9.222308E-17	7.637038E-18
5.020000E+03	9.265859E-17	7.662334E-18
5.030000E+03	9.308961E-17	7.686891E-18
5.040000E+03	9.351523E-17	7.710580E-18
5.050000E+03	9.393449E-17	7.733270E-18
5.060000E+03	9.434544E-17	7.754743E-18
5.070000E+03	9.474700E-17	7.774858E-18
5.080000E+03	9.513901E-17	7.793545E-18
5.090000E+03	9.551841E-17	7.810501E-18
5.100000E+03	9.588493E-17	7.825655E-18
5.110000E+03	9.623633E-17	7.838780E-18
5.120000E+03	9.657130E-17	7.849727E-18
5.130000E+03	9.688847E-17	7.858352E-18
5.140000E+03	9.718645E-17	7.864511E-18
5.150000E+03	9.746282E-17	7.867989E-18
5.160000E+03	9.771710E-17	7.868732E-18
5.170000E+03	9.794585E-17	7.866459E-18
5.180000E+03	9.814854E-17	7.861132E-18
5.190000E+03	9.832268E-17	7.852567E-18
5.200000E+03	9.846678E-17	7.840667E-18
5.210000E+03	9.857938E-17	7.825352E-18
5.220000E+03	9.865903E-17	7.806550E-18
5.230000E+03	9.870238E-17	7.784055E-18
5.240000E+03	9.871009E-17	7.757986E-18
5.250000E+03	9.867799E-17	7.728096E-18
5.260000E+03	9.860692E-17	7.694544E-18
5.270000E+03	9.849394E-17	7.657207E-18
5.280000E+03	9.833920E-17	7.616214E-18
5.290000E+03	9.814106E-17	7.571573E-18
5.300000E+03	9.789807E-17	7.523319E-18
5.310000E+03	9.761097E-17	7.471672E-18
5.320000E+03	9.727781E-17	7.416660E-18
5.330000E+03	9.689979E-17	7.358568E-18
5.340000E+03	9.647648E-17	7.297571E-18
5.350000E+03	9.600773E-17	7.233882E-18
5.360000E+03	9.549465E-17	7.167823E-18
5.370000E+03	9.493868E-17	7.099752E-18
5.380000E+03	9.434154E-17	7.030060E-18
5.390000E+03	9.370341E-17	6.959030E-18
5.400000E+03	9.302761E-17	6.887186E-18
5.410000E+03	9.231588E-17	6.814934E-18
5.420000E+03	9.157210E-17	6.742836E-18
5.430000E+03	9.079768E-17	6.671256E-18
5.440000E+03	8.999882E-17	6.600896E-18
5.450000E+03	8.918006E-17	6.532305E-18
5.460000E+03	8.835050E-17	6.466325E-18
5.470000E+03	8.751215E-17	6.403224E-18
5.480000E+03	8.666283E-17	6.342892E-18
5.490000E+03	8.580228E-17	6.285273E-18
5.500000E+03	8.493291E-17	6.230409E-18
5.510000E+03	8.406048E-17	6.178488E-18
5.520000E+03	8.318637E-17	6.129298E-18
5.530000E+03	8.231692E-17	6.082933E-18
5.540000E+03	8.145418E-17	6.039138E-18
5.550000E+03	8.060252E-17	5.997823E-18
5.560000E+03	7.976619E-17	5.958894E-18
5.570000E+03	7.894924E-17	5.922265E-18
5.580000E+03	7.815391E-17	5.887744E-18
5.590000E+03	7.738388E-17	5.855278E-18
5.600000E+03	7.664256E-17	5.824834E-18
5.610000E+03	7.593236E-17	5.796336E-18
5.620000E+03	7.525543E-17	5.769729E-18
5.630000E+03	7.461523E-17	5.745093E-18
5.640000E+03	7.401264E-17	5.722340E-18
5.650000E+03	7.344985E-17	5.701514E-18
5.660000E+03	7.292803E-17	5.682606E-18
5.670000E+03	7.244888E-17	5.665670E-18
5.680000E+03	7.201312E-17	5.650704E-18
5.690000E+03	7.162124E-17	5.637703E-18
5.700000E+03	7.127432E-17	5.626720E-18
5.710000E+03	7.097323E-17	5.617799E-18
5.720000E+03	7.071720E-17	5.610862E-18
5.730000E+03	7.050679E-17	5.605940E-18
5.740000E+03	7.034170E-17	5.602994E-18
5.750000E+03	7.022150E-17	5.601974E-18
5.760000E+03	7.014717E-17	5.602937E-18
5.770000E+03	7.011662E-17	5.605693E-18
5.780000E+03	7.013068E-17	5.610273E-18
5.790000E+03	7.018786E-17	5.616519E-18
5.800000E+03	7.028817E-17	5.624379E-18
5.810000E+03	7.043080E-17	5.633728E-18
5.820000E+03	7.061493E-17	5.644430E-18
5.830000E+03	7.084048E-17	5.656397E-18
5.840000E+03	7.110584E-17	5.669407E-18
5.850000E+03	7.141092E-17	5.683351E-18
5.860000E+03	7.175486E-17	5.698047E-18
5.870000E+03	7.213602E-17	5.713245E-18
5.880000E+03	7.255510E-17	5.728871E-18
5.890000E+03	7.300966E-17	5.744599E-18
5.900000E+03	7.350043E-17	5.760348E-18
5.910000E+03	7.402575E-17	5.775848E-18
5.920000E+03	7.458476E-17	5.790892E-18
5.930000E+03	7.517741E-17	5.805342E-18
5.940000E+03	7.580116E-17	5.818875E-18
5.950000E+03	7.645597E-17	5.831371E-18
5.960000E+03	7.714183E-17	5.842729E-18
5.970000E+03	7.785612E-17	5.852669E-18
5.980000E+03	7.859883E-17	5.861138E-18
5.990000E+03	7.936909E-17	5.868046E-18
6.000000E+03	8.016512E-17	5.873280E-18
6.010000E+03	8.098603E-17	5.876837E-18
6.020000E+03	8.183096E-17	5.878771E-18
6.030000E+03	8.269814E-17	5.879133E-18
6.040000E+03	8.358672E-17	5.878115E-18
6.050000E+03	8.449692E-17	5.876063E-18
6.060000E+03	8.542508E-17	5.873141E-18
6.070000E+03	8.637250E-17	5.869960E-18
6.080000E+03	8.733556E-17	5.866901E-18
6.090000E+03	8.831579E-17	5.864807E-18
6.100000E+03	8.930967E-17	5.864300E-18
6.110000E+03	9.031793E-17	5.866405E-18
6.120000E+03	9.133825E-17	5.872056E-18
6.130000E+03	9.237165E-17	5.882505E-18
6.140000E+03	9.341599E-17	5.898873E-18
6.150000E+03	9.447024E-17	5.922397E-18
6.160000E+03	9.553570E-17	5.954441E-18
6.170000E+03	9.661011E-17	5.996063E-18
6.180000E+03	9.769445E-17	6.048352E-18
6.190000E+03	9.878814E-17	6.112034E-18
6.200000E+03	9.989002E-17	6.187462E-18
6.210000E+03	1.009983E-16	6.274589E-18
6.220000E+03	1.021133E-16	6.373146E-18
6.230000E+03	1.032322E-16	6.482401E-18
6.240000E+03	1.043537E-16	6.601480E-18
6.250000E+03	1.054762E-16	6.729361E-18
6.260000E+03	1.066009E-16	6.865125E-18
6.270000E+03	1.077239E-16	7.007476E-18
6.280000E+03	1.088440E-16	7.155302E-18
6.290000E+03	1.099618E-16	7.307624E-18
6.300000E+03	1.110766E-16	7.463441E-18
6.310000E+03	1.121865E-16	7.621724E-18
6.320000E+03	1.132897E-16	7.781517E-18
6.330000E+03	1.143876E-16	7.942161E-18
6.340000E+03	1.154773E-16	8.102769E-18
6.350000E+03	1.165589E-16	8.262751E-18
6.360000E+03	1.176313E-16	8.421488E-18
6.370000E+03	1.186934E-16	8.578440E-18
6.380000E+03	1.197441E-16	8.733138E-18
6.390000E+03	1.207825E-16	8.885179E-18
6.400000E+03	1.218078E-16	9.034222E-18
6.410000E+03	1.228173E-16	9.179852E-18
6.420000E+03	1.238122E-16	9.321963E-18
6.430000E+03	1.247916E-16	9.460371E-18
6.440000E+03	1.257568E-16	9.595073E-18
6.450000E+03	1.267091E-16	9.726116E-18
6.460000E+03	1.276464E-16	9.853299E-18
6.470000E+03	1.285720E-16	9.976883E-18
6.480000E+03	1.294857E-16	1.009688E-17
6.490000E+03	1.303893E-16	1.021346E-17
6.500000E+03	1.312808E-16	1.032652E-17
6.510000E+03	1.321639E-16	1.043645E-17
6.520000E+03	1.330368E-16	1.054316E-17
6.530000E+03	1.339016E-16	1.064690E-17
6.540000E+03	1.347561E-16	1.074760E-17
6.550000E+03	1.356025E-16	1.084553E-17
6.560000E+03	1.364431E-16	1.094097E-17
6.570000E+03	1.372737E-16	1.103368E-17
6.580000E+03	1.380965E-16	1.112393E-17
6.590000E+03	1.389139E-16	1.121200E-17
6.600000E+03	1.397214E-16	1.129764E-17
6.610000E+03	1.405237E-16	1.138130E-17
6.620000E+03	1.413163E-16	1.146270E-17
6.630000E+03	1.421037E-16	1.154229E-17
6.640000E+03	1.428814E-16	1.161978E-17
6.650000E+03	1.436515E-16	1.169542E-17
6.660000E+03	1.444142E-16	1.176928E-17
6.670000E+03	1.451667E-16	1.184120E-17
6.680000E+03	1.459114E-16	1.191143E-17
6.690000E+03	1.466457E-16	1.197981E-17
6.700000E+03	1.473693E-16	1.204634E-17
6.710000E+03	1.480843E-16	1.211126E-17
6.720000E+03	1.487881E-16	1.217437E-17
6.730000E+03	1.494775E-16	1.223544E-17
6.740000E+03	1.501574E-16	1.229488E-17
6.750000E+03	1.508220E-16	1.235225E-17
6.760000E+03	1.514736E-16	1.240772E-17
6.770000E+03	1.521115E-16	1.246125E-17
6.780000E+03	1.527327E-16	1.251257E-17
6.790000E+03	1.533363E-16	1.256162E-17
6.800000E+03	1.539219E-16	1.260833E-17
6.810000E+03	1.544915E-16	1.265285E-17
6.820000E+03	1.550417E-16	1.269489E-17
6.830000E+03	1.555691E-16	1.273413E-17
6.840000E+03	1.560757E-16	1.277071E-17
6.850000E+03	1.565609E-16	1.280456E-17
6.860000E+03	1.570240E-16	1.283558E-17
6.870000E+03	1.574616E-16	1.286345E-17
6.880000E+03	1.578728E-16	1.288809E-17
6.890000E+03	1.582600E-16	1.290965E-17
6.900000E+03	1.586196E-16	1.292783E-17
6.910000E+03	1.589511E-16	1.294254E-17
6.920000E+03	1.592539E-16	1.295373E-17
6.930000E+03	1.595275E-16	1.296132E-17
6.940000E+03	1.597714E-16	1.296527E-17
6.950000E+03	1.599853E-16	1.296552E-17
6.960000E+03	1.601656E-16	1.296177E-17
6.970000E+03	1.603121E-16	1.295399E-17
6.980000E+03	1.604277E-16	1.294240E-17
6.990000E+03	1.605122E-16	1.292694E-17
7.000000E+03	1.605592E-16	1.290710E-17
7.010000E+03	1.605751E-16	1.288335E-17
7.020000E+03	1.605568E-16	1.285540E-17
7.030000E+03	1.605044E-16	1.282323E-17
7.040000E+03	1.604150E-16	1.278654E-17
7.050000E+03	1.602922E-16	1.274557E-17
7.060000E+03	1.601364E-16	1.270026E-17
7.070000E+03	1.599481E-16	1.265057E-17
7.080000E+03	1.597247E-16	1.259621E-17
7.090000E+03	1.594671E-16	1.253711E-17
7.100000E+03	1.591791E-16	1.247347E-17
7.110000E+03	1.588585E-16	1.240497E-17
7.120000E+03	1.585032E-16	1.233127E-17
7.130000E+03	1.581205E-16	1.225279E-17
7.140000E+03	1.577084E-16	1.216921E-17
7.150000E+03	1.572682E-16	1.208041E-17
7.160000E+03	1.567979E-16	1.198607E-17
7.170000E+03	1.563023E-16	1.188632E-17
7.180000E+03	1.557826E-16	1.178107E-17
7.190000E+03	1.552372E-16	1.166998E-17
7.200000E+03	1.546677E-16	1.155296E-17
7.210000E+03	1.540789E-16	1.143016E-17
7.220000E+03	1.534692E-16	1.130127E-17
7.230000E+03	1.528403E-16	1.116625E-17
7.240000E+03	1.521939E-16	1.102505E-17
7.250000E+03	1.515319E-16	1.087768E-17
7.260000E+03	1.508529E-16	1.072392E-17
7.270000E+03	1.501651E-16	1.056430E-17
7.280000E+03	1.494671E-16	1.039869E-17
7.290000E+03	1.487548E-16	1.022683E-17
7.300000E+03	1.480394E-16	1.004959E-17
7.310000E+03	1.473137E-16	9.866643E-18
7.320000E+03	1.465860E-16	9.678796E-18
7.330000E+03	1.458555E-16	9.486330E-18
7.340000E+03	1.451245E-16	9.289847E-18
7.350000E+03	1.443924E-16	9.089885E-18
7.360000E+03	1.436616E-16	8.887329E-18
7.370000E+03	1.429349E-16	8.683229E-18
7.380000E+03	1.422152E-16	8.478813E-18
7.390000E+03	1.414993E-16	8.275153E-18
7.400000E+03	1.407935E-16	8.074091E-18
7.410000E+03	1.400951E-16	7.877168E-18
7.420000E+03	1.394047E-16	7.686363E-18
7.430000E+03	1.387230E-16	7.503898E-18
7.440000E+03	1.380570E-16	7.332541E-18
7.450000E+03	1.374110E-16	7.175062E-18
7.460000E+03	1.367950E-16	7.034638E-18
7.470000E+03	1.362193E-16	6.914414E-18
7.480000E+03	1.356849E-16	6.816903E-18
7.490000E+03	1.351983E-16	6.744555E-18
7.500000E+03	1.347684E-16	6.699358E-18
7.510000E+03	1.343908E-16	6.681869E-18
7.520000E+03	1.340716E-16	6.692266E-18
7.530000E+03	1.338095E-16	6.729452E-18
7.540000E+03	1.336023E-16	6.791500E-18
7.550000E+03	1.334466E-16	6.875886E-18
7.560000E+03	1.333388E-16	6.979745E-18
7.570000E+03	1.332781E-16	7.100250E-18
7.580000E+03	1.332576E-16	7.234298E-18
7.590000E+03	1.332770E-16	7.379265E-18
7.600000E+03	1.333296E-16	7.532418E-18
7.610000E+03	1.334153E-16	7.691624E-18
7.620000E+03	1.335312E-16	7.854858E-18
7.630000E+03	1.336714E-16	8.020176E-18
7.640000E+03	1.338365E-16	8.186255E-18
7.650000E+03	1.340239E-16	8.351833E-18
7.660000E+03	1.342284E-16	8.515662E-18
7.670000E+03	1.344510E-16	8.677080E-18
7.680000E+03	1.346865E-16	8.835195E-18
7.690000E+03	1.349395E-16	8.989889E-18
7.700000E+03	1.352018E-16	9.140336E-18
7.710000E+03	1.354750E-16	9.286455E-18
7.720000E+03	1.357543E-16	9.427823E-18
7.730000E+03	1.360415E-16	9.564543E-18
7.740000E+03	1.363351E-16	9.696563E-18
7.750000E+03	1.366339E-16	9.823888E-18
7.760000E+03	1.369331E-16	9.946325E-18
