#wls	flux	fluxerr
1.600000E+03	1.360824E-16	1.317798E-16
1.640000E+03	1.405937E-16	1.338878E-16
1.680000E+03	1.449618E-16	1.356665E-16
1.720000E+03	1.491207E-16	1.370579E-16
1.760000E+03	1.530570E-16	1.380563E-16
1.800000E+03	1.566969E-16	1.386038E-16
1.840000E+03	1.599917E-16	1.386705E-16
1.880000E+03	1.629173E-16	1.382515E-16
1.920000E+03	1.653931E-16	1.372976E-16
1.960000E+03	1.673789E-16	1.357994E-16
2.000000E+03	1.688094E-16	1.337317E-16
2.040000E+03	1.696476E-16	1.310977E-16
2.080000E+03	1.698132E-16	1.278719E-16
2.120000E+03	1.692499E-16	1.240542E-16
2.160000E+03	1.679037E-16	1.196523E-16
2.200000E+03	1.656894E-16	1.146582E-16
2.240000E+03	1.625441E-16	1.090874E-16
2.280000E+03	1.584747E-16	1.030076E-16
2.320000E+03	1.535464E-16	9.652402E-17
2.360000E+03	1.479208E-16	8.979621E-17
2.400000E+03	1.417326E-16	8.295472E-17
2.440000E+03	1.351002E-16	7.610989E-17
2.480000E+03	1.281454E-16	6.936360E-17
2.520000E+03	1.209462E-16	6.278439E-17
2.560000E+03	1.135899E-16	5.643815E-17
2.600000E+03	1.061510E-16	5.037635E-17
2.640000E+03	9.870554E-17	4.464407E-17
2.680000E+03	9.131579E-17	3.927276E-17
2.720000E+03	8.404334E-17	3.428720E-17
2.760000E+03	7.694492E-17	2.970387E-17
2.800000E+03	7.007235E-17	2.553142E-17
2.840000E+03	6.347386E-17	2.177171E-17
2.880000E+03	5.719532E-17	1.842071E-17
2.920000E+03	5.127655E-17	1.546778E-17
2.960000E+03	4.575114E-17	1.289646E-17
3.000000E+03	4.064281E-17	1.068437E-17
3.010000E+03	3.943371E-17	1.018465E-17
3.020000E+03	3.825071E-17	9.704984E-18
3.030000E+03	3.709541E-17	9.245293E-18
3.040000E+03	3.596680E-17	8.804827E-18
3.050000E+03	3.486548E-17	8.383244E-18
3.060000E+03	3.379195E-17	7.980163E-18
3.070000E+03	3.274449E-17	7.594686E-18
3.080000E+03	3.172495E-17	7.226753E-18
3.090000E+03	3.073168E-17	6.875491E-18
3.100000E+03	2.976566E-17	6.540637E-18
3.110000E+03	2.882596E-17	6.221498E-18
3.120000E+03	2.791230E-17	5.917537E-18
3.130000E+03	2.702548E-17	5.628445E-18
3.140000E+03	2.616409E-17	5.353457E-18
3.150000E+03	2.532931E-17	5.092351E-18
3.160000E+03	2.451934E-17	4.844301E-18
3.170000E+03	2.373524E-17	4.609069E-18
3.180000E+03	2.297575E-17	4.385966E-18
3.190000E+03	2.224135E-17	4.174650E-18
3.200000E+03	2.153124E-17	3.974547E-18
3.210000E+03	2.084540E-17	3.785241E-18
3.220000E+03	2.018340E-17	3.606250E-18
3.230000E+03	1.954482E-17	3.437106E-18
3.240000E+03	1.892888E-17	3.277300E-18
3.250000E+03	1.833579E-17	3.126499E-18
3.260000E+03	1.776476E-17	2.984218E-18
3.270000E+03	1.721559E-17	2.850085E-18
3.280000E+03	1.668750E-17	2.723644E-18
3.290000E+03	1.618000E-17	2.604508E-18
3.300000E+03	1.569283E-17	2.492336E-18
3.310000E+03	1.522523E-17	2.386725E-18
3.320000E+03	1.477689E-17	2.287358E-18
3.330000E+03	1.434726E-17	2.193896E-18
3.340000E+03	1.393541E-17	2.105951E-18
3.350000E+03	1.354120E-17	2.023278E-18
3.360000E+03	1.316392E-17	1.945553E-18
3.370000E+03	1.280303E-17	1.872494E-18
3.380000E+03	1.245803E-17	1.803834E-18
3.390000E+03	1.212807E-17	1.739275E-18
3.400000E+03	1.181300E-17	1.678625E-18
3.410000E+03	1.151216E-17	1.621634E-18
3.420000E+03	1.122495E-17	1.568069E-18
3.430000E+03	1.095091E-17	1.517731E-18
3.440000E+03	1.068961E-17	1.470430E-18
3.450000E+03	1.044036E-17	1.425954E-18
3.460000E+03	1.020289E-17	1.384156E-18
3.470000E+03	9.976578E-18	1.344848E-18
3.480000E+03	9.761054E-18	1.307887E-18
3.490000E+03	9.555863E-18	1.273123E-18
3.500000E+03	9.360569E-18	1.240419E-18
3.510000E+03	9.174761E-18	1.209644E-18
3.520000E+03	8.998050E-18	1.180680E-18
3.530000E+03	8.829971E-18	1.153403E-18
3.540000E+03	8.670088E-18	1.127697E-18
3.550000E+03	8.518089E-18	1.103471E-18
3.560000E+03	8.373586E-18	1.080625E-18
3.570000E+03	8.236303E-18	1.059079E-18
3.580000E+03	8.105810E-18	1.038739E-18
3.590000E+03	7.981869E-18	1.019537E-18
3.600000E+03	7.864174E-18	1.001401E-18
3.610000E+03	7.752592E-18	9.842831E-19
3.620000E+03	7.646763E-18	9.681101E-19
3.630000E+03	7.546499E-18	9.528329E-19
3.640000E+03	7.451403E-18	9.383784E-19
3.650000E+03	7.361317E-18	9.247057E-19
3.660000E+03	7.276016E-18	9.117676E-19
3.670000E+03	7.195288E-18	8.995201E-19
3.680000E+03	7.118997E-18	8.879304E-19
3.690000E+03	7.047009E-18	8.769671E-19
3.700000E+03	6.979129E-18	8.665928E-19
3.710000E+03	6.915297E-18	8.567876E-19
3.720000E+03	6.855326E-18	8.475173E-19
3.730000E+03	6.799218E-18	8.387716E-19
3.740000E+03	6.746850E-18	8.305259E-19
3.750000E+03	6.698103E-18	8.227564E-19
3.760000E+03	6.652918E-18	8.154476E-19
3.770000E+03	6.611291E-18	8.085913E-19
3.780000E+03	6.573104E-18	8.021658E-19
3.790000E+03	6.538352E-18	7.961637E-19
3.800000E+03	6.506918E-18	7.905643E-19
3.810000E+03	6.478745E-18	7.853542E-19
3.820000E+03	6.453826E-18	7.805271E-19
3.830000E+03	6.432157E-18	7.760766E-19
3.840000E+03	6.413625E-18	7.719835E-19
3.850000E+03	6.398278E-18	7.682483E-19
3.860000E+03	6.385951E-18	7.648462E-19
3.870000E+03	6.376746E-18	7.617840E-19
3.880000E+03	6.370500E-18	7.590374E-19
3.890000E+03	6.367312E-18	7.566131E-19
3.900000E+03	6.367073E-18	7.544933E-19
3.910000E+03	6.369778E-18	7.526725E-19
3.920000E+03	6.375369E-18	7.511389E-19
3.930000E+03	6.383842E-18	7.498871E-19
3.940000E+03	6.395139E-18	7.489056E-19
3.950000E+03	6.409305E-18	7.481946E-19
3.960000E+03	6.426234E-18	7.477366E-19
3.970000E+03	6.445920E-18	7.475261E-19
3.980000E+03	6.468307E-18	7.475514E-19
3.990000E+03	6.493442E-18	7.478127E-19
4.000000E+03	6.521268E-18	7.482986E-19
4.010000E+03	6.551731E-18	7.489975E-19
4.020000E+03	6.584777E-18	7.498978E-19
4.030000E+03	6.620454E-18	7.510000E-19
4.040000E+03	6.658656E-18	7.522869E-19
4.050000E+03	6.699437E-18	7.537591E-19
4.060000E+03	6.742691E-18	7.553997E-19
4.070000E+03	6.788419E-18	7.572039E-19
4.080000E+03	6.836625E-18	7.591669E-19
4.090000E+03	6.887258E-18	7.612785E-19
4.100000E+03	6.940271E-18	7.635285E-19
4.110000E+03	6.995614E-18	7.659073E-19
4.120000E+03	7.053348E-18	7.684172E-19
4.130000E+03	7.113372E-18	7.710432E-19
4.140000E+03	7.175694E-18	7.737823E-19
4.150000E+03	7.240212E-18	7.766201E-19
4.160000E+03	7.306935E-18	7.795545E-19
4.170000E+03	7.375873E-18	7.825837E-19
4.180000E+03	7.446924E-18	7.856947E-19
4.190000E+03	7.520098E-18	7.888866E-19
4.200000E+03	7.595290E-18	7.921474E-19
4.210000E+03	7.672512E-18	7.954779E-19
4.220000E+03	7.751654E-18	7.988671E-19
4.230000E+03	7.832729E-18	8.023175E-19
4.240000E+03	7.915625E-18	8.058202E-19
4.250000E+03	8.000288E-18	8.093731E-19
4.260000E+03	8.086599E-18	8.129692E-19
4.270000E+03	8.174565E-18	8.166149E-19
4.280000E+03	8.264062E-18	8.203051E-19
4.290000E+03	8.355025E-18	8.240421E-19
4.300000E+03	8.447320E-18	8.278226E-19
4.310000E+03	8.540808E-18	8.316438E-19
4.320000E+03	8.635408E-18	8.355100E-19
4.330000E+03	8.731038E-18	8.394260E-19
4.340000E+03	8.827540E-18	8.433897E-19
4.350000E+03	8.924820E-18	8.474052E-19
4.360000E+03	9.022706E-18	8.514692E-19
4.370000E+03	9.121166E-18	8.555901E-19
4.380000E+03	9.220091E-18	8.597679E-19
4.390000E+03	9.319596E-18	8.640210E-19
4.400000E+03	9.419575E-18	8.683438E-19
4.410000E+03	9.520073E-18	8.727415E-19
4.420000E+03	9.621063E-18	8.772096E-19
4.430000E+03	9.722679E-18	8.817559E-19
4.440000E+03	9.824820E-18	8.863648E-19
4.450000E+03	9.927468E-18	8.910266E-19
4.460000E+03	1.003069E-17	8.957379E-19
4.470000E+03	1.013446E-17	9.004878E-19
4.480000E+03	1.023879E-17	9.052650E-19
4.490000E+03	1.034357E-17	9.100510E-19
4.500000E+03	1.044889E-17	9.148430E-19
4.510000E+03	1.055465E-17	9.196239E-19
4.520000E+03	1.066086E-17	9.243851E-19
4.530000E+03	1.076751E-17	9.291196E-19
4.540000E+03	1.087443E-17	9.338061E-19
4.550000E+03	1.098172E-17	9.384486E-19
4.560000E+03	1.108929E-17	9.430372E-19
4.570000E+03	1.119716E-17	9.475718E-19
4.580000E+03	1.130514E-17	9.520377E-19
4.590000E+03	1.141337E-17	9.564467E-19
4.600000E+03	1.152167E-17	9.607873E-19
4.610000E+03	1.163017E-17	9.650747E-19
4.620000E+03	1.173871E-17	9.693000E-19
4.630000E+03	1.184733E-17	9.734722E-19
4.640000E+03	1.195597E-17	9.775924E-19
4.650000E+03	1.206480E-17	9.816797E-19
4.660000E+03	1.217368E-17	9.857274E-19
4.670000E+03	1.228278E-17	9.897552E-19
4.680000E+03	1.239207E-17	9.937650E-19
4.690000E+03	1.250153E-17	9.977582E-19
4.700000E+03	1.261137E-17	1.001754E-18
4.710000E+03	1.272147E-17	1.005744E-18
4.720000E+03	1.283193E-17	1.009737E-18
4.730000E+03	1.294265E-17	1.013722E-18
4.740000E+03	1.305373E-17	1.017708E-18
4.750000E+03	1.316494E-17	1.021674E-18
4.760000E+03	1.327640E-17	1.025625E-18
4.770000E+03	1.338801E-17	1.029550E-18
4.780000E+03	1.349988E-17	1.033455E-18
4.790000E+03	1.361191E-17	1.037328E-18
4.800000E+03	1.372410E-17	1.041169E-18
4.810000E+03	1.383646E-17	1.044977E-18
4.820000E+03	1.394900E-17	1.048755E-18
4.830000E+03	1.406173E-17	1.052504E-18
4.840000E+03	1.417452E-17	1.056222E-18
4.850000E+03	1.428751E-17	1.059926E-18
4.860000E+03	1.440071E-17	1.063625E-18
4.870000E+03	1.451399E-17	1.067319E-18
4.880000E+03	1.462735E-17	1.071022E-18
4.890000E+03	1.474093E-17	1.074756E-18
4.900000E+03	1.485445E-17	1.078513E-18
4.910000E+03	1.496817E-17	1.082325E-18
4.920000E+03	1.508196E-17	1.086192E-18
4.930000E+03	1.519565E-17	1.090111E-18
4.940000E+03	1.530935E-17	1.094099E-18
4.950000E+03	1.542305E-17	1.098156E-18
4.960000E+03	1.553654E-17	1.102270E-18
4.970000E+03	1.564995E-17	1.106448E-18
4.980000E+03	1.576290E-17	1.110659E-18
4.990000E+03	1.587563E-17	1.114914E-18
5.000000E+03	1.598791E-17	1.119188E-18
5.010000E+03	1.609951E-17	1.123454E-18
5.020000E+03	1.621048E-17	1.127703E-18
5.030000E+03	1.632055E-17	1.131907E-18
5.040000E+03	1.642961E-17	1.136044E-18
5.050000E+03	1.653751E-17	1.140093E-18
5.060000E+03	1.664412E-17	1.144035E-18
5.070000E+03	1.674913E-17	1.147836E-18
5.080000E+03	1.685254E-17	1.151489E-18
5.090000E+03	1.695402E-17	1.154963E-18
5.100000E+03	1.705339E-17	1.158241E-18
5.110000E+03	1.715030E-17	1.161293E-18
5.120000E+03	1.724473E-17	1.164118E-18
5.130000E+03	1.733615E-17	1.166680E-18
5.140000E+03	1.742471E-17	1.168993E-18
5.150000E+03	1.750987E-17	1.171025E-18
5.160000E+03	1.759159E-17	1.172787E-18
5.170000E+03	1.766951E-17	1.174265E-18
5.180000E+03	1.774325E-17	1.175454E-18
5.190000E+03	1.781277E-17	1.176373E-18
5.200000E+03	1.787769E-17	1.177023E-18
5.210000E+03	1.793780E-17	1.177420E-18
5.220000E+03	1.799288E-17	1.177582E-18
5.230000E+03	1.804253E-17	1.177520E-18
5.240000E+03	1.808655E-17	1.177258E-18
5.250000E+03	1.812454E-17	1.176807E-18
5.260000E+03	1.815645E-17	1.176204E-18
5.270000E+03	1.818189E-17	1.175462E-18
5.280000E+03	1.820064E-17	1.174602E-18
5.290000E+03	1.821252E-17	1.173645E-18
5.300000E+03	1.821713E-17	1.172599E-18
5.310000E+03	1.821429E-17	1.171479E-18
5.320000E+03	1.820384E-17	1.170299E-18
5.330000E+03	1.818562E-17	1.169070E-18
5.340000E+03	1.815935E-17	1.167788E-18
5.350000E+03	1.812509E-17	1.166471E-18
5.360000E+03	1.808280E-17	1.165123E-18
5.370000E+03	1.803246E-17	1.163745E-18
5.380000E+03	1.797391E-17	1.162326E-18
5.390000E+03	1.790757E-17	1.160888E-18
5.400000E+03	1.783340E-17	1.159415E-18
5.410000E+03	1.775191E-17	1.157929E-18
5.420000E+03	1.766318E-17	1.156414E-18
5.430000E+03	1.756765E-17	1.154877E-18
5.440000E+03	1.746567E-17	1.153316E-18
5.450000E+03	1.735799E-17	1.151750E-18
5.460000E+03	1.724489E-17	1.150165E-18
5.470000E+03	1.712669E-17	1.148547E-18
5.480000E+03	1.700362E-17	1.146871E-18
5.490000E+03	1.687627E-17	1.145138E-18
5.500000E+03	1.674495E-17	1.143325E-18
5.510000E+03	1.661018E-17	1.141422E-18
5.520000E+03	1.647251E-17	1.139421E-18
5.530000E+03	1.633249E-17	1.137316E-18
5.540000E+03	1.619073E-17	1.135102E-18
5.550000E+03	1.604796E-17	1.132786E-18
5.560000E+03	1.590477E-17	1.130367E-18
5.570000E+03	1.576207E-17	1.127870E-18
5.580000E+03	1.562025E-17	1.125284E-18
5.590000E+03	1.548031E-17	1.122650E-18
5.600000E+03	1.534259E-17	1.119964E-18
5.610000E+03	1.520787E-17	1.117255E-18
5.620000E+03	1.507686E-17	1.114560E-18
5.630000E+03	1.494976E-17	1.111879E-18
5.640000E+03	1.482751E-17	1.109272E-18
5.650000E+03	1.471035E-17	1.106755E-18
5.660000E+03	1.459849E-17	1.104346E-18
5.670000E+03	1.449268E-17	1.102106E-18
5.680000E+03	1.439287E-17	1.100044E-18
5.690000E+03	1.429941E-17	1.098199E-18
5.700000E+03	1.421261E-17	1.096611E-18
5.710000E+03	1.413258E-17	1.095309E-18
5.720000E+03	1.405942E-17	1.094318E-18
5.730000E+03	1.399318E-17	1.093662E-18
5.740000E+03	1.393404E-17	1.093376E-18
5.750000E+03	1.388217E-17	1.093489E-18
5.760000E+03	1.383730E-17	1.093994E-18
5.770000E+03	1.379987E-17	1.094939E-18
5.780000E+03	1.376958E-17	1.096311E-18
5.790000E+03	1.374674E-17	1.098139E-18
5.800000E+03	1.373122E-17	1.100414E-18
5.810000E+03	1.372317E-17	1.103148E-18
5.820000E+03	1.372260E-17	1.106336E-18
5.830000E+03	1.372970E-17	1.109985E-18
5.840000E+03	1.374434E-17	1.114074E-18
5.850000E+03	1.376654E-17	1.118592E-18
5.860000E+03	1.379648E-17	1.123537E-18
5.870000E+03	1.383435E-17	1.128908E-18
5.880000E+03	1.387986E-17	1.134663E-18
5.890000E+03	1.393334E-17	1.140812E-18
5.900000E+03	1.399465E-17	1.147325E-18
5.910000E+03	1.406396E-17	1.154197E-18
5.920000E+03	1.414127E-17	1.161411E-18
5.930000E+03	1.422640E-17	1.168938E-18
5.940000E+03	1.431949E-17	1.176775E-18
5.950000E+03	1.442049E-17	1.184906E-18
5.960000E+03	1.452919E-17	1.193304E-18
5.970000E+03	1.464582E-17	1.201984E-18
5.980000E+03	1.476997E-17	1.210907E-18
5.990000E+03	1.490167E-17	1.220076E-18
6.000000E+03	1.504079E-17	1.229484E-18
6.010000E+03	1.518697E-17	1.239109E-18
6.020000E+03	1.534019E-17	1.248959E-18
6.030000E+03	1.549986E-17	1.259004E-18
6.040000E+03	1.566608E-17	1.269269E-18
6.050000E+03	1.583820E-17	1.279726E-18
6.060000E+03	1.601607E-17	1.290391E-18
6.070000E+03	1.619916E-17	1.301254E-18
6.080000E+03	1.638707E-17	1.312319E-18
6.090000E+03	1.657919E-17	1.323580E-18
6.100000E+03	1.677487E-17	1.335028E-18
6.110000E+03	1.697381E-17	1.346690E-18
6.120000E+03	1.717491E-17	1.358529E-18
6.130000E+03	1.737782E-17	1.370571E-18
6.140000E+03	1.758159E-17	1.382793E-18
6.150000E+03	1.778564E-17	1.395204E-18
6.160000E+03	1.798853E-17	1.407739E-18
6.170000E+03	1.818992E-17	1.420415E-18
6.180000E+03	1.838855E-17	1.433175E-18
6.190000E+03	1.858367E-17	1.445986E-18
6.200000E+03	1.877426E-17	1.458790E-18
6.210000E+03	1.896031E-17	1.471593E-18
6.220000E+03	1.914213E-17	1.484414E-18
6.230000E+03	1.932010E-17	1.497268E-18
6.240000E+03	1.949470E-17	1.510171E-18
6.250000E+03	1.966573E-17	1.523077E-18
6.260000E+03	1.983433E-17	1.536038E-18
6.270000E+03	2.000015E-17	1.548989E-18
6.280000E+03	2.016392E-17	1.561946E-18
6.290000E+03	2.032620E-17	1.574908E-18
6.300000E+03	2.048672E-17	1.587815E-18
6.310000E+03	2.064609E-17	1.600672E-18
6.320000E+03	2.080466E-17	1.613468E-18
6.330000E+03	2.096280E-17	1.626196E-18
6.340000E+03	2.112033E-17	1.638809E-18
6.350000E+03	2.127766E-17	1.651308E-18
6.360000E+03	2.143489E-17	1.663676E-18
6.370000E+03	2.159217E-17	1.675900E-18
6.380000E+03	2.174930E-17	1.687947E-18
6.390000E+03	2.190611E-17	1.699787E-18
6.400000E+03	2.206238E-17	1.711390E-18
6.410000E+03	2.221822E-17	1.722757E-18
6.420000E+03	2.237341E-17	1.733863E-18
6.430000E+03	2.252704E-17	1.744638E-18
6.440000E+03	2.268016E-17	1.755161E-18
6.450000E+03	2.283286E-17	1.765443E-18
6.460000E+03	2.298557E-17	1.775520E-18
6.470000E+03	2.313907E-17	1.785461E-18
6.480000E+03	2.329313E-17	1.795255E-18
6.490000E+03	2.344857E-17	1.804974E-18
6.500000E+03	2.360552E-17	1.814637E-18
6.510000E+03	2.376447E-17	1.824293E-18
6.520000E+03	2.392481E-17	1.833905E-18
6.530000E+03	2.408776E-17	1.843576E-18
6.540000E+03	2.425273E-17	1.853269E-18
6.550000E+03	2.442020E-17	1.863031E-18
6.560000E+03	2.459029E-17	1.872878E-18
6.570000E+03	2.476275E-17	1.882797E-18
6.580000E+03	2.493805E-17	1.892832E-18
6.590000E+03	2.511633E-17	1.902997E-18
6.600000E+03	2.529729E-17	1.913273E-18
6.610000E+03	2.548102E-17	1.923671E-18
6.620000E+03	2.566762E-17	1.934200E-18
6.630000E+03	2.585760E-17	1.944902E-18
6.640000E+03	2.605019E-17	1.955721E-18
6.650000E+03	2.624591E-17	1.966696E-18
6.660000E+03	2.644482E-17	1.977835E-18
6.670000E+03	2.664656E-17	1.989109E-18
6.680000E+03	2.685164E-17	2.000557E-18
6.690000E+03	2.705965E-17	2.012152E-18
6.700000E+03	2.727112E-17	2.023931E-18
6.710000E+03	2.748517E-17	2.035829E-18
6.720000E+03	2.770230E-17	2.047882E-18
6.730000E+03	2.792304E-17	2.060129E-18
6.740000E+03	2.814647E-17	2.072497E-18
6.750000E+03	2.837313E-17	2.085023E-18
6.760000E+03	2.860254E-17	2.097665E-18
6.770000E+03	2.883526E-17	2.110457E-18
6.780000E+03	2.907082E-17	2.123354E-18
6.790000E+03	2.930924E-17	2.136346E-18
6.800000E+03	2.955109E-17	2.149461E-18
6.810000E+03	2.979534E-17	2.162608E-18
6.820000E+03	3.004307E-17	2.175849E-18
6.830000E+03	3.029324E-17	2.189089E-18
6.840000E+03	3.054696E-17	2.202388E-18
6.850000E+03	3.080311E-17	2.215648E-18
6.860000E+03	3.106168E-17	2.228849E-18
6.870000E+03	3.132322E-17	2.242014E-18
6.880000E+03	3.158770E-17	2.255126E-18
6.890000E+03	3.185392E-17	2.268085E-18
6.900000E+03	3.212298E-17	2.280962E-18
6.910000E+03	3.239423E-17	2.293704E-18
6.920000E+03	3.266819E-17	2.306346E-18
6.930000E+03	3.294355E-17	2.318796E-18
6.940000E+03	3.322081E-17	2.331094E-18
6.950000E+03	3.349986E-17	2.343241E-18
6.960000E+03	3.377994E-17	2.355193E-18
6.970000E+03	3.406157E-17	2.367000E-18
6.980000E+03	3.434462E-17	2.378669E-18
6.990000E+03	3.462829E-17	2.390161E-18
7.000000E+03	3.491245E-17	2.401484E-18
7.010000E+03	3.519696E-17	2.412648E-18
7.020000E+03	3.548237E-17	2.423709E-18
7.030000E+03	3.576717E-17	2.434583E-18
7.040000E+03	3.605265E-17	2.445374E-18
7.050000E+03	3.633727E-17	2.455995E-18
7.060000E+03	3.662164E-17	2.466502E-18
7.070000E+03	3.690494E-17	2.476852E-18
7.080000E+03	3.718780E-17	2.487099E-18
7.090000E+03	3.747016E-17	2.497245E-18
7.100000E+03	3.775121E-17	2.507242E-18
7.110000E+03	3.803011E-17	2.517035E-18
7.120000E+03	3.830835E-17	2.526721E-18
7.130000E+03	3.858512E-17	2.536244E-18
7.140000E+03	3.886039E-17	2.545592E-18
7.150000E+03	3.913416E-17	2.554754E-18
7.160000E+03	3.940559E-17	2.563662E-18
7.170000E+03	3.967548E-17	2.572351E-18
7.180000E+03	3.994302E-17	2.580750E-18
7.190000E+03	4.020819E-17	2.588836E-18
7.200000E+03	4.047184E-17	2.596642E-18
7.210000E+03	4.073312E-17	2.604091E-18
7.220000E+03	4.099289E-17	2.611214E-18
7.230000E+03	4.124942E-17	2.617882E-18
7.240000E+03	4.150354E-17	2.624127E-18
7.250000E+03	4.175523E-17	2.629932E-18
7.260000E+03	4.200443E-17	2.635282E-18
7.270000E+03	4.225110E-17	2.640168E-18
7.280000E+03	4.249516E-17	2.644584E-18
7.290000E+03	4.273562E-17	2.648475E-18
7.300000E+03	4.297327E-17	2.651904E-18
7.310000E+03	4.320802E-17	2.654888E-18
7.320000E+03	4.343975E-17	2.657451E-18
7.330000E+03	4.366739E-17	2.659568E-18
7.340000E+03	4.389176E-17	2.661342E-18
7.350000E+03	4.411370E-17	2.662884E-18
7.360000E+03	4.433117E-17	2.664146E-18
7.370000E+03	4.454504E-17	2.665263E-18
7.380000E+03	4.475521E-17	2.666327E-18
7.390000E+03	4.496261E-17	2.667502E-18
7.400000E+03	4.516620E-17	2.668846E-18
7.410000E+03	4.536697E-17	2.670550E-18
7.420000E+03	4.556596E-17	2.672817E-18
7.430000E+03	4.576219E-17	2.675739E-18
7.440000E+03	4.595781E-17	2.679599E-18
7.450000E+03	4.615087E-17	2.684439E-18
7.460000E+03	4.634252E-17	2.690482E-18
7.470000E+03	4.653186E-17	2.697820E-18
7.480000E+03	4.672009E-17	2.706650E-18
7.490000E+03	4.690523E-17	2.716960E-18
7.500000E+03	4.708849E-17	2.728888E-18
7.510000E+03	4.727002E-17	2.742472E-18
7.520000E+03	4.744883E-17	2.757635E-18
7.530000E+03	4.762726E-17	2.774442E-18
7.540000E+03	4.780317E-17	2.792655E-18
7.550000E+03	4.797776E-17	2.812192E-18
7.560000E+03	4.814996E-17	2.832807E-18
7.570000E+03	4.832097E-17	2.854367E-18
7.580000E+03	4.848969E-17	2.876594E-18
7.590000E+03	4.865730E-17	2.899343E-18
7.600000E+03	4.882267E-17	2.922342E-18
7.610000E+03	4.898579E-17	2.945401E-18
7.620000E+03	4.914783E-17	2.968424E-18
7.630000E+03	4.930759E-17	2.991200E-18
7.640000E+03	4.946500E-17	3.013618E-18
7.650000E+03	4.962121E-17	3.035672E-18
7.660000E+03	4.977493E-17	3.057238E-18
7.670000E+03	4.992725E-17	3.078368E-18
7.680000E+03	5.007560E-17	3.098913E-18
7.690000E+03	5.022228E-17	3.119044E-18
7.700000E+03	5.036714E-17	3.138803E-18
7.710000E+03	5.050875E-17	3.158161E-18
7.720000E+03	5.064817E-17	3.177255E-18
7.730000E+03	5.078391E-17	3.196066E-18
7.740000E+03	5.091574E-17	3.214653E-18
7.750000E+03	5.104468E-17	3.233156E-18
7.760000E+03	5.117049E-17	3.251628E-18
