#wls	flux	fluxerr
1.600000E+03	6.537394E-17	4.069996E-17
1.640000E+03	6.562912E-17	4.011215E-17
1.680000E+03	6.582403E-17	3.947405E-17
1.720000E+03	6.594489E-17	3.877975E-17
1.760000E+03	6.600274E-17	3.803837E-17
1.800000E+03	6.598254E-17	3.724385E-17
1.840000E+03	6.588140E-17	3.639762E-17
1.880000E+03	6.570664E-17	3.550687E-17
1.920000E+03	6.544238E-17	3.456623E-17
1.960000E+03	6.508918E-17	3.357967E-17
2.000000E+03	6.463702E-17	3.254586E-17
2.040000E+03	6.408598E-17	3.146904E-17
2.080000E+03	6.341836E-17	3.034498E-17
2.120000E+03	6.262392E-17	2.917388E-17
2.160000E+03	6.169120E-17	2.795600E-17
2.200000E+03	6.059448E-17	2.668596E-17
2.240000E+03	5.931287E-17	2.536180E-17
2.280000E+03	5.784691E-17	2.399160E-17
2.320000E+03	5.621376E-17	2.259010E-17
2.360000E+03	5.446163E-17	2.118328E-17
2.400000E+03	5.262568E-17	1.978969E-17
2.440000E+03	5.073287E-17	1.842308E-17
2.480000E+03	4.880990E-17	1.709566E-17
2.520000E+03	4.686619E-17	1.581237E-17
2.560000E+03	4.491403E-17	1.457857E-17
2.600000E+03	4.296063E-17	1.339729E-17
2.640000E+03	4.101438E-17	1.227150E-17
2.680000E+03	3.907887E-17	1.120229E-17
2.720000E+03	3.715866E-17	1.019073E-17
2.760000E+03	3.525801E-17	9.237514E-18
2.800000E+03	3.338123E-17	8.343028E-18
2.840000E+03	3.153385E-17	7.507636E-18
2.880000E+03	2.972374E-17	6.731870E-18
2.920000E+03	2.795997E-17	6.016044E-18
2.960000E+03	2.625306E-17	5.360261E-18
3.000000E+03	2.461301E-17	4.763976E-18
3.010000E+03	2.421513E-17	4.624187E-18
3.020000E+03	2.382151E-17	4.487899E-18
3.030000E+03	2.343322E-17	4.355263E-18
3.040000E+03	2.304970E-17	4.226122E-18
3.050000E+03	2.267142E-17	4.100510E-18
3.060000E+03	2.229882E-17	3.978450E-18
3.070000E+03	2.193090E-17	3.859707E-18
3.080000E+03	2.156898E-17	3.744465E-18
3.090000E+03	2.121211E-17	3.632495E-18
3.100000E+03	2.086110E-17	3.523883E-18
3.110000E+03	2.051543E-17	3.418484E-18
3.120000E+03	2.017507E-17	3.316234E-18
3.130000E+03	1.984073E-17	3.217197E-18
3.140000E+03	1.951163E-17	3.121181E-18
3.150000E+03	1.918887E-17	3.028301E-18
3.160000E+03	1.887133E-17	2.938317E-18
3.170000E+03	1.856006E-17	2.851333E-18
3.180000E+03	1.825434E-17	2.767174E-18
3.190000E+03	1.795481E-17	2.685877E-18
3.200000E+03	1.766111E-17	2.607323E-18
3.210000E+03	1.737350E-17	2.531493E-18
3.220000E+03	1.709193E-17	2.458319E-18
3.230000E+03	1.681639E-17	2.387736E-18
3.240000E+03	1.654660E-17	2.319640E-18
3.250000E+03	1.628310E-17	2.254049E-18
3.260000E+03	1.602560E-17	2.190859E-18
3.270000E+03	1.577435E-17	2.130043E-18
3.280000E+03	1.552904E-17	2.071503E-18
3.290000E+03	1.528967E-17	2.015179E-18
3.300000E+03	1.505643E-17	1.961038E-18
3.310000E+03	1.482906E-17	1.908990E-18
3.320000E+03	1.460775E-17	1.859001E-18
3.330000E+03	1.439244E-17	1.811010E-18
3.340000E+03	1.418268E-17	1.764907E-18
3.350000E+03	1.397885E-17	1.720684E-18
3.360000E+03	1.378070E-17	1.678260E-18
3.370000E+03	1.358820E-17	1.637580E-18
3.380000E+03	1.340131E-17	1.598589E-18
3.390000E+03	1.321965E-17	1.561192E-18
3.400000E+03	1.304353E-17	1.525383E-18
3.410000E+03	1.287275E-17	1.491089E-18
3.420000E+03	1.270712E-17	1.458242E-18
3.430000E+03	1.254662E-17	1.426799E-18
3.440000E+03	1.239123E-17	1.396711E-18
3.450000E+03	1.224060E-17	1.367901E-18
3.460000E+03	1.209490E-17	1.340346E-18
3.470000E+03	1.195382E-17	1.313972E-18
3.480000E+03	1.181735E-17	1.288743E-18
3.490000E+03	1.168537E-17	1.264607E-18
3.500000E+03	1.155775E-17	1.241515E-18
3.510000E+03	1.143438E-17	1.219421E-18
3.520000E+03	1.131515E-17	1.198283E-18
3.530000E+03	1.119984E-17	1.178044E-18
3.540000E+03	1.108826E-17	1.158654E-18
3.550000E+03	1.098034E-17	1.140078E-18
3.560000E+03	1.087589E-17	1.122270E-18
3.570000E+03	1.077487E-17	1.105197E-18
3.580000E+03	1.067701E-17	1.088809E-18
3.590000E+03	1.058228E-17	1.073077E-18
3.600000E+03	1.049054E-17	1.057965E-18
3.610000E+03	1.040186E-17	1.043460E-18
3.620000E+03	1.031603E-17	1.029516E-18
3.630000E+03	1.023301E-17	1.016111E-18
3.640000E+03	1.015250E-17	1.003197E-18
3.650000E+03	1.007449E-17	9.907550E-19
3.660000E+03	9.998881E-18	9.787575E-19
3.670000E+03	9.925588E-18	9.671796E-19
3.680000E+03	9.854607E-18	9.560056E-19
3.690000E+03	9.785935E-18	9.452203E-19
3.700000E+03	9.719480E-18	9.348008E-19
3.710000E+03	9.655323E-18	9.247411E-19
3.720000E+03	9.593368E-18	9.150185E-19
3.730000E+03	9.533770E-18	9.056358E-19
3.740000E+03	9.476508E-18	8.965785E-19
3.750000E+03	9.421555E-18	8.878323E-19
3.760000E+03	9.368964E-18	8.793915E-19
3.770000E+03	9.318862E-18	8.712570E-19
3.780000E+03	9.271205E-18	8.634149E-19
3.790000E+03	9.226108E-18	8.558661E-19
3.800000E+03	9.183521E-18	8.485964E-19
3.810000E+03	9.143472E-18	8.415992E-19
3.820000E+03	9.106059E-18	8.348750E-19
3.830000E+03	9.071377E-18	8.284235E-19
3.840000E+03	9.039363E-18	8.222307E-19
3.850000E+03	9.010178E-18	8.163034E-19
3.860000E+03	8.983682E-18	8.106204E-19
3.870000E+03	8.960101E-18	8.051947E-19
3.880000E+03	8.939289E-18	8.000058E-19
3.890000E+03	8.921466E-18	7.950656E-19
3.900000E+03	8.906551E-18	7.903597E-19
3.910000E+03	8.894613E-18	7.858870E-19
3.920000E+03	8.885641E-18	7.816393E-19
3.930000E+03	8.879697E-18	7.776150E-19
3.940000E+03	8.876770E-18	7.738063E-19
3.950000E+03	8.876988E-18	7.702172E-19
3.960000E+03	8.880268E-18	7.668334E-19
3.970000E+03	8.886667E-18	7.636530E-19
3.980000E+03	8.896170E-18	7.606675E-19
3.990000E+03	8.908904E-18	7.578805E-19
4.000000E+03	8.924853E-18	7.552836E-19
4.010000E+03	8.944002E-18	7.528679E-19
4.020000E+03	8.966336E-18	7.506246E-19
4.030000E+03	8.991981E-18	7.485569E-19
4.040000E+03	9.020853E-18	7.466498E-19
4.050000E+03	9.053080E-18	7.449062E-19
4.060000E+03	9.088579E-18	7.433112E-19
4.070000E+03	9.127411E-18	7.418617E-19
4.080000E+03	9.169640E-18	7.405542E-19
4.090000E+03	9.215256E-18	7.393798E-19
4.100000E+03	9.264255E-18	7.383293E-19
4.110000E+03	9.316630E-18	7.373935E-19
4.120000E+03	9.372521E-18	7.365750E-19
4.130000E+03	9.431853E-18	7.358584E-19
4.140000E+03	9.494696E-18	7.352401E-19
4.150000E+03	9.560971E-18	7.347047E-19
4.160000E+03	9.630751E-18	7.342477E-19
4.170000E+03	9.704107E-18	7.338644E-19
4.180000E+03	9.780964E-18	7.335387E-19
4.190000E+03	9.861395E-18	7.332652E-19
4.200000E+03	9.945320E-18	7.330270E-19
4.210000E+03	1.003282E-17	7.328189E-19
4.220000E+03	1.012380E-17	7.326233E-19
4.230000E+03	1.021835E-17	7.324342E-19
4.240000E+03	1.031637E-17	7.322343E-19
4.250000E+03	1.041787E-17	7.320114E-19
4.260000E+03	1.052274E-17	7.317475E-19
4.270000E+03	1.063106E-17	7.314365E-19
4.280000E+03	1.074273E-17	7.310602E-19
4.290000E+03	1.085772E-17	7.306063E-19
4.300000E+03	1.097594E-17	7.300570E-19
4.310000E+03	1.109725E-17	7.293935E-19
4.320000E+03	1.122163E-17	7.286036E-19
4.330000E+03	1.134902E-17	7.276751E-19
4.340000E+03	1.147928E-17	7.265892E-19
4.350000E+03	1.161236E-17	7.253336E-19
4.360000E+03	1.174809E-17	7.238904E-19
4.370000E+03	1.188649E-17	7.222525E-19
4.380000E+03	1.202748E-17	7.204073E-19
4.390000E+03	1.217127E-17	7.183594E-19
4.400000E+03	1.231773E-17	7.160859E-19
4.410000E+03	1.246691E-17	7.135671E-19
4.420000E+03	1.261874E-17	7.107771E-19
4.430000E+03	1.277338E-17	7.077011E-19
4.440000E+03	1.293066E-17	7.043076E-19
4.450000E+03	1.309051E-17	7.005723E-19
4.460000E+03	1.325297E-17	6.964769E-19
4.470000E+03	1.341798E-17	6.919991E-19
4.480000E+03	1.358546E-17	6.871193E-19
4.490000E+03	1.375523E-17	6.818135E-19
4.500000E+03	1.392731E-17	6.760731E-19
4.510000E+03	1.410151E-17	6.698819E-19
4.520000E+03	1.427773E-17	6.632332E-19
4.530000E+03	1.445587E-17	6.561261E-19
4.540000E+03	1.463557E-17	6.485559E-19
4.550000E+03	1.481685E-17	6.405419E-19
4.560000E+03	1.499945E-17	6.321024E-19
4.570000E+03	1.518326E-17	6.232726E-19
4.580000E+03	1.536787E-17	6.140889E-19
4.590000E+03	1.555329E-17	6.046193E-19
4.600000E+03	1.573909E-17	5.949325E-19
4.610000E+03	1.592526E-17	5.851308E-19
4.620000E+03	1.611137E-17	5.753220E-19
4.630000E+03	1.629725E-17	5.656477E-19
4.640000E+03	1.648258E-17	5.562671E-19
4.650000E+03	1.666734E-17	5.473754E-19
4.660000E+03	1.685106E-17	5.391794E-19
4.670000E+03	1.703369E-17	5.319231E-19
4.680000E+03	1.721490E-17	5.258622E-19
4.690000E+03	1.739435E-17	5.212688E-19
4.700000E+03	1.757198E-17	5.184292E-19
4.710000E+03	1.774729E-17	5.176115E-19
4.720000E+03	1.792005E-17	5.190737E-19
4.730000E+03	1.808984E-17	5.229314E-19
4.740000E+03	1.825673E-17	5.290765E-19
4.750000E+03	1.842037E-17	5.373173E-19
4.760000E+03	1.858086E-17	5.474417E-19
4.770000E+03	1.873801E-17	5.592091E-19
4.780000E+03	1.889193E-17	5.723816E-19
4.790000E+03	1.904240E-17	5.867103E-19
4.800000E+03	1.918940E-17	6.019611E-19
4.810000E+03	1.933287E-17	6.179147E-19
4.820000E+03	1.947277E-17	6.343672E-19
4.830000E+03	1.960906E-17	6.511346E-19
4.840000E+03	1.974152E-17	6.680472E-19
4.850000E+03	1.987030E-17	6.849654E-19
4.860000E+03	1.999537E-17	7.017631E-19
4.870000E+03	2.011652E-17	7.183263E-19
4.880000E+03	2.023372E-17	7.345611E-19
4.890000E+03	2.034714E-17	7.503970E-19
4.900000E+03	2.045639E-17	7.657564E-19
4.910000E+03	2.056183E-17	7.805983E-19
4.920000E+03	2.066325E-17	7.948718E-19
4.930000E+03	2.076043E-17	8.085353E-19
4.940000E+03	2.085353E-17	8.215633E-19
4.950000E+03	2.094252E-17	8.339307E-19
4.960000E+03	2.102715E-17	8.456117E-19
4.970000E+03	2.110758E-17	8.565963E-19
4.980000E+03	2.118335E-17	8.668557E-19
4.990000E+03	2.125482E-17	8.764010E-19
5.000000E+03	2.132172E-17	8.852173E-19
5.010000E+03	2.138380E-17	8.932951E-19
5.020000E+03	2.144119E-17	9.006478E-19
5.030000E+03	2.149362E-17	9.072708E-19
5.040000E+03	2.154104E-17	9.131737E-19
5.050000E+03	2.158339E-17	9.183711E-19
5.060000E+03	2.162061E-17	9.228764E-19
5.070000E+03	2.165241E-17	9.266985E-19
5.080000E+03	2.167896E-17	9.298689E-19
5.090000E+03	2.169997E-17	9.323975E-19
5.100000E+03	2.171538E-17	9.343074E-19
5.110000E+03	2.172492E-17	9.356166E-19
5.120000E+03	2.172877E-17	9.363583E-19
5.130000E+03	2.172644E-17	9.365422E-19
5.140000E+03	2.171835E-17	9.362179E-19
5.150000E+03	2.170404E-17	9.353925E-19
5.160000E+03	2.168373E-17	9.341041E-19
5.170000E+03	2.165721E-17	9.323767E-19
5.180000E+03	2.162429E-17	9.302331E-19
5.190000E+03	2.158518E-17	9.277190E-19
5.200000E+03	2.153971E-17	9.248657E-19
5.210000E+03	2.148792E-17	9.217109E-19
5.220000E+03	2.142986E-17	9.182961E-19
5.230000E+03	2.136538E-17	9.146562E-19
5.240000E+03	2.129455E-17	9.108297E-19
5.250000E+03	2.121725E-17	9.068482E-19
5.260000E+03	2.113378E-17	9.027619E-19
5.270000E+03	2.104403E-17	8.985929E-19
5.280000E+03	2.094812E-17	8.943727E-19
5.290000E+03	2.084619E-17	8.901330E-19
5.300000E+03	2.073817E-17	8.858877E-19
5.310000E+03	2.062422E-17	8.816598E-19
5.320000E+03	2.050451E-17	8.774724E-19
5.330000E+03	2.037923E-17	8.733403E-19
5.340000E+03	2.024839E-17	8.692698E-19
5.350000E+03	2.011240E-17	8.652845E-19
5.360000E+03	1.997149E-17	8.613896E-19
5.370000E+03	1.982593E-17	8.575903E-19
5.380000E+03	1.967578E-17	8.538835E-19
5.390000E+03	1.952172E-17	8.502841E-19
5.400000E+03	1.936389E-17	8.467818E-19
5.410000E+03	1.920298E-17	8.433928E-19
5.420000E+03	1.903916E-17	8.401024E-19
5.430000E+03	1.887298E-17	8.369139E-19
5.440000E+03	1.870482E-17	8.338241E-19
5.450000E+03	1.853545E-17	8.308421E-19
5.460000E+03	1.836506E-17	8.279540E-19
5.470000E+03	1.819389E-17	8.251477E-19
5.480000E+03	1.802200E-17	8.223988E-19
5.490000E+03	1.784984E-17	8.197014E-19
5.500000E+03	1.767750E-17	8.170358E-19
5.510000E+03	1.750527E-17	8.143879E-19
5.520000E+03	1.733347E-17	8.117465E-19
5.530000E+03	1.716238E-17	8.091030E-19
5.540000E+03	1.699230E-17	8.064467E-19
5.550000E+03	1.682370E-17	8.037776E-19
5.560000E+03	1.665685E-17	8.010901E-19
5.570000E+03	1.649236E-17	7.983917E-19
5.580000E+03	1.633033E-17	7.956680E-19
5.590000E+03	1.617150E-17	7.929396E-19
5.600000E+03	1.601592E-17	7.901929E-19
5.610000E+03	1.586413E-17	7.874413E-19
5.620000E+03	1.571662E-17	7.847003E-19
5.630000E+03	1.557335E-17	7.819589E-19
5.640000E+03	1.543507E-17	7.792485E-19
5.650000E+03	1.530186E-17	7.765701E-19
5.660000E+03	1.517374E-17	7.739228E-19
5.670000E+03	1.505134E-17	7.713395E-19
5.680000E+03	1.493450E-17	7.688146E-19
5.690000E+03	1.482346E-17	7.663644E-19
5.700000E+03	1.471847E-17	7.640063E-19
5.710000E+03	1.461957E-17	7.617512E-19
5.720000E+03	1.452680E-17	7.596071E-19
5.730000E+03	1.444017E-17	7.575828E-19
5.740000E+03	1.435984E-17	7.556958E-19
5.750000E+03	1.428595E-17	7.539594E-19
5.760000E+03	1.421819E-17	7.523637E-19
5.770000E+03	1.415699E-17	7.509387E-19
5.780000E+03	1.410206E-17	7.496711E-19
5.790000E+03	1.405370E-17	7.485797E-19
5.800000E+03	1.401178E-17	7.476598E-19
5.810000E+03	1.397647E-17	7.469191E-19
5.820000E+03	1.394777E-17	7.463578E-19
5.830000E+03	1.392586E-17	7.459847E-19
5.840000E+03	1.391060E-17	7.457891E-19
5.850000E+03	1.390200E-17	7.457690E-19
5.860000E+03	1.390023E-17	7.459313E-19
5.870000E+03	1.390543E-17	7.462800E-19
5.880000E+03	1.391731E-17	7.467953E-19
5.890000E+03	1.393616E-17	7.474912E-19
5.900000E+03	1.396184E-17	7.483552E-19
5.910000E+03	1.399451E-17	7.493922E-19
5.920000E+03	1.403418E-17	7.506005E-19
5.930000E+03	1.408068E-17	7.519685E-19
5.940000E+03	1.413415E-17	7.535032E-19
5.950000E+03	1.419458E-17	7.552046E-19
5.960000E+03	1.426180E-17	7.570628E-19
5.970000E+03	1.433608E-17	7.590952E-19
5.980000E+03	1.441708E-17	7.612866E-19
5.990000E+03	1.450491E-17	7.636465E-19
6.000000E+03	1.459953E-17	7.661775E-19
6.010000E+03	1.470071E-17	7.688752E-19
6.020000E+03	1.480856E-17	7.717510E-19
6.030000E+03	1.492265E-17	7.747917E-19
6.040000E+03	1.504326E-17	7.780214E-19
6.050000E+03	1.516993E-17	7.814264E-19
6.060000E+03	1.530273E-17	7.850221E-19
6.070000E+03	1.544136E-17	7.888074E-19
6.080000E+03	1.558569E-17	7.927884E-19
6.090000E+03	1.573538E-17	7.969638E-19
6.100000E+03	1.589007E-17	8.013341E-19
6.110000E+03	1.604976E-17	8.059164E-19
6.120000E+03	1.621368E-17	8.106914E-19
6.130000E+03	1.638178E-17	8.156799E-19
6.140000E+03	1.655342E-17	8.208707E-19
6.150000E+03	1.672833E-17	8.262736E-19
6.160000E+03	1.690538E-17	8.318593E-19
6.170000E+03	1.708443E-17	8.376453E-19
6.180000E+03	1.726450E-17	8.436087E-19
6.190000E+03	1.744495E-17	8.497471E-19
6.200000E+03	1.762498E-17	8.560351E-19
6.210000E+03	1.780473E-17	8.624764E-19
6.220000E+03	1.798462E-17	8.690847E-19
6.230000E+03	1.816508E-17	8.758716E-19
6.240000E+03	1.834660E-17	8.828505E-19
6.250000E+03	1.852896E-17	8.900027E-19
6.260000E+03	1.871319E-17	8.973638E-19
6.270000E+03	1.889887E-17	9.049025E-19
6.280000E+03	1.908660E-17	9.126360E-19
6.290000E+03	1.927673E-17	9.205677E-19
6.300000E+03	1.946890E-17	9.286661E-19
6.310000E+03	1.966350E-17	9.369388E-19
6.320000E+03	1.986068E-17	9.453790E-19
6.330000E+03	2.006062E-17	9.539822E-19
6.340000E+03	2.026295E-17	9.627206E-19
6.350000E+03	2.046785E-17	9.715887E-19
6.360000E+03	2.067524E-17	9.805708E-19
6.370000E+03	2.088504E-17	9.896532E-19
6.380000E+03	2.109687E-17	9.988059E-19
6.390000E+03	2.131035E-17	1.008001E-18
6.400000E+03	2.152508E-17	1.017211E-18
6.410000E+03	2.174094E-17	1.026420E-18
6.420000E+03	2.195751E-17	1.035600E-18
6.430000E+03	2.217370E-17	1.044694E-18
6.440000E+03	2.239034E-17	1.053733E-18
6.450000E+03	2.260730E-17	1.062706E-18
6.460000E+03	2.282482E-17	1.071621E-18
6.470000E+03	2.304347E-17	1.080500E-18
6.480000E+03	2.326287E-17	1.089321E-18
6.490000E+03	2.348364E-17	1.098114E-18
6.500000E+03	2.370576E-17	1.106872E-18
6.510000E+03	2.392955E-17	1.115610E-18
6.520000E+03	2.415427E-17	1.124291E-18
6.530000E+03	2.438100E-17	1.132962E-18
6.540000E+03	2.460898E-17	1.141585E-18
6.550000E+03	2.483860E-17	1.150179E-18
6.560000E+03	2.506986E-17	1.158738E-18
6.570000E+03	2.530234E-17	1.167241E-18
6.580000E+03	2.553647E-17	1.175706E-18
6.590000E+03	2.577225E-17	1.184127E-18
6.600000E+03	2.600930E-17	1.192484E-18
6.610000E+03	2.624763E-17	1.200774E-18
6.620000E+03	2.648725E-17	1.208993E-18
6.630000E+03	2.672863E-17	1.217156E-18
6.640000E+03	2.697092E-17	1.225223E-18
6.650000E+03	2.721458E-17	1.233209E-18
6.660000E+03	2.745963E-17	1.241110E-18
6.670000E+03	2.770565E-17	1.248907E-18
6.680000E+03	2.795310E-17	1.256614E-18
6.690000E+03	2.820155E-17	1.264207E-18
6.700000E+03	2.845149E-17	1.271708E-18
6.710000E+03	2.870197E-17	1.279068E-18
6.720000E+03	2.895350E-17	1.286306E-18
6.730000E+03	2.920661E-17	1.293446E-18
6.740000E+03	2.946032E-17	1.300436E-18
6.750000E+03	2.971516E-17	1.307298E-18
6.760000E+03	2.997066E-17	1.314008E-18
6.770000E+03	3.022737E-17	1.320581E-18
6.780000E+03	3.048480E-17	1.326989E-18
6.790000E+03	3.074299E-17	1.333229E-18
6.800000E+03	3.100252E-17	1.339313E-18
6.810000E+03	3.126234E-17	1.345185E-18
6.820000E+03	3.152362E-17	1.350885E-18
6.830000E+03	3.178527E-17	1.356349E-18
6.840000E+03	3.204848E-17	1.361614E-18
6.850000E+03	3.231213E-17	1.366620E-18
6.860000E+03	3.257624E-17	1.371350E-18
6.870000E+03	3.284143E-17	1.375813E-18
6.880000E+03	3.310773E-17	1.380003E-18
6.890000E+03	3.337394E-17	1.383854E-18
6.900000E+03	3.364127E-17	1.387411E-18
6.910000E+03	3.390913E-17	1.390645E-18
6.920000E+03	3.417815E-17	1.393577E-18
6.930000E+03	3.444704E-17	1.396153E-18
6.940000E+03	3.471644E-17	1.398405E-18
6.950000E+03	3.498632E-17	1.400329E-18
6.960000E+03	3.525600E-17	1.401901E-18
6.970000E+03	3.552612E-17	1.403155E-18
6.980000E+03	3.579667E-17	1.404089E-18
6.990000E+03	3.606694E-17	1.404680E-18
7.000000E+03	3.633690E-17	1.404937E-18
7.010000E+03	3.660650E-17	1.404857E-18
7.020000E+03	3.687645E-17	1.404473E-18
7.030000E+03	3.714528E-17	1.403738E-18
7.040000E+03	3.741444E-17	1.402705E-18
7.050000E+03	3.768244E-17	1.401320E-18
7.060000E+03	3.795000E-17	1.399617E-18
7.070000E+03	3.821635E-17	1.397561E-18
7.080000E+03	3.848223E-17	1.395174E-18
7.090000E+03	3.874766E-17	1.392459E-18
7.100000E+03	3.901186E-17	1.389373E-18
7.110000E+03	3.927403E-17	1.385875E-18
7.120000E+03	3.953574E-17	1.382018E-18
7.130000E+03	3.979623E-17	1.377748E-18
7.140000E+03	4.005548E-17	1.373048E-18
7.150000E+03	4.031352E-17	1.367902E-18
7.160000E+03	4.056953E-17	1.362252E-18
7.170000E+03	4.082432E-17	1.356096E-18
7.180000E+03	4.107708E-17	1.349383E-18
7.190000E+03	4.132780E-17	1.342073E-18
7.200000E+03	4.157736E-17	1.334156E-18
7.210000E+03	4.182494E-17	1.325576E-18
7.220000E+03	4.207142E-17	1.316310E-18
7.230000E+03	4.231506E-17	1.306262E-18
7.240000E+03	4.255677E-17	1.295429E-18
7.250000E+03	4.279652E-17	1.283763E-18
7.260000E+03	4.303431E-17	1.271231E-18
7.270000E+03	4.327012E-17	1.257810E-18
7.280000E+03	4.350389E-17	1.243467E-18
7.290000E+03	4.373461E-17	1.228155E-18
7.300000E+03	4.396313E-17	1.211899E-18
7.310000E+03	4.418935E-17	1.194691E-18
7.320000E+03	4.441317E-17	1.176543E-18
7.330000E+03	4.463351E-17	1.157464E-18
7.340000E+03	4.485123E-17	1.137507E-18
7.350000E+03	4.506722E-17	1.116753E-18
7.360000E+03	4.527943E-17	1.095241E-18
7.370000E+03	4.548876E-17	1.073085E-18
7.380000E+03	4.569513E-17	1.050415E-18
7.390000E+03	4.589949E-17	1.027430E-18
7.400000E+03	4.610081E-17	1.004288E-18
7.410000E+03	4.630008E-17	9.812532E-19
7.420000E+03	4.649836E-17	9.586537E-19
7.430000E+03	4.669469E-17	9.368066E-19
7.440000E+03	4.689130E-17	9.161767E-19
7.450000E+03	4.708618E-17	8.972346E-19
7.460000E+03	4.728063E-17	8.805606E-19
7.470000E+03	4.747376E-17	8.667793E-19
7.480000E+03	4.766691E-17	8.566264E-19
7.490000E+03	4.785820E-17	8.507797E-19
7.500000E+03	4.804902E-17	8.499742E-19
7.510000E+03	4.823971E-17	8.548538E-19
7.520000E+03	4.842928E-17	8.654890E-19
7.530000E+03	4.861977E-17	8.813419E-19
7.540000E+03	4.880870E-17	9.016575E-19
7.550000E+03	4.899706E-17	9.256567E-19
7.560000E+03	4.918360E-17	9.525353E-19
7.570000E+03	4.936938E-17	9.815834E-19
7.580000E+03	4.955321E-17	1.012061E-18
7.590000E+03	4.973625E-17	1.043356E-18
7.600000E+03	4.991730E-17	1.074910E-18
7.610000E+03	5.009630E-17	1.106273E-18
7.620000E+03	5.027440E-17	1.137116E-18
7.630000E+03	5.045033E-17	1.167145E-18
7.640000E+03	5.062398E-17	1.196165E-18
7.650000E+03	5.079649E-17	1.224083E-18
7.660000E+03	5.096651E-17	1.250813E-18
7.670000E+03	5.113513E-17	1.276369E-18
7.680000E+03	5.129968E-17	1.300719E-18
7.690000E+03	5.146250E-17	1.323996E-18
7.700000E+03	5.162344E-17	1.346253E-18
7.710000E+03	5.178103E-17	1.367535E-18
7.720000E+03	5.193639E-17	1.387974E-18
7.730000E+03	5.208807E-17	1.407603E-18
7.740000E+03	5.223591E-17	1.426504E-18
7.750000E+03	5.238105E-17	1.444810E-18
7.760000E+03	5.252333E-17	1.462590E-18
