#wls	flux	fluxerr
1.600000E+03	1.873196E-16	1.809190E-16
1.640000E+03	1.970525E-16	1.870549E-16
1.680000E+03	2.069560E-16	1.929464E-16
1.720000E+03	2.169356E-16	1.984868E-16
1.760000E+03	2.269650E-16	2.036370E-16
1.800000E+03	2.369216E-16	2.082749E-16
1.840000E+03	2.467093E-16	2.123107E-16
1.880000E+03	2.562600E-16	2.156857E-16
1.920000E+03	2.654062E-16	2.182659E-16
1.960000E+03	2.740307E-16	2.199715E-16
2.000000E+03	2.819621E-16	2.206914E-16
2.040000E+03	2.890620E-16	2.203553E-16
2.080000E+03	2.951047E-16	2.188419E-16
2.120000E+03	2.998891E-16	2.160693E-16
2.160000E+03	3.032054E-16	2.119697E-16
2.200000E+03	3.047743E-16	2.064496E-16
2.240000E+03	3.043443E-16	1.994620E-16
2.280000E+03	3.017896E-16	1.910659E-16
2.320000E+03	2.971029E-16	1.814075E-16
2.360000E+03	2.904825E-16	1.707588E-16
2.400000E+03	2.821032E-16	1.593630E-16
2.440000E+03	2.721366E-16	1.474479E-16
2.480000E+03	2.607887E-16	1.352447E-16
2.520000E+03	2.482055E-16	1.229361E-16
2.560000E+03	2.345773E-16	1.107121E-16
2.600000E+03	2.200931E-16	9.874326E-17
2.640000E+03	2.049688E-16	8.719228E-17
2.680000E+03	1.894121E-16	7.619579E-17
2.720000E+03	1.736454E-16	6.587408E-17
2.760000E+03	1.578932E-16	5.632417E-17
2.800000E+03	1.423761E-16	4.761776E-17
2.840000E+03	1.273072E-16	3.980089E-17
2.880000E+03	1.128887E-16	3.289418E-17
2.920000E+03	9.929745E-17	2.689124E-17
2.960000E+03	8.668012E-17	2.176116E-17
2.989568E+03	2.897151E-16	8.382703E-16
2.989768E+03	2.902334E-16	8.383322E-16
2.991769E+03	2.908139E-16	8.385573E-16
2.991969E+03	2.912859E-16	8.386154E-16
2.993369E+03	2.917374E-16	8.387768E-16
2.993569E+03	2.921940E-16	8.388336E-16
2.994969E+03	2.925993E-16	8.389911E-16
2.995769E+03	2.929993E-16	8.390957E-16
2.996569E+03	2.933994E-16	8.392003E-16
2.996769E+03	2.937631E-16	8.392491E-16
2.997170E+03	2.940874E-16	8.393122E-16
2.997370E+03	2.944356E-16	8.393598E-16
2.998769E+03	2.947949E-16	8.395135E-16
3.012770E+03	2.955824E-16	8.408117E-16
3.013170E+03	2.958607E-16	8.408707E-16
3.013970E+03	2.961377E-16	8.409649E-16
3.014770E+03	2.963991E-16	8.410578E-16
3.015771E+03	2.966678E-16	8.411690E-16
3.016371E+03	2.969378E-16	8.412450E-16
3.016971E+03	2.971923E-16	8.413198E-16
3.017771E+03	2.974695E-16	8.414140E-16
3.019171E+03	2.977215E-16	8.415591E-16
3.019371E+03	2.979152E-16	8.415933E-16
3.019571E+03	2.980779E-16	8.416249E-16
3.020371E+03	2.982464E-16	8.417099E-16
3.021372E+03	2.984066E-16	8.418120E-16
3.022171E+03	2.985596E-16	8.418957E-16
3.022972E+03	2.986660E-16	8.419754E-16
3.023371E+03	2.987736E-16	8.420199E-16
3.023571E+03	2.988430E-16	8.420435E-16
3.023771E+03	2.988969E-16	8.420658E-16
3.024971E+03	2.989865E-16	8.421794E-16
3.025171E+03	2.990248E-16	8.422004E-16
3.025771E+03	2.990774E-16	8.422579E-16
3.025971E+03	2.990846E-16	8.422761E-16
3.027772E+03	2.991336E-16	8.424395E-16
3.027972E+03	2.991096E-16	8.424551E-16
3.028972E+03	2.991143E-16	8.425440E-16
3.031972E+03	2.991752E-16	8.428146E-16
3.032172E+03	2.991201E-16	8.428277E-16
3.032372E+03	2.990649E-16	8.428407E-16
3.033773E+03	2.990217E-16	8.429611E-16
3.033973E+03	2.989354E-16	8.429715E-16
3.034372E+03	2.988407E-16	8.429989E-16
3.034573E+03	2.987388E-16	8.430080E-16
3.034773E+03	2.986058E-16	8.430145E-16
3.035372E+03	2.984870E-16	8.430576E-16
3.036172E+03	2.983910E-16	8.431205E-16
3.036772E+03	2.982255E-16	8.431597E-16
3.036972E+03	2.980301E-16	8.431610E-16
3.037372E+03	2.978262E-16	8.431793E-16
3.038172E+03	2.976366E-16	8.432344E-16
3.038372E+03	2.974567E-16	8.432370E-16
3.038572E+03	2.972144E-16	8.432344E-16
3.038772E+03	2.970033E-16	8.432344E-16
3.038972E+03	2.967610E-16	8.432318E-16
3.040373E+03	2.965459E-16	8.433385E-16
3.040973E+03	2.962866E-16	8.433702E-16
3.041173E+03	2.959975E-16	8.433638E-16
3.042573E+03	2.957198E-16	8.434654E-16
3.042773E+03	2.954150E-16	8.434578E-16
3.043173E+03	2.950705E-16	8.434648E-16
3.044173E+03	2.947940E-16	8.435311E-16
3.044373E+03	2.944423E-16	8.435197E-16
3.044773E+03	2.940508E-16	8.435230E-16
3.045173E+03	2.936438E-16	8.435250E-16
3.045373E+03	2.932296E-16	8.435087E-16
3.045574E+03	2.927842E-16	8.434899E-16
3.046174E+03	2.923841E-16	8.435107E-16
3.047573E+03	2.919809E-16	8.436030E-16
3.048573E+03	2.915946E-16	8.436609E-16
3.048973E+03	2.911404E-16	8.436596E-16
3.049173E+03	2.906324E-16	8.436361E-16
3.050373E+03	2.901748E-16	8.437066E-16
3.050573E+03	2.896823E-16	8.436845E-16
3.052574E+03	2.892056E-16	8.438258E-16
3.052774E+03	2.886505E-16	8.437989E-16
3.052974E+03	2.880640E-16	8.437696E-16
3.055574E+03	2.876077E-16	8.439673E-16
3.058575E+03	2.871494E-16	8.442016E-16
3.059974E+03	2.865727E-16	8.442820E-16
3.061174E+03	2.860203E-16	8.443466E-16
3.061374E+03	2.853863E-16	8.443144E-16
3.061774E+03	2.847436E-16	8.442997E-16
3.062174E+03	2.841164E-16	8.442864E-16
3.065175E+03	2.835471E-16	8.445141E-16
3.066775E+03	2.829293E-16	8.446110E-16
3.069375E+03	2.823456E-16	8.448021E-16
3.071376E+03	2.817410E-16	8.449374E-16
3.071575E+03	2.810436E-16	8.449016E-16
3.072975E+03	2.803242E-16	8.449738E-16
3.073575E+03	2.795932E-16	8.449723E-16
3.075175E+03	2.788802E-16	8.450639E-16
3.075775E+03	2.781332E-16	8.450617E-16
3.076576E+03	2.773615E-16	8.450762E-16
3.077776E+03	2.766031E-16	8.451287E-16
3.079976E+03	2.758623E-16	8.452747E-16
3.081576E+03	2.751010E-16	8.453644E-16
3.081776E+03	2.742615E-16	8.453198E-16
3.081977E+03	2.734220E-16	8.452755E-16
3.082177E+03	2.725667E-16	8.452301E-16
3.084176E+03	2.717709E-16	8.453555E-16
3.084776E+03	2.709128E-16	8.453475E-16
3.085776E+03	2.700521E-16	8.453765E-16
3.086376E+03	2.691467E-16	8.453655E-16
3.087176E+03	2.682634E-16	8.453750E-16
3.088577E+03	2.673525E-16	8.454385E-16
3.089577E+03	2.664752E-16	8.451576E-16
3.089777E+03	2.655249E-16	8.447819E-16
3.092977E+03	2.646555E-16	8.450789E-16
3.094178E+03	2.637054E-16	8.452157E-16
3.094778E+03	2.627045E-16	8.451849E-16
3.096377E+03	2.617668E-16	8.452676E-16
3.096577E+03	2.607370E-16	8.450894E-16
3.097177E+03	2.597042E-16	8.449176E-16
3.098577E+03	2.587122E-16	8.450567E-16
3.098777E+03	2.576507E-16	8.449239E-16
3.098977E+03	2.566049E-16	8.445593E-16
3.099177E+03	2.555119E-16	8.445647E-16
3.099977E+03	2.544532E-16	8.444737E-16
3.100178E+03	2.533600E-16	8.359939E-16
3.100378E+03	2.522511E-16	8.341178E-16
3.100778E+03	2.511325E-16	8.337827E-16
3.102178E+03	2.500286E-16	6.985497E-16
3.102578E+03	2.488783E-16	6.945851E-16
3.102778E+03	2.477689E-16	6.293867E-16
3.103378E+03	2.466087E-16	6.291680E-16
3.103578E+03	2.454678E-16	6.290951E-16
3.104978E+03	2.443311E-16	6.213972E-16
3.105578E+03	2.431546E-16	6.212540E-16
3.106179E+03	2.419623E-16	6.212182E-16
3.107178E+03	2.407657E-16	6.204051E-16
3.107579E+03	2.395514E-16	6.168946E-16
3.108978E+03	2.383503E-16	6.098799E-16
3.109178E+03	2.371140E-16	5.977974E-16
3.109978E+03	2.358635E-16	5.824054E-16
3.110178E+03	2.345956E-16	5.647486E-16
3.110578E+03	2.333176E-16	5.445294E-16
3.110778E+03	2.320338E-16	5.098784E-16
3.111178E+03	2.307398E-16	4.695334E-16
3.111378E+03	2.294244E-16	4.147783E-16
3.111978E+03	2.280886E-16	3.466741E-16
3.112379E+03	2.267786E-16	3.455335E-16
3.113379E+03	2.254377E-16	2.950323E-16
3.114179E+03	2.241068E-16	2.362422E-16
3.114779E+03	2.227387E-16	2.293931E-16
3.115379E+03	2.214176E-16	2.081936E-16
3.115579E+03	2.200226E-16	2.064194E-16
3.115979E+03	2.186487E-16	2.059266E-16
3.116779E+03	2.172537E-16	2.033630E-16
3.118180E+03	2.158901E-16	2.031690E-16
3.118380E+03	2.144788E-16	1.954956E-16
3.119380E+03	2.130567E-16	1.929104E-16
3.119780E+03	2.116345E-16	1.865481E-16
3.119979E+03	2.101756E-16	1.686035E-16
3.120179E+03	2.087165E-16	1.621184E-16
3.120379E+03	2.072417E-16	1.526054E-16
3.120979E+03	2.058084E-16	1.523564E-16
3.121179E+03	2.043333E-16	1.497307E-16
3.121379E+03	2.028739E-16	1.496703E-16
3.121579E+03	2.013672E-16	1.443367E-16
3.121779E+03	1.998762E-16	1.396981E-16
3.121979E+03	1.983693E-16	1.359156E-16
3.122579E+03	1.968406E-16	1.312852E-16
3.122779E+03	1.953492E-16	1.293830E-16
3.122979E+03	1.938106E-16	1.294323E-16
3.123379E+03	1.922766E-16	1.286436E-16
3.123779E+03	1.907582E-16	1.285719E-16
3.123979E+03	1.892350E-16	1.283794E-16
3.124380E+03	1.876691E-16	1.281409E-16
3.124980E+03	1.861076E-16	1.276225E-16
3.125780E+03	1.845661E-16	1.258782E-16
3.125980E+03	1.829794E-16	1.253834E-16
3.126180E+03	1.813926E-16	1.251898E-16
3.126780E+03	1.798145E-16	1.255225E-16
3.127180E+03	1.782476E-16	1.237247E-16
3.127380E+03	1.766289E-16	1.236986E-16
3.127780E+03	1.750302E-16	1.235390E-16
3.127980E+03	1.734114E-16	1.234275E-16
3.129180E+03	1.717820E-16	1.233254E-16
3.129380E+03	1.701470E-16	1.232586E-16
3.129580E+03	1.685277E-16	1.232248E-16
3.130181E+03	1.669165E-16	1.232075E-16
3.130381E+03	1.652969E-16	1.232215E-16
3.130581E+03	1.636458E-16	1.232517E-16
3.130981E+03	1.619985E-16	1.233381E-16
3.131180E+03	1.603156E-16	1.234033E-16
3.132180E+03	1.586482E-16	1.229509E-16
3.132380E+03	1.569981E-16	1.224984E-16
3.132580E+03	1.553637E-16	1.223998E-16
3.132780E+03	1.536835E-16	1.221096E-16
3.133380E+03	1.519933E-16	1.218046E-16
3.133580E+03	1.502860E-16	1.213379E-16
3.133780E+03	1.485770E-16	1.208962E-16
3.133980E+03	1.468664E-16	1.204515E-16
3.134380E+03	1.451751E-16	1.200433E-16
3.134580E+03	1.434611E-16	1.196773E-16
3.134780E+03	1.417407E-16	1.196140E-16
3.135180E+03	1.400253E-16	1.194150E-16
3.135580E+03	1.383113E-16	1.191302E-16
3.135780E+03	1.365811E-16	1.191329E-16
3.136381E+03	1.348591E-16	1.187373E-16
3.136581E+03	1.331413E-16	1.184679E-16
3.137181E+03	1.314330E-16	1.180680E-16
3.137581E+03	1.297055E-16	1.181140E-16
3.137781E+03	1.280268E-16	1.178440E-16
3.137981E+03	1.263180E-16	1.174575E-16
3.138781E+03	1.245915E-16	1.170800E-16
3.138981E+03	1.228619E-16	1.166140E-16
3.139581E+03	1.211586E-16	1.162088E-16
3.140981E+03	1.194590E-16	1.158554E-16
3.141181E+03	1.177304E-16	1.154747E-16
3.141581E+03	1.159967E-16	1.148375E-16
3.141781E+03	1.142694E-16	1.142201E-16
3.141981E+03	1.125105E-16	1.136466E-16
3.142582E+03	1.107870E-16	1.129430E-16
3.142782E+03	1.090578E-16	1.126442E-16
3.143182E+03	1.072917E-16	1.124873E-16
3.143381E+03	1.055323E-16	1.119144E-16
3.144581E+03	1.037761E-16	1.113111E-16
3.144781E+03	1.020179E-16	1.109841E-16
3.144981E+03	1.002770E-16	1.107673E-16
3.145181E+03	9.854233E-17	1.109840E-16
3.145381E+03	9.681230E-17	1.106227E-16
3.145581E+03	9.504112E-17	1.101515E-16
3.145981E+03	9.330374E-17	1.102066E-16
3.146181E+03	9.159079E-17	1.100489E-16
3.146381E+03	8.983352E-17	1.100411E-16
3.146581E+03	8.808407E-17	1.096409E-16
3.146781E+03	8.632505E-17	1.091661E-16
3.147181E+03	8.456645E-17	1.085675E-16
3.147381E+03	8.283249E-17	1.079584E-16
3.147981E+03	8.109612E-17	1.076802E-16
3.148182E+03	7.939193E-17	1.072340E-16
3.148382E+03	7.765131E-17	1.070629E-16
3.148782E+03	7.592827E-17	1.065370E-16
3.148982E+03	7.422536E-17	1.059321E-16
3.149382E+03	7.248464E-17	1.056275E-16
3.149582E+03	7.074834E-17	1.053982E-16
3.149982E+03	6.900732E-17	1.050087E-16
3.150982E+03	6.730904E-17	1.048340E-16
3.151182E+03	6.559597E-17	1.045786E-16
3.151382E+03	6.388598E-17	1.043942E-16
3.151582E+03	6.216641E-17	1.045303E-16
3.151982E+03	6.049883E-17	1.042804E-16
3.152182E+03	5.882490E-17	1.040989E-16
3.152582E+03	5.710487E-17	1.037039E-16
3.152782E+03	5.540702E-17	1.034358E-16
3.152982E+03	5.373279E-17	1.030624E-16
3.153382E+03	5.206609E-17	1.029779E-16
3.153582E+03	5.036952E-17	1.027557E-16
3.154183E+03	4.868477E-17	1.022331E-16
3.154383E+03	4.705752E-17	1.014684E-16
3.154783E+03	4.542973E-17	1.007836E-16
3.155182E+03	4.377015E-17	1.002561E-16
3.155383E+03	4.210146E-17	9.981725E-17
3.155582E+03	4.047855E-17	9.966071E-17
3.155782E+03	3.883975E-17	9.903886E-17
3.156182E+03	3.720811E-17	9.845526E-17
3.157182E+03	3.560583E-17	9.796283E-17
3.157382E+03	3.399663E-17	9.739591E-17
3.157782E+03	3.241188E-17	9.696247E-17
3.158182E+03	3.079692E-17	9.630181E-17
3.158382E+03	2.917633E-17	9.576220E-17
3.158782E+03	2.759590E-17	9.516636E-17
3.158982E+03	2.599726E-17	9.449658E-17
3.159182E+03	2.443334E-17	9.377220E-17
3.159382E+03	2.289941E-17	9.305701E-17
3.159582E+03	2.133850E-17	9.256344E-17
3.159782E+03	1.978702E-17	9.214140E-17
3.159982E+03	1.827342E-17	9.174813E-17
3.160183E+03	1.672336E-17	9.118178E-17
3.160383E+03	1.518842E-17	9.070616E-17
3.160983E+03	1.372306E-17	9.005761E-17
3.161583E+03	1.223944E-17	8.956933E-17
3.161783E+03	1.077770E-17	8.875509E-17
3.162183E+03	9.298557E-18	8.794238E-17
3.162383E+03	7.812424E-18	8.720170E-17
3.162783E+03	6.369897E-18	8.653526E-17
3.162983E+03	4.901783E-18	8.585854E-17
3.163183E+03	3.467309E-18	8.505906E-17
3.163383E+03	2.014245E-18	8.439898E-17
3.163783E+03	5.806396E-19	8.407390E-17
3.163983E+03	-8.402331E-19	8.324386E-17
3.164383E+03	-2.209991E-18	8.275163E-17
3.164583E+03	-3.592650E-18	8.196171E-17
3.164783E+03	-4.977910E-18	8.130051E-17
3.164983E+03	-6.321287E-18	8.052372E-17
3.165183E+03	-7.686577E-18	7.967514E-17
3.165383E+03	-8.992091E-18	7.886390E-17
3.165583E+03	-1.030970E-17	7.809309E-17
3.166184E+03	-1.162890E-17	7.731897E-17
3.166384E+03	-1.290349E-17	7.662722E-17
3.166584E+03	-1.418826E-17	7.593342E-17
3.166784E+03	-1.544729E-17	7.528827E-17
3.167184E+03	-1.664599E-17	7.468216E-17
3.167383E+03	-1.784041E-17	7.405242E-17
3.167584E+03	-1.902222E-17	7.350115E-17
3.167784E+03	-2.019458E-17	7.286338E-17
3.168383E+03	-2.135381E-17	7.218795E-17
3.168983E+03	-2.250370E-17	7.150789E-17
3.169183E+03	-2.364151E-17	7.082622E-17
3.169583E+03	-2.476573E-17	7.013046E-17
3.169783E+03	-2.588467E-17	6.943698E-17
3.169983E+03	-2.698941E-17	6.872803E-17
3.170183E+03	-2.807836E-17	6.803621E-17
3.170383E+03	-2.915945E-17	6.729701E-17
3.170583E+03	-3.022157E-17	6.656704E-17
3.170783E+03	-3.126474E-17	6.586168E-17
3.170983E+03	-3.228579E-17	6.513879E-17
3.171383E+03	-3.328869E-17	6.438621E-17
3.171583E+03	-3.427025E-17	6.366891E-17
3.171783E+03	-3.523126E-17	6.295270E-17
3.171983E+03	-3.617013E-17	6.216409E-17
3.172184E+03	-3.709004E-17	6.161601E-17
3.172384E+03	-3.798781E-17	6.121493E-17
3.172584E+03	-3.886503E-17	6.060410E-17
3.173184E+03	-3.972207E-17	6.009782E-17
3.173384E+03	-4.053285E-17	5.963060E-17
3.173584E+03	-4.130881E-17	5.910017E-17
3.173784E+03	-4.211017E-17	5.868200E-17
3.173984E+03	-4.292107E-17	5.817934E-17
3.174184E+03	-4.369081E-17	5.781526E-17
3.174384E+03	-4.445900E-17	5.741104E-17
3.174584E+03	-4.513371E-17	5.702242E-17
3.174784E+03	-4.584650E-17	5.673267E-17
3.174984E+03	-4.652921E-17	5.669358E-17
3.175184E+03	-4.720561E-17	5.649179E-17
3.175384E+03	-4.782815E-17	5.659538E-17
3.175584E+03	-4.839524E-17	5.663911E-17
3.175784E+03	-4.897029E-17	5.669569E-17
3.175984E+03	-4.952951E-17	5.676793E-17
3.176184E+03	-5.004912E-17	5.703076E-17
3.176384E+03	-5.058303E-17	5.729665E-17
3.176584E+03	-5.107099E-17	5.767134E-17
3.176784E+03	-5.150983E-17	5.780412E-17
3.176984E+03	-5.196137E-17	5.820393E-17
3.177384E+03	-5.238887E-17	5.840467E-17
3.177584E+03	-5.272789E-17	5.859119E-17
3.177784E+03	-5.311291E-17	5.873195E-17
3.177984E+03	-5.343929E-17	5.877957E-17
3.178185E+03	-5.376410E-17	5.883298E-17
3.178385E+03	-5.399536E-17	5.889136E-17
3.178585E+03	-5.427103E-17	5.882226E-17
3.178785E+03	-5.446585E-17	5.889245E-17
3.179185E+03	-5.465251E-17	5.913054E-17
3.179385E+03	-5.484893E-17	5.924266E-17
3.179785E+03	-5.501818E-17	5.941852E-17
3.180184E+03	-5.516207E-17	5.984763E-17
3.180385E+03	-5.525226E-17	6.011687E-17
3.180584E+03	-5.530438E-17	6.037736E-17
3.180784E+03	-5.533748E-17	6.067318E-17
3.180984E+03	-5.535630E-17	6.085849E-17
3.181184E+03	-5.529739E-17	6.098857E-17
3.181584E+03	-5.525730E-17	6.135209E-17
3.181784E+03	-5.518411E-17	6.161712E-17
3.181984E+03	-5.504429E-17	6.180920E-17
3.182184E+03	-5.487114E-17	6.195489E-17
3.182384E+03	-5.469640E-17	6.216013E-17
3.182584E+03	-5.448040E-17	6.219131E-17
3.182784E+03	-5.423901E-17	6.231103E-17
3.182984E+03	-5.394207E-17	6.236140E-17
3.183184E+03	-5.362924E-17	6.234528E-17
3.183384E+03	-5.327674E-17	6.235441E-17
3.183584E+03	-5.289407E-17	6.237620E-17
3.183784E+03	-5.250186E-17	6.242035E-17
3.183984E+03	-5.206837E-17	6.246530E-17
3.184185E+03	-5.155712E-17	6.248728E-17
3.184385E+03	-5.099981E-17	6.240979E-17
3.184585E+03	-5.045675E-17	6.225920E-17
3.184785E+03	-4.988510E-17	6.217524E-17
3.185185E+03	-4.926863E-17	6.220210E-17
3.185385E+03	-4.859692E-17	6.220903E-17
3.185585E+03	-4.787757E-17	6.217440E-17
3.185785E+03	-4.715183E-17	6.206929E-17
3.185985E+03	-4.638320E-17	6.197842E-17
3.186385E+03	-4.559503E-17	6.181849E-17
3.186585E+03	-4.476916E-17	6.172266E-17
3.186785E+03	-4.388769E-17	6.164020E-17
3.186985E+03	-4.297125E-17	6.154020E-17
3.187185E+03	-4.199445E-17	6.146138E-17
3.187385E+03	-4.099220E-17	6.131733E-17
3.187585E+03	-3.991528E-17	6.121006E-17
3.187785E+03	-3.886530E-17	6.112552E-17
3.187985E+03	-3.772636E-17	6.095552E-17
3.188385E+03	-3.656605E-17	6.083214E-17
3.188585E+03	-3.536981E-17	6.077058E-17
3.188785E+03	-3.410683E-17	6.060805E-17
3.189185E+03	-3.283030E-17	6.052866E-17
3.189385E+03	-3.150523E-17	6.045785E-17
3.189585E+03	-3.014199E-17	6.034750E-17
3.189785E+03	-2.874057E-17	6.023969E-17
3.190386E+03	-2.730073E-17	6.009856E-17
3.190586E+03	-2.581969E-17	5.996300E-17
3.190786E+03	-2.430046E-17	5.986598E-17
3.191186E+03	-2.273884E-17	5.973110E-17
3.191385E+03	-2.113683E-17	5.956741E-17
3.191586E+03	-1.949186E-17	5.942046E-17
3.191785E+03	-1.780550E-17	5.923458E-17
3.191985E+03	-1.607459E-17	5.903062E-17
3.192385E+03	-1.431313E-17	5.895667E-17
3.192585E+03	-1.250560E-17	5.887928E-17
3.192785E+03	-1.063634E-17	5.875734E-17
3.192985E+03	-8.731558E-18	5.868467E-17
3.193185E+03	-6.785697E-18	5.863666E-17
3.193585E+03	-4.776628E-18	5.865022E-17
3.193785E+03	-2.715180E-18	5.863665E-17
3.193985E+03	-6.147200E-19	5.866210E-17
3.194185E+03	1.521816E-18	5.868927E-17
3.194385E+03	3.707474E-18	5.870168E-17
3.194585E+03	5.943006E-18	5.856242E-17
3.194785E+03	8.228383E-18	5.852842E-17
3.194985E+03	1.056393E-17	5.860388E-17
3.195185E+03	1.294996E-17	5.847976E-17
3.195385E+03	1.538664E-17	5.861140E-17
3.195585E+03	1.787430E-17	5.870897E-17
3.195785E+03	2.041261E-17	5.880548E-17
3.196186E+03	2.300407E-17	5.879444E-17
3.196386E+03	2.564601E-17	5.899361E-17
3.196586E+03	2.833893E-17	5.922192E-17
3.196786E+03	3.108761E-17	5.948099E-17
3.197186E+03	3.388814E-17	5.977257E-17
3.197386E+03	3.674207E-17	6.009427E-17
3.198186E+03	3.965156E-17	6.045271E-17
3.198786E+03	4.261461E-17	6.085375E-17
3.198986E+03	4.562831E-17	6.128670E-17
3.199186E+03	4.869780E-17	6.176390E-17
3.199586E+03	5.182279E-17	6.227769E-17
3.199786E+03	5.500236E-17	6.284943E-17
3.199986E+03	5.823616E-17	6.342496E-17
3.200186E+03	6.153054E-17	6.387586E-17
3.200386E+03	6.366592E-17	6.428549E-17
3.200786E+03	6.605748E-17	6.471671E-17
3.200986E+03	6.903116E-17	6.527206E-17
3.201186E+03	7.199386E-17	6.571744E-17
3.201786E+03	7.521171E-17	6.612296E-17
3.201987E+03	7.851999E-17	6.679651E-17
3.202387E+03	8.122289E-17	6.731315E-17
3.202587E+03	8.342139E-17	6.742232E-17
3.203187E+03	8.699695E-17	6.805936E-17
3.203387E+03	8.966505E-17	6.853471E-17
3.203787E+03	9.303709E-17	6.936826E-17
3.204387E+03	9.198612E-17	6.891516E-17
3.204786E+03	9.293094E-17	6.907721E-17
3.205386E+03	9.650661E-17	6.991920E-17
3.205586E+03	8.440242E-17	6.638972E-17
3.205786E+03	8.438543E-17	6.610596E-17
3.206186E+03	7.718943E-17	6.394160E-17
3.207186E+03	7.885728E-17	6.427987E-17
3.207786E+03	8.084781E-17	6.471515E-17
3.208587E+03	7.977830E-17	6.416917E-17
3.208787E+03	8.223950E-17	6.454971E-17
3.208987E+03	8.422648E-17	6.473078E-17
3.209387E+03	8.532109E-17	6.439952E-17
3.209787E+03	8.529191E-17	6.411798E-17
3.209987E+03	8.433249E-17	6.356095E-17
3.210387E+03	8.240714E-17	6.233407E-17
3.210987E+03	7.992954E-17	6.137618E-17
3.211987E+03	7.715446E-17	6.023623E-17
3.212587E+03	7.401987E-17	5.921863E-17
3.212787E+03	6.934609E-17	5.766160E-17
3.213187E+03	6.425802E-17	5.611767E-17
3.213387E+03	5.829999E-17	5.397520E-17
3.213787E+03	5.190815E-17	5.185545E-17
3.214388E+03	5.187222E-17	5.142731E-17
3.214988E+03	4.683281E-17	5.025277E-17
3.215988E+03	4.177880E-17	4.894382E-17
3.216188E+03	4.045750E-17	4.817218E-17
3.216588E+03	3.778441E-17	4.748839E-17
3.216787E+03	3.729302E-17	4.654374E-17
3.217587E+03	3.802655E-17	4.613075E-17
3.218187E+03	3.738081E-17	4.540459E-17
3.218387E+03	3.771481E-17	4.499568E-17
3.218587E+03	3.626233E-17	4.441336E-17
