#wls	flux	fluxerr
1.600000E+03	1.260826E-16	1.221044E-16
1.640000E+03	1.303450E-16	1.241348E-16
1.680000E+03	1.344943E-16	1.258755E-16
1.720000E+03	1.384705E-16	1.272726E-16
1.760000E+03	1.422625E-16	1.283209E-16
1.800000E+03	1.458026E-16	1.289660E-16
1.840000E+03	1.490463E-16	1.291793E-16
1.880000E+03	1.519712E-16	1.289547E-16
1.920000E+03	1.545020E-16	1.282447E-16
1.960000E+03	1.566004E-16	1.270382E-16
2.000000E+03	1.582036E-16	1.253088E-16
2.040000E+03	1.592748E-16	1.230558E-16
2.080000E+03	1.597359E-16	1.202518E-16
2.120000E+03	1.595295E-16	1.168919E-16
2.160000E+03	1.586001E-16	1.129787E-16
2.200000E+03	1.568613E-16	1.084993E-16
2.240000E+03	1.542463E-16	1.034625E-16
2.280000E+03	1.507536E-16	9.792687E-17
2.320000E+03	1.464367E-16	9.198691E-17
2.360000E+03	1.414417E-16	8.578986E-17
2.400000E+03	1.358897E-16	7.945677E-17
2.440000E+03	1.298875E-16	7.309070E-17
2.480000E+03	1.235465E-16	6.678786E-17
2.520000E+03	1.169370E-16	6.061359E-17
2.560000E+03	1.101396E-16	5.463173E-17
2.600000E+03	1.032233E-16	4.889309E-17
2.640000E+03	9.626029E-17	4.344317E-17
2.680000E+03	8.931018E-17	3.831490E-17
2.720000E+03	8.243315E-17	3.353527E-17
2.760000E+03	7.568568E-17	2.912356E-17
2.800000E+03	6.912030E-17	2.509162E-17
2.840000E+03	6.278684E-17	2.144476E-17
2.880000E+03	5.673341E-17	1.818245E-17
2.920000E+03	5.100250E-17	1.529751E-17
2.960000E+03	4.563055E-17	1.277674E-17
3.000000E+03	4.064381E-17	1.060081E-17
3.010000E+03	3.946036E-17	1.010820E-17
3.020000E+03	3.830116E-17	9.634953E-18
3.030000E+03	3.716785E-17	9.181036E-18
3.040000E+03	3.605945E-17	8.745734E-18
3.050000E+03	3.497659E-17	8.328742E-18
3.060000E+03	3.391978E-17	7.929714E-18
3.070000E+03	3.288733E-17	7.547789E-18
3.080000E+03	3.188107E-17	7.182936E-18
3.090000E+03	3.089935E-17	6.834315E-18
3.100000E+03	2.994313E-17	6.501691E-18
3.110000E+03	2.901145E-17	6.184398E-18
3.120000E+03	2.810397E-17	5.881925E-18
3.130000E+03	2.722150E-17	5.593994E-18
3.140000E+03	2.636286E-17	5.319892E-18
3.150000E+03	2.552949E-17	5.059446E-18
3.160000E+03	2.471978E-17	4.811872E-18
3.170000E+03	2.393497E-17	4.576963E-18
3.180000E+03	2.317392E-17	4.354058E-18
3.190000E+03	2.243723E-17	4.142838E-18
3.200000E+03	2.172413E-17	3.942746E-18
3.210000E+03	2.103466E-17	3.753385E-18
3.220000E+03	2.036844E-17	3.574291E-18
3.230000E+03	1.972521E-17	3.405018E-18
3.240000E+03	1.910440E-17	3.245078E-18
3.250000E+03	1.850637E-17	3.094157E-18
3.260000E+03	1.793044E-17	2.951783E-18
3.270000E+03	1.737652E-17	2.817596E-18
3.280000E+03	1.684390E-17	2.691154E-18
3.290000E+03	1.633212E-17	2.572065E-18
3.300000E+03	1.584095E-17	2.459992E-18
3.310000E+03	1.536962E-17	2.354530E-18
3.320000E+03	1.491784E-17	2.255359E-18
3.330000E+03	1.448507E-17	2.162134E-18
3.340000E+03	1.407033E-17	2.074470E-18
3.350000E+03	1.367350E-17	1.992114E-18
3.360000E+03	1.329386E-17	1.914739E-18
3.370000E+03	1.293086E-17	1.842063E-18
3.380000E+03	1.258397E-17	1.773815E-18
3.390000E+03	1.225236E-17	1.709693E-18
3.400000E+03	1.193584E-17	1.649507E-18
3.410000E+03	1.163377E-17	1.593001E-18
3.420000E+03	1.134549E-17	1.539937E-18
3.430000E+03	1.107054E-17	1.490114E-18
3.440000E+03	1.080847E-17	1.443336E-18
3.450000E+03	1.055855E-17	1.399385E-18
3.460000E+03	1.032050E-17	1.358112E-18
3.470000E+03	1.009368E-17	1.319324E-18
3.480000E+03	9.877713E-18	1.282874E-18
3.490000E+03	9.672122E-18	1.248613E-18
3.500000E+03	9.476472E-18	1.216398E-18
3.510000E+03	9.290350E-18	1.186098E-18
3.520000E+03	9.113368E-18	1.157594E-18
3.530000E+03	8.945060E-18	1.130760E-18
3.540000E+03	8.784996E-18	1.105482E-18
3.550000E+03	8.632863E-18	1.081666E-18
3.560000E+03	8.488275E-18	1.059214E-18
3.570000E+03	8.350957E-18	1.038046E-18
3.580000E+03	8.220476E-18	1.018067E-18
3.590000E+03	8.096592E-18	9.992090E-19
3.600000E+03	7.978994E-18	9.814003E-19
3.610000E+03	7.867547E-18	9.645940E-19
3.620000E+03	7.761888E-18	9.487159E-19
3.630000E+03	7.661827E-18	9.337168E-19
3.640000E+03	7.566961E-18	9.195252E-19
3.650000E+03	7.477135E-18	9.060995E-19
3.660000E+03	7.392125E-18	8.933934E-19
3.670000E+03	7.311723E-18	8.813648E-19
3.680000E+03	7.235795E-18	8.699806E-19
3.690000E+03	7.164213E-18	8.592106E-19
3.700000E+03	7.096785E-18	8.490194E-19
3.710000E+03	7.033456E-18	8.393860E-19
3.720000E+03	6.974039E-18	8.302764E-19
3.730000E+03	6.918540E-18	8.216811E-19
3.740000E+03	6.866834E-18	8.135736E-19
3.750000E+03	6.818798E-18	8.059296E-19
3.760000E+03	6.774370E-18	7.987335E-19
3.770000E+03	6.733544E-18	7.919760E-19
3.780000E+03	6.696194E-18	7.856350E-19
3.790000E+03	6.662315E-18	7.797038E-19
3.800000E+03	6.631789E-18	7.741608E-19
3.810000E+03	6.604557E-18	7.689926E-19
3.820000E+03	6.580618E-18	7.641935E-19
3.830000E+03	6.559972E-18	7.597563E-19
3.840000E+03	6.542513E-18	7.556620E-19
3.850000E+03	6.528298E-18	7.519122E-19
3.860000E+03	6.517168E-18	7.484816E-19
3.870000E+03	6.509235E-18	7.453772E-19
3.880000E+03	6.504339E-18	7.425759E-19
3.890000E+03	6.502587E-18	7.400832E-19
3.900000E+03	6.503870E-18	7.378806E-19
3.910000E+03	6.508185E-18	7.359632E-19
3.920000E+03	6.515475E-18	7.343177E-19
3.930000E+03	6.525733E-18	7.329378E-19
3.940000E+03	6.538902E-18	7.318124E-19
3.950000E+03	6.555027E-18	7.309399E-19
3.960000E+03	6.573998E-18	7.303023E-19
3.970000E+03	6.595810E-18	7.298940E-19
3.980000E+03	6.620403E-18	7.297016E-19
3.990000E+03	6.647823E-18	7.297238E-19
4.000000E+03	6.678010E-18	7.299490E-19
4.010000E+03	6.710903E-18	7.303627E-19
4.020000E+03	6.746439E-18	7.309516E-19
4.030000E+03	6.784663E-18	7.317147E-19
4.040000E+03	6.825462E-18	7.326323E-19
4.050000E+03	6.868883E-18	7.337028E-19
4.060000E+03	6.914815E-18	7.349086E-19
4.070000E+03	6.963258E-18	7.362423E-19
4.080000E+03	7.014215E-18	7.376975E-19
4.090000E+03	7.067635E-18	7.392637E-19
4.100000E+03	7.123470E-18	7.409294E-19
4.110000E+03	7.181671E-18	7.426846E-19
4.120000E+03	7.242301E-18	7.445323E-19
4.130000E+03	7.305257E-18	7.464566E-19
4.140000E+03	7.370547E-18	7.484547E-19
4.150000E+03	7.438063E-18	7.505132E-19
4.160000E+03	7.507814E-18	7.526276E-19
4.170000E+03	7.579811E-18	7.547944E-19
4.180000E+03	7.653945E-18	7.570001E-19
4.190000E+03	7.730229E-18	7.592409E-19
4.200000E+03	7.808558E-18	7.615026E-19
4.210000E+03	7.888942E-18	7.637852E-19
4.220000E+03	7.971275E-18	7.660750E-19
4.230000E+03	8.055570E-18	7.683726E-19
4.240000E+03	8.141716E-18	7.706693E-19
4.250000E+03	8.229665E-18	7.729615E-19
4.260000E+03	8.319305E-18	7.752423E-19
4.270000E+03	8.410650E-18	7.775202E-19
4.280000E+03	8.503581E-18	7.797909E-19
4.290000E+03	8.598044E-18	7.820598E-19
4.300000E+03	8.693909E-18	7.843292E-19
4.310000E+03	8.791043E-18	7.866001E-19
4.320000E+03	8.889373E-18	7.888832E-19
4.330000E+03	8.988820E-18	7.911925E-19
4.340000E+03	9.089228E-18	7.935335E-19
4.350000E+03	9.190500E-18	7.959213E-19
4.360000E+03	9.292461E-18	7.983666E-19
4.370000E+03	9.395080E-18	8.008882E-19
4.380000E+03	9.498247E-18	8.034995E-19
4.390000E+03	9.602080E-18	8.062332E-19
4.400000E+03	9.706470E-18	8.090819E-19
4.410000E+03	9.811451E-18	8.120397E-19
4.420000E+03	9.916982E-18	8.150936E-19
4.430000E+03	1.002320E-17	8.182376E-19
4.440000E+03	1.012999E-17	8.214470E-19
4.450000E+03	1.023734E-17	8.247054E-19
4.460000E+03	1.034531E-17	8.279985E-19
4.470000E+03	1.045389E-17	8.313080E-19
4.480000E+03	1.056309E-17	8.346188E-19
4.490000E+03	1.067280E-17	8.379033E-19
4.500000E+03	1.078311E-17	8.411519E-19
4.510000E+03	1.089392E-17	8.443443E-19
4.520000E+03	1.100522E-17	8.474614E-19
4.530000E+03	1.111701E-17	8.504881E-19
4.540000E+03	1.122909E-17	8.534006E-19
4.550000E+03	1.134154E-17	8.561953E-19
4.560000E+03	1.145427E-17	8.588603E-19
4.570000E+03	1.156727E-17	8.613982E-19
4.580000E+03	1.168037E-17	8.637958E-19
4.590000E+03	1.179366E-17	8.660692E-19
4.600000E+03	1.190697E-17	8.682188E-19
4.610000E+03	1.202042E-17	8.702625E-19
4.620000E+03	1.213384E-17	8.722017E-19
4.630000E+03	1.224726E-17	8.740583E-19
4.640000E+03	1.236064E-17	8.758366E-19
4.650000E+03	1.247412E-17	8.775612E-19
4.660000E+03	1.258757E-17	8.792377E-19
4.670000E+03	1.270118E-17	8.808834E-19
4.680000E+03	1.281492E-17	8.825037E-19
4.690000E+03	1.292877E-17	8.841090E-19
4.700000E+03	1.304294E-17	8.857138E-19
4.710000E+03	1.315731E-17	8.873131E-19
4.720000E+03	1.327197E-17	8.889229E-19
4.730000E+03	1.338680E-17	8.905301E-19
4.740000E+03	1.350196E-17	8.921383E-19
4.750000E+03	1.361721E-17	8.937297E-19
4.760000E+03	1.373271E-17	8.952927E-19
4.770000E+03	1.384837E-17	8.968033E-19
4.780000E+03	1.396433E-17	8.982596E-19
4.790000E+03	1.408048E-17	8.996303E-19
4.800000E+03	1.419685E-17	9.008991E-19
4.810000E+03	1.431344E-17	9.020589E-19
4.820000E+03	1.443026E-17	9.030952E-19
4.830000E+03	1.454731E-17	9.040038E-19
4.840000E+03	1.466446E-17	9.047847E-19
4.850000E+03	1.478185E-17	9.054526E-19
4.860000E+03	1.489947E-17	9.060275E-19
4.870000E+03	1.501721E-17	9.065340E-19
4.880000E+03	1.513508E-17	9.070010E-19
4.890000E+03	1.525325E-17	9.074789E-19
4.900000E+03	1.537144E-17	9.080018E-19
4.910000E+03	1.548997E-17	9.086207E-19
4.920000E+03	1.560871E-17	9.093687E-19
4.930000E+03	1.572753E-17	9.102807E-19
4.940000E+03	1.584655E-17	9.113698E-19
4.950000E+03	1.596575E-17	9.126412E-19
4.960000E+03	1.608496E-17	9.140934E-19
4.970000E+03	1.620427E-17	9.157084E-19
4.980000E+03	1.632333E-17	9.174445E-19
4.990000E+03	1.644237E-17	9.193008E-19
5.000000E+03	1.656117E-17	9.212241E-19
5.010000E+03	1.667945E-17	9.231679E-19
5.020000E+03	1.679727E-17	9.251140E-19
5.030000E+03	1.691434E-17	9.270083E-19
5.040000E+03	1.703054E-17	9.288170E-19
5.050000E+03	1.714573E-17	9.305192E-19
5.060000E+03	1.725974E-17	9.320768E-19
5.070000E+03	1.737222E-17	9.334560E-19
5.080000E+03	1.748314E-17	9.346533E-19
5.090000E+03	1.759211E-17	9.356234E-19
5.100000E+03	1.769887E-17	9.363430E-19
5.110000E+03	1.780302E-17	9.367932E-19
5.120000E+03	1.790448E-17	9.369534E-19
5.130000E+03	1.800267E-17	9.367902E-19
5.140000E+03	1.809774E-17	9.363187E-19
5.150000E+03	1.818912E-17	9.354854E-19
5.160000E+03	1.827683E-17	9.342782E-19
5.170000E+03	1.836049E-17	9.326887E-19
5.180000E+03	1.843974E-17	9.307047E-19
5.190000E+03	1.851454E-17	9.283578E-19
5.200000E+03	1.858452E-17	9.256856E-19
5.210000E+03	1.864947E-17	9.227279E-19
5.220000E+03	1.870920E-17	9.195496E-19
5.230000E+03	1.876330E-17	9.162277E-19
5.240000E+03	1.881157E-17	9.128261E-19
5.250000E+03	1.885359E-17	9.094193E-19
5.260000E+03	1.888931E-17	9.061106E-19
5.270000E+03	1.891831E-17	9.029345E-19
5.280000E+03	1.894032E-17	8.999436E-19
5.290000E+03	1.895510E-17	8.972022E-19
5.300000E+03	1.896219E-17	8.947213E-19
5.310000E+03	1.896133E-17	8.925322E-19
5.320000E+03	1.895227E-17	8.906791E-19
5.330000E+03	1.893476E-17	8.891659E-19
5.340000E+03	1.890841E-17	8.880006E-19
5.350000E+03	1.887320E-17	8.872193E-19
5.360000E+03	1.882893E-17	8.868034E-19
5.370000E+03	1.877546E-17	8.867446E-19
5.380000E+03	1.871247E-17	8.870374E-19
5.390000E+03	1.864033E-17	8.876602E-19
5.400000E+03	1.855889E-17	8.885766E-19
5.410000E+03	1.846859E-17	8.897908E-19
5.420000E+03	1.836950E-17	8.912483E-19
5.430000E+03	1.826208E-17	8.929268E-19
5.440000E+03	1.814667E-17	8.948111E-19
5.450000E+03	1.802413E-17	8.968797E-19
5.460000E+03	1.789478E-17	8.990995E-19
5.470000E+03	1.775903E-17	9.014490E-19
5.480000E+03	1.761724E-17	9.038638E-19
5.490000E+03	1.747019E-17	9.063092E-19
5.500000E+03	1.731834E-17	9.087458E-19
5.510000E+03	1.716245E-17	9.111202E-19
5.520000E+03	1.700333E-17	9.133932E-19
5.530000E+03	1.684176E-17	9.155411E-19
5.540000E+03	1.667856E-17	9.175247E-19
5.550000E+03	1.651472E-17	9.193289E-19
5.560000E+03	1.635103E-17	9.209420E-19
5.570000E+03	1.618867E-17	9.223488E-19
5.580000E+03	1.602832E-17	9.235188E-19
5.590000E+03	1.587127E-17	9.244748E-19
5.600000E+03	1.571808E-17	9.251929E-19
5.610000E+03	1.556979E-17	9.256928E-19
5.620000E+03	1.542734E-17	9.260079E-19
5.630000E+03	1.529105E-17	9.261330E-19
5.640000E+03	1.516197E-17	9.261227E-19
5.650000E+03	1.504046E-17	9.260063E-19
5.660000E+03	1.492670E-17	9.258041E-19
5.670000E+03	1.482146E-17	9.255853E-19
5.680000E+03	1.472467E-17	9.253820E-19
5.690000E+03	1.463657E-17	9.252451E-19
5.700000E+03	1.455738E-17	9.252344E-19
5.710000E+03	1.448712E-17	9.254075E-19
5.720000E+03	1.442571E-17	9.258087E-19
5.730000E+03	1.437301E-17	9.264880E-19
5.740000E+03	1.432906E-17	9.275080E-19
5.750000E+03	1.429385E-17	9.289084E-19
5.760000E+03	1.426689E-17	9.307011E-19
5.770000E+03	1.424852E-17	9.329477E-19
5.780000E+03	1.423839E-17	9.356358E-19
5.790000E+03	1.423680E-17	9.387926E-19
5.800000E+03	1.424364E-17	9.424168E-19
5.810000E+03	1.425912E-17	9.465051E-19
5.820000E+03	1.428336E-17	9.510454E-19
5.830000E+03	1.431661E-17	9.560382E-19
5.840000E+03	1.435883E-17	9.614445E-19
5.850000E+03	1.441013E-17	9.672376E-19
5.860000E+03	1.447076E-17	9.734052E-19
5.870000E+03	1.454097E-17	9.799187E-19
5.880000E+03	1.462050E-17	9.867213E-19
5.890000E+03	1.470977E-17	9.938040E-19
5.900000E+03	1.480869E-17	1.001113E-18
5.910000E+03	1.491756E-17	1.008621E-18
5.920000E+03	1.503647E-17	1.016298E-18
5.930000E+03	1.516531E-17	1.024095E-18
5.940000E+03	1.530427E-17	1.031995E-18
5.950000E+03	1.545337E-17	1.039974E-18
5.960000E+03	1.561241E-17	1.047992E-18
5.970000E+03	1.578169E-17	1.056051E-18
5.980000E+03	1.596078E-17	1.064115E-18
5.990000E+03	1.614974E-17	1.072174E-18
6.000000E+03	1.634841E-17	1.080220E-18
6.010000E+03	1.655643E-17	1.088240E-18
6.020000E+03	1.677376E-17	1.096235E-18
6.030000E+03	1.699973E-17	1.104182E-18
6.040000E+03	1.723443E-17	1.112116E-18
6.050000E+03	1.747707E-17	1.120015E-18
6.060000E+03	1.772744E-17	1.127905E-18
6.070000E+03	1.798485E-17	1.135800E-18
6.080000E+03	1.824874E-17	1.143720E-18
6.090000E+03	1.851830E-17	1.151685E-18
6.100000E+03	1.879261E-17	1.159730E-18
6.110000E+03	1.907114E-17	1.167913E-18
6.120000E+03	1.935240E-17	1.176249E-18
6.130000E+03	1.963571E-17	1.184827E-18
6.140000E+03	1.991964E-17	1.193684E-18
6.150000E+03	2.020317E-17	1.202899E-18
6.160000E+03	2.048421E-17	1.212505E-18
6.170000E+03	2.076182E-17	1.222594E-18
6.180000E+03	2.103400E-17	1.233201E-18
6.190000E+03	2.129920E-17	1.244394E-18
6.200000E+03	2.155595E-17	1.256157E-18
6.210000E+03	2.180442E-17	1.268454E-18
6.220000E+03	2.204523E-17	1.281256E-18
6.230000E+03	2.227906E-17	1.294508E-18
6.240000E+03	2.250669E-17	1.308158E-18
6.250000E+03	2.272809E-17	1.322114E-18
6.260000E+03	2.294476E-17	1.336348E-18
6.270000E+03	2.315644E-17	1.350743E-18
6.280000E+03	2.336416E-17	1.365267E-18
6.290000E+03	2.356862E-17	1.379854E-18
6.300000E+03	2.376965E-17	1.394399E-18
6.310000E+03	2.396800E-17	1.408875E-18
6.320000E+03	2.416413E-17	1.423219E-18
6.330000E+03	2.435850E-17	1.437391E-18
6.340000E+03	2.455091E-17	1.451332E-18
6.350000E+03	2.474184E-17	1.465003E-18
6.360000E+03	2.493144E-17	1.478364E-18
6.370000E+03	2.511988E-17	1.491398E-18
6.380000E+03	2.530697E-17	1.504050E-18
6.390000E+03	2.549252E-17	1.516284E-18
6.400000E+03	2.567633E-17	1.528083E-18
6.410000E+03	2.585855E-17	1.539430E-18
6.420000E+03	2.603896E-17	1.550302E-18
6.430000E+03	2.621656E-17	1.560649E-18
6.440000E+03	2.639258E-17	1.570539E-18
6.450000E+03	2.656717E-17	1.579991E-18
6.460000E+03	2.674083E-17	1.589063E-18
6.470000E+03	2.691453E-17	1.597821E-18
6.480000E+03	2.708802E-17	1.606273E-18
6.490000E+03	2.726228E-17	1.614517E-18
6.500000E+03	2.743748E-17	1.622573E-18
6.510000E+03	2.761421E-17	1.630499E-18
6.520000E+03	2.779179E-17	1.638294E-18
6.530000E+03	2.797164E-17	1.646047E-18
6.540000E+03	2.815304E-17	1.653734E-18
6.550000E+03	2.833658E-17	1.661423E-18
6.560000E+03	2.852239E-17	1.669118E-18
6.570000E+03	2.871012E-17	1.676811E-18
6.580000E+03	2.890035E-17	1.684562E-18
6.590000E+03	2.909323E-17	1.692365E-18
6.600000E+03	2.928842E-17	1.700202E-18
6.610000E+03	2.948605E-17	1.708096E-18
6.620000E+03	2.968626E-17	1.716036E-18
6.630000E+03	2.988966E-17	1.724055E-18
6.640000E+03	3.009539E-17	1.732118E-18
6.650000E+03	3.030403E-17	1.740239E-18
6.660000E+03	3.051566E-17	1.748423E-18
6.670000E+03	3.072984E-17	1.756663E-18
6.680000E+03	3.094712E-17	1.764974E-18
6.690000E+03	3.116699E-17	1.773333E-18
6.700000E+03	3.139000E-17	1.781791E-18
6.710000E+03	3.161509E-17	1.790277E-18
6.720000E+03	3.184282E-17	1.798827E-18
6.730000E+03	3.207374E-17	1.807497E-18
6.740000E+03	3.230678E-17	1.816216E-18
6.750000E+03	3.254252E-17	1.825021E-18
6.760000E+03	3.278040E-17	1.833905E-18
6.770000E+03	3.302105E-17	1.842876E-18
6.780000E+03	3.326392E-17	1.851893E-18
6.790000E+03	3.350905E-17	1.860963E-18
6.800000E+03	3.375711E-17	1.870074E-18
6.810000E+03	3.400698E-17	1.879129E-18
6.820000E+03	3.425993E-17	1.888180E-18
6.830000E+03	3.451479E-17	1.897092E-18
6.840000E+03	3.477289E-17	1.905879E-18
6.850000E+03	3.503298E-17	1.914438E-18
6.860000E+03	3.529507E-17	1.922690E-18
6.870000E+03	3.555976E-17	1.930609E-18
6.880000E+03	3.582704E-17	1.938168E-18
6.890000E+03	3.609549E-17	1.945234E-18
6.900000E+03	3.636634E-17	1.951855E-18
6.910000E+03	3.663881E-17	1.957997E-18
6.920000E+03	3.691344E-17	1.963672E-18
6.930000E+03	3.718866E-17	1.968815E-18
6.940000E+03	3.746499E-17	1.973499E-18
6.950000E+03	3.774221E-17	1.977715E-18
6.960000E+03	3.801941E-17	1.981448E-18
6.970000E+03	3.829706E-17	1.984783E-18
6.980000E+03	3.857497E-17	1.987721E-18
6.990000E+03	3.885216E-17	1.990249E-18
7.000000E+03	3.912838E-17	1.992423E-18
7.010000E+03	3.940344E-17	1.994249E-18
7.020000E+03	3.967793E-17	1.995799E-18
7.030000E+03	3.995010E-17	1.997059E-18
7.040000E+03	4.022136E-17	1.998108E-18
7.050000E+03	4.048999E-17	1.998901E-18
7.060000E+03	4.075664E-17	1.999535E-18
7.070000E+03	4.102038E-17	1.999962E-18
7.080000E+03	4.128195E-17	2.000241E-18
7.090000E+03	4.154125E-17	2.000419E-18
7.100000E+03	4.179742E-17	2.000430E-18
7.110000E+03	4.204958E-17	2.000239E-18
7.120000E+03	4.229940E-17	1.999960E-18
7.130000E+03	4.254603E-17	1.999509E-18
7.140000E+03	4.278952E-17	1.998873E-18
7.150000E+03	4.302988E-17	1.998070E-18
7.160000E+03	4.326627E-17	1.996993E-18
7.170000E+03	4.349962E-17	1.995652E-18
7.180000E+03	4.372908E-17	1.994003E-18
7.190000E+03	4.395474E-17	1.991959E-18
7.200000E+03	4.417765E-17	1.989511E-18
7.210000E+03	4.439701E-17	1.986599E-18
7.220000E+03	4.461390E-17	1.983162E-18
7.230000E+03	4.482659E-17	1.979052E-18
7.240000E+03	4.503614E-17	1.974288E-18
7.250000E+03	4.524262E-17	1.968776E-18
7.260000E+03	4.544609E-17	1.962470E-18
7.270000E+03	4.564657E-17	1.955370E-18
7.280000E+03	4.584396E-17	1.947405E-18
7.290000E+03	4.603717E-17	1.938516E-18
7.300000E+03	4.622702E-17	1.928784E-18
7.310000E+03	4.641330E-17	1.918181E-18
7.320000E+03	4.659579E-17	1.906744E-18
7.330000E+03	4.677324E-17	1.894528E-18
7.340000E+03	4.694645E-17	1.881593E-18
7.350000E+03	4.711627E-17	1.868064E-18
7.360000E+03	4.728042E-17	1.854016E-18
7.370000E+03	4.743979E-17	1.839569E-18
7.380000E+03	4.759420E-17	1.824884E-18
7.390000E+03	4.774456E-17	1.810237E-18
7.400000E+03	4.788972E-17	1.795732E-18
7.410000E+03	4.803067E-17	1.781646E-18
7.420000E+03	4.816842E-17	1.768345E-18
7.430000E+03	4.830198E-17	1.756047E-18
7.440000E+03	4.843364E-17	1.745190E-18
7.450000E+03	4.856137E-17	1.736163E-18
7.460000E+03	4.868651E-17	1.729406E-18
7.470000E+03	4.880824E-17	1.725375E-18
7.480000E+03	4.892800E-17	1.724700E-18
7.490000E+03	4.904397E-17	1.727793E-18
7.500000E+03	4.915772E-17	1.735228E-18
7.510000E+03	4.926970E-17	1.747536E-18
7.520000E+03	4.937906E-17	1.764656E-18
7.530000E+03	4.948799E-17	1.786146E-18
7.540000E+03	4.959411E-17	1.811333E-18
7.550000E+03	4.969860E-17	1.839492E-18
7.560000E+03	4.980037E-17	1.869852E-18
7.570000E+03	4.990068E-17	1.901790E-18
7.580000E+03	4.999854E-17	1.934481E-18
7.590000E+03	5.009535E-17	1.967275E-18
7.600000E+03	5.019010E-17	1.999573E-18
7.610000E+03	5.028291E-17	2.030868E-18
7.620000E+03	5.037509E-17	2.060847E-18
7.630000E+03	5.046550E-17	2.089248E-18
7.640000E+03	5.055414E-17	2.115937E-18
7.650000E+03	5.064223E-17	2.140968E-18
7.660000E+03	5.072850E-17	2.164409E-18
7.670000E+03	5.081405E-17	2.186444E-18
7.680000E+03	5.089622E-17	2.207191E-18
7.690000E+03	5.097733E-17	2.227046E-18
7.700000E+03	5.105721E-17	2.246188E-18
7.710000E+03	5.113438E-17	2.264784E-18
7.720000E+03	5.120994E-17	2.283154E-18
7.730000E+03	5.128245E-17	2.301376E-18
7.740000E+03	5.135175E-17	2.319617E-18
7.750000E+03	5.141895E-17	2.338134E-18
7.760000E+03	5.148387E-17	2.357015E-18
