#wls	flux	fluxerr
1.600000E+03	6.537395E-17	4.069997E-17
1.640000E+03	6.562913E-17	4.011215E-17
1.680000E+03	6.582404E-17	3.947406E-17
1.720000E+03	6.594490E-17	3.877976E-17
1.760000E+03	6.600275E-17	3.803838E-17
1.800000E+03	6.598255E-17	3.724385E-17
1.840000E+03	6.588141E-17	3.639763E-17
1.880000E+03	6.570665E-17	3.550688E-17
1.920000E+03	6.544239E-17	3.456624E-17
1.960000E+03	6.508919E-17	3.357967E-17
2.000000E+03	6.463703E-17	3.254587E-17
2.040000E+03	6.408599E-17	3.146904E-17
2.080000E+03	6.341837E-17	3.034498E-17
2.120000E+03	6.262392E-17	2.917388E-17
2.160000E+03	6.169121E-17	2.795601E-17
2.200000E+03	6.059448E-17	2.668596E-17
2.240000E+03	5.931287E-17	2.536180E-17
2.280000E+03	5.784692E-17	2.399160E-17
2.320000E+03	5.621377E-17	2.259010E-17
2.360000E+03	5.446164E-17	2.118328E-17
2.400000E+03	5.262568E-17	1.978969E-17
2.440000E+03	5.073287E-17	1.842308E-17
2.480000E+03	4.880990E-17	1.709566E-17
2.520000E+03	4.686619E-17	1.581237E-17
2.560000E+03	4.491403E-17	1.457857E-17
2.600000E+03	4.296063E-17	1.339729E-17
2.640000E+03	4.101438E-17	1.227150E-17
2.680000E+03	3.907887E-17	1.120229E-17
2.720000E+03	3.715866E-17	1.019073E-17
2.760000E+03	3.525800E-17	9.237513E-18
2.800000E+03	3.338123E-17	8.343028E-18
2.840000E+03	3.153385E-17	7.507635E-18
2.880000E+03	2.972374E-17	6.731869E-18
2.920000E+03	2.795997E-17	6.016043E-18
2.960000E+03	2.625305E-17	5.360260E-18
3.000000E+03	2.461301E-17	4.763975E-18
3.010000E+03	2.421513E-17	4.624187E-18
3.020000E+03	2.382151E-17	4.487899E-18
3.030000E+03	2.343322E-17	4.355263E-18
3.040000E+03	2.304970E-17	4.226121E-18
3.050000E+03	2.267142E-17	4.100509E-18
3.060000E+03	2.229882E-17	3.978449E-18
3.070000E+03	2.193089E-17	3.859707E-18
3.080000E+03	2.156898E-17	3.744464E-18
3.090000E+03	2.121211E-17	3.632495E-18
3.100000E+03	2.086109E-17	3.523882E-18
3.110000E+03	2.051543E-17	3.418483E-18
3.120000E+03	2.017506E-17	3.316234E-18
3.130000E+03	1.984073E-17	3.217197E-18
3.140000E+03	1.951163E-17	3.121180E-18
3.150000E+03	1.918886E-17	3.028300E-18
3.160000E+03	1.887132E-17	2.938317E-18
3.170000E+03	1.856005E-17	2.851332E-18
3.180000E+03	1.825434E-17	2.767174E-18
3.190000E+03	1.795481E-17	2.685876E-18
3.200000E+03	1.766110E-17	2.607322E-18
3.210000E+03	1.737349E-17	2.531493E-18
3.220000E+03	1.709192E-17	2.458319E-18
3.230000E+03	1.681638E-17	2.387735E-18
3.240000E+03	1.654659E-17	2.319640E-18
3.250000E+03	1.628310E-17	2.254048E-18
3.260000E+03	1.602560E-17	2.190859E-18
3.270000E+03	1.577434E-17	2.130043E-18
3.280000E+03	1.552904E-17	2.071503E-18
3.290000E+03	1.528966E-17	2.015178E-18
3.300000E+03	1.505643E-17	1.961038E-18
3.310000E+03	1.482906E-17	1.908989E-18
3.320000E+03	1.460775E-17	1.859000E-18
3.330000E+03	1.439244E-17	1.811010E-18
3.340000E+03	1.418268E-17	1.764906E-18
3.350000E+03	1.397885E-17	1.720683E-18
3.360000E+03	1.378070E-17	1.678259E-18
3.370000E+03	1.358820E-17	1.637579E-18
3.380000E+03	1.340131E-17	1.598588E-18
3.390000E+03	1.321964E-17	1.561192E-18
3.400000E+03	1.304352E-17	1.525382E-18
3.410000E+03	1.287275E-17	1.491088E-18
3.420000E+03	1.270712E-17	1.458242E-18
3.430000E+03	1.254662E-17	1.426798E-18
3.440000E+03	1.239122E-17	1.396710E-18
3.450000E+03	1.224060E-17	1.367901E-18
3.460000E+03	1.209490E-17	1.340346E-18
3.470000E+03	1.195382E-17	1.313972E-18
3.480000E+03	1.181735E-17	1.288742E-18
3.490000E+03	1.168537E-17	1.264606E-18
3.500000E+03	1.155775E-17	1.241514E-18
3.510000E+03	1.143438E-17	1.219421E-18
3.520000E+03	1.131515E-17	1.198282E-18
3.530000E+03	1.119984E-17	1.178043E-18
3.540000E+03	1.108826E-17	1.158654E-18
3.550000E+03	1.098033E-17	1.140078E-18
3.560000E+03	1.087588E-17	1.122269E-18
3.570000E+03	1.077487E-17	1.105197E-18
3.580000E+03	1.067701E-17	1.088809E-18
3.590000E+03	1.058227E-17	1.073077E-18
3.600000E+03	1.049053E-17	1.057965E-18
3.610000E+03	1.040186E-17	1.043459E-18
3.620000E+03	1.031602E-17	1.029515E-18
3.630000E+03	1.023300E-17	1.016111E-18
3.640000E+03	1.015249E-17	1.003197E-18
3.650000E+03	1.007448E-17	9.907546E-19
3.660000E+03	9.998877E-18	9.787571E-19
3.670000E+03	9.925584E-18	9.671792E-19
3.680000E+03	9.854602E-18	9.560052E-19
3.690000E+03	9.785931E-18	9.452199E-19
3.700000E+03	9.719476E-18	9.348005E-19
3.710000E+03	9.655319E-18	9.247407E-19
3.720000E+03	9.593363E-18	9.150181E-19
3.730000E+03	9.533766E-18	9.056355E-19
3.740000E+03	9.476504E-18	8.965781E-19
3.750000E+03	9.421551E-18	8.878319E-19
3.760000E+03	9.368960E-18	8.793911E-19
3.770000E+03	9.318857E-18	8.712566E-19
3.780000E+03	9.271200E-18	8.634145E-19
3.790000E+03	9.226103E-18	8.558657E-19
3.800000E+03	9.183517E-18	8.485961E-19
3.810000E+03	9.143468E-18	8.415988E-19
3.820000E+03	9.106055E-18	8.348747E-19
3.830000E+03	9.071372E-18	8.284232E-19
3.840000E+03	9.039358E-18	8.222304E-19
3.850000E+03	9.010174E-18	8.163030E-19
3.860000E+03	8.983677E-18	8.106200E-19
3.870000E+03	8.960096E-18	8.051943E-19
3.880000E+03	8.939285E-18	8.000055E-19
3.890000E+03	8.921461E-18	7.950652E-19
3.900000E+03	8.906547E-18	7.903593E-19
3.910000E+03	8.894608E-18	7.858866E-19
3.920000E+03	8.885636E-18	7.816389E-19
3.930000E+03	8.879692E-18	7.776146E-19
3.940000E+03	8.876765E-18	7.738059E-19
3.950000E+03	8.876983E-18	7.702168E-19
3.960000E+03	8.880264E-18	7.668331E-19
3.970000E+03	8.886662E-18	7.636527E-19
3.980000E+03	8.896166E-18	7.606672E-19
3.990000E+03	8.908899E-18	7.578801E-19
4.000000E+03	8.924848E-18	7.552832E-19
4.010000E+03	8.943997E-18	7.528675E-19
4.020000E+03	8.966331E-18	7.506242E-19
4.030000E+03	8.991976E-18	7.485566E-19
4.040000E+03	9.020848E-18	7.466495E-19
4.050000E+03	9.053075E-18	7.449058E-19
4.060000E+03	9.088574E-18	7.433109E-19
4.070000E+03	9.127406E-18	7.418613E-19
4.080000E+03	9.169635E-18	7.405538E-19
4.090000E+03	9.215251E-18	7.393794E-19
4.100000E+03	9.264250E-18	7.383289E-19
4.110000E+03	9.316624E-18	7.373931E-19
4.120000E+03	9.372516E-18	7.365746E-19
4.130000E+03	9.431848E-18	7.358581E-19
4.140000E+03	9.494690E-18	7.352397E-19
4.150000E+03	9.560965E-18	7.347043E-19
4.160000E+03	9.630745E-18	7.342473E-19
4.170000E+03	9.704101E-18	7.338640E-19
4.180000E+03	9.780958E-18	7.335383E-19
4.190000E+03	9.861388E-18	7.332648E-19
4.200000E+03	9.945314E-18	7.330266E-19
4.210000E+03	1.003281E-17	7.328185E-19
4.220000E+03	1.012379E-17	7.326229E-19
4.230000E+03	1.021834E-17	7.324338E-19
4.240000E+03	1.031637E-17	7.322339E-19
4.250000E+03	1.041786E-17	7.320110E-19
4.260000E+03	1.052273E-17	7.317471E-19
4.270000E+03	1.063105E-17	7.314361E-19
4.280000E+03	1.074272E-17	7.310598E-19
4.290000E+03	1.085772E-17	7.306059E-19
4.300000E+03	1.097593E-17	7.300565E-19
4.310000E+03	1.109725E-17	7.293931E-19
4.320000E+03	1.122162E-17	7.286032E-19
4.330000E+03	1.134901E-17	7.276746E-19
4.340000E+03	1.147928E-17	7.265888E-19
4.350000E+03	1.161235E-17	7.253332E-19
4.360000E+03	1.174808E-17	7.238900E-19
4.370000E+03	1.188648E-17	7.222521E-19
4.380000E+03	1.202747E-17	7.204068E-19
4.390000E+03	1.217126E-17	7.183590E-19
4.400000E+03	1.231772E-17	7.160855E-19
4.410000E+03	1.246690E-17	7.135666E-19
4.420000E+03	1.261874E-17	7.107766E-19
4.430000E+03	1.277337E-17	7.077006E-19
4.440000E+03	1.293065E-17	7.043072E-19
4.450000E+03	1.309050E-17	7.005719E-19
4.460000E+03	1.325296E-17	6.964764E-19
4.470000E+03	1.341797E-17	6.919986E-19
4.480000E+03	1.358545E-17	6.871188E-19
4.490000E+03	1.375522E-17	6.818131E-19
4.500000E+03	1.392730E-17	6.760726E-19
4.510000E+03	1.410150E-17	6.698815E-19
4.520000E+03	1.427772E-17	6.632328E-19
4.530000E+03	1.445585E-17	6.561257E-19
4.540000E+03	1.463556E-17	6.485554E-19
4.550000E+03	1.481683E-17	6.405415E-19
4.560000E+03	1.499944E-17	6.321019E-19
4.570000E+03	1.518325E-17	6.232722E-19
4.580000E+03	1.536786E-17	6.140885E-19
4.590000E+03	1.555328E-17	6.046189E-19
4.600000E+03	1.573908E-17	5.949322E-19
4.610000E+03	1.592525E-17	5.851305E-19
4.620000E+03	1.611136E-17	5.753216E-19
4.630000E+03	1.629724E-17	5.656473E-19
4.640000E+03	1.648257E-17	5.562667E-19
4.650000E+03	1.666733E-17	5.473751E-19
4.660000E+03	1.685104E-17	5.391791E-19
4.670000E+03	1.703367E-17	5.319227E-19
4.680000E+03	1.721489E-17	5.258619E-19
4.690000E+03	1.739433E-17	5.212684E-19
4.700000E+03	1.757197E-17	5.184288E-19
4.710000E+03	1.774727E-17	5.176112E-19
4.720000E+03	1.792004E-17	5.190734E-19
4.730000E+03	1.808982E-17	5.229311E-19
4.740000E+03	1.825672E-17	5.290762E-19
4.750000E+03	1.842035E-17	5.373169E-19
4.760000E+03	1.858085E-17	5.474414E-19
4.770000E+03	1.873799E-17	5.592088E-19
4.780000E+03	1.889191E-17	5.723812E-19
4.790000E+03	1.904239E-17	5.867099E-19
4.800000E+03	1.918938E-17	6.019607E-19
4.810000E+03	1.933285E-17	6.179142E-19
4.820000E+03	1.947275E-17	6.343667E-19
4.830000E+03	1.960904E-17	6.511342E-19
4.840000E+03	1.974150E-17	6.680468E-19
4.850000E+03	1.987028E-17	6.849649E-19
4.860000E+03	1.999535E-17	7.017626E-19
4.870000E+03	2.011650E-17	7.183257E-19
4.880000E+03	2.023370E-17	7.345605E-19
4.890000E+03	2.034713E-17	7.503964E-19
4.900000E+03	2.045638E-17	7.657558E-19
4.910000E+03	2.056181E-17	7.805977E-19
4.920000E+03	2.066323E-17	7.948712E-19
4.930000E+03	2.076041E-17	8.085347E-19
4.940000E+03	2.085351E-17	8.215627E-19
4.950000E+03	2.094250E-17	8.339301E-19
4.960000E+03	2.102713E-17	8.456111E-19
4.970000E+03	2.110756E-17	8.565956E-19
4.980000E+03	2.118333E-17	8.668551E-19
4.990000E+03	2.125480E-17	8.764004E-19
5.000000E+03	2.132171E-17	8.852167E-19
5.010000E+03	2.138378E-17	8.932945E-19
5.020000E+03	2.144117E-17	9.006471E-19
5.030000E+03	2.149361E-17	9.072702E-19
5.040000E+03	2.154103E-17	9.131731E-19
5.050000E+03	2.158338E-17	9.183705E-19
5.060000E+03	2.162059E-17	9.228758E-19
5.070000E+03	2.165239E-17	9.266979E-19
5.080000E+03	2.167894E-17	9.298682E-19
5.090000E+03	2.169995E-17	9.323969E-19
5.100000E+03	2.171536E-17	9.343068E-19
5.110000E+03	2.172491E-17	9.356160E-19
5.120000E+03	2.172875E-17	9.363577E-19
5.130000E+03	2.172643E-17	9.365416E-19
5.140000E+03	2.171833E-17	9.362173E-19
5.150000E+03	2.170402E-17	9.353919E-19
5.160000E+03	2.168372E-17	9.341035E-19
5.170000E+03	2.165720E-17	9.323761E-19
5.180000E+03	2.162427E-17	9.302326E-19
5.190000E+03	2.158516E-17	9.277185E-19
5.200000E+03	2.153970E-17	9.248652E-19
5.210000E+03	2.148791E-17	9.217104E-19
5.220000E+03	2.142985E-17	9.182956E-19
5.230000E+03	2.136537E-17	9.146557E-19
5.240000E+03	2.129454E-17	9.108292E-19
5.250000E+03	2.121724E-17	9.068477E-19
5.260000E+03	2.113376E-17	9.027614E-19
5.270000E+03	2.104401E-17	8.985925E-19
5.280000E+03	2.094811E-17	8.943722E-19
5.290000E+03	2.084617E-17	8.901326E-19
5.300000E+03	2.073815E-17	8.858873E-19
5.310000E+03	2.062420E-17	8.816593E-19
5.320000E+03	2.050449E-17	8.774719E-19
5.330000E+03	2.037922E-17	8.733398E-19
5.340000E+03	2.024838E-17	8.692694E-19
5.350000E+03	2.011238E-17	8.652841E-19
5.360000E+03	1.997148E-17	8.613892E-19
5.370000E+03	1.982592E-17	8.575899E-19
5.380000E+03	1.967577E-17	8.538831E-19
5.390000E+03	1.952171E-17	8.502837E-19
5.400000E+03	1.936388E-17	8.467814E-19
5.410000E+03	1.920297E-17	8.433925E-19
5.420000E+03	1.903915E-17	8.401021E-19
5.430000E+03	1.887297E-17	8.369136E-19
5.440000E+03	1.870481E-17	8.338238E-19
5.450000E+03	1.853544E-17	8.308418E-19
5.460000E+03	1.836506E-17	8.279537E-19
5.470000E+03	1.819388E-17	8.251474E-19
5.480000E+03	1.802200E-17	8.223985E-19
5.490000E+03	1.784984E-17	8.197011E-19
5.500000E+03	1.767749E-17	8.170355E-19
5.510000E+03	1.750526E-17	8.143877E-19
5.520000E+03	1.733346E-17	8.117463E-19
5.530000E+03	1.716237E-17	8.091028E-19
5.540000E+03	1.699230E-17	8.064464E-19
5.550000E+03	1.682370E-17	8.037774E-19
5.560000E+03	1.665684E-17	8.010899E-19
5.570000E+03	1.649236E-17	7.983915E-19
5.580000E+03	1.633033E-17	7.956678E-19
5.590000E+03	1.617150E-17	7.929394E-19
5.600000E+03	1.601592E-17	7.901927E-19
5.610000E+03	1.586413E-17	7.874412E-19
5.620000E+03	1.571662E-17	7.847001E-19
5.630000E+03	1.557335E-17	7.819588E-19
5.640000E+03	1.543507E-17	7.792483E-19
5.650000E+03	1.530185E-17	7.765699E-19
5.660000E+03	1.517373E-17	7.739227E-19
5.670000E+03	1.505134E-17	7.713394E-19
5.680000E+03	1.493449E-17	7.688145E-19
5.690000E+03	1.482346E-17	7.663642E-19
5.700000E+03	1.471846E-17	7.640062E-19
5.710000E+03	1.461957E-17	7.617511E-19
5.720000E+03	1.452680E-17	7.596070E-19
5.730000E+03	1.444017E-17	7.575827E-19
5.740000E+03	1.435984E-17	7.556957E-19
5.750000E+03	1.428595E-17	7.539593E-19
5.760000E+03	1.421819E-17	7.523636E-19
5.770000E+03	1.415699E-17	7.509386E-19
5.780000E+03	1.410206E-17	7.496711E-19
5.790000E+03	1.405370E-17	7.485797E-19
5.800000E+03	1.401178E-17	7.476597E-19
5.810000E+03	1.397646E-17	7.469190E-19
5.820000E+03	1.394777E-17	7.463577E-19
5.830000E+03	1.392586E-17	7.459846E-19
5.840000E+03	1.391060E-17	7.457890E-19
5.850000E+03	1.390200E-17	7.457690E-19
5.860000E+03	1.390023E-17	7.459313E-19
5.870000E+03	1.390543E-17	7.462799E-19
5.880000E+03	1.391730E-17	7.467952E-19
5.890000E+03	1.393616E-17	7.474912E-19
5.900000E+03	1.396184E-17	7.483552E-19
5.910000E+03	1.399451E-17	7.493922E-19
5.920000E+03	1.403418E-17	7.506004E-19
5.930000E+03	1.408067E-17	7.519685E-19
5.940000E+03	1.413415E-17	7.535032E-19
5.950000E+03	1.419458E-17	7.552046E-19
5.960000E+03	1.426179E-17	7.570628E-19
5.970000E+03	1.433608E-17	7.590952E-19
5.980000E+03	1.441708E-17	7.612866E-19
5.990000E+03	1.450491E-17	7.636465E-19
6.000000E+03	1.459953E-17	7.661775E-19
6.010000E+03	1.470071E-17	7.688752E-19
6.020000E+03	1.480856E-17	7.717510E-19
6.030000E+03	1.492265E-17	7.747917E-19
6.040000E+03	1.504326E-17	7.780214E-19
6.050000E+03	1.516993E-17	7.814264E-19
6.060000E+03	1.530273E-17	7.850221E-19
6.070000E+03	1.544136E-17	7.888074E-19
6.080000E+03	1.558569E-17	7.927884E-19
6.090000E+03	1.573538E-17	7.969638E-19
6.100000E+03	1.589007E-17	8.013341E-19
6.110000E+03	1.604976E-17	8.059164E-19
6.120000E+03	1.621368E-17	8.106914E-19
6.130000E+03	1.638178E-17	8.156799E-19
6.140000E+03	1.655342E-17	8.208707E-19
6.150000E+03	1.672833E-17	8.262736E-19
6.160000E+03	1.690538E-17	8.318593E-19
6.170000E+03	1.708443E-17	8.376453E-19
6.180000E+03	1.726450E-17	8.436087E-19
6.190000E+03	1.744495E-17	8.497471E-19
6.200000E+03	1.762497E-17	8.560351E-19
6.210000E+03	1.780473E-17	8.624763E-19
6.220000E+03	1.798461E-17	8.690847E-19
6.230000E+03	1.816508E-17	8.758716E-19
6.240000E+03	1.834660E-17	8.828505E-19
6.250000E+03	1.852896E-17	8.900027E-19
6.260000E+03	1.871319E-17	8.973637E-19
6.270000E+03	1.889887E-17	9.049025E-19
6.280000E+03	1.908659E-17	9.126360E-19
6.290000E+03	1.927673E-17	9.205676E-19
6.300000E+03	1.946890E-17	9.286660E-19
6.310000E+03	1.966350E-17	9.369388E-19
6.320000E+03	1.986068E-17	9.453789E-19
6.330000E+03	2.006062E-17	9.539821E-19
6.340000E+03	2.026295E-17	9.627205E-19
6.350000E+03	2.046785E-17	9.715887E-19
6.360000E+03	2.067524E-17	9.805707E-19
6.370000E+03	2.088503E-17	9.896531E-19
6.380000E+03	2.109687E-17	9.988058E-19
6.390000E+03	2.131035E-17	1.008000E-18
6.400000E+03	2.152507E-17	1.017210E-18
6.410000E+03	2.174093E-17	1.026420E-18
6.420000E+03	2.195751E-17	1.035600E-18
6.430000E+03	2.217370E-17	1.044694E-18
6.440000E+03	2.239034E-17	1.053733E-18
6.450000E+03	2.260730E-17	1.062706E-18
6.460000E+03	2.282481E-17	1.071621E-18
6.470000E+03	2.304347E-17	1.080500E-18
6.480000E+03	2.326286E-17	1.089321E-18
6.490000E+03	2.348364E-17	1.098114E-18
6.500000E+03	2.370575E-17	1.106872E-18
6.510000E+03	2.392954E-17	1.115609E-18
6.520000E+03	2.415426E-17	1.124290E-18
6.530000E+03	2.438099E-17	1.132961E-18
6.540000E+03	2.460898E-17	1.141585E-18
6.550000E+03	2.483860E-17	1.150179E-18
6.560000E+03	2.506985E-17	1.158738E-18
6.570000E+03	2.530234E-17	1.167240E-18
6.580000E+03	2.553646E-17	1.175705E-18
6.590000E+03	2.577225E-17	1.184127E-18
6.600000E+03	2.600929E-17	1.192484E-18
6.610000E+03	2.624762E-17	1.200774E-18
6.620000E+03	2.648724E-17	1.208992E-18
6.630000E+03	2.672862E-17	1.217155E-18
6.640000E+03	2.697091E-17	1.225223E-18
6.650000E+03	2.721457E-17	1.233208E-18
6.660000E+03	2.745962E-17	1.241110E-18
6.670000E+03	2.770564E-17	1.248907E-18
6.680000E+03	2.795309E-17	1.256613E-18
6.690000E+03	2.820154E-17	1.264206E-18
6.700000E+03	2.845148E-17	1.271708E-18
6.710000E+03	2.870196E-17	1.279068E-18
6.720000E+03	2.895349E-17	1.286306E-18
6.730000E+03	2.920660E-17	1.293446E-18
6.740000E+03	2.946031E-17	1.300436E-18
6.750000E+03	2.971515E-17	1.307297E-18
6.760000E+03	2.997065E-17	1.314007E-18
6.770000E+03	3.022736E-17	1.320581E-18
6.780000E+03	3.048479E-17	1.326989E-18
6.790000E+03	3.074297E-17	1.333229E-18
6.800000E+03	3.100251E-17	1.339313E-18
6.810000E+03	3.126233E-17	1.345184E-18
6.820000E+03	3.152361E-17	1.350884E-18
6.830000E+03	3.178526E-17	1.356349E-18
6.840000E+03	3.204846E-17	1.361614E-18
6.850000E+03	3.231212E-17	1.366620E-18
6.860000E+03	3.257623E-17	1.371349E-18
6.870000E+03	3.284142E-17	1.375813E-18
6.880000E+03	3.310772E-17	1.380003E-18
6.890000E+03	3.337392E-17	1.383854E-18
6.900000E+03	3.364126E-17	1.387410E-18
6.910000E+03	3.390911E-17	1.390645E-18
6.920000E+03	3.417813E-17	1.393577E-18
6.930000E+03	3.444703E-17	1.396153E-18
6.940000E+03	3.471642E-17	1.398405E-18
6.950000E+03	3.498630E-17	1.400329E-18
6.960000E+03	3.525598E-17	1.401900E-18
6.970000E+03	3.552610E-17	1.403154E-18
6.980000E+03	3.579666E-17	1.404089E-18
6.990000E+03	3.606693E-17	1.404680E-18
7.000000E+03	3.633688E-17	1.404936E-18
7.010000E+03	3.660648E-17	1.404856E-18
7.020000E+03	3.687643E-17	1.404472E-18
7.030000E+03	3.714526E-17	1.403737E-18
7.040000E+03	3.741442E-17	1.402704E-18
7.050000E+03	3.768242E-17	1.401319E-18
7.060000E+03	3.794998E-17	1.399616E-18
7.070000E+03	3.821632E-17	1.397560E-18
7.080000E+03	3.848221E-17	1.395174E-18
7.090000E+03	3.874764E-17	1.392459E-18
7.100000E+03	3.901184E-17	1.389372E-18
7.110000E+03	3.927401E-17	1.385875E-18
7.120000E+03	3.953572E-17	1.382017E-18
7.130000E+03	3.979620E-17	1.377747E-18
7.140000E+03	4.005546E-17	1.373047E-18
7.150000E+03	4.031350E-17	1.367902E-18
7.160000E+03	4.056950E-17	1.362251E-18
7.170000E+03	4.082430E-17	1.356095E-18
7.180000E+03	4.107705E-17	1.349383E-18
7.190000E+03	4.132777E-17	1.342072E-18
7.200000E+03	4.157734E-17	1.334156E-18
7.210000E+03	4.182491E-17	1.325575E-18
7.220000E+03	4.207139E-17	1.316309E-18
7.230000E+03	4.231504E-17	1.306262E-18
7.240000E+03	4.255674E-17	1.295428E-18
7.250000E+03	4.279649E-17	1.283762E-18
7.260000E+03	4.303428E-17	1.271230E-18
7.270000E+03	4.327009E-17	1.257810E-18
7.280000E+03	4.350386E-17	1.243466E-18
7.290000E+03	4.373458E-17	1.228154E-18
7.300000E+03	4.396310E-17	1.211898E-18
7.310000E+03	4.418933E-17	1.194690E-18
7.320000E+03	4.441314E-17	1.176542E-18
7.330000E+03	4.463348E-17	1.157463E-18
7.340000E+03	4.485120E-17	1.137507E-18
7.350000E+03	4.506719E-17	1.116753E-18
7.360000E+03	4.527940E-17	1.095241E-18
7.370000E+03	4.548873E-17	1.073084E-18
7.380000E+03	4.569510E-17	1.050414E-18
7.390000E+03	4.589947E-17	1.027429E-18
7.400000E+03	4.610078E-17	1.004288E-18
7.410000E+03	4.630005E-17	9.812528E-19
7.420000E+03	4.649833E-17	9.586534E-19
7.430000E+03	4.669467E-17	9.368063E-19
7.440000E+03	4.689127E-17	9.161764E-19
7.450000E+03	4.708616E-17	8.972343E-19
7.460000E+03	4.728060E-17	8.805603E-19
7.470000E+03	4.747373E-17	8.667790E-19
7.480000E+03	4.766688E-17	8.566261E-19
7.490000E+03	4.785817E-17	8.507794E-19
7.500000E+03	4.804899E-17	8.499740E-19
7.510000E+03	4.823968E-17	8.548536E-19
7.520000E+03	4.842925E-17	8.654887E-19
7.530000E+03	4.861974E-17	8.813416E-19
7.540000E+03	4.880867E-17	9.016572E-19
7.550000E+03	4.899703E-17	9.256564E-19
7.560000E+03	4.918357E-17	9.525350E-19
7.570000E+03	4.936935E-17	9.815830E-19
7.580000E+03	4.955318E-17	1.012061E-18
7.590000E+03	4.973622E-17	1.043356E-18
7.600000E+03	4.991727E-17	1.074910E-18
7.610000E+03	5.009627E-17	1.106273E-18
7.620000E+03	5.027437E-17	1.137116E-18
7.630000E+03	5.045030E-17	1.167145E-18
7.640000E+03	5.062395E-17	1.196164E-18
7.650000E+03	5.079646E-17	1.224083E-18
7.660000E+03	5.096648E-17	1.250813E-18
7.670000E+03	5.113510E-17	1.276368E-18
7.680000E+03	5.129965E-17	1.300719E-18
7.690000E+03	5.146247E-17	1.323995E-18
7.700000E+03	5.162341E-17	1.346252E-18
7.710000E+03	5.178100E-17	1.367534E-18
7.720000E+03	5.193636E-17	1.387973E-18
7.730000E+03	5.208804E-17	1.407602E-18
7.740000E+03	5.223588E-17	1.426503E-18
7.750000E+03	5.238102E-17	1.444809E-18
7.760000E+03	5.252330E-17	1.462589E-18
