#wls	flux	fluxerr
1.600000E+03	2.109737E-17	1.687459E-17
1.640000E+03	2.175969E-17	1.724096E-17
1.680000E+03	2.246318E-17	1.762827E-17
1.720000E+03	2.320920E-17	1.803655E-17
1.760000E+03	2.400111E-17	1.846737E-17
1.800000E+03	2.484426E-17	1.892371E-17
1.840000E+03	2.573562E-17	1.940203E-17
1.880000E+03	2.668247E-17	1.990661E-17
1.920000E+03	2.768576E-17	2.043683E-17
1.960000E+03	2.874639E-17	2.099201E-17
2.000000E+03	2.986314E-17	2.156994E-17
2.040000E+03	3.103686E-17	2.216991E-17
2.080000E+03	3.226427E-17	2.278831E-17
2.120000E+03	3.353810E-17	2.341888E-17
2.160000E+03	3.485730E-17	2.405990E-17
2.200000E+03	3.621286E-17	2.470430E-17
2.240000E+03	3.759801E-17	2.534685E-17
2.280000E+03	3.901022E-17	2.598540E-17
2.320000E+03	4.045111E-17	2.662067E-17
2.360000E+03	4.192833E-17	2.725728E-17
2.400000E+03	4.345152E-17	2.790094E-17
2.440000E+03	4.503025E-17	2.855710E-17
2.480000E+03	4.667991E-17	2.923457E-17
2.520000E+03	4.840997E-17	2.993811E-17
2.560000E+03	5.023370E-17	3.067458E-17
2.600000E+03	5.215863E-17	3.144706E-17
2.640000E+03	5.419421E-17	3.225965E-17
2.680000E+03	5.634622E-17	3.311409E-17
2.720000E+03	5.862055E-17	3.401217E-17
2.760000E+03	6.102329E-17	3.495571E-17
2.800000E+03	6.355880E-17	3.594557E-17
2.840000E+03	6.623165E-17	3.698270E-17
2.880000E+03	6.905026E-17	3.807024E-17
2.920000E+03	7.201946E-17	3.920929E-17
2.960000E+03	7.515334E-17	4.040599E-17
3.000000E+03	7.846040E-17	4.166332E-17
3.010000E+03	7.931789E-17	4.198888E-17
3.020000E+03	8.018607E-17	4.231803E-17
3.030000E+03	8.106494E-17	4.265076E-17
3.040000E+03	8.195817E-17	4.298896E-17
3.050000E+03	8.286394E-17	4.333165E-17
3.060000E+03	8.378227E-17	4.367881E-17
3.070000E+03	8.471498E-17	4.403136E-17
3.080000E+03	8.566026E-17	4.438834E-17
3.090000E+03	8.661813E-17	4.474972E-17
3.100000E+03	8.759221E-17	4.511736E-17
3.110000E+03	8.857888E-17	4.548935E-17
3.120000E+03	8.957995E-17	4.586660E-17
3.130000E+03	9.059363E-17	4.624817E-17
3.140000E+03	9.162532E-17	4.663678E-17
3.150000E+03	9.266959E-17	4.702965E-17
3.160000E+03	9.372826E-17	4.742766E-17
3.170000E+03	9.480311E-17	4.783170E-17
3.180000E+03	9.589413E-17	4.824173E-17
3.190000E+03	9.699769E-17	4.865591E-17
3.200000E+03	9.811919E-17	4.907691E-17
3.210000E+03	9.925499E-17	4.950289E-17
3.220000E+03	1.004069E-16	4.993471E-17
3.230000E+03	1.015730E-16	5.037145E-17
3.240000E+03	1.027551E-16	5.081395E-17
3.250000E+03	1.039533E-16	5.126218E-17
3.260000E+03	1.051673E-16	5.171608E-17
3.270000E+03	1.063954E-16	5.217474E-17
3.280000E+03	1.076394E-16	5.263900E-17
3.290000E+03	1.088991E-16	5.310880E-17
3.300000E+03	1.101727E-16	5.358323E-17
3.310000E+03	1.114619E-16	5.406311E-17
3.320000E+03	1.127649E-16	5.454752E-17
3.330000E+03	1.140833E-16	5.503729E-17
3.340000E+03	1.154154E-16	5.553148E-17
3.350000E+03	1.167609E-16	5.603006E-17
3.360000E+03	1.181197E-16	5.653297E-17
3.370000E+03	1.194919E-16	5.704015E-17
3.380000E+03	1.208771E-16	5.755154E-17
3.390000E+03	1.222736E-16	5.806623E-17
3.400000E+03	1.236830E-16	5.858502E-17
3.410000E+03	1.251015E-16	5.910615E-17
3.420000E+03	1.265325E-16	5.963123E-17
3.430000E+03	1.279724E-16	6.015854E-17
3.440000E+03	1.294209E-16	6.068799E-17
3.450000E+03	1.308779E-16	6.121953E-17
3.460000E+03	1.323413E-16	6.175225E-17
3.470000E+03	1.338129E-16	6.228691E-17
3.480000E+03	1.352904E-16	6.282260E-17
3.490000E+03	1.367721E-16	6.335844E-17
3.500000E+03	1.382575E-16	6.389434E-17
3.510000E+03	1.397448E-16	6.442941E-17
3.520000E+03	1.412354E-16	6.496439E-17
3.530000E+03	1.427237E-16	6.549676E-17
3.540000E+03	1.442112E-16	6.602725E-17
3.550000E+03	1.456959E-16	6.655497E-17
3.560000E+03	1.471774E-16	6.707985E-17
3.570000E+03	1.486520E-16	6.760018E-17
3.580000E+03	1.501175E-16	6.811510E-17
3.590000E+03	1.515754E-16	6.862533E-17
3.600000E+03	1.530200E-16	6.912839E-17
3.610000E+03	1.544528E-16	6.962502E-17
3.620000E+03	1.558717E-16	7.011433E-17
3.630000E+03	1.572727E-16	7.059466E-17
3.640000E+03	1.586538E-16	7.106517E-17
3.650000E+03	1.600147E-16	7.152579E-17
3.660000E+03	1.613513E-16	7.197489E-17
3.670000E+03	1.626652E-16	7.241317E-17
3.680000E+03	1.639507E-16	7.283825E-17
3.690000E+03	1.652075E-16	7.325006E-17
3.700000E+03	1.664333E-16	7.364779E-17
3.710000E+03	1.676279E-16	7.403137E-17
3.720000E+03	1.687873E-16	7.439923E-17
3.730000E+03	1.699113E-16	7.475131E-17
3.740000E+03	1.709977E-16	7.508682E-17
3.750000E+03	1.720462E-16	7.540572E-17
3.760000E+03	1.730547E-16	7.570722E-17
3.770000E+03	1.740228E-16	7.599128E-17
3.780000E+03	1.749486E-16	7.625712E-17
3.790000E+03	1.758299E-16	7.650397E-17
3.800000E+03	1.766698E-16	7.673332E-17
3.810000E+03	1.774630E-16	7.694289E-17
3.820000E+03	1.782108E-16	7.713344E-17
3.830000E+03	1.789147E-16	7.730570E-17
3.840000E+03	1.795711E-16	7.745817E-17
3.850000E+03	1.801795E-16	7.759087E-17
3.860000E+03	1.807416E-16	7.770453E-17
3.870000E+03	1.812571E-16	7.779917E-17
3.880000E+03	1.817258E-16	7.787480E-17
3.890000E+03	1.821458E-16	7.793070E-17
3.900000E+03	1.825186E-16	7.796763E-17
3.910000E+03	1.828441E-16	7.798561E-17
3.920000E+03	1.831222E-16	7.798468E-17
3.930000E+03	1.833527E-16	7.796487E-17
3.940000E+03	1.835355E-16	7.792623E-17
3.950000E+03	1.836723E-16	7.786951E-17
3.960000E+03	1.837629E-16	7.779477E-17
3.970000E+03	1.838057E-16	7.770136E-17
3.980000E+03	1.838040E-16	7.759075E-17
3.990000E+03	1.837561E-16	7.746231E-17
4.000000E+03	1.836638E-16	7.731681E-17
4.010000E+03	1.835269E-16	7.715433E-17
4.020000E+03	1.833441E-16	7.697426E-17
4.030000E+03	1.831185E-16	7.677809E-17
4.040000E+03	1.828488E-16	7.656522E-17
4.050000E+03	1.825367E-16	7.633645E-17
4.060000E+03	1.821824E-16	7.609188E-17
4.070000E+03	1.817860E-16	7.583164E-17
4.080000E+03	1.813477E-16	7.555585E-17
4.090000E+03	1.808693E-16	7.526531E-17
4.100000E+03	1.803496E-16	7.495951E-17
4.110000E+03	1.797889E-16	7.463859E-17
4.120000E+03	1.791905E-16	7.430404E-17
4.130000E+03	1.785516E-16	7.395469E-17
4.140000E+03	1.778743E-16	7.359139E-17
4.150000E+03	1.771588E-16	7.321431E-17
4.160000E+03	1.764056E-16	7.282364E-17
4.170000E+03	1.756151E-16	7.241959E-17
4.180000E+03	1.747878E-16	7.200235E-17
4.190000E+03	1.739241E-16	7.157215E-17
4.200000E+03	1.730246E-16	7.112920E-17
4.210000E+03	1.720898E-16	7.067375E-17
4.220000E+03	1.711202E-16	7.020603E-17
4.230000E+03	1.701150E-16	6.972567E-17
4.240000E+03	1.690748E-16	6.923295E-17
4.250000E+03	1.680017E-16	6.872875E-17
4.260000E+03	1.668964E-16	6.821333E-17
4.270000E+03	1.657566E-16	6.768578E-17
4.280000E+03	1.645845E-16	6.714700E-17
4.290000E+03	1.633809E-16	6.659730E-17
4.300000E+03	1.621465E-16	6.603697E-17
4.310000E+03	1.608821E-16	6.546635E-17
4.320000E+03	1.595871E-16	6.488516E-17
4.330000E+03	1.582652E-16	6.429489E-17
4.340000E+03	1.569143E-16	6.369473E-17
4.350000E+03	1.555382E-16	6.308614E-17
4.360000E+03	1.541375E-16	6.246944E-17
4.370000E+03	1.527146E-16	6.184551E-17
4.380000E+03	1.512702E-16	6.121467E-17
4.390000E+03	1.498066E-16	6.057779E-17
4.400000E+03	1.483245E-16	5.993517E-17
4.410000E+03	1.468274E-16	5.928819E-17
4.420000E+03	1.453161E-16	5.863713E-17
4.430000E+03	1.437913E-16	5.798228E-17
4.440000E+03	1.422564E-16	5.732498E-17
4.450000E+03	1.407121E-16	5.666547E-17
4.460000E+03	1.391604E-16	5.600452E-17
4.470000E+03	1.376044E-16	5.534341E-17
4.480000E+03	1.360436E-16	5.468184E-17
4.490000E+03	1.344811E-16	5.402104E-17
4.500000E+03	1.329187E-16	5.336170E-17
4.510000E+03	1.313570E-16	5.270401E-17
4.520000E+03	1.297976E-16	5.204863E-17
4.530000E+03	1.282423E-16	5.139622E-17
4.540000E+03	1.266927E-16	5.074741E-17
4.550000E+03	1.251504E-16	5.010279E-17
4.560000E+03	1.236159E-16	4.946250E-17
4.570000E+03	1.220895E-16	4.882664E-17
4.580000E+03	1.205750E-16	4.819671E-17
4.590000E+03	1.190716E-16	4.757231E-17
4.600000E+03	1.175794E-16	4.695354E-17
4.610000E+03	1.161011E-16	4.634136E-17
4.620000E+03	1.146380E-16	4.573625E-17
4.630000E+03	1.131880E-16	4.513739E-17
4.640000E+03	1.117556E-16	4.454653E-17
4.650000E+03	1.103378E-16	4.396242E-17
4.660000E+03	1.089379E-16	4.338634E-17
4.670000E+03	1.075560E-16	4.281829E-17
4.680000E+03	1.061920E-16	4.225827E-17
4.690000E+03	1.048461E-16	4.170626E-17
4.700000E+03	1.035184E-16	4.116224E-17
4.710000E+03	1.022107E-16	4.062699E-17
4.720000E+03	1.009222E-16	4.010009E-17
4.730000E+03	9.965279E-17	3.958149E-17
4.740000E+03	9.840340E-17	3.907153E-17
4.750000E+03	9.717205E-17	3.856941E-17
4.760000E+03	9.596161E-17	3.807622E-17
4.770000E+03	9.476911E-17	3.759077E-17
4.780000E+03	9.359641E-17	3.711378E-17
4.790000E+03	9.244342E-17	3.664517E-17
4.800000E+03	9.130818E-17	3.618416E-17
4.810000E+03	9.019158E-17	3.573107E-17
4.820000E+03	8.909442E-17	3.528619E-17
4.830000E+03	8.801481E-17	3.484876E-17
4.840000E+03	8.695356E-17	3.441907E-17
4.850000E+03	8.591056E-17	3.399707E-17
4.860000E+03	8.488486E-17	3.358236E-17
4.870000E+03	8.387636E-17	3.317488E-17
4.880000E+03	8.288583E-17	3.277491E-17
4.890000E+03	8.191230E-17	3.238206E-17
4.900000E+03	8.095651E-17	3.199660E-17
4.910000E+03	8.001669E-17	3.161782E-17
4.920000E+03	7.909357E-17	3.124598E-17
4.930000E+03	7.818704E-17	3.088104E-17
4.940000E+03	7.729619E-17	3.052261E-17
4.950000E+03	7.642171E-17	3.017096E-17
4.960000E+03	7.556272E-17	2.982572E-17
4.970000E+03	7.471987E-17	2.948714E-17
4.980000E+03	7.389228E-17	2.915486E-17
4.990000E+03	7.307984E-17	2.882882E-17
5.000000E+03	7.228170E-17	2.850868E-17
5.010000E+03	7.149925E-17	2.819497E-17
5.020000E+03	7.073090E-17	2.788706E-17
5.030000E+03	6.997654E-17	2.758488E-17
5.040000E+03	6.923681E-17	2.728869E-17
5.050000E+03	6.851086E-17	2.699814E-17
5.060000E+03	6.779862E-17	2.671319E-17
5.070000E+03	6.709996E-17	2.643379E-17
5.080000E+03	6.641479E-17	2.615988E-17
5.090000E+03	6.574234E-17	2.589116E-17
5.100000E+03	6.508250E-17	2.562758E-17
5.110000E+03	6.443587E-17	2.536936E-17
5.120000E+03	6.380102E-17	2.511594E-17
5.130000E+03	6.317917E-17	2.486778E-17
5.140000E+03	6.256829E-17	2.462409E-17
5.150000E+03	6.196960E-17	2.438533E-17
5.160000E+03	6.138238E-17	2.415122E-17
5.170000E+03	6.080654E-17	2.392172E-17
5.180000E+03	6.024201E-17	2.369679E-17
5.190000E+03	5.968811E-17	2.347616E-17
5.200000E+03	5.914477E-17	2.325979E-17
5.210000E+03	5.861133E-17	2.304743E-17
5.220000E+03	5.808893E-17	2.283952E-17
5.230000E+03	5.757572E-17	2.263532E-17
5.240000E+03	5.707226E-17	2.243505E-17
5.250000E+03	5.657850E-17	2.223869E-17
5.260000E+03	5.609438E-17	2.204621E-17
5.270000E+03	5.561872E-17	2.185714E-17
5.280000E+03	5.515205E-17	2.167169E-17
5.290000E+03	5.469378E-17	2.148962E-17
5.300000E+03	5.424389E-17	2.131092E-17
5.310000E+03	5.380180E-17	2.113536E-17
5.320000E+03	5.336803E-17	2.096314E-17
5.330000E+03	5.294149E-17	2.079383E-17
5.340000E+03	5.252216E-17	2.062742E-17
5.350000E+03	5.210952E-17	2.046371E-17
5.360000E+03	5.170409E-17	2.030288E-17
5.370000E+03	5.130431E-17	2.014434E-17
5.380000E+03	5.091070E-17	1.998829E-17
5.390000E+03	5.052278E-17	1.983452E-17
5.400000E+03	5.014006E-17	1.968285E-17
5.410000E+03	4.976106E-17	1.953269E-17
5.420000E+03	4.938534E-17	1.938388E-17
5.430000E+03	4.901248E-17	1.923624E-17
5.440000E+03	4.864011E-17	1.908884E-17
5.450000E+03	4.826786E-17	1.894153E-17
5.460000E+03	4.789393E-17	1.879362E-17
5.470000E+03	4.751753E-17	1.864478E-17
5.480000E+03	4.714024E-17	1.849564E-17
5.490000E+03	4.676173E-17	1.834606E-17
5.500000E+03	4.638351E-17	1.819665E-17
5.510000E+03	4.600615E-17	1.804761E-17
5.520000E+03	4.563156E-17	1.789970E-17
5.530000E+03	4.525931E-17	1.775275E-17
5.540000E+03	4.489034E-17	1.760712E-17
5.550000E+03	4.452466E-17	1.746282E-17
5.560000E+03	4.416361E-17	1.732037E-17
5.570000E+03	4.380673E-17	1.717960E-17
5.580000E+03	4.345443E-17	1.704066E-17
5.590000E+03	4.310669E-17	1.690354E-17
5.600000E+03	4.276434E-17	1.676856E-17
5.610000E+03	4.242689E-17	1.663554E-17
5.620000E+03	4.209474E-17	1.650463E-17
5.630000E+03	4.176825E-17	1.637597E-17
5.640000E+03	4.144736E-17	1.624953E-17
5.650000E+03	4.113243E-17	1.612546E-17
5.660000E+03	4.082296E-17	1.600356E-17
5.670000E+03	4.051930E-17	1.588397E-17
5.680000E+03	4.022181E-17	1.576681E-17
5.690000E+03	3.993039E-17	1.565206E-17
5.700000E+03	3.964497E-17	1.553969E-17
5.710000E+03	3.936546E-17	1.542966E-17
5.720000E+03	3.909261E-17	1.532227E-17
5.730000E+03	3.882550E-17	1.521714E-17
5.740000E+03	3.856487E-17	1.511458E-17
5.750000E+03	3.831064E-17	1.501454E-17
5.760000E+03	3.806229E-17	1.491683E-17
5.770000E+03	3.782015E-17	1.482158E-17
5.780000E+03	3.758454E-17	1.472890E-17
5.790000E+03	3.735495E-17	1.463860E-17
5.800000E+03	3.713131E-17	1.455065E-17
5.810000E+03	3.691433E-17	1.446533E-17
5.820000E+03	3.670311E-17	1.438228E-17
5.830000E+03	3.649797E-17	1.430163E-17
5.840000E+03	3.629881E-17	1.422335E-17
5.850000E+03	3.610556E-17	1.414739E-17
5.860000E+03	3.591853E-17	1.407388E-17
5.870000E+03	3.573682E-17	1.400248E-17
5.880000E+03	3.556116E-17	1.393345E-17
5.890000E+03	3.539106E-17	1.386662E-17
5.900000E+03	3.522644E-17	1.380196E-17
5.910000E+03	3.506722E-17	1.373942E-17
5.920000E+03	3.491332E-17	1.367897E-17
5.930000E+03	3.476505E-17	1.362075E-17
5.940000E+03	3.462154E-17	1.356440E-17
5.950000E+03	3.448272E-17	1.350990E-17
5.960000E+03	3.434890E-17	1.345737E-17
5.970000E+03	3.422000E-17	1.340679E-17
5.980000E+03	3.409517E-17	1.335780E-17
5.990000E+03	3.397510E-17	1.331069E-17
6.000000E+03	3.385855E-17	1.326497E-17
6.010000E+03	3.374662E-17	1.322107E-17
6.020000E+03	3.363805E-17	1.317850E-17
6.030000E+03	3.353276E-17	1.313722E-17
6.040000E+03	3.343106E-17	1.309736E-17
6.050000E+03	3.333250E-17	1.305873E-17
6.060000E+03	3.323698E-17	1.302131E-17
6.070000E+03	3.314363E-17	1.298474E-17
6.080000E+03	3.305316E-17	1.294931E-17
6.090000E+03	3.296430E-17	1.291452E-17
6.100000E+03	3.287775E-17	1.288065E-17
6.110000E+03	3.279303E-17	1.284750E-17
6.120000E+03	3.270965E-17	1.281488E-17
6.130000E+03	3.262752E-17	1.278276E-17
6.140000E+03	3.254693E-17	1.275125E-17
6.150000E+03	3.246740E-17	1.272016E-17
6.160000E+03	3.238881E-17	1.268945E-17
6.170000E+03	3.231189E-17	1.265940E-17
6.180000E+03	3.223572E-17	1.262964E-17
6.190000E+03	3.216060E-17	1.260031E-17
6.200000E+03	3.208684E-17	1.257152E-17
6.210000E+03	3.201474E-17	1.254338E-17
6.220000E+03	3.194380E-17	1.251571E-17
6.230000E+03	3.187391E-17	1.248845E-17
6.240000E+03	3.180539E-17	1.246174E-17
6.250000E+03	3.173771E-17	1.243536E-17
6.260000E+03	3.167118E-17	1.240943E-17
6.270000E+03	3.160569E-17	1.238393E-17
6.280000E+03	3.154157E-17	1.235896E-17
6.290000E+03	3.147871E-17	1.233449E-17
6.300000E+03	3.141701E-17	1.231048E-17
6.310000E+03	3.135679E-17	1.228706E-17
6.320000E+03	3.129838E-17	1.226435E-17
6.330000E+03	3.124126E-17	1.224215E-17
6.340000E+03	3.118576E-17	1.222059E-17
6.350000E+03	3.113222E-17	1.219980E-17
6.360000E+03	3.108011E-17	1.217958E-17
6.370000E+03	3.103023E-17	1.216024E-17
6.380000E+03	3.098249E-17	1.214174E-17
6.390000E+03	3.093680E-17	1.212405E-17
6.400000E+03	3.089310E-17	1.210714E-17
6.410000E+03	3.085219E-17	1.209133E-17
6.420000E+03	3.081356E-17	1.207642E-17
6.430000E+03	3.077804E-17	1.206273E-17
6.440000E+03	3.074559E-17	1.205024E-17
6.450000E+03	3.071614E-17	1.203894E-17
6.460000E+03	3.069010E-17	1.202898E-17
6.470000E+03	3.066744E-17	1.202034E-17
6.480000E+03	3.064858E-17	1.201320E-17
6.490000E+03	3.063254E-17	1.200717E-17
6.500000E+03	3.062023E-17	1.200260E-17
6.510000E+03	3.061161E-17	1.199948E-17
6.520000E+03	3.060619E-17	1.199762E-17
6.530000E+03	3.060440E-17	1.199718E-17
6.540000E+03	3.060623E-17	1.199817E-17
6.550000E+03	3.061165E-17	1.200057E-17
6.560000E+03	3.062065E-17	1.200437E-17
6.570000E+03	3.063370E-17	1.200976E-17
6.580000E+03	3.065030E-17	1.201655E-17
6.590000E+03	3.067043E-17	1.202473E-17
6.600000E+03	3.069459E-17	1.203449E-17
6.610000E+03	3.072278E-17	1.204582E-17
6.620000E+03	3.075449E-17	1.205855E-17
6.630000E+03	3.079023E-17	1.207285E-17
6.640000E+03	3.082948E-17	1.208853E-17
6.650000E+03	3.087329E-17	1.210600E-17
6.660000E+03	3.092062E-17	1.212486E-17
6.670000E+03	3.097148E-17	1.214510E-17
6.680000E+03	3.102641E-17	1.216693E-17
6.690000E+03	3.108542E-17	1.219037E-17
6.700000E+03	3.114798E-17	1.221520E-17
6.710000E+03	3.121411E-17	1.224144E-17
6.720000E+03	3.128437E-17	1.226929E-17
6.730000E+03	3.135822E-17	1.229855E-17
6.740000E+03	3.143624E-17	1.232945E-17
6.750000E+03	3.151733E-17	1.236156E-17
6.760000E+03	3.160263E-17	1.239531E-17
6.770000E+03	3.169104E-17	1.243029E-17
6.780000E+03	3.178370E-17	1.246693E-17
6.790000E+03	3.187950E-17	1.250481E-17
6.800000E+03	3.197903E-17	1.254414E-17
6.810000E+03	3.208231E-17	1.258496E-17
6.820000E+03	3.218879E-17	1.262702E-17
6.830000E+03	3.229908E-17	1.267058E-17
6.840000E+03	3.241260E-17	1.271540E-17
6.850000E+03	3.252998E-17	1.276174E-17
6.860000E+03	3.265004E-17	1.280913E-17
6.870000E+03	3.277402E-17	1.285805E-17
6.880000E+03	3.290132E-17	1.290828E-17
6.890000E+03	3.303198E-17	1.295983E-17
6.900000E+03	3.316540E-17	1.301245E-17
6.910000E+03	3.330286E-17	1.306666E-17
6.920000E+03	3.344248E-17	1.312172E-17
6.930000E+03	3.358620E-17	1.317838E-17
6.940000E+03	3.373277E-17	1.323615E-17
6.950000E+03	3.388220E-17	1.329505E-17
6.960000E+03	3.403519E-17	1.335534E-17
6.970000E+03	3.419109E-17	1.341678E-17
6.980000E+03	3.434994E-17	1.347936E-17
6.990000E+03	3.451176E-17	1.354311E-17
7.000000E+03	3.467657E-17	1.360802E-17
7.010000E+03	3.484441E-17	1.367412E-17
7.020000E+03	3.501460E-17	1.374115E-17
7.030000E+03	3.518856E-17	1.380964E-17
7.040000E+03	3.536423E-17	1.387880E-17
7.050000E+03	3.554372E-17	1.394946E-17
7.060000E+03	3.572496E-17	1.402080E-17
7.070000E+03	3.590938E-17	1.409338E-17
7.080000E+03	3.609629E-17	1.416694E-17
7.090000E+03	3.628572E-17	1.424148E-17
7.100000E+03	3.647841E-17	1.431729E-17
7.110000E+03	3.667294E-17	1.439381E-17
7.120000E+03	3.687004E-17	1.447135E-17
7.130000E+03	3.706901E-17	1.454960E-17
7.140000E+03	3.727059E-17	1.462888E-17
7.150000E+03	3.747483E-17	1.470919E-17
7.160000E+03	3.768097E-17	1.479025E-17
7.170000E+03	3.788981E-17	1.487235E-17
7.180000E+03	3.809983E-17	1.495491E-17
7.190000E+03	3.831257E-17	1.503853E-17
7.200000E+03	3.852729E-17	1.512292E-17
7.210000E+03	3.874321E-17	1.520777E-17
7.220000E+03	3.896112E-17	1.529339E-17
7.230000E+03	3.918106E-17	1.537980E-17
7.240000E+03	3.940221E-17	1.546668E-17
7.250000E+03	3.962458E-17	1.555403E-17
7.260000E+03	3.984818E-17	1.564185E-17
7.270000E+03	4.007301E-17	1.573014E-17
7.280000E+03	4.029907E-17	1.581891E-17
7.290000E+03	4.052468E-17	1.590749E-17
7.300000E+03	4.075151E-17	1.599653E-17
7.310000E+03	4.097871E-17	1.608572E-17
7.320000E+03	4.120541E-17	1.617469E-17
7.330000E+03	4.143244E-17	1.626378E-17
7.340000E+03	4.165805E-17	1.635231E-17
7.350000E+03	4.188219E-17	1.644024E-17
7.360000E+03	4.210482E-17	1.652757E-17
7.370000E+03	4.232499E-17	1.661392E-17
7.380000E+03	4.254355E-17	1.669963E-17
7.390000E+03	4.275772E-17	1.678360E-17
7.400000E+03	4.296923E-17	1.686652E-17
7.410000E+03	4.317619E-17	1.694763E-17
7.420000E+03	4.337940E-17	1.702727E-17
7.430000E+03	4.357787E-17	1.710502E-17
7.440000E+03	4.377147E-17	1.718086E-17
7.450000E+03	4.396106E-17	1.725510E-17
7.460000E+03	4.414560E-17	1.732735E-17
7.470000E+03	4.432784E-17	1.739869E-17
7.480000E+03	4.450582E-17	1.746834E-17
7.490000E+03	4.468139E-17	1.753703E-17
7.500000E+03	4.485353E-17	1.760436E-17
7.510000E+03	4.502512E-17	1.767146E-17
7.520000E+03	4.519515E-17	1.773793E-17
7.530000E+03	4.536360E-17	1.780377E-17
7.540000E+03	4.553146E-17	1.786937E-17
7.550000E+03	4.569871E-17	1.793471E-17
7.560000E+03	4.586737E-17	1.800059E-17
7.570000E+03	4.603544E-17	1.806623E-17
7.580000E+03	4.620394E-17	1.813202E-17
7.590000E+03	4.637392E-17	1.819838E-17
7.600000E+03	4.654438E-17	1.826492E-17
7.610000E+03	4.671639E-17	1.833204E-17
7.620000E+03	4.688892E-17	1.839936E-17
7.630000E+03	4.706411E-17	1.846772E-17
7.640000E+03	4.723990E-17	1.853629E-17
7.650000E+03	4.741844E-17	1.860593E-17
7.660000E+03	4.759764E-17	1.867581E-17
7.670000E+03	4.777969E-17	1.874680E-17
7.680000E+03	4.796247E-17	1.881806E-17
7.690000E+03	4.814819E-17	1.889047E-17
7.700000E+03	4.833582E-17	1.896361E-17
7.710000E+03	4.852540E-17	1.903750E-17
7.720000E+03	4.871696E-17	1.911216E-17
7.730000E+03	4.891055E-17	1.918760E-17
7.740000E+03	4.910622E-17	1.926385E-17
7.750000E+03	4.930287E-17	1.934047E-17
7.760000E+03	4.950282E-17	1.941837E-17
