#wls	flux	fluxerr
1.600000E+03	2.221715E-16	2.155421E-16
1.640000E+03	2.300903E-16	2.195064E-16
1.680000E+03	2.379103E-16	2.230380E-16
1.720000E+03	2.456036E-16	2.261075E-16
1.760000E+03	2.530641E-16	2.286175E-16
1.800000E+03	2.602463E-16	2.305322E-16
1.840000E+03	2.670502E-16	2.317723E-16
1.880000E+03	2.734134E-16	2.322988E-16
1.920000E+03	2.792433E-16	2.320532E-16
1.960000E+03	2.844413E-16	2.309807E-16
2.000000E+03	2.888630E-16	2.289991E-16
2.040000E+03	2.924077E-16	2.260730E-16
2.080000E+03	2.949567E-16	2.221635E-16
2.120000E+03	2.963426E-16	2.172079E-16
2.160000E+03	2.964192E-16	2.111746E-16
2.200000E+03	2.950155E-16	2.040298E-16
2.240000E+03	2.919862E-16	1.957740E-16
2.280000E+03	2.872978E-16	1.864954E-16
2.320000E+03	2.809847E-16	1.763308E-16
2.360000E+03	2.732469E-16	1.655169E-16
2.400000E+03	2.642650E-16	1.542634E-16
2.440000E+03	2.542028E-16	1.427565E-16
2.480000E+03	2.432434E-16	1.311790E-16
2.520000E+03	2.315313E-16	1.196778E-16
2.560000E+03	2.191946E-16	1.083788E-16
2.600000E+03	2.063925E-16	9.741027E-17
2.640000E+03	1.932454E-16	8.686783E-17
2.680000E+03	1.798970E-16	7.684472E-17
2.720000E+03	1.664708E-16	6.741134E-17
2.760000E+03	1.531144E-16	5.863406E-17
2.800000E+03	1.399551E-16	5.055665E-17
2.840000E+03	1.271292E-16	4.321221E-17
2.880000E+03	1.147678E-16	3.661790E-17
2.920000E+03	1.029927E-16	3.077459E-17
2.960000E+03	9.191147E-17	2.566704E-17
3.000000E+03	8.161117E-17	2.126430E-17
3.010000E+03	7.916519E-17	2.026856E-17
3.020000E+03	7.677345E-17	1.931349E-17
3.030000E+03	7.443445E-17	1.839769E-17
3.040000E+03	7.215164E-17	1.752101E-17
3.050000E+03	6.992337E-17	1.668200E-17
3.060000E+03	6.774964E-17	1.587965E-17
3.070000E+03	6.563043E-17	1.511293E-17
3.080000E+03	6.356830E-17	1.438140E-17
3.090000E+03	6.156026E-17	1.368335E-17
3.100000E+03	5.960857E-17	1.301828E-17
3.110000E+03	5.771155E-17	1.238479E-17
3.120000E+03	5.586990E-17	1.178205E-17
3.130000E+03	5.408305E-17	1.120893E-17
3.140000E+03	5.235038E-17	1.066433E-17
3.150000E+03	5.067127E-17	1.014718E-17
3.160000E+03	4.904595E-17	9.656560E-18
3.170000E+03	4.747272E-17	9.191230E-18
3.180000E+03	4.595170E-17	8.750307E-18
3.190000E+03	4.448201E-17	8.332746E-18
3.200000E+03	4.306274E-17	7.937524E-18
3.210000E+03	4.169370E-17	7.563776E-18
3.220000E+03	4.037247E-17	7.210261E-18
3.230000E+03	3.910016E-17	6.876404E-18
3.240000E+03	3.787370E-17	6.560918E-18
3.250000E+03	3.669400E-17	6.263244E-18
3.260000E+03	3.555871E-17	5.982289E-18
3.270000E+03	3.446736E-17	5.717314E-18
3.280000E+03	3.341884E-17	5.467502E-18
3.290000E+03	3.241151E-17	5.231982E-18
3.300000E+03	3.144530E-17	5.010165E-18
3.310000E+03	3.051808E-17	4.801167E-18
3.320000E+03	2.962880E-17	4.604302E-18
3.330000E+03	2.877725E-17	4.419044E-18
3.340000E+03	2.796144E-17	4.244622E-18
3.350000E+03	2.718034E-17	4.080437E-18
3.360000E+03	2.643291E-17	3.925917E-18
3.370000E+03	2.571846E-17	3.780571E-18
3.380000E+03	2.503525E-17	3.643771E-18
3.390000E+03	2.438233E-17	3.515034E-18
3.400000E+03	2.375905E-17	3.393944E-18
3.410000E+03	2.316414E-17	3.280015E-18
3.420000E+03	2.259668E-17	3.172833E-18
3.430000E+03	2.205521E-17	3.071928E-18
3.440000E+03	2.153919E-17	2.976979E-18
3.450000E+03	2.104779E-17	2.887641E-18
3.460000E+03	2.057968E-17	2.803519E-18
3.470000E+03	2.013413E-17	2.724318E-18
3.480000E+03	1.971020E-17	2.649724E-18
3.490000E+03	1.930743E-17	2.579509E-18
3.500000E+03	1.892447E-17	2.513335E-18
3.510000E+03	1.856096E-17	2.451009E-18
3.520000E+03	1.821587E-17	2.392263E-18
3.530000E+03	1.788846E-17	2.336877E-18
3.540000E+03	1.757803E-17	2.284647E-18
3.550000E+03	1.728371E-17	2.235358E-18
3.560000E+03	1.700507E-17	2.188860E-18
3.570000E+03	1.674116E-17	2.144943E-18
3.580000E+03	1.649142E-17	2.103457E-18
3.590000E+03	1.625553E-17	2.064287E-18
3.600000E+03	1.603279E-17	2.027282E-18
3.610000E+03	1.582276E-17	1.992321E-18
3.620000E+03	1.562482E-17	1.959273E-18
3.630000E+03	1.543841E-17	1.928017E-18
3.640000E+03	1.526315E-17	1.898459E-18
3.650000E+03	1.509836E-17	1.870473E-18
3.660000E+03	1.494387E-17	1.843999E-18
3.670000E+03	1.479906E-17	1.818925E-18
3.680000E+03	1.466363E-17	1.795182E-18
3.690000E+03	1.453742E-17	1.772722E-18
3.700000E+03	1.441988E-17	1.751450E-18
3.710000E+03	1.431074E-17	1.731308E-18
3.720000E+03	1.421001E-17	1.712274E-18
3.730000E+03	1.411729E-17	1.694280E-18
3.740000E+03	1.403233E-17	1.677276E-18
3.750000E+03	1.395515E-17	1.661243E-18
3.760000E+03	1.388536E-17	1.646122E-18
3.770000E+03	1.382286E-17	1.631881E-18
3.780000E+03	1.376764E-17	1.618507E-18
3.790000E+03	1.371946E-17	1.605957E-18
3.800000E+03	1.367822E-17	1.594204E-18
3.810000E+03	1.364379E-17	1.583222E-18
3.820000E+03	1.361606E-17	1.572984E-18
3.830000E+03	1.359502E-17	1.563480E-18
3.840000E+03	1.358045E-17	1.554670E-18
3.850000E+03	1.357234E-17	1.546545E-18
3.860000E+03	1.357069E-17	1.539092E-18
3.870000E+03	1.357528E-17	1.532274E-18
3.880000E+03	1.358597E-17	1.526069E-18
3.890000E+03	1.360289E-17	1.520477E-18
3.900000E+03	1.362591E-17	1.515474E-18
3.910000E+03	1.365480E-17	1.511025E-18
3.920000E+03	1.368967E-17	1.507131E-18
3.930000E+03	1.373050E-17	1.503778E-18
3.940000E+03	1.377695E-17	1.500919E-18
3.950000E+03	1.382913E-17	1.498552E-18
3.960000E+03	1.388700E-17	1.496667E-18
3.970000E+03	1.395046E-17	1.495238E-18
3.980000E+03	1.401924E-17	1.494227E-18
3.990000E+03	1.409357E-17	1.493646E-18
4.000000E+03	1.417319E-17	1.493459E-18
4.010000E+03	1.425797E-17	1.493639E-18
4.020000E+03	1.434800E-17	1.494186E-18
4.030000E+03	1.444302E-17	1.495064E-18
4.040000E+03	1.454313E-17	1.496273E-18
4.050000E+03	1.464796E-17	1.497763E-18
4.060000E+03	1.475771E-17	1.499549E-18
4.070000E+03	1.487212E-17	1.501595E-18
4.080000E+03	1.499106E-17	1.503879E-18
4.090000E+03	1.511462E-17	1.506404E-18
4.100000E+03	1.524242E-17	1.509124E-18
4.110000E+03	1.537468E-17	1.512057E-18
4.120000E+03	1.551102E-17	1.515159E-18
4.130000E+03	1.565142E-17	1.518426E-18
4.140000E+03	1.579587E-17	1.521854E-18
4.150000E+03	1.594412E-17	1.525416E-18
4.160000E+03	1.609614E-17	1.529113E-18
4.170000E+03	1.625181E-17	1.532933E-18
4.180000E+03	1.641087E-17	1.536857E-18
4.190000E+03	1.657344E-17	1.540904E-18
4.200000E+03	1.673914E-17	1.545048E-18
4.210000E+03	1.690809E-17	1.549315E-18
4.220000E+03	1.707990E-17	1.553685E-18
4.230000E+03	1.725458E-17	1.558181E-18
4.240000E+03	1.743199E-17	1.562815E-18
4.250000E+03	1.761174E-17	1.567582E-18
4.260000E+03	1.779397E-17	1.572527E-18
4.270000E+03	1.797841E-17	1.577666E-18
4.280000E+03	1.816479E-17	1.583016E-18
4.290000E+03	1.835283E-17	1.588598E-18
4.300000E+03	1.854254E-17	1.594463E-18
4.310000E+03	1.873380E-17	1.600650E-18
4.320000E+03	1.892600E-17	1.607159E-18
4.330000E+03	1.911933E-17	1.614057E-18
4.340000E+03	1.931317E-17	1.621341E-18
4.350000E+03	1.950769E-17	1.629072E-18
4.360000E+03	1.970243E-17	1.637252E-18
4.370000E+03	1.989739E-17	1.645916E-18
4.380000E+03	2.009258E-17	1.655091E-18
4.390000E+03	2.028803E-17	1.664797E-18
4.400000E+03	2.048374E-17	1.675040E-18
4.410000E+03	2.067988E-17	1.685830E-18
4.420000E+03	2.087665E-17	1.697166E-18
4.430000E+03	2.107406E-17	1.709027E-18
4.440000E+03	2.127232E-17	1.721393E-18
4.450000E+03	2.147129E-17	1.734213E-18
4.460000E+03	2.167136E-17	1.747470E-18
4.470000E+03	2.187242E-17	1.761102E-18
4.480000E+03	2.207450E-17	1.775057E-18
4.490000E+03	2.227768E-17	1.789283E-18
4.500000E+03	2.248203E-17	1.803728E-18
4.510000E+03	2.268761E-17	1.818339E-18
4.520000E+03	2.289451E-17	1.833071E-18
4.530000E+03	2.310241E-17	1.847845E-18
4.540000E+03	2.331181E-17	1.862654E-18
4.550000E+03	2.352239E-17	1.877430E-18
4.560000E+03	2.373424E-17	1.892144E-18
4.570000E+03	2.394727E-17	1.906754E-18
4.580000E+03	2.416178E-17	1.921260E-18
4.590000E+03	2.437768E-17	1.935632E-18
4.600000E+03	2.459464E-17	1.949829E-18
4.610000E+03	2.481323E-17	1.963885E-18
4.620000E+03	2.503313E-17	1.977769E-18
4.630000E+03	2.525425E-17	1.991471E-18
4.640000E+03	2.547696E-17	2.005024E-18
4.650000E+03	2.570140E-17	2.018444E-18
4.660000E+03	2.592704E-17	2.031698E-18
4.670000E+03	2.615452E-17	2.044845E-18
4.680000E+03	2.638378E-17	2.057895E-18
4.690000E+03	2.661477E-17	2.070857E-18
4.700000E+03	2.684771E-17	2.083761E-18
4.710000E+03	2.708256E-17	2.096621E-18
4.720000E+03	2.731956E-17	2.109471E-18
4.730000E+03	2.755820E-17	2.122285E-18
4.740000E+03	2.779871E-17	2.135096E-18
4.750000E+03	2.804137E-17	2.147941E-18
4.760000E+03	2.828539E-17	2.160774E-18
4.770000E+03	2.853132E-17	2.173649E-18
4.780000E+03	2.877889E-17	2.186562E-18
4.790000E+03	2.902785E-17	2.199507E-18
4.800000E+03	2.927876E-17	2.212541E-18
4.810000E+03	2.953079E-17	2.225619E-18
4.820000E+03	2.978480E-17	2.238819E-18
4.830000E+03	3.003995E-17	2.252095E-18
4.840000E+03	3.029681E-17	2.265507E-18
4.850000E+03	3.055480E-17	2.279029E-18
4.860000E+03	3.081449E-17	2.292723E-18
4.870000E+03	3.107530E-17	2.306562E-18
4.880000E+03	3.133749E-17	2.320585E-18
4.890000E+03	3.160105E-17	2.334808E-18
4.900000E+03	3.186564E-17	2.349223E-18
4.910000E+03	3.213120E-17	2.363841E-18
4.920000E+03	3.239770E-17	2.378672E-18
4.930000E+03	3.266538E-17	2.393746E-18
4.940000E+03	3.293353E-17	2.409020E-18
4.950000E+03	3.320271E-17	2.424538E-18
4.960000E+03	3.347217E-17	2.440248E-18
4.970000E+03	3.374212E-17	2.456161E-18
4.980000E+03	3.401207E-17	2.472238E-18
4.990000E+03	3.428188E-17	2.488454E-18
5.000000E+03	3.455135E-17	2.504782E-18
5.010000E+03	3.482061E-17	2.521212E-18
5.020000E+03	3.508875E-17	2.537656E-18
5.030000E+03	3.535586E-17	2.554095E-18
5.040000E+03	3.562128E-17	2.570454E-18
5.050000E+03	3.588506E-17	2.586708E-18
5.060000E+03	3.614648E-17	2.602775E-18
5.070000E+03	3.640481E-17	2.618575E-18
5.080000E+03	3.665998E-17	2.634073E-18
5.090000E+03	3.691155E-17	2.649213E-18
5.100000E+03	3.715868E-17	2.663913E-18
5.110000E+03	3.740051E-17	2.678090E-18
5.120000E+03	3.763722E-17	2.691745E-18
5.130000E+03	3.786753E-17	2.704778E-18
5.140000E+03	3.809084E-17	2.717144E-18
5.150000E+03	3.830654E-17	2.728803E-18
5.160000E+03	3.851402E-17	2.739721E-18
5.170000E+03	3.871223E-17	2.749841E-18
5.180000E+03	3.890091E-17	2.759169E-18
5.190000E+03	3.907862E-17	2.767629E-18
5.200000E+03	3.924505E-17	2.775235E-18
5.210000E+03	3.939873E-17	2.781922E-18
5.220000E+03	3.953977E-17	2.787739E-18
5.230000E+03	3.966668E-17	2.792627E-18
5.240000E+03	3.977919E-17	2.796610E-18
5.250000E+03	3.987583E-17	2.799634E-18
5.260000E+03	3.995636E-17	2.801727E-18
5.270000E+03	4.002016E-17	2.802889E-18
5.280000E+03	4.006586E-17	2.803067E-18
5.290000E+03	4.009291E-17	2.802262E-18
5.300000E+03	4.010123E-17	2.800504E-18
5.310000E+03	4.009002E-17	2.797770E-18
5.320000E+03	4.005854E-17	2.794038E-18
5.330000E+03	4.000654E-17	2.789316E-18
5.340000E+03	3.993389E-17	2.783617E-18
5.350000E+03	3.984055E-17	2.776956E-18
5.360000E+03	3.972623E-17	2.769330E-18
5.370000E+03	3.959154E-17	2.760793E-18
5.380000E+03	3.943648E-17	2.751354E-18
5.390000E+03	3.926195E-17	2.741082E-18
5.400000E+03	3.906823E-17	2.729999E-18
5.410000E+03	3.885695E-17	2.718216E-18
5.420000E+03	3.862946E-17	2.705822E-18
5.430000E+03	3.838650E-17	2.692857E-18
5.440000E+03	3.813049E-17	2.679477E-18
5.450000E+03	3.786282E-17	2.665755E-18
5.460000E+03	3.758350E-17	2.651667E-18
5.470000E+03	3.729530E-17	2.637372E-18
5.480000E+03	3.699922E-17	2.622900E-18
5.490000E+03	3.669632E-17	2.608282E-18
5.500000E+03	3.638815E-17	2.593572E-18
5.510000E+03	3.607592E-17	2.578799E-18
5.520000E+03	3.576089E-17	2.563991E-18
5.530000E+03	3.544505E-17	2.549227E-18
5.540000E+03	3.512969E-17	2.534532E-18
5.550000E+03	3.481712E-17	2.520010E-18
5.560000E+03	3.450924E-17	2.505737E-18
5.570000E+03	3.420752E-17	2.491763E-18
5.580000E+03	3.391408E-17	2.478188E-18
5.590000E+03	3.363054E-17	2.465086E-18
5.600000E+03	3.335843E-17	2.452530E-18
5.610000E+03	3.309950E-17	2.440616E-18
5.620000E+03	3.285500E-17	2.429414E-18
5.630000E+03	3.262607E-17	2.418991E-18
5.640000E+03	3.241403E-17	2.409434E-18
5.650000E+03	3.221971E-17	2.400804E-18
5.660000E+03	3.204414E-17	2.393182E-18
5.670000E+03	3.188791E-17	2.386621E-18
5.680000E+03	3.175143E-17	2.381167E-18
5.690000E+03	3.163536E-17	2.376889E-18
5.700000E+03	3.153992E-17	2.373826E-18
5.710000E+03	3.146521E-17	2.372011E-18
5.720000E+03	3.141160E-17	2.371500E-18
5.730000E+03	3.137906E-17	2.372316E-18
5.740000E+03	3.136782E-17	2.374507E-18
5.750000E+03	3.137741E-17	2.378063E-18
5.760000E+03	3.140834E-17	2.383049E-18
5.770000E+03	3.146010E-17	2.389446E-18
5.780000E+03	3.153249E-17	2.397262E-18
5.790000E+03	3.162600E-17	2.406546E-18
5.800000E+03	3.173977E-17	2.417247E-18
5.810000E+03	3.187431E-17	2.429407E-18
5.820000E+03	3.202946E-17	2.443017E-18
5.830000E+03	3.220509E-17	2.458063E-18
5.840000E+03	3.240072E-17	2.474499E-18
5.850000E+03	3.261692E-17	2.492358E-18
5.860000E+03	3.285325E-17	2.511586E-18
5.870000E+03	3.310996E-17	2.532181E-18
5.880000E+03	3.338696E-17	2.554110E-18
5.890000E+03	3.368378E-17	2.577311E-18
5.900000E+03	3.400068E-17	2.601771E-18
5.910000E+03	3.433792E-17	2.627479E-18
5.920000E+03	3.469460E-17	2.654334E-18
5.930000E+03	3.507093E-17	2.682321E-18
5.940000E+03	3.546672E-17	2.711394E-18
5.950000E+03	3.588214E-17	2.741538E-18
5.960000E+03	3.631612E-17	2.772648E-18
5.970000E+03	3.676917E-17	2.804742E-18
5.980000E+03	3.724011E-17	2.837714E-18
5.990000E+03	3.772893E-17	2.871556E-18
6.000000E+03	3.823519E-17	2.906232E-18
6.010000E+03	3.875792E-17	2.941675E-18
6.020000E+03	3.929700E-17	2.977890E-18
6.030000E+03	3.985087E-17	3.014781E-18
6.040000E+03	4.041974E-17	3.052398E-18
6.050000E+03	4.100144E-17	3.090617E-18
6.060000E+03	4.159607E-17	3.129497E-18
6.070000E+03	4.220177E-17	3.168957E-18
6.080000E+03	4.281805E-17	3.209030E-18
6.090000E+03	4.344288E-17	3.249640E-18
6.100000E+03	4.407516E-17	3.290787E-18
6.110000E+03	4.471319E-17	3.332434E-18
6.120000E+03	4.535578E-17	3.374586E-18
6.130000E+03	4.600057E-17	3.417162E-18
6.140000E+03	4.664570E-17	3.460119E-18
6.150000E+03	4.728980E-17	3.503449E-18
6.160000E+03	4.793095E-17	3.547097E-18
6.170000E+03	4.856600E-17	3.590910E-18
6.180000E+03	4.919351E-17	3.634849E-18
6.190000E+03	4.981147E-17	3.678822E-18
6.200000E+03	5.041848E-17	3.722762E-18
6.210000E+03	5.101383E-17	3.766632E-18
6.220000E+03	5.159690E-17	3.810386E-18
6.230000E+03	5.216785E-17	3.854015E-18
6.240000E+03	5.272836E-17	3.897612E-18
6.250000E+03	5.327831E-17	3.941120E-18
6.260000E+03	5.381697E-17	3.984429E-18
6.270000E+03	5.434655E-17	4.027638E-18
6.280000E+03	5.486734E-17	4.070696E-18
6.290000E+03	5.537829E-17	4.113450E-18
6.300000E+03	5.588207E-17	4.156020E-18
6.310000E+03	5.637706E-17	4.198208E-18
6.320000E+03	5.686546E-17	4.240101E-18
6.330000E+03	5.734652E-17	4.281570E-18
6.340000E+03	5.782107E-17	4.322609E-18
6.350000E+03	5.828925E-17	4.363162E-18
6.360000E+03	5.875119E-17	4.403182E-18
6.370000E+03	5.920710E-17	4.442631E-18
6.380000E+03	5.965635E-17	4.481414E-18
6.390000E+03	6.009828E-17	4.519444E-18
6.400000E+03	6.053394E-17	4.556765E-18
6.410000E+03	6.096182E-17	4.593237E-18
6.420000E+03	6.138300E-17	4.628919E-18
6.430000E+03	6.179679E-17	4.663743E-18
6.440000E+03	6.220340E-17	4.697716E-18
6.450000E+03	6.260397E-17	4.730915E-18
6.460000E+03	6.300061E-17	4.763500E-18
6.470000E+03	6.339364E-17	4.795496E-18
6.480000E+03	6.378435E-17	4.827004E-18
6.490000E+03	6.417409E-17	4.858131E-18
6.500000E+03	6.456227E-17	4.888842E-18
6.510000E+03	6.495123E-17	4.919323E-18
6.520000E+03	6.534142E-17	4.949616E-18
6.530000E+03	6.573224E-17	4.979683E-18
6.540000E+03	6.612612E-17	5.009720E-18
6.550000E+03	6.652246E-17	5.039689E-18
6.560000E+03	6.692060E-17	5.069547E-18
6.570000E+03	6.732301E-17	5.099489E-18
6.580000E+03	6.772901E-17	5.129469E-18
6.590000E+03	6.813894E-17	5.159518E-18
6.600000E+03	6.855423E-17	5.189749E-18
6.610000E+03	6.897296E-17	5.220020E-18
6.620000E+03	6.939537E-17	5.250353E-18
6.630000E+03	6.982398E-17	5.280939E-18
6.640000E+03	7.025670E-17	5.311624E-18
6.650000E+03	7.069370E-17	5.342420E-18
6.660000E+03	7.113629E-17	5.373428E-18
6.670000E+03	7.158340E-17	5.404566E-18
6.680000E+03	7.203510E-17	5.435839E-18
6.690000E+03	7.249266E-17	5.467342E-18
6.700000E+03	7.295362E-17	5.498887E-18
6.710000E+03	7.341793E-17	5.530467E-18
6.720000E+03	7.388804E-17	5.562263E-18
6.730000E+03	7.436133E-17	5.594073E-18
6.740000E+03	7.483766E-17	5.625879E-18
6.750000E+03	7.531817E-17	5.657760E-18
6.760000E+03	7.580137E-17	5.689592E-18
6.770000E+03	7.628704E-17	5.721347E-18
6.780000E+03	7.677495E-17	5.752993E-18
6.790000E+03	7.726482E-17	5.784494E-18
6.800000E+03	7.775498E-17	5.815709E-18
6.810000E+03	7.824652E-17	5.846696E-18
6.820000E+03	7.873913E-17	5.877414E-18
6.830000E+03	7.923104E-17	5.907710E-18
6.840000E+03	7.972336E-17	5.937643E-18
6.850000E+03	8.021427E-17	5.967057E-18
6.860000E+03	8.070341E-17	5.995904E-18
6.870000E+03	8.119039E-17	6.024137E-18
6.880000E+03	8.167332E-17	6.051599E-18
6.890000E+03	8.215485E-17	6.078472E-18
6.900000E+03	8.263310E-17	6.104607E-18
6.910000E+03	8.310616E-17	6.129855E-18
6.920000E+03	8.357520E-17	6.154301E-18
6.930000E+03	8.403829E-17	6.177804E-18
6.940000E+03	8.449507E-17	6.200342E-18
6.950000E+03	8.494681E-17	6.222020E-18
6.960000E+03	8.539158E-17	6.242708E-18
6.970000E+03	8.582907E-17	6.262401E-18
6.980000E+03	8.625899E-17	6.281098E-18
6.990000E+03	8.668110E-17	6.298802E-18
7.000000E+03	8.709346E-17	6.315398E-18
7.010000E+03	8.749927E-17	6.331140E-18
7.020000E+03	8.789496E-17	6.345796E-18
7.030000E+03	8.828038E-17	6.359378E-18
7.040000E+03	8.865716E-17	6.372028E-18
7.050000E+03	8.902351E-17	6.383636E-18
7.060000E+03	8.937942E-17	6.394220E-18
7.070000E+03	8.972490E-17	6.403796E-18
7.080000E+03	9.006004E-17	6.412379E-18
7.090000E+03	9.038678E-17	6.420113E-18
7.100000E+03	9.070168E-17	6.426753E-18
7.110000E+03	9.100494E-17	6.432310E-18
7.120000E+03	9.129864E-17	6.436921E-18
7.130000E+03	9.158311E-17	6.440593E-18
7.140000E+03	9.185684E-17	6.443200E-18
7.150000E+03	9.212208E-17	6.444875E-18
7.160000E+03	9.237547E-17	6.445355E-18
7.170000E+03	9.262122E-17	6.444903E-18
7.180000E+03	9.285789E-17	6.443386E-18
7.190000E+03	9.308594E-17	6.440801E-18
7.200000E+03	9.330389E-17	6.437016E-18
7.210000E+03	9.351606E-17	6.432296E-18
7.220000E+03	9.371901E-17	6.426379E-18
7.230000E+03	9.391510E-17	6.419404E-18
7.240000E+03	9.410276E-17	6.411248E-18
7.250000E+03	9.428428E-17	6.402062E-18
7.260000E+03	9.445799E-17	6.391735E-18
7.270000E+03	9.462414E-17	6.380299E-18
7.280000E+03	9.478493E-17	6.367927E-18
7.290000E+03	9.493850E-17	6.354537E-18
7.300000E+03	9.508699E-17	6.340327E-18
7.310000E+03	9.522641E-17	6.325103E-18
7.320000E+03	9.535880E-17	6.309093E-18
7.330000E+03	9.548621E-17	6.292542E-18
7.340000E+03	9.560452E-17	6.275307E-18
7.350000E+03	9.571574E-17	6.257672E-18
7.360000E+03	9.581776E-17	6.239674E-18
7.370000E+03	9.591265E-17	6.221642E-18
7.380000E+03	9.599831E-17	6.203657E-18
7.390000E+03	9.607479E-17	6.185963E-18
7.400000E+03	9.614215E-17	6.168823E-18
7.410000E+03	9.619843E-17	6.152385E-18
7.420000E+03	9.624378E-17	6.136952E-18
7.430000E+03	9.627843E-17	6.122833E-18
7.440000E+03	9.630269E-17	6.110344E-18
7.450000E+03	9.631906E-17	6.099932E-18
7.460000E+03	9.632580E-17	6.091754E-18
7.470000E+03	9.632768E-17	6.086353E-18
7.480000E+03	9.632522E-17	6.083957E-18
7.490000E+03	9.631891E-17	6.084743E-18
7.500000E+03	9.630926E-17	6.088825E-18
7.510000E+03	9.629671E-17	6.096241E-18
7.520000E+03	9.628591E-17	6.107197E-18
7.530000E+03	9.627246E-17	6.121224E-18
7.540000E+03	9.625851E-17	6.138192E-18
7.550000E+03	9.624395E-17	6.157773E-18
7.560000E+03	9.623087E-17	6.179737E-18
7.570000E+03	9.621467E-17	6.203394E-18
7.580000E+03	9.619743E-17	6.228470E-18
7.590000E+03	9.617900E-17	6.254549E-18
7.600000E+03	9.616153E-17	6.281382E-18
7.610000E+03	9.614038E-17	6.308303E-18
7.620000E+03	9.611999E-17	6.335281E-18
7.630000E+03	9.609803E-17	6.361884E-18
7.640000E+03	9.607215E-17	6.387729E-18
7.650000E+03	9.604689E-17	6.412940E-18
7.660000E+03	9.601992E-17	6.437241E-18
7.670000E+03	9.599123E-17	6.460558E-18
7.680000E+03	9.596079E-17	6.482859E-18
7.690000E+03	9.592857E-17	6.504157E-18
7.700000E+03	9.589455E-17	6.524494E-18
7.710000E+03	9.586100E-17	6.544100E-18
7.720000E+03	9.582319E-17	6.562743E-18
7.730000E+03	9.578570E-17	6.580843E-18
7.740000E+03	9.574607E-17	6.598344E-18
7.750000E+03	9.570416E-17	6.615351E-18
7.760000E+03	9.565979E-17	6.631962E-18
