#wls	flux	fluxerr
1.600000E+03	1.604988E-16	1.555635E-16
1.640000E+03	1.653157E-16	1.575707E-16
1.680000E+03	1.698550E-16	1.591039E-16
1.720000E+03	1.740849E-16	1.601431E-16
1.760000E+03	1.779026E-16	1.606069E-16
1.800000E+03	1.813030E-16	1.605084E-16
1.840000E+03	1.841786E-16	1.597731E-16
1.880000E+03	1.865035E-16	1.584050E-16
1.920000E+03	1.882185E-16	1.563833E-16
1.960000E+03	1.892364E-16	1.536704E-16
2.000000E+03	1.895356E-16	1.502887E-16
2.040000E+03	1.890551E-16	1.462334E-16
2.080000E+03	1.877446E-16	1.415142E-16
2.120000E+03	1.855676E-16	1.361564E-16
2.160000E+03	1.824799E-16	1.301848E-16
2.200000E+03	1.784179E-16	1.236155E-16
2.240000E+03	1.733248E-16	1.164764E-16
2.280000E+03	1.672197E-16	1.088511E-16
2.320000E+03	1.602275E-16	1.008894E-16
2.360000E+03	1.525698E-16	9.279040E-17
2.400000E+03	1.444217E-16	8.470761E-17
2.440000E+03	1.359413E-16	7.676982E-17
2.480000E+03	1.272405E-16	6.906695E-17
2.520000E+03	1.184373E-16	6.168178E-17
2.560000E+03	1.096260E-16	5.467424E-17
2.600000E+03	1.009049E-16	4.809704E-17
2.640000E+03	9.235268E-17	4.198427E-17
2.680000E+03	8.404342E-17	3.636007E-17
2.720000E+03	7.604488E-17	3.123834E-17
2.760000E+03	6.841014E-17	2.662026E-17
2.800000E+03	6.118673E-17	2.249934E-17
2.840000E+03	5.441285E-17	1.886083E-17
2.880000E+03	4.812083E-17	1.568413E-17
2.920000E+03	4.233592E-17	1.294320E-17
2.960000E+03	3.707256E-17	1.060661E-17
3.000000E+03	3.233453E-17	8.638964E-18
3.010000E+03	3.123128E-17	8.200219E-18
3.020000E+03	3.015949E-17	7.781354E-18
3.030000E+03	2.912003E-17	7.382046E-18
3.040000E+03	2.811101E-17	7.001277E-18
3.050000E+03	2.713317E-17	6.638706E-18
3.060000E+03	2.618588E-17	6.293652E-18
3.070000E+03	2.526903E-17	5.965580E-18
3.080000E+03	2.438094E-17	5.653584E-18
3.090000E+03	2.352250E-17	5.357388E-18
3.100000E+03	2.269206E-17	5.076129E-18
3.110000E+03	2.188989E-17	4.809403E-18
3.120000E+03	2.111530E-17	4.556592E-18
3.130000E+03	2.036720E-17	4.317014E-18
3.140000E+03	1.964572E-17	4.090263E-18
3.150000E+03	1.894979E-17	3.875689E-18
3.160000E+03	1.827910E-17	3.672818E-18
3.170000E+03	1.763298E-17	3.481113E-18
3.180000E+03	1.701075E-17	3.300054E-18
3.190000E+03	1.641207E-17	3.129199E-18
3.200000E+03	1.583624E-17	2.968056E-18
3.210000E+03	1.528237E-17	2.816104E-18
3.220000E+03	1.475038E-17	2.672990E-18
3.230000E+03	1.423940E-17	2.538227E-18
3.240000E+03	1.374910E-17	2.411438E-18
3.250000E+03	1.327888E-17	2.292211E-18
3.260000E+03	1.282798E-17	2.180117E-18
3.270000E+03	1.239623E-17	2.074849E-18
3.280000E+03	1.198267E-17	1.975970E-18
3.290000E+03	1.158711E-17	1.883193E-18
3.300000E+03	1.120894E-17	1.796170E-18
3.310000E+03	1.084726E-17	1.714519E-18
3.320000E+03	1.050183E-17	1.637979E-18
3.330000E+03	1.017208E-17	1.566248E-18
3.340000E+03	9.857305E-18	1.499014E-18
3.350000E+03	9.556959E-18	1.436006E-18
3.360000E+03	9.270520E-18	1.376966E-18
3.370000E+03	8.997474E-18	1.321650E-18
3.380000E+03	8.737317E-18	1.269827E-18
3.390000E+03	8.489557E-18	1.221278E-18
3.400000E+03	8.253607E-18	1.175781E-18
3.410000E+03	8.028913E-18	1.133131E-18
3.420000E+03	7.815242E-18	1.093178E-18
3.430000E+03	7.611869E-18	1.055710E-18
3.440000E+03	7.418491E-18	1.020586E-18
3.450000E+03	7.234629E-18	9.876468E-19
3.460000E+03	7.059912E-18	9.567572E-19
3.470000E+03	6.893819E-18	9.277686E-19
3.480000E+03	6.735946E-18	9.005548E-19
3.490000E+03	6.585985E-18	8.750089E-19
3.500000E+03	6.443494E-18	8.510118E-19
3.510000E+03	6.308201E-18	8.284727E-19
3.520000E+03	6.179576E-18	8.072710E-19
3.530000E+03	6.057394E-18	7.873317E-19
3.540000E+03	5.941249E-18	7.685598E-19
3.550000E+03	5.830826E-18	7.508765E-19
3.560000E+03	5.725831E-18	7.342090E-19
3.570000E+03	5.625874E-18	7.184756E-19
3.580000E+03	5.530818E-18	7.036300E-19
3.590000E+03	5.440367E-18	6.896077E-19
3.600000E+03	5.354242E-18	6.763493E-19
3.610000E+03	5.272340E-18	6.638192E-19
3.620000E+03	5.194358E-18	6.519586E-19
3.630000E+03	5.120109E-18	6.407252E-19
3.640000E+03	5.049422E-18	6.300796E-19
3.650000E+03	4.982131E-18	6.199849E-19
3.660000E+03	4.918079E-18	6.104063E-19
3.670000E+03	4.857121E-18	6.013113E-19
3.680000E+03	4.799159E-18	5.926749E-19
3.690000E+03	4.744098E-18	5.844732E-19
3.700000E+03	4.691806E-18	5.766784E-19
3.710000E+03	4.642318E-18	5.692846E-19
3.720000E+03	4.595461E-18	5.622609E-19
3.730000E+03	4.551229E-18	5.555977E-19
3.740000E+03	4.509532E-18	5.492760E-19
3.750000E+03	4.470321E-18	5.432823E-19
3.760000E+03	4.433620E-18	5.376128E-19
3.770000E+03	4.399263E-18	5.322414E-19
3.780000E+03	4.367270E-18	5.271654E-19
3.790000E+03	4.337625E-18	5.223775E-19
3.800000E+03	4.310199E-18	5.178585E-19
3.810000E+03	4.285009E-18	5.136065E-19
3.820000E+03	4.262035E-18	5.096160E-19
3.830000E+03	4.241186E-18	5.058735E-19
3.840000E+03	4.222407E-18	5.023701E-19
3.850000E+03	4.205745E-18	4.991098E-19
3.860000E+03	4.191078E-18	4.960762E-19
3.870000E+03	4.178417E-18	4.932696E-19
3.880000E+03	4.167710E-18	4.906828E-19
3.890000E+03	4.158936E-18	4.883126E-19
3.900000E+03	4.152074E-18	4.861559E-19
3.910000E+03	4.147040E-18	4.842023E-19
3.920000E+03	4.143814E-18	4.824494E-19
3.930000E+03	4.142411E-18	4.808985E-19
3.940000E+03	4.142780E-18	4.795436E-19
3.950000E+03	4.144872E-18	4.783785E-19
3.960000E+03	4.148669E-18	4.774013E-19
3.970000E+03	4.154123E-18	4.766058E-19
3.980000E+03	4.161218E-18	4.759900E-19
3.990000E+03	4.169939E-18	4.755514E-19
4.000000E+03	4.180271E-18	4.752879E-19
4.010000E+03	4.192137E-18	4.751897E-19
4.020000E+03	4.205524E-18	4.752544E-19
4.030000E+03	4.220422E-18	4.754799E-19
4.040000E+03	4.236821E-18	4.758636E-19
4.050000E+03	4.254680E-18	4.763997E-19
4.060000E+03	4.273960E-18	4.770819E-19
4.070000E+03	4.294654E-18	4.779078E-19
4.080000E+03	4.316724E-18	4.788712E-19
4.090000E+03	4.340165E-18	4.799695E-19
4.100000E+03	4.364939E-18	4.811964E-19
4.110000E+03	4.391043E-18	4.825491E-19
4.120000E+03	4.418439E-18	4.840212E-19
4.130000E+03	4.447090E-18	4.856061E-19
4.140000E+03	4.476993E-18	4.873005E-19
4.150000E+03	4.508111E-18	4.890978E-19
4.160000E+03	4.540444E-18	4.909945E-19
4.170000E+03	4.573921E-18	4.929798E-19
4.180000E+03	4.608541E-18	4.950502E-19
4.190000E+03	4.644235E-18	4.971946E-19
4.200000E+03	4.681039E-18	4.994133E-19
4.210000E+03	4.718884E-18	5.016954E-19
4.220000E+03	4.757772E-18	5.040376E-19
4.230000E+03	4.797593E-18	5.064251E-19
4.240000E+03	4.838385E-18	5.088591E-19
4.250000E+03	4.880038E-18	5.113249E-19
4.260000E+03	4.922588E-18	5.138242E-19
4.270000E+03	4.965921E-18	5.163428E-19
4.280000E+03	5.009958E-18	5.188704E-19
4.290000E+03	5.054737E-18	5.214095E-19
4.300000E+03	5.100099E-18	5.239420E-19
4.310000E+03	5.146083E-18	5.264708E-19
4.320000E+03	5.192526E-18	5.289779E-19
4.330000E+03	5.239469E-18	5.314664E-19
4.340000E+03	5.286828E-18	5.339266E-19
4.350000E+03	5.334519E-18	5.363488E-19
4.360000E+03	5.382540E-18	5.387317E-19
4.370000E+03	5.430848E-18	5.410694E-19
4.380000E+03	5.479486E-18	5.433643E-19
4.390000E+03	5.528365E-18	5.456060E-19
4.400000E+03	5.577575E-18	5.478011E-19
4.410000E+03	5.627117E-18	5.499476E-19
4.420000E+03	5.676997E-18	5.520434E-19
4.430000E+03	5.727218E-18	5.540866E-19
4.440000E+03	5.777836E-18	5.560801E-19
4.450000E+03	5.828810E-18	5.580178E-19
4.460000E+03	5.880200E-18	5.599032E-19
4.470000E+03	5.932017E-18	5.617357E-19
4.480000E+03	5.984276E-18	5.635151E-19
4.490000E+03	6.036941E-18	5.652376E-19
4.500000E+03	6.090026E-18	5.669047E-19
4.510000E+03	6.143492E-18	5.685140E-19
4.520000E+03	6.197405E-18	5.700739E-19
4.530000E+03	6.251672E-18	5.715796E-19
4.540000E+03	6.306305E-18	5.730368E-19
4.550000E+03	6.361315E-18	5.744527E-19
4.560000E+03	6.416605E-18	5.758256E-19
4.570000E+03	6.472243E-18	5.771697E-19
4.580000E+03	6.528129E-18	5.784853E-19
4.590000E+03	6.584279E-18	5.797832E-19
4.600000E+03	6.640596E-18	5.810642E-19
4.610000E+03	6.697152E-18	5.823444E-19
4.620000E+03	6.753914E-18	5.836290E-19
4.630000E+03	6.810787E-18	5.849173E-19
4.640000E+03	6.867796E-18	5.862177E-19
4.650000E+03	6.924969E-18	5.875367E-19
4.660000E+03	6.982278E-18	5.888744E-19
4.670000E+03	7.039633E-18	5.902240E-19
4.680000E+03	7.097195E-18	5.915975E-19
4.690000E+03	7.155007E-18	5.929957E-19
4.700000E+03	7.212987E-18	5.944075E-19
4.710000E+03	7.271184E-18	5.958313E-19
4.720000E+03	7.329651E-18	5.972651E-19
4.730000E+03	7.388245E-18	5.986901E-19
4.740000E+03	7.447020E-18	6.001032E-19
4.750000E+03	7.505902E-18	6.014905E-19
4.760000E+03	7.564949E-18	6.028492E-19
4.770000E+03	7.624156E-18	6.041718E-19
4.780000E+03	7.683450E-18	6.054458E-19
4.790000E+03	7.742899E-18	6.066711E-19
4.800000E+03	7.802429E-18	6.078379E-19
4.810000E+03	7.862112E-18	6.089487E-19
4.820000E+03	7.921878E-18	6.099969E-19
4.830000E+03	7.981726E-18	6.109829E-19
4.840000E+03	8.041658E-18	6.119094E-19
4.850000E+03	8.101750E-18	6.127863E-19
4.860000E+03	8.161930E-18	6.136147E-19
4.870000E+03	8.222196E-18	6.144026E-19
4.880000E+03	8.282470E-18	6.151541E-19
4.890000E+03	8.342902E-18	6.158912E-19
4.900000E+03	8.403409E-18	6.166197E-19
4.910000E+03	8.463984E-18	6.173506E-19
4.920000E+03	8.524535E-18	6.180886E-19
4.930000E+03	8.585125E-18	6.188489E-19
4.940000E+03	8.645656E-18	6.196332E-19
4.950000E+03	8.706108E-18	6.204471E-19
4.960000E+03	8.766541E-18	6.213000E-19
4.970000E+03	8.826849E-18	6.221876E-19
4.980000E+03	8.887007E-18	6.231094E-19
4.990000E+03	8.946901E-18	6.240575E-19
5.000000E+03	9.006586E-18	6.250339E-19
5.010000E+03	9.066029E-18	6.260334E-19
5.020000E+03	9.125106E-18	6.270434E-19
5.030000E+03	9.183777E-18	6.280561E-19
5.040000E+03	9.241998E-18	6.290628E-19
5.050000E+03	9.299633E-18	6.300486E-19
5.060000E+03	9.356723E-18	6.310109E-19
5.070000E+03	9.413221E-18	6.319416E-19
5.080000E+03	9.468894E-18	6.328216E-19
5.090000E+03	9.523786E-18	6.336512E-19
5.100000E+03	9.577850E-18	6.344259E-19
5.110000E+03	9.630952E-18	6.351364E-19
5.120000E+03	9.683048E-18	6.357809E-19
5.130000E+03	9.734101E-18	6.363588E-19
5.140000E+03	9.784076E-18	6.368710E-19
5.150000E+03	9.832843E-18	6.373138E-19
5.160000E+03	9.880462E-18	6.376983E-19
5.170000E+03	9.926706E-18	6.380199E-19
5.180000E+03	9.971632E-18	6.382961E-19
5.190000E+03	1.001510E-17	6.385366E-19
5.200000E+03	1.005706E-17	6.387613E-19
5.210000E+03	1.009745E-17	6.389945E-19
5.220000E+03	1.013622E-17	6.392637E-19
5.230000E+03	1.017310E-17	6.395868E-19
5.240000E+03	1.020821E-17	6.400074E-19
5.250000E+03	1.024136E-17	6.405509E-19
5.260000E+03	1.027247E-17	6.412475E-19
5.270000E+03	1.030133E-17	6.421198E-19
5.280000E+03	1.032784E-17	6.431945E-19
5.290000E+03	1.035191E-17	6.444962E-19
5.300000E+03	1.037342E-17	6.460480E-19
5.310000E+03	1.039229E-17	6.478708E-19
5.320000E+03	1.040833E-17	6.499778E-19
5.330000E+03	1.042168E-17	6.523994E-19
5.340000E+03	1.043207E-17	6.551387E-19
5.350000E+03	1.043945E-17	6.582093E-19
5.360000E+03	1.044400E-17	6.616358E-19
5.370000E+03	1.044548E-17	6.654136E-19
5.380000E+03	1.044411E-17	6.695615E-19
5.390000E+03	1.043978E-17	6.740751E-19
5.400000E+03	1.043261E-17	6.789599E-19
5.410000E+03	1.042252E-17	6.842043E-19
5.420000E+03	1.040976E-17	6.898143E-19
5.430000E+03	1.039428E-17	6.957722E-19
5.440000E+03	1.037625E-17	7.020720E-19
5.450000E+03	1.035553E-17	7.086840E-19
5.460000E+03	1.033230E-17	7.155976E-19
5.470000E+03	1.030658E-17	7.227854E-19
5.480000E+03	1.027837E-17	7.302181E-19
5.490000E+03	1.024788E-17	7.378786E-19
5.500000E+03	1.021505E-17	7.457260E-19
5.510000E+03	1.017990E-17	7.537250E-19
5.520000E+03	1.014260E-17	7.618469E-19
5.530000E+03	1.010308E-17	7.700473E-19
5.540000E+03	1.006160E-17	7.783051E-19
5.550000E+03	1.001803E-17	7.865687E-19
5.560000E+03	9.972718E-18	7.948265E-19
5.570000E+03	9.925731E-18	8.030442E-19
5.580000E+03	9.877127E-18	8.111890E-19
5.590000E+03	9.827063E-18	8.192371E-19
5.600000E+03	9.775692E-18	8.271669E-19
5.610000E+03	9.723062E-18	8.349503E-19
5.620000E+03	9.669513E-18	8.425871E-19
5.630000E+03	9.614982E-18	8.500456E-19
5.640000E+03	9.559792E-18	8.573319E-19
5.650000E+03	9.503866E-18	8.644198E-19
5.660000E+03	9.447513E-18	8.713219E-19
5.670000E+03	9.390838E-18	8.780364E-19
5.680000E+03	9.333842E-18	8.845552E-19
5.690000E+03	9.276713E-18	8.908915E-19
5.700000E+03	9.219538E-18	8.970514E-19
5.710000E+03	9.162493E-18	9.030529E-19
5.720000E+03	9.105650E-18	9.089059E-19
5.730000E+03	9.048986E-18	9.146116E-19
5.740000E+03	8.992757E-18	9.202002E-19
5.750000E+03	8.937024E-18	9.256826E-19
5.760000E+03	8.881755E-18	9.310588E-19
5.770000E+03	8.827102E-18	9.363475E-19
5.780000E+03	8.773215E-18	9.415657E-19
5.790000E+03	8.720150E-18	9.467194E-19
5.800000E+03	8.667869E-18	9.518024E-19
5.810000E+03	8.616520E-18	9.568272E-19
5.820000E+03	8.566253E-18	9.618051E-19
5.830000E+03	8.517122E-18	9.667360E-19
5.840000E+03	8.469093E-18	9.716083E-19
5.850000E+03	8.422317E-18	9.764303E-19
5.860000E+03	8.376852E-18	9.811991E-19
5.870000E+03	8.332851E-18	9.859225E-19
5.880000E+03	8.290374E-18	9.905971E-19
5.890000E+03	8.249390E-18	9.952085E-19
5.900000E+03	8.210051E-18	9.997641E-19
5.910000E+03	8.172322E-18	1.004250E-18
5.920000E+03	8.136527E-18	1.008696E-18
5.930000E+03	8.102441E-18	1.013067E-18
5.940000E+03	8.070197E-18	1.017373E-18
5.950000E+03	8.039922E-18	1.021624E-18
5.960000E+03	8.011554E-18	1.025809E-18
5.970000E+03	7.985118E-18	1.029926E-18
5.980000E+03	7.960724E-18	1.033988E-18
5.990000E+03	7.938295E-18	1.037986E-18
6.000000E+03	7.917932E-18	1.041931E-18
6.010000E+03	7.899457E-18	1.045801E-18
6.020000E+03	7.883054E-18	1.049623E-18
6.030000E+03	7.868538E-18	1.053373E-18
6.040000E+03	7.856085E-18	1.057080E-18
6.050000E+03	7.845411E-18	1.060706E-18
6.060000E+03	7.836687E-18	1.064280E-18
6.070000E+03	7.829806E-18	1.067790E-18
6.080000E+03	7.824750E-18	1.071239E-18
6.090000E+03	7.821312E-18	1.074603E-18
6.100000E+03	7.819654E-18	1.077908E-18
6.110000E+03	7.819471E-18	1.081118E-18
6.120000E+03	7.820922E-18	1.084258E-18
6.130000E+03	7.823692E-18	1.087291E-18
6.140000E+03	7.827747E-18	1.090216E-18
6.150000E+03	7.832953E-18	1.093019E-18
6.160000E+03	7.839272E-18	1.095701E-18
6.170000E+03	7.846368E-18	1.098218E-18
6.180000E+03	7.854193E-18	1.100570E-18
6.190000E+03	7.862598E-18	1.102740E-18
6.200000E+03	7.871528E-18	1.104725E-18
6.210000E+03	7.880929E-18	1.106523E-18
6.220000E+03	7.890945E-18	1.108159E-18
6.230000E+03	7.901827E-18	1.109674E-18
6.240000E+03	7.913631E-18	1.111080E-18
6.250000E+03	7.926516E-18	1.112405E-18
6.260000E+03	7.940651E-18	1.113677E-18
6.270000E+03	7.956103E-18	1.114911E-18
6.280000E+03	7.973053E-18	1.116137E-18
6.290000E+03	7.991581E-18	1.117370E-18
6.300000E+03	8.011772E-18	1.118625E-18
6.310000E+03	8.033826E-18	1.119935E-18
6.320000E+03	8.057732E-18	1.121302E-18
6.330000E+03	8.083702E-18	1.122757E-18
6.340000E+03	8.111622E-18	1.124289E-18
6.350000E+03	8.141603E-18	1.125914E-18
6.360000E+03	8.173646E-18	1.127636E-18
6.370000E+03	8.207873E-18	1.129473E-18
6.380000E+03	8.244174E-18	1.131411E-18
6.390000E+03	8.282558E-18	1.133454E-18
6.400000E+03	8.322915E-18	1.135587E-18
6.410000E+03	8.365009E-18	1.137780E-18
6.420000E+03	8.408719E-18	1.140017E-18
6.430000E+03	8.454041E-18	1.142301E-18
6.440000E+03	8.500975E-18	1.144631E-18
6.450000E+03	8.549521E-18	1.147009E-18
6.460000E+03	8.599807E-18	1.149454E-18
6.470000E+03	8.651970E-18	1.151983E-18
6.480000E+03	8.706022E-18	1.154600E-18
6.490000E+03	8.761842E-18	1.157289E-18
6.500000E+03	8.819709E-18	1.160086E-18
6.510000E+03	8.879644E-18	1.162994E-18
6.520000E+03	8.941530E-18	1.165996E-18
6.530000E+03	9.005523E-18	1.169115E-18
6.540000E+03	9.071647E-18	1.172350E-18
6.550000E+03	9.139782E-18	1.175687E-18
6.560000E+03	9.209949E-18	1.179126E-18
6.570000E+03	9.282464E-18	1.182708E-18
6.580000E+03	9.356910E-18	1.186377E-18
6.590000E+03	9.433608E-18	1.190174E-18
6.600000E+03	9.512587E-18	1.194099E-18
6.610000E+03	9.593564E-18	1.198117E-18
6.620000E+03	9.676875E-18	1.202267E-18
6.630000E+03	9.762228E-18	1.206511E-18
6.640000E+03	9.849968E-18	1.210891E-18
6.650000E+03	9.939798E-18	1.215366E-18
6.660000E+03	1.003190E-17	1.219959E-18
6.670000E+03	1.012631E-17	1.224669E-18
6.680000E+03	1.022287E-17	1.229477E-18
6.690000E+03	1.032161E-17	1.234384E-18
6.700000E+03	1.042273E-17	1.239410E-18
6.710000E+03	1.052607E-17	1.244534E-18
6.720000E+03	1.063165E-17	1.249758E-18
6.730000E+03	1.073951E-17	1.255080E-18
6.740000E+03	1.084966E-17	1.260501E-18
6.750000E+03	1.096213E-17	1.266020E-18
6.760000E+03	1.107694E-17	1.271639E-18
6.770000E+03	1.119392E-17	1.277333E-18
6.780000E+03	1.131330E-17	1.283124E-18
6.790000E+03	1.143509E-17	1.289013E-18
6.800000E+03	1.155912E-17	1.294975E-18
6.810000E+03	1.168562E-17	1.301032E-18
6.820000E+03	1.181440E-17	1.307160E-18
6.830000E+03	1.194548E-17	1.313357E-18
6.840000E+03	1.207888E-17	1.319622E-18
6.850000E+03	1.221461E-17	1.325953E-18
6.860000E+03	1.235293E-17	1.332372E-18
6.870000E+03	1.249340E-17	1.338829E-18
6.880000E+03	1.263627E-17	1.345346E-18
6.890000E+03	1.278155E-17	1.351921E-18
6.900000E+03	1.292903E-17	1.358528E-18
6.910000E+03	1.307896E-17	1.365189E-18
6.920000E+03	1.323136E-17	1.371903E-18
6.930000E+03	1.338599E-17	1.378642E-18
6.940000E+03	1.354287E-17	1.385403E-18
6.950000E+03	1.370226E-17	1.392212E-18
6.960000E+03	1.386391E-17	1.399038E-18
6.970000E+03	1.402783E-17	1.405881E-18
6.980000E+03	1.419403E-17	1.412738E-18
6.990000E+03	1.436250E-17	1.419606E-18
7.000000E+03	1.453296E-17	1.426455E-18
7.010000E+03	1.470599E-17	1.433338E-18
7.020000E+03	1.488100E-17	1.440198E-18
7.030000E+03	1.505828E-17	1.447059E-18
7.040000E+03	1.523753E-17	1.453891E-18
7.050000E+03	1.541874E-17	1.460689E-18
7.060000E+03	1.560220E-17	1.467482E-18
7.070000E+03	1.578759E-17	1.474235E-18
7.080000E+03	1.597457E-17	1.480917E-18
7.090000E+03	1.616377E-17	1.487581E-18
7.100000E+03	1.635484E-17	1.494196E-18
7.110000E+03	1.654743E-17	1.500727E-18
7.120000E+03	1.674185E-17	1.507199E-18
7.130000E+03	1.693772E-17	1.513577E-18
7.140000E+03	1.713535E-17	1.519887E-18
7.150000E+03	1.733437E-17	1.526094E-18
7.160000E+03	1.753509E-17	1.532224E-18
7.170000E+03	1.773676E-17	1.538208E-18
7.180000E+03	1.793968E-17	1.544075E-18
7.190000E+03	1.814419E-17	1.549850E-18
7.200000E+03	1.834949E-17	1.555468E-18
7.210000E+03	1.855552E-17	1.560922E-18
7.220000E+03	1.876261E-17	1.566244E-18
7.230000E+03	1.897071E-17	1.571431E-18
7.240000E+03	1.917936E-17	1.576450E-18
7.250000E+03	1.938890E-17	1.581334E-18
7.260000E+03	1.959885E-17	1.586051E-18
7.270000E+03	1.980913E-17	1.590603E-18
7.280000E+03	2.002009E-17	1.595031E-18
7.290000E+03	2.023122E-17	1.599305E-18
7.300000E+03	2.044286E-17	1.603469E-18
7.310000E+03	2.065448E-17	1.607499E-18
7.320000E+03	2.086598E-17	1.611406E-18
7.330000E+03	2.107817E-17	1.615277E-18
7.340000E+03	2.129004E-17	1.619058E-18
7.350000E+03	2.150244E-17	1.622843E-18
7.360000E+03	2.171481E-17	1.626620E-18
7.370000E+03	2.192756E-17	1.630453E-18
7.380000E+03	2.214114E-17	1.634409E-18
7.390000E+03	2.235500E-17	1.638488E-18
7.400000E+03	2.257013E-17	1.642802E-18
7.410000E+03	2.278652E-17	1.647394E-18
7.420000E+03	2.300472E-17	1.652347E-18
7.430000E+03	2.322476E-17	1.657710E-18
7.440000E+03	2.344669E-17	1.663532E-18
7.450000E+03	2.367110E-17	1.669904E-18
7.460000E+03	2.389697E-17	1.676799E-18
7.470000E+03	2.412434E-17	1.684264E-18
7.480000E+03	2.435268E-17	1.692302E-18
7.490000E+03	2.458261E-17	1.700985E-18
7.500000E+03	2.481360E-17	1.710297E-18
7.510000E+03	2.504511E-17	1.720203E-18
7.520000E+03	2.527716E-17	1.730687E-18
7.530000E+03	2.550979E-17	1.741712E-18
7.540000E+03	2.574242E-17	1.753182E-18
7.550000E+03	2.597570E-17	1.765065E-18
7.560000E+03	2.620842E-17	1.777196E-18
7.570000E+03	2.644188E-17	1.789570E-18
7.580000E+03	2.667548E-17	1.802051E-18
7.590000E+03	2.690927E-17	1.814547E-18
7.600000E+03	2.714260E-17	1.826924E-18
7.610000E+03	2.737612E-17	1.839144E-18
7.620000E+03	2.760981E-17	1.851136E-18
7.630000E+03	2.784364E-17	1.862838E-18
7.640000E+03	2.807685E-17	1.874156E-18
7.650000E+03	2.830999E-17	1.885102E-18
7.660000E+03	2.854225E-17	1.895607E-18
7.670000E+03	2.877487E-17	1.905755E-18
7.680000E+03	2.900550E-17	1.915400E-18
7.690000E+03	2.923610E-17	1.924694E-18
7.700000E+03	2.946572E-17	1.933599E-18
7.710000E+03	2.969336E-17	1.942080E-18
7.720000E+03	2.991948E-17	1.950204E-18
7.730000E+03	3.014380E-17	1.957988E-18
7.740000E+03	3.036602E-17	1.965448E-18
7.750000E+03	3.058583E-17	1.972601E-18
7.760000E+03	3.080369E-17	1.979514E-18
