#wls	flux	fluxerr
1.600000E+03	1.656070E-16	1.632317E-16
1.640000E+03	1.710435E-16	1.658195E-16
1.680000E+03	1.762524E-16	1.679466E-16
1.720000E+03	1.811852E-16	1.695723E-16
1.760000E+03	1.857699E-16	1.706388E-16
1.800000E+03	1.899477E-16	1.711060E-16
1.840000E+03	1.936383E-16	1.709195E-16
1.880000E+03	1.967933E-16	1.700601E-16
1.920000E+03	1.993441E-16	1.684966E-16
1.960000E+03	2.012056E-16	1.661903E-16
2.000000E+03	2.023273E-16	1.631393E-16
2.040000E+03	2.026301E-16	1.593250E-16
2.080000E+03	2.020435E-16	1.547437E-16
2.120000E+03	2.005365E-16	1.494290E-16
2.160000E+03	1.980219E-16	1.433790E-16
2.200000E+03	1.944393E-16	1.366199E-16
2.240000E+03	1.897240E-16	1.291829E-16
2.280000E+03	1.837794E-16	1.210857E-16
2.320000E+03	1.768004E-16	1.125428E-16
2.360000E+03	1.689896E-16	1.037574E-16
2.400000E+03	1.605067E-16	9.489081E-17
2.440000E+03	1.514872E-16	8.607631E-17
2.480000E+03	1.420628E-16	7.743326E-17
2.520000E+03	1.323557E-16	6.906340E-17
2.560000E+03	1.224760E-16	6.105054E-17
2.600000E+03	1.125405E-16	5.347053E-17
2.640000E+03	1.026604E-16	4.638425E-17
2.680000E+03	9.294134E-17	3.983831E-17
2.720000E+03	8.348340E-17	3.386538E-17
2.760000E+03	7.438476E-17	2.848622E-17
2.800000E+03	6.572379E-17	2.370350E-17
2.840000E+03	5.757331E-17	1.950906E-17
2.880000E+03	5.000001E-17	1.588470E-17
2.920000E+03	4.305709E-17	1.280117E-17
2.960000E+03	3.678431E-17	1.022028E-17
3.000000E+03	3.119936E-17	8.094910E-18
3.010000E+03	2.991012E-17	7.628499E-18
3.020000E+03	2.866320E-17	7.186336E-18
3.030000E+03	2.745866E-17	6.767650E-18
3.040000E+03	2.629580E-17	6.371496E-18
3.050000E+03	2.517392E-17	5.996945E-18
3.060000E+03	2.409281E-17	5.643207E-18
3.070000E+03	2.305114E-17	5.309247E-18
3.080000E+03	2.204909E-17	4.994399E-18
3.090000E+03	2.108527E-17	4.697665E-18
3.100000E+03	2.015923E-17	4.418279E-18
3.110000E+03	1.927003E-17	4.155391E-18
3.120000E+03	1.841709E-17	3.908252E-18
3.130000E+03	1.759939E-17	3.676047E-18
3.140000E+03	1.681592E-17	3.457989E-18
3.150000E+03	1.606598E-17	3.253383E-18
3.160000E+03	1.534824E-17	3.061427E-18
3.170000E+03	1.466223E-17	2.881528E-18
3.180000E+03	1.400663E-17	2.712943E-18
3.190000E+03	1.338066E-17	2.555064E-18
3.200000E+03	1.278326E-17	2.407258E-18
3.210000E+03	1.221341E-17	2.268921E-18
3.220000E+03	1.167029E-17	2.139517E-18
3.230000E+03	1.115287E-17	2.018491E-18
3.240000E+03	1.065995E-17	1.905289E-18
3.250000E+03	1.019110E-17	1.799507E-18
3.260000E+03	9.744810E-18	1.700584E-18
3.270000E+03	9.320619E-18	1.608157E-18
3.280000E+03	8.917281E-18	1.521752E-18
3.290000E+03	8.534041E-18	1.440998E-18
3.300000E+03	8.170138E-18	1.365542E-18
3.310000E+03	7.824460E-18	1.294990E-18
3.320000E+03	7.496419E-18	1.229052E-18
3.330000E+03	7.185195E-18	1.167417E-18
3.340000E+03	6.889899E-18	1.109777E-18
3.350000E+03	6.609787E-18	1.055862E-18
3.360000E+03	6.344144E-18	1.005420E-18
3.370000E+03	6.092362E-18	9.582296E-19
3.380000E+03	5.853608E-18	9.140442E-19
3.390000E+03	5.627409E-18	8.726847E-19
3.400000E+03	5.413003E-18	8.339370E-19
3.410000E+03	5.209818E-18	7.976258E-19
3.420000E+03	5.017368E-18	7.635978E-19
3.430000E+03	4.834941E-18	7.316722E-19
3.440000E+03	4.662167E-18	7.017283E-19
3.450000E+03	4.498512E-18	6.736266E-19
3.460000E+03	4.343373E-18	6.472235E-19
3.470000E+03	4.196442E-18	6.224250E-19
3.480000E+03	4.057175E-18	5.991071E-19
3.490000E+03	3.925207E-18	5.771770E-19
3.500000E+03	3.800148E-18	5.565418E-19
3.510000E+03	3.681507E-18	5.370983E-19
3.520000E+03	3.568994E-18	5.187756E-19
3.530000E+03	3.462217E-18	5.014915E-19
3.540000E+03	3.360816E-18	4.851710E-19
3.550000E+03	3.264492E-18	4.697506E-19
3.560000E+03	3.172901E-18	4.551623E-19
3.570000E+03	3.085758E-18	4.413490E-19
3.580000E+03	3.002769E-18	4.282540E-19
3.590000E+03	2.923718E-18	4.158335E-19
3.600000E+03	2.848376E-18	4.040430E-19
3.610000E+03	2.776501E-18	3.928379E-19
3.620000E+03	2.707921E-18	3.821842E-19
3.630000E+03	2.642470E-18	3.720503E-19
3.640000E+03	2.579946E-18	3.623998E-19
3.650000E+03	2.520272E-18	3.532153E-19
3.660000E+03	2.463260E-18	3.444641E-19
3.670000E+03	2.408818E-18	3.361281E-19
3.680000E+03	2.356837E-18	3.281865E-19
3.690000E+03	2.307208E-18	3.206200E-19
3.700000E+03	2.259847E-18	3.134126E-19
3.710000E+03	2.214691E-18	3.065516E-19
3.720000E+03	2.171600E-18	3.000143E-19
3.730000E+03	2.130551E-18	2.937944E-19
3.740000E+03	2.091430E-18	2.878732E-19
3.750000E+03	2.054179E-18	2.822399E-19
3.760000E+03	2.018741E-18	2.768842E-19
3.770000E+03	1.985009E-18	2.717893E-19
3.780000E+03	1.952964E-18	2.669502E-19
3.790000E+03	1.922519E-18	2.623534E-19
3.800000E+03	1.893625E-18	2.579900E-19
3.810000E+03	1.866216E-18	2.538495E-19
3.820000E+03	1.840245E-18	2.499238E-19
3.830000E+03	1.815651E-18	2.462031E-19
3.840000E+03	1.792390E-18	2.426800E-19
3.850000E+03	1.770405E-18	2.393454E-19
3.860000E+03	1.749670E-18	2.361946E-19
3.870000E+03	1.730129E-18	2.332189E-19
3.880000E+03	1.711733E-18	2.304103E-19
3.890000E+03	1.694445E-18	2.277628E-19
3.900000E+03	1.678217E-18	2.252691E-19
3.910000E+03	1.663030E-18	2.229254E-19
3.920000E+03	1.648837E-18	2.207248E-19
3.930000E+03	1.635610E-18	2.186623E-19
3.940000E+03	1.623306E-18	2.167315E-19
3.950000E+03	1.611885E-18	2.149261E-19
3.960000E+03	1.601346E-18	2.132452E-19
3.970000E+03	1.591626E-18	2.116797E-19
3.980000E+03	1.582714E-18	2.102273E-19
3.990000E+03	1.574575E-18	2.088827E-19
4.000000E+03	1.567187E-18	2.076423E-19
4.010000E+03	1.560529E-18	2.065026E-19
4.020000E+03	1.554558E-18	2.054574E-19
4.030000E+03	1.549267E-18	2.045050E-19
4.040000E+03	1.544627E-18	2.036409E-19
4.050000E+03	1.540620E-18	2.028624E-19
4.060000E+03	1.537220E-18	2.021652E-19
4.070000E+03	1.534398E-18	2.015453E-19
4.080000E+03	1.532153E-18	2.010018E-19
4.090000E+03	1.530448E-18	2.005293E-19
4.100000E+03	1.529269E-18	2.001257E-19
4.110000E+03	1.528605E-18	1.997889E-19
4.120000E+03	1.528421E-18	1.995139E-19
4.130000E+03	1.528719E-18	1.993005E-19
4.140000E+03	1.529463E-18	1.991437E-19
4.150000E+03	1.530646E-18	1.990420E-19
4.160000E+03	1.532258E-18	1.989938E-19
4.170000E+03	1.534267E-18	1.989946E-19
4.180000E+03	1.536678E-18	1.990446E-19
4.190000E+03	1.539447E-18	1.991378E-19
4.200000E+03	1.542592E-18	1.992761E-19
4.210000E+03	1.546071E-18	1.994538E-19
4.220000E+03	1.549877E-18	1.996698E-19
4.230000E+03	1.553994E-18	1.999215E-19
4.240000E+03	1.558416E-18	2.002081E-19
4.250000E+03	1.563102E-18	2.005240E-19
4.260000E+03	1.568060E-18	2.008700E-19
4.270000E+03	1.573261E-18	2.012421E-19
4.280000E+03	1.578678E-18	2.016366E-19
4.290000E+03	1.584305E-18	2.020529E-19
4.300000E+03	1.590127E-18	2.024886E-19
4.310000E+03	1.596104E-18	2.029385E-19
4.320000E+03	1.602219E-18	2.034005E-19
4.330000E+03	1.608457E-18	2.038725E-19
4.340000E+03	1.614800E-18	2.043523E-19
4.350000E+03	1.621234E-18	2.048379E-19
4.360000E+03	1.627755E-18	2.053289E-19
4.370000E+03	1.634347E-18	2.058233E-19
4.380000E+03	1.640995E-18	2.063192E-19
4.390000E+03	1.647723E-18	2.068196E-19
4.400000E+03	1.654515E-18	2.073227E-19
4.410000E+03	1.661372E-18	2.078284E-19
4.420000E+03	1.668304E-18	2.083384E-19
4.430000E+03	1.675314E-18	2.088527E-19
4.440000E+03	1.682388E-18	2.093699E-19
4.450000E+03	1.689541E-18	2.098918E-19
4.460000E+03	1.696762E-18	2.104172E-19
4.470000E+03	1.704053E-18	2.109463E-19
4.480000E+03	1.711417E-18	2.114799E-19
4.490000E+03	1.718831E-18	2.120149E-19
4.500000E+03	1.726313E-18	2.125539E-19
4.510000E+03	1.733855E-18	2.130959E-19
4.520000E+03	1.741448E-18	2.136400E-19
4.530000E+03	1.749100E-18	2.141872E-19
4.540000E+03	1.756788E-18	2.147349E-19
4.550000E+03	1.764521E-18	2.152843E-19
4.560000E+03	1.772309E-18	2.158367E-19
4.570000E+03	1.780145E-18	2.163914E-19
4.580000E+03	1.788011E-18	2.169463E-19
4.590000E+03	1.795918E-18	2.175027E-19
4.600000E+03	1.803862E-18	2.180603E-19
4.610000E+03	1.811841E-18	2.186189E-19
4.620000E+03	1.819869E-18	2.191800E-19
4.630000E+03	1.827928E-18	2.197416E-19
4.640000E+03	1.836033E-18	2.203055E-19
4.650000E+03	1.844185E-18	2.208714E-19
4.660000E+03	1.852382E-18	2.214393E-19
4.670000E+03	1.860628E-18	2.220091E-19
4.680000E+03	1.868921E-18	2.225808E-19
4.690000E+03	1.877265E-18	2.231544E-19
4.700000E+03	1.885695E-18	2.237337E-19
4.710000E+03	1.894214E-18	2.243190E-19
4.720000E+03	1.902826E-18	2.249102E-19
4.730000E+03	1.911570E-18	2.255116E-19
4.740000E+03	1.920433E-18	2.261214E-19
4.750000E+03	1.929421E-18	2.267398E-19
4.760000E+03	1.938558E-18	2.273693E-19
4.770000E+03	1.947849E-18	2.280102E-19
4.780000E+03	1.957285E-18	2.286609E-19
4.790000E+03	1.966890E-18	2.293239E-19
4.800000E+03	1.976671E-18	2.300000E-19
4.810000E+03	1.986619E-18	2.306876E-19
4.820000E+03	1.996760E-18	2.313896E-19
4.830000E+03	2.007101E-18	2.321068E-19
4.840000E+03	2.017653E-18	2.328402E-19
4.850000E+03	2.028424E-18	2.335907E-19
4.860000E+03	2.039404E-18	2.343573E-19
4.870000E+03	2.050641E-18	2.351455E-19
4.880000E+03	2.062106E-18	2.359521E-19
4.890000E+03	2.073810E-18	2.367784E-19
4.900000E+03	2.085780E-18	2.376278E-19
4.910000E+03	2.098028E-18	2.385018E-19
4.920000E+03	2.110563E-18	2.394017E-19
4.930000E+03	2.123357E-18	2.403245E-19
4.940000E+03	2.136458E-18	2.412760E-19
4.950000E+03	2.149858E-18	2.422553E-19
4.960000E+03	2.163565E-18	2.432639E-19
4.970000E+03	2.177589E-18	2.443030E-19
4.980000E+03	2.191942E-18	2.453739E-19
4.990000E+03	2.206610E-18	2.464756E-19
5.000000E+03	2.221603E-18	2.476093E-19
5.010000E+03	2.236952E-18	2.487784E-19
5.020000E+03	2.252644E-18	2.499817E-19
5.030000E+03	2.268666E-18	2.512180E-19
5.040000E+03	2.285069E-18	2.524930E-19
5.050000E+03	2.301795E-18	2.538005E-19
5.060000E+03	2.318896E-18	2.551464E-19
5.070000E+03	2.336379E-18	2.565318E-19
5.080000E+03	2.354183E-18	2.579504E-19
5.090000E+03	2.372382E-18	2.594106E-19
5.100000E+03	2.390936E-18	2.609087E-19
5.110000E+03	2.409850E-18	2.624460E-19
5.120000E+03	2.429152E-18	2.640264E-19
5.130000E+03	2.448800E-18	2.656463E-19
5.140000E+03	2.468796E-18	2.673073E-19
5.150000E+03	2.489169E-18	2.690137E-19
5.160000E+03	2.509895E-18	2.707650E-19
5.170000E+03	2.530976E-18	2.725632E-19
5.180000E+03	2.552390E-18	2.744081E-19
5.190000E+03	2.574161E-18	2.763046E-19
5.200000E+03	2.596238E-18	2.782500E-19
5.210000E+03	2.618670E-18	2.802525E-19
5.220000E+03	2.641430E-18	2.823124E-19
5.230000E+03	2.664489E-18	2.844299E-19
5.240000E+03	2.687843E-18	2.866082E-19
5.250000E+03	2.711513E-18	2.888533E-19
5.260000E+03	2.735439E-18	2.911629E-19
5.270000E+03	2.759641E-18	2.935432E-19
5.280000E+03	2.784137E-18	2.960004E-19
5.290000E+03	2.808837E-18	2.985291E-19
5.300000E+03	2.833812E-18	3.011414E-19
5.310000E+03	2.858967E-18	3.038316E-19
5.320000E+03	2.884373E-18	3.066116E-19
5.330000E+03	2.909930E-18	3.094754E-19
5.340000E+03	2.935679E-18	3.124316E-19
5.350000E+03	2.961605E-18	3.154828E-19
5.360000E+03	2.987660E-18	3.186281E-19
5.370000E+03	3.013883E-18	3.218757E-19
5.380000E+03	3.040165E-18	3.252178E-19
5.390000E+03	3.066574E-18	3.286652E-19
5.400000E+03	3.093057E-18	3.322159E-19
5.410000E+03	3.119589E-18	3.358703E-19
5.420000E+03	3.146145E-18	3.396288E-19
5.430000E+03	3.172698E-18	3.434912E-19
5.440000E+03	3.199187E-18	3.474535E-19
5.450000E+03	3.225581E-18	3.515145E-19
5.460000E+03	3.251849E-18	3.556728E-19
5.470000E+03	3.277956E-18	3.599264E-19
5.480000E+03	3.303835E-18	3.642694E-19
5.490000E+03	3.329415E-18	3.686952E-19
5.500000E+03	3.354691E-18	3.732042E-19
5.510000E+03	3.379589E-18	3.777890E-19
5.520000E+03	3.404034E-18	3.824415E-19
5.530000E+03	3.427948E-18	3.871534E-19
5.540000E+03	3.451321E-18	3.919234E-19
5.550000E+03	3.474039E-18	3.967384E-19
5.560000E+03	3.496089E-18	4.015965E-19
5.570000E+03	3.517355E-18	4.064837E-19
5.580000E+03	3.537788E-18	4.113935E-19
5.590000E+03	3.557377E-18	4.163235E-19
5.600000E+03	3.576003E-18	4.212584E-19
5.610000E+03	3.593655E-18	4.261956E-19
5.620000E+03	3.610288E-18	4.311279E-19
5.630000E+03	3.625820E-18	4.360437E-19
5.640000E+03	3.640208E-18	4.409356E-19
5.650000E+03	3.653447E-18	4.458007E-19
5.660000E+03	3.665500E-18	4.506317E-19
5.670000E+03	3.676290E-18	4.554164E-19
5.680000E+03	3.685823E-18	4.601520E-19
5.690000E+03	3.694104E-18	4.648361E-19
5.700000E+03	3.701031E-18	4.694514E-19
5.710000E+03	3.706615E-18	4.739955E-19
5.720000E+03	3.710875E-18	4.784658E-19
5.730000E+03	3.713794E-18	4.828550E-19
5.740000E+03	3.715359E-18	4.871558E-19
5.750000E+03	3.715559E-18	4.913610E-19
5.760000E+03	3.714389E-18	4.954632E-19
5.770000E+03	3.711888E-18	4.994604E-19
5.780000E+03	3.708018E-18	5.033401E-19
5.790000E+03	3.702867E-18	5.071059E-19
5.800000E+03	3.696405E-18	5.107455E-19
5.810000E+03	3.688648E-18	5.142517E-19
5.820000E+03	3.679695E-18	5.176291E-19
5.830000E+03	3.669489E-18	5.208597E-19
5.840000E+03	3.658097E-18	5.239430E-19
5.850000E+03	3.645589E-18	5.268784E-19
5.860000E+03	3.631960E-18	5.296543E-19
5.870000E+03	3.617285E-18	5.322713E-19
5.880000E+03	3.601566E-18	5.347182E-19
5.890000E+03	3.584923E-18	5.370023E-19
5.900000E+03	3.567364E-18	5.391135E-19
5.910000E+03	3.548933E-18	5.410483E-19
5.920000E+03	3.529721E-18	5.428096E-19
5.930000E+03	3.509738E-18	5.443888E-19
5.940000E+03	3.489074E-18	5.457903E-19
5.950000E+03	3.467743E-18	5.470065E-19
5.960000E+03	3.445836E-18	5.480431E-19
5.970000E+03	3.423408E-18	5.489001E-19
5.980000E+03	3.400512E-18	5.495782E-19
5.990000E+03	3.377160E-18	5.500722E-19
6.000000E+03	3.353445E-18	5.503904E-19
6.010000E+03	3.329418E-18	5.505351E-19
6.020000E+03	3.305092E-18	5.505029E-19
6.030000E+03	3.280555E-18	5.503038E-19
6.040000E+03	3.255817E-18	5.499351E-19
6.050000E+03	3.230887E-18	5.493948E-19
6.060000E+03	3.205887E-18	5.487006E-19
6.070000E+03	3.180786E-18	5.478447E-19
6.080000E+03	3.155663E-18	5.468390E-19
6.090000E+03	3.130484E-18	5.456760E-19
6.100000E+03	3.105326E-18	5.443684E-19
6.110000E+03	3.080189E-18	5.429157E-19
6.120000E+03	3.055108E-18	5.413242E-19
6.130000E+03	3.030117E-18	5.396003E-19
6.140000E+03	3.005211E-18	5.377439E-19
6.150000E+03	2.980418E-18	5.357616E-19
6.160000E+03	2.955769E-18	5.336600E-19
6.170000E+03	2.931289E-18	5.314457E-19
6.180000E+03	2.907001E-18	5.291252E-19
6.190000E+03	2.882893E-18	5.266984E-19
6.200000E+03	2.859021E-18	5.241784E-19
6.210000E+03	2.835404E-18	5.215714E-19
6.220000E+03	2.812060E-18	5.188838E-19
6.230000E+03	2.789040E-18	5.161282E-19
6.240000E+03	2.766394E-18	5.133174E-19
6.250000E+03	2.744169E-18	5.104637E-19
6.260000E+03	2.722414E-18	5.075795E-19
6.270000E+03	2.701171E-18	5.046769E-19
6.280000E+03	2.680522E-18	5.017746E-19
6.290000E+03	2.660435E-18	4.988707E-19
6.300000E+03	2.641061E-18	4.959971E-19
6.310000E+03	2.622366E-18	4.931516E-19
6.320000E+03	2.604426E-18	4.903520E-19
6.330000E+03	2.587279E-18	4.876093E-19
6.340000E+03	2.570963E-18	4.849341E-19
6.350000E+03	2.555479E-18	4.823304E-19
6.360000E+03	2.540864E-18	4.798083E-19
6.370000E+03	2.527155E-18	4.773783E-19
6.380000E+03	2.514353E-18	4.750434E-19
6.390000E+03	2.502458E-18	4.728068E-19
6.400000E+03	2.491508E-18	4.706783E-19
6.410000E+03	2.481429E-18	4.686470E-19
6.420000E+03	2.472223E-18	4.667154E-19
6.430000E+03	2.463853E-18	4.648792E-19
6.440000E+03	2.456247E-18	4.631268E-19
6.450000E+03	2.449441E-18	4.614674E-19
6.460000E+03	2.443362E-18	4.598892E-19
6.470000E+03	2.438046E-18	4.584009E-19
6.480000E+03	2.433493E-18	4.570043E-19
6.490000E+03	2.429667E-18	4.556943E-19
6.500000E+03	2.426566E-18	4.544723E-19
6.510000E+03	2.424192E-18	4.533399E-19
6.520000E+03	2.422543E-18	4.522984E-19
6.530000E+03	2.421620E-18	4.513492E-19
6.540000E+03	2.421462E-18	4.505006E-19
6.550000E+03	2.422031E-18	4.497467E-19
6.560000E+03	2.423289E-18	4.490815E-19
6.570000E+03	2.425314E-18	4.485203E-19
6.580000E+03	2.428030E-18	4.480499E-19
6.590000E+03	2.431476E-18	4.476783E-19
6.600000E+03	2.435653E-18	4.474064E-19
6.610000E+03	2.440564E-18	4.472352E-19
6.620000E+03	2.446210E-18	4.471654E-19
6.630000E+03	2.452553E-18	4.471905E-19
6.640000E+03	2.459634E-18	4.473187E-19
6.650000E+03	2.467416E-18	4.475431E-19
6.660000E+03	2.475942E-18	4.478719E-19
6.670000E+03	2.485173E-18	4.482983E-19
6.680000E+03	2.495110E-18	4.488228E-19
6.690000E+03	2.505800E-18	4.494538E-19
6.700000E+03	2.517245E-18	4.501917E-19
6.710000E+03	2.529364E-18	4.510219E-19
6.720000E+03	2.542245E-18	4.519602E-19
6.730000E+03	2.555805E-18	4.529917E-19
6.740000E+03	2.570134E-18	4.541325E-19
6.750000E+03	2.585194E-18	4.553753E-19
6.760000E+03	2.600942E-18	4.567125E-19
6.770000E+03	2.617473E-18	4.581607E-19
6.780000E+03	2.634700E-18	4.597042E-19
6.790000E+03	2.652672E-18	4.613515E-19
6.800000E+03	2.671395E-18	4.631030E-19
6.810000E+03	2.690872E-18	4.649593E-19
6.820000E+03	2.711060E-18	4.669125E-19
6.830000E+03	2.732012E-18	4.689712E-19
6.840000E+03	2.753683E-18	4.711274E-19
6.850000E+03	2.776126E-18	4.733900E-19
6.860000E+03	2.799297E-18	4.757507E-19
6.870000E+03	2.823199E-18	4.782098E-19
6.880000E+03	2.847887E-18	4.807764E-19
6.890000E+03	2.873262E-18	4.834331E-19
6.900000E+03	2.899432E-18	4.861980E-19
6.910000E+03	2.926349E-18	4.890623E-19
6.920000E+03	2.954018E-18	4.920265E-19
6.930000E+03	2.982440E-18	4.950906E-19
6.940000E+03	3.011621E-18	4.982549E-19
6.950000E+03	3.041506E-18	5.015101E-19
6.960000E+03	3.072156E-18	5.048658E-19
6.970000E+03	3.103573E-18	5.083222E-19
6.980000E+03	3.135762E-18	5.118795E-19
6.990000E+03	3.168604E-18	5.155181E-19
7.000000E+03	3.202284E-18	5.192677E-19
7.010000E+03	3.236619E-18	5.230985E-19
7.020000E+03	3.271734E-18	5.270304E-19
7.030000E+03	3.307568E-18	5.310534E-19
7.040000E+03	3.344122E-18	5.351673E-19
7.050000E+03	3.381396E-18	5.393720E-19
7.060000E+03	3.419391E-18	5.436674E-19
7.070000E+03	3.458036E-18	5.480424E-19
7.080000E+03	3.497399E-18	5.525076E-19
7.090000E+03	3.537479E-18	5.570628E-19
7.100000E+03	3.578204E-18	5.616966E-19
7.110000E+03	3.619643E-18	5.664197E-19
7.120000E+03	3.661720E-18	5.712206E-19
7.130000E+03	3.704430E-18	5.760984E-19
7.140000E+03	3.747767E-18	5.810527E-19
7.150000E+03	3.791806E-18	5.860948E-19
7.160000E+03	3.836384E-18	5.912002E-19
7.170000E+03	3.881492E-18	5.963675E-19
7.180000E+03	3.927283E-18	6.016209E-19
7.190000E+03	3.973588E-18	6.069346E-19
7.200000E+03	4.020394E-18	6.123073E-19
7.210000E+03	4.067775E-18	6.177509E-19
7.220000E+03	4.115636E-18	6.232512E-19
7.230000E+03	4.163964E-18	6.288070E-19
7.240000E+03	4.212744E-18	6.344169E-19
7.250000E+03	4.261962E-18	6.400793E-19
7.260000E+03	4.311696E-18	6.458067E-19
7.270000E+03	4.361746E-18	6.515698E-19
7.280000E+03	4.412281E-18	6.573951E-19
7.290000E+03	4.463194E-18	6.632669E-19
7.300000E+03	4.514464E-18	6.691834E-19
7.310000E+03	4.566175E-18	6.751578E-19
7.320000E+03	4.618209E-18	6.811734E-19
7.330000E+03	4.670651E-18	6.872437E-19
7.340000E+03	4.723484E-18	6.933671E-19
7.350000E+03	4.776799E-18	6.995576E-19
7.360000E+03	4.830585E-18	7.058143E-19
7.370000E+03	4.884939E-18	7.121520E-19
7.380000E+03	4.939742E-18	7.185539E-19
7.390000E+03	4.995322E-18	7.250682E-19
7.400000E+03	5.051681E-18	7.316955E-19
7.410000E+03	5.108704E-18	7.384193E-19
7.420000E+03	5.166747E-18	7.452910E-19
7.430000E+03	5.225700E-18	7.522947E-19
7.440000E+03	5.285694E-18	7.594492E-19
7.450000E+03	5.346617E-18	7.667379E-19
7.460000E+03	5.408603E-18	7.741798E-19
7.470000E+03	5.471277E-18	7.817207E-19
7.480000E+03	5.534896E-18	7.893970E-19
7.490000E+03	5.599068E-18	7.971522E-19
7.500000E+03	5.663915E-18	8.050034E-19
7.510000E+03	5.729295E-18	8.129296E-19
7.520000E+03	5.795054E-18	8.209086E-19
7.530000E+03	5.861314E-18	8.289570E-19
7.540000E+03	5.927630E-18	8.370113E-19
7.550000E+03	5.994260E-18	8.451071E-19
7.560000E+03	6.061033E-18	8.532197E-19
7.570000E+03	6.127919E-18	8.613442E-19
7.580000E+03	6.194737E-18	8.694542E-19
7.590000E+03	6.261602E-18	8.775654E-19
7.600000E+03	6.328326E-18	8.856505E-19
7.610000E+03	6.394868E-18	8.937032E-19
7.620000E+03	6.461349E-18	9.017398E-19
7.630000E+03	6.527570E-18	9.097317E-19
7.640000E+03	6.593654E-18	9.176956E-19
7.650000E+03	6.659227E-18	9.255789E-19
7.660000E+03	6.724580E-18	9.334215E-19
7.670000E+03	6.789500E-18	9.411936E-19
7.680000E+03	6.854116E-18	9.489126E-19
7.690000E+03	6.918211E-18	9.565482E-19
7.700000E+03	6.981736E-18	9.640936E-19
7.710000E+03	7.044642E-18	9.715421E-19
7.720000E+03	7.107250E-18	9.789378E-19
7.730000E+03	7.168962E-18	9.861985E-19
7.740000E+03	7.230291E-18	9.933946E-19
7.750000E+03	7.290815E-18	1.000469E-18
7.760000E+03	7.350679E-18	1.007441E-18
