#wls	flux	fluxerr
1.600000E+03	1.636555E-16	1.598041E-16
1.640000E+03	1.710859E-16	1.642675E-16
1.680000E+03	1.785083E-16	1.684100E-16
1.720000E+03	1.858727E-16	1.721765E-16
1.760000E+03	1.931014E-16	1.754902E-16
1.800000E+03	2.001248E-16	1.782876E-16
1.840000E+03	2.068454E-16	1.804858E-16
1.880000E+03	2.131932E-16	1.820341E-16
1.920000E+03	2.190711E-16	1.828649E-16
1.960000E+03	2.243562E-16	1.828985E-16
2.000000E+03	2.289565E-16	1.820911E-16
2.040000E+03	2.327408E-16	1.803775E-16
2.080000E+03	2.355792E-16	1.777067E-16
2.120000E+03	2.373804E-16	1.740688E-16
2.160000E+03	2.379804E-16	1.694129E-16
2.200000E+03	2.372388E-16	1.637211E-16
2.240000E+03	2.350028E-16	1.569831E-16
2.280000E+03	2.310730E-16	1.491748E-16
2.320000E+03	2.256135E-16	1.405206E-16
2.360000E+03	2.188134E-16	1.312475E-16
2.400000E+03	2.108211E-16	1.215449E-16
2.440000E+03	2.017669E-16	1.115797E-16
2.480000E+03	1.917893E-16	1.015127E-16
2.520000E+03	1.810260E-16	9.149178E-17
2.560000E+03	1.696111E-16	8.165033E-17
2.600000E+03	1.577006E-16	7.211838E-17
2.640000E+03	1.454542E-16	6.301169E-17
2.680000E+03	1.330356E-16	5.443076E-17
2.720000E+03	1.206107E-16	4.645923E-17
2.760000E+03	1.083520E-16	3.916474E-17
2.800000E+03	9.641042E-17	3.258862E-17
2.840000E+03	8.493436E-17	2.675423E-17
2.880000E+03	7.406674E-17	2.166675E-17
2.920000E+03	6.393248E-17	1.731085E-17
2.960000E+03	5.463670E-17	1.365302E-17
3.000000E+03	4.625046E-17	1.064148E-17
3.010000E+03	4.430033E-17	9.981982E-18
3.020000E+03	4.240934E-17	9.357623E-18
3.030000E+03	4.057819E-17	8.767384E-18
3.040000E+03	3.880644E-17	8.209999E-18
3.050000E+03	3.709364E-17	7.684207E-18
3.060000E+03	3.544002E-17	7.188907E-18
3.070000E+03	3.384418E-17	6.722675E-18
3.080000E+03	3.230685E-17	6.284542E-18
3.090000E+03	3.082649E-17	5.873104E-18
3.100000E+03	2.940290E-17	5.487244E-18
3.110000E+03	2.803511E-17	5.125724E-18
3.120000E+03	2.672263E-17	4.787429E-18
3.130000E+03	2.546434E-17	4.471154E-18
3.140000E+03	2.425907E-17	4.175723E-18
3.150000E+03	2.310607E-17	3.900072E-18
3.160000E+03	2.200361E-17	3.643007E-18
3.170000E+03	2.095121E-17	3.403584E-18
3.180000E+03	1.994706E-17	3.180685E-18
3.190000E+03	1.899012E-17	2.973356E-18
3.200000E+03	1.807889E-17	2.780621E-18
3.210000E+03	1.721190E-17	2.601547E-18
3.220000E+03	1.638789E-17	2.435287E-18
3.230000E+03	1.560531E-17	2.280987E-18
3.240000E+03	1.486234E-17	2.137802E-18
3.250000E+03	1.415815E-17	2.005071E-18
3.260000E+03	1.349045E-17	1.881967E-18
3.270000E+03	1.285837E-17	1.767900E-18
3.280000E+03	1.225991E-17	1.662164E-18
3.290000E+03	1.169378E-17	1.564182E-18
3.300000E+03	1.115865E-17	1.473409E-18
3.310000E+03	1.065273E-17	1.389265E-18
3.320000E+03	1.017491E-17	1.311298E-18
3.330000E+03	9.723804E-18	1.239039E-18
3.340000E+03	9.297924E-18	1.172040E-18
3.350000E+03	8.895989E-18	1.109899E-18
3.360000E+03	8.516765E-18	1.052247E-18
3.370000E+03	8.159178E-18	9.987527E-19
3.380000E+03	7.821864E-18	9.490708E-19
3.390000E+03	7.503949E-18	9.029339E-19
3.400000E+03	7.204191E-18	8.600466E-19
3.410000E+03	6.921615E-18	8.201613E-19
3.420000E+03	6.655373E-18	7.830598E-19
3.430000E+03	6.404329E-18	7.485027E-19
3.440000E+03	6.167818E-18	7.163175E-19
3.450000E+03	5.944968E-18	6.863186E-19
3.460000E+03	5.734830E-18	6.583210E-19
3.470000E+03	5.536853E-18	6.321948E-19
3.480000E+03	5.350193E-18	6.077836E-19
3.490000E+03	5.174248E-18	5.849664E-19
3.500000E+03	5.008393E-18	5.636254E-19
3.510000E+03	4.851885E-18	5.436353E-19
3.520000E+03	4.704248E-18	5.249059E-19
3.530000E+03	4.564885E-18	5.073380E-19
3.540000E+03	4.433247E-18	4.908416E-19
3.550000E+03	4.308873E-18	4.753399E-19
3.560000E+03	4.191247E-18	4.607535E-19
3.570000E+03	4.079936E-18	4.470148E-19
3.580000E+03	3.974501E-18	4.340580E-19
3.590000E+03	3.874613E-18	4.218316E-19
3.600000E+03	3.779925E-18	4.102840E-19
3.610000E+03	3.690079E-18	3.993641E-19
3.620000E+03	3.604811E-18	3.890327E-19
3.630000E+03	3.523872E-18	3.792532E-19
3.640000E+03	3.446962E-18	3.699849E-19
3.650000E+03	3.373954E-18	3.612067E-19
3.660000E+03	3.304573E-18	3.528825E-19
3.670000E+03	3.238676E-18	3.449910E-19
3.680000E+03	3.176097E-18	3.375090E-19
3.690000E+03	3.116673E-18	3.304146E-19
3.700000E+03	3.060277E-18	3.236895E-19
3.710000E+03	3.006808E-18	3.173192E-19
3.720000E+03	2.956068E-18	3.112788E-19
3.730000E+03	2.908014E-18	3.055604E-19
3.740000E+03	2.862481E-18	3.001436E-19
3.750000E+03	2.819383E-18	2.950162E-19
3.760000E+03	2.778636E-18	2.901665E-19
3.770000E+03	2.740087E-18	2.855763E-19
3.780000E+03	2.703706E-18	2.812398E-19
3.790000E+03	2.669372E-18	2.771422E-19
3.800000E+03	2.637013E-18	2.732739E-19
3.810000E+03	2.606540E-18	2.696235E-19
3.820000E+03	2.577888E-18	2.661823E-19
3.830000E+03	2.550974E-18	2.629401E-19
3.840000E+03	2.525742E-18	2.598890E-19
3.850000E+03	2.502115E-18	2.570196E-19
3.860000E+03	2.480062E-18	2.543270E-19
3.870000E+03	2.459512E-18	2.518025E-19
3.880000E+03	2.440401E-18	2.494380E-19
3.890000E+03	2.422684E-18	2.472276E-19
3.900000E+03	2.406300E-18	2.451638E-19
3.910000E+03	2.391228E-18	2.432433E-19
3.920000E+03	2.377411E-18	2.414592E-19
3.930000E+03	2.364813E-18	2.398066E-19
3.940000E+03	2.353379E-18	2.382792E-19
3.950000E+03	2.343060E-18	2.368707E-19
3.960000E+03	2.333859E-18	2.355806E-19
3.970000E+03	2.325691E-18	2.343993E-19
3.980000E+03	2.318546E-18	2.333248E-19
3.990000E+03	2.312378E-18	2.323513E-19
4.000000E+03	2.307161E-18	2.314753E-19
4.010000E+03	2.302869E-18	2.306932E-19
4.020000E+03	2.299443E-18	2.299980E-19
4.030000E+03	2.296878E-18	2.293883E-19
4.040000E+03	2.295134E-18	2.288592E-19
4.050000E+03	2.294190E-18	2.284078E-19
4.060000E+03	2.294009E-18	2.280294E-19
4.070000E+03	2.294556E-18	2.277199E-19
4.080000E+03	2.295830E-18	2.274785E-19
4.090000E+03	2.297781E-18	2.272995E-19
4.100000E+03	2.300394E-18	2.271808E-19
4.110000E+03	2.303655E-18	2.271205E-19
4.120000E+03	2.307517E-18	2.271133E-19
4.130000E+03	2.311987E-18	2.271593E-19
4.140000E+03	2.317019E-18	2.272537E-19
4.150000E+03	2.322605E-18	2.273949E-19
4.160000E+03	2.328737E-18	2.275818E-19
4.170000E+03	2.335373E-18	2.278098E-19
4.180000E+03	2.342524E-18	2.280797E-19
4.190000E+03	2.350133E-18	2.283854E-19
4.200000E+03	2.358230E-18	2.287296E-19
4.210000E+03	2.366759E-18	2.291067E-19
4.220000E+03	2.375717E-18	2.295160E-19
4.230000E+03	2.385085E-18	2.299555E-19
4.240000E+03	2.394862E-18	2.304252E-19
4.250000E+03	2.404994E-18	2.309195E-19
4.260000E+03	2.415499E-18	2.314403E-19
4.270000E+03	2.426342E-18	2.319842E-19
4.280000E+03	2.437487E-18	2.325479E-19
4.290000E+03	2.448938E-18	2.331316E-19
4.300000E+03	2.460677E-18	2.337341E-19
4.310000E+03	2.472649E-18	2.343502E-19
4.320000E+03	2.484839E-18	2.349786E-19
4.330000E+03	2.497227E-18	2.356179E-19
4.340000E+03	2.509796E-18	2.362667E-19
4.350000E+03	2.522527E-18	2.369235E-19
4.360000E+03	2.535420E-18	2.375886E-19
4.370000E+03	2.548456E-18	2.382605E-19
4.380000E+03	2.561614E-18	2.389376E-19
4.390000E+03	2.574933E-18	2.396236E-19
4.400000E+03	2.588393E-18	2.403169E-19
4.410000E+03	2.601993E-18	2.410174E-19
4.420000E+03	2.615752E-18	2.417271E-19
4.430000E+03	2.629669E-18	2.424460E-19
4.440000E+03	2.643725E-18	2.431721E-19
4.450000E+03	2.657938E-18	2.439076E-19
4.460000E+03	2.672289E-18	2.446504E-19
4.470000E+03	2.686778E-18	2.454007E-19
4.480000E+03	2.701409E-18	2.461588E-19
4.490000E+03	2.716139E-18	2.469210E-19
4.500000E+03	2.730995E-18	2.476897E-19
4.510000E+03	2.745961E-18	2.484635E-19
4.520000E+03	2.761022E-18	2.492411E-19
4.530000E+03	2.776186E-18	2.500231E-19
4.540000E+03	2.791417E-18	2.508065E-19
4.550000E+03	2.806726E-18	2.515924E-19
4.560000E+03	2.822128E-18	2.523820E-19
4.570000E+03	2.837612E-18	2.531746E-19
4.580000E+03	2.853149E-18	2.539676E-19
4.590000E+03	2.868755E-18	2.547628E-19
4.600000E+03	2.884425E-18	2.555598E-19
4.610000E+03	2.900155E-18	2.563584E-19
4.620000E+03	2.915968E-18	2.571607E-19
4.630000E+03	2.931835E-18	2.579643E-19
4.640000E+03	2.947783E-18	2.587716E-19
4.650000E+03	2.963812E-18	2.595822E-19
4.660000E+03	2.979923E-18	2.603962E-19
4.670000E+03	2.996119E-18	2.612131E-19
4.680000E+03	3.012403E-18	2.620327E-19
4.690000E+03	3.028780E-18	2.628543E-19
4.700000E+03	3.045308E-18	2.636818E-19
4.710000E+03	3.061995E-18	2.645145E-19
4.720000E+03	3.078847E-18	2.653514E-19
4.730000E+03	3.095930E-18	2.661962E-19
4.740000E+03	3.113225E-18	2.670455E-19
4.750000E+03	3.130744E-18	2.678982E-19
4.760000E+03	3.148525E-18	2.687557E-19
4.770000E+03	3.166582E-18	2.696169E-19
4.780000E+03	3.184898E-18	2.704788E-19
4.790000E+03	3.203517E-18	2.713430E-19
4.800000E+03	3.222453E-18	2.722092E-19
4.810000E+03	3.241690E-18	2.730749E-19
4.820000E+03	3.261273E-18	2.739428E-19
4.830000E+03	3.281218E-18	2.748135E-19
4.840000E+03	3.301539E-18	2.756882E-19
4.850000E+03	3.322254E-18	2.765685E-19
4.860000E+03	3.343348E-18	2.774536E-19
4.870000E+03	3.364897E-18	2.783512E-19
4.880000E+03	3.386857E-18	2.792590E-19
4.890000E+03	3.409243E-18	2.801799E-19
4.900000E+03	3.432103E-18	2.811199E-19
4.910000E+03	3.455452E-18	2.820827E-19
4.920000E+03	3.479307E-18	2.830718E-19
4.930000E+03	3.503619E-18	2.840856E-19
4.940000E+03	3.528467E-18	2.851329E-19
4.950000E+03	3.553834E-18	2.862144E-19
4.960000E+03	3.579732E-18	2.873331E-19
4.970000E+03	3.606177E-18	2.884917E-19
4.980000E+03	3.633179E-18	2.896924E-19
4.990000E+03	3.660717E-18	2.909339E-19
5.000000E+03	3.688799E-18	2.922174E-19
5.010000E+03	3.717469E-18	2.935459E-19
5.020000E+03	3.746701E-18	2.949164E-19
5.030000E+03	3.776462E-18	2.963250E-19
5.040000E+03	3.806831E-18	2.977761E-19
5.050000E+03	3.837700E-18	2.992591E-19
5.060000E+03	3.869145E-18	3.007774E-19
5.070000E+03	3.901166E-18	3.023286E-19
5.080000E+03	3.933650E-18	3.039013E-19
5.090000E+03	3.966707E-18	3.055017E-19
5.100000E+03	4.000257E-18	3.071214E-19
5.110000E+03	4.034297E-18	3.087585E-19
5.120000E+03	4.068859E-18	3.104143E-19
5.130000E+03	4.103857E-18	3.120819E-19
5.140000E+03	4.139285E-18	3.137609E-19
5.150000E+03	4.175171E-18	3.154550E-19
5.160000E+03	4.211468E-18	3.171627E-19
5.170000E+03	4.248164E-18	3.188867E-19
5.180000E+03	4.285206E-18	3.206276E-19
5.190000E+03	4.322625E-18	3.223934E-19
5.200000E+03	4.360323E-18	3.241835E-19
5.210000E+03	4.398373E-18	3.260113E-19
5.220000E+03	4.436719E-18	3.278813E-19
5.230000E+03	4.475303E-18	3.297992E-19
5.240000E+03	4.514111E-18	3.317742E-19
5.250000E+03	4.553173E-18	3.338196E-19
5.260000E+03	4.592385E-18	3.359396E-19
5.270000E+03	4.631774E-18	3.381483E-19
5.280000E+03	4.671372E-18	3.404604E-19
5.290000E+03	4.711026E-18	3.428773E-19
5.300000E+03	4.750855E-18	3.454203E-19
5.310000E+03	4.790706E-18	3.480906E-19
5.320000E+03	4.830700E-18	3.509092E-19
5.330000E+03	4.870680E-18	3.538762E-19
5.340000E+03	4.910725E-18	3.570084E-19
5.350000E+03	4.950819E-18	3.603147E-19
5.360000E+03	4.990900E-18	3.637997E-19
5.370000E+03	5.031056E-18	3.674778E-19
5.380000E+03	5.071125E-18	3.713441E-19
5.390000E+03	5.111252E-18	3.754145E-19
5.400000E+03	5.151380E-18	3.796893E-19
5.410000E+03	5.191508E-18	3.841712E-19
5.420000E+03	5.231638E-18	3.888619E-19
5.430000E+03	5.271772E-18	3.937620E-19
5.440000E+03	5.311863E-18	3.988670E-19
5.450000E+03	5.351920E-18	4.041756E-19
5.460000E+03	5.391949E-18	4.096853E-19
5.470000E+03	5.431962E-18	4.153930E-19
5.480000E+03	5.471913E-18	4.212903E-19
5.490000E+03	5.511757E-18	4.273683E-19
5.500000E+03	5.551555E-18	4.336257E-19
5.510000E+03	5.591261E-18	4.400525E-19
5.520000E+03	5.630823E-18	4.466378E-19
5.530000E+03	5.670187E-18	4.533704E-19
5.540000E+03	5.709408E-18	4.602479E-19
5.550000E+03	5.748371E-18	4.672538E-19
5.560000E+03	5.787126E-18	4.743855E-19
5.570000E+03	5.825549E-18	4.816259E-19
5.580000E+03	5.863626E-18	4.889675E-19
5.590000E+03	5.901401E-18	4.964076E-19
5.600000E+03	5.938734E-18	5.039286E-19
5.610000E+03	5.975663E-18	5.115283E-19
5.620000E+03	6.012163E-18	5.191997E-19
5.630000E+03	6.048144E-18	5.269309E-19
5.640000E+03	6.083574E-18	5.347155E-19
5.650000E+03	6.118482E-18	5.425534E-19
5.660000E+03	6.152836E-18	5.504398E-19
5.670000E+03	6.186537E-18	5.583646E-19
5.680000E+03	6.219615E-18	5.663300E-19
5.690000E+03	6.252099E-18	5.743390E-19
5.700000E+03	6.283827E-18	5.823774E-19
5.710000E+03	6.314831E-18	5.904489E-19
5.720000E+03	6.345145E-18	5.985583E-19
5.730000E+03	6.374739E-18	6.067041E-19
5.740000E+03	6.403586E-18	6.148851E-19
5.750000E+03	6.431657E-18	6.230995E-19
5.760000E+03	6.458926E-18	6.313451E-19
5.770000E+03	6.485437E-18	6.396259E-19
5.780000E+03	6.511096E-18	6.479314E-19
5.790000E+03	6.536021E-18	6.562706E-19
5.800000E+03	6.560123E-18	6.646307E-19
5.810000E+03	6.583384E-18	6.730045E-19
5.820000E+03	6.605932E-18	6.813981E-19
5.830000E+03	6.627612E-18	6.897870E-19
5.840000E+03	6.648490E-18	6.981677E-19
5.850000E+03	6.668634E-18	7.065358E-19
5.860000E+03	6.687976E-18	7.148708E-19
5.870000E+03	6.706595E-18	7.231667E-19
5.880000E+03	6.724431E-18	7.314015E-19
5.890000E+03	6.741651E-18	7.395767E-19
5.900000E+03	6.758206E-18	7.476699E-19
5.910000E+03	6.774124E-18	7.556665E-19
5.920000E+03	6.789513E-18	7.635611E-19
5.930000E+03	6.804334E-18	7.713314E-19
5.940000E+03	6.818698E-18	7.789731E-19
5.950000E+03	6.832568E-18	7.864653E-19
5.960000E+03	6.846057E-18	7.938054E-19
5.970000E+03	6.859204E-18	8.009831E-19
5.980000E+03	6.872045E-18	8.079889E-19
5.990000E+03	6.884535E-18	8.148049E-19
6.000000E+03	6.896786E-18	8.214327E-19
6.010000E+03	6.908829E-18	8.278657E-19
6.020000E+03	6.920611E-18	8.340884E-19
6.030000E+03	6.932239E-18	8.401053E-19
6.040000E+03	6.943655E-18	8.459025E-19
6.050000E+03	6.954794E-18	8.514660E-19
6.060000E+03	6.965839E-18	8.568130E-19
6.070000E+03	6.976639E-18	8.619209E-19
6.080000E+03	6.987287E-18	8.667981E-19
6.090000E+03	6.997624E-18	8.714221E-19
6.100000E+03	7.007739E-18	8.758025E-19
6.110000E+03	7.017547E-18	8.799277E-19
6.120000E+03	7.027048E-18	8.837975E-19
6.130000E+03	7.036237E-18	8.874116E-19
6.140000E+03	7.045022E-18	8.907593E-19
6.150000E+03	7.053393E-18	8.938407E-19
6.160000E+03	7.061338E-18	8.966566E-19
6.170000E+03	7.068843E-18	8.992076E-19
6.180000E+03	7.075895E-18	9.014949E-19
6.190000E+03	7.082385E-18	9.035081E-19
6.200000E+03	7.088387E-18	9.052601E-19
6.210000E+03	7.093879E-18	9.067526E-19
6.220000E+03	7.098844E-18	9.079874E-19
6.230000E+03	7.103351E-18	9.089783E-19
6.240000E+03	7.107476E-18	9.097397E-19
6.250000E+03	7.111293E-18	9.102863E-19
6.260000E+03	7.114880E-18	9.106332E-19
6.270000E+03	7.118317E-18	9.107959E-19
6.280000E+03	7.121781E-18	9.108025E-19
6.290000E+03	7.125164E-18	9.106447E-19
6.300000E+03	7.128844E-18	9.103759E-19
6.310000E+03	7.132719E-18	9.099882E-19
6.320000E+03	7.136977E-18	9.095112E-19
6.330000E+03	7.141718E-18	9.089621E-19
6.340000E+03	7.147040E-18	9.083585E-19
6.350000E+03	7.152945E-18	9.077054E-19
6.360000E+03	7.159539E-18	9.070205E-19
6.370000E+03	7.166930E-18	9.063216E-19
6.380000E+03	7.175125E-18	9.056140E-19
6.390000E+03	7.184133E-18	9.049026E-19
6.400000E+03	7.194070E-18	9.042055E-19
6.410000E+03	7.204736E-18	9.035012E-19
6.420000E+03	7.216142E-18	9.027943E-19
6.430000E+03	7.228191E-18	9.020759E-19
6.440000E+03	7.240674E-18	9.013232E-19
6.450000E+03	7.253706E-18	9.005537E-19
6.460000E+03	7.267076E-18	8.997440E-19
6.470000E+03	7.280899E-18	8.989113E-19
6.480000E+03	7.295181E-18	8.980592E-19
6.490000E+03	7.309820E-18	8.971773E-19
6.500000E+03	7.324822E-18	8.962689E-19
6.510000E+03	7.340193E-18	8.953372E-19
6.520000E+03	7.355941E-18	8.943851E-19
6.530000E+03	7.372075E-18	8.934156E-19
6.540000E+03	7.388718E-18	8.924454E-19
6.550000E+03	7.405765E-18	8.914632E-19
6.560000E+03	7.423106E-18	8.904573E-19
6.570000E+03	7.440986E-18	8.894582E-19
6.580000E+03	7.459176E-18	8.884398E-19
6.590000E+03	7.477803E-18	8.874182E-19
6.600000E+03	7.496876E-18	8.863953E-19
6.610000E+03	7.516404E-18	8.853729E-19
6.620000E+03	7.536396E-18	8.843523E-19
6.630000E+03	7.556736E-18	8.833207E-19
6.640000E+03	7.577556E-18	8.822936E-19
6.650000E+03	7.598738E-18	8.812578E-19
6.660000E+03	7.620416E-18	8.802288E-19
6.670000E+03	7.642471E-18	8.791929E-19
6.680000E+03	7.664910E-18	8.781509E-19
6.690000E+03	7.687870E-18	8.771185E-19
6.700000E+03	7.711362E-18	8.760966E-19
6.710000E+03	7.735133E-18	8.750559E-19
6.720000E+03	7.759456E-18	8.740272E-19
6.730000E+03	7.784074E-18	8.729809E-19
6.740000E+03	7.809266E-18	8.719479E-19
6.750000E+03	7.834910E-18	8.709138E-19
6.760000E+03	7.860880E-18	8.698637E-19
6.770000E+03	7.887464E-18	8.688288E-19
6.780000E+03	7.914398E-18	8.677789E-19
6.790000E+03	7.941835E-18	8.667299E-19
6.800000E+03	7.969790E-18	8.656822E-19
6.810000E+03	7.998278E-18	8.646361E-19
6.820000E+03	8.027170E-18	8.635764E-19
6.830000E+03	8.056624E-18	8.625188E-19
6.840000E+03	8.086511E-18	8.614481E-19
6.850000E+03	8.116990E-18	8.603799E-19
6.860000E+03	8.147930E-18	8.592986E-19
6.870000E+03	8.179343E-18	8.582042E-19
6.880000E+03	8.211395E-18	8.571127E-19
6.890000E+03	8.243796E-18	8.559923E-19
6.900000E+03	8.276866E-18	8.548749E-19
6.910000E+03	8.310466E-18	8.537448E-19
6.920000E+03	8.344612E-18	8.526021E-19
6.930000E+03	8.379319E-18	8.514472E-19
6.940000E+03	8.414602E-18	8.502805E-19
6.950000E+03	8.450319E-18	8.490864E-19
6.960000E+03	8.486644E-18	8.478817E-19
6.970000E+03	8.523597E-18	8.466672E-19
6.980000E+03	8.561197E-18	8.454440E-19
6.990000E+03	8.599134E-18	8.441807E-19
7.000000E+03	8.637925E-18	8.429275E-19
7.010000E+03	8.677091E-18	8.416368E-19
7.020000E+03	8.716990E-18	8.403431E-19
7.030000E+03	8.757479E-18	8.390317E-19
7.040000E+03	8.798582E-18	8.377047E-19
7.050000E+03	8.840327E-18	8.363639E-19
7.060000E+03	8.882742E-18	8.350117E-19
7.070000E+03	8.925682E-18	8.336337E-19
7.080000E+03	8.969354E-18	8.322489E-19
7.090000E+03	9.013795E-18	8.308596E-19
7.100000E+03	9.058859E-18	8.294518E-19
7.110000E+03	9.104767E-18	8.280448E-19
7.120000E+03	9.151373E-18	8.266244E-19
7.130000E+03	9.198716E-18	8.251933E-19
7.140000E+03	9.246838E-18	8.237544E-19
7.150000E+03	9.295972E-18	8.223275E-19
7.160000E+03	9.345780E-18	8.208820E-19
7.170000E+03	9.396304E-18	8.194210E-19
7.180000E+03	9.447977E-18	8.179821E-19
7.190000E+03	9.500457E-18	8.165354E-19
7.200000E+03	9.553787E-18	8.150848E-19
7.210000E+03	9.608214E-18	8.136525E-19
7.220000E+03	9.663586E-18	8.122264E-19
7.230000E+03	9.719948E-18	8.108125E-19
7.240000E+03	9.777347E-18	8.094172E-19
7.250000E+03	9.835827E-18	8.080479E-19
7.260000E+03	9.895647E-18	8.067299E-19
7.270000E+03	9.956427E-18	8.054376E-19
7.280000E+03	1.001864E-17	8.042156E-19
7.290000E+03	1.008210E-17	8.030576E-19
7.300000E+03	1.014687E-17	8.019754E-19
7.310000E+03	1.021319E-17	8.009997E-19
7.320000E+03	1.028088E-17	8.001269E-19
7.330000E+03	1.035020E-17	7.993898E-19
7.340000E+03	1.042118E-17	7.988045E-19
7.350000E+03	1.049409E-17	7.984059E-19
7.360000E+03	1.056897E-17	7.982117E-19
7.370000E+03	1.064608E-17	7.982587E-19
7.380000E+03	1.072522E-17	7.985475E-19
7.390000E+03	1.080715E-17	7.991519E-19
7.400000E+03	1.089192E-17	8.000917E-19
7.410000E+03	1.097932E-17	8.013678E-19
7.420000E+03	1.107014E-17	8.030542E-19
7.430000E+03	1.116418E-17	8.051508E-19
7.440000E+03	1.126174E-17	8.076931E-19
7.450000E+03	1.136260E-17	8.106774E-19
7.460000E+03	1.146706E-17	8.141357E-19
7.470000E+03	1.157434E-17	8.180207E-19
7.480000E+03	1.168499E-17	8.223773E-19
7.490000E+03	1.179821E-17	8.271502E-19
7.500000E+03	1.191426E-17	8.323574E-19
7.510000E+03	1.203285E-17	8.379732E-19
7.520000E+03	1.215369E-17	8.439673E-19
7.530000E+03	1.227704E-17	8.503450E-19
7.540000E+03	1.240200E-17	8.570258E-19
7.550000E+03	1.252913E-17	8.640277E-19
7.560000E+03	1.265809E-17	8.713040E-19
7.570000E+03	1.278884E-17	8.788260E-19
7.580000E+03	1.292103E-17	8.865417E-19
7.590000E+03	1.305491E-17	8.944415E-19
7.600000E+03	1.319011E-17	9.024722E-19
7.610000E+03	1.332655E-17	9.106029E-19
7.620000E+03	1.346448E-17	9.188271E-19
7.630000E+03	1.360350E-17	9.270950E-19
7.640000E+03	1.374385E-17	9.354051E-19
7.650000E+03	1.388475E-17	9.436881E-19
7.660000E+03	1.402679E-17	9.519716E-19
7.670000E+03	1.416949E-17	9.602148E-19
7.680000E+03	1.431310E-17	9.684277E-19
7.690000E+03	1.445712E-17	9.765733E-19
7.700000E+03	1.460142E-17	9.846405E-19
7.710000E+03	1.474583E-17	9.926198E-19
7.720000E+03	1.489096E-17	1.000554E-18
7.730000E+03	1.503549E-17	1.008359E-18
7.740000E+03	1.518042E-17	1.016104E-18
7.750000E+03	1.532477E-17	1.023729E-18
7.760000E+03	1.546876E-17	1.031252E-18
