#wls	flux	fluxerr
1.600000E+03	1.710055E-16	1.666977E-16
1.640000E+03	1.760543E-16	1.687590E-16
1.680000E+03	1.807818E-16	1.702875E-16
1.720000E+03	1.851341E-16	1.712440E-16
1.760000E+03	1.890345E-16	1.715736E-16
1.800000E+03	1.924215E-16	1.712410E-16
1.840000E+03	1.952136E-16	1.701991E-16
1.880000E+03	1.973638E-16	1.684376E-16
1.920000E+03	1.988073E-16	1.659366E-16
1.960000E+03	1.994658E-16	1.626713E-16
2.000000E+03	1.992987E-16	1.586554E-16
2.040000E+03	1.982409E-16	1.538881E-16
2.080000E+03	1.962399E-16	1.483855E-16
2.120000E+03	1.932857E-16	1.422012E-16
2.160000E+03	1.893181E-16	1.353559E-16
2.200000E+03	1.843080E-16	1.278986E-16
2.240000E+03	1.782270E-16	1.198833E-16
2.280000E+03	1.710222E-16	1.113520E-16
2.320000E+03	1.629157E-16	1.025259E-16
2.360000E+03	1.541321E-16	9.360975E-17
2.400000E+03	1.448512E-16	8.476256E-17
2.440000E+03	1.352261E-16	7.611268E-17
2.480000E+03	1.254020E-16	6.777004E-17
2.520000E+03	1.155099E-16	5.982361E-17
2.560000E+03	1.056645E-16	5.234156E-17
2.600000E+03	9.598065E-17	4.538055E-17
2.640000E+03	8.656129E-17	3.898022E-17
2.680000E+03	7.749788E-17	3.316462E-17
2.720000E+03	6.887016E-17	2.794349E-17
2.760000E+03	6.074942E-17	2.331485E-17
2.800000E+03	5.318424E-17	1.926110E-17
2.840000E+03	4.621316E-17	1.575599E-17
2.880000E+03	3.986512E-17	1.276630E-17
2.920000E+03	3.415494E-17	1.025180E-17
2.960000E+03	2.908507E-17	8.167672E-18
3.000000E+03	2.464070E-17	6.464901E-18
3.010000E+03	2.362377E-17	6.092766E-18
3.020000E+03	2.264334E-17	5.740457E-18
3.030000E+03	2.169909E-17	5.407268E-18
3.040000E+03	2.079012E-17	5.092364E-18
3.050000E+03	1.991553E-17	4.794933E-18
3.060000E+03	1.907485E-17	4.514281E-18
3.070000E+03	1.826675E-17	4.249529E-18
3.080000E+03	1.749107E-17	4.000102E-18
3.090000E+03	1.674649E-17	3.765163E-18
3.100000E+03	1.603242E-17	3.544070E-18
3.110000E+03	1.534789E-17	3.336118E-18
3.120000E+03	1.469228E-17	3.140688E-18
3.130000E+03	1.406459E-17	2.957114E-18
3.140000E+03	1.346391E-17	2.784756E-18
3.150000E+03	1.288953E-17	2.623048E-18
3.160000E+03	1.234030E-17	2.471346E-18
3.170000E+03	1.181577E-17	2.329173E-18
3.180000E+03	1.131481E-17	2.195933E-18
3.190000E+03	1.083673E-17	2.071143E-18
3.200000E+03	1.038065E-17	1.954299E-18
3.210000E+03	9.945720E-18	1.844922E-18
3.220000E+03	9.531268E-18	1.742589E-18
3.230000E+03	9.136457E-18	1.646864E-18
3.240000E+03	8.760329E-18	1.557307E-18
3.250000E+03	8.402534E-18	1.473607E-18
3.260000E+03	8.061873E-18	1.395318E-18
3.270000E+03	7.738000E-18	1.322161E-18
3.280000E+03	7.429926E-18	1.253760E-18
3.290000E+03	7.137073E-18	1.189826E-18
3.300000E+03	6.858859E-18	1.130082E-18
3.310000E+03	6.594413E-18	1.074218E-18
3.320000E+03	6.343301E-18	1.022008E-18
3.330000E+03	6.104898E-18	9.732063E-19
3.340000E+03	5.878520E-18	9.275697E-19
3.350000E+03	5.663604E-18	8.848857E-19
3.360000E+03	5.459610E-18	8.449552E-19
3.370000E+03	5.266092E-18	8.076034E-19
3.380000E+03	5.082408E-18	7.726341E-19
3.390000E+03	4.908222E-18	7.399068E-19
3.400000E+03	4.742950E-18	7.092505E-19
3.410000E+03	4.586167E-18	6.805264E-19
3.420000E+03	4.437523E-18	6.536132E-19
3.430000E+03	4.296466E-18	6.283662E-19
3.440000E+03	4.162742E-18	6.046905E-19
3.450000E+03	4.035952E-18	5.824752E-19
3.460000E+03	3.915626E-18	5.616048E-19
3.470000E+03	3.801560E-18	5.420062E-19
3.480000E+03	3.693332E-18	5.235797E-19
3.490000E+03	3.590680E-18	5.062521E-19
3.500000E+03	3.493312E-18	4.899496E-19
3.510000E+03	3.400845E-18	4.745888E-19
3.520000E+03	3.313071E-18	4.601142E-19
3.530000E+03	3.229690E-18	4.464594E-19
3.540000E+03	3.150422E-18	4.335644E-19
3.550000E+03	3.075045E-18	4.213785E-19
3.560000E+03	3.003288E-18	4.098467E-19
3.570000E+03	2.934931E-18	3.989231E-19
3.580000E+03	2.869743E-18	3.885618E-19
3.590000E+03	2.807567E-18	3.787282E-19
3.600000E+03	2.748225E-18	3.693869E-19
3.610000E+03	2.691528E-18	3.605015E-19
3.620000E+03	2.637349E-18	3.520457E-19
3.630000E+03	2.585568E-18	3.439946E-19
3.640000E+03	2.536022E-18	3.363190E-19
3.650000E+03	2.488674E-18	3.290068E-19
3.660000E+03	2.443373E-18	3.220317E-19
3.670000E+03	2.400063E-18	3.153805E-19
3.680000E+03	2.358666E-18	3.090377E-19
3.690000E+03	2.319106E-18	3.029888E-19
3.700000E+03	2.281330E-18	2.972222E-19
3.710000E+03	2.245301E-18	2.917293E-19
3.720000E+03	2.210908E-18	2.864918E-19
3.730000E+03	2.178154E-18	2.815070E-19
3.740000E+03	2.146949E-18	2.767599E-19
3.750000E+03	2.117259E-18	2.722431E-19
3.760000E+03	2.089048E-18	2.679497E-19
3.770000E+03	2.062230E-18	2.638659E-19
3.780000E+03	2.036807E-18	2.599895E-19
3.790000E+03	2.012710E-18	2.563099E-19
3.800000E+03	1.989908E-18	2.528209E-19
3.810000E+03	1.968353E-18	2.495143E-19
3.820000E+03	1.948014E-18	2.463845E-19
3.830000E+03	1.928846E-18	2.434240E-19
3.840000E+03	1.910819E-18	2.406275E-19
3.850000E+03	1.893891E-18	2.379880E-19
3.860000E+03	1.878049E-18	2.355026E-19
3.870000E+03	1.863253E-18	2.331646E-19
3.880000E+03	1.849462E-18	2.309677E-19
3.890000E+03	1.836654E-18	2.289077E-19
3.900000E+03	1.824789E-18	2.269787E-19
3.910000E+03	1.813861E-18	2.251785E-19
3.920000E+03	1.803833E-18	2.235017E-19
3.930000E+03	1.794685E-18	2.219446E-19
3.940000E+03	1.786383E-18	2.205020E-19
3.950000E+03	1.778893E-18	2.191688E-19
3.960000E+03	1.772225E-18	2.179452E-19
3.970000E+03	1.766319E-18	2.168230E-19
3.980000E+03	1.761173E-18	2.158008E-19
3.990000E+03	1.756756E-18	2.148740E-19
4.000000E+03	1.753052E-18	2.140399E-19
4.010000E+03	1.750047E-18	2.132957E-19
4.020000E+03	1.747699E-18	2.126355E-19
4.030000E+03	1.746007E-18	2.120584E-19
4.040000E+03	1.744945E-18	2.115603E-19
4.050000E+03	1.744501E-18	2.111389E-19
4.060000E+03	1.744649E-18	2.107905E-19
4.070000E+03	1.745365E-18	2.105114E-19
4.080000E+03	1.746651E-18	2.103010E-19
4.090000E+03	1.748471E-18	2.101544E-19
4.100000E+03	1.750816E-18	2.100698E-19
4.110000E+03	1.753678E-18	2.100453E-19
4.120000E+03	1.757020E-18	2.100763E-19
4.130000E+03	1.760850E-18	2.101626E-19
4.140000E+03	1.765133E-18	2.102996E-19
4.150000E+03	1.769864E-18	2.104859E-19
4.160000E+03	1.775035E-18	2.107200E-19
4.170000E+03	1.780615E-18	2.109974E-19
4.180000E+03	1.786613E-18	2.113184E-19
4.190000E+03	1.792981E-18	2.116769E-19
4.200000E+03	1.799745E-18	2.120750E-19
4.210000E+03	1.806858E-18	2.125068E-19
4.220000E+03	1.814317E-18	2.129711E-19
4.230000E+03	1.822105E-18	2.134654E-19
4.240000E+03	1.830220E-18	2.139886E-19
4.250000E+03	1.838617E-18	2.145350E-19
4.260000E+03	1.847307E-18	2.151053E-19
4.270000E+03	1.856262E-18	2.156956E-19
4.280000E+03	1.865449E-18	2.163017E-19
4.290000E+03	1.874869E-18	2.169228E-19
4.300000E+03	1.884504E-18	2.175568E-19
4.310000E+03	1.894310E-18	2.181979E-19
4.320000E+03	1.904269E-18	2.188437E-19
4.330000E+03	1.914365E-18	2.194920E-19
4.340000E+03	1.924580E-18	2.201405E-19
4.350000E+03	1.934898E-18	2.207868E-19
4.360000E+03	1.945315E-18	2.214303E-19
4.370000E+03	1.955813E-18	2.220688E-19
4.380000E+03	1.966375E-18	2.227000E-19
4.390000E+03	1.977028E-18	2.233269E-19
4.400000E+03	1.987754E-18	2.239473E-19
4.410000E+03	1.998552E-18	2.245607E-19
4.420000E+03	2.009434E-18	2.251687E-19
4.430000E+03	2.020401E-18	2.257710E-19
4.440000E+03	2.031434E-18	2.263657E-19
4.450000E+03	2.042550E-18	2.269545E-19
4.460000E+03	2.053731E-18	2.275357E-19
4.470000E+03	2.064978E-18	2.281096E-19
4.480000E+03	2.076293E-18	2.286764E-19
4.490000E+03	2.087644E-18	2.292331E-19
4.500000E+03	2.099050E-18	2.297821E-19
4.510000E+03	2.110497E-18	2.303224E-19
4.520000E+03	2.121973E-18	2.308530E-19
4.530000E+03	2.133483E-18	2.313752E-19
4.540000E+03	2.144998E-18	2.318865E-19
4.550000E+03	2.156525E-18	2.323882E-19
4.560000E+03	2.168071E-18	2.328820E-19
4.570000E+03	2.179628E-18	2.333678E-19
4.580000E+03	2.191169E-18	2.338435E-19
4.590000E+03	2.202705E-18	2.343111E-19
4.600000E+03	2.214228E-18	2.347709E-19
4.610000E+03	2.225734E-18	2.352229E-19
4.620000E+03	2.237234E-18	2.356695E-19
4.630000E+03	2.248706E-18	2.361088E-19
4.640000E+03	2.260165E-18	2.365431E-19
4.650000E+03	2.271607E-18	2.369726E-19
4.660000E+03	2.283030E-18	2.373975E-19
4.670000E+03	2.294432E-18	2.378178E-19
4.680000E+03	2.305810E-18	2.382333E-19
4.690000E+03	2.317164E-18	2.386440E-19
4.700000E+03	2.328535E-18	2.390537E-19
4.710000E+03	2.339922E-18	2.394621E-19
4.720000E+03	2.351327E-18	2.398686E-19
4.730000E+03	2.362794E-18	2.402769E-19
4.740000E+03	2.374304E-18	2.406844E-19
4.750000E+03	2.385860E-18	2.410904E-19
4.760000E+03	2.397488E-18	2.414964E-19
4.770000E+03	2.409192E-18	2.419018E-19
4.780000E+03	2.420955E-18	2.423040E-19
4.790000E+03	2.432802E-18	2.427046E-19
4.800000E+03	2.444742E-18	2.431035E-19
4.810000E+03	2.456756E-18	2.434984E-19
4.820000E+03	2.468873E-18	2.438915E-19
4.830000E+03	2.481102E-18	2.442832E-19
4.840000E+03	2.493448E-18	2.446742E-19
4.850000E+03	2.505920E-18	2.450655E-19
4.860000E+03	2.518503E-18	2.454558E-19
4.870000E+03	2.531252E-18	2.458512E-19
4.880000E+03	2.544128E-18	2.462488E-19
4.890000E+03	2.557141E-18	2.466506E-19
4.900000E+03	2.570323E-18	2.470607E-19
4.910000E+03	2.583683E-18	2.474816E-19
4.920000E+03	2.597233E-18	2.479154E-19
4.930000E+03	2.610931E-18	2.483599E-19
4.940000E+03	2.624837E-18	2.488219E-19
4.950000E+03	2.638936E-18	2.493013E-19
4.960000E+03	2.653236E-18	2.498001E-19
4.970000E+03	2.667745E-18	2.503202E-19
4.980000E+03	2.682474E-18	2.508631E-19
4.990000E+03	2.697403E-18	2.514276E-19
5.000000E+03	2.712539E-18	2.520149E-19
5.010000E+03	2.727916E-18	2.526279E-19
5.020000E+03	2.743512E-18	2.532645E-19
5.030000E+03	2.759307E-18	2.539224E-19
5.040000E+03	2.775357E-18	2.546062E-19
5.050000E+03	2.791587E-18	2.553081E-19
5.060000E+03	2.808052E-18	2.560323E-19
5.070000E+03	2.824754E-18	2.567784E-19
5.080000E+03	2.841615E-18	2.575380E-19
5.090000E+03	2.858715E-18	2.583182E-19
5.100000E+03	2.876001E-18	2.591134E-19
5.110000E+03	2.893472E-18	2.599234E-19
5.120000E+03	2.911154E-18	2.607509E-19
5.130000E+03	2.928990E-18	2.615913E-19
5.140000E+03	2.946978E-18	2.624455E-19
5.150000E+03	2.965143E-18	2.633175E-19
5.160000E+03	2.983453E-18	2.642068E-19
5.170000E+03	3.001905E-18	2.651159E-19
5.180000E+03	3.020463E-18	2.660452E-19
5.190000E+03	3.039154E-18	2.670012E-19
5.200000E+03	3.057910E-18	2.679827E-19
5.210000E+03	3.076785E-18	2.689998E-19
5.220000E+03	3.095743E-18	2.700548E-19
5.230000E+03	3.114744E-18	2.711508E-19
5.240000E+03	3.133779E-18	2.722935E-19
5.250000E+03	3.152868E-18	2.734917E-19
5.260000E+03	3.171940E-18	2.747462E-19
5.270000E+03	3.191012E-18	2.760661E-19
5.280000E+03	3.210103E-18	2.774603E-19
5.290000E+03	3.229104E-18	2.789271E-19
5.300000E+03	3.248095E-18	2.804806E-19
5.310000E+03	3.266965E-18	2.821184E-19
5.320000E+03	3.285793E-18	2.838545E-19
5.330000E+03	3.304465E-18	2.856855E-19
5.340000E+03	3.323027E-18	2.876217E-19
5.350000E+03	3.341461E-18	2.896673E-19
5.360000E+03	3.359716E-18	2.918230E-19
5.370000E+03	3.377841E-18	2.940975E-19
5.380000E+03	3.395715E-18	2.964844E-19
5.390000E+03	3.413423E-18	2.989940E-19
5.400000E+03	3.430913E-18	3.016244E-19
5.410000E+03	3.448167E-18	3.043759E-19
5.420000E+03	3.465169E-18	3.072479E-19
5.430000E+03	3.481903E-18	3.102395E-19
5.440000E+03	3.498317E-18	3.133458E-19
5.450000E+03	3.514395E-18	3.165643E-19
5.460000E+03	3.530120E-18	3.198921E-19
5.470000E+03	3.545476E-18	3.233257E-19
5.480000E+03	3.560411E-18	3.268577E-19
5.490000E+03	3.574872E-18	3.304804E-19
5.500000E+03	3.588876E-18	3.341920E-19
5.510000E+03	3.602371E-18	3.379839E-19
5.520000E+03	3.615300E-18	3.418470E-19
5.530000E+03	3.627610E-18	3.457719E-19
5.540000E+03	3.639317E-18	3.497559E-19
5.550000E+03	3.650329E-18	3.537856E-19
5.560000E+03	3.660662E-18	3.578582E-19
5.570000E+03	3.670223E-18	3.619597E-19
5.580000E+03	3.678992E-18	3.660836E-19
5.590000E+03	3.686987E-18	3.702270E-19
5.600000E+03	3.694115E-18	3.743759E-19
5.610000E+03	3.700394E-18	3.785277E-19
5.620000E+03	3.705807E-18	3.826764E-19
5.630000E+03	3.710299E-18	3.868119E-19
5.640000E+03	3.713855E-18	3.909287E-19
5.650000E+03	3.716499E-18	3.950253E-19
5.660000E+03	3.718219E-18	3.990969E-19
5.670000E+03	3.718965E-18	4.031347E-19
5.680000E+03	3.718767E-18	4.071386E-19
5.690000E+03	3.717657E-18	4.111089E-19
5.700000E+03	3.715553E-18	4.150336E-19
5.710000E+03	3.712492E-18	4.189134E-19
5.720000E+03	3.708512E-18	4.227496E-19
5.730000E+03	3.703615E-18	4.265391E-19
5.740000E+03	3.697806E-18	4.302791E-19
5.750000E+03	3.691091E-18	4.339666E-19
5.760000E+03	3.683479E-18	4.375984E-19
5.770000E+03	3.675019E-18	4.411758E-19
5.780000E+03	3.665685E-18	4.446906E-19
5.790000E+03	3.655569E-18	4.481486E-19
5.800000E+03	3.644650E-18	4.515407E-19
5.810000E+03	3.632945E-18	4.548625E-19
5.820000E+03	3.620553E-18	4.581191E-19
5.830000E+03	3.607420E-18	4.612956E-19
5.840000E+03	3.593609E-18	4.643916E-19
5.850000E+03	3.579188E-18	4.674067E-19
5.860000E+03	3.564146E-18	4.703305E-19
5.870000E+03	3.548556E-18	4.731626E-19
5.880000E+03	3.532411E-18	4.758923E-19
5.890000E+03	3.515825E-18	4.785252E-19
5.900000E+03	3.498799E-18	4.810511E-19
5.910000E+03	3.481370E-18	4.834655E-19
5.920000E+03	3.463618E-18	4.857698E-19
5.930000E+03	3.445545E-18	4.879552E-19
5.940000E+03	3.427231E-18	4.900240E-19
5.950000E+03	3.408678E-18	4.919685E-19
5.960000E+03	3.389966E-18	4.937924E-19
5.970000E+03	3.371136E-18	4.954945E-19
5.980000E+03	3.352226E-18	4.970744E-19
5.990000E+03	3.333237E-18	4.985263E-19
6.000000E+03	3.314245E-18	4.998564E-19
6.010000E+03	3.295285E-18	5.010660E-19
6.020000E+03	3.276354E-18	5.021507E-19
6.030000E+03	3.257523E-18	5.031185E-19
6.040000E+03	3.238786E-18	5.039659E-19
6.050000E+03	3.220135E-18	5.046896E-19
6.060000E+03	3.201676E-18	5.053048E-19
6.070000E+03	3.183358E-18	5.058028E-19
6.080000E+03	3.165246E-18	5.061934E-19
6.090000E+03	3.147288E-18	5.064681E-19
6.100000E+03	3.129544E-18	5.066371E-19
6.110000E+03	3.111998E-18	5.066984E-19
6.120000E+03	3.094669E-18	5.066561E-19
6.130000E+03	3.077575E-18	5.065145E-19
6.140000E+03	3.060695E-18	5.062718E-19
6.150000E+03	3.044044E-18	5.059321E-19
6.160000E+03	3.027635E-18	5.055000E-19
6.170000E+03	3.011482E-18	5.049796E-19
6.180000E+03	2.995595E-18	5.043754E-19
6.190000E+03	2.979947E-18	5.036851E-19
6.200000E+03	2.964582E-18	5.029194E-19
6.210000E+03	2.949510E-18	5.020822E-19
6.220000E+03	2.934735E-18	5.011778E-19
6.230000E+03	2.920301E-18	5.002164E-19
6.240000E+03	2.906250E-18	4.992086E-19
6.250000E+03	2.892624E-18	4.981649E-19
6.260000E+03	2.879463E-18	4.970955E-19
6.270000E+03	2.866808E-18	4.960108E-19
6.280000E+03	2.854737E-18	4.949280E-19
6.290000E+03	2.843212E-18	4.938439E-19
6.300000E+03	2.832389E-18	4.927890E-19
6.310000E+03	2.822230E-18	4.917600E-19
6.320000E+03	2.812813E-18	4.907741E-19
6.330000E+03	2.804178E-18	4.898414E-19
6.340000E+03	2.796365E-18	4.889723E-19
6.350000E+03	2.789376E-18	4.881700E-19
6.360000E+03	2.783251E-18	4.874449E-19
6.370000E+03	2.778032E-18	4.868071E-19
6.380000E+03	2.773722E-18	4.862598E-19
6.390000E+03	2.770323E-18	4.858062E-19
6.400000E+03	2.767879E-18	4.854565E-19
6.410000E+03	2.766313E-18	4.851995E-19
6.420000E+03	2.765627E-18	4.850382E-19
6.430000E+03	2.765784E-18	4.849679E-19
6.440000E+03	2.766704E-18	4.849769E-19
6.450000E+03	2.768431E-18	4.850747E-19
6.460000E+03	2.770883E-18	4.852490E-19
6.470000E+03	2.774104E-18	4.855093E-19
6.480000E+03	2.778096E-18	4.858575E-19
6.490000E+03	2.782820E-18	4.862882E-19
6.500000E+03	2.788276E-18	4.868034E-19
6.510000E+03	2.794467E-18	4.874048E-19
6.520000E+03	2.801395E-18	4.880942E-19
6.530000E+03	2.809063E-18	4.888732E-19
6.540000E+03	2.817517E-18	4.897511E-19
6.550000E+03	2.826716E-18	4.907221E-19
6.560000E+03	2.836618E-18	4.917797E-19
6.570000E+03	2.847316E-18	4.929412E-19
6.580000E+03	2.858722E-18	4.941922E-19
6.590000E+03	2.870886E-18	4.955420E-19
6.600000E+03	2.883810E-18	4.969921E-19
6.610000E+03	2.897499E-18	4.985437E-19
6.620000E+03	2.911956E-18	5.001983E-19
6.630000E+03	2.927138E-18	5.019489E-19
6.640000E+03	2.943096E-18	5.038048E-19
6.650000E+03	2.959786E-18	5.057590E-19
6.660000E+03	2.977260E-18	5.078211E-19
6.670000E+03	2.995473E-18	5.099835E-19
6.680000E+03	3.014430E-18	5.122475E-19
6.690000E+03	3.034184E-18	5.146226E-19
6.700000E+03	3.054743E-18	5.171101E-19
6.710000E+03	3.076007E-18	5.196935E-19
6.720000E+03	3.098084E-18	5.223914E-19
6.730000E+03	3.120874E-18	5.251868E-19
6.740000E+03	3.144490E-18	5.280989E-19
6.750000E+03	3.168881E-18	5.311195E-19
6.760000E+03	3.193999E-18	5.342403E-19
6.770000E+03	3.219960E-18	5.374809E-19
6.780000E+03	3.246657E-18	5.408233E-19
6.790000E+03	3.274151E-18	5.442778E-19
6.800000E+03	3.302449E-18	5.478455E-19
6.810000E+03	3.331557E-18	5.515271E-19
6.820000E+03	3.361420E-18	5.553137E-19
6.830000E+03	3.392104E-18	5.592159E-19
6.840000E+03	3.423554E-18	5.632243E-19
6.850000E+03	3.455836E-18	5.673499E-19
6.860000E+03	3.488892E-18	5.715830E-19
6.870000E+03	3.522728E-18	5.759241E-19
6.880000E+03	3.557411E-18	5.803844E-19
6.890000E+03	3.592816E-18	5.849430E-19
6.900000E+03	3.629080E-18	5.896218E-19
6.910000E+03	3.666138E-18	5.944106E-19
6.920000E+03	3.703997E-18	5.993096E-19
6.930000E+03	3.742658E-18	6.043193E-19
6.940000E+03	3.782125E-18	6.094399E-19
6.950000E+03	3.822329E-18	6.146600E-19
6.960000E+03	3.863343E-18	6.199912E-19
6.970000E+03	3.905171E-18	6.254338E-19
6.980000E+03	3.947815E-18	6.309881E-19
6.990000E+03	3.991124E-18	6.366295E-19
7.000000E+03	4.035328E-18	6.423947E-19
7.010000E+03	4.080194E-18	6.482465E-19
7.020000E+03	4.125879E-18	6.542095E-19
7.030000E+03	4.172303E-18	6.602709E-19
7.040000E+03	4.219463E-18	6.664302E-19
7.050000E+03	4.267359E-18	6.726871E-19
7.060000E+03	4.315986E-18	6.790409E-19
7.070000E+03	4.365255E-18	6.854775E-19
7.080000E+03	4.415247E-18	6.920095E-19
7.090000E+03	4.465958E-18	6.986364E-19
7.100000E+03	4.517295E-18	7.053433E-19
7.110000E+03	4.569339E-18	7.121434E-19
7.120000E+03	4.621993E-18	7.190213E-19
7.130000E+03	4.675248E-18	7.259756E-19
7.140000E+03	4.729093E-18	7.330049E-19
7.150000E+03	4.783616E-18	7.401231E-19
7.160000E+03	4.838611E-18	7.472983E-19
7.170000E+03	4.894061E-18	7.545283E-19
7.180000E+03	4.950156E-18	7.618426E-19
7.190000E+03	5.006679E-18	7.692081E-19
7.200000E+03	5.063611E-18	7.766223E-19
7.210000E+03	5.121041E-18	7.840994E-19
7.220000E+03	5.178845E-18	7.916208E-19
7.230000E+03	5.237003E-18	7.991838E-19
7.240000E+03	5.295494E-18	8.067860E-19
7.250000E+03	5.354295E-18	8.144245E-19
7.260000E+03	5.413502E-18	8.221143E-19
7.270000E+03	5.472858E-18	8.298174E-19
7.280000E+03	5.532574E-18	8.375665E-19
7.290000E+03	5.592510E-18	8.453410E-19
7.300000E+03	5.652639E-18	8.531378E-19
7.310000E+03	5.713061E-18	8.609726E-19
7.320000E+03	5.773626E-18	8.688239E-19
7.330000E+03	5.834435E-18	8.767077E-19
7.340000E+03	5.895466E-18	8.846214E-19
7.350000E+03	5.956829E-18	8.925824E-19
7.360000E+03	6.018506E-18	9.005887E-19
7.370000E+03	6.080615E-18	9.086588E-19
7.380000E+03	6.143003E-18	9.167705E-19
7.390000E+03	6.206077E-18	9.249851E-19
7.400000E+03	6.269835E-18	9.333027E-19
7.410000E+03	6.334129E-18	9.417018E-19
7.420000E+03	6.399396E-18	9.502475E-19
7.430000E+03	6.465497E-18	9.589195E-19
7.440000E+03	6.532589E-18	9.677410E-19
7.450000E+03	6.600528E-18	9.766907E-19
7.460000E+03	6.669475E-18	9.857925E-19
7.470000E+03	6.738964E-18	9.949773E-19
7.480000E+03	6.809307E-18	1.004291E-18
7.490000E+03	6.880018E-18	1.013662E-18
7.500000E+03	6.951246E-18	1.023111E-18
7.510000E+03	7.022811E-18	1.032613E-18
7.520000E+03	7.094524E-18	1.042139E-18
7.530000E+03	7.166535E-18	1.051709E-18
7.540000E+03	7.238295E-18	1.061245E-18
7.550000E+03	7.310122E-18	1.070790E-18
7.560000E+03	7.381806E-18	1.080315E-18
7.570000E+03	7.453312E-18	1.089812E-18
7.580000E+03	7.524420E-18	1.099251E-18
7.590000E+03	7.595273E-18	1.108649E-18
7.600000E+03	7.665643E-18	1.117974E-18
7.610000E+03	7.735485E-18	1.127219E-18
7.620000E+03	7.804947E-18	1.136403E-18
7.630000E+03	7.873792E-18	1.145493E-18
7.640000E+03	7.942174E-18	1.154509E-18
7.650000E+03	8.009646E-18	1.163387E-18
7.660000E+03	8.076562E-18	1.172177E-18
7.670000E+03	8.142673E-18	1.180842E-18
7.680000E+03	8.208139E-18	1.189406E-18
7.690000E+03	8.272705E-18	1.197831E-18
7.700000E+03	8.336321E-18	1.206109E-18
7.710000E+03	8.398936E-18	1.214234E-18
7.720000E+03	8.460939E-18	1.222261E-18
7.730000E+03	8.521629E-18	1.230089E-18
7.740000E+03	8.581620E-18	1.237807E-18
7.750000E+03	8.640423E-18	1.245345E-18
7.760000E+03	8.698218E-18	1.252727E-18
