#wls	flux	fluxerr
1.600000E+03	1.699040E-16	1.663627E-16
1.640000E+03	1.751655E-16	1.686664E-16
1.680000E+03	1.801424E-16	1.704618E-16
1.720000E+03	1.847820E-16	1.717085E-16
1.760000E+03	1.890085E-16	1.723493E-16
1.800000E+03	1.927601E-16	1.723460E-16
1.840000E+03	1.959544E-16	1.716476E-16
1.880000E+03	1.985424E-16	1.702394E-16
1.920000E+03	2.004564E-16	1.680960E-16
1.960000E+03	2.016133E-16	1.651863E-16
2.000000E+03	2.019670E-16	1.615172E-16
2.040000E+03	2.014451E-16	1.570802E-16
2.080000E+03	1.999860E-16	1.518836E-16
2.120000E+03	1.975701E-16	1.459732E-16
2.160000E+03	1.941249E-16	1.393610E-16
2.200000E+03	1.896077E-16	1.320881E-16
2.240000E+03	1.839753E-16	1.242006E-16
2.280000E+03	1.771571E-16	1.157328E-16
2.320000E+03	1.693669E-16	1.069064E-16
2.360000E+03	1.608230E-16	9.792843E-17
2.400000E+03	1.517004E-16	8.896187E-17
2.440000E+03	1.421484E-16	8.013976E-17
2.480000E+03	1.323104E-16	7.157837E-17
2.520000E+03	1.223179E-16	6.337402E-17
2.560000E+03	1.122881E-16	5.560307E-17
2.600000E+03	1.023409E-16	4.833132E-17
2.640000E+03	9.258709E-17	4.160781E-17
2.680000E+03	8.312776E-17	3.546595E-17
2.720000E+03	7.405447E-17	2.992434E-17
2.760000E+03	6.545214E-17	2.498917E-17
2.800000E+03	5.738328E-17	2.064947E-17
2.840000E+03	4.990090E-17	1.688432E-17
2.880000E+03	4.304844E-17	1.366418E-17
2.920000E+03	3.685398E-17	1.095079E-17
2.960000E+03	3.133140E-17	8.699593E-18
3.000000E+03	2.647444E-17	6.860234E-18
3.010000E+03	2.536129E-17	6.458428E-18
3.020000E+03	2.428754E-17	6.078142E-18
3.030000E+03	2.325292E-17	5.718622E-18
3.040000E+03	2.225654E-17	5.378975E-18
3.050000E+03	2.129752E-17	5.058329E-18
3.060000E+03	2.037542E-17	4.755935E-18
3.070000E+03	1.948883E-17	4.470848E-18
3.080000E+03	1.863767E-17	4.202441E-18
3.090000E+03	1.782053E-17	3.949810E-18
3.100000E+03	1.703681E-17	3.712256E-18
3.110000E+03	1.628552E-17	3.489013E-18
3.120000E+03	1.556598E-17	3.279405E-18
3.130000E+03	1.487717E-17	3.082704E-18
3.140000E+03	1.421810E-17	2.898210E-18
3.150000E+03	1.358806E-17	2.725301E-18
3.160000E+03	1.298579E-17	2.563270E-18
3.170000E+03	1.241084E-17	2.411587E-18
3.180000E+03	1.186199E-17	2.269597E-18
3.190000E+03	1.133850E-17	2.136764E-18
3.200000E+03	1.083943E-17	2.012533E-18
3.210000E+03	1.036384E-17	1.896377E-18
3.220000E+03	9.911002E-18	1.787826E-18
3.230000E+03	9.479987E-18	1.686403E-18
3.240000E+03	9.069752E-18	1.591628E-18
3.250000E+03	8.679880E-18	1.503155E-18
3.260000E+03	8.309071E-18	1.420501E-18
3.270000E+03	7.956903E-18	1.343358E-18
3.280000E+03	7.622295E-18	1.271318E-18
3.290000E+03	7.304583E-18	1.204064E-18
3.300000E+03	7.003102E-18	1.141293E-18
3.310000E+03	6.716889E-18	1.082667E-18
3.320000E+03	6.445430E-18	1.027937E-18
3.330000E+03	6.188019E-18	9.768356E-19
3.340000E+03	5.943889E-18	9.290992E-19
3.350000E+03	5.712401E-18	8.844962E-19
3.360000E+03	5.492943E-18	8.428104E-19
3.370000E+03	5.284999E-18	8.038512E-19
3.380000E+03	5.087857E-18	7.674080E-19
3.390000E+03	4.901121E-18	7.333271E-19
3.400000E+03	4.724143E-18	7.014257E-19
3.410000E+03	4.556440E-18	6.715540E-19
3.420000E+03	4.397609E-18	6.435809E-19
3.430000E+03	4.247044E-18	6.173531E-19
3.440000E+03	4.104442E-18	5.927677E-19
3.450000E+03	3.969358E-18	5.697070E-19
3.460000E+03	3.841282E-18	5.480497E-19
3.470000E+03	3.719965E-18	5.277169E-19
3.480000E+03	3.604953E-18	5.086045E-19
3.490000E+03	3.495944E-18	4.906350E-19
3.500000E+03	3.392618E-18	4.737309E-19
3.510000E+03	3.294562E-18	4.578059E-19
3.520000E+03	3.201541E-18	4.428011E-19
3.530000E+03	3.113229E-18	4.286478E-19
3.540000E+03	3.029328E-18	4.152837E-19
3.550000E+03	2.949590E-18	4.026559E-19
3.560000E+03	2.873730E-18	3.907078E-19
3.570000E+03	2.801510E-18	3.793919E-19
3.580000E+03	2.732686E-18	3.686608E-19
3.590000E+03	2.667083E-18	3.584786E-19
3.600000E+03	2.604512E-18	3.488084E-19
3.610000E+03	2.544771E-18	3.396131E-19
3.620000E+03	2.487722E-18	3.308651E-19
3.630000E+03	2.433233E-18	3.225386E-19
3.640000E+03	2.381133E-18	3.146038E-19
3.650000E+03	2.331371E-18	3.070474E-19
3.660000E+03	2.283790E-18	2.998427E-19
3.670000E+03	2.238322E-18	2.929756E-19
3.680000E+03	2.194880E-18	2.864299E-19
3.690000E+03	2.153381E-18	2.801902E-19
3.700000E+03	2.113760E-18	2.742441E-19
3.710000E+03	2.075973E-18	2.685820E-19
3.720000E+03	2.039901E-18	2.631852E-19
3.730000E+03	2.005538E-18	2.580493E-19
3.740000E+03	1.972785E-18	2.531590E-19
3.750000E+03	1.941600E-18	2.485060E-19
3.760000E+03	1.911939E-18	2.440820E-19
3.770000E+03	1.883713E-18	2.398733E-19
3.780000E+03	1.856909E-18	2.358762E-19
3.790000E+03	1.831458E-18	2.320795E-19
3.800000E+03	1.807320E-18	2.284762E-19
3.810000E+03	1.784441E-18	2.250576E-19
3.820000E+03	1.762785E-18	2.218174E-19
3.830000E+03	1.742303E-18	2.187474E-19
3.840000E+03	1.722961E-18	2.158419E-19
3.850000E+03	1.704713E-18	2.130932E-19
3.860000E+03	1.687542E-18	2.104978E-19
3.870000E+03	1.671406E-18	2.080487E-19
3.880000E+03	1.656261E-18	2.057393E-19
3.890000E+03	1.642083E-18	2.035651E-19
3.900000E+03	1.628832E-18	2.015198E-19
3.910000E+03	1.616495E-18	1.996010E-19
3.920000E+03	1.605037E-18	1.978030E-19
3.930000E+03	1.594432E-18	1.961218E-19
3.940000E+03	1.584648E-18	1.945523E-19
3.950000E+03	1.575649E-18	1.930893E-19
3.960000E+03	1.567439E-18	1.917323E-19
3.970000E+03	1.559962E-18	1.904735E-19
3.980000E+03	1.553210E-18	1.893109E-19
3.990000E+03	1.547153E-18	1.882399E-19
4.000000E+03	1.541772E-18	1.872574E-19
4.010000E+03	1.537052E-18	1.863602E-19
4.020000E+03	1.532951E-18	1.855426E-19
4.030000E+03	1.529466E-18	1.848032E-19
4.040000E+03	1.526569E-18	1.841380E-19
4.050000E+03	1.524248E-18	1.835443E-19
4.060000E+03	1.522475E-18	1.830185E-19
4.070000E+03	1.521227E-18	1.825568E-19
4.080000E+03	1.520504E-18	1.821587E-19
4.090000E+03	1.520270E-18	1.818195E-19
4.100000E+03	1.520515E-18	1.815373E-19
4.110000E+03	1.521230E-18	1.813104E-19
4.120000E+03	1.522383E-18	1.811344E-19
4.130000E+03	1.523976E-18	1.810091E-19
4.140000E+03	1.525980E-18	1.809303E-19
4.150000E+03	1.528386E-18	1.808964E-19
4.160000E+03	1.531188E-18	1.809061E-19
4.170000E+03	1.534356E-18	1.809551E-19
4.180000E+03	1.537896E-18	1.810436E-19
4.190000E+03	1.541767E-18	1.811660E-19
4.200000E+03	1.545987E-18	1.813239E-19
4.210000E+03	1.550515E-18	1.815121E-19
4.220000E+03	1.555347E-18	1.817293E-19
4.230000E+03	1.560468E-18	1.819734E-19
4.240000E+03	1.565873E-18	1.822432E-19
4.250000E+03	1.571524E-18	1.825337E-19
4.260000E+03	1.577430E-18	1.828456E-19
4.270000E+03	1.583564E-18	1.831753E-19
4.280000E+03	1.589902E-18	1.835193E-19
4.290000E+03	1.596441E-18	1.838770E-19
4.300000E+03	1.603167E-18	1.842465E-19
4.310000E+03	1.610043E-18	1.846228E-19
4.320000E+03	1.617054E-18	1.850043E-19
4.330000E+03	1.624186E-18	1.853888E-19
4.340000E+03	1.631425E-18	1.857747E-19
4.350000E+03	1.638757E-18	1.861599E-19
4.360000E+03	1.646180E-18	1.865441E-19
4.370000E+03	1.653678E-18	1.869252E-19
4.380000E+03	1.661235E-18	1.873014E-19
4.390000E+03	1.668876E-18	1.876750E-19
4.400000E+03	1.676584E-18	1.880441E-19
4.410000E+03	1.684357E-18	1.884081E-19
4.420000E+03	1.692206E-18	1.887679E-19
4.430000E+03	1.700129E-18	1.891233E-19
4.440000E+03	1.708108E-18	1.894722E-19
4.450000E+03	1.716157E-18	1.898159E-19
4.460000E+03	1.724261E-18	1.901528E-19
4.470000E+03	1.732417E-18	1.904829E-19
4.480000E+03	1.740627E-18	1.908064E-19
4.490000E+03	1.748863E-18	1.911204E-19
4.500000E+03	1.757140E-18	1.914270E-19
4.510000E+03	1.765449E-18	1.917253E-19
4.520000E+03	1.773776E-18	1.920145E-19
4.530000E+03	1.782128E-18	1.922955E-19
4.540000E+03	1.790481E-18	1.925663E-19
4.550000E+03	1.798841E-18	1.928281E-19
4.560000E+03	1.807216E-18	1.930824E-19
4.570000E+03	1.815600E-18	1.933292E-19
4.580000E+03	1.823971E-18	1.935671E-19
4.590000E+03	1.832340E-18	1.937980E-19
4.600000E+03	1.840702E-18	1.940223E-19
4.610000E+03	1.849054E-18	1.942406E-19
4.620000E+03	1.857410E-18	1.944550E-19
4.630000E+03	1.865750E-18	1.946646E-19
4.640000E+03	1.874089E-18	1.948715E-19
4.650000E+03	1.882428E-18	1.950762E-19
4.660000E+03	1.890765E-18	1.952794E-19
4.670000E+03	1.899101E-18	1.954812E-19
4.680000E+03	1.907437E-18	1.956818E-19
4.690000E+03	1.915774E-18	1.958812E-19
4.700000E+03	1.924146E-18	1.960825E-19
4.710000E+03	1.932557E-18	1.962853E-19
4.720000E+03	1.941008E-18	1.964889E-19
4.730000E+03	1.949537E-18	1.966961E-19
4.740000E+03	1.958131E-18	1.969042E-19
4.750000E+03	1.966794E-18	1.971124E-19
4.760000E+03	1.975548E-18	1.973215E-19
4.770000E+03	1.984399E-18	1.975307E-19
4.780000E+03	1.993333E-18	1.977372E-19
4.790000E+03	2.002374E-18	1.979421E-19
4.800000E+03	2.011530E-18	1.981448E-19
4.810000E+03	2.020789E-18	1.983432E-19
4.820000E+03	2.030176E-18	1.985387E-19
4.830000E+03	2.039698E-18	1.987316E-19
4.840000E+03	2.049364E-18	1.989224E-19
4.850000E+03	2.059183E-18	1.991118E-19
4.860000E+03	2.069143E-18	1.992992E-19
4.870000E+03	2.079292E-18	1.994900E-19
4.880000E+03	2.089601E-18	1.996824E-19
4.890000E+03	2.100081E-18	1.998787E-19
4.900000E+03	2.110760E-18	2.000833E-19
4.910000E+03	2.121650E-18	2.002987E-19
4.920000E+03	2.132761E-18	2.005278E-19
4.930000E+03	2.144065E-18	2.007698E-19
4.940000E+03	2.155611E-18	2.010310E-19
4.950000E+03	2.167392E-18	2.013125E-19
4.960000E+03	2.179417E-18	2.016168E-19
4.970000E+03	2.191698E-18	2.019463E-19
4.980000E+03	2.204246E-18	2.023030E-19
4.990000E+03	2.217048E-18	2.026867E-19
5.000000E+03	2.230115E-18	2.030986E-19
5.010000E+03	2.243476E-18	2.035413E-19
5.020000E+03	2.257117E-18	2.040132E-19
5.030000E+03	2.271022E-18	2.045120E-19
5.040000E+03	2.285242E-18	2.050411E-19
5.050000E+03	2.299715E-18	2.055937E-19
5.060000E+03	2.314489E-18	2.061724E-19
5.070000E+03	2.329568E-18	2.067761E-19
5.080000E+03	2.344890E-18	2.073977E-19
5.090000E+03	2.360524E-18	2.080418E-19
5.100000E+03	2.376428E-18	2.087036E-19
5.110000E+03	2.392604E-18	2.093824E-19
5.120000E+03	2.409077E-18	2.100798E-19
5.130000E+03	2.425802E-18	2.107919E-19
5.140000E+03	2.442780E-18	2.115192E-19
5.150000E+03	2.460036E-18	2.122652E-19
5.160000E+03	2.477545E-18	2.130297E-19
5.170000E+03	2.495309E-18	2.138156E-19
5.180000E+03	2.513302E-18	2.146242E-19
5.190000E+03	2.531548E-18	2.154619E-19
5.200000E+03	2.549996E-18	2.163295E-19
5.210000E+03	2.568695E-18	2.172368E-19
5.220000E+03	2.587617E-18	2.181875E-19
5.230000E+03	2.606733E-18	2.191861E-19
5.240000E+03	2.626040E-18	2.202393E-19
5.250000E+03	2.645557E-18	2.213563E-19
5.260000E+03	2.665226E-18	2.225399E-19
5.270000E+03	2.685066E-18	2.237995E-19
5.280000E+03	2.705094E-18	2.251447E-19
5.290000E+03	2.725220E-18	2.265760E-19
5.300000E+03	2.745512E-18	2.281071E-19
5.310000E+03	2.765875E-18	2.297382E-19
5.320000E+03	2.786376E-18	2.314826E-19
5.330000E+03	2.806916E-18	2.333394E-19
5.340000E+03	2.827531E-18	2.353188E-19
5.350000E+03	2.848205E-18	2.374257E-19
5.360000E+03	2.868888E-18	2.396620E-19
5.370000E+03	2.889620E-18	2.420359E-19
5.380000E+03	2.910295E-18	2.445429E-19
5.390000E+03	2.930981E-18	2.471922E-19
5.400000E+03	2.951629E-18	2.499824E-19
5.410000E+03	2.972223E-18	2.529140E-19
5.420000E+03	2.992743E-18	2.559865E-19
5.430000E+03	3.013172E-18	2.591988E-19
5.440000E+03	3.033463E-18	2.625465E-19
5.450000E+03	3.053597E-18	2.660270E-19
5.460000E+03	3.073555E-18	2.696374E-19
5.470000E+03	3.093319E-18	2.733736E-19
5.480000E+03	3.112834E-18	2.772286E-19
5.490000E+03	3.132049E-18	2.811944E-19
5.500000E+03	3.150970E-18	2.852684E-19
5.510000E+03	3.169540E-18	2.894416E-19
5.520000E+03	3.187699E-18	2.937049E-19
5.530000E+03	3.205388E-18	2.980486E-19
5.540000E+03	3.222609E-18	3.024690E-19
5.550000E+03	3.239267E-18	3.069529E-19
5.560000E+03	3.255363E-18	3.114962E-19
5.570000E+03	3.270800E-18	3.160855E-19
5.580000E+03	3.285544E-18	3.207131E-19
5.590000E+03	3.299598E-18	3.253745E-19
5.600000E+03	3.312859E-18	3.300556E-19
5.610000E+03	3.325330E-18	3.347518E-19
5.620000E+03	3.336976E-18	3.394554E-19
5.630000E+03	3.347731E-18	3.441557E-19
5.640000E+03	3.357562E-18	3.488453E-19
5.650000E+03	3.366473E-18	3.535211E-19
5.660000E+03	3.374435E-18	3.581768E-19
5.670000E+03	3.381386E-18	3.628030E-19
5.680000E+03	3.387337E-18	3.673980E-19
5.690000E+03	3.392301E-18	3.719608E-19
5.700000E+03	3.396189E-18	3.764794E-19
5.710000E+03	3.399021E-18	3.809535E-19
5.720000E+03	3.400819E-18	3.853833E-19
5.730000E+03	3.401573E-18	3.897655E-19
5.740000E+03	3.401277E-18	3.940967E-19
5.750000E+03	3.399926E-18	3.983736E-19
5.760000E+03	3.397519E-18	4.025925E-19
5.770000E+03	3.394090E-18	4.067541E-19
5.780000E+03	3.389607E-18	4.108497E-19
5.790000E+03	3.384147E-18	4.148833E-19
5.800000E+03	3.377680E-18	4.188451E-19
5.810000E+03	3.370216E-18	4.227290E-19
5.820000E+03	3.361839E-18	4.265376E-19
5.830000E+03	3.352491E-18	4.302547E-19
5.840000E+03	3.342228E-18	4.338772E-19
5.850000E+03	3.331105E-18	4.374022E-19
5.860000E+03	3.319112E-18	4.408170E-19
5.870000E+03	3.306315E-18	4.441186E-19
5.880000E+03	3.292710E-18	4.472945E-19
5.890000E+03	3.278407E-18	4.503472E-19
5.900000E+03	3.263411E-18	4.532649E-19
5.910000E+03	3.247765E-18	4.560414E-19
5.920000E+03	3.231552E-18	4.586761E-19
5.930000E+03	3.214783E-18	4.611592E-19
5.940000E+03	3.197543E-18	4.634917E-19
5.950000E+03	3.179842E-18	4.656655E-19
5.960000E+03	3.161764E-18	4.676833E-19
5.970000E+03	3.143356E-18	4.695438E-19
5.980000E+03	3.124662E-18	4.712464E-19
5.990000E+03	3.105691E-18	4.727856E-19
6.000000E+03	3.086522E-18	4.741678E-19
6.010000E+03	3.067197E-18	4.753945E-19
6.020000E+03	3.047720E-18	4.764621E-19
6.030000E+03	3.028166E-18	4.773790E-19
6.040000E+03	3.008538E-18	4.781426E-19
6.050000E+03	2.988834E-18	4.787509E-19
6.060000E+03	2.969162E-18	4.792192E-19
6.070000E+03	2.949483E-18	4.795405E-19
6.080000E+03	2.929863E-18	4.797250E-19
6.090000E+03	2.910263E-18	4.797661E-19
6.100000E+03	2.890745E-18	4.796746E-19
6.110000E+03	2.871301E-18	4.794499E-19
6.120000E+03	2.851956E-18	4.790973E-19
6.130000E+03	2.832735E-18	4.786221E-19
6.140000E+03	2.813624E-18	4.780240E-19
6.150000E+03	2.794644E-18	4.773084E-19
6.160000E+03	2.775814E-18	4.764808E-19
6.170000E+03	2.757152E-18	4.755467E-19
6.180000E+03	2.738674E-18	4.745115E-19
6.190000E+03	2.720361E-18	4.733747E-19
6.200000E+03	2.702261E-18	4.721475E-19
6.210000E+03	2.684386E-18	4.708352E-19
6.220000E+03	2.666747E-18	4.694429E-19
6.230000E+03	2.649389E-18	4.679819E-19
6.240000E+03	2.632355E-18	4.664631E-19
6.250000E+03	2.615688E-18	4.648977E-19
6.260000E+03	2.599427E-18	4.632965E-19
6.270000E+03	2.583614E-18	4.616703E-19
6.280000E+03	2.568322E-18	4.600360E-19
6.290000E+03	2.553521E-18	4.583919E-19
6.300000E+03	2.539352E-18	4.567671E-19
6.310000E+03	2.525784E-18	4.551594E-19
6.320000E+03	2.512887E-18	4.535855E-19
6.330000E+03	2.500700E-18	4.520554E-19
6.340000E+03	2.489259E-18	4.505794E-19
6.350000E+03	2.478565E-18	4.491610E-19
6.360000E+03	2.468654E-18	4.478101E-19
6.370000E+03	2.459565E-18	4.465365E-19
6.380000E+03	2.451297E-18	4.453435E-19
6.390000E+03	2.443854E-18	4.442344E-19
6.400000E+03	2.437273E-18	4.432186E-19
6.410000E+03	2.431484E-18	4.422863E-19
6.420000E+03	2.426491E-18	4.414404E-19
6.430000E+03	2.422258E-18	4.406769E-19
6.440000E+03	2.418716E-18	4.399853E-19
6.450000E+03	2.415902E-18	4.393745E-19
6.460000E+03	2.413745E-18	4.388336E-19
6.470000E+03	2.412282E-18	4.383713E-19
6.480000E+03	2.411515E-18	4.379898E-19
6.490000E+03	2.411408E-18	4.376842E-19
6.500000E+03	2.411963E-18	4.374564E-19
6.510000E+03	2.413181E-18	4.373081E-19
6.520000E+03	2.415063E-18	4.372412E-19
6.530000E+03	2.417610E-18	4.372572E-19
6.540000E+03	2.420864E-18	4.373645E-19
6.550000E+03	2.424786E-18	4.375578E-19
6.560000E+03	2.429341E-18	4.378317E-19
6.570000E+03	2.434609E-18	4.382013E-19
6.580000E+03	2.440512E-18	4.386541E-19
6.590000E+03	2.447092E-18	4.391983E-19
6.600000E+03	2.454351E-18	4.398351E-19
6.610000E+03	2.462293E-18	4.405657E-19
6.620000E+03	2.470918E-18	4.413913E-19
6.630000E+03	2.480190E-18	4.423058E-19
6.640000E+03	2.490151E-18	4.433173E-19
6.650000E+03	2.500763E-18	4.444195E-19
6.660000E+03	2.512069E-18	4.456208E-19
6.670000E+03	2.524032E-18	4.469147E-19
6.680000E+03	2.536652E-18	4.483019E-19
6.690000E+03	2.549977E-18	4.497911E-19
6.700000E+03	2.564010E-18	4.513831E-19
6.710000E+03	2.578667E-18	4.530634E-19
6.720000E+03	2.594040E-18	4.548483E-19
6.730000E+03	2.610042E-18	4.567230E-19
6.740000E+03	2.626769E-18	4.587041E-19
6.750000E+03	2.644178E-18	4.607845E-19
6.760000E+03	2.662227E-18	4.629569E-19
6.770000E+03	2.681014E-18	4.652383E-19
6.780000E+03	2.700449E-18	4.676132E-19
6.790000E+03	2.720583E-18	4.700906E-19
6.800000E+03	2.741423E-18	4.726712E-19
6.810000E+03	2.762971E-18	4.753558E-19
6.820000E+03	2.785185E-18	4.781366E-19
6.830000E+03	2.808117E-18	4.810229E-19
6.840000E+03	2.831722E-18	4.840067E-19
6.850000E+03	2.856055E-18	4.870972E-19
6.860000E+03	2.881068E-18	4.902863E-19
6.870000E+03	2.906766E-18	4.935745E-19
6.880000E+03	2.933206E-18	4.969712E-19
6.890000E+03	2.960282E-18	5.004586E-19
6.900000E+03	2.988108E-18	5.040556E-19
6.910000E+03	3.016632E-18	5.077534E-19
6.920000E+03	3.045858E-18	5.115522E-19
6.930000E+03	3.075788E-18	5.154524E-19
6.940000E+03	3.106425E-18	5.194543E-19
6.950000E+03	3.137713E-18	5.235482E-19
6.960000E+03	3.169712E-18	5.277441E-19
6.970000E+03	3.202424E-18	5.320423E-19
6.980000E+03	3.235854E-18	5.364430E-19
6.990000E+03	3.269876E-18	5.409255E-19
7.000000E+03	3.304679E-18	5.455211E-19
7.010000E+03	3.340074E-18	5.501981E-19
7.020000E+03	3.376189E-18	5.549778E-19
7.030000E+03	3.412959E-18	5.598491E-19
7.040000E+03	3.450383E-18	5.648120E-19
7.050000E+03	3.488459E-18	5.698662E-19
7.060000E+03	3.527186E-18	5.750112E-19
7.070000E+03	3.566492E-18	5.802353E-19
7.080000E+03	3.606442E-18	5.855494E-19
7.090000E+03	3.647035E-18	5.909531E-19
7.100000E+03	3.688195E-18	5.964339E-19
7.110000E+03	3.729990E-18	6.020031E-19
7.120000E+03	3.772341E-18	6.076480E-19
7.130000E+03	3.815241E-18	6.133674E-19
7.140000E+03	3.858682E-18	6.191604E-19
7.150000E+03	3.902738E-18	6.250387E-19
7.160000E+03	3.947241E-18	6.309756E-19
7.170000E+03	3.992179E-18	6.369693E-19
7.180000E+03	4.037706E-18	6.430449E-19
7.190000E+03	4.083647E-18	6.491744E-19
7.200000E+03	4.129988E-18	6.553558E-19
7.210000E+03	4.176802E-18	6.616013E-19
7.220000E+03	4.223989E-18	6.678951E-19
7.230000E+03	4.271534E-18	6.742351E-19
7.240000E+03	4.319420E-18	6.806191E-19
7.250000E+03	4.367630E-18	6.870448E-19
7.260000E+03	4.416243E-18	6.935249E-19
7.270000E+03	4.465050E-18	7.000272E-19
7.280000E+03	4.514225E-18	7.065792E-19
7.290000E+03	4.563652E-18	7.131634E-19
7.300000E+03	4.613312E-18	7.197770E-19
7.310000E+03	4.663286E-18	7.264333E-19
7.320000E+03	4.713451E-18	7.331137E-19
7.330000E+03	4.763892E-18	7.398316E-19
7.340000E+03	4.814589E-18	7.465847E-19
7.350000E+03	4.865633E-18	7.533872E-19
7.360000E+03	4.917008E-18	7.602373E-19
7.370000E+03	4.968812E-18	7.671503E-19
7.380000E+03	5.020920E-18	7.741072E-19
7.390000E+03	5.073664E-18	7.811594E-19
7.400000E+03	5.127041E-18	7.883067E-19
7.410000E+03	5.180932E-18	7.955306E-19
7.420000E+03	5.235693E-18	8.028859E-19
7.430000E+03	5.291210E-18	8.103550E-19
7.440000E+03	5.347611E-18	8.179573E-19
7.450000E+03	5.404778E-18	8.256744E-19
7.460000E+03	5.462843E-18	8.335264E-19
7.470000E+03	5.521423E-18	8.414543E-19
7.480000E+03	5.580775E-18	8.494970E-19
7.490000E+03	5.640497E-18	8.575933E-19
7.500000E+03	5.700711E-18	8.657612E-19
7.510000E+03	5.761270E-18	8.739781E-19
7.520000E+03	5.822017E-18	8.822198E-19
7.530000E+03	5.883073E-18	8.905043E-19
7.540000E+03	5.943987E-18	8.987631E-19
7.550000E+03	6.005018E-18	9.070346E-19
7.560000E+03	6.065992E-18	9.152925E-19
7.570000E+03	6.126880E-18	9.235317E-19
7.580000E+03	6.187498E-18	9.317241E-19
7.590000E+03	6.247961E-18	9.398868E-19
7.600000E+03	6.308082E-18	9.479911E-19
7.610000E+03	6.367822E-18	9.560306E-19
7.620000E+03	6.427302E-18	9.640234E-19
7.630000E+03	6.486325E-18	9.719396E-19
7.640000E+03	6.545017E-18	9.797976E-19
7.650000E+03	6.603009E-18	9.875422E-19
7.660000E+03	6.660592E-18	9.952168E-19
7.670000E+03	6.717561E-18	1.002791E-18
7.680000E+03	6.774047E-18	1.010283E-18
7.690000E+03	6.829838E-18	1.017663E-18
7.700000E+03	6.884895E-18	1.024923E-18
7.710000E+03	6.939173E-18	1.032059E-18
7.720000E+03	6.992995E-18	1.039118E-18
7.730000E+03	7.045780E-18	1.046013E-18
7.740000E+03	7.098037E-18	1.052820E-18
7.750000E+03	7.149361E-18	1.059480E-18
7.760000E+03	7.199901E-18	1.066016E-18
