#wls	flux	fluxerr
1.600000E+03	1.260671E-16	1.220893E-16
1.640000E+03	1.303291E-16	1.241196E-16
1.680000E+03	1.344779E-16	1.258602E-16
1.720000E+03	1.384538E-16	1.272573E-16
1.760000E+03	1.422456E-16	1.283056E-16
1.800000E+03	1.457855E-16	1.289509E-16
1.840000E+03	1.490290E-16	1.291643E-16
1.880000E+03	1.519539E-16	1.289401E-16
1.920000E+03	1.544848E-16	1.282304E-16
1.960000E+03	1.565832E-16	1.270243E-16
2.000000E+03	1.581866E-16	1.252953E-16
2.040000E+03	1.592582E-16	1.230429E-16
2.080000E+03	1.597196E-16	1.202395E-16
2.120000E+03	1.595137E-16	1.168803E-16
2.160000E+03	1.585849E-16	1.129678E-16
2.200000E+03	1.568467E-16	1.084892E-16
2.240000E+03	1.542324E-16	1.034532E-16
2.280000E+03	1.507406E-16	9.791835E-17
2.320000E+03	1.464246E-16	9.197921E-17
2.360000E+03	1.414305E-16	8.578297E-17
2.400000E+03	1.358794E-16	7.945066E-17
2.440000E+03	1.298782E-16	7.308534E-17
2.480000E+03	1.235380E-16	6.678319E-17
2.520000E+03	1.169294E-16	6.060956E-17
2.560000E+03	1.101329E-16	5.462827E-17
2.600000E+03	1.032174E-16	4.889016E-17
2.640000E+03	9.625510E-17	4.344070E-17
2.680000E+03	8.930566E-17	3.831283E-17
2.720000E+03	8.242924E-17	3.353356E-17
2.760000E+03	7.568231E-17	2.912215E-17
2.800000E+03	6.911742E-17	2.509046E-17
2.840000E+03	6.278440E-17	2.144382E-17
2.880000E+03	5.673134E-17	1.818169E-17
2.920000E+03	5.100075E-17	1.529690E-17
2.960000E+03	4.562907E-17	1.277625E-17
3.000000E+03	4.064258E-17	1.060042E-17
3.010000E+03	3.945918E-17	1.010783E-17
3.020000E+03	3.830002E-17	9.634605E-18
3.030000E+03	3.716677E-17	9.180708E-18
3.040000E+03	3.605842E-17	8.745424E-18
3.050000E+03	3.497560E-17	8.328450E-18
3.060000E+03	3.391884E-17	7.929438E-18
3.070000E+03	3.288642E-17	7.547529E-18
3.080000E+03	3.188020E-17	7.182690E-18
3.090000E+03	3.089852E-17	6.834083E-18
3.100000E+03	2.994234E-17	6.501472E-18
3.110000E+03	2.901069E-17	6.184191E-18
3.120000E+03	2.810325E-17	5.881731E-18
3.130000E+03	2.722080E-17	5.593810E-18
3.140000E+03	2.636219E-17	5.319719E-18
3.150000E+03	2.552885E-17	5.059283E-18
3.160000E+03	2.471917E-17	4.811718E-18
3.170000E+03	2.393438E-17	4.576818E-18
3.180000E+03	2.317336E-17	4.353921E-18
3.190000E+03	2.243669E-17	4.142708E-18
3.200000E+03	2.172362E-17	3.942624E-18
3.210000E+03	2.103417E-17	3.753269E-18
3.220000E+03	2.036797E-17	3.574181E-18
3.230000E+03	1.972476E-17	3.404914E-18
3.240000E+03	1.910397E-17	3.244980E-18
3.250000E+03	1.850596E-17	3.094065E-18
3.260000E+03	1.793005E-17	2.951695E-18
3.270000E+03	1.737614E-17	2.817513E-18
3.280000E+03	1.684353E-17	2.691075E-18
3.290000E+03	1.633177E-17	2.571991E-18
3.300000E+03	1.584061E-17	2.459922E-18
3.310000E+03	1.536930E-17	2.354463E-18
3.320000E+03	1.491753E-17	2.255295E-18
3.330000E+03	1.448477E-17	2.162074E-18
3.340000E+03	1.407004E-17	2.074413E-18
3.350000E+03	1.367323E-17	1.992060E-18
3.360000E+03	1.329359E-17	1.914687E-18
3.370000E+03	1.293060E-17	1.842013E-18
3.380000E+03	1.258373E-17	1.773767E-18
3.390000E+03	1.225212E-17	1.709648E-18
3.400000E+03	1.193562E-17	1.649463E-18
3.410000E+03	1.163355E-17	1.592959E-18
3.420000E+03	1.134528E-17	1.539897E-18
3.430000E+03	1.107034E-17	1.490075E-18
3.440000E+03	1.080827E-17	1.443299E-18
3.450000E+03	1.055836E-17	1.399350E-18
3.460000E+03	1.032033E-17	1.358078E-18
3.470000E+03	1.009351E-17	1.319291E-18
3.480000E+03	9.877547E-18	1.282843E-18
3.490000E+03	9.671962E-18	1.248583E-18
3.500000E+03	9.476318E-18	1.216369E-18
3.510000E+03	9.290201E-18	1.186070E-18
3.520000E+03	9.113224E-18	1.157567E-18
3.530000E+03	8.944922E-18	1.130733E-18
3.540000E+03	8.784862E-18	1.105455E-18
3.550000E+03	8.632734E-18	1.081641E-18
3.560000E+03	8.488151E-18	1.059189E-18
3.570000E+03	8.350837E-18	1.038022E-18
3.580000E+03	8.220360E-18	1.018043E-18
3.590000E+03	8.096480E-18	9.991860E-19
3.600000E+03	7.978887E-18	9.813779E-19
3.610000E+03	7.867444E-18	9.645721E-19
3.620000E+03	7.761789E-18	9.486945E-19
3.630000E+03	7.661731E-18	9.336958E-19
3.640000E+03	7.566869E-18	9.195046E-19
3.650000E+03	7.477046E-18	9.060793E-19
3.660000E+03	7.392040E-18	8.933735E-19
3.670000E+03	7.311641E-18	8.813453E-19
3.680000E+03	7.235716E-18	8.699615E-19
3.690000E+03	7.164136E-18	8.591918E-19
3.700000E+03	7.096712E-18	8.490008E-19
3.710000E+03	7.033385E-18	8.393677E-19
3.720000E+03	6.973971E-18	8.302584E-19
3.730000E+03	6.918475E-18	8.216633E-19
3.740000E+03	6.866772E-18	8.135561E-19
3.750000E+03	6.818739E-18	8.059122E-19
3.760000E+03	6.774313E-18	7.987164E-19
3.770000E+03	6.733489E-18	7.919590E-19
3.780000E+03	6.696142E-18	7.856182E-19
3.790000E+03	6.662266E-18	7.796872E-19
3.800000E+03	6.631742E-18	7.741444E-19
3.810000E+03	6.604512E-18	7.689763E-19
3.820000E+03	6.580575E-18	7.641774E-19
3.830000E+03	6.559932E-18	7.597402E-19
3.840000E+03	6.542475E-18	7.556462E-19
3.850000E+03	6.528262E-18	7.518964E-19
3.860000E+03	6.517134E-18	7.484659E-19
3.870000E+03	6.509203E-18	7.453616E-19
3.880000E+03	6.504309E-18	7.425604E-19
3.890000E+03	6.502559E-18	7.400677E-19
3.900000E+03	6.503843E-18	7.378652E-19
3.910000E+03	6.508161E-18	7.359478E-19
3.920000E+03	6.515453E-18	7.343024E-19
3.930000E+03	6.525713E-18	7.329225E-19
3.940000E+03	6.538883E-18	7.317971E-19
3.950000E+03	6.555010E-18	7.309246E-19
3.960000E+03	6.573983E-18	7.302870E-19
3.970000E+03	6.595796E-18	7.298788E-19
3.980000E+03	6.620391E-18	7.296863E-19
3.990000E+03	6.647813E-18	7.297085E-19
4.000000E+03	6.678001E-18	7.299337E-19
4.010000E+03	6.710896E-18	7.303473E-19
4.020000E+03	6.746433E-18	7.309361E-19
4.030000E+03	6.784658E-18	7.316993E-19
4.040000E+03	6.825459E-18	7.326168E-19
4.050000E+03	6.868881E-18	7.336872E-19
4.060000E+03	6.914814E-18	7.348929E-19
4.070000E+03	6.963258E-18	7.362265E-19
4.080000E+03	7.014217E-18	7.376816E-19
4.090000E+03	7.067638E-18	7.392477E-19
4.100000E+03	7.123474E-18	7.409133E-19
4.110000E+03	7.181676E-18	7.426683E-19
4.120000E+03	7.242307E-18	7.445159E-19
4.130000E+03	7.305264E-18	7.464401E-19
4.140000E+03	7.370555E-18	7.484380E-19
4.150000E+03	7.438071E-18	7.504964E-19
4.160000E+03	7.507823E-18	7.526105E-19
4.170000E+03	7.579821E-18	7.547772E-19
4.180000E+03	7.653955E-18	7.569828E-19
4.190000E+03	7.730240E-18	7.592234E-19
4.200000E+03	7.808569E-18	7.614849E-19
4.210000E+03	7.888954E-18	7.637673E-19
4.220000E+03	7.971287E-18	7.660570E-19
4.230000E+03	8.055583E-18	7.683545E-19
4.240000E+03	8.141729E-18	7.706511E-19
4.250000E+03	8.229679E-18	7.729431E-19
4.260000E+03	8.319319E-18	7.752237E-19
4.270000E+03	8.410664E-18	7.775015E-19
4.280000E+03	8.503595E-18	7.797721E-19
4.290000E+03	8.598058E-18	7.820408E-19
4.300000E+03	8.693923E-18	7.843101E-19
4.310000E+03	8.791057E-18	7.865809E-19
4.320000E+03	8.889387E-18	7.888639E-19
4.330000E+03	8.988835E-18	7.911731E-19
4.340000E+03	9.089242E-18	7.935140E-19
4.350000E+03	9.190515E-18	7.959017E-19
4.360000E+03	9.292476E-18	7.983469E-19
4.370000E+03	9.395096E-18	8.008683E-19
4.380000E+03	9.498262E-18	8.034796E-19
4.390000E+03	9.602096E-18	8.062131E-19
4.400000E+03	9.706486E-18	8.090617E-19
4.410000E+03	9.811468E-18	8.120194E-19
4.420000E+03	9.916999E-18	8.150732E-19
4.430000E+03	1.002321E-17	8.182171E-19
4.440000E+03	1.013001E-17	8.214263E-19
4.450000E+03	1.023735E-17	8.246845E-19
4.460000E+03	1.034533E-17	8.279774E-19
4.470000E+03	1.045391E-17	8.312868E-19
4.480000E+03	1.056311E-17	8.345974E-19
4.490000E+03	1.067283E-17	8.378818E-19
4.500000E+03	1.078314E-17	8.411302E-19
4.510000E+03	1.089395E-17	8.443226E-19
4.520000E+03	1.100525E-17	8.474395E-19
4.530000E+03	1.111704E-17	8.504661E-19
4.540000E+03	1.122911E-17	8.533785E-19
4.550000E+03	1.134157E-17	8.561730E-19
4.560000E+03	1.145430E-17	8.588379E-19
4.570000E+03	1.156731E-17	8.613757E-19
4.580000E+03	1.168040E-17	8.637732E-19
4.590000E+03	1.179370E-17	8.660464E-19
4.600000E+03	1.190701E-17	8.681959E-19
4.610000E+03	1.202046E-17	8.702395E-19
4.620000E+03	1.213388E-17	8.721786E-19
4.630000E+03	1.224731E-17	8.740351E-19
4.640000E+03	1.236068E-17	8.758133E-19
4.650000E+03	1.247417E-17	8.775378E-19
4.660000E+03	1.258762E-17	8.792143E-19
4.670000E+03	1.270123E-17	8.808598E-19
4.680000E+03	1.281497E-17	8.824801E-19
4.690000E+03	1.292882E-17	8.840854E-19
4.700000E+03	1.304300E-17	8.856900E-19
4.710000E+03	1.315737E-17	8.872892E-19
4.720000E+03	1.327204E-17	8.888991E-19
4.730000E+03	1.338687E-17	8.905062E-19
4.740000E+03	1.350203E-17	8.921144E-19
4.750000E+03	1.361729E-17	8.937058E-19
4.760000E+03	1.373279E-17	8.952689E-19
4.770000E+03	1.384845E-17	8.967794E-19
4.780000E+03	1.396442E-17	8.982358E-19
4.790000E+03	1.408058E-17	8.996065E-19
4.800000E+03	1.419695E-17	9.008753E-19
4.810000E+03	1.431354E-17	9.020352E-19
4.820000E+03	1.443037E-17	9.030715E-19
4.830000E+03	1.454742E-17	9.039801E-19
4.840000E+03	1.466457E-17	9.047609E-19
4.850000E+03	1.478196E-17	9.054288E-19
4.860000E+03	1.489960E-17	9.060037E-19
4.870000E+03	1.501734E-17	9.065101E-19
4.880000E+03	1.513521E-17	9.069770E-19
4.890000E+03	1.525338E-17	9.074548E-19
4.900000E+03	1.537158E-17	9.079777E-19
4.910000E+03	1.549012E-17	9.085966E-19
4.920000E+03	1.560886E-17	9.093445E-19
4.930000E+03	1.572768E-17	9.102564E-19
4.940000E+03	1.584671E-17	9.113456E-19
4.950000E+03	1.596592E-17	9.126170E-19
4.960000E+03	1.608513E-17	9.140693E-19
4.970000E+03	1.620445E-17	9.156845E-19
4.980000E+03	1.632351E-17	9.174206E-19
4.990000E+03	1.644257E-17	9.192771E-19
5.000000E+03	1.656136E-17	9.212005E-19
5.010000E+03	1.667965E-17	9.231444E-19
5.020000E+03	1.679747E-17	9.250907E-19
5.030000E+03	1.691455E-17	9.269850E-19
5.040000E+03	1.703076E-17	9.287938E-19
5.050000E+03	1.714596E-17	9.304961E-19
5.060000E+03	1.725997E-17	9.320537E-19
5.070000E+03	1.737246E-17	9.334329E-19
5.080000E+03	1.748339E-17	9.346302E-19
5.090000E+03	1.759236E-17	9.356003E-19
5.100000E+03	1.769913E-17	9.363198E-19
5.110000E+03	1.780328E-17	9.367700E-19
5.120000E+03	1.790474E-17	9.369301E-19
5.130000E+03	1.800294E-17	9.367668E-19
5.140000E+03	1.809801E-17	9.362952E-19
5.150000E+03	1.818940E-17	9.354618E-19
5.160000E+03	1.827711E-17	9.342543E-19
5.170000E+03	1.836078E-17	9.326646E-19
5.180000E+03	1.844003E-17	9.306803E-19
5.190000E+03	1.851483E-17	9.283329E-19
5.200000E+03	1.858481E-17	9.256603E-19
5.210000E+03	1.864977E-17	9.227022E-19
5.220000E+03	1.870949E-17	9.195233E-19
5.230000E+03	1.876360E-17	9.162009E-19
5.240000E+03	1.881186E-17	9.127987E-19
5.250000E+03	1.885388E-17	9.093913E-19
5.260000E+03	1.888960E-17	9.060821E-19
5.270000E+03	1.891860E-17	9.029054E-19
5.280000E+03	1.894061E-17	8.999139E-19
5.290000E+03	1.895538E-17	8.971721E-19
5.300000E+03	1.896247E-17	8.946907E-19
5.310000E+03	1.896161E-17	8.925011E-19
5.320000E+03	1.895254E-17	8.906476E-19
5.330000E+03	1.893503E-17	8.891341E-19
5.340000E+03	1.890868E-17	8.879683E-19
5.350000E+03	1.887345E-17	8.871867E-19
5.360000E+03	1.882918E-17	8.867705E-19
5.370000E+03	1.877570E-17	8.867114E-19
5.380000E+03	1.871271E-17	8.870040E-19
5.390000E+03	1.864056E-17	8.876266E-19
5.400000E+03	1.855911E-17	8.885427E-19
5.410000E+03	1.846881E-17	8.897568E-19
5.420000E+03	1.836970E-17	8.912142E-19
5.430000E+03	1.826228E-17	8.928925E-19
5.440000E+03	1.814687E-17	8.947767E-19
5.450000E+03	1.802431E-17	8.968452E-19
5.460000E+03	1.789496E-17	8.990648E-19
5.470000E+03	1.775920E-17	9.014143E-19
5.480000E+03	1.761740E-17	9.038292E-19
5.490000E+03	1.747035E-17	9.062745E-19
5.500000E+03	1.731848E-17	9.087112E-19
5.510000E+03	1.716259E-17	9.110857E-19
5.520000E+03	1.700346E-17	9.133587E-19
5.530000E+03	1.684189E-17	9.155068E-19
5.540000E+03	1.667869E-17	9.174904E-19
5.550000E+03	1.651484E-17	9.192947E-19
5.560000E+03	1.635115E-17	9.209080E-19
5.570000E+03	1.618879E-17	9.223150E-19
5.580000E+03	1.602844E-17	9.234853E-19
5.590000E+03	1.587139E-17	9.244415E-19
5.600000E+03	1.571820E-17	9.251599E-19
5.610000E+03	1.556992E-17	9.256600E-19
5.620000E+03	1.542747E-17	9.259755E-19
5.630000E+03	1.529119E-17	9.261009E-19
5.640000E+03	1.516212E-17	9.260909E-19
5.650000E+03	1.504061E-17	9.259750E-19
5.660000E+03	1.492686E-17	9.257731E-19
5.670000E+03	1.482163E-17	9.255548E-19
5.680000E+03	1.472485E-17	9.253519E-19
5.690000E+03	1.463677E-17	9.252155E-19
5.700000E+03	1.455760E-17	9.252053E-19
5.710000E+03	1.448736E-17	9.253790E-19
5.720000E+03	1.442596E-17	9.257808E-19
5.730000E+03	1.437329E-17	9.264608E-19
5.740000E+03	1.432936E-17	9.274815E-19
5.750000E+03	1.429417E-17	9.288828E-19
5.760000E+03	1.426724E-17	9.306763E-19
5.770000E+03	1.424889E-17	9.329240E-19
5.780000E+03	1.423879E-17	9.356131E-19
5.790000E+03	1.423723E-17	9.387710E-19
5.800000E+03	1.424410E-17	9.423964E-19
5.810000E+03	1.425962E-17	9.464859E-19
5.820000E+03	1.428389E-17	9.510275E-19
5.830000E+03	1.431718E-17	9.560218E-19
5.840000E+03	1.435943E-17	9.614296E-19
5.850000E+03	1.441077E-17	9.672242E-19
5.860000E+03	1.447145E-17	9.733934E-19
5.870000E+03	1.454170E-17	9.799085E-19
5.880000E+03	1.462128E-17	9.867128E-19
5.890000E+03	1.471059E-17	9.937972E-19
5.900000E+03	1.480956E-17	1.001108E-18
5.910000E+03	1.491848E-17	1.008617E-18
5.920000E+03	1.503745E-17	1.016296E-18
5.930000E+03	1.516633E-17	1.024095E-18
5.940000E+03	1.530535E-17	1.031996E-18
5.950000E+03	1.545451E-17	1.039978E-18
5.960000E+03	1.561362E-17	1.047998E-18
5.970000E+03	1.578296E-17	1.056058E-18
5.980000E+03	1.596211E-17	1.064123E-18
5.990000E+03	1.615114E-17	1.072184E-18
6.000000E+03	1.634988E-17	1.080231E-18
6.010000E+03	1.655798E-17	1.088252E-18
6.020000E+03	1.677538E-17	1.096249E-18
6.030000E+03	1.700143E-17	1.104196E-18
6.040000E+03	1.723620E-17	1.112132E-18
6.050000E+03	1.747893E-17	1.120032E-18
6.060000E+03	1.772937E-17	1.127922E-18
6.070000E+03	1.798687E-17	1.135819E-18
6.080000E+03	1.825085E-17	1.143739E-18
6.090000E+03	1.852049E-17	1.151704E-18
6.100000E+03	1.879489E-17	1.159751E-18
6.110000E+03	1.907352E-17	1.167934E-18
6.120000E+03	1.935487E-17	1.176270E-18
6.130000E+03	1.963827E-17	1.184849E-18
6.140000E+03	1.992229E-17	1.193707E-18
6.150000E+03	2.020591E-17	1.202923E-18
6.160000E+03	2.048704E-17	1.212531E-18
6.170000E+03	2.076473E-17	1.222620E-18
6.180000E+03	2.103700E-17	1.233229E-18
6.190000E+03	2.130229E-17	1.244425E-18
6.200000E+03	2.155911E-17	1.256191E-18
6.210000E+03	2.180766E-17	1.268491E-18
6.220000E+03	2.204854E-17	1.281296E-18
6.230000E+03	2.228244E-17	1.294551E-18
6.240000E+03	2.251013E-17	1.308205E-18
6.250000E+03	2.273160E-17	1.322166E-18
6.260000E+03	2.294832E-17	1.336404E-18
6.270000E+03	2.316007E-17	1.350804E-18
6.280000E+03	2.336784E-17	1.365333E-18
6.290000E+03	2.357235E-17	1.379924E-18
6.300000E+03	2.377343E-17	1.394474E-18
6.310000E+03	2.397184E-17	1.408954E-18
6.320000E+03	2.416802E-17	1.423303E-18
6.330000E+03	2.436243E-17	1.437480E-18
6.340000E+03	2.455488E-17	1.451425E-18
6.350000E+03	2.474585E-17	1.465100E-18
6.360000E+03	2.493550E-17	1.478466E-18
6.370000E+03	2.512397E-17	1.491504E-18
6.380000E+03	2.531109E-17	1.504159E-18
6.390000E+03	2.549668E-17	1.516397E-18
6.400000E+03	2.568053E-17	1.528200E-18
6.410000E+03	2.586278E-17	1.539550E-18
6.420000E+03	2.604322E-17	1.550424E-18
6.430000E+03	2.622085E-17	1.560775E-18
6.440000E+03	2.639690E-17	1.570668E-18
6.450000E+03	2.657151E-17	1.580121E-18
6.460000E+03	2.674520E-17	1.589196E-18
6.470000E+03	2.691891E-17	1.597955E-18
6.480000E+03	2.709243E-17	1.606409E-18
6.490000E+03	2.726671E-17	1.614655E-18
6.500000E+03	2.744193E-17	1.622713E-18
6.510000E+03	2.761868E-17	1.630640E-18
6.520000E+03	2.779627E-17	1.638436E-18
6.530000E+03	2.797613E-17	1.646190E-18
6.540000E+03	2.815756E-17	1.653879E-18
6.550000E+03	2.834111E-17	1.661568E-18
6.560000E+03	2.852693E-17	1.669264E-18
6.570000E+03	2.871468E-17	1.676958E-18
6.580000E+03	2.890492E-17	1.684710E-18
6.590000E+03	2.909781E-17	1.692513E-18
6.600000E+03	2.929301E-17	1.700350E-18
6.610000E+03	2.949066E-17	1.708245E-18
6.620000E+03	2.969088E-17	1.716186E-18
6.630000E+03	2.989429E-17	1.724205E-18
6.640000E+03	3.010003E-17	1.732268E-18
6.650000E+03	3.030868E-17	1.740389E-18
6.660000E+03	3.052032E-17	1.748573E-18
6.670000E+03	3.073450E-17	1.756813E-18
6.680000E+03	3.095179E-17	1.765125E-18
6.690000E+03	3.117166E-17	1.773483E-18
6.700000E+03	3.139468E-17	1.781941E-18
6.710000E+03	3.161978E-17	1.790427E-18
6.720000E+03	3.184751E-17	1.798976E-18
6.730000E+03	3.207844E-17	1.807646E-18
6.740000E+03	3.231148E-17	1.816364E-18
6.750000E+03	3.254722E-17	1.825169E-18
6.760000E+03	3.278510E-17	1.834052E-18
6.770000E+03	3.302575E-17	1.843023E-18
6.780000E+03	3.326862E-17	1.852040E-18
6.790000E+03	3.351375E-17	1.861109E-18
6.800000E+03	3.376181E-17	1.870219E-18
6.810000E+03	3.401167E-17	1.879273E-18
6.820000E+03	3.426462E-17	1.888323E-18
6.830000E+03	3.451948E-17	1.897234E-18
6.840000E+03	3.477757E-17	1.906020E-18
6.850000E+03	3.503766E-17	1.914578E-18
6.860000E+03	3.529973E-17	1.922828E-18
6.870000E+03	3.556442E-17	1.930747E-18
6.880000E+03	3.583168E-17	1.938303E-18
6.890000E+03	3.610012E-17	1.945368E-18
6.900000E+03	3.637096E-17	1.951987E-18
6.910000E+03	3.664342E-17	1.958126E-18
6.920000E+03	3.691803E-17	1.963800E-18
6.930000E+03	3.719324E-17	1.968940E-18
6.940000E+03	3.746954E-17	1.973621E-18
6.950000E+03	3.774675E-17	1.977835E-18
6.960000E+03	3.802392E-17	1.981564E-18
6.970000E+03	3.830156E-17	1.984897E-18
6.980000E+03	3.857944E-17	1.987831E-18
6.990000E+03	3.885660E-17	1.990356E-18
7.000000E+03	3.913279E-17	1.992527E-18
7.010000E+03	3.940782E-17	1.994349E-18
7.020000E+03	3.968228E-17	1.995896E-18
7.030000E+03	3.995441E-17	1.997151E-18
7.040000E+03	4.022564E-17	1.998197E-18
7.050000E+03	4.049423E-17	1.998986E-18
7.060000E+03	4.076083E-17	1.999616E-18
7.070000E+03	4.102454E-17	2.000039E-18
7.080000E+03	4.128606E-17	2.000314E-18
7.090000E+03	4.154531E-17	2.000488E-18
7.100000E+03	4.180143E-17	2.000495E-18
7.110000E+03	4.205354E-17	2.000299E-18
7.120000E+03	4.230330E-17	2.000016E-18
7.130000E+03	4.254989E-17	1.999560E-18
7.140000E+03	4.279332E-17	1.998920E-18
7.150000E+03	4.303362E-17	1.998113E-18
7.160000E+03	4.326995E-17	1.997032E-18
7.170000E+03	4.350323E-17	1.995686E-18
7.180000E+03	4.373263E-17	1.994032E-18
7.190000E+03	4.395823E-17	1.991984E-18
7.200000E+03	4.418107E-17	1.989531E-18
7.210000E+03	4.440036E-17	1.986614E-18
7.220000E+03	4.461718E-17	1.983173E-18
7.230000E+03	4.482980E-17	1.979057E-18
7.240000E+03	4.503927E-17	1.974289E-18
7.250000E+03	4.524568E-17	1.968772E-18
7.260000E+03	4.544907E-17	1.962460E-18
7.270000E+03	4.564947E-17	1.955355E-18
7.280000E+03	4.584679E-17	1.947385E-18
7.290000E+03	4.603992E-17	1.938490E-18
7.300000E+03	4.622968E-17	1.928752E-18
7.310000E+03	4.641588E-17	1.918144E-18
7.320000E+03	4.659829E-17	1.906701E-18
7.330000E+03	4.677565E-17	1.894479E-18
7.340000E+03	4.694878E-17	1.881538E-18
7.350000E+03	4.711851E-17	1.868003E-18
7.360000E+03	4.728258E-17	1.853949E-18
7.370000E+03	4.744186E-17	1.839496E-18
7.380000E+03	4.759618E-17	1.824805E-18
7.390000E+03	4.774645E-17	1.810152E-18
7.400000E+03	4.789153E-17	1.795642E-18
7.410000E+03	4.803238E-17	1.781549E-18
7.420000E+03	4.817004E-17	1.768243E-18
7.430000E+03	4.830351E-17	1.755939E-18
7.440000E+03	4.843509E-17	1.745077E-18
7.450000E+03	4.856272E-17	1.736045E-18
7.460000E+03	4.868776E-17	1.729282E-18
7.470000E+03	4.880940E-17	1.725247E-18
7.480000E+03	4.892907E-17	1.724567E-18
7.490000E+03	4.904495E-17	1.727656E-18
7.500000E+03	4.915860E-17	1.735088E-18
7.510000E+03	4.927049E-17	1.747393E-18
7.520000E+03	4.937975E-17	1.764512E-18
7.530000E+03	4.948859E-17	1.786000E-18
7.540000E+03	4.959461E-17	1.811186E-18
7.550000E+03	4.969901E-17	1.839344E-18
7.560000E+03	4.980068E-17	1.869704E-18
7.570000E+03	4.990090E-17	1.901642E-18
7.580000E+03	4.999866E-17	1.934331E-18
7.590000E+03	5.009537E-17	1.967125E-18
7.600000E+03	5.019003E-17	1.999421E-18
7.610000E+03	5.028275E-17	2.030715E-18
7.620000E+03	5.037483E-17	2.060691E-18
7.630000E+03	5.046514E-17	2.089090E-18
7.640000E+03	5.055369E-17	2.115776E-18
7.650000E+03	5.064169E-17	2.140803E-18
7.660000E+03	5.072787E-17	2.164242E-18
7.670000E+03	5.081333E-17	2.186273E-18
7.680000E+03	5.089541E-17	2.207016E-18
7.690000E+03	5.097643E-17	2.226867E-18
7.700000E+03	5.105621E-17	2.246005E-18
7.710000E+03	5.113330E-17	2.264598E-18
7.720000E+03	5.120877E-17	2.282964E-18
7.730000E+03	5.128119E-17	2.301183E-18
7.740000E+03	5.135039E-17	2.319420E-18
7.750000E+03	5.141751E-17	2.337934E-18
7.760000E+03	5.148235E-17	2.356811E-18
