#wls	flux	fluxerr
1.600000E+03	1.148442E-16	1.195845E-16
1.640000E+03	1.147291E-16	1.177974E-16
1.680000E+03	1.145261E-16	1.158847E-16
1.720000E+03	1.142223E-16	1.138370E-16
1.760000E+03	1.138144E-16	1.116558E-16
1.800000E+03	1.132878E-16	1.093325E-16
1.840000E+03	1.126472E-16	1.068772E-16
1.880000E+03	1.118854E-16	1.042898E-16
1.920000E+03	1.109864E-16	1.015626E-16
1.960000E+03	1.099356E-16	9.869040E-17
2.000000E+03	1.087201E-16	9.567116E-17
2.040000E+03	1.073361E-16	9.251203E-17
2.080000E+03	1.057468E-16	8.919300E-17
2.120000E+03	1.039436E-16	8.572046E-17
2.160000E+03	1.019100E-16	8.209575E-17
2.200000E+03	9.961461E-17	7.831019E-17
2.240000E+03	9.706522E-17	7.438813E-17
2.280000E+03	9.426476E-17	7.035030E-17
2.320000E+03	9.124613E-17	6.623941E-17
2.360000E+03	8.805041E-17	6.210171E-17
2.400000E+03	8.472346E-17	5.798367E-17
2.440000E+03	8.131657E-17	5.393171E-17
2.480000E+03	7.785960E-17	4.997425E-17
2.520000E+03	7.438834E-17	4.614084E-17
2.560000E+03	7.093005E-17	4.245273E-17
2.600000E+03	6.750044E-17	3.892200E-17
2.640000E+03	6.411669E-17	3.555998E-17
2.680000E+03	6.079040E-17	3.237324E-17
2.720000E+03	5.753521E-17	2.936811E-17
2.760000E+03	5.436082E-17	2.654749E-17
2.800000E+03	5.127762E-17	2.391338E-17
2.840000E+03	4.829507E-17	2.146613E-17
2.880000E+03	4.542820E-17	1.920722E-17
2.920000E+03	4.268941E-17	1.713541E-17
2.960000E+03	4.009040E-17	1.524774E-17
3.000000E+03	3.764695E-17	1.354129E-17
3.010000E+03	3.706227E-17	1.314249E-17
3.020000E+03	3.648806E-17	1.275449E-17
3.030000E+03	3.592447E-17	1.237716E-17
3.040000E+03	3.537240E-17	1.201063E-17
3.050000E+03	3.483191E-17	1.165473E-17
3.060000E+03	3.430311E-17	1.130930E-17
3.070000E+03	3.378609E-17	1.097419E-17
3.080000E+03	3.328094E-17	1.064922E-17
3.090000E+03	3.278780E-17	1.033425E-17
3.100000E+03	3.230744E-17	1.002932E-17
3.110000E+03	3.183994E-17	9.734249E-18
3.120000E+03	3.138475E-17	9.448659E-18
3.130000E+03	3.094324E-17	9.172759E-18
3.140000E+03	3.051427E-17	8.906001E-18
3.150000E+03	3.009857E-17	8.648396E-18
3.160000E+03	2.969681E-17	8.399927E-18
3.170000E+03	2.930851E-17	8.160248E-18
3.180000E+03	2.893433E-17	7.929332E-18
3.190000E+03	2.857382E-17	7.706851E-18
3.200000E+03	2.822763E-17	7.492769E-18
3.210000E+03	2.789584E-17	7.286904E-18
3.220000E+03	2.757807E-17	7.088948E-18
3.230000E+03	2.727495E-17	6.898859E-18
3.240000E+03	2.698656E-17	6.716458E-18
3.250000E+03	2.671305E-17	6.541573E-18
3.260000E+03	2.645453E-17	6.374031E-18
3.270000E+03	2.621115E-17	6.213663E-18
3.280000E+03	2.598304E-17	6.060302E-18
3.290000E+03	2.576995E-17	5.913689E-18
3.300000E+03	2.557288E-17	5.773854E-18
3.310000E+03	2.539118E-17	5.640450E-18
3.320000E+03	2.522546E-17	5.513414E-18
3.330000E+03	2.507552E-17	5.392506E-18
3.340000E+03	2.494198E-17	5.277662E-18
3.350000E+03	2.482505E-17	5.168727E-18
3.360000E+03	2.472423E-17	5.065404E-18
3.370000E+03	2.464053E-17	4.967704E-18
3.380000E+03	2.457350E-17	4.875341E-18
3.390000E+03	2.452377E-17	4.788253E-18
3.400000E+03	2.449166E-17	4.706307E-18
3.410000E+03	2.447679E-17	4.629241E-18
3.420000E+03	2.448019E-17	4.557065E-18
3.430000E+03	2.450151E-17	4.489529E-18
3.440000E+03	2.454114E-17	4.426521E-18
3.450000E+03	2.459946E-17	4.367931E-18
3.460000E+03	2.467653E-17	4.313594E-18
3.470000E+03	2.477309E-17	4.263465E-18
3.480000E+03	2.488892E-17	4.217334E-18
3.490000E+03	2.502445E-17	4.175109E-18
3.500000E+03	2.517983E-17	4.136651E-18
3.510000E+03	2.535581E-17	4.101926E-18
3.520000E+03	2.555223E-17	4.070752E-18
3.530000E+03	2.576925E-17	4.043004E-18
3.540000E+03	2.600766E-17	4.018659E-18
3.550000E+03	2.626697E-17	3.997505E-18
3.560000E+03	2.654767E-17	3.979477E-18
3.570000E+03	2.685020E-17	3.964514E-18
3.580000E+03	2.717436E-17	3.952464E-18
3.590000E+03	2.752059E-17	3.943270E-18
3.600000E+03	2.788864E-17	3.936787E-18
3.610000E+03	2.827855E-17	3.932917E-18
3.620000E+03	2.869065E-17	3.931606E-18
3.630000E+03	2.912425E-17	3.932672E-18
3.640000E+03	2.957988E-17	3.936104E-18
3.650000E+03	3.005705E-17	3.941759E-18
3.660000E+03	3.055554E-17	3.949540E-18
3.670000E+03	3.107471E-17	3.959302E-18
3.680000E+03	3.161446E-17	3.970981E-18
3.690000E+03	3.217431E-17	3.984467E-18
3.700000E+03	3.275334E-17	3.999605E-18
3.710000E+03	3.335116E-17	4.016314E-18
3.720000E+03	3.396699E-17	4.034466E-18
3.730000E+03	3.459956E-17	4.053888E-18
3.740000E+03	3.524885E-17	4.074555E-18
3.750000E+03	3.591306E-17	4.096237E-18
3.760000E+03	3.659127E-17	4.118814E-18
3.770000E+03	3.728282E-17	4.142195E-18
3.780000E+03	3.798555E-17	4.166124E-18
3.790000E+03	3.869899E-17	4.190534E-18
3.800000E+03	3.942112E-17	4.215190E-18
3.810000E+03	4.015096E-17	4.239969E-18
3.820000E+03	4.088712E-17	4.264703E-18
3.830000E+03	4.162776E-17	4.289176E-18
3.840000E+03	4.237140E-17	4.313208E-18
3.850000E+03	4.311693E-17	4.336658E-18
3.860000E+03	4.386245E-17	4.359299E-18
3.870000E+03	4.460690E-17	4.380985E-18
3.880000E+03	4.534844E-17	4.401494E-18
3.890000E+03	4.608610E-17	4.420682E-18
3.900000E+03	4.681859E-17	4.438371E-18
3.910000E+03	4.754471E-17	4.454391E-18
3.920000E+03	4.826381E-17	4.468614E-18
3.930000E+03	4.897452E-17	4.480845E-18
3.940000E+03	4.967647E-17	4.490979E-18
3.950000E+03	5.036950E-17	4.498917E-18
3.960000E+03	5.105227E-17	4.504459E-18
3.970000E+03	5.172586E-17	4.507613E-18
3.980000E+03	5.238979E-17	4.508241E-18
3.990000E+03	5.304422E-17	4.506260E-18
4.000000E+03	5.368996E-17	4.501641E-18
4.010000E+03	5.432714E-17	4.494288E-18
4.020000E+03	5.495749E-17	4.484237E-18
4.030000E+03	5.558203E-17	4.471457E-18
4.040000E+03	5.620198E-17	4.455929E-18
4.050000E+03	5.681830E-17	4.437609E-18
4.060000E+03	5.743358E-17	4.416573E-18
4.070000E+03	5.804966E-17	4.392830E-18
4.080000E+03	5.866859E-17	4.366394E-18
4.090000E+03	5.929261E-17	4.337284E-18
4.100000E+03	5.992416E-17	4.305518E-18
4.110000E+03	6.056637E-17	4.271155E-18
4.120000E+03	6.122159E-17	4.234175E-18
4.130000E+03	6.189339E-17	4.194629E-18
4.140000E+03	6.258506E-17	4.152524E-18
4.150000E+03	6.330012E-17	4.107864E-18
4.160000E+03	6.404231E-17	4.060641E-18
4.170000E+03	6.481565E-17	4.010844E-18
4.180000E+03	6.562496E-17	3.958488E-18
4.190000E+03	6.647369E-17	3.903483E-18
4.200000E+03	6.736721E-17	3.845841E-18
4.210000E+03	6.831124E-17	3.785578E-18
4.220000E+03	6.931003E-17	3.722632E-18
4.230000E+03	7.036988E-17	3.657065E-18
4.240000E+03	7.149618E-17	3.588922E-18
4.250000E+03	7.269579E-17	3.518383E-18
4.260000E+03	7.397462E-17	3.445670E-18
4.270000E+03	7.533874E-17	3.371153E-18
4.280000E+03	7.679625E-17	3.295490E-18
4.290000E+03	7.835215E-17	3.219471E-18
4.300000E+03	8.001463E-17	3.144380E-18
4.310000E+03	8.178975E-17	3.071880E-18
4.320000E+03	8.368398E-17	3.004222E-18
4.330000E+03	8.570258E-17	2.944302E-18
4.340000E+03	8.785165E-17	2.895789E-18
4.350000E+03	9.013598E-17	2.863026E-18
4.360000E+03	9.255892E-17	2.850851E-18
4.370000E+03	9.512672E-17	2.864345E-18
4.380000E+03	9.784277E-17	2.908069E-18
4.390000E+03	1.007139E-16	2.985594E-18
4.400000E+03	1.037468E-16	3.098873E-18
4.410000E+03	1.069520E-16	3.248164E-18
4.420000E+03	1.103385E-16	3.432104E-18
4.430000E+03	1.139203E-16	3.648358E-18
4.440000E+03	1.177088E-16	3.893923E-18
4.450000E+03	1.217151E-16	4.165621E-18
4.460000E+03	1.259532E-16	4.460488E-18
4.470000E+03	1.304330E-16	4.775697E-18
4.480000E+03	1.351647E-16	5.108751E-18
4.490000E+03	1.401578E-16	5.457439E-18
4.500000E+03	1.454205E-16	5.819805E-18
4.510000E+03	1.509587E-16	6.194048E-18
4.520000E+03	1.567795E-16	6.578643E-18
4.530000E+03	1.628874E-16	6.972152E-18
4.540000E+03	1.692837E-16	7.373181E-18
4.550000E+03	1.759675E-16	7.780417E-18
4.560000E+03	1.829388E-16	8.192776E-18
4.570000E+03	1.901936E-16	8.609209E-18
4.580000E+03	1.977215E-16	9.028621E-18
4.590000E+03	2.055157E-16	9.450379E-18
4.600000E+03	2.135567E-16	9.873603E-18
4.610000E+03	2.218283E-16	1.029798E-17
4.620000E+03	2.303083E-16	1.072338E-17
4.630000E+03	2.389678E-16	1.114989E-17
4.640000E+03	2.477753E-16	1.157807E-17
4.650000E+03	2.566900E-16	1.200863E-17
4.660000E+03	2.656758E-16	1.244313E-17
4.670000E+03	2.746806E-16	1.288294E-17
4.680000E+03	2.836586E-16	1.333017E-17
4.690000E+03	2.925567E-16	1.378689E-17
4.700000E+03	3.013239E-16	1.425531E-17
4.710000E+03	3.099048E-16	1.473717E-17
4.720000E+03	3.182535E-16	1.523406E-17
4.730000E+03	3.263238E-16	1.574664E-17
4.740000E+03	3.340863E-16	1.627527E-17
4.750000E+03	3.415069E-16	1.681889E-17
4.760000E+03	3.485685E-16	1.737615E-17
4.770000E+03	3.552573E-16	1.794494E-17
4.780000E+03	3.615621E-16	1.852242E-17
4.790000E+03	3.674831E-16	1.910581E-17
4.800000E+03	3.730172E-16	1.969173E-17
4.810000E+03	3.781684E-16	2.027692E-17
4.820000E+03	3.829426E-16	2.085818E-17
4.830000E+03	3.873481E-16	2.143241E-17
4.840000E+03	3.913902E-16	2.199646E-17
4.850000E+03	3.950869E-16	2.254808E-17
4.860000E+03	3.984373E-16	2.308412E-17
4.870000E+03	4.014599E-16	2.360279E-17
4.880000E+03	4.041617E-16	2.410189E-17
4.890000E+03	4.065571E-16	2.457986E-17
4.900000E+03	4.086483E-16	2.503468E-17
4.910000E+03	4.104492E-16	2.546522E-17
4.920000E+03	4.119694E-16	2.587030E-17
4.930000E+03	4.132138E-16	2.624863E-17
4.940000E+03	4.141957E-16	2.659963E-17
4.950000E+03	4.149197E-16	2.692231E-17
4.960000E+03	4.153988E-16	2.721637E-17
4.970000E+03	4.156336E-16	2.748085E-17
4.980000E+03	4.156415E-16	2.771603E-17
4.990000E+03	4.154235E-16	2.792120E-17
5.000000E+03	4.149937E-16	2.809666E-17
5.010000E+03	4.143580E-16	2.824228E-17
5.020000E+03	4.135313E-16	2.835864E-17
5.030000E+03	4.125247E-16	2.844619E-17
5.040000E+03	4.113414E-16	2.850493E-17
5.050000E+03	4.099978E-16	2.853582E-17
5.060000E+03	4.085062E-16	2.853969E-17
5.070000E+03	4.068792E-16	2.851743E-17
5.080000E+03	4.051213E-16	2.846946E-17
5.090000E+03	4.032538E-16	2.839742E-17
5.100000E+03	4.012891E-16	2.830242E-17
5.110000E+03	3.992277E-16	2.818476E-17
5.120000E+03	3.970936E-16	2.804645E-17
5.130000E+03	3.948903E-16	2.788812E-17
5.140000E+03	3.926284E-16	2.771093E-17
5.150000E+03	3.903178E-16	2.751604E-17
5.160000E+03	3.879635E-16	2.730431E-17
5.170000E+03	3.855770E-16	2.707709E-17
5.180000E+03	3.831610E-16	2.683516E-17
5.190000E+03	3.807209E-16	2.657952E-17
5.200000E+03	3.782604E-16	2.631111E-17
5.210000E+03	3.757747E-16	2.603030E-17
5.220000E+03	3.732726E-16	2.573846E-17
5.230000E+03	3.707505E-16	2.543611E-17
5.240000E+03	3.682033E-16	2.512377E-17
5.250000E+03	3.656289E-16	2.480215E-17
5.260000E+03	3.630239E-16	2.447197E-17
5.270000E+03	3.603807E-16	2.413367E-17
5.280000E+03	3.576979E-16	2.378821E-17
5.290000E+03	3.549630E-16	2.343584E-17
5.300000E+03	3.521742E-16	2.307756E-17
5.310000E+03	3.493185E-16	2.271376E-17
5.320000E+03	3.463941E-16	2.234555E-17
5.330000E+03	3.433923E-16	2.197372E-17
5.340000E+03	3.403087E-16	2.159934E-17
5.350000E+03	3.371394E-16	2.122361E-17
5.360000E+03	3.338752E-16	2.084741E-17
5.370000E+03	3.305182E-16	2.047238E-17
5.380000E+03	3.270652E-16	2.009981E-17
5.390000E+03	3.235179E-16	1.973133E-17
5.400000E+03	3.198735E-16	1.936822E-17
5.410000E+03	3.161437E-16	1.901262E-17
5.420000E+03	3.123264E-16	1.866570E-17
5.430000E+03	3.084307E-16	1.832920E-17
5.440000E+03	3.044678E-16	1.800481E-17
5.450000E+03	3.004356E-16	1.769322E-17
5.460000E+03	2.963343E-16	1.739500E-17
5.470000E+03	2.921668E-16	1.711060E-17
5.480000E+03	2.879639E-16	1.684178E-17
5.490000E+03	2.837543E-16	1.658980E-17
5.500000E+03	2.795619E-16	1.635529E-17
5.510000E+03	2.754110E-16	1.613858E-17
5.520000E+03	2.713263E-16	1.593977E-17
5.530000E+03	2.673272E-16	1.575845E-17
5.540000E+03	2.634430E-16	1.559473E-17
5.550000E+03	2.596917E-16	1.544798E-17
5.560000E+03	2.560927E-16	1.531773E-17
5.570000E+03	2.526692E-16	1.520379E-17
5.580000E+03	2.494349E-16	1.510552E-17
5.590000E+03	2.464068E-16	1.502262E-17
5.600000E+03	2.435999E-16	1.495480E-17
5.610000E+03	2.410244E-16	1.490159E-17
5.620000E+03	2.386909E-16	1.486271E-17
5.630000E+03	2.366050E-16	1.483767E-17
5.640000E+03	2.347702E-16	1.482594E-17
5.650000E+03	2.331901E-16	1.482710E-17
5.660000E+03	2.318609E-16	1.484032E-17
5.670000E+03	2.307864E-16	1.486533E-17
5.680000E+03	2.299562E-16	1.490097E-17
5.690000E+03	2.293677E-16	1.494661E-17
5.700000E+03	2.290114E-16	1.500120E-17
5.710000E+03	2.288740E-16	1.506345E-17
5.720000E+03	2.289478E-16	1.513244E-17
5.730000E+03	2.292170E-16	1.520670E-17
5.740000E+03	2.296694E-16	1.528501E-17
5.750000E+03	2.302900E-16	1.536593E-17
5.760000E+03	2.310658E-16	1.544814E-17
5.770000E+03	2.319788E-16	1.552999E-17
5.780000E+03	2.330187E-16	1.561030E-17
5.790000E+03	2.341656E-16	1.568725E-17
5.800000E+03	2.354076E-16	1.575952E-17
5.810000E+03	2.367340E-16	1.582587E-17
5.820000E+03	2.381325E-16	1.588489E-17
5.830000E+03	2.395891E-16	1.593507E-17
5.840000E+03	2.410964E-16	1.597530E-17
5.850000E+03	2.426481E-16	1.600453E-17
5.860000E+03	2.442314E-16	1.602123E-17
5.870000E+03	2.458423E-16	1.602446E-17
5.880000E+03	2.474782E-16	1.601333E-17
5.890000E+03	2.491290E-16	1.598646E-17
5.900000E+03	2.507968E-16	1.594321E-17
5.910000E+03	2.524785E-16	1.588264E-17
5.920000E+03	2.541664E-16	1.580345E-17
5.930000E+03	2.558612E-16	1.570495E-17
5.940000E+03	2.575643E-16	1.558642E-17
5.950000E+03	2.592683E-16	1.544667E-17
5.960000E+03	2.609749E-16	1.528505E-17
5.970000E+03	2.626824E-16	1.510079E-17
5.980000E+03	2.643862E-16	1.489297E-17
5.990000E+03	2.660843E-16	1.466091E-17
6.000000E+03	2.677741E-16	1.440403E-17
6.010000E+03	2.694498E-16	1.412167E-17
6.020000E+03	2.711110E-16	1.381367E-17
6.030000E+03	2.727503E-16	1.347974E-17
6.040000E+03	2.743631E-16	1.312002E-17
6.050000E+03	2.759372E-16	1.273473E-17
6.060000E+03	2.774725E-16	1.232517E-17
6.070000E+03	2.789516E-16	1.189255E-17
6.080000E+03	2.803725E-16	1.143963E-17
6.090000E+03	2.817155E-16	1.096958E-17
6.100000E+03	2.829761E-16	1.048762E-17
6.110000E+03	2.841319E-16	1.000010E-17
6.120000E+03	2.851726E-16	9.516079E-18
6.130000E+03	2.860832E-16	9.047040E-18
6.140000E+03	2.868443E-16	8.607238E-18
6.150000E+03	2.874357E-16	8.213757E-18
6.160000E+03	2.878444E-16	7.885970E-18
6.170000E+03	2.880553E-16	7.643456E-18
6.180000E+03	2.880564E-16	7.503195E-18
6.190000E+03	2.878402E-16	7.476088E-18
6.200000E+03	2.874129E-16	7.564426E-18
6.210000E+03	2.867831E-16	7.761080E-18
6.220000E+03	2.859542E-16	8.051235E-18
6.230000E+03	2.849475E-16	8.416427E-18
6.240000E+03	2.837756E-16	8.837116E-18
6.250000E+03	2.824549E-16	9.295336E-18
6.260000E+03	2.810093E-16	9.775984E-18
6.270000E+03	2.794541E-16	1.026664E-17
6.280000E+03	2.778077E-16	1.075776E-17
6.290000E+03	2.760831E-16	1.124200E-17
6.300000E+03	2.742926E-16	1.171399E-17
6.310000E+03	2.724579E-16	1.217035E-17
6.320000E+03	2.705817E-16	1.260814E-17
6.330000E+03	2.686799E-16	1.302602E-17
6.340000E+03	2.667568E-16	1.342285E-17
6.350000E+03	2.648265E-16	1.379857E-17
6.360000E+03	2.628916E-16	1.415297E-17
6.370000E+03	2.609609E-16	1.448653E-17
6.380000E+03	2.590426E-16	1.479993E-17
6.390000E+03	2.571334E-16	1.509341E-17
6.400000E+03	2.552437E-16	1.536811E-17
6.410000E+03	2.533764E-16	1.562482E-17
6.420000E+03	2.515335E-16	1.586438E-17
6.430000E+03	2.497204E-16	1.608782E-17
6.440000E+03	2.479421E-16	1.629623E-17
6.450000E+03	2.462030E-16	1.649066E-17
6.460000E+03	2.445038E-16	1.667191E-17
6.470000E+03	2.428448E-16	1.684072E-17
6.480000E+03	2.412296E-16	1.699807E-17
6.490000E+03	2.396509E-16	1.714412E-17
6.500000E+03	2.381157E-16	1.728002E-17
6.510000E+03	2.366235E-16	1.740635E-17
6.520000E+03	2.351740E-16	1.752369E-17
6.530000E+03	2.337666E-16	1.763254E-17
6.540000E+03	2.324008E-16	1.773339E-17
6.550000E+03	2.310796E-16	1.782699E-17
6.560000E+03	2.297988E-16	1.791347E-17
6.570000E+03	2.285616E-16	1.799353E-17
6.580000E+03	2.273674E-16	1.806755E-17
6.590000E+03	2.262120E-16	1.813558E-17
6.600000E+03	2.250986E-16	1.819826E-17
6.610000E+03	2.240267E-16	1.825590E-17
6.620000E+03	2.229958E-16	1.830879E-17
6.630000E+03	2.220055E-16	1.835720E-17
6.640000E+03	2.210551E-16	1.840140E-17
6.650000E+03	2.201442E-16	1.844161E-17
6.660000E+03	2.192685E-16	1.847773E-17
6.670000E+03	2.184309E-16	1.851026E-17
6.680000E+03	2.176270E-16	1.853907E-17
6.690000E+03	2.168598E-16	1.856460E-17
6.700000E+03	2.161284E-16	1.858700E-17
6.710000E+03	2.154280E-16	1.860603E-17
6.720000E+03	2.147577E-16	1.862179E-17
6.730000E+03	2.141199E-16	1.863465E-17
6.740000E+03	2.135061E-16	1.864401E-17
6.750000E+03	2.129225E-16	1.865054E-17
6.760000E+03	2.123640E-16	1.865390E-17
6.770000E+03	2.118255E-16	1.865377E-17
6.780000E+03	2.113095E-16	1.865043E-17
6.790000E+03	2.108146E-16	1.864384E-17
6.800000E+03	2.103357E-16	1.863362E-17
6.810000E+03	2.098753E-16	1.862005E-17
6.820000E+03	2.094284E-16	1.860273E-17
6.830000E+03	2.089977E-16	1.858193E-17
6.840000E+03	2.085744E-16	1.855690E-17
6.850000E+03	2.081652E-16	1.852827E-17
6.860000E+03	2.077615E-16	1.849529E-17
6.870000E+03	2.073702E-16	1.845862E-17
6.880000E+03	2.069830E-16	1.841752E-17
6.890000E+03	2.066031E-16	1.837232E-17
6.900000E+03	2.062261E-16	1.832266E-17
6.910000E+03	2.058555E-16	1.826887E-17
6.920000E+03	2.054871E-16	1.821063E-17
6.930000E+03	2.051246E-16	1.814831E-17
6.940000E+03	2.047601E-16	1.808123E-17
6.950000E+03	2.044012E-16	1.801014E-17
6.960000E+03	2.040440E-16	1.793473E-17
6.970000E+03	2.036845E-16	1.785471E-17
6.980000E+03	2.033307E-16	1.777082E-17
6.990000E+03	2.029749E-16	1.768244E-17
7.000000E+03	2.026210E-16	1.758997E-17
7.010000E+03	2.022653E-16	1.749313E-17
7.020000E+03	2.019120E-16	1.739233E-17
7.030000E+03	2.015573E-16	1.728728E-17
7.040000E+03	2.012056E-16	1.717840E-17
7.050000E+03	2.008491E-16	1.706508E-17
7.060000E+03	2.004963E-16	1.694805E-17
7.070000E+03	2.001395E-16	1.682672E-17
7.080000E+03	1.997873E-16	1.670182E-17
7.090000E+03	1.994322E-16	1.657276E-17
7.100000E+03	1.990788E-16	1.643996E-17
7.110000E+03	1.987236E-16	1.630316E-17
7.120000E+03	1.983715E-16	1.616277E-17
7.130000E+03	1.980230E-16	1.601888E-17
7.140000E+03	1.976710E-16	1.587094E-17
7.150000E+03	1.973242E-16	1.571968E-17
7.160000E+03	1.969834E-16	1.556520E-17
7.170000E+03	1.966414E-16	1.540699E-17
7.180000E+03	1.963029E-16	1.524546E-17
7.190000E+03	1.959687E-16	1.508075E-17
7.200000E+03	1.956353E-16	1.491267E-17
7.210000E+03	1.953113E-16	1.474198E-17
7.220000E+03	1.949891E-16	1.456823E-17
7.230000E+03	1.946690E-16	1.439158E-17
7.240000E+03	1.943551E-16	1.421251E-17
7.250000E+03	1.940392E-16	1.403064E-17
7.260000E+03	1.937293E-16	1.384677E-17
7.270000E+03	1.934206E-16	1.366086E-17
7.280000E+03	1.931126E-16	1.347319E-17
7.290000E+03	1.928001E-16	1.328378E-17
7.300000E+03	1.924821E-16	1.309298E-17
7.310000E+03	1.921610E-16	1.290145E-17
7.320000E+03	1.918313E-16	1.270937E-17
7.330000E+03	1.914870E-16	1.251695E-17
7.340000E+03	1.911262E-16	1.232475E-17
7.350000E+03	1.907466E-16	1.213340E-17
7.360000E+03	1.903458E-16	1.194357E-17
7.370000E+03	1.899175E-16	1.175579E-17
7.380000E+03	1.894551E-16	1.157066E-17
7.390000E+03	1.889560E-16	1.138911E-17
7.400000E+03	1.884096E-16	1.121170E-17
7.410000E+03	1.878214E-16	1.103999E-17
7.420000E+03	1.871769E-16	1.087445E-17
7.430000E+03	1.864737E-16	1.071630E-17
7.440000E+03	1.857138E-16	1.056703E-17
7.450000E+03	1.848992E-16	1.042809E-17
7.460000E+03	1.840240E-16	1.030044E-17
7.470000E+03	1.830950E-16	1.018559E-17
7.480000E+03	1.821111E-16	1.008446E-17
7.490000E+03	1.810797E-16	9.998179E-18
7.500000E+03	1.799970E-16	9.926937E-18
7.510000E+03	1.788716E-16	9.871266E-18
7.520000E+03	1.777051E-16	9.830909E-18
7.530000E+03	1.764999E-16	9.805273E-18
7.540000E+03	1.752629E-16	9.793675E-18
7.550000E+03	1.739935E-16	9.794752E-18
7.560000E+03	1.727035E-16	9.807621E-18
7.570000E+03	1.713927E-16	9.830636E-18
7.580000E+03	1.700652E-16	9.862326E-18
7.590000E+03	1.687286E-16	9.901458E-18
7.600000E+03	1.673868E-16	9.946637E-18
7.610000E+03	1.660433E-16	9.996566E-18
7.620000E+03	1.646976E-16	1.004983E-17
7.630000E+03	1.633605E-16	1.010584E-17
7.640000E+03	1.620271E-16	1.016323E-17
7.650000E+03	1.607075E-16	1.022168E-17
7.660000E+03	1.593963E-16	1.028007E-17
7.670000E+03	1.581027E-16	1.033834E-17
7.680000E+03	1.568210E-16	1.039559E-17
7.690000E+03	1.555595E-16	1.045196E-17
7.700000E+03	1.543155E-16	1.050694E-17
7.710000E+03	1.530896E-16	1.056031E-17
7.720000E+03	1.518786E-16	1.061165E-17
7.730000E+03	1.506897E-16	1.066133E-17
7.740000E+03	1.495192E-16	1.070898E-17
7.750000E+03	1.483670E-16	1.075450E-17
7.760000E+03	1.472292E-16	1.079755E-17
