#wls	flux	fluxerr
1.600000E+03	1.041014E-16	1.008831E-16
1.640000E+03	1.077174E-16	1.026501E-16
1.680000E+03	1.112701E-16	1.042020E-16
1.720000E+03	1.147123E-16	1.054950E-16
1.760000E+03	1.180370E-16	1.065246E-16
1.800000E+03	1.211897E-16	1.072455E-16
1.840000E+03	1.241343E-16	1.076323E-16
1.880000E+03	1.268530E-16	1.076783E-16
1.920000E+03	1.292824E-16	1.073409E-16
1.960000E+03	1.313891E-16	1.066073E-16
2.000000E+03	1.331181E-16	1.054507E-16
2.040000E+03	1.344348E-16	1.038653E-16
2.080000E+03	1.352680E-16	1.018217E-16
2.120000E+03	1.355628E-16	9.930886E-17
2.160000E+03	1.352638E-16	9.632100E-17
2.200000E+03	1.342874E-16	9.283876E-17
2.240000E+03	1.325648E-16	8.886085E-17
2.280000E+03	1.300816E-16	8.442856E-17
2.320000E+03	1.268706E-16	7.961505E-17
2.360000E+03	1.230449E-16	7.454065E-17
2.400000E+03	1.186979E-16	6.930525E-17
2.440000E+03	1.139127E-16	6.399517E-17
2.480000E+03	1.087778E-16	5.869284E-17
2.520000E+03	1.033481E-16	5.345552E-17
2.560000E+03	9.768942E-17	4.834083E-17
2.600000E+03	9.185946E-17	4.339647E-17
2.640000E+03	8.592097E-17	3.866672E-17
2.680000E+03	7.992779E-17	3.418582E-17
2.720000E+03	7.393639E-17	2.998347E-17
2.760000E+03	6.800193E-17	2.608296E-17
2.800000E+03	6.217792E-17	2.250110E-17
2.840000E+03	5.651703E-17	1.924867E-17
2.880000E+03	5.107167E-17	1.633074E-17
2.920000E+03	4.589016E-17	1.374565E-17
2.960000E+03	4.101598E-17	1.148546E-17
3.000000E+03	3.648371E-17	9.535627E-18
3.010000E+03	3.540808E-17	9.094631E-18
3.020000E+03	3.435480E-17	8.671195E-18
3.030000E+03	3.332549E-17	8.265295E-18
3.040000E+03	3.231940E-17	7.876295E-18
3.050000E+03	3.133724E-17	7.503923E-18
3.060000E+03	3.037956E-17	7.147867E-18
3.070000E+03	2.944497E-17	6.807348E-18
3.080000E+03	2.853524E-17	6.482329E-18
3.090000E+03	2.764897E-17	6.172047E-18
3.100000E+03	2.678714E-17	5.876278E-18
3.110000E+03	2.594898E-17	5.594407E-18
3.120000E+03	2.513427E-17	5.325961E-18
3.130000E+03	2.434376E-17	5.070665E-18
3.140000E+03	2.357621E-17	4.827834E-18
3.150000E+03	2.283268E-17	4.597271E-18
3.160000E+03	2.211154E-17	4.378231E-18
3.170000E+03	2.141372E-17	4.170500E-18
3.180000E+03	2.073805E-17	3.973458E-18
3.190000E+03	2.008495E-17	3.786798E-18
3.200000E+03	1.945364E-17	3.610001E-18
3.210000E+03	1.884409E-17	3.442695E-18
3.220000E+03	1.825586E-17	3.284447E-18
3.230000E+03	1.768851E-17	3.134837E-18
3.240000E+03	1.714134E-17	2.993409E-18
3.250000E+03	1.661447E-17	2.859870E-18
3.260000E+03	1.610717E-17	2.733786E-18
3.270000E+03	1.561924E-17	2.614828E-18
3.280000E+03	1.514995E-17	2.502594E-18
3.290000E+03	1.469884E-17	2.396742E-18
3.300000E+03	1.426569E-17	2.296974E-18
3.310000E+03	1.384978E-17	2.202936E-18
3.320000E+03	1.345086E-17	2.114355E-18
3.330000E+03	1.306845E-17	2.030932E-18
3.340000E+03	1.270170E-17	1.952330E-18
3.350000E+03	1.235052E-17	1.878339E-18
3.360000E+03	1.201428E-17	1.808676E-18
3.370000E+03	1.169253E-17	1.743099E-18
3.380000E+03	1.138482E-17	1.681378E-18
3.390000E+03	1.109042E-17	1.623252E-18
3.400000E+03	1.080922E-17	1.568561E-18
3.410000E+03	1.054066E-17	1.517087E-18
3.420000E+03	1.028421E-17	1.468630E-18
3.430000E+03	1.003949E-17	1.423019E-18
3.440000E+03	9.806125E-18	1.380091E-18
3.450000E+03	9.583521E-18	1.339662E-18
3.460000E+03	9.371463E-18	1.301609E-18
3.470000E+03	9.169396E-18	1.265766E-18
3.480000E+03	8.977017E-18	1.232013E-18
3.490000E+03	8.793928E-18	1.200221E-18
3.500000E+03	8.619750E-18	1.170269E-18
3.510000E+03	8.454127E-18	1.142045E-18
3.520000E+03	8.296717E-18	1.115447E-18
3.530000E+03	8.147110E-18	1.090366E-18
3.540000E+03	8.004921E-18	1.066701E-18
3.550000E+03	7.869875E-18	1.044371E-18
3.560000E+03	7.741627E-18	1.023290E-18
3.570000E+03	7.619937E-18	1.003388E-18
3.580000E+03	7.504416E-18	9.845800E-19
3.590000E+03	7.394856E-18	9.668075E-19
3.600000E+03	7.290984E-18	9.500062E-19
3.610000E+03	7.192686E-18	9.341351E-19
3.620000E+03	7.099636E-18	9.191283E-19
3.630000E+03	7.011669E-18	9.049424E-19
3.640000E+03	6.928424E-18	8.915109E-19
3.650000E+03	6.849758E-18	8.787977E-19
3.660000E+03	6.775470E-18	8.667605E-19
3.670000E+03	6.705368E-18	8.553597E-19
3.680000E+03	6.639328E-18	8.445659E-19
3.690000E+03	6.577232E-18	8.343513E-19
3.700000E+03	6.518902E-18	8.246820E-19
3.710000E+03	6.464285E-18	8.155407E-19
3.720000E+03	6.413212E-18	8.068963E-19
3.730000E+03	6.365686E-18	7.987404E-19
3.740000E+03	6.321599E-18	7.910508E-19
3.750000E+03	6.280840E-18	7.838062E-19
3.760000E+03	6.243358E-18	7.769929E-19
3.770000E+03	6.209152E-18	7.706041E-19
3.780000E+03	6.178114E-18	7.646201E-19
3.790000E+03	6.150242E-18	7.590345E-19
3.800000E+03	6.125428E-18	7.538285E-19
3.810000E+03	6.103616E-18	7.489898E-19
3.820000E+03	6.084804E-18	7.445130E-19
3.830000E+03	6.068985E-18	7.403923E-19
3.840000E+03	6.056052E-18	7.366100E-19
3.850000E+03	6.046051E-18	7.331666E-19
3.860000E+03	6.038824E-18	7.300388E-19
3.870000E+03	6.034464E-18	7.272335E-19
3.880000E+03	6.032817E-18	7.247274E-19
3.890000E+03	6.033973E-18	7.225275E-19
3.900000E+03	6.037828E-18	7.206167E-19
3.910000E+03	6.044374E-18	7.189901E-19
3.920000E+03	6.053555E-18	7.176368E-19
3.930000E+03	6.065365E-18	7.165519E-19
3.940000E+03	6.079748E-18	7.157248E-19
3.950000E+03	6.096746E-18	7.151563E-19
3.960000E+03	6.116254E-18	7.148300E-19
3.970000E+03	6.138268E-18	7.147413E-19
3.980000E+03	6.162731E-18	7.148798E-19
3.990000E+03	6.189687E-18	7.152465E-19
4.000000E+03	6.219081E-18	7.158312E-19
4.010000E+03	6.250861E-18	7.166239E-19
4.020000E+03	6.284972E-18	7.176147E-19
4.030000E+03	6.321460E-18	7.188050E-19
4.040000E+03	6.360222E-18	7.201798E-19
4.050000E+03	6.401306E-18	7.217408E-19
4.060000E+03	6.444610E-18	7.234734E-19
4.070000E+03	6.490131E-18	7.253743E-19
4.080000E+03	6.537870E-18	7.274407E-19
4.090000E+03	6.587777E-18	7.296643E-19
4.100000E+03	6.639801E-18	7.320372E-19
4.110000E+03	6.693892E-18	7.345520E-19
4.120000E+03	6.750106E-18	7.372131E-19
4.130000E+03	6.808342E-18	7.400081E-19
4.140000E+03	6.868605E-18	7.429367E-19
4.150000E+03	6.930793E-18	7.459876E-19
4.160000E+03	6.994912E-18	7.491615E-19
4.170000E+03	7.060971E-18	7.524599E-19
4.180000E+03	7.128868E-18	7.558733E-19
4.190000E+03	7.198612E-18	7.594042E-19
4.200000E+03	7.270100E-18	7.630444E-19
4.210000E+03	7.343342E-18	7.667979E-19
4.220000E+03	7.418235E-18	7.706576E-19
4.230000E+03	7.494788E-18	7.746290E-19
4.240000E+03	7.572896E-18	7.787060E-19
4.250000E+03	7.652508E-18	7.828892E-19
4.260000E+03	7.733514E-18	7.871735E-19
4.270000E+03	7.815923E-18	7.915666E-19
4.280000E+03	7.899619E-18	7.960641E-19
4.290000E+03	7.984548E-18	8.006680E-19
4.300000E+03	8.070588E-18	8.053739E-19
4.310000E+03	8.157614E-18	8.101772E-19
4.320000E+03	8.245560E-18	8.150795E-19
4.330000E+03	8.334359E-18	8.200819E-19
4.340000E+03	8.423874E-18	8.251784E-19
4.350000E+03	8.514029E-18	8.303685E-19
4.360000E+03	8.604678E-18	8.356442E-19
4.370000E+03	8.695806E-18	8.410097E-19
4.380000E+03	8.787330E-18	8.464613E-19
4.390000E+03	8.879377E-18	8.520147E-19
4.400000E+03	8.971864E-18	8.576638E-19
4.410000E+03	9.064852E-18	8.634150E-19
4.420000E+03	9.158330E-18	8.692666E-19
4.430000E+03	9.252442E-18	8.752303E-19
4.440000E+03	9.347109E-18	8.812953E-19
4.450000E+03	9.442328E-18	8.874572E-19
4.460000E+03	9.538176E-18	8.937182E-19
4.470000E+03	9.634659E-18	9.000725E-19
4.480000E+03	9.731781E-18	9.065142E-19
4.490000E+03	9.829469E-18	9.130293E-19
4.500000E+03	9.927816E-18	9.196191E-19
4.510000E+03	1.002675E-17	9.262697E-19
4.520000E+03	1.012629E-17	9.329751E-19
4.530000E+03	1.022645E-17	9.397298E-19
4.540000E+03	1.032708E-17	9.465131E-19
4.550000E+03	1.042829E-17	9.533286E-19
4.560000E+03	1.053001E-17	9.601648E-19
4.570000E+03	1.063228E-17	9.670196E-19
4.580000E+03	1.073495E-17	9.738745E-19
4.590000E+03	1.083813E-17	9.807377E-19
4.600000E+03	1.094169E-17	9.875928E-19
4.610000E+03	1.104575E-17	9.944501E-19
4.620000E+03	1.115018E-17	1.001295E-18
4.630000E+03	1.125502E-17	1.008131E-18
4.640000E+03	1.136024E-17	1.014955E-18
4.650000E+03	1.146598E-17	1.021780E-18
4.660000E+03	1.157212E-17	1.028596E-18
4.670000E+03	1.167883E-17	1.035420E-18
4.680000E+03	1.178608E-17	1.042250E-18
4.690000E+03	1.189386E-17	1.049086E-18
4.700000E+03	1.200236E-17	1.055947E-18
4.710000E+03	1.211147E-17	1.062825E-18
4.720000E+03	1.222128E-17	1.069731E-18
4.730000E+03	1.233167E-17	1.076655E-18
4.740000E+03	1.244277E-17	1.083610E-18
4.750000E+03	1.255433E-17	1.090577E-18
4.760000E+03	1.266647E-17	1.097568E-18
4.770000E+03	1.277907E-17	1.104574E-18
4.780000E+03	1.289225E-17	1.111609E-18
4.790000E+03	1.300589E-17	1.118664E-18
4.800000E+03	1.312000E-17	1.125743E-18
4.810000E+03	1.323457E-17	1.132847E-18
4.820000E+03	1.334960E-17	1.139980E-18
4.830000E+03	1.346509E-17	1.147146E-18
4.840000E+03	1.358092E-17	1.154336E-18
4.850000E+03	1.369720E-17	1.161566E-18
4.860000E+03	1.381392E-17	1.168838E-18
4.870000E+03	1.393096E-17	1.176144E-18
4.880000E+03	1.404829E-17	1.183488E-18
4.890000E+03	1.416603E-17	1.190883E-18
4.900000E+03	1.428389E-17	1.198308E-18
4.910000E+03	1.440212E-17	1.205787E-18
4.920000E+03	1.452053E-17	1.213308E-18
4.930000E+03	1.463896E-17	1.220857E-18
4.940000E+03	1.475750E-17	1.228445E-18
4.950000E+03	1.487610E-17	1.236067E-18
4.960000E+03	1.499454E-17	1.243705E-18
4.970000E+03	1.511289E-17	1.251365E-18
4.980000E+03	1.523080E-17	1.259013E-18
4.990000E+03	1.534846E-17	1.266664E-18
5.000000E+03	1.546561E-17	1.274294E-18
5.010000E+03	1.558201E-17	1.281876E-18
5.020000E+03	1.569767E-17	1.289409E-18
5.030000E+03	1.581231E-17	1.296864E-18
5.040000E+03	1.592578E-17	1.304223E-18
5.050000E+03	1.603792E-17	1.311470E-18
5.060000E+03	1.614857E-17	1.318585E-18
5.070000E+03	1.625738E-17	1.325536E-18
5.080000E+03	1.636433E-17	1.332317E-18
5.090000E+03	1.646906E-17	1.338895E-18
5.100000E+03	1.657135E-17	1.345251E-18
5.110000E+03	1.667082E-17	1.351352E-18
5.120000E+03	1.676741E-17	1.357193E-18
5.130000E+03	1.686054E-17	1.362730E-18
5.140000E+03	1.695031E-17	1.367973E-18
5.150000E+03	1.703613E-17	1.372879E-18
5.160000E+03	1.711791E-17	1.377448E-18
5.170000E+03	1.719524E-17	1.381653E-18
5.180000E+03	1.726767E-17	1.385468E-18
5.190000E+03	1.733513E-17	1.388899E-18
5.200000E+03	1.739718E-17	1.391922E-18
5.210000E+03	1.745356E-17	1.394531E-18
5.220000E+03	1.750404E-17	1.396721E-18
5.230000E+03	1.754818E-17	1.398476E-18
5.240000E+03	1.758578E-17	1.399792E-18
5.250000E+03	1.761642E-17	1.400657E-18
5.260000E+03	1.764009E-17	1.401084E-18
5.270000E+03	1.765643E-17	1.401063E-18
5.280000E+03	1.766527E-17	1.400597E-18
5.290000E+03	1.766648E-17	1.399692E-18
5.300000E+03	1.765979E-17	1.398339E-18
5.310000E+03	1.764510E-17	1.396548E-18
5.320000E+03	1.762239E-17	1.394326E-18
5.330000E+03	1.759164E-17	1.391685E-18
5.340000E+03	1.755271E-17	1.388621E-18
5.350000E+03	1.750587E-17	1.385163E-18
5.360000E+03	1.745122E-17	1.381323E-18
5.370000E+03	1.738894E-17	1.377119E-18
5.380000E+03	1.731907E-17	1.372554E-18
5.390000E+03	1.724222E-17	1.367675E-18
5.400000E+03	1.715851E-17	1.362487E-18
5.410000E+03	1.706865E-17	1.357040E-18
5.420000E+03	1.697287E-17	1.351344E-18
5.430000E+03	1.687176E-17	1.345437E-18
5.440000E+03	1.676582E-17	1.339344E-18
5.450000E+03	1.665590E-17	1.333120E-18
5.460000E+03	1.654236E-17	1.326779E-18
5.470000E+03	1.642564E-17	1.320338E-18
5.480000E+03	1.630600E-17	1.313801E-18
5.490000E+03	1.618409E-17	1.307198E-18
5.500000E+03	1.606023E-17	1.300537E-18
5.510000E+03	1.593493E-17	1.293838E-18
5.520000E+03	1.580872E-17	1.287120E-18
5.530000E+03	1.568211E-17	1.280407E-18
5.540000E+03	1.555563E-17	1.273719E-18
5.550000E+03	1.542996E-17	1.267091E-18
5.560000E+03	1.530560E-17	1.260546E-18
5.570000E+03	1.518335E-17	1.254130E-18
5.580000E+03	1.506352E-17	1.247853E-18
5.590000E+03	1.494701E-17	1.241774E-18
5.600000E+03	1.483408E-17	1.235900E-18
5.610000E+03	1.472541E-17	1.230277E-18
5.620000E+03	1.462165E-17	1.224950E-18
5.630000E+03	1.452295E-17	1.219923E-18
5.640000E+03	1.443019E-17	1.215263E-18
5.650000E+03	1.434360E-17	1.210988E-18
5.660000E+03	1.426339E-17	1.207110E-18
5.670000E+03	1.419029E-17	1.203694E-18
5.680000E+03	1.412431E-17	1.200738E-18
5.690000E+03	1.406584E-17	1.198278E-18
5.700000E+03	1.401522E-17	1.196348E-18
5.710000E+03	1.397266E-17	1.194965E-18
5.720000E+03	1.393832E-17	1.194149E-18
5.730000E+03	1.391232E-17	1.193915E-18
5.740000E+03	1.389495E-17	1.194288E-18
5.750000E+03	1.388644E-17	1.195294E-18
5.760000E+03	1.388658E-17	1.196918E-18
5.770000E+03	1.389590E-17	1.199204E-18
5.780000E+03	1.391415E-17	1.202135E-18
5.790000E+03	1.394169E-17	1.205739E-18
5.800000E+03	1.397841E-17	1.210007E-18
5.810000E+03	1.402449E-17	1.214950E-18
5.820000E+03	1.407998E-17	1.220568E-18
5.830000E+03	1.414505E-17	1.226871E-18
5.840000E+03	1.421957E-17	1.233840E-18
5.850000E+03	1.430356E-17	1.241469E-18
5.860000E+03	1.439718E-17	1.249762E-18
5.870000E+03	1.450062E-17	1.258724E-18
5.880000E+03	1.461354E-17	1.268316E-18
5.890000E+03	1.473628E-17	1.278553E-18
5.900000E+03	1.486865E-17	1.289409E-18
5.910000E+03	1.501080E-17	1.300884E-18
5.920000E+03	1.516270E-17	1.312963E-18
5.930000E+03	1.532412E-17	1.325615E-18
5.940000E+03	1.549519E-17	1.338840E-18
5.950000E+03	1.567582E-17	1.352621E-18
5.960000E+03	1.586574E-17	1.366927E-18
5.970000E+03	1.606518E-17	1.381773E-18
5.980000E+03	1.627365E-17	1.397111E-18
5.990000E+03	1.649115E-17	1.412942E-18
6.000000E+03	1.671748E-17	1.429252E-18
6.010000E+03	1.695224E-17	1.446011E-18
6.020000E+03	1.719536E-17	1.463222E-18
6.030000E+03	1.744613E-17	1.480840E-18
6.040000E+03	1.770464E-17	1.498890E-18
6.050000E+03	1.797010E-17	1.517328E-18
6.060000E+03	1.824232E-17	1.536166E-18
6.070000E+03	1.852064E-17	1.555380E-18
6.080000E+03	1.880458E-17	1.574966E-18
6.090000E+03	1.909340E-17	1.594905E-18
6.100000E+03	1.938630E-17	1.615176E-18
6.110000E+03	1.968291E-17	1.635797E-18
6.120000E+03	1.998191E-17	1.656711E-18
6.130000E+03	2.028285E-17	1.677935E-18
6.140000E+03	2.058457E-17	1.699428E-18
6.150000E+03	2.088633E-17	1.721186E-18
6.160000E+03	2.118639E-17	1.743117E-18
6.170000E+03	2.148422E-17	1.765227E-18
6.180000E+03	2.177828E-17	1.787434E-18
6.190000E+03	2.206752E-17	1.809686E-18
6.200000E+03	2.235063E-17	1.831903E-18
6.210000E+03	2.262745E-17	1.854081E-18
6.220000E+03	2.289821E-17	1.876241E-18
6.230000E+03	2.316321E-17	1.898398E-18
6.240000E+03	2.342289E-17	1.920570E-18
6.250000E+03	2.367687E-17	1.942700E-18
6.260000E+03	2.392633E-17	1.964854E-18
6.270000E+03	2.417075E-17	1.986951E-18
6.280000E+03	2.441086E-17	2.009014E-18
6.290000E+03	2.464720E-17	2.031041E-18
6.300000E+03	2.487936E-17	2.052957E-18
6.310000E+03	2.510797E-17	2.074768E-18
6.320000E+03	2.533337E-17	2.096460E-18
6.330000E+03	2.555595E-17	2.118021E-18
6.340000E+03	2.577545E-17	2.139389E-18
6.350000E+03	2.599231E-17	2.160561E-18
6.360000E+03	2.620664E-17	2.181514E-18
6.370000E+03	2.641859E-17	2.202224E-18
6.380000E+03	2.662793E-17	2.222645E-18
6.390000E+03	2.683442E-17	2.242729E-18
6.400000E+03	2.703782E-17	2.262434E-18
6.410000E+03	2.723825E-17	2.281751E-18
6.420000E+03	2.743545E-17	2.300643E-18
6.430000E+03	2.762835E-17	2.319006E-18
6.440000E+03	2.781826E-17	2.336938E-18
6.450000E+03	2.800531E-17	2.354446E-18
6.460000E+03	2.819004E-17	2.371570E-18
6.470000E+03	2.837348E-17	2.388394E-18
6.480000E+03	2.855536E-17	2.404895E-18
6.490000E+03	2.873672E-17	2.421165E-18
6.500000E+03	2.891777E-17	2.437222E-18
6.510000E+03	2.909913E-17	2.453125E-18
6.520000E+03	2.928012E-17	2.468821E-18
6.530000E+03	2.946228E-17	2.484446E-18
6.540000E+03	2.964488E-17	2.499947E-18
6.550000E+03	2.982858E-17	2.515385E-18
6.560000E+03	3.001355E-17	2.530782E-18
6.570000E+03	3.019950E-17	2.546119E-18
6.580000E+03	3.038706E-17	2.561459E-18
6.590000E+03	3.057641E-17	2.576820E-18
6.600000E+03	3.076718E-17	2.592182E-18
6.610000E+03	3.095953E-17	2.607559E-18
6.620000E+03	3.115356E-17	2.622968E-18
6.630000E+03	3.134990E-17	2.638466E-18
6.640000E+03	3.154765E-17	2.653981E-18
6.650000E+03	3.174739E-17	2.669566E-18
6.660000E+03	3.194923E-17	2.685233E-18
6.670000E+03	3.215270E-17	2.700944E-18
6.680000E+03	3.235839E-17	2.716753E-18
6.690000E+03	3.256582E-17	2.732618E-18
6.700000E+03	3.277558E-17	2.748589E-18
6.710000E+03	3.298659E-17	2.764576E-18
6.720000E+03	3.319941E-17	2.780624E-18
6.730000E+03	3.341464E-17	2.796782E-18
6.740000E+03	3.363112E-17	2.812950E-18
6.750000E+03	3.384943E-17	2.829173E-18
6.760000E+03	3.406896E-17	2.845394E-18
6.770000E+03	3.429027E-17	2.861656E-18
6.780000E+03	3.451272E-17	2.877900E-18
6.790000E+03	3.473626E-17	2.894115E-18
6.800000E+03	3.496146E-17	2.910341E-18
6.810000E+03	3.518700E-17	2.926462E-18
6.820000E+03	3.541408E-17	2.942569E-18
6.830000E+03	3.564133E-17	2.958541E-18
6.840000E+03	3.586996E-17	2.974472E-18
6.850000E+03	3.609859E-17	2.990238E-18
6.860000E+03	3.632708E-17	3.005823E-18
6.870000E+03	3.655600E-17	3.021266E-18
6.880000E+03	3.678524E-17	3.036554E-18
6.890000E+03	3.701330E-17	3.051559E-18
6.900000E+03	3.724143E-17	3.066380E-18
6.910000E+03	3.746880E-17	3.080948E-18
6.920000E+03	3.769599E-17	3.095309E-18
6.930000E+03	3.792144E-17	3.109337E-18
6.940000E+03	3.814572E-17	3.123078E-18
6.950000E+03	3.836868E-17	3.136526E-18
6.960000E+03	3.858944E-17	3.149613E-18
6.970000E+03	3.880862E-17	3.162392E-18
6.980000E+03	3.902606E-17	3.174860E-18
6.990000E+03	3.924090E-17	3.186950E-18
7.000000E+03	3.945299E-17	3.198660E-18
7.010000E+03	3.966222E-17	3.209987E-18
7.020000E+03	3.986924E-17	3.220990E-18
7.030000E+03	4.007240E-17	3.231544E-18
7.040000E+03	4.027317E-17	3.241774E-18
7.050000E+03	4.046989E-17	3.251551E-18
7.060000E+03	4.066327E-17	3.260938E-18
7.070000E+03	4.085245E-17	3.269870E-18
7.080000E+03	4.103819E-17	3.278409E-18
7.090000E+03	4.122046E-17	3.286555E-18
7.100000E+03	4.139841E-17	3.294240E-18
7.110000E+03	4.157119E-17	3.301395E-18
7.120000E+03	4.174047E-17	3.308150E-18
7.130000E+03	4.190541E-17	3.314434E-18
7.140000E+03	4.206604E-17	3.320245E-18
7.150000E+03	4.222238E-17	3.325578E-18
7.160000E+03	4.237361E-17	3.330362E-18
7.170000E+03	4.252064E-17	3.334660E-18
7.180000E+03	4.266263E-17	3.338400E-18
7.190000E+03	4.279962E-17	3.341579E-18
7.200000E+03	4.293258E-17	3.344264E-18
7.210000E+03	4.306066E-17	3.346385E-18
7.220000E+03	4.318482E-17	3.348012E-18
7.230000E+03	4.330332E-17	3.349009E-18
7.240000E+03	4.341712E-17	3.349451E-18
7.250000E+03	4.352627E-17	3.349344E-18
7.260000E+03	4.363083E-17	3.348703E-18
7.270000E+03	4.373085E-17	3.347541E-18
7.280000E+03	4.382639E-17	3.345879E-18
7.290000E+03	4.391656E-17	3.343670E-18
7.300000E+03	4.400234E-17	3.341015E-18
7.310000E+03	4.408379E-17	3.337949E-18
7.320000E+03	4.416095E-17	3.334514E-18
7.330000E+03	4.423292E-17	3.330684E-18
7.340000E+03	4.430070E-17	3.326585E-18
7.350000E+03	4.436534E-17	3.322349E-18
7.360000E+03	4.442494E-17	3.317896E-18
7.370000E+03	4.448055E-17	3.313369E-18
7.380000E+03	4.453225E-17	3.308846E-18
7.390000E+03	4.458110E-17	3.304479E-18
7.400000E+03	4.462621E-17	3.300282E-18
7.410000E+03	4.466869E-17	3.296413E-18
7.420000E+03	4.470965E-17	3.293035E-18
7.430000E+03	4.474822E-17	3.290163E-18
7.440000E+03	4.478656E-17	3.288031E-18
7.450000E+03	4.482279E-17	3.286572E-18
7.460000E+03	4.485806E-17	3.285937E-18
7.470000E+03	4.489149E-17	3.286117E-18
7.480000E+03	4.492426E-17	3.287244E-18
7.490000E+03	4.495441E-17	3.289211E-18
7.500000E+03	4.498311E-17	3.292121E-18
7.510000E+03	4.501045E-17	3.295987E-18
7.520000E+03	4.503548E-17	3.300723E-18
7.530000E+03	4.506042E-17	3.306452E-18
7.540000E+03	4.508325E-17	3.312971E-18
7.550000E+03	4.510510E-17	3.320296E-18
7.560000E+03	4.512496E-17	3.328276E-18
7.570000E+03	4.514395E-17	3.336908E-18
7.580000E+03	4.516102E-17	3.346027E-18
7.590000E+03	4.517727E-17	3.355622E-18
7.600000E+03	4.519163E-17	3.365523E-18
7.610000E+03	4.520409E-17	3.375640E-18
7.620000E+03	4.521572E-17	3.385969E-18
7.630000E+03	4.522542E-17	3.396351E-18
7.640000E+03	4.523313E-17	3.406712E-18
7.650000E+03	4.523990E-17	3.417071E-18
7.660000E+03	4.524459E-17	3.427290E-18
7.670000E+03	4.524823E-17	3.437406E-18
7.680000E+03	4.524852E-17	3.447212E-18
7.690000E+03	4.524759E-17	3.456847E-18
7.700000E+03	4.524536E-17	3.466291E-18
7.710000E+03	4.524060E-17	3.475441E-18
7.720000E+03	4.523431E-17	3.484377E-18
7.730000E+03	4.522526E-17	3.493007E-18
7.740000E+03	4.521329E-17	3.501329E-18
7.750000E+03	4.519941E-17	3.509435E-18
7.760000E+03	4.518348E-17	3.517328E-18
