#wls	flux	fluxerr
1.600000E+03	1.710020E-16	1.668685E-16
1.640000E+03	1.761090E-16	1.689893E-16
1.680000E+03	1.809023E-16	1.705816E-16
1.720000E+03	1.853281E-16	1.716058E-16
1.760000E+03	1.893096E-16	1.720062E-16
1.800000E+03	1.927851E-16	1.717467E-16
1.840000E+03	1.956725E-16	1.707792E-16
1.880000E+03	1.979240E-16	1.690922E-16
1.920000E+03	1.994740E-16	1.666643E-16
1.960000E+03	2.002425E-16	1.634695E-16
2.000000E+03	2.001878E-16	1.595196E-16
2.040000E+03	1.992425E-16	1.548122E-16
2.080000E+03	1.973520E-16	1.493618E-16
2.120000E+03	1.945038E-16	1.432203E-16
2.160000E+03	1.906351E-16	1.364066E-16
2.200000E+03	1.857135E-16	1.289683E-16
2.240000E+03	1.797074E-16	1.209580E-16
2.280000E+03	1.725602E-16	1.124165E-16
2.320000E+03	1.644929E-16	1.035658E-16
2.360000E+03	1.557292E-16	9.461171E-17
2.400000E+03	1.464486E-16	8.571480E-17
2.440000E+03	1.368043E-16	7.700497E-17
2.480000E+03	1.269417E-16	6.859405E-17
2.520000E+03	1.169927E-16	6.057303E-17
2.560000E+03	1.070736E-16	5.301221E-17
2.600000E+03	9.730117E-17	4.597048E-17
2.640000E+03	8.778066E-17	3.948964E-17
2.680000E+03	7.860641E-17	3.359580E-17
2.720000E+03	6.986130E-17	2.830050E-17
2.760000E+03	6.161993E-17	2.360331E-17
2.800000E+03	5.393413E-17	1.948775E-17
2.840000E+03	4.684553E-17	1.592836E-17
2.880000E+03	4.038596E-17	1.289226E-17
2.920000E+03	3.457260E-17	1.033921E-17
2.960000E+03	2.940965E-17	8.224026E-18
3.000000E+03	2.488332E-17	6.497036E-18
3.010000E+03	2.384767E-17	6.119820E-18
3.020000E+03	2.284924E-17	5.762791E-18
3.030000E+03	2.188768E-17	5.425229E-18
3.040000E+03	2.096210E-17	5.106284E-18
3.050000E+03	2.007159E-17	4.805129E-18
3.060000E+03	1.921567E-17	4.521057E-18
3.070000E+03	1.839298E-17	4.253174E-18
3.080000E+03	1.760337E-17	4.000889E-18
3.090000E+03	1.684549E-17	3.763353E-18
3.100000E+03	1.611872E-17	3.539911E-18
3.110000E+03	1.542211E-17	3.329842E-18
3.120000E+03	1.475499E-17	3.132518E-18
3.130000E+03	1.411638E-17	2.947257E-18
3.140000E+03	1.350532E-17	2.773405E-18
3.150000E+03	1.292113E-17	2.610383E-18
3.160000E+03	1.236263E-17	2.457534E-18
3.170000E+03	1.182936E-17	2.314366E-18
3.180000E+03	1.132019E-17	2.180269E-18
3.190000E+03	1.083442E-17	2.054747E-18
3.200000E+03	1.037116E-17	1.937284E-18
3.210000E+03	9.929547E-18	1.827391E-18
3.220000E+03	9.508887E-18	1.724632E-18
3.230000E+03	9.108331E-18	1.628563E-18
3.240000E+03	8.726905E-18	1.538738E-18
3.250000E+03	8.364238E-18	1.454836E-18
3.260000E+03	8.019114E-18	1.376407E-18
3.270000E+03	7.691165E-18	1.303164E-18
3.280000E+03	7.379382E-18	1.234727E-18
3.290000E+03	7.083165E-18	1.170801E-18
3.300000E+03	6.801910E-18	1.111103E-18
3.310000E+03	6.534724E-18	1.055319E-18
3.320000E+03	6.281152E-18	1.003217E-18
3.330000E+03	6.040545E-18	9.545458E-19
3.340000E+03	5.812200E-18	9.090596E-19
3.350000E+03	5.595536E-18	8.665414E-19
3.360000E+03	5.389992E-18	8.267886E-19
3.370000E+03	5.195105E-18	7.896230E-19
3.380000E+03	5.010218E-18	7.548460E-19
3.390000E+03	4.834977E-18	7.223139E-19
3.400000E+03	4.668784E-18	6.918540E-19
3.410000E+03	4.511201E-18	6.633254E-19
3.420000E+03	4.361865E-18	6.366049E-19
3.430000E+03	4.220211E-18	6.115468E-19
3.440000E+03	4.085974E-18	5.880548E-19
3.450000E+03	3.958743E-18	5.660172E-19
3.460000E+03	3.838045E-18	5.453184E-19
3.470000E+03	3.723660E-18	5.258844E-19
3.480000E+03	3.615164E-18	5.076157E-19
3.490000E+03	3.512284E-18	4.904387E-19
3.500000E+03	3.414726E-18	4.742799E-19
3.510000E+03	3.322101E-18	4.590563E-19
3.520000E+03	3.234196E-18	4.447122E-19
3.530000E+03	3.150707E-18	4.311818E-19
3.540000E+03	3.071353E-18	4.184052E-19
3.550000E+03	2.995908E-18	4.063320E-19
3.560000E+03	2.924099E-18	3.949076E-19
3.570000E+03	2.855706E-18	3.840865E-19
3.580000E+03	2.790496E-18	3.738230E-19
3.590000E+03	2.728309E-18	3.640828E-19
3.600000E+03	2.668968E-18	3.548306E-19
3.610000E+03	2.612281E-18	3.460305E-19
3.620000E+03	2.558121E-18	3.376563E-19
3.630000E+03	2.506366E-18	3.296833E-19
3.640000E+03	2.456854E-18	3.220828E-19
3.650000E+03	2.409545E-18	3.148426E-19
3.660000E+03	2.364287E-18	3.079369E-19
3.670000E+03	2.321024E-18	3.013526E-19
3.680000E+03	2.279676E-18	2.950744E-19
3.690000E+03	2.240167E-18	2.890879E-19
3.700000E+03	2.202440E-18	2.833815E-19
3.710000E+03	2.166459E-18	2.779466E-19
3.720000E+03	2.132112E-18	2.727652E-19
3.730000E+03	2.099398E-18	2.678339E-19
3.740000E+03	2.068227E-18	2.631381E-19
3.750000E+03	2.038561E-18	2.586702E-19
3.760000E+03	2.010364E-18	2.544228E-19
3.770000E+03	1.983548E-18	2.503826E-19
3.780000E+03	1.958112E-18	2.465470E-19
3.790000E+03	1.933987E-18	2.429050E-19
3.800000E+03	1.911140E-18	2.394505E-19
3.810000E+03	1.889520E-18	2.361753E-19
3.820000E+03	1.869097E-18	2.330736E-19
3.830000E+03	1.849824E-18	2.301377E-19
3.840000E+03	1.831672E-18	2.273624E-19
3.850000E+03	1.814597E-18	2.247405E-19
3.860000E+03	1.798586E-18	2.222689E-19
3.870000E+03	1.783600E-18	2.199410E-19
3.880000E+03	1.769599E-18	2.177506E-19
3.890000E+03	1.756558E-18	2.156935E-19
3.900000E+03	1.744442E-18	2.137638E-19
3.910000E+03	1.733241E-18	2.119593E-19
3.920000E+03	1.722919E-18	2.102747E-19
3.930000E+03	1.713457E-18	2.087062E-19
3.940000E+03	1.704819E-18	2.072490E-19
3.950000E+03	1.696975E-18	2.058979E-19
3.960000E+03	1.689930E-18	2.046530E-19
3.970000E+03	1.683628E-18	2.035062E-19
3.980000E+03	1.678063E-18	2.024561E-19
3.990000E+03	1.673207E-18	2.014981E-19
4.000000E+03	1.669042E-18	2.006292E-19
4.010000E+03	1.665553E-18	1.998466E-19
4.020000E+03	1.662700E-18	1.991444E-19
4.030000E+03	1.660480E-18	1.985215E-19
4.040000E+03	1.658868E-18	1.979739E-19
4.050000E+03	1.657850E-18	1.974992E-19
4.060000E+03	1.657401E-18	1.970936E-19
4.070000E+03	1.657497E-18	1.967535E-19
4.080000E+03	1.658139E-18	1.964784E-19
4.090000E+03	1.659291E-18	1.962635E-19
4.100000E+03	1.660945E-18	1.961069E-19
4.110000E+03	1.663091E-18	1.960072E-19
4.120000E+03	1.665696E-18	1.959595E-19
4.130000E+03	1.668765E-18	1.959641E-19
4.140000E+03	1.672266E-18	1.960162E-19
4.150000E+03	1.676192E-18	1.961146E-19
4.160000E+03	1.680538E-18	1.962578E-19
4.170000E+03	1.685271E-18	1.964414E-19
4.180000E+03	1.690401E-18	1.966656E-19
4.190000E+03	1.695882E-18	1.969247E-19
4.200000E+03	1.701736E-18	1.972204E-19
4.210000E+03	1.707920E-18	1.975472E-19
4.220000E+03	1.714430E-18	1.979037E-19
4.230000E+03	1.721250E-18	1.982877E-19
4.240000E+03	1.728377E-18	1.986981E-19
4.250000E+03	1.735768E-18	1.991294E-19
4.260000E+03	1.743436E-18	1.995824E-19
4.270000E+03	1.751351E-18	2.000533E-19
4.280000E+03	1.759485E-18	2.005383E-19
4.290000E+03	1.767838E-18	2.010366E-19
4.300000E+03	1.776395E-18	2.015463E-19
4.310000E+03	1.785113E-18	2.020621E-19
4.320000E+03	1.793978E-18	2.025818E-19
4.330000E+03	1.802974E-18	2.031034E-19
4.340000E+03	1.812086E-18	2.036249E-19
4.350000E+03	1.821297E-18	2.041441E-19
4.360000E+03	1.830606E-18	2.046605E-19
4.370000E+03	1.839996E-18	2.051721E-19
4.380000E+03	1.849449E-18	2.056766E-19
4.390000E+03	1.858992E-18	2.061766E-19
4.400000E+03	1.868608E-18	2.066702E-19
4.410000E+03	1.878294E-18	2.071566E-19
4.420000E+03	1.888063E-18	2.076370E-19
4.430000E+03	1.897911E-18	2.081111E-19
4.440000E+03	1.907821E-18	2.085767E-19
4.450000E+03	1.917807E-18	2.090353E-19
4.460000E+03	1.927853E-18	2.094851E-19
4.470000E+03	1.937957E-18	2.099262E-19
4.480000E+03	1.948119E-18	2.103588E-19
4.490000E+03	1.958308E-18	2.107798E-19
4.500000E+03	1.968543E-18	2.111914E-19
4.510000E+03	1.978809E-18	2.115928E-19
4.520000E+03	1.989095E-18	2.119829E-19
4.530000E+03	1.999405E-18	2.123630E-19
4.540000E+03	2.009712E-18	2.127306E-19
4.550000E+03	2.020023E-18	2.130872E-19
4.560000E+03	2.030344E-18	2.134345E-19
4.570000E+03	2.040670E-18	2.137723E-19
4.580000E+03	2.050974E-18	2.140992E-19
4.590000E+03	2.061267E-18	2.144173E-19
4.600000E+03	2.071544E-18	2.147268E-19
4.610000E+03	2.081799E-18	2.150285E-19
4.620000E+03	2.092046E-18	2.153245E-19
4.630000E+03	2.102264E-18	2.156138E-19
4.640000E+03	2.112467E-18	2.158987E-19
4.650000E+03	2.122654E-18	2.161797E-19
4.660000E+03	2.132823E-18	2.164573E-19
4.670000E+03	2.142972E-18	2.167317E-19
4.680000E+03	2.153102E-18	2.170030E-19
4.690000E+03	2.163212E-18	2.172711E-19
4.700000E+03	2.173341E-18	2.175395E-19
4.710000E+03	2.183489E-18	2.178076E-19
4.720000E+03	2.193659E-18	2.180747E-19
4.730000E+03	2.203890E-18	2.183438E-19
4.740000E+03	2.214168E-18	2.186121E-19
4.750000E+03	2.224495E-18	2.188786E-19
4.760000E+03	2.234894E-18	2.191441E-19
4.770000E+03	2.245371E-18	2.194076E-19
4.780000E+03	2.255910E-18	2.196663E-19
4.790000E+03	2.266537E-18	2.199211E-19
4.800000E+03	2.277257E-18	2.201715E-19
4.810000E+03	2.288056E-18	2.204149E-19
4.820000E+03	2.298960E-18	2.206531E-19
4.830000E+03	2.309978E-18	2.208863E-19
4.840000E+03	2.321117E-18	2.211149E-19
4.850000E+03	2.332385E-18	2.213397E-19
4.860000E+03	2.343769E-18	2.215600E-19
4.870000E+03	2.355320E-18	2.217814E-19
4.880000E+03	2.367004E-18	2.220020E-19
4.890000E+03	2.378831E-18	2.222240E-19
4.900000E+03	2.390833E-18	2.224521E-19
4.910000E+03	2.403019E-18	2.226891E-19
4.920000E+03	2.415400E-18	2.229377E-19
4.930000E+03	2.427942E-18	2.231969E-19
4.940000E+03	2.440701E-18	2.234737E-19
4.950000E+03	2.453662E-18	2.237688E-19
4.960000E+03	2.466838E-18	2.240848E-19
4.970000E+03	2.480238E-18	2.244242E-19
4.980000E+03	2.493872E-18	2.247888E-19
4.990000E+03	2.507725E-18	2.251783E-19
5.000000E+03	2.521805E-18	2.255937E-19
5.010000E+03	2.536143E-18	2.260379E-19
5.020000E+03	2.550722E-18	2.265087E-19
5.030000E+03	2.565522E-18	2.270037E-19
5.040000E+03	2.580596E-18	2.275263E-19
5.050000E+03	2.595875E-18	2.280692E-19
5.060000E+03	2.611411E-18	2.286351E-19
5.070000E+03	2.627205E-18	2.292227E-19
5.080000E+03	2.643185E-18	2.298240E-19
5.090000E+03	2.659427E-18	2.304442E-19
5.100000E+03	2.675880E-18	2.310778E-19
5.110000E+03	2.692546E-18	2.317239E-19
5.120000E+03	2.709449E-18	2.323841E-19
5.130000E+03	2.726538E-18	2.330542E-19
5.140000E+03	2.743809E-18	2.337346E-19
5.150000E+03	2.761289E-18	2.344290E-19
5.160000E+03	2.778949E-18	2.351370E-19
5.170000E+03	2.796786E-18	2.358615E-19
5.180000E+03	2.814770E-18	2.366038E-19
5.190000E+03	2.832926E-18	2.373707E-19
5.200000E+03	2.851194E-18	2.381626E-19
5.210000E+03	2.869625E-18	2.389898E-19
5.220000E+03	2.888186E-18	2.398563E-19
5.230000E+03	2.906845E-18	2.407665E-19
5.240000E+03	2.925592E-18	2.417273E-19
5.250000E+03	2.944451E-18	2.427485E-19
5.260000E+03	2.963353E-18	2.438327E-19
5.270000E+03	2.982317E-18	2.449899E-19
5.280000E+03	3.001363E-18	2.462301E-19
5.290000E+03	3.020388E-18	2.475534E-19
5.300000E+03	3.039467E-18	2.489745E-19
5.310000E+03	3.058496E-18	2.504928E-19
5.320000E+03	3.077547E-18	2.521226E-19
5.330000E+03	3.096513E-18	2.538623E-19
5.340000E+03	3.115435E-18	2.557225E-19
5.350000E+03	3.134294E-18	2.577082E-19
5.360000E+03	3.153040E-18	2.598208E-19
5.370000E+03	3.171716E-18	2.620690E-19
5.380000E+03	3.190209E-18	2.644474E-19
5.390000E+03	3.208596E-18	2.669655E-19
5.400000E+03	3.226828E-18	2.696215E-19
5.410000E+03	3.244886E-18	2.724156E-19
5.420000E+03	3.262757E-18	2.753469E-19
5.430000E+03	3.280423E-18	2.784140E-19
5.440000E+03	3.297836E-18	2.816119E-19
5.450000E+03	3.314982E-18	2.849376E-19
5.460000E+03	3.331845E-18	2.883875E-19
5.470000E+03	3.348409E-18	2.919574E-19
5.480000E+03	3.364624E-18	2.956396E-19
5.490000E+03	3.380438E-18	2.994256E-19
5.500000E+03	3.395866E-18	3.033126E-19
5.510000E+03	3.410855E-18	3.072914E-19
5.520000E+03	3.425350E-18	3.113523E-19
5.530000E+03	3.439294E-18	3.154853E-19
5.540000E+03	3.452700E-18	3.196868E-19
5.550000E+03	3.465475E-18	3.239431E-19
5.560000E+03	3.477631E-18	3.282504E-19
5.570000E+03	3.489076E-18	3.325949E-19
5.580000E+03	3.499783E-18	3.369690E-19
5.590000E+03	3.509766E-18	3.413688E-19
5.600000E+03	3.518928E-18	3.457801E-19
5.610000E+03	3.527283E-18	3.501990E-19
5.620000E+03	3.534806E-18	3.546185E-19
5.630000E+03	3.541439E-18	3.590281E-19
5.640000E+03	3.547159E-18	3.634214E-19
5.650000E+03	3.551982E-18	3.677960E-19
5.660000E+03	3.555890E-18	3.721466E-19
5.670000E+03	3.558828E-18	3.764644E-19
5.680000E+03	3.560819E-18	3.807487E-19
5.690000E+03	3.561889E-18	3.849996E-19
5.700000E+03	3.561952E-18	3.892056E-19
5.710000E+03	3.561039E-18	3.933675E-19
5.720000E+03	3.559184E-18	3.974868E-19
5.730000E+03	3.556385E-18	4.015608E-19
5.740000E+03	3.552642E-18	4.055873E-19
5.750000E+03	3.547957E-18	4.095637E-19
5.760000E+03	3.542337E-18	4.134874E-19
5.770000E+03	3.535824E-18	4.173599E-19
5.780000E+03	3.528391E-18	4.211735E-19
5.790000E+03	3.520121E-18	4.249334E-19
5.800000E+03	3.510990E-18	4.286306E-19
5.810000E+03	3.501011E-18	4.322601E-19
5.820000E+03	3.490276E-18	4.358258E-19
5.830000E+03	3.478728E-18	4.393122E-19
5.840000E+03	3.466425E-18	4.427175E-19
5.850000E+03	3.453429E-18	4.460398E-19
5.860000E+03	3.439729E-18	4.492675E-19
5.870000E+03	3.425393E-18	4.523984E-19
5.880000E+03	3.410416E-18	4.554209E-19
5.890000E+03	3.394911E-18	4.583385E-19
5.900000E+03	3.378879E-18	4.611400E-19
5.910000E+03	3.362362E-18	4.638198E-19
5.920000E+03	3.345443E-18	4.663781E-19
5.930000E+03	3.328127E-18	4.688052E-19
5.940000E+03	3.310497E-18	4.711029E-19
5.950000E+03	3.292559E-18	4.732628E-19
5.960000E+03	3.274396E-18	4.752882E-19
5.970000E+03	3.256050E-18	4.771778E-19
5.980000E+03	3.237562E-18	4.789309E-19
5.990000E+03	3.218937E-18	4.805421E-19
6.000000E+03	3.200249E-18	4.820175E-19
6.010000E+03	3.181536E-18	4.833584E-19
6.020000E+03	3.162798E-18	4.845609E-19
6.030000E+03	3.144107E-18	4.856332E-19
6.040000E+03	3.125457E-18	4.865723E-19
6.050000E+03	3.106845E-18	4.873755E-19
6.060000E+03	3.088373E-18	4.880578E-19
6.070000E+03	3.069996E-18	4.886116E-19
6.080000E+03	3.051778E-18	4.890466E-19
6.090000E+03	3.033671E-18	4.893554E-19
6.100000E+03	3.015734E-18	4.895483E-19
6.110000E+03	2.997955E-18	4.896238E-19
6.120000E+03	2.980352E-18	4.895866E-19
6.130000E+03	2.962946E-18	4.894414E-19
6.140000E+03	2.945718E-18	4.891869E-19
6.150000E+03	2.928684E-18	4.888278E-19
6.160000E+03	2.911859E-18	4.883688E-19
6.170000E+03	2.895256E-18	4.878148E-19
6.180000E+03	2.878888E-18	4.871703E-19
6.190000E+03	2.862729E-18	4.864338E-19
6.200000E+03	2.846826E-18	4.856161E-19
6.210000E+03	2.831187E-18	4.847216E-19
6.220000E+03	2.815819E-18	4.837548E-19
6.230000E+03	2.800765E-18	4.827262E-19
6.240000E+03	2.786067E-18	4.816465E-19
6.250000E+03	2.771767E-18	4.805261E-19
6.260000E+03	2.757904E-18	4.793756E-19
6.270000E+03	2.744518E-18	4.782055E-19
6.280000E+03	2.731686E-18	4.770325E-19
6.290000E+03	2.719371E-18	4.758540E-19
6.300000E+03	2.707724E-18	4.746998E-19
6.310000E+03	2.696709E-18	4.735672E-19
6.320000E+03	2.686401E-18	4.724728E-19
6.330000E+03	2.676838E-18	4.714269E-19
6.340000E+03	2.668060E-18	4.704394E-19
6.350000E+03	2.660068E-18	4.695140E-19
6.360000E+03	2.652900E-18	4.686606E-19
6.370000E+03	2.646596E-18	4.678893E-19
6.380000E+03	2.641159E-18	4.672032E-19
6.390000E+03	2.636591E-18	4.666056E-19
6.400000E+03	2.632932E-18	4.661065E-19
6.410000E+03	2.630111E-18	4.656952E-19
6.420000E+03	2.628128E-18	4.653745E-19
6.430000E+03	2.626948E-18	4.651405E-19
6.440000E+03	2.626495E-18	4.649817E-19
6.450000E+03	2.626811E-18	4.649074E-19
6.460000E+03	2.627818E-18	4.649061E-19
6.470000E+03	2.629557E-18	4.649868E-19
6.480000E+03	2.632030E-18	4.651516E-19
6.490000E+03	2.635200E-18	4.653955E-19
6.500000E+03	2.639068E-18	4.657202E-19
6.510000E+03	2.643636E-18	4.661278E-19
6.520000E+03	2.648906E-18	4.666198E-19
6.530000E+03	2.654879E-18	4.671979E-19
6.540000E+03	2.661601E-18	4.678713E-19
6.550000E+03	2.669032E-18	4.686342E-19
6.560000E+03	2.677133E-18	4.694807E-19
6.570000E+03	2.685990E-18	4.704272E-19
6.580000E+03	2.695522E-18	4.714601E-19
6.590000E+03	2.705774E-18	4.725882E-19
6.600000E+03	2.716748E-18	4.738131E-19
6.610000E+03	2.728449E-18	4.751359E-19
6.620000E+03	2.740880E-18	4.765579E-19
6.630000E+03	2.753999E-18	4.780727E-19
6.640000E+03	2.767854E-18	4.796890E-19
6.650000E+03	2.782404E-18	4.814002E-19
6.660000E+03	2.797697E-18	4.832153E-19
6.670000E+03	2.813690E-18	4.851273E-19
6.680000E+03	2.830388E-18	4.871371E-19
6.690000E+03	2.847841E-18	4.892541E-19
6.700000E+03	2.866055E-18	4.914792E-19
6.710000E+03	2.884935E-18	4.937969E-19
6.720000E+03	2.904585E-18	4.962248E-19
6.730000E+03	2.924910E-18	4.987469E-19
6.740000E+03	2.946013E-18	5.013813E-19
6.750000E+03	2.967850E-18	5.041203E-19
6.760000E+03	2.990374E-18	5.069559E-19
6.770000E+03	3.013693E-18	5.099069E-19
6.780000E+03	3.037708E-18	5.129562E-19
6.790000E+03	3.062476E-18	5.161137E-19
6.800000E+03	3.088003E-18	5.193802E-19
6.810000E+03	3.114295E-18	5.227567E-19
6.820000E+03	3.141300E-18	5.262346E-19
6.830000E+03	3.169082E-18	5.298241E-19
6.840000E+03	3.197586E-18	5.335163E-19
6.850000E+03	3.226876E-18	5.373216E-19
6.860000E+03	3.256898E-18	5.412308E-19
6.870000E+03	3.287656E-18	5.452445E-19
6.880000E+03	3.319215E-18	5.493733E-19
6.890000E+03	3.351456E-18	5.535973E-19
6.900000E+03	3.384506E-18	5.579374E-19
6.910000E+03	3.418308E-18	5.623838E-19
6.920000E+03	3.452864E-18	5.669368E-19
6.930000E+03	3.488179E-18	5.715968E-19
6.940000E+03	3.524254E-18	5.763640E-19
6.950000E+03	3.561025E-18	5.812277E-19
6.960000E+03	3.598560E-18	5.861989E-19
6.970000E+03	3.636863E-18	5.912778E-19
6.980000E+03	3.675936E-18	5.964647E-19
6.990000E+03	3.715637E-18	6.017364E-19
7.000000E+03	3.756182E-18	6.071276E-19
7.010000E+03	3.797353E-18	6.126031E-19
7.020000E+03	3.839296E-18	6.181862E-19
7.030000E+03	3.881936E-18	6.238649E-19
7.040000E+03	3.925272E-18	6.296387E-19
7.050000E+03	3.969301E-18	6.355072E-19
7.060000E+03	4.014022E-18	6.414700E-19
7.070000E+03	4.059350E-18	6.475136E-19
7.080000E+03	4.105361E-18	6.536501E-19
7.090000E+03	4.152052E-18	6.598790E-19
7.100000E+03	4.199334E-18	6.661862E-19
7.110000E+03	4.247286E-18	6.725842E-19
7.120000E+03	4.295817E-18	6.790585E-19
7.130000E+03	4.344917E-18	6.856079E-19
7.140000E+03	4.394577E-18	6.922309E-19
7.150000E+03	4.444880E-18	6.989407E-19
7.160000E+03	4.495634E-18	7.057073E-19
7.170000E+03	4.546823E-18	7.125284E-19
7.180000E+03	4.598625E-18	7.194320E-19
7.190000E+03	4.650836E-18	7.263867E-19
7.200000E+03	4.703441E-18	7.333902E-19
7.210000E+03	4.756523E-18	7.404558E-19
7.220000E+03	4.809965E-18	7.475659E-19
7.230000E+03	4.863751E-18	7.547180E-19
7.240000E+03	4.917860E-18	7.619096E-19
7.250000E+03	4.972272E-18	7.691381E-19
7.260000E+03	5.027075E-18	7.764174E-19
7.270000E+03	5.082032E-18	7.837116E-19
7.280000E+03	5.137340E-18	7.910516E-19
7.290000E+03	5.192866E-18	7.984175E-19
7.300000E+03	5.248587E-18	8.058064E-19
7.310000E+03	5.304596E-18	8.132330E-19
7.320000E+03	5.360752E-18	8.206768E-19
7.330000E+03	5.417152E-18	8.281527E-19
7.340000E+03	5.473772E-18	8.356582E-19
7.350000E+03	5.530714E-18	8.432094E-19
7.360000E+03	5.587963E-18	8.508042E-19
7.370000E+03	5.645627E-18	8.584600E-19
7.380000E+03	5.703564E-18	8.661556E-19
7.390000E+03	5.762152E-18	8.739486E-19
7.400000E+03	5.821388E-18	8.818389E-19
7.410000E+03	5.881134E-18	8.898061E-19
7.420000E+03	5.941795E-18	8.979115E-19
7.430000E+03	6.003243E-18	9.061355E-19
7.440000E+03	6.065621E-18	9.145001E-19
7.450000E+03	6.128795E-18	9.229848E-19
7.460000E+03	6.192916E-18	9.316120E-19
7.470000E+03	6.257548E-18	9.403162E-19
7.480000E+03	6.322982E-18	9.491408E-19
7.490000E+03	6.388765E-18	9.580175E-19
7.500000E+03	6.455033E-18	9.669667E-19
7.510000E+03	6.521621E-18	9.759631E-19
7.520000E+03	6.588351E-18	9.849800E-19
7.530000E+03	6.655361E-18	9.940374E-19
7.540000E+03	6.722143E-18	1.003059E-18
7.550000E+03	6.788987E-18	1.012088E-18
7.560000E+03	6.855702E-18	1.021094E-18
7.570000E+03	6.922252E-18	1.030073E-18
7.580000E+03	6.988431E-18	1.038993E-18
7.590000E+03	7.054373E-18	1.047874E-18
7.600000E+03	7.119866E-18	1.056682E-18
7.610000E+03	7.184866E-18	1.065412E-18
7.620000E+03	7.249511E-18	1.074082E-18
7.630000E+03	7.313582E-18	1.082661E-18
7.640000E+03	7.377219E-18	1.091169E-18
7.650000E+03	7.440010E-18	1.099544E-18
7.660000E+03	7.502283E-18	1.107834E-18
7.670000E+03	7.563807E-18	1.116006E-18
7.680000E+03	7.624731E-18	1.124080E-18
7.690000E+03	7.684819E-18	1.132022E-18
7.700000E+03	7.744026E-18	1.139826E-18
7.710000E+03	7.802304E-18	1.147484E-18
7.720000E+03	7.860017E-18	1.155049E-18
7.730000E+03	7.916512E-18	1.162426E-18
7.740000E+03	7.972362E-18	1.169700E-18
7.750000E+03	8.027114E-18	1.176804E-18
7.760000E+03	8.080935E-18	1.183762E-18
