#wls	flux	fluxerr
1.600000E+03	1.407465E-16	1.362993E-16
1.640000E+03	1.453626E-16	1.384326E-16
1.680000E+03	1.498195E-16	1.402169E-16
1.720000E+03	1.540483E-16	1.415919E-16
1.760000E+03	1.580344E-16	1.425518E-16
1.800000E+03	1.617009E-16	1.430372E-16
1.840000E+03	1.649973E-16	1.430175E-16
1.880000E+03	1.678986E-16	1.424885E-16
1.920000E+03	1.703216E-16	1.414004E-16
1.960000E+03	1.722254E-16	1.397449E-16
2.000000E+03	1.735435E-16	1.374976E-16
2.040000E+03	1.742390E-16	1.346635E-16
2.080000E+03	1.742312E-16	1.312187E-16
2.120000E+03	1.734640E-16	1.271656E-16
2.160000E+03	1.718850E-16	1.225149E-16
2.200000E+03	1.694104E-16	1.172613E-16
2.240000E+03	1.659794E-16	1.114239E-16
2.280000E+03	1.616038E-16	1.050753E-16
2.320000E+03	1.563549E-16	9.832608E-17
2.360000E+03	1.504020E-16	9.134161E-17
2.400000E+03	1.438863E-16	8.425694E-17
2.440000E+03	1.369321E-16	7.718589E-17
2.480000E+03	1.296661E-16	7.023289E-17
2.520000E+03	1.221704E-16	6.346797E-17
2.560000E+03	1.145358E-16	5.695787E-17
2.600000E+03	1.068393E-16	5.075424E-17
2.640000E+03	9.915926E-17	4.490174E-17
2.680000E+03	9.155924E-17	3.943093E-17
2.720000E+03	8.410164E-17	3.436527E-17
2.760000E+03	7.684347E-17	2.971963E-17
2.800000E+03	6.983624E-17	2.550081E-17
2.840000E+03	6.312751E-17	2.170873E-17
2.880000E+03	5.676210E-17	1.833733E-17
2.920000E+03	5.077858E-17	1.537393E-17
2.960000E+03	4.520924E-17	1.280016E-17
3.000000E+03	4.007653E-17	1.059180E-17
3.010000E+03	3.886423E-17	1.009377E-17
3.020000E+03	3.767916E-17	9.616053E-18
3.030000E+03	3.652289E-17	9.158542E-18
3.040000E+03	3.539441E-17	8.720462E-18
3.050000E+03	3.429428E-17	8.301448E-18
3.060000E+03	3.322295E-17	7.901092E-18
3.070000E+03	3.217873E-17	7.518479E-18
3.080000E+03	3.116338E-17	7.153521E-18
3.090000E+03	3.017524E-17	6.805327E-18
3.100000E+03	2.921524E-17	6.473609E-18
3.110000E+03	2.828241E-17	6.157655E-18
3.120000E+03	2.737641E-17	5.856907E-18
3.130000E+03	2.649796E-17	5.571035E-18
3.140000E+03	2.564561E-17	5.299257E-18
3.150000E+03	2.482042E-17	5.041330E-18
3.160000E+03	2.402057E-17	4.796414E-18
3.170000E+03	2.324698E-17	4.564254E-18
3.180000E+03	2.249835E-17	4.344148E-18
3.190000E+03	2.177506E-17	4.135742E-18
3.200000E+03	2.107624E-17	3.938451E-18
3.210000E+03	2.040180E-17	3.751850E-18
3.220000E+03	1.975122E-17	3.575450E-18
3.230000E+03	1.912402E-17	3.408777E-18
3.240000E+03	1.851937E-17	3.251316E-18
3.250000E+03	1.793740E-17	3.102733E-18
3.260000E+03	1.737728E-17	2.962540E-18
3.270000E+03	1.683875E-17	2.830364E-18
3.280000E+03	1.632101E-17	2.705752E-18
3.290000E+03	1.582354E-17	2.588316E-18
3.300000E+03	1.534604E-17	2.477721E-18
3.310000E+03	1.488774E-17	2.373566E-18
3.320000E+03	1.444833E-17	2.275538E-18
3.330000E+03	1.402724E-17	2.183304E-18
3.340000E+03	1.362354E-17	2.096480E-18
3.350000E+03	1.323711E-17	2.014828E-18
3.360000E+03	1.286722E-17	1.938027E-18
3.370000E+03	1.251337E-17	1.865803E-18
3.380000E+03	1.217503E-17	1.797896E-18
3.390000E+03	1.185140E-17	1.734009E-18
3.400000E+03	1.154232E-17	1.673960E-18
3.410000E+03	1.124716E-17	1.617504E-18
3.420000E+03	1.096533E-17	1.564413E-18
3.430000E+03	1.069638E-17	1.514491E-18
3.440000E+03	1.043989E-17	1.467557E-18
3.450000E+03	1.019520E-17	1.423401E-18
3.460000E+03	9.962043E-18	1.381882E-18
3.470000E+03	9.739813E-18	1.342816E-18
3.480000E+03	9.528160E-18	1.306064E-18
3.490000E+03	9.326634E-18	1.271481E-18
3.500000E+03	9.134811E-18	1.238931E-18
3.510000E+03	8.952291E-18	1.208290E-18
3.520000E+03	8.778692E-18	1.179439E-18
3.530000E+03	8.613559E-18	1.152258E-18
3.540000E+03	8.456467E-18	1.126635E-18
3.550000E+03	8.307107E-18	1.102478E-18
3.560000E+03	8.165100E-18	1.079691E-18
3.570000E+03	8.030175E-18	1.058197E-18
3.580000E+03	7.901909E-18	1.037899E-18
3.590000E+03	7.780068E-18	1.018734E-18
3.600000E+03	7.664353E-18	1.000630E-18
3.610000E+03	7.554630E-18	9.835396E-19
3.620000E+03	7.450546E-18	9.673908E-19
3.630000E+03	7.351917E-18	9.521351E-19
3.640000E+03	7.258353E-18	9.377000E-19
3.650000E+03	7.169696E-18	9.240451E-19
3.660000E+03	7.085726E-18	9.111237E-19
3.670000E+03	7.006235E-18	8.988922E-19
3.680000E+03	6.931084E-18	8.873179E-19
3.690000E+03	6.860143E-18	8.763699E-19
3.700000E+03	6.793220E-18	8.660111E-19
3.710000E+03	6.730253E-18	8.562218E-19
3.720000E+03	6.671059E-18	8.469681E-19
3.730000E+03	6.615638E-18	8.382400E-19
3.740000E+03	6.563868E-18	8.300131E-19
3.750000E+03	6.515632E-18	8.222642E-19
3.760000E+03	6.470870E-18	8.149778E-19
3.770000E+03	6.429578E-18	8.081462E-19
3.780000E+03	6.391639E-18	8.017479E-19
3.790000E+03	6.357047E-18	7.957758E-19
3.800000E+03	6.325687E-18	7.902095E-19
3.810000E+03	6.297498E-18	7.850358E-19
3.820000E+03	6.272476E-18	7.802486E-19
3.830000E+03	6.250610E-18	7.758418E-19
3.840000E+03	6.231789E-18	7.717964E-19
3.850000E+03	6.216057E-18	7.681131E-19
3.860000E+03	6.203251E-18	7.647674E-19
3.870000E+03	6.193466E-18	7.617665E-19
3.880000E+03	6.186542E-18	7.590862E-19
3.890000E+03	6.182572E-18	7.567338E-19
3.900000E+03	6.181448E-18	7.546918E-19
3.910000E+03	6.183163E-18	7.529551E-19
3.920000E+03	6.187660E-18	7.515128E-19
3.930000E+03	6.194933E-18	7.503597E-19
3.940000E+03	6.204924E-18	7.494851E-19
3.950000E+03	6.217679E-18	7.488902E-19
3.960000E+03	6.233091E-18	7.485581E-19
3.970000E+03	6.251157E-18	7.484841E-19
3.980000E+03	6.271822E-18	7.486576E-19
3.990000E+03	6.295132E-18	7.490799E-19
4.000000E+03	6.321035E-18	7.497405E-19
4.010000E+03	6.349476E-18	7.506290E-19
4.020000E+03	6.380406E-18	7.517350E-19
4.030000E+03	6.413872E-18	7.530602E-19
4.040000E+03	6.449774E-18	7.545885E-19
4.050000E+03	6.488162E-18	7.563218E-19
4.060000E+03	6.528938E-18	7.582443E-19
4.070000E+03	6.572102E-18	7.603523E-19
4.080000E+03	6.617659E-18	7.626421E-19
4.090000E+03	6.665561E-18	7.651047E-19
4.100000E+03	6.715760E-18	7.677308E-19
4.110000E+03	6.768210E-18	7.705116E-19
4.120000E+03	6.822971E-18	7.734506E-19
4.130000E+03	6.879943E-18	7.765334E-19
4.140000E+03	6.939135E-18	7.797581E-19
4.150000E+03	7.000447E-18	7.831109E-19
4.160000E+03	7.063887E-18	7.865907E-19
4.170000E+03	7.129466E-18	7.901966E-19
4.180000E+03	7.197082E-18	7.939160E-19
4.190000E+03	7.266745E-18	7.977492E-19
4.200000E+03	7.338352E-18	8.016842E-19
4.210000E+03	7.411912E-18	8.057224E-19
4.220000E+03	7.487319E-18	8.098529E-19
4.230000E+03	7.564581E-18	8.140783E-19
4.240000E+03	7.643588E-18	8.183889E-19
4.250000E+03	7.724286E-18	8.227820E-19
4.260000E+03	7.806557E-18	8.272489E-19
4.270000E+03	7.890404E-18	8.317945E-19
4.280000E+03	7.975704E-18	8.364114E-19
4.290000E+03	8.062392E-18	8.410987E-19
4.300000E+03	8.150337E-18	8.458497E-19
4.310000E+03	8.239399E-18	8.506573E-19
4.320000E+03	8.329502E-18	8.555215E-19
4.330000E+03	8.420562E-18	8.604421E-19
4.340000E+03	8.512427E-18	8.654116E-19
4.350000E+03	8.605006E-18	8.704289E-19
4.360000E+03	8.698132E-18	8.754853E-19
4.370000E+03	8.791774E-18	8.805847E-19
4.380000E+03	8.885831E-18	8.857234E-19
4.390000E+03	8.980413E-18	8.909174E-19
4.400000E+03	9.075421E-18	8.961602E-19
4.410000E+03	9.170902E-18	9.014575E-19
4.420000E+03	9.266832E-18	9.068067E-19
4.430000E+03	9.363343E-18	9.122190E-19
4.440000E+03	9.460342E-18	9.176826E-19
4.450000E+03	9.557815E-18	9.231920E-19
4.460000E+03	9.655826E-18	9.287492E-19
4.470000E+03	9.754368E-18	9.343479E-19
4.480000E+03	9.853436E-18	9.399822E-19
4.490000E+03	9.952944E-18	9.456381E-19
4.500000E+03	1.005297E-17	9.513177E-19
4.510000E+03	1.015344E-17	9.570080E-19
4.520000E+03	1.025435E-17	9.627042E-19
4.530000E+03	1.035571E-17	9.684028E-19
4.540000E+03	1.045736E-17	9.740845E-19
4.550000E+03	1.055939E-17	9.797556E-19
4.560000E+03	1.066173E-17	9.854072E-19
4.570000E+03	1.076441E-17	9.910398E-19
4.580000E+03	1.086725E-17	9.966378E-19
4.590000E+03	1.097038E-17	1.002213E-18
4.600000E+03	1.107365E-17	1.007750E-18
4.610000E+03	1.117717E-17	1.013265E-18
4.620000E+03	1.128080E-17	1.018743E-18
4.630000E+03	1.138459E-17	1.024193E-18
4.640000E+03	1.148848E-17	1.029612E-18
4.650000E+03	1.159263E-17	1.035017E-18
4.660000E+03	1.169689E-17	1.040398E-18
4.670000E+03	1.180146E-17	1.045773E-18
4.680000E+03	1.190629E-17	1.051141E-18
4.690000E+03	1.201136E-17	1.056503E-18
4.700000E+03	1.211687E-17	1.061878E-18
4.710000E+03	1.222270E-17	1.067255E-18
4.720000E+03	1.232896E-17	1.072645E-18
4.730000E+03	1.243551E-17	1.078037E-18
4.740000E+03	1.254248E-17	1.083440E-18
4.750000E+03	1.264963E-17	1.088836E-18
4.760000E+03	1.275707E-17	1.094232E-18
4.770000E+03	1.286468E-17	1.099618E-18
4.780000E+03	1.297259E-17	1.105005E-18
4.790000E+03	1.308067E-17	1.110384E-18
4.800000E+03	1.318893E-17	1.115753E-18
4.810000E+03	1.329737E-17	1.121116E-18
4.820000E+03	1.340598E-17	1.126475E-18
4.830000E+03	1.351478E-17	1.131831E-18
4.840000E+03	1.362363E-17	1.137179E-18
4.850000E+03	1.373266E-17	1.142532E-18
4.860000E+03	1.384188E-17	1.147897E-18
4.870000E+03	1.395113E-17	1.153266E-18
4.880000E+03	1.406043E-17	1.158646E-18
4.890000E+03	1.416990E-17	1.164052E-18
4.900000E+03	1.427924E-17	1.169468E-18
4.910000E+03	1.438872E-17	1.174920E-18
4.920000E+03	1.449819E-17	1.180399E-18
4.930000E+03	1.460747E-17	1.185897E-18
4.940000E+03	1.471667E-17	1.191426E-18
4.950000E+03	1.482576E-17	1.196984E-18
4.960000E+03	1.493455E-17	1.202558E-18
4.970000E+03	1.504314E-17	1.208154E-18
4.980000E+03	1.515117E-17	1.213744E-18
4.990000E+03	1.525887E-17	1.219342E-18
5.000000E+03	1.536602E-17	1.224927E-18
5.010000E+03	1.547239E-17	1.230477E-18
5.020000E+03	1.557803E-17	1.235989E-18
5.030000E+03	1.568270E-17	1.241440E-18
5.040000E+03	1.578628E-17	1.246814E-18
5.050000E+03	1.588865E-17	1.252097E-18
5.060000E+03	1.598969E-17	1.257273E-18
5.070000E+03	1.608910E-17	1.262315E-18
5.080000E+03	1.618691E-17	1.267219E-18
5.090000E+03	1.628280E-17	1.271959E-18
5.100000E+03	1.637662E-17	1.276520E-18
5.110000E+03	1.646804E-17	1.280877E-18
5.120000E+03	1.655705E-17	1.285030E-18
5.130000E+03	1.664316E-17	1.288944E-18
5.140000E+03	1.672651E-17	1.292634E-18
5.150000E+03	1.680659E-17	1.296068E-18
5.160000E+03	1.688338E-17	1.299254E-18
5.170000E+03	1.695651E-17	1.302175E-18
5.180000E+03	1.702564E-17	1.304817E-18
5.190000E+03	1.709073E-17	1.307193E-18
5.200000E+03	1.715141E-17	1.309295E-18
5.210000E+03	1.720749E-17	1.311126E-18
5.220000E+03	1.725877E-17	1.312692E-18
5.230000E+03	1.730488E-17	1.313990E-18
5.240000E+03	1.734563E-17	1.315027E-18
5.250000E+03	1.738066E-17	1.315800E-18
5.260000E+03	1.740994E-17	1.316334E-18
5.270000E+03	1.743314E-17	1.316626E-18
5.280000E+03	1.745008E-17	1.316686E-18
5.290000E+03	1.746060E-17	1.316525E-18
5.300000E+03	1.746439E-17	1.316141E-18
5.310000E+03	1.746131E-17	1.315543E-18
5.320000E+03	1.745127E-17	1.314739E-18
5.330000E+03	1.743417E-17	1.313739E-18
5.340000E+03	1.740978E-17	1.312537E-18
5.350000E+03	1.737824E-17	1.311152E-18
5.360000E+03	1.733955E-17	1.309592E-18
5.370000E+03	1.729375E-17	1.307861E-18
5.380000E+03	1.724073E-17	1.305954E-18
5.390000E+03	1.718095E-17	1.303900E-18
5.400000E+03	1.711438E-17	1.301693E-18
5.410000E+03	1.704155E-17	1.299364E-18
5.420000E+03	1.696252E-17	1.296905E-18
5.430000E+03	1.687774E-17	1.294336E-18
5.440000E+03	1.678751E-17	1.291662E-18
5.450000E+03	1.669252E-17	1.288918E-18
5.460000E+03	1.659299E-17	1.286097E-18
5.470000E+03	1.648918E-17	1.283195E-18
5.480000E+03	1.638121E-17	1.280196E-18
5.490000E+03	1.626959E-17	1.277111E-18
5.500000E+03	1.615450E-17	1.273925E-18
5.510000E+03	1.603633E-17	1.270638E-18
5.520000E+03	1.591550E-17	1.267251E-18
5.530000E+03	1.579241E-17	1.263767E-18
5.540000E+03	1.566751E-17	1.260189E-18
5.550000E+03	1.554138E-17	1.256533E-18
5.560000E+03	1.541447E-17	1.252807E-18
5.570000E+03	1.528750E-17	1.249041E-18
5.580000E+03	1.516075E-17	1.245232E-18
5.590000E+03	1.503505E-17	1.241426E-18
5.600000E+03	1.491064E-17	1.237620E-18
5.610000E+03	1.478816E-17	1.233850E-18
5.620000E+03	1.466823E-17	1.230152E-18
5.630000E+03	1.455098E-17	1.226526E-18
5.640000E+03	1.443725E-17	1.223033E-18
5.650000E+03	1.432725E-17	1.219686E-18
5.660000E+03	1.422116E-17	1.216498E-18
5.670000E+03	1.411971E-17	1.213529E-18
5.680000E+03	1.402286E-17	1.210778E-18
5.690000E+03	1.393098E-17	1.208282E-18
5.700000E+03	1.384439E-17	1.206074E-18
5.710000E+03	1.376325E-17	1.204175E-18
5.720000E+03	1.368771E-17	1.202605E-18
5.730000E+03	1.361786E-17	1.201381E-18
5.740000E+03	1.355394E-17	1.200531E-18
5.750000E+03	1.349617E-17	1.200084E-18
5.760000E+03	1.344432E-17	1.200024E-18
5.770000E+03	1.339887E-17	1.200400E-18
5.780000E+03	1.335957E-17	1.201195E-18
5.790000E+03	1.332673E-17	1.202438E-18
5.800000E+03	1.330024E-17	1.204122E-18
5.810000E+03	1.328026E-17	1.206261E-18
5.820000E+03	1.326682E-17	1.208853E-18
5.830000E+03	1.326006E-17	1.211910E-18
5.840000E+03	1.325985E-17	1.215415E-18
5.850000E+03	1.326621E-17	1.219362E-18
5.860000E+03	1.327929E-17	1.223758E-18
5.870000E+03	1.329922E-17	1.228608E-18
5.880000E+03	1.332572E-17	1.233877E-18
5.890000E+03	1.335908E-17	1.239582E-18
5.900000E+03	1.339913E-17	1.245699E-18
5.910000E+03	1.344600E-17	1.252232E-18
5.920000E+03	1.349967E-17	1.259169E-18
5.930000E+03	1.355994E-17	1.266487E-18
5.940000E+03	1.362692E-17	1.274188E-18
5.950000E+03	1.370056E-17	1.282261E-18
5.960000E+03	1.378062E-17	1.290681E-18
5.970000E+03	1.386733E-17	1.299468E-18
5.980000E+03	1.396028E-17	1.308582E-18
5.990000E+03	1.405951E-17	1.318028E-18
6.000000E+03	1.416489E-17	1.327798E-18
6.010000E+03	1.427610E-17	1.337869E-18
6.020000E+03	1.439315E-17	1.348247E-18
6.030000E+03	1.451551E-17	1.358895E-18
6.040000E+03	1.464332E-17	1.369837E-18
6.050000E+03	1.477600E-17	1.381035E-18
6.060000E+03	1.491348E-17	1.392499E-18
6.070000E+03	1.505532E-17	1.404207E-18
6.080000E+03	1.520123E-17	1.416156E-18
6.090000E+03	1.535075E-17	1.428322E-18
6.100000E+03	1.550335E-17	1.440685E-18
6.110000E+03	1.565888E-17	1.453255E-18
6.120000E+03	1.581644E-17	1.465976E-18
6.130000E+03	1.597585E-17	1.478858E-18
6.140000E+03	1.613634E-17	1.491857E-18
6.150000E+03	1.629753E-17	1.504965E-18
6.160000E+03	1.645823E-17	1.518096E-18
6.170000E+03	1.661825E-17	1.531254E-18
6.180000E+03	1.677656E-17	1.544366E-18
6.190000E+03	1.693256E-17	1.557390E-18
6.200000E+03	1.708542E-17	1.570262E-18
6.210000E+03	1.723519E-17	1.582987E-18
6.220000E+03	1.738218E-17	1.595593E-18
6.230000E+03	1.752677E-17	1.608107E-18
6.240000E+03	1.766938E-17	1.620558E-18
6.250000E+03	1.780984E-17	1.632915E-18
6.260000E+03	1.794912E-17	1.645251E-18
6.270000E+03	1.808688E-17	1.657518E-18
6.280000E+03	1.822376E-17	1.669751E-18
6.290000E+03	1.836019E-17	1.681971E-18
6.300000E+03	1.849592E-17	1.694130E-18
6.310000E+03	1.863142E-17	1.706254E-18
6.320000E+03	1.876699E-17	1.718347E-18
6.330000E+03	1.890293E-17	1.730416E-18
6.340000E+03	1.903904E-17	1.742424E-18
6.350000E+03	1.917565E-17	1.754384E-18
6.360000E+03	1.931284E-17	1.766287E-18
6.370000E+03	1.945070E-17	1.778128E-18
6.380000E+03	1.958905E-17	1.789877E-18
6.390000E+03	1.972769E-17	1.801506E-18
6.400000E+03	1.986641E-17	1.812988E-18
6.410000E+03	2.000529E-17	1.824323E-18
6.420000E+03	2.014410E-17	1.835487E-18
6.430000E+03	2.028202E-17	1.846401E-18
6.440000E+03	2.041997E-17	1.857148E-18
6.450000E+03	2.055802E-17	1.867735E-18
6.460000E+03	2.069652E-17	1.878196E-18
6.470000E+03	2.083618E-17	1.888598E-18
6.480000E+03	2.097677E-17	1.898923E-18
6.490000E+03	2.111902E-17	1.909242E-18
6.500000E+03	2.126302E-17	1.919568E-18
6.510000E+03	2.140922E-17	1.929946E-18
6.520000E+03	2.155705E-17	1.940332E-18
6.530000E+03	2.170762E-17	1.950830E-18
6.540000E+03	2.186037E-17	1.961396E-18
6.550000E+03	2.201573E-17	1.972074E-18
6.560000E+03	2.217383E-17	1.982879E-18
6.570000E+03	2.233441E-17	1.993794E-18
6.580000E+03	2.249792E-17	2.004864E-18
6.590000E+03	2.266446E-17	2.016100E-18
6.600000E+03	2.283378E-17	2.027484E-18
6.610000E+03	2.300594E-17	2.039025E-18
6.620000E+03	2.318104E-17	2.050734E-18
6.630000E+03	2.335953E-17	2.062654E-18
6.640000E+03	2.354075E-17	2.074726E-18
6.650000E+03	2.372513E-17	2.086993E-18
6.660000E+03	2.391276E-17	2.099461E-18
6.670000E+03	2.410331E-17	2.112103E-18
6.680000E+03	2.429724E-17	2.124960E-18
6.690000E+03	2.449421E-17	2.138001E-18
6.700000E+03	2.469468E-17	2.151267E-18
6.710000E+03	2.489788E-17	2.164689E-18
6.720000E+03	2.510427E-17	2.178305E-18
6.730000E+03	2.531434E-17	2.192156E-18
6.740000E+03	2.552726E-17	2.206166E-18
6.750000E+03	2.574352E-17	2.220375E-18
6.760000E+03	2.596270E-17	2.234741E-18
6.770000E+03	2.618530E-17	2.249302E-18
6.780000E+03	2.641089E-17	2.264015E-18
6.790000E+03	2.663949E-17	2.278874E-18
6.800000E+03	2.687161E-17	2.293915E-18
6.810000E+03	2.710632E-17	2.309049E-18
6.820000E+03	2.734460E-17	2.324352E-18
6.830000E+03	2.758548E-17	2.339731E-18
6.840000E+03	2.782997E-17	2.355262E-18
6.850000E+03	2.807706E-17	2.370852E-18
6.860000E+03	2.832674E-17	2.386488E-18
6.870000E+03	2.857950E-17	2.402207E-18
6.880000E+03	2.883534E-17	2.417998E-18
6.890000E+03	2.909316E-17	2.433764E-18
6.900000E+03	2.935398E-17	2.449587E-18
6.910000E+03	2.961723E-17	2.465414E-18
6.920000E+03	2.988341E-17	2.481285E-18
6.930000E+03	3.015135E-17	2.497103E-18
6.940000E+03	3.042152E-17	2.512909E-18
6.950000E+03	3.069386E-17	2.528701E-18
6.960000E+03	3.096771E-17	2.544428E-18
6.970000E+03	3.124356E-17	2.560138E-18
6.980000E+03	3.152134E-17	2.575830E-18
6.990000E+03	3.180035E-17	2.591457E-18
7.000000E+03	3.208050E-17	2.607017E-18
7.010000E+03	3.236167E-17	2.622513E-18
7.020000E+03	3.264442E-17	2.637997E-18
7.030000E+03	3.292738E-17	2.653368E-18
7.040000E+03	3.321174E-17	2.668730E-18
7.050000E+03	3.349612E-17	2.683981E-18
7.060000E+03	3.378109E-17	2.699173E-18
7.070000E+03	3.406588E-17	2.714252E-18
7.080000E+03	3.435111E-17	2.729272E-18
7.090000E+03	3.463670E-17	2.744230E-18
7.100000E+03	3.492190E-17	2.759069E-18
7.110000E+03	3.520594E-17	2.773729E-18
7.120000E+03	3.549016E-17	2.788315E-18
7.130000E+03	3.577381E-17	2.802764E-18
7.140000E+03	3.605683E-17	2.817069E-18
7.150000E+03	3.633919E-17	2.831220E-18
7.160000E+03	3.662010E-17	2.845150E-18
7.170000E+03	3.690026E-17	2.858904E-18
7.180000E+03	3.717887E-17	2.872413E-18
7.190000E+03	3.745587E-17	2.885663E-18
7.200000E+03	3.773202E-17	2.898702E-18
7.210000E+03	3.800649E-17	2.911456E-18
7.220000E+03	3.828003E-17	2.923976E-18
7.230000E+03	3.855100E-17	2.936127E-18
7.240000E+03	3.882013E-17	2.947962E-18
7.250000E+03	3.908738E-17	2.959472E-18
7.260000E+03	3.935267E-17	2.970653E-18
7.270000E+03	3.961594E-17	2.981501E-18
7.280000E+03	3.987712E-17	2.992020E-18
7.290000E+03	4.013528E-17	3.002150E-18
7.300000E+03	4.039118E-17	3.011964E-18
7.310000E+03	4.064474E-17	3.021479E-18
7.320000E+03	4.089588E-17	3.030714E-18
7.330000E+03	4.114361E-17	3.039632E-18
7.340000E+03	4.138874E-17	3.048330E-18
7.350000E+03	4.163209E-17	3.056916E-18
7.360000E+03	4.187179E-17	3.065303E-18
7.370000E+03	4.210866E-17	3.073612E-18
7.380000E+03	4.234264E-17	3.081904E-18
7.390000E+03	4.257465E-17	3.090315E-18
7.400000E+03	4.280370E-17	3.098850E-18
7.410000E+03	4.303074E-17	3.107658E-18
7.420000E+03	4.325677E-17	3.116894E-18
7.430000E+03	4.348084E-17	3.126574E-18
7.440000E+03	4.370498E-17	3.136927E-18
7.450000E+03	4.392730E-17	3.147900E-18
7.460000E+03	4.414887E-17	3.159645E-18
7.470000E+03	4.436877E-17	3.172167E-18
7.480000E+03	4.458810E-17	3.185603E-18
7.490000E+03	4.480491E-17	3.199858E-18
7.500000E+03	4.502031E-17	3.215043E-18
7.510000E+03	4.523438E-17	3.231174E-18
7.520000E+03	4.544613E-17	3.248173E-18
7.530000E+03	4.565775E-17	3.266158E-18
7.540000E+03	4.586715E-17	3.284930E-18
7.550000E+03	4.607544E-17	3.304498E-18
7.560000E+03	4.628156E-17	3.324704E-18
7.570000E+03	4.648662E-17	3.345533E-18
7.580000E+03	4.668953E-17	3.366806E-18
7.590000E+03	4.689138E-17	3.388501E-18
7.600000E+03	4.709103E-17	3.410433E-18
7.610000E+03	4.728845E-17	3.432501E-18
7.620000E+03	4.748472E-17	3.454692E-18
7.630000E+03	4.767863E-17	3.476839E-18
7.640000E+03	4.787010E-17	3.498865E-18
7.650000E+03	4.806019E-17	3.520792E-18
7.660000E+03	4.824763E-17	3.542481E-18
7.670000E+03	4.843345E-17	3.563980E-18
7.680000E+03	4.861513E-17	3.585086E-18
7.690000E+03	4.879488E-17	3.605956E-18
7.700000E+03	4.897254E-17	3.626584E-18
7.710000E+03	4.914669E-17	3.646880E-18
7.720000E+03	4.931835E-17	3.666940E-18
7.730000E+03	4.948606E-17	3.686683E-18
7.740000E+03	4.964956E-17	3.706120E-18
7.750000E+03	4.980984E-17	3.725359E-18
7.760000E+03	4.996664E-17	3.744413E-18
