#wls	flux	fluxerr
1.600000E+03	1.311721E-16	1.270266E-16
1.640000E+03	1.355652E-16	1.291003E-16
1.680000E+03	1.398305E-16	1.308646E-16
1.720000E+03	1.439050E-16	1.322637E-16
1.760000E+03	1.477767E-16	1.332918E-16
1.800000E+03	1.513745E-16	1.338931E-16
1.840000E+03	1.546519E-16	1.340380E-16
1.880000E+03	1.575857E-16	1.337211E-16
1.920000E+03	1.600979E-16	1.328939E-16
1.960000E+03	1.621491E-16	1.315462E-16
2.000000E+03	1.636754E-16	1.296521E-16
2.040000E+03	1.646396E-16	1.272127E-16
2.080000E+03	1.649625E-16	1.242015E-16
2.120000E+03	1.645870E-16	1.206159E-16
2.160000E+03	1.634584E-16	1.164610E-16
2.200000E+03	1.614907E-16	1.117261E-16
2.240000E+03	1.586186E-16	1.064232E-16
2.280000E+03	1.548447E-16	1.006155E-16
2.320000E+03	1.502284E-16	9.440274E-17
2.360000E+03	1.449235E-16	8.793842E-17
2.400000E+03	1.390578E-16	8.134840E-17
2.440000E+03	1.327442E-16	7.473946E-17
2.480000E+03	1.260989E-16	6.821070E-17
2.520000E+03	1.191964E-16	6.182913E-17
2.560000E+03	1.121205E-16	5.565965E-17
2.600000E+03	1.049430E-16	4.975348E-17
2.640000E+03	9.773787E-17	4.415595E-17
2.680000E+03	9.056617E-17	3.889933E-17
2.720000E+03	8.348871E-17	3.400957E-17
2.760000E+03	7.656211E-17	2.950460E-17
2.800000E+03	6.983853E-17	2.539475E-17
2.840000E+03	6.336697E-17	2.168368E-17
2.880000E+03	5.719441E-17	1.836920E-17
2.920000E+03	5.136195E-17	1.544247E-17
2.960000E+03	4.590449E-17	1.288874E-17
3.000000E+03	4.084684E-17	1.068724E-17
3.010000E+03	3.964782E-17	1.018924E-17
3.020000E+03	3.847386E-17	9.710971E-18
3.030000E+03	3.732660E-17	9.252375E-18
3.040000E+03	3.620502E-17	8.812721E-18
3.050000E+03	3.510974E-17	8.391688E-18
3.060000E+03	3.404125E-17	7.988911E-18
3.070000E+03	3.299784E-17	7.603513E-18
3.080000E+03	3.198136E-17	7.235451E-18
3.090000E+03	3.099014E-17	6.883872E-18
3.100000E+03	3.002520E-17	6.548530E-18
3.110000E+03	2.908559E-17	6.228750E-18
3.120000E+03	2.817108E-17	5.924017E-18
3.130000E+03	2.728252E-17	5.634042E-18
3.140000E+03	2.641858E-17	5.358082E-18
3.150000E+03	2.558052E-17	5.095936E-18
3.160000E+03	2.476663E-17	4.846798E-18
3.170000E+03	2.397806E-17	4.610449E-18
3.180000E+03	2.321363E-17	4.386215E-18
3.190000E+03	2.247391E-17	4.173770E-18
3.200000E+03	2.175816E-17	3.972550E-18
3.210000E+03	2.106643E-17	3.782152E-18
3.220000E+03	2.039837E-17	3.602104E-18
3.230000E+03	1.975361E-17	3.431948E-18
3.240000E+03	1.913149E-17	3.271182E-18
3.250000E+03	1.853226E-17	3.119484E-18
3.260000E+03	1.795520E-17	2.976371E-18
3.270000E+03	1.740018E-17	2.841475E-18
3.280000E+03	1.686644E-17	2.714345E-18
3.290000E+03	1.635354E-17	2.594592E-18
3.300000E+03	1.586124E-17	2.481875E-18
3.310000E+03	1.538877E-17	2.375788E-18
3.320000E+03	1.493584E-17	2.276013E-18
3.330000E+03	1.450190E-17	2.182205E-18
3.340000E+03	1.408601E-17	2.093974E-18
3.350000E+03	1.368803E-17	2.011072E-18
3.360000E+03	1.330723E-17	1.933169E-18
3.370000E+03	1.294307E-17	1.859981E-18
3.380000E+03	1.259504E-17	1.791237E-18
3.390000E+03	1.226226E-17	1.726635E-18
3.400000E+03	1.194459E-17	1.665980E-18
3.410000E+03	1.164135E-17	1.609018E-18
3.420000E+03	1.135191E-17	1.555512E-18
3.430000E+03	1.107582E-17	1.505259E-18
3.440000E+03	1.081261E-17	1.458065E-18
3.450000E+03	1.056159E-17	1.413714E-18
3.460000E+03	1.032247E-17	1.372056E-18
3.470000E+03	1.009461E-17	1.332899E-18
3.480000E+03	9.877643E-18	1.296098E-18
3.490000E+03	9.671097E-18	1.261501E-18
3.500000E+03	9.474532E-18	1.228966E-18
3.510000E+03	9.287530E-18	1.198363E-18
3.520000E+03	9.109700E-18	1.169571E-18
3.530000E+03	8.940571E-18	1.142463E-18
3.540000E+03	8.779707E-18	1.116926E-18
3.550000E+03	8.626793E-18	1.092864E-18
3.560000E+03	8.481439E-18	1.070179E-18
3.570000E+03	8.343368E-18	1.048790E-18
3.580000E+03	8.212145E-18	1.028601E-18
3.590000E+03	8.087532E-18	1.009545E-18
3.600000E+03	7.969218E-18	9.915487E-19
3.610000E+03	7.857069E-18	9.745645E-19
3.620000E+03	7.750722E-18	9.585190E-19
3.630000E+03	7.649988E-18	9.433627E-19
3.640000E+03	7.554466E-18	9.290227E-19
3.650000E+03	7.463997E-18	9.154581E-19
3.660000E+03	7.378357E-18	9.026220E-19
3.670000E+03	7.297334E-18	8.904705E-19
3.680000E+03	7.220791E-18	8.789710E-19
3.690000E+03	7.148597E-18	8.680922E-19
3.700000E+03	7.080557E-18	8.577971E-19
3.710000E+03	7.016613E-18	8.480656E-19
3.720000E+03	6.956576E-18	8.388635E-19
3.730000E+03	6.900451E-18	8.301802E-19
3.740000E+03	6.848113E-18	8.219907E-19
3.750000E+03	6.799441E-18	8.142712E-19
3.760000E+03	6.754374E-18	8.070056E-19
3.770000E+03	6.712909E-18	8.001854E-19
3.780000E+03	6.674924E-18	7.937887E-19
3.790000E+03	6.640416E-18	7.878077E-19
3.800000E+03	6.609267E-18	7.822218E-19
3.810000E+03	6.581417E-18	7.770174E-19
3.820000E+03	6.556866E-18	7.721880E-19
3.830000E+03	6.535610E-18	7.677273E-19
3.840000E+03	6.517538E-18	7.636160E-19
3.850000E+03	6.502704E-18	7.598548E-19
3.860000E+03	6.490945E-18	7.564187E-19
3.870000E+03	6.482368E-18	7.533146E-19
3.880000E+03	6.476811E-18	7.505181E-19
3.890000E+03	6.474378E-18	7.480358E-19
3.900000E+03	6.474961E-18	7.458495E-19
3.910000E+03	6.478555E-18	7.439534E-19
3.920000E+03	6.485105E-18	7.423354E-19
3.930000E+03	6.494605E-18	7.409897E-19
3.940000E+03	6.506998E-18	7.399040E-19
3.950000E+03	6.522329E-18	7.390783E-19
3.960000E+03	6.540490E-18	7.384943E-19
3.970000E+03	6.561475E-18	7.381457E-19
3.980000E+03	6.585224E-18	7.380202E-19
3.990000E+03	6.611783E-18	7.381171E-19
4.000000E+03	6.641095E-18	7.384237E-19
4.010000E+03	6.673100E-18	7.389276E-19
4.020000E+03	6.707741E-18	7.396160E-19
4.030000E+03	6.745064E-18	7.404880E-19
4.040000E+03	6.784960E-18	7.415252E-19
4.050000E+03	6.827479E-18	7.427270E-19
4.060000E+03	6.872512E-18	7.440754E-19
4.070000E+03	6.920060E-18	7.455644E-19
4.080000E+03	6.970125E-18	7.471883E-19
4.090000E+03	7.022656E-18	7.489360E-19
4.100000E+03	7.077603E-18	7.507969E-19
4.110000E+03	7.134917E-18	7.527605E-19
4.120000E+03	7.194659E-18	7.548288E-19
4.130000E+03	7.256728E-18	7.569863E-19
4.140000E+03	7.321130E-18	7.592294E-19
4.150000E+03	7.387761E-18	7.615432E-19
4.160000E+03	7.456631E-18	7.639248E-19
4.170000E+03	7.527750E-18	7.663713E-19
4.180000E+03	7.601012E-18	7.688686E-19
4.190000E+03	7.676431E-18	7.714149E-19
4.200000E+03	7.753899E-18	7.739968E-19
4.210000E+03	7.833428E-18	7.766138E-19
4.220000E+03	7.914911E-18	7.792542E-19
4.230000E+03	7.998360E-18	7.819195E-19
4.240000E+03	8.083665E-18	7.846002E-19
4.250000E+03	8.170775E-18	7.872943E-19
4.260000E+03	8.259574E-18	7.899950E-19
4.270000E+03	8.350071E-18	7.927097E-19
4.280000E+03	8.442145E-18	7.954349E-19
4.290000E+03	8.535736E-18	7.981750E-19
4.300000E+03	8.630712E-18	8.009297E-19
4.310000E+03	8.726934E-18	8.037005E-19
4.320000E+03	8.824326E-18	8.064961E-19
4.330000E+03	8.922805E-18	8.093269E-19
4.340000E+03	9.022213E-18	8.121972E-19
4.350000E+03	9.122455E-18	8.151181E-19
4.360000E+03	9.223358E-18	8.180938E-19
4.370000E+03	9.324886E-18	8.211398E-19
4.380000E+03	9.426930E-18	8.242630E-19
4.390000E+03	9.529606E-18	8.274864E-19
4.400000E+03	9.632801E-18	8.308059E-19
4.410000E+03	9.736559E-18	8.342229E-19
4.420000E+03	9.840847E-18	8.377282E-19
4.430000E+03	9.945799E-18	8.413234E-19
4.440000E+03	1.005131E-17	8.449871E-19
4.450000E+03	1.015736E-17	8.487036E-19
4.460000E+03	1.026401E-17	8.524631E-19
4.470000E+03	1.037125E-17	8.562490E-19
4.480000E+03	1.047907E-17	8.600447E-19
4.490000E+03	1.058736E-17	8.638270E-19
4.500000E+03	1.069622E-17	8.675876E-19
4.510000E+03	1.080555E-17	8.713051E-19
4.520000E+03	1.091533E-17	8.749664E-19
4.530000E+03	1.102557E-17	8.785608E-19
4.540000E+03	1.113608E-17	8.820645E-19
4.550000E+03	1.124694E-17	8.854787E-19
4.560000E+03	1.135807E-17	8.887928E-19
4.570000E+03	1.146948E-17	8.920068E-19
4.580000E+03	1.158097E-17	8.951081E-19
4.590000E+03	1.169267E-17	8.981105E-19
4.600000E+03	1.180439E-17	9.010070E-19
4.610000E+03	1.191625E-17	9.038160E-19
4.620000E+03	1.202810E-17	9.065342E-19
4.630000E+03	1.213997E-17	9.091750E-19
4.640000E+03	1.225179E-17	9.117446E-19
4.650000E+03	1.236375E-17	9.142656E-19
4.660000E+03	1.247568E-17	9.167358E-19
4.670000E+03	1.258777E-17	9.191774E-19
4.680000E+03	1.270000E-17	9.215953E-19
4.690000E+03	1.281234E-17	9.239935E-19
4.700000E+03	1.292500E-17	9.263915E-19
4.710000E+03	1.303786E-17	9.287826E-19
4.720000E+03	1.315104E-17	9.311751E-19
4.730000E+03	1.326442E-17	9.335587E-19
4.740000E+03	1.337813E-17	9.359378E-19
4.750000E+03	1.349193E-17	9.382892E-19
4.760000E+03	1.360597E-17	9.406135E-19
4.770000E+03	1.372013E-17	9.428929E-19
4.780000E+03	1.383456E-17	9.451262E-19
4.790000E+03	1.394914E-17	9.472951E-19
4.800000E+03	1.406389E-17	9.493913E-19
4.810000E+03	1.417883E-17	9.514087E-19
4.820000E+03	1.429395E-17	9.533445E-19
4.830000E+03	1.440927E-17	9.552000E-19
4.840000E+03	1.452467E-17	9.569719E-19
4.850000E+03	1.464029E-17	9.586804E-19
4.860000E+03	1.475614E-17	9.603415E-19
4.870000E+03	1.487209E-17	9.619669E-19
4.880000E+03	1.498815E-17	9.635811E-19
4.890000E+03	1.510448E-17	9.652204E-19
4.900000E+03	1.522080E-17	9.668945E-19
4.910000E+03	1.533741E-17	9.686487E-19
4.920000E+03	1.545416E-17	9.704976E-19
4.930000E+03	1.557090E-17	9.724511E-19
4.940000E+03	1.568777E-17	9.745312E-19
4.950000E+03	1.580475E-17	9.767438E-19
4.960000E+03	1.592164E-17	9.790779E-19
4.970000E+03	1.603857E-17	9.815345E-19
4.980000E+03	1.615517E-17	9.840802E-19
4.990000E+03	1.627167E-17	9.867139E-19
5.000000E+03	1.638786E-17	9.894024E-19
5.010000E+03	1.650347E-17	9.921094E-19
5.020000E+03	1.661857E-17	9.948164E-19
5.030000E+03	1.673287E-17	9.974848E-19
5.040000E+03	1.684626E-17	1.000086E-18
5.050000E+03	1.695857E-17	1.002592E-18
5.060000E+03	1.706966E-17	1.004977E-18
5.070000E+03	1.717920E-17	1.007204E-18
5.080000E+03	1.728716E-17	1.009260E-18
5.090000E+03	1.739318E-17	1.011113E-18
5.100000E+03	1.749706E-17	1.012739E-18
5.110000E+03	1.759842E-17	1.014111E-18
5.120000E+03	1.769721E-17	1.015219E-18
5.130000E+03	1.779290E-17	1.016026E-18
5.140000E+03	1.788561E-17	1.016541E-18
5.150000E+03	1.797479E-17	1.016731E-18
5.160000E+03	1.806043E-17	1.016602E-18
5.170000E+03	1.814214E-17	1.016144E-18
5.180000E+03	1.821955E-17	1.015358E-18
5.190000E+03	1.829263E-17	1.014269E-18
5.200000E+03	1.836100E-17	1.012896E-18
5.210000E+03	1.842446E-17	1.011274E-18
5.220000E+03	1.848279E-17	1.009444E-18
5.230000E+03	1.853559E-17	1.007446E-18
5.240000E+03	1.858264E-17	1.005330E-18
5.250000E+03	1.862354E-17	1.003139E-18
5.260000E+03	1.865822E-17	1.000934E-18
5.270000E+03	1.868627E-17	9.987518E-19
5.280000E+03	1.870744E-17	9.966359E-19
5.290000E+03	1.872149E-17	9.946239E-19
5.300000E+03	1.872800E-17	9.927381E-19
5.310000E+03	1.872671E-17	9.910053E-19
5.320000E+03	1.871742E-17	9.894471E-19
5.330000E+03	1.869989E-17	9.880798E-19
5.340000E+03	1.867376E-17	9.869045E-19
5.350000E+03	1.863903E-17	9.859370E-19
5.360000E+03	1.859557E-17	9.851779E-19
5.370000E+03	1.854328E-17	9.846231E-19
5.380000E+03	1.848193E-17	9.842541E-19
5.390000E+03	1.841189E-17	9.840783E-19
5.400000E+03	1.833304E-17	9.840704E-19
5.410000E+03	1.824589E-17	9.842328E-19
5.420000E+03	1.815046E-17	9.845372E-19
5.430000E+03	1.804722E-17	9.849743E-19
5.440000E+03	1.793651E-17	9.855248E-19
5.450000E+03	1.781913E-17	9.861894E-19
5.460000E+03	1.769540E-17	9.869391E-19
5.470000E+03	1.756571E-17	9.877448E-19
5.480000E+03	1.743036E-17	9.885673E-19
5.490000E+03	1.729006E-17	9.893874E-19
5.500000E+03	1.714521E-17	9.901664E-19
5.510000E+03	1.699648E-17	9.908767E-19
5.520000E+03	1.684455E-17	9.914925E-19
5.530000E+03	1.669014E-17	9.919900E-19
5.540000E+03	1.653398E-17	9.923481E-19
5.550000E+03	1.637699E-17	9.925583E-19
5.560000E+03	1.621992E-17	9.926048E-19
5.570000E+03	1.606383E-17	9.924953E-19
5.580000E+03	1.590928E-17	9.922105E-19
5.590000E+03	1.575744E-17	9.917756E-19
5.600000E+03	1.560879E-17	9.911794E-19
5.610000E+03	1.546424E-17	9.904457E-19
5.620000E+03	1.532462E-17	9.896027E-19
5.630000E+03	1.519024E-17	9.886523E-19
5.640000E+03	1.506208E-17	9.876513E-19
5.650000E+03	1.494045E-17	9.866196E-19
5.660000E+03	1.482558E-17	9.855803E-19
5.670000E+03	1.471820E-17	9.845999E-19
5.680000E+03	1.461826E-17	9.836965E-19
5.690000E+03	1.452604E-17	9.829201E-19
5.700000E+03	1.444182E-17	9.823216E-19
5.710000E+03	1.436561E-17	9.819414E-19
5.720000E+03	1.429743E-17	9.818188E-19
5.730000E+03	1.423724E-17	9.819908E-19
5.740000E+03	1.418513E-17	9.825013E-19
5.750000E+03	1.414118E-17	9.833902E-19
5.760000E+03	1.410503E-17	9.846611E-19
5.770000E+03	1.407706E-17	9.863644E-19
5.780000E+03	1.405693E-17	9.884926E-19
5.790000E+03	1.404494E-17	9.910743E-19
5.800000E+03	1.404092E-17	9.941012E-19
5.810000E+03	1.404508E-17	9.975807E-19
5.820000E+03	1.405743E-17	1.001505E-18
5.830000E+03	1.407821E-17	1.005872E-18
5.840000E+03	1.410731E-17	1.010655E-18
5.850000E+03	1.414481E-17	1.015833E-18
5.860000E+03	1.419093E-17	1.021396E-18
5.870000E+03	1.424589E-17	1.027329E-18
5.880000E+03	1.430946E-17	1.033582E-18
5.890000E+03	1.438199E-17	1.040152E-18
5.900000E+03	1.446341E-17	1.046998E-18
5.910000E+03	1.455392E-17	1.054104E-18
5.920000E+03	1.465357E-17	1.061443E-18
5.930000E+03	1.476221E-17	1.068978E-18
5.940000E+03	1.488002E-17	1.076697E-18
5.950000E+03	1.500699E-17	1.084579E-18
5.960000E+03	1.514292E-17	1.092590E-18
5.970000E+03	1.528808E-17	1.100740E-18
5.980000E+03	1.544204E-17	1.108988E-18
5.990000E+03	1.560486E-17	1.117336E-18
6.000000E+03	1.577638E-17	1.125774E-18
6.010000E+03	1.595625E-17	1.134284E-18
6.020000E+03	1.614443E-17	1.142874E-18
6.030000E+03	1.634028E-17	1.151520E-18
6.040000E+03	1.654389E-17	1.160249E-18
6.050000E+03	1.675452E-17	1.169043E-18
6.060000E+03	1.697199E-17	1.177925E-18
6.070000E+03	1.719566E-17	1.186896E-18
6.080000E+03	1.742505E-17	1.195976E-18
6.090000E+03	1.765941E-17	1.205174E-18
6.100000E+03	1.789793E-17	1.214504E-18
6.110000E+03	1.814020E-17	1.224015E-18
6.120000E+03	1.838486E-17	1.233701E-18
6.130000E+03	1.863139E-17	1.243619E-18
6.140000E+03	1.887854E-17	1.253781E-18
6.150000E+03	1.912551E-17	1.264235E-18
6.160000E+03	1.937051E-17	1.274961E-18
6.170000E+03	1.961293E-17	1.286011E-18
6.180000E+03	1.985121E-17	1.297364E-18
6.190000E+03	2.008435E-17	1.309016E-18
6.200000E+03	2.031115E-17	1.320927E-18
6.210000E+03	2.053155E-17	1.333098E-18
6.220000E+03	2.074588E-17	1.345534E-18
6.230000E+03	2.095463E-17	1.358226E-18
6.240000E+03	2.115841E-17	1.371160E-18
6.250000E+03	2.135710E-17	1.384261E-18
6.260000E+03	2.155203E-17	1.397543E-18
6.270000E+03	2.174292E-17	1.410916E-18
6.280000E+03	2.193065E-17	1.424360E-18
6.290000E+03	2.211589E-17	1.437846E-18
6.300000E+03	2.229842E-17	1.451290E-18
6.310000E+03	2.247894E-17	1.464673E-18
6.320000E+03	2.265788E-17	1.477960E-18
6.330000E+03	2.283566E-17	1.491126E-18
6.340000E+03	2.301211E-17	1.504109E-18
6.350000E+03	2.318769E-17	1.516897E-18
6.360000E+03	2.336253E-17	1.529461E-18
6.370000E+03	2.353681E-17	1.541779E-18
6.380000E+03	2.371032E-17	1.553812E-18
6.390000E+03	2.388289E-17	1.565528E-18
6.400000E+03	2.405432E-17	1.576896E-18
6.410000E+03	2.422471E-17	1.587914E-18
6.420000E+03	2.439386E-17	1.598562E-18
6.430000E+03	2.456080E-17	1.608775E-18
6.440000E+03	2.472670E-17	1.618633E-18
6.450000E+03	2.489165E-17	1.628149E-18
6.460000E+03	2.505616E-17	1.637366E-18
6.470000E+03	2.522108E-17	1.646355E-18
6.480000E+03	2.538619E-17	1.655116E-18
6.490000E+03	2.555239E-17	1.663724E-18
6.500000E+03	2.571983E-17	1.672208E-18
6.510000E+03	2.588904E-17	1.680619E-18
6.520000E+03	2.605938E-17	1.688933E-18
6.530000E+03	2.623219E-17	1.697253E-18
6.540000E+03	2.640681E-17	1.705550E-18
6.550000E+03	2.658376E-17	1.713872E-18
6.560000E+03	2.676319E-17	1.722238E-18
6.570000E+03	2.694479E-17	1.730639E-18
6.580000E+03	2.712911E-17	1.739116E-18
6.590000E+03	2.731628E-17	1.747682E-18
6.600000E+03	2.750599E-17	1.756320E-18
6.610000E+03	2.769833E-17	1.765040E-18
6.620000E+03	2.789342E-17	1.773847E-18
6.630000E+03	2.809182E-17	1.782779E-18
6.640000E+03	2.829271E-17	1.791782E-18
6.650000E+03	2.849663E-17	1.800892E-18
6.660000E+03	2.870366E-17	1.810112E-18
6.670000E+03	2.891338E-17	1.819419E-18
6.680000E+03	2.912633E-17	1.828846E-18
6.690000E+03	2.934208E-17	1.838369E-18
6.700000E+03	2.956114E-17	1.848023E-18
6.710000E+03	2.978256E-17	1.857750E-18
6.720000E+03	3.000686E-17	1.867587E-18
6.730000E+03	3.023460E-17	1.877568E-18
6.740000E+03	3.046476E-17	1.887634E-18
6.750000E+03	3.069790E-17	1.897817E-18
6.760000E+03	3.093354E-17	1.908082E-18
6.770000E+03	3.117224E-17	1.918458E-18
6.780000E+03	3.141350E-17	1.928903E-18
6.790000E+03	3.165737E-17	1.939401E-18
6.800000E+03	3.190446E-17	1.949969E-18
6.810000E+03	3.215369E-17	1.960513E-18
6.820000E+03	3.240625E-17	1.971076E-18
6.830000E+03	3.266102E-17	1.981554E-18
6.840000E+03	3.291922E-17	1.991984E-18
6.850000E+03	3.317967E-17	2.002254E-18
6.860000E+03	3.344236E-17	2.012327E-18
6.870000E+03	3.370788E-17	2.022204E-18
6.880000E+03	3.397621E-17	2.031852E-18
6.890000E+03	3.424603E-17	2.041168E-18
6.900000E+03	3.451852E-17	2.050206E-18
6.910000E+03	3.479295E-17	2.058912E-18
6.920000E+03	3.506986E-17	2.067317E-18
6.930000E+03	3.534780E-17	2.075342E-18
6.940000E+03	3.562727E-17	2.083027E-18
6.950000E+03	3.590811E-17	2.090382E-18
6.960000E+03	3.618947E-17	2.097377E-18
6.970000E+03	3.647184E-17	2.104069E-18
6.980000E+03	3.675506E-17	2.110475E-18
6.990000E+03	3.703823E-17	2.116575E-18
7.000000E+03	3.732115E-17	2.122389E-18
7.010000E+03	3.760365E-17	2.127940E-18
7.020000E+03	3.788630E-17	2.133293E-18
7.030000E+03	3.816744E-17	2.138387E-18
7.040000E+03	3.844843E-17	2.143329E-18
7.050000E+03	3.872762E-17	2.148056E-18
7.060000E+03	3.900564E-17	2.152629E-18
7.070000E+03	3.928161E-17	2.157021E-18
7.080000E+03	3.955621E-17	2.161288E-18
7.090000E+03	3.982938E-17	2.165440E-18
7.100000E+03	4.010025E-17	2.169439E-18
7.110000E+03	4.036797E-17	2.173243E-18
7.120000E+03	4.063412E-17	2.176936E-18
7.130000E+03	4.089788E-17	2.180468E-18
7.140000E+03	4.115924E-17	2.183824E-18
7.150000E+03	4.141822E-17	2.186989E-18
7.160000E+03	4.167398E-17	2.189896E-18
7.170000E+03	4.192742E-17	2.192561E-18
7.180000E+03	4.217771E-17	2.194909E-18
7.190000E+03	4.242490E-17	2.196903E-18
7.200000E+03	4.266993E-17	2.198550E-18
7.210000E+03	4.291199E-17	2.199763E-18
7.220000E+03	4.315205E-17	2.200544E-18
7.230000E+03	4.338836E-17	2.200759E-18
7.240000E+03	4.362186E-17	2.200412E-18
7.250000E+03	4.385258E-17	2.199467E-18
7.260000E+03	4.408051E-17	2.197891E-18
7.270000E+03	4.430561E-17	2.195657E-18
7.280000E+03	4.452783E-17	2.192749E-18
7.290000E+03	4.474609E-17	2.189112E-18
7.300000E+03	4.496123E-17	2.184794E-18
7.310000E+03	4.517308E-17	2.179812E-18
7.320000E+03	4.538148E-17	2.174192E-18
7.330000E+03	4.558526E-17	2.167930E-18
7.340000E+03	4.578521E-17	2.161130E-18
7.350000E+03	4.598217E-17	2.153912E-18
7.360000E+03	4.617395E-17	2.146271E-18
7.370000E+03	4.636140E-17	2.138364E-18
7.380000E+03	4.654438E-17	2.130318E-18
7.390000E+03	4.672381E-17	2.122330E-18
7.400000E+03	4.689857E-17	2.114526E-18
7.410000E+03	4.706967E-17	2.107152E-18
7.420000E+03	4.723815E-17	2.100480E-18
7.430000E+03	4.740303E-17	2.094718E-18
7.440000E+03	4.756655E-17	2.090242E-18
7.450000E+03	4.772671E-17	2.087267E-18
7.460000E+03	4.788479E-17	2.086166E-18
7.470000E+03	4.803992E-17	2.087227E-18
7.480000E+03	4.819345E-17	2.090822E-18
7.490000E+03	4.834345E-17	2.097142E-18
7.500000E+03	4.849127E-17	2.106454E-18
7.510000E+03	4.863716E-17	2.118875E-18
7.520000E+03	4.878016E-17	2.134339E-18
7.530000E+03	4.892267E-17	2.152783E-18
7.540000E+03	4.906252E-17	2.173824E-18
7.550000E+03	4.920093E-17	2.197136E-18
7.560000E+03	4.933682E-17	2.222232E-18
7.570000E+03	4.947144E-17	2.248696E-18
7.580000E+03	4.960370E-17	2.276005E-18
7.590000E+03	4.973488E-17	2.303763E-18
7.600000E+03	4.986387E-17	2.331505E-18
7.610000E+03	4.999075E-17	2.358878E-18
7.620000E+03	5.011676E-17	2.385655E-18
7.630000E+03	5.024072E-17	2.411567E-18
7.640000E+03	5.036263E-17	2.436477E-18
7.650000E+03	5.048365E-17	2.460381E-18
7.660000E+03	5.060250E-17	2.483218E-18
7.670000E+03	5.072032E-17	2.505101E-18
7.680000E+03	5.083448E-17	2.526002E-18
7.690000E+03	5.094733E-17	2.546167E-18
7.700000E+03	5.105870E-17	2.565740E-18
7.710000E+03	5.116716E-17	2.584807E-18
7.720000E+03	5.127379E-17	2.603581E-18
7.730000E+03	5.137711E-17	2.622142E-18
7.740000E+03	5.147691E-17	2.640621E-18
7.750000E+03	5.157424E-17	2.659205E-18
7.760000E+03	5.166890E-17	2.677999E-18
