#wls	flux	fluxerr
1.600000E+03	1.308821E-16	1.267460E-16
1.640000E+03	1.352679E-16	1.288174E-16
1.680000E+03	1.395268E-16	1.305806E-16
1.720000E+03	1.435961E-16	1.319798E-16
1.760000E+03	1.474635E-16	1.330094E-16
1.800000E+03	1.510584E-16	1.336135E-16
1.840000E+03	1.543343E-16	1.337626E-16
1.880000E+03	1.572681E-16	1.334513E-16
1.920000E+03	1.597819E-16	1.326312E-16
1.960000E+03	1.618363E-16	1.312920E-16
2.000000E+03	1.633675E-16	1.294076E-16
2.040000E+03	1.643385E-16	1.269793E-16
2.080000E+03	1.646699E-16	1.239803E-16
2.120000E+03	1.643047E-16	1.204079E-16
2.160000E+03	1.631882E-16	1.162672E-16
2.200000E+03	1.612342E-16	1.115472E-16
2.240000E+03	1.583774E-16	1.062598E-16
2.280000E+03	1.546202E-16	1.004678E-16
2.320000E+03	1.500216E-16	9.427075E-17
2.360000E+03	1.447349E-16	8.782181E-17
2.400000E+03	1.388877E-16	8.124653E-17
2.440000E+03	1.325922E-16	7.465146E-17
2.480000E+03	1.259647E-16	6.813556E-17
2.520000E+03	1.190793E-16	6.176573E-17
2.560000E+03	1.120196E-16	5.560682E-17
2.600000E+03	1.048572E-16	4.971003E-17
2.640000E+03	9.766607E-17	4.412071E-17
2.680000E+03	9.050711E-17	3.887116E-17
2.720000E+03	8.344113E-17	3.398739E-17
2.760000E+03	7.652473E-17	2.948742E-17
2.800000E+03	6.981008E-17	2.538167E-17
2.840000E+03	6.334625E-17	2.167391E-17
2.880000E+03	5.718028E-17	1.836203E-17
2.920000E+03	5.135334E-17	1.543729E-17
2.960000E+03	4.590042E-17	1.288506E-17
3.000000E+03	4.084640E-17	1.068463E-17
3.010000E+03	3.964814E-17	1.018685E-17
3.020000E+03	3.847490E-17	9.708768E-18
3.030000E+03	3.732831E-17	9.250346E-18
3.040000E+03	3.620734E-17	8.810846E-18
3.050000E+03	3.511263E-17	8.389950E-18
3.060000E+03	3.404465E-17	7.987296E-18
3.070000E+03	3.300170E-17	7.602005E-18
3.080000E+03	3.198563E-17	7.234036E-18
3.090000E+03	3.099477E-17	6.882535E-18
3.100000E+03	3.003012E-17	6.547260E-18
3.110000E+03	2.909076E-17	6.227535E-18
3.120000E+03	2.817644E-17	5.922846E-18
3.130000E+03	2.728801E-17	5.632905E-18
3.140000E+03	2.642414E-17	5.356970E-18
3.150000E+03	2.558613E-17	5.094843E-18
3.160000E+03	2.477224E-17	4.845718E-18
3.170000E+03	2.398364E-17	4.609378E-18
3.180000E+03	2.321916E-17	4.385148E-18
3.190000E+03	2.247936E-17	4.172704E-18
3.200000E+03	2.176350E-17	3.971483E-18
3.210000E+03	2.107166E-17	3.781082E-18
3.220000E+03	2.040346E-17	3.601030E-18
3.230000E+03	1.975856E-17	3.430869E-18
3.240000E+03	1.913628E-17	3.270099E-18
3.250000E+03	1.853690E-17	3.118396E-18
3.260000E+03	1.795968E-17	2.975279E-18
3.270000E+03	1.740451E-17	2.840382E-18
3.280000E+03	1.687064E-17	2.713252E-18
3.290000E+03	1.635761E-17	2.593500E-18
3.300000E+03	1.586518E-17	2.480787E-18
3.310000E+03	1.539260E-17	2.374706E-18
3.320000E+03	1.493957E-17	2.274937E-18
3.330000E+03	1.450554E-17	2.181138E-18
3.340000E+03	1.408957E-17	2.092917E-18
3.350000E+03	1.369151E-17	2.010025E-18
3.360000E+03	1.331065E-17	1.932134E-18
3.370000E+03	1.294644E-17	1.858959E-18
3.380000E+03	1.259835E-17	1.790230E-18
3.390000E+03	1.226553E-17	1.725642E-18
3.400000E+03	1.194782E-17	1.665003E-18
3.410000E+03	1.164456E-17	1.608058E-18
3.420000E+03	1.135510E-17	1.554568E-18
3.430000E+03	1.107898E-17	1.504332E-18
3.440000E+03	1.081576E-17	1.457156E-18
3.450000E+03	1.056472E-17	1.412823E-18
3.460000E+03	1.032559E-17	1.371182E-18
3.470000E+03	1.009773E-17	1.332043E-18
3.480000E+03	9.880754E-18	1.295259E-18
3.490000E+03	9.674203E-18	1.260679E-18
3.500000E+03	9.477633E-18	1.228160E-18
3.510000E+03	9.290627E-18	1.197573E-18
3.520000E+03	9.112794E-18	1.168796E-18
3.530000E+03	8.943663E-18	1.141703E-18
3.540000E+03	8.782798E-18	1.116180E-18
3.550000E+03	8.629884E-18	1.092131E-18
3.560000E+03	8.484532E-18	1.069459E-18
3.570000E+03	8.346464E-18	1.048082E-18
3.580000E+03	8.215245E-18	1.027905E-18
3.590000E+03	8.090636E-18	1.008860E-18
3.600000E+03	7.972328E-18	9.908748E-19
3.610000E+03	7.860187E-18	9.739009E-19
3.620000E+03	7.753848E-18	9.578649E-19
3.630000E+03	7.653122E-18	9.427177E-19
3.640000E+03	7.557610E-18	9.283863E-19
3.650000E+03	7.467151E-18	9.148298E-19
3.660000E+03	7.381521E-18	9.020012E-19
3.670000E+03	7.300509E-18	8.898569E-19
3.680000E+03	7.223979E-18	8.783640E-19
3.690000E+03	7.151799E-18	8.674916E-19
3.700000E+03	7.083774E-18	8.572024E-19
3.710000E+03	7.019846E-18	8.474766E-19
3.720000E+03	6.959827E-18	8.382797E-19
3.730000E+03	6.903721E-18	8.296013E-19
3.740000E+03	6.851404E-18	8.214164E-19
3.750000E+03	6.802754E-18	8.137010E-19
3.760000E+03	6.757711E-18	8.064391E-19
3.770000E+03	6.716270E-18	7.996222E-19
3.780000E+03	6.678311E-18	7.932282E-19
3.790000E+03	6.643829E-18	7.872496E-19
3.800000E+03	6.612707E-18	7.816654E-19
3.810000E+03	6.584885E-18	7.764624E-19
3.820000E+03	6.560362E-18	7.716339E-19
3.830000E+03	6.539136E-18	7.671736E-19
3.840000E+03	6.521095E-18	7.630623E-19
3.850000E+03	6.506294E-18	7.593006E-19
3.860000E+03	6.494570E-18	7.558636E-19
3.870000E+03	6.486029E-18	7.527581E-19
3.880000E+03	6.480511E-18	7.499598E-19
3.890000E+03	6.478120E-18	7.474753E-19
3.900000E+03	6.478746E-18	7.452863E-19
3.910000E+03	6.482388E-18	7.433871E-19
3.920000E+03	6.488987E-18	7.417655E-19
3.930000E+03	6.498539E-18	7.404157E-19
3.940000E+03	6.510986E-18	7.393254E-19
3.950000E+03	6.526375E-18	7.384945E-19
3.960000E+03	6.544595E-18	7.379048E-19
3.970000E+03	6.565642E-18	7.375500E-19
3.980000E+03	6.589455E-18	7.374176E-19
3.990000E+03	6.616081E-18	7.375070E-19
4.000000E+03	6.645462E-18	7.378054E-19
4.010000E+03	6.677538E-18	7.383003E-19
4.020000E+03	6.712251E-18	7.389789E-19
4.030000E+03	6.749648E-18	7.398402E-19
4.040000E+03	6.789619E-18	7.408658E-19
4.050000E+03	6.832215E-18	7.420549E-19
4.060000E+03	6.877326E-18	7.433896E-19
4.070000E+03	6.924952E-18	7.448637E-19
4.080000E+03	6.975096E-18	7.464716E-19
4.090000E+03	7.027707E-18	7.482021E-19
4.100000E+03	7.082735E-18	7.500445E-19
4.110000E+03	7.140130E-18	7.519884E-19
4.120000E+03	7.199955E-18	7.540358E-19
4.130000E+03	7.262107E-18	7.561711E-19
4.140000E+03	7.326594E-18	7.583909E-19
4.150000E+03	7.393310E-18	7.606802E-19
4.160000E+03	7.462265E-18	7.630358E-19
4.170000E+03	7.533471E-18	7.654553E-19
4.180000E+03	7.606821E-18	7.679241E-19
4.190000E+03	7.682327E-18	7.704404E-19
4.200000E+03	7.759883E-18	7.729908E-19
4.210000E+03	7.839502E-18	7.755747E-19
4.220000E+03	7.921074E-18	7.781804E-19
4.230000E+03	8.004613E-18	7.808093E-19
4.240000E+03	8.090009E-18	7.834517E-19
4.250000E+03	8.177210E-18	7.861057E-19
4.260000E+03	8.266102E-18	7.887646E-19
4.270000E+03	8.356693E-18	7.914356E-19
4.280000E+03	8.448863E-18	7.941152E-19
4.290000E+03	8.542552E-18	7.968082E-19
4.300000E+03	8.637627E-18	7.995142E-19
4.310000E+03	8.733951E-18	8.022349E-19
4.320000E+03	8.831447E-18	8.049793E-19
4.330000E+03	8.930034E-18	8.077578E-19
4.340000E+03	9.029552E-18	8.105754E-19
4.350000E+03	9.129908E-18	8.134434E-19
4.360000E+03	9.230926E-18	8.163665E-19
4.370000E+03	9.332573E-18	8.193607E-19
4.380000E+03	9.434738E-18	8.224333E-19
4.390000E+03	9.537536E-18	8.256074E-19
4.400000E+03	9.640857E-18	8.288789E-19
4.410000E+03	9.744743E-18	8.322493E-19
4.420000E+03	9.849162E-18	8.357089E-19
4.430000E+03	9.954245E-18	8.392588E-19
4.440000E+03	1.005989E-17	8.428774E-19
4.450000E+03	1.016607E-17	8.465484E-19
4.460000E+03	1.027286E-17	8.502621E-19
4.470000E+03	1.038023E-17	8.540013E-19
4.480000E+03	1.048819E-17	8.577493E-19
4.490000E+03	1.059663E-17	8.614825E-19
4.500000E+03	1.070563E-17	8.651927E-19
4.510000E+03	1.081510E-17	8.688579E-19
4.520000E+03	1.092503E-17	8.724652E-19
4.530000E+03	1.103542E-17	8.760033E-19
4.540000E+03	1.114607E-17	8.794482E-19
4.550000E+03	1.125709E-17	8.828012E-19
4.560000E+03	1.136837E-17	8.860515E-19
4.570000E+03	1.147992E-17	8.891990E-19
4.580000E+03	1.159156E-17	8.922315E-19
4.590000E+03	1.170340E-17	8.951628E-19
4.600000E+03	1.181526E-17	8.979861E-19
4.610000E+03	1.192727E-17	9.007202E-19
4.620000E+03	1.203926E-17	9.033621E-19
4.630000E+03	1.215126E-17	9.059256E-19
4.640000E+03	1.226322E-17	9.084170E-19
4.650000E+03	1.237531E-17	9.108591E-19
4.660000E+03	1.248737E-17	9.132503E-19
4.670000E+03	1.259959E-17	9.156125E-19
4.680000E+03	1.271194E-17	9.179508E-19
4.690000E+03	1.282440E-17	9.202695E-19
4.700000E+03	1.293718E-17	9.225881E-19
4.710000E+03	1.305016E-17	9.249000E-19
4.720000E+03	1.316346E-17	9.272136E-19
4.730000E+03	1.327695E-17	9.295185E-19
4.740000E+03	1.339077E-17	9.318191E-19
4.750000E+03	1.350468E-17	9.340920E-19
4.760000E+03	1.361883E-17	9.363375E-19
4.770000E+03	1.373310E-17	9.385372E-19
4.780000E+03	1.384764E-17	9.406895E-19
4.790000E+03	1.396234E-17	9.427755E-19
4.800000E+03	1.407720E-17	9.447864E-19
4.810000E+03	1.419225E-17	9.467155E-19
4.820000E+03	1.430749E-17	9.485597E-19
4.830000E+03	1.442294E-17	9.503199E-19
4.840000E+03	1.453845E-17	9.519929E-19
4.850000E+03	1.465419E-17	9.535987E-19
4.860000E+03	1.477016E-17	9.551539E-19
4.870000E+03	1.488623E-17	9.566708E-19
4.880000E+03	1.500242E-17	9.581749E-19
4.890000E+03	1.511888E-17	9.597033E-19
4.900000E+03	1.523532E-17	9.612669E-19
4.910000E+03	1.535206E-17	9.629122E-19
4.920000E+03	1.546895E-17	9.646549E-19
4.930000E+03	1.558583E-17	9.665057E-19
4.940000E+03	1.570285E-17	9.684871E-19
4.950000E+03	1.581998E-17	9.706051E-19
4.960000E+03	1.593703E-17	9.728487E-19
4.970000E+03	1.605413E-17	9.752185E-19
4.980000E+03	1.617090E-17	9.776805E-19
4.990000E+03	1.628758E-17	9.802330E-19
5.000000E+03	1.640395E-17	9.828419E-19
5.010000E+03	1.651976E-17	9.854705E-19
5.020000E+03	1.663505E-17	9.880992E-19
5.030000E+03	1.674956E-17	9.906891E-19
5.040000E+03	1.686315E-17	9.932111E-19
5.050000E+03	1.697568E-17	9.956370E-19
5.060000E+03	1.708699E-17	9.979400E-19
5.070000E+03	1.719674E-17	1.000085E-18
5.080000E+03	1.730492E-17	1.002056E-18
5.090000E+03	1.741116E-17	1.003823E-18
5.100000E+03	1.751526E-17	1.005362E-18
5.110000E+03	1.761683E-17	1.006644E-18
5.120000E+03	1.771583E-17	1.007660E-18
5.130000E+03	1.781171E-17	1.008375E-18
5.140000E+03	1.790461E-17	1.008793E-18
5.150000E+03	1.799398E-17	1.008884E-18
5.160000E+03	1.807979E-17	1.008652E-18
5.170000E+03	1.816167E-17	1.008088E-18
5.180000E+03	1.823924E-17	1.007191E-18
5.190000E+03	1.831247E-17	1.005989E-18
5.200000E+03	1.838099E-17	1.004499E-18
5.210000E+03	1.844460E-17	1.002759E-18
5.220000E+03	1.850306E-17	1.000813E-18
5.230000E+03	1.855600E-17	9.986999E-19
5.240000E+03	1.860319E-17	9.964740E-19
5.250000E+03	1.864421E-17	9.941796E-19
5.260000E+03	1.867902E-17	9.918790E-19
5.270000E+03	1.870719E-17	9.896116E-19
5.280000E+03	1.872848E-17	9.874213E-19
5.290000E+03	1.874264E-17	9.853468E-19
5.300000E+03	1.874924E-17	9.834114E-19
5.310000E+03	1.874805E-17	9.816424E-19
5.320000E+03	1.873882E-17	9.800618E-19
5.330000E+03	1.872135E-17	9.786863E-19
5.340000E+03	1.869525E-17	9.775175E-19
5.350000E+03	1.866053E-17	9.765710E-19
5.360000E+03	1.861705E-17	9.758474E-19
5.370000E+03	1.856470E-17	9.753421E-19
5.380000E+03	1.850325E-17	9.750363E-19
5.390000E+03	1.843307E-17	9.749363E-19
5.400000E+03	1.835404E-17	9.750164E-19
5.410000E+03	1.826665E-17	9.752775E-19
5.420000E+03	1.817094E-17	9.756907E-19
5.430000E+03	1.806736E-17	9.762454E-19
5.440000E+03	1.795627E-17	9.769216E-19
5.450000E+03	1.783846E-17	9.777189E-19
5.460000E+03	1.771425E-17	9.786076E-19
5.470000E+03	1.758404E-17	9.795576E-19
5.480000E+03	1.744813E-17	9.805289E-19
5.490000E+03	1.730722E-17	9.815009E-19
5.500000E+03	1.716176E-17	9.824340E-19
5.510000E+03	1.701238E-17	9.832995E-19
5.520000E+03	1.685979E-17	9.840703E-19
5.530000E+03	1.670471E-17	9.847218E-19
5.540000E+03	1.654788E-17	9.852319E-19
5.550000E+03	1.639024E-17	9.855911E-19
5.560000E+03	1.623253E-17	9.857828E-19
5.570000E+03	1.607582E-17	9.858137E-19
5.580000E+03	1.592069E-17	9.856638E-19
5.590000E+03	1.576831E-17	9.853573E-19
5.600000E+03	1.561917E-17	9.848829E-19
5.610000E+03	1.547419E-17	9.842636E-19
5.620000E+03	1.533421E-17	9.835272E-19
5.630000E+03	1.519953E-17	9.826760E-19
5.640000E+03	1.507117E-17	9.817663E-19
5.650000E+03	1.494940E-17	9.808184E-19
5.660000E+03	1.483446E-17	9.798555E-19
5.670000E+03	1.472711E-17	9.789447E-19
5.680000E+03	1.462726E-17	9.781046E-19
5.690000E+03	1.453522E-17	9.773859E-19
5.700000E+03	1.445123E-17	9.768401E-19
5.710000E+03	1.437533E-17	9.765086E-19
5.720000E+03	1.430752E-17	9.764316E-19
5.730000E+03	1.424775E-17	9.766469E-19
5.740000E+03	1.419611E-17	9.771993E-19
5.750000E+03	1.415266E-17	9.781292E-19
5.760000E+03	1.411705E-17	9.794411E-19
5.770000E+03	1.408965E-17	9.811854E-19
5.780000E+03	1.407012E-17	9.833551E-19
5.790000E+03	1.405875E-17	9.859788E-19
5.800000E+03	1.405540E-17	9.890479E-19
5.810000E+03	1.406024E-17	9.925699E-19
5.820000E+03	1.407332E-17	9.965362E-19
5.830000E+03	1.409485E-17	1.000945E-18
5.840000E+03	1.412475E-17	1.005768E-18
5.850000E+03	1.416309E-17	1.010986E-18
5.860000E+03	1.421010E-17	1.016586E-18
5.870000E+03	1.426600E-17	1.022552E-18
5.880000E+03	1.433054E-17	1.028837E-18
5.890000E+03	1.440412E-17	1.035432E-18
5.900000E+03	1.448663E-17	1.042300E-18
5.910000E+03	1.457828E-17	1.049421E-18
5.920000E+03	1.467914E-17	1.056770E-18
5.930000E+03	1.478905E-17	1.064308E-18
5.940000E+03	1.490820E-17	1.072022E-18
5.950000E+03	1.503658E-17	1.079891E-18
5.960000E+03	1.517397E-17	1.087883E-18
5.970000E+03	1.532067E-17	1.096004E-18
5.980000E+03	1.547625E-17	1.104215E-18
5.990000E+03	1.564074E-17	1.112517E-18
6.000000E+03	1.581402E-17	1.120900E-18
6.010000E+03	1.599571E-17	1.129346E-18
6.020000E+03	1.618577E-17	1.137865E-18
6.030000E+03	1.638358E-17	1.146430E-18
6.040000E+03	1.658921E-17	1.155071E-18
6.050000E+03	1.680193E-17	1.163768E-18
6.060000E+03	1.702154E-17	1.172546E-18
6.070000E+03	1.724742E-17	1.181406E-18
6.080000E+03	1.747906E-17	1.190368E-18
6.090000E+03	1.771572E-17	1.199443E-18
6.100000E+03	1.795659E-17	1.208646E-18
6.110000E+03	1.820123E-17	1.218026E-18
6.120000E+03	1.844828E-17	1.227580E-18
6.130000E+03	1.869720E-17	1.237366E-18
6.140000E+03	1.894676E-17	1.247401E-18
6.150000E+03	1.919610E-17	1.257732E-18
6.160000E+03	1.944343E-17	1.268344E-18
6.170000E+03	1.968810E-17	1.279293E-18
6.180000E+03	1.992856E-17	1.290560E-18
6.190000E+03	2.016376E-17	1.302143E-18
6.200000E+03	2.039251E-17	1.314003E-18
6.210000E+03	2.061473E-17	1.326143E-18
6.220000E+03	2.083078E-17	1.338564E-18
6.230000E+03	2.104115E-17	1.351256E-18
6.240000E+03	2.124645E-17	1.364202E-18
6.250000E+03	2.144658E-17	1.377325E-18
6.260000E+03	2.164289E-17	1.390637E-18
6.270000E+03	2.183509E-17	1.404045E-18
6.280000E+03	2.202408E-17	1.417529E-18
6.290000E+03	2.221052E-17	1.431056E-18
6.300000E+03	2.239422E-17	1.444542E-18
6.310000E+03	2.257586E-17	1.457965E-18
6.320000E+03	2.275587E-17	1.471290E-18
6.330000E+03	2.293469E-17	1.484491E-18
6.340000E+03	2.311215E-17	1.497506E-18
6.350000E+03	2.328869E-17	1.510320E-18
6.360000E+03	2.346447E-17	1.522905E-18
6.370000E+03	2.363964E-17	1.535237E-18
6.380000E+03	2.381402E-17	1.547278E-18
6.390000E+03	2.398742E-17	1.558995E-18
6.400000E+03	2.415963E-17	1.570359E-18
6.410000E+03	2.433078E-17	1.581365E-18
6.420000E+03	2.450066E-17	1.591994E-18
6.430000E+03	2.466829E-17	1.602183E-18
6.440000E+03	2.483484E-17	1.612009E-18
6.450000E+03	2.500042E-17	1.621488E-18
6.460000E+03	2.516553E-17	1.630662E-18
6.470000E+03	2.533103E-17	1.639602E-18
6.480000E+03	2.549670E-17	1.648310E-18
6.490000E+03	2.566343E-17	1.656861E-18
6.500000E+03	2.583139E-17	1.665282E-18
6.510000E+03	2.600112E-17	1.673629E-18
6.520000E+03	2.617195E-17	1.681875E-18
6.530000E+03	2.634525E-17	1.690124E-18
6.540000E+03	2.652034E-17	1.698348E-18
6.550000E+03	2.669775E-17	1.706594E-18
6.560000E+03	2.687763E-17	1.714883E-18
6.570000E+03	2.705967E-17	1.723204E-18
6.580000E+03	2.724442E-17	1.731600E-18
6.590000E+03	2.743201E-17	1.740082E-18
6.600000E+03	2.762212E-17	1.748635E-18
6.610000E+03	2.781486E-17	1.757266E-18
6.620000E+03	2.801034E-17	1.765983E-18
6.630000E+03	2.820912E-17	1.774821E-18
6.640000E+03	2.841039E-17	1.783728E-18
6.650000E+03	2.861467E-17	1.792739E-18
6.660000E+03	2.882207E-17	1.801857E-18
6.670000E+03	2.903215E-17	1.811058E-18
6.680000E+03	2.924545E-17	1.820377E-18
6.690000E+03	2.946153E-17	1.829789E-18
6.700000E+03	2.968093E-17	1.839328E-18
6.710000E+03	2.990266E-17	1.848938E-18
6.720000E+03	3.012726E-17	1.858654E-18
6.730000E+03	3.035529E-17	1.868513E-18
6.740000E+03	3.058572E-17	1.878454E-18
6.750000E+03	3.081912E-17	1.888510E-18
6.760000E+03	3.105498E-17	1.898647E-18
6.770000E+03	3.129390E-17	1.908894E-18
6.780000E+03	3.153536E-17	1.919207E-18
6.790000E+03	3.177941E-17	1.929573E-18
6.800000E+03	3.202666E-17	1.940006E-18
6.810000E+03	3.227604E-17	1.950414E-18
6.820000E+03	3.252873E-17	1.960837E-18
6.830000E+03	3.278362E-17	1.971171E-18
6.840000E+03	3.304193E-17	1.981450E-18
6.850000E+03	3.330248E-17	1.991564E-18
6.860000E+03	3.356526E-17	2.001472E-18
6.870000E+03	3.383086E-17	2.011175E-18
6.880000E+03	3.409926E-17	2.020637E-18
6.890000E+03	3.436913E-17	2.029757E-18
6.900000E+03	3.464167E-17	2.038586E-18
6.910000E+03	3.491613E-17	2.047071E-18
6.920000E+03	3.519305E-17	2.055243E-18
6.930000E+03	3.547098E-17	2.063023E-18
6.940000E+03	3.575042E-17	2.070453E-18
6.950000E+03	3.603121E-17	2.077542E-18
6.960000E+03	3.631249E-17	2.084262E-18
6.970000E+03	3.659474E-17	2.090670E-18
6.980000E+03	3.687781E-17	2.096783E-18
6.990000E+03	3.716078E-17	2.102583E-18
7.000000E+03	3.744347E-17	2.108090E-18
7.010000E+03	3.772569E-17	2.113329E-18
7.020000E+03	3.800801E-17	2.118364E-18
7.030000E+03	3.828878E-17	2.123137E-18
7.040000E+03	3.856934E-17	2.127754E-18
7.050000E+03	3.884805E-17	2.132154E-18
7.060000E+03	3.912554E-17	2.136398E-18
7.070000E+03	3.940093E-17	2.140460E-18
7.080000E+03	3.967489E-17	2.144396E-18
7.090000E+03	3.994737E-17	2.148217E-18
7.100000E+03	4.021750E-17	2.151885E-18
7.110000E+03	4.048441E-17	2.155360E-18
7.120000E+03	4.074971E-17	2.158724E-18
7.130000E+03	4.101257E-17	2.161926E-18
7.140000E+03	4.127297E-17	2.164955E-18
7.150000E+03	4.153095E-17	2.167792E-18
7.160000E+03	4.178566E-17	2.170370E-18
7.170000E+03	4.203800E-17	2.172707E-18
7.180000E+03	4.228715E-17	2.174726E-18
7.190000E+03	4.253316E-17	2.176388E-18
7.200000E+03	4.277697E-17	2.177700E-18
7.210000E+03	4.301778E-17	2.178573E-18
7.220000E+03	4.325656E-17	2.179008E-18
7.230000E+03	4.349156E-17	2.178869E-18
7.240000E+03	4.372374E-17	2.178161E-18
7.250000E+03	4.395312E-17	2.176843E-18
7.260000E+03	4.417970E-17	2.174883E-18
7.270000E+03	4.440345E-17	2.172252E-18
7.280000E+03	4.462430E-17	2.168934E-18
7.290000E+03	4.484119E-17	2.164872E-18
7.300000E+03	4.505493E-17	2.160115E-18
7.310000E+03	4.526537E-17	2.154678E-18
7.320000E+03	4.547234E-17	2.148590E-18
7.330000E+03	4.567466E-17	2.141847E-18
7.340000E+03	4.587313E-17	2.134552E-18
7.350000E+03	4.606857E-17	2.126826E-18
7.360000E+03	4.625880E-17	2.118668E-18
7.370000E+03	4.644467E-17	2.110234E-18
7.380000E+03	4.662603E-17	2.101654E-18
7.390000E+03	4.680379E-17	2.093128E-18
7.400000E+03	4.697684E-17	2.084784E-18
7.410000E+03	4.714618E-17	2.076871E-18
7.420000E+03	4.731287E-17	2.069666E-18
7.430000E+03	4.747590E-17	2.063382E-18
7.440000E+03	4.763753E-17	2.058402E-18
7.450000E+03	4.779576E-17	2.054951E-18
7.460000E+03	4.795186E-17	2.053414E-18
7.470000E+03	4.810499E-17	2.054094E-18
7.480000E+03	4.825649E-17	2.057378E-18
7.490000E+03	4.840444E-17	2.063475E-18
7.500000E+03	4.855021E-17	2.072666E-18
7.510000E+03	4.869403E-17	2.085078E-18
7.520000E+03	4.883497E-17	2.100646E-18
7.530000E+03	4.897543E-17	2.119295E-18
7.540000E+03	4.911322E-17	2.140627E-18
7.550000E+03	4.924956E-17	2.164295E-18
7.560000E+03	4.938338E-17	2.189790E-18
7.570000E+03	4.951591E-17	2.216675E-18
7.580000E+03	4.964609E-17	2.244406E-18
7.590000E+03	4.977518E-17	2.272570E-18
7.600000E+03	4.990210E-17	2.300688E-18
7.610000E+03	5.002690E-17	2.328397E-18
7.620000E+03	5.015085E-17	2.355461E-18
7.630000E+03	5.027278E-17	2.381609E-18
7.640000E+03	5.039266E-17	2.406705E-18
7.650000E+03	5.051169E-17	2.430745E-18
7.660000E+03	5.062856E-17	2.453676E-18
7.670000E+03	5.074443E-17	2.475617E-18
7.680000E+03	5.085666E-17	2.496551E-18
7.690000E+03	5.096759E-17	2.516729E-18
7.700000E+03	5.107706E-17	2.536303E-18
7.710000E+03	5.118364E-17	2.555365E-18
7.720000E+03	5.128841E-17	2.574136E-18
7.730000E+03	5.138989E-17	2.592698E-18
7.740000E+03	5.148786E-17	2.611189E-18
7.750000E+03	5.158340E-17	2.629797E-18
7.760000E+03	5.167628E-17	2.648630E-18
