#wls	flux	fluxerr
1.600000E+03	3.314745E-17	2.233981E-17
1.640000E+03	3.385206E-17	2.244737E-17
1.680000E+03	3.458600E-17	2.255366E-17
1.720000E+03	3.534810E-17	2.265668E-17
1.760000E+03	3.614006E-17	2.275627E-17
1.800000E+03	3.695997E-17	2.284996E-17
1.840000E+03	3.781182E-17	2.293895E-17
1.880000E+03	3.869587E-17	2.302200E-17
1.920000E+03	3.960894E-17	2.309587E-17
1.960000E+03	4.054758E-17	2.315731E-17
2.000000E+03	4.150813E-17	2.320310E-17
2.040000E+03	4.248957E-17	2.323168E-17
2.080000E+03	4.347663E-17	2.323393E-17
2.120000E+03	4.446304E-17	2.320620E-17
2.160000E+03	4.543741E-17	2.314261E-17
2.200000E+03	4.637869E-17	2.303308E-17
2.240000E+03	4.728037E-17	2.287569E-17
2.280000E+03	4.813161E-17	2.266692E-17
2.320000E+03	4.893492E-17	2.240999E-17
2.360000E+03	4.969752E-17	2.211014E-17
2.400000E+03	5.043077E-17	2.177414E-17
2.440000E+03	5.115178E-17	2.141063E-17
2.480000E+03	5.186734E-17	2.102325E-17
2.520000E+03	5.258996E-17	2.061758E-17
2.560000E+03	5.332886E-17	2.019742E-17
2.600000E+03	5.408639E-17	1.976360E-17
2.640000E+03	5.486681E-17	1.931763E-17
2.680000E+03	5.567044E-17	1.885957E-17
2.720000E+03	5.649987E-17	1.839030E-17
2.760000E+03	5.735454E-17	1.790975E-17
2.800000E+03	5.823482E-17	1.741828E-17
2.840000E+03	5.914058E-17	1.691626E-17
2.880000E+03	6.007953E-17	1.640642E-17
2.920000E+03	6.105866E-17	1.589110E-17
2.960000E+03	6.208625E-17	1.537283E-17
2.991594E+03	7.776983E-16	1.227444E-15
2.991794E+03	7.731728E-16	1.226860E-15
2.991994E+03	7.685431E-16	1.226264E-15
2.992194E+03	7.639127E-16	1.225673E-15
2.992594E+03	7.593889E-16	1.225178E-15
2.992794E+03	7.548008E-16	1.224601E-15
2.994594E+03	7.507105E-16	1.224726E-15
2.994994E+03	7.461650E-16	1.224243E-15
2.995194E+03	7.415564E-16	1.223677E-15
2.996395E+03	7.372680E-16	1.223556E-15
2.996595E+03	7.326411E-16	1.222996E-15
2.998794E+03	7.286325E-16	1.223322E-15
2.999594E+03	7.241803E-16	1.223035E-15
3.019997E+03	7.256143E-16	1.231423E-15
3.064200E+03	7.340389E-16	1.250432E-15
3.080002E+03	7.339107E-16	1.256891E-15
3.083802E+03	7.302112E-16	1.258015E-15
3.084402E+03	7.254825E-16	1.257706E-15
3.085802E+03	7.209383E-16	1.257754E-15
3.086002E+03	7.160568E-16	1.257271E-15
3.094404E+03	7.136075E-16	1.260487E-15
3.095803E+03	7.090813E-16	1.260559E-15
3.100004E+03	7.053433E-16	1.261899E-15
3.100604E+03	7.005445E-16	1.261619E-15
3.105205E+03	6.968458E-16	1.263150E-15
3.109004E+03	6.930305E-16	1.264340E-15
3.110604E+03	6.885941E-16	1.264541E-15
3.111005E+03	6.837770E-16	1.264199E-15
3.111805E+03	6.791286E-16	1.264049E-15
3.112005E+03	6.742689E-16	1.263625E-15
3.112605E+03	6.695309E-16	1.263389E-15
3.113205E+03	6.647441E-16	1.263152E-15
3.113405E+03	6.598649E-16	1.262738E-15
3.114205E+03	6.550954E-16	1.262598E-15
3.114605E+03	6.502033E-16	1.262277E-15
3.115605E+03	6.454332E-16	1.262232E-15
3.116606E+03	6.406749E-16	1.262194E-15
3.116806E+03	6.358492E-16	1.261807E-15
3.117406E+03	6.310923E-16	1.261604E-15
3.119206E+03	6.266174E-16	1.261955E-15
3.119606E+03	6.217261E-16	1.261661E-15
3.120605E+03	6.169653E-16	1.261646E-15
3.121405E+03	6.121672E-16	1.261545E-15
3.123606E+03	6.077671E-16	1.262101E-15
3.123806E+03	6.028938E-16	1.261740E-15
3.125206E+03	5.982586E-16	1.261932E-15
3.126406E+03	5.935706E-16	1.262038E-15
3.126606E+03	5.887530E-16	1.261694E-15
3.126806E+03	5.839346E-16	1.261354E-15
3.127206E+03	5.791614E-16	1.261110E-15
3.127406E+03	5.743567E-16	1.260779E-15
3.128007E+03	5.696264E-16	1.260636E-15
3.128607E+03	5.649091E-16	1.260498E-15
3.128807E+03	5.601005E-16	1.260178E-15
3.129207E+03	5.553352E-16	1.259955E-15
3.129407E+03	5.505403E-16	1.259643E-15
3.129807E+03	5.457724E-16	1.259427E-15
3.132006E+03	5.414051E-16	1.260058E-15
3.132206E+03	5.366193E-16	1.259759E-15
3.132806E+03	5.318233E-16	1.259644E-15
3.133406E+03	5.270406E-16	1.259534E-15
3.133607E+03	5.221573E-16	1.259239E-15
3.134207E+03	5.174020E-16	1.259139E-15
3.134407E+03	5.125161E-16	1.258852E-15
3.135007E+03	5.078821E-16	1.258770E-15
3.135807E+03	5.031604E-16	1.258775E-15
3.136007E+03	4.983486E-16	1.258505E-15
3.136607E+03	4.936141E-16	1.258427E-15
3.136807E+03	4.887687E-16	1.258162E-15
3.137007E+03	4.839694E-16	1.257903E-15
3.138207E+03	4.794843E-16	1.258130E-15
3.138407E+03	4.746816E-16	1.257879E-15
3.139007E+03	4.699368E-16	1.257820E-15
3.139207E+03	4.653042E-16	1.257589E-15
3.139808E+03	4.606498E-16	1.257544E-15
3.140008E+03	4.558425E-16	1.257307E-15
3.140408E+03	4.512896E-16	1.257184E-15
3.140608E+03	4.466842E-16	1.256968E-15
3.141008E+03	4.420190E-16	1.256844E-15
3.141808E+03	4.373900E-16	1.256912E-15
3.142008E+03	4.327339E-16	1.256703E-15
3.142208E+03	4.279986E-16	1.256493E-15
3.142608E+03	4.233117E-16	1.256382E-15
3.142808E+03	4.186216E-16	1.256182E-15
3.143008E+03	4.139621E-16	1.255986E-15
3.143207E+03	4.094431E-16	1.255803E-15
3.144407E+03	4.049891E-16	1.256095E-15
3.144807E+03	4.003572E-16	1.256005E-15
3.145408E+03	3.957865E-16	1.256017E-15
3.146408E+03	3.913381E-16	1.256227E-15
3.146608E+03	3.868269E-16	1.256062E-15
3.146808E+03	3.822364E-16	1.255894E-15
3.147208E+03	3.777379E-16	1.255830E-15
3.148008E+03	3.734068E-16	1.255967E-15
3.148208E+03	3.688599E-16	1.255812E-15
3.148408E+03	3.643437E-16	1.255662E-15
3.149408E+03	3.601132E-16	1.255908E-15
3.149808E+03	3.557795E-16	1.255869E-15
3.150408E+03	3.513619E-16	1.255923E-15
3.150608E+03	3.469506E-16	1.255791E-15
3.151409E+03	3.426195E-16	1.255951E-15
3.151609E+03	3.381427E-16	1.255822E-15
3.151809E+03	3.336967E-16	1.255698E-15
3.152009E+03	3.293445E-16	1.255581E-15
3.152209E+03	3.249601E-16	1.255466E-15
3.153009E+03	3.207452E-16	1.255647E-15
3.153209E+03	3.163899E-16	1.255539E-15
3.153409E+03	3.120182E-16	1.255433E-15
3.153609E+03	3.077718E-16	1.255336E-15
3.154209E+03	3.036198E-16	1.255436E-15
3.154409E+03	2.993083E-16	1.255342E-15
3.155009E+03	2.950426E-16	1.255443E-15
3.155209E+03	2.908237E-16	1.255358E-15
3.155608E+03	2.866425E-16	1.254714E-15
3.155809E+03	2.824377E-16	1.254400E-15
3.156008E+03	2.782323E-16	1.252423E-15
3.156209E+03	2.740735E-16	1.248079E-15
3.157009E+03	2.699462E-16	1.248171E-15
3.157609E+03	2.658742E-16	1.248423E-15
3.158009E+03	2.618429E-16	1.248553E-15
3.158209E+03	2.577269E-16	1.248508E-15
3.158409E+03	2.537050E-16	1.248422E-15
3.158809E+03	2.497337E-16	1.248137E-15
3.159009E+03	2.457102E-16	1.242327E-15
3.159409E+03	2.417208E-16	1.242281E-15
3.159609E+03	2.377116E-16	1.241841E-15
3.159809E+03	2.337017E-16	2.648867E-16
3.160209E+03	2.297882E-16	2.624977E-16
3.160609E+03	2.259366E-16	2.600331E-16
3.161409E+03	2.220396E-16	2.578088E-16
3.161809E+03	2.181376E-16	2.570947E-16
3.162210E+03	2.142344E-16	2.553559E-16
3.162410E+03	2.104874E-16	2.533816E-16
3.163010E+03	2.067721E-16	2.513226E-16
3.163210E+03	2.029284E-16	2.494304E-16
3.163410E+03	1.991949E-16	2.470090E-16
3.163810E+03	1.954602E-16	2.462549E-16
3.164010E+03	1.917410E-16	2.447378E-16
3.164210E+03	1.880528E-16	2.431110E-16
3.164410E+03	1.844274E-16	2.420068E-16
3.164810E+03	1.807364E-16	2.405236E-16
3.165010E+03	1.772046E-16	2.382132E-16
3.165210E+03	1.736247E-16	2.365758E-16
3.165410E+03	1.700125E-16	2.349089E-16
3.165610E+03	1.665107E-16	2.330500E-16
3.165810E+03	1.629291E-16	2.303844E-16
3.166010E+03	1.593469E-16	2.287494E-16
3.166410E+03	1.558381E-16	2.262635E-16
3.166610E+03	1.524383E-16	2.245841E-16
3.167010E+03	1.490560E-16	2.228639E-16
3.167209E+03	1.456358E-16	2.207500E-16
3.167610E+03	1.422452E-16	2.190828E-16
3.168410E+03	1.388262E-16	2.170778E-16
3.168610E+03	1.354557E-16	2.154546E-16
3.168810E+03	1.321734E-16	2.130813E-16
3.169010E+03	1.288177E-16	2.115604E-16
3.169410E+03	1.254982E-16	2.093105E-16
3.169610E+03	1.222094E-16	2.073611E-16
3.170410E+03	1.189447E-16	2.048890E-16
3.170610E+03	1.156826E-16	2.025805E-16
3.170810E+03	1.124501E-16	2.001859E-16
3.171010E+03	1.092473E-16	1.985381E-16
3.171410E+03	1.060840E-16	1.964176E-16
3.171610E+03	1.029419E-16	1.938878E-16
3.171810E+03	9.983098E-17	1.915032E-16
3.172210E+03	9.675729E-17	1.890294E-16
3.172810E+03	9.372328E-17	1.882974E-16
3.173010E+03	9.070706E-17	1.861964E-16
3.173811E+03	8.774267E-17	1.845150E-16
3.174611E+03	8.480656E-17	1.832766E-16
3.174811E+03	8.187492E-17	1.826302E-16
3.175011E+03	7.893170E-17	1.815370E-16
3.175411E+03	7.607977E-17	1.802350E-16
3.175811E+03	7.322217E-17	1.785464E-16
3.176011E+03	7.038206E-17	1.772898E-16
3.176611E+03	6.760767E-17	1.747506E-16
3.177011E+03	6.482057E-17	1.723734E-16
3.177211E+03	6.217888E-17	1.704996E-16
3.177811E+03	5.955241E-17	1.680259E-16
3.178411E+03	5.691833E-17	1.664517E-16
3.178611E+03	5.427300E-17	1.639115E-16
3.179212E+03	5.166554E-17	1.615898E-16
3.179412E+03	4.906514E-17	1.599520E-16
3.180012E+03	4.654638E-17	1.574967E-16
3.180211E+03	4.407058E-17	1.549442E-16
3.180811E+03	4.164066E-17	1.523962E-16
3.181211E+03	3.914922E-17	1.505508E-16
3.181411E+03	3.671311E-17	1.490608E-16
3.181611E+03	3.439293E-17	1.489490E-16
3.181811E+03	3.205805E-17	1.479733E-16
3.182011E+03	2.972917E-17	1.454457E-16
3.182811E+03	2.740950E-17	1.441702E-16
3.183011E+03	2.505705E-17	1.426002E-16
3.183211E+03	2.281424E-17	1.415617E-16
3.183611E+03	2.053918E-17	1.402584E-16
3.183811E+03	1.840712E-17	1.389784E-16
3.184411E+03	1.621026E-17	1.387393E-16
3.184611E+03	1.402489E-17	1.364785E-16
3.184811E+03	1.186103E-17	1.355363E-16
3.185012E+03	9.744535E-18	1.332863E-16
3.185212E+03	7.673504E-18	1.311849E-16
3.185412E+03	5.692625E-18	1.296378E-16
3.185812E+03	3.739177E-18	1.281151E-16
3.186012E+03	1.811957E-18	1.267611E-16
3.186412E+03	-8.780405E-20	1.244830E-16
3.186612E+03	-1.960842E-18	1.229788E-16
3.186812E+03	-3.806240E-18	1.217347E-16
3.187412E+03	-5.624852E-18	1.217034E-16
3.187612E+03	-7.419202E-18	1.210320E-16
3.188412E+03	-9.187850E-18	1.192591E-16
3.189212E+03	-1.092930E-17	1.175107E-16
3.189412E+03	-1.264061E-17	1.163076E-16
3.189812E+03	-1.432500E-17	1.156507E-16
3.190012E+03	-1.598022E-17	1.143138E-16
3.190412E+03	-1.760844E-17	1.121841E-16
3.190613E+03	-1.920706E-17	1.104825E-16
3.190813E+03	-2.077874E-17	1.090899E-16
3.191013E+03	-2.232028E-17	1.078431E-16
3.191412E+03	-2.383671E-17	1.064634E-16
3.191613E+03	-2.530207E-17	1.048734E-16
3.191812E+03	-2.676606E-17	1.026750E-16
3.193012E+03	-2.824595E-17	1.019136E-16
3.193612E+03	-2.973955E-17	1.008373E-16
3.194812E+03	-3.114015E-17	9.976861E-17
3.195012E+03	-3.252310E-17	9.780556E-17
3.195212E+03	-3.376852E-17	9.611533E-17
3.196012E+03	-3.502383E-17	9.486191E-17
3.196213E+03	-3.632281E-17	9.289229E-17
3.196413E+03	-3.750660E-17	9.084959E-17
3.196613E+03	-3.869538E-17	8.959518E-17
3.196813E+03	-3.988114E-17	8.950200E-17
3.197013E+03	-4.108310E-17	8.875859E-17
3.197213E+03	-4.229327E-17	8.748806E-17
3.197413E+03	-4.345553E-17	8.606158E-17
3.198013E+03	-4.448052E-17	8.413242E-17
3.198213E+03	-4.559039E-17	8.334341E-17
3.198613E+03	-4.661741E-17	8.243811E-17
3.198813E+03	-4.763307E-17	8.203866E-17
3.199013E+03	-4.857990E-17	8.185156E-17
3.199413E+03	-4.954192E-17	7.992638E-17
3.199613E+03	-5.045543E-17	7.888083E-17
3.199813E+03	-5.132254E-17	7.769207E-17
3.200013E+03	-5.222509E-17	7.626437E-17
3.200413E+03	-5.307729E-17	7.468815E-17
3.201013E+03	-5.385363E-17	7.388179E-17
3.201213E+03	-5.453685E-17	7.206476E-17
3.201613E+03	-5.525973E-17	7.083406E-17
3.202014E+03	-5.597482E-17	7.003049E-17
3.202414E+03	-5.668208E-17	6.840886E-17
3.203014E+03	-5.733934E-17	6.829403E-17
3.203214E+03	-5.791570E-17	6.773964E-17
3.203414E+03	-5.850499E-17	6.686047E-17
3.203613E+03	-5.900118E-17	6.526059E-17
3.203814E+03	-5.956815E-17	6.507894E-17
3.204213E+03	-6.012375E-17	6.371519E-17
3.205013E+03	-6.065023E-17	6.304402E-17
3.205813E+03	-6.108213E-17	6.217531E-17
3.206013E+03	-6.140848E-17	6.189755E-17
3.206213E+03	-6.176865E-17	6.122558E-17
3.206813E+03	-6.218505E-17	6.042245E-17
3.207013E+03	-6.242633E-17	6.045660E-17
3.207614E+03	-6.273680E-17	6.050433E-17
3.208414E+03	-6.297172E-17	6.053075E-17
3.208814E+03	-6.319710E-17	6.054703E-17
3.209214E+03	-6.345636E-17	6.054761E-17
3.210214E+03	-6.363204E-17	6.046692E-17
3.210414E+03	-6.380284E-17	6.038900E-17
3.211814E+03	-6.399654E-17	6.035187E-17
3.212014E+03	-6.402883E-17	6.027836E-17
3.212214E+03	-6.411754E-17	6.015119E-17
3.212814E+03	-6.419028E-17	5.985418E-17
3.213014E+03	-6.424355E-17	5.938973E-17
3.214615E+03	-6.429891E-17	5.876020E-17
3.214815E+03	-6.425056E-17	5.821120E-17
3.215215E+03	-6.415221E-17	5.787259E-17
3.215415E+03	-6.391175E-17	5.744276E-17
3.216615E+03	-6.386668E-17	5.720413E-17
3.216814E+03	-6.372619E-17	5.684628E-17
3.217014E+03	-6.354368E-17	5.613825E-17
3.217214E+03	-6.328524E-17	5.550562E-17
3.218014E+03	-6.302013E-17	5.502505E-17
3.218614E+03	-6.272907E-17	5.436274E-17
3.218814E+03	-6.240898E-17	5.360601E-17
3.219015E+03	-6.207108E-17	5.370856E-17
3.220015E+03	-6.173247E-17	5.386883E-17
3.221215E+03	-6.137883E-17	5.403785E-17
3.222815E+03	-6.101468E-17	5.429168E-17
3.223015E+03	-6.059518E-17	5.412884E-17
3.223415E+03	-6.016075E-17	5.436076E-17
3.224015E+03	-5.970966E-17	5.391564E-17
3.224215E+03	-5.922833E-17	5.406270E-17
3.227016E+03	-5.882912E-17	5.439947E-17
3.227816E+03	-5.835554E-17	5.481925E-17
3.229015E+03	-5.784173E-17	5.472887E-17
3.229215E+03	-5.719382E-17	5.471883E-17
3.229415E+03	-5.667075E-17	5.524178E-17
3.230416E+03	-5.609804E-17	5.582396E-17
3.231416E+03	-5.545664E-17	5.571319E-17
3.232016E+03	-5.481135E-17	5.612070E-17
3.234616E+03	-5.416433E-17	5.665580E-17
3.235216E+03	-5.345450E-17	5.683441E-17
3.235616E+03	-5.274362E-17	5.722925E-17
3.235816E+03	-5.200909E-17	5.755856E-17
3.236017E+03	-5.125658E-17	5.772331E-17
3.236617E+03	-5.049037E-17	5.791863E-17
3.236817E+03	-4.969681E-17	5.830186E-17
3.238017E+03	-4.890361E-17	5.842309E-17
3.239617E+03	-4.809736E-17	5.836710E-17
3.240017E+03	-4.724924E-17	5.828419E-17
3.240216E+03	-4.638271E-17	5.852378E-17
3.240416E+03	-4.549976E-17	5.912275E-17
3.240617E+03	-4.459712E-17	5.917803E-17
3.242417E+03	-4.370103E-17	5.965085E-17
3.242617E+03	-4.273886E-17	5.991700E-17
3.243217E+03	-4.172735E-17	6.037348E-17
3.243417E+03	-4.065219E-17	6.076504E-17
3.243817E+03	-3.961082E-17	6.106974E-17
3.245017E+03	-3.854805E-17	6.136957E-17
3.245217E+03	-3.746539E-17	6.161103E-17
3.245417E+03	-3.638583E-17	6.178885E-17
3.245617E+03	-3.526365E-17	6.191589E-17
3.245817E+03	-3.413641E-17	6.190632E-17
3.246417E+03	-3.307763E-17	6.200020E-17
3.247618E+03	-3.200106E-17	6.210192E-17
3.247818E+03	-3.082044E-17	6.213566E-17
3.248618E+03	-2.962013E-17	6.219543E-17
3.249618E+03	-2.848009E-17	6.225843E-17
3.249818E+03	-2.723618E-17	6.225786E-17
3.250218E+03	-2.602346E-17	6.171146E-17
3.251018E+03	-2.482390E-17	6.159983E-17
3.251218E+03	-2.361342E-17	6.174041E-17
3.251418E+03	-2.234713E-17	6.191932E-17
3.252218E+03	-2.108373E-17	6.170270E-17
3.252418E+03	-1.980205E-17	6.194342E-17
3.253218E+03	-1.849976E-17	6.225014E-17
3.253418E+03	-1.713881E-17	6.184148E-17
3.253618E+03	-1.582662E-17	6.209205E-17
3.253818E+03	-1.452897E-17	6.223396E-17
3.254018E+03	-1.309209E-17	6.146355E-17
3.255018E+03	-1.174414E-17	6.096109E-17
3.255418E+03	-1.043990E-17	6.087050E-17
3.255618E+03	-9.100991E-18	6.073971E-17
3.256418E+03	-7.693950E-18	6.046178E-17
3.256618E+03	-6.195159E-18	6.020331E-17
3.257218E+03	-4.752430E-18	5.999121E-17
3.257818E+03	-3.221476E-18	5.981805E-17
3.258619E+03	-1.702761E-18	5.968823E-17
3.259019E+03	-2.318981E-19	5.967202E-17
3.260019E+03	1.134051E-18	5.970398E-17
3.260819E+03	2.496215E-18	5.976591E-17
3.261219E+03	3.897845E-18	5.977661E-17
3.261819E+03	5.321308E-18	5.985621E-17
3.262219E+03	6.736032E-18	5.966568E-17
3.262419E+03	8.223516E-18	5.967449E-17
3.263019E+03	9.662703E-18	5.919967E-17
3.263219E+03	1.107985E-17	5.890170E-17
3.264220E+03	1.263210E-17	5.883565E-17
3.265219E+03	1.404932E-17	5.872822E-17
3.265419E+03	1.550807E-17	5.871241E-17
3.266219E+03	1.699992E-17	5.873746E-17
3.266419E+03	1.855272E-17	5.867714E-17
3.267219E+03	2.001804E-17	5.863914E-17
3.267419E+03	2.148440E-17	5.835360E-17
3.267819E+03	2.295102E-17	5.837458E-17
3.268019E+03	2.447555E-17	5.838474E-17
3.268619E+03	2.600907E-17	5.828627E-17
3.268819E+03	2.745192E-17	5.827228E-17
3.269419E+03	2.884819E-17	5.832612E-17
3.269619E+03	3.029992E-17	5.817701E-17
3.270420E+03	3.172263E-17	5.820050E-17
3.271020E+03	3.326734E-17	5.782503E-17
3.271420E+03	3.465027E-17	5.789739E-17
3.271620E+03	3.605239E-17	5.776833E-17
3.272420E+03	3.753718E-17	5.761107E-17
3.272620E+03	3.904721E-17	5.746269E-17
3.273220E+03	4.043642E-17	5.695194E-17
3.274820E+03	4.184656E-17	5.690953E-17
3.275420E+03	4.331673E-17	5.693493E-17
3.276220E+03	4.469507E-17	5.700521E-17
3.276620E+03	4.610872E-17	5.712733E-17
3.276820E+03	4.760353E-17	5.721802E-17
3.277420E+03	4.903307E-17	5.726786E-17
3.278420E+03	5.052021E-17	5.733284E-17
3.279020E+03	5.197766E-17	5.742495E-17
3.279620E+03	5.342418E-17	5.753000E-17
3.280020E+03	5.479289E-17	5.761268E-17
3.280220E+03	5.611490E-17	5.769248E-17
3.281020E+03	5.752910E-17	5.779733E-17
3.282421E+03	5.881639E-17	5.789524E-17
3.282621E+03	6.003060E-17	5.800157E-17
3.282821E+03	6.122016E-17	5.730516E-17
3.283021E+03	6.240327E-17	5.709394E-17
3.283421E+03	6.367066E-17	5.705841E-17
3.284021E+03	6.484546E-17	5.687258E-17
3.284221E+03	6.602769E-17	5.679430E-17
3.284421E+03	6.721175E-17	5.654358E-17
3.284621E+03	6.831813E-17	5.620251E-17
3.285021E+03	6.942476E-17	5.608228E-17
3.285821E+03	7.059006E-17	5.566514E-17
3.286021E+03	7.168233E-17	5.575705E-17
3.286221E+03	7.273332E-17	5.580978E-17
3.287422E+03	7.387106E-17	5.556307E-17
3.287622E+03	7.495757E-17	5.551194E-17
3.288421E+03	7.589165E-17	5.559462E-17
3.289222E+03	7.698388E-17	5.547766E-17
3.290021E+03	7.795722E-17	5.524740E-17
3.290421E+03	7.895949E-17	5.506043E-17
3.290821E+03	7.985413E-17	5.494521E-17
3.291221E+03	8.065107E-17	5.500965E-17
3.291421E+03	8.146724E-17	5.499292E-17
3.291621E+03	8.227355E-17	5.479504E-17
3.292622E+03	8.300778E-17	5.475767E-17
3.292822E+03	8.370823E-17	5.439197E-17
3.293022E+03	8.438551E-17	5.423991E-17
3.293222E+03	8.510111E-17	5.440207E-17
3.293422E+03	8.588162E-17	5.455108E-17
3.294022E+03	8.662328E-17	5.459965E-17
3.295022E+03	8.721663E-17	5.464831E-17
3.295222E+03	8.775170E-17	5.462591E-17
3.295622E+03	8.828990E-17	5.417819E-17
3.296622E+03	8.881428E-17	5.425896E-17
3.297022E+03	8.917986E-17	5.403670E-17
3.297222E+03	8.964889E-17	5.398665E-17
3.297422E+03	9.004809E-17	5.400634E-17
3.298022E+03	9.050369E-17	5.401229E-17
3.298223E+03	9.079324E-17	5.386482E-17
3.298623E+03	9.106440E-17	5.334526E-17
3.299423E+03	9.130553E-17	5.330033E-17
3.299623E+03	9.144701E-17	5.326280E-17
3.299823E+03	9.165348E-17	5.312795E-17
3.300222E+03	9.169335E-17	5.304108E-17
3.300823E+03	9.168321E-17	5.289632E-17
3.301023E+03	9.169981E-17	5.278424E-17
3.301222E+03	9.162977E-17	5.260676E-17
3.301622E+03	9.142966E-17	5.271566E-17
3.301822E+03	9.126791E-17	5.248725E-17
3.302222E+03	9.098267E-17	5.213148E-17
3.302422E+03	9.080085E-17	5.191957E-17
3.302622E+03	9.050229E-17	5.176103E-17
3.302822E+03	9.007196E-17	5.160617E-17
3.303222E+03	8.970973E-17	5.144477E-17
3.303422E+03	8.927259E-17	5.126608E-17
3.303622E+03	8.871363E-17	5.108413E-17
3.303823E+03	8.806455E-17	5.085980E-17
3.304623E+03	8.747091E-17	5.059507E-17
3.304823E+03	8.669133E-17	5.027471E-17
3.305223E+03	8.592114E-17	4.993921E-17
3.305423E+03	8.503614E-17	4.955538E-17
3.305623E+03	8.410427E-17	4.908943E-17
3.306023E+03	8.317991E-17	4.861906E-17
3.306223E+03	8.210414E-17	4.807086E-17
3.307023E+03	8.357547E-17	4.813769E-17
3.307623E+03	8.156918E-17	4.722568E-17
3.308023E+03	7.830850E-17	4.595782E-17
3.308423E+03	7.770158E-17	4.531778E-17
3.309223E+03	7.773388E-17	4.511820E-17
3.309424E+03	7.804198E-17	4.517593E-17
3.309624E+03	7.869775E-17	4.518910E-17
3.310024E+03	7.960168E-17	4.539282E-17
3.310224E+03	8.089463E-17	4.569861E-17
3.311024E+03	7.700644E-17	4.467410E-17
3.312024E+03	7.632303E-17	4.444659E-17
3.312224E+03	7.748952E-17	4.459830E-17
3.313023E+03	3.701128E-17	3.637457E-17
3.313224E+03	3.712940E-17	3.633297E-17
3.313823E+03	3.732986E-17	3.636633E-17
3.314023E+03	3.740618E-17	3.640045E-17
3.314223E+03	3.714768E-17	3.631288E-17
3.314423E+03	3.717210E-17	3.631314E-17
3.314623E+03	3.722833E-17	3.636128E-17
3.314823E+03	3.731639E-17	3.648356E-17
3.315024E+03	3.730902E-17	3.660429E-17
3.315224E+03	3.743896E-17	3.661995E-17
