#wls	flux	fluxerr
1.600000E+03	1.654640E-16	1.604776E-16
1.640000E+03	1.703659E-16	1.624845E-16
1.680000E+03	1.749657E-16	1.639891E-16
1.720000E+03	1.792291E-16	1.649702E-16
1.760000E+03	1.830483E-16	1.653434E-16
1.800000E+03	1.864167E-16	1.651218E-16
1.840000E+03	1.892222E-16	1.642290E-16
1.880000E+03	1.914369E-16	1.626695E-16
1.920000E+03	1.929991E-16	1.604226E-16
1.960000E+03	1.938190E-16	1.574513E-16
2.000000E+03	1.938743E-16	1.537803E-16
2.040000E+03	1.931034E-16	1.494074E-16
2.080000E+03	1.914564E-16	1.443458E-16
2.120000E+03	1.888985E-16	1.386252E-16
2.160000E+03	1.853883E-16	1.322756E-16
2.200000E+03	1.808660E-16	1.253192E-16
2.240000E+03	1.752812E-16	1.177907E-16
2.280000E+03	1.686613E-16	1.097819E-16
2.320000E+03	1.611424E-16	1.014516E-16
2.360000E+03	1.529575E-16	9.300705E-17
2.400000E+03	1.442920E-16	8.460831E-17
2.440000E+03	1.353136E-16	7.638918E-17
2.480000E+03	1.261430E-16	6.844325E-17
2.520000E+03	1.169061E-16	6.085565E-17
2.560000E+03	1.077043E-16	5.368745E-17
2.600000E+03	9.864192E-17	4.699115E-17
2.640000E+03	8.980226E-17	4.079953E-17
2.680000E+03	8.126273E-17	3.513426E-17
2.720000E+03	7.309269E-17	3.000578E-17
2.760000E+03	6.534538E-17	2.541108E-17
2.800000E+03	5.806673E-17	2.133883E-17
2.840000E+03	5.129163E-17	1.776905E-17
2.880000E+03	4.504739E-17	1.467570E-17
2.920000E+03	3.935261E-17	1.202738E-17
2.960000E+03	3.421404E-17	9.787670E-18
3.000000E+03	2.962712E-17	7.916771E-18
3.010000E+03	2.856478E-17	7.501754E-18
3.020000E+03	2.753496E-17	7.106347E-18
3.030000E+03	2.653828E-17	6.730156E-18
3.040000E+03	2.557289E-17	6.372160E-18
3.050000E+03	2.463931E-17	6.031954E-18
3.060000E+03	2.373680E-17	5.708832E-18
3.070000E+03	2.286514E-17	5.402218E-18
3.080000E+03	2.202262E-17	5.111209E-18
3.090000E+03	2.120993E-17	4.835475E-18
3.100000E+03	2.042541E-17	4.574157E-18
3.110000E+03	1.966918E-17	4.326817E-18
3.120000E+03	1.894045E-17	4.092826E-18
3.130000E+03	1.823811E-17	3.871501E-18
3.140000E+03	1.756214E-17	3.662414E-18
3.150000E+03	1.691143E-17	3.464917E-18
3.160000E+03	1.628559E-17	3.278528E-18
3.170000E+03	1.568387E-17	3.102710E-18
3.180000E+03	1.510555E-17	2.936945E-18
3.190000E+03	1.455019E-17	2.780787E-18
3.200000E+03	1.401705E-17	2.633751E-18
3.210000E+03	1.350523E-17	2.495327E-18
3.220000E+03	1.301453E-17	2.365160E-18
3.230000E+03	1.254408E-17	2.242778E-18
3.240000E+03	1.209347E-17	2.127807E-18
3.250000E+03	1.166206E-17	2.019848E-18
3.260000E+03	1.124908E-17	1.918490E-18
3.270000E+03	1.085429E-17	1.823429E-18
3.280000E+03	1.047673E-17	1.734253E-18
3.290000E+03	1.011616E-17	1.650680E-18
3.300000E+03	9.771955E-18	1.572381E-18
3.310000E+03	9.443241E-18	1.498998E-18
3.320000E+03	9.129737E-18	1.430281E-18
3.330000E+03	8.830862E-18	1.365945E-18
3.340000E+03	8.545929E-18	1.305699E-18
3.350000E+03	8.274403E-18	1.249291E-18
3.360000E+03	8.015761E-18	1.196480E-18
3.370000E+03	7.769494E-18	1.147038E-18
3.380000E+03	7.535109E-18	1.100752E-18
3.390000E+03	7.312123E-18	1.057419E-18
3.400000E+03	7.099976E-18	1.016836E-18
3.410000E+03	6.898141E-18	9.788137E-19
3.420000E+03	6.706369E-18	9.432133E-19
3.430000E+03	6.523992E-18	9.098435E-19
3.440000E+03	6.350709E-18	8.785736E-19
3.450000E+03	6.186066E-18	8.492594E-19
3.460000E+03	6.029709E-18	8.217771E-19
3.470000E+03	5.881158E-18	7.959925E-19
3.480000E+03	5.740033E-18	7.717914E-19
3.490000E+03	5.606039E-18	7.490766E-19
3.500000E+03	5.478771E-18	7.277411E-19
3.510000E+03	5.357969E-18	7.077021E-19
3.520000E+03	5.243156E-18	6.888527E-19
3.530000E+03	5.134116E-18	6.711244E-19
3.540000E+03	5.030481E-18	6.544327E-19
3.550000E+03	4.931962E-18	6.387068E-19
3.560000E+03	4.838291E-18	6.238819E-19
3.570000E+03	4.749119E-18	6.098853E-19
3.580000E+03	4.664311E-18	5.966751E-19
3.590000E+03	4.583601E-18	5.841940E-19
3.600000E+03	4.506739E-18	5.723894E-19
3.610000E+03	4.433623E-18	5.612288E-19
3.620000E+03	4.363982E-18	5.506606E-19
3.630000E+03	4.297648E-18	5.406471E-19
3.640000E+03	4.234464E-18	5.311533E-19
3.650000E+03	4.174279E-18	5.221464E-19
3.660000E+03	4.116952E-18	5.135956E-19
3.670000E+03	4.062348E-18	5.054723E-19
3.680000E+03	4.010375E-18	4.977539E-19
3.690000E+03	3.960947E-18	4.904191E-19
3.700000E+03	3.913942E-18	4.834435E-19
3.710000E+03	3.869380E-18	4.768209E-19
3.720000E+03	3.827110E-18	4.705243E-19
3.730000E+03	3.787118E-18	4.645447E-19
3.740000E+03	3.749321E-18	4.588652E-19
3.750000E+03	3.713670E-18	4.534737E-19
3.760000E+03	3.680178E-18	4.483660E-19
3.770000E+03	3.648701E-18	4.435196E-19
3.780000E+03	3.619249E-18	4.389313E-19
3.790000E+03	3.591800E-18	4.345945E-19
3.800000E+03	3.566244E-18	4.304921E-19
3.810000E+03	3.542588E-18	4.266223E-19
3.820000E+03	3.520808E-18	4.229795E-19
3.830000E+03	3.500825E-18	4.195518E-19
3.840000E+03	3.482587E-18	4.163315E-19
3.850000E+03	3.466128E-18	4.133209E-19
3.860000E+03	3.451342E-18	4.105062E-19
3.870000E+03	3.438234E-18	4.078870E-19
3.880000E+03	3.426755E-18	4.054566E-19
3.890000E+03	3.416883E-18	4.032120E-19
3.900000E+03	3.408598E-18	4.011501E-19
3.910000E+03	3.401824E-18	3.992619E-19
3.920000E+03	3.396543E-18	3.975448E-19
3.930000E+03	3.392762E-18	3.959995E-19
3.940000E+03	3.390435E-18	3.946206E-19
3.950000E+03	3.389517E-18	3.934026E-19
3.960000E+03	3.389992E-18	3.923434E-19
3.970000E+03	3.391815E-18	3.914378E-19
3.980000E+03	3.394970E-18	3.906834E-19
3.990000E+03	3.399441E-18	3.900780E-19
4.000000E+03	3.405213E-18	3.896195E-19
4.010000E+03	3.412220E-18	3.892994E-19
4.020000E+03	3.420449E-18	3.891157E-19
4.030000E+03	3.429887E-18	3.890659E-19
4.040000E+03	3.440525E-18	3.891479E-19
4.050000E+03	3.452325E-18	3.893564E-19
4.060000E+03	3.465253E-18	3.896862E-19
4.070000E+03	3.479300E-18	3.901348E-19
4.080000E+03	3.494434E-18	3.906968E-19
4.090000E+03	3.510647E-18	3.913700E-19
4.100000E+03	3.527907E-18	3.921488E-19
4.110000E+03	3.546208E-18	3.930306E-19
4.120000E+03	3.565518E-18	3.940100E-19
4.130000E+03	3.585804E-18	3.950812E-19
4.140000E+03	3.607062E-18	3.962413E-19
4.150000E+03	3.629260E-18	3.974846E-19
4.160000E+03	3.652396E-18	3.988081E-19
4.170000E+03	3.676411E-18	4.002027E-19
4.180000E+03	3.701304E-18	4.016652E-19
4.190000E+03	3.727015E-18	4.031864E-19
4.200000E+03	3.753574E-18	4.047664E-19
4.210000E+03	3.780922E-18	4.063959E-19
4.220000E+03	3.809060E-18	4.080721E-19
4.230000E+03	3.837899E-18	4.097829E-19
4.240000E+03	3.867468E-18	4.115287E-19
4.250000E+03	3.897677E-18	4.132977E-19
4.260000E+03	3.928556E-18	4.150908E-19
4.270000E+03	3.960012E-18	4.168963E-19
4.280000E+03	3.991982E-18	4.187059E-19
4.290000E+03	4.024495E-18	4.205211E-19
4.300000E+03	4.057426E-18	4.223273E-19
4.310000E+03	4.090804E-18	4.241264E-19
4.320000E+03	4.124500E-18	4.259040E-19
4.330000E+03	4.158546E-18	4.276621E-19
4.340000E+03	4.192876E-18	4.293931E-19
4.350000E+03	4.227425E-18	4.310889E-19
4.360000E+03	4.262190E-18	4.327484E-19
4.370000E+03	4.297139E-18	4.343668E-19
4.380000E+03	4.332304E-18	4.359462E-19
4.390000E+03	4.367618E-18	4.374782E-19
4.400000E+03	4.403150E-18	4.389682E-19
4.410000E+03	4.438905E-18	4.404149E-19
4.420000E+03	4.474886E-18	4.418167E-19
4.430000E+03	4.511097E-18	4.431725E-19
4.440000E+03	4.547581E-18	4.444848E-19
4.450000E+03	4.584310E-18	4.457491E-19
4.460000E+03	4.621329E-18	4.469685E-19
4.470000E+03	4.658649E-18	4.481429E-19
4.480000E+03	4.696281E-18	4.492726E-19
4.490000E+03	4.734198E-18	4.503549E-19
4.500000E+03	4.772411E-18	4.513914E-19
4.510000E+03	4.810892E-18	4.523807E-19
4.520000E+03	4.849692E-18	4.533297E-19
4.530000E+03	4.888740E-18	4.542350E-19
4.540000E+03	4.928047E-18	4.551015E-19
4.550000E+03	4.967623E-18	4.559350E-19
4.560000E+03	5.007393E-18	4.567347E-19
4.570000E+03	5.047411E-18	4.575117E-19
4.580000E+03	5.087603E-18	4.582666E-19
4.590000E+03	5.127980E-18	4.590079E-19
4.600000E+03	5.168470E-18	4.597364E-19
4.610000E+03	5.209132E-18	4.604647E-19
4.620000E+03	5.249940E-18	4.611972E-19
4.630000E+03	5.290822E-18	4.619333E-19
4.640000E+03	5.331801E-18	4.626796E-19
4.650000E+03	5.372900E-18	4.634416E-19
4.660000E+03	5.414099E-18	4.642195E-19
4.670000E+03	5.455331E-18	4.650081E-19
4.680000E+03	5.496722E-18	4.658172E-19
4.690000E+03	5.538308E-18	4.666479E-19
4.700000E+03	5.580028E-18	4.674916E-19
4.710000E+03	5.621922E-18	4.683477E-19
4.720000E+03	5.664034E-18	4.692147E-19
4.730000E+03	5.706254E-18	4.700784E-19
4.740000E+03	5.748629E-18	4.709368E-19
4.750000E+03	5.791102E-18	4.717794E-19
4.760000E+03	5.833723E-18	4.726045E-19
4.770000E+03	5.876490E-18	4.734065E-19
4.780000E+03	5.919349E-18	4.741761E-19
4.790000E+03	5.962357E-18	4.749137E-19
4.800000E+03	6.005459E-18	4.756118E-19
4.810000E+03	6.048716E-18	4.762729E-19
4.820000E+03	6.092075E-18	4.768919E-19
4.830000E+03	6.135542E-18	4.774695E-19
4.840000E+03	6.179120E-18	4.780079E-19
4.850000E+03	6.222874E-18	4.785151E-19
4.860000E+03	6.266750E-18	4.789918E-19
4.870000E+03	6.310753E-18	4.794444E-19
4.880000E+03	6.354828E-18	4.798759E-19
4.890000E+03	6.399095E-18	4.803036E-19
4.900000E+03	6.443496E-18	4.807316E-19
4.910000E+03	6.488031E-18	4.811686E-19
4.920000E+03	6.532635E-18	4.816180E-19
4.930000E+03	6.577363E-18	4.820917E-19
4.940000E+03	6.622148E-18	4.825911E-19
4.950000E+03	6.666980E-18	4.831208E-19
4.960000E+03	6.711913E-18	4.836883E-19
4.970000E+03	6.756873E-18	4.842907E-19
4.980000E+03	6.801848E-18	4.849281E-19
4.990000E+03	6.846759E-18	4.855947E-19
5.000000E+03	6.891658E-18	4.862928E-19
5.010000E+03	6.936526E-18	4.870189E-19
5.020000E+03	6.981278E-18	4.877639E-19
5.030000E+03	7.025892E-18	4.885224E-19
5.040000E+03	7.070345E-18	4.892886E-19
5.050000E+03	7.114541E-18	4.900517E-19
5.060000E+03	7.158522E-18	4.908104E-19
5.070000E+03	7.202262E-18	4.915595E-19
5.080000E+03	7.245594E-18	4.922846E-19
5.090000E+03	7.288560E-18	4.929868E-19
5.100000E+03	7.331135E-18	4.936633E-19
5.110000E+03	7.373224E-18	4.943074E-19
5.120000E+03	7.414807E-18	4.949183E-19
5.130000E+03	7.455861E-18	4.954964E-19
5.140000E+03	7.496370E-18	4.960429E-19
5.150000E+03	7.536242E-18	4.965557E-19
5.160000E+03	7.575533E-18	4.970440E-19
5.170000E+03	7.614074E-18	4.975048E-19
5.180000E+03	7.651917E-18	4.979524E-19
5.190000E+03	7.688961E-18	4.983944E-19
5.200000E+03	7.725174E-18	4.988466E-19
5.210000E+03	7.760520E-18	4.993279E-19
5.220000E+03	7.794956E-18	4.998596E-19
5.230000E+03	7.828280E-18	5.004553E-19
5.240000E+03	7.860590E-18	5.011491E-19
5.250000E+03	7.891745E-18	5.019604E-19
5.260000E+03	7.921675E-18	5.029130E-19
5.270000E+03	7.950229E-18	5.040248E-19
5.280000E+03	7.977325E-18	5.053170E-19
5.290000E+03	8.002883E-18	5.068095E-19
5.300000E+03	8.026822E-18	5.085207E-19
5.310000E+03	8.049064E-18	5.104679E-19
5.320000E+03	8.069457E-18	5.126621E-19
5.330000E+03	8.088093E-18	5.151279E-19
5.340000E+03	8.104755E-18	5.178685E-19
5.350000E+03	8.119392E-18	5.208954E-19
5.360000E+03	8.132122E-18	5.242288E-19
5.370000E+03	8.142752E-18	5.278659E-19
5.380000E+03	8.151418E-18	5.318225E-19
5.390000E+03	8.158019E-18	5.360960E-19
5.400000E+03	8.162626E-18	5.406916E-19
5.410000E+03	8.165155E-18	5.456012E-19
5.420000E+03	8.165772E-18	5.508304E-19
5.430000E+03	8.164408E-18	5.563660E-19
5.440000E+03	8.161164E-18	5.622038E-19
5.450000E+03	8.155907E-18	5.683207E-19
5.460000E+03	8.148755E-18	5.747085E-19
5.470000E+03	8.139671E-18	5.813456E-19
5.480000E+03	8.128628E-18	5.882083E-19
5.490000E+03	8.115767E-18	5.952827E-19
5.500000E+03	8.100994E-18	6.025356E-19
5.510000E+03	8.084303E-18	6.099378E-19
5.520000E+03	8.065772E-18	6.174652E-19
5.530000E+03	8.045326E-18	6.250810E-19
5.540000E+03	8.023134E-18	6.327665E-19
5.550000E+03	7.999045E-18	6.404780E-19
5.560000E+03	7.973314E-18	6.482040E-19
5.570000E+03	7.945956E-18	6.559146E-19
5.580000E+03	7.916983E-18	6.635801E-19
5.590000E+03	7.886490E-18	6.711786E-19
5.600000E+03	7.854570E-18	6.786894E-19
5.610000E+03	7.821231E-18	6.860864E-19
5.620000E+03	7.786721E-18	6.933662E-19
5.630000E+03	7.750961E-18	7.004994E-19
5.640000E+03	7.714190E-18	7.074872E-19
5.650000E+03	7.676324E-18	7.143047E-19
5.660000E+03	7.637592E-18	7.209582E-19
5.670000E+03	7.598062E-18	7.274425E-19
5.680000E+03	7.557720E-18	7.337471E-19
5.690000E+03	7.516704E-18	7.398786E-19
5.700000E+03	7.475073E-18	7.458383E-19
5.710000E+03	7.432961E-18	7.516372E-19
5.720000E+03	7.390420E-18	7.572794E-19
5.730000E+03	7.347425E-18	7.627623E-19
5.740000E+03	7.304181E-18	7.681072E-19
5.750000E+03	7.260738E-18	7.733197E-19
5.760000E+03	7.217068E-18	7.783965E-19
5.770000E+03	7.173299E-18	7.833499E-19
5.780000E+03	7.129557E-18	7.881915E-19
5.790000E+03	7.085892E-18	7.929235E-19
5.800000E+03	7.042281E-18	7.975385E-19
5.810000E+03	6.998854E-18	8.020447E-19
5.820000E+03	6.955741E-18	8.064501E-19
5.830000E+03	6.912999E-18	8.107528E-19
5.840000E+03	6.870611E-18	8.149419E-19
5.850000E+03	6.828712E-18	8.190234E-19
5.860000E+03	6.787366E-18	8.229942E-19
5.870000E+03	6.746709E-18	8.268603E-19
5.880000E+03	6.706807E-18	8.306186E-19
5.890000E+03	6.667650E-18	8.342573E-19
5.900000E+03	6.629376E-18	8.377829E-19
5.910000E+03	6.591974E-18	8.411840E-19
5.920000E+03	6.555722E-18	8.444873E-19
5.930000E+03	6.520457E-18	8.476637E-19
5.940000E+03	6.486302E-18	8.507223E-19
5.950000E+03	6.453376E-18	8.536733E-19
5.960000E+03	6.421648E-18	8.565082E-19
5.970000E+03	6.391156E-18	8.592286E-19
5.980000E+03	6.362005E-18	8.618465E-19
5.990000E+03	6.334150E-18	8.643548E-19
6.000000E+03	6.307690E-18	8.667665E-19
6.010000E+03	6.282498E-18	8.690651E-19
6.020000E+03	6.258740E-18	8.712743E-19
6.030000E+03	6.236283E-18	8.733777E-19
6.040000E+03	6.215285E-18	8.753998E-19
6.050000E+03	6.195535E-18	8.773141E-19
6.060000E+03	6.177185E-18	8.791451E-19
6.070000E+03	6.160167E-18	8.808868E-19
6.080000E+03	6.144480E-18	8.825433E-19
6.090000E+03	6.129977E-18	8.840976E-19
6.100000E+03	6.116802E-18	8.855745E-19
6.110000E+03	6.104728E-18	8.869459E-19
6.120000E+03	6.093895E-18	8.882367E-19
6.130000E+03	6.084072E-18	8.894178E-19
6.140000E+03	6.075244E-18	8.904921E-19
6.150000E+03	6.067325E-18	8.914511E-19
6.160000E+03	6.060296E-18	8.922972E-19
6.170000E+03	6.053912E-18	8.929990E-19
6.180000E+03	6.048151E-18	8.935579E-19
6.190000E+03	6.042911E-18	8.939638E-19
6.200000E+03	6.038164E-18	8.942173E-19
6.210000E+03	6.033881E-18	8.943189E-19
6.220000E+03	6.030184E-18	8.942919E-19
6.230000E+03	6.027276E-18	8.941714E-19
6.240000E+03	6.025208E-18	8.939700E-19
6.250000E+03	6.024109E-18	8.937119E-19
6.260000E+03	6.024113E-18	8.934220E-19
6.270000E+03	6.025278E-18	8.931135E-19
6.280000E+03	6.027744E-18	8.928117E-19
6.290000E+03	6.031574E-18	8.925306E-19
6.300000E+03	6.036835E-18	8.922841E-19
6.310000E+03	6.043678E-18	8.920986E-19
6.320000E+03	6.052095E-18	8.919763E-19
6.330000E+03	6.062245E-18	8.919442E-19
6.340000E+03	6.074041E-18	8.919925E-19
6.350000E+03	6.087566E-18	8.921361E-19
6.360000E+03	6.102817E-18	8.923774E-19
6.370000E+03	6.119884E-18	8.927315E-19
6.380000E+03	6.138682E-18	8.931882E-19
6.390000E+03	6.159216E-18	8.937500E-19
6.400000E+03	6.181400E-18	8.944063E-19
6.410000E+03	6.205058E-18	8.951329E-19
6.420000E+03	6.230097E-18	8.959184E-19
6.430000E+03	6.256514E-18	8.967636E-19
6.440000E+03	6.284306E-18	8.976697E-19
6.450000E+03	6.313471E-18	8.986377E-19
6.460000E+03	6.344102E-18	8.996818E-19
6.470000E+03	6.376297E-18	9.008169E-19
6.480000E+03	6.410063E-18	9.020443E-19
6.490000E+03	6.445307E-18	9.033517E-19
6.500000E+03	6.482234E-18	9.047677E-19
6.510000E+03	6.520854E-18	9.062941E-19
6.520000E+03	6.561080E-18	9.079181E-19
6.530000E+03	6.603024E-18	9.096552E-19
6.540000E+03	6.646700E-18	9.115069E-19
6.550000E+03	6.692019E-18	9.134601E-19
6.560000E+03	6.738993E-18	9.155160E-19
6.570000E+03	6.787852E-18	9.177047E-19
6.580000E+03	6.838290E-18	9.199838E-19
6.590000E+03	6.890538E-18	9.223834E-19
6.600000E+03	6.944616E-18	9.249050E-19
6.610000E+03	7.000318E-18	9.275194E-19
6.620000E+03	7.057885E-18	9.302575E-19
6.630000E+03	7.117106E-18	9.330897E-19
6.640000E+03	7.178231E-18	9.360473E-19
6.650000E+03	7.241041E-18	9.391001E-19
6.660000E+03	7.305673E-18	9.422638E-19
6.670000E+03	7.372146E-18	9.455391E-19
6.680000E+03	7.440354E-18	9.489104E-19
6.690000E+03	7.510312E-18	9.523777E-19
6.700000E+03	7.582166E-18	9.559573E-19
6.710000E+03	7.655805E-18	9.596332E-19
6.720000E+03	7.731249E-18	9.634054E-19
6.730000E+03	7.808514E-18	9.672739E-19
6.740000E+03	7.887620E-18	9.712386E-19
6.750000E+03	7.968587E-18	9.752995E-19
6.760000E+03	8.051435E-18	9.794564E-19
6.770000E+03	8.136041E-18	9.836920E-19
6.780000E+03	8.222568E-18	9.880229E-19
6.790000E+03	8.311037E-18	9.924490E-19
6.800000E+03	8.401320E-18	9.969521E-19
6.810000E+03	8.493587E-18	1.001549E-18
6.820000E+03	8.587707E-18	1.006222E-18
6.830000E+03	8.683695E-18	1.010968E-18
6.840000E+03	8.781571E-18	1.015788E-18
6.850000E+03	8.881351E-18	1.020680E-18
6.860000E+03	8.983219E-18	1.025662E-18
6.870000E+03	9.086865E-18	1.030695E-18
6.880000E+03	9.192471E-18	1.035795E-18
6.890000E+03	9.300057E-18	1.040964E-18
6.900000E+03	9.409466E-18	1.046178E-18
6.910000E+03	9.520889E-18	1.051457E-18
6.920000E+03	9.634345E-18	1.056800E-18
6.930000E+03	9.749670E-18	1.062184E-18
6.940000E+03	9.866875E-18	1.067609E-18
6.950000E+03	9.986160E-18	1.073094E-18
6.960000E+03	1.010735E-17	1.078616E-18
6.970000E+03	1.023046E-17	1.084174E-18
6.980000E+03	1.035549E-17	1.089766E-18
6.990000E+03	1.048245E-17	1.095391E-18
7.000000E+03	1.061115E-17	1.101025E-18
7.010000E+03	1.074199E-17	1.106709E-18
7.020000E+03	1.087457E-17	1.112398E-18
7.030000E+03	1.100911E-17	1.118113E-18
7.040000E+03	1.114538E-17	1.123829E-18
7.050000E+03	1.128339E-17	1.129544E-18
7.060000E+03	1.142335E-17	1.135278E-18
7.070000E+03	1.156503E-17	1.141006E-18
7.080000E+03	1.170820E-17	1.146702E-18
7.090000E+03	1.185331E-17	1.152410E-18
7.100000E+03	1.200012E-17	1.158103E-18
7.110000E+03	1.214837E-17	1.163756E-18
7.120000E+03	1.229830E-17	1.169387E-18
7.130000E+03	1.244962E-17	1.174970E-18
7.140000E+03	1.260258E-17	1.180526E-18
7.150000E+03	1.275690E-17	1.186026E-18
7.160000E+03	1.291282E-17	1.191490E-18
7.170000E+03	1.306978E-17	1.196867E-18
7.180000E+03	1.322801E-17	1.202177E-18
7.190000E+03	1.338775E-17	1.207442E-18
7.200000E+03	1.354843E-17	1.212608E-18
7.210000E+03	1.371000E-17	1.217672E-18
7.220000E+03	1.387270E-17	1.222657E-18
7.230000E+03	1.403649E-17	1.227562E-18
7.240000E+03	1.420104E-17	1.232360E-18
7.250000E+03	1.436659E-17	1.237077E-18
7.260000E+03	1.453280E-17	1.241686E-18
7.270000E+03	1.469959E-17	1.246189E-18
7.280000E+03	1.486722E-17	1.250617E-18
7.290000E+03	1.503531E-17	1.254945E-18
7.300000E+03	1.520412E-17	1.259206E-18
7.310000E+03	1.537324E-17	1.263380E-18
7.320000E+03	1.554259E-17	1.267475E-18
7.330000E+03	1.571277E-17	1.271556E-18
7.340000E+03	1.588304E-17	1.275581E-18
7.350000E+03	1.605400E-17	1.279619E-18
7.360000E+03	1.622525E-17	1.283659E-18
7.370000E+03	1.639708E-17	1.287749E-18
7.380000E+03	1.656982E-17	1.291940E-18
7.390000E+03	1.674305E-17	1.296229E-18
7.400000E+03	1.691751E-17	1.300701E-18
7.410000E+03	1.709318E-17	1.305386E-18
7.420000E+03	1.727047E-17	1.310348E-18
7.430000E+03	1.744939E-17	1.315622E-18
7.440000E+03	1.762998E-17	1.321244E-18
7.450000E+03	1.781267E-17	1.327283E-18
7.460000E+03	1.799668E-17	1.333715E-18
7.470000E+03	1.818203E-17	1.340574E-18
7.480000E+03	1.836833E-17	1.347862E-18
7.490000E+03	1.855602E-17	1.355634E-18
7.500000E+03	1.874470E-17	1.363878E-18
7.510000E+03	1.893394E-17	1.372567E-18
7.520000E+03	1.912375E-17	1.381690E-18
7.530000E+03	1.931416E-17	1.391220E-18
7.540000E+03	1.950471E-17	1.401081E-18
7.550000E+03	1.969590E-17	1.411254E-18
7.560000E+03	1.988681E-17	1.421610E-18
7.570000E+03	2.007840E-17	1.432150E-18
7.580000E+03	2.027022E-17	1.442771E-18
7.590000E+03	2.046229E-17	1.453406E-18
7.600000E+03	2.065412E-17	1.463951E-18
7.610000E+03	2.084620E-17	1.474381E-18
7.620000E+03	2.103850E-17	1.484640E-18
7.630000E+03	2.123099E-17	1.494684E-18
7.640000E+03	2.142309E-17	1.504439E-18
7.650000E+03	2.161523E-17	1.513913E-18
7.660000E+03	2.180676E-17	1.523050E-18
7.670000E+03	2.199865E-17	1.531918E-18
7.680000E+03	2.218910E-17	1.540398E-18
7.690000E+03	2.237960E-17	1.548607E-18
7.700000E+03	2.256942E-17	1.556515E-18
7.710000E+03	2.275780E-17	1.564090E-18
7.720000E+03	2.294510E-17	1.571384E-18
7.730000E+03	2.313109E-17	1.578408E-18
7.740000E+03	2.331555E-17	1.585173E-18
7.750000E+03	2.349825E-17	1.591690E-18
7.760000E+03	2.367953E-17	1.598012E-18
