#wls	flux	fluxerr
1.600000E+03	2.340472E-16	2.301103E-16
1.640000E+03	2.411124E-16	2.331662E-16
1.680000E+03	2.481260E-16	2.358522E-16
1.720000E+03	2.551327E-16	2.382046E-16
1.760000E+03	2.620519E-16	2.401418E-16
1.800000E+03	2.688431E-16	2.416243E-16
1.840000E+03	2.754817E-16	2.426300E-16
1.880000E+03	2.818893E-16	2.430924E-16
1.920000E+03	2.880041E-16	2.429660E-16
1.960000E+03	2.937579E-16	2.422054E-16
2.000000E+03	2.990346E-16	2.407331E-16
2.040000E+03	3.037802E-16	2.385308E-16
2.080000E+03	3.078357E-16	2.355057E-16
2.120000E+03	3.110513E-16	2.315871E-16
2.160000E+03	3.133091E-16	2.267411E-16
2.200000E+03	3.144503E-16	2.209181E-16
2.240000E+03	3.142902E-16	2.140667E-16
2.280000E+03	3.128132E-16	2.062656E-16
2.320000E+03	3.099879E-16	1.975881E-16
2.360000E+03	3.059240E-16	1.881993E-16
2.400000E+03	3.007416E-16	1.782635E-16
2.440000E+03	2.945541E-16	1.679322E-16
2.480000E+03	2.874803E-16	1.573512E-16
2.520000E+03	2.795836E-16	1.466274E-16
2.560000E+03	2.709739E-16	1.358862E-16
2.600000E+03	2.617041E-16	1.252156E-16
2.640000E+03	2.518447E-16	1.147069E-16
2.680000E+03	2.414551E-16	1.044394E-16
2.720000E+03	2.306135E-16	9.449385E-17
2.760000E+03	2.193913E-16	8.493971E-17
2.800000E+03	2.078650E-16	7.584012E-17
2.840000E+03	1.961326E-16	6.725659E-17
2.880000E+03	1.842906E-16	5.923880E-17
2.920000E+03	1.724510E-16	5.182993E-17
2.960000E+03	1.607274E-16	4.506104E-17
3.000000E+03	1.492300E-16	3.894968E-17
3.010000E+03	1.464024E-16	3.752508E-17
3.020000E+03	1.435973E-16	3.614185E-17
3.030000E+03	1.408155E-16	3.479971E-17
3.040000E+03	1.380611E-16	3.349912E-17
3.050000E+03	1.353320E-16	3.223893E-17
3.060000E+03	1.326291E-16	3.101882E-17
3.070000E+03	1.299591E-16	2.983965E-17
3.080000E+03	1.273172E-16	2.869966E-17
3.090000E+03	1.247096E-16	2.759954E-17
3.100000E+03	1.221345E-16	2.653813E-17
3.110000E+03	1.195929E-16	2.551489E-17
3.120000E+03	1.170904E-16	2.453019E-17
3.130000E+03	1.146230E-16	2.358237E-17
3.140000E+03	1.121939E-16	2.267124E-17
3.150000E+03	1.098041E-16	2.179610E-17
3.160000E+03	1.074566E-16	2.095660E-17
3.170000E+03	1.051502E-16	2.015159E-17
3.180000E+03	1.028879E-16	1.938064E-17
3.190000E+03	1.006707E-16	1.864294E-17
3.200000E+03	9.849798E-17	1.793730E-17
3.210000E+03	9.637257E-17	1.726323E-17
3.220000E+03	9.429720E-17	1.662012E-17
3.230000E+03	9.226961E-17	1.600649E-17
3.240000E+03	9.029400E-17	1.542199E-17
3.250000E+03	8.836822E-17	1.486516E-17
3.260000E+03	8.649751E-17	1.433583E-17
3.270000E+03	8.467820E-17	1.383231E-17
3.280000E+03	8.291233E-17	1.335392E-17
3.290000E+03	8.120168E-17	1.289992E-17
3.300000E+03	7.954521E-17	1.246916E-17
3.310000E+03	7.794431E-17	1.206091E-17
3.320000E+03	7.639664E-17	1.167389E-17
3.330000E+03	7.490340E-17	1.130738E-17
3.340000E+03	7.346445E-17	1.096052E-17
3.350000E+03	7.207956E-17	1.063243E-17
3.360000E+03	7.074840E-17	1.032228E-17
3.370000E+03	6.946958E-17	1.002909E-17
3.380000E+03	6.824273E-17	9.752083E-18
3.390000E+03	6.706740E-17	9.490492E-18
3.400000E+03	6.594310E-17	9.243578E-18
3.410000E+03	6.486839E-17	9.010504E-18
3.420000E+03	6.384276E-17	8.790597E-18
3.430000E+03	6.286565E-17	8.583206E-18
3.440000E+03	6.193567E-17	8.387604E-18
3.450000E+03	6.105225E-17	8.203209E-18
3.460000E+03	6.021481E-17	8.029466E-18
3.470000E+03	5.942126E-17	7.865655E-18
3.480000E+03	5.867183E-17	7.711390E-18
3.490000E+03	5.796522E-17	7.566116E-18
3.500000E+03	5.730019E-17	7.429316E-18
3.510000E+03	5.667625E-17	7.300591E-18
3.520000E+03	5.609157E-17	7.179400E-18
3.530000E+03	5.554569E-17	7.065402E-18
3.540000E+03	5.503756E-17	6.958199E-18
3.550000E+03	5.456613E-17	6.857418E-18
3.560000E+03	5.413040E-17	6.762709E-18
3.570000E+03	5.372944E-17	6.673749E-18
3.580000E+03	5.336174E-17	6.590159E-18
3.590000E+03	5.302703E-17	6.511732E-18
3.600000E+03	5.272390E-17	6.438130E-18
3.610000E+03	5.245212E-17	6.369176E-18
3.620000E+03	5.220981E-17	6.304501E-18
3.630000E+03	5.199736E-17	6.244021E-18
3.640000E+03	5.181243E-17	6.187337E-18
3.650000E+03	5.165493E-17	6.134325E-18
3.660000E+03	5.152368E-17	6.084744E-18
3.670000E+03	5.141860E-17	6.038488E-18
3.680000E+03	5.133808E-17	5.995276E-18
3.690000E+03	5.128206E-17	5.955020E-18
3.700000E+03	5.124948E-17	5.917519E-18
3.710000E+03	5.124029E-17	5.882695E-18
3.720000E+03	5.125346E-17	5.850362E-18
3.730000E+03	5.128941E-17	5.820506E-18
3.740000E+03	5.134663E-17	5.792893E-18
3.750000E+03	5.142554E-17	5.767515E-18
3.760000E+03	5.152558E-17	5.744256E-18
3.770000E+03	5.164666E-17	5.723055E-18
3.780000E+03	5.178819E-17	5.703799E-18
3.790000E+03	5.195053E-17	5.686480E-18
3.800000E+03	5.213261E-17	5.670938E-18
3.810000E+03	5.233476E-17	5.657166E-18
3.820000E+03	5.255683E-17	5.645108E-18
3.830000E+03	5.279863E-17	5.634707E-18
3.840000E+03	5.306001E-17	5.625907E-18
3.850000E+03	5.334028E-17	5.618602E-18
3.860000E+03	5.364018E-17	5.612838E-18
3.870000E+03	5.395950E-17	5.608557E-18
3.880000E+03	5.429753E-17	5.605658E-18
3.890000E+03	5.465449E-17	5.604131E-18
3.900000E+03	5.503010E-17	5.603921E-18
3.910000E+03	5.542457E-17	5.605017E-18
3.920000E+03	5.583710E-17	5.607310E-18
3.930000E+03	5.626833E-17	5.610831E-18
3.940000E+03	5.671743E-17	5.615465E-18
3.950000E+03	5.718498E-17	5.621234E-18
3.960000E+03	5.767012E-17	5.628013E-18
3.970000E+03	5.817241E-17	5.635719E-18
3.980000E+03	5.869237E-17	5.644360E-18
3.990000E+03	5.922902E-17	5.653795E-18
4.000000E+03	5.978235E-17	5.663976E-18
4.010000E+03	6.035181E-17	5.674803E-18
4.020000E+03	6.093730E-17	5.686223E-18
4.030000E+03	6.153822E-17	5.698133E-18
4.040000E+03	6.215392E-17	5.710432E-18
4.050000E+03	6.278421E-17	5.723064E-18
4.060000E+03	6.342891E-17	5.735977E-18
4.070000E+03	6.408620E-17	5.748977E-18
4.080000E+03	6.475686E-17	5.762110E-18
4.090000E+03	6.543897E-17	5.775186E-18
4.100000E+03	6.613270E-17	5.788207E-18
4.110000E+03	6.683655E-17	5.801036E-18
4.120000E+03	6.755006E-17	5.813632E-18
4.130000E+03	6.827215E-17	5.825913E-18
4.140000E+03	6.900166E-17	5.837795E-18
4.150000E+03	6.973738E-17	5.849202E-18
4.160000E+03	7.047799E-17	5.860063E-18
4.170000E+03	7.122270E-17	5.870358E-18
4.180000E+03	7.197006E-17	5.880028E-18
4.190000E+03	7.271791E-17	5.888973E-18
4.200000E+03	7.346461E-17	5.897151E-18
4.210000E+03	7.420841E-17	5.904531E-18
4.220000E+03	7.494810E-17	5.911140E-18
4.230000E+03	7.568115E-17	5.916926E-18
4.240000E+03	7.640554E-17	5.921900E-18
4.250000E+03	7.711856E-17	5.926040E-18
4.260000E+03	7.781867E-17	5.929441E-18
4.270000E+03	7.850298E-17	5.932121E-18
4.280000E+03	7.916919E-17	5.934162E-18
4.290000E+03	7.981495E-17	5.935671E-18
4.300000E+03	8.043656E-17	5.936670E-18
4.310000E+03	8.103294E-17	5.937395E-18
4.320000E+03	8.160037E-17	5.937894E-18
4.330000E+03	8.213651E-17	5.938321E-18
4.340000E+03	8.263837E-17	5.938779E-18
4.350000E+03	8.310519E-17	5.939511E-18
4.360000E+03	8.353288E-17	5.940493E-18
4.370000E+03	8.392104E-17	5.941923E-18
4.380000E+03	8.426812E-17	5.943865E-18
4.390000E+03	8.457363E-17	5.946385E-18
4.400000E+03	8.483857E-17	5.949515E-18
4.410000E+03	8.506399E-17	5.953155E-18
4.420000E+03	8.525277E-17	5.957259E-18
4.430000E+03	8.540519E-17	5.961548E-18
4.440000E+03	8.552470E-17	5.965919E-18
4.450000E+03	8.561278E-17	5.970105E-18
4.460000E+03	8.567180E-17	5.973886E-18
4.470000E+03	8.570575E-17	5.977151E-18
4.480000E+03	8.571503E-17	5.979546E-18
4.490000E+03	8.570453E-17	5.981048E-18
4.500000E+03	8.567471E-17	5.981347E-18
4.510000E+03	8.562976E-17	5.980425E-18
4.520000E+03	8.557161E-17	5.978138E-18
4.530000E+03	8.550289E-17	5.974430E-18
4.540000E+03	8.542621E-17	5.969277E-18
4.550000E+03	8.534255E-17	5.962584E-18
4.560000E+03	8.525587E-17	5.954500E-18
4.570000E+03	8.516700E-17	5.944991E-18
4.580000E+03	8.507818E-17	5.934160E-18
4.590000E+03	8.499157E-17	5.922132E-18
4.600000E+03	8.490920E-17	5.909056E-18
4.610000E+03	8.483226E-17	5.895044E-18
4.620000E+03	8.476180E-17	5.880221E-18
4.630000E+03	8.469956E-17	5.864778E-18
4.640000E+03	8.464717E-17	5.848913E-18
4.650000E+03	8.460618E-17	5.832828E-18
4.660000E+03	8.457649E-17	5.816616E-18
4.670000E+03	8.456026E-17	5.800533E-18
4.680000E+03	8.455802E-17	5.784722E-18
4.690000E+03	8.457020E-17	5.769317E-18
4.700000E+03	8.459799E-17	5.754497E-18
4.710000E+03	8.464171E-17	5.740375E-18
4.720000E+03	8.470163E-17	5.727047E-18
4.730000E+03	8.477795E-17	5.714590E-18
4.740000E+03	8.487079E-17	5.703046E-18
4.750000E+03	8.498021E-17	5.692440E-18
4.760000E+03	8.510620E-17	5.682782E-18
4.770000E+03	8.524873E-17	5.674062E-18
4.780000E+03	8.540685E-17	5.666209E-18
4.790000E+03	8.558119E-17	5.659244E-18
4.800000E+03	8.576984E-17	5.653023E-18
4.810000E+03	8.597413E-17	5.647610E-18
4.820000E+03	8.619198E-17	5.642850E-18
4.830000E+03	8.642377E-17	5.638749E-18
4.840000E+03	8.666894E-17	5.635259E-18
4.850000E+03	8.692522E-17	5.632226E-18
4.860000E+03	8.719365E-17	5.629716E-18
4.870000E+03	8.747270E-17	5.627635E-18
4.880000E+03	8.776251E-17	5.626002E-18
4.890000E+03	8.805976E-17	5.624620E-18
4.900000E+03	8.836628E-17	5.623625E-18
4.910000E+03	8.867958E-17	5.622876E-18
4.920000E+03	8.899976E-17	5.622401E-18
4.930000E+03	8.932518E-17	5.622108E-18
4.940000E+03	8.965596E-17	5.622017E-18
4.950000E+03	8.998957E-17	5.621969E-18
4.960000E+03	9.032614E-17	5.621967E-18
4.970000E+03	9.066587E-17	5.622001E-18
4.980000E+03	9.100626E-17	5.621886E-18
4.990000E+03	9.134662E-17	5.621537E-18
5.000000E+03	9.168722E-17	5.620914E-18
5.010000E+03	9.202743E-17	5.619914E-18
5.020000E+03	9.236482E-17	5.618310E-18
5.030000E+03	9.269970E-17	5.616041E-18
5.040000E+03	9.303151E-17	5.612985E-18
5.050000E+03	9.335966E-17	5.609016E-18
5.060000E+03	9.368263E-17	5.603957E-18
5.070000E+03	9.399981E-17	5.597689E-18
5.080000E+03	9.431152E-17	5.590156E-18
5.090000E+03	9.461521E-17	5.581142E-18
5.100000E+03	9.491112E-17	5.570608E-18
5.110000E+03	9.519757E-17	5.558412E-18
5.120000E+03	9.547376E-17	5.544481E-18
5.130000E+03	9.573883E-17	5.528751E-18
5.140000E+03	9.599185E-17	5.511173E-18
5.150000E+03	9.623089E-17	5.491659E-18
5.160000E+03	9.645582E-17	5.470246E-18
5.170000E+03	9.666356E-17	5.446825E-18
5.180000E+03	9.685382E-17	5.421473E-18
5.190000E+03	9.702429E-17	5.394177E-18
5.200000E+03	9.717354E-17	5.364999E-18
5.210000E+03	9.730004E-17	5.334020E-18
5.220000E+03	9.740216E-17	5.301342E-18
5.230000E+03	9.747629E-17	5.266978E-18
5.240000E+03	9.752257E-17	5.231169E-18
5.250000E+03	9.753628E-17	5.193908E-18
5.260000E+03	9.751747E-17	5.155462E-18
5.270000E+03	9.746232E-17	5.115896E-18
5.280000E+03	9.736990E-17	5.075439E-18
5.290000E+03	9.723739E-17	5.034216E-18
5.300000E+03	9.706201E-17	4.992350E-18
5.310000E+03	9.684304E-17	4.950060E-18
5.320000E+03	9.657701E-17	4.907403E-18
5.330000E+03	9.626353E-17	4.864575E-18
5.340000E+03	9.590050E-17	4.821660E-18
5.350000E+03	9.548613E-17	4.778730E-18
5.360000E+03	9.501990E-17	4.735897E-18
5.370000E+03	9.450168E-17	4.693261E-18
5.380000E+03	9.393174E-17	4.650918E-18
5.390000E+03	9.330893E-17	4.608868E-18
5.400000E+03	9.263541E-17	4.567251E-18
5.410000E+03	9.191200E-17	4.526114E-18
5.420000E+03	9.114189E-17	4.485599E-18
5.430000E+03	9.032605E-17	4.445712E-18
5.440000E+03	8.947051E-17	4.406682E-18
5.450000E+03	8.857990E-17	4.368643E-18
5.460000E+03	8.766367E-17	4.331940E-18
5.470000E+03	8.672452E-17	4.296554E-18
5.480000E+03	8.576126E-17	4.262247E-18
5.490000E+03	8.477496E-17	4.228859E-18
5.500000E+03	8.376958E-17	4.196320E-18
5.510000E+03	8.275242E-17	4.164647E-18
5.520000E+03	8.172671E-17	4.133628E-18
5.530000E+03	8.070073E-17	4.103311E-18
5.540000E+03	7.967866E-17	4.073551E-18
5.550000E+03	7.866711E-17	4.044347E-18
5.560000E+03	7.767253E-17	4.015725E-18
5.570000E+03	7.670119E-17	3.987741E-18
5.580000E+03	7.575758E-17	3.960401E-18
5.590000E+03	7.484748E-17	3.933824E-18
5.600000E+03	7.397629E-17	3.908153E-18
5.610000E+03	7.314824E-17	3.883516E-18
5.620000E+03	7.236712E-17	3.860057E-18
5.630000E+03	7.163766E-17	3.838007E-18
5.640000E+03	7.096182E-17	3.817480E-18
5.650000E+03	7.034239E-17	3.798664E-18
5.660000E+03	6.978083E-17	3.781695E-18
5.670000E+03	6.927869E-17	3.766731E-18
5.680000E+03	6.883617E-17	3.753868E-18
5.690000E+03	6.845291E-17	3.743179E-18
5.700000E+03	6.812875E-17	3.734750E-18
5.710000E+03	6.786307E-17	3.728644E-18
5.720000E+03	6.765349E-17	3.724820E-18
5.730000E+03	6.749877E-17	3.723293E-18
5.740000E+03	6.739680E-17	3.724019E-18
5.750000E+03	6.734536E-17	3.726937E-18
5.760000E+03	6.734369E-17	3.732047E-18
5.770000E+03	6.738823E-17	3.739173E-18
5.780000E+03	6.747839E-17	3.748284E-18
5.790000E+03	6.761162E-17	3.759212E-18
5.800000E+03	6.778696E-17	3.771855E-18
5.810000E+03	6.800296E-17	3.786049E-18
5.820000E+03	6.825835E-17	3.801617E-18
5.830000E+03	6.855278E-17	3.818400E-18
5.840000E+03	6.888460E-17	3.836143E-18
5.850000E+03	6.925377E-17	3.854655E-18
5.860000E+03	6.965968E-17	3.873689E-18
5.870000E+03	7.010102E-17	3.892943E-18
5.880000E+03	7.057890E-17	3.912234E-18
5.890000E+03	7.109138E-17	3.931204E-18
5.900000E+03	7.163969E-17	3.949667E-18
5.910000E+03	7.222275E-17	3.967311E-18
5.920000E+03	7.284020E-17	3.983880E-18
5.930000E+03	7.349251E-17	3.999175E-18
5.940000E+03	7.417759E-17	4.012888E-18
5.950000E+03	7.489577E-17	4.024868E-18
5.960000E+03	7.564730E-17	4.034998E-18
5.970000E+03	7.642979E-17	4.043061E-18
5.980000E+03	7.724332E-17	4.049015E-18
5.990000E+03	7.808702E-17	4.052816E-18
6.000000E+03	7.895905E-17	4.054420E-18
6.010000E+03	7.985837E-17	4.053875E-18
6.020000E+03	8.078386E-17	4.051276E-18
6.030000E+03	8.173340E-17	4.046725E-18
6.040000E+03	8.270572E-17	4.040421E-18
6.050000E+03	8.370050E-17	4.032668E-18
6.060000E+03	8.471343E-17	4.023645E-18
6.070000E+03	8.574502E-17	4.013832E-18
6.080000E+03	8.679070E-17	4.003551E-18
6.090000E+03	8.785084E-17	3.993442E-18
6.100000E+03	8.892058E-17	3.983997E-18
6.110000E+03	8.999902E-17	3.975991E-18
6.120000E+03	9.108194E-17	3.970143E-18
6.130000E+03	9.216818E-17	3.967396E-18
6.140000E+03	9.325314E-17	3.968604E-18
6.150000E+03	9.433308E-17	3.974691E-18
6.160000E+03	9.540641E-17	3.986655E-18
6.170000E+03	9.646799E-17	4.005261E-18
6.180000E+03	9.751610E-17	4.031275E-18
6.190000E+03	9.854792E-17	4.065203E-18
6.200000E+03	9.956121E-17	4.107202E-18
6.210000E+03	1.005548E-16	4.157009E-18
6.220000E+03	1.015303E-16	4.214190E-18
6.230000E+03	1.024869E-16	4.277996E-18
6.240000E+03	1.034254E-16	4.347576E-18
6.250000E+03	1.043466E-16	4.421991E-18
6.260000E+03	1.052542E-16	4.500391E-18
6.270000E+03	1.061465E-16	4.581710E-18
6.280000E+03	1.070247E-16	4.665053E-18
6.290000E+03	1.078914E-16	4.749668E-18
6.300000E+03	1.087481E-16	4.834839E-18
6.310000E+03	1.095944E-16	4.919892E-18
6.320000E+03	1.104305E-16	5.004251E-18
6.330000E+03	1.112591E-16	5.087576E-18
6.340000E+03	1.120786E-16	5.169416E-18
6.350000E+03	1.128903E-16	5.249543E-18
6.360000E+03	1.136941E-16	5.327733E-18
6.370000E+03	1.144897E-16	5.403824E-18
6.380000E+03	1.152766E-16	5.477706E-18
6.390000E+03	1.160545E-16	5.549315E-18
6.400000E+03	1.168226E-16	5.618618E-18
6.410000E+03	1.175787E-16	5.685529E-18
6.420000E+03	1.183236E-16	5.750141E-18
6.430000E+03	1.190565E-16	5.812484E-18
6.440000E+03	1.197781E-16	5.872686E-18
6.450000E+03	1.204893E-16	5.930892E-18
6.460000E+03	1.211874E-16	5.987082E-18
6.470000E+03	1.218752E-16	6.041510E-18
6.480000E+03	1.225518E-16	6.094262E-18
6.490000E+03	1.232184E-16	6.145517E-18
6.500000E+03	1.238724E-16	6.195270E-18
6.510000E+03	1.245172E-16	6.243793E-18
6.520000E+03	1.251502E-16	6.291068E-18
6.530000E+03	1.257733E-16	6.337255E-18
6.540000E+03	1.263840E-16	6.382309E-18
6.550000E+03	1.269844E-16	6.426369E-18
6.560000E+03	1.275763E-16	6.469565E-18
6.570000E+03	1.281558E-16	6.511712E-18
6.580000E+03	1.287251E-16	6.552921E-18
6.590000E+03	1.292864E-16	6.593302E-18
6.600000E+03	1.298358E-16	6.632644E-18
6.610000E+03	1.303778E-16	6.671160E-18
6.620000E+03	1.309083E-16	6.708633E-18
6.630000E+03	1.314319E-16	6.745286E-18
6.640000E+03	1.319444E-16	6.780907E-18
6.650000E+03	1.324481E-16	6.815624E-18
6.660000E+03	1.329429E-16	6.849465E-18
6.670000E+03	1.334266E-16	6.882348E-18
6.680000E+03	1.339011E-16	6.914430E-18
6.690000E+03	1.343641E-16	6.945643E-18
6.700000E+03	1.348152E-16	6.976034E-18
6.710000E+03	1.352564E-16	7.005775E-18
6.720000E+03	1.356850E-16	7.034792E-18
6.730000E+03	1.360983E-16	7.062997E-18
6.740000E+03	1.365008E-16	7.090655E-18
6.750000E+03	1.368872E-16	7.117521E-18
6.760000E+03	1.372597E-16	7.143695E-18
6.770000E+03	1.376180E-16	7.169123E-18
6.780000E+03	1.379591E-16	7.193592E-18
6.790000E+03	1.382829E-16	7.216982E-18
6.800000E+03	1.385889E-16	7.239137E-18
6.810000E+03	1.388793E-16	7.260005E-18
6.820000E+03	1.391512E-16	7.279241E-18
6.830000E+03	1.394017E-16	7.296480E-18
6.840000E+03	1.396329E-16	7.311606E-18
6.850000E+03	1.398446E-16	7.324372E-18
6.860000E+03	1.400363E-16	7.334537E-18
6.870000E+03	1.402052E-16	7.341747E-18
6.880000E+03	1.403510E-16	7.345811E-18
6.890000E+03	1.404760E-16	7.346720E-18
6.900000E+03	1.405774E-16	7.344235E-18
6.910000E+03	1.406549E-16	7.338308E-18
6.920000E+03	1.407084E-16	7.328942E-18
6.930000E+03	1.407376E-16	7.316190E-18
6.940000E+03	1.407425E-16	7.300149E-18
6.950000E+03	1.407229E-16	7.280957E-18
6.960000E+03	1.406760E-16	7.258639E-18
6.970000E+03	1.406018E-16	7.233388E-18
6.980000E+03	1.405029E-16	7.205552E-18
6.990000E+03	1.403795E-16	7.175351E-18
7.000000E+03	1.402261E-16	7.142736E-18
7.010000E+03	1.400485E-16	7.108219E-18
7.020000E+03	1.398441E-16	7.071897E-18
7.030000E+03	1.396134E-16	7.034002E-18
7.040000E+03	1.393539E-16	6.994622E-18
7.050000E+03	1.390690E-16	6.954113E-18
7.060000E+03	1.387592E-16	6.912676E-18
7.070000E+03	1.384251E-16	6.870493E-18
7.080000E+03	1.380646E-16	6.827580E-18
7.090000E+03	1.376784E-16	6.784065E-18
7.100000E+03	1.372701E-16	6.740170E-18
7.110000E+03	1.368377E-16	6.695811E-18
7.120000E+03	1.363795E-16	6.650859E-18
7.130000E+03	1.359019E-16	6.605553E-18
7.140000E+03	1.354034E-16	6.559683E-18
7.150000E+03	1.348850E-16	6.513138E-18
7.160000E+03	1.343454E-16	6.465643E-18
7.170000E+03	1.337888E-16	6.417157E-18
7.180000E+03	1.332166E-16	6.367481E-18
7.190000E+03	1.326279E-16	6.316270E-18
7.200000E+03	1.320243E-16	6.263293E-18
7.210000E+03	1.314105E-16	6.208437E-18
7.220000E+03	1.307855E-16	6.151328E-18
7.230000E+03	1.301514E-16	6.091718E-18
7.240000E+03	1.295101E-16	6.029367E-18
7.250000E+03	1.288634E-16	5.964048E-18
7.260000E+03	1.282105E-16	5.895435E-18
7.270000E+03	1.275584E-16	5.823605E-18
7.280000E+03	1.269060E-16	5.748308E-18
7.290000E+03	1.262494E-16	5.669235E-18
7.300000E+03	1.255979E-16	5.586742E-18
7.310000E+03	1.249446E-16	5.500542E-18
7.320000E+03	1.242958E-16	5.411022E-18
7.330000E+03	1.236498E-16	5.318303E-18
7.340000E+03	1.230074E-16	5.222712E-18
7.350000E+03	1.223667E-16	5.124566E-18
7.360000E+03	1.217285E-16	5.024393E-18
7.370000E+03	1.210938E-16	4.922830E-18
7.380000E+03	1.204633E-16	4.820624E-18
7.390000E+03	1.198331E-16	4.718438E-18
7.400000E+03	1.192068E-16	4.617374E-18
7.410000E+03	1.185807E-16	4.518370E-18
7.420000E+03	1.179538E-16	4.422606E-18
7.430000E+03	1.173252E-16	4.331407E-18
7.440000E+03	1.166996E-16	4.246407E-18
7.450000E+03	1.160786E-16	4.169231E-18
7.460000E+03	1.154696E-16	4.101721E-18
7.470000E+03	1.148795E-16	4.045670E-18
7.480000E+03	1.143076E-16	4.002462E-18
7.490000E+03	1.137581E-16	3.973408E-18
7.500000E+03	1.132377E-16	3.959537E-18
7.510000E+03	1.127424E-16	3.961049E-18
7.520000E+03	1.122781E-16	3.977787E-18
7.530000E+03	1.118451E-16	4.008648E-18
7.540000E+03	1.114434E-16	4.052080E-18
7.550000E+03	1.110726E-16	4.106219E-18
7.560000E+03	1.107324E-16	4.169027E-18
7.570000E+03	1.104246E-16	4.238510E-18
7.580000E+03	1.101460E-16	4.312547E-18
7.590000E+03	1.098982E-16	4.389358E-18
7.600000E+03	1.096778E-16	4.467172E-18
7.610000E+03	1.094860E-16	4.544667E-18
7.620000E+03	1.093219E-16	4.620681E-18
7.630000E+03	1.091816E-16	4.694208E-18
7.640000E+03	1.090664E-16	4.764706E-18
7.650000E+03	1.089752E-16	4.831757E-18
7.660000E+03	1.089039E-16	4.895033E-18
7.670000E+03	1.088539E-16	4.954603E-18
7.680000E+03	1.088214E-16	5.010452E-18
7.690000E+03	1.088101E-16	5.063032E-18
7.700000E+03	1.088137E-16	5.112407E-18
7.710000E+03	1.088336E-16	5.159061E-18
7.720000E+03	1.088658E-16	5.203275E-18
7.730000E+03	1.089119E-16	5.245599E-18
7.740000E+03	1.089706E-16	5.286464E-18
7.750000E+03	1.090407E-16	5.326292E-18
7.760000E+03	1.091185E-16	5.365351E-18
