#wls	flux	fluxerr
1.600000E+03	1.676541E-16	1.626729E-16
1.640000E+03	1.726020E-16	1.646874E-16
1.680000E+03	1.772375E-16	1.661873E-16
1.720000E+03	1.815253E-16	1.671508E-16
1.760000E+03	1.853555E-16	1.674916E-16
1.800000E+03	1.887201E-16	1.672231E-16
1.840000E+03	1.915051E-16	1.662676E-16
1.880000E+03	1.936815E-16	1.646294E-16
1.920000E+03	1.951863E-16	1.622880E-16
1.960000E+03	1.959279E-16	1.592061E-16
2.000000E+03	1.958837E-16	1.554097E-16
2.040000E+03	1.949912E-16	1.508971E-16
2.080000E+03	1.932007E-16	1.456830E-16
2.120000E+03	1.904775E-16	1.397992E-16
2.160000E+03	1.867814E-16	1.332779E-16
2.200000E+03	1.820542E-16	1.261437E-16
2.240000E+03	1.762475E-16	1.184349E-16
2.280000E+03	1.693931E-16	1.102469E-16
2.320000E+03	1.616318E-16	1.017429E-16
2.360000E+03	1.532019E-16	9.313416E-17
2.400000E+03	1.442939E-16	8.458405E-17
2.440000E+03	1.350801E-16	7.622898E-17
2.480000E+03	1.256854E-16	6.816456E-17
2.520000E+03	1.162399E-16	6.047730E-17
2.560000E+03	1.068486E-16	5.322908E-17
2.600000E+03	9.761871E-17	4.647253E-17
2.640000E+03	8.863620E-17	4.024002E-17
2.680000E+03	7.998029E-17	3.455224E-17
2.720000E+03	7.172136E-17	2.941812E-17
2.760000E+03	6.391296E-17	2.483276E-17
2.800000E+03	5.660044E-17	2.078257E-17
2.840000E+03	4.981732E-17	1.724514E-17
2.880000E+03	4.358872E-17	1.419181E-17
2.920000E+03	3.793032E-17	1.158861E-17
2.960000E+03	3.284549E-17	9.396681E-18
3.000000E+03	2.832608E-17	7.574052E-18
3.010000E+03	2.728235E-17	7.170958E-18
3.020000E+03	2.627175E-17	6.787371E-18
3.030000E+03	2.529481E-17	6.422862E-18
3.040000E+03	2.434968E-17	6.076403E-18
3.050000E+03	2.343677E-17	5.747559E-18
3.060000E+03	2.255532E-17	5.435606E-18
3.070000E+03	2.170503E-17	5.139948E-18
3.080000E+03	2.088421E-17	4.859679E-18
3.090000E+03	2.009344E-17	4.594440E-18
3.100000E+03	1.933107E-17	4.343371E-18
3.110000E+03	1.859713E-17	4.106014E-18
3.120000E+03	1.789080E-17	3.881731E-18
3.130000E+03	1.721094E-17	3.669836E-18
3.140000E+03	1.655746E-17	3.469885E-18
3.150000E+03	1.592924E-17	3.281231E-18
3.160000E+03	1.532582E-17	3.103382E-18
3.170000E+03	1.474643E-17	2.935797E-18
3.180000E+03	1.419031E-17	2.777958E-18
3.190000E+03	1.365697E-17	2.629414E-18
3.200000E+03	1.314567E-17	2.489679E-18
3.210000E+03	1.265546E-17	2.358244E-18
3.220000E+03	1.218609E-17	2.234749E-18
3.230000E+03	1.173663E-17	2.118722E-18
3.240000E+03	1.130661E-17	2.009790E-18
3.250000E+03	1.089535E-17	1.907555E-18
3.260000E+03	1.050203E-17	1.811609E-18
3.270000E+03	1.012633E-17	1.721649E-18
3.280000E+03	9.767316E-18	1.637276E-18
3.290000E+03	9.424670E-18	1.558212E-18
3.300000E+03	9.097774E-18	1.484139E-18
3.310000E+03	8.785760E-18	1.414714E-18
3.320000E+03	8.488325E-18	1.349695E-18
3.330000E+03	8.204891E-18	1.288812E-18
3.340000E+03	7.934785E-18	1.231789E-18
3.350000E+03	7.677479E-18	1.178384E-18
3.360000E+03	7.432458E-18	1.128371E-18
3.370000E+03	7.199223E-18	1.081535E-18
3.380000E+03	6.977290E-18	1.037673E-18
3.390000E+03	6.766189E-18	9.965954E-19
3.400000E+03	6.565382E-18	9.581103E-19
3.410000E+03	6.374359E-18	9.220402E-19
3.420000E+03	6.192875E-18	8.882539E-19
3.430000E+03	6.020296E-18	8.565718E-19
3.440000E+03	5.856327E-18	8.268710E-19
3.450000E+03	5.700540E-18	7.990157E-19
3.460000E+03	5.552593E-18	7.728894E-19
3.470000E+03	5.412032E-18	7.483659E-19
3.480000E+03	5.278497E-18	7.253375E-19
3.490000E+03	5.151706E-18	7.037130E-19
3.500000E+03	5.031276E-18	6.833915E-19
3.510000E+03	4.916958E-18	6.642953E-19
3.520000E+03	4.808304E-18	6.463236E-19
3.530000E+03	4.705105E-18	6.294119E-19
3.540000E+03	4.607015E-18	6.134805E-19
3.550000E+03	4.513760E-18	5.984627E-19
3.560000E+03	4.425084E-18	5.842971E-19
3.570000E+03	4.340660E-18	5.709152E-19
3.580000E+03	4.260359E-18	5.582774E-19
3.590000E+03	4.183928E-18	5.463296E-19
3.600000E+03	4.111132E-18	5.350223E-19
3.610000E+03	4.041871E-18	5.243249E-19
3.620000E+03	3.975894E-18	5.141889E-19
3.630000E+03	3.913041E-18	5.045790E-19
3.640000E+03	3.853161E-18	4.954625E-19
3.650000E+03	3.796112E-18	4.868088E-19
3.660000E+03	3.741757E-18	4.785890E-19
3.670000E+03	3.689968E-18	4.707766E-19
3.680000E+03	3.640655E-18	4.633503E-19
3.690000E+03	3.593731E-18	4.562903E-19
3.700000E+03	3.549078E-18	4.495738E-19
3.710000E+03	3.506709E-18	4.431948E-19
3.720000E+03	3.466478E-18	4.371283E-19
3.730000E+03	3.428365E-18	4.313655E-19
3.740000E+03	3.392292E-18	4.258908E-19
3.750000E+03	3.358207E-18	4.206927E-19
3.760000E+03	3.326118E-18	4.157674E-19
3.770000E+03	3.295889E-18	4.110937E-19
3.780000E+03	3.267526E-18	4.066686E-19
3.790000E+03	3.241005E-18	4.024858E-19
3.800000E+03	3.216223E-18	3.985294E-19
3.810000E+03	3.193183E-18	3.947971E-19
3.820000E+03	3.171861E-18	3.912837E-19
3.830000E+03	3.152182E-18	3.879779E-19
3.840000E+03	3.134098E-18	3.848718E-19
3.850000E+03	3.117635E-18	3.819673E-19
3.860000E+03	3.102695E-18	3.792512E-19
3.870000E+03	3.089282E-18	3.767226E-19
3.880000E+03	3.077348E-18	3.743748E-19
3.890000E+03	3.066871E-18	3.722045E-19
3.900000E+03	3.057831E-18	3.702083E-19
3.910000E+03	3.050158E-18	3.683774E-19
3.920000E+03	3.043833E-18	3.667089E-19
3.930000E+03	3.038861E-18	3.652028E-19
3.940000E+03	3.035198E-18	3.638538E-19
3.950000E+03	3.032804E-18	3.626563E-19
3.960000E+03	3.031660E-18	3.616078E-19
3.970000E+03	3.031727E-18	3.607032E-19
3.980000E+03	3.032989E-18	3.599401E-19
3.990000E+03	3.035431E-18	3.593162E-19
4.000000E+03	3.039038E-18	3.588293E-19
4.010000E+03	3.043750E-18	3.584714E-19
4.020000E+03	3.049554E-18	3.582405E-19
4.030000E+03	3.056438E-18	3.581342E-19
4.040000E+03	3.064392E-18	3.581505E-19
4.050000E+03	3.073381E-18	3.582843E-19
4.060000E+03	3.083373E-18	3.585306E-19
4.070000E+03	3.094358E-18	3.588874E-19
4.080000E+03	3.106305E-18	3.593496E-19
4.090000E+03	3.119206E-18	3.599150E-19
4.100000E+03	3.133031E-18	3.605786E-19
4.110000E+03	3.147773E-18	3.613381E-19
4.120000E+03	3.163403E-18	3.621884E-19
4.130000E+03	3.179892E-18	3.631245E-19
4.140000E+03	3.197234E-18	3.641440E-19
4.150000E+03	3.215402E-18	3.652418E-19
4.160000E+03	3.234392E-18	3.664156E-19
4.170000E+03	3.254151E-18	3.676573E-19
4.180000E+03	3.274677E-18	3.689645E-19
4.190000E+03	3.295917E-18	3.703293E-19
4.200000E+03	3.317895E-18	3.717522E-19
4.210000E+03	3.340558E-18	3.732253E-19
4.220000E+03	3.363906E-18	3.747464E-19
4.230000E+03	3.387859E-18	3.763047E-19
4.240000E+03	3.412442E-18	3.779012E-19
4.250000E+03	3.437576E-18	3.795252E-19
4.260000E+03	3.463286E-18	3.811777E-19
4.270000E+03	3.489491E-18	3.828483E-19
4.280000E+03	3.516135E-18	3.845294E-19
4.290000E+03	3.543246E-18	3.862225E-19
4.300000E+03	3.570710E-18	3.879142E-19
4.310000E+03	3.598554E-18	3.896060E-19
4.320000E+03	3.626665E-18	3.912845E-19
4.330000E+03	3.655067E-18	3.929515E-19
4.340000E+03	3.683703E-18	3.945998E-19
4.350000E+03	3.712511E-18	3.962218E-19
4.360000E+03	3.741489E-18	3.978164E-19
4.370000E+03	3.770605E-18	3.993793E-19
4.380000E+03	3.799887E-18	4.009127E-19
4.390000E+03	3.829274E-18	4.024092E-19
4.400000E+03	3.858826E-18	4.038744E-19
4.410000E+03	3.888544E-18	4.053075E-19
4.420000E+03	3.918433E-18	4.067080E-19
4.430000E+03	3.948493E-18	4.080754E-19
4.440000E+03	3.978763E-18	4.094131E-19
4.450000E+03	4.009215E-18	4.107177E-19
4.460000E+03	4.039888E-18	4.119930E-19
4.470000E+03	4.070790E-18	4.132398E-19
4.480000E+03	4.101930E-18	4.144593E-19
4.490000E+03	4.133282E-18	4.156498E-19
4.500000E+03	4.164857E-18	4.168131E-19
4.510000E+03	4.196628E-18	4.179483E-19
4.520000E+03	4.228642E-18	4.190619E-19
4.530000E+03	4.260838E-18	4.201504E-19
4.540000E+03	4.293227E-18	4.212176E-19
4.550000E+03	4.325821E-18	4.222680E-19
4.560000E+03	4.358558E-18	4.232993E-19
4.570000E+03	4.391488E-18	4.243200E-19
4.580000E+03	4.424550E-18	4.253285E-19
4.590000E+03	4.457759E-18	4.263301E-19
4.600000E+03	4.491053E-18	4.273232E-19
4.610000E+03	4.524487E-18	4.283168E-19
4.620000E+03	4.558041E-18	4.293126E-19
4.630000E+03	4.591655E-18	4.303081E-19
4.640000E+03	4.625351E-18	4.313080E-19
4.650000E+03	4.659150E-18	4.323163E-19
4.660000E+03	4.693038E-18	4.333330E-19
4.670000E+03	4.726958E-18	4.343535E-19
4.680000E+03	4.761021E-18	4.353882E-19
4.690000E+03	4.795260E-18	4.364393E-19
4.700000E+03	4.829625E-18	4.375008E-19
4.710000E+03	4.864151E-18	4.385742E-19
4.720000E+03	4.898878E-18	4.396608E-19
4.730000E+03	4.933714E-18	4.407496E-19
4.740000E+03	4.968698E-18	4.418416E-19
4.750000E+03	5.003785E-18	4.429298E-19
4.760000E+03	5.039018E-18	4.440154E-19
4.770000E+03	5.074398E-18	4.450957E-19
4.780000E+03	5.109878E-18	4.461644E-19
4.790000E+03	5.145508E-18	4.472240E-19
4.800000E+03	5.181242E-18	4.482689E-19
4.810000E+03	5.217132E-18	4.493029E-19
4.820000E+03	5.253133E-18	4.503219E-19
4.830000E+03	5.289249E-18	4.513266E-19
4.840000E+03	5.325485E-18	4.523187E-19
4.850000E+03	5.361894E-18	4.533044E-19
4.860000E+03	5.398431E-18	4.542824E-19
4.870000E+03	5.435101E-18	4.552562E-19
4.880000E+03	5.471856E-18	4.562251E-19
4.890000E+03	5.508801E-18	4.572019E-19
4.900000E+03	5.545887E-18	4.581864E-19
4.910000E+03	5.583117E-18	4.591829E-19
4.920000E+03	5.620439E-18	4.601910E-19
4.930000E+03	5.657904E-18	4.612186E-19
4.940000E+03	5.695458E-18	4.622646E-19
4.950000E+03	5.733097E-18	4.633315E-19
4.960000E+03	5.770872E-18	4.644256E-19
4.970000E+03	5.808723E-18	4.655436E-19
4.980000E+03	5.846646E-18	4.666861E-19
4.990000E+03	5.884575E-18	4.678484E-19
5.000000E+03	5.922559E-18	4.690341E-19
5.010000E+03	5.960587E-18	4.702416E-19
5.020000E+03	5.998592E-18	4.714644E-19
5.030000E+03	6.036561E-18	4.727003E-19
5.040000E+03	6.074480E-18	4.739464E-19
5.050000E+03	6.112277E-18	4.751955E-19
5.060000E+03	6.149995E-18	4.764493E-19
5.070000E+03	6.187618E-18	4.777052E-19
5.080000E+03	6.225010E-18	4.789516E-19
5.090000E+03	6.262215E-18	4.801910E-19
5.100000E+03	6.299215E-18	4.814221E-19
5.110000E+03	6.335931E-18	4.826393E-19
5.120000E+03	6.372345E-18	4.838427E-19
5.130000E+03	6.408440E-18	4.850328E-19
5.140000E+03	6.444195E-18	4.862114E-19
5.150000E+03	6.479529E-18	4.873767E-19
5.160000E+03	6.514483E-18	4.885372E-19
5.170000E+03	6.548907E-18	4.896886E-19
5.180000E+03	6.582839E-18	4.908423E-19
5.190000E+03	6.616187E-18	4.920012E-19
5.200000E+03	6.648919E-18	4.931744E-19
5.210000E+03	6.681000E-18	4.943722E-19
5.220000E+03	6.712394E-18	4.956060E-19
5.230000E+03	6.742926E-18	4.968783E-19
5.240000E+03	6.772685E-18	4.982116E-19
5.250000E+03	6.801554E-18	4.996144E-19
5.260000E+03	6.829485E-18	5.011000E-19
5.270000E+03	6.856356E-18	5.026771E-19
5.280000E+03	6.882111E-18	5.043586E-19
5.290000E+03	6.906695E-18	5.061574E-19
5.300000E+03	6.930052E-18	5.080858E-19
5.310000E+03	6.952126E-18	5.101555E-19
5.320000E+03	6.972796E-18	5.123725E-19
5.330000E+03	6.992150E-18	5.147570E-19
5.340000E+03	7.010003E-18	5.173082E-19
5.350000E+03	7.026311E-18	5.200344E-19
5.360000E+03	7.041174E-18	5.229532E-19
5.370000E+03	7.054421E-18	5.260601E-19
5.380000E+03	7.066162E-18	5.293705E-19
5.390000E+03	7.076306E-18	5.328824E-19
5.400000E+03	7.084905E-18	5.366032E-19
5.410000E+03	7.091877E-18	5.405281E-19
5.420000E+03	7.097358E-18	5.446669E-19
5.430000E+03	7.101278E-18	5.490118E-19
5.440000E+03	7.103713E-18	5.535644E-19
5.450000E+03	7.104534E-18	5.583082E-19
5.460000E+03	7.103828E-18	5.632420E-19
5.470000E+03	7.101549E-18	5.683517E-19
5.480000E+03	7.097652E-18	5.736220E-19
5.490000E+03	7.092244E-18	5.790476E-19
5.500000E+03	7.085219E-18	5.846049E-19
5.510000E+03	7.076549E-18	5.902747E-19
5.520000E+03	7.066282E-18	5.960429E-19
5.530000E+03	7.054325E-18	6.018826E-19
5.540000E+03	7.040804E-18	6.077843E-19
5.550000E+03	7.025561E-18	6.137140E-19
5.560000E+03	7.008798E-18	6.196680E-19
5.570000E+03	6.990504E-18	6.256245E-19
5.580000E+03	6.970669E-18	6.315616E-19
5.590000E+03	6.949354E-18	6.374642E-19
5.600000E+03	6.926623E-18	6.433181E-19
5.610000E+03	6.902465E-18	6.491030E-19
5.620000E+03	6.877083E-18	6.548197E-19
5.630000E+03	6.850395E-18	6.604436E-19
5.640000E+03	6.822601E-18	6.659780E-19
5.650000E+03	6.793617E-18	6.714006E-19
5.660000E+03	6.763640E-18	6.767175E-19
5.670000E+03	6.732722E-18	6.819229E-19
5.680000E+03	6.700849E-18	6.870049E-19
5.690000E+03	6.668140E-18	6.919671E-19
5.700000E+03	6.634647E-18	6.968070E-19
5.710000E+03	6.600488E-18	7.015304E-19
5.720000E+03	6.565712E-18	7.061367E-19
5.730000E+03	6.530298E-18	7.106182E-19
5.740000E+03	6.494432E-18	7.149900E-19
5.750000E+03	6.458161E-18	7.192528E-19
5.760000E+03	6.421465E-18	7.233992E-19
5.770000E+03	6.384461E-18	7.274373E-19
5.780000E+03	6.347267E-18	7.313749E-19
5.790000E+03	6.309930E-18	7.352117E-19
5.800000E+03	6.272436E-18	7.389394E-19
5.810000E+03	6.234902E-18	7.425648E-19
5.820000E+03	6.197448E-18	7.460946E-19
5.830000E+03	6.160128E-18	7.495272E-19
5.840000E+03	6.122928E-18	7.528526E-19
5.850000E+03	6.085971E-18	7.560769E-19
5.860000E+03	6.049312E-18	7.591979E-19
5.870000E+03	6.013073E-18	7.622218E-19
5.880000E+03	5.977308E-18	7.651467E-19
5.890000E+03	5.942006E-18	7.679623E-19
5.900000E+03	5.907289E-18	7.706754E-19
5.910000E+03	5.873141E-18	7.732761E-19
5.920000E+03	5.839812E-18	7.757894E-19
5.930000E+03	5.807153E-18	7.781890E-19
5.940000E+03	5.775275E-18	7.804834E-19
5.950000E+03	5.744289E-18	7.826819E-19
5.960000E+03	5.714169E-18	7.847765E-19
5.970000E+03	5.684954E-18	7.867685E-19
5.980000E+03	5.656743E-18	7.886686E-19
5.990000E+03	5.629504E-18	7.904700E-19
6.000000E+03	5.603330E-18	7.921843E-19
6.010000E+03	5.578118E-18	7.937960E-19
6.020000E+03	5.554021E-18	7.953265E-19
6.030000E+03	5.530930E-18	7.967607E-19
6.040000E+03	5.508992E-18	7.981207E-19
6.050000E+03	5.488030E-18	7.993821E-19
6.060000E+03	5.468186E-18	8.005673E-19
6.070000E+03	5.449406E-18	8.016707E-19
6.080000E+03	5.431698E-18	8.026961E-19
6.090000E+03	5.414941E-18	8.036283E-19
6.100000E+03	5.399267E-18	8.044900E-19
6.110000E+03	5.384485E-18	8.052560E-19
6.120000E+03	5.370726E-18	8.059491E-19
6.130000E+03	5.357791E-18	8.065434E-19
6.140000E+03	5.345678E-18	8.070420E-19
6.150000E+03	5.334315E-18	8.074378E-19
6.160000E+03	5.323694E-18	8.077335E-19
6.170000E+03	5.313607E-18	8.079014E-19
6.180000E+03	5.304040E-18	8.079433E-19
6.190000E+03	5.294911E-18	8.078509E-19
6.200000E+03	5.286203E-18	8.076254E-19
6.210000E+03	5.277895E-18	8.072682E-19
6.220000E+03	5.270103E-18	8.068008E-19
6.230000E+03	5.263007E-18	8.062558E-19
6.240000E+03	5.256657E-18	8.056452E-19
6.250000E+03	5.251171E-18	8.049913E-19
6.260000E+03	5.246669E-18	8.043173E-19
6.270000E+03	5.243204E-18	8.036354E-19
6.280000E+03	5.240900E-18	8.029693E-19
6.290000E+03	5.239814E-18	8.023316E-19
6.300000E+03	5.240007E-18	8.017355E-19
6.310000E+03	5.241610E-18	8.012050E-19
6.320000E+03	5.244617E-18	8.007427E-19
6.330000E+03	5.249167E-18	8.003730E-19
6.340000E+03	5.255184E-18	8.000876E-19
6.350000E+03	5.262740E-18	7.999001E-19
6.360000E+03	5.271833E-18	7.998130E-19
6.370000E+03	5.282540E-18	7.998403E-19
6.380000E+03	5.294787E-18	7.999731E-19
6.390000E+03	5.308578E-18	8.002139E-19
6.400000E+03	5.323838E-18	8.005535E-19
6.410000E+03	5.340415E-18	8.009706E-19
6.420000E+03	5.358230E-18	8.014552E-19
6.430000E+03	5.377278E-18	8.020085E-19
6.440000E+03	5.397558E-18	8.026316E-19
6.450000E+03	5.419067E-18	8.033257E-19
6.460000E+03	5.441884E-18	8.041039E-19
6.470000E+03	5.466093E-18	8.049795E-19
6.480000E+03	5.491699E-18	8.059541E-19
6.490000E+03	5.518621E-18	8.070166E-19
6.500000E+03	5.547033E-18	8.081931E-19
6.510000E+03	5.576944E-18	8.094852E-19
6.520000E+03	5.608277E-18	8.108818E-19
6.530000E+03	5.641127E-18	8.123969E-19
6.540000E+03	5.675507E-18	8.140320E-19
6.550000E+03	5.711337E-18	8.157758E-19
6.560000E+03	5.748628E-18	8.176295E-19
6.570000E+03	5.787575E-18	8.196203E-19
6.580000E+03	5.827916E-18	8.217106E-19
6.590000E+03	5.869847E-18	8.239275E-19
6.600000E+03	5.913385E-18	8.262726E-19
6.610000E+03	5.958352E-18	8.287202E-19
6.620000E+03	6.004955E-18	8.312982E-19
6.630000E+03	6.053012E-18	8.339805E-19
6.640000E+03	6.102736E-18	8.367953E-19
6.650000E+03	6.153942E-18	8.397161E-19
6.660000E+03	6.206746E-18	8.427574E-19
6.670000E+03	6.261163E-18	8.459202E-19
6.680000E+03	6.317105E-18	8.491911E-19
6.690000E+03	6.374585E-18	8.525704E-19
6.700000E+03	6.433726E-18	8.560734E-19
6.710000E+03	6.494437E-18	8.596860E-19
6.720000E+03	6.556733E-18	8.634088E-19
6.730000E+03	6.620629E-18	8.672422E-19
6.740000E+03	6.686141E-18	8.711866E-19
6.750000E+03	6.753288E-18	8.752424E-19
6.760000E+03	6.822086E-18	8.794100E-19
6.770000E+03	6.892431E-18	8.836741E-19
6.780000E+03	6.964461E-18	8.880505E-19
6.790000E+03	7.038195E-18	8.925393E-19
6.800000E+03	7.113525E-18	8.971250E-19
6.810000E+03	7.190595E-18	9.018234E-19
6.820000E+03	7.269294E-18	9.066185E-19
6.830000E+03	7.349638E-18	9.115100E-19
6.840000E+03	7.431642E-18	9.164976E-19
6.850000E+03	7.515323E-18	9.215810E-19
6.860000E+03	7.600835E-18	9.267770E-19
6.870000E+03	7.687918E-18	9.320514E-19
6.880000E+03	7.776726E-18	9.374207E-19
6.890000E+03	7.867277E-18	9.428845E-19
6.900000E+03	7.959438E-18	9.484249E-19
6.910000E+03	8.053372E-18	9.540588E-19
6.920000E+03	8.149094E-18	9.597860E-19
6.930000E+03	8.246467E-18	9.655880E-19
6.940000E+03	8.345501E-18	9.714638E-19
6.950000E+03	8.446365E-18	9.774312E-19
6.960000E+03	8.548914E-18	9.834711E-19
6.970000E+03	8.653157E-18	9.895827E-19
6.980000E+03	8.759102E-18	9.957651E-19
6.990000E+03	8.866758E-18	1.002017E-18
7.000000E+03	8.975957E-18	1.008319E-18
7.010000E+03	9.087055E-18	1.014708E-18
7.020000E+03	9.199706E-18	1.021144E-18
7.030000E+03	9.314091E-18	1.027646E-18
7.040000E+03	9.430030E-18	1.034192E-18
7.050000E+03	9.547521E-18	1.040780E-18
7.060000E+03	9.666751E-18	1.047430E-18
7.070000E+03	9.787529E-18	1.054120E-18
7.080000E+03	9.909652E-18	1.060826E-18
7.090000E+03	1.003351E-17	1.067588E-18
7.100000E+03	1.015889E-17	1.074384E-18
7.110000E+03	1.028559E-17	1.081190E-18
7.120000E+03	1.041380E-17	1.088025E-18
7.130000E+03	1.054329E-17	1.094865E-18
7.140000E+03	1.067425E-17	1.101729E-18
7.150000E+03	1.080647E-17	1.108592E-18
7.160000E+03	1.094013E-17	1.115476E-18
7.170000E+03	1.107477E-17	1.122331E-18
7.180000E+03	1.121058E-17	1.129178E-18
7.190000E+03	1.134777E-17	1.136038E-18
7.200000E+03	1.148585E-17	1.142863E-18
7.210000E+03	1.162478E-17	1.149649E-18
7.220000E+03	1.176475E-17	1.156419E-18
7.230000E+03	1.190574E-17	1.163172E-18
7.240000E+03	1.204745E-17	1.169883E-18
7.250000E+03	1.219009E-17	1.176576E-18
7.260000E+03	1.233337E-17	1.183227E-18
7.270000E+03	1.247722E-17	1.189836E-18
7.280000E+03	1.262187E-17	1.196431E-18
7.290000E+03	1.276699E-17	1.202987E-18
7.300000E+03	1.291279E-17	1.209536E-18
7.310000E+03	1.305895E-17	1.216054E-18
7.320000E+03	1.320540E-17	1.222548E-18
7.330000E+03	1.335266E-17	1.229077E-18
7.340000E+03	1.350009E-17	1.235596E-18
7.350000E+03	1.364823E-17	1.242168E-18
7.360000E+03	1.379674E-17	1.248778E-18
7.370000E+03	1.394586E-17	1.255465E-18
7.380000E+03	1.409588E-17	1.262272E-18
7.390000E+03	1.424645E-17	1.269185E-18
7.400000E+03	1.439820E-17	1.276279E-18
7.410000E+03	1.455111E-17	1.283572E-18
7.420000E+03	1.470552E-17	1.291114E-18
7.430000E+03	1.486146E-17	1.298923E-18
7.440000E+03	1.501893E-17	1.307021E-18
7.450000E+03	1.517831E-17	1.315457E-18
7.460000E+03	1.533893E-17	1.324190E-18
7.470000E+03	1.550081E-17	1.333233E-18
7.480000E+03	1.566360E-17	1.342568E-18
7.490000E+03	1.582767E-17	1.352235E-18
7.500000E+03	1.599268E-17	1.362206E-18
7.510000E+03	1.615825E-17	1.372446E-18
7.520000E+03	1.632438E-17	1.382946E-18
7.530000E+03	1.649107E-17	1.393693E-18
7.540000E+03	1.665794E-17	1.404631E-18
7.550000E+03	1.682537E-17	1.415769E-18
7.560000E+03	1.699255E-17	1.427009E-18
7.570000E+03	1.716029E-17	1.438386E-18
7.580000E+03	1.732815E-17	1.449832E-18
7.590000E+03	1.749613E-17	1.461310E-18
7.600000E+03	1.766376E-17	1.472750E-18
7.610000E+03	1.783144E-17	1.484152E-18
7.620000E+03	1.799913E-17	1.495485E-18
7.630000E+03	1.816676E-17	1.506720E-18
7.640000E+03	1.833383E-17	1.517793E-18
7.650000E+03	1.850070E-17	1.528719E-18
7.660000E+03	1.866682E-17	1.539442E-18
7.670000E+03	1.883301E-17	1.550022E-18
7.680000E+03	1.899775E-17	1.560331E-18
7.690000E+03	1.916233E-17	1.570478E-18
7.700000E+03	1.932613E-17	1.580417E-18
7.710000E+03	1.948852E-17	1.590104E-18
7.720000E+03	1.964982E-17	1.599575E-18
7.730000E+03	1.980986E-17	1.608830E-18
7.740000E+03	1.996846E-17	1.617867E-18
7.750000E+03	2.012544E-17	1.626686E-18
7.760000E+03	2.028114E-17	1.635329E-18
