#wls	flux	fluxerr
1.600000E+03	1.575340E-16	1.526525E-16
1.640000E+03	1.623045E-16	1.546636E-16
1.680000E+03	1.668118E-16	1.562172E-16
1.720000E+03	1.710260E-16	1.572940E-16
1.760000E+03	1.748466E-16	1.578141E-16
1.800000E+03	1.782696E-16	1.577904E-16
1.840000E+03	1.811898E-16	1.571497E-16
1.880000E+03	1.835823E-16	1.558953E-16
1.920000E+03	1.853893E-16	1.540063E-16
1.960000E+03	1.865248E-16	1.514445E-16
2.000000E+03	1.869674E-16	1.482308E-16
2.040000E+03	1.866562E-16	1.443589E-16
2.080000E+03	1.855406E-16	1.398365E-16
2.120000E+03	1.835828E-16	1.346863E-16
2.160000E+03	1.807370E-16	1.289300E-16
2.200000E+03	1.769372E-16	1.225804E-16
2.240000E+03	1.721233E-16	1.156618E-16
2.280000E+03	1.663093E-16	1.082531E-16
2.320000E+03	1.596141E-16	1.004992E-16
2.360000E+03	1.522528E-16	9.259476E-17
2.400000E+03	1.443949E-16	8.468974E-17
2.440000E+03	1.361931E-16	7.691030E-17
2.480000E+03	1.277548E-16	6.934449E-17
2.520000E+03	1.191936E-16	6.207391E-17
2.560000E+03	1.106002E-16	5.515800E-17
2.600000E+03	1.020697E-16	4.864970E-17
2.640000E+03	9.367837E-17	4.258390E-17
2.680000E+03	8.549849E-17	3.698612E-17
2.720000E+03	7.759696E-17	3.187221E-17
2.760000E+03	7.002677E-17	2.724564E-17
2.800000E+03	6.283630E-17	2.310256E-17
2.840000E+03	5.606548E-17	1.943108E-17
2.880000E+03	4.974937E-17	1.621352E-17
2.920000E+03	4.391687E-17	1.342678E-17
2.960000E+03	3.858680E-17	1.104213E-17
3.000000E+03	3.376790E-17	9.026586E-18
3.010000E+03	3.264281E-17	8.576126E-18
3.020000E+03	3.154868E-17	8.145697E-18
3.030000E+03	3.048647E-17	7.735010E-18
3.040000E+03	2.945432E-17	7.343053E-18
3.050000E+03	2.845308E-17	6.969512E-18
3.060000E+03	2.748217E-17	6.613724E-18
3.070000E+03	2.654159E-17	6.275169E-18
3.080000E+03	2.562964E-17	5.952941E-18
3.090000E+03	2.474737E-17	5.646789E-18
3.100000E+03	2.389311E-17	5.355846E-18
3.110000E+03	2.306724E-17	5.079724E-18
3.120000E+03	2.226911E-17	4.817808E-18
3.130000E+03	2.149763E-17	4.569412E-18
3.140000E+03	2.075303E-17	4.334140E-18
3.150000E+03	2.003425E-17	4.111337E-18
3.160000E+03	1.934103E-17	3.900532E-18
3.170000E+03	1.867272E-17	3.701183E-18
3.180000E+03	1.802870E-17	3.512769E-18
3.190000E+03	1.740864E-17	3.334844E-18
3.200000E+03	1.681190E-17	3.166908E-18
3.210000E+03	1.623756E-17	3.008431E-18
3.220000E+03	1.568560E-17	2.859055E-18
3.230000E+03	1.515510E-17	2.718279E-18
3.240000E+03	1.464573E-17	2.585717E-18
3.250000E+03	1.415688E-17	2.460945E-18
3.260000E+03	1.368772E-17	2.343520E-18
3.270000E+03	1.323811E-17	2.233130E-18
3.280000E+03	1.280704E-17	2.129326E-18
3.290000E+03	1.239434E-17	2.031815E-18
3.300000E+03	1.199941E-17	1.940246E-18
3.310000E+03	1.162133E-17	1.854228E-18
3.320000E+03	1.125988E-17	1.773500E-18
3.330000E+03	1.091451E-17	1.697755E-18
3.340000E+03	1.058449E-17	1.626675E-18
3.350000E+03	1.026930E-17	1.559988E-18
3.360000E+03	9.968421E-18	1.497429E-18
3.370000E+03	9.681339E-18	1.438753E-18
3.380000E+03	9.407555E-18	1.383722E-18
3.390000E+03	9.146581E-18	1.332116E-18
3.400000E+03	8.897827E-18	1.283707E-18
3.410000E+03	8.660730E-18	1.238283E-18
3.420000E+03	8.435081E-18	1.195693E-18
3.430000E+03	8.220132E-18	1.155719E-18
3.440000E+03	8.015592E-18	1.118214E-18
3.450000E+03	7.820976E-18	1.083016E-18
3.460000E+03	7.635917E-18	1.049983E-18
3.470000E+03	7.459882E-18	1.018962E-18
3.480000E+03	7.292462E-18	9.898215E-19
3.490000E+03	7.133351E-18	9.624501E-19
3.500000E+03	6.982094E-18	9.367236E-19
3.510000E+03	6.838423E-18	9.125477E-19
3.520000E+03	6.701781E-18	8.897950E-19
3.530000E+03	6.571944E-18	8.683874E-19
3.540000E+03	6.448487E-18	8.482245E-19
3.550000E+03	6.331086E-18	8.292229E-19
3.560000E+03	6.219436E-18	8.113059E-19
3.570000E+03	6.113127E-18	7.943861E-19
3.580000E+03	6.012023E-18	7.784154E-19
3.590000E+03	5.915814E-18	7.633251E-19
3.600000E+03	5.824210E-18	7.490520E-19
3.610000E+03	5.737109E-18	7.355593E-19
3.620000E+03	5.654190E-18	7.227841E-19
3.630000E+03	5.575262E-18	7.106818E-19
3.640000E+03	5.500145E-18	6.992111E-19
3.650000E+03	5.428664E-18	6.883329E-19
3.660000E+03	5.360658E-18	6.780109E-19
3.670000E+03	5.295969E-18	6.682108E-19
3.680000E+03	5.234496E-18	6.589064E-19
3.690000E+03	5.176138E-18	6.500727E-19
3.700000E+03	5.120752E-18	6.416805E-19
3.710000E+03	5.068379E-18	6.337244E-19
3.720000E+03	5.018832E-18	6.261714E-19
3.730000E+03	4.972105E-18	6.190118E-19
3.740000E+03	4.928103E-18	6.122257E-19
3.750000E+03	4.886774E-18	6.057993E-19
3.760000E+03	4.848147E-18	5.997293E-19
3.770000E+03	4.812044E-18	5.939877E-19
3.780000E+03	4.778491E-18	5.885724E-19
3.790000E+03	4.747472E-18	5.834762E-19
3.800000E+03	4.718852E-18	5.786781E-19
3.810000E+03	4.692652E-18	5.741770E-19
3.820000E+03	4.668853E-18	5.699670E-19
3.830000E+03	4.647360E-18	5.660334E-19
3.840000E+03	4.628115E-18	5.623666E-19
3.850000E+03	4.611175E-18	5.589711E-19
3.860000E+03	4.596408E-18	5.558290E-19
3.870000E+03	4.583830E-18	5.529407E-19
3.880000E+03	4.573386E-18	5.502980E-19
3.890000E+03	4.565057E-18	5.478972E-19
3.900000E+03	4.558823E-18	5.457349E-19
3.910000E+03	4.554593E-18	5.437995E-19
3.920000E+03	4.552351E-18	5.420879E-19
3.930000E+03	4.552114E-18	5.406017E-19
3.940000E+03	4.553829E-18	5.393337E-19
3.950000E+03	4.557444E-18	5.382772E-19
3.960000E+03	4.562945E-18	5.374296E-19
3.970000E+03	4.570279E-18	5.367844E-19
3.980000E+03	4.579435E-18	5.363389E-19
3.990000E+03	4.590397E-18	5.360910E-19
4.000000E+03	4.603154E-18	5.360380E-19
4.010000E+03	4.617623E-18	5.361695E-19
4.020000E+03	4.633794E-18	5.364829E-19
4.030000E+03	4.651657E-18	5.369760E-19
4.040000E+03	4.671203E-18	5.376462E-19
4.050000E+03	4.692389E-18	5.384872E-19
4.060000E+03	4.715173E-18	5.394922E-19
4.070000E+03	4.739548E-18	5.406589E-19
4.080000E+03	4.765473E-18	5.419806E-19
4.090000E+03	4.792945E-18	5.434548E-19
4.100000E+03	4.821922E-18	5.450747E-19
4.110000E+03	4.852402E-18	5.468377E-19
4.120000E+03	4.884346E-18	5.487371E-19
4.130000E+03	4.917714E-18	5.507658E-19
4.140000E+03	4.952506E-18	5.529212E-19
4.150000E+03	4.988683E-18	5.551962E-19
4.160000E+03	5.026245E-18	5.575880E-19
4.170000E+03	5.065117E-18	5.600853E-19
4.180000E+03	5.105298E-18	5.626852E-19
4.190000E+03	5.146712E-18	5.653762E-19
4.200000E+03	5.189400E-18	5.681602E-19
4.210000E+03	5.233284E-18	5.710255E-19
4.220000E+03	5.278367E-18	5.739698E-19
4.230000E+03	5.324528E-18	5.769773E-19
4.240000E+03	5.371810E-18	5.800502E-19
4.250000E+03	5.420090E-18	5.831729E-19
4.260000E+03	5.469412E-18	5.863478E-19
4.270000E+03	5.519649E-18	5.895596E-19
4.280000E+03	5.570715E-18	5.927973E-19
4.290000E+03	5.622653E-18	5.960639E-19
4.300000E+03	5.675288E-18	5.993394E-19
4.310000E+03	5.728660E-18	6.026268E-19
4.320000E+03	5.782589E-18	6.059060E-19
4.330000E+03	5.837116E-18	6.091803E-19
4.340000E+03	5.892147E-18	6.124388E-19
4.350000E+03	5.947582E-18	6.156701E-19
4.360000E+03	6.003418E-18	6.188729E-19
4.370000E+03	6.059600E-18	6.220404E-19
4.380000E+03	6.116174E-18	6.251762E-19
4.390000E+03	6.173037E-18	6.282686E-19
4.400000E+03	6.230285E-18	6.313259E-19
4.410000E+03	6.287920E-18	6.343467E-19
4.420000E+03	6.345943E-18	6.373295E-19
4.430000E+03	6.404358E-18	6.402732E-19
4.440000E+03	6.463221E-18	6.431819E-19
4.450000E+03	6.522488E-18	6.460497E-19
4.460000E+03	6.582220E-18	6.488819E-19
4.470000E+03	6.642426E-18	6.516785E-19
4.480000E+03	6.703120E-18	6.544407E-19
4.490000E+03	6.764259E-18	6.571644E-19
4.500000E+03	6.825854E-18	6.598518E-19
4.510000E+03	6.887862E-18	6.625005E-19
4.520000E+03	6.950353E-18	6.651197E-19
4.530000E+03	7.013228E-18	6.677029E-19
4.540000E+03	7.076498E-18	6.702556E-19
4.550000E+03	7.140180E-18	6.727839E-19
4.560000E+03	7.204169E-18	6.752833E-19
4.570000E+03	7.268542E-18	6.777673E-19
4.580000E+03	7.333193E-18	6.802322E-19
4.590000E+03	7.398143E-18	6.826864E-19
4.600000E+03	7.463283E-18	6.851265E-19
4.610000E+03	7.528701E-18	6.875668E-19
4.620000E+03	7.594356E-18	6.900095E-19
4.630000E+03	7.660144E-18	6.924501E-19
4.640000E+03	7.726094E-18	6.948955E-19
4.650000E+03	7.792238E-18	6.973519E-19
4.660000E+03	7.858543E-18	6.998185E-19
4.670000E+03	7.924909E-18	7.022873E-19
4.680000E+03	7.991517E-18	7.047741E-19
4.690000E+03	8.058414E-18	7.072817E-19
4.700000E+03	8.125510E-18	7.097998E-19
4.710000E+03	8.192858E-18	7.123296E-19
4.720000E+03	8.260517E-18	7.148722E-19
4.730000E+03	8.328325E-18	7.174091E-19
4.740000E+03	8.396343E-18	7.199405E-19
4.750000E+03	8.464483E-18	7.224541E-19
4.760000E+03	8.532813E-18	7.249506E-19
4.770000E+03	8.601322E-18	7.274248E-19
4.780000E+03	8.669927E-18	7.298655E-19
4.790000E+03	8.738700E-18	7.322754E-19
4.800000E+03	8.807554E-18	7.346451E-19
4.810000E+03	8.876567E-18	7.369796E-19
4.820000E+03	8.945653E-18	7.392715E-19
4.830000E+03	9.014807E-18	7.415216E-19
4.840000E+03	9.084024E-18	7.437319E-19
4.850000E+03	9.153385E-18	7.459125E-19
4.860000E+03	9.222799E-18	7.480608E-19
4.870000E+03	9.292260E-18	7.501822E-19
4.880000E+03	9.361672E-18	7.522756E-19
4.890000E+03	9.431201E-18	7.543616E-19
4.900000E+03	9.500746E-18	7.564400E-19
4.910000E+03	9.570295E-18	7.585173E-19
4.920000E+03	9.639741E-18	7.605928E-19
4.930000E+03	9.709154E-18	7.626789E-19
4.940000E+03	9.778420E-18	7.647731E-19
4.950000E+03	9.847513E-18	7.668786E-19
4.960000E+03	9.916500E-18	7.690050E-19
4.970000E+03	9.985255E-18	7.711456E-19
4.980000E+03	1.005375E-17	7.732997E-19
4.990000E+03	1.012184E-17	7.754580E-19
5.000000E+03	1.018959E-17	7.776244E-19
5.010000E+03	1.025695E-17	7.797944E-19
5.020000E+03	1.032379E-17	7.819552E-19
5.030000E+03	1.039005E-17	7.841003E-19
5.040000E+03	1.045569E-17	7.862230E-19
5.050000E+03	1.052054E-17	7.883084E-19
5.060000E+03	1.058465E-17	7.903570E-19
5.070000E+03	1.064798E-17	7.923618E-19
5.080000E+03	1.071024E-17	7.943010E-19
5.090000E+03	1.077149E-17	7.961765E-19
5.100000E+03	1.083167E-17	7.979832E-19
5.110000E+03	1.089062E-17	7.997098E-19
5.120000E+03	1.094827E-17	8.013536E-19
5.130000E+03	1.100456E-17	8.029138E-19
5.140000E+03	1.105943E-17	8.043910E-19
5.150000E+03	1.111272E-17	8.057800E-19
5.160000E+03	1.116447E-17	8.070933E-19
5.170000E+03	1.121440E-17	8.083223E-19
5.180000E+03	1.126255E-17	8.094840E-19
5.190000E+03	1.130874E-17	8.105823E-19
5.200000E+03	1.135290E-17	8.116314E-19
5.210000E+03	1.139495E-17	8.126475E-19
5.220000E+03	1.143481E-17	8.136487E-19
5.230000E+03	1.147217E-17	8.146389E-19
5.240000E+03	1.150717E-17	8.156547E-19
5.250000E+03	1.153961E-17	8.167095E-19
5.260000E+03	1.156939E-17	8.178251E-19
5.270000E+03	1.159632E-17	8.190149E-19
5.280000E+03	1.162030E-17	8.202998E-19
5.290000E+03	1.164124E-17	8.217000E-19
5.300000E+03	1.165906E-17	8.232349E-19
5.310000E+03	1.167369E-17	8.249225E-19
5.320000E+03	1.168495E-17	8.267717E-19
5.330000E+03	1.169300E-17	8.288143E-19
5.340000E+03	1.169758E-17	8.310480E-19
5.350000E+03	1.169865E-17	8.334850E-19
5.360000E+03	1.169643E-17	8.361525E-19
5.370000E+03	1.169067E-17	8.390426E-19
5.380000E+03	1.168163E-17	8.421785E-19
5.390000E+03	1.166920E-17	8.455563E-19
5.400000E+03	1.165354E-17	8.491866E-19
5.410000E+03	1.163459E-17	8.530611E-19
5.420000E+03	1.161265E-17	8.571945E-19
5.430000E+03	1.158768E-17	8.615740E-19
5.440000E+03	1.155989E-17	8.662019E-19
5.450000E+03	1.152915E-17	8.710523E-19
5.460000E+03	1.149571E-17	8.761236E-19
5.470000E+03	1.145957E-17	8.813949E-19
5.480000E+03	1.142077E-17	8.868435E-19
5.490000E+03	1.137957E-17	8.924629E-19
5.500000E+03	1.133591E-17	8.982187E-19
5.510000E+03	1.128985E-17	9.040843E-19
5.520000E+03	1.124156E-17	9.100414E-19
5.530000E+03	1.119100E-17	9.160527E-19
5.540000E+03	1.113848E-17	9.221086E-19
5.550000E+03	1.108384E-17	9.281623E-19
5.560000E+03	1.102752E-17	9.342142E-19
5.570000E+03	1.096958E-17	9.402375E-19
5.580000E+03	1.091012E-17	9.462064E-19
5.590000E+03	1.084931E-17	9.521054E-19
5.600000E+03	1.078734E-17	9.579211E-19
5.610000E+03	1.072429E-17	9.636318E-19
5.620000E+03	1.066054E-17	9.692470E-19
5.630000E+03	1.059605E-17	9.747391E-19
5.640000E+03	1.053118E-17	9.801224E-19
5.650000E+03	1.046588E-17	9.853732E-19
5.660000E+03	1.040050E-17	9.905103E-19
5.670000E+03	1.033517E-17	9.955348E-19
5.680000E+03	1.026992E-17	1.000439E-18
5.690000E+03	1.020496E-17	1.005238E-18
5.700000E+03	1.014041E-17	1.009938E-18
5.710000E+03	1.007648E-17	1.014556E-18
5.720000E+03	1.001326E-17	1.019101E-18
5.730000E+03	9.950740E-18	1.023572E-18
5.740000E+03	9.889203E-18	1.027997E-18
5.750000E+03	9.828730E-18	1.032388E-18
5.760000E+03	9.769290E-18	1.036741E-18
5.770000E+03	9.711055E-18	1.041075E-18
5.780000E+03	9.654192E-18	1.045407E-18
5.790000E+03	9.598762E-18	1.049745E-18
5.800000E+03	9.544721E-18	1.054081E-18
5.810000E+03	9.492227E-18	1.058430E-18
5.820000E+03	9.441436E-18	1.062807E-18
5.830000E+03	9.392399E-18	1.067212E-18
5.840000E+03	9.345065E-18	1.071634E-18
5.850000E+03	9.299584E-18	1.076085E-18
5.860000E+03	9.256004E-18	1.080563E-18
5.870000E+03	9.214470E-18	1.085078E-18
5.880000E+03	9.175026E-18	1.089628E-18
5.890000E+03	9.137613E-18	1.094198E-18
5.900000E+03	9.102368E-18	1.098796E-18
5.910000E+03	9.069228E-18	1.103408E-18
5.920000E+03	9.038526E-18	1.108068E-18
5.930000E+03	9.009987E-18	1.112735E-18
5.940000E+03	8.983736E-18	1.117419E-18
5.950000E+03	8.959892E-18	1.122130E-18
5.960000E+03	8.938370E-18	1.126852E-18
5.970000E+03	8.919178E-18	1.131584E-18
5.980000E+03	8.902424E-18	1.136337E-18
5.990000E+03	8.888007E-18	1.141096E-18
6.000000E+03	8.876026E-18	1.145872E-18
6.010000E+03	8.866267E-18	1.150637E-18
6.020000E+03	8.858924E-18	1.155418E-18
6.030000E+03	8.853775E-18	1.160186E-18
6.040000E+03	8.851009E-18	1.164967E-18
6.050000E+03	8.850290E-18	1.169719E-18
6.060000E+03	8.851801E-18	1.174469E-18
6.070000E+03	8.855409E-18	1.179201E-18
6.080000E+03	8.861081E-18	1.183914E-18
6.090000E+03	8.868571E-18	1.188579E-18
6.100000E+03	8.878053E-18	1.193222E-18
6.110000E+03	8.889167E-18	1.197799E-18
6.120000E+03	8.902082E-18	1.202335E-18
6.130000E+03	8.916429E-18	1.206786E-18
6.140000E+03	8.932157E-18	1.211147E-18
6.150000E+03	8.949102E-18	1.215402E-18
6.160000E+03	8.967208E-18	1.219545E-18
6.170000E+03	8.986081E-18	1.223527E-18
6.180000E+03	9.005654E-18	1.227344E-18
6.190000E+03	9.025743E-18	1.230974E-18
6.200000E+03	9.046277E-18	1.234412E-18
6.210000E+03	9.067181E-18	1.237651E-18
6.220000E+03	9.088611E-18	1.240718E-18
6.230000E+03	9.110848E-18	1.243656E-18
6.240000E+03	9.133950E-18	1.246475E-18
6.250000E+03	9.158094E-18	1.249206E-18
6.260000E+03	9.183471E-18	1.251877E-18
6.270000E+03	9.210157E-18	1.254504E-18
6.280000E+03	9.238356E-18	1.257119E-18
6.290000E+03	9.268160E-18	1.259736E-18
6.300000E+03	9.299667E-18	1.262374E-18
6.310000E+03	9.333109E-18	1.265067E-18
6.320000E+03	9.368474E-18	1.267815E-18
6.330000E+03	9.406010E-18	1.270656E-18
6.340000E+03	9.445588E-18	1.273574E-18
6.350000E+03	9.487338E-18	1.276588E-18
6.360000E+03	9.531265E-18	1.279702E-18
6.370000E+03	9.577513E-18	1.282935E-18
6.380000E+03	9.625960E-18	1.286274E-18
6.390000E+03	9.676617E-18	1.289720E-18
6.400000E+03	9.729359E-18	1.293259E-18
6.410000E+03	9.783915E-18	1.296856E-18
6.420000E+03	9.840146E-18	1.300492E-18
6.430000E+03	9.898050E-18	1.304171E-18
6.440000E+03	9.957629E-18	1.307893E-18
6.450000E+03	1.001889E-17	1.311659E-18
6.460000E+03	1.008198E-17	1.315492E-18
6.470000E+03	1.014706E-17	1.319412E-18
6.480000E+03	1.021416E-17	1.323424E-18
6.490000E+03	1.028313E-17	1.327508E-18
6.500000E+03	1.035430E-17	1.331709E-18
6.510000E+03	1.042770E-17	1.336030E-18
6.520000E+03	1.050320E-17	1.340453E-18
6.530000E+03	1.058098E-17	1.345003E-18
6.540000E+03	1.066108E-17	1.349682E-18
6.550000E+03	1.074334E-17	1.354473E-18
6.560000E+03	1.082781E-17	1.359378E-18
6.570000E+03	1.091486E-17	1.364444E-18
6.580000E+03	1.100398E-17	1.369609E-18
6.590000E+03	1.109558E-17	1.374919E-18
6.600000E+03	1.118967E-17	1.380377E-18
6.610000E+03	1.128593E-17	1.385941E-18
6.620000E+03	1.138476E-17	1.391659E-18
6.630000E+03	1.148581E-17	1.397488E-18
6.640000E+03	1.158948E-17	1.403475E-18
6.650000E+03	1.169544E-17	1.409577E-18
6.660000E+03	1.180390E-17	1.415818E-18
6.670000E+03	1.191489E-17	1.422201E-18
6.680000E+03	1.202823E-17	1.428704E-18
6.690000E+03	1.214397E-17	1.435326E-18
6.700000E+03	1.226232E-17	1.442095E-18
6.710000E+03	1.238312E-17	1.448986E-18
6.720000E+03	1.250638E-17	1.456001E-18
6.730000E+03	1.263214E-17	1.463139E-18
6.740000E+03	1.276041E-17	1.470403E-18
6.750000E+03	1.289123E-17	1.477792E-18
6.760000E+03	1.302462E-17	1.485307E-18
6.770000E+03	1.316039E-17	1.492921E-18
6.780000E+03	1.329877E-17	1.500660E-18
6.790000E+03	1.343980E-17	1.508526E-18
6.800000E+03	1.358327E-17	1.516490E-18
6.810000E+03	1.372944E-17	1.524578E-18
6.820000E+03	1.387808E-17	1.532764E-18
6.830000E+03	1.402922E-17	1.541046E-18
6.840000E+03	1.418287E-17	1.549422E-18
6.850000E+03	1.433906E-17	1.557892E-18
6.860000E+03	1.449805E-17	1.566482E-18
6.870000E+03	1.465935E-17	1.575134E-18
6.880000E+03	1.482324E-17	1.583875E-18
6.890000E+03	1.498972E-17	1.592704E-18
6.900000E+03	1.515853E-17	1.601590E-18
6.910000E+03	1.532996E-17	1.610560E-18
6.920000E+03	1.550404E-17	1.619613E-18
6.930000E+03	1.568047E-17	1.628716E-18
6.940000E+03	1.585926E-17	1.637869E-18
6.950000E+03	1.604072E-17	1.647099E-18
6.960000E+03	1.622454E-17	1.656374E-18
6.970000E+03	1.641074E-17	1.665692E-18
6.980000E+03	1.659930E-17	1.675050E-18
6.990000E+03	1.679022E-17	1.684447E-18
7.000000E+03	1.698317E-17	1.693848E-18
7.010000E+03	1.717879E-17	1.703315E-18
7.020000E+03	1.737643E-17	1.712781E-18
7.030000E+03	1.757640E-17	1.722275E-18
7.040000E+03	1.777834E-17	1.731763E-18
7.050000E+03	1.798223E-17	1.741240E-18
7.060000E+03	1.818841E-17	1.750738E-18
7.070000E+03	1.839650E-17	1.760219E-18
7.080000E+03	1.860611E-17	1.769644E-18
7.090000E+03	1.881794E-17	1.779080E-18
7.100000E+03	1.903160E-17	1.788488E-18
7.110000E+03	1.924666E-17	1.797828E-18
7.120000E+03	1.946349E-17	1.807131E-18
7.130000E+03	1.968165E-17	1.816356E-18
7.140000E+03	1.990149E-17	1.825537E-18
7.150000E+03	2.012256E-17	1.834630E-18
7.160000E+03	2.034525E-17	1.843669E-18
7.170000E+03	2.056865E-17	1.852575E-18
7.180000E+03	2.079313E-17	1.861380E-18
7.190000E+03	2.101908E-17	1.870119E-18
7.200000E+03	2.124556E-17	1.878712E-18
7.210000E+03	2.147251E-17	1.887155E-18
7.220000E+03	2.170028E-17	1.895485E-18
7.230000E+03	2.192884E-17	1.903701E-18
7.240000E+03	2.215764E-17	1.911764E-18
7.250000E+03	2.238706E-17	1.919713E-18
7.260000E+03	2.261657E-17	1.927511E-18
7.270000E+03	2.284607E-17	1.935161E-18
7.280000E+03	2.307595E-17	1.942710E-18
7.290000E+03	2.330565E-17	1.950124E-18
7.300000E+03	2.353557E-17	1.957454E-18
7.310000E+03	2.376511E-17	1.964670E-18
7.320000E+03	2.399416E-17	1.971783E-18
7.330000E+03	2.422370E-17	1.978898E-18
7.340000E+03	2.445257E-17	1.985947E-18
7.350000E+03	2.468178E-17	1.993038E-18
7.360000E+03	2.491070E-17	2.000153E-18
7.370000E+03	2.513984E-17	2.007363E-18
7.380000E+03	2.536969E-17	2.014745E-18
7.390000E+03	2.559968E-17	2.022285E-18
7.400000E+03	2.583093E-17	2.030111E-18
7.410000E+03	2.606345E-17	2.038262E-18
7.420000E+03	2.629786E-17	2.046823E-18
7.430000E+03	2.653422E-17	2.055836E-18
7.440000E+03	2.677258E-17	2.065341E-18
7.450000E+03	2.701363E-17	2.075425E-18
7.460000E+03	2.725619E-17	2.086028E-18
7.470000E+03	2.750032E-17	2.097182E-18
7.480000E+03	2.774543E-17	2.108862E-18
7.490000E+03	2.799222E-17	2.121135E-18
7.500000E+03	2.824010E-17	2.133959E-18
7.510000E+03	2.848844E-17	2.147281E-18
7.520000E+03	2.873727E-17	2.161086E-18
7.530000E+03	2.898663E-17	2.175345E-18
7.540000E+03	2.923584E-17	2.189968E-18
7.550000E+03	2.948562E-17	2.204956E-18
7.560000E+03	2.973457E-17	2.220148E-18
7.570000E+03	2.998412E-17	2.235589E-18
7.580000E+03	3.023355E-17	2.251160E-18
7.590000E+03	3.048285E-17	2.266795E-18
7.600000E+03	3.073126E-17	2.282373E-18
7.610000E+03	3.097946E-17	2.297887E-18
7.620000E+03	3.122741E-17	2.313279E-18
7.630000E+03	3.147503E-17	2.328497E-18
7.640000E+03	3.172144E-17	2.343439E-18
7.650000E+03	3.196729E-17	2.358124E-18
7.660000E+03	3.221164E-17	2.372463E-18
7.670000E+03	3.245592E-17	2.386550E-18
7.680000E+03	3.269751E-17	2.400188E-18
7.690000E+03	3.293863E-17	2.413547E-18
7.700000E+03	3.317823E-17	2.426561E-18
7.710000E+03	3.341522E-17	2.439163E-18
7.720000E+03	3.365015E-17	2.451417E-18
7.730000E+03	3.388273E-17	2.463323E-18
7.740000E+03	3.411266E-17	2.474886E-18
7.750000E+03	3.433962E-17	2.486109E-18
7.760000E+03	3.456416E-17	2.497059E-18
