#wls	flux	fluxerr
1.600000E+03	1.095514E-16	1.061399E-16
1.640000E+03	1.133387E-16	1.079825E-16
1.680000E+03	1.170521E-16	1.095928E-16
1.720000E+03	1.206414E-16	1.109244E-16
1.760000E+03	1.240985E-16	1.119726E-16
1.800000E+03	1.273657E-16	1.126897E-16
1.840000E+03	1.304047E-16	1.130495E-16
1.880000E+03	1.331966E-16	1.130451E-16
1.920000E+03	1.356749E-16	1.126326E-16
1.960000E+03	1.378047E-16	1.117991E-16
2.000000E+03	1.395290E-16	1.105180E-16
2.040000E+03	1.408123E-16	1.087842E-16
2.080000E+03	1.415813E-16	1.065685E-16
2.120000E+03	1.417799E-16	1.038609E-16
2.160000E+03	1.413524E-16	1.006574E-16
2.200000E+03	1.402136E-16	9.693976E-17
2.240000E+03	1.382946E-16	9.270882E-17
2.280000E+03	1.355837E-16	8.800982E-17
2.320000E+03	1.321182E-16	8.292107E-17
2.360000E+03	1.280192E-16	7.756964E-17
2.400000E+03	1.233869E-16	7.206078E-17
2.440000E+03	1.183102E-16	6.648511E-17
2.480000E+03	1.128831E-16	6.092873E-17
2.520000E+03	1.071646E-16	5.545111E-17
2.560000E+03	1.012241E-16	5.011170E-17
2.600000E+03	9.512223E-17	4.495925E-17
2.640000E+03	8.892424E-17	4.003866E-17
2.680000E+03	8.268556E-17	3.538411E-17
2.720000E+03	7.646377E-17	3.102494E-17
2.760000E+03	7.031455E-17	2.698371E-17
2.800000E+03	6.429133E-17	2.327625E-17
2.840000E+03	5.844621E-17	1.991220E-17
2.880000E+03	5.283069E-17	1.689545E-17
2.920000E+03	4.749176E-17	1.422317E-17
2.960000E+03	4.247132E-17	1.188627E-17
3.000000E+03	3.780219E-17	9.869170E-18
3.010000E+03	3.669364E-17	9.412740E-18
3.020000E+03	3.560787E-17	8.974385E-18
3.030000E+03	3.454653E-17	8.554081E-18
3.040000E+03	3.350881E-17	8.151176E-18
3.050000E+03	3.249541E-17	7.765391E-18
3.060000E+03	3.150691E-17	7.396408E-18
3.070000E+03	3.054184E-17	7.043428E-18
3.080000E+03	2.960202E-17	6.706419E-18
3.090000E+03	2.868602E-17	6.384600E-18
3.100000E+03	2.779485E-17	6.077746E-18
3.110000E+03	2.692770E-17	5.785232E-18
3.120000E+03	2.608439E-17	5.506576E-18
3.130000E+03	2.526570E-17	5.241503E-18
3.140000E+03	2.447036E-17	4.989312E-18
3.150000E+03	2.369952E-17	4.749809E-18
3.160000E+03	2.295151E-17	4.522233E-18
3.170000E+03	2.222733E-17	4.306371E-18
3.180000E+03	2.152581E-17	4.101586E-18
3.190000E+03	2.084741E-17	3.907569E-18
3.200000E+03	2.019138E-17	3.723791E-18
3.210000E+03	1.955771E-17	3.549869E-18
3.220000E+03	1.894598E-17	3.385363E-18
3.230000E+03	1.835579E-17	3.229841E-18
3.240000E+03	1.778643E-17	3.082834E-18
3.250000E+03	1.723806E-17	2.944042E-18
3.260000E+03	1.670996E-17	2.813016E-18
3.270000E+03	1.620193E-17	2.689418E-18
3.280000E+03	1.571325E-17	2.572832E-18
3.290000E+03	1.524347E-17	2.462902E-18
3.300000E+03	1.479235E-17	2.359321E-18
3.310000E+03	1.435918E-17	2.261720E-18
3.320000E+03	1.394371E-17	2.169814E-18
3.330000E+03	1.354544E-17	2.083293E-18
3.340000E+03	1.316349E-17	2.001805E-18
3.350000E+03	1.279779E-17	1.925131E-18
3.360000E+03	1.244766E-17	1.852974E-18
3.370000E+03	1.211264E-17	1.785082E-18
3.380000E+03	1.179226E-17	1.721214E-18
3.390000E+03	1.148577E-17	1.661096E-18
3.400000E+03	1.119304E-17	1.604559E-18
3.410000E+03	1.091348E-17	1.551377E-18
3.420000E+03	1.064655E-17	1.501339E-18
3.430000E+03	1.039182E-17	1.454264E-18
3.440000E+03	1.014893E-17	1.409982E-18
3.450000E+03	9.917241E-18	1.368301E-18
3.460000E+03	9.696522E-18	1.329090E-18
3.470000E+03	9.486194E-18	1.292176E-18
3.480000E+03	9.285937E-18	1.257432E-18
3.490000E+03	9.095334E-18	1.224722E-18
3.500000E+03	8.913987E-18	1.193921E-18
3.510000E+03	8.741522E-18	1.164911E-18
3.520000E+03	8.577581E-18	1.137585E-18
3.530000E+03	8.421737E-18	1.111828E-18
3.540000E+03	8.273586E-18	1.087536E-18
3.550000E+03	8.132842E-18	1.064624E-18
3.560000E+03	7.999145E-18	1.043002E-18
3.570000E+03	7.872243E-18	1.022597E-18
3.580000E+03	7.751734E-18	1.003321E-18
3.590000E+03	7.637399E-18	9.851132E-19
3.600000E+03	7.528955E-18	9.679058E-19
3.610000E+03	7.426280E-18	9.516563E-19
3.620000E+03	7.329040E-18	9.362965E-19
3.630000E+03	7.237060E-18	9.217813E-19
3.640000E+03	7.149966E-18	9.080421E-19
3.650000E+03	7.067611E-18	8.950413E-19
3.660000E+03	6.989786E-18	8.827351E-19
3.670000E+03	6.916292E-18	8.710826E-19
3.680000E+03	6.847002E-18	8.600533E-19
3.690000E+03	6.781790E-18	8.496184E-19
3.700000E+03	6.720475E-18	8.397428E-19
3.710000E+03	6.663001E-18	8.304086E-19
3.720000E+03	6.609192E-18	8.215835E-19
3.730000E+03	6.559053E-18	8.132587E-19
3.740000E+03	6.512470E-18	8.054113E-19
3.750000E+03	6.469330E-18	7.980191E-19
3.760000E+03	6.429579E-18	7.910678E-19
3.770000E+03	6.393218E-18	7.845504E-19
3.780000E+03	6.360133E-18	7.784464E-19
3.790000E+03	6.330324E-18	7.727491E-19
3.800000E+03	6.303678E-18	7.674390E-19
3.810000E+03	6.280141E-18	7.625036E-19
3.820000E+03	6.259708E-18	7.579369E-19
3.830000E+03	6.242375E-18	7.537331E-19
3.840000E+03	6.228032E-18	7.498738E-19
3.850000E+03	6.216725E-18	7.463596E-19
3.860000E+03	6.208296E-18	7.431664E-19
3.870000E+03	6.202840E-18	7.403010E-19
3.880000E+03	6.200199E-18	7.377399E-19
3.890000E+03	6.200469E-18	7.354898E-19
3.900000E+03	6.203542E-18	7.335332E-19
3.910000E+03	6.209412E-18	7.318648E-19
3.920000E+03	6.218022E-18	7.304736E-19
3.930000E+03	6.229367E-18	7.293542E-19
3.940000E+03	6.243390E-18	7.284956E-19
3.950000E+03	6.260135E-18	7.278984E-19
3.960000E+03	6.279497E-18	7.275456E-19
3.970000E+03	6.301468E-18	7.274322E-19
3.980000E+03	6.325995E-18	7.275473E-19
3.990000E+03	6.353121E-18	7.278917E-19
4.000000E+03	6.382793E-18	7.284544E-19
4.010000E+03	6.414954E-18	7.292250E-19
4.020000E+03	6.449552E-18	7.301928E-19
4.030000E+03	6.486633E-18	7.313591E-19
4.040000E+03	6.526094E-18	7.327079E-19
4.050000E+03	6.567983E-18	7.342406E-19
4.060000E+03	6.612197E-18	7.359419E-19
4.070000E+03	6.658736E-18	7.378078E-19
4.080000E+03	6.707600E-18	7.398350E-19
4.090000E+03	6.758740E-18	7.420146E-19
4.100000E+03	6.812105E-18	7.443379E-19
4.110000E+03	6.867646E-18	7.467969E-19
4.120000E+03	6.925421E-18	7.493953E-19
4.130000E+03	6.985328E-18	7.521199E-19
4.140000E+03	7.047374E-18	7.549699E-19
4.150000E+03	7.111457E-18	7.579328E-19
4.160000E+03	7.177585E-18	7.610087E-19
4.170000E+03	7.245767E-18	7.641982E-19
4.180000E+03	7.315901E-18	7.674908E-19
4.190000E+03	7.387999E-18	7.708883E-19
4.200000E+03	7.461957E-18	7.743813E-19
4.210000E+03	7.537786E-18	7.779731E-19
4.220000E+03	7.615380E-18	7.816556E-19
4.230000E+03	7.694753E-18	7.854334E-19
4.240000E+03	7.775795E-18	7.892999E-19
4.250000E+03	7.858458E-18	7.932549E-19
4.260000E+03	7.942628E-18	7.972928E-19
4.270000E+03	8.028314E-18	8.014209E-19
4.280000E+03	8.115399E-18	8.056347E-19
4.290000E+03	8.203824E-18	8.099361E-19
4.300000E+03	8.293467E-18	8.143208E-19
4.310000E+03	8.384194E-18	8.187846E-19
4.320000E+03	8.475939E-18	8.233294E-19
4.330000E+03	8.568630E-18	8.279570E-19
4.340000E+03	8.662121E-18	8.326619E-19
4.350000E+03	8.756334E-18	8.374445E-19
4.360000E+03	8.851112E-18	8.422972E-19
4.370000E+03	8.946438E-18	8.472249E-19
4.380000E+03	9.042219E-18	8.522243E-19
4.390000E+03	9.138582E-18	8.573115E-19
4.400000E+03	9.235435E-18	8.624802E-19
4.410000E+03	9.332835E-18	8.677368E-19
4.420000E+03	9.430766E-18	8.730790E-19
4.430000E+03	9.529369E-18	8.785178E-19
4.440000E+03	9.628556E-18	8.840415E-19
4.450000E+03	9.728318E-18	8.896447E-19
4.460000E+03	9.828728E-18	8.953283E-19
4.470000E+03	9.929783E-18	9.010856E-19
4.480000E+03	1.003148E-17	9.069095E-19
4.490000E+03	1.013375E-17	9.127851E-19
4.500000E+03	1.023666E-17	9.187129E-19
4.510000E+03	1.034014E-17	9.246781E-19
4.520000E+03	1.044421E-17	9.306746E-19
4.530000E+03	1.054887E-17	9.366966E-19
4.540000E+03	1.065395E-17	9.427234E-19
4.550000E+03	1.075957E-17	9.487592E-19
4.560000E+03	1.086565E-17	9.547931E-19
4.570000E+03	1.097222E-17	9.608238E-19
4.580000E+03	1.107912E-17	9.668343E-19
4.590000E+03	1.118646E-17	9.728339E-19
4.600000E+03	1.129409E-17	9.788080E-19
4.610000E+03	1.140216E-17	9.847684E-19
4.620000E+03	1.151050E-17	9.907025E-19
4.630000E+03	1.161916E-17	9.966157E-19
4.640000E+03	1.172809E-17	1.002506E-18
4.650000E+03	1.183746E-17	1.008388E-18
4.660000E+03	1.194712E-17	1.014254E-18
4.670000E+03	1.205726E-17	1.020120E-18
4.680000E+03	1.216785E-17	1.025987E-18
4.690000E+03	1.227887E-17	1.031855E-18
4.700000E+03	1.239052E-17	1.037742E-18
4.710000E+03	1.250268E-17	1.043641E-18
4.720000E+03	1.261545E-17	1.049561E-18
4.730000E+03	1.272873E-17	1.055493E-18
4.740000E+03	1.284262E-17	1.061447E-18
4.750000E+03	1.295689E-17	1.067403E-18
4.760000E+03	1.307166E-17	1.073373E-18
4.770000E+03	1.318681E-17	1.079347E-18
4.780000E+03	1.330248E-17	1.085335E-18
4.790000E+03	1.341853E-17	1.091329E-18
4.800000E+03	1.353499E-17	1.097329E-18
4.810000E+03	1.365184E-17	1.103339E-18
4.820000E+03	1.376910E-17	1.109361E-18
4.830000E+03	1.388678E-17	1.115398E-18
4.840000E+03	1.400473E-17	1.121446E-18
4.850000E+03	1.412310E-17	1.127518E-18
4.860000E+03	1.424189E-17	1.133620E-18
4.870000E+03	1.436095E-17	1.139748E-18
4.880000E+03	1.448028E-17	1.145906E-18
4.890000E+03	1.460000E-17	1.152112E-18
4.900000E+03	1.471983E-17	1.158349E-18
4.910000E+03	1.484001E-17	1.164641E-18
4.920000E+03	1.496038E-17	1.170982E-18
4.930000E+03	1.508076E-17	1.177362E-18
4.940000E+03	1.520126E-17	1.183790E-18
4.950000E+03	1.532183E-17	1.190266E-18
4.960000E+03	1.544226E-17	1.196773E-18
4.970000E+03	1.556262E-17	1.203316E-18
4.980000E+03	1.568255E-17	1.209864E-18
4.990000E+03	1.580225E-17	1.216427E-18
5.000000E+03	1.592148E-17	1.222983E-18
5.010000E+03	1.603996E-17	1.229505E-18
5.020000E+03	1.615773E-17	1.235987E-18
5.030000E+03	1.627450E-17	1.242401E-18
5.040000E+03	1.639012E-17	1.248727E-18
5.050000E+03	1.650443E-17	1.254946E-18
5.060000E+03	1.661726E-17	1.261037E-18
5.070000E+03	1.672827E-17	1.266968E-18
5.080000E+03	1.683742E-17	1.272729E-18
5.090000E+03	1.694436E-17	1.278290E-18
5.100000E+03	1.704887E-17	1.283629E-18
5.110000E+03	1.715057E-17	1.288716E-18
5.120000E+03	1.724938E-17	1.293545E-18
5.130000E+03	1.734475E-17	1.298075E-18
5.140000E+03	1.743676E-17	1.302317E-18
5.150000E+03	1.752483E-17	1.306232E-18
5.160000E+03	1.760889E-17	1.309822E-18
5.170000E+03	1.768849E-17	1.313067E-18
5.180000E+03	1.776323E-17	1.315947E-18
5.190000E+03	1.783301E-17	1.318471E-18
5.200000E+03	1.789740E-17	1.320626E-18
5.210000E+03	1.795616E-17	1.322412E-18
5.220000E+03	1.800902E-17	1.323831E-18
5.230000E+03	1.805558E-17	1.324877E-18
5.240000E+03	1.809558E-17	1.325555E-18
5.250000E+03	1.812864E-17	1.325860E-18
5.260000E+03	1.815470E-17	1.325814E-18
5.270000E+03	1.817339E-17	1.325413E-18
5.280000E+03	1.818453E-17	1.324668E-18
5.290000E+03	1.818796E-17	1.323589E-18
5.300000E+03	1.818334E-17	1.322174E-18
5.310000E+03	1.817059E-17	1.320433E-18
5.320000E+03	1.814960E-17	1.318377E-18
5.330000E+03	1.812034E-17	1.316017E-18
5.340000E+03	1.808261E-17	1.313350E-18
5.350000E+03	1.803664E-17	1.310402E-18
5.360000E+03	1.798249E-17	1.307181E-18
5.370000E+03	1.792029E-17	1.303701E-18
5.380000E+03	1.785002E-17	1.299961E-18
5.390000E+03	1.777227E-17	1.295997E-18
5.400000E+03	1.768713E-17	1.291812E-18
5.410000E+03	1.759528E-17	1.287444E-18
5.420000E+03	1.749691E-17	1.282896E-18
5.430000E+03	1.739262E-17	1.278196E-18
5.440000E+03	1.728287E-17	1.273361E-18
5.450000E+03	1.716854E-17	1.268435E-18
5.460000E+03	1.704999E-17	1.263424E-18
5.470000E+03	1.692765E-17	1.258334E-18
5.480000E+03	1.680182E-17	1.253163E-18
5.490000E+03	1.667315E-17	1.247932E-18
5.500000E+03	1.654202E-17	1.242639E-18
5.510000E+03	1.640896E-17	1.237297E-18
5.520000E+03	1.627454E-17	1.231918E-18
5.530000E+03	1.613935E-17	1.226516E-18
5.540000E+03	1.600395E-17	1.221106E-18
5.550000E+03	1.586909E-17	1.215715E-18
5.560000E+03	1.573534E-17	1.210360E-18
5.570000E+03	1.560355E-17	1.205082E-18
5.580000E+03	1.547410E-17	1.199884E-18
5.590000E+03	1.534795E-17	1.194822E-18
5.600000E+03	1.522541E-17	1.189900E-18
5.610000E+03	1.510722E-17	1.185161E-18
5.620000E+03	1.499408E-17	1.180647E-18
5.630000E+03	1.488618E-17	1.176362E-18
5.640000E+03	1.478443E-17	1.172373E-18
5.650000E+03	1.468909E-17	1.168697E-18
5.660000E+03	1.460037E-17	1.165349E-18
5.670000E+03	1.451907E-17	1.162394E-18
5.680000E+03	1.444516E-17	1.159833E-18
5.690000E+03	1.437903E-17	1.157705E-18
5.700000E+03	1.432106E-17	1.156045E-18
5.710000E+03	1.427142E-17	1.154877E-18
5.720000E+03	1.423026E-17	1.154220E-18
5.730000E+03	1.419771E-17	1.154095E-18
5.740000E+03	1.417403E-17	1.154530E-18
5.750000E+03	1.415945E-17	1.155552E-18
5.760000E+03	1.415374E-17	1.157149E-18
5.770000E+03	1.415743E-17	1.159369E-18
5.780000E+03	1.417027E-17	1.162194E-18
5.790000E+03	1.419261E-17	1.165654E-18
5.800000E+03	1.422434E-17	1.169739E-18
5.810000E+03	1.426566E-17	1.174462E-18
5.820000E+03	1.431661E-17	1.179821E-18
5.830000E+03	1.437739E-17	1.185824E-18
5.840000E+03	1.444789E-17	1.192452E-18
5.850000E+03	1.452813E-17	1.199695E-18
5.860000E+03	1.461833E-17	1.207555E-18
5.870000E+03	1.471866E-17	1.216033E-18
5.880000E+03	1.482884E-17	1.225089E-18
5.890000E+03	1.494922E-17	1.234734E-18
5.900000E+03	1.507965E-17	1.244938E-18
5.910000E+03	1.522030E-17	1.255697E-18
5.920000E+03	1.537118E-17	1.266993E-18
5.930000E+03	1.553210E-17	1.278794E-18
5.940000E+03	1.570320E-17	1.291095E-18
5.950000E+03	1.588442E-17	1.303877E-18
5.960000E+03	1.607552E-17	1.317107E-18
5.970000E+03	1.627675E-17	1.330798E-18
5.980000E+03	1.648764E-17	1.344901E-18
5.990000E+03	1.670821E-17	1.359417E-18
6.000000E+03	1.693827E-17	1.374330E-18
6.010000E+03	1.717742E-17	1.389611E-18
6.020000E+03	1.742559E-17	1.405265E-18
6.030000E+03	1.768208E-17	1.421251E-18
6.040000E+03	1.794695E-17	1.437592E-18
6.050000E+03	1.821939E-17	1.454253E-18
6.060000E+03	1.849919E-17	1.471248E-18
6.070000E+03	1.878564E-17	1.488560E-18
6.080000E+03	1.907822E-17	1.506195E-18
6.090000E+03	1.937610E-17	1.524140E-18
6.100000E+03	1.967844E-17	1.542387E-18
6.110000E+03	1.998477E-17	1.560965E-18
6.120000E+03	2.029366E-17	1.579832E-18
6.130000E+03	2.060457E-17	1.599020E-18
6.140000E+03	2.091619E-17	1.618505E-18
6.150000E+03	2.122769E-17	1.638298E-18
6.160000E+03	2.153716E-17	1.658327E-18
6.170000E+03	2.184395E-17	1.678616E-18
6.180000E+03	2.214637E-17	1.699099E-18
6.190000E+03	2.244327E-17	1.719739E-18
6.200000E+03	2.273325E-17	1.740464E-18
6.210000E+03	2.301615E-17	1.761271E-18
6.220000E+03	2.329220E-17	1.782173E-18
6.230000E+03	2.356178E-17	1.803176E-18
6.240000E+03	2.382535E-17	1.824286E-18
6.250000E+03	2.408259E-17	1.845434E-18
6.260000E+03	2.433479E-17	1.866672E-18
6.270000E+03	2.458146E-17	1.887906E-18
6.280000E+03	2.482342E-17	1.909144E-18
6.290000E+03	2.506127E-17	1.930372E-18
6.300000E+03	2.529466E-17	1.951504E-18
6.310000E+03	2.552429E-17	1.972533E-18
6.320000E+03	2.575055E-17	1.993434E-18
6.330000E+03	2.597389E-17	2.014188E-18
6.340000E+03	2.619408E-17	2.034727E-18
6.350000E+03	2.641160E-17	2.055041E-18
6.360000E+03	2.662661E-17	2.075101E-18
6.370000E+03	2.683927E-17	2.094883E-18
6.380000E+03	2.704937E-17	2.114336E-18
6.390000E+03	2.725671E-17	2.133416E-18
6.400000E+03	2.746103E-17	2.152080E-18
6.410000E+03	2.766249E-17	2.170320E-18
6.420000E+03	2.786084E-17	2.188103E-18
6.430000E+03	2.805499E-17	2.205330E-18
6.440000E+03	2.824627E-17	2.222100E-18
6.450000E+03	2.843483E-17	2.238419E-18
6.460000E+03	2.862123E-17	2.254332E-18
6.470000E+03	2.880649E-17	2.269921E-18
6.480000E+03	2.899036E-17	2.285170E-18
6.490000E+03	2.917389E-17	2.300169E-18
6.500000E+03	2.935728E-17	2.314940E-18
6.510000E+03	2.954118E-17	2.329543E-18
6.520000E+03	2.972487E-17	2.343932E-18
6.530000E+03	2.990992E-17	2.358240E-18
6.540000E+03	3.009559E-17	2.372419E-18
6.550000E+03	3.028253E-17	2.386530E-18
6.560000E+03	3.047094E-17	2.400598E-18
6.570000E+03	3.066048E-17	2.414608E-18
6.580000E+03	3.085182E-17	2.428618E-18
6.590000E+03	3.104510E-17	2.442650E-18
6.600000E+03	3.123999E-17	2.456684E-18
6.610000E+03	3.143661E-17	2.470737E-18
6.620000E+03	3.163508E-17	2.484825E-18
6.630000E+03	3.183604E-17	2.499003E-18
6.640000E+03	3.203856E-17	2.513202E-18
6.650000E+03	3.224324E-17	2.527475E-18
6.660000E+03	3.245019E-17	2.541833E-18
6.670000E+03	3.265893E-17	2.556241E-18
6.680000E+03	3.287008E-17	2.570751E-18
6.690000E+03	3.308313E-17	2.585324E-18
6.700000E+03	3.329871E-17	2.600010E-18
6.710000E+03	3.351572E-17	2.614721E-18
6.720000E+03	3.373473E-17	2.629505E-18
6.730000E+03	3.395638E-17	2.644406E-18
6.740000E+03	3.417949E-17	2.659330E-18
6.750000E+03	3.440468E-17	2.674321E-18
6.760000E+03	3.463132E-17	2.689325E-18
6.770000E+03	3.486002E-17	2.704381E-18
6.780000E+03	3.509015E-17	2.719434E-18
6.790000E+03	3.532169E-17	2.734471E-18
6.800000E+03	3.555522E-17	2.749529E-18
6.810000E+03	3.578945E-17	2.764495E-18
6.820000E+03	3.602560E-17	2.779452E-18
6.830000E+03	3.626233E-17	2.794284E-18
6.840000E+03	3.650089E-17	2.809074E-18
6.850000E+03	3.673987E-17	2.823704E-18
6.860000E+03	3.697919E-17	2.838154E-18
6.870000E+03	3.721942E-17	2.852459E-18
6.880000E+03	3.746047E-17	2.866603E-18
6.890000E+03	3.770083E-17	2.880464E-18
6.900000E+03	3.794179E-17	2.894135E-18
6.910000E+03	3.818250E-17	2.907548E-18
6.920000E+03	3.842355E-17	2.920748E-18
6.930000E+03	3.866335E-17	2.933616E-18
6.940000E+03	3.890248E-17	2.946200E-18
6.950000E+03	3.914078E-17	2.958493E-18
6.960000E+03	3.937736E-17	2.970437E-18
6.970000E+03	3.961279E-17	2.982085E-18
6.980000E+03	3.984694E-17	2.993437E-18
6.990000E+03	4.007889E-17	3.004437E-18
7.000000E+03	4.030848E-17	3.015086E-18
7.010000E+03	4.053556E-17	3.025387E-18
7.020000E+03	4.076080E-17	3.035401E-18
7.030000E+03	4.098247E-17	3.045013E-18
7.040000E+03	4.120208E-17	3.054347E-18
7.050000E+03	4.141788E-17	3.063286E-18
7.060000E+03	4.163061E-17	3.071892E-18
7.070000E+03	4.183936E-17	3.080107E-18
7.080000E+03	4.204488E-17	3.087992E-18
7.090000E+03	4.224714E-17	3.095550E-18
7.100000E+03	4.244526E-17	3.102716E-18
7.110000E+03	4.263835E-17	3.109426E-18
7.120000E+03	4.282810E-17	3.115802E-18
7.130000E+03	4.301365E-17	3.121775E-18
7.140000E+03	4.319503E-17	3.127341E-18
7.150000E+03	4.337225E-17	3.132492E-18
7.160000E+03	4.354445E-17	3.137156E-18
7.170000E+03	4.371257E-17	3.141388E-18
7.180000E+03	4.387575E-17	3.145115E-18
7.190000E+03	4.403403E-17	3.148327E-18
7.200000E+03	4.418838E-17	3.151080E-18
7.210000E+03	4.433795E-17	3.153301E-18
7.220000E+03	4.448370E-17	3.155049E-18
7.230000E+03	4.462384E-17	3.156187E-18
7.240000E+03	4.475934E-17	3.156777E-18
7.250000E+03	4.489025E-17	3.156821E-18
7.260000E+03	4.501660E-17	3.156323E-18
7.270000E+03	4.513844E-17	3.155290E-18
7.280000E+03	4.525579E-17	3.153736E-18
7.290000E+03	4.536772E-17	3.151613E-18
7.300000E+03	4.547519E-17	3.149012E-18
7.310000E+03	4.557823E-17	3.145965E-18
7.320000E+03	4.567687E-17	3.142512E-18
7.330000E+03	4.577011E-17	3.138630E-18
7.340000E+03	4.585896E-17	3.134441E-18
7.350000E+03	4.594444E-17	3.130077E-18
7.360000E+03	4.602458E-17	3.125471E-18
7.370000E+03	4.610041E-17	3.120770E-18
7.380000E+03	4.617196E-17	3.116061E-18
7.390000E+03	4.624032E-17	3.111508E-18
7.400000E+03	4.630452E-17	3.107141E-18
7.410000E+03	4.636567E-17	3.103135E-18
7.420000E+03	4.642491E-17	3.099671E-18
7.430000E+03	4.648131E-17	3.096790E-18
7.440000E+03	4.653711E-17	3.094742E-18
7.450000E+03	4.659032E-17	3.093497E-18
7.460000E+03	4.664215E-17	3.093223E-18
7.470000E+03	4.669166E-17	3.093942E-18
7.480000E+03	4.674008E-17	3.095801E-18
7.490000E+03	4.678539E-17	3.098715E-18
7.500000E+03	4.682880E-17	3.102793E-18
7.510000E+03	4.687044E-17	3.108049E-18
7.520000E+03	4.690935E-17	3.114396E-18
7.530000E+03	4.694785E-17	3.121935E-18
7.540000E+03	4.698388E-17	3.130455E-18
7.550000E+03	4.701865E-17	3.139940E-18
7.560000E+03	4.705116E-17	3.150214E-18
7.570000E+03	4.708261E-17	3.161235E-18
7.580000E+03	4.711195E-17	3.172805E-18
7.590000E+03	4.714037E-17	3.184874E-18
7.600000E+03	4.716679E-17	3.197242E-18
7.610000E+03	4.719124E-17	3.209791E-18
7.620000E+03	4.721486E-17	3.222490E-18
7.630000E+03	4.723651E-17	3.235162E-18
7.640000E+03	4.725618E-17	3.247724E-18
7.650000E+03	4.727497E-17	3.260184E-18
7.660000E+03	4.729169E-17	3.272408E-18
7.670000E+03	4.730743E-17	3.284436E-18
7.680000E+03	4.731980E-17	3.296080E-18
7.690000E+03	4.733101E-17	3.307487E-18
7.700000E+03	4.734098E-17	3.318652E-18
7.710000E+03	4.734840E-17	3.329500E-18
7.720000E+03	4.735434E-17	3.340125E-18
7.730000E+03	4.735745E-17	3.350459E-18
7.740000E+03	4.735759E-17	3.360523E-18
7.750000E+03	4.735577E-17	3.370420E-18
7.760000E+03	4.735183E-17	3.380171E-18
