#wls	flux	fluxerr
1.600000E+03	1.575341E-16	1.526525E-16
1.640000E+03	1.623045E-16	1.546636E-16
1.680000E+03	1.668119E-16	1.562172E-16
1.720000E+03	1.710260E-16	1.572940E-16
1.760000E+03	1.748467E-16	1.578141E-16
1.800000E+03	1.782696E-16	1.577905E-16
1.840000E+03	1.811898E-16	1.571498E-16
1.880000E+03	1.835824E-16	1.558954E-16
1.920000E+03	1.853893E-16	1.540063E-16
1.960000E+03	1.865249E-16	1.514445E-16
2.000000E+03	1.869674E-16	1.482308E-16
2.040000E+03	1.866562E-16	1.443589E-16
2.080000E+03	1.855406E-16	1.398365E-16
2.120000E+03	1.835828E-16	1.346863E-16
2.160000E+03	1.807371E-16	1.289300E-16
2.200000E+03	1.769372E-16	1.225804E-16
2.240000E+03	1.721233E-16	1.156619E-16
2.280000E+03	1.663093E-16	1.082531E-16
2.320000E+03	1.596141E-16	1.004992E-16
2.360000E+03	1.522528E-16	9.259476E-17
2.400000E+03	1.443949E-16	8.468974E-17
2.440000E+03	1.361931E-16	7.691030E-17
2.480000E+03	1.277548E-16	6.934448E-17
2.520000E+03	1.191936E-16	6.207390E-17
2.560000E+03	1.106002E-16	5.515800E-17
2.600000E+03	1.020697E-16	4.864970E-17
2.640000E+03	9.367836E-17	4.258389E-17
2.680000E+03	8.549847E-17	3.698612E-17
2.720000E+03	7.759694E-17	3.187220E-17
2.760000E+03	7.002675E-17	2.724563E-17
2.800000E+03	6.283629E-17	2.310256E-17
2.840000E+03	5.606546E-17	1.943108E-17
2.880000E+03	4.974935E-17	1.621352E-17
2.920000E+03	4.391685E-17	1.342677E-17
2.960000E+03	3.858679E-17	1.104213E-17
3.000000E+03	3.376789E-17	9.026582E-18
3.010000E+03	3.264280E-17	8.576122E-18
3.020000E+03	3.154866E-17	8.145693E-18
3.030000E+03	3.048645E-17	7.735007E-18
3.040000E+03	2.945431E-17	7.343049E-18
3.050000E+03	2.845306E-17	6.969509E-18
3.060000E+03	2.748216E-17	6.613721E-18
3.070000E+03	2.654158E-17	6.275166E-18
3.080000E+03	2.562963E-17	5.952938E-18
3.090000E+03	2.474736E-17	5.646786E-18
3.100000E+03	2.389310E-17	5.355843E-18
3.110000E+03	2.306723E-17	5.079722E-18
3.120000E+03	2.226910E-17	4.817806E-18
3.130000E+03	2.149762E-17	4.569410E-18
3.140000E+03	2.075302E-17	4.334138E-18
3.150000E+03	2.003424E-17	4.111335E-18
3.160000E+03	1.934102E-17	3.900530E-18
3.170000E+03	1.867271E-17	3.701181E-18
3.180000E+03	1.802869E-17	3.512767E-18
3.190000E+03	1.740863E-17	3.334842E-18
3.200000E+03	1.681189E-17	3.166906E-18
3.210000E+03	1.623755E-17	3.008429E-18
3.220000E+03	1.568559E-17	2.859053E-18
3.230000E+03	1.515509E-17	2.718277E-18
3.240000E+03	1.464573E-17	2.585715E-18
3.250000E+03	1.415687E-17	2.460943E-18
3.260000E+03	1.368771E-17	2.343519E-18
3.270000E+03	1.323810E-17	2.233128E-18
3.280000E+03	1.280703E-17	2.129324E-18
3.290000E+03	1.239433E-17	2.031813E-18
3.300000E+03	1.199940E-17	1.940245E-18
3.310000E+03	1.162132E-17	1.854227E-18
3.320000E+03	1.125988E-17	1.773499E-18
3.330000E+03	1.091450E-17	1.697753E-18
3.340000E+03	1.058448E-17	1.626674E-18
3.350000E+03	1.026929E-17	1.559986E-18
3.360000E+03	9.968414E-18	1.497428E-18
3.370000E+03	9.681332E-18	1.438751E-18
3.380000E+03	9.407548E-18	1.383721E-18
3.390000E+03	9.146575E-18	1.332115E-18
3.400000E+03	8.897820E-18	1.283706E-18
3.410000E+03	8.660724E-18	1.238282E-18
3.420000E+03	8.435075E-18	1.195692E-18
3.430000E+03	8.220126E-18	1.155718E-18
3.440000E+03	8.015586E-18	1.118213E-18
3.450000E+03	7.820970E-18	1.083015E-18
3.460000E+03	7.635911E-18	1.049983E-18
3.470000E+03	7.459876E-18	1.018961E-18
3.480000E+03	7.292456E-18	9.898206E-19
3.490000E+03	7.133345E-18	9.624492E-19
3.500000E+03	6.982089E-18	9.367227E-19
3.510000E+03	6.838418E-18	9.125468E-19
3.520000E+03	6.701775E-18	8.897942E-19
3.530000E+03	6.571938E-18	8.683866E-19
3.540000E+03	6.448482E-18	8.482236E-19
3.550000E+03	6.331081E-18	8.292221E-19
3.560000E+03	6.219431E-18	8.113050E-19
3.570000E+03	6.113122E-18	7.943853E-19
3.580000E+03	6.012018E-18	7.784146E-19
3.590000E+03	5.915809E-18	7.633243E-19
3.600000E+03	5.824205E-18	7.490512E-19
3.610000E+03	5.737104E-18	7.355585E-19
3.620000E+03	5.654185E-18	7.227833E-19
3.630000E+03	5.575258E-18	7.106811E-19
3.640000E+03	5.500140E-18	6.992104E-19
3.650000E+03	5.428660E-18	6.883322E-19
3.660000E+03	5.360654E-18	6.780102E-19
3.670000E+03	5.295965E-18	6.682101E-19
3.680000E+03	5.234491E-18	6.589057E-19
3.690000E+03	5.176133E-18	6.500720E-19
3.700000E+03	5.120748E-18	6.416799E-19
3.710000E+03	5.068375E-18	6.337237E-19
3.720000E+03	5.018828E-18	6.261707E-19
3.730000E+03	4.972101E-18	6.190111E-19
3.740000E+03	4.928099E-18	6.122250E-19
3.750000E+03	4.886770E-18	6.057986E-19
3.760000E+03	4.848143E-18	5.997287E-19
3.770000E+03	4.812039E-18	5.939871E-19
3.780000E+03	4.778487E-18	5.885717E-19
3.790000E+03	4.747468E-18	5.834756E-19
3.800000E+03	4.718847E-18	5.786775E-19
3.810000E+03	4.692648E-18	5.741764E-19
3.820000E+03	4.668849E-18	5.699664E-19
3.830000E+03	4.647356E-18	5.660327E-19
3.840000E+03	4.628111E-18	5.623660E-19
3.850000E+03	4.611171E-18	5.589705E-19
3.860000E+03	4.596403E-18	5.558284E-19
3.870000E+03	4.583826E-18	5.529401E-19
3.880000E+03	4.573382E-18	5.502973E-19
3.890000E+03	4.565053E-18	5.478965E-19
3.900000E+03	4.558819E-18	5.457343E-19
3.910000E+03	4.554589E-18	5.437989E-19
3.920000E+03	4.552347E-18	5.420873E-19
3.930000E+03	4.552109E-18	5.406010E-19
3.940000E+03	4.553825E-18	5.393331E-19
3.950000E+03	4.557440E-18	5.382766E-19
3.960000E+03	4.562940E-18	5.374290E-19
3.970000E+03	4.570275E-18	5.367837E-19
3.980000E+03	4.579430E-18	5.363383E-19
3.990000E+03	4.590393E-18	5.360903E-19
4.000000E+03	4.603150E-18	5.360374E-19
4.010000E+03	4.617619E-18	5.361688E-19
4.020000E+03	4.633790E-18	5.364823E-19
4.030000E+03	4.651652E-18	5.369753E-19
4.040000E+03	4.671199E-18	5.376456E-19
4.050000E+03	4.692385E-18	5.384865E-19
4.060000E+03	4.715168E-18	5.394915E-19
4.070000E+03	4.739544E-18	5.406582E-19
4.080000E+03	4.765469E-18	5.419799E-19
4.090000E+03	4.792940E-18	5.434541E-19
4.100000E+03	4.821917E-18	5.450740E-19
4.110000E+03	4.852397E-18	5.468371E-19
4.120000E+03	4.884341E-18	5.487364E-19
4.130000E+03	4.917709E-18	5.507651E-19
4.140000E+03	4.952501E-18	5.529205E-19
4.150000E+03	4.988678E-18	5.551955E-19
4.160000E+03	5.026240E-18	5.575873E-19
4.170000E+03	5.065112E-18	5.600845E-19
4.180000E+03	5.105293E-18	5.626844E-19
4.190000E+03	5.146707E-18	5.653755E-19
4.200000E+03	5.189395E-18	5.681594E-19
4.210000E+03	5.233279E-18	5.710248E-19
4.220000E+03	5.278361E-18	5.739691E-19
4.230000E+03	5.324522E-18	5.769766E-19
4.240000E+03	5.371804E-18	5.800495E-19
4.250000E+03	5.420085E-18	5.831721E-19
4.260000E+03	5.469406E-18	5.863470E-19
4.270000E+03	5.519643E-18	5.895588E-19
4.280000E+03	5.570710E-18	5.927965E-19
4.290000E+03	5.622648E-18	5.960631E-19
4.300000E+03	5.675282E-18	5.993385E-19
4.310000E+03	5.728654E-18	6.026260E-19
4.320000E+03	5.782583E-18	6.059052E-19
4.330000E+03	5.837110E-18	6.091795E-19
4.340000E+03	5.892140E-18	6.124379E-19
4.350000E+03	5.947576E-18	6.156693E-19
4.360000E+03	6.003412E-18	6.188720E-19
4.370000E+03	6.059594E-18	6.220396E-19
4.380000E+03	6.116167E-18	6.251754E-19
4.390000E+03	6.173030E-18	6.282677E-19
4.400000E+03	6.230279E-18	6.313250E-19
4.410000E+03	6.287913E-18	6.343458E-19
4.420000E+03	6.345936E-18	6.373286E-19
4.430000E+03	6.404351E-18	6.402722E-19
4.440000E+03	6.463214E-18	6.431809E-19
4.450000E+03	6.522481E-18	6.460488E-19
4.460000E+03	6.582213E-18	6.488809E-19
4.470000E+03	6.642419E-18	6.516776E-19
4.480000E+03	6.703113E-18	6.544397E-19
4.490000E+03	6.764251E-18	6.571634E-19
4.500000E+03	6.825846E-18	6.598508E-19
4.510000E+03	6.887854E-18	6.624995E-19
4.520000E+03	6.950346E-18	6.651187E-19
4.530000E+03	7.013220E-18	6.677019E-19
4.540000E+03	7.076490E-18	6.702545E-19
4.550000E+03	7.140172E-18	6.727828E-19
4.560000E+03	7.204161E-18	6.752823E-19
4.570000E+03	7.268534E-18	6.777662E-19
4.580000E+03	7.333185E-18	6.802311E-19
4.590000E+03	7.398135E-18	6.826853E-19
4.600000E+03	7.463275E-18	6.851254E-19
4.610000E+03	7.528692E-18	6.875657E-19
4.620000E+03	7.594347E-18	6.900083E-19
4.630000E+03	7.660136E-18	6.924489E-19
4.640000E+03	7.726086E-18	6.948943E-19
4.650000E+03	7.792229E-18	6.973507E-19
4.660000E+03	7.858535E-18	6.998173E-19
4.670000E+03	7.924900E-18	7.022860E-19
4.680000E+03	7.991508E-18	7.047728E-19
4.690000E+03	8.058405E-18	7.072805E-19
4.700000E+03	8.125501E-18	7.097985E-19
4.710000E+03	8.192849E-18	7.123284E-19
4.720000E+03	8.260507E-18	7.148710E-19
4.730000E+03	8.328315E-18	7.174078E-19
4.740000E+03	8.396333E-18	7.199392E-19
4.750000E+03	8.464474E-18	7.224527E-19
4.760000E+03	8.532803E-18	7.249492E-19
4.770000E+03	8.601313E-18	7.274235E-19
4.780000E+03	8.669917E-18	7.298641E-19
4.790000E+03	8.738690E-18	7.322740E-19
4.800000E+03	8.807544E-18	7.346437E-19
4.810000E+03	8.876557E-18	7.369781E-19
4.820000E+03	8.945643E-18	7.392701E-19
4.830000E+03	9.014797E-18	7.415202E-19
4.840000E+03	9.084014E-18	7.437305E-19
4.850000E+03	9.153374E-18	7.459110E-19
4.860000E+03	9.222788E-18	7.480593E-19
4.870000E+03	9.292249E-18	7.501807E-19
4.880000E+03	9.361661E-18	7.522741E-19
4.890000E+03	9.431190E-18	7.543601E-19
4.900000E+03	9.500735E-18	7.564384E-19
4.910000E+03	9.570284E-18	7.585158E-19
4.920000E+03	9.639730E-18	7.605912E-19
4.930000E+03	9.709142E-18	7.626773E-19
4.940000E+03	9.778408E-18	7.647715E-19
4.950000E+03	9.847502E-18	7.668770E-19
4.960000E+03	9.916488E-18	7.690034E-19
4.970000E+03	9.985243E-18	7.711439E-19
4.980000E+03	1.005373E-17	7.732981E-19
4.990000E+03	1.012183E-17	7.754563E-19
5.000000E+03	1.018958E-17	7.776227E-19
5.010000E+03	1.025694E-17	7.797927E-19
5.020000E+03	1.032378E-17	7.819534E-19
5.030000E+03	1.039004E-17	7.840986E-19
5.040000E+03	1.045568E-17	7.862212E-19
5.050000E+03	1.052053E-17	7.883066E-19
5.060000E+03	1.058464E-17	7.903552E-19
5.070000E+03	1.064796E-17	7.923600E-19
5.080000E+03	1.071023E-17	7.942992E-19
5.090000E+03	1.077148E-17	7.961747E-19
5.100000E+03	1.083166E-17	7.979814E-19
5.110000E+03	1.089061E-17	7.997079E-19
5.120000E+03	1.094825E-17	8.013518E-19
5.130000E+03	1.100454E-17	8.029119E-19
5.140000E+03	1.105942E-17	8.043891E-19
5.150000E+03	1.111271E-17	8.057781E-19
5.160000E+03	1.116446E-17	8.070914E-19
5.170000E+03	1.121439E-17	8.083204E-19
5.180000E+03	1.126254E-17	8.094821E-19
5.190000E+03	1.130873E-17	8.105804E-19
5.200000E+03	1.135289E-17	8.116295E-19
5.210000E+03	1.139494E-17	8.126456E-19
5.220000E+03	1.143479E-17	8.136468E-19
5.230000E+03	1.147216E-17	8.146369E-19
5.240000E+03	1.150716E-17	8.156527E-19
5.250000E+03	1.153960E-17	8.167075E-19
5.260000E+03	1.156938E-17	8.178231E-19
5.270000E+03	1.159631E-17	8.190129E-19
5.280000E+03	1.162028E-17	8.202978E-19
5.290000E+03	1.164122E-17	8.216980E-19
5.300000E+03	1.165905E-17	8.232329E-19
5.310000E+03	1.167368E-17	8.249205E-19
5.320000E+03	1.168493E-17	8.267697E-19
5.330000E+03	1.169299E-17	8.288123E-19
5.340000E+03	1.169757E-17	8.310460E-19
5.350000E+03	1.169864E-17	8.334831E-19
5.360000E+03	1.169642E-17	8.361506E-19
5.370000E+03	1.169066E-17	8.390407E-19
5.380000E+03	1.168162E-17	8.421766E-19
5.390000E+03	1.166919E-17	8.455544E-19
5.400000E+03	1.165353E-17	8.491847E-19
5.410000E+03	1.163458E-17	8.530592E-19
5.420000E+03	1.161264E-17	8.571927E-19
5.430000E+03	1.158767E-17	8.615722E-19
5.440000E+03	1.155988E-17	8.662001E-19
5.450000E+03	1.152914E-17	8.710505E-19
5.460000E+03	1.149570E-17	8.761219E-19
5.470000E+03	1.145956E-17	8.813932E-19
5.480000E+03	1.142076E-17	8.868418E-19
5.490000E+03	1.137956E-17	8.924612E-19
5.500000E+03	1.133590E-17	8.982170E-19
5.510000E+03	1.128984E-17	9.040827E-19
5.520000E+03	1.124155E-17	9.100398E-19
5.530000E+03	1.119099E-17	9.160511E-19
5.540000E+03	1.113847E-17	9.221070E-19
5.550000E+03	1.108383E-17	9.281607E-19
5.560000E+03	1.102751E-17	9.342127E-19
5.570000E+03	1.096957E-17	9.402361E-19
5.580000E+03	1.091011E-17	9.462049E-19
5.590000E+03	1.084930E-17	9.521040E-19
5.600000E+03	1.078733E-17	9.579197E-19
5.610000E+03	1.072428E-17	9.636304E-19
5.620000E+03	1.066053E-17	9.692456E-19
5.630000E+03	1.059604E-17	9.747378E-19
5.640000E+03	1.053117E-17	9.801211E-19
5.650000E+03	1.046587E-17	9.853719E-19
5.660000E+03	1.040049E-17	9.905091E-19
5.670000E+03	1.033516E-17	9.955335E-19
5.680000E+03	1.026991E-17	1.000438E-18
5.690000E+03	1.020495E-17	1.005237E-18
5.700000E+03	1.014041E-17	1.009936E-18
5.710000E+03	1.007647E-17	1.014555E-18
5.720000E+03	1.001326E-17	1.019100E-18
5.730000E+03	9.950731E-18	1.023570E-18
5.740000E+03	9.889194E-18	1.027996E-18
5.750000E+03	9.828721E-18	1.032387E-18
5.760000E+03	9.769281E-18	1.036740E-18
5.770000E+03	9.711046E-18	1.041074E-18
5.780000E+03	9.654183E-18	1.045406E-18
5.790000E+03	9.598754E-18	1.049744E-18
5.800000E+03	9.544712E-18	1.054080E-18
5.810000E+03	9.492218E-18	1.058429E-18
5.820000E+03	9.441427E-18	1.062806E-18
5.830000E+03	9.392390E-18	1.067211E-18
5.840000E+03	9.345056E-18	1.071633E-18
5.850000E+03	9.299575E-18	1.076084E-18
5.860000E+03	9.255995E-18	1.080562E-18
5.870000E+03	9.214461E-18	1.085077E-18
5.880000E+03	9.175017E-18	1.089627E-18
5.890000E+03	9.137604E-18	1.094197E-18
5.900000E+03	9.102359E-18	1.098795E-18
5.910000E+03	9.069219E-18	1.103407E-18
5.920000E+03	9.038517E-18	1.108067E-18
5.930000E+03	9.009978E-18	1.112734E-18
5.940000E+03	8.983726E-18	1.117418E-18
5.950000E+03	8.959883E-18	1.122129E-18
5.960000E+03	8.938360E-18	1.126851E-18
5.970000E+03	8.919169E-18	1.131583E-18
5.980000E+03	8.902415E-18	1.136336E-18
5.990000E+03	8.887998E-18	1.141095E-18
6.000000E+03	8.876016E-18	1.145871E-18
6.010000E+03	8.866257E-18	1.150636E-18
6.020000E+03	8.858914E-18	1.155417E-18
6.030000E+03	8.853765E-18	1.160185E-18
6.040000E+03	8.850998E-18	1.164966E-18
6.050000E+03	8.850279E-18	1.169718E-18
6.060000E+03	8.851790E-18	1.174468E-18
6.070000E+03	8.855398E-18	1.179200E-18
6.080000E+03	8.861070E-18	1.183913E-18
6.090000E+03	8.868560E-18	1.188578E-18
6.100000E+03	8.878042E-18	1.193221E-18
6.110000E+03	8.889155E-18	1.197798E-18
6.120000E+03	8.902070E-18	1.202334E-18
6.130000E+03	8.916417E-18	1.206785E-18
6.140000E+03	8.932145E-18	1.211146E-18
6.150000E+03	8.949090E-18	1.215400E-18
6.160000E+03	8.967196E-18	1.219543E-18
6.170000E+03	8.986069E-18	1.223526E-18
6.180000E+03	9.005641E-18	1.227343E-18
6.190000E+03	9.025731E-18	1.230973E-18
6.200000E+03	9.046265E-18	1.234411E-18
6.210000E+03	9.067168E-18	1.237650E-18
6.220000E+03	9.088598E-18	1.240717E-18
6.230000E+03	9.110835E-18	1.243654E-18
6.240000E+03	9.133937E-18	1.246474E-18
6.250000E+03	9.158081E-18	1.249204E-18
6.260000E+03	9.183458E-18	1.251876E-18
6.270000E+03	9.210143E-18	1.254503E-18
6.280000E+03	9.238342E-18	1.257117E-18
6.290000E+03	9.268146E-18	1.259735E-18
6.300000E+03	9.299653E-18	1.262373E-18
6.310000E+03	9.333095E-18	1.265065E-18
6.320000E+03	9.368460E-18	1.267814E-18
6.330000E+03	9.405996E-18	1.270655E-18
6.340000E+03	9.445574E-18	1.273572E-18
6.350000E+03	9.487324E-18	1.276587E-18
6.360000E+03	9.531251E-18	1.279700E-18
6.370000E+03	9.577499E-18	1.282933E-18
6.380000E+03	9.625945E-18	1.286272E-18
6.390000E+03	9.676602E-18	1.289718E-18
6.400000E+03	9.729344E-18	1.293257E-18
6.410000E+03	9.783900E-18	1.296854E-18
6.420000E+03	9.840130E-18	1.300491E-18
6.430000E+03	9.898034E-18	1.304169E-18
6.440000E+03	9.957614E-18	1.307891E-18
6.450000E+03	1.001887E-17	1.311658E-18
6.460000E+03	1.008196E-17	1.315490E-18
6.470000E+03	1.014704E-17	1.319411E-18
6.480000E+03	1.021414E-17	1.323422E-18
6.490000E+03	1.028311E-17	1.327506E-18
6.500000E+03	1.035428E-17	1.331707E-18
6.510000E+03	1.042769E-17	1.336028E-18
6.520000E+03	1.050318E-17	1.340452E-18
6.530000E+03	1.058096E-17	1.345001E-18
6.540000E+03	1.066106E-17	1.349680E-18
6.550000E+03	1.074333E-17	1.354471E-18
6.560000E+03	1.082780E-17	1.359376E-18
6.570000E+03	1.091484E-17	1.364442E-18
6.580000E+03	1.100397E-17	1.369607E-18
6.590000E+03	1.109556E-17	1.374917E-18
6.600000E+03	1.118965E-17	1.380375E-18
6.610000E+03	1.128591E-17	1.385939E-18
6.620000E+03	1.138474E-17	1.391657E-18
6.630000E+03	1.148579E-17	1.397486E-18
6.640000E+03	1.158946E-17	1.403473E-18
6.650000E+03	1.169542E-17	1.409575E-18
6.660000E+03	1.180388E-17	1.415816E-18
6.670000E+03	1.191487E-17	1.422199E-18
6.680000E+03	1.202822E-17	1.428701E-18
6.690000E+03	1.214395E-17	1.435324E-18
6.700000E+03	1.226230E-17	1.442092E-18
6.710000E+03	1.238310E-17	1.448984E-18
6.720000E+03	1.250636E-17	1.455998E-18
6.730000E+03	1.263212E-17	1.463137E-18
6.740000E+03	1.276039E-17	1.470401E-18
6.750000E+03	1.289121E-17	1.477790E-18
6.760000E+03	1.302460E-17	1.485304E-18
6.770000E+03	1.316036E-17	1.492918E-18
6.780000E+03	1.329875E-17	1.500658E-18
6.790000E+03	1.343978E-17	1.508523E-18
6.800000E+03	1.358325E-17	1.516487E-18
6.810000E+03	1.372941E-17	1.524576E-18
6.820000E+03	1.387806E-17	1.532762E-18
6.830000E+03	1.402920E-17	1.541043E-18
6.840000E+03	1.418285E-17	1.549420E-18
6.850000E+03	1.433903E-17	1.557889E-18
6.860000E+03	1.449803E-17	1.566479E-18
6.870000E+03	1.465933E-17	1.575131E-18
6.880000E+03	1.482321E-17	1.583873E-18
6.890000E+03	1.498969E-17	1.592702E-18
6.900000E+03	1.515850E-17	1.601587E-18
6.910000E+03	1.532994E-17	1.610557E-18
6.920000E+03	1.550401E-17	1.619610E-18
6.930000E+03	1.568045E-17	1.628714E-18
6.940000E+03	1.585924E-17	1.637866E-18
6.950000E+03	1.604069E-17	1.647096E-18
6.960000E+03	1.622452E-17	1.656371E-18
6.970000E+03	1.641071E-17	1.665689E-18
6.980000E+03	1.659927E-17	1.675047E-18
6.990000E+03	1.679019E-17	1.684444E-18
7.000000E+03	1.698314E-17	1.693845E-18
7.010000E+03	1.717877E-17	1.703312E-18
7.020000E+03	1.737640E-17	1.712778E-18
7.030000E+03	1.757637E-17	1.722272E-18
7.040000E+03	1.777831E-17	1.731760E-18
7.050000E+03	1.798221E-17	1.741237E-18
7.060000E+03	1.818839E-17	1.750735E-18
7.070000E+03	1.839648E-17	1.760216E-18
7.080000E+03	1.860608E-17	1.769641E-18
7.090000E+03	1.881791E-17	1.779077E-18
7.100000E+03	1.903157E-17	1.788485E-18
7.110000E+03	1.924664E-17	1.797824E-18
7.120000E+03	1.946346E-17	1.807128E-18
7.130000E+03	1.968162E-17	1.816353E-18
7.140000E+03	1.990146E-17	1.825533E-18
7.150000E+03	2.012253E-17	1.834627E-18
7.160000E+03	2.034522E-17	1.843666E-18
7.170000E+03	2.056862E-17	1.852571E-18
7.180000E+03	2.079310E-17	1.861376E-18
7.190000E+03	2.101905E-17	1.870116E-18
7.200000E+03	2.124553E-17	1.878709E-18
7.210000E+03	2.147248E-17	1.887151E-18
7.220000E+03	2.170025E-17	1.895481E-18
7.230000E+03	2.192881E-17	1.903698E-18
7.240000E+03	2.215760E-17	1.911760E-18
7.250000E+03	2.238703E-17	1.919709E-18
7.260000E+03	2.261654E-17	1.927507E-18
7.270000E+03	2.284604E-17	1.935157E-18
7.280000E+03	2.307592E-17	1.942707E-18
7.290000E+03	2.330562E-17	1.950120E-18
7.300000E+03	2.353554E-17	1.957451E-18
7.310000E+03	2.376507E-17	1.964666E-18
7.320000E+03	2.399413E-17	1.971779E-18
7.330000E+03	2.422367E-17	1.978894E-18
7.340000E+03	2.445254E-17	1.985943E-18
7.350000E+03	2.468175E-17	1.993034E-18
7.360000E+03	2.491067E-17	2.000149E-18
7.370000E+03	2.513980E-17	2.007359E-18
7.380000E+03	2.536966E-17	2.014740E-18
7.390000E+03	2.559965E-17	2.022281E-18
7.400000E+03	2.583090E-17	2.030107E-18
7.410000E+03	2.606342E-17	2.038257E-18
7.420000E+03	2.629783E-17	2.046819E-18
7.430000E+03	2.653419E-17	2.055831E-18
7.440000E+03	2.677255E-17	2.065336E-18
7.450000E+03	2.701359E-17	2.075420E-18
7.460000E+03	2.725615E-17	2.086024E-18
7.470000E+03	2.750029E-17	2.097178E-18
7.480000E+03	2.774540E-17	2.108858E-18
7.490000E+03	2.799219E-17	2.121130E-18
7.500000E+03	2.824007E-17	2.133954E-18
7.510000E+03	2.848841E-17	2.147276E-18
7.520000E+03	2.873724E-17	2.161081E-18
7.530000E+03	2.898660E-17	2.175341E-18
7.540000E+03	2.923581E-17	2.189963E-18
7.550000E+03	2.948559E-17	2.204951E-18
7.560000E+03	2.973454E-17	2.220143E-18
7.570000E+03	2.998408E-17	2.235584E-18
7.580000E+03	3.023351E-17	2.251155E-18
7.590000E+03	3.048282E-17	2.266790E-18
7.600000E+03	3.073122E-17	2.282368E-18
7.610000E+03	3.097943E-17	2.297882E-18
7.620000E+03	3.122738E-17	2.313274E-18
7.630000E+03	3.147499E-17	2.328492E-18
7.640000E+03	3.172141E-17	2.343434E-18
7.650000E+03	3.196726E-17	2.358119E-18
7.660000E+03	3.221161E-17	2.372458E-18
7.670000E+03	3.245589E-17	2.386544E-18
7.680000E+03	3.269747E-17	2.400183E-18
7.690000E+03	3.293859E-17	2.413542E-18
7.700000E+03	3.317819E-17	2.426555E-18
7.710000E+03	3.341518E-17	2.439158E-18
7.720000E+03	3.365011E-17	2.451411E-18
7.730000E+03	3.388270E-17	2.463318E-18
7.740000E+03	3.411262E-17	2.474881E-18
7.750000E+03	3.433958E-17	2.486103E-18
7.760000E+03	3.456412E-17	2.497053E-18
