#wls	flux	fluxerr
1.600000E+03	1.655595E-16	1.605729E-16
1.640000E+03	1.704633E-16	1.625800E-16
1.680000E+03	1.750644E-16	1.640842E-16
1.720000E+03	1.793287E-16	1.650644E-16
1.760000E+03	1.831482E-16	1.654360E-16
1.800000E+03	1.865163E-16	1.652122E-16
1.840000E+03	1.893206E-16	1.643165E-16
1.880000E+03	1.915334E-16	1.627534E-16
1.920000E+03	1.930929E-16	1.605023E-16
1.960000E+03	1.939092E-16	1.575260E-16
2.000000E+03	1.939600E-16	1.538495E-16
2.040000E+03	1.931836E-16	1.494705E-16
2.080000E+03	1.915302E-16	1.444021E-16
2.120000E+03	1.889649E-16	1.386745E-16
2.160000E+03	1.854465E-16	1.323175E-16
2.200000E+03	1.809153E-16	1.253534E-16
2.240000E+03	1.753207E-16	1.178171E-16
2.280000E+03	1.686907E-16	1.098006E-16
2.320000E+03	1.611613E-16	1.014629E-16
2.360000E+03	1.529658E-16	9.301141E-17
2.400000E+03	1.442900E-16	8.460626E-17
2.440000E+03	1.353015E-16	7.638141E-17
2.480000E+03	1.261214E-16	6.843051E-17
2.520000E+03	1.168757E-16	6.083876E-17
2.560000E+03	1.076660E-16	5.366725E-17
2.600000E+03	9.859657E-17	4.696849E-17
2.640000E+03	8.975097E-17	4.077522E-17
2.680000E+03	8.120665E-17	3.510909E-17
2.720000E+03	7.303299E-17	2.998045E-17
2.760000E+03	6.528326E-17	2.538623E-17
2.800000E+03	5.800335E-17	2.131497E-17
2.840000E+03	5.122808E-17	1.774661E-17
2.880000E+03	4.498466E-17	1.465500E-17
2.920000E+03	3.929158E-17	1.200862E-17
2.960000E+03	3.415542E-17	9.770946E-18
3.000000E+03	2.957147E-17	7.902097E-18
3.010000E+03	2.850994E-17	7.487584E-18
3.020000E+03	2.748096E-17	7.092677E-18
3.030000E+03	2.648514E-17	6.716980E-18
3.040000E+03	2.552063E-17	6.359472E-18
3.050000E+03	2.458793E-17	6.019745E-18
3.060000E+03	2.368633E-17	5.697093E-18
3.070000E+03	2.281559E-17	5.390941E-18
3.080000E+03	2.197400E-17	5.100385E-18
3.090000E+03	2.116225E-17	4.825092E-18
3.100000E+03	2.037868E-17	4.564206E-18
3.110000E+03	1.962340E-17	4.317286E-18
3.120000E+03	1.889563E-17	4.083703E-18
3.130000E+03	1.819424E-17	3.862775E-18
3.140000E+03	1.751922E-17	3.654071E-18
3.150000E+03	1.686948E-17	3.456947E-18
3.160000E+03	1.624459E-17	3.270917E-18
3.170000E+03	1.564381E-17	3.095445E-18
3.180000E+03	1.506643E-17	2.930014E-18
3.190000E+03	1.451199E-17	2.774177E-18
3.200000E+03	1.397978E-17	2.627449E-18
3.210000E+03	1.346888E-17	2.489321E-18
3.220000E+03	1.297908E-17	2.359436E-18
3.230000E+03	1.250953E-17	2.237323E-18
3.240000E+03	1.205979E-17	2.122609E-18
3.250000E+03	1.162925E-17	2.014894E-18
3.260000E+03	1.121710E-17	1.913766E-18
3.270000E+03	1.082312E-17	1.818922E-18
3.280000E+03	1.044635E-17	1.729951E-18
3.290000E+03	1.008654E-17	1.646571E-18
3.300000E+03	9.743070E-18	1.568453E-18
3.310000E+03	9.415066E-18	1.495239E-18
3.320000E+03	9.102244E-18	1.426681E-18
3.330000E+03	8.804025E-18	1.362492E-18
3.340000E+03	8.519723E-18	1.302386E-18
3.350000E+03	8.248801E-18	1.246107E-18
3.360000E+03	7.990739E-18	1.193417E-18
3.370000E+03	7.745028E-18	1.144088E-18
3.380000E+03	7.511174E-18	1.097907E-18
3.390000E+03	7.288695E-18	1.054672E-18
3.400000E+03	7.077034E-18	1.014181E-18
3.410000E+03	6.875660E-18	9.762445E-19
3.420000E+03	6.684329E-18	9.407238E-19
3.430000E+03	6.502372E-18	9.074285E-19
3.440000E+03	6.329487E-18	8.762281E-19
3.450000E+03	6.165224E-18	8.469786E-19
3.460000E+03	6.009229E-18	8.195567E-19
3.470000E+03	5.861021E-18	7.938285E-19
3.480000E+03	5.720222E-18	7.696800E-19
3.490000E+03	5.586539E-18	7.470142E-19
3.500000E+03	5.459565E-18	7.257244E-19
3.510000E+03	5.339043E-18	7.057281E-19
3.520000E+03	5.224496E-18	6.869185E-19
3.530000E+03	5.115708E-18	6.692274E-19
3.540000E+03	5.012313E-18	6.525705E-19
3.550000E+03	4.914022E-18	6.368771E-19
3.560000E+03	4.820568E-18	6.220825E-19
3.570000E+03	4.731601E-18	6.081144E-19
3.580000E+03	4.646988E-18	5.949306E-19
3.590000E+03	4.566464E-18	5.824743E-19
3.600000E+03	4.489778E-18	5.706928E-19
3.610000E+03	4.416828E-18	5.595539E-19
3.620000E+03	4.347346E-18	5.490059E-19
3.630000E+03	4.281164E-18	5.390114E-19
3.640000E+03	4.218123E-18	5.295353E-19
3.650000E+03	4.158074E-18	5.205450E-19
3.660000E+03	4.100876E-18	5.120100E-19
3.670000E+03	4.046394E-18	5.039014E-19
3.680000E+03	3.994537E-18	4.961968E-19
3.690000E+03	3.945218E-18	4.888751E-19
3.700000E+03	3.898315E-18	4.819118E-19
3.710000E+03	3.853849E-18	4.753008E-19
3.720000E+03	3.811668E-18	4.690152E-19
3.730000E+03	3.771758E-18	4.630459E-19
3.740000E+03	3.734035E-18	4.573761E-19
3.750000E+03	3.698453E-18	4.519937E-19
3.760000E+03	3.665022E-18	4.468947E-19
3.770000E+03	3.633599E-18	4.420564E-19
3.780000E+03	3.604194E-18	4.374758E-19
3.790000E+03	3.576786E-18	4.331462E-19
3.800000E+03	3.551264E-18	4.290507E-19
3.810000E+03	3.527634E-18	4.251872E-19
3.820000E+03	3.505875E-18	4.215504E-19
3.830000E+03	3.485905E-18	4.181284E-19
3.840000E+03	3.467674E-18	4.149133E-19
3.850000E+03	3.451215E-18	4.119076E-19
3.860000E+03	3.436423E-18	4.090974E-19
3.870000E+03	3.423302E-18	4.064822E-19
3.880000E+03	3.411804E-18	4.040556E-19
3.890000E+03	3.401906E-18	4.018142E-19
3.900000E+03	3.393589E-18	3.997552E-19
3.910000E+03	3.386777E-18	3.978694E-19
3.920000E+03	3.381451E-18	3.961544E-19
3.930000E+03	3.377619E-18	3.946107E-19
3.940000E+03	3.375234E-18	3.932329E-19
3.950000E+03	3.374253E-18	3.920157E-19
3.960000E+03	3.374658E-18	3.909568E-19
3.970000E+03	3.376405E-18	3.900509E-19
3.980000E+03	3.379478E-18	3.892959E-19
3.990000E+03	3.383862E-18	3.886894E-19
4.000000E+03	3.389541E-18	3.882293E-19
4.010000E+03	3.396449E-18	3.879072E-19
4.020000E+03	3.404573E-18	3.877210E-19
4.030000E+03	3.413901E-18	3.876684E-19
4.040000E+03	3.424422E-18	3.877472E-19
4.050000E+03	3.436100E-18	3.879520E-19
4.060000E+03	3.448901E-18	3.882777E-19
4.070000E+03	3.462816E-18	3.887218E-19
4.080000E+03	3.477812E-18	3.892790E-19
4.090000E+03	3.493882E-18	3.899470E-19
4.100000E+03	3.510993E-18	3.907202E-19
4.110000E+03	3.529139E-18	3.915962E-19
4.120000E+03	3.548289E-18	3.925693E-19
4.130000E+03	3.568410E-18	3.936340E-19
4.140000E+03	3.589497E-18	3.947874E-19
4.150000E+03	3.611520E-18	3.960236E-19
4.160000E+03	3.634476E-18	3.973398E-19
4.170000E+03	3.658306E-18	3.987269E-19
4.180000E+03	3.683008E-18	4.001818E-19
4.190000E+03	3.708525E-18	4.016953E-19
4.200000E+03	3.734884E-18	4.032675E-19
4.210000E+03	3.762028E-18	4.048893E-19
4.220000E+03	3.789957E-18	4.065577E-19
4.230000E+03	3.818583E-18	4.082608E-19
4.240000E+03	3.847934E-18	4.099991E-19
4.250000E+03	3.877922E-18	4.117606E-19
4.260000E+03	3.908575E-18	4.135464E-19
4.270000E+03	3.939801E-18	4.153449E-19
4.280000E+03	3.971538E-18	4.171476E-19
4.290000E+03	4.003815E-18	4.189562E-19
4.300000E+03	4.036507E-18	4.207560E-19
4.310000E+03	4.069643E-18	4.225491E-19
4.320000E+03	4.103095E-18	4.243209E-19
4.330000E+03	4.136894E-18	4.260735E-19
4.340000E+03	4.170976E-18	4.277993E-19
4.350000E+03	4.205273E-18	4.294902E-19
4.360000E+03	4.239785E-18	4.311451E-19
4.370000E+03	4.274479E-18	4.327593E-19
4.380000E+03	4.309387E-18	4.343348E-19
4.390000E+03	4.344441E-18	4.358632E-19
4.400000E+03	4.379712E-18	4.373501E-19
4.410000E+03	4.415202E-18	4.387940E-19
4.420000E+03	4.450916E-18	4.401936E-19
4.430000E+03	4.486858E-18	4.415476E-19
4.440000E+03	4.523071E-18	4.428586E-19
4.450000E+03	4.559526E-18	4.441222E-19
4.460000E+03	4.596267E-18	4.453415E-19
4.470000E+03	4.633307E-18	4.465165E-19
4.480000E+03	4.670655E-18	4.476475E-19
4.490000E+03	4.708286E-18	4.487319E-19
4.500000E+03	4.746209E-18	4.497713E-19
4.510000E+03	4.784397E-18	4.507642E-19
4.520000E+03	4.822901E-18	4.517178E-19
4.530000E+03	4.861650E-18	4.526284E-19
4.540000E+03	4.900655E-18	4.535010E-19
4.550000E+03	4.939925E-18	4.543414E-19
4.560000E+03	4.979388E-18	4.551486E-19
4.570000E+03	5.019097E-18	4.559337E-19
4.580000E+03	5.058978E-18	4.566972E-19
4.590000E+03	5.099043E-18	4.574474E-19
4.600000E+03	5.139219E-18	4.581850E-19
4.610000E+03	5.179566E-18	4.589224E-19
4.620000E+03	5.220058E-18	4.596639E-19
4.630000E+03	5.260624E-18	4.604087E-19
4.640000E+03	5.301286E-18	4.611635E-19
4.650000E+03	5.342067E-18	4.619335E-19
4.660000E+03	5.382948E-18	4.627190E-19
4.670000E+03	5.423861E-18	4.635149E-19
4.680000E+03	5.464933E-18	4.643310E-19
4.690000E+03	5.506199E-18	4.651683E-19
4.700000E+03	5.547600E-18	4.660187E-19
4.710000E+03	5.589173E-18	4.668813E-19
4.720000E+03	5.630963E-18	4.677549E-19
4.730000E+03	5.672863E-18	4.686255E-19
4.740000E+03	5.714916E-18	4.694912E-19
4.750000E+03	5.757068E-18	4.703416E-19
4.760000E+03	5.799367E-18	4.711751E-19
4.770000E+03	5.841813E-18	4.719864E-19
4.780000E+03	5.884352E-18	4.727663E-19
4.790000E+03	5.927038E-18	4.735151E-19
4.800000E+03	5.969821E-18	4.742257E-19
4.810000E+03	6.012758E-18	4.749003E-19
4.820000E+03	6.055797E-18	4.755342E-19
4.830000E+03	6.098945E-18	4.761279E-19
4.840000E+03	6.142205E-18	4.766837E-19
4.850000E+03	6.185639E-18	4.772095E-19
4.860000E+03	6.229197E-18	4.777059E-19
4.870000E+03	6.272883E-18	4.781792E-19
4.880000E+03	6.316640E-18	4.786322E-19
4.890000E+03	6.360590E-18	4.790819E-19
4.900000E+03	6.404674E-18	4.795323E-19
4.910000E+03	6.448892E-18	4.799917E-19
4.920000E+03	6.493180E-18	4.804635E-19
4.930000E+03	6.537593E-18	4.809593E-19
4.940000E+03	6.582065E-18	4.814803E-19
4.950000E+03	6.626586E-18	4.820312E-19
4.960000E+03	6.671209E-18	4.826193E-19
4.970000E+03	6.715861E-18	4.832418E-19
4.980000E+03	6.760532E-18	4.838989E-19
4.990000E+03	6.805143E-18	4.845847E-19
5.000000E+03	6.849743E-18	4.853016E-19
5.010000E+03	6.894316E-18	4.860463E-19
5.020000E+03	6.938777E-18	4.868096E-19
5.030000E+03	6.983105E-18	4.875865E-19
5.040000E+03	7.027277E-18	4.883712E-19
5.050000E+03	7.071198E-18	4.891531E-19
5.060000E+03	7.114911E-18	4.899312E-19
5.070000E+03	7.158388E-18	4.907001E-19
5.080000E+03	7.201466E-18	4.914459E-19
5.090000E+03	7.244187E-18	4.921695E-19
5.100000E+03	7.286525E-18	4.928681E-19
5.110000E+03	7.328388E-18	4.935352E-19
5.120000E+03	7.369754E-18	4.941700E-19
5.130000E+03	7.410601E-18	4.947728E-19
5.140000E+03	7.450913E-18	4.953448E-19
5.150000E+03	7.490598E-18	4.958841E-19
5.160000E+03	7.529711E-18	4.963999E-19
5.170000E+03	7.568085E-18	4.968892E-19
5.180000E+03	7.605770E-18	4.973662E-19
5.190000E+03	7.642665E-18	4.978385E-19
5.200000E+03	7.678739E-18	4.983215E-19
5.210000E+03	7.713956E-18	4.988335E-19
5.220000E+03	7.748272E-18	4.993956E-19
5.230000E+03	7.781488E-18	5.000206E-19
5.240000E+03	7.813699E-18	5.007420E-19
5.250000E+03	7.844768E-18	5.015787E-19
5.260000E+03	7.874624E-18	5.025542E-19
5.270000E+03	7.903117E-18	5.036856E-19
5.280000E+03	7.930168E-18	5.049940E-19
5.290000E+03	7.955697E-18	5.064990E-19
5.300000E+03	7.979625E-18	5.082189E-19
5.310000E+03	8.001874E-18	5.101708E-19
5.320000E+03	8.022294E-18	5.123653E-19
5.330000E+03	8.040977E-18	5.148271E-19
5.340000E+03	8.057707E-18	5.175590E-19
5.350000E+03	8.072434E-18	5.205726E-19
5.360000E+03	8.085274E-18	5.238878E-19
5.370000E+03	8.096035E-18	5.275019E-19
5.380000E+03	8.104850E-18	5.314305E-19
5.390000E+03	8.111622E-18	5.356711E-19
5.400000E+03	8.116419E-18	5.402292E-19
5.410000E+03	8.119156E-18	5.450967E-19
5.420000E+03	8.119999E-18	5.502795E-19
5.430000E+03	8.118878E-18	5.557647E-19
5.440000E+03	8.115895E-18	5.615484E-19
5.450000E+03	8.110915E-18	5.676079E-19
5.460000E+03	8.104055E-18	5.739352E-19
5.470000E+03	8.095278E-18	5.805089E-19
5.480000E+03	8.084556E-18	5.873058E-19
5.490000E+03	8.072029E-18	5.943124E-19
5.500000E+03	8.057602E-18	6.014958E-19
5.510000E+03	8.041267E-18	6.088274E-19
5.520000E+03	8.023103E-18	6.162835E-19
5.530000E+03	8.003032E-18	6.238276E-19
5.540000E+03	7.981222E-18	6.314415E-19
5.550000E+03	7.957521E-18	6.390819E-19
5.560000E+03	7.932183E-18	6.467376E-19
5.570000E+03	7.905219E-18	6.543788E-19
5.580000E+03	7.876644E-18	6.619763E-19
5.590000E+03	7.846549E-18	6.695085E-19
5.600000E+03	7.815025E-18	6.769548E-19
5.610000E+03	7.782081E-18	6.842893E-19
5.620000E+03	7.747961E-18	6.915088E-19
5.630000E+03	7.712588E-18	6.985842E-19
5.640000E+03	7.676199E-18	7.055168E-19
5.650000E+03	7.638709E-18	7.122815E-19
5.660000E+03	7.600347E-18	7.188849E-19
5.670000E+03	7.561178E-18	7.253215E-19
5.680000E+03	7.521190E-18	7.315808E-19
5.690000E+03	7.480520E-18	7.376694E-19
5.700000E+03	7.439227E-18	7.435882E-19
5.710000E+03	7.397442E-18	7.493479E-19
5.720000E+03	7.355220E-18	7.549526E-19
5.730000E+03	7.312534E-18	7.603991E-19
5.740000E+03	7.269590E-18	7.657086E-19
5.750000E+03	7.226436E-18	7.708863E-19
5.760000E+03	7.183046E-18	7.759289E-19
5.770000E+03	7.139547E-18	7.808484E-19
5.780000E+03	7.096064E-18	7.856562E-19
5.790000E+03	7.052648E-18	7.903545E-19
5.800000E+03	7.009276E-18	7.949357E-19
5.810000E+03	6.966077E-18	7.994081E-19
5.820000E+03	6.923181E-18	8.037794E-19
5.830000E+03	6.880645E-18	8.080481E-19
5.840000E+03	6.838452E-18	8.122031E-19
5.850000E+03	6.796738E-18	8.162505E-19
5.860000E+03	6.755565E-18	8.201872E-19
5.870000E+03	6.715069E-18	8.240191E-19
5.880000E+03	6.675316E-18	8.277435E-19
5.890000E+03	6.636294E-18	8.313483E-19
5.900000E+03	6.598143E-18	8.348402E-19
5.910000E+03	6.560849E-18	8.382079E-19
5.920000E+03	6.524692E-18	8.414779E-19
5.930000E+03	6.489506E-18	8.446213E-19
5.940000E+03	6.455416E-18	8.476473E-19
5.950000E+03	6.422540E-18	8.505659E-19
5.960000E+03	6.390848E-18	8.533686E-19
5.970000E+03	6.360377E-18	8.560571E-19
5.980000E+03	6.331232E-18	8.586433E-19
5.990000E+03	6.303370E-18	8.611201E-19
6.000000E+03	6.276887E-18	8.635005E-19
6.010000E+03	6.251661E-18	8.657680E-19
6.020000E+03	6.227854E-18	8.679462E-19
6.030000E+03	6.205336E-18	8.700189E-19
6.040000E+03	6.184263E-18	8.720104E-19
6.050000E+03	6.164427E-18	8.738942E-19
6.060000E+03	6.145980E-18	8.756949E-19
6.070000E+03	6.128853E-18	8.774065E-19
6.080000E+03	6.113046E-18	8.790330E-19
6.090000E+03	6.098414E-18	8.805575E-19
6.100000E+03	6.085099E-18	8.820048E-19
6.110000E+03	6.072877E-18	8.833470E-19
6.120000E+03	6.061887E-18	8.846088E-19
6.130000E+03	6.051898E-18	8.857612E-19
6.140000E+03	6.042899E-18	8.868072E-19
6.150000E+03	6.034801E-18	8.877384E-19
6.160000E+03	6.027588E-18	8.885572E-19
6.170000E+03	6.021016E-18	8.892324E-19
6.180000E+03	6.015062E-18	8.897653E-19
6.190000E+03	6.009627E-18	8.901460E-19
6.200000E+03	6.004682E-18	8.903752E-19
6.210000E+03	6.000199E-18	8.904533E-19
6.220000E+03	5.996300E-18	8.904036E-19
6.230000E+03	5.993186E-18	8.902611E-19
6.240000E+03	5.990908E-18	8.900383E-19
6.250000E+03	5.989596E-18	8.897595E-19
6.260000E+03	5.989383E-18	8.894493E-19
6.270000E+03	5.990326E-18	8.891210E-19
6.280000E+03	5.992563E-18	8.887999E-19
6.290000E+03	5.996160E-18	8.884998E-19
6.300000E+03	6.001181E-18	8.882346E-19
6.310000E+03	6.007777E-18	8.880305E-19
6.320000E+03	6.015940E-18	8.878900E-19
6.330000E+03	6.025828E-18	8.878397E-19
6.340000E+03	6.037355E-18	8.878700E-19
6.350000E+03	6.050603E-18	8.879957E-19
6.360000E+03	6.065570E-18	8.882192E-19
6.370000E+03	6.082343E-18	8.885556E-19
6.380000E+03	6.100840E-18	8.889948E-19
6.390000E+03	6.121065E-18	8.895392E-19
6.400000E+03	6.142933E-18	8.901782E-19
6.410000E+03	6.166268E-18	8.908879E-19
6.420000E+03	6.190978E-18	8.916568E-19
6.430000E+03	6.217061E-18	8.924859E-19
6.440000E+03	6.244512E-18	8.933762E-19
6.450000E+03	6.273331E-18	8.943288E-19
6.460000E+03	6.303610E-18	8.953579E-19
6.470000E+03	6.335445E-18	8.964782E-19
6.480000E+03	6.368844E-18	8.976912E-19
6.490000E+03	6.403715E-18	8.989844E-19
6.500000E+03	6.440260E-18	9.003865E-19
6.510000E+03	6.478490E-18	9.018990E-19
6.520000E+03	6.518318E-18	9.035096E-19
6.530000E+03	6.559855E-18	9.052335E-19
6.540000E+03	6.603117E-18	9.070721E-19
6.550000E+03	6.648013E-18	9.090125E-19
6.560000E+03	6.694557E-18	9.110558E-19
6.570000E+03	6.742975E-18	9.132321E-19
6.580000E+03	6.792964E-18	9.154991E-19
6.590000E+03	6.844755E-18	9.178869E-19
6.600000E+03	6.898366E-18	9.203969E-19
6.610000E+03	6.953592E-18	9.230000E-19
6.620000E+03	7.010674E-18	9.257271E-19
6.630000E+03	7.069401E-18	9.285486E-19
6.640000E+03	7.130022E-18	9.314958E-19
6.650000E+03	7.192320E-18	9.345384E-19
6.660000E+03	7.256430E-18	9.376925E-19
6.670000E+03	7.322371E-18	9.409584E-19
6.680000E+03	7.390039E-18	9.443207E-19
6.690000E+03	7.459447E-18	9.477795E-19
6.700000E+03	7.530741E-18	9.513511E-19
6.710000E+03	7.603812E-18	9.550194E-19
6.720000E+03	7.678678E-18	9.587845E-19
6.730000E+03	7.755356E-18	9.626464E-19
6.740000E+03	7.833865E-18	9.666051E-19
6.750000E+03	7.914226E-18	9.706605E-19
6.760000E+03	7.996458E-18	9.748126E-19
6.770000E+03	8.080440E-18	9.790439E-19
6.780000E+03	8.166332E-18	9.833712E-19
6.790000E+03	8.254156E-18	9.877943E-19
6.800000E+03	8.343785E-18	9.922951E-19
6.810000E+03	8.435388E-18	9.968906E-19
6.820000E+03	8.528834E-18	1.001562E-18
6.830000E+03	8.624140E-18	1.006309E-18
6.840000E+03	8.721323E-18	1.011130E-18
6.850000E+03	8.820401E-18	1.016024E-18
6.860000E+03	8.921556E-18	1.021008E-18
6.870000E+03	9.024481E-18	1.026044E-18
6.880000E+03	9.129357E-18	1.031150E-18
6.890000E+03	9.236202E-18	1.036324E-18
6.900000E+03	9.344861E-18	1.041545E-18
6.910000E+03	9.455525E-18	1.046833E-18
6.920000E+03	9.568211E-18	1.052184E-18
6.930000E+03	9.682758E-18	1.057579E-18
6.940000E+03	9.799175E-18	1.063016E-18
6.950000E+03	9.917663E-18	1.068514E-18
6.960000E+03	1.003805E-17	1.074050E-18
6.970000E+03	1.016034E-17	1.079624E-18
6.980000E+03	1.028454E-17	1.085233E-18
6.990000E+03	1.041067E-17	1.090877E-18
7.000000E+03	1.053853E-17	1.096531E-18
7.010000E+03	1.066852E-17	1.102237E-18
7.020000E+03	1.080025E-17	1.107950E-18
7.030000E+03	1.093392E-17	1.113690E-18
7.040000E+03	1.106932E-17	1.119433E-18
7.050000E+03	1.120644E-17	1.125176E-18
7.060000E+03	1.134551E-17	1.130940E-18
7.070000E+03	1.148630E-17	1.136700E-18
7.080000E+03	1.162857E-17	1.142430E-18
7.090000E+03	1.177277E-17	1.148173E-18
7.100000E+03	1.191866E-17	1.153904E-18
7.110000E+03	1.206599E-17	1.159596E-18
7.120000E+03	1.221499E-17	1.165269E-18
7.130000E+03	1.236539E-17	1.170896E-18
7.140000E+03	1.251741E-17	1.176497E-18
7.150000E+03	1.267079E-17	1.182045E-18
7.160000E+03	1.282577E-17	1.187560E-18
7.170000E+03	1.298178E-17	1.192990E-18
7.180000E+03	1.313905E-17	1.198355E-18
7.190000E+03	1.329785E-17	1.203677E-18
7.200000E+03	1.345758E-17	1.208904E-18
7.210000E+03	1.361819E-17	1.214031E-18
7.220000E+03	1.377993E-17	1.219082E-18
7.230000E+03	1.394276E-17	1.224055E-18
7.240000E+03	1.410635E-17	1.228924E-18
7.250000E+03	1.427094E-17	1.233713E-18
7.260000E+03	1.443618E-17	1.238399E-18
7.270000E+03	1.460201E-17	1.242982E-18
7.280000E+03	1.476868E-17	1.247490E-18
7.290000E+03	1.493581E-17	1.251903E-18
7.300000E+03	1.510366E-17	1.256251E-18
7.310000E+03	1.527182E-17	1.260514E-18
7.320000E+03	1.544022E-17	1.264700E-18
7.330000E+03	1.560945E-17	1.268875E-18
7.340000E+03	1.577876E-17	1.272995E-18
7.350000E+03	1.594878E-17	1.277131E-18
7.360000E+03	1.611908E-17	1.281270E-18
7.370000E+03	1.628997E-17	1.285461E-18
7.380000E+03	1.646177E-17	1.289754E-18
7.390000E+03	1.663407E-17	1.294144E-18
7.400000E+03	1.680759E-17	1.298718E-18
7.410000E+03	1.698232E-17	1.303505E-18
7.420000E+03	1.715867E-17	1.308568E-18
7.430000E+03	1.733664E-17	1.313941E-18
7.440000E+03	1.751628E-17	1.319660E-18
7.450000E+03	1.769801E-17	1.325793E-18
7.460000E+03	1.788106E-17	1.332315E-18
7.470000E+03	1.806545E-17	1.339259E-18
7.480000E+03	1.825078E-17	1.346625E-18
7.490000E+03	1.843750E-17	1.354469E-18
7.500000E+03	1.862520E-17	1.362777E-18
7.510000E+03	1.881347E-17	1.371521E-18
7.520000E+03	1.900232E-17	1.380691E-18
7.530000E+03	1.919176E-17	1.390259E-18
7.540000E+03	1.938135E-17	1.400152E-18
7.550000E+03	1.957157E-17	1.410352E-18
7.560000E+03	1.976152E-17	1.420731E-18
7.570000E+03	1.995214E-17	1.431292E-18
7.580000E+03	2.014299E-17	1.441934E-18
7.590000E+03	2.033409E-17	1.452591E-18
7.600000E+03	2.052494E-17	1.463162E-18
7.610000E+03	2.071603E-17	1.473622E-18
7.620000E+03	2.090734E-17	1.483917E-18
7.630000E+03	2.109883E-17	1.494002E-18
7.640000E+03	2.128992E-17	1.503805E-18
7.650000E+03	2.148103E-17	1.513334E-18
7.660000E+03	2.167154E-17	1.522533E-18
7.670000E+03	2.186239E-17	1.531468E-18
7.680000E+03	2.205180E-17	1.540021E-18
7.690000E+03	2.224126E-17	1.548309E-18
7.700000E+03	2.243003E-17	1.556299E-18
7.710000E+03	2.261737E-17	1.563960E-18
7.720000E+03	2.280362E-17	1.571342E-18
7.730000E+03	2.298857E-17	1.578457E-18
7.740000E+03	2.317200E-17	1.585314E-18
7.750000E+03	2.335366E-17	1.591925E-18
7.760000E+03	2.353393E-17	1.598341E-18
