#wls	flux	fluxerr
1.600000E+03	1.688578E-16	1.656544E-16
1.640000E+03	1.741850E-16	1.680500E-16
1.680000E+03	1.792447E-16	1.699507E-16
1.720000E+03	1.839850E-16	1.713158E-16
1.760000E+03	1.883311E-16	1.720876E-16
1.800000E+03	1.922220E-16	1.722273E-16
1.840000E+03	1.955754E-16	1.716825E-16
1.880000E+03	1.983423E-16	1.704370E-16
1.920000E+03	2.004543E-16	1.684634E-16
1.960000E+03	2.018274E-16	1.657282E-16
2.000000E+03	2.024136E-16	1.622356E-16
2.040000E+03	2.021382E-16	1.579738E-16
2.080000E+03	2.009365E-16	1.529475E-16
2.120000E+03	1.987851E-16	1.471991E-16
2.160000E+03	1.956067E-16	1.407362E-16
2.200000E+03	1.913531E-16	1.335958E-16
2.240000E+03	1.859744E-16	1.258199E-16
2.280000E+03	1.793920E-16	1.174381E-16
2.320000E+03	1.718146E-16	1.086706E-16
2.360000E+03	1.634564E-16	9.972425E-17
2.400000E+03	1.544883E-16	9.076191E-17
2.440000E+03	1.450562E-16	8.191746E-17
2.480000E+03	1.353009E-16	7.330868E-17
2.520000E+03	1.253519E-16	6.503408E-17
2.560000E+03	1.153251E-16	5.717275E-17
2.600000E+03	1.053409E-16	4.979389E-17
2.640000E+03	9.551106E-17	4.295038E-17
2.680000E+03	8.593919E-17	3.667972E-17
2.720000E+03	7.672044E-17	3.100474E-17
2.760000E+03	6.794460E-17	2.593579E-17
2.800000E+03	5.967966E-17	2.146572E-17
2.840000E+03	5.198502E-17	1.757695E-17
2.880000E+03	4.491117E-17	1.424279E-17
2.920000E+03	3.849340E-17	1.142704E-17
2.960000E+03	3.275265E-17	9.086414E-18
3.000000E+03	2.768880E-17	7.170916E-18
3.010000E+03	2.652629E-17	6.752111E-18
3.020000E+03	2.540424E-17	6.355618E-18
3.030000E+03	2.432247E-17	5.980671E-18
3.040000E+03	2.328014E-17	5.626355E-18
3.050000E+03	2.227638E-17	5.291776E-18
3.060000E+03	2.131082E-17	4.976168E-18
3.070000E+03	2.038206E-17	4.678556E-18
3.080000E+03	1.949006E-17	4.398294E-18
3.090000E+03	1.863342E-17	4.134450E-18
3.100000E+03	1.781156E-17	3.886299E-18
3.110000E+03	1.702350E-17	3.653047E-18
3.120000E+03	1.626857E-17	3.433994E-18
3.130000E+03	1.554574E-17	3.228383E-18
3.140000E+03	1.485399E-17	3.035489E-18
3.150000E+03	1.419260E-17	2.854665E-18
3.160000E+03	1.356028E-17	2.685179E-18
3.170000E+03	1.295654E-17	2.526483E-18
3.180000E+03	1.238012E-17	2.377897E-18
3.190000E+03	1.183026E-17	2.238867E-18
3.200000E+03	1.130596E-17	2.108816E-18
3.210000E+03	1.080627E-17	1.987196E-18
3.220000E+03	1.033039E-17	1.873520E-18
3.230000E+03	9.877383E-18	1.767288E-18
3.240000E+03	9.446149E-18	1.668000E-18
3.250000E+03	9.036253E-18	1.575293E-18
3.260000E+03	8.646338E-18	1.488662E-18
3.270000E+03	8.275965E-18	1.407784E-18
3.280000E+03	7.924005E-18	1.332233E-18
3.290000E+03	7.589769E-18	1.261676E-18
3.300000E+03	7.272561E-18	1.195799E-18
3.310000E+03	6.971381E-18	1.134250E-18
3.320000E+03	6.685694E-18	1.076769E-18
3.330000E+03	6.414761E-18	1.023079E-18
3.340000E+03	6.157786E-18	9.729044E-19
3.350000E+03	5.914102E-18	9.260057E-19
3.360000E+03	5.683068E-18	8.821580E-19
3.370000E+03	5.464144E-18	8.411630E-19
3.380000E+03	5.256589E-18	8.028020E-19
3.390000E+03	5.059983E-18	7.669154E-19
3.400000E+03	4.873650E-18	7.333130E-19
3.410000E+03	4.697085E-18	7.018393E-19
3.420000E+03	4.529862E-18	6.723582E-19
3.430000E+03	4.371349E-18	6.447098E-19
3.440000E+03	4.221226E-18	6.187872E-19
3.450000E+03	4.079024E-18	5.944674E-19
3.460000E+03	3.944211E-18	5.716239E-19
3.470000E+03	3.816522E-18	5.501738E-19
3.480000E+03	3.695479E-18	5.300084E-19
3.490000E+03	3.580767E-18	5.110462E-19
3.500000E+03	3.472043E-18	4.932058E-19
3.510000E+03	3.368879E-18	4.763969E-19
3.520000E+03	3.271023E-18	4.605575E-19
3.530000E+03	3.178133E-18	4.456158E-19
3.540000E+03	3.089895E-18	4.315063E-19
3.550000E+03	3.006050E-18	4.181735E-19
3.560000E+03	2.926296E-18	4.055582E-19
3.570000E+03	2.850385E-18	3.936106E-19
3.580000E+03	2.778058E-18	3.822812E-19
3.590000E+03	2.709133E-18	3.715321E-19
3.600000E+03	2.643408E-18	3.613248E-19
3.610000E+03	2.580674E-18	3.516203E-19
3.620000E+03	2.520782E-18	3.423895E-19
3.630000E+03	2.463592E-18	3.336052E-19
3.640000E+03	2.408925E-18	3.252360E-19
3.650000E+03	2.356723E-18	3.172673E-19
3.660000E+03	2.306821E-18	3.096710E-19
3.670000E+03	2.259144E-18	3.024318E-19
3.680000E+03	2.213600E-18	2.955322E-19
3.690000E+03	2.170098E-18	2.889559E-19
3.700000E+03	2.128568E-18	2.826893E-19
3.710000E+03	2.088960E-18	2.767221E-19
3.720000E+03	2.051150E-18	2.710347E-19
3.730000E+03	2.015128E-18	2.656221E-19
3.740000E+03	1.980791E-18	2.604682E-19
3.750000E+03	1.948094E-18	2.555642E-19
3.760000E+03	1.916988E-18	2.509012E-19
3.770000E+03	1.887382E-18	2.464648E-19
3.780000E+03	1.859261E-18	2.422511E-19
3.790000E+03	1.832552E-18	2.382483E-19
3.800000E+03	1.807212E-18	2.344488E-19
3.810000E+03	1.783186E-18	2.308438E-19
3.820000E+03	1.760434E-18	2.274263E-19
3.830000E+03	1.738905E-18	2.241878E-19
3.840000E+03	1.718561E-18	2.211221E-19
3.850000E+03	1.699354E-18	2.182214E-19
3.860000E+03	1.681264E-18	2.154817E-19
3.870000E+03	1.664244E-18	2.128956E-19
3.880000E+03	1.648250E-18	2.104561E-19
3.890000E+03	1.633252E-18	2.081583E-19
3.900000E+03	1.619210E-18	2.059957E-19
3.910000E+03	1.606108E-18	2.039653E-19
3.920000E+03	1.593907E-18	2.020611E-19
3.930000E+03	1.582581E-18	2.002788E-19
3.940000E+03	1.572095E-18	1.986128E-19
3.950000E+03	1.562413E-18	1.970576E-19
3.960000E+03	1.553536E-18	1.956127E-19
3.970000E+03	1.545408E-18	1.942698E-19
3.980000E+03	1.538019E-18	1.930270E-19
3.990000E+03	1.531338E-18	1.918795E-19
4.000000E+03	1.525347E-18	1.908241E-19
4.010000E+03	1.520027E-18	1.898577E-19
4.020000E+03	1.515338E-18	1.889745E-19
4.030000E+03	1.511276E-18	1.881730E-19
4.040000E+03	1.507812E-18	1.874493E-19
4.050000E+03	1.504933E-18	1.868006E-19
4.060000E+03	1.502613E-18	1.862233E-19
4.070000E+03	1.500826E-18	1.857135E-19
4.080000E+03	1.499573E-18	1.852706E-19
4.090000E+03	1.498818E-18	1.848896E-19
4.100000E+03	1.498550E-18	1.845685E-19
4.110000E+03	1.498759E-18	1.843056E-19
4.120000E+03	1.499413E-18	1.840963E-19
4.130000E+03	1.500513E-18	1.839402E-19
4.140000E+03	1.502028E-18	1.838330E-19
4.150000E+03	1.503950E-18	1.837732E-19
4.160000E+03	1.506272E-18	1.837593E-19
4.170000E+03	1.508964E-18	1.837872E-19
4.180000E+03	1.512031E-18	1.838569E-19
4.190000E+03	1.515431E-18	1.839629E-19
4.200000E+03	1.519184E-18	1.841069E-19
4.210000E+03	1.523248E-18	1.842836E-19
4.220000E+03	1.527619E-18	1.844919E-19
4.230000E+03	1.532281E-18	1.847294E-19
4.240000E+03	1.537231E-18	1.849952E-19
4.250000E+03	1.542428E-18	1.852841E-19
4.260000E+03	1.547882E-18	1.855968E-19
4.270000E+03	1.553567E-18	1.859297E-19
4.280000E+03	1.559454E-18	1.862792E-19
4.290000E+03	1.565543E-18	1.866447E-19
4.300000E+03	1.571819E-18	1.870241E-19
4.310000E+03	1.578242E-18	1.874125E-19
4.320000E+03	1.584798E-18	1.878079E-19
4.330000E+03	1.591472E-18	1.882083E-19
4.340000E+03	1.598250E-18	1.886117E-19
4.350000E+03	1.605115E-18	1.890161E-19
4.360000E+03	1.612066E-18	1.894210E-19
4.370000E+03	1.619088E-18	1.898246E-19
4.380000E+03	1.626164E-18	1.902247E-19
4.390000E+03	1.633318E-18	1.906241E-19
4.400000E+03	1.640535E-18	1.910207E-19
4.410000E+03	1.647813E-18	1.914144E-19
4.420000E+03	1.655163E-18	1.918062E-19
4.430000E+03	1.662585E-18	1.921961E-19
4.440000E+03	1.670063E-18	1.925823E-19
4.450000E+03	1.677611E-18	1.929665E-19
4.460000E+03	1.685216E-18	1.933470E-19
4.470000E+03	1.692878E-18	1.937240E-19
4.480000E+03	1.700600E-18	1.940980E-19
4.490000E+03	1.708354E-18	1.944660E-19
4.500000E+03	1.716158E-18	1.948303E-19
4.510000E+03	1.724001E-18	1.951899E-19
4.520000E+03	1.731874E-18	1.955441E-19
4.530000E+03	1.739782E-18	1.958939E-19
4.540000E+03	1.747702E-18	1.962369E-19
4.550000E+03	1.755641E-18	1.965745E-19
4.560000E+03	1.763606E-18	1.969081E-19
4.570000E+03	1.771593E-18	1.972374E-19
4.580000E+03	1.779579E-18	1.975608E-19
4.590000E+03	1.787576E-18	1.978798E-19
4.600000E+03	1.795580E-18	1.981947E-19
4.610000E+03	1.803586E-18	1.985056E-19
4.620000E+03	1.811609E-18	1.988143E-19
4.630000E+03	1.819630E-18	1.991194E-19
4.640000E+03	1.827664E-18	1.994227E-19
4.650000E+03	1.835710E-18	1.997246E-19
4.660000E+03	1.843768E-18	2.000251E-19
4.670000E+03	1.851838E-18	2.003243E-19
4.680000E+03	1.859920E-18	2.006223E-19
4.690000E+03	1.868017E-18	2.009189E-19
4.700000E+03	1.876162E-18	2.012176E-19
4.710000E+03	1.884358E-18	2.015181E-19
4.720000E+03	1.892609E-18	2.018202E-19
4.730000E+03	1.900951E-18	2.021271E-19
4.740000E+03	1.909373E-18	2.024367E-19
4.750000E+03	1.917878E-18	2.027487E-19
4.760000E+03	1.926490E-18	2.030644E-19
4.770000E+03	1.935213E-18	2.033837E-19
4.780000E+03	1.944037E-18	2.037044E-19
4.790000E+03	1.952985E-18	2.040281E-19
4.800000E+03	1.962064E-18	2.043550E-19
4.810000E+03	1.971263E-18	2.046832E-19
4.820000E+03	1.980608E-18	2.050149E-19
4.830000E+03	1.990107E-18	2.053506E-19
4.840000E+03	1.999768E-18	2.056910E-19
4.850000E+03	2.009599E-18	2.060370E-19
4.860000E+03	2.019592E-18	2.063880E-19
4.870000E+03	2.029792E-18	2.067490E-19
4.880000E+03	2.040172E-18	2.071178E-19
4.890000E+03	2.050741E-18	2.074961E-19
4.900000E+03	2.061528E-18	2.078878E-19
4.910000E+03	2.072544E-18	2.082948E-19
4.920000E+03	2.083799E-18	2.087192E-19
4.930000E+03	2.095265E-18	2.091592E-19
4.940000E+03	2.106990E-18	2.096208E-19
4.950000E+03	2.118965E-18	2.101039E-19
4.960000E+03	2.131202E-18	2.106106E-19
4.970000E+03	2.143709E-18	2.111426E-19
4.980000E+03	2.156497E-18	2.117014E-19
4.990000E+03	2.169554E-18	2.122863E-19
5.000000E+03	2.182889E-18	2.128985E-19
5.010000E+03	2.196532E-18	2.135408E-19
5.020000E+03	2.210469E-18	2.142118E-19
5.030000E+03	2.224687E-18	2.149099E-19
5.040000E+03	2.239235E-18	2.156393E-19
5.050000E+03	2.254056E-18	2.163938E-19
5.060000E+03	2.269198E-18	2.171776E-19
5.070000E+03	2.284667E-18	2.179904E-19
5.080000E+03	2.300402E-18	2.188258E-19
5.090000E+03	2.316473E-18	2.196899E-19
5.100000E+03	2.332839E-18	2.205787E-19
5.110000E+03	2.349505E-18	2.214924E-19
5.120000E+03	2.366496E-18	2.224334E-19
5.130000E+03	2.383769E-18	2.233984E-19
5.140000E+03	2.401325E-18	2.243885E-19
5.150000E+03	2.419190E-18	2.254073E-19
5.160000E+03	2.437342E-18	2.264546E-19
5.170000E+03	2.455780E-18	2.275330E-19
5.180000E+03	2.474482E-18	2.286430E-19
5.190000E+03	2.493470E-18	2.297904E-19
5.200000E+03	2.512695E-18	2.309743E-19
5.210000E+03	2.532204E-18	2.322035E-19
5.220000E+03	2.551970E-18	2.334803E-19
5.230000E+03	2.571963E-18	2.348074E-19
5.240000E+03	2.592180E-18	2.361898E-19
5.250000E+03	2.612641E-18	2.376354E-19
5.260000E+03	2.633286E-18	2.391449E-19
5.270000E+03	2.654135E-18	2.407263E-19
5.280000E+03	2.675205E-18	2.423876E-19
5.290000E+03	2.696406E-18	2.441274E-19
5.300000E+03	2.717806E-18	2.459582E-19
5.310000E+03	2.739314E-18	2.478782E-19
5.320000E+03	2.760995E-18	2.498996E-19
5.330000E+03	2.782753E-18	2.520200E-19
5.340000E+03	2.804627E-18	2.542486E-19
5.350000E+03	2.826601E-18	2.565895E-19
5.360000E+03	2.848628E-18	2.590436E-19
5.370000E+03	2.870748E-18	2.616190E-19
5.380000E+03	2.892856E-18	2.643105E-19
5.390000E+03	2.915019E-18	2.671276E-19
5.400000E+03	2.937188E-18	2.700693E-19
5.410000E+03	2.959344E-18	2.731360E-19
5.420000E+03	2.981466E-18	2.763280E-19
5.430000E+03	3.003533E-18	2.796448E-19
5.440000E+03	3.025493E-18	2.830825E-19
5.450000E+03	3.047324E-18	2.866394E-19
5.460000E+03	3.069001E-18	2.903131E-19
5.470000E+03	3.090501E-18	2.941009E-19
5.480000E+03	3.111766E-18	2.979964E-19
5.490000E+03	3.132738E-18	3.019928E-19
5.500000E+03	3.153421E-18	3.060886E-19
5.510000E+03	3.173753E-18	3.102761E-19
5.520000E+03	3.193672E-18	3.145468E-19
5.530000E+03	3.213112E-18	3.188920E-19
5.540000E+03	3.232073E-18	3.233090E-19
5.550000E+03	3.250456E-18	3.277850E-19
5.560000E+03	3.268258E-18	3.323168E-19
5.570000E+03	3.285378E-18	3.368911E-19
5.580000E+03	3.301778E-18	3.415008E-19
5.590000E+03	3.317455E-18	3.461425E-19
5.600000E+03	3.332306E-18	3.508020E-19
5.610000E+03	3.346327E-18	3.554759E-19
5.620000E+03	3.359484E-18	3.601571E-19
5.630000E+03	3.371705E-18	3.648350E-19
5.640000E+03	3.382958E-18	3.695027E-19
5.650000E+03	3.393243E-18	3.741573E-19
5.660000E+03	3.402530E-18	3.787926E-19
5.670000E+03	3.410755E-18	3.833985E-19
5.680000E+03	3.417926E-18	3.879729E-19
5.690000E+03	3.424054E-18	3.925144E-19
5.700000E+03	3.429046E-18	3.970093E-19
5.710000E+03	3.432919E-18	4.014564E-19
5.720000E+03	3.435693E-18	4.058549E-19
5.730000E+03	3.437354E-18	4.101997E-19
5.740000E+03	3.437892E-18	4.144859E-19
5.750000E+03	3.437300E-18	4.187086E-19
5.760000E+03	3.435574E-18	4.228625E-19
5.770000E+03	3.432749E-18	4.269468E-19
5.780000E+03	3.428791E-18	4.309516E-19
5.790000E+03	3.423778E-18	4.348801E-19
5.800000E+03	3.417681E-18	4.387219E-19
5.810000E+03	3.410512E-18	4.424705E-19
5.820000E+03	3.402358E-18	4.461290E-19
5.830000E+03	3.393165E-18	4.496812E-19
5.840000E+03	3.382989E-18	4.531249E-19
5.850000E+03	3.371893E-18	4.564581E-19
5.860000E+03	3.359867E-18	4.596691E-19
5.870000E+03	3.346979E-18	4.627560E-19
5.880000E+03	3.333226E-18	4.657073E-19
5.890000E+03	3.318720E-18	4.685269E-19
5.900000E+03	3.303462E-18	4.712039E-19
5.910000E+03	3.287495E-18	4.737331E-19
5.920000E+03	3.270900E-18	4.761150E-19
5.930000E+03	3.253684E-18	4.783401E-19
5.940000E+03	3.235931E-18	4.804105E-19
5.950000E+03	3.217651E-18	4.823180E-19
5.960000E+03	3.198927E-18	4.840661E-19
5.970000E+03	3.179807E-18	4.856535E-19
5.980000E+03	3.160337E-18	4.870798E-19
5.990000E+03	3.140527E-18	4.883395E-19
6.000000E+03	3.120459E-18	4.894390E-19
6.010000E+03	3.100176E-18	4.903799E-19
6.020000E+03	3.079685E-18	4.911585E-19
6.030000E+03	3.059065E-18	4.917831E-19
6.040000E+03	3.038320E-18	4.922512E-19
6.050000E+03	3.017454E-18	4.925605E-19
6.060000E+03	2.996575E-18	4.927266E-19
6.070000E+03	2.975648E-18	4.927421E-19
6.080000E+03	2.954744E-18	4.926177E-19
6.090000E+03	2.933824E-18	4.923464E-19
6.100000E+03	2.912956E-18	4.919393E-19
6.110000E+03	2.892133E-18	4.913958E-19
6.120000E+03	2.871385E-18	4.907212E-19
6.130000E+03	2.850738E-18	4.899214E-19
6.140000E+03	2.830182E-18	4.889957E-19
6.150000E+03	2.809740E-18	4.879500E-19
6.160000E+03	2.789435E-18	4.867901E-19
6.170000E+03	2.769286E-18	4.855216E-19
6.180000E+03	2.749314E-18	4.841503E-19
6.190000E+03	2.729499E-18	4.826756E-19
6.200000E+03	2.709894E-18	4.811095E-19
6.210000E+03	2.690513E-18	4.794572E-19
6.220000E+03	2.671368E-18	4.777244E-19
6.230000E+03	2.652506E-18	4.759224E-19
6.240000E+03	2.633972E-18	4.740627E-19
6.250000E+03	2.615809E-18	4.721567E-19
6.260000E+03	2.598060E-18	4.702155E-19
6.270000E+03	2.580766E-18	4.682503E-19
6.280000E+03	2.564002E-18	4.662783E-19
6.290000E+03	2.547737E-18	4.642976E-19
6.300000E+03	2.532115E-18	4.623381E-19
6.310000E+03	2.517103E-18	4.603975E-19
6.320000E+03	2.502774E-18	4.584927E-19
6.330000E+03	2.489165E-18	4.566341E-19
6.340000E+03	2.476312E-18	4.548317E-19
6.350000E+03	2.464218E-18	4.530894E-19
6.360000E+03	2.452917E-18	4.514169E-19
6.370000E+03	2.442448E-18	4.498243E-19
6.380000E+03	2.432810E-18	4.483149E-19
6.390000E+03	2.424007E-18	4.468917E-19
6.400000E+03	2.416075E-18	4.455645E-19
6.410000E+03	2.408945E-18	4.443230E-19
6.420000E+03	2.402619E-18	4.431702E-19
6.430000E+03	2.397063E-18	4.421021E-19
6.440000E+03	2.392207E-18	4.411081E-19
6.450000E+03	2.388088E-18	4.401970E-19
6.460000E+03	2.384635E-18	4.393579E-19
6.470000E+03	2.381885E-18	4.385994E-19
6.480000E+03	2.379839E-18	4.379236E-19
6.490000E+03	2.378461E-18	4.373256E-19
6.500000E+03	2.377753E-18	4.368071E-19
6.510000E+03	2.377715E-18	4.363700E-19
6.520000E+03	2.378348E-18	4.360158E-19
6.530000E+03	2.379653E-18	4.357460E-19
6.540000E+03	2.381668E-18	4.355689E-19
6.550000E+03	2.384359E-18	4.354793E-19
6.560000E+03	2.387689E-18	4.354715E-19
6.570000E+03	2.391734E-18	4.355607E-19
6.580000E+03	2.396421E-18	4.357341E-19
6.590000E+03	2.401788E-18	4.360000E-19
6.600000E+03	2.407839E-18	4.363594E-19
6.610000E+03	2.414576E-18	4.368136E-19
6.620000E+03	2.421999E-18	4.373636E-19
6.630000E+03	2.430074E-18	4.380031E-19
6.640000E+03	2.438840E-18	4.387405E-19
6.650000E+03	2.448261E-18	4.395693E-19
6.660000E+03	2.458379E-18	4.404977E-19
6.670000E+03	2.469157E-18	4.415193E-19
6.680000E+03	2.480596E-18	4.426349E-19
6.690000E+03	2.492742E-18	4.438528E-19
6.700000E+03	2.505599E-18	4.451738E-19
6.710000E+03	2.519084E-18	4.465837E-19
6.720000E+03	2.533286E-18	4.480984E-19
6.730000E+03	2.548123E-18	4.497033E-19
6.740000E+03	2.563685E-18	4.514146E-19
6.750000E+03	2.579932E-18	4.532253E-19
6.760000E+03	2.596824E-18	4.551282E-19
6.770000E+03	2.614454E-18	4.571399E-19
6.780000E+03	2.632736E-18	4.592451E-19
6.790000E+03	2.651719E-18	4.614525E-19
6.800000E+03	2.671408E-18	4.637628E-19
6.810000E+03	2.691807E-18	4.661767E-19
6.820000E+03	2.712874E-18	4.686865E-19
6.830000E+03	2.734660E-18	4.713013E-19
6.840000E+03	2.757121E-18	4.740130E-19
6.850000E+03	2.780311E-18	4.768308E-19
6.860000E+03	2.804183E-18	4.797466E-19
6.870000E+03	2.828741E-18	4.827609E-19
6.880000E+03	2.854040E-18	4.858829E-19
6.890000E+03	2.879981E-18	4.890952E-19
6.900000E+03	2.906671E-18	4.924163E-19
6.910000E+03	2.934062E-18	4.958374E-19
6.920000E+03	2.962156E-18	4.993590E-19
6.930000E+03	2.990958E-18	5.029814E-19
6.940000E+03	3.020470E-18	5.067048E-19
6.950000E+03	3.050636E-18	5.105198E-19
6.960000E+03	3.081518E-18	5.144364E-19
6.970000E+03	3.113117E-18	5.184546E-19
6.980000E+03	3.145436E-18	5.225748E-19
6.990000E+03	3.178356E-18	5.267769E-19
7.000000E+03	3.212060E-18	5.310913E-19
7.010000E+03	3.246365E-18	5.354874E-19
7.020000E+03	3.281396E-18	5.399857E-19
7.030000E+03	3.317089E-18	5.445758E-19
7.040000E+03	3.353445E-18	5.492574E-19
7.050000E+03	3.390462E-18	5.540304E-19
7.060000E+03	3.428140E-18	5.588945E-19
7.070000E+03	3.466407E-18	5.638383E-19
7.080000E+03	3.505331E-18	5.688724E-19
7.090000E+03	3.544909E-18	5.739966E-19
7.100000E+03	3.585066E-18	5.791988E-19
7.110000E+03	3.625871E-18	5.844900E-19
7.120000E+03	3.667248E-18	5.898580E-19
7.130000E+03	3.709189E-18	5.953018E-19
7.140000E+03	3.751688E-18	6.008205E-19
7.150000E+03	3.794816E-18	6.064257E-19
7.160000E+03	3.838412E-18	6.120915E-19
7.170000E+03	3.882463E-18	6.178165E-19
7.180000E+03	3.927121E-18	6.236249E-19
7.190000E+03	3.972215E-18	6.294898E-19
7.200000E+03	4.017733E-18	6.354095E-19
7.210000E+03	4.063747E-18	6.413958E-19
7.220000E+03	4.110158E-18	6.474335E-19
7.230000E+03	4.156953E-18	6.535209E-19
7.240000E+03	4.204117E-18	6.596559E-19
7.250000E+03	4.251632E-18	6.658364E-19
7.260000E+03	4.299576E-18	6.720749E-19
7.270000E+03	4.347746E-18	6.783402E-19
7.280000E+03	4.396312E-18	6.846592E-19
7.290000E+03	4.445162E-18	6.910151E-19
7.300000E+03	4.494278E-18	6.974054E-19
7.310000E+03	4.543737E-18	7.038429E-19
7.320000E+03	4.593424E-18	7.103100E-19
7.330000E+03	4.643419E-18	7.168197E-19
7.340000E+03	4.693704E-18	7.233698E-19
7.350000E+03	4.744369E-18	7.299744E-19
7.360000E+03	4.795399E-18	7.366317E-19
7.370000E+03	4.846890E-18	7.433567E-19
7.380000E+03	4.898719E-18	7.501311E-19
7.390000E+03	4.951212E-18	7.570047E-19
7.400000E+03	5.004368E-18	7.639776E-19
7.410000E+03	5.058069E-18	7.710319E-19
7.420000E+03	5.112666E-18	7.782207E-19
7.430000E+03	5.168047E-18	7.855272E-19
7.440000E+03	5.224338E-18	7.929702E-19
7.450000E+03	5.281425E-18	8.005321E-19
7.460000E+03	5.339438E-18	8.082323E-19
7.470000E+03	5.398004E-18	8.160138E-19
7.480000E+03	5.457373E-18	8.239145E-19
7.490000E+03	5.517155E-18	8.318748E-19
7.500000E+03	5.577469E-18	8.399125E-19
7.510000E+03	5.638171E-18	8.480055E-19
7.520000E+03	5.699109E-18	8.561307E-19
7.530000E+03	5.760401E-18	8.643051E-19
7.540000E+03	5.821607E-18	8.724626E-19
7.550000E+03	5.882979E-18	8.806404E-19
7.560000E+03	5.944348E-18	8.888130E-19
7.570000E+03	6.005684E-18	8.969753E-19
7.580000E+03	6.066808E-18	9.051002E-19
7.590000E+03	6.127834E-18	9.132042E-19
7.600000E+03	6.188576E-18	9.212593E-19
7.610000E+03	6.248996E-18	9.292593E-19
7.620000E+03	6.309212E-18	9.372216E-19
7.630000E+03	6.369030E-18	9.451170E-19
7.640000E+03	6.428573E-18	9.529633E-19
7.650000E+03	6.487477E-18	9.607066E-19
7.660000E+03	6.546028E-18	9.683886E-19
7.670000E+03	6.604021E-18	9.759793E-19
7.680000E+03	6.661585E-18	9.834972E-19
7.690000E+03	6.718510E-18	9.909117E-19
7.700000E+03	6.774756E-18	9.982164E-19
7.710000E+03	6.830277E-18	1.005405E-18
7.720000E+03	6.885389E-18	1.012524E-18
7.730000E+03	6.939520E-18	1.019489E-18
7.740000E+03	6.993167E-18	1.026374E-18
7.750000E+03	7.045931E-18	1.033120E-18
7.760000E+03	7.097957E-18	1.039748E-18
