#wls	flux	fluxerr
1.600000E+03	1.714895E-16	1.666276E-16
1.640000E+03	1.794408E-16	1.713975E-16
1.680000E+03	1.873950E-16	1.758334E-16
1.720000E+03	1.952981E-16	1.798757E-16
1.760000E+03	2.030667E-16	1.834418E-16
1.800000E+03	2.106253E-16	1.864627E-16
1.840000E+03	2.178686E-16	1.888493E-16
1.880000E+03	2.247195E-16	1.905455E-16
1.920000E+03	2.310720E-16	1.914778E-16
1.960000E+03	2.367922E-16	1.915599E-16
2.000000E+03	2.417785E-16	1.907433E-16
2.040000E+03	2.458874E-16	1.889574E-16
2.080000E+03	2.489765E-16	1.861466E-16
2.120000E+03	2.509443E-16	1.822996E-16
2.160000E+03	2.516124E-16	1.773625E-16
2.200000E+03	2.508277E-16	1.713170E-16
2.240000E+03	2.484254E-16	1.641542E-16
2.280000E+03	2.441921E-16	1.558523E-16
2.320000E+03	2.383009E-16	1.466503E-16
2.360000E+03	2.309524E-16	1.367910E-16
2.400000E+03	2.223064E-16	1.264782E-16
2.440000E+03	2.125050E-16	1.158929E-16
2.480000E+03	2.017006E-16	1.052095E-16
2.520000E+03	1.900468E-16	9.458930E-17
2.560000E+03	1.776948E-16	8.417759E-17
2.600000E+03	1.648199E-16	7.411555E-17
2.640000E+03	1.516027E-16	6.452826E-17
2.680000E+03	1.382278E-16	5.552343E-17
2.720000E+03	1.248825E-16	4.718949E-17
2.760000E+03	1.117595E-16	3.959626E-17
2.800000E+03	9.902793E-17	3.278443E-17
2.840000E+03	8.685142E-17	2.677415E-17
2.880000E+03	7.538480E-17	2.156504E-17
2.920000E+03	6.476002E-17	1.713427E-17
2.960000E+03	5.508367E-17	1.343947E-17
3.000000E+03	4.642184E-17	1.041945E-17
3.010000E+03	4.441803E-17	9.761203E-18
3.020000E+03	4.247900E-17	9.139171E-18
3.030000E+03	4.060521E-17	8.552201E-18
3.040000E+03	3.879596E-17	7.998904E-18
3.050000E+03	3.705049E-17	7.477901E-18
3.060000E+03	3.536874E-17	6.987980E-18
3.070000E+03	3.374899E-17	6.527618E-18
3.080000E+03	3.219165E-17	6.095743E-18
3.090000E+03	3.069486E-17	5.690871E-18
3.100000E+03	2.925806E-17	5.311801E-18
3.110000E+03	2.787994E-17	4.957229E-18
3.120000E+03	2.655969E-17	4.625975E-18
3.130000E+03	2.529587E-17	4.316781E-18
3.140000E+03	2.408706E-17	4.028426E-18
3.150000E+03	2.293225E-17	3.759797E-18
3.160000E+03	2.182951E-17	3.509668E-18
3.170000E+03	2.077817E-17	3.277053E-18
3.180000E+03	1.977627E-17	3.060801E-18
3.190000E+03	1.882262E-17	2.859932E-18
3.200000E+03	1.791557E-17	2.673447E-18
3.210000E+03	1.705349E-17	2.500398E-18
3.220000E+03	1.623501E-17	2.339924E-18
3.230000E+03	1.545846E-17	2.191167E-18
3.240000E+03	1.472190E-17	2.053283E-18
3.250000E+03	1.402444E-17	1.925612E-18
3.260000E+03	1.336371E-17	1.807333E-18
3.270000E+03	1.273874E-17	1.697861E-18
3.280000E+03	1.214753E-17	1.596500E-18
3.290000E+03	1.158870E-17	1.502675E-18
3.300000E+03	1.106088E-17	1.415844E-18
3.310000E+03	1.056224E-17	1.335437E-18
3.320000E+03	1.009165E-17	1.261003E-18
3.330000E+03	9.647693E-18	1.192083E-18
3.340000E+03	9.228855E-18	1.128233E-18
3.350000E+03	8.833841E-18	1.069062E-18
3.360000E+03	8.461408E-18	1.014206E-18
3.370000E+03	8.110473E-18	9.633436E-19
3.380000E+03	7.779665E-18	9.161383E-19
3.390000E+03	7.468109E-18	8.723294E-19
3.400000E+03	7.174562E-18	8.316304E-19
3.410000E+03	6.898046E-18	7.938005E-19
3.420000E+03	6.637714E-18	7.586282E-19
3.430000E+03	6.392430E-18	7.258822E-19
3.440000E+03	6.161527E-18	6.953962E-19
3.450000E+03	5.944135E-18	6.669917E-19
3.460000E+03	5.739305E-18	6.404912E-19
3.470000E+03	5.546489E-18	6.157708E-19
3.480000E+03	5.364842E-18	5.926808E-19
3.490000E+03	5.193766E-18	5.711065E-19
3.500000E+03	5.032638E-18	5.509352E-19
3.510000E+03	4.880716E-18	5.320472E-19
3.520000E+03	4.737529E-18	5.143570E-19
3.530000E+03	4.602484E-18	4.977695E-19
3.540000E+03	4.475035E-18	4.821986E-19
3.550000E+03	4.354725E-18	4.675713E-19
3.560000E+03	4.241041E-18	4.538114E-19
3.570000E+03	4.133554E-18	4.408541E-19
3.580000E+03	4.031826E-18	4.286367E-19
3.590000E+03	3.935533E-18	4.171097E-19
3.600000E+03	3.844331E-18	4.062235E-19
3.610000E+03	3.757865E-18	3.959295E-19
3.620000E+03	3.675877E-18	3.861900E-19
3.630000E+03	3.598121E-18	3.769704E-19
3.640000E+03	3.524299E-18	3.682319E-19
3.650000E+03	3.454294E-18	3.599553E-19
3.660000E+03	3.387831E-18	3.521061E-19
3.670000E+03	3.324776E-18	3.446653E-19
3.680000E+03	3.264967E-18	3.376113E-19
3.690000E+03	3.208250E-18	3.309239E-19
3.700000E+03	3.154501E-18	3.245869E-19
3.710000E+03	3.103631E-18	3.185867E-19
3.720000E+03	3.055444E-18	3.128996E-19
3.730000E+03	3.009908E-18	3.075190E-19
3.740000E+03	2.966859E-18	3.024252E-19
3.750000E+03	2.926216E-18	2.976073E-19
3.760000E+03	2.887897E-18	2.930548E-19
3.770000E+03	2.851752E-18	2.887500E-19
3.780000E+03	2.817754E-18	2.846882E-19
3.790000E+03	2.785783E-18	2.808555E-19
3.800000E+03	2.755771E-18	2.772428E-19
3.810000E+03	2.727630E-18	2.738395E-19
3.820000E+03	2.701299E-18	2.706378E-19
3.830000E+03	2.676698E-18	2.676277E-19
3.840000E+03	2.653772E-18	2.648021E-19
3.850000E+03	2.632449E-18	2.621523E-19
3.860000E+03	2.612704E-18	2.596739E-19
3.870000E+03	2.594470E-18	2.573587E-19
3.880000E+03	2.577685E-18	2.551992E-19
3.890000E+03	2.562308E-18	2.531899E-19
3.900000E+03	2.548282E-18	2.513239E-19
3.910000E+03	2.535587E-18	2.495986E-19
3.920000E+03	2.524169E-18	2.480075E-19
3.930000E+03	2.513991E-18	2.465464E-19
3.940000E+03	2.504999E-18	2.452097E-19
3.950000E+03	2.497143E-18	2.439914E-19
3.960000E+03	2.490429E-18	2.428912E-19
3.970000E+03	2.484770E-18	2.419001E-19
3.980000E+03	2.480158E-18	2.410159E-19
3.990000E+03	2.476548E-18	2.402333E-19
4.000000E+03	2.473915E-18	2.395487E-19
4.010000E+03	2.472236E-18	2.389587E-19
4.020000E+03	2.471450E-18	2.384561E-19
4.030000E+03	2.471556E-18	2.380398E-19
4.040000E+03	2.472515E-18	2.377048E-19
4.050000E+03	2.474307E-18	2.374482E-19
4.060000E+03	2.476893E-18	2.372657E-19
4.070000E+03	2.480238E-18	2.371529E-19
4.080000E+03	2.484343E-18	2.371095E-19
4.090000E+03	2.489155E-18	2.371300E-19
4.100000E+03	2.494662E-18	2.372126E-19
4.110000E+03	2.500853E-18	2.373556E-19
4.120000E+03	2.507678E-18	2.375542E-19
4.130000E+03	2.515152E-18	2.378086E-19
4.140000E+03	2.523230E-18	2.381136E-19
4.150000E+03	2.531906E-18	2.384681E-19
4.160000E+03	2.541177E-18	2.388706E-19
4.170000E+03	2.550998E-18	2.393162E-19
4.180000E+03	2.561386E-18	2.398056E-19
4.190000E+03	2.572278E-18	2.403323E-19
4.200000E+03	2.583711E-18	2.408988E-19
4.210000E+03	2.595623E-18	2.414989E-19
4.220000E+03	2.608014E-18	2.421318E-19
4.230000E+03	2.620864E-18	2.427950E-19
4.240000E+03	2.634173E-18	2.434884E-19
4.250000E+03	2.647884E-18	2.442058E-19
4.260000E+03	2.662021E-18	2.449487E-19
4.270000E+03	2.676548E-18	2.457135E-19
4.280000E+03	2.691429E-18	2.464962E-19
4.290000E+03	2.706670E-18	2.472968E-19
4.300000E+03	2.722257E-18	2.481137E-19
4.310000E+03	2.738131E-18	2.489412E-19
4.320000E+03	2.754279E-18	2.497774E-19
4.330000E+03	2.770683E-18	2.506209E-19
4.340000E+03	2.787325E-18	2.514696E-19
4.350000E+03	2.804188E-18	2.523219E-19
4.360000E+03	2.821274E-18	2.531781E-19
4.370000E+03	2.838562E-18	2.540359E-19
4.380000E+03	2.856031E-18	2.548928E-19
4.390000E+03	2.873726E-18	2.557527E-19
4.400000E+03	2.891625E-18	2.566128E-19
4.410000E+03	2.909726E-18	2.574726E-19
4.420000E+03	2.928049E-18	2.583336E-19
4.430000E+03	2.946594E-18	2.591948E-19
4.440000E+03	2.965332E-18	2.600533E-19
4.450000E+03	2.984284E-18	2.609109E-19
4.460000E+03	3.003422E-18	2.617647E-19
4.470000E+03	3.022744E-18	2.626148E-19
4.480000E+03	3.042247E-18	2.634612E-19
4.490000E+03	3.061881E-18	2.643000E-19
4.500000E+03	3.081671E-18	2.651339E-19
4.510000E+03	3.101595E-18	2.659618E-19
4.520000E+03	3.121633E-18	2.667820E-19
4.530000E+03	3.141792E-18	2.675956E-19
4.540000E+03	3.162026E-18	2.683996E-19
4.550000E+03	3.182345E-18	2.691953E-19
4.560000E+03	3.202760E-18	2.699847E-19
4.570000E+03	3.223253E-18	2.707680E-19
4.580000E+03	3.243785E-18	2.715430E-19
4.590000E+03	3.264367E-18	2.723126E-19
4.600000E+03	3.284989E-18	2.730778E-19
4.610000E+03	3.305637E-18	2.738388E-19
4.620000E+03	3.326332E-18	2.745988E-19
4.630000E+03	3.347035E-18	2.753563E-19
4.640000E+03	3.367769E-18	2.761144E-19
4.650000E+03	3.388527E-18	2.768740E-19
4.660000E+03	3.409305E-18	2.776362E-19
4.670000E+03	3.430102E-18	2.784009E-19
4.680000E+03	3.450917E-18	2.791683E-19
4.690000E+03	3.471751E-18	2.799380E-19
4.700000E+03	3.492666E-18	2.807136E-19
4.710000E+03	3.513667E-18	2.814932E-19
4.720000E+03	3.534758E-18	2.822754E-19
4.730000E+03	3.556008E-18	2.830627E-19
4.740000E+03	3.577394E-18	2.838503E-19
4.750000E+03	3.598928E-18	2.846362E-19
4.760000E+03	3.620651E-18	2.854206E-19
4.770000E+03	3.642579E-18	2.862012E-19
4.780000E+03	3.664693E-18	2.869737E-19
4.790000E+03	3.687040E-18	2.877387E-19
4.800000E+03	3.709637E-18	2.884943E-19
4.810000E+03	3.732467E-18	2.892369E-19
4.820000E+03	3.755582E-18	2.899683E-19
4.830000E+03	3.778999E-18	2.906882E-19
4.840000E+03	3.802736E-18	2.913975E-19
4.850000E+03	3.826811E-18	2.920974E-19
4.860000E+03	3.851206E-18	2.927874E-19
4.870000E+03	3.876007E-18	2.934763E-19
4.880000E+03	3.901162E-18	2.941624E-19
4.890000E+03	3.926685E-18	2.948508E-19
4.900000E+03	3.952629E-18	2.955495E-19
4.910000E+03	3.979013E-18	2.962635E-19
4.920000E+03	4.005853E-18	2.969980E-19
4.930000E+03	4.033089E-18	2.977531E-19
4.940000E+03	4.060812E-18	2.985394E-19
4.950000E+03	4.088998E-18	2.993594E-19
4.960000E+03	4.117658E-18	3.002183E-19
4.970000E+03	4.146809E-18	3.011200E-19
4.980000E+03	4.176463E-18	3.020684E-19
4.990000E+03	4.206594E-18	3.030639E-19
5.000000E+03	4.237211E-18	3.041071E-19
5.010000E+03	4.268359E-18	3.052009E-19
5.020000E+03	4.300001E-18	3.063419E-19
5.030000E+03	4.332097E-18	3.075236E-19
5.040000E+03	4.364726E-18	3.087480E-19
5.050000E+03	4.397758E-18	3.100020E-19
5.060000E+03	4.431271E-18	3.112856E-19
5.070000E+03	4.465260E-18	3.125931E-19
5.080000E+03	4.499586E-18	3.139106E-19
5.090000E+03	4.534369E-18	3.152410E-19
5.100000E+03	4.569509E-18	3.165736E-19
5.110000E+03	4.604991E-18	3.179040E-19
5.120000E+03	4.640844E-18	3.192305E-19
5.130000E+03	4.676961E-18	3.205431E-19
5.140000E+03	4.713320E-18	3.218397E-19
5.150000E+03	4.749944E-18	3.231216E-19
5.160000E+03	4.786761E-18	3.243862E-19
5.170000E+03	4.823744E-18	3.256362E-19
5.180000E+03	4.860817E-18	3.268725E-19
5.190000E+03	4.897996E-18	3.281049E-19
5.200000E+03	4.935154E-18	3.293354E-19
5.210000E+03	4.972354E-18	3.305785E-19
5.220000E+03	5.009513E-18	3.318411E-19
5.230000E+03	5.046549E-18	3.331313E-19
5.240000E+03	5.083422E-18	3.344601E-19
5.250000E+03	5.120146E-18	3.358431E-19
5.260000E+03	5.156582E-18	3.372873E-19
5.270000E+03	5.192742E-18	3.388081E-19
5.280000E+03	5.228639E-18	3.404220E-19
5.290000E+03	5.264080E-18	3.421332E-19
5.300000E+03	5.299181E-18	3.439641E-19
5.310000E+03	5.333747E-18	3.459178E-19
5.320000E+03	5.367895E-18	3.480181E-19
5.330000E+03	5.401427E-18	3.502657E-19
5.340000E+03	5.434409E-18	3.526786E-19
5.350000E+03	5.466804E-18	3.552678E-19
5.360000E+03	5.498525E-18	3.580366E-19
5.370000E+03	5.529654E-18	3.609987E-19
5.380000E+03	5.560004E-18	3.641492E-19
5.390000E+03	5.589725E-18	3.675011E-19
5.400000E+03	5.618756E-18	3.710522E-19
5.410000E+03	5.647097E-18	3.748039E-19
5.420000E+03	5.674760E-18	3.787542E-19
5.430000E+03	5.701766E-18	3.829009E-19
5.440000E+03	5.728085E-18	3.872380E-19
5.450000E+03	5.753754E-18	3.917612E-19
5.460000E+03	5.778819E-18	3.964661E-19
5.470000E+03	5.803324E-18	4.013486E-19
5.480000E+03	5.827256E-18	4.063968E-19
5.490000E+03	5.850603E-18	4.115990E-19
5.500000E+03	5.873469E-18	4.169521E-19
5.510000E+03	5.895846E-18	4.224436E-19
5.520000E+03	5.917723E-18	4.280616E-19
5.530000E+03	5.939092E-18	4.337956E-19
5.540000E+03	5.960062E-18	4.396429E-19
5.550000E+03	5.980562E-18	4.455890E-19
5.560000E+03	6.000699E-18	4.516338E-19
5.570000E+03	6.020397E-18	4.577621E-19
5.580000E+03	6.039700E-18	4.639685E-19
5.590000E+03	6.058709E-18	4.702530E-19
5.600000E+03	6.077336E-18	4.765996E-19
5.610000E+03	6.095671E-18	4.830070E-19
5.620000E+03	6.113741E-18	4.894705E-19
5.630000E+03	6.131499E-18	4.959801E-19
5.640000E+03	6.148959E-18	5.025319E-19
5.650000E+03	6.166191E-18	5.091288E-19
5.660000E+03	6.183201E-18	5.157691E-19
5.670000E+03	6.199928E-18	5.224469E-19
5.680000E+03	6.216435E-18	5.291685E-19
5.690000E+03	6.232790E-18	5.359402E-19
5.700000E+03	6.248864E-18	5.427532E-19
5.710000E+03	6.264721E-18	5.496158E-19
5.720000E+03	6.280427E-18	5.565366E-19
5.730000E+03	6.295982E-18	5.635193E-19
5.740000E+03	6.311386E-18	5.705680E-19
5.750000E+03	6.326634E-18	5.776862E-19
5.760000E+03	6.341720E-18	5.848774E-19
5.770000E+03	6.356706E-18	5.921509E-19
5.780000E+03	6.371513E-18	5.995009E-19
5.790000E+03	6.386268E-18	6.069397E-19
5.800000E+03	6.400889E-18	6.144594E-19
5.810000E+03	6.415365E-18	6.220545E-19
5.820000E+03	6.429821E-18	6.297318E-19
5.830000E+03	6.444108E-18	6.374702E-19
5.840000E+03	6.458286E-18	6.452661E-19
5.850000E+03	6.472418E-18	6.531152E-19
5.860000E+03	6.486429E-18	6.609988E-19
5.870000E+03	6.500392E-18	6.689106E-19
5.880000E+03	6.514242E-18	6.768296E-19
5.890000E+03	6.528137E-18	6.847568E-19
5.900000E+03	6.542039E-18	6.926701E-19
5.910000E+03	6.555990E-18	7.005552E-19
5.920000E+03	6.570106E-18	7.084061E-19
5.930000E+03	6.584350E-18	7.162017E-19
5.940000E+03	6.598834E-18	7.239376E-19
5.950000E+03	6.613516E-18	7.315942E-19
5.960000E+03	6.628503E-18	7.391685E-19
5.970000E+03	6.643822E-18	7.466509E-19
5.980000E+03	6.659501E-18	7.540324E-19
5.990000E+03	6.675487E-18	7.612958E-19
6.000000E+03	6.691876E-18	7.684421E-19
6.010000E+03	6.708688E-18	7.754651E-19
6.020000E+03	6.725862E-18	7.823492E-19
6.030000E+03	6.743488E-18	7.890984E-19
6.040000E+03	6.761499E-18	7.956987E-19
6.050000E+03	6.779822E-18	8.021360E-19
6.060000E+03	6.798622E-18	8.084256E-19
6.070000E+03	6.817740E-18	8.145451E-19
6.080000E+03	6.837256E-18	8.205009E-19
6.090000E+03	6.857000E-18	8.262705E-19
6.100000E+03	6.877047E-18	8.318615E-19
6.110000E+03	6.897304E-18	8.372613E-19
6.120000E+03	6.917754E-18	8.424675E-19
6.130000E+03	6.938383E-18	8.474786E-19
6.140000E+03	6.959084E-18	8.522820E-19
6.150000E+03	6.979833E-18	8.568758E-19
6.160000E+03	7.000607E-18	8.612587E-19
6.170000E+03	7.021376E-18	8.654292E-19
6.180000E+03	7.042113E-18	8.693859E-19
6.190000E+03	7.062698E-18	8.731171E-19
6.200000E+03	7.083187E-18	8.766329E-19
6.210000E+03	7.103548E-18	8.799325E-19
6.220000E+03	7.123747E-18	8.830161E-19
6.230000E+03	7.143843E-18	8.858948E-19
6.240000E+03	7.163899E-18	8.885805E-19
6.250000E+03	7.183978E-18	8.910862E-19
6.260000E+03	7.204147E-18	8.934245E-19
6.270000E+03	7.224476E-18	8.956091E-19
6.280000E+03	7.245138E-18	8.976663E-19
6.290000E+03	7.266012E-18	8.995860E-19
6.300000E+03	7.287477E-18	9.014199E-19
6.310000E+03	7.309420E-18	9.031590E-19
6.320000E+03	7.332030E-18	9.048313E-19
6.330000E+03	7.355400E-18	9.064529E-19
6.340000E+03	7.379631E-18	9.080406E-19
6.350000E+03	7.404719E-18	9.095983E-19
6.360000E+03	7.430770E-18	9.111428E-19
6.370000E+03	7.457893E-18	9.126920E-19
6.380000E+03	7.486095E-18	9.142500E-19
6.390000E+03	7.515384E-18	9.158217E-19
6.400000E+03	7.545882E-18	9.174253E-19
6.410000E+03	7.577379E-18	9.190385E-19
6.420000E+03	7.609886E-18	9.206657E-19
6.430000E+03	7.643299E-18	9.222978E-19
6.440000E+03	7.677398E-18	9.239110E-19
6.450000E+03	7.712302E-18	9.255226E-19
6.460000E+03	7.747785E-18	9.271088E-19
6.470000E+03	7.783967E-18	9.286866E-19
6.480000E+03	7.820856E-18	9.302597E-19
6.490000E+03	7.858339E-18	9.318175E-19
6.500000E+03	7.896423E-18	9.333630E-19
6.510000E+03	7.935115E-18	9.348995E-19
6.520000E+03	7.974423E-18	9.364303E-19
6.530000E+03	8.014355E-18	9.379581E-19
6.540000E+03	8.055047E-18	9.395006E-19
6.550000E+03	8.096385E-18	9.410462E-19
6.560000E+03	8.138248E-18	9.425821E-19
6.570000E+03	8.180905E-18	9.441408E-19
6.580000E+03	8.224105E-18	9.456946E-19
6.590000E+03	8.267988E-18	9.472606E-19
6.600000E+03	8.312564E-18	9.488407E-19
6.610000E+03	8.357844E-18	9.504374E-19
6.620000E+03	8.403838E-18	9.520519E-19
6.630000E+03	8.450417E-18	9.536702E-19
6.640000E+03	8.497728E-18	9.553097E-19
6.650000E+03	8.545639E-18	9.569554E-19
6.660000E+03	8.594301E-18	9.586245E-19
6.670000E+03	8.643579E-18	9.603023E-19
6.680000E+03	8.693480E-18	9.619895E-19
6.690000E+03	8.744162E-18	9.637033E-19
6.700000E+03	8.795637E-18	9.654453E-19
6.710000E+03	8.847619E-18	9.671835E-19
6.720000E+03	8.900421E-18	9.689520E-19
6.730000E+03	8.953751E-18	9.707190E-19
6.740000E+03	9.007934E-18	9.725190E-19
6.750000E+03	9.062832E-18	9.743365E-19
6.760000E+03	9.118304E-18	9.761562E-19
6.770000E+03	9.174690E-18	9.780131E-19
6.780000E+03	9.231690E-18	9.798745E-19
6.790000E+03	9.289486E-18	9.817591E-19
6.800000E+03	9.348106E-18	9.836681E-19
6.810000E+03	9.407575E-18	9.856027E-19
6.820000E+03	9.467748E-18	9.875469E-19
6.830000E+03	9.528822E-18	9.895192E-19
6.840000E+03	9.590647E-18	9.915026E-19
6.850000E+03	9.653423E-18	9.935166E-19
6.860000E+03	9.716998E-18	9.955435E-19
6.870000E+03	9.781394E-18	9.975839E-19
6.880000E+03	9.846812E-18	9.996573E-19
6.890000E+03	9.912914E-18	1.001727E-18
6.900000E+03	9.980085E-18	1.003830E-18
6.910000E+03	1.004816E-17	1.005950E-18
6.920000E+03	1.011717E-17	1.008086E-18
6.930000E+03	1.018714E-17	1.010240E-18
6.940000E+03	1.025807E-17	1.012413E-18
6.950000E+03	1.032981E-17	1.014586E-18
6.960000E+03	1.040257E-17	1.016780E-18
6.970000E+03	1.047638E-17	1.018996E-18
6.980000E+03	1.055125E-17	1.021235E-18
6.990000E+03	1.062682E-17	1.023461E-18
7.000000E+03	1.070370E-17	1.025733E-18
7.010000E+03	1.078132E-17	1.027995E-18
7.020000E+03	1.086010E-17	1.030287E-18
7.030000E+03	1.093986E-17	1.032594E-18
7.040000E+03	1.102064E-17	1.034916E-18
7.050000E+03	1.110244E-17	1.037255E-18
7.060000E+03	1.118531E-17	1.039616E-18
7.070000E+03	1.126905E-17	1.041979E-18
7.080000E+03	1.135391E-17	1.044368E-18
7.090000E+03	1.143993E-17	1.046785E-18
7.100000E+03	1.152692E-17	1.049211E-18
7.110000E+03	1.161514E-17	1.051671E-18
7.120000E+03	1.170439E-17	1.054145E-18
7.130000E+03	1.179471E-17	1.056637E-18
7.140000E+03	1.188614E-17	1.059147E-18
7.150000E+03	1.197895E-17	1.061700E-18
7.160000E+03	1.207269E-17	1.064254E-18
7.170000E+03	1.216739E-17	1.066811E-18
7.180000E+03	1.226359E-17	1.069418E-18
7.190000E+03	1.236081E-17	1.072032E-18
7.200000E+03	1.245909E-17	1.074656E-18
7.210000E+03	1.255872E-17	1.077315E-18
7.220000E+03	1.265946E-17	1.079991E-18
7.230000E+03	1.276136E-17	1.082685E-18
7.240000E+03	1.286443E-17	1.085404E-18
7.250000E+03	1.296870E-17	1.088150E-18
7.260000E+03	1.307447E-17	1.090952E-18
7.270000E+03	1.318120E-17	1.093770E-18
7.280000E+03	1.328947E-17	1.096654E-18
7.290000E+03	1.339900E-17	1.099589E-18
7.300000E+03	1.350978E-17	1.102583E-18
7.310000E+03	1.362211E-17	1.105666E-18
7.320000E+03	1.373568E-17	1.108824E-18
7.330000E+03	1.385077E-17	1.112092E-18
7.340000E+03	1.396736E-17	1.115479E-18
7.350000E+03	1.408576E-17	1.119021E-18
7.360000E+03	1.420593E-17	1.122732E-18
7.370000E+03	1.432819E-17	1.126647E-18
7.380000E+03	1.445219E-17	1.130755E-18
7.390000E+03	1.457888E-17	1.135146E-18
7.400000E+03	1.470828E-17	1.139831E-18
7.410000E+03	1.484002E-17	1.144798E-18
7.420000E+03	1.497513E-17	1.150139E-18
7.430000E+03	1.511326E-17	1.155837E-18
7.440000E+03	1.525477E-17	1.161930E-18
7.450000E+03	1.539928E-17	1.168402E-18
7.460000E+03	1.554715E-17	1.175286E-18
7.470000E+03	1.569725E-17	1.182503E-18
7.480000E+03	1.585027E-17	1.190114E-18
7.490000E+03	1.600502E-17	1.198032E-18
7.500000E+03	1.616181E-17	1.206283E-18
7.510000E+03	1.632016E-17	1.214831E-18
7.520000E+03	1.647963E-17	1.223635E-18
7.530000E+03	1.664064E-17	1.232710E-18
7.540000E+03	1.680199E-17	1.241947E-18
7.550000E+03	1.696450E-17	1.251382E-18
7.560000E+03	1.712775E-17	1.260961E-18
7.570000E+03	1.729175E-17	1.270656E-18
7.580000E+03	1.745605E-17	1.280407E-18
7.590000E+03	1.762106E-17	1.290215E-18
7.600000E+03	1.778630E-17	1.300017E-18
7.610000E+03	1.795173E-17	1.309785E-18
7.620000E+03	1.811775E-17	1.319523E-18
7.630000E+03	1.828381E-17	1.329176E-18
7.640000E+03	1.845032E-17	1.338752E-18
7.650000E+03	1.861622E-17	1.348166E-18
7.660000E+03	1.878235E-17	1.357467E-18
7.670000E+03	1.894810E-17	1.366606E-18
7.680000E+03	1.911384E-17	1.375601E-18
7.690000E+03	1.927892E-17	1.384405E-18
7.700000E+03	1.944318E-17	1.393003E-18
7.710000E+03	1.960645E-17	1.401380E-18
7.720000E+03	1.976956E-17	1.409599E-18
7.730000E+03	1.993080E-17	1.417539E-18
7.740000E+03	2.009150E-17	1.425297E-18
7.750000E+03	2.025042E-17	1.432793E-18
7.760000E+03	2.040786E-17	1.440051E-18
