#wls	flux	fluxerr
1.600000E+03	1.631742E-16	1.582035E-16
1.640000E+03	1.680350E-16	1.602087E-16
1.680000E+03	1.726047E-16	1.617247E-16
1.720000E+03	1.768505E-16	1.627309E-16
1.760000E+03	1.806668E-16	1.631443E-16
1.800000E+03	1.840478E-16	1.629781E-16
1.840000E+03	1.868835E-16	1.621569E-16
1.880000E+03	1.891471E-16	1.606848E-16
1.920000E+03	1.907781E-16	1.585413E-16
1.960000E+03	1.916880E-16	1.556891E-16
2.000000E+03	1.918550E-16	1.521520E-16
2.040000E+03	1.912176E-16	1.479265E-16
2.080000E+03	1.897260E-16	1.430242E-16
2.120000E+03	1.873446E-16	1.374729E-16
2.160000E+03	1.840308E-16	1.313001E-16
2.200000E+03	1.797232E-16	1.245251E-16
2.240000E+03	1.743681E-16	1.171794E-16
2.280000E+03	1.679894E-16	1.093510E-16
2.320000E+03	1.607178E-16	1.011943E-16
2.360000E+03	1.527808E-16	9.291287E-17
2.400000E+03	1.443592E-16	8.466341E-17
2.440000E+03	1.356158E-16	7.657738E-17
2.480000E+03	1.266673E-16	6.874656E-17
2.520000E+03	1.176358E-16	6.125490E-17
2.560000E+03	1.086192E-16	5.416287E-17
2.600000E+03	9.971891E-17	4.752302E-17
2.640000E+03	9.101601E-17	4.136870E-17
2.680000E+03	8.258628E-17	3.572272E-17
2.720000E+03	7.449827E-17	3.059713E-17
2.760000E+03	6.680513E-17	2.599091E-17
2.800000E+03	5.955353E-17	2.189499E-17
2.840000E+03	5.277991E-17	1.829189E-17
2.880000E+03	4.651396E-17	1.515814E-17
2.920000E+03	4.077740E-17	1.246491E-17
2.960000E+03	3.558058E-17	1.017814E-17
3.000000E+03	3.092276E-17	8.260141E-18
3.010000E+03	2.984114E-17	7.833548E-18
3.020000E+03	2.879152E-17	7.426686E-18
3.030000E+03	2.777462E-17	7.039196E-18
3.040000E+03	2.678857E-17	6.670059E-18
3.050000E+03	2.583399E-17	6.318902E-18
3.060000E+03	2.491021E-17	5.985030E-18
3.070000E+03	2.401704E-17	5.667889E-18
3.080000E+03	2.315280E-17	5.366575E-18
3.090000E+03	2.231825E-17	5.080783E-18
3.100000E+03	2.151174E-17	4.809654E-18
3.110000E+03	2.073345E-17	4.552766E-18
3.120000E+03	1.998263E-17	4.309497E-18
3.130000E+03	1.925815E-17	4.079166E-18
3.140000E+03	1.856011E-17	3.861356E-18
3.150000E+03	1.788744E-17	3.655423E-18
3.160000E+03	1.723980E-17	3.460888E-18
3.170000E+03	1.661646E-17	3.277214E-18
3.180000E+03	1.601673E-17	3.103883E-18
3.190000E+03	1.544017E-17	2.940450E-18
3.200000E+03	1.488607E-17	2.786425E-18
3.210000E+03	1.435344E-17	2.641293E-18
3.220000E+03	1.384215E-17	2.504700E-18
3.230000E+03	1.335137E-17	2.376173E-18
3.240000E+03	1.288081E-17	2.255343E-18
3.250000E+03	1.242992E-17	2.141813E-18
3.260000E+03	1.199793E-17	2.035165E-18
3.270000E+03	1.158468E-17	1.935102E-18
3.280000E+03	1.118922E-17	1.841203E-18
3.290000E+03	1.081132E-17	1.753179E-18
3.300000E+03	1.045038E-17	1.670687E-18
3.310000E+03	1.010547E-17	1.593355E-18
3.320000E+03	9.776353E-18	1.520925E-18
3.330000E+03	9.462424E-18	1.453098E-18
3.340000E+03	9.162989E-18	1.389574E-18
3.350000E+03	8.877505E-18	1.330088E-18
3.360000E+03	8.605447E-18	1.274388E-18
3.370000E+03	8.346304E-18	1.222238E-18
3.380000E+03	8.099569E-18	1.173413E-18
3.390000E+03	7.864756E-18	1.127701E-18
3.400000E+03	7.641293E-18	1.084889E-18
3.410000E+03	7.428629E-18	1.044778E-18
3.420000E+03	7.226520E-18	1.007220E-18
3.430000E+03	7.034271E-18	9.720158E-19
3.440000E+03	6.851571E-18	9.390271E-19
3.450000E+03	6.677949E-18	9.081028E-19
3.460000E+03	6.513042E-18	8.791141E-19
3.470000E+03	6.356343E-18	8.519187E-19
3.480000E+03	6.207456E-18	8.263960E-19
3.490000E+03	6.066076E-18	8.024450E-19
3.500000E+03	5.931777E-18	7.799513E-19
3.510000E+03	5.804291E-18	7.588277E-19
3.520000E+03	5.683115E-18	7.389614E-19
3.530000E+03	5.568026E-18	7.202798E-19
3.540000E+03	5.458638E-18	7.026935E-19
3.550000E+03	5.354653E-18	6.861291E-19
3.560000E+03	5.255787E-18	6.705171E-19
3.570000E+03	5.161672E-18	6.557813E-19
3.580000E+03	5.072174E-18	6.418785E-19
3.590000E+03	4.987009E-18	6.287474E-19
3.600000E+03	4.905913E-18	6.163322E-19
3.610000E+03	4.828781E-18	6.045997E-19
3.620000E+03	4.755325E-18	5.934940E-19
3.630000E+03	4.685367E-18	5.829751E-19
3.640000E+03	4.618741E-18	5.730066E-19
3.650000E+03	4.555289E-18	5.635525E-19
3.660000E+03	4.494863E-18	5.545802E-19
3.670000E+03	4.437324E-18	5.460594E-19
3.680000E+03	4.382578E-18	5.379656E-19
3.690000E+03	4.330537E-18	5.302763E-19
3.700000E+03	4.281077E-18	5.229662E-19
3.710000E+03	4.234228E-18	5.160283E-19
3.720000E+03	4.189829E-18	5.094343E-19
3.730000E+03	4.147874E-18	5.031753E-19
3.740000E+03	4.108276E-18	4.972329E-19
3.750000E+03	4.070987E-18	4.915940E-19
3.760000E+03	4.036027E-18	4.862552E-19
3.770000E+03	4.003239E-18	4.811913E-19
3.780000E+03	3.972638E-18	4.763991E-19
3.790000E+03	3.944205E-18	4.718722E-19
3.800000E+03	3.917820E-18	4.675918E-19
3.810000E+03	3.893494E-18	4.635562E-19
3.820000E+03	3.871205E-18	4.597603E-19
3.830000E+03	3.850868E-18	4.561912E-19
3.840000E+03	3.832430E-18	4.528407E-19
3.850000E+03	3.815931E-18	4.497125E-19
3.860000E+03	3.801256E-18	4.467913E-19
3.870000E+03	3.788414E-18	4.440770E-19
3.880000E+03	3.777354E-18	4.415634E-19
3.890000E+03	3.768055E-18	4.392470E-19
3.900000E+03	3.760494E-18	4.371249E-19
3.910000E+03	3.754592E-18	4.351883E-19
3.920000E+03	3.750330E-18	4.334343E-19
3.930000E+03	3.747720E-18	4.318639E-19
3.940000E+03	3.746715E-18	4.304724E-19
3.950000E+03	3.747266E-18	4.292536E-19
3.960000E+03	3.749357E-18	4.282056E-19
3.970000E+03	3.752940E-18	4.273238E-19
3.980000E+03	3.757998E-18	4.266052E-19
3.990000E+03	3.764516E-18	4.260474E-19
4.000000E+03	3.772476E-18	4.256487E-19
4.010000E+03	3.781806E-18	4.253994E-19
4.020000E+03	3.792493E-18	4.252972E-19
4.030000E+03	3.804525E-18	4.253405E-19
4.040000E+03	3.817892E-18	4.255264E-19
4.050000E+03	3.832555E-18	4.258493E-19
4.060000E+03	3.848478E-18	4.263043E-19
4.070000E+03	3.865654E-18	4.268883E-19
4.080000E+03	3.884051E-18	4.275955E-19
4.090000E+03	3.903662E-18	4.284237E-19
4.100000E+03	3.924453E-18	4.293667E-19
4.110000E+03	3.946419E-18	4.304217E-19
4.120000E+03	3.969523E-18	4.315836E-19
4.130000E+03	3.993731E-18	4.328454E-19
4.140000E+03	4.019038E-18	4.342043E-19
4.150000E+03	4.045407E-18	4.356545E-19
4.160000E+03	4.072837E-18	4.371918E-19
4.170000E+03	4.101263E-18	4.388061E-19
4.180000E+03	4.130685E-18	4.404943E-19
4.190000E+03	4.161039E-18	4.422454E-19
4.200000E+03	4.192359E-18	4.440588E-19
4.210000E+03	4.224582E-18	4.459248E-19
4.220000E+03	4.257711E-18	4.478395E-19
4.230000E+03	4.291648E-18	4.497894E-19
4.240000E+03	4.326426E-18	4.517759E-19
4.250000E+03	4.361945E-18	4.537850E-19
4.260000E+03	4.398237E-18	4.558174E-19
4.270000E+03	4.435198E-18	4.578611E-19
4.280000E+03	4.472755E-18	4.599060E-19
4.290000E+03	4.510941E-18	4.619540E-19
4.300000E+03	4.549611E-18	4.639899E-19
4.310000E+03	4.588801E-18	4.660152E-19
4.320000E+03	4.628366E-18	4.680142E-19
4.330000E+03	4.668342E-18	4.699904E-19
4.340000E+03	4.708659E-18	4.719347E-19
4.350000E+03	4.749245E-18	4.738391E-19
4.360000E+03	4.790100E-18	4.757037E-19
4.370000E+03	4.831188E-18	4.775221E-19
4.380000E+03	4.872548E-18	4.792964E-19
4.390000E+03	4.914104E-18	4.810182E-19
4.400000E+03	4.955935E-18	4.826918E-19
4.410000E+03	4.998043E-18	4.843149E-19
4.420000E+03	5.040434E-18	4.858863E-19
4.430000E+03	5.083110E-18	4.874033E-19
4.440000E+03	5.126120E-18	4.888680E-19
4.450000E+03	5.169429E-18	4.902763E-19
4.460000E+03	5.213090E-18	4.916295E-19
4.470000E+03	5.257119E-18	4.929263E-19
4.480000E+03	5.301531E-18	4.941672E-19
4.490000E+03	5.346297E-18	4.953471E-19
4.500000E+03	5.391430E-18	4.964674E-19
4.510000E+03	5.436901E-18	4.975269E-19
4.520000E+03	5.482765E-18	4.985317E-19
4.530000E+03	5.528941E-18	4.994778E-19
4.540000E+03	5.575439E-18	5.003715E-19
4.550000E+03	5.622268E-18	5.012185E-19
4.560000E+03	5.669338E-18	5.020182E-19
4.570000E+03	5.716706E-18	5.027853E-19
4.580000E+03	5.764284E-18	5.035208E-19
4.590000E+03	5.812084E-18	5.042363E-19
4.600000E+03	5.860017E-18	5.049367E-19
4.610000E+03	5.908150E-18	5.056362E-19
4.620000E+03	5.956453E-18	5.063418E-19
4.630000E+03	6.004844E-18	5.070571E-19
4.640000E+03	6.053347E-18	5.077885E-19
4.650000E+03	6.101989E-18	5.085429E-19
4.660000E+03	6.150745E-18	5.093232E-19
4.670000E+03	6.199538E-18	5.101203E-19
4.680000E+03	6.248508E-18	5.109430E-19
4.690000E+03	6.297693E-18	5.117924E-19
4.700000E+03	6.347025E-18	5.126560E-19
4.710000E+03	6.396545E-18	5.135314E-19
4.720000E+03	6.446302E-18	5.144178E-19
4.730000E+03	6.496171E-18	5.152956E-19
4.740000E+03	6.546203E-18	5.161609E-19
4.750000E+03	6.596330E-18	5.170021E-19
4.760000E+03	6.646608E-18	5.178131E-19
4.770000E+03	6.697034E-18	5.185851E-19
4.780000E+03	6.747544E-18	5.193079E-19
4.790000E+03	6.798199E-18	5.199787E-19
4.800000E+03	6.848939E-18	5.205886E-19
4.810000E+03	6.899826E-18	5.211417E-19
4.820000E+03	6.950804E-18	5.216290E-19
4.830000E+03	7.001878E-18	5.220501E-19
4.840000E+03	7.053053E-18	5.224086E-19
4.850000E+03	7.104400E-18	5.227121E-19
4.860000E+03	7.155859E-18	5.229627E-19
4.870000E+03	7.207432E-18	5.231716E-19
4.880000E+03	7.259055E-18	5.233425E-19
4.890000E+03	7.310868E-18	5.234977E-19
4.900000E+03	7.362804E-18	5.236483E-19
4.910000E+03	7.414858E-18	5.238044E-19
4.920000E+03	7.466951E-18	5.239743E-19
4.930000E+03	7.519141E-18	5.241778E-19
4.940000E+03	7.571343E-18	5.244140E-19
4.950000E+03	7.623536E-18	5.246881E-19
4.960000E+03	7.675776E-18	5.250122E-19
4.970000E+03	7.727974E-18	5.253782E-19
4.980000E+03	7.780118E-18	5.257849E-19
4.990000E+03	7.832115E-18	5.262285E-19
5.000000E+03	7.884020E-18	5.267072E-19
5.010000E+03	7.935810E-18	5.272175E-19
5.020000E+03	7.987383E-18	5.277525E-19
5.030000E+03	8.038705E-18	5.282994E-19
5.040000E+03	8.089742E-18	5.288477E-19
5.050000E+03	8.140374E-18	5.293858E-19
5.060000E+03	8.190640E-18	5.299063E-19
5.070000E+03	8.240497E-18	5.304012E-19
5.080000E+03	8.289742E-18	5.308575E-19
5.090000E+03	8.338416E-18	5.312720E-19
5.100000E+03	8.386483E-18	5.316420E-19
5.110000E+03	8.433823E-18	5.319649E-19
5.120000E+03	8.480413E-18	5.322365E-19
5.130000E+03	8.526227E-18	5.324582E-19
5.140000E+03	8.571245E-18	5.326362E-19
5.150000E+03	8.615369E-18	5.327605E-19
5.160000E+03	8.658669E-18	5.328368E-19
5.170000E+03	8.700962E-18	5.328631E-19
5.180000E+03	8.742307E-18	5.328502E-19
5.190000E+03	8.782592E-18	5.328073E-19
5.200000E+03	8.821786E-18	5.327585E-19
5.210000E+03	8.859847E-18	5.327277E-19
5.220000E+03	8.896730E-18	5.327485E-19
5.230000E+03	8.932210E-18	5.328515E-19
5.240000E+03	8.966394E-18	5.330777E-19
5.250000E+03	8.999122E-18	5.334591E-19
5.260000E+03	9.030315E-18	5.340363E-19
5.270000E+03	9.059780E-18	5.348252E-19
5.280000E+03	9.087408E-18	5.358498E-19
5.290000E+03	9.113089E-18	5.371390E-19
5.300000E+03	9.136720E-18	5.387084E-19
5.310000E+03	9.158200E-18	5.405784E-19
5.320000E+03	9.177344E-18	5.427686E-19
5.330000E+03	9.194263E-18	5.453010E-19
5.340000E+03	9.208711E-18	5.481807E-19
5.350000E+03	9.220633E-18	5.514274E-19
5.360000E+03	9.230182E-18	5.550586E-19
5.370000E+03	9.237157E-18	5.590735E-19
5.380000E+03	9.241724E-18	5.634958E-19
5.390000E+03	9.243785E-18	5.683146E-19
5.400000E+03	9.243430E-18	5.735323E-19
5.410000E+03	9.240569E-18	5.791424E-19
5.420000E+03	9.235405E-18	5.851399E-19
5.430000E+03	9.227871E-18	5.915047E-19
5.440000E+03	9.218090E-18	5.982325E-19
5.450000E+03	9.205931E-18	6.052895E-19
5.460000E+03	9.191548E-18	6.126637E-19
5.470000E+03	9.174914E-18	6.203336E-19
5.480000E+03	9.156022E-18	6.282647E-19
5.490000E+03	9.135050E-18	6.364377E-19
5.500000E+03	9.111912E-18	6.448169E-19
5.510000E+03	9.086627E-18	6.533593E-19
5.520000E+03	9.059314E-18	6.620312E-19
5.530000E+03	9.029909E-18	6.707903E-19
5.540000E+03	8.998630E-18	6.796097E-19
5.550000E+03	8.965332E-18	6.884401E-19
5.560000E+03	8.930323E-18	6.972706E-19
5.570000E+03	8.893641E-18	7.060632E-19
5.580000E+03	8.855325E-18	7.147835E-19
5.590000E+03	8.815501E-18	7.234089E-19
5.600000E+03	8.774293E-18	7.319121E-19
5.610000E+03	8.731733E-18	7.402627E-19
5.620000E+03	8.688115E-18	7.484580E-19
5.630000E+03	8.643364E-18	7.564633E-19
5.640000E+03	8.597753E-18	7.642794E-19
5.650000E+03	8.551199E-18	7.718811E-19
5.660000E+03	8.503964E-18	7.792752E-19
5.670000E+03	8.456133E-18	7.864577E-19
5.680000E+03	8.407695E-18	7.934207E-19
5.690000E+03	8.358811E-18	8.001742E-19
5.700000E+03	8.309548E-18	8.067238E-19
5.710000E+03	8.260055E-18	8.130868E-19
5.720000E+03	8.210392E-18	8.192721E-19
5.730000E+03	8.160526E-18	8.252825E-19
5.740000E+03	8.110683E-18	8.311477E-19
5.750000E+03	8.060918E-18	8.368768E-19
5.760000E+03	8.011198E-18	8.424706E-19
5.770000E+03	7.961660E-18	8.479476E-19
5.780000E+03	7.912439E-18	8.533210E-19
5.790000E+03	7.863585E-18	8.585949E-19
5.800000E+03	7.815063E-18	8.637639E-19
5.810000E+03	7.767015E-18	8.688363E-19
5.820000E+03	7.719582E-18	8.738202E-19
5.830000E+03	7.672819E-18	8.787153E-19
5.840000E+03	7.626704E-18	8.835083E-19
5.850000E+03	7.581377E-18	8.882056E-19
5.860000E+03	7.536898E-18	8.928048E-19
5.870000E+03	7.493419E-18	8.973109E-19
5.880000E+03	7.451014E-18	9.017202E-19
5.890000E+03	7.409671E-18	9.060198E-19
5.900000E+03	7.369545E-18	9.102154E-19
5.910000E+03	7.330626E-18	9.142935E-19
5.920000E+03	7.293225E-18	9.182829E-19
5.930000E+03	7.257153E-18	9.221512E-19
5.940000E+03	7.222540E-18	9.259081E-19
5.950000E+03	7.189514E-18	9.295647E-19
5.960000E+03	7.158028E-18	9.331113E-19
5.970000E+03	7.128115E-18	9.365493E-19
5.980000E+03	7.099884E-18	9.398920E-19
5.990000E+03	7.073275E-18	9.431309E-19
6.000000E+03	7.048386E-18	9.462799E-19
6.010000E+03	7.025069E-18	9.493208E-19
6.020000E+03	7.003497E-18	9.522786E-19
6.030000E+03	6.983512E-18	9.551350E-19
6.040000E+03	6.965282E-18	9.579166E-19
6.050000E+03	6.948563E-18	9.605930E-19
6.060000E+03	6.933514E-18	9.631906E-19
6.070000E+03	6.920051E-18	9.657024E-19
6.080000E+03	6.908164E-18	9.681314E-19
6.090000E+03	6.897679E-18	9.704582E-19
6.100000E+03	6.888750E-18	9.727096E-19
6.110000E+03	6.881113E-18	9.748531E-19
6.120000E+03	6.874917E-18	9.769150E-19
6.130000E+03	6.869894E-18	9.788629E-19
6.140000E+03	6.866021E-18	9.806981E-19
6.150000E+03	6.863189E-18	9.824102E-19
6.160000E+03	6.861373E-18	9.840012E-19
6.170000E+03	6.860285E-18	9.854348E-19
6.180000E+03	6.859892E-18	9.867110E-19
6.190000E+03	6.860072E-18	9.878181E-19
6.200000E+03	6.860785E-18	9.887548E-19
6.210000E+03	6.861990E-18	9.895206E-19
6.220000E+03	6.863820E-18	9.901405E-19
6.230000E+03	6.866500E-18	9.906517E-19
6.240000E+03	6.870081E-18	9.910670E-19
6.250000E+03	6.874709E-18	9.914130E-19
6.260000E+03	6.880532E-18	9.917156E-19
6.270000E+03	6.887610E-18	9.919889E-19
6.280000E+03	6.896104E-18	9.922608E-19
6.290000E+03	6.906083E-18	9.925454E-19
6.300000E+03	6.917621E-18	9.928578E-19
6.310000E+03	6.930894E-18	9.932272E-19
6.320000E+03	6.945889E-18	9.936553E-19
6.330000E+03	6.962790E-18	9.941715E-19
6.340000E+03	6.981498E-18	9.947652E-19
6.350000E+03	7.002108E-18	9.954520E-19
6.360000E+03	7.024618E-18	9.962342E-19
6.370000E+03	7.049131E-18	9.971290E-19
6.380000E+03	7.075552E-18	9.981243E-19
6.390000E+03	7.103886E-18	9.992223E-19
6.400000E+03	7.134036E-18	1.000412E-18
6.410000E+03	7.165800E-18	1.001665E-18
6.420000E+03	7.199070E-18	1.002968E-18
6.430000E+03	7.233845E-18	1.004323E-18
6.440000E+03	7.270121E-18	1.005731E-18
6.450000E+03	7.307897E-18	1.007192E-18
6.460000E+03	7.347282E-18	1.008723E-18
6.470000E+03	7.388390E-18	1.010340E-18
6.480000E+03	7.431231E-18	1.012044E-18
6.490000E+03	7.475699E-18	1.013823E-18
6.500000E+03	7.522032E-18	1.015706E-18
6.510000E+03	7.570245E-18	1.017698E-18
6.520000E+03	7.620237E-18	1.019783E-18
6.530000E+03	7.672139E-18	1.021978E-18
6.540000E+03	7.725971E-18	1.024286E-18
6.550000E+03	7.781628E-18	1.026692E-18
6.560000E+03	7.839126E-18	1.029196E-18
6.570000E+03	7.898735E-18	1.031833E-18
6.580000E+03	7.960097E-18	1.034556E-18
6.590000E+03	8.023485E-18	1.037397E-18
6.600000E+03	8.088923E-18	1.040358E-18
6.610000E+03	8.156170E-18	1.043408E-18
6.620000E+03	8.225511E-18	1.046580E-18
6.630000E+03	8.296697E-18	1.049840E-18
6.640000E+03	8.370023E-18	1.053226E-18
6.650000E+03	8.445233E-18	1.056701E-18
6.660000E+03	8.522485E-18	1.060283E-18
6.670000E+03	8.601802E-18	1.063974E-18
6.680000E+03	8.683058E-18	1.067755E-18
6.690000E+03	8.766271E-18	1.071626E-18
6.700000E+03	8.851610E-18	1.075606E-18
6.710000E+03	8.938945E-18	1.079675E-18
6.720000E+03	9.028297E-18	1.083833E-18
6.730000E+03	9.119685E-18	1.088082E-18
6.740000E+03	9.213132E-18	1.092419E-18
6.750000E+03	9.308662E-18	1.096845E-18
6.760000E+03	9.406296E-18	1.101361E-18
6.770000E+03	9.505892E-18	1.105946E-18
6.780000E+03	9.607638E-18	1.110617E-18
6.790000E+03	9.711557E-18	1.115377E-18
6.800000E+03	9.817501E-18	1.120202E-18
6.810000E+03	9.925664E-18	1.125112E-18
6.820000E+03	1.003589E-17	1.130086E-18
6.830000E+03	1.014820E-17	1.135123E-18
6.840000E+03	1.026262E-17	1.140218E-18
6.850000E+03	1.037915E-17	1.145374E-18
6.860000E+03	1.049801E-17	1.150606E-18
6.870000E+03	1.061884E-17	1.155872E-18
6.880000E+03	1.074185E-17	1.161191E-18
6.890000E+03	1.086705E-17	1.166561E-18
6.900000E+03	1.099427E-17	1.171957E-18
6.910000E+03	1.112373E-17	1.177402E-18
6.920000E+03	1.125544E-17	1.182891E-18
6.930000E+03	1.138922E-17	1.188401E-18
6.940000E+03	1.152507E-17	1.193931E-18
6.950000E+03	1.166323E-17	1.199501E-18
6.960000E+03	1.180349E-17	1.205085E-18
6.970000E+03	1.194585E-17	1.210683E-18
6.980000E+03	1.209034E-17	1.216291E-18
6.990000E+03	1.223694E-17	1.221907E-18
7.000000E+03	1.238543E-17	1.227505E-18
7.010000E+03	1.253628E-17	1.233130E-18
7.020000E+03	1.268902E-17	1.238731E-18
7.030000E+03	1.284389E-17	1.244332E-18
7.040000E+03	1.300064E-17	1.249903E-18
7.050000E+03	1.315926E-17	1.255442E-18
7.060000E+03	1.332000E-17	1.260975E-18
7.070000E+03	1.348260E-17	1.266468E-18
7.080000E+03	1.364678E-17	1.271895E-18
7.090000E+03	1.381306E-17	1.277306E-18
7.100000E+03	1.398116E-17	1.282668E-18
7.110000E+03	1.415078E-17	1.287951E-18
7.120000E+03	1.432217E-17	1.293181E-18
7.130000E+03	1.449504E-17	1.298323E-18
7.140000E+03	1.466964E-17	1.303399E-18
7.150000E+03	1.484566E-17	1.308382E-18
7.160000E+03	1.502336E-17	1.313289E-18
7.170000E+03	1.520209E-17	1.318063E-18
7.180000E+03	1.538213E-17	1.322728E-18
7.190000E+03	1.556377E-17	1.327304E-18
7.200000E+03	1.574631E-17	1.331732E-18
7.210000E+03	1.592971E-17	1.336012E-18
7.220000E+03	1.611426E-17	1.340164E-18
7.230000E+03	1.629991E-17	1.344187E-18
7.240000E+03	1.648627E-17	1.348055E-18
7.250000E+03	1.667364E-17	1.351792E-18
7.260000E+03	1.686161E-17	1.355370E-18
7.270000E+03	1.705012E-17	1.358796E-18
7.280000E+03	1.723946E-17	1.362097E-18
7.290000E+03	1.742919E-17	1.365251E-18
7.300000E+03	1.761961E-17	1.368298E-18
7.310000E+03	1.781024E-17	1.371211E-18
7.320000E+03	1.800099E-17	1.374002E-18
7.330000E+03	1.819254E-17	1.376749E-18
7.340000E+03	1.838402E-17	1.379400E-18
7.350000E+03	1.857614E-17	1.382034E-18
7.360000E+03	1.876840E-17	1.384649E-18
7.370000E+03	1.896115E-17	1.387291E-18
7.380000E+03	1.915478E-17	1.390022E-18
7.390000E+03	1.934879E-17	1.392847E-18
7.400000E+03	1.954405E-17	1.395860E-18
7.410000E+03	1.974055E-17	1.399098E-18
7.420000E+03	1.993874E-17	1.402644E-18
7.430000E+03	2.013867E-17	1.406538E-18
7.440000E+03	2.034036E-17	1.410827E-18
7.450000E+03	2.054433E-17	1.415604E-18
7.460000E+03	2.074969E-17	1.420847E-18
7.470000E+03	2.095645E-17	1.426606E-18
7.480000E+03	2.116418E-17	1.432906E-18
7.490000E+03	2.137338E-17	1.439822E-18
7.500000E+03	2.158359E-17	1.447362E-18
7.510000E+03	2.179435E-17	1.455542E-18
7.520000E+03	2.200565E-17	1.464345E-18
7.530000E+03	2.221752E-17	1.473711E-18
7.540000E+03	2.242944E-17	1.483539E-18
7.550000E+03	2.264199E-17	1.493771E-18
7.560000E+03	2.285411E-17	1.504243E-18
7.570000E+03	2.306695E-17	1.514944E-18
7.580000E+03	2.328004E-17	1.525726E-18
7.590000E+03	2.349343E-17	1.536487E-18
7.600000E+03	2.370660E-17	1.547103E-18
7.610000E+03	2.392014E-17	1.557515E-18
7.620000E+03	2.413406E-17	1.567647E-18
7.630000E+03	2.434832E-17	1.577443E-18
7.640000E+03	2.456227E-17	1.586814E-18
7.650000E+03	2.477639E-17	1.595773E-18
7.660000E+03	2.498996E-17	1.604275E-18
7.670000E+03	2.520404E-17	1.612391E-18
7.680000E+03	2.541657E-17	1.620012E-18
7.690000E+03	2.562922E-17	1.627288E-18
7.700000E+03	2.584117E-17	1.634185E-18
7.710000E+03	2.605152E-17	1.640683E-18
7.720000E+03	2.626067E-17	1.646859E-18
7.730000E+03	2.646838E-17	1.652717E-18
7.740000E+03	2.667438E-17	1.658276E-18
7.750000E+03	2.687838E-17	1.663568E-18
7.760000E+03	2.708079E-17	1.668640E-18
