#wls	flux	fluxerr
1.600000E+03	1.738563E-16	1.719422E-16
1.640000E+03	1.784954E-16	1.736663E-16
1.680000E+03	1.830821E-16	1.751221E-16
1.720000E+03	1.876532E-16	1.763416E-16
1.760000E+03	1.921538E-16	1.772694E-16
1.800000E+03	1.965595E-16	1.778819E-16
1.840000E+03	2.008577E-16	1.781680E-16
1.880000E+03	2.049976E-16	1.780847E-16
1.920000E+03	2.089410E-16	1.776040E-16
1.960000E+03	2.126459E-16	1.766984E-16
2.000000E+03	2.160362E-16	1.753166E-16
2.040000E+03	2.190812E-16	1.734501E-16
2.080000E+03	2.216750E-16	1.710360E-16
2.120000E+03	2.237189E-16	1.680265E-16
2.160000E+03	2.251365E-16	1.643999E-16
2.200000E+03	2.258222E-16	1.601219E-16
2.240000E+03	2.256509E-16	1.551552E-16
2.280000E+03	2.246171E-16	1.495552E-16
2.320000E+03	2.227025E-16	1.433717E-16
2.360000E+03	2.199878E-16	1.367192E-16
2.400000E+03	2.165595E-16	1.297104E-16
2.440000E+03	2.124969E-16	1.224474E-16
2.480000E+03	2.078819E-16	1.150276E-16
2.520000E+03	2.027543E-16	1.075197E-16
2.560000E+03	1.971861E-16	1.000054E-16
2.600000E+03	1.912061E-16	9.253928E-17
2.640000E+03	1.848543E-16	8.517851E-17
2.680000E+03	1.781610E-16	7.797216E-17
2.720000E+03	1.711688E-16	7.097114E-17
2.760000E+03	1.639144E-16	6.421942E-17
2.800000E+03	1.564370E-16	5.775769E-17
2.840000E+03	1.487923E-16	5.162735E-17
2.880000E+03	1.410347E-16	4.586306E-17
2.920000E+03	1.332315E-16	4.049687E-17
2.960000E+03	1.254529E-16	3.555402E-17
3.000000E+03	1.177685E-16	3.105164E-17
3.010000E+03	1.158692E-16	2.999588E-17
3.020000E+03	1.139813E-16	2.896833E-17
3.030000E+03	1.121052E-16	2.796890E-17
3.040000E+03	1.102440E-16	2.699807E-17
3.050000E+03	1.083958E-16	2.605508E-17
3.060000E+03	1.065613E-16	2.513979E-17
3.070000E+03	1.047457E-16	2.425310E-17
3.080000E+03	1.029451E-16	2.339370E-17
3.090000E+03	1.011644E-16	2.256235E-17
3.100000E+03	9.940210E-17	2.175828E-17
3.110000E+03	9.765876E-17	2.098122E-17
3.120000E+03	9.593890E-17	2.023165E-17
3.130000E+03	9.423922E-17	1.950841E-17
3.140000E+03	9.256231E-17	1.881154E-17
3.150000E+03	9.090884E-17	1.814064E-17
3.160000E+03	8.928131E-17	1.749566E-17
3.170000E+03	8.767884E-17	1.687582E-17
3.180000E+03	8.610405E-17	1.628101E-17
3.190000E+03	8.455794E-17	1.571075E-17
3.200000E+03	8.304011E-17	1.516428E-17
3.210000E+03	8.155331E-17	1.464138E-17
3.220000E+03	8.010014E-17	1.414178E-17
3.230000E+03	7.867905E-17	1.366441E-17
3.240000E+03	7.729399E-17	1.320921E-17
3.250000E+03	7.594353E-17	1.277511E-17
3.260000E+03	7.463257E-17	1.236217E-17
3.270000E+03	7.335834E-17	1.196912E-17
3.280000E+03	7.212302E-17	1.159557E-17
3.290000E+03	7.092851E-17	1.124105E-17
3.300000E+03	6.977429E-17	1.090475E-17
3.310000E+03	6.866198E-17	1.058619E-17
3.320000E+03	6.758987E-17	1.028442E-17
3.330000E+03	6.655941E-17	9.998978E-18
3.340000E+03	6.557084E-17	9.729250E-18
3.350000E+03	6.462435E-17	9.474618E-18
3.360000E+03	6.372006E-17	9.234475E-18
3.370000E+03	6.285711E-17	9.008093E-18
3.380000E+03	6.203559E-17	8.794897E-18
3.390000E+03	6.125549E-17	8.594322E-18
3.400000E+03	6.051679E-17	8.405814E-18
3.410000E+03	5.981861E-17	8.228724E-18
3.420000E+03	5.916087E-17	8.062540E-18
3.430000E+03	5.854350E-17	7.906768E-18
3.440000E+03	5.796562E-17	7.760831E-18
3.450000E+03	5.742712E-17	7.624282E-18
3.460000E+03	5.692788E-17	7.496695E-18
3.470000E+03	5.646634E-17	7.377478E-18
3.480000E+03	5.604312E-17	7.266353E-18
3.490000E+03	5.565739E-17	7.162872E-18
3.500000E+03	5.530838E-17	7.066620E-18
3.510000E+03	5.499598E-17	6.977288E-18
3.520000E+03	5.471881E-17	6.894424E-18
3.530000E+03	5.447678E-17	6.817765E-18
3.540000E+03	5.426922E-17	6.746983E-18
3.550000E+03	5.409542E-17	6.681772E-18
3.560000E+03	5.395474E-17	6.621843E-18
3.570000E+03	5.384652E-17	6.566924E-18
3.580000E+03	5.376956E-17	6.516688E-18
3.590000E+03	5.372384E-17	6.470966E-18
3.600000E+03	5.370818E-17	6.429460E-18
3.610000E+03	5.372258E-17	6.392024E-18
3.620000E+03	5.376533E-17	6.358317E-18
3.630000E+03	5.383699E-17	6.328277E-18
3.640000E+03	5.393533E-17	6.301520E-18
3.650000E+03	5.406035E-17	6.277936E-18
3.660000E+03	5.421097E-17	6.257289E-18
3.670000E+03	5.438717E-17	6.239480E-18
3.680000E+03	5.458731E-17	6.224226E-18
3.690000E+03	5.481138E-17	6.211438E-18
3.700000E+03	5.505826E-17	6.200906E-18
3.710000E+03	5.532789E-17	6.192548E-18
3.720000E+03	5.561913E-17	6.186161E-18
3.730000E+03	5.593240E-17	6.181722E-18
3.740000E+03	5.626597E-17	6.178975E-18
3.750000E+03	5.662021E-17	6.177895E-18
3.760000E+03	5.699437E-17	6.178342E-18
3.770000E+03	5.738820E-17	6.180232E-18
3.780000E+03	5.780092E-17	6.183421E-18
3.790000E+03	5.823271E-17	6.187879E-18
3.800000E+03	5.868217E-17	6.193405E-18
3.810000E+03	5.914944E-17	6.199965E-18
3.820000E+03	5.963411E-17	6.207467E-18
3.830000E+03	6.013573E-17	6.215819E-18
3.840000E+03	6.065381E-17	6.224929E-18
3.850000E+03	6.118734E-17	6.234649E-18
3.860000E+03	6.173684E-17	6.244996E-18
3.870000E+03	6.230176E-17	6.255876E-18
3.880000E+03	6.288098E-17	6.267142E-18
3.890000E+03	6.347443E-17	6.278755E-18
3.900000E+03	6.408148E-17	6.290619E-18
3.910000E+03	6.470200E-17	6.302692E-18
3.920000E+03	6.533477E-17	6.314820E-18
3.930000E+03	6.598016E-17	6.327009E-18
3.940000E+03	6.663687E-17	6.339096E-18
3.950000E+03	6.730528E-17	6.351073E-18
3.960000E+03	6.798401E-17	6.362764E-18
3.970000E+03	6.867225E-17	6.374040E-18
3.980000E+03	6.937027E-17	6.384872E-18
3.990000E+03	7.007663E-17	6.395061E-18
4.000000E+03	7.079100E-17	6.404513E-18
4.010000E+03	7.151245E-17	6.413079E-18
4.020000E+03	7.224063E-17	6.420662E-18
4.030000E+03	7.297455E-17	6.427114E-18
4.040000E+03	7.371325E-17	6.432293E-18
4.050000E+03	7.445633E-17	6.436114E-18
4.060000E+03	7.520342E-17	6.438501E-18
4.070000E+03	7.595225E-17	6.439224E-18
4.080000E+03	7.670366E-17	6.438329E-18
4.090000E+03	7.745535E-17	6.435601E-18
4.100000E+03	7.820751E-17	6.431050E-18
4.110000E+03	7.895840E-17	6.424532E-18
4.120000E+03	7.970753E-17	6.416022E-18
4.130000E+03	8.045372E-17	6.405449E-18
4.140000E+03	8.119576E-17	6.392757E-18
4.150000E+03	8.193236E-17	6.377900E-18
4.160000E+03	8.266216E-17	6.360847E-18
4.170000E+03	8.338442E-17	6.341636E-18
4.180000E+03	8.409766E-17	6.320268E-18
4.190000E+03	8.479959E-17	6.296716E-18
4.200000E+03	8.548850E-17	6.271022E-18
4.210000E+03	8.616261E-17	6.243257E-18
4.220000E+03	8.682068E-17	6.213567E-18
4.230000E+03	8.745998E-17	6.182025E-18
4.240000E+03	8.807835E-17	6.148787E-18
4.250000E+03	8.867275E-17	6.113993E-18
4.260000E+03	8.924150E-17	6.077920E-18
4.270000E+03	8.978130E-17	6.040778E-18
4.280000E+03	9.028950E-17	6.002865E-18
4.290000E+03	9.076333E-17	5.964511E-18
4.300000E+03	9.119842E-17	5.925979E-18
4.310000E+03	9.159336E-17	5.887752E-18
4.320000E+03	9.194370E-17	5.850131E-18
4.330000E+03	9.224652E-17	5.813520E-18
4.340000E+03	9.249820E-17	5.778262E-18
4.350000E+03	9.269762E-17	5.744818E-18
4.360000E+03	9.283999E-17	5.713362E-18
4.370000E+03	9.292473E-17	5.684240E-18
4.380000E+03	9.295016E-17	5.657620E-18
4.390000E+03	9.291593E-17	5.633612E-18
4.400000E+03	9.282423E-17	5.612221E-18
4.410000E+03	9.267811E-17	5.593254E-18
4.420000E+03	9.248276E-17	5.576520E-18
4.430000E+03	9.224061E-17	5.561567E-18
4.440000E+03	9.195752E-17	5.548084E-18
4.450000E+03	9.163719E-17	5.535594E-18
4.460000E+03	9.128423E-17	5.523663E-18
4.470000E+03	9.090481E-17	5.511965E-18
4.480000E+03	9.050113E-17	5.499966E-18
4.490000E+03	9.008002E-17	5.487457E-18
4.500000E+03	8.964342E-17	5.473994E-18
4.510000E+03	8.919706E-17	5.459423E-18
4.520000E+03	8.874408E-17	5.443505E-18
4.530000E+03	8.828823E-17	5.426110E-18
4.540000E+03	8.783301E-17	5.407164E-18
4.550000E+03	8.738014E-17	5.386554E-18
4.560000E+03	8.693424E-17	5.364414E-18
4.570000E+03	8.649656E-17	5.340734E-18
4.580000E+03	8.606973E-17	5.315649E-18
4.590000E+03	8.565613E-17	5.289331E-18
4.600000E+03	8.525794E-17	5.261985E-18
4.610000E+03	8.487639E-17	5.233798E-18
4.620000E+03	8.451250E-17	5.204977E-18
4.630000E+03	8.416790E-17	5.175792E-18
4.640000E+03	8.384408E-17	5.146524E-18
4.650000E+03	8.354236E-17	5.117458E-18
4.660000E+03	8.326241E-17	5.088785E-18
4.670000E+03	8.300611E-17	5.060834E-18
4.680000E+03	8.277367E-17	5.033834E-18
4.690000E+03	8.256523E-17	5.008002E-18
4.700000E+03	8.238164E-17	4.983588E-18
4.710000E+03	8.222291E-17	4.960772E-18
4.720000E+03	8.208900E-17	4.939708E-18
4.730000E+03	8.197984E-17	4.920501E-18
4.740000E+03	8.189542E-17	4.903188E-18
4.750000E+03	8.183569E-17	4.887766E-18
4.760000E+03	8.180055E-17	4.874204E-18
4.770000E+03	8.178986E-17	4.862447E-18
4.780000E+03	8.180260E-17	4.852371E-18
4.790000E+03	8.183928E-17	4.843933E-18
4.800000E+03	8.189796E-17	4.836938E-18
4.810000E+03	8.197976E-17	4.831370E-18
4.820000E+03	8.208255E-17	4.827024E-18
4.830000E+03	8.220651E-17	4.823835E-18
4.840000E+03	8.235095E-17	4.821690E-18
4.850000E+03	8.251348E-17	4.820392E-18
4.860000E+03	8.269491E-17	4.819933E-18
4.870000E+03	8.289357E-17	4.820176E-18
4.880000E+03	8.310942E-17	4.821088E-18
4.890000E+03	8.333912E-17	4.822455E-18
4.900000E+03	8.358423E-17	4.824355E-18
4.910000E+03	8.384224E-17	4.826637E-18
4.920000E+03	8.411307E-17	4.829294E-18
4.930000E+03	8.439504E-17	4.832226E-18
4.940000E+03	8.468812E-17	4.835423E-18
4.950000E+03	8.498978E-17	4.838730E-18
4.960000E+03	8.530003E-17	4.842126E-18
4.970000E+03	8.561893E-17	4.845580E-18
4.980000E+03	8.594403E-17	4.848909E-18
4.990000E+03	8.627461E-17	4.852018E-18
5.000000E+03	8.661087E-17	4.854848E-18
5.010000E+03	8.695218E-17	4.857284E-18
5.020000E+03	8.729625E-17	4.859108E-18
5.030000E+03	8.764339E-17	4.860239E-18
5.040000E+03	8.799306E-17	4.860543E-18
5.050000E+03	8.834475E-17	4.859890E-18
5.060000E+03	8.869707E-17	4.858104E-18
5.070000E+03	8.904947E-17	4.855065E-18
5.080000E+03	8.940230E-17	4.850716E-18
5.090000E+03	8.975320E-17	4.844862E-18
5.100000E+03	9.010244E-17	4.837470E-18
5.110000E+03	9.044847E-17	4.828417E-18
5.120000E+03	9.079059E-17	4.817642E-18
5.130000E+03	9.112802E-17	4.805094E-18
5.140000E+03	9.145992E-17	4.790733E-18
5.150000E+03	9.178448E-17	4.774486E-18
5.160000E+03	9.210159E-17	4.756398E-18
5.170000E+03	9.240830E-17	4.736388E-18
5.180000E+03	9.270432E-17	4.714547E-18
5.190000E+03	9.298737E-17	4.690893E-18
5.200000E+03	9.325599E-17	4.665515E-18
5.210000E+03	9.350857E-17	4.638529E-18
5.220000E+03	9.374340E-17	4.610069E-18
5.230000E+03	9.395673E-17	4.580199E-18
5.240000E+03	9.414845E-17	4.549188E-18
5.250000E+03	9.431365E-17	4.517091E-18
5.260000E+03	9.445197E-17	4.484206E-18
5.270000E+03	9.455921E-17	4.450660E-18
5.280000E+03	9.463392E-17	4.416719E-18
5.290000E+03	9.467269E-17	4.382557E-18
5.300000E+03	9.467211E-17	4.348340E-18
5.310000E+03	9.463065E-17	4.314305E-18
5.320000E+03	9.454402E-17	4.280535E-18
5.330000E+03	9.441085E-17	4.247212E-18
5.340000E+03	9.422802E-17	4.214403E-18
5.350000E+03	9.399264E-17	4.182144E-18
5.360000E+03	9.370299E-17	4.150485E-18
5.370000E+03	9.335769E-17	4.119451E-18
5.380000E+03	9.295568E-17	4.089051E-18
5.390000E+03	9.249451E-17	4.059202E-18
5.400000E+03	9.197498E-17	4.029940E-18
5.410000E+03	9.139660E-17	4.001219E-18
5.420000E+03	9.076128E-17	3.973076E-18
5.430000E+03	9.006880E-17	3.945439E-18
5.440000E+03	8.932411E-17	3.918437E-18
5.450000E+03	8.853090E-17	3.892129E-18
5.460000E+03	8.769778E-17	3.866775E-18
5.470000E+03	8.682680E-17	3.842321E-18
5.480000E+03	8.591624E-17	3.818529E-18
5.490000E+03	8.496680E-17	3.795234E-18
5.500000E+03	8.398259E-17	3.772338E-18
5.510000E+03	8.297236E-17	3.749753E-18
5.520000E+03	8.194098E-17	3.727192E-18
5.530000E+03	8.089845E-17	3.704620E-18
5.540000E+03	7.985066E-17	3.681851E-18
5.550000E+03	7.880586E-17	3.658853E-18
5.560000E+03	7.777213E-17	3.635642E-18
5.570000E+03	7.675732E-17	3.612285E-18
5.580000E+03	7.576741E-17	3.588826E-18
5.590000E+03	7.480959E-17	3.565428E-18
5.600000E+03	7.389059E-17	3.542296E-18
5.610000E+03	7.301590E-17	3.519628E-18
5.620000E+03	7.219041E-17	3.497644E-18
5.630000E+03	7.141981E-17	3.476647E-18
5.640000E+03	7.070682E-17	3.456832E-18
5.650000E+03	7.005484E-17	3.438452E-18
5.660000E+03	6.946567E-17	3.421707E-18
5.670000E+03	6.894097E-17	3.406808E-18
5.680000E+03	6.848085E-17	3.393894E-18
5.690000E+03	6.808465E-17	3.383075E-18
5.700000E+03	6.775170E-17	3.374457E-18
5.710000E+03	6.748076E-17	3.368117E-18
5.720000E+03	6.726873E-17	3.364031E-18
5.730000E+03	6.711356E-17	3.362220E-18
5.740000E+03	6.701236E-17	3.362650E-18
5.750000E+03	6.696216E-17	3.365269E-18
5.760000E+03	6.696151E-17	3.370077E-18
5.770000E+03	6.700625E-17	3.376920E-18
5.780000E+03	6.709532E-17	3.385770E-18
5.790000E+03	6.722581E-17	3.396476E-18
5.800000E+03	6.739650E-17	3.408938E-18
5.810000E+03	6.760578E-17	3.423003E-18
5.820000E+03	6.785232E-17	3.438491E-18
5.830000E+03	6.813573E-17	3.455241E-18
5.840000E+03	6.845441E-17	3.472991E-18
5.850000E+03	6.880837E-17	3.491534E-18
5.860000E+03	6.919708E-17	3.510606E-18
5.870000E+03	6.961935E-17	3.529888E-18
5.880000E+03	7.007641E-17	3.549167E-18
5.890000E+03	7.056652E-17	3.568072E-18
5.900000E+03	7.109111E-17	3.586388E-18
5.910000E+03	7.164931E-17	3.603791E-18
5.920000E+03	7.224102E-17	3.620011E-18
5.930000E+03	7.286690E-17	3.634843E-18
5.940000E+03	7.352507E-17	3.647985E-18
5.950000E+03	7.421599E-17	3.659294E-18
5.960000E+03	7.494001E-17	3.668668E-18
5.970000E+03	7.569485E-17	3.675925E-18
5.980000E+03	7.648061E-17	3.681058E-18
5.990000E+03	7.729643E-17	3.684068E-18
6.000000E+03	7.814043E-17	3.684960E-18
6.010000E+03	7.901150E-17	3.683830E-18
6.020000E+03	7.990841E-17	3.680813E-18
6.030000E+03	8.082887E-17	3.676039E-18
6.040000E+03	8.177141E-17	3.669716E-18
6.050000E+03	8.273540E-17	3.662124E-18
6.060000E+03	8.371620E-17	3.653407E-18
6.070000E+03	8.471387E-17	3.643961E-18
6.080000E+03	8.572331E-17	3.634013E-18
6.090000E+03	8.674424E-17	3.624058E-18
6.100000E+03	8.777105E-17	3.614445E-18
6.110000E+03	8.880195E-17	3.605769E-18
6.120000E+03	8.983180E-17	3.598585E-18
6.130000E+03	9.085835E-17	3.593663E-18
6.140000E+03	9.187594E-17	3.591725E-18
6.150000E+03	9.287972E-17	3.593598E-18
6.160000E+03	9.386708E-17	3.600213E-18
6.170000E+03	9.483205E-17	3.612322E-18
6.180000E+03	9.577233E-17	3.630688E-18
6.190000E+03	9.668497E-17	3.655807E-18
6.200000E+03	9.756773E-17	3.687782E-18
6.210000E+03	9.841927E-17	3.726231E-18
6.220000E+03	9.924143E-17	3.770572E-18
6.230000E+03	1.000342E-16	3.819936E-18
6.240000E+03	1.007992E-16	3.873397E-18
6.250000E+03	1.015385E-16	3.930003E-18
6.260000E+03	1.022570E-16	3.988940E-18
6.270000E+03	1.029545E-16	4.049267E-18
6.280000E+03	1.036336E-16	4.110243E-18
6.290000E+03	1.042982E-16	4.171294E-18
6.300000E+03	1.049508E-16	4.231909E-18
6.310000E+03	1.055928E-16	4.291631E-18
6.320000E+03	1.062250E-16	4.350104E-18
6.330000E+03	1.068512E-16	4.407178E-18
6.340000E+03	1.074707E-16	4.462612E-18
6.350000E+03	1.080857E-16	4.516349E-18
6.360000E+03	1.086964E-16	4.568331E-18
6.370000E+03	1.093032E-16	4.618544E-18
6.380000E+03	1.099060E-16	4.667010E-18
6.390000E+03	1.105047E-16	4.713772E-18
6.400000E+03	1.110988E-16	4.758891E-18
6.410000E+03	1.116861E-16	4.802363E-18
6.420000E+03	1.122674E-16	4.844320E-18
6.430000E+03	1.128415E-16	4.884827E-18
6.440000E+03	1.134091E-16	4.924015E-18
6.450000E+03	1.139705E-16	4.962020E-18
6.460000E+03	1.145229E-16	4.998838E-18
6.470000E+03	1.150684E-16	5.034692E-18
6.480000E+03	1.156059E-16	5.069667E-18
6.490000E+03	1.161360E-16	5.103925E-18
6.500000E+03	1.166560E-16	5.137472E-18
6.510000E+03	1.171685E-16	5.170536E-18
6.520000E+03	1.176711E-16	5.203095E-18
6.530000E+03	1.181648E-16	5.235263E-18
6.540000E+03	1.186473E-16	5.266973E-18
6.550000E+03	1.191200E-16	5.298298E-18
6.560000E+03	1.195845E-16	5.329301E-18
6.570000E+03	1.200370E-16	5.359775E-18
6.580000E+03	1.204792E-16	5.389758E-18
6.590000E+03	1.209133E-16	5.419287E-18
6.600000E+03	1.213353E-16	5.448134E-18
6.610000E+03	1.217495E-16	5.476422E-18
6.620000E+03	1.221521E-16	5.503920E-18
6.630000E+03	1.225472E-16	5.530767E-18
6.640000E+03	1.229310E-16	5.556752E-18
6.650000E+03	1.233054E-16	5.581952E-18
6.660000E+03	1.236703E-16	5.606374E-18
6.670000E+03	1.240235E-16	5.629945E-18
6.680000E+03	1.243667E-16	5.652800E-18
6.690000E+03	1.246974E-16	5.674893E-18
6.700000E+03	1.250153E-16	5.696287E-18
6.710000E+03	1.253221E-16	5.717147E-18
6.720000E+03	1.256152E-16	5.737445E-18
6.730000E+03	1.258921E-16	5.757142E-18
6.740000E+03	1.261570E-16	5.776484E-18
6.750000E+03	1.264052E-16	5.795294E-18
6.760000E+03	1.266386E-16	5.813669E-18
6.770000E+03	1.268572E-16	5.831570E-18
6.780000E+03	1.270585E-16	5.848812E-18
6.790000E+03	1.272424E-16	5.865271E-18
6.800000E+03	1.274086E-16	5.880782E-18
6.810000E+03	1.275594E-16	5.895241E-18
6.820000E+03	1.276923E-16	5.908296E-18
6.830000E+03	1.278047E-16	5.919562E-18
6.840000E+03	1.278989E-16	5.928847E-18
6.850000E+03	1.279748E-16	5.935849E-18
6.860000E+03	1.280323E-16	5.940273E-18
6.870000E+03	1.280689E-16	5.941743E-18
6.880000E+03	1.280848E-16	5.940033E-18
6.890000E+03	1.280823E-16	5.935089E-18
6.900000E+03	1.280592E-16	5.926701E-18
6.910000E+03	1.280156E-16	5.914844E-18
6.920000E+03	1.279516E-16	5.899563E-18
6.930000E+03	1.278674E-16	5.880971E-18
6.940000E+03	1.277633E-16	5.859237E-18
6.950000E+03	1.276394E-16	5.834571E-18
6.960000E+03	1.274935E-16	5.807106E-18
6.970000E+03	1.273258E-16	5.777105E-18
6.980000E+03	1.271391E-16	5.744955E-18
6.990000E+03	1.269339E-16	5.710940E-18
7.000000E+03	1.267055E-16	5.675127E-18
7.010000E+03	1.264595E-16	5.638030E-18
7.020000E+03	1.261941E-16	5.599831E-18
7.030000E+03	1.259099E-16	5.560825E-18
7.040000E+03	1.256053E-16	5.521197E-18
7.050000E+03	1.252836E-16	5.481339E-18
7.060000E+03	1.249457E-16	5.441526E-18
7.070000E+03	1.245925E-16	5.402010E-18
7.080000E+03	1.242226E-16	5.362911E-18
7.090000E+03	1.238368E-16	5.324420E-18
7.100000E+03	1.234388E-16	5.286791E-18
7.110000E+03	1.230272E-16	5.250018E-18
7.120000E+03	1.226005E-16	5.214041E-18
7.130000E+03	1.221649E-16	5.179066E-18
7.140000E+03	1.217193E-16	5.144927E-18
7.150000E+03	1.212649E-16	5.111520E-18
7.160000E+03	1.208008E-16	5.078596E-18
7.170000E+03	1.203309E-16	5.046082E-18
7.180000E+03	1.198569E-16	5.013770E-18
7.190000E+03	1.193781E-16	4.981329E-18
7.200000E+03	1.188965E-16	4.948514E-18
7.210000E+03	1.184164E-16	4.915164E-18
7.220000E+03	1.179374E-16	4.880902E-18
7.230000E+03	1.174615E-16	4.845442E-18
7.240000E+03	1.169908E-16	4.808491E-18
7.250000E+03	1.165270E-16	4.769757E-18
7.260000E+03	1.160696E-16	4.728857E-18
7.270000E+03	1.156248E-16	4.685735E-18
7.280000E+03	1.151914E-16	4.640073E-18
7.290000E+03	1.147655E-16	4.591516E-18
7.300000E+03	1.143549E-16	4.540258E-18
7.310000E+03	1.139528E-16	4.485986E-18
7.320000E+03	1.135637E-16	4.428945E-18
7.330000E+03	1.131851E-16	4.369167E-18
7.340000E+03	1.128160E-16	4.306860E-18
7.350000E+03	1.124532E-16	4.242218E-18
7.360000E+03	1.120954E-16	4.175602E-18
7.370000E+03	1.117411E-16	4.107453E-18
7.380000E+03	1.113889E-16	4.038285E-18
7.390000E+03	1.110320E-16	3.968525E-18
7.400000E+03	1.106711E-16	3.898949E-18
7.410000E+03	1.102997E-16	3.830180E-18
7.420000E+03	1.099134E-16	3.763050E-18
7.430000E+03	1.095081E-16	3.698529E-18
7.440000E+03	1.090845E-16	3.637894E-18
7.450000E+03	1.086411E-16	3.582477E-18
7.460000E+03	1.081811E-16	3.533886E-18
7.470000E+03	1.077081E-16	3.493781E-18
7.480000E+03	1.072185E-16	3.463565E-18
7.490000E+03	1.067140E-16	3.444636E-18
7.500000E+03	1.061988E-16	3.438150E-18
7.510000E+03	1.056679E-16	3.444468E-18
7.520000E+03	1.051271E-16	3.463384E-18
7.530000E+03	1.045791E-16	3.493571E-18
7.540000E+03	1.040269E-16	3.533228E-18
7.550000E+03	1.034737E-16	3.580288E-18
7.560000E+03	1.029228E-16	3.632593E-18
7.570000E+03	1.023799E-16	3.688120E-18
7.580000E+03	1.018459E-16	3.744839E-18
7.590000E+03	1.013259E-16	3.801126E-18
7.600000E+03	1.008202E-16	3.855467E-18
7.610000E+03	1.003337E-16	3.906834E-18
7.620000E+03	9.986804E-17	3.954422E-18
7.630000E+03	9.942266E-17	3.997628E-18
7.640000E+03	9.900103E-17	4.036300E-18
7.650000E+03	9.860402E-17	4.070428E-18
7.660000E+03	9.822991E-17	4.100096E-18
7.670000E+03	9.788130E-17	4.125729E-18
7.680000E+03	9.755596E-17	4.147670E-18
7.690000E+03	9.725837E-17	4.166634E-18
7.700000E+03	9.698362E-17	4.182984E-18
7.710000E+03	9.673356E-17	4.197406E-18
7.720000E+03	9.650528E-17	4.210387E-18
7.730000E+03	9.630037E-17	4.222605E-18
7.740000E+03	9.611799E-17	4.234616E-18
7.750000E+03	9.595719E-17	4.246941E-18
7.760000E+03	9.581465E-17	4.259952E-18
