#wls	flux	fluxerr
1.600000E+03	2.132355E-16	2.171884E-16
1.640000E+03	2.153790E-16	2.160790E-16
1.680000E+03	2.173990E-16	2.147010E-16
1.720000E+03	2.192647E-16	2.130275E-16
1.760000E+03	2.209631E-16	2.110509E-16
1.800000E+03	2.224587E-16	2.087437E-16
1.840000E+03	2.237515E-16	2.061143E-16
1.880000E+03	2.248189E-16	2.031510E-16
1.920000E+03	2.256186E-16	1.998272E-16
1.960000E+03	2.261092E-16	1.961206E-16
2.000000E+03	2.262511E-16	1.920145E-16
2.040000E+03	2.260221E-16	1.875105E-16
2.080000E+03	2.253286E-16	1.825552E-16
2.120000E+03	2.241333E-16	1.771480E-16
2.160000E+03	2.223804E-16	1.712787E-16
2.200000E+03	2.199787E-16	1.649162E-16
2.240000E+03	2.169201E-16	1.580992E-16
2.280000E+03	2.131862E-16	1.508611E-16
2.320000E+03	2.088263E-16	1.432855E-16
2.360000E+03	2.039120E-16	1.354673E-16
2.400000E+03	1.985299E-16	1.275066E-16
2.440000E+03	1.927844E-16	1.195076E-16
2.480000E+03	1.867339E-16	1.115385E-16
2.520000E+03	1.804545E-16	1.036729E-16
2.560000E+03	1.740055E-16	9.596835E-17
2.600000E+03	1.674208E-16	8.846383E-17
2.640000E+03	1.607400E-16	8.119802E-17
2.680000E+03	1.539912E-16	7.419999E-17
2.720000E+03	1.472095E-16	6.749925E-17
2.760000E+03	1.404221E-16	6.111808E-17
2.800000E+03	1.336600E-16	5.507717E-17
2.840000E+03	1.269541E-16	4.939347E-17
2.880000E+03	1.203517E-16	4.408633E-17
2.920000E+03	1.138950E-16	3.916810E-17
2.960000E+03	1.076256E-16	3.464605E-17
3.000000E+03	1.015965E-16	3.052605E-17
3.010000E+03	1.001333E-16	2.955906E-17
3.020000E+03	9.868813E-17	2.861684E-17
3.030000E+03	9.726180E-17	2.769927E-17
3.040000E+03	9.585706E-17	2.680679E-17
3.050000E+03	9.447450E-17	2.593916E-17
3.060000E+03	9.311479E-17	2.509617E-17
3.070000E+03	9.177865E-17	2.427758E-17
3.080000E+03	9.046684E-17	2.348316E-17
3.090000E+03	8.918019E-17	2.271264E-17
3.100000E+03	8.792135E-17	2.196624E-17
3.110000E+03	8.669107E-17	2.124362E-17
3.120000E+03	8.548844E-17	2.054405E-17
3.130000E+03	8.431772E-17	1.986802E-17
3.140000E+03	8.317636E-17	1.921440E-17
3.150000E+03	8.206689E-17	1.858325E-17
3.160000E+03	8.099169E-17	1.797453E-17
3.170000E+03	7.994995E-17	1.738753E-17
3.180000E+03	7.894398E-17	1.682218E-17
3.190000E+03	7.797303E-17	1.627777E-17
3.200000E+03	7.703930E-17	1.575420E-17
3.210000E+03	7.614349E-17	1.525108E-17
3.220000E+03	7.528496E-17	1.476772E-17
3.230000E+03	7.446579E-17	1.430401E-17
3.240000E+03	7.368669E-17	1.385953E-17
3.250000E+03	7.294838E-17	1.343389E-17
3.260000E+03	7.225157E-17	1.302671E-17
3.270000E+03	7.159704E-17	1.263758E-17
3.280000E+03	7.098558E-17	1.226613E-17
3.290000E+03	7.041689E-17	1.191178E-17
3.300000E+03	6.989417E-17	1.157452E-17
3.310000E+03	6.941615E-17	1.125359E-17
3.320000E+03	6.898502E-17	1.094878E-17
3.330000E+03	6.860084E-17	1.065949E-17
3.340000E+03	6.826590E-17	1.038550E-17
3.350000E+03	6.798144E-17	1.012636E-17
3.360000E+03	6.774675E-17	9.881344E-18
3.370000E+03	6.756524E-17	9.650334E-18
3.380000E+03	6.743633E-17	9.432610E-18
3.390000E+03	6.736248E-17	9.227886E-18
3.400000E+03	6.734520E-17	9.035727E-18
3.410000E+03	6.738419E-17	8.855453E-18
3.420000E+03	6.748296E-17	8.686890E-18
3.430000E+03	6.764139E-17	8.529379E-18
3.440000E+03	6.786129E-17	8.382516E-18
3.450000E+03	6.814458E-17	8.245905E-18
3.460000E+03	6.849236E-17	8.119051E-18
3.470000E+03	6.890764E-17	8.001690E-18
3.480000E+03	6.939087E-17	7.893252E-18
3.490000E+03	6.994440E-17	7.793400E-18
3.500000E+03	7.056980E-17	7.701706E-18
3.510000E+03	7.127052E-17	7.617953E-18
3.520000E+03	7.204749E-17	7.541649E-18
3.530000E+03	7.290259E-17	7.472416E-18
3.540000E+03	7.383958E-17	7.410069E-18
3.550000E+03	7.485877E-17	7.354078E-18
3.560000E+03	7.596317E-17	7.304193E-18
3.570000E+03	7.715586E-17	7.260170E-18
3.580000E+03	7.843815E-17	7.221608E-18
3.590000E+03	7.981318E-17	7.188285E-18
3.600000E+03	8.128224E-17	7.159828E-18
3.610000E+03	8.284752E-17	7.135959E-18
3.620000E+03	8.451200E-17	7.116497E-18
3.630000E+03	8.627587E-17	7.101045E-18
3.640000E+03	8.814283E-17	7.089540E-18
3.650000E+03	9.011364E-17	7.081713E-18
3.660000E+03	9.218974E-17	7.077397E-18
3.670000E+03	9.437132E-17	7.076384E-18
3.680000E+03	9.666015E-17	7.078637E-18
3.690000E+03	9.905661E-17	7.084073E-18
3.700000E+03	1.015596E-16	7.092554E-18
3.710000E+03	1.041694E-16	7.104106E-18
3.720000E+03	1.068849E-16	7.118692E-18
3.730000E+03	1.097030E-16	7.136210E-18
3.740000E+03	1.126243E-16	7.156843E-18
3.750000E+03	1.156433E-16	7.180414E-18
3.760000E+03	1.187571E-16	7.206947E-18
3.770000E+03	1.219632E-16	7.236513E-18
3.780000E+03	1.252535E-16	7.268886E-18
3.790000E+03	1.286254E-16	7.304159E-18
3.800000E+03	1.320705E-16	7.342120E-18
3.810000E+03	1.355834E-16	7.382737E-18
3.820000E+03	1.391570E-16	7.425882E-18
3.830000E+03	1.427821E-16	7.471335E-18
3.840000E+03	1.464501E-16	7.518921E-18
3.850000E+03	1.501533E-16	7.568519E-18
3.860000E+03	1.538807E-16	7.619847E-18
3.870000E+03	1.576239E-16	7.672740E-18
3.880000E+03	1.613710E-16	7.726866E-18
3.890000E+03	1.651129E-16	7.781998E-18
3.900000E+03	1.688388E-16	7.837795E-18
3.910000E+03	1.725380E-16	7.893870E-18
3.920000E+03	1.762015E-16	7.949856E-18
3.930000E+03	1.798173E-16	8.005199E-18
3.940000E+03	1.833770E-16	8.059450E-18
3.950000E+03	1.868727E-16	8.112131E-18
3.960000E+03	1.902923E-16	8.162530E-18
3.970000E+03	1.936327E-16	8.210277E-18
3.980000E+03	1.968849E-16	8.254705E-18
3.990000E+03	2.000427E-16	8.295215E-18
4.000000E+03	2.031022E-16	8.331280E-18
4.010000E+03	2.060572E-16	8.362247E-18
4.020000E+03	2.089074E-16	8.387713E-18
4.030000E+03	2.116500E-16	8.407190E-18
4.040000E+03	2.142824E-16	8.420272E-18
4.050000E+03	2.168011E-16	8.426579E-18
4.060000E+03	2.192079E-16	8.426059E-18
4.070000E+03	2.215015E-16	8.418627E-18
4.080000E+03	2.236805E-16	8.404297E-18
4.090000E+03	2.257434E-16	8.383169E-18
4.100000E+03	2.276888E-16	8.355406E-18
4.110000E+03	2.295168E-16	8.321277E-18
4.120000E+03	2.312239E-16	8.280919E-18
4.130000E+03	2.328102E-16	8.234586E-18
4.140000E+03	2.342742E-16	8.182401E-18
4.150000E+03	2.356146E-16	8.124389E-18
4.160000E+03	2.368305E-16	8.060444E-18
4.170000E+03	2.379216E-16	7.990299E-18
4.180000E+03	2.388905E-16	7.913588E-18
4.190000E+03	2.397347E-16	7.829588E-18
4.200000E+03	2.404588E-16	7.737659E-18
4.210000E+03	2.410689E-16	7.637094E-18
4.220000E+03	2.415660E-16	7.526997E-18
4.230000E+03	2.419586E-16	7.406747E-18
4.240000E+03	2.422525E-16	7.275755E-18
4.250000E+03	2.424586E-16	7.133789E-18
4.260000E+03	2.425845E-16	6.980812E-18
4.270000E+03	2.426391E-16	6.817194E-18
4.280000E+03	2.426377E-16	6.643975E-18
4.290000E+03	2.425863E-16	6.462510E-18
4.300000E+03	2.425019E-16	6.275160E-18
4.310000E+03	2.423957E-16	6.084965E-18
4.320000E+03	2.422820E-16	5.895986E-18
4.330000E+03	2.421736E-16	5.713293E-18
4.340000E+03	2.420883E-16	5.543113E-18
4.350000E+03	2.420416E-16	5.392498E-18
4.360000E+03	2.420470E-16	5.268873E-18
4.370000E+03	2.421242E-16	5.179412E-18
4.380000E+03	2.422810E-16	5.129498E-18
4.390000E+03	2.425263E-16	5.121818E-18
4.400000E+03	2.428581E-16	5.155387E-18
4.410000E+03	2.432724E-16	5.225857E-18
4.420000E+03	2.437534E-16	5.326267E-18
4.430000E+03	2.442910E-16	5.448700E-18
4.440000E+03	2.448676E-16	5.585151E-18
4.450000E+03	2.454664E-16	5.728438E-18
4.460000E+03	2.460786E-16	5.872721E-18
4.470000E+03	2.466920E-16	6.013254E-18
4.480000E+03	2.472993E-16	6.146476E-18
4.490000E+03	2.478967E-16	6.269781E-18
4.500000E+03	2.484832E-16	6.381353E-18
4.510000E+03	2.490584E-16	6.479955E-18
4.520000E+03	2.496285E-16	6.565001E-18
4.530000E+03	2.501989E-16	6.636308E-18
4.540000E+03	2.507738E-16	6.694047E-18
4.550000E+03	2.513580E-16	6.738759E-18
4.560000E+03	2.519608E-16	6.771442E-18
4.570000E+03	2.525893E-16	6.793323E-18
4.580000E+03	2.532453E-16	6.805728E-18
4.590000E+03	2.539393E-16	6.810376E-18
4.600000E+03	2.546689E-16	6.808739E-18
4.610000E+03	2.554396E-16	6.802534E-18
4.620000E+03	2.562530E-16	6.793372E-18
4.630000E+03	2.571055E-16	6.782746E-18
4.640000E+03	2.579932E-16	6.772171E-18
4.650000E+03	2.589044E-16	6.763034E-18
4.660000E+03	2.598335E-16	6.757009E-18
4.670000E+03	2.607598E-16	6.755515E-18
4.680000E+03	2.616695E-16	6.760279E-18
4.690000E+03	2.625427E-16	6.772887E-18
4.700000E+03	2.633623E-16	6.794833E-18
4.710000E+03	2.641087E-16	6.827116E-18
4.720000E+03	2.647734E-16	6.870260E-18
4.730000E+03	2.653505E-16	6.923885E-18
4.740000E+03	2.658507E-16	6.987031E-18
4.750000E+03	2.662816E-16	7.057865E-18
4.760000E+03	2.666638E-16	7.134425E-18
4.770000E+03	2.670178E-16	7.214611E-18
4.780000E+03	2.673621E-16	7.296374E-18
4.790000E+03	2.677189E-16	7.378020E-18
4.800000E+03	2.681036E-16	7.457983E-18
4.810000E+03	2.685313E-16	7.535049E-18
4.820000E+03	2.690145E-16	7.608301E-18
4.830000E+03	2.695631E-16	7.677126E-18
4.840000E+03	2.701812E-16	7.741154E-18
4.850000E+03	2.708784E-16	7.800564E-18
4.860000E+03	2.716483E-16	7.855458E-18
4.870000E+03	2.724955E-16	7.906591E-18
4.880000E+03	2.734142E-16	7.954686E-18
4.890000E+03	2.744018E-16	8.000735E-18
4.900000E+03	2.754459E-16	8.045503E-18
4.910000E+03	2.765405E-16	8.089900E-18
4.920000E+03	2.776761E-16	8.134589E-18
4.930000E+03	2.788392E-16	8.179923E-18
4.940000E+03	2.800220E-16	8.226166E-18
4.950000E+03	2.812106E-16	8.273171E-18
4.960000E+03	2.823973E-16	8.320745E-18
4.970000E+03	2.835665E-16	8.368276E-18
4.980000E+03	2.847145E-16	8.415381E-18
4.990000E+03	2.858275E-16	8.461301E-18
5.000000E+03	2.869013E-16	8.505551E-18
5.010000E+03	2.879273E-16	8.547566E-18
5.020000E+03	2.889041E-16	8.587087E-18
5.030000E+03	2.898291E-16	8.623928E-18
5.040000E+03	2.906953E-16	8.657890E-18
5.050000E+03	2.915063E-16	8.689168E-18
5.060000E+03	2.922643E-16	8.717960E-18
5.070000E+03	2.929730E-16	8.744512E-18
5.080000E+03	2.936319E-16	8.768888E-18
5.090000E+03	2.942535E-16	8.791466E-18
5.100000E+03	2.948454E-16	8.812383E-18
5.110000E+03	2.954072E-16	8.831424E-18
5.120000E+03	2.959569E-16	8.848825E-18
5.130000E+03	2.964975E-16	8.864304E-18
5.140000E+03	2.970380E-16	8.877715E-18
5.150000E+03	2.975867E-16	8.888916E-18
5.160000E+03	2.981482E-16	8.897739E-18
5.170000E+03	2.987318E-16	8.904322E-18
5.180000E+03	2.993396E-16	8.908770E-18
5.190000E+03	2.999748E-16	8.911406E-18
5.200000E+03	3.006390E-16	8.912634E-18
5.210000E+03	3.013254E-16	8.912696E-18
5.220000E+03	3.020373E-16	8.912153E-18
5.230000E+03	3.027667E-16	8.911217E-18
5.240000E+03	3.035029E-16	8.909994E-18
5.250000E+03	3.042364E-16	8.908561E-18
5.260000E+03	3.049552E-16	8.906875E-18
5.270000E+03	3.056424E-16	8.904688E-18
5.280000E+03	3.062854E-16	8.901827E-18
5.290000E+03	3.068608E-16	8.897770E-18
5.300000E+03	3.073532E-16	8.892187E-18
5.310000E+03	3.077367E-16	8.884424E-18
5.320000E+03	3.079944E-16	8.874049E-18
5.330000E+03	3.081028E-16	8.860421E-18
5.340000E+03	3.080418E-16	8.842982E-18
5.350000E+03	3.077919E-16	8.821202E-18
5.360000E+03	3.073285E-16	8.794431E-18
5.370000E+03	3.066382E-16	8.762373E-18
5.380000E+03	3.057034E-16	8.724676E-18
5.390000E+03	3.045125E-16	8.681222E-18
5.400000E+03	3.030512E-16	8.631897E-18
5.410000E+03	3.013214E-16	8.577130E-18
5.420000E+03	2.993141E-16	8.517115E-18
5.430000E+03	2.970343E-16	8.452477E-18
5.440000E+03	2.944921E-16	8.383946E-18
5.450000E+03	2.916881E-16	8.311860E-18
5.460000E+03	2.886285E-16	8.236495E-18
5.470000E+03	2.853250E-16	8.157978E-18
5.480000E+03	2.818194E-16	8.076971E-18
5.490000E+03	2.781539E-16	7.993847E-18
5.500000E+03	2.743668E-16	7.908685E-18
5.510000E+03	2.704981E-16	7.821535E-18
5.520000E+03	2.665886E-16	7.732533E-18
5.530000E+03	2.626741E-16	7.641853E-18
5.540000E+03	2.588016E-16	7.550237E-18
5.550000E+03	2.550080E-16	7.458412E-18
5.560000E+03	2.513332E-16	7.367468E-18
5.570000E+03	2.478222E-16	7.278883E-18
5.580000E+03	2.445122E-16	7.194083E-18
5.590000E+03	2.414441E-16	7.114726E-18
5.600000E+03	2.386563E-16	7.042460E-18
5.610000E+03	2.361814E-16	6.978756E-18
5.620000E+03	2.340500E-16	6.924969E-18
5.630000E+03	2.322848E-16	6.882121E-18
5.640000E+03	2.309018E-16	6.850922E-18
5.650000E+03	2.299131E-16	6.831799E-18
5.660000E+03	2.293187E-16	6.824674E-18
5.670000E+03	2.291212E-16	6.829380E-18
5.680000E+03	2.293050E-16	6.845056E-18
5.690000E+03	2.298579E-16	6.870821E-18
5.700000E+03	2.307573E-16	6.905410E-18
5.710000E+03	2.319731E-16	6.947326E-18
5.720000E+03	2.334778E-16	6.995211E-18
5.730000E+03	2.352325E-16	7.047496E-18
5.740000E+03	2.371997E-16	7.102846E-18
5.750000E+03	2.393372E-16	7.159998E-18
5.760000E+03	2.416042E-16	7.217956E-18
5.770000E+03	2.439556E-16	7.275779E-18
5.780000E+03	2.463559E-16	7.332958E-18
5.790000E+03	2.487626E-16	7.388848E-18
5.800000E+03	2.511453E-16	7.443172E-18
5.810000E+03	2.534788E-16	7.495748E-18
5.820000E+03	2.557409E-16	7.546365E-18
5.830000E+03	2.579117E-16	7.594751E-18
5.840000E+03	2.599823E-16	7.640789E-18
5.850000E+03	2.619485E-16	7.684329E-18
5.860000E+03	2.638015E-16	7.724912E-18
5.870000E+03	2.655444E-16	7.762247E-18
5.880000E+03	2.671828E-16	7.795953E-18
5.890000E+03	2.687151E-16	7.825284E-18
5.900000E+03	2.701527E-16	7.849747E-18
5.910000E+03	2.715021E-16	7.868611E-18
5.920000E+03	2.727634E-16	7.880939E-18
5.930000E+03	2.739459E-16	7.886083E-18
5.940000E+03	2.750588E-16	7.883472E-18
5.950000E+03	2.761012E-16	7.872402E-18
5.960000E+03	2.770814E-16	7.852618E-18
5.970000E+03	2.780037E-16	7.824004E-18
5.980000E+03	2.788691E-16	7.786603E-18
5.990000E+03	2.796815E-16	7.740798E-18
6.000000E+03	2.804445E-16	7.687187E-18
6.010000E+03	2.811584E-16	7.626437E-18
6.020000E+03	2.818304E-16	7.559486E-18
6.030000E+03	2.824614E-16	7.487127E-18
6.040000E+03	2.830558E-16	7.410224E-18
6.050000E+03	2.836121E-16	7.329421E-18
6.060000E+03	2.841425E-16	7.245652E-18
6.070000E+03	2.846429E-16	7.159388E-18
6.080000E+03	2.851269E-16	7.071531E-18
6.090000E+03	2.855916E-16	6.982648E-18
6.100000E+03	2.860517E-16	6.893908E-18
6.110000E+03	2.865057E-16	6.806365E-18
6.120000E+03	2.869664E-16	6.721824E-18
6.130000E+03	2.874435E-16	6.642531E-18
6.140000E+03	2.879436E-16	6.571238E-18
6.150000E+03	2.884731E-16	6.511269E-18
6.160000E+03	2.890444E-16	6.466515E-18
6.170000E+03	2.896655E-16	6.440853E-18
6.180000E+03	2.903415E-16	6.437692E-18
6.190000E+03	2.910743E-16	6.459351E-18
6.200000E+03	2.918692E-16	6.506732E-18
6.210000E+03	2.927242E-16	6.578944E-18
6.220000E+03	2.936229E-16	6.673406E-18
6.230000E+03	2.945619E-16	6.786953E-18
6.240000E+03	2.955256E-16	6.915789E-18
6.250000E+03	2.965025E-16	7.056237E-18
6.260000E+03	2.974894E-16	7.205089E-18
6.270000E+03	2.984764E-16	7.359379E-18
6.280000E+03	2.994587E-16	7.516691E-18
6.290000E+03	3.004282E-16	7.674968E-18
6.300000E+03	3.013780E-16	7.832567E-18
6.310000E+03	3.023138E-16	7.988534E-18
6.320000E+03	3.032220E-16	8.141704E-18
6.330000E+03	3.041058E-16	8.291599E-18
6.340000E+03	3.049566E-16	8.437619E-18
6.350000E+03	3.057789E-16	8.579665E-18
6.360000E+03	3.065651E-16	8.717412E-18
6.370000E+03	3.073167E-16	8.850859E-18
6.380000E+03	3.080354E-16	8.980070E-18
6.390000E+03	3.087102E-16	9.104773E-18
6.400000E+03	3.093477E-16	9.225223E-18
6.410000E+03	3.099458E-16	9.341444E-18
6.420000E+03	3.105022E-16	9.453479E-18
6.430000E+03	3.110190E-16	9.561527E-18
6.440000E+03	3.114982E-16	9.665821E-18
6.450000E+03	3.119419E-16	9.766612E-18
6.460000E+03	3.123473E-16	9.864016E-18
6.470000E+03	3.127120E-16	9.958133E-18
6.480000E+03	3.130381E-16	1.004918E-17
6.490000E+03	3.133140E-16	1.013689E-17
6.500000E+03	3.135470E-16	1.022157E-17
6.510000E+03	3.137357E-16	1.030315E-17
6.520000E+03	3.138787E-16	1.038159E-17
6.530000E+03	3.139752E-16	1.045679E-17
6.540000E+03	3.140249E-16	1.052865E-17
6.550000E+03	3.140327E-16	1.059725E-17
6.560000E+03	3.139941E-16	1.066235E-17
6.570000E+03	3.139150E-16	1.072406E-17
6.580000E+03	3.137970E-16	1.078234E-17
6.590000E+03	3.136367E-16	1.083699E-17
6.600000E+03	3.134416E-16	1.088821E-17
6.610000E+03	3.132143E-16	1.093602E-17
6.620000E+03	3.129576E-16	1.098048E-17
6.630000E+03	3.126748E-16	1.102166E-17
6.640000E+03	3.123689E-16	1.105966E-17
6.650000E+03	3.120430E-16	1.109459E-17
6.660000E+03	3.116948E-16	1.112640E-17
6.670000E+03	3.113320E-16	1.115539E-17
6.680000E+03	3.109513E-16	1.118151E-17
6.690000E+03	3.105598E-16	1.120509E-17
6.700000E+03	3.101585E-16	1.122627E-17
6.710000E+03	3.097427E-16	1.124498E-17
6.720000E+03	3.093123E-16	1.126135E-17
6.730000E+03	3.088722E-16	1.127566E-17
6.740000E+03	3.084105E-16	1.128761E-17
6.750000E+03	3.079369E-16	1.129762E-17
6.760000E+03	3.074440E-16	1.130550E-17
6.770000E+03	3.069243E-16	1.131101E-17
6.780000E+03	3.063812E-16	1.131426E-17
6.790000E+03	3.058125E-16	1.131510E-17
6.800000E+03	3.052105E-16	1.131313E-17
6.810000E+03	3.045788E-16	1.130829E-17
6.820000E+03	3.039099E-16	1.130009E-17
6.830000E+03	3.032080E-16	1.128837E-17
6.840000E+03	3.024609E-16	1.127236E-17
6.850000E+03	3.016789E-16	1.125207E-17
6.860000E+03	3.008507E-16	1.122675E-17
6.870000E+03	2.999874E-16	1.119649E-17
6.880000E+03	2.990786E-16	1.116064E-17
6.890000E+03	2.981307E-16	1.111929E-17
6.900000E+03	2.971394E-16	1.107224E-17
6.910000E+03	2.961119E-16	1.101982E-17
6.920000E+03	2.950444E-16	1.096205E-17
6.930000E+03	2.939445E-16	1.089947E-17
6.940000E+03	2.928029E-16	1.083205E-17
6.950000E+03	2.916328E-16	1.076061E-17
6.960000E+03	2.904302E-16	1.068536E-17
6.970000E+03	2.891914E-16	1.060648E-17
6.980000E+03	2.879289E-16	1.052474E-17
6.990000E+03	2.866330E-16	1.044004E-17
7.000000E+03	2.853104E-16	1.035287E-17
7.010000E+03	2.839569E-16	1.026326E-17
7.020000E+03	2.825790E-16	1.017163E-17
7.030000E+03	2.811723E-16	1.007796E-17
7.040000E+03	2.797436E-16	9.982618E-18
7.050000E+03	2.782830E-16	9.885367E-18
7.060000E+03	2.768028E-16	9.786745E-18
7.070000E+03	2.752934E-16	9.686492E-18
7.080000E+03	2.737673E-16	9.585109E-18
7.090000E+03	2.722152E-16	9.482309E-18
7.100000E+03	2.706444E-16	9.378360E-18
7.110000E+03	2.690516E-16	9.273132E-18
7.120000E+03	2.674443E-16	9.166848E-18
7.130000E+03	2.658252E-16	9.059521E-18
7.140000E+03	2.641862E-16	8.950775E-18
7.150000E+03	2.625411E-16	8.840950E-18
7.160000E+03	2.608932E-16	8.729990E-18
7.170000E+03	2.592354E-16	8.617475E-18
7.180000E+03	2.575768E-16	8.503505E-18
7.190000E+03	2.559213E-16	8.387996E-18
7.200000E+03	2.542679E-16	8.270695E-18
7.210000E+03	2.526312E-16	8.151868E-18
7.220000E+03	2.510049E-16	8.031119E-18
7.230000E+03	2.493930E-16	7.908418E-18
7.240000E+03	2.478042E-16	7.783931E-18
7.250000E+03	2.462316E-16	7.657378E-18
7.260000E+03	2.446878E-16	7.529175E-18
7.270000E+03	2.431699E-16	7.399321E-18
7.280000E+03	2.416792E-16	7.268043E-18
7.290000E+03	2.402114E-16	7.135489E-18
7.300000E+03	2.387666E-16	7.002022E-18
7.310000E+03	2.373495E-16	6.868195E-18
7.320000E+03	2.359547E-16	6.734287E-18
7.330000E+03	2.345762E-16	6.600580E-18
7.340000E+03	2.332133E-16	6.467466E-18
7.350000E+03	2.318654E-16	6.335279E-18
7.360000E+03	2.305318E-16	6.204295E-18
7.370000E+03	2.292077E-16	6.074604E-18
7.380000E+03	2.278882E-16	5.946279E-18
7.390000E+03	2.265741E-16	5.819547E-18
7.400000E+03	2.252566E-16	5.694466E-18
7.410000E+03	2.239464E-16	5.571741E-18
7.420000E+03	2.226303E-16	5.451705E-18
7.430000E+03	2.213096E-16	5.335388E-18
7.440000E+03	2.199904E-16	5.224349E-18
7.450000E+03	2.186787E-16	5.120646E-18
7.460000E+03	2.173706E-16	5.026662E-18
7.470000E+03	2.160765E-16	4.945627E-18
7.480000E+03	2.147972E-16	4.880911E-18
7.490000E+03	2.135428E-16	4.836121E-18
7.500000E+03	2.123094E-16	4.814060E-18
7.510000E+03	2.111072E-16	4.816791E-18
7.520000E+03	2.099373E-16	4.844646E-18
7.530000E+03	2.088008E-16	4.896299E-18
7.540000E+03	2.077039E-16	4.969102E-18
7.550000E+03	2.066435E-16	5.059195E-18
7.560000E+03	2.056307E-16	5.162547E-18
7.570000E+03	2.046628E-16	5.274676E-18
7.580000E+03	2.037417E-16	5.391388E-18
7.590000E+03	2.028740E-16	5.509006E-18
7.600000E+03	2.020614E-16	5.624288E-18
7.610000E+03	2.013052E-16	5.734647E-18
7.620000E+03	2.006017E-16	5.838065E-18
7.630000E+03	1.999607E-16	5.933630E-18
7.640000E+03	1.993729E-16	6.020567E-18
7.650000E+03	1.988470E-16	6.099239E-18
7.660000E+03	1.983729E-16	6.169948E-18
7.670000E+03	1.979583E-16	6.233929E-18
7.680000E+03	1.975923E-16	6.292081E-18
7.690000E+03	1.972819E-16	6.345988E-18
7.700000E+03	1.970201E-16	6.396790E-18
7.710000E+03	1.968040E-16	6.445677E-18
7.720000E+03	1.966262E-16	6.493533E-18
7.730000E+03	1.964926E-16	6.541510E-18
7.740000E+03	1.963951E-16	6.590105E-18
7.750000E+03	1.963300E-16	6.639772E-18
7.760000E+03	1.962890E-16	6.690621E-18
