#wls	flux	fluxerr
1.600000E+03	1.675802E-16	1.625984E-16
1.640000E+03	1.725264E-16	1.646125E-16
1.680000E+03	1.771605E-16	1.661124E-16
1.720000E+03	1.814474E-16	1.670763E-16
1.760000E+03	1.852769E-16	1.674181E-16
1.800000E+03	1.886415E-16	1.671510E-16
1.840000E+03	1.914270E-16	1.661974E-16
1.880000E+03	1.936045E-16	1.645617E-16
1.920000E+03	1.951109E-16	1.622234E-16
1.960000E+03	1.958549E-16	1.591452E-16
2.000000E+03	1.958139E-16	1.553529E-16
2.040000E+03	1.949254E-16	1.508449E-16
2.080000E+03	1.931395E-16	1.456359E-16
2.120000E+03	1.904217E-16	1.397576E-16
2.160000E+03	1.867318E-16	1.332421E-16
2.200000E+03	1.820114E-16	1.261141E-16
2.240000E+03	1.762122E-16	1.184114E-16
2.280000E+03	1.693658E-16	1.102295E-16
2.320000E+03	1.616127E-16	1.017315E-16
2.360000E+03	1.531911E-16	9.312852E-17
2.400000E+03	1.442915E-16	8.458370E-17
2.440000E+03	1.350858E-16	7.623341E-17
2.480000E+03	1.256990E-16	6.817318E-17
2.520000E+03	1.162608E-16	6.048947E-17
2.560000E+03	1.068761E-16	5.324412E-17
2.600000E+03	9.765213E-17	4.648977E-17
2.640000E+03	8.867472E-17	4.025878E-17
2.680000E+03	8.002300E-17	3.457189E-17
2.720000E+03	7.176732E-17	2.943806E-17
2.760000E+03	6.396122E-17	2.485246E-17
2.800000E+03	5.665006E-17	2.080158E-17
2.840000E+03	4.986740E-17	1.726308E-17
2.880000E+03	4.363842E-17	1.420841E-17
2.920000E+03	3.797891E-17	1.160368E-17
2.960000E+03	3.289234E-17	9.410114E-18
3.000000E+03	2.837070E-17	7.585822E-18
3.010000E+03	2.732635E-17	7.182316E-18
3.020000E+03	2.631510E-17	6.798321E-18
3.030000E+03	2.533750E-17	6.433407E-18
3.040000E+03	2.439168E-17	6.086549E-18
3.050000E+03	2.347807E-17	5.757311E-18
3.060000E+03	2.259591E-17	5.444970E-18
3.070000E+03	2.174489E-17	5.148932E-18
3.080000E+03	2.092333E-17	4.868290E-18
3.090000E+03	2.013181E-17	4.602685E-18
3.100000E+03	1.936868E-17	4.351260E-18
3.110000E+03	1.863398E-17	4.113556E-18
3.120000E+03	1.792688E-17	3.888935E-18
3.130000E+03	1.724625E-17	3.676713E-18
3.140000E+03	1.659200E-17	3.476444E-18
3.150000E+03	1.596300E-17	3.287482E-18
3.160000E+03	1.535881E-17	3.109336E-18
3.170000E+03	1.477865E-17	2.941466E-18
3.180000E+03	1.422176E-17	2.783352E-18
3.190000E+03	1.368766E-17	2.634544E-18
3.200000E+03	1.317561E-17	2.494555E-18
3.210000E+03	1.268466E-17	2.362879E-18
3.220000E+03	1.221455E-17	2.239153E-18
3.230000E+03	1.176437E-17	2.122907E-18
3.240000E+03	1.133365E-17	2.013767E-18
3.250000E+03	1.092170E-17	1.911335E-18
3.260000E+03	1.052770E-17	1.815202E-18
3.270000E+03	1.015135E-17	1.725067E-18
3.280000E+03	9.791696E-18	1.640529E-18
3.290000E+03	9.448433E-18	1.561310E-18
3.300000E+03	9.120943E-18	1.487092E-18
3.310000E+03	8.808354E-18	1.417530E-18
3.320000E+03	8.510365E-18	1.352385E-18
3.330000E+03	8.226400E-18	1.291384E-18
3.340000E+03	7.955784E-18	1.234250E-18
3.350000E+03	7.697988E-18	1.180743E-18
3.360000E+03	7.452498E-18	1.130635E-18
3.370000E+03	7.218814E-18	1.083709E-18
3.380000E+03	6.996453E-18	1.039765E-18
3.390000E+03	6.784943E-18	9.986107E-19
3.400000E+03	6.583746E-18	9.600545E-19
3.410000E+03	6.392351E-18	9.239184E-19
3.420000E+03	6.210514E-18	8.900709E-19
3.430000E+03	6.037598E-18	8.583321E-19
3.440000E+03	5.873309E-18	8.285786E-19
3.450000E+03	5.717217E-18	8.006745E-19
3.460000E+03	5.568981E-18	7.745030E-19
3.470000E+03	5.428146E-18	7.499375E-19
3.480000E+03	5.294351E-18	7.268702E-19
3.490000E+03	5.167313E-18	7.052096E-19
3.500000E+03	5.046649E-18	6.848546E-19
3.510000E+03	4.932109E-18	6.657274E-19
3.520000E+03	4.823244E-18	6.477269E-19
3.530000E+03	4.719845E-18	6.307885E-19
3.540000E+03	4.621566E-18	6.148324E-19
3.550000E+03	4.528131E-18	5.997915E-19
3.560000E+03	4.439284E-18	5.856046E-19
3.570000E+03	4.354698E-18	5.722029E-19
3.580000E+03	4.274243E-18	5.595466E-19
3.590000E+03	4.197666E-18	5.475817E-19
3.600000E+03	4.124731E-18	5.362584E-19
3.610000E+03	4.055339E-18	5.255463E-19
3.620000E+03	3.989237E-18	5.153964E-19
3.630000E+03	3.926265E-18	5.057737E-19
3.640000E+03	3.866272E-18	4.966452E-19
3.650000E+03	3.809116E-18	4.879802E-19
3.660000E+03	3.754660E-18	4.797500E-19
3.670000E+03	3.702776E-18	4.719277E-19
3.680000E+03	3.653373E-18	4.644922E-19
3.690000E+03	3.606363E-18	4.574236E-19
3.700000E+03	3.561631E-18	4.506989E-19
3.710000E+03	3.519187E-18	4.443123E-19
3.720000E+03	3.478887E-18	4.382385E-19
3.730000E+03	3.440711E-18	4.324689E-19
3.740000E+03	3.404579E-18	4.269877E-19
3.750000E+03	3.370441E-18	4.217835E-19
3.760000E+03	3.338304E-18	4.168525E-19
3.770000E+03	3.308032E-18	4.121733E-19
3.780000E+03	3.279632E-18	4.077431E-19
3.790000E+03	3.253080E-18	4.035554E-19
3.800000E+03	3.228271E-18	3.995944E-19
3.810000E+03	3.205210E-18	3.958577E-19
3.820000E+03	3.183873E-18	3.923403E-19
3.830000E+03	3.164183E-18	3.890305E-19
3.840000E+03	3.146093E-18	3.859208E-19
3.850000E+03	3.129630E-18	3.830130E-19
3.860000E+03	3.114696E-18	3.802937E-19
3.870000E+03	3.101293E-18	3.777621E-19
3.880000E+03	3.089374E-18	3.754117E-19
3.890000E+03	3.078918E-18	3.732390E-19
3.900000E+03	3.069904E-18	3.712407E-19
3.910000E+03	3.062261E-18	3.694080E-19
3.920000E+03	3.055972E-18	3.677379E-19
3.930000E+03	3.051040E-18	3.662306E-19
3.940000E+03	3.047423E-18	3.648806E-19
3.950000E+03	3.045078E-18	3.636824E-19
3.960000E+03	3.043990E-18	3.626336E-19
3.970000E+03	3.044116E-18	3.617289E-19
3.980000E+03	3.045442E-18	3.609661E-19
3.990000E+03	3.047953E-18	3.603428E-19
4.000000E+03	3.051633E-18	3.598567E-19
4.010000E+03	3.056423E-18	3.595001E-19
4.020000E+03	3.062309E-18	3.592707E-19
4.030000E+03	3.069280E-18	3.591662E-19
4.040000E+03	3.077325E-18	3.591846E-19
4.050000E+03	3.086410E-18	3.593208E-19
4.060000E+03	3.096501E-18	3.595699E-19
4.070000E+03	3.107590E-18	3.599297E-19
4.080000E+03	3.119645E-18	3.603951E-19
4.090000E+03	3.132658E-18	3.609640E-19
4.100000E+03	3.146599E-18	3.616313E-19
4.110000E+03	3.161462E-18	3.623948E-19
4.120000E+03	3.177217E-18	3.632493E-19
4.130000E+03	3.193833E-18	3.641897E-19
4.140000E+03	3.211308E-18	3.652138E-19
4.150000E+03	3.229612E-18	3.663163E-19
4.160000E+03	3.248742E-18	3.674948E-19
4.170000E+03	3.268645E-18	3.687414E-19
4.180000E+03	3.289319E-18	3.700536E-19
4.190000E+03	3.310710E-18	3.714233E-19
4.200000E+03	3.332842E-18	3.728512E-19
4.210000E+03	3.355663E-18	3.743293E-19
4.220000E+03	3.379172E-18	3.758553E-19
4.230000E+03	3.403290E-18	3.774184E-19
4.240000E+03	3.428041E-18	3.790195E-19
4.250000E+03	3.453346E-18	3.806480E-19
4.260000E+03	3.479230E-18	3.823049E-19
4.270000E+03	3.505612E-18	3.839797E-19
4.280000E+03	3.532436E-18	3.856647E-19
4.290000E+03	3.559728E-18	3.873615E-19
4.300000E+03	3.587376E-18	3.890565E-19
4.310000E+03	3.615407E-18	3.907515E-19
4.320000E+03	3.643705E-18	3.924329E-19
4.330000E+03	3.672298E-18	3.941025E-19
4.340000E+03	3.701126E-18	3.957529E-19
4.350000E+03	3.730127E-18	3.973768E-19
4.360000E+03	3.759300E-18	3.989730E-19
4.370000E+03	3.788612E-18	4.005371E-19
4.380000E+03	3.818092E-18	4.020714E-19
4.390000E+03	3.847678E-18	4.035683E-19
4.400000E+03	3.877431E-18	4.050335E-19
4.410000E+03	3.907353E-18	4.064662E-19
4.420000E+03	3.937446E-18	4.078659E-19
4.430000E+03	3.967714E-18	4.092321E-19
4.440000E+03	3.998193E-18	4.105679E-19
4.450000E+03	4.028856E-18	4.118702E-19
4.460000E+03	4.059743E-18	4.131427E-19
4.470000E+03	4.090861E-18	4.143861E-19
4.480000E+03	4.122219E-18	4.156017E-19
4.490000E+03	4.153793E-18	4.167875E-19
4.500000E+03	4.185591E-18	4.179457E-19
4.510000E+03	4.217588E-18	4.190752E-19
4.520000E+03	4.249830E-18	4.201824E-19
4.530000E+03	4.282256E-18	4.212640E-19
4.540000E+03	4.314878E-18	4.223238E-19
4.550000E+03	4.347706E-18	4.233664E-19
4.560000E+03	4.380679E-18	4.243893E-19
4.570000E+03	4.413848E-18	4.254014E-19
4.580000E+03	4.447150E-18	4.264009E-19
4.590000E+03	4.480600E-18	4.273934E-19
4.600000E+03	4.514136E-18	4.283772E-19
4.610000E+03	4.547814E-18	4.293615E-19
4.620000E+03	4.581612E-18	4.303480E-19
4.630000E+03	4.615472E-18	4.313343E-19
4.640000E+03	4.649413E-18	4.323252E-19
4.650000E+03	4.683459E-18	4.333246E-19
4.660000E+03	4.717593E-18	4.343326E-19
4.670000E+03	4.751760E-18	4.353447E-19
4.680000E+03	4.786070E-18	4.363711E-19
4.690000E+03	4.820557E-18	4.374139E-19
4.700000E+03	4.855171E-18	4.384673E-19
4.710000E+03	4.889946E-18	4.395326E-19
4.720000E+03	4.924922E-18	4.406110E-19
4.730000E+03	4.960007E-18	4.416915E-19
4.740000E+03	4.995242E-18	4.427749E-19
4.750000E+03	5.030579E-18	4.438541E-19
4.760000E+03	5.066061E-18	4.449303E-19
4.770000E+03	5.101691E-18	4.460006E-19
4.780000E+03	5.137421E-18	4.470588E-19
4.790000E+03	5.173300E-18	4.481071E-19
4.800000E+03	5.209284E-18	4.491402E-19
4.810000E+03	5.245423E-18	4.501615E-19
4.820000E+03	5.281674E-18	4.511670E-19
4.830000E+03	5.318040E-18	4.521575E-19
4.840000E+03	5.354524E-18	4.531345E-19
4.850000E+03	5.391182E-18	4.541045E-19
4.860000E+03	5.427969E-18	4.550663E-19
4.870000E+03	5.464887E-18	4.560231E-19
4.880000E+03	5.501890E-18	4.569748E-19
4.890000E+03	5.539084E-18	4.579339E-19
4.900000E+03	5.576418E-18	4.589005E-19
4.910000E+03	5.613896E-18	4.598790E-19
4.920000E+03	5.651465E-18	4.608691E-19
4.930000E+03	5.689176E-18	4.618789E-19
4.940000E+03	5.726976E-18	4.629071E-19
4.950000E+03	5.764859E-18	4.639565E-19
4.960000E+03	5.802877E-18	4.650334E-19
4.970000E+03	5.840971E-18	4.661345E-19
4.980000E+03	5.879133E-18	4.672604E-19
4.990000E+03	5.917300E-18	4.684063E-19
5.000000E+03	5.955519E-18	4.695758E-19
5.010000E+03	5.993780E-18	4.707673E-19
5.020000E+03	6.032015E-18	4.719743E-19
5.030000E+03	6.070211E-18	4.731942E-19
5.040000E+03	6.108354E-18	4.744244E-19
5.050000E+03	6.146369E-18	4.756574E-19
5.060000E+03	6.184302E-18	4.768948E-19
5.070000E+03	6.222135E-18	4.781340E-19
5.080000E+03	6.259732E-18	4.793632E-19
5.090000E+03	6.297136E-18	4.805850E-19
5.100000E+03	6.334329E-18	4.817979E-19
5.110000E+03	6.371232E-18	4.829964E-19
5.120000E+03	6.407828E-18	4.841804E-19
5.130000E+03	6.444097E-18	4.853506E-19
5.140000E+03	6.480021E-18	4.865087E-19
5.150000E+03	6.515517E-18	4.876528E-19
5.160000E+03	6.550626E-18	4.887916E-19
5.170000E+03	6.585198E-18	4.899209E-19
5.180000E+03	6.619271E-18	4.910521E-19
5.190000E+03	6.652753E-18	4.921883E-19
5.200000E+03	6.685612E-18	4.933389E-19
5.210000E+03	6.717813E-18	4.945144E-19
5.220000E+03	6.749319E-18	4.957264E-19
5.230000E+03	6.779955E-18	4.969776E-19
5.240000E+03	6.809808E-18	4.982911E-19
5.250000E+03	6.838763E-18	4.996754E-19
5.260000E+03	6.866770E-18	5.011443E-19
5.270000E+03	6.893706E-18	5.027065E-19
5.280000E+03	6.919515E-18	5.043756E-19
5.290000E+03	6.944141E-18	5.061644E-19
5.300000E+03	6.967526E-18	5.080856E-19
5.310000E+03	6.989616E-18	5.101510E-19
5.320000E+03	7.010287E-18	5.123668E-19
5.330000E+03	7.029627E-18	5.147534E-19
5.340000E+03	7.047451E-18	5.173101E-19
5.350000E+03	7.063713E-18	5.200453E-19
5.360000E+03	7.078517E-18	5.229767E-19
5.370000E+03	7.091687E-18	5.260999E-19
5.380000E+03	7.103336E-18	5.294303E-19
5.390000E+03	7.113372E-18	5.329660E-19
5.400000E+03	7.121847E-18	5.367142E-19
5.410000E+03	7.128681E-18	5.406701E-19
5.420000E+03	7.134008E-18	5.448434E-19
5.430000E+03	7.137760E-18	5.492262E-19
5.440000E+03	7.140014E-18	5.538200E-19
5.450000E+03	7.140640E-18	5.586080E-19
5.460000E+03	7.139726E-18	5.635887E-19
5.470000E+03	7.137226E-18	5.687481E-19
5.480000E+03	7.133097E-18	5.740703E-19
5.490000E+03	7.127445E-18	5.795501E-19
5.500000E+03	7.120167E-18	5.851632E-19
5.510000E+03	7.111233E-18	5.908904E-19
5.520000E+03	7.100693E-18	5.967172E-19
5.530000E+03	7.088455E-18	6.026163E-19
5.540000E+03	7.074646E-18	6.085780E-19
5.550000E+03	7.059108E-18	6.145679E-19
5.560000E+03	7.042045E-18	6.205822E-19
5.570000E+03	7.023446E-18	6.265985E-19
5.580000E+03	7.003302E-18	6.325949E-19
5.590000E+03	6.981677E-18	6.385560E-19
5.600000E+03	6.958633E-18	6.444673E-19
5.610000E+03	6.934162E-18	6.503083E-19
5.620000E+03	6.908467E-18	6.560798E-19
5.630000E+03	6.881467E-18	6.617568E-19
5.640000E+03	6.853362E-18	6.673427E-19
5.650000E+03	6.824071E-18	6.728149E-19
5.660000E+03	6.793788E-18	6.781798E-19
5.670000E+03	6.762570E-18	6.834313E-19
5.680000E+03	6.730399E-18	6.885577E-19
5.690000E+03	6.697397E-18	6.935626E-19
5.700000E+03	6.663616E-18	6.984436E-19
5.710000E+03	6.629173E-18	7.032066E-19
5.720000E+03	6.594119E-18	7.078510E-19
5.730000E+03	6.558433E-18	7.123695E-19
5.740000E+03	6.522300E-18	7.167773E-19
5.750000E+03	6.485769E-18	7.210750E-19
5.760000E+03	6.448819E-18	7.252556E-19
5.770000E+03	6.411568E-18	7.293271E-19
5.780000E+03	6.374132E-18	7.332975E-19
5.790000E+03	6.336562E-18	7.371666E-19
5.800000E+03	6.298840E-18	7.409261E-19
5.810000E+03	6.261085E-18	7.445829E-19
5.820000E+03	6.223419E-18	7.481436E-19
5.830000E+03	6.185893E-18	7.516068E-19
5.840000E+03	6.148496E-18	7.549623E-19
5.850000E+03	6.111350E-18	7.582164E-19
5.860000E+03	6.074510E-18	7.613667E-19
5.870000E+03	6.038098E-18	7.644195E-19
5.880000E+03	6.002171E-18	7.673728E-19
5.890000E+03	5.966716E-18	7.702163E-19
5.900000E+03	5.931855E-18	7.729567E-19
5.910000E+03	5.897574E-18	7.755843E-19
5.920000E+03	5.864122E-18	7.781240E-19
5.930000E+03	5.831350E-18	7.805493E-19
5.940000E+03	5.799372E-18	7.828689E-19
5.950000E+03	5.768295E-18	7.850921E-19
5.960000E+03	5.738096E-18	7.872108E-19
5.970000E+03	5.708813E-18	7.892264E-19
5.980000E+03	5.680545E-18	7.911496E-19
5.990000E+03	5.653260E-18	7.929736E-19
6.000000E+03	5.627051E-18	7.947101E-19
6.010000E+03	5.601814E-18	7.963435E-19
6.020000E+03	5.577704E-18	7.978953E-19
6.030000E+03	5.554609E-18	7.993504E-19
6.040000E+03	5.532679E-18	8.007309E-19
6.050000E+03	5.511733E-18	8.020124E-19
6.060000E+03	5.491915E-18	8.032173E-19
6.070000E+03	5.473171E-18	8.043401E-19
6.080000E+03	5.455508E-18	8.053847E-19
6.090000E+03	5.438803E-18	8.063356E-19
6.100000E+03	5.423191E-18	8.072157E-19
6.110000E+03	5.408477E-18	8.079997E-19
6.120000E+03	5.394794E-18	8.087105E-19
6.130000E+03	5.381943E-18	8.093222E-19
6.140000E+03	5.369919E-18	8.098377E-19
6.150000E+03	5.358651E-18	8.102499E-19
6.160000E+03	5.348130E-18	8.105616E-19
6.170000E+03	5.338148E-18	8.107448E-19
6.180000E+03	5.328689E-18	8.108016E-19
6.190000E+03	5.319672E-18	8.107233E-19
6.200000E+03	5.311079E-18	8.105114E-19
6.210000E+03	5.302889E-18	8.101670E-19
6.220000E+03	5.295216E-18	8.097119E-19
6.230000E+03	5.288244E-18	8.091786E-19
6.240000E+03	5.282022E-18	8.085791E-19
6.250000E+03	5.276667E-18	8.079361E-19
6.260000E+03	5.272301E-18	8.072724E-19
6.270000E+03	5.268976E-18	8.066006E-19
6.280000E+03	5.266817E-18	8.059442E-19
6.290000E+03	5.265883E-18	8.053161E-19
6.300000E+03	5.266232E-18	8.047293E-19
6.310000E+03	5.267998E-18	8.042080E-19
6.320000E+03	5.271173E-18	8.037548E-19
6.330000E+03	5.275899E-18	8.033940E-19
6.340000E+03	5.282098E-18	8.031175E-19
6.350000E+03	5.289842E-18	8.029388E-19
6.360000E+03	5.299131E-18	8.028605E-19
6.370000E+03	5.310040E-18	8.028964E-19
6.380000E+03	5.322497E-18	8.030379E-19
6.390000E+03	5.336503E-18	8.032872E-19
6.400000E+03	5.351986E-18	8.036351E-19
6.410000E+03	5.368791E-18	8.040605E-19
6.420000E+03	5.386839E-18	8.045530E-19
6.430000E+03	5.406126E-18	8.051139E-19
6.440000E+03	5.426649E-18	8.057444E-19
6.450000E+03	5.448407E-18	8.064455E-19
6.460000E+03	5.471478E-18	8.072305E-19
6.470000E+03	5.495948E-18	8.081128E-19
6.480000E+03	5.521820E-18	8.090937E-19
6.490000E+03	5.549014E-18	8.101624E-19
6.500000E+03	5.577705E-18	8.113448E-19
6.510000E+03	5.607902E-18	8.126426E-19
6.520000E+03	5.639527E-18	8.140447E-19
6.530000E+03	5.672677E-18	8.155651E-19
6.540000E+03	5.707362E-18	8.172054E-19
6.550000E+03	5.743506E-18	8.189542E-19
6.560000E+03	5.781117E-18	8.208125E-19
6.570000E+03	5.820391E-18	8.228079E-19
6.580000E+03	5.861066E-18	8.249023E-19
6.590000E+03	5.903339E-18	8.271232E-19
6.600000E+03	5.947226E-18	8.294720E-19
6.610000E+03	5.992549E-18	8.319230E-19
6.620000E+03	6.039516E-18	8.345041E-19
6.630000E+03	6.087944E-18	8.371891E-19
6.640000E+03	6.138048E-18	8.400064E-19
6.650000E+03	6.189640E-18	8.429293E-19
6.660000E+03	6.242838E-18	8.459724E-19
6.670000E+03	6.297657E-18	8.491366E-19
6.680000E+03	6.354008E-18	8.524084E-19
6.690000E+03	6.411904E-18	8.557883E-19
6.700000E+03	6.471470E-18	8.592913E-19
6.710000E+03	6.532613E-18	8.629036E-19
6.720000E+03	6.595348E-18	8.666255E-19
6.730000E+03	6.659692E-18	8.704574E-19
6.740000E+03	6.725660E-18	8.743999E-19
6.750000E+03	6.793269E-18	8.784531E-19
6.760000E+03	6.862538E-18	8.826177E-19
6.770000E+03	6.933362E-18	8.868781E-19
6.780000E+03	7.005879E-18	8.912501E-19
6.790000E+03	7.080108E-18	8.957340E-19
6.800000E+03	7.155941E-18	9.003139E-19
6.810000E+03	7.233522E-18	9.050060E-19
6.820000E+03	7.312740E-18	9.097939E-19
6.830000E+03	7.393611E-18	9.146774E-19
6.840000E+03	7.476150E-18	9.196563E-19
6.850000E+03	7.560373E-18	9.247302E-19
6.860000E+03	7.646437E-18	9.299158E-19
6.870000E+03	7.734080E-18	9.351787E-19
6.880000E+03	7.823456E-18	9.405357E-19
6.890000E+03	7.914583E-18	9.459862E-19
6.900000E+03	8.007328E-18	9.515123E-19
6.910000E+03	8.101853E-18	9.571308E-19
6.920000E+03	8.198176E-18	9.628416E-19
6.930000E+03	8.296158E-18	9.686260E-19
6.940000E+03	8.395808E-18	9.744831E-19
6.950000E+03	8.497298E-18	9.804307E-19
6.960000E+03	8.600480E-18	9.864496E-19
6.970000E+03	8.705364E-18	9.925389E-19
6.980000E+03	8.811958E-18	9.986977E-19
6.990000E+03	8.920271E-18	1.004925E-18
7.000000E+03	9.030135E-18	1.011200E-18
7.010000E+03	9.141906E-18	1.017562E-18
7.020000E+03	9.255237E-18	1.023969E-18
7.030000E+03	9.370311E-18	1.030440E-18
7.040000E+03	9.486945E-18	1.036955E-18
7.050000E+03	9.605138E-18	1.043510E-18
7.060000E+03	9.725077E-18	1.050125E-18
7.070000E+03	9.846572E-18	1.056778E-18
7.080000E+03	9.969417E-18	1.063446E-18
7.090000E+03	1.009400E-17	1.070169E-18
7.100000E+03	1.022012E-17	1.076924E-18
7.110000E+03	1.034756E-17	1.083687E-18
7.120000E+03	1.047652E-17	1.090477E-18
7.130000E+03	1.060676E-17	1.097270E-18
7.140000E+03	1.073849E-17	1.104086E-18
7.150000E+03	1.087146E-17	1.110899E-18
7.160000E+03	1.100589E-17	1.117731E-18
7.170000E+03	1.114131E-17	1.124532E-18
7.180000E+03	1.127790E-17	1.131323E-18
7.190000E+03	1.141587E-17	1.138125E-18
7.200000E+03	1.155474E-17	1.144890E-18
7.210000E+03	1.169445E-17	1.151614E-18
7.220000E+03	1.183521E-17	1.158320E-18
7.230000E+03	1.197699E-17	1.165007E-18
7.240000E+03	1.211950E-17	1.171650E-18
7.250000E+03	1.226295E-17	1.178273E-18
7.260000E+03	1.240702E-17	1.184851E-18
7.270000E+03	1.255168E-17	1.191385E-18
7.280000E+03	1.269713E-17	1.197903E-18
7.290000E+03	1.284305E-17	1.204382E-18
7.300000E+03	1.298967E-17	1.210850E-18
7.310000E+03	1.313663E-17	1.217286E-18
7.320000E+03	1.328388E-17	1.223696E-18
7.330000E+03	1.343195E-17	1.230139E-18
7.340000E+03	1.358018E-17	1.236572E-18
7.350000E+03	1.372913E-17	1.243056E-18
7.360000E+03	1.387843E-17	1.249577E-18
7.370000E+03	1.402836E-17	1.256175E-18
7.380000E+03	1.417918E-17	1.262892E-18
7.390000E+03	1.433056E-17	1.269715E-18
7.400000E+03	1.448311E-17	1.276720E-18
7.410000E+03	1.463683E-17	1.283924E-18
7.420000E+03	1.479206E-17	1.291378E-18
7.430000E+03	1.494881E-17	1.299102E-18
7.440000E+03	1.510710E-17	1.307116E-18
7.450000E+03	1.526731E-17	1.315471E-18
7.460000E+03	1.542877E-17	1.324126E-18
7.470000E+03	1.559148E-17	1.333095E-18
7.480000E+03	1.575511E-17	1.342360E-18
7.490000E+03	1.592003E-17	1.351962E-18
7.500000E+03	1.608588E-17	1.361872E-18
7.510000E+03	1.625229E-17	1.372057E-18
7.520000E+03	1.641927E-17	1.382506E-18
7.530000E+03	1.658682E-17	1.393207E-18
7.540000E+03	1.675454E-17	1.404103E-18
7.550000E+03	1.692283E-17	1.415202E-18
7.560000E+03	1.709087E-17	1.426405E-18
7.570000E+03	1.725946E-17	1.437748E-18
7.580000E+03	1.742820E-17	1.449159E-18
7.590000E+03	1.759705E-17	1.460603E-18
7.600000E+03	1.776556E-17	1.472008E-18
7.610000E+03	1.793412E-17	1.483374E-18
7.620000E+03	1.810269E-17	1.494668E-18
7.630000E+03	1.827123E-17	1.505861E-18
7.640000E+03	1.843920E-17	1.516889E-18
7.650000E+03	1.860698E-17	1.527767E-18
7.660000E+03	1.877402E-17	1.538437E-18
7.670000E+03	1.894114E-17	1.548961E-18
7.680000E+03	1.910680E-17	1.559212E-18
7.690000E+03	1.927231E-17	1.569297E-18
7.700000E+03	1.943706E-17	1.579171E-18
7.710000E+03	1.960038E-17	1.588791E-18
7.720000E+03	1.976262E-17	1.598194E-18
7.730000E+03	1.992360E-17	1.607378E-18
7.740000E+03	2.008314E-17	1.616343E-18
7.750000E+03	2.024105E-17	1.625089E-18
7.760000E+03	2.039768E-17	1.633657E-18
