#wls	flux	fluxerr
1.600000E+03	1.653005E-16	1.607948E-16
1.640000E+03	1.710846E-16	1.636511E-16
1.680000E+03	1.768316E-16	1.662215E-16
1.720000E+03	1.825269E-16	1.684882E-16
1.760000E+03	1.880983E-16	1.703821E-16
1.800000E+03	1.935182E-16	1.718796E-16
1.840000E+03	1.987184E-16	1.729239E-16
1.880000E+03	2.036585E-16	1.734873E-16
1.920000E+03	2.082745E-16	1.735264E-16
1.960000E+03	2.124973E-16	1.729994E-16
2.000000E+03	2.162222E-16	1.718422E-16
2.040000E+03	2.193752E-16	1.700243E-16
2.080000E+03	2.218668E-16	1.675107E-16
2.120000E+03	2.235685E-16	1.642464E-16
2.160000E+03	2.243640E-16	1.601977E-16
2.200000E+03	2.241147E-16	1.553268E-16
2.240000E+03	2.226971E-16	1.496200E-16
2.280000E+03	2.200687E-16	1.431288E-16
2.320000E+03	2.162354E-16	1.359412E-16
2.360000E+03	2.113291E-16	1.282231E-16
2.400000E+03	2.054665E-16	1.201214E-16
2.440000E+03	1.987518E-16	1.117671E-16
2.480000E+03	1.913053E-16	1.032912E-16
2.520000E+03	1.832183E-16	9.479960E-17
2.560000E+03	1.745709E-16	8.638417E-17
2.600000E+03	1.654697E-16	7.814195E-17
2.640000E+03	1.559931E-16	7.014692E-17
2.680000E+03	1.462412E-16	6.247416E-17
2.720000E+03	1.363013E-16	5.518325E-17
2.760000E+03	1.262838E-16	4.833318E-17
2.800000E+03	1.162872E-16	4.196697E-17
2.840000E+03	1.064216E-16	3.612091E-17
2.880000E+03	9.679734E-17	3.081975E-17
2.920000E+03	8.752097E-17	2.607583E-17
2.960000E+03	7.869098E-17	2.188859E-17
3.000000E+03	7.039142E-17	1.824438E-17
3.010000E+03	6.840682E-17	1.741523E-17
3.020000E+03	6.646099E-17	1.661809E-17
3.030000E+03	6.455282E-17	1.585198E-17
3.040000E+03	6.268553E-17	1.511694E-17
3.050000E+03	6.085792E-17	1.441191E-17
3.060000E+03	5.907023E-17	1.373620E-17
3.070000E+03	5.732265E-17	1.308911E-17
3.080000E+03	5.561768E-17	1.247042E-17
3.090000E+03	5.395295E-17	1.187883E-17
3.100000E+03	5.233070E-17	1.131405E-17
3.110000E+03	5.074973E-17	1.077506E-17
3.120000E+03	4.921096E-17	1.026127E-17
3.130000E+03	4.771421E-17	9.771838E-18
3.140000E+03	4.625927E-17	9.305948E-18
3.150000E+03	4.484595E-17	8.862775E-18
3.160000E+03	4.347483E-17	8.441653E-18
3.170000E+03	4.214476E-17	8.041593E-18
3.180000E+03	4.085619E-17	7.661929E-18
3.190000E+03	3.960868E-17	7.301841E-18
3.200000E+03	3.840174E-17	6.960528E-18
3.210000E+03	3.723553E-17	6.637319E-18
3.220000E+03	3.610815E-17	6.331208E-18
3.230000E+03	3.502089E-17	6.041773E-18
3.240000E+03	3.397126E-17	5.767958E-18
3.250000E+03	3.296033E-17	5.509341E-18
3.260000E+03	3.198624E-17	5.265023E-18
3.270000E+03	3.104877E-17	5.034411E-18
3.280000E+03	3.014714E-17	4.816834E-18
3.290000E+03	2.928008E-17	4.611572E-18
3.300000E+03	2.844771E-17	4.418145E-18
3.310000E+03	2.764828E-17	4.235808E-18
3.320000E+03	2.688101E-17	4.063989E-18
3.330000E+03	2.614588E-17	3.902254E-18
3.340000E+03	2.544123E-17	3.749947E-18
3.350000E+03	2.476628E-17	3.606563E-18
3.360000E+03	2.412021E-17	3.471619E-18
3.370000E+03	2.350254E-17	3.344698E-18
3.380000E+03	2.291181E-17	3.225262E-18
3.390000E+03	2.234724E-17	3.112894E-18
3.400000E+03	2.180838E-17	3.007238E-18
3.410000E+03	2.129413E-17	2.907869E-18
3.420000E+03	2.080376E-17	2.814426E-18
3.430000E+03	2.033600E-17	2.726495E-18
3.440000E+03	1.989041E-17	2.643792E-18
3.450000E+03	1.946631E-17	2.566011E-18
3.460000E+03	1.906255E-17	2.492803E-18
3.470000E+03	1.867853E-17	2.423902E-18
3.480000E+03	1.831341E-17	2.359030E-18
3.490000E+03	1.796687E-17	2.297983E-18
3.500000E+03	1.763772E-17	2.240461E-18
3.510000E+03	1.732568E-17	2.186290E-18
3.520000E+03	1.702989E-17	2.135234E-18
3.530000E+03	1.674970E-17	2.087096E-18
3.540000E+03	1.648455E-17	2.041695E-18
3.550000E+03	1.623367E-17	1.998841E-18
3.560000E+03	1.599675E-17	1.958399E-18
3.570000E+03	1.577293E-17	1.920185E-18
3.580000E+03	1.556175E-17	1.884065E-18
3.590000E+03	1.536296E-17	1.849938E-18
3.600000E+03	1.517596E-17	1.817669E-18
3.610000E+03	1.500036E-17	1.787152E-18
3.620000E+03	1.483563E-17	1.758271E-18
3.630000E+03	1.468129E-17	1.730920E-18
3.640000E+03	1.453701E-17	1.705014E-18
3.650000E+03	1.440221E-17	1.680445E-18
3.660000E+03	1.427674E-17	1.657159E-18
3.670000E+03	1.416008E-17	1.635060E-18
3.680000E+03	1.405197E-17	1.614087E-18
3.690000E+03	1.395233E-17	1.594201E-18
3.700000E+03	1.386066E-17	1.575317E-18
3.710000E+03	1.377676E-17	1.557388E-18
3.720000E+03	1.370068E-17	1.540396E-18
3.730000E+03	1.363208E-17	1.524278E-18
3.740000E+03	1.357076E-17	1.508993E-18
3.750000E+03	1.351676E-17	1.494524E-18
3.760000E+03	1.346976E-17	1.480815E-18
3.770000E+03	1.342967E-17	1.467840E-18
3.780000E+03	1.339653E-17	1.455584E-18
3.790000E+03	1.337011E-17	1.444008E-18
3.800000E+03	1.335034E-17	1.433087E-18
3.810000E+03	1.333712E-17	1.422797E-18
3.820000E+03	1.333037E-17	1.413116E-18
3.830000E+03	1.333011E-17	1.404034E-18
3.840000E+03	1.333615E-17	1.395518E-18
3.850000E+03	1.334851E-17	1.387558E-18
3.860000E+03	1.336723E-17	1.380147E-18
3.870000E+03	1.339211E-17	1.373251E-18
3.880000E+03	1.342308E-17	1.366852E-18
3.890000E+03	1.346027E-17	1.360950E-18
3.900000E+03	1.350361E-17	1.355523E-18
3.910000E+03	1.355289E-17	1.350538E-18
3.920000E+03	1.360825E-17	1.345993E-18
3.930000E+03	1.366971E-17	1.341874E-18
3.940000E+03	1.373695E-17	1.338132E-18
3.950000E+03	1.381009E-17	1.334762E-18
3.960000E+03	1.388912E-17	1.331746E-18
3.970000E+03	1.397393E-17	1.329054E-18
3.980000E+03	1.406427E-17	1.326644E-18
3.990000E+03	1.416036E-17	1.324517E-18
4.000000E+03	1.426193E-17	1.322628E-18
4.010000E+03	1.436882E-17	1.320945E-18
4.020000E+03	1.448112E-17	1.319456E-18
4.030000E+03	1.459854E-17	1.318116E-18
4.040000E+03	1.472115E-17	1.316913E-18
4.050000E+03	1.484852E-17	1.315794E-18
4.060000E+03	1.498086E-17	1.314760E-18
4.070000E+03	1.511784E-17	1.313769E-18
4.080000E+03	1.525930E-17	1.312794E-18
4.090000E+03	1.540528E-17	1.311827E-18
4.100000E+03	1.555535E-17	1.310820E-18
4.110000E+03	1.570971E-17	1.309779E-18
4.120000E+03	1.586791E-17	1.308656E-18
4.130000E+03	1.602989E-17	1.307437E-18
4.140000E+03	1.619558E-17	1.306104E-18
4.150000E+03	1.636466E-17	1.304623E-18
4.160000E+03	1.653707E-17	1.302975E-18
4.170000E+03	1.671261E-17	1.301138E-18
4.180000E+03	1.689095E-17	1.299075E-18
4.190000E+03	1.707216E-17	1.296787E-18
4.200000E+03	1.725576E-17	1.294235E-18
4.210000E+03	1.744182E-17	1.291426E-18
4.220000E+03	1.762985E-17	1.288334E-18
4.230000E+03	1.781976E-17	1.284972E-18
4.240000E+03	1.801132E-17	1.281352E-18
4.250000E+03	1.820400E-17	1.277478E-18
4.260000E+03	1.839783E-17	1.273407E-18
4.270000E+03	1.859242E-17	1.269183E-18
4.280000E+03	1.878735E-17	1.264864E-18
4.290000E+03	1.898217E-17	1.260526E-18
4.300000E+03	1.917675E-17	1.256281E-18
4.310000E+03	1.937081E-17	1.252249E-18
4.320000E+03	1.956356E-17	1.248535E-18
4.330000E+03	1.975502E-17	1.245307E-18
4.340000E+03	1.994440E-17	1.242693E-18
4.350000E+03	2.013171E-17	1.240873E-18
4.360000E+03	2.031631E-17	1.239987E-18
4.370000E+03	2.049807E-17	1.240186E-18
4.380000E+03	2.067684E-17	1.241597E-18
4.390000E+03	2.085255E-17	1.244304E-18
4.400000E+03	2.102518E-17	1.248338E-18
4.410000E+03	2.119501E-17	1.253679E-18
4.420000E+03	2.136235E-17	1.260262E-18
4.430000E+03	2.152736E-17	1.267973E-18
4.440000E+03	2.169040E-17	1.276685E-18
4.450000E+03	2.185148E-17	1.286231E-18
4.460000E+03	2.201117E-17	1.296469E-18
4.470000E+03	2.216950E-17	1.307221E-18
4.480000E+03	2.232669E-17	1.318325E-18
4.490000E+03	2.248294E-17	1.329623E-18
4.500000E+03	2.263848E-17	1.340971E-18
4.510000E+03	2.279353E-17	1.352236E-18
4.520000E+03	2.294831E-17	1.363300E-18
4.530000E+03	2.310263E-17	1.374039E-18
4.540000E+03	2.325711E-17	1.384390E-18
4.550000E+03	2.341158E-17	1.394262E-18
4.560000E+03	2.356623E-17	1.403604E-18
4.570000E+03	2.372108E-17	1.412370E-18
4.580000E+03	2.387654E-17	1.420554E-18
4.590000E+03	2.403263E-17	1.428138E-18
4.600000E+03	2.418910E-17	1.435106E-18
4.610000E+03	2.434659E-17	1.441500E-18
4.620000E+03	2.450485E-17	1.447323E-18
4.630000E+03	2.466385E-17	1.452593E-18
4.640000E+03	2.482400E-17	1.457361E-18
4.650000E+03	2.498547E-17	1.461669E-18
4.660000E+03	2.514777E-17	1.465519E-18
4.670000E+03	2.531152E-17	1.468984E-18
4.680000E+03	2.547669E-17	1.472096E-18
4.690000E+03	2.564321E-17	1.474886E-18
4.700000E+03	2.581130E-17	1.477400E-18
4.710000E+03	2.598091E-17	1.479670E-18
4.720000E+03	2.615229E-17	1.481740E-18
4.730000E+03	2.632496E-17	1.483612E-18
4.740000E+03	2.649922E-17	1.485323E-18
4.750000E+03	2.667538E-17	1.486913E-18
4.760000E+03	2.685280E-17	1.488360E-18
4.770000E+03	2.703204E-17	1.489710E-18
4.780000E+03	2.721294E-17	1.490966E-18
4.790000E+03	2.739533E-17	1.492132E-18
4.800000E+03	2.757977E-17	1.493254E-18
4.810000E+03	2.776552E-17	1.494308E-18
4.820000E+03	2.795341E-17	1.495359E-18
4.830000E+03	2.814265E-17	1.496391E-18
4.840000E+03	2.833376E-17	1.497464E-18
4.850000E+03	2.852620E-17	1.498588E-18
4.860000E+03	2.872048E-17	1.499833E-18
4.870000E+03	2.891602E-17	1.501220E-18
4.880000E+03	2.911306E-17	1.502814E-18
4.890000E+03	2.931156E-17	1.504667E-18
4.900000E+03	2.951121E-17	1.506817E-18
4.910000E+03	2.971197E-17	1.509313E-18
4.920000E+03	2.991379E-17	1.512204E-18
4.930000E+03	3.011692E-17	1.515547E-18
4.940000E+03	3.032076E-17	1.519352E-18
4.950000E+03	3.052585E-17	1.523678E-18
4.960000E+03	3.073158E-17	1.528520E-18
4.970000E+03	3.093820E-17	1.533901E-18
4.980000E+03	3.114536E-17	1.539803E-18
4.990000E+03	3.135299E-17	1.546204E-18
5.000000E+03	3.156101E-17	1.553066E-18
5.010000E+03	3.176959E-17	1.560345E-18
5.020000E+03	3.197796E-17	1.567939E-18
5.030000E+03	3.218625E-17	1.575774E-18
5.040000E+03	3.239392E-17	1.583736E-18
5.050000E+03	3.260103E-17	1.591735E-18
5.060000E+03	3.280698E-17	1.599646E-18
5.070000E+03	3.301112E-17	1.607346E-18
5.080000E+03	3.321342E-17	1.614742E-18
5.090000E+03	3.341349E-17	1.621733E-18
5.100000E+03	3.361059E-17	1.628206E-18
5.110000E+03	3.380393E-17	1.634053E-18
5.120000E+03	3.399367E-17	1.639226E-18
5.130000E+03	3.417864E-17	1.643622E-18
5.140000E+03	3.435830E-17	1.647185E-18
5.150000E+03	3.453210E-17	1.649876E-18
5.160000E+03	3.469949E-17	1.651675E-18
5.170000E+03	3.485957E-17	1.652567E-18
5.180000E+03	3.501214E-17	1.652593E-18
5.190000E+03	3.515596E-17	1.651765E-18
5.200000E+03	3.529084E-17	1.650162E-18
5.210000E+03	3.541554E-17	1.647829E-18
5.220000E+03	3.553018E-17	1.644888E-18
5.230000E+03	3.563351E-17	1.641400E-18
5.240000E+03	3.572527E-17	1.637474E-18
5.250000E+03	3.580412E-17	1.633168E-18
5.260000E+03	3.586975E-17	1.628575E-18
5.270000E+03	3.592148E-17	1.623762E-18
5.280000E+03	3.595788E-17	1.618749E-18
5.290000E+03	3.597823E-17	1.613571E-18
5.300000E+03	3.598215E-17	1.608263E-18
5.310000E+03	3.596858E-17	1.602814E-18
5.320000E+03	3.593645E-17	1.597204E-18
5.330000E+03	3.588512E-17	1.591422E-18
5.340000E+03	3.581398E-17	1.585455E-18
5.350000E+03	3.572250E-17	1.579295E-18
5.360000E+03	3.560990E-17	1.572928E-18
5.370000E+03	3.547620E-17	1.566380E-18
5.380000E+03	3.532087E-17	1.559661E-18
5.390000E+03	3.514424E-17	1.552825E-18
5.400000E+03	3.494613E-17	1.545905E-18
5.410000E+03	3.472760E-17	1.538989E-18
5.420000E+03	3.448961E-17	1.532158E-18
5.430000E+03	3.423265E-17	1.525465E-18
5.440000E+03	3.395883E-17	1.519030E-18
5.450000E+03	3.366947E-17	1.512924E-18
5.460000E+03	3.336476E-17	1.507153E-18
5.470000E+03	3.304748E-17	1.501823E-18
5.480000E+03	3.271891E-17	1.496944E-18
5.490000E+03	3.238050E-17	1.492506E-18
5.500000E+03	3.203421E-17	1.488486E-18
5.510000E+03	3.168180E-17	1.484812E-18
5.520000E+03	3.132516E-17	1.481391E-18
5.530000E+03	3.096683E-17	1.478156E-18
5.540000E+03	3.060872E-17	1.475008E-18
5.550000E+03	3.025369E-17	1.471904E-18
5.560000E+03	2.990419E-17	1.468799E-18
5.570000E+03	2.956234E-17	1.465651E-18
5.580000E+03	2.923073E-17	1.462465E-18
5.590000E+03	2.891153E-17	1.459249E-18
5.600000E+03	2.860676E-17	1.456028E-18
5.610000E+03	2.831851E-17	1.452853E-18
5.620000E+03	2.804839E-17	1.449770E-18
5.630000E+03	2.779773E-17	1.446833E-18
5.640000E+03	2.756790E-17	1.444113E-18
5.650000E+03	2.735969E-17	1.441665E-18
5.660000E+03	2.717391E-17	1.439561E-18
5.670000E+03	2.701079E-17	1.437853E-18
5.680000E+03	2.687032E-17	1.436591E-18
5.690000E+03	2.675251E-17	1.435835E-18
5.700000E+03	2.665691E-17	1.435626E-18
5.710000E+03	2.658286E-17	1.436005E-18
5.720000E+03	2.652985E-17	1.437022E-18
5.730000E+03	2.649699E-17	1.438712E-18
5.740000E+03	2.648362E-17	1.441122E-18
5.750000E+03	2.648852E-17	1.444268E-18
5.760000E+03	2.651133E-17	1.448205E-18
5.770000E+03	2.655096E-17	1.452943E-18
5.780000E+03	2.660668E-17	1.458497E-18
5.790000E+03	2.667848E-17	1.464908E-18
5.800000E+03	2.676533E-17	1.472148E-18
5.810000E+03	2.686747E-17	1.480242E-18
5.820000E+03	2.698465E-17	1.489176E-18
5.830000E+03	2.711673E-17	1.498929E-18
5.840000E+03	2.726333E-17	1.509455E-18
5.850000E+03	2.742498E-17	1.520747E-18
5.860000E+03	2.760139E-17	1.532744E-18
5.870000E+03	2.779284E-17	1.545408E-18
5.880000E+03	2.799934E-17	1.558680E-18
5.890000E+03	2.822061E-17	1.572475E-18
5.900000E+03	2.845693E-17	1.586735E-18
5.910000E+03	2.870863E-17	1.601400E-18
5.920000E+03	2.897502E-17	1.616355E-18
5.930000E+03	2.925636E-17	1.631533E-18
5.940000E+03	2.955255E-17	1.646855E-18
5.950000E+03	2.986376E-17	1.662262E-18
5.960000E+03	3.018916E-17	1.677648E-18
5.970000E+03	3.052920E-17	1.692989E-18
5.980000E+03	3.088292E-17	1.708198E-18
5.990000E+03	3.125037E-17	1.723255E-18
6.000000E+03	3.163123E-17	1.738137E-18
6.010000E+03	3.202474E-17	1.752814E-18
6.020000E+03	3.243086E-17	1.767307E-18
6.030000E+03	3.284840E-17	1.781595E-18
6.040000E+03	3.327759E-17	1.795750E-18
6.050000E+03	3.371674E-17	1.809755E-18
6.060000E+03	3.416602E-17	1.823713E-18
6.070000E+03	3.462398E-17	1.837656E-18
6.080000E+03	3.509032E-17	1.851693E-18
6.090000E+03	3.556344E-17	1.865885E-18
6.100000E+03	3.604249E-17	1.880344E-18
6.110000E+03	3.652611E-17	1.895175E-18
6.120000E+03	3.701330E-17	1.910514E-18
6.130000E+03	3.750211E-17	1.926457E-18
6.140000E+03	3.799092E-17	1.943126E-18
6.150000E+03	3.847851E-17	1.960665E-18
6.160000E+03	3.896317E-17	1.979188E-18
6.170000E+03	3.944218E-17	1.998742E-18
6.180000E+03	3.991426E-17	2.019422E-18
6.190000E+03	4.037769E-17	2.041262E-18
6.200000E+03	4.083139E-17	2.064272E-18
6.210000E+03	4.127504E-17	2.088429E-18
6.220000E+03	4.170848E-17	2.113666E-18
6.230000E+03	4.213223E-17	2.139912E-18
6.240000E+03	4.254806E-17	2.167125E-18
6.250000E+03	4.295625E-17	2.195168E-18
6.260000E+03	4.335665E-17	2.223867E-18
6.270000E+03	4.375139E-17	2.253161E-18
6.280000E+03	4.414102E-17	2.282909E-18
6.290000E+03	4.452498E-17	2.312915E-18
6.300000E+03	4.490565E-17	2.343144E-18
6.310000E+03	4.528192E-17	2.373389E-18
6.320000E+03	4.565567E-17	2.403611E-18
6.330000E+03	4.602641E-17	2.433659E-18
6.340000E+03	4.639483E-17	2.463457E-18
6.350000E+03	4.676104E-17	2.492912E-18
6.360000E+03	4.712512E-17	2.521940E-18
6.370000E+03	4.748715E-17	2.550474E-18
6.380000E+03	4.784652E-17	2.578421E-18
6.390000E+03	4.820257E-17	2.605699E-18
6.400000E+03	4.855597E-17	2.632308E-18
6.410000E+03	4.890532E-17	2.658149E-18
6.420000E+03	4.925126E-17	2.683246E-18
6.430000E+03	4.959303E-17	2.707554E-18
6.440000E+03	4.993055E-17	2.731077E-18
6.450000E+03	5.026449E-17	2.753864E-18
6.460000E+03	5.059635E-17	2.776017E-18
6.470000E+03	5.092617E-17	2.797561E-18
6.480000E+03	5.125479E-17	2.818567E-18
6.490000E+03	5.158313E-17	2.839111E-18
6.500000E+03	5.191054E-17	2.859179E-18
6.510000E+03	5.223878E-17	2.878892E-18
6.520000E+03	5.256804E-17	2.898278E-18
6.530000E+03	5.289770E-17	2.917323E-18
6.540000E+03	5.322960E-17	2.936140E-18
6.550000E+03	5.356311E-17	2.954709E-18
6.560000E+03	5.389757E-17	2.973002E-18
6.570000E+03	5.423485E-17	2.991132E-18
6.580000E+03	5.457429E-17	3.009067E-18
6.590000E+03	5.491604E-17	3.026820E-18
6.600000E+03	5.526118E-17	3.044455E-18
6.610000E+03	5.560805E-17	3.061881E-18
6.620000E+03	5.595676E-17	3.079105E-18
6.630000E+03	5.630924E-17	3.096236E-18
6.640000E+03	5.666371E-17	3.113175E-18
6.650000E+03	5.702018E-17	3.129924E-18
6.660000E+03	5.737958E-17	3.146538E-18
6.670000E+03	5.774091E-17	3.162963E-18
6.680000E+03	5.810409E-17	3.179199E-18
6.690000E+03	5.846998E-17	3.195300E-18
6.700000E+03	5.883644E-17	3.211159E-18
6.710000E+03	5.920327E-17	3.226774E-18
6.720000E+03	5.957230E-17	3.242255E-18
6.730000E+03	5.994124E-17	3.257492E-18
6.740000E+03	6.030981E-17	3.272478E-18
6.750000E+03	6.067877E-17	3.287261E-18
6.760000E+03	6.104675E-17	3.301772E-18
6.770000E+03	6.141341E-17	3.315987E-18
6.780000E+03	6.177837E-17	3.329879E-18
6.790000E+03	6.214126E-17	3.343411E-18
6.800000E+03	6.250057E-17	3.356478E-18
6.810000E+03	6.285701E-17	3.369087E-18
6.820000E+03	6.321018E-17	3.381177E-18
6.830000E+03	6.355852E-17	3.392619E-18
6.840000E+03	6.390277E-17	3.403403E-18
6.850000E+03	6.424134E-17	3.413389E-18
6.860000E+03	6.457382E-17	3.422499E-18
6.870000E+03	6.489981E-17	3.430659E-18
6.880000E+03	6.521772E-17	3.437737E-18
6.890000E+03	6.552960E-17	3.443802E-18
6.900000E+03	6.583391E-17	3.448747E-18
6.910000E+03	6.612910E-17	3.452477E-18
6.920000E+03	6.641609E-17	3.455039E-18
6.930000E+03	6.669334E-17	3.456367E-18
6.940000E+03	6.696055E-17	3.456468E-18
6.950000E+03	6.721873E-17	3.455429E-18
6.960000E+03	6.746633E-17	3.453209E-18
6.970000E+03	6.770312E-17	3.449845E-18
6.980000E+03	6.792888E-17	3.445378E-18
6.990000E+03	6.814341E-17	3.439853E-18
7.000000E+03	6.834522E-17	3.433257E-18
7.010000E+03	6.853686E-17	3.425777E-18
7.020000E+03	6.871560E-17	3.417340E-18
7.030000E+03	6.888138E-17	3.408005E-18
7.040000E+03	6.903558E-17	3.397902E-18
7.050000E+03	6.917692E-17	3.387022E-18
7.060000E+03	6.930552E-17	3.375423E-18
7.070000E+03	6.942157E-17	3.363159E-18
7.080000E+03	6.952532E-17	3.350277E-18
7.090000E+03	6.961850E-17	3.336884E-18
7.100000E+03	6.969873E-17	3.322880E-18
7.110000E+03	6.976648E-17	3.308286E-18
7.120000E+03	6.982373E-17	3.293182E-18
7.130000E+03	6.987112E-17	3.277566E-18
7.140000E+03	6.990796E-17	3.261358E-18
7.150000E+03	6.993646E-17	3.244600E-18
7.160000E+03	6.995460E-17	3.227121E-18
7.170000E+03	6.996617E-17	3.209009E-18
7.180000E+03	6.997068E-17	3.190144E-18
7.190000E+03	6.996914E-17	3.170467E-18
7.200000E+03	6.996112E-17	3.149852E-18
7.210000E+03	6.995058E-17	3.128369E-18
7.220000E+03	6.993566E-17	3.105829E-18
7.230000E+03	6.991885E-17	3.082242E-18
7.240000E+03	6.989965E-17	3.057497E-18
7.250000E+03	6.988043E-17	3.031618E-18
7.260000E+03	6.986052E-17	3.004512E-18
7.270000E+03	6.984057E-17	2.976163E-18
7.280000E+03	6.982259E-17	2.946632E-18
7.290000E+03	6.980545E-17	2.915869E-18
7.300000E+03	6.979086E-17	2.883963E-18
7.310000E+03	6.977588E-17	2.850834E-18
7.320000E+03	6.976190E-17	2.816603E-18
7.330000E+03	6.975018E-17	2.781409E-18
7.340000E+03	6.973741E-17	2.745229E-18
7.350000E+03	6.972465E-17	2.708246E-18
7.360000E+03	6.970994E-17	2.670558E-18
7.370000E+03	6.969426E-17	2.632417E-18
7.380000E+03	6.967560E-17	2.594010E-18
7.390000E+03	6.965344E-17	2.555640E-18
7.400000E+03	6.962731E-17	2.517683E-18
7.410000E+03	6.959522E-17	2.480540E-18
7.420000E+03	6.955680E-17	2.444759E-18
7.430000E+03	6.951169E-17	2.410986E-18
7.440000E+03	6.945964E-17	2.379964E-18
7.450000E+03	6.940198E-17	2.352577E-18
7.460000E+03	6.933705E-17	2.329671E-18
7.470000E+03	6.926786E-17	2.312276E-18
7.480000E+03	6.919443E-17	2.301289E-18
7.490000E+03	6.911678E-17	2.297495E-18
7.500000E+03	6.903495E-17	2.301477E-18
7.510000E+03	6.894900E-17	2.313510E-18
7.520000E+03	6.886236E-17	2.333538E-18
7.530000E+03	6.877253E-17	2.360823E-18
7.540000E+03	6.868166E-17	2.394457E-18
7.550000E+03	6.859029E-17	2.433254E-18
7.560000E+03	6.850052E-17	2.475960E-18
7.570000E+03	6.840962E-17	2.521118E-18
7.580000E+03	6.831966E-17	2.567489E-18
7.590000E+03	6.823107E-17	2.613886E-18
7.600000E+03	6.814591E-17	2.659346E-18
7.610000E+03	6.806140E-17	2.702913E-18
7.620000E+03	6.798115E-17	2.744086E-18
7.630000E+03	6.790393E-17	2.782391E-18
7.640000E+03	6.782850E-17	2.817545E-18
7.650000E+03	6.775839E-17	2.849650E-18
7.660000E+03	6.769231E-17	2.878762E-18
7.670000E+03	6.763053E-17	2.905126E-18
7.680000E+03	6.757326E-17	2.929076E-18
7.690000E+03	6.752067E-17	2.951003E-18
7.700000E+03	6.747287E-17	2.971321E-18
7.710000E+03	6.743153E-17	2.990514E-18
7.720000E+03	6.739333E-17	3.008827E-18
7.730000E+03	6.736142E-17	3.026761E-18
7.740000E+03	6.733397E-17	3.044552E-18
7.750000E+03	6.731070E-17	3.062462E-18
7.760000E+03	6.729127E-17	3.080700E-18
