#wls	flux	fluxerr
1.600000E+03	1.628764E-16	1.579089E-16
1.640000E+03	1.677322E-16	1.599142E-16
1.680000E+03	1.722983E-16	1.614319E-16
1.720000E+03	1.765422E-16	1.624417E-16
1.760000E+03	1.803585E-16	1.628606E-16
1.800000E+03	1.837415E-16	1.627018E-16
1.840000E+03	1.865814E-16	1.618901E-16
1.880000E+03	1.888518E-16	1.604295E-16
1.920000E+03	1.904920E-16	1.582996E-16
1.960000E+03	1.914139E-16	1.554630E-16
2.000000E+03	1.915956E-16	1.519433E-16
2.040000E+03	1.909757E-16	1.477369E-16
2.080000E+03	1.895044E-16	1.428552E-16
2.120000E+03	1.871459E-16	1.373257E-16
2.160000E+03	1.838576E-16	1.311756E-16
2.200000E+03	1.795776E-16	1.244238E-16
2.240000E+03	1.742521E-16	1.171015E-16
2.280000E+03	1.679043E-16	1.092961E-16
2.320000E+03	1.606643E-16	1.011615E-16
2.360000E+03	1.527590E-16	9.290073E-17
2.400000E+03	1.443684E-16	8.467018E-17
2.440000E+03	1.356549E-16	7.660098E-17
2.480000E+03	1.267345E-16	6.878469E-17
2.520000E+03	1.177290E-16	6.130511E-17
2.560000E+03	1.087357E-16	5.422265E-17
2.600000E+03	9.985586E-17	4.758988E-17
2.640000E+03	9.117012E-17	4.144023E-17
2.680000E+03	8.275411E-17	3.579666E-17
2.720000E+03	7.467629E-17	3.067142E-17
2.760000E+03	6.698980E-17	2.606373E-17
2.800000E+03	5.974142E-17	2.196484E-17
2.840000E+03	5.296777E-17	1.835758E-17
2.880000E+03	4.669886E-17	1.521880E-17
2.920000E+03	4.095681E-17	1.251998E-17
2.960000E+03	3.575243E-17	1.022738E-17
3.000000E+03	3.108548E-17	8.303555E-18
3.010000E+03	3.000140E-17	7.875534E-18
3.020000E+03	2.894924E-17	7.467261E-18
3.030000E+03	2.792976E-17	7.078381E-18
3.040000E+03	2.694108E-17	6.707875E-18
3.050000E+03	2.598384E-17	6.355372E-18
3.060000E+03	2.505736E-17	6.020182E-18
3.070000E+03	2.416147E-17	5.701752E-18
3.080000E+03	2.329448E-17	5.399176E-18
3.090000E+03	2.245718E-17	5.112154E-18
3.100000E+03	2.164791E-17	4.839826E-18
3.110000E+03	2.086686E-17	4.581773E-18
3.120000E+03	2.011328E-17	4.337373E-18
3.130000E+03	1.938605E-17	4.105945E-18
3.140000E+03	1.868527E-17	3.887074E-18
3.150000E+03	1.800988E-17	3.680114E-18
3.160000E+03	1.735954E-17	3.484588E-18
3.170000E+03	1.673354E-17	3.299960E-18
3.180000E+03	1.613116E-17	3.125710E-18
3.190000E+03	1.555201E-17	2.961394E-18
3.200000E+03	1.499534E-17	2.806521E-18
3.210000E+03	1.446019E-17	2.660575E-18
3.220000E+03	1.394641E-17	2.523204E-18
3.230000E+03	1.345320E-17	2.393933E-18
3.240000E+03	1.298026E-17	2.272393E-18
3.250000E+03	1.252703E-17	2.158185E-18
3.260000E+03	1.209276E-17	2.050892E-18
3.270000E+03	1.167729E-17	1.950215E-18
3.280000E+03	1.127967E-17	1.855733E-18
3.290000E+03	1.089967E-17	1.767155E-18
3.300000E+03	1.053669E-17	1.684138E-18
3.310000E+03	1.018980E-17	1.606309E-18
3.320000E+03	9.858764E-18	1.533408E-18
3.330000E+03	9.542981E-18	1.465136E-18
3.340000E+03	9.241752E-18	1.401192E-18
3.350000E+03	8.954537E-18	1.341309E-18
3.360000E+03	8.680808E-18	1.285234E-18
3.370000E+03	8.420055E-18	1.232731E-18
3.380000E+03	8.171772E-18	1.183573E-18
3.390000E+03	7.935471E-18	1.137547E-18
3.400000E+03	7.710577E-18	1.094439E-18
3.410000E+03	7.496539E-18	1.054049E-18
3.420000E+03	7.293115E-18	1.016229E-18
3.430000E+03	7.099604E-18	9.807782E-19
3.440000E+03	6.915697E-18	9.475575E-19
3.450000E+03	6.740920E-18	9.164149E-19
3.460000E+03	6.574910E-18	8.872211E-19
3.470000E+03	6.417158E-18	8.598327E-19
3.480000E+03	6.267264E-18	8.341287E-19
3.490000E+03	6.124925E-18	8.100072E-19
3.500000E+03	5.989712E-18	7.873533E-19
3.510000E+03	5.861356E-18	7.660791E-19
3.520000E+03	5.739349E-18	7.460711E-19
3.530000E+03	5.623471E-18	7.272563E-19
3.540000E+03	5.513332E-18	7.095448E-19
3.550000E+03	5.408632E-18	6.928624E-19
3.560000E+03	5.309086E-18	6.771395E-19
3.570000E+03	5.214324E-18	6.622991E-19
3.580000E+03	5.124210E-18	6.482978E-19
3.590000E+03	5.038460E-18	6.350738E-19
3.600000E+03	4.956808E-18	6.225710E-19
3.610000E+03	4.879148E-18	6.107561E-19
3.620000E+03	4.805191E-18	5.995725E-19
3.630000E+03	4.734759E-18	5.889801E-19
3.640000E+03	4.667682E-18	5.789422E-19
3.650000E+03	4.603803E-18	5.694226E-19
3.660000E+03	4.542974E-18	5.603883E-19
3.670000E+03	4.485053E-18	5.518090E-19
3.680000E+03	4.429947E-18	5.436599E-19
3.690000E+03	4.377568E-18	5.359184E-19
3.700000E+03	4.327791E-18	5.285588E-19
3.710000E+03	4.280646E-18	5.215745E-19
3.720000E+03	4.235972E-18	5.149367E-19
3.730000E+03	4.193762E-18	5.086365E-19
3.740000E+03	4.153930E-18	5.026553E-19
3.750000E+03	4.116428E-18	4.969801E-19
3.760000E+03	4.081275E-18	4.916074E-19
3.770000E+03	4.048314E-18	4.865118E-19
3.780000E+03	4.017561E-18	4.816902E-19
3.790000E+03	3.988997E-18	4.771360E-19
3.800000E+03	3.962499E-18	4.728305E-19
3.810000E+03	3.938081E-18	4.687718E-19
3.820000E+03	3.915721E-18	4.649548E-19
3.830000E+03	3.895333E-18	4.613667E-19
3.840000E+03	3.876862E-18	4.579990E-19
3.850000E+03	3.860351E-18	4.548556E-19
3.860000E+03	3.845684E-18	4.519210E-19
3.870000E+03	3.832870E-18	4.491954E-19
3.880000E+03	3.821856E-18	4.466722E-19
3.890000E+03	3.812623E-18	4.443480E-19
3.900000E+03	3.805148E-18	4.422201E-19
3.910000E+03	3.799350E-18	4.402794E-19
3.920000E+03	3.795213E-18	4.385229E-19
3.930000E+03	3.792746E-18	4.369521E-19
3.940000E+03	3.791903E-18	4.355617E-19
3.950000E+03	3.792635E-18	4.343459E-19
3.960000E+03	3.794926E-18	4.333026E-19
3.970000E+03	3.798728E-18	4.324272E-19
3.980000E+03	3.804024E-18	4.317167E-19
3.990000E+03	3.810797E-18	4.311688E-19
4.000000E+03	3.819031E-18	4.307815E-19
4.010000E+03	3.828654E-18	4.305453E-19
4.020000E+03	3.839651E-18	4.304579E-19
4.030000E+03	3.852011E-18	4.305175E-19
4.040000E+03	3.865724E-18	4.307212E-19
4.050000E+03	3.880752E-18	4.310636E-19
4.060000E+03	3.897057E-18	4.315395E-19
4.070000E+03	3.914633E-18	4.321460E-19
4.080000E+03	3.933446E-18	4.328770E-19
4.090000E+03	3.953492E-18	4.337305E-19
4.100000E+03	3.974735E-18	4.347001E-19
4.110000E+03	3.997170E-18	4.357832E-19
4.120000E+03	4.020760E-18	4.369744E-19
4.130000E+03	4.045471E-18	4.382669E-19
4.140000E+03	4.071297E-18	4.396576E-19
4.150000E+03	4.098203E-18	4.411408E-19
4.160000E+03	4.126186E-18	4.427123E-19
4.170000E+03	4.155181E-18	4.443618E-19
4.180000E+03	4.185187E-18	4.460862E-19
4.190000E+03	4.216141E-18	4.478744E-19
4.200000E+03	4.248077E-18	4.497259E-19
4.210000E+03	4.280931E-18	4.516307E-19
4.220000E+03	4.314706E-18	4.535851E-19
4.230000E+03	4.349302E-18	4.555754E-19
4.240000E+03	4.384755E-18	4.576028E-19
4.250000E+03	4.420962E-18	4.596533E-19
4.260000E+03	4.457955E-18	4.617278E-19
4.270000E+03	4.495630E-18	4.638138E-19
4.280000E+03	4.533913E-18	4.659014E-19
4.290000E+03	4.572836E-18	4.679924E-19
4.300000E+03	4.612253E-18	4.700713E-19
4.310000E+03	4.652200E-18	4.721399E-19
4.320000E+03	4.692531E-18	4.741822E-19
4.330000E+03	4.733282E-18	4.762016E-19
4.340000E+03	4.774382E-18	4.781891E-19
4.350000E+03	4.815757E-18	4.801365E-19
4.360000E+03	4.857408E-18	4.820438E-19
4.370000E+03	4.899299E-18	4.839047E-19
4.380000E+03	4.941469E-18	4.857214E-19
4.390000E+03	4.983840E-18	4.874850E-19
4.400000E+03	5.026492E-18	4.892002E-19
4.410000E+03	5.069430E-18	4.908645E-19
4.420000E+03	5.112655E-18	4.924768E-19
4.430000E+03	5.156174E-18	4.940341E-19
4.440000E+03	5.200033E-18	4.955389E-19
4.450000E+03	5.244198E-18	4.969867E-19
4.460000E+03	5.288723E-18	4.983789E-19
4.470000E+03	5.333624E-18	4.997141E-19
4.480000E+03	5.378915E-18	5.009928E-19
4.490000E+03	5.424567E-18	5.022101E-19
4.500000E+03	5.470595E-18	5.033670E-19
4.510000E+03	5.516966E-18	5.044624E-19
4.520000E+03	5.563739E-18	5.055025E-19
4.530000E+03	5.610831E-18	5.064832E-19
4.540000E+03	5.658251E-18	5.074109E-19
4.550000E+03	5.706008E-18	5.082912E-19
4.560000E+03	5.754012E-18	5.091237E-19
4.570000E+03	5.802319E-18	5.099232E-19
4.580000E+03	5.850842E-18	5.106906E-19
4.590000E+03	5.899591E-18	5.114377E-19
4.600000E+03	5.948476E-18	5.121694E-19
4.610000E+03	5.997565E-18	5.129002E-19
4.620000E+03	6.046829E-18	5.136373E-19
4.630000E+03	6.096182E-18	5.143839E-19
4.640000E+03	6.145649E-18	5.151467E-19
4.650000E+03	6.195258E-18	5.159328E-19
4.660000E+03	6.244983E-18	5.167451E-19
4.670000E+03	6.294746E-18	5.175741E-19
4.680000E+03	6.344689E-18	5.184291E-19
4.690000E+03	6.394851E-18	5.193110E-19
4.700000E+03	6.445160E-18	5.202070E-19
4.710000E+03	6.495661E-18	5.211149E-19
4.720000E+03	6.546402E-18	5.220336E-19
4.730000E+03	6.597256E-18	5.229435E-19
4.740000E+03	6.648275E-18	5.238404E-19
4.750000E+03	6.699389E-18	5.247126E-19
4.760000E+03	6.750655E-18	5.255538E-19
4.770000E+03	6.802070E-18	5.263552E-19
4.780000E+03	6.853568E-18	5.271063E-19
4.790000E+03	6.905212E-18	5.278044E-19
4.800000E+03	6.956939E-18	5.284404E-19
4.810000E+03	7.008814E-18	5.290181E-19
4.820000E+03	7.060779E-18	5.295289E-19
4.830000E+03	7.112838E-18	5.299721E-19
4.840000E+03	7.164996E-18	5.303514E-19
4.850000E+03	7.217326E-18	5.306744E-19
4.860000E+03	7.269764E-18	5.309434E-19
4.870000E+03	7.322315E-18	5.311695E-19
4.880000E+03	7.374913E-18	5.313567E-19
4.890000E+03	7.427698E-18	5.315276E-19
4.900000E+03	7.480602E-18	5.316932E-19
4.910000E+03	7.533620E-18	5.318639E-19
4.920000E+03	7.586672E-18	5.320483E-19
4.930000E+03	7.639817E-18	5.322660E-19
4.940000E+03	7.692965E-18	5.325164E-19
4.950000E+03	7.746098E-18	5.328049E-19
4.960000E+03	7.799269E-18	5.331434E-19
4.970000E+03	7.852391E-18	5.335240E-19
4.980000E+03	7.905447E-18	5.339453E-19
4.990000E+03	7.958346E-18	5.344032E-19
5.000000E+03	8.011139E-18	5.348964E-19
5.010000E+03	8.063805E-18	5.354208E-19
5.020000E+03	8.116240E-18	5.359694E-19
5.030000E+03	8.168408E-18	5.365294E-19
5.040000E+03	8.220271E-18	5.370901E-19
5.050000E+03	8.271712E-18	5.376394E-19
5.060000E+03	8.322766E-18	5.381700E-19
5.070000E+03	8.373389E-18	5.386738E-19
5.080000E+03	8.423376E-18	5.391373E-19
5.090000E+03	8.472766E-18	5.395574E-19
5.100000E+03	8.521522E-18	5.399313E-19
5.110000E+03	8.569524E-18	5.402561E-19
5.120000E+03	8.616744E-18	5.405277E-19
5.130000E+03	8.663158E-18	5.407477E-19
5.140000E+03	8.708744E-18	5.409216E-19
5.150000E+03	8.753400E-18	5.410399E-19
5.160000E+03	8.797200E-18	5.411083E-19
5.170000E+03	8.839954E-18	5.411244E-19
5.180000E+03	8.881723E-18	5.410995E-19
5.190000E+03	8.922393E-18	5.410428E-19
5.200000E+03	8.961931E-18	5.409786E-19
5.210000E+03	9.000295E-18	5.409313E-19
5.220000E+03	9.037439E-18	5.409350E-19
5.230000E+03	9.073133E-18	5.410203E-19
5.240000E+03	9.107486E-18	5.412292E-19
5.250000E+03	9.140335E-18	5.415940E-19
5.260000E+03	9.171600E-18	5.421554E-19
5.270000E+03	9.201086E-18	5.429301E-19
5.280000E+03	9.228680E-18	5.439422E-19
5.290000E+03	9.254273E-18	5.452208E-19
5.300000E+03	9.277760E-18	5.467819E-19
5.310000E+03	9.299040E-18	5.486463E-19
5.320000E+03	9.317925E-18	5.508331E-19
5.330000E+03	9.334527E-18	5.533654E-19
5.340000E+03	9.348599E-18	5.562480E-19
5.350000E+03	9.360086E-18	5.595004E-19
5.360000E+03	9.369145E-18	5.631407E-19
5.370000E+03	9.375570E-18	5.671681E-19
5.380000E+03	9.379535E-18	5.716060E-19
5.390000E+03	9.380940E-18	5.764438E-19
5.400000E+03	9.379877E-18	5.816839E-19
5.410000E+03	9.376258E-18	5.873191E-19
5.420000E+03	9.370291E-18	5.933447E-19
5.430000E+03	9.361909E-18	5.997406E-19
5.440000E+03	9.351239E-18	6.065016E-19
5.450000E+03	9.338152E-18	6.135941E-19
5.460000E+03	9.322803E-18	6.210059E-19
5.470000E+03	9.305169E-18	6.287146E-19
5.480000E+03	9.285244E-18	6.366859E-19
5.490000E+03	9.263213E-18	6.449001E-19
5.500000E+03	9.238989E-18	6.533208E-19
5.510000E+03	9.212595E-18	6.619049E-19
5.520000E+03	9.184154E-18	6.706184E-19
5.530000E+03	9.153602E-18	6.794181E-19
5.540000E+03	9.121165E-18	6.882774E-19
5.550000E+03	9.086695E-18	6.971464E-19
5.560000E+03	9.050509E-18	7.060139E-19
5.570000E+03	9.012648E-18	7.148419E-19
5.580000E+03	8.973152E-18	7.235958E-19
5.590000E+03	8.932152E-18	7.322527E-19
5.600000E+03	8.889775E-18	7.407854E-19
5.610000E+03	8.846056E-18	7.491634E-19
5.620000E+03	8.801294E-18	7.573840E-19
5.630000E+03	8.755416E-18	7.654126E-19
5.640000E+03	8.708698E-18	7.732501E-19
5.650000E+03	8.661059E-18	7.808712E-19
5.660000E+03	8.612765E-18	7.882832E-19
5.670000E+03	8.563904E-18	7.954822E-19
5.680000E+03	8.514465E-18	8.024607E-19
5.690000E+03	8.464613E-18	8.092288E-19
5.700000E+03	8.414415E-18	8.157926E-19
5.710000E+03	8.364025E-18	8.221697E-19
5.720000E+03	8.313501E-18	8.283696E-19
5.730000E+03	8.262814E-18	8.343951E-19
5.740000E+03	8.212189E-18	8.402765E-19
5.750000E+03	8.161684E-18	8.460233E-19
5.760000E+03	8.111266E-18	8.516366E-19
5.770000E+03	8.061071E-18	8.571350E-19
5.780000E+03	8.011239E-18	8.625323E-19
5.790000E+03	7.961818E-18	8.678328E-19
5.800000E+03	7.912771E-18	8.730312E-19
5.810000E+03	7.864244E-18	8.781358E-19
5.820000E+03	7.816378E-18	8.831553E-19
5.830000E+03	7.769228E-18	8.880891E-19
5.840000E+03	7.722769E-18	8.929242E-19
5.850000E+03	7.677145E-18	8.976671E-19
5.860000E+03	7.632413E-18	9.023152E-19
5.870000E+03	7.588728E-18	9.068737E-19
5.880000E+03	7.546163E-18	9.113390E-19
5.890000E+03	7.504703E-18	9.156979E-19
5.900000E+03	7.464507E-18	9.199562E-19
5.910000E+03	7.425562E-18	9.241003E-19
5.920000E+03	7.388182E-18	9.281591E-19
5.930000E+03	7.352173E-18	9.320999E-19
5.940000E+03	7.317668E-18	9.359323E-19
5.950000E+03	7.284793E-18	9.396677E-19
5.960000E+03	7.253502E-18	9.432958E-19
5.970000E+03	7.223825E-18	9.468182E-19
5.980000E+03	7.195872E-18	9.502481E-19
5.990000E+03	7.169581E-18	9.535768E-19
6.000000E+03	7.145050E-18	9.568181E-19
6.010000E+03	7.122128E-18	9.599536E-19
6.020000E+03	7.100989E-18	9.630085E-19
6.030000E+03	7.081472E-18	9.659640E-19
6.040000E+03	7.063748E-18	9.688468E-19
6.050000E+03	7.047565E-18	9.716261E-19
6.060000E+03	7.033085E-18	9.743283E-19
6.070000E+03	7.020222E-18	9.769462E-19
6.080000E+03	7.008965E-18	9.794828E-19
6.090000E+03	6.999136E-18	9.819181E-19
6.100000E+03	6.990890E-18	9.842790E-19
6.110000E+03	6.983959E-18	9.865327E-19
6.120000E+03	6.978492E-18	9.887053E-19
6.130000E+03	6.974217E-18	9.907640E-19
6.140000E+03	6.971109E-18	9.927100E-19
6.150000E+03	6.969057E-18	9.945325E-19
6.160000E+03	6.968034E-18	9.962332E-19
6.170000E+03	6.967747E-18	9.977752E-19
6.180000E+03	6.968163E-18	9.991585E-19
6.190000E+03	6.969155E-18	1.000371E-18
6.200000E+03	6.970682E-18	1.001411E-18
6.210000E+03	6.972701E-18	1.002278E-18
6.220000E+03	6.975348E-18	1.002997E-18
6.230000E+03	6.978849E-18	1.003606E-18
6.240000E+03	6.983257E-18	1.004117E-18
6.250000E+03	6.988719E-18	1.004557E-18
6.260000E+03	6.995383E-18	1.004953E-18
6.270000E+03	7.003315E-18	1.005318E-18
6.280000E+03	7.012673E-18	1.005680E-18
6.290000E+03	7.023529E-18	1.006055E-18
6.300000E+03	7.035959E-18	1.006457E-18
6.310000E+03	7.050140E-18	1.006915E-18
6.320000E+03	7.066061E-18	1.007432E-18
6.330000E+03	7.083908E-18	1.008036E-18
6.340000E+03	7.103581E-18	1.008718E-18
6.350000E+03	7.125175E-18	1.009493E-18
6.360000E+03	7.148690E-18	1.010363E-18
6.370000E+03	7.174231E-18	1.011346E-18
6.380000E+03	7.201700E-18	1.012429E-18
6.390000E+03	7.231103E-18	1.013615E-18
6.400000E+03	7.262343E-18	1.014892E-18
6.410000E+03	7.295211E-18	1.016232E-18
6.420000E+03	7.329601E-18	1.017622E-18
6.430000E+03	7.365509E-18	1.019062E-18
6.440000E+03	7.402933E-18	1.020554E-18
6.450000E+03	7.441871E-18	1.022099E-18
6.460000E+03	7.482435E-18	1.023713E-18
6.470000E+03	7.524742E-18	1.025413E-18
6.480000E+03	7.568800E-18	1.027199E-18
6.490000E+03	7.614503E-18	1.029059E-18
6.500000E+03	7.662093E-18	1.031025E-18
6.510000E+03	7.711586E-18	1.033098E-18
6.520000E+03	7.762878E-18	1.035265E-18
6.530000E+03	7.816104E-18	1.037542E-18
6.540000E+03	7.871284E-18	1.039932E-18
6.550000E+03	7.928312E-18	1.042419E-18
6.560000E+03	7.987203E-18	1.045006E-18
6.570000E+03	8.048232E-18	1.047725E-18
6.580000E+03	8.111037E-18	1.050530E-18
6.590000E+03	8.175894E-18	1.053453E-18
6.600000E+03	8.242828E-18	1.056498E-18
6.610000E+03	8.311594E-18	1.059630E-18
6.620000E+03	8.382482E-18	1.062886E-18
6.630000E+03	8.455239E-18	1.066229E-18
6.640000E+03	8.530164E-18	1.069699E-18
6.650000E+03	8.606998E-18	1.073258E-18
6.660000E+03	8.685901E-18	1.076924E-18
6.670000E+03	8.766897E-18	1.080700E-18
6.680000E+03	8.849858E-18	1.084566E-18
6.690000E+03	8.934802E-18	1.088521E-18
6.700000E+03	9.021899E-18	1.092586E-18
6.710000E+03	9.111020E-18	1.096740E-18
6.720000E+03	9.202184E-18	1.100984E-18
6.730000E+03	9.295411E-18	1.105318E-18
6.740000E+03	9.390725E-18	1.109741E-18
6.750000E+03	9.488148E-18	1.114253E-18
6.760000E+03	9.587704E-18	1.118855E-18
6.770000E+03	9.689247E-18	1.123525E-18
6.780000E+03	9.792968E-18	1.128282E-18
6.790000E+03	9.898891E-18	1.133128E-18
6.800000E+03	1.000686E-17	1.138039E-18
6.810000E+03	1.011709E-17	1.143034E-18
6.820000E+03	1.022940E-17	1.148094E-18
6.830000E+03	1.034382E-17	1.153215E-18
6.840000E+03	1.046037E-17	1.158395E-18
6.850000E+03	1.057906E-17	1.163635E-18
6.860000E+03	1.070012E-17	1.168951E-18
6.870000E+03	1.082316E-17	1.174300E-18
6.880000E+03	1.094841E-17	1.179702E-18
6.890000E+03	1.107588E-17	1.185154E-18
6.900000E+03	1.120539E-17	1.190631E-18
6.910000E+03	1.133716E-17	1.196156E-18
6.920000E+03	1.147122E-17	1.201725E-18
6.930000E+03	1.160736E-17	1.207314E-18
6.940000E+03	1.174560E-17	1.212922E-18
6.950000E+03	1.188617E-17	1.218568E-18
6.960000E+03	1.202887E-17	1.224228E-18
6.970000E+03	1.217369E-17	1.229901E-18
6.980000E+03	1.232065E-17	1.235582E-18
6.990000E+03	1.246975E-17	1.241269E-18
7.000000E+03	1.262075E-17	1.246938E-18
7.010000E+03	1.277414E-17	1.252632E-18
7.020000E+03	1.292944E-17	1.258300E-18
7.030000E+03	1.308688E-17	1.263966E-18
7.040000E+03	1.324622E-17	1.269602E-18
7.050000E+03	1.340744E-17	1.275203E-18
7.060000E+03	1.357080E-17	1.280796E-18
7.070000E+03	1.373604E-17	1.286348E-18
7.080000E+03	1.390285E-17	1.291831E-18
7.090000E+03	1.407179E-17	1.297296E-18
7.100000E+03	1.424255E-17	1.302710E-18
7.110000E+03	1.441484E-17	1.308043E-18
7.120000E+03	1.458892E-17	1.313320E-18
7.130000E+03	1.476447E-17	1.318507E-18
7.140000E+03	1.494176E-17	1.323625E-18
7.150000E+03	1.512047E-17	1.328647E-18
7.160000E+03	1.530087E-17	1.333592E-18
7.170000E+03	1.548230E-17	1.338398E-18
7.180000E+03	1.566504E-17	1.343094E-18
7.190000E+03	1.584937E-17	1.347697E-18
7.200000E+03	1.603461E-17	1.352149E-18
7.210000E+03	1.622069E-17	1.356449E-18
7.220000E+03	1.640791E-17	1.360618E-18
7.230000E+03	1.659623E-17	1.364655E-18
7.240000E+03	1.678525E-17	1.368533E-18
7.250000E+03	1.697528E-17	1.372277E-18
7.260000E+03	1.716589E-17	1.375858E-18
7.270000E+03	1.735702E-17	1.379283E-18
7.280000E+03	1.754898E-17	1.382582E-18
7.290000E+03	1.774131E-17	1.385729E-18
7.300000E+03	1.793431E-17	1.388766E-18
7.310000E+03	1.812751E-17	1.391668E-18
7.320000E+03	1.832080E-17	1.394444E-18
7.330000E+03	1.851489E-17	1.397175E-18
7.340000E+03	1.870889E-17	1.399808E-18
7.350000E+03	1.890350E-17	1.402424E-18
7.360000E+03	1.909825E-17	1.405019E-18
7.370000E+03	1.929348E-17	1.407643E-18
7.380000E+03	1.948957E-17	1.410356E-18
7.390000E+03	1.968604E-17	1.413166E-18
7.400000E+03	1.988375E-17	1.416165E-18
7.410000E+03	2.008270E-17	1.419395E-18
7.420000E+03	2.028337E-17	1.422938E-18
7.430000E+03	2.048578E-17	1.426834E-18
7.440000E+03	2.068997E-17	1.431133E-18
7.450000E+03	2.089646E-17	1.435928E-18
7.460000E+03	2.110434E-17	1.441196E-18
7.470000E+03	2.131364E-17	1.446990E-18
7.480000E+03	2.152390E-17	1.453335E-18
7.490000E+03	2.173565E-17	1.460304E-18
7.500000E+03	2.194842E-17	1.467910E-18
7.510000E+03	2.216173E-17	1.476163E-18
7.520000E+03	2.237558E-17	1.485048E-18
7.530000E+03	2.259000E-17	1.494505E-18
7.540000E+03	2.280446E-17	1.504431E-18
7.550000E+03	2.301954E-17	1.514767E-18
7.560000E+03	2.323419E-17	1.525348E-18
7.570000E+03	2.344956E-17	1.536161E-18
7.580000E+03	2.366516E-17	1.547056E-18
7.590000E+03	2.388107E-17	1.557932E-18
7.600000E+03	2.409675E-17	1.568659E-18
7.610000E+03	2.431279E-17	1.579179E-18
7.620000E+03	2.452920E-17	1.589415E-18
7.630000E+03	2.474597E-17	1.599311E-18
7.640000E+03	2.496240E-17	1.608775E-18
7.650000E+03	2.517900E-17	1.617820E-18
7.660000E+03	2.539504E-17	1.626402E-18
7.670000E+03	2.561159E-17	1.634592E-18
7.680000E+03	2.582655E-17	1.642280E-18
7.690000E+03	2.604163E-17	1.649618E-18
7.700000E+03	2.625599E-17	1.656572E-18
7.710000E+03	2.646872E-17	1.663121E-18
7.720000E+03	2.668023E-17	1.669342E-18
7.730000E+03	2.689027E-17	1.675242E-18
7.740000E+03	2.709855E-17	1.680840E-18
7.750000E+03	2.730481E-17	1.686167E-18
7.760000E+03	2.750944E-17	1.691271E-18
