#wls	flux	fluxerr
1.600000E+03	1.677441E-16	1.648484E-16
1.640000E+03	1.731199E-16	1.673207E-16
1.680000E+03	1.782432E-16	1.693105E-16
1.720000E+03	1.830636E-16	1.707774E-16
1.760000E+03	1.875070E-16	1.716633E-16
1.800000E+03	1.915133E-16	1.719287E-16
1.840000E+03	1.950008E-16	1.715205E-16
1.880000E+03	1.979204E-16	1.704213E-16
1.920000E+03	2.002036E-16	1.686020E-16
1.960000E+03	2.017656E-16	1.660271E-16
2.000000E+03	2.025575E-16	1.626983E-16
2.040000E+03	2.025025E-16	1.586013E-16
2.080000E+03	2.015336E-16	1.537375E-16
2.120000E+03	1.996242E-16	1.481460E-16
2.160000E+03	1.966931E-16	1.418307E-16
2.200000E+03	1.926872E-16	1.348248E-16
2.240000E+03	1.875510E-16	1.271660E-16
2.280000E+03	1.811988E-16	1.188799E-16
2.320000E+03	1.738344E-16	1.101847E-16
2.360000E+03	1.656677E-16	1.012863E-16
2.400000E+03	1.568656E-16	9.234713E-17
2.440000E+03	1.475705E-16	8.350135E-17
2.480000E+03	1.379201E-16	7.486758E-17
2.520000E+03	1.280414E-16	6.654589E-17
2.560000E+03	1.180487E-16	5.861741E-17
2.600000E+03	1.080616E-16	5.115410E-17
2.640000E+03	9.819204E-17	4.421206E-17
2.680000E+03	8.854517E-17	3.783235E-17
2.720000E+03	7.921851E-17	3.204157E-17
2.760000E+03	7.030557E-17	2.685398E-17
2.800000E+03	6.187876E-17	2.226603E-17
2.840000E+03	5.400289E-17	1.826351E-17
2.880000E+03	4.673480E-17	1.482267E-17
2.920000E+03	4.011653E-17	1.190963E-17
2.960000E+03	3.417592E-17	9.482683E-18
3.000000E+03	2.891914E-17	7.492580E-18
3.010000E+03	2.771012E-17	7.056961E-18
3.020000E+03	2.654239E-17	6.644376E-18
3.030000E+03	2.541586E-17	6.254054E-18
3.040000E+03	2.432972E-17	5.885064E-18
3.050000E+03	2.328317E-17	5.536497E-18
3.060000E+03	2.227587E-17	5.207573E-18
3.070000E+03	2.130645E-17	4.897293E-18
3.080000E+03	2.037495E-17	4.605000E-18
3.090000E+03	1.947994E-17	4.329734E-18
3.100000E+03	1.862091E-17	4.070754E-18
3.110000E+03	1.779686E-17	3.827241E-18
3.120000E+03	1.700715E-17	3.598477E-18
3.130000E+03	1.625074E-17	3.383682E-18
3.140000E+03	1.552662E-17	3.182105E-18
3.150000E+03	1.483404E-17	2.993083E-18
3.160000E+03	1.417171E-17	2.815857E-18
3.170000E+03	1.353912E-17	2.649862E-18
3.180000E+03	1.293500E-17	2.494395E-18
3.190000E+03	1.235855E-17	2.348883E-18
3.200000E+03	1.180876E-17	2.212727E-18
3.210000E+03	1.128462E-17	2.085362E-18
3.220000E+03	1.078535E-17	1.966280E-18
3.230000E+03	1.030996E-17	1.854963E-18
3.240000E+03	9.857309E-18	1.750891E-18
3.250000E+03	9.426955E-18	1.653688E-18
3.260000E+03	9.017491E-18	1.562827E-18
3.270000E+03	8.628463E-18	1.477972E-18
3.280000E+03	8.258702E-18	1.398680E-18
3.290000E+03	7.907490E-18	1.324605E-18
3.300000E+03	7.574109E-18	1.255419E-18
3.310000E+03	7.257519E-18	1.190755E-18
3.320000E+03	6.957166E-18	1.130344E-18
3.330000E+03	6.672281E-18	1.073897E-18
3.340000E+03	6.402036E-18	1.021128E-18
3.350000E+03	6.145738E-18	9.717874E-19
3.360000E+03	5.902719E-18	9.256405E-19
3.370000E+03	5.672416E-18	8.824818E-19
3.380000E+03	5.454056E-18	8.420834E-19
3.390000E+03	5.247200E-18	8.042793E-19
3.400000E+03	5.051144E-18	7.688714E-19
3.410000E+03	4.865358E-18	7.356978E-19
3.420000E+03	4.689396E-18	7.046165E-19
3.430000E+03	4.522600E-18	6.754609E-19
3.440000E+03	4.364630E-18	6.481194E-19
3.450000E+03	4.214996E-18	6.224635E-19
3.460000E+03	4.073142E-18	5.983610E-19
3.470000E+03	3.938788E-18	5.757253E-19
3.480000E+03	3.811432E-18	5.544424E-19
3.490000E+03	3.690742E-18	5.344269E-19
3.500000E+03	3.576361E-18	5.155937E-19
3.510000E+03	3.467836E-18	4.978479E-19
3.520000E+03	3.364903E-18	4.811246E-19
3.530000E+03	3.267204E-18	4.653482E-19
3.540000E+03	3.174408E-18	4.504501E-19
3.550000E+03	3.086241E-18	4.363720E-19
3.560000E+03	3.002389E-18	4.230518E-19
3.570000E+03	2.922589E-18	4.104370E-19
3.580000E+03	2.846572E-18	3.984758E-19
3.590000E+03	2.774142E-18	3.871281E-19
3.600000E+03	2.705089E-18	3.763535E-19
3.610000E+03	2.639192E-18	3.661110E-19
3.620000E+03	2.576294E-18	3.563698E-19
3.630000E+03	2.516247E-18	3.471012E-19
3.640000E+03	2.458862E-18	3.382719E-19
3.650000E+03	2.404076E-18	3.298664E-19
3.660000E+03	2.351715E-18	3.218550E-19
3.670000E+03	2.301698E-18	3.142213E-19
3.680000E+03	2.253927E-18	3.069468E-19
3.690000E+03	2.208304E-18	3.000138E-19
3.700000E+03	2.164755E-18	2.934082E-19
3.710000E+03	2.123224E-18	2.871186E-19
3.720000E+03	2.083583E-18	2.811244E-19
3.730000E+03	2.045816E-18	2.754201E-19
3.740000E+03	2.009818E-18	2.699888E-19
3.750000E+03	1.975538E-18	2.648208E-19
3.760000E+03	1.942925E-18	2.599069E-19
3.770000E+03	1.911882E-18	2.552319E-19
3.780000E+03	1.882394E-18	2.507913E-19
3.790000E+03	1.854381E-18	2.465729E-19
3.800000E+03	1.827800E-18	2.425686E-19
3.810000E+03	1.802591E-18	2.387690E-19
3.820000E+03	1.778713E-18	2.351667E-19
3.830000E+03	1.756110E-18	2.317529E-19
3.840000E+03	1.734742E-18	2.285208E-19
3.850000E+03	1.714558E-18	2.254623E-19
3.860000E+03	1.695536E-18	2.225729E-19
3.870000E+03	1.677626E-18	2.198449E-19
3.880000E+03	1.660782E-18	2.172710E-19
3.890000E+03	1.644971E-18	2.148458E-19
3.900000E+03	1.630149E-18	2.125625E-19
3.910000E+03	1.616301E-18	2.104177E-19
3.920000E+03	1.603384E-18	2.084052E-19
3.930000E+03	1.591371E-18	2.065204E-19
3.940000E+03	1.580224E-18	2.047574E-19
3.950000E+03	1.569906E-18	2.031104E-19
3.960000E+03	1.560418E-18	2.015787E-19
3.970000E+03	1.551700E-18	2.001538E-19
3.980000E+03	1.543743E-18	1.988336E-19
3.990000E+03	1.536514E-18	1.976131E-19
4.000000E+03	1.529994E-18	1.964891E-19
4.010000E+03	1.524163E-18	1.954583E-19
4.020000E+03	1.518980E-18	1.945147E-19
4.030000E+03	1.514440E-18	1.936569E-19
4.040000E+03	1.510515E-18	1.928807E-19
4.050000E+03	1.507190E-18	1.921834E-19
4.060000E+03	1.504438E-18	1.915612E-19
4.070000E+03	1.502234E-18	1.910101E-19
4.080000E+03	1.500576E-18	1.905293E-19
4.090000E+03	1.499429E-18	1.901139E-19
4.100000E+03	1.498782E-18	1.897617E-19
4.110000E+03	1.498624E-18	1.894709E-19
4.120000E+03	1.498920E-18	1.892366E-19
4.130000E+03	1.499673E-18	1.890587E-19
4.140000E+03	1.500852E-18	1.889326E-19
4.150000E+03	1.502447E-18	1.888567E-19
4.160000E+03	1.504450E-18	1.888296E-19
4.170000E+03	1.506831E-18	1.888469E-19
4.180000E+03	1.509595E-18	1.889087E-19
4.190000E+03	1.512700E-18	1.890095E-19
4.200000E+03	1.516164E-18	1.891510E-19
4.210000E+03	1.519946E-18	1.893278E-19
4.220000E+03	1.524042E-18	1.895386E-19
4.230000E+03	1.528433E-18	1.897812E-19
4.240000E+03	1.533117E-18	1.900546E-19
4.250000E+03	1.538054E-18	1.903536E-19
4.260000E+03	1.543252E-18	1.906787E-19
4.270000E+03	1.548683E-18	1.910264E-19
4.280000E+03	1.554321E-18	1.913929E-19
4.290000E+03	1.560161E-18	1.917776E-19
4.300000E+03	1.566190E-18	1.921784E-19
4.310000E+03	1.572368E-18	1.925901E-19
4.320000E+03	1.578679E-18	1.930108E-19
4.330000E+03	1.585108E-18	1.934383E-19
4.340000E+03	1.591639E-18	1.938707E-19
4.350000E+03	1.598258E-18	1.943058E-19
4.360000E+03	1.604961E-18	1.947433E-19
4.370000E+03	1.611733E-18	1.951812E-19
4.380000E+03	1.618559E-18	1.956174E-19
4.390000E+03	1.625461E-18	1.960549E-19
4.400000E+03	1.632425E-18	1.964916E-19
4.410000E+03	1.639449E-18	1.969275E-19
4.420000E+03	1.646546E-18	1.973639E-19
4.430000E+03	1.653715E-18	1.978008E-19
4.440000E+03	1.660942E-18	1.982366E-19
4.450000E+03	1.668241E-18	1.986730E-19
4.460000E+03	1.675601E-18	1.991085E-19
4.470000E+03	1.683022E-18	1.995436E-19
4.480000E+03	1.690508E-18	1.999786E-19
4.490000E+03	1.698032E-18	2.004107E-19
4.500000E+03	1.705614E-18	2.008422E-19
4.510000E+03	1.713243E-18	2.012722E-19
4.520000E+03	1.720910E-18	2.016999E-19
4.530000E+03	1.728621E-18	2.021262E-19
4.540000E+03	1.736354E-18	2.025488E-19
4.550000E+03	1.744117E-18	2.029689E-19
4.560000E+03	1.751916E-18	2.033877E-19
4.570000E+03	1.759748E-18	2.038051E-19
4.580000E+03	1.767591E-18	2.042188E-19
4.590000E+03	1.775457E-18	2.046306E-19
4.600000E+03	1.783341E-18	2.050403E-19
4.610000E+03	1.791241E-18	2.054478E-19
4.620000E+03	1.799168E-18	2.058549E-19
4.630000E+03	1.807107E-18	2.062597E-19
4.640000E+03	1.815071E-18	2.066641E-19
4.650000E+03	1.823060E-18	2.070681E-19
4.660000E+03	1.831074E-18	2.074716E-19
4.670000E+03	1.839112E-18	2.078748E-19
4.680000E+03	1.847176E-18	2.082775E-19
4.690000E+03	1.855268E-18	2.086797E-19
4.700000E+03	1.863421E-18	2.090850E-19
4.710000E+03	1.871639E-18	2.094934E-19
4.720000E+03	1.879926E-18	2.099048E-19
4.730000E+03	1.888318E-18	2.103229E-19
4.740000E+03	1.896804E-18	2.107457E-19
4.750000E+03	1.905388E-18	2.111732E-19
4.760000E+03	1.914094E-18	2.116074E-19
4.770000E+03	1.922926E-18	2.120482E-19
4.780000E+03	1.931875E-18	2.124940E-19
4.790000E+03	1.940965E-18	2.129469E-19
4.800000E+03	1.950201E-18	2.134071E-19
4.810000E+03	1.959575E-18	2.138731E-19
4.820000E+03	1.969112E-18	2.143474E-19
4.830000E+03	1.978819E-18	2.148308E-19
4.840000E+03	1.988706E-18	2.153239E-19
4.850000E+03	1.998781E-18	2.158278E-19
4.860000E+03	2.009035E-18	2.163417E-19
4.870000E+03	2.019514E-18	2.168706E-19
4.880000E+03	2.030190E-18	2.174120E-19
4.890000E+03	2.041073E-18	2.179673E-19
4.900000E+03	2.052192E-18	2.185401E-19
4.910000E+03	2.063557E-18	2.191320E-19
4.920000E+03	2.075177E-18	2.197447E-19
4.930000E+03	2.087025E-18	2.203757E-19
4.940000E+03	2.099149E-18	2.210309E-19
4.950000E+03	2.111540E-18	2.217097E-19
4.960000E+03	2.124207E-18	2.224137E-19
4.970000E+03	2.137161E-18	2.231445E-19
4.980000E+03	2.150411E-18	2.239033E-19
4.990000E+03	2.163946E-18	2.246894E-19
5.000000E+03	2.177775E-18	2.255038E-19
5.010000E+03	2.191927E-18	2.263496E-19
5.020000E+03	2.206389E-18	2.272255E-19
5.030000E+03	2.221149E-18	2.281302E-19
5.040000E+03	2.236257E-18	2.290686E-19
5.050000E+03	2.251655E-18	2.300346E-19
5.060000E+03	2.267392E-18	2.310332E-19
5.070000E+03	2.283476E-18	2.320648E-19
5.080000E+03	2.299846E-18	2.331232E-19
5.090000E+03	2.316574E-18	2.342158E-19
5.100000E+03	2.333619E-18	2.353386E-19
5.110000E+03	2.350986E-18	2.364925E-19
5.120000E+03	2.368701E-18	2.376806E-19
5.130000E+03	2.386723E-18	2.388995E-19
5.140000E+03	2.405054E-18	2.401506E-19
5.150000E+03	2.423718E-18	2.414379E-19
5.160000E+03	2.442695E-18	2.427610E-19
5.170000E+03	2.461986E-18	2.441221E-19
5.180000E+03	2.481566E-18	2.455214E-19
5.190000E+03	2.501460E-18	2.469642E-19
5.200000E+03	2.521617E-18	2.484487E-19
5.210000E+03	2.542086E-18	2.499833E-19
5.220000E+03	2.562838E-18	2.515692E-19
5.230000E+03	2.583845E-18	2.532078E-19
5.240000E+03	2.605103E-18	2.549034E-19
5.250000E+03	2.626632E-18	2.566624E-19
5.260000E+03	2.648373E-18	2.584845E-19
5.270000E+03	2.670344E-18	2.603765E-19
5.280000E+03	2.692564E-18	2.623453E-19
5.290000E+03	2.714942E-18	2.643879E-19
5.300000E+03	2.737549E-18	2.665161E-19
5.310000E+03	2.760291E-18	2.687266E-19
5.320000E+03	2.783236E-18	2.710311E-19
5.330000E+03	2.806288E-18	2.734256E-19
5.340000E+03	2.829485E-18	2.759189E-19
5.350000E+03	2.852813E-18	2.785144E-19
5.360000E+03	2.876225E-18	2.812121E-19
5.370000E+03	2.899761E-18	2.840201E-19
5.380000E+03	2.923314E-18	2.869322E-19
5.390000E+03	2.946952E-18	2.899584E-19
5.400000E+03	2.970625E-18	2.930973E-19
5.410000E+03	2.994311E-18	2.963494E-19
5.420000E+03	3.017987E-18	2.997152E-19
5.430000E+03	3.041631E-18	3.031944E-19
5.440000E+03	3.065187E-18	3.067832E-19
5.450000E+03	3.088629E-18	3.104803E-19
5.460000E+03	3.111930E-18	3.142839E-19
5.470000E+03	3.135062E-18	3.181917E-19
5.480000E+03	3.157964E-18	3.221980E-19
5.490000E+03	3.180573E-18	3.262960E-19
5.500000E+03	3.202889E-18	3.304854E-19
5.510000E+03	3.224847E-18	3.347588E-19
5.520000E+03	3.246379E-18	3.391083E-19
5.530000E+03	3.267417E-18	3.435254E-19
5.540000E+03	3.287955E-18	3.480082E-19
5.550000E+03	3.307891E-18	3.525441E-19
5.560000E+03	3.327217E-18	3.571307E-19
5.570000E+03	3.345827E-18	3.617546E-19
5.580000E+03	3.363682E-18	3.664093E-19
5.590000E+03	3.380773E-18	3.710919E-19
5.600000E+03	3.396994E-18	3.757882E-19
5.610000E+03	3.412339E-18	3.804951E-19
5.620000E+03	3.426768E-18	3.852059E-19
5.630000E+03	3.440209E-18	3.899097E-19
5.640000E+03	3.452625E-18	3.945997E-19
5.650000E+03	3.464015E-18	3.992732E-19
5.660000E+03	3.474346E-18	4.039236E-19
5.670000E+03	3.483551E-18	4.085402E-19
5.680000E+03	3.491637E-18	4.131207E-19
5.690000E+03	3.498613E-18	4.176630E-19
5.700000E+03	3.504382E-18	4.221525E-19
5.710000E+03	3.508960E-18	4.265871E-19
5.720000E+03	3.512365E-18	4.309653E-19
5.730000E+03	3.514583E-18	4.352810E-19
5.740000E+03	3.515602E-18	4.395283E-19
5.750000E+03	3.515414E-18	4.437012E-19
5.760000E+03	3.514014E-18	4.477935E-19
5.770000E+03	3.511438E-18	4.518038E-19
5.780000E+03	3.507650E-18	4.557210E-19
5.790000E+03	3.502732E-18	4.595486E-19
5.800000E+03	3.496655E-18	4.632751E-19
5.810000E+03	3.489432E-18	4.668942E-19
5.820000E+03	3.481155E-18	4.704093E-19
5.830000E+03	3.471767E-18	4.738037E-19
5.840000E+03	3.461330E-18	4.770760E-19
5.850000E+03	3.449908E-18	4.802251E-19
5.860000E+03	3.437494E-18	4.832392E-19
5.870000E+03	3.424156E-18	4.861178E-19
5.880000E+03	3.409895E-18	4.888496E-19
5.890000E+03	3.394822E-18	4.914400E-19
5.900000E+03	3.378941E-18	4.938786E-19
5.910000E+03	3.362295E-18	4.961609E-19
5.920000E+03	3.344965E-18	4.982885E-19
5.930000E+03	3.326960E-18	5.002523E-19
5.940000E+03	3.308365E-18	5.020552E-19
5.950000E+03	3.289188E-18	5.036894E-19
5.960000E+03	3.269517E-18	5.051590E-19
5.970000E+03	3.249400E-18	5.064633E-19
5.980000E+03	3.228884E-18	5.076021E-19
5.990000E+03	3.207981E-18	5.085700E-19
6.000000E+03	3.186775E-18	5.093740E-19
6.010000E+03	3.165312E-18	5.100158E-19
6.020000E+03	3.143601E-18	5.104917E-19
6.030000E+03	3.121723E-18	5.108104E-19
6.040000E+03	3.099686E-18	5.109694E-19
6.050000E+03	3.077494E-18	5.109662E-19
6.060000E+03	3.055261E-18	5.108171E-19
6.070000E+03	3.032954E-18	5.105145E-19
6.080000E+03	3.010645E-18	5.100693E-19
6.090000E+03	2.988299E-18	5.094743E-19
6.100000E+03	2.965986E-18	5.087411E-19
6.110000E+03	2.943703E-18	5.078689E-19
6.120000E+03	2.921480E-18	5.068635E-19
6.130000E+03	2.899348E-18	5.057307E-19
6.140000E+03	2.877298E-18	5.044701E-19
6.150000E+03	2.855357E-18	5.030878E-19
6.160000E+03	2.833548E-18	5.015896E-19
6.170000E+03	2.811895E-18	4.999817E-19
6.180000E+03	2.790419E-18	4.982700E-19
6.190000E+03	2.769103E-18	4.964540E-19
6.200000E+03	2.748001E-18	4.945461E-19
6.210000E+03	2.727129E-18	4.925519E-19
6.220000E+03	2.706502E-18	4.904771E-19
6.230000E+03	2.686167E-18	4.883336E-19
6.240000E+03	2.666173E-18	4.861332E-19
6.250000E+03	2.646563E-18	4.838877E-19
6.260000E+03	2.627382E-18	4.816085E-19
6.270000E+03	2.608673E-18	4.793071E-19
6.280000E+03	2.590510E-18	4.770013E-19
6.290000E+03	2.572866E-18	4.746891E-19
6.300000E+03	2.555883E-18	4.724010E-19
6.310000E+03	2.539531E-18	4.701348E-19
6.320000E+03	2.523882E-18	4.679076E-19
6.330000E+03	2.508974E-18	4.657301E-19
6.340000E+03	2.494843E-18	4.636124E-19
6.350000E+03	2.481492E-18	4.615584E-19
6.360000E+03	2.468957E-18	4.595780E-19
6.370000E+03	2.457273E-18	4.576814E-19
6.380000E+03	2.446444E-18	4.558717E-19
6.390000E+03	2.436469E-18	4.541522E-19
6.400000E+03	2.427385E-18	4.525323E-19
6.410000E+03	2.419124E-18	4.510020E-19
6.420000E+03	2.411686E-18	4.495637E-19
6.430000E+03	2.405038E-18	4.482136E-19
6.440000E+03	2.399107E-18	4.469407E-19
6.450000E+03	2.393932E-18	4.457540E-19
6.460000E+03	2.389441E-18	4.446422E-19
6.470000E+03	2.385669E-18	4.436140E-19
6.480000E+03	2.382619E-18	4.426713E-19
6.490000E+03	2.380254E-18	4.418092E-19
6.500000E+03	2.378574E-18	4.410295E-19
6.510000E+03	2.377580E-18	4.403336E-19
6.520000E+03	2.377274E-18	4.397233E-19
6.530000E+03	2.377654E-18	4.391998E-19
6.540000E+03	2.378760E-18	4.387715E-19
6.550000E+03	2.380556E-18	4.384330E-19
6.560000E+03	2.383004E-18	4.381784E-19
6.570000E+03	2.386183E-18	4.380229E-19
6.580000E+03	2.390016E-18	4.379538E-19
6.590000E+03	2.394543E-18	4.379790E-19
6.600000E+03	2.399767E-18	4.380998E-19
6.610000E+03	2.405690E-18	4.383171E-19
6.620000E+03	2.412312E-18	4.386319E-19
6.630000E+03	2.419598E-18	4.390379E-19
6.640000E+03	2.427588E-18	4.395433E-19
6.650000E+03	2.436245E-18	4.401417E-19
6.660000E+03	2.445612E-18	4.408411E-19
6.670000E+03	2.455651E-18	4.416352E-19
6.680000E+03	2.466364E-18	4.425244E-19
6.690000E+03	2.477795E-18	4.435173E-19
6.700000E+03	2.489948E-18	4.446144E-19
6.710000E+03	2.502743E-18	4.458015E-19
6.720000E+03	2.516267E-18	4.470944E-19
6.730000E+03	2.530437E-18	4.484785E-19
6.740000E+03	2.545344E-18	4.499698E-19
6.750000E+03	2.560949E-18	4.515613E-19
6.760000E+03	2.577209E-18	4.532458E-19
6.770000E+03	2.594220E-18	4.550397E-19
6.780000E+03	2.611894E-18	4.569276E-19
6.790000E+03	2.630281E-18	4.589182E-19
6.800000E+03	2.649385E-18	4.610121E-19
6.810000E+03	2.669211E-18	4.632100E-19
6.820000E+03	2.689716E-18	4.655041E-19
6.830000E+03	2.710952E-18	4.679032E-19
6.840000E+03	2.732874E-18	4.703994E-19
6.850000E+03	2.755536E-18	4.730018E-19
6.860000E+03	2.778892E-18	4.757023E-19
6.870000E+03	2.802945E-18	4.785012E-19
6.880000E+03	2.827752E-18	4.814077E-19
6.890000E+03	2.853212E-18	4.844046E-19
6.900000E+03	2.879433E-18	4.875100E-19
6.910000E+03	2.906367E-18	4.907154E-19
6.920000E+03	2.934017E-18	4.940210E-19
6.930000E+03	2.962387E-18	4.974273E-19
6.940000E+03	2.991480E-18	5.009344E-19
6.950000E+03	3.021242E-18	5.045332E-19
6.960000E+03	3.051732E-18	5.082332E-19
6.970000E+03	3.082953E-18	5.120348E-19
6.980000E+03	3.114909E-18	5.159382E-19
6.990000E+03	3.147480E-18	5.199236E-19
7.000000E+03	3.180851E-18	5.240210E-19
7.010000E+03	3.214838E-18	5.282003E-19
7.020000E+03	3.249566E-18	5.324817E-19
7.030000E+03	3.284974E-18	5.368551E-19
7.040000E+03	3.321062E-18	5.413201E-19
7.050000E+03	3.357828E-18	5.458767E-19
7.060000E+03	3.395273E-18	5.505247E-19
7.070000E+03	3.433327E-18	5.552528E-19
7.080000E+03	3.472055E-18	5.600716E-19
7.090000E+03	3.511457E-18	5.649809E-19
7.100000E+03	3.551460E-18	5.699690E-19
7.110000E+03	3.592130E-18	5.750468E-19
7.120000E+03	3.633393E-18	5.802021E-19
7.130000E+03	3.675243E-18	5.854344E-19
7.140000E+03	3.717674E-18	5.907426E-19
7.150000E+03	3.760756E-18	5.961384E-19
7.160000E+03	3.804330E-18	6.015964E-19
7.170000E+03	3.848385E-18	6.071152E-19
7.180000E+03	3.893071E-18	6.127190E-19
7.190000E+03	3.938220E-18	6.183814E-19
7.200000E+03	3.983818E-18	6.241008E-19
7.210000E+03	4.029940E-18	6.298890E-19
7.220000E+03	4.076487E-18	6.357312E-19
7.230000E+03	4.123447E-18	6.416259E-19
7.240000E+03	4.170804E-18	6.475712E-19
7.250000E+03	4.218544E-18	6.535653E-19
7.260000E+03	4.266741E-18	6.596205E-19
7.270000E+03	4.315197E-18	6.657065E-19
7.280000E+03	4.364081E-18	6.718498E-19
7.290000E+03	4.413281E-18	6.780341E-19
7.300000E+03	4.462779E-18	6.842571E-19
7.310000E+03	4.512655E-18	6.905318E-19
7.320000E+03	4.562793E-18	6.968407E-19
7.330000E+03	4.613273E-18	7.031972E-19
7.340000E+03	4.664080E-18	7.095990E-19
7.350000E+03	4.715302E-18	7.160603E-19
7.360000E+03	4.766925E-18	7.225794E-19
7.370000E+03	4.819046E-18	7.291712E-19
7.380000E+03	4.871543E-18	7.358180E-19
7.390000E+03	4.924740E-18	7.425688E-19
7.400000E+03	4.978639E-18	7.494239E-19
7.410000E+03	5.033122E-18	7.563657E-19
7.420000E+03	5.088538E-18	7.634467E-19
7.430000E+03	5.144779E-18	7.706504E-19
7.440000E+03	5.201970E-18	7.779954E-19
7.450000E+03	5.260000E-18	7.854646E-19
7.460000E+03	5.318998E-18	7.930772E-19
7.470000E+03	5.378594E-18	8.007774E-19
7.480000E+03	5.439038E-18	8.086023E-19
7.490000E+03	5.499943E-18	8.164939E-19
7.500000E+03	5.561427E-18	8.244694E-19
7.510000E+03	5.623349E-18	8.325073E-19
7.520000E+03	5.685556E-18	8.405848E-19
7.530000E+03	5.748168E-18	8.487190E-19
7.540000E+03	5.810745E-18	8.568446E-19
7.550000E+03	5.873540E-18	8.649985E-19
7.560000E+03	5.936384E-18	8.731553E-19
7.570000E+03	5.999248E-18	8.813101E-19
7.580000E+03	6.061953E-18	8.894363E-19
7.590000E+03	6.124613E-18	8.975499E-19
7.600000E+03	6.187041E-18	9.056233E-19
7.610000E+03	6.249199E-18	9.136505E-19
7.620000E+03	6.311205E-18	9.216482E-19
7.630000E+03	6.372865E-18	9.295877E-19
7.640000E+03	6.434300E-18	9.374862E-19
7.650000E+03	6.495147E-18	9.452904E-19
7.660000E+03	6.555688E-18	9.530415E-19
7.670000E+03	6.615720E-18	9.607093E-19
7.680000E+03	6.675369E-18	9.683121E-19
7.690000E+03	6.734425E-18	9.758193E-19
7.700000E+03	6.792844E-18	9.832244E-19
7.710000E+03	6.850581E-18	9.905209E-19
7.720000E+03	6.907950E-18	9.977543E-19
7.730000E+03	6.964373E-18	1.004841E-18
7.740000E+03	7.020352E-18	1.011854E-18
7.750000E+03	7.075481E-18	1.018735E-18
7.760000E+03	7.129904E-18	1.025505E-18
