#wls	flux	fluxerr
1.600000E+03	1.694022E-16	1.644481E-16
1.640000E+03	1.743952E-16	1.664768E-16
1.680000E+03	1.790686E-16	1.679814E-16
1.720000E+03	1.833861E-16	1.689394E-16
1.760000E+03	1.872358E-16	1.692633E-16
1.800000E+03	1.906092E-16	1.689661E-16
1.840000E+03	1.933899E-16	1.679690E-16
1.880000E+03	1.955482E-16	1.662762E-16
1.920000E+03	1.970195E-16	1.638669E-16
1.960000E+03	1.977110E-16	1.607035E-16
2.000000E+03	1.975994E-16	1.568125E-16
2.040000E+03	1.966212E-16	1.521927E-16
2.080000E+03	1.947263E-16	1.468600E-16
2.120000E+03	1.918800E-16	1.408473E-16
2.160000E+03	1.880427E-16	1.341885E-16
2.200000E+03	1.831568E-16	1.269104E-16
2.240000E+03	1.771758E-16	1.190536E-16
2.280000E+03	1.701341E-16	1.107169E-16
2.320000E+03	1.621766E-16	1.020669E-16
2.360000E+03	1.535460E-16	9.331871E-17
2.400000E+03	1.444370E-16	8.463839E-17
2.440000E+03	1.350257E-16	7.616487E-17
2.480000E+03	1.254409E-16	6.799567E-17
2.520000E+03	1.158161E-16	6.021873E-17
2.560000E+03	1.062596E-16	5.289685E-17
2.600000E+03	9.688147E-17	4.608307E-17
2.640000E+03	8.777015E-17	3.980964E-17
2.680000E+03	7.900670E-17	3.409664E-17
2.720000E+03	7.066270E-17	2.895191E-17
2.760000E+03	6.279231E-17	2.436910E-17
2.800000E+03	5.544071E-17	2.033283E-17
2.840000E+03	4.864062E-17	1.681869E-17
2.880000E+03	4.241559E-17	1.379588E-17
2.920000E+03	3.677913E-17	1.122822E-17
2.960000E+03	3.173198E-17	9.074731E-18
3.000000E+03	2.726309E-17	7.291527E-18
3.010000E+03	2.623365E-17	6.898242E-18
3.020000E+03	2.523792E-17	6.524403E-18
3.030000E+03	2.427636E-17	6.169548E-18
3.040000E+03	2.334711E-17	5.832644E-18
3.050000E+03	2.245052E-17	5.513224E-18
3.060000E+03	2.158578E-17	5.210550E-18
3.070000E+03	2.075253E-17	4.924008E-18
3.080000E+03	1.994909E-17	4.652684E-18
3.090000E+03	1.917593E-17	4.396194E-18
3.100000E+03	1.843141E-17	4.153675E-18
3.110000E+03	1.771550E-17	3.924651E-18
3.120000E+03	1.702732E-17	3.708475E-18
3.130000E+03	1.636573E-17	3.504456E-18
3.140000E+03	1.573056E-17	3.312134E-18
3.150000E+03	1.512067E-17	3.130861E-18
3.160000E+03	1.453555E-17	2.960137E-18
3.170000E+03	1.397440E-17	2.799416E-18
3.180000E+03	1.343642E-17	2.648177E-18
3.190000E+03	1.292107E-17	2.505964E-18
3.200000E+03	1.242758E-17	2.372290E-18
3.210000E+03	1.195497E-17	2.246647E-18
3.220000E+03	1.150293E-17	2.128672E-18
3.230000E+03	1.107052E-17	2.017897E-18
3.240000E+03	1.065721E-17	1.913947E-18
3.250000E+03	1.026229E-17	1.816430E-18
3.260000E+03	9.884924E-18	1.724943E-18
3.270000E+03	9.524756E-18	1.639187E-18
3.280000E+03	9.180830E-18	1.558771E-18
3.290000E+03	8.852808E-18	1.483423E-18
3.300000E+03	8.540054E-18	1.412834E-18
3.310000E+03	8.241707E-18	1.346670E-18
3.320000E+03	7.957442E-18	1.284700E-18
3.330000E+03	7.686679E-18	1.226662E-18
3.340000E+03	7.428753E-18	1.172291E-18
3.350000E+03	7.183137E-18	1.121357E-18
3.360000E+03	6.949322E-18	1.073642E-18
3.370000E+03	6.726815E-18	1.028943E-18
3.380000E+03	6.515140E-18	9.870655E-19
3.390000E+03	6.313836E-18	9.478301E-19
3.400000E+03	6.122381E-18	9.110550E-19
3.410000E+03	5.940280E-18	8.765715E-19
3.420000E+03	5.767289E-18	8.442557E-19
3.430000E+03	5.602801E-18	8.139374E-19
3.440000E+03	5.446529E-18	7.855003E-19
3.450000E+03	5.298058E-18	7.588159E-19
3.460000E+03	5.157061E-18	7.337743E-19
3.470000E+03	5.023104E-18	7.102557E-19
3.480000E+03	4.895840E-18	6.881586E-19
3.490000E+03	4.774999E-18	6.673964E-19
3.500000E+03	4.660214E-18	6.478738E-19
3.510000E+03	4.551247E-18	6.295172E-19
3.520000E+03	4.447672E-18	6.122311E-19
3.530000E+03	4.349289E-18	5.959546E-19
3.540000E+03	4.255768E-18	5.806119E-19
3.550000E+03	4.166848E-18	5.661401E-19
3.560000E+03	4.082286E-18	5.524807E-19
3.570000E+03	4.001772E-18	5.395692E-19
3.580000E+03	3.925180E-18	5.273677E-19
3.590000E+03	3.852270E-18	5.158252E-19
3.600000E+03	3.782820E-18	5.048946E-19
3.610000E+03	3.716731E-18	4.945472E-19
3.620000E+03	3.653765E-18	4.847369E-19
3.630000E+03	3.593769E-18	4.754305E-19
3.640000E+03	3.536599E-18	4.665971E-19
3.650000E+03	3.482118E-18	4.582077E-19
3.660000E+03	3.430195E-18	4.502353E-19
3.670000E+03	3.380706E-18	4.426546E-19
3.680000E+03	3.333563E-18	4.354457E-19
3.690000E+03	3.288680E-18	4.285899E-19
3.700000E+03	3.245945E-18	4.220656E-19
3.710000E+03	3.205361E-18	4.158673E-19
3.720000E+03	3.166792E-18	4.099711E-19
3.730000E+03	3.130214E-18	4.043689E-19
3.740000E+03	3.095549E-18	3.990458E-19
3.750000E+03	3.062747E-18	3.939910E-19
3.760000E+03	3.031809E-18	3.892006E-19
3.770000E+03	3.002607E-18	3.846546E-19
3.780000E+03	2.975144E-18	3.803501E-19
3.790000E+03	2.949393E-18	3.762809E-19
3.800000E+03	2.925257E-18	3.724318E-19
3.810000E+03	2.902736E-18	3.688005E-19
3.820000E+03	2.881805E-18	3.653817E-19
3.830000E+03	2.862392E-18	3.621644E-19
3.840000E+03	2.844451E-18	3.591411E-19
3.850000E+03	2.828004E-18	3.563131E-19
3.860000E+03	2.812959E-18	3.536675E-19
3.870000E+03	2.799316E-18	3.512032E-19
3.880000E+03	2.787032E-18	3.489135E-19
3.890000E+03	2.776083E-18	3.467948E-19
3.900000E+03	2.766449E-18	3.448436E-19
3.910000E+03	2.758066E-18	3.430511E-19
3.920000E+03	2.750914E-18	3.414142E-19
3.930000E+03	2.744995E-18	3.399326E-19
3.940000E+03	2.740270E-18	3.386007E-19
3.950000E+03	2.736698E-18	3.374132E-19
3.960000E+03	2.734265E-18	3.363672E-19
3.970000E+03	2.732930E-18	3.354577E-19
3.980000E+03	2.732680E-18	3.346821E-19
3.990000E+03	2.733500E-18	3.340381E-19
4.000000E+03	2.735374E-18	3.335233E-19
4.010000E+03	2.738248E-18	3.331301E-19
4.020000E+03	2.742110E-18	3.328564E-19
4.030000E+03	2.746946E-18	3.327000E-19
4.040000E+03	2.752747E-18	3.326586E-19
4.050000E+03	2.759480E-18	3.327277E-19
4.060000E+03	2.767114E-18	3.329024E-19
4.070000E+03	2.775642E-18	3.331808E-19
4.080000E+03	2.785032E-18	3.335583E-19
4.090000E+03	2.795277E-18	3.340327E-19
4.100000E+03	2.806348E-18	3.345995E-19
4.110000E+03	2.818239E-18	3.352566E-19
4.120000E+03	2.830923E-18	3.359996E-19
4.130000E+03	2.844372E-18	3.368238E-19
4.140000E+03	2.858581E-18	3.377272E-19
4.150000E+03	2.873524E-18	3.387054E-19
4.160000E+03	2.889198E-18	3.397563E-19
4.170000E+03	2.905553E-18	3.408730E-19
4.180000E+03	2.922587E-18	3.420535E-19
4.190000E+03	2.940253E-18	3.432906E-19
4.200000E+03	2.958571E-18	3.445853E-19
4.210000E+03	2.977492E-18	3.459305E-19
4.220000E+03	2.997016E-18	3.473246E-19
4.230000E+03	3.017071E-18	3.487577E-19
4.240000E+03	3.037679E-18	3.502312E-19
4.250000E+03	3.058768E-18	3.517352E-19
4.260000E+03	3.080361E-18	3.532711E-19
4.270000E+03	3.102384E-18	3.548293E-19
4.280000E+03	3.124789E-18	3.564028E-19
4.290000E+03	3.147596E-18	3.579932E-19
4.300000E+03	3.170707E-18	3.595881E-19
4.310000E+03	3.194144E-18	3.611891E-19
4.320000E+03	3.217805E-18	3.627836E-19
4.330000E+03	3.241711E-18	3.643735E-19
4.340000E+03	3.265809E-18	3.659519E-19
4.350000E+03	3.290045E-18	3.675121E-19
4.360000E+03	3.314414E-18	3.690529E-19
4.370000E+03	3.338887E-18	3.705707E-19
4.380000E+03	3.363487E-18	3.720676E-19
4.390000E+03	3.388160E-18	3.735369E-19
4.400000E+03	3.412956E-18	3.749842E-19
4.410000E+03	3.437877E-18	3.764090E-19
4.420000E+03	3.462924E-18	3.778112E-19
4.430000E+03	3.488097E-18	3.791910E-19
4.440000E+03	3.513429E-18	3.805515E-19
4.450000E+03	3.538894E-18	3.818904E-19
4.460000E+03	3.564526E-18	3.832113E-19
4.470000E+03	3.590331E-18	3.845154E-19
4.480000E+03	3.616316E-18	3.858041E-19
4.490000E+03	3.642459E-18	3.870757E-19
4.500000E+03	3.668768E-18	3.883322E-19
4.510000E+03	3.695221E-18	3.895725E-19
4.520000E+03	3.721858E-18	3.908024E-19
4.530000E+03	3.748628E-18	3.920181E-19
4.540000E+03	3.775541E-18	3.932225E-19
4.550000E+03	3.802609E-18	3.944191E-19
4.560000E+03	3.829779E-18	3.956046E-19
4.570000E+03	3.857098E-18	3.967859E-19
4.580000E+03	3.884513E-18	3.979602E-19
4.590000E+03	3.912040E-18	3.991312E-19
4.600000E+03	3.939627E-18	4.002961E-19
4.610000E+03	3.967325E-18	4.014620E-19
4.620000E+03	3.995118E-18	4.026294E-19
4.630000E+03	4.022955E-18	4.037950E-19
4.640000E+03	4.050857E-18	4.049624E-19
4.650000E+03	4.078847E-18	4.061351E-19
4.660000E+03	4.106912E-18	4.073126E-19
4.670000E+03	4.135004E-18	4.084910E-19
4.680000E+03	4.163224E-18	4.096803E-19
4.690000E+03	4.191602E-18	4.108834E-19
4.700000E+03	4.220094E-18	4.120956E-19
4.710000E+03	4.248734E-18	4.133194E-19
4.720000E+03	4.277557E-18	4.145575E-19
4.730000E+03	4.306485E-18	4.158010E-19
4.740000E+03	4.335553E-18	4.170525E-19
4.750000E+03	4.364723E-18	4.183068E-19
4.760000E+03	4.394033E-18	4.195666E-19
4.770000E+03	4.423485E-18	4.208309E-19
4.780000E+03	4.453040E-18	4.220950E-19
4.790000E+03	4.482740E-18	4.233622E-19
4.800000E+03	4.512548E-18	4.246284E-19
4.810000E+03	4.542509E-18	4.258974E-19
4.820000E+03	4.572584E-18	4.271657E-19
4.830000E+03	4.602778E-18	4.284339E-19
4.840000E+03	4.633094E-18	4.297031E-19
4.850000E+03	4.663580E-18	4.309785E-19
4.860000E+03	4.694198E-18	4.322578E-19
4.870000E+03	4.724953E-18	4.335428E-19
4.880000E+03	4.755803E-18	4.348314E-19
4.890000E+03	4.786843E-18	4.361339E-19
4.900000E+03	4.818031E-18	4.374484E-19
4.910000E+03	4.849371E-18	4.387771E-19
4.920000E+03	4.880820E-18	4.401179E-19
4.930000E+03	4.912426E-18	4.414769E-19
4.940000E+03	4.944145E-18	4.428517E-19
4.950000E+03	4.975975E-18	4.442437E-19
4.960000E+03	5.007965E-18	4.456582E-19
4.970000E+03	5.040067E-18	4.470920E-19
4.980000E+03	5.072279E-18	4.485455E-19
4.990000E+03	5.104550E-18	4.500146E-19
5.000000E+03	5.136923E-18	4.515034E-19
5.010000E+03	5.169397E-18	4.530117E-19
5.020000E+03	5.201915E-18	4.545342E-19
5.030000E+03	5.234471E-18	4.560702E-19
5.040000E+03	5.267058E-18	4.576186E-19
5.050000E+03	5.299617E-18	4.591739E-19
5.060000E+03	5.332190E-18	4.607394E-19
5.070000E+03	5.364767E-18	4.623141E-19
5.080000E+03	5.397234E-18	4.638881E-19
5.090000E+03	5.429630E-18	4.654652E-19
5.100000E+03	5.461944E-18	4.670450E-19
5.110000E+03	5.494109E-18	4.686230E-19
5.120000E+03	5.526111E-18	4.701996E-19
5.130000E+03	5.557932E-18	4.717756E-19
5.140000E+03	5.589557E-18	4.733524E-19
5.150000E+03	5.620913E-18	4.749276E-19
5.160000E+03	5.652035E-18	4.765083E-19
5.170000E+03	5.682791E-18	4.780887E-19
5.180000E+03	5.713214E-18	4.796773E-19
5.190000E+03	5.743221E-18	4.812741E-19
5.200000E+03	5.772787E-18	4.828844E-19
5.210000E+03	5.801881E-18	4.845141E-19
5.220000E+03	5.830472E-18	4.861695E-19
5.230000E+03	5.858413E-18	4.878481E-19
5.240000E+03	5.885782E-18	4.895665E-19
5.250000E+03	5.912485E-18	4.913278E-19
5.260000E+03	5.938484E-18	4.931395E-19
5.270000E+03	5.963681E-18	4.950048E-19
5.280000E+03	5.988034E-18	4.969315E-19
5.290000E+03	6.011501E-18	4.989276E-19
5.300000E+03	6.034042E-18	5.010006E-19
5.310000E+03	6.055616E-18	5.031579E-19
5.320000E+03	6.076122E-18	5.054018E-19
5.330000E+03	6.095642E-18	5.077489E-19
5.340000E+03	6.114018E-18	5.101954E-19
5.350000E+03	6.131216E-18	5.127470E-19
5.360000E+03	6.147324E-18	5.154190E-19
5.370000E+03	6.162192E-18	5.182056E-19
5.380000E+03	6.175915E-18	5.211208E-19
5.390000E+03	6.188410E-18	5.241624E-19
5.400000E+03	6.199719E-18	5.273378E-19
5.410000E+03	6.209764E-18	5.306431E-19
5.420000E+03	6.218659E-18	5.340893E-19
5.430000E+03	6.226333E-18	5.376707E-19
5.440000E+03	6.232846E-18	5.413915E-19
5.450000E+03	6.238072E-18	5.452385E-19
5.460000E+03	6.242079E-18	5.492140E-19
5.470000E+03	6.244811E-18	5.533085E-19
5.480000E+03	6.246217E-18	5.575113E-19
5.490000E+03	6.246374E-18	5.618223E-19
5.500000E+03	6.245175E-18	5.662235E-19
5.510000E+03	6.242578E-18	5.707017E-19
5.520000E+03	6.238606E-18	5.752490E-19
5.530000E+03	6.233162E-18	5.798448E-19
5.540000E+03	6.226338E-18	5.844859E-19
5.550000E+03	6.217975E-18	5.891451E-19
5.560000E+03	6.208235E-18	5.938242E-19
5.570000E+03	6.197090E-18	5.985075E-19
5.580000E+03	6.184513E-18	6.031791E-19
5.590000E+03	6.170545E-18	6.078292E-19
5.600000E+03	6.155223E-18	6.124483E-19
5.610000E+03	6.138526E-18	6.170208E-19
5.620000E+03	6.120620E-18	6.215509E-19
5.630000E+03	6.101420E-18	6.260176E-19
5.640000E+03	6.081095E-18	6.304262E-19
5.650000E+03	6.059560E-18	6.347570E-19
5.660000E+03	6.036983E-18	6.390166E-19
5.670000E+03	6.013404E-18	6.431998E-19
5.680000E+03	5.988804E-18	6.472950E-19
5.690000E+03	5.963287E-18	6.513046E-19
5.700000E+03	5.936895E-18	6.552250E-19
5.710000E+03	5.909732E-18	6.590598E-19
5.720000E+03	5.881840E-18	6.628064E-19
5.730000E+03	5.853201E-18	6.664556E-19
5.740000E+03	5.823980E-18	6.700193E-19
5.750000E+03	5.794221E-18	6.734958E-19
5.760000E+03	5.763907E-18	6.768762E-19
5.770000E+03	5.733143E-18	6.801660E-19
5.780000E+03	5.702036E-18	6.833709E-19
5.790000E+03	5.670630E-18	6.864894E-19
5.800000E+03	5.638913E-18	6.895123E-19
5.810000E+03	5.606992E-18	6.924452E-19
5.820000E+03	5.574975E-18	6.952938E-19
5.830000E+03	5.542910E-18	6.980563E-19
5.840000E+03	5.510786E-18	7.007232E-19
5.850000E+03	5.478711E-18	7.033002E-19
5.860000E+03	5.446736E-18	7.057854E-19
5.870000E+03	5.414969E-18	7.081848E-19
5.880000E+03	5.383457E-18	7.104968E-19
5.890000E+03	5.352191E-18	7.127123E-19
5.900000E+03	5.321277E-18	7.148377E-19
5.910000E+03	5.290702E-18	7.168642E-19
5.920000E+03	5.260689E-18	7.188150E-19
5.930000E+03	5.231106E-18	7.206658E-19
5.940000E+03	5.202052E-18	7.224246E-19
5.950000E+03	5.173629E-18	7.240997E-19
5.960000E+03	5.145816E-18	7.256837E-19
5.970000E+03	5.118650E-18	7.271776E-19
5.980000E+03	5.092224E-18	7.285910E-19
5.990000E+03	5.066514E-18	7.299173E-19
6.000000E+03	5.041606E-18	7.311669E-19
6.010000E+03	5.017415E-18	7.323251E-19
6.020000E+03	4.994081E-18	7.334114E-19
6.030000E+03	4.971514E-18	7.344114E-19
6.040000E+03	4.949851E-18	7.353453E-19
6.050000E+03	4.928937E-18	7.361902E-19
6.060000E+03	4.908908E-18	7.369667E-19
6.070000E+03	4.889721E-18	7.376693E-19
6.080000E+03	4.871390E-18	7.383016E-19
6.090000E+03	4.853810E-18	7.388492E-19
6.100000E+03	4.837108E-18	7.393332E-19
6.110000E+03	4.821119E-18	7.397303E-19
6.120000E+03	4.805964E-18	7.400618E-19
6.130000E+03	4.791473E-18	7.403038E-19
6.140000E+03	4.777649E-18	7.404594E-19
6.150000E+03	4.764434E-18	7.405224E-19
6.160000E+03	4.751826E-18	7.404955E-19
6.170000E+03	4.739645E-18	7.403536E-19
6.180000E+03	4.727886E-18	7.400990E-19
6.190000E+03	4.716480E-18	7.397241E-19
6.200000E+03	4.705417E-18	7.392309E-19
6.210000E+03	4.694686E-18	7.386208E-19
6.220000E+03	4.684392E-18	7.379143E-19
6.230000E+03	4.674702E-18	7.371413E-19
6.240000E+03	4.665664E-18	7.363134E-19
6.250000E+03	4.657387E-18	7.354515E-19
6.260000E+03	4.649979E-18	7.345771E-19
6.270000E+03	4.643491E-18	7.337018E-19
6.280000E+03	4.638036E-18	7.328476E-19
6.290000E+03	4.633665E-18	7.320264E-19
6.300000E+03	4.630435E-18	7.312507E-19
6.310000E+03	4.628462E-18	7.305425E-19
6.320000E+03	4.627742E-18	7.299047E-19
6.330000E+03	4.628398E-18	7.293599E-19
6.340000E+03	4.630366E-18	7.289007E-19
6.350000E+03	4.633706E-18	7.285398E-19
6.360000E+03	4.638419E-18	7.282800E-19
6.370000E+03	4.644571E-18	7.281341E-19
6.380000E+03	4.652099E-18	7.280944E-19
6.390000E+03	4.661005E-18	7.281635E-19
6.400000E+03	4.671222E-18	7.283332E-19
6.410000E+03	4.682619E-18	7.285845E-19
6.420000E+03	4.695124E-18	7.289086E-19
6.430000E+03	4.708734E-18	7.293069E-19
6.440000E+03	4.723448E-18	7.297806E-19
6.450000E+03	4.739263E-18	7.303311E-19
6.460000E+03	4.756248E-18	7.309705E-19
6.470000E+03	4.774476E-18	7.317113E-19
6.480000E+03	4.793950E-18	7.325550E-19
6.490000E+03	4.814600E-18	7.334920E-19
6.500000E+03	4.836577E-18	7.345461E-19
6.510000E+03	4.859887E-18	7.357190E-19
6.520000E+03	4.884463E-18	7.370009E-19
6.530000E+03	4.910387E-18	7.384048E-19
6.540000E+03	4.937669E-18	7.399324E-19
6.550000E+03	4.966239E-18	7.415736E-19
6.560000E+03	4.996106E-18	7.433297E-19
6.570000E+03	5.027439E-18	7.452259E-19
6.580000E+03	5.060009E-18	7.472281E-19
6.590000E+03	5.093986E-18	7.493614E-19
6.600000E+03	5.129384E-18	7.516275E-19
6.610000E+03	5.166049E-18	7.540034E-19
6.620000E+03	5.204158E-18	7.565147E-19
6.630000E+03	5.243555E-18	7.591381E-19
6.640000E+03	5.284423E-18	7.618996E-19
6.650000E+03	5.326602E-18	7.647755E-19
6.660000E+03	5.370192E-18	7.677793E-19
6.670000E+03	5.415207E-18	7.709124E-19
6.680000E+03	5.461569E-18	7.741629E-19
6.690000E+03	5.509289E-18	7.775316E-19
6.700000E+03	5.558476E-18	7.810326E-19
6.710000E+03	5.609050E-18	7.846539E-19
6.720000E+03	5.661023E-18	7.883961E-19
6.730000E+03	5.714408E-18	7.922602E-19
6.740000E+03	5.769222E-18	7.962468E-19
6.750000E+03	5.825477E-18	8.003570E-19
6.760000E+03	5.883189E-18	8.045914E-19
6.770000E+03	5.942269E-18	8.089367E-19
6.780000E+03	6.002835E-18	8.134075E-19
6.790000E+03	6.064903E-18	8.180047E-19
6.800000E+03	6.128381E-18	8.227145E-19
6.810000E+03	6.193392E-18	8.275519E-19
6.820000E+03	6.259842E-18	8.325028E-19
6.830000E+03	6.327743E-18	8.375674E-19
6.840000E+03	6.397110E-18	8.427462E-19
6.850000E+03	6.467955E-18	8.480394E-19
6.860000E+03	6.540414E-18	8.534629E-19
6.870000E+03	6.614261E-18	8.589860E-19
6.880000E+03	6.689630E-18	8.646243E-19
6.890000E+03	6.766535E-18	8.703782E-19
6.900000E+03	6.844863E-18	8.762316E-19
6.910000E+03	6.924753E-18	8.822008E-19
6.920000E+03	7.006219E-18	8.882861E-19
6.930000E+03	7.089143E-18	8.944708E-19
6.940000E+03	7.173533E-18	9.007548E-19
6.950000E+03	7.259536E-18	9.071549E-19
6.960000E+03	7.347027E-18	9.136540E-19
6.970000E+03	7.436013E-18	9.202518E-19
6.980000E+03	7.526503E-18	9.269480E-19
6.990000E+03	7.618503E-18	9.337421E-19
7.000000E+03	7.711873E-18	9.406156E-19
7.010000E+03	7.806915E-18	9.476044E-19
7.020000E+03	7.903334E-18	9.546713E-19
7.030000E+03	8.001287E-18	9.618342E-19
7.040000E+03	8.100619E-18	9.690734E-19
7.050000E+03	8.201329E-18	9.763878E-19
7.060000E+03	8.303578E-18	9.837957E-19
7.070000E+03	8.407203E-18	9.912768E-19
7.080000E+03	8.512029E-18	9.988098E-19
7.090000E+03	8.618390E-18	1.006433E-18
7.100000E+03	8.726112E-18	1.014126E-18
7.110000E+03	8.835010E-18	1.021865E-18
7.120000E+03	8.945251E-18	1.029671E-18
7.130000E+03	9.056640E-18	1.037520E-18
7.140000E+03	9.169349E-18	1.045432E-18
7.150000E+03	9.283177E-18	1.053384E-18
7.160000E+03	9.398297E-18	1.061395E-18
7.170000E+03	9.514304E-18	1.069420E-18
7.180000E+03	9.631366E-18	1.077480E-18
7.190000E+03	9.749664E-18	1.085594E-18
7.200000E+03	9.868768E-18	1.093716E-18
7.210000E+03	9.988643E-18	1.101844E-18
7.220000E+03	1.010946E-17	1.110000E-18
7.230000E+03	1.023120E-17	1.118182E-18
7.240000E+03	1.035361E-17	1.126367E-18
7.250000E+03	1.047686E-17	1.134576E-18
7.260000E+03	1.060070E-17	1.142787E-18
7.270000E+03	1.072509E-17	1.150998E-18
7.280000E+03	1.085020E-17	1.159235E-18
7.290000E+03	1.097576E-17	1.167473E-18
7.300000E+03	1.110197E-17	1.175740E-18
7.310000E+03	1.122853E-17	1.184013E-18
7.320000E+03	1.135540E-17	1.192293E-18
7.330000E+03	1.148302E-17	1.200636E-18
7.340000E+03	1.161086E-17	1.208995E-18
7.350000E+03	1.173937E-17	1.217427E-18
7.360000E+03	1.186826E-17	1.225911E-18
7.370000E+03	1.199776E-17	1.234480E-18
7.380000E+03	1.212810E-17	1.243172E-18
7.390000E+03	1.225900E-17	1.251965E-18
7.400000E+03	1.239098E-17	1.260925E-18
7.410000E+03	1.252404E-17	1.270062E-18
7.420000E+03	1.265848E-17	1.279416E-18
7.430000E+03	1.279429E-17	1.288997E-18
7.440000E+03	1.293150E-17	1.298816E-18
7.450000E+03	1.307042E-17	1.308913E-18
7.460000E+03	1.321047E-17	1.319236E-18
7.470000E+03	1.335166E-17	1.329792E-18
7.480000E+03	1.349369E-17	1.340555E-18
7.490000E+03	1.363686E-17	1.351557E-18
7.500000E+03	1.378088E-17	1.362768E-18
7.510000E+03	1.392540E-17	1.374153E-18
7.520000E+03	1.407042E-17	1.385704E-18
7.530000E+03	1.421592E-17	1.397414E-18
7.540000E+03	1.436155E-17	1.409238E-18
7.550000E+03	1.450763E-17	1.421194E-18
7.560000E+03	1.465344E-17	1.433197E-18
7.570000E+03	1.479965E-17	1.445300E-18
7.580000E+03	1.494588E-17	1.457448E-18
7.590000E+03	1.509209E-17	1.469621E-18
7.600000E+03	1.523787E-17	1.481762E-18
7.610000E+03	1.538354E-17	1.493888E-18
7.620000E+03	1.552905E-17	1.505978E-18
7.630000E+03	1.567433E-17	1.518013E-18
7.640000E+03	1.581894E-17	1.529936E-18
7.650000E+03	1.596317E-17	1.541770E-18
7.660000E+03	1.610656E-17	1.553458E-18
7.670000E+03	1.624981E-17	1.565064E-18
7.680000E+03	1.639161E-17	1.576457E-18
7.690000E+03	1.653307E-17	1.587744E-18
7.700000E+03	1.667368E-17	1.598874E-18
7.710000E+03	1.681289E-17	1.609797E-18
7.720000E+03	1.695100E-17	1.620545E-18
7.730000E+03	1.708788E-17	1.631109E-18
7.740000E+03	1.722339E-17	1.641482E-18
7.750000E+03	1.735739E-17	1.651657E-18
7.760000E+03	1.749019E-17	1.661670E-18
