#wls	flux	fluxerr
1.600000E+03	2.157721E-16	2.136447E-16
1.640000E+03	2.273994E-16	2.215878E-16
1.680000E+03	2.393409E-16	2.293779E-16
1.720000E+03	2.516329E-16	2.370200E-16
1.760000E+03	2.641869E-16	2.444009E-16
1.800000E+03	2.769465E-16	2.514419E-16
1.840000E+03	2.898659E-16	2.580770E-16
1.880000E+03	3.028367E-16	2.641892E-16
1.920000E+03	3.157596E-16	2.696765E-16
1.960000E+03	3.285202E-16	2.744323E-16
2.000000E+03	3.409414E-16	2.783084E-16
2.040000E+03	3.529065E-16	2.812188E-16
2.080000E+03	3.641686E-16	2.829874E-16
2.120000E+03	3.744784E-16	2.834576E-16
2.160000E+03	3.836131E-16	2.825155E-16
2.200000E+03	3.912919E-16	2.800266E-16
2.240000E+03	3.971914E-16	2.758544E-16
2.280000E+03	4.011955E-16	2.700335E-16
2.320000E+03	4.031733E-16	2.626029E-16
2.360000E+03	4.031842E-16	2.537380E-16
2.400000E+03	4.013181E-16	2.436313E-16
2.440000E+03	3.976715E-16	2.324757E-16
2.480000E+03	3.923639E-16	2.204716E-16
2.520000E+03	3.854539E-16	2.077785E-16
2.560000E+03	3.770756E-16	1.945926E-16
2.600000E+03	3.672962E-16	1.810664E-16
2.640000E+03	3.562168E-16	1.673634E-16
2.680000E+03	3.439317E-16	1.536356E-16
2.720000E+03	3.305695E-16	1.400405E-16
2.760000E+03	3.162559E-16	1.267221E-16
2.800000E+03	3.011296E-16	1.138158E-16
2.840000E+03	2.853656E-16	1.014549E-16
2.880000E+03	2.691404E-16	8.975390E-17
2.920000E+03	2.526563E-16	7.881569E-17
2.960000E+03	2.361201E-16	6.872186E-17
3.000000E+03	2.197326E-16	5.952943E-17
3.010000E+03	2.156798E-16	5.737601E-17
3.020000E+03	2.116512E-16	5.528134E-17
3.030000E+03	2.076490E-16	5.324537E-17
3.040000E+03	2.036797E-16	5.126912E-17
3.050000E+03	1.997408E-16	4.935121E-17
3.060000E+03	1.958346E-16	4.749142E-17
3.070000E+03	1.919713E-16	4.569139E-17
3.080000E+03	1.881447E-16	4.394869E-17
3.090000E+03	1.843647E-16	4.226466E-17
3.100000E+03	1.806290E-16	4.063774E-17
3.110000E+03	1.769396E-16	3.906733E-17
3.120000E+03	1.733051E-16	3.755420E-17
3.130000E+03	1.697200E-16	3.609598E-17
3.140000E+03	1.661893E-16	3.469256E-17
3.150000E+03	1.627142E-16	3.334297E-17
3.160000E+03	1.592991E-16	3.204685E-17
3.170000E+03	1.559428E-16	3.080258E-17
3.180000E+03	1.526502E-16	2.960971E-17
3.190000E+03	1.494230E-16	2.846713E-17
3.200000E+03	1.462605E-16	2.737320E-17
3.210000E+03	1.431675E-16	2.632728E-17
3.220000E+03	1.401481E-16	2.532858E-17
3.230000E+03	1.371997E-16	2.437496E-17
3.240000E+03	1.343289E-16	2.346600E-17
3.250000E+03	1.315330E-16	2.259957E-17
3.260000E+03	1.288199E-16	2.177545E-17
3.270000E+03	1.261844E-16	2.099113E-17
3.280000E+03	1.236296E-16	2.024561E-17
3.290000E+03	1.211580E-16	1.953783E-17
3.300000E+03	1.187681E-16	1.886605E-17
3.310000E+03	1.164618E-16	1.822921E-17
3.320000E+03	1.142355E-16	1.762537E-17
3.330000E+03	1.120908E-16	1.705349E-17
3.340000E+03	1.100273E-16	1.651226E-17
3.350000E+03	1.080446E-16	1.600037E-17
3.360000E+03	1.061422E-16	1.551654E-17
3.370000E+03	1.043180E-16	1.505933E-17
3.380000E+03	1.025713E-16	1.462751E-17
3.390000E+03	1.009015E-16	1.421993E-17
3.400000E+03	9.930799E-17	1.383546E-17
3.410000E+03	9.778856E-17	1.347280E-17
3.420000E+03	9.634250E-17	1.313089E-17
3.430000E+03	9.496904E-17	1.280875E-17
3.440000E+03	9.366612E-17	1.250522E-17
3.450000E+03	9.243300E-17	1.221940E-17
3.460000E+03	9.126888E-17	1.195043E-17
3.470000E+03	9.017069E-17	1.169717E-17
3.480000E+03	8.913885E-17	1.145901E-17
3.490000E+03	8.817151E-17	1.123509E-17
3.500000E+03	8.726691E-17	1.102458E-17
3.510000E+03	8.642438E-17	1.082684E-17
3.520000E+03	8.564123E-17	1.064102E-17
3.530000E+03	8.491690E-17	1.046657E-17
3.540000E+03	8.424984E-17	1.030285E-17
3.550000E+03	8.363857E-17	1.014925E-17
3.560000E+03	8.308167E-17	1.000521E-17
3.570000E+03	8.257778E-17	9.870182E-18
3.580000E+03	8.212468E-17	9.743576E-18
3.590000E+03	8.172205E-17	9.625023E-18
3.600000E+03	8.136780E-17	9.513979E-18
3.610000E+03	8.106167E-17	9.410142E-18
3.620000E+03	8.080084E-17	9.312915E-18
3.630000E+03	8.058601E-17	9.222127E-18
3.640000E+03	8.041363E-17	9.137153E-18
3.650000E+03	8.028362E-17	9.057754E-18
3.660000E+03	8.019427E-17	8.983531E-18
3.670000E+03	8.014550E-17	8.914291E-18
3.680000E+03	8.013487E-17	8.849572E-18
3.690000E+03	8.016235E-17	8.789207E-18
3.700000E+03	8.022634E-17	8.732872E-18
3.710000E+03	8.032686E-17	8.680410E-18
3.720000E+03	8.046233E-17	8.631511E-18
3.730000E+03	8.063348E-17	8.586133E-18
3.740000E+03	8.083798E-17	8.543885E-18
3.750000E+03	8.107652E-17	8.504721E-18
3.760000E+03	8.134821E-17	8.468444E-18
3.770000E+03	8.165291E-17	8.434918E-18
3.780000E+03	8.198968E-17	8.403945E-18
3.790000E+03	8.235902E-17	8.375489E-18
3.800000E+03	8.275919E-17	8.349266E-18
3.810000E+03	8.319066E-17	8.325231E-18
3.820000E+03	8.365310E-17	8.303275E-18
3.830000E+03	8.414617E-17	8.283270E-18
3.840000E+03	8.466952E-17	8.265102E-18
3.850000E+03	8.522198E-17	8.248597E-18
3.860000E+03	8.580463E-17	8.233779E-18
3.870000E+03	8.641703E-17	8.220538E-18
3.880000E+03	8.705789E-17	8.208709E-18
3.890000E+03	8.772744E-17	8.198246E-18
3.900000E+03	8.842508E-17	8.189048E-18
3.910000E+03	8.915089E-17	8.181098E-18
3.920000E+03	8.990347E-17	8.174209E-18
3.930000E+03	9.068363E-17	8.168420E-18
3.940000E+03	9.148983E-17	8.163573E-18
3.950000E+03	9.232289E-17	8.159682E-18
3.960000E+03	9.318127E-17	8.156570E-18
3.970000E+03	9.406412E-17	8.154137E-18
3.980000E+03	9.497225E-17	8.152376E-18
3.990000E+03	9.590402E-17	8.151087E-18
4.000000E+03	9.685934E-17	8.150223E-18
4.010000E+03	9.783734E-17	8.149635E-18
4.020000E+03	9.883788E-17	8.149263E-18
4.030000E+03	9.985998E-17	8.149003E-18
4.040000E+03	1.009027E-16	8.148732E-18
4.050000E+03	1.019658E-16	8.148421E-18
4.060000E+03	1.030492E-16	8.148071E-18
4.070000E+03	1.041502E-16	8.147454E-18
4.080000E+03	1.052703E-16	8.146710E-18
4.090000E+03	1.064069E-16	8.145676E-18
4.100000E+03	1.075607E-16	8.144425E-18
4.110000E+03	1.087300E-16	8.142865E-18
4.120000E+03	1.099147E-16	8.141070E-18
4.130000E+03	1.111139E-16	8.139010E-18
4.140000E+03	1.123270E-16	8.136689E-18
4.150000E+03	1.135529E-16	8.134150E-18
4.160000E+03	1.147910E-16	8.131396E-18
4.170000E+03	1.160415E-16	8.128537E-18
4.180000E+03	1.173038E-16	8.125660E-18
4.190000E+03	1.185762E-16	8.122736E-18
4.200000E+03	1.198582E-16	8.119850E-18
4.210000E+03	1.211492E-16	8.117132E-18
4.220000E+03	1.224497E-16	8.114723E-18
4.230000E+03	1.237584E-16	8.112684E-18
4.240000E+03	1.250747E-16	8.111190E-18
4.250000E+03	1.263973E-16	8.110304E-18
4.260000E+03	1.277268E-16	8.110278E-18
4.270000E+03	1.290618E-16	8.111286E-18
4.280000E+03	1.304020E-16	8.113518E-18
4.290000E+03	1.317469E-16	8.117223E-18
4.300000E+03	1.330938E-16	8.122576E-18
4.310000E+03	1.344443E-16	8.129972E-18
4.320000E+03	1.357954E-16	8.139595E-18
4.330000E+03	1.371461E-16	8.151823E-18
4.340000E+03	1.384940E-16	8.166894E-18
4.350000E+03	1.398401E-16	8.185297E-18
4.360000E+03	1.411791E-16	8.207218E-18
4.370000E+03	1.425114E-16	8.233045E-18
4.380000E+03	1.438348E-16	8.263041E-18
4.390000E+03	1.451480E-16	8.297522E-18
4.400000E+03	1.464508E-16	8.336347E-18
4.410000E+03	1.477419E-16	8.378964E-18
4.420000E+03	1.490224E-16	8.424940E-18
4.430000E+03	1.502878E-16	8.473373E-18
4.440000E+03	1.515388E-16	8.523671E-18
4.450000E+03	1.527719E-16	8.575061E-18
4.460000E+03	1.539849E-16	8.626724E-18
4.470000E+03	1.551776E-16	8.678055E-18
4.480000E+03	1.563433E-16	8.728164E-18
4.490000E+03	1.574830E-16	8.776526E-18
4.500000E+03	1.585890E-16	8.822264E-18
4.510000E+03	1.596606E-16	8.864998E-18
4.520000E+03	1.606926E-16	8.904039E-18
4.530000E+03	1.616810E-16	8.938903E-18
4.540000E+03	1.626216E-16	8.969245E-18
4.550000E+03	1.635070E-16	8.994503E-18
4.560000E+03	1.643354E-16	9.014587E-18
4.570000E+03	1.650992E-16	9.029241E-18
4.580000E+03	1.657933E-16	9.038329E-18
4.590000E+03	1.664126E-16	9.041878E-18
4.600000E+03	1.669520E-16	9.040069E-18
4.610000E+03	1.674045E-16	9.032919E-18
4.620000E+03	1.677630E-16	9.020595E-18
4.630000E+03	1.680221E-16	9.003490E-18
4.640000E+03	1.681764E-16	8.981858E-18
4.650000E+03	1.682204E-16	8.956088E-18
4.660000E+03	1.681460E-16	8.926525E-18
4.670000E+03	1.679495E-16	8.893596E-18
4.680000E+03	1.676247E-16	8.857666E-18
4.690000E+03	1.671658E-16	8.819212E-18
4.700000E+03	1.665688E-16	8.778636E-18
4.710000E+03	1.658288E-16	8.736334E-18
4.720000E+03	1.649417E-16	8.692752E-18
4.730000E+03	1.639051E-16	8.647928E-18
4.740000E+03	1.627202E-16	8.601583E-18
4.750000E+03	1.613890E-16	8.553432E-18
4.760000E+03	1.599141E-16	8.502959E-18
4.770000E+03	1.582987E-16	8.449727E-18
4.780000E+03	1.565451E-16	8.393327E-18
4.790000E+03	1.546592E-16	8.333373E-18
4.800000E+03	1.526427E-16	8.269370E-18
4.810000E+03	1.505042E-16	8.201278E-18
4.820000E+03	1.482464E-16	8.128631E-18
4.830000E+03	1.458769E-16	8.051339E-18
4.840000E+03	1.434027E-16	7.969371E-18
4.850000E+03	1.408278E-16	7.882450E-18
4.860000E+03	1.381627E-16	7.790736E-18
4.870000E+03	1.354139E-16	7.694287E-18
4.880000E+03	1.325910E-16	7.593242E-18
4.890000E+03	1.296989E-16	7.487553E-18
4.900000E+03	1.267504E-16	7.377718E-18
4.910000E+03	1.237521E-16	7.263772E-18
4.920000E+03	1.207145E-16	7.146057E-18
4.930000E+03	1.176456E-16	7.024835E-18
4.940000E+03	1.145557E-16	6.900407E-18
4.950000E+03	1.114515E-16	6.772925E-18
4.960000E+03	1.083433E-16	6.642798E-18
4.970000E+03	1.052405E-16	6.510333E-18
4.980000E+03	1.021495E-16	6.375687E-18
4.990000E+03	9.907832E-17	6.239192E-18
5.000000E+03	9.603571E-17	6.101165E-18
5.010000E+03	9.302889E-17	5.961894E-18
5.020000E+03	9.006287E-17	5.821583E-18
5.030000E+03	8.714494E-17	5.680549E-18
5.040000E+03	8.428094E-17	5.539074E-18
5.050000E+03	8.147621E-17	5.397467E-18
5.060000E+03	7.873468E-17	5.255931E-18
5.070000E+03	7.606064E-17	5.114744E-18
5.080000E+03	7.345859E-17	4.974253E-18
5.090000E+03	7.093022E-17	4.834610E-18
5.100000E+03	6.847899E-17	4.696130E-18
5.110000E+03	6.610646E-17	4.559040E-18
5.120000E+03	6.381440E-17	4.423572E-18
5.130000E+03	6.160414E-17	4.289962E-18
5.140000E+03	5.947662E-17	4.158447E-18
5.150000E+03	5.743177E-17	4.029183E-18
5.160000E+03	5.547037E-17	3.902410E-18
5.170000E+03	5.359120E-17	3.778244E-18
5.180000E+03	5.179441E-17	3.656888E-18
5.190000E+03	5.007882E-17	3.538461E-18
5.200000E+03	4.844361E-17	3.423119E-18
5.210000E+03	4.688769E-17	3.310983E-18
5.220000E+03	4.540985E-17	3.202167E-18
5.230000E+03	4.400787E-17	3.096722E-18
5.240000E+03	4.268116E-17	2.994793E-18
5.250000E+03	4.142693E-17	2.896371E-18
5.260000E+03	4.024448E-17	2.801592E-18
5.270000E+03	3.913137E-17	2.710453E-18
5.280000E+03	3.808638E-17	2.623035E-18
5.290000E+03	3.710753E-17	2.539362E-18
5.300000E+03	3.619283E-17	2.459440E-18
5.310000E+03	3.534109E-17	2.383327E-18
5.320000E+03	3.455011E-17	2.311011E-18
5.330000E+03	3.381872E-17	2.242531E-18
5.337210E+03	1.467511E-16	1.805788E-16
5.338211E+03	1.467456E-16	1.800828E-16
5.338411E+03	1.470427E-16	1.799951E-16
5.338811E+03	1.472478E-16	1.798047E-16
5.339811E+03	1.472075E-16	1.793076E-16
5.341011E+03	1.470913E-16	1.787080E-16
5.341211E+03	1.473589E-16	1.786188E-16
5.341411E+03	1.476191E-16	1.785294E-16
5.342011E+03	1.477405E-16	1.782363E-16
5.342211E+03	1.480019E-16	1.781468E-16
5.342411E+03	1.482512E-16	1.780569E-16
5.342611E+03	1.485140E-16	1.779675E-16
5.343012E+03	1.486712E-16	1.777742E-16
5.344812E+03	1.482516E-16	1.768636E-16
5.345212E+03	1.483970E-16	1.766701E-16
5.347012E+03	1.479608E-16	1.757587E-16
5.347212E+03	1.481770E-16	1.756671E-16
5.348413E+03	1.479733E-16	1.750616E-16
5.349812E+03	1.476782E-16	1.743536E-16
5.350412E+03	1.477113E-16	1.740559E-16
5.350612E+03	1.479034E-16	1.739632E-16
5.350812E+03	1.480927E-16	1.738703E-16
5.351012E+03	1.482750E-16	1.737772E-16
5.351212E+03	1.484523E-16	1.736838E-16
5.351412E+03	1.486181E-16	1.735900E-16
5.351612E+03	1.487767E-16	1.734960E-16
5.351812E+03	1.489327E-16	1.734018E-16
5.352212E+03	1.489972E-16	1.732046E-16
5.352612E+03	1.490589E-16	1.730072E-16
5.353012E+03	1.491154E-16	1.728095E-16
5.353412E+03	1.491647E-16	1.726116E-16
5.353612E+03	1.492962E-16	1.725165E-16
5.353813E+03	1.494203E-16	1.724205E-16
5.354013E+03	1.495400E-16	1.723249E-16
5.354213E+03	1.496550E-16	1.722291E-16
5.355413E+03	1.493371E-16	1.716182E-16
5.356013E+03	1.492796E-16	1.713164E-16
5.356213E+03	1.493773E-16	1.712199E-16
5.356413E+03	1.494636E-16	1.711229E-16
5.356813E+03	1.494703E-16	1.709232E-16
5.357213E+03	1.494810E-16	1.707236E-16
5.357613E+03	1.494800E-16	1.705234E-16
5.358813E+03	1.491168E-16	1.699105E-16
5.359013E+03	1.491791E-16	1.698126E-16
5.359614E+03	1.490828E-16	1.695086E-16
5.360014E+03	1.490707E-16	1.693079E-16
5.360214E+03	1.491364E-16	1.692100E-16
5.361614E+03	1.486615E-16	1.684929E-16
5.362213E+03	1.485321E-16	1.681881E-16
5.362413E+03	1.485525E-16	1.680886E-16
5.363013E+03	1.484002E-16	1.677829E-16
5.363613E+03	1.482386E-16	1.674768E-16
5.363813E+03	1.482430E-16	1.673768E-16
5.364413E+03	1.480871E-16	1.670709E-16
5.364614E+03	1.481081E-16	1.669708E-16
5.365814E+03	1.476597E-16	1.663545E-16
5.366414E+03	1.474721E-16	1.660475E-16
5.366614E+03	1.474514E-16	1.659466E-16
5.366814E+03	1.474458E-16	1.658461E-16
5.367614E+03	1.471799E-16	1.654362E-16
5.368414E+03	1.469093E-16	1.650262E-16
5.368614E+03	1.468966E-16	1.649254E-16
5.369614E+03	1.465258E-16	1.644118E-16
5.369814E+03	1.465019E-16	1.643106E-16
5.370015E+03	1.464710E-16	1.642088E-16
5.370415E+03	1.463475E-16	1.640041E-16
5.371015E+03	1.461267E-16	1.636960E-16
5.371215E+03	1.460809E-16	1.635941E-16
5.371815E+03	1.458491E-16	1.632856E-16
5.372015E+03	1.457902E-16	1.631834E-16
5.372215E+03	1.457270E-16	1.630810E-16
5.372815E+03	1.454734E-16	1.627718E-16
5.373815E+03	1.450313E-16	1.622559E-16
5.374214E+03	1.448514E-16	1.620495E-16
5.374414E+03	1.447625E-16	1.619463E-16
5.374614E+03	1.446354E-16	1.618420E-16
5.374814E+03	1.445190E-16	1.617379E-16
5.375014E+03	1.443814E-16	1.616333E-16
5.375615E+03	1.440700E-16	1.613221E-16
5.375815E+03	1.439305E-16	1.612174E-16
5.376415E+03	1.436198E-16	1.609067E-16
5.376615E+03	1.434951E-16	1.608026E-16
5.376815E+03	1.433284E-16	1.606971E-16
5.377015E+03	1.431892E-16	1.605925E-16
5.377215E+03	1.430206E-16	1.604871E-16
5.377615E+03	1.427676E-16	1.602789E-16
5.378615E+03	1.422449E-16	1.597617E-16
5.379815E+03	1.416382E-16	1.591420E-16
5.380415E+03	1.412706E-16	1.588303E-16
5.380816E+03	1.410018E-16	1.586216E-16
5.382016E+03	1.403699E-16	1.580024E-16
5.382616E+03	1.400098E-16	1.576916E-16
5.382816E+03	1.398079E-16	1.575857E-16
5.383416E+03	1.394424E-16	1.572753E-16
5.384016E+03	1.390877E-16	1.569653E-16
5.384216E+03	1.388907E-16	1.568597E-16
5.384416E+03	1.386671E-16	1.567534E-16
5.385016E+03	1.382643E-16	1.564428E-16
5.385216E+03	1.380229E-16	1.563364E-16
5.386016E+03	1.375398E-16	1.559239E-16
5.386616E+03	1.371606E-16	1.556137E-16
5.387816E+03	1.364829E-16	1.549984E-16
5.388216E+03	1.361483E-16	1.547904E-16
5.388416E+03	1.358948E-16	1.546841E-16
5.388616E+03	1.356356E-16	1.545776E-16
5.388816E+03	1.353808E-16	1.544717E-16
5.389816E+03	1.348010E-16	1.539605E-16
5.390016E+03	1.345269E-16	1.538541E-16
5.390216E+03	1.342530E-16	1.537477E-16
5.390616E+03	1.339038E-16	1.535408E-16
5.390816E+03	1.336167E-16	1.534344E-16
5.391617E+03	1.330909E-16	1.530250E-16
5.391817E+03	1.328106E-16	1.529189E-16
5.392617E+03	1.322518E-16	1.525107E-16
5.392817E+03	1.319527E-16	1.524046E-16
5.393217E+03	1.315711E-16	1.521979E-16
5.393417E+03	1.312727E-16	1.520918E-16
5.393617E+03	1.309488E-16	1.519855E-16
5.394417E+03	1.304052E-16	1.515796E-16
5.394617E+03	1.301043E-16	1.514740E-16
5.394817E+03	1.297977E-16	1.513682E-16
5.395017E+03	1.294759E-16	1.512625E-16
5.395217E+03	1.291404E-16	1.510169E-16
5.395817E+03	1.286431E-16	1.502569E-16
5.396017E+03	1.282987E-16	1.502040E-16
5.396417E+03	1.278765E-16	1.499155E-16
5.396617E+03	1.275213E-16	1.498958E-16
5.396817E+03	1.271724E-16	1.486644E-16
5.397218E+03	1.267553E-16	1.482406E-16
5.397417E+03	1.264016E-16	1.481869E-16
5.397618E+03	1.260403E-16	1.479243E-16
5.397818E+03	1.256853E-16	1.477926E-16
5.398017E+03	1.253051E-16	1.470859E-16
5.398417E+03	1.248687E-16	1.436811E-16
5.398817E+03	1.244292E-16	1.435973E-16
5.399217E+03	1.239864E-16	1.434588E-16
5.399817E+03	1.234430E-16	1.431436E-16
5.400017E+03	1.230586E-16	1.428639E-16
5.400617E+03	1.225146E-16	1.392169E-16
5.400817E+03	1.221274E-16	1.391694E-16
5.401417E+03	1.215796E-16	1.389262E-16
5.401617E+03	1.211863E-16	1.383422E-16
5.401817E+03	1.207915E-16	1.364743E-16
5.402818E+03	1.200826E-16	1.346958E-16
5.403018E+03	1.196836E-16	1.313115E-16
5.403218E+03	1.192817E-16	1.298723E-16
5.403818E+03	1.187234E-16	1.294966E-16
5.404418E+03	1.181645E-16	1.292795E-16
5.404618E+03	1.177280E-16	1.290288E-16
5.406018E+03	1.168436E-16	1.258605E-16
5.406218E+03	1.164234E-16	1.257442E-16
5.406418E+03	1.159960E-16	1.250883E-16
5.406618E+03	1.155461E-16	1.218510E-16
5.406818E+03	1.151146E-16	1.217582E-16
5.407819E+03	1.143782E-16	1.213323E-16
5.408019E+03	1.139294E-16	1.204598E-16
5.408419E+03	1.134064E-16	1.192369E-16
5.408619E+03	1.129613E-16	1.140320E-16
5.409219E+03	1.123539E-16	1.118268E-16
5.409419E+03	1.118894E-16	1.117634E-16
5.409619E+03	1.114329E-16	1.116965E-16
5.409819E+03	1.109584E-16	1.107547E-16
5.410019E+03	1.104920E-16	1.106268E-16
5.410218E+03	1.100222E-16	1.105158E-16
5.410418E+03	1.095398E-16	1.101432E-16
5.410618E+03	1.090639E-16	1.099489E-16
5.411218E+03	1.084619E-16	1.096490E-16
5.411418E+03	1.079857E-16	1.094328E-16
5.411818E+03	1.074378E-16	1.081399E-16
5.412018E+03	1.069654E-16	1.079944E-16
5.412618E+03	1.063383E-16	1.052583E-16
5.413219E+03	1.057068E-16	1.015658E-16
5.413819E+03	1.050847E-16	9.820274E-17
5.414019E+03	1.045904E-16	9.530469E-17
5.414219E+03	1.040930E-16	9.246901E-17
5.414619E+03	1.035176E-16	8.990450E-17
5.414819E+03	1.030028E-16	8.745967E-17
5.415019E+03	1.025006E-16	8.574114E-17
5.416019E+03	1.017438E-16	8.410441E-17
5.417219E+03	1.009188E-16	8.250595E-17
5.417419E+03	1.004096E-16	8.125178E-17
5.417819E+03	9.984715E-17	8.030925E-17
5.418620E+03	9.915463E-17	7.956752E-17
5.418820E+03	9.864720E-17	7.752029E-17
5.419020E+03	9.812560E-17	7.733465E-17
5.419620E+03	9.748465E-17	7.707053E-17
5.419820E+03	9.697456E-17	7.679099E-17
5.420020E+03	9.646320E-17	7.662681E-17
5.420220E+03	9.593038E-17	7.524374E-17
5.420620E+03	9.533525E-17	7.511712E-17
5.421820E+03	9.452033E-17	7.463947E-17
5.422619E+03	9.381151E-17	7.440958E-17
5.422819E+03	9.327538E-17	7.429748E-17
5.423020E+03	9.273336E-17	7.409686E-17
5.423219E+03	9.218833E-17	7.364154E-17
5.423419E+03	9.165475E-17	7.304458E-17
5.423619E+03	9.111812E-17	7.236278E-17
5.423820E+03	9.057316E-17	7.158742E-17
5.424220E+03	8.999095E-17	7.066278E-17
5.424420E+03	8.944052E-17	6.966988E-17
5.424620E+03	8.888343E-17	6.832894E-17
5.424820E+03	8.832565E-17	6.682407E-17
5.425220E+03	8.771759E-17	6.482524E-17
5.425620E+03	8.711256E-17	6.161406E-17
5.425820E+03	8.655720E-17	6.122934E-17
5.426020E+03	8.600476E-17	6.115500E-17
5.426220E+03	8.545112E-17	6.109835E-17
5.426620E+03	8.484920E-17	5.914687E-17
5.426820E+03	8.429526E-17	5.906823E-17
5.427020E+03	8.374435E-17	5.892022E-17
5.427620E+03	8.309387E-17	5.878204E-17
5.428220E+03	8.244520E-17	5.861272E-17
5.428420E+03	8.187577E-17	5.680988E-17
5.428820E+03	8.126030E-17	5.674050E-17
5.429421E+03	8.060226E-17	5.258843E-17
5.429821E+03	8.000555E-17	5.164345E-17
5.430221E+03	7.940113E-17	4.915046E-17
5.430421E+03	7.884508E-17	4.912219E-17
5.431421E+03	7.809877E-17	4.734391E-17
5.432021E+03	7.743610E-17	4.719098E-17
5.432221E+03	7.685528E-17	4.563174E-17
5.433021E+03	7.615130E-17	4.548468E-17
5.433221E+03	7.557167E-17	4.536166E-17
5.433421E+03	7.499265E-17	4.529689E-17
5.433621E+03	7.441424E-17	4.430966E-17
5.434421E+03	7.371506E-17	4.316289E-17
5.434622E+03	7.314108E-17	4.272425E-17
5.434822E+03	7.256791E-17	4.109326E-17
5.435422E+03	7.191450E-17	4.102562E-17
5.435621E+03	7.134386E-17	4.064756E-17
5.436021E+03	7.073644E-17	4.058243E-17
5.436421E+03	7.012844E-17	4.056814E-17
5.436621E+03	6.956188E-17	4.051879E-17
5.436821E+03	6.899655E-17	4.051397E-17
5.437021E+03	6.843177E-17	4.054480E-17
5.437821E+03	6.774952E-17	4.046859E-17
5.438021E+03	6.717459E-17	4.047744E-17
5.438421E+03	6.655296E-17	4.046201E-17
5.438621E+03	6.596102E-17	4.046767E-17
5.439221E+03	6.531152E-17	4.047554E-17
5.439421E+03	6.471097E-17	4.048295E-17
5.439621E+03	6.411341E-17	4.045744E-17
5.440222E+03	6.344909E-17	4.038739E-17
