#wls	flux	fluxerr
1.600000E+03	1.931665E-16	1.876150E-16
1.640000E+03	2.000178E-16	1.910335E-16
1.680000E+03	2.068059E-16	1.940972E-16
1.720000E+03	2.135098E-16	1.967825E-16
1.760000E+03	2.200409E-16	1.990064E-16
1.800000E+03	2.263628E-16	2.007390E-16
1.840000E+03	2.323916E-16	2.019121E-16
1.880000E+03	2.380759E-16	2.024920E-16
1.920000E+03	2.433373E-16	2.024275E-16
1.960000E+03	2.480915E-16	2.016693E-16
2.000000E+03	2.522136E-16	2.001438E-16
2.040000E+03	2.556154E-16	1.978170E-16
2.080000E+03	2.581916E-16	1.946510E-16
2.120000E+03	2.597930E-16	1.905857E-16
2.160000E+03	2.602869E-16	1.855873E-16
2.200000E+03	2.595165E-16	1.796187E-16
2.240000E+03	2.573455E-16	1.726719E-16
2.280000E+03	2.537336E-16	1.648158E-16
2.320000E+03	2.486989E-16	1.561618E-16
2.360000E+03	2.424056E-16	1.469106E-16
2.400000E+03	2.350008E-16	1.372403E-16
2.440000E+03	2.266176E-16	1.273096E-16
2.480000E+03	2.174070E-16	1.172759E-16
2.520000E+03	2.074868E-16	1.072663E-16
2.560000E+03	1.969615E-16	9.739069E-17
2.600000E+03	1.859652E-16	8.776308E-17
2.640000E+03	1.745989E-16	7.846958E-17
2.680000E+03	1.629867E-16	6.959579E-17
2.720000E+03	1.512365E-16	6.120812E-17
2.760000E+03	1.394803E-16	5.337052E-17
2.800000E+03	1.278343E-16	4.612742E-17
2.840000E+03	1.164247E-16	3.951431E-17
2.880000E+03	1.053749E-16	3.355255E-17
2.920000E+03	9.480097E-17	2.824884E-17
2.960000E+03	8.480712E-17	2.359507E-17
3.000000E+03	7.547885E-17	1.956851E-17
3.010000E+03	7.325792E-17	1.865575E-17
3.020000E+03	7.108402E-17	1.777950E-17
3.030000E+03	6.895585E-17	1.693857E-17
3.040000E+03	6.687669E-17	1.613288E-17
3.050000E+03	6.484508E-17	1.536119E-17
3.060000E+03	6.286115E-17	1.462263E-17
3.070000E+03	6.092494E-17	1.391634E-17
3.080000E+03	5.903893E-17	1.324198E-17
3.090000E+03	5.720044E-17	1.259805E-17
3.100000E+03	5.541167E-17	1.198414E-17
3.110000E+03	5.367119E-17	1.139905E-17
3.120000E+03	5.197978E-17	1.084204E-17
3.130000E+03	5.033707E-17	1.031215E-17
3.140000E+03	4.874267E-17	9.808406E-18
3.150000E+03	4.719620E-17	9.329838E-18
3.160000E+03	4.569807E-17	8.875657E-18
3.170000E+03	4.424692E-17	8.444733E-18
3.180000E+03	4.284302E-17	8.036282E-18
3.190000E+03	4.148574E-17	7.649363E-18
3.200000E+03	4.017439E-17	7.283056E-18
3.210000E+03	3.890894E-17	6.936584E-18
3.220000E+03	3.768726E-17	6.608825E-18
3.230000E+03	3.651051E-17	6.299269E-18
3.240000E+03	3.537594E-17	6.006749E-18
3.250000E+03	3.428447E-17	5.730762E-18
3.260000E+03	3.323402E-17	5.470316E-18
3.270000E+03	3.222421E-17	5.224737E-18
3.280000E+03	3.125406E-17	4.993275E-18
3.290000E+03	3.032212E-17	4.775134E-18
3.300000E+03	2.942834E-17	4.569768E-18
3.310000E+03	2.857080E-17	4.376361E-18
3.320000E+03	2.774855E-17	4.194280E-18
3.330000E+03	2.696141E-17	4.023037E-18
3.340000E+03	2.620757E-17	3.861918E-18
3.350000E+03	2.548609E-17	3.710367E-18
3.360000E+03	2.479600E-17	3.567852E-18
3.370000E+03	2.413671E-17	3.433915E-18
3.380000E+03	2.350659E-17	3.307973E-18
3.390000E+03	2.290475E-17	3.189572E-18
3.400000E+03	2.233061E-17	3.078318E-18
3.410000E+03	2.178298E-17	2.973755E-18
3.420000E+03	2.126098E-17	2.875490E-18
3.430000E+03	2.076323E-17	2.783077E-18
3.440000E+03	2.028922E-17	2.696208E-18
3.450000E+03	1.983817E-17	2.614553E-18
3.460000E+03	1.940881E-17	2.537738E-18
3.470000E+03	1.900046E-17	2.465476E-18
3.480000E+03	1.861222E-17	2.397469E-18
3.490000E+03	1.824367E-17	2.333497E-18
3.500000E+03	1.789356E-17	2.273240E-18
3.510000E+03	1.756153E-17	2.216513E-18
3.520000E+03	1.724665E-17	2.163061E-18
3.530000E+03	1.694822E-17	2.112678E-18
3.540000E+03	1.666561E-17	2.065168E-18
3.550000E+03	1.639801E-17	2.020331E-18
3.560000E+03	1.614503E-17	1.978024E-18
3.570000E+03	1.590578E-17	1.938050E-18
3.580000E+03	1.567976E-17	1.900268E-18
3.590000E+03	1.546665E-17	1.864570E-18
3.600000E+03	1.526583E-17	1.830813E-18
3.610000E+03	1.507687E-17	1.798884E-18
3.620000E+03	1.489920E-17	1.768662E-18
3.630000E+03	1.473229E-17	1.740034E-18
3.640000E+03	1.457580E-17	1.712911E-18
3.650000E+03	1.442911E-17	1.687179E-18
3.660000E+03	1.429204E-17	1.662781E-18
3.670000E+03	1.416404E-17	1.639616E-18
3.680000E+03	1.404484E-17	1.617619E-18
3.690000E+03	1.393431E-17	1.596748E-18
3.700000E+03	1.383195E-17	1.576917E-18
3.710000E+03	1.373752E-17	1.558072E-18
3.720000E+03	1.365105E-17	1.540193E-18
3.730000E+03	1.357219E-17	1.523218E-18
3.740000E+03	1.350072E-17	1.507100E-18
3.750000E+03	1.343666E-17	1.491822E-18
3.760000E+03	1.337965E-17	1.477324E-18
3.770000E+03	1.332961E-17	1.463580E-18
3.780000E+03	1.328653E-17	1.450571E-18
3.790000E+03	1.325021E-17	1.438259E-18
3.800000E+03	1.322052E-17	1.426616E-18
3.810000E+03	1.319736E-17	1.415618E-18
3.820000E+03	1.318063E-17	1.405239E-18
3.830000E+03	1.317034E-17	1.395470E-18
3.840000E+03	1.316628E-17	1.386276E-18
3.850000E+03	1.316846E-17	1.377647E-18
3.860000E+03	1.317690E-17	1.369574E-18
3.870000E+03	1.319138E-17	1.362023E-18
3.880000E+03	1.321183E-17	1.354975E-18
3.890000E+03	1.323836E-17	1.348430E-18
3.900000E+03	1.327087E-17	1.342365E-18
3.910000E+03	1.330917E-17	1.336748E-18
3.920000E+03	1.335336E-17	1.331575E-18
3.930000E+03	1.340346E-17	1.326833E-18
3.940000E+03	1.345913E-17	1.322474E-18
3.950000E+03	1.352049E-17	1.318494E-18
3.960000E+03	1.358751E-17	1.314873E-18
3.970000E+03	1.366008E-17	1.311585E-18
3.980000E+03	1.373794E-17	1.308587E-18
3.990000E+03	1.382130E-17	1.305881E-18
4.000000E+03	1.390988E-17	1.303425E-18
4.010000E+03	1.400354E-17	1.301189E-18
4.020000E+03	1.410234E-17	1.299161E-18
4.030000E+03	1.420601E-17	1.297299E-18
4.040000E+03	1.431460E-17	1.295594E-18
4.050000E+03	1.442771E-17	1.293996E-18
4.060000E+03	1.454552E-17	1.292506E-18
4.070000E+03	1.466775E-17	1.291088E-18
4.080000E+03	1.479421E-17	1.289714E-18
4.090000E+03	1.492497E-17	1.288383E-18
4.100000E+03	1.505963E-17	1.287048E-18
4.110000E+03	1.519837E-17	1.285718E-18
4.120000E+03	1.534079E-17	1.284349E-18
4.130000E+03	1.548683E-17	1.282929E-18
4.140000E+03	1.563647E-17	1.281446E-18
4.150000E+03	1.578942E-17	1.279866E-18
4.160000E+03	1.594563E-17	1.278177E-18
4.170000E+03	1.610496E-17	1.276356E-18
4.180000E+03	1.626711E-17	1.274372E-18
4.190000E+03	1.643220E-17	1.272228E-18
4.200000E+03	1.659982E-17	1.269887E-18
4.210000E+03	1.677007E-17	1.267357E-18
4.220000E+03	1.694253E-17	1.264615E-18
4.230000E+03	1.711719E-17	1.261673E-18
4.240000E+03	1.729389E-17	1.258541E-18
4.250000E+03	1.747218E-17	1.255222E-18
4.260000E+03	1.765219E-17	1.251769E-18
4.270000E+03	1.783360E-17	1.248222E-18
4.280000E+03	1.801610E-17	1.244630E-18
4.290000E+03	1.819937E-17	1.241062E-18
4.300000E+03	1.838338E-17	1.237620E-18
4.310000E+03	1.856797E-17	1.234411E-18
4.320000E+03	1.875249E-17	1.231527E-18
4.330000E+03	1.893709E-17	1.229121E-18
4.340000E+03	1.912113E-17	1.227307E-18
4.350000E+03	1.930476E-17	1.226251E-18
4.360000E+03	1.948749E-17	1.226079E-18
4.370000E+03	1.966934E-17	1.226930E-18
4.380000E+03	1.985032E-17	1.228925E-18
4.390000E+03	2.003049E-17	1.232144E-18
4.400000E+03	2.020988E-17	1.236617E-18
4.410000E+03	2.038866E-17	1.242328E-18
4.420000E+03	2.056705E-17	1.249216E-18
4.430000E+03	2.074511E-17	1.257181E-18
4.440000E+03	2.092310E-17	1.266108E-18
4.450000E+03	2.110093E-17	1.275845E-18
4.460000E+03	2.127906E-17	1.286265E-18
4.470000E+03	2.145742E-17	1.297206E-18
4.480000E+03	2.163612E-17	1.308519E-18
4.490000E+03	2.181528E-17	1.320061E-18
4.500000E+03	2.199502E-17	1.331698E-18
4.510000E+03	2.217546E-17	1.343305E-18
4.520000E+03	2.235673E-17	1.354773E-18
4.530000E+03	2.253857E-17	1.365982E-18
4.540000E+03	2.272149E-17	1.376873E-18
4.550000E+03	2.290524E-17	1.387357E-18
4.560000E+03	2.308995E-17	1.397383E-18
4.570000E+03	2.327555E-17	1.406903E-18
4.580000E+03	2.346238E-17	1.415909E-18
4.590000E+03	2.365037E-17	1.424381E-18
4.600000E+03	2.383924E-17	1.432297E-18
4.610000E+03	2.402954E-17	1.439697E-18
4.620000E+03	2.422098E-17	1.446578E-18
4.630000E+03	2.441346E-17	1.452955E-18
4.640000E+03	2.460733E-17	1.458873E-18
4.650000E+03	2.480272E-17	1.464370E-18
4.660000E+03	2.499910E-17	1.469446E-18
4.670000E+03	2.519705E-17	1.474166E-18
4.680000E+03	2.539647E-17	1.478561E-18
4.690000E+03	2.559729E-17	1.482659E-18
4.700000E+03	2.579967E-17	1.486501E-18
4.710000E+03	2.600354E-17	1.490119E-18
4.720000E+03	2.620912E-17	1.493552E-18
4.730000E+03	2.641590E-17	1.496799E-18
4.740000E+03	2.662416E-17	1.499896E-18
4.750000E+03	2.683422E-17	1.502880E-18
4.760000E+03	2.704540E-17	1.505725E-18
4.770000E+03	2.725827E-17	1.508475E-18
4.780000E+03	2.747267E-17	1.511133E-18
4.790000E+03	2.768840E-17	1.513698E-18
4.800000E+03	2.790604E-17	1.516215E-18
4.810000E+03	2.812484E-17	1.518659E-18
4.820000E+03	2.834564E-17	1.521094E-18
4.830000E+03	2.856764E-17	1.523502E-18
4.840000E+03	2.879139E-17	1.525944E-18
4.850000E+03	2.901631E-17	1.528427E-18
4.860000E+03	2.924296E-17	1.531026E-18
4.870000E+03	2.947074E-17	1.533759E-18
4.880000E+03	2.969991E-17	1.536693E-18
4.890000E+03	2.993045E-17	1.539883E-18
4.900000E+03	3.016204E-17	1.543367E-18
4.910000E+03	3.039464E-17	1.547198E-18
4.920000E+03	3.062822E-17	1.551425E-18
4.930000E+03	3.086307E-17	1.556110E-18
4.940000E+03	3.109855E-17	1.561264E-18
4.950000E+03	3.133525E-17	1.566953E-18
4.960000E+03	3.157254E-17	1.573169E-18
4.970000E+03	3.181071E-17	1.579942E-18
4.980000E+03	3.204939E-17	1.587254E-18
4.990000E+03	3.228853E-17	1.595087E-18
5.000000E+03	3.252804E-17	1.603402E-18
5.010000E+03	3.276813E-17	1.612159E-18
5.020000E+03	3.300800E-17	1.621254E-18
5.030000E+03	3.324780E-17	1.630615E-18
5.040000E+03	3.348696E-17	1.640126E-18
5.050000E+03	3.372557E-17	1.649697E-18
5.060000E+03	3.396300E-17	1.659202E-18
5.070000E+03	3.419858E-17	1.668515E-18
5.080000E+03	3.443229E-17	1.677544E-18
5.090000E+03	3.466371E-17	1.686186E-18
5.100000E+03	3.489208E-17	1.694327E-18
5.110000E+03	3.511656E-17	1.701857E-18
5.120000E+03	3.533734E-17	1.708730E-18
5.130000E+03	3.555317E-17	1.714842E-18
5.140000E+03	3.576349E-17	1.720138E-18
5.150000E+03	3.596771E-17	1.724579E-18
5.160000E+03	3.616525E-17	1.728151E-18
5.170000E+03	3.635515E-17	1.730839E-18
5.180000E+03	3.653719E-17	1.732691E-18
5.190000E+03	3.671005E-17	1.733721E-18
5.200000E+03	3.687352E-17	1.734016E-18
5.210000E+03	3.702626E-17	1.733626E-18
5.220000E+03	3.716842E-17	1.732682E-18
5.230000E+03	3.729862E-17	1.731249E-18
5.240000E+03	3.741658E-17	1.729443E-18
5.250000E+03	3.752087E-17	1.727322E-18
5.260000E+03	3.761114E-17	1.724987E-18
5.270000E+03	3.768665E-17	1.722503E-18
5.280000E+03	3.774587E-17	1.719887E-18
5.290000E+03	3.778802E-17	1.717169E-18
5.300000E+03	3.781269E-17	1.714380E-18
5.310000E+03	3.781871E-17	1.711498E-18
5.320000E+03	3.780498E-17	1.708488E-18
5.330000E+03	3.777076E-17	1.705327E-18
5.340000E+03	3.771543E-17	1.701983E-18
5.350000E+03	3.763841E-17	1.698430E-18
5.360000E+03	3.753887E-17	1.694633E-18
5.370000E+03	3.741684E-17	1.690599E-18
5.380000E+03	3.727177E-17	1.686315E-18
5.390000E+03	3.710402E-17	1.681813E-18
5.400000E+03	3.691341E-17	1.677106E-18
5.410000E+03	3.670111E-17	1.672264E-18
5.420000E+03	3.646816E-17	1.667351E-18
5.430000E+03	3.621513E-17	1.662405E-18
5.440000E+03	3.594431E-17	1.657536E-18
5.450000E+03	3.565712E-17	1.652810E-18
5.460000E+03	3.535385E-17	1.648223E-18
5.470000E+03	3.503750E-17	1.643885E-18
5.480000E+03	3.470947E-17	1.639813E-18
5.490000E+03	3.437138E-17	1.636004E-18
5.500000E+03	3.402529E-17	1.632445E-18
5.510000E+03	3.367297E-17	1.629066E-18
5.520000E+03	3.331626E-17	1.625781E-18
5.530000E+03	3.295773E-17	1.622529E-18
5.540000E+03	3.259930E-17	1.619224E-18
5.550000E+03	3.224388E-17	1.615840E-18
5.560000E+03	3.189403E-17	1.612349E-18
5.570000E+03	3.155190E-17	1.608726E-18
5.580000E+03	3.122021E-17	1.604998E-18
5.590000E+03	3.090125E-17	1.601194E-18
5.600000E+03	3.059714E-17	1.597357E-18
5.610000E+03	3.031013E-17	1.593560E-18
5.620000E+03	3.004192E-17	1.589868E-18
5.630000E+03	2.979400E-17	1.586351E-18
5.640000E+03	2.956783E-17	1.583100E-18
5.650000E+03	2.936434E-17	1.580185E-18
5.660000E+03	2.918443E-17	1.577694E-18
5.670000E+03	2.902842E-17	1.575692E-18
5.680000E+03	2.889635E-17	1.574242E-18
5.690000E+03	2.878832E-17	1.573417E-18
5.700000E+03	2.870391E-17	1.573271E-18
5.710000E+03	2.864248E-17	1.573853E-18
5.720000E+03	2.860357E-17	1.575227E-18
5.730000E+03	2.858630E-17	1.577437E-18
5.740000E+03	2.859003E-17	1.580544E-18
5.750000E+03	2.861351E-17	1.584571E-18
5.760000E+03	2.865644E-17	1.589589E-18
5.770000E+03	2.871772E-17	1.595615E-18
5.780000E+03	2.879663E-17	1.602676E-18
5.790000E+03	2.889323E-17	1.610825E-18
5.800000E+03	2.900648E-17	1.620041E-18
5.810000E+03	2.913668E-17	1.630361E-18
5.820000E+03	2.928367E-17	1.641781E-18
5.830000E+03	2.944733E-17	1.654285E-18
5.840000E+03	2.962731E-17	1.667834E-18
5.850000E+03	2.982426E-17	1.682430E-18
5.860000E+03	3.003790E-17	1.698016E-18
5.870000E+03	3.026860E-17	1.714560E-18
5.880000E+03	3.051643E-17	1.732006E-18
5.890000E+03	3.078109E-17	1.750269E-18
5.900000E+03	3.106296E-17	1.769295E-18
5.910000E+03	3.136241E-17	1.789026E-18
5.920000E+03	3.167873E-17	1.809338E-18
5.930000E+03	3.201221E-17	1.830167E-18
5.940000E+03	3.236275E-17	1.851429E-18
5.950000E+03	3.273056E-17	1.873062E-18
5.960000E+03	3.311470E-17	1.894949E-18
5.970000E+03	3.351566E-17	1.917062E-18
5.980000E+03	3.393238E-17	1.939301E-18
5.990000E+03	3.436486E-17	1.961637E-18
6.000000E+03	3.481270E-17	1.984034E-18
6.010000E+03	3.527503E-17	2.006441E-18
6.020000E+03	3.575175E-17	2.028868E-18
6.030000E+03	3.624144E-17	2.051264E-18
6.040000E+03	3.674432E-17	2.073684E-18
6.050000E+03	3.725841E-17	2.096072E-18
6.060000E+03	3.778382E-17	2.118506E-18
6.070000E+03	3.831885E-17	2.140975E-18
6.080000E+03	3.886305E-17	2.163552E-18
6.090000E+03	3.941457E-17	2.186247E-18
6.100000E+03	3.997235E-17	2.209126E-18
6.110000E+03	4.053481E-17	2.232240E-18
6.120000E+03	4.110073E-17	2.255673E-18
6.130000E+03	4.166787E-17	2.279460E-18
6.140000E+03	4.223434E-17	2.303665E-18
6.150000E+03	4.279873E-17	2.328384E-18
6.160000E+03	4.335906E-17	2.353676E-18
6.170000E+03	4.391226E-17	2.379533E-18
6.180000E+03	4.445685E-17	2.406012E-18
6.190000E+03	4.499088E-17	2.433112E-18
6.200000E+03	4.551307E-17	2.460817E-18
6.210000E+03	4.602293E-17	2.489081E-18
6.220000E+03	4.652012E-17	2.517828E-18
6.230000E+03	4.700512E-17	2.546984E-18
6.240000E+03	4.747975E-17	2.576531E-18
6.250000E+03	4.794426E-17	2.606343E-18
6.260000E+03	4.839837E-17	2.636264E-18
6.270000E+03	4.884440E-17	2.666274E-18
6.280000E+03	4.928293E-17	2.696265E-18
6.290000E+03	4.971329E-17	2.726065E-18
6.300000E+03	5.013814E-17	2.755696E-18
6.310000E+03	5.055627E-17	2.784975E-18
6.320000E+03	5.096980E-17	2.813916E-18
6.330000E+03	5.137822E-17	2.842399E-18
6.340000E+03	5.178241E-17	2.870392E-18
6.350000E+03	5.218253E-17	2.897835E-18
6.360000E+03	5.257880E-17	2.924683E-18
6.370000E+03	5.297140E-17	2.950900E-18
6.380000E+03	5.335975E-17	2.976422E-18
6.390000E+03	5.374326E-17	3.001190E-18
6.400000E+03	5.412280E-17	3.025241E-18
6.410000E+03	5.449693E-17	3.048491E-18
6.420000E+03	5.486651E-17	3.070995E-18
6.430000E+03	5.523083E-17	3.092728E-18
6.440000E+03	5.558994E-17	3.113714E-18
6.450000E+03	5.594474E-17	3.134030E-18
6.460000E+03	5.629701E-17	3.153805E-18
6.470000E+03	5.664695E-17	3.173083E-18
6.480000E+03	5.699562E-17	3.191955E-18
6.490000E+03	5.734416E-17	3.210512E-18
6.500000E+03	5.769199E-17	3.228749E-18
6.510000E+03	5.804116E-17	3.246804E-18
6.520000E+03	5.839202E-17	3.264715E-18
6.530000E+03	5.874399E-17	3.282464E-18
6.540000E+03	5.909920E-17	3.300182E-18
6.550000E+03	5.945708E-17	3.317844E-18
6.560000E+03	5.981699E-17	3.335418E-18
6.570000E+03	6.018109E-17	3.353028E-18
6.580000E+03	6.054874E-17	3.370636E-18
6.590000E+03	6.092021E-17	3.388255E-18
6.600000E+03	6.129677E-17	3.405949E-18
6.610000E+03	6.167668E-17	3.423615E-18
6.620000E+03	6.206012E-17	3.441259E-18
6.630000E+03	6.244931E-17	3.458994E-18
6.640000E+03	6.284236E-17	3.476709E-18
6.650000E+03	6.323935E-17	3.494401E-18
6.660000E+03	6.364138E-17	3.512127E-18
6.670000E+03	6.404743E-17	3.529824E-18
6.680000E+03	6.445744E-17	3.547489E-18
6.690000E+03	6.487245E-17	3.565177E-18
6.700000E+03	6.529015E-17	3.582766E-18
6.710000E+03	6.571038E-17	3.600252E-18
6.720000E+03	6.613523E-17	3.617754E-18
6.730000E+03	6.656221E-17	3.635146E-18
6.740000E+03	6.699108E-17	3.652419E-18
6.750000E+03	6.742272E-17	3.669626E-18
6.760000E+03	6.785568E-17	3.686685E-18
6.770000E+03	6.828962E-17	3.703570E-18
6.780000E+03	6.872417E-17	3.720250E-18
6.790000E+03	6.915898E-17	3.736681E-18
6.800000E+03	6.959240E-17	3.752746E-18
6.810000E+03	7.002526E-17	3.768452E-18
6.820000E+03	7.045717E-17	3.783731E-18
6.830000E+03	7.088641E-17	3.798437E-18
6.840000E+03	7.131385E-17	3.812559E-18
6.850000E+03	7.173774E-17	3.825940E-18
6.860000E+03	7.215767E-17	3.838492E-18
6.870000E+03	7.257318E-17	3.850130E-18
6.880000E+03	7.298253E-17	3.860706E-18
6.890000E+03	7.338803E-17	3.870297E-18
6.900000E+03	7.378796E-17	3.878781E-18
6.910000E+03	7.418058E-17	3.886048E-18
6.920000E+03	7.456692E-17	3.892151E-18
6.930000E+03	7.494526E-17	3.897013E-18
6.940000E+03	7.531523E-17	3.900642E-18
6.950000E+03	7.567794E-17	3.903130E-18
6.960000E+03	7.603165E-17	3.904434E-18
6.970000E+03	7.637604E-17	3.904592E-18
6.980000E+03	7.671081E-17	3.903648E-18
6.990000E+03	7.703571E-17	3.901654E-18
7.000000E+03	7.734899E-17	3.898594E-18
7.010000E+03	7.765346E-17	3.894680E-18
7.020000E+03	7.794594E-17	3.889829E-18
7.030000E+03	7.822631E-17	3.884110E-18
7.040000E+03	7.849602E-17	3.877670E-18
7.050000E+03	7.875350E-17	3.870504E-18
7.060000E+03	7.899878E-17	3.862679E-18
7.070000E+03	7.923195E-17	3.854260E-18
7.080000E+03	7.945316E-17	3.845305E-18
7.090000E+03	7.966423E-17	3.835941E-18
7.100000E+03	7.986230E-17	3.826059E-18
7.110000E+03	8.004773E-17	3.815688E-18
7.120000E+03	8.022260E-17	3.804924E-18
7.130000E+03	8.038746E-17	3.793774E-18
7.140000E+03	8.054132E-17	3.782152E-18
7.150000E+03	8.068651E-17	3.770112E-18
7.160000E+03	8.082051E-17	3.757464E-18
7.170000E+03	8.094741E-17	3.744315E-18
7.180000E+03	8.106646E-17	3.730534E-18
7.190000E+03	8.117854E-17	3.716059E-18
7.200000E+03	8.128293E-17	3.700748E-18
7.210000E+03	8.138394E-17	3.684690E-18
7.220000E+03	8.147916E-17	3.667669E-18
7.230000E+03	8.157120E-17	3.649702E-18
7.240000E+03	8.165920E-17	3.630662E-18
7.250000E+03	8.174565E-17	3.610580E-18
7.260000E+03	8.182947E-17	3.589351E-18
7.270000E+03	8.191116E-17	3.566956E-18
7.280000E+03	8.199277E-17	3.543467E-18
7.290000E+03	8.207272E-17	3.518822E-18
7.300000E+03	8.215274E-17	3.493122E-18
7.310000E+03	8.222912E-17	3.466263E-18
7.320000E+03	8.230326E-17	3.438377E-18
7.330000E+03	8.237643E-17	3.409614E-18
7.340000E+03	8.244454E-17	3.379921E-18
7.350000E+03	8.250870E-17	3.349492E-18
7.360000E+03	8.256647E-17	3.318401E-18
7.370000E+03	8.261897E-17	3.286907E-18
7.380000E+03	8.266381E-17	3.255171E-18
7.390000E+03	8.270044E-17	3.223484E-18
7.400000E+03	8.272845E-17	3.192205E-18
7.410000E+03	8.274572E-17	3.161704E-18
7.420000E+03	8.275209E-17	3.132506E-18
7.430000E+03	8.274755E-17	3.105233E-18
7.440000E+03	8.273228E-17	3.080601E-18
7.450000E+03	8.270844E-17	3.059479E-18
7.460000E+03	8.267468E-17	3.042664E-18
7.470000E+03	8.263532E-17	3.031189E-18
7.480000E+03	8.259111E-17	3.025924E-18
7.490000E+03	8.254287E-17	3.027636E-18
7.500000E+03	8.249146E-17	3.036890E-18
7.510000E+03	8.243768E-17	3.053955E-18
7.520000E+03	8.238577E-17	3.078794E-18
7.530000E+03	8.233195E-17	3.110606E-18
7.540000E+03	8.227796E-17	3.148466E-18
7.550000E+03	8.222360E-17	3.191142E-18
7.560000E+03	8.217055E-17	3.237341E-18
7.570000E+03	8.211481E-17	3.285503E-18
7.580000E+03	8.205811E-17	3.334331E-18
7.590000E+03	8.200038E-17	3.382562E-18
7.600000E+03	8.194353E-17	3.429178E-18
7.610000E+03	8.188375E-17	3.473130E-18
7.620000E+03	8.182501E-17	3.513916E-18
7.630000E+03	8.176557E-17	3.551028E-18
7.640000E+03	8.170369E-17	3.584179E-18
7.650000E+03	8.164354E-17	3.613547E-18
7.660000E+03	8.158347E-17	3.639234E-18
7.670000E+03	8.152382E-17	3.661574E-18
7.680000E+03	8.146491E-17	3.681005E-18
7.690000E+03	8.140704E-17	3.698030E-18
7.700000E+03	8.135048E-17	3.713182E-18
7.710000E+03	8.129741E-17	3.727081E-18
7.720000E+03	8.124403E-17	3.740049E-18
7.730000E+03	8.119435E-17	3.752726E-18
7.740000E+03	8.114638E-17	3.765424E-18
7.750000E+03	8.110002E-17	3.778481E-18
7.760000E+03	8.105511E-17	3.792175E-18
