#wls	flux	fluxerr
1.600000E+03	1.519538E-16	1.479502E-16
1.640000E+03	1.572147E-16	1.505262E-16
1.680000E+03	1.624482E-16	1.528473E-16
1.720000E+03	1.676425E-16	1.548982E-16
1.760000E+03	1.727331E-16	1.566167E-16
1.800000E+03	1.776966E-16	1.579822E-16
1.840000E+03	1.824725E-16	1.589435E-16
1.880000E+03	1.870252E-16	1.594760E-16
1.920000E+03	1.912981E-16	1.595406E-16
1.960000E+03	1.952296E-16	1.590992E-16
2.000000E+03	1.987251E-16	1.580930E-16
2.040000E+03	2.017180E-16	1.564937E-16
2.080000E+03	2.041272E-16	1.542685E-16
2.120000E+03	2.058349E-16	1.513654E-16
2.160000E+03	2.067341E-16	1.477518E-16
2.200000E+03	2.066963E-16	1.433906E-16
2.240000E+03	2.056058E-16	1.382658E-16
2.280000E+03	2.034202E-16	1.324217E-16
2.320000E+03	2.001414E-16	1.259354E-16
2.360000E+03	1.958866E-16	1.189562E-16
2.400000E+03	1.907588E-16	1.116162E-16
2.440000E+03	1.848492E-16	1.040329E-16
2.480000E+03	1.782636E-16	9.632409E-17
2.520000E+03	1.710808E-16	8.858489E-17
2.560000E+03	1.633690E-16	8.089793E-17
2.600000E+03	1.552212E-16	7.335118E-17
2.640000E+03	1.467039E-16	6.601179E-17
2.680000E+03	1.379043E-16	5.894875E-17
2.720000E+03	1.288980E-16	5.221729E-17
2.760000E+03	1.197831E-16	4.587304E-17
2.800000E+03	1.106474E-16	3.995744E-17
2.840000E+03	1.015908E-16	3.450647E-17
2.880000E+03	9.271502E-17	2.954603E-17
2.920000E+03	8.412031E-17	2.509094E-17
2.960000E+03	7.590117E-17	2.114431E-17
3.000000E+03	6.814051E-17	1.769701E-17
3.010000E+03	6.627955E-17	1.691085E-17
3.020000E+03	6.445298E-17	1.615437E-17
3.030000E+03	6.265982E-17	1.542667E-17
3.040000E+03	6.090326E-17	1.472786E-17
3.050000E+03	5.918223E-17	1.405699E-17
3.060000E+03	5.749706E-17	1.341343E-17
3.070000E+03	5.584804E-17	1.279656E-17
3.080000E+03	5.423769E-17	1.220623E-17
3.090000E+03	5.266382E-17	1.164124E-17
3.100000E+03	5.112872E-17	1.110136E-17
3.110000E+03	4.963132E-17	1.058564E-17
3.120000E+03	4.817260E-17	1.009356E-17
3.130000E+03	4.675246E-17	9.624357E-18
3.140000E+03	4.537077E-17	9.177292E-18
3.150000E+03	4.402736E-17	8.751610E-18
3.160000E+03	4.272286E-17	8.346719E-18
3.170000E+03	4.145619E-17	7.961704E-18
3.180000E+03	4.022783E-17	7.595968E-18
3.190000E+03	3.903741E-17	7.248760E-18
3.200000E+03	3.788455E-17	6.919341E-18
3.210000E+03	3.676943E-17	6.607097E-18
3.220000E+03	3.569030E-17	6.311081E-18
3.230000E+03	3.464850E-17	6.030920E-18
3.240000E+03	3.364167E-17	5.765607E-18
3.250000E+03	3.267095E-17	5.514765E-18
3.260000E+03	3.173460E-17	5.277542E-18
3.270000E+03	3.083252E-17	5.053389E-18
3.280000E+03	2.996400E-17	4.841679E-18
3.290000E+03	2.912791E-17	4.641733E-18
3.300000E+03	2.832445E-17	4.453112E-18
3.310000E+03	2.755200E-17	4.275109E-18
3.320000E+03	2.680988E-17	4.107188E-18
3.330000E+03	2.609816E-17	3.948948E-18
3.340000E+03	2.541529E-17	3.799765E-18
3.350000E+03	2.476056E-17	3.659162E-18
3.360000E+03	2.413327E-17	3.526682E-18
3.370000E+03	2.353301E-17	3.401935E-18
3.380000E+03	2.295840E-17	3.284404E-18
3.390000E+03	2.240877E-17	3.173698E-18
3.400000E+03	2.188371E-17	3.069482E-18
3.410000E+03	2.138225E-17	2.971352E-18
3.420000E+03	2.090371E-17	2.878970E-18
3.430000E+03	2.044691E-17	2.791938E-18
3.440000E+03	2.001150E-17	2.709995E-18
3.450000E+03	1.959686E-17	2.632854E-18
3.460000E+03	1.920192E-17	2.560178E-18
3.470000E+03	1.882613E-17	2.491721E-18
3.480000E+03	1.846873E-17	2.427217E-18
3.490000E+03	1.812945E-17	2.366477E-18
3.500000E+03	1.780714E-17	2.309209E-18
3.510000E+03	1.750156E-17	2.255253E-18
3.520000E+03	1.721189E-17	2.204379E-18
3.530000E+03	1.693752E-17	2.156399E-18
3.540000E+03	1.667790E-17	2.111138E-18
3.550000E+03	1.643231E-17	2.068413E-18
3.560000E+03	1.620045E-17	2.028095E-18
3.570000E+03	1.598149E-17	1.990003E-18
3.580000E+03	1.577500E-17	1.954010E-18
3.590000E+03	1.558075E-17	1.920017E-18
3.600000E+03	1.539816E-17	1.887895E-18
3.610000E+03	1.522688E-17	1.857540E-18
3.620000E+03	1.506640E-17	1.828840E-18
3.630000E+03	1.491624E-17	1.801689E-18
3.640000E+03	1.477610E-17	1.776007E-18
3.650000E+03	1.464540E-17	1.751685E-18
3.660000E+03	1.452404E-17	1.728672E-18
3.670000E+03	1.441147E-17	1.706871E-18
3.680000E+03	1.430746E-17	1.686224E-18
3.690000E+03	1.421192E-17	1.666692E-18
3.700000E+03	1.412437E-17	1.648189E-18
3.710000E+03	1.404460E-17	1.630669E-18
3.720000E+03	1.397266E-17	1.614115E-18
3.730000E+03	1.390824E-17	1.598466E-18
3.740000E+03	1.385111E-17	1.583680E-18
3.750000E+03	1.380135E-17	1.569744E-18
3.760000E+03	1.375863E-17	1.556603E-18
3.770000E+03	1.372288E-17	1.544233E-18
3.780000E+03	1.369415E-17	1.532622E-18
3.790000E+03	1.367223E-17	1.521734E-18
3.800000E+03	1.365706E-17	1.511544E-18
3.810000E+03	1.364855E-17	1.502031E-18
3.820000E+03	1.364663E-17	1.493173E-18
3.830000E+03	1.365134E-17	1.484960E-18
3.840000E+03	1.366249E-17	1.477360E-18
3.850000E+03	1.368011E-17	1.470362E-18
3.860000E+03	1.370424E-17	1.463960E-18
3.870000E+03	1.373469E-17	1.458118E-18
3.880000E+03	1.377136E-17	1.452817E-18
3.890000E+03	1.381442E-17	1.448057E-18
3.900000E+03	1.386377E-17	1.443818E-18
3.910000E+03	1.391922E-17	1.440063E-18
3.920000E+03	1.398090E-17	1.436793E-18
3.930000E+03	1.404884E-17	1.433995E-18
3.940000E+03	1.412270E-17	1.431621E-18
3.950000E+03	1.420261E-17	1.429666E-18
3.960000E+03	1.428858E-17	1.428117E-18
3.970000E+03	1.438050E-17	1.426943E-18
3.980000E+03	1.447812E-17	1.426106E-18
3.990000E+03	1.458167E-17	1.425611E-18
4.000000E+03	1.469091E-17	1.425414E-18
4.010000E+03	1.480568E-17	1.425487E-18
4.020000E+03	1.492608E-17	1.425820E-18
4.030000E+03	1.505185E-17	1.426372E-18
4.040000E+03	1.518305E-17	1.427134E-18
4.050000E+03	1.531930E-17	1.428052E-18
4.060000E+03	1.546078E-17	1.429130E-18
4.070000E+03	1.560720E-17	1.430326E-18
4.080000E+03	1.575838E-17	1.431610E-18
4.090000E+03	1.591439E-17	1.432975E-18
4.100000E+03	1.607478E-17	1.434370E-18
4.110000E+03	1.623976E-17	1.435801E-18
4.120000E+03	1.640886E-17	1.437217E-18
4.130000E+03	1.658201E-17	1.438603E-18
4.140000E+03	1.675915E-17	1.439945E-18
4.150000E+03	1.693991E-17	1.441206E-18
4.160000E+03	1.712422E-17	1.442376E-18
4.170000E+03	1.731186E-17	1.443434E-18
4.180000E+03	1.750245E-17	1.444351E-18
4.190000E+03	1.769604E-17	1.445135E-18
4.200000E+03	1.789209E-17	1.445756E-18
4.210000E+03	1.809063E-17	1.446230E-18
4.220000E+03	1.829111E-17	1.446540E-18
4.230000E+03	1.849339E-17	1.446704E-18
4.240000E+03	1.869719E-17	1.446744E-18
4.250000E+03	1.890190E-17	1.446662E-18
4.260000E+03	1.910750E-17	1.446520E-18
4.270000E+03	1.931352E-17	1.446356E-18
4.280000E+03	1.951945E-17	1.446217E-18
4.290000E+03	1.972478E-17	1.446161E-18
4.300000E+03	1.992930E-17	1.446279E-18
4.310000E+03	2.013262E-17	1.446660E-18
4.320000E+03	2.033388E-17	1.447363E-18
4.330000E+03	2.053299E-17	1.448509E-18
4.340000E+03	2.072906E-17	1.450160E-18
4.350000E+03	2.092202E-17	1.452433E-18
4.360000E+03	2.111114E-17	1.455389E-18
4.370000E+03	2.129623E-17	1.459109E-18
4.380000E+03	2.147714E-17	1.463657E-18
4.390000E+03	2.165376E-17	1.469071E-18
4.400000E+03	2.182608E-17	1.475365E-18
4.410000E+03	2.199429E-17	1.482539E-18
4.420000E+03	2.215870E-17	1.490566E-18
4.430000E+03	2.231946E-17	1.499383E-18
4.440000E+03	2.247695E-17	1.508924E-18
4.450000E+03	2.263121E-17	1.519080E-18
4.460000E+03	2.278288E-17	1.529771E-18
4.470000E+03	2.293202E-17	1.540875E-18
4.480000E+03	2.307892E-17	1.552278E-18
4.490000E+03	2.322386E-17	1.563870E-18
4.500000E+03	2.336713E-17	1.575546E-18
4.510000E+03	2.350901E-17	1.587209E-18
4.520000E+03	2.364980E-17	1.598769E-18
4.530000E+03	2.378938E-17	1.610120E-18
4.540000E+03	2.392844E-17	1.621225E-18
4.550000E+03	2.406686E-17	1.632000E-18
4.560000E+03	2.420490E-17	1.642403E-18
4.570000E+03	2.434263E-17	1.652389E-18
4.580000E+03	2.448052E-17	1.661954E-18
4.590000E+03	2.461864E-17	1.671074E-18
4.600000E+03	2.475680E-17	1.679722E-18
4.610000E+03	2.489569E-17	1.687936E-18
4.620000E+03	2.503512E-17	1.695704E-18
4.630000E+03	2.517511E-17	1.703036E-18
4.640000E+03	2.531613E-17	1.709974E-18
4.650000E+03	2.545841E-17	1.716554E-18
4.660000E+03	2.560151E-17	1.722764E-18
4.670000E+03	2.574613E-17	1.728676E-18
4.680000E+03	2.589229E-17	1.734316E-18
4.690000E+03	2.603999E-17	1.739709E-18
4.700000E+03	2.618949E-17	1.744899E-18
4.710000E+03	2.634081E-17	1.749913E-18
4.720000E+03	2.649423E-17	1.754793E-18
4.730000E+03	2.664928E-17	1.759533E-18
4.740000E+03	2.680627E-17	1.764174E-18
4.750000E+03	2.696547E-17	1.768755E-18
4.760000E+03	2.712620E-17	1.773250E-18
4.770000E+03	2.728899E-17	1.777714E-18
4.780000E+03	2.745364E-17	1.782152E-18
4.790000E+03	2.761992E-17	1.786568E-18
4.800000E+03	2.778840E-17	1.791016E-18
4.810000E+03	2.795831E-17	1.795468E-18
4.820000E+03	2.813047E-17	1.799997E-18
4.830000E+03	2.830408E-17	1.804575E-18
4.840000E+03	2.847967E-17	1.809262E-18
4.850000E+03	2.865670E-17	1.814049E-18
4.860000E+03	2.883569E-17	1.818998E-18
4.870000E+03	2.901606E-17	1.824102E-18
4.880000E+03	2.919807E-17	1.829408E-18
4.890000E+03	2.938166E-17	1.834943E-18
4.900000E+03	2.956652E-17	1.840715E-18
4.910000E+03	2.975259E-17	1.846750E-18
4.920000E+03	2.993982E-17	1.853069E-18
4.930000E+03	3.012842E-17	1.859707E-18
4.940000E+03	3.031775E-17	1.866641E-18
4.950000E+03	3.050833E-17	1.873914E-18
4.960000E+03	3.069947E-17	1.881490E-18
4.970000E+03	3.089136E-17	1.889379E-18
4.980000E+03	3.108361E-17	1.897546E-18
4.990000E+03	3.127608E-17	1.905965E-18
5.000000E+03	3.146860E-17	1.914603E-18
5.010000E+03	3.166133E-17	1.923434E-18
5.020000E+03	3.185346E-17	1.932369E-18
5.030000E+03	3.204506E-17	1.941368E-18
5.040000E+03	3.223557E-17	1.950345E-18
5.050000E+03	3.242505E-17	1.959250E-18
5.060000E+03	3.261286E-17	1.967990E-18
5.070000E+03	3.279835E-17	1.976468E-18
5.080000E+03	3.298148E-17	1.984628E-18
5.090000E+03	3.316186E-17	1.992395E-18
5.100000E+03	3.333875E-17	1.999678E-18
5.110000E+03	3.351138E-17	2.006389E-18
5.120000E+03	3.367994E-17	2.012506E-18
5.130000E+03	3.384329E-17	2.017935E-18
5.140000E+03	3.400091E-17	2.022627E-18
5.150000E+03	3.415228E-17	2.026547E-18
5.160000E+03	3.429688E-17	2.029666E-18
5.170000E+03	3.443381E-17	2.031946E-18
5.180000E+03	3.456287E-17	2.033401E-18
5.190000E+03	3.468280E-17	2.033992E-18
5.200000E+03	3.479338E-17	2.033750E-18
5.210000E+03	3.489334E-17	2.032655E-18
5.220000E+03	3.498279E-17	2.030769E-18
5.230000E+03	3.506045E-17	2.028081E-18
5.240000E+03	3.512607E-17	2.024641E-18
5.250000E+03	3.517836E-17	2.020439E-18
5.260000E+03	3.521706E-17	2.015526E-18
5.270000E+03	3.524159E-17	2.009929E-18
5.280000E+03	3.525066E-17	2.003634E-18
5.290000E+03	3.524371E-17	1.996664E-18
5.300000E+03	3.522054E-17	1.989060E-18
5.310000E+03	3.518031E-17	1.980822E-18
5.320000E+03	3.512221E-17	1.971951E-18
5.330000E+03	3.504586E-17	1.962471E-18
5.340000E+03	3.495094E-17	1.952409E-18
5.350000E+03	3.483723E-17	1.941797E-18
5.360000E+03	3.470424E-17	1.930655E-18
5.370000E+03	3.455232E-17	1.919051E-18
5.380000E+03	3.438124E-17	1.907023E-18
5.390000E+03	3.419161E-17	1.894655E-18
5.400000E+03	3.398350E-17	1.882003E-18
5.410000E+03	3.375814E-17	1.869185E-18
5.420000E+03	3.351661E-17	1.856305E-18
5.430000E+03	3.325944E-17	1.843433E-18
5.440000E+03	3.298869E-17	1.830713E-18
5.450000E+03	3.270553E-17	1.818230E-18
5.460000E+03	3.241003E-17	1.805992E-18
5.470000E+03	3.210467E-17	1.794126E-18
5.480000E+03	3.179047E-17	1.782656E-18
5.490000E+03	3.146859E-17	1.771592E-18
5.500000E+03	3.114068E-17	1.760950E-18
5.510000E+03	3.080817E-17	1.750712E-18
5.520000E+03	3.047262E-17	1.740852E-18
5.530000E+03	3.013621E-17	1.731366E-18
5.540000E+03	2.980056E-17	1.722216E-18
5.550000E+03	2.946812E-17	1.713411E-18
5.560000E+03	2.914100E-17	1.704944E-18
5.570000E+03	2.882091E-17	1.696797E-18
5.580000E+03	2.851002E-17	1.688990E-18
5.590000E+03	2.821006E-17	1.681531E-18
5.600000E+03	2.792264E-17	1.674434E-18
5.610000E+03	2.764944E-17	1.667737E-18
5.620000E+03	2.739170E-17	1.661464E-18
5.630000E+03	2.715046E-17	1.655641E-18
5.640000E+03	2.692686E-17	1.650314E-18
5.650000E+03	2.672155E-17	1.645513E-18
5.660000E+03	2.653528E-17	1.641283E-18
5.670000E+03	2.636834E-17	1.637653E-18
5.680000E+03	2.622084E-17	1.634648E-18
5.690000E+03	2.609302E-17	1.632308E-18
5.700000E+03	2.598470E-17	1.630653E-18
5.710000E+03	2.589560E-17	1.629699E-18
5.720000E+03	2.582558E-17	1.629479E-18
5.730000E+03	2.577420E-17	1.630001E-18
5.740000E+03	2.574121E-17	1.631291E-18
5.750000E+03	2.572580E-17	1.633335E-18
5.760000E+03	2.572797E-17	1.636168E-18
5.770000E+03	2.574692E-17	1.639768E-18
5.780000E+03	2.578215E-17	1.644128E-18
5.790000E+03	2.583374E-17	1.649272E-18
5.800000E+03	2.590071E-17	1.655148E-18
5.810000E+03	2.598326E-17	1.661771E-18
5.820000E+03	2.608105E-17	1.669115E-18
5.830000E+03	2.619383E-17	1.677150E-18
5.840000E+03	2.632106E-17	1.685821E-18
5.850000E+03	2.646312E-17	1.695126E-18
5.860000E+03	2.661955E-17	1.705001E-18
5.870000E+03	2.679050E-17	1.715414E-18
5.880000E+03	2.697583E-17	1.726313E-18
5.890000E+03	2.717514E-17	1.737622E-18
5.900000E+03	2.738859E-17	1.749300E-18
5.910000E+03	2.761638E-17	1.761306E-18
5.920000E+03	2.785777E-17	1.773539E-18
5.930000E+03	2.811293E-17	1.785958E-18
5.940000E+03	2.838170E-17	1.798503E-18
5.950000E+03	2.866424E-17	1.811141E-18
5.960000E+03	2.895972E-17	1.823780E-18
5.970000E+03	2.926857E-17	1.836418E-18
5.980000E+03	2.958990E-17	1.848979E-18
5.990000E+03	2.992379E-17	1.861459E-18
6.000000E+03	3.026994E-17	1.873844E-18
6.010000E+03	3.062769E-17	1.886111E-18
6.020000E+03	3.099706E-17	1.898294E-18
6.030000E+03	3.137695E-17	1.910375E-18
6.040000E+03	3.176767E-17	1.922440E-18
6.050000E+03	3.216767E-17	1.934480E-18
6.060000E+03	3.257720E-17	1.946614E-18
6.070000E+03	3.299498E-17	1.958886E-18
6.080000E+03	3.342082E-17	1.971426E-18
6.090000E+03	3.385329E-17	1.984308E-18
6.100000E+03	3.429173E-17	1.997667E-18
6.110000E+03	3.473497E-17	2.011627E-18
6.120000E+03	3.518222E-17	2.026343E-18
6.130000E+03	3.563180E-17	2.041926E-18
6.140000E+03	3.608234E-17	2.058512E-18
6.150000E+03	3.653291E-17	2.076255E-18
6.160000E+03	3.698206E-17	2.095272E-18
6.170000E+03	3.742745E-17	2.115609E-18
6.180000E+03	3.786806E-17	2.137358E-18
6.190000E+03	3.830244E-17	2.160553E-18
6.200000E+03	3.872970E-17	2.185210E-18
6.210000E+03	3.914952E-17	2.211335E-18
6.220000E+03	3.956171E-17	2.238893E-18
6.230000E+03	3.996669E-17	2.267839E-18
6.240000E+03	4.036603E-17	2.298164E-18
6.250000E+03	4.075992E-17	2.329748E-18
6.260000E+03	4.114806E-17	2.362424E-18
6.270000E+03	4.153236E-17	2.396136E-18
6.280000E+03	4.191320E-17	2.430733E-18
6.290000E+03	4.228990E-17	2.465999E-18
6.300000E+03	4.266459E-17	2.501884E-18
6.310000E+03	4.303607E-17	2.538147E-18
6.320000E+03	4.340599E-17	2.574724E-18
6.330000E+03	4.377374E-17	2.611424E-18
6.340000E+03	4.413986E-17	2.648141E-18
6.350000E+03	4.450433E-17	2.684745E-18
6.360000E+03	4.486712E-17	2.721118E-18
6.370000E+03	4.522818E-17	2.757157E-18
6.380000E+03	4.558683E-17	2.792732E-18
6.390000E+03	4.594237E-17	2.827725E-18
6.400000E+03	4.629534E-17	2.862107E-18
6.410000E+03	4.664434E-17	2.895741E-18
6.420000E+03	4.698993E-17	2.928624E-18
6.430000E+03	4.733132E-17	2.960677E-18
6.440000E+03	4.766841E-17	2.991875E-18
6.450000E+03	4.800178E-17	3.022245E-18
6.460000E+03	4.833280E-17	3.051869E-18
6.470000E+03	4.866148E-17	3.080752E-18
6.480000E+03	4.898853E-17	3.108947E-18
6.490000E+03	4.931477E-17	3.136518E-18
6.500000E+03	4.963950E-17	3.163437E-18
6.510000E+03	4.996433E-17	3.189822E-18
6.520000E+03	5.028937E-17	3.215698E-18
6.530000E+03	5.061397E-17	3.241042E-18
6.540000E+03	5.093982E-17	3.265981E-18
6.550000E+03	5.126626E-17	3.290490E-18
6.560000E+03	5.159261E-17	3.314544E-18
6.570000E+03	5.192062E-17	3.338270E-18
6.580000E+03	5.224958E-17	3.361641E-18
6.590000E+03	5.257960E-17	3.384676E-18
6.600000E+03	5.291165E-17	3.407452E-18
6.610000E+03	5.324409E-17	3.429878E-18
6.620000E+03	5.357696E-17	3.451967E-18
6.630000E+03	5.391207E-17	3.473848E-18
6.640000E+03	5.424766E-17	3.495420E-18
6.650000E+03	5.458371E-17	3.516692E-18
6.660000E+03	5.492111E-17	3.537731E-18
6.670000E+03	5.525888E-17	3.558485E-18
6.680000E+03	5.559693E-17	3.578959E-18
6.690000E+03	5.593608E-17	3.599216E-18
6.700000E+03	5.627431E-17	3.619135E-18
6.710000E+03	5.661141E-17	3.638712E-18
6.720000E+03	5.694914E-17	3.658068E-18
6.730000E+03	5.728533E-17	3.677070E-18
6.740000E+03	5.761972E-17	3.695707E-18
6.750000E+03	5.795304E-17	3.714028E-18
6.760000E+03	5.828400E-17	3.731951E-18
6.770000E+03	5.861229E-17	3.749451E-18
6.780000E+03	5.893759E-17	3.766500E-18
6.790000E+03	5.925955E-17	3.783066E-18
6.800000E+03	5.957676E-17	3.799043E-18
6.810000E+03	5.988992E-17	3.814459E-18
6.820000E+03	6.019867E-17	3.829268E-18
6.830000E+03	6.050155E-17	3.843353E-18
6.840000E+03	6.079929E-17	3.856735E-18
6.850000E+03	6.109042E-17	3.869294E-18
6.860000E+03	6.137456E-17	3.880979E-18
6.870000E+03	6.165135E-17	3.891743E-18
6.880000E+03	6.191928E-17	3.901469E-18
6.890000E+03	6.218030E-17	3.910262E-18
6.900000E+03	6.243297E-17	3.918016E-18
6.910000E+03	6.267579E-17	3.924630E-18
6.920000E+03	6.290963E-17	3.930157E-18
6.930000E+03	6.313304E-17	3.934507E-18
6.940000E+03	6.334574E-17	3.937672E-18
6.950000E+03	6.354871E-17	3.939728E-18
6.960000E+03	6.374051E-17	3.940602E-18
6.970000E+03	6.392096E-17	3.940305E-18
6.980000E+03	6.408990E-17	3.938851E-18
6.990000E+03	6.424720E-17	3.936259E-18
7.000000E+03	6.439152E-17	3.932473E-18
7.010000E+03	6.452529E-17	3.927672E-18
7.020000E+03	6.464602E-17	3.921728E-18
7.030000E+03	6.475370E-17	3.914666E-18
7.040000E+03	6.484971E-17	3.906592E-18
7.050000E+03	6.493290E-17	3.897453E-18
7.060000E+03	6.500344E-17	3.887275E-18
7.070000E+03	6.506159E-17	3.876078E-18
7.080000E+03	6.510765E-17	3.863882E-18
7.090000E+03	6.514328E-17	3.850779E-18
7.100000E+03	6.516631E-17	3.836624E-18
7.110000E+03	6.517723E-17	3.821424E-18
7.120000E+03	6.517789E-17	3.805256E-18
7.130000E+03	6.516891E-17	3.788114E-18
7.140000E+03	6.514964E-17	3.769913E-18
7.150000E+03	6.512212E-17	3.750713E-18
7.160000E+03	6.508446E-17	3.730343E-18
7.170000E+03	6.504014E-17	3.708933E-18
7.180000E+03	6.498866E-17	3.686382E-18
7.190000E+03	6.493090E-17	3.662664E-18
7.200000E+03	6.486640E-17	3.637677E-18
7.210000E+03	6.479873E-17	3.611548E-18
7.220000E+03	6.472610E-17	3.584102E-18
7.230000E+03	6.465072E-17	3.555398E-18
7.240000E+03	6.457208E-17	3.525346E-18
7.250000E+03	6.449231E-17	3.494017E-18
7.260000E+03	6.441081E-17	3.461337E-18
7.270000E+03	6.432825E-17	3.427320E-18
7.280000E+03	6.424659E-17	3.392061E-18
7.290000E+03	6.416502E-17	3.355525E-18
7.300000E+03	6.408534E-17	3.317835E-18
7.310000E+03	6.400520E-17	3.278918E-18
7.320000E+03	6.392625E-17	3.238938E-18
7.330000E+03	6.385010E-17	3.198075E-18
7.340000E+03	6.377414E-17	3.156334E-18
7.350000E+03	6.369985E-17	3.113954E-18
7.360000E+03	6.362587E-17	3.071079E-18
7.370000E+03	6.355356E-17	3.028026E-18
7.380000E+03	6.348147E-17	2.985026E-18
7.390000E+03	6.340946E-17	2.942426E-18
7.400000E+03	6.333736E-17	2.900632E-18
7.410000E+03	6.326356E-17	2.860041E-18
7.420000E+03	6.318775E-17	2.821173E-18
7.430000E+03	6.310959E-17	2.784598E-18
7.440000E+03	6.302866E-17	2.750932E-18
7.450000E+03	6.294589E-17	2.720878E-18
7.460000E+03	6.285936E-17	2.695021E-18
7.470000E+03	6.277132E-17	2.674102E-18
7.480000E+03	6.268123E-17	2.658675E-18
7.490000E+03	6.258862E-17	2.649192E-18
7.500000E+03	6.249315E-17	2.645949E-18
7.510000E+03	6.239472E-17	2.649056E-18
7.520000E+03	6.229639E-17	2.658533E-18
7.530000E+03	6.219579E-17	2.673947E-18
7.540000E+03	6.209508E-17	2.694859E-18
7.550000E+03	6.199514E-17	2.720622E-18
7.560000E+03	6.189830E-17	2.750555E-18
7.570000E+03	6.180258E-17	2.783735E-18
7.580000E+03	6.171021E-17	2.819425E-18
7.590000E+03	6.162191E-17	2.856853E-18
7.600000E+03	6.153973E-17	2.895379E-18
7.610000E+03	6.146125E-17	2.934238E-18
7.620000E+03	6.138976E-17	2.973034E-18
7.630000E+03	6.132409E-17	3.011266E-18
7.640000E+03	6.126300E-17	3.048530E-18
7.650000E+03	6.120949E-17	3.084735E-18
7.660000E+03	6.116217E-17	3.119664E-18
7.670000E+03	6.112101E-17	3.153248E-18
7.680000E+03	6.108593E-17	3.185482E-18
7.690000E+03	6.105678E-17	3.216414E-18
7.700000E+03	6.103337E-17	3.246129E-18
7.710000E+03	6.101696E-17	3.274818E-18
7.720000E+03	6.100427E-17	3.302449E-18
7.730000E+03	6.099797E-17	3.329313E-18
7.740000E+03	6.099617E-17	3.355460E-18
7.750000E+03	6.099849E-17	3.381010E-18
7.760000E+03	6.100446E-17	3.406071E-18
