#wls	flux	fluxerr
1.600000E+03	1.707710E-16	1.658626E-16
1.640000E+03	1.758086E-16	1.679115E-16
1.680000E+03	1.805223E-16	1.694294E-16
1.720000E+03	1.848746E-16	1.703932E-16
1.760000E+03	1.887521E-16	1.707142E-16
1.800000E+03	1.921456E-16	1.704050E-16
1.840000E+03	1.949373E-16	1.693856E-16
1.880000E+03	1.970961E-16	1.676602E-16
1.920000E+03	1.985565E-16	1.652073E-16
1.960000E+03	1.992241E-16	1.619890E-16
2.000000E+03	1.990748E-16	1.580318E-16
2.040000E+03	1.980441E-16	1.533349E-16
2.080000E+03	1.960812E-16	1.479144E-16
2.120000E+03	1.931511E-16	1.418042E-16
2.160000E+03	1.892139E-16	1.350395E-16
2.200000E+03	1.842125E-16	1.276484E-16
2.240000E+03	1.781011E-16	1.196733E-16
2.280000E+03	1.709161E-16	1.112155E-16
2.320000E+03	1.628052E-16	1.024448E-16
2.360000E+03	1.540149E-16	9.357915E-17
2.400000E+03	1.447430E-16	8.478739E-17
2.440000E+03	1.351689E-16	7.621064E-17
2.480000E+03	1.254248E-16	6.794828E-17
2.520000E+03	1.156471E-16	6.008970E-17
2.560000E+03	1.059471E-16	5.269878E-17
2.600000E+03	9.643749E-17	4.582917E-17
2.640000E+03	8.720913E-17	3.951330E-17
2.680000E+03	7.834498E-17	3.377101E-17
2.720000E+03	6.991802E-17	2.860947E-17
2.760000E+03	6.198332E-17	2.402131E-17
2.800000E+03	5.458636E-17	1.998982E-17
2.840000E+03	4.775952E-17	1.648900E-17
2.880000E+03	4.152542E-17	1.348632E-17
2.920000E+03	3.589602E-17	1.094377E-17
2.960000E+03	3.087008E-17	8.818560E-18
3.000000E+03	2.643415E-17	7.065130E-18
3.010000E+03	2.541450E-17	6.679343E-18
3.020000E+03	2.442911E-17	6.312984E-18
3.030000E+03	2.347837E-17	5.965565E-18
3.040000E+03	2.256044E-17	5.636044E-18
3.050000E+03	2.167557E-17	5.323929E-18
3.060000E+03	2.082292E-17	5.028466E-18
3.070000E+03	2.000211E-17	4.749024E-18
3.080000E+03	1.921142E-17	4.484684E-18
3.090000E+03	1.845127E-17	4.235038E-18
3.100000E+03	1.772001E-17	3.999220E-18
3.110000E+03	1.701752E-17	3.776735E-18
3.120000E+03	1.634293E-17	3.566929E-18
3.130000E+03	1.569505E-17	3.369106E-18
3.140000E+03	1.507365E-17	3.182794E-18
3.150000E+03	1.447759E-17	3.007339E-18
3.160000E+03	1.390631E-17	2.842236E-18
3.170000E+03	1.335896E-17	2.686934E-18
3.180000E+03	1.283473E-17	2.540909E-18
3.190000E+03	1.233304E-17	2.403702E-18
3.200000E+03	1.185308E-17	2.274822E-18
3.210000E+03	1.139386E-17	2.153765E-18
3.220000E+03	1.095502E-17	2.040164E-18
3.230000E+03	1.053560E-17	1.933555E-18
3.240000E+03	1.013504E-17	1.833564E-18
3.250000E+03	9.752621E-18	1.739800E-18
3.260000E+03	9.387474E-18	1.651868E-18
3.270000E+03	9.039224E-18	1.569470E-18
3.280000E+03	8.706911E-18	1.492222E-18
3.290000E+03	8.390170E-18	1.419856E-18
3.300000E+03	8.088354E-18	1.352069E-18
3.310000E+03	7.800609E-18	1.288537E-18
3.320000E+03	7.526588E-18	1.229034E-18
3.330000E+03	7.265710E-18	1.173304E-18
3.340000E+03	7.017313E-18	1.121091E-18
3.350000E+03	6.780871E-18	1.072172E-18
3.360000E+03	6.555874E-18	1.026339E-18
3.370000E+03	6.341832E-18	9.833919E-19
3.380000E+03	6.138273E-18	9.431473E-19
3.390000E+03	5.944741E-18	9.054311E-19
3.400000E+03	5.760724E-18	8.700690E-19
3.410000E+03	5.585738E-18	8.368996E-19
3.420000E+03	5.419536E-18	8.058040E-19
3.430000E+03	5.261531E-18	7.766195E-19
3.440000E+03	5.111439E-18	7.492348E-19
3.450000E+03	4.968857E-18	7.235272E-19
3.460000E+03	4.833464E-18	6.993915E-19
3.470000E+03	4.704840E-18	6.767135E-19
3.480000E+03	4.582652E-18	6.553963E-19
3.490000E+03	4.466632E-18	6.353571E-19
3.500000E+03	4.356430E-18	6.165050E-19
3.510000E+03	4.251811E-18	5.987698E-19
3.520000E+03	4.152368E-18	5.820604E-19
3.530000E+03	4.057907E-18	5.663185E-19
3.540000E+03	3.968111E-18	5.514721E-19
3.550000E+03	3.882728E-18	5.374608E-19
3.560000E+03	3.801525E-18	5.242293E-19
3.570000E+03	3.724206E-18	5.117157E-19
3.580000E+03	3.650647E-18	4.998840E-19
3.590000E+03	3.580617E-18	4.886856E-19
3.600000E+03	3.513904E-18	4.780756E-19
3.610000E+03	3.450410E-18	4.680265E-19
3.620000E+03	3.389908E-18	4.584946E-19
3.630000E+03	3.332250E-18	4.494481E-19
3.640000E+03	3.277298E-18	4.408577E-19
3.650000E+03	3.224918E-18	4.326957E-19
3.660000E+03	3.174984E-18	4.249364E-19
3.670000E+03	3.127376E-18	4.175558E-19
3.680000E+03	3.082008E-18	4.105349E-19
3.690000E+03	3.038795E-18	4.038559E-19
3.700000E+03	2.997629E-18	3.974981E-19
3.710000E+03	2.958509E-18	3.914562E-19
3.720000E+03	2.921303E-18	3.857076E-19
3.730000E+03	2.885987E-18	3.802443E-19
3.740000E+03	2.852482E-18	3.750521E-19
3.750000E+03	2.820740E-18	3.701205E-19
3.760000E+03	2.790758E-18	3.654457E-19
3.770000E+03	2.762414E-18	3.610087E-19
3.780000E+03	2.735706E-18	3.568063E-19
3.790000E+03	2.710608E-18	3.528325E-19
3.800000E+03	2.687026E-18	3.490727E-19
3.810000E+03	2.664958E-18	3.455245E-19
3.820000E+03	2.644378E-18	3.421825E-19
3.830000E+03	2.625218E-18	3.390361E-19
3.840000E+03	2.607431E-18	3.360779E-19
3.850000E+03	2.591036E-18	3.333087E-19
3.860000E+03	2.575948E-18	3.307162E-19
3.870000E+03	2.562163E-18	3.282988E-19
3.880000E+03	2.549639E-18	3.260500E-19
3.890000E+03	2.538354E-18	3.239660E-19
3.900000E+03	2.528287E-18	3.220432E-19
3.910000E+03	2.519377E-18	3.202729E-19
3.920000E+03	2.511604E-18	3.186520E-19
3.930000E+03	2.504971E-18	3.171798E-19
3.940000E+03	2.499438E-18	3.158507E-19
3.950000E+03	2.494968E-18	3.146593E-19
3.960000E+03	2.491544E-18	3.136028E-19
3.970000E+03	2.489131E-18	3.126762E-19
3.980000E+03	2.487714E-18	3.118768E-19
3.990000E+03	2.487277E-18	3.112021E-19
4.000000E+03	2.487808E-18	3.106496E-19
4.010000E+03	2.489253E-18	3.102123E-19
4.020000E+03	2.491601E-18	3.098878E-19
4.030000E+03	2.494840E-18	3.096740E-19
4.040000E+03	2.498958E-18	3.095686E-19
4.050000E+03	2.503926E-18	3.095673E-19
4.060000E+03	2.509715E-18	3.096654E-19
4.070000E+03	2.516316E-18	3.098612E-19
4.080000E+03	2.523700E-18	3.101501E-19
4.090000E+03	2.531860E-18	3.105303E-19
4.100000E+03	2.540769E-18	3.109976E-19
4.110000E+03	2.550421E-18	3.115501E-19
4.120000E+03	2.560788E-18	3.121835E-19
4.130000E+03	2.571847E-18	3.128938E-19
4.140000E+03	2.583591E-18	3.136792E-19
4.150000E+03	2.595996E-18	3.145356E-19
4.160000E+03	2.609059E-18	3.154613E-19
4.170000E+03	2.622734E-18	3.164499E-19
4.180000E+03	2.637019E-18	3.174998E-19
4.190000E+03	2.651869E-18	3.186046E-19
4.200000E+03	2.667302E-18	3.197652E-19
4.210000E+03	2.683276E-18	3.209752E-19
4.220000E+03	2.699787E-18	3.222333E-19
4.230000E+03	2.716771E-18	3.235307E-19
4.240000E+03	2.734246E-18	3.248684E-19
4.250000E+03	2.752149E-18	3.262378E-19
4.260000E+03	2.770497E-18	3.276401E-19
4.270000E+03	2.789226E-18	3.290665E-19
4.280000E+03	2.808289E-18	3.305107E-19
4.290000E+03	2.827706E-18	3.319743E-19
4.300000E+03	2.847386E-18	3.334456E-19
4.310000E+03	2.867350E-18	3.349264E-19
4.320000E+03	2.887503E-18	3.364051E-19
4.330000E+03	2.907867E-18	3.378834E-19
4.340000E+03	2.928390E-18	3.393549E-19
4.350000E+03	2.949025E-18	3.408135E-19
4.360000E+03	2.969765E-18	3.422583E-19
4.370000E+03	2.990584E-18	3.436859E-19
4.380000E+03	3.011503E-18	3.450982E-19
4.390000E+03	3.032470E-18	3.464894E-19
4.400000E+03	3.053531E-18	3.478645E-19
4.410000E+03	3.074685E-18	3.492234E-19
4.420000E+03	3.095933E-18	3.505660E-19
4.430000E+03	3.117275E-18	3.518924E-19
4.440000E+03	3.138737E-18	3.532060E-19
4.450000E+03	3.160298E-18	3.545044E-19
4.460000E+03	3.181987E-18	3.557912E-19
4.470000E+03	3.203808E-18	3.570674E-19
4.480000E+03	3.225767E-18	3.583344E-19
4.490000E+03	3.247844E-18	3.595905E-19
4.500000E+03	3.270047E-18	3.608375E-19
4.510000E+03	3.292355E-18	3.620740E-19
4.520000E+03	3.314805E-18	3.633053E-19
4.530000E+03	3.337351E-18	3.645274E-19
4.540000E+03	3.360003E-18	3.657427E-19
4.550000E+03	3.382772E-18	3.669539E-19
4.560000E+03	3.405614E-18	3.681573E-19
4.570000E+03	3.428569E-18	3.693591E-19
4.580000E+03	3.451593E-18	3.705557E-19
4.590000E+03	3.474701E-18	3.717503E-19
4.600000E+03	3.497848E-18	3.729394E-19
4.610000E+03	3.521080E-18	3.741294E-19
4.620000E+03	3.544385E-18	3.753201E-19
4.630000E+03	3.567720E-18	3.765082E-19
4.640000E+03	3.591105E-18	3.776966E-19
4.650000E+03	3.614561E-18	3.788884E-19
4.660000E+03	3.638078E-18	3.800833E-19
4.670000E+03	3.661617E-18	3.812774E-19
4.680000E+03	3.685266E-18	3.824805E-19
4.690000E+03	3.709054E-18	3.836955E-19
4.700000E+03	3.732945E-18	3.849186E-19
4.710000E+03	3.756968E-18	3.861526E-19
4.720000E+03	3.781157E-18	3.874005E-19
4.730000E+03	3.805442E-18	3.886549E-19
4.740000E+03	3.829858E-18	3.899187E-19
4.750000E+03	3.854370E-18	3.911879E-19
4.760000E+03	3.879014E-18	3.924656E-19
4.770000E+03	3.903792E-18	3.937515E-19
4.780000E+03	3.928671E-18	3.950419E-19
4.790000E+03	3.953689E-18	3.963403E-19
4.800000E+03	3.978814E-18	3.976431E-19
4.810000E+03	4.004086E-18	3.989543E-19
4.820000E+03	4.029473E-18	4.002707E-19
4.830000E+03	4.054979E-18	4.015928E-19
4.840000E+03	4.080609E-18	4.029215E-19
4.850000E+03	4.106405E-18	4.042613E-19
4.860000E+03	4.132335E-18	4.056098E-19
4.870000E+03	4.158404E-18	4.069680E-19
4.880000E+03	4.184579E-18	4.083335E-19
4.890000E+03	4.210941E-18	4.097153E-19
4.900000E+03	4.237458E-18	4.111110E-19
4.910000E+03	4.264135E-18	4.125219E-19
4.920000E+03	4.290934E-18	4.139457E-19
4.930000E+03	4.317902E-18	4.153873E-19
4.940000E+03	4.344999E-18	4.168442E-19
4.950000E+03	4.372230E-18	4.183174E-19
4.960000E+03	4.399638E-18	4.198117E-19
4.970000E+03	4.427184E-18	4.213240E-19
4.980000E+03	4.454868E-18	4.228548E-19
4.990000E+03	4.482649E-18	4.244005E-19
5.000000E+03	4.510569E-18	4.259654E-19
5.010000E+03	4.538628E-18	4.275496E-19
5.020000E+03	4.566779E-18	4.291490E-19
5.030000E+03	4.595022E-18	4.307633E-19
5.040000E+03	4.623351E-18	4.323924E-19
5.050000E+03	4.651719E-18	4.340318E-19
5.060000E+03	4.680164E-18	4.356853E-19
5.070000E+03	4.708681E-18	4.373528E-19
5.080000E+03	4.737172E-18	4.390257E-19
5.090000E+03	4.765673E-18	4.407080E-19
5.100000E+03	4.794177E-18	4.424000E-19
5.110000E+03	4.822626E-18	4.440977E-19
5.120000E+03	4.851009E-18	4.458016E-19
5.130000E+03	4.879313E-18	4.475127E-19
5.140000E+03	4.907524E-18	4.492322E-19
5.150000E+03	4.935580E-18	4.509572E-19
5.160000E+03	4.963513E-18	4.526942E-19
5.170000E+03	4.991207E-18	4.544366E-19
5.180000E+03	5.018692E-18	4.561915E-19
5.190000E+03	5.045897E-18	4.579577E-19
5.200000E+03	5.072801E-18	4.597386E-19
5.210000E+03	5.099379E-18	4.615380E-19
5.220000E+03	5.125607E-18	4.633602E-19
5.230000E+03	5.151356E-18	4.652006E-19
5.240000E+03	5.176700E-18	4.670730E-19
5.250000E+03	5.201558E-18	4.689777E-19
5.260000E+03	5.225901E-18	4.709201E-19
5.270000E+03	5.249646E-18	4.729006E-19
5.280000E+03	5.272761E-18	4.749245E-19
5.290000E+03	5.295213E-18	4.769972E-19
5.300000E+03	5.316970E-18	4.791237E-19
5.310000E+03	5.338000E-18	4.813093E-19
5.320000E+03	5.358218E-18	4.835540E-19
5.330000E+03	5.377699E-18	4.858721E-19
5.340000E+03	5.396306E-18	4.882584E-19
5.350000E+03	5.414009E-18	4.907170E-19
5.360000E+03	5.430889E-18	4.932611E-19
5.370000E+03	5.446811E-18	4.958844E-19
5.380000E+03	5.461861E-18	4.985993E-19
5.390000E+03	5.475961E-18	5.014034E-19
5.400000E+03	5.489147E-18	5.043033E-19
5.410000E+03	5.501347E-18	5.072952E-19
5.420000E+03	5.512655E-18	5.103899E-19
5.430000E+03	5.523006E-18	5.135825E-19
5.440000E+03	5.532445E-18	5.168775E-19
5.450000E+03	5.540854E-18	5.202635E-19
5.460000E+03	5.548283E-18	5.237440E-19
5.470000E+03	5.554676E-18	5.273113E-19
5.480000E+03	5.559977E-18	5.309571E-19
5.490000E+03	5.564243E-18	5.346831E-19
5.500000E+03	5.567369E-18	5.384744E-19
5.510000E+03	5.569304E-18	5.423209E-19
5.520000E+03	5.570059E-18	5.462172E-19
5.530000E+03	5.569531E-18	5.501468E-19
5.540000E+03	5.567790E-18	5.541091E-19
5.550000E+03	5.564682E-18	5.580808E-19
5.560000E+03	5.560338E-18	5.620665E-19
5.570000E+03	5.554718E-18	5.660539E-19
5.580000E+03	5.547787E-18	5.700304E-19
5.590000E+03	5.539568E-18	5.739891E-19
5.600000E+03	5.530082E-18	5.779234E-19
5.610000E+03	5.519298E-18	5.818206E-19
5.620000E+03	5.507355E-18	5.856862E-19
5.630000E+03	5.494167E-18	5.895021E-19
5.640000E+03	5.479874E-18	5.932746E-19
5.650000E+03	5.464392E-18	5.969860E-19
5.660000E+03	5.447865E-18	6.006434E-19
5.670000E+03	5.430321E-18	6.042420E-19
5.680000E+03	5.411737E-18	6.077712E-19
5.690000E+03	5.392202E-18	6.112331E-19
5.700000E+03	5.371748E-18	6.146239E-19
5.710000E+03	5.350465E-18	6.179465E-19
5.720000E+03	5.328388E-18	6.211978E-19
5.730000E+03	5.305497E-18	6.243683E-19
5.740000E+03	5.281939E-18	6.274683E-19
5.750000E+03	5.257753E-18	6.304951E-19
5.760000E+03	5.232921E-18	6.334397E-19
5.770000E+03	5.207537E-18	6.363063E-19
5.780000E+03	5.181697E-18	6.390992E-19
5.790000E+03	5.155441E-18	6.418163E-19
5.800000E+03	5.128755E-18	6.444484E-19
5.810000E+03	5.101738E-18	6.470002E-19
5.820000E+03	5.074486E-18	6.494765E-19
5.830000E+03	5.047043E-18	6.518751E-19
5.840000E+03	5.019397E-18	6.541869E-19
5.850000E+03	4.991648E-18	6.564170E-19
5.860000E+03	4.963841E-18	6.585635E-19
5.870000E+03	4.936072E-18	6.606317E-19
5.880000E+03	4.908387E-18	6.626202E-19
5.890000E+03	4.880775E-18	6.645203E-19
5.900000E+03	4.853334E-18	6.663379E-19
5.910000E+03	4.826052E-18	6.680647E-19
5.920000E+03	4.799133E-18	6.697223E-19
5.930000E+03	4.772456E-18	6.712879E-19
5.940000E+03	4.746116E-18	6.727687E-19
5.950000E+03	4.720205E-18	6.741724E-19
5.960000E+03	4.694707E-18	6.754918E-19
5.970000E+03	4.669657E-18	6.767278E-19
5.980000E+03	4.645144E-18	6.778889E-19
5.990000E+03	4.621147E-18	6.789689E-19
6.000000E+03	4.597751E-18	6.799771E-19
6.010000E+03	4.574879E-18	6.808997E-19
6.020000E+03	4.552665E-18	6.817545E-19
6.030000E+03	4.531029E-18	6.825281E-19
6.040000E+03	4.510103E-18	6.832388E-19
6.050000E+03	4.489748E-18	6.838655E-19
6.060000E+03	4.470093E-18	6.844270E-19
6.070000E+03	4.451104E-18	6.849182E-19
6.080000E+03	4.432797E-18	6.853422E-19
6.090000E+03	4.415083E-18	6.856857E-19
6.100000E+03	4.398083E-18	6.859685E-19
6.110000E+03	4.381648E-18	6.861688E-19
6.120000E+03	4.365896E-18	6.863065E-19
6.130000E+03	4.350677E-18	6.863596E-19
6.140000E+03	4.335997E-18	6.863312E-19
6.150000E+03	4.321809E-18	6.862157E-19
6.160000E+03	4.308115E-18	6.860159E-19
6.170000E+03	4.294758E-18	6.857089E-19
6.180000E+03	4.281736E-18	6.852969E-19
6.190000E+03	4.268993E-18	6.847735E-19
6.200000E+03	4.256524E-18	6.841407E-19
6.210000E+03	4.244322E-18	6.834003E-19
6.220000E+03	4.232487E-18	6.825717E-19
6.230000E+03	4.221175E-18	6.816829E-19
6.240000E+03	4.210431E-18	6.807449E-19
6.250000E+03	4.200356E-18	6.797777E-19
6.260000E+03	4.191053E-18	6.788012E-19
6.270000E+03	4.182568E-18	6.778268E-19
6.280000E+03	4.175005E-18	6.768749E-19
6.290000E+03	4.168414E-18	6.759570E-19
6.300000E+03	4.162845E-18	6.750849E-19
6.310000E+03	4.158405E-18	6.742795E-19
6.320000E+03	4.155092E-18	6.735434E-19
6.330000E+03	4.153017E-18	6.728978E-19
6.340000E+03	4.152121E-18	6.723365E-19
6.350000E+03	4.152461E-18	6.718713E-19
6.360000E+03	4.154037E-18	6.715049E-19
6.370000E+03	4.156909E-18	6.712496E-19
6.380000E+03	4.161019E-18	6.710986E-19
6.390000E+03	4.166369E-18	6.710544E-19
6.400000E+03	4.172902E-18	6.711098E-19
6.410000E+03	4.180497E-18	6.712476E-19
6.420000E+03	4.189091E-18	6.714598E-19
6.430000E+03	4.198684E-18	6.717479E-19
6.440000E+03	4.209272E-18	6.721136E-19
6.450000E+03	4.220854E-18	6.725582E-19
6.460000E+03	4.233490E-18	6.730931E-19
6.470000E+03	4.247247E-18	6.737301E-19
6.480000E+03	4.262124E-18	6.744707E-19
6.490000E+03	4.278062E-18	6.753064E-19
6.500000E+03	4.295192E-18	6.762592E-19
6.510000E+03	4.313520E-18	6.773310E-19
6.520000E+03	4.332986E-18	6.785131E-19
6.530000E+03	4.353662E-18	6.798175E-19
6.540000E+03	4.375556E-18	6.812460E-19
6.550000E+03	4.398606E-18	6.827896E-19
6.560000E+03	4.422820E-18	6.844497E-19
6.570000E+03	4.448345E-18	6.862497E-19
6.580000E+03	4.474979E-18	6.881585E-19
6.590000E+03	4.502872E-18	6.901995E-19
6.600000E+03	4.532036E-18	6.923744E-19
6.610000E+03	4.562334E-18	6.946623E-19
6.620000E+03	4.593922E-18	6.970870E-19
6.630000E+03	4.626662E-18	6.996274E-19
6.640000E+03	4.660716E-18	7.023077E-19
6.650000E+03	4.695941E-18	7.051061E-19
6.660000E+03	4.732425E-18	7.080357E-19
6.670000E+03	4.770180E-18	7.110979E-19
6.680000E+03	4.809139E-18	7.142819E-19
6.690000E+03	4.849310E-18	7.175888E-19
6.700000E+03	4.890788E-18	7.210321E-19
6.710000E+03	4.933503E-18	7.246008E-19
6.720000E+03	4.977466E-18	7.282958E-19
6.730000E+03	5.022688E-18	7.321183E-19
6.740000E+03	5.069183E-18	7.360694E-19
6.750000E+03	5.116963E-18	7.401501E-19
6.760000E+03	5.166040E-18	7.443615E-19
6.770000E+03	5.216337E-18	7.486915E-19
6.780000E+03	5.267956E-18	7.531540E-19
6.790000E+03	5.320913E-18	7.577503E-19
6.800000E+03	5.375125E-18	7.624677E-19
6.810000E+03	5.430701E-18	7.673206E-19
6.820000E+03	5.487558E-18	7.722963E-19
6.830000E+03	5.545707E-18	7.773954E-19
6.840000E+03	5.605159E-18	7.826186E-19
6.850000E+03	5.665928E-18	7.879663E-19
6.860000E+03	5.728129E-18	7.934540E-19
6.870000E+03	5.791566E-18	7.990532E-19
6.880000E+03	5.856356E-18	8.047790E-19
6.890000E+03	5.922510E-18	8.106320E-19
6.900000E+03	5.989931E-18	8.165976E-19
6.910000E+03	6.058738E-18	8.226912E-19
6.920000E+03	6.128946E-18	8.289136E-19
6.930000E+03	6.200449E-18	8.352495E-19
6.940000E+03	6.273255E-18	8.416990E-19
6.950000E+03	6.347493E-18	8.482783E-19
6.960000E+03	6.423052E-18	8.549716E-19
6.970000E+03	6.499940E-18	8.617789E-19
6.980000E+03	6.578163E-18	8.687003E-19
6.990000E+03	6.657729E-18	8.757356E-19
7.000000E+03	6.738512E-18	8.828677E-19
7.010000E+03	6.820778E-18	8.901305E-19
7.020000E+03	6.904270E-18	8.974895E-19
7.030000E+03	6.989124E-18	9.049616E-19
7.040000E+03	7.075205E-18	9.125287E-19
7.050000E+03	7.162511E-18	9.201900E-19
7.060000E+03	7.251185E-18	9.279629E-19
7.070000E+03	7.341083E-18	9.358287E-19
7.080000E+03	7.432053E-18	9.437673E-19
7.090000E+03	7.524387E-18	9.518154E-19
7.100000E+03	7.617932E-18	9.599534E-19
7.110000E+03	7.712528E-18	9.681606E-19
7.120000E+03	7.808319E-18	9.764551E-19
7.130000E+03	7.905136E-18	9.848158E-19
7.140000E+03	8.003129E-18	9.932612E-19
7.150000E+03	8.102122E-18	1.001770E-18
7.160000E+03	8.202267E-18	1.010361E-18
7.170000E+03	8.303209E-18	1.018990E-18
7.180000E+03	8.405096E-18	1.027678E-18
7.190000E+03	8.508085E-18	1.036444E-18
7.200000E+03	8.611801E-18	1.045244E-18
7.210000E+03	8.716213E-18	1.054075E-18
7.220000E+03	8.821475E-18	1.062958E-18
7.230000E+03	8.927561E-18	1.071891E-18
7.240000E+03	9.034254E-18	1.080852E-18
7.250000E+03	9.141710E-18	1.089860E-18
7.260000E+03	9.249705E-18	1.098893E-18
7.270000E+03	9.358197E-18	1.107950E-18
7.280000E+03	9.467352E-18	1.117052E-18
7.290000E+03	9.576930E-18	1.126177E-18
7.300000E+03	9.687098E-18	1.135349E-18
7.310000E+03	9.797609E-18	1.144543E-18
7.320000E+03	9.908417E-18	1.153759E-18
7.330000E+03	1.001992E-17	1.163049E-18
7.340000E+03	1.013164E-17	1.172364E-18
7.350000E+03	1.024399E-17	1.181757E-18
7.360000E+03	1.035671E-17	1.191205E-18
7.370000E+03	1.046999E-17	1.200737E-18
7.380000E+03	1.058406E-17	1.210383E-18
7.390000E+03	1.069864E-17	1.220120E-18
7.400000E+03	1.081421E-17	1.230008E-18
7.410000E+03	1.093076E-17	1.240052E-18
7.420000E+03	1.104854E-17	1.250286E-18
7.430000E+03	1.116756E-17	1.260716E-18
7.440000E+03	1.128783E-17	1.271347E-18
7.450000E+03	1.140962E-17	1.282214E-18
7.460000E+03	1.153243E-17	1.293264E-18
7.470000E+03	1.165624E-17	1.304498E-18
7.480000E+03	1.178080E-17	1.315889E-18
7.490000E+03	1.190637E-17	1.327466E-18
7.500000E+03	1.203267E-17	1.339198E-18
7.510000E+03	1.215940E-17	1.351051E-18
7.520000E+03	1.228654E-17	1.363019E-18
7.530000E+03	1.241408E-17	1.375096E-18
7.540000E+03	1.254169E-17	1.387241E-18
7.550000E+03	1.266964E-17	1.399478E-18
7.560000E+03	1.279729E-17	1.411728E-18
7.570000E+03	1.292522E-17	1.424048E-18
7.580000E+03	1.305307E-17	1.436391E-18
7.590000E+03	1.318081E-17	1.448744E-18
7.600000E+03	1.330807E-17	1.461057E-18
7.610000E+03	1.343511E-17	1.473351E-18
7.620000E+03	1.356188E-17	1.485612E-18
7.630000E+03	1.368832E-17	1.497827E-18
7.640000E+03	1.381403E-17	1.509944E-18
7.650000E+03	1.393927E-17	1.521987E-18
7.660000E+03	1.406362E-17	1.533904E-18
7.670000E+03	1.418769E-17	1.545759E-18
7.680000E+03	1.431036E-17	1.557424E-18
7.690000E+03	1.443259E-17	1.569003E-18
7.700000E+03	1.455393E-17	1.580446E-18
7.710000E+03	1.467393E-17	1.591703E-18
7.720000E+03	1.479284E-17	1.602803E-18
7.730000E+03	1.491056E-17	1.613735E-18
7.740000E+03	1.502698E-17	1.624492E-18
7.750000E+03	1.514200E-17	1.635062E-18
7.760000E+03	1.525590E-17	1.645480E-18
