#wls	flux	fluxerr
1.600000E+03	1.207771E-16	1.169771E-16
1.640000E+03	1.248950E-16	1.189548E-16
1.680000E+03	1.289137E-16	1.206620E-16
1.720000E+03	1.327763E-16	1.220475E-16
1.760000E+03	1.364729E-16	1.231059E-16
1.800000E+03	1.399388E-16	1.237852E-16
1.840000E+03	1.431316E-16	1.240572E-16
1.880000E+03	1.460301E-16	1.239156E-16
1.920000E+03	1.485615E-16	1.233139E-16
1.960000E+03	1.506887E-16	1.222402E-16
2.000000E+03	1.523506E-16	1.206679E-16
2.040000E+03	1.535107E-16	1.185946E-16
2.080000E+03	1.540919E-16	1.159921E-16
2.120000E+03	1.540372E-16	1.128536E-16
2.160000E+03	1.532907E-16	1.091793E-16
2.200000E+03	1.517657E-16	1.049543E-16
2.240000E+03	1.493944E-16	1.001844E-16
2.280000E+03	1.461717E-16	9.492373E-17
2.320000E+03	1.421453E-16	8.926146E-17
2.360000E+03	1.374533E-16	8.333838E-17
2.400000E+03	1.322099E-16	7.727051E-17
2.440000E+03	1.265161E-16	7.115698E-17
2.480000E+03	1.204777E-16	6.509090E-17
2.520000E+03	1.141614E-16	5.913585E-17
2.560000E+03	1.076441E-16	5.335438E-17
2.600000E+03	1.009922E-16	4.779684E-17
2.640000E+03	9.427573E-17	4.250867E-17
2.680000E+03	8.755304E-17	3.752342E-17
2.720000E+03	8.088353E-17	3.286896E-17
2.760000E+03	7.432350E-17	2.856581E-17
2.800000E+03	6.792584E-17	2.462725E-17
2.840000E+03	6.174114E-17	2.106013E-17
2.880000E+03	5.581861E-17	1.786548E-17
2.920000E+03	5.020210E-17	1.503764E-17
2.960000E+03	4.492964E-17	1.256486E-17
3.000000E+03	4.002935E-17	1.042914E-17
3.010000E+03	3.886571E-17	9.945514E-18
3.020000E+03	3.772569E-17	9.480864E-18
3.030000E+03	3.661094E-17	9.035164E-18
3.040000E+03	3.552051E-17	8.607719E-18
3.050000E+03	3.445506E-17	8.198240E-18
3.060000E+03	3.341511E-17	7.806388E-18
3.070000E+03	3.239903E-17	7.431326E-18
3.080000E+03	3.140867E-17	7.073028E-18
3.090000E+03	3.044245E-17	6.730676E-18
3.100000E+03	2.950137E-17	6.404043E-18
3.110000E+03	2.858457E-17	6.092485E-18
3.120000E+03	2.769184E-17	5.795510E-18
3.130000E+03	2.682405E-17	5.512847E-18
3.140000E+03	2.597993E-17	5.243782E-18
3.150000E+03	2.516079E-17	4.988129E-18
3.160000E+03	2.436496E-17	4.745112E-18
3.170000E+03	2.359362E-17	4.514523E-18
3.180000E+03	2.284565E-17	4.295711E-18
3.190000E+03	2.212162E-17	4.088366E-18
3.200000E+03	2.142084E-17	3.891942E-18
3.210000E+03	2.074339E-17	3.706050E-18
3.220000E+03	2.008894E-17	3.530235E-18
3.230000E+03	1.945718E-17	3.364054E-18
3.240000E+03	1.884744E-17	3.207021E-18
3.250000E+03	1.826004E-17	3.058824E-18
3.260000E+03	1.769427E-17	2.918995E-18
3.270000E+03	1.715002E-17	2.787180E-18
3.280000E+03	1.662658E-17	2.662938E-18
3.290000E+03	1.612352E-17	2.545891E-18
3.300000E+03	1.564061E-17	2.435710E-18
3.310000E+03	1.517711E-17	2.331998E-18
3.320000E+03	1.473276E-17	2.234446E-18
3.330000E+03	1.430701E-17	2.142718E-18
3.340000E+03	1.389894E-17	2.056434E-18
3.350000E+03	1.350844E-17	1.975352E-18
3.360000E+03	1.313478E-17	1.899150E-18
3.370000E+03	1.277745E-17	1.827553E-18
3.380000E+03	1.243593E-17	1.760297E-18
3.390000E+03	1.210939E-17	1.697086E-18
3.400000E+03	1.179768E-17	1.637730E-18
3.410000E+03	1.150014E-17	1.581983E-18
3.420000E+03	1.121616E-17	1.529612E-18
3.430000E+03	1.094528E-17	1.480420E-18
3.440000E+03	1.068706E-17	1.434218E-18
3.450000E+03	1.044082E-17	1.390794E-18
3.460000E+03	1.020627E-17	1.350002E-18
3.470000E+03	9.982790E-18	1.311655E-18
3.480000E+03	9.770016E-18	1.275611E-18
3.490000E+03	9.567489E-18	1.241721E-18
3.500000E+03	9.374776E-18	1.209848E-18
3.510000E+03	9.191470E-18	1.179864E-18
3.520000E+03	9.017188E-18	1.151650E-18
3.530000E+03	8.851468E-18	1.125084E-18
3.540000E+03	8.693884E-18	1.100054E-18
3.550000E+03	8.544127E-18	1.076467E-18
3.560000E+03	8.401815E-18	1.054228E-18
3.570000E+03	8.266677E-18	1.033256E-18
3.580000E+03	8.138285E-18	1.013459E-18
3.590000E+03	8.016406E-18	9.947716E-19
3.600000E+03	7.900736E-18	9.771214E-19
3.610000E+03	7.791145E-18	9.604622E-19
3.620000E+03	7.687274E-18	9.447222E-19
3.630000E+03	7.588939E-18	9.298532E-19
3.640000E+03	7.495745E-18	9.157839E-19
3.650000E+03	7.407535E-18	9.024743E-19
3.660000E+03	7.324091E-18	8.898785E-19
3.670000E+03	7.245203E-18	8.779538E-19
3.680000E+03	7.170739E-18	8.666683E-19
3.690000E+03	7.100570E-18	8.559917E-19
3.700000E+03	7.034505E-18	8.458875E-19
3.710000E+03	6.972487E-18	8.363364E-19
3.720000E+03	6.914331E-18	8.273048E-19
3.730000E+03	6.860043E-18	8.187824E-19
3.740000E+03	6.809501E-18	8.107448E-19
3.750000E+03	6.762584E-18	8.031684E-19
3.760000E+03	6.719235E-18	7.960375E-19
3.770000E+03	6.679449E-18	7.893440E-19
3.780000E+03	6.643107E-18	7.830661E-19
3.790000E+03	6.610207E-18	7.771963E-19
3.800000E+03	6.580631E-18	7.717142E-19
3.810000E+03	6.554322E-18	7.666066E-19
3.820000E+03	6.531279E-18	7.618671E-19
3.830000E+03	6.511501E-18	7.574894E-19
3.840000E+03	6.494878E-18	7.534545E-19
3.850000E+03	6.481464E-18	7.497631E-19
3.860000E+03	6.471099E-18	7.463905E-19
3.870000E+03	6.463890E-18	7.433436E-19
3.880000E+03	6.459675E-18	7.405981E-19
3.890000E+03	6.458561E-18	7.381605E-19
3.900000E+03	6.460438E-18	7.360129E-19
3.910000E+03	6.465303E-18	7.341492E-19
3.920000E+03	6.473101E-18	7.325576E-19
3.930000E+03	6.483825E-18	7.312320E-19
3.940000E+03	6.497419E-18	7.301604E-19
3.950000E+03	6.513928E-18	7.293425E-19
3.960000E+03	6.533243E-18	7.287601E-19
3.970000E+03	6.555357E-18	7.284070E-19
3.980000E+03	6.580211E-18	7.282708E-19
3.990000E+03	6.607851E-18	7.283507E-19
4.000000E+03	6.638217E-18	7.286340E-19
4.010000E+03	6.671250E-18	7.291083E-19
4.020000E+03	6.706891E-18	7.297609E-19
4.030000E+03	6.745187E-18	7.305907E-19
4.040000E+03	6.786025E-18	7.315795E-19
4.050000E+03	6.829456E-18	7.327266E-19
4.060000E+03	6.875371E-18	7.340141E-19
4.070000E+03	6.923767E-18	7.354362E-19
4.080000E+03	6.974648E-18	7.369873E-19
4.090000E+03	7.027962E-18	7.386566E-19
4.100000E+03	7.083657E-18	7.404338E-19
4.110000E+03	7.141684E-18	7.423088E-19
4.120000E+03	7.202106E-18	7.442839E-19
4.130000E+03	7.264818E-18	7.463441E-19
4.140000E+03	7.329828E-18	7.484864E-19
4.150000E+03	7.397031E-18	7.506964E-19
4.160000E+03	7.466436E-18	7.529716E-19
4.170000E+03	7.538054E-18	7.553098E-19
4.180000E+03	7.611780E-18	7.576974E-19
4.190000E+03	7.687626E-18	7.601331E-19
4.200000E+03	7.765486E-18	7.626042E-19
4.210000E+03	7.845374E-18	7.651107E-19
4.220000E+03	7.927181E-18	7.676414E-19
4.230000E+03	8.010924E-18	7.701985E-19
4.240000E+03	8.096492E-18	7.727731E-19
4.250000E+03	8.183837E-18	7.753638E-19
4.260000E+03	8.272845E-18	7.779643E-19
4.270000E+03	8.363530E-18	7.805824E-19
4.280000E+03	8.455772E-18	7.832151E-19
4.290000E+03	8.549515E-18	7.858672E-19
4.300000E+03	8.644631E-18	7.885388E-19
4.310000E+03	8.740986E-18	7.912312E-19
4.320000E+03	8.838506E-18	7.939533E-19
4.330000E+03	8.937116E-18	7.967148E-19
4.340000E+03	9.036660E-18	7.995197E-19
4.350000E+03	9.137050E-18	8.023783E-19
4.360000E+03	9.238116E-18	8.052933E-19
4.370000E+03	9.339829E-18	8.082787E-19
4.380000E+03	9.442085E-18	8.113392E-19
4.390000E+03	9.545003E-18	8.144950E-19
4.400000E+03	9.648477E-18	8.177416E-19
4.410000E+03	9.752551E-18	8.210821E-19
4.420000E+03	9.857194E-18	8.245091E-19
4.430000E+03	9.962541E-18	8.280250E-19
4.440000E+03	1.006849E-17	8.316101E-19
4.450000E+03	1.017501E-17	8.352493E-19
4.460000E+03	1.028219E-17	8.389339E-19
4.470000E+03	1.039000E-17	8.426479E-19
4.480000E+03	1.049844E-17	8.463752E-19
4.490000E+03	1.060740E-17	8.500929E-19
4.500000E+03	1.071698E-17	8.537928E-19
4.510000E+03	1.082708E-17	8.574536E-19
4.520000E+03	1.093769E-17	8.610620E-19
4.530000E+03	1.104882E-17	8.646069E-19
4.540000E+03	1.116026E-17	8.680643E-19
4.550000E+03	1.127213E-17	8.714351E-19
4.560000E+03	1.138431E-17	8.747084E-19
4.570000E+03	1.149683E-17	8.778840E-19
4.580000E+03	1.160949E-17	8.809496E-19
4.590000E+03	1.172241E-17	8.839188E-19
4.600000E+03	1.183541E-17	8.867850E-19
4.610000E+03	1.194863E-17	8.895669E-19
4.620000E+03	1.206188E-17	8.922615E-19
4.630000E+03	1.217521E-17	8.948827E-19
4.640000E+03	1.228856E-17	8.974369E-19
4.650000E+03	1.240210E-17	8.999467E-19
4.660000E+03	1.251568E-17	9.024107E-19
4.670000E+03	1.262948E-17	9.048508E-19
4.680000E+03	1.274348E-17	9.072722E-19
4.690000E+03	1.285766E-17	9.096793E-19
4.700000E+03	1.297222E-17	9.120915E-19
4.710000E+03	1.308704E-17	9.145025E-19
4.720000E+03	1.320225E-17	9.169208E-19
4.730000E+03	1.331772E-17	9.193362E-19
4.740000E+03	1.343358E-17	9.217528E-19
4.750000E+03	1.354960E-17	9.241472E-19
4.760000E+03	1.366593E-17	9.265192E-19
4.770000E+03	1.378246E-17	9.288499E-19
4.780000E+03	1.389934E-17	9.311371E-19
4.790000E+03	1.401644E-17	9.333616E-19
4.800000E+03	1.413380E-17	9.355137E-19
4.810000E+03	1.425141E-17	9.375864E-19
4.820000E+03	1.436930E-17	9.395760E-19
4.830000E+03	1.448747E-17	9.414831E-19
4.840000E+03	1.460580E-17	9.433044E-19
4.850000E+03	1.472442E-17	9.450598E-19
4.860000E+03	1.484336E-17	9.467662E-19
4.870000E+03	1.496248E-17	9.484363E-19
4.880000E+03	1.508178E-17	9.500962E-19
4.890000E+03	1.520144E-17	9.517839E-19
4.900000E+03	1.532115E-17	9.535111E-19
4.910000E+03	1.544124E-17	9.553249E-19
4.920000E+03	1.556154E-17	9.572419E-19
4.930000E+03	1.568190E-17	9.592732E-19
4.940000E+03	1.580246E-17	9.614414E-19
4.950000E+03	1.592319E-17	9.637522E-19
4.960000E+03	1.604390E-17	9.661942E-19
4.970000E+03	1.616470E-17	9.687668E-19
4.980000E+03	1.628521E-17	9.714352E-19
4.990000E+03	1.640567E-17	9.741962E-19
5.000000E+03	1.652584E-17	9.770145E-19
5.010000E+03	1.664545E-17	9.798516E-19
5.020000E+03	1.676456E-17	9.826867E-19
5.030000E+03	1.688287E-17	9.854794E-19
5.040000E+03	1.700023E-17	9.881991E-19
5.050000E+03	1.711650E-17	9.908165E-19
5.060000E+03	1.723151E-17	9.933031E-19
5.070000E+03	1.734489E-17	9.956227E-19
5.080000E+03	1.745661E-17	9.977592E-19
5.090000E+03	1.756629E-17	9.996788E-19
5.100000E+03	1.767371E-17	1.001359E-18
5.110000E+03	1.777846E-17	1.002767E-18
5.120000E+03	1.788049E-17	1.003895E-18
5.130000E+03	1.797921E-17	1.004704E-18
5.140000E+03	1.807475E-17	1.005198E-18
5.150000E+03	1.816655E-17	1.005346E-18
5.160000E+03	1.825455E-17	1.005148E-18
5.170000E+03	1.833837E-17	1.004596E-18
5.180000E+03	1.841761E-17	1.003687E-18
5.190000E+03	1.849224E-17	1.002448E-18
5.200000E+03	1.856185E-17	1.000898E-18
5.210000E+03	1.862623E-17	9.990727E-19
5.220000E+03	1.868514E-17	9.970175E-19
5.230000E+03	1.873819E-17	9.947739E-19
5.240000E+03	1.878514E-17	9.923966E-19
5.250000E+03	1.882557E-17	9.899314E-19
5.260000E+03	1.885943E-17	9.874420E-19
5.270000E+03	1.888628E-17	9.849689E-19
5.280000E+03	1.890588E-17	9.825570E-19
5.290000E+03	1.891798E-17	9.802458E-19
5.300000E+03	1.892217E-17	9.780591E-19
5.310000E+03	1.891820E-17	9.760252E-19
5.320000E+03	1.890586E-17	9.741665E-19
5.330000E+03	1.888495E-17	9.725007E-19
5.340000E+03	1.885508E-17	9.710300E-19
5.350000E+03	1.881631E-17	9.697710E-19
5.360000E+03	1.876850E-17	9.687250E-19
5.370000E+03	1.871158E-17	9.678883E-19
5.380000E+03	1.864535E-17	9.672433E-19
5.390000E+03	1.857020E-17	9.667969E-19
5.400000E+03	1.848606E-17	9.665245E-19
5.410000E+03	1.839347E-17	9.664283E-19
5.420000E+03	1.829250E-17	9.664806E-19
5.430000E+03	1.818365E-17	9.666726E-19
5.440000E+03	1.806734E-17	9.669863E-19
5.450000E+03	1.794439E-17	9.674229E-19
5.460000E+03	1.781519E-17	9.679550E-19
5.470000E+03	1.768018E-17	9.685551E-19
5.480000E+03	1.753972E-17	9.691855E-19
5.490000E+03	1.739456E-17	9.698280E-19
5.500000E+03	1.724519E-17	9.704451E-19
5.510000E+03	1.709230E-17	9.710105E-19
5.520000E+03	1.693665E-17	9.714993E-19
5.530000E+03	1.677900E-17	9.718890E-19
5.540000E+03	1.662014E-17	9.721595E-19
5.550000E+03	1.646103E-17	9.723034E-19
5.560000E+03	1.630247E-17	9.723061E-19
5.570000E+03	1.614557E-17	9.721756E-19
5.580000E+03	1.599092E-17	9.718936E-19
5.590000E+03	1.583975E-17	9.714854E-19
5.600000E+03	1.569256E-17	9.709408E-19
5.610000E+03	1.555030E-17	9.702840E-19
5.620000E+03	1.541385E-17	9.695436E-19
5.630000E+03	1.528351E-17	9.687229E-19
5.640000E+03	1.516032E-17	9.678788E-19
5.650000E+03	1.504459E-17	9.670323E-19
5.660000E+03	1.493655E-17	9.662079E-19
5.670000E+03	1.483698E-17	9.654726E-19
5.680000E+03	1.474581E-17	9.648465E-19
5.690000E+03	1.466335E-17	9.643810E-19
5.700000E+03	1.458986E-17	9.641286E-19
5.710000E+03	1.452538E-17	9.641319E-19
5.720000E+03	1.446991E-17	9.644324E-19
5.730000E+03	1.442342E-17	9.650693E-19
5.740000E+03	1.438599E-17	9.660887E-19
5.750000E+03	1.435772E-17	9.675323E-19
5.760000E+03	1.433823E-17	9.694059E-19
5.770000E+03	1.432791E-17	9.717608E-19
5.780000E+03	1.432644E-17	9.745907E-19
5.790000E+03	1.433412E-17	9.779246E-19
5.800000E+03	1.435080E-17	9.817544E-19
5.810000E+03	1.437670E-17	9.860868E-19
5.820000E+03	1.441188E-17	9.909132E-19
5.830000E+03	1.445657E-17	9.962301E-19
5.840000E+03	1.451071E-17	1.002009E-18
5.850000E+03	1.457439E-17	1.008227E-18
5.860000E+03	1.464785E-17	1.014869E-18
5.870000E+03	1.473137E-17	1.021918E-18
5.880000E+03	1.482469E-17	1.029321E-18
5.890000E+03	1.492825E-17	1.037068E-18
5.900000E+03	1.504196E-17	1.045114E-18
5.910000E+03	1.516607E-17	1.053439E-18
5.920000E+03	1.530065E-17	1.062009E-18
5.930000E+03	1.544559E-17	1.070782E-18
5.940000E+03	1.560109E-17	1.079739E-18
5.950000E+03	1.576715E-17	1.088852E-18
5.960000E+03	1.594358E-17	1.098085E-18
5.970000E+03	1.613070E-17	1.107439E-18
5.980000E+03	1.632806E-17	1.116869E-18
5.990000E+03	1.653573E-17	1.126371E-18
6.000000E+03	1.675355E-17	1.135930E-18
6.010000E+03	1.698115E-17	1.145524E-18
6.020000E+03	1.721847E-17	1.155160E-18
6.030000E+03	1.746483E-17	1.164807E-18
6.040000E+03	1.772030E-17	1.174497E-18
6.050000E+03	1.798407E-17	1.184207E-18
6.060000E+03	1.825590E-17	1.193966E-18
6.070000E+03	1.853505E-17	1.203777E-18
6.080000E+03	1.882094E-17	1.213669E-18
6.090000E+03	1.911270E-17	1.223659E-18
6.100000E+03	1.940935E-17	1.233774E-18
6.110000E+03	1.971033E-17	1.244081E-18
6.120000E+03	2.001405E-17	1.254590E-18
6.130000E+03	2.031979E-17	1.265382E-18
6.140000E+03	2.062603E-17	1.276497E-18
6.150000E+03	2.093169E-17	1.288008E-18
6.160000E+03	2.123462E-17	1.299924E-18
6.170000E+03	2.153392E-17	1.312326E-18
6.180000E+03	2.182767E-17	1.325218E-18
6.190000E+03	2.211453E-17	1.338614E-18
6.200000E+03	2.239304E-17	1.352482E-18
6.210000E+03	2.266309E-17	1.366824E-18
6.220000E+03	2.292504E-17	1.381632E-18
6.230000E+03	2.317944E-17	1.396881E-18
6.240000E+03	2.342699E-17	1.412535E-18
6.250000E+03	2.366758E-17	1.428491E-18
6.260000E+03	2.390273E-17	1.444741E-18
6.270000E+03	2.413216E-17	1.461161E-18
6.280000E+03	2.435688E-17	1.477708E-18
6.290000E+03	2.457765E-17	1.494327E-18
6.300000E+03	2.479426E-17	1.510909E-18
6.310000E+03	2.500751E-17	1.527412E-18
6.320000E+03	2.521789E-17	1.543783E-18
6.330000E+03	2.542589E-17	1.559979E-18
6.340000E+03	2.563135E-17	1.575922E-18
6.350000E+03	2.583477E-17	1.591585E-18
6.360000E+03	2.603634E-17	1.606929E-18
6.370000E+03	2.623625E-17	1.621923E-18
6.380000E+03	2.643430E-17	1.636518E-18
6.390000E+03	2.663030E-17	1.650676E-18
6.400000E+03	2.682404E-17	1.664362E-18
6.410000E+03	2.701568E-17	1.677570E-18
6.420000E+03	2.720498E-17	1.690277E-18
6.430000E+03	2.739089E-17	1.702415E-18
6.440000E+03	2.757472E-17	1.714069E-18
6.450000E+03	2.775662E-17	1.725256E-18
6.460000E+03	2.793712E-17	1.736022E-18
6.470000E+03	2.811724E-17	1.746447E-18
6.480000E+03	2.829671E-17	1.756534E-18
6.490000E+03	2.847657E-17	1.766367E-18
6.500000E+03	2.865700E-17	1.775981E-18
6.510000E+03	2.883860E-17	1.785435E-18
6.520000E+03	2.902069E-17	1.794707E-18
6.530000E+03	2.920475E-17	1.803909E-18
6.540000E+03	2.939005E-17	1.813016E-18
6.550000E+03	2.957721E-17	1.822081E-18
6.560000E+03	2.976637E-17	1.831128E-18
6.570000E+03	2.995722E-17	1.840149E-18
6.580000E+03	3.015037E-17	1.849191E-18
6.590000E+03	3.034596E-17	1.858269E-18
6.600000E+03	3.054365E-17	1.867368E-18
6.610000E+03	3.074357E-17	1.876497E-18
6.620000E+03	3.094583E-17	1.885666E-18
6.630000E+03	3.115106E-17	1.894913E-18
6.640000E+03	3.135835E-17	1.904185E-18
6.650000E+03	3.156830E-17	1.913517E-18
6.660000E+03	3.178100E-17	1.922918E-18
6.670000E+03	3.199598E-17	1.932360E-18
6.680000E+03	3.221381E-17	1.941882E-18
6.690000E+03	3.243402E-17	1.951456E-18
6.700000E+03	3.265716E-17	1.961122E-18
6.710000E+03	3.288217E-17	1.970819E-18
6.720000E+03	3.310960E-17	1.980585E-18
6.730000E+03	3.334006E-17	1.990460E-18
6.740000E+03	3.357241E-17	2.000379E-18
6.750000E+03	3.380727E-17	2.010378E-18
6.760000E+03	3.404405E-17	2.020420E-18
6.770000E+03	3.428338E-17	2.030534E-18
6.780000E+03	3.452469E-17	2.040674E-18
6.790000E+03	3.476802E-17	2.050825E-18
6.800000E+03	3.501402E-17	2.061001E-18
6.810000E+03	3.526148E-17	2.071100E-18
6.820000E+03	3.551169E-17	2.081163E-18
6.830000E+03	3.576341E-17	2.091078E-18
6.840000E+03	3.601795E-17	2.100878E-18
6.850000E+03	3.627400E-17	2.110443E-18
6.860000E+03	3.653153E-17	2.119729E-18
6.870000E+03	3.679117E-17	2.128731E-18
6.880000E+03	3.705287E-17	2.137413E-18
6.890000E+03	3.731517E-17	2.145664E-18
6.900000E+03	3.757932E-17	2.153538E-18
6.910000E+03	3.784451E-17	2.160981E-18
6.920000E+03	3.811131E-17	2.168023E-18
6.930000E+03	3.837811E-17	2.174584E-18
6.940000E+03	3.864544E-17	2.180709E-18
6.950000E+03	3.891310E-17	2.186408E-18
6.960000E+03	3.918015E-17	2.191656E-18
6.970000E+03	3.944711E-17	2.196513E-18
6.980000E+03	3.971377E-17	2.201000E-18
6.990000E+03	3.997916E-17	2.205098E-18
7.000000E+03	4.024305E-17	2.208833E-18
7.010000E+03	4.050525E-17	2.212231E-18
7.020000E+03	4.076635E-17	2.215363E-18
7.030000E+03	4.102460E-17	2.218170E-18
7.040000E+03	4.128142E-17	2.220764E-18
7.050000E+03	4.153506E-17	2.223083E-18
7.060000E+03	4.178621E-17	2.225194E-18
7.070000E+03	4.203392E-17	2.227070E-18
7.080000E+03	4.227893E-17	2.228773E-18
7.090000E+03	4.252119E-17	2.230313E-18
7.100000E+03	4.275980E-17	2.231654E-18
7.110000E+03	4.299386E-17	2.232753E-18
7.120000E+03	4.322507E-17	2.233698E-18
7.130000E+03	4.345260E-17	2.234436E-18
7.140000E+03	4.367645E-17	2.234956E-18
7.150000E+03	4.389667E-17	2.235240E-18
7.160000E+03	4.411242E-17	2.235220E-18
7.170000E+03	4.432464E-17	2.234912E-18
7.180000E+03	4.453253E-17	2.234238E-18
7.190000E+03	4.473616E-17	2.233160E-18
7.200000E+03	4.493656E-17	2.231683E-18
7.210000E+03	4.513292E-17	2.229718E-18
7.220000E+03	4.532631E-17	2.227266E-18
7.230000E+03	4.551492E-17	2.224188E-18
7.240000E+03	4.569979E-17	2.220490E-18
7.250000E+03	4.588098E-17	2.216133E-18
7.260000E+03	4.605855E-17	2.211084E-18
7.270000E+03	4.623247E-17	2.205319E-18
7.280000E+03	4.640274E-17	2.198823E-18
7.290000E+03	4.656827E-17	2.191543E-18
7.300000E+03	4.672995E-17	2.183534E-18
7.310000E+03	4.688765E-17	2.174815E-18
7.320000E+03	4.704124E-17	2.165422E-18
7.330000E+03	4.718953E-17	2.155356E-18
7.340000E+03	4.733338E-17	2.144730E-18
7.350000E+03	4.747368E-17	2.133672E-18
7.360000E+03	4.760822E-17	2.122189E-18
7.370000E+03	4.773789E-17	2.110446E-18
7.380000E+03	4.786258E-17	2.098582E-18
7.390000E+03	4.798327E-17	2.086806E-18
7.400000E+03	4.809885E-17	2.075255E-18
7.410000E+03	4.821035E-17	2.064187E-18
7.420000E+03	4.831890E-17	2.053886E-18
7.430000E+03	4.842347E-17	2.044576E-18
7.440000E+03	4.852640E-17	2.036648E-18
7.450000E+03	4.862564E-17	2.030333E-18
7.460000E+03	4.872253E-17	2.026025E-18
7.470000E+03	4.881619E-17	2.024031E-18
7.480000E+03	4.890801E-17	2.024742E-18
7.490000E+03	4.899603E-17	2.028369E-18
7.500000E+03	4.908165E-17	2.035188E-18
7.510000E+03	4.916511E-17	2.045316E-18
7.520000E+03	4.924548E-17	2.058676E-18
7.530000E+03	4.932522E-17	2.075176E-18
7.540000E+03	4.940218E-17	2.094402E-18
7.550000E+03	4.947762E-17	2.115988E-18
7.560000E+03	4.955050E-17	2.139403E-18
7.570000E+03	4.962211E-17	2.164191E-18
7.580000E+03	4.969143E-17	2.189793E-18
7.590000E+03	4.975975E-17	2.215780E-18
7.600000E+03	4.982602E-17	2.241667E-18
7.610000E+03	4.989034E-17	2.267082E-18
7.620000E+03	4.995401E-17	2.291787E-18
7.630000E+03	5.001586E-17	2.315516E-18
7.640000E+03	5.007592E-17	2.338137E-18
7.650000E+03	5.013538E-17	2.359654E-18
7.660000E+03	5.019299E-17	2.380022E-18
7.670000E+03	5.024989E-17	2.399371E-18
7.680000E+03	5.030349E-17	2.417694E-18
7.690000E+03	5.035615E-17	2.435250E-18
7.700000E+03	5.040771E-17	2.452196E-18
7.710000E+03	5.045678E-17	2.468634E-18
7.720000E+03	5.050444E-17	2.484783E-18
7.730000E+03	5.054926E-17	2.500734E-18
7.740000E+03	5.059106E-17	2.516623E-18
7.750000E+03	5.063092E-17	2.532639E-18
7.760000E+03	5.066863E-17	2.548888E-18
