#wls	flux	fluxerr
1.600000E+03	6.530831E-17	4.065991E-17
1.640000E+03	6.556398E-17	4.007315E-17
1.680000E+03	6.575956E-17	3.943620E-17
1.720000E+03	6.588127E-17	3.874316E-17
1.760000E+03	6.594016E-17	3.800312E-17
1.800000E+03	6.592119E-17	3.721003E-17
1.840000E+03	6.582149E-17	3.636534E-17
1.880000E+03	6.564837E-17	3.547619E-17
1.920000E+03	6.538596E-17	3.453722E-17
1.960000E+03	6.503481E-17	3.355239E-17
2.000000E+03	6.458491E-17	3.252039E-17
2.040000E+03	6.403632E-17	3.144541E-17
2.080000E+03	6.337136E-17	3.032322E-17
2.120000E+03	6.257977E-17	2.915403E-17
2.160000E+03	6.165010E-17	2.793807E-17
2.200000E+03	6.055662E-17	2.666995E-17
2.240000E+03	5.927841E-17	2.534770E-17
2.280000E+03	5.781600E-17	2.397938E-17
2.320000E+03	5.618649E-17	2.257972E-17
2.360000E+03	5.443804E-17	2.117465E-17
2.400000E+03	5.260576E-17	1.978271E-17
2.440000E+03	5.071658E-17	1.841764E-17
2.480000E+03	4.879716E-17	1.709164E-17
2.520000E+03	4.685690E-17	1.580965E-17
2.560000E+03	4.490807E-17	1.457701E-17
2.600000E+03	4.295785E-17	1.339677E-17
2.640000E+03	4.101463E-17	1.227190E-17
2.680000E+03	3.908197E-17	1.120348E-17
2.720000E+03	3.716443E-17	1.019259E-17
2.760000E+03	3.526623E-17	9.239921E-18
2.800000E+03	3.339171E-17	8.345878E-18
2.840000E+03	3.154635E-17	7.510824E-18
2.880000E+03	2.973805E-17	6.735304E-18
2.920000E+03	2.797586E-17	6.019639E-18
2.960000E+03	2.627030E-17	5.363944E-18
3.000000E+03	2.463140E-17	4.767684E-18
3.010000E+03	2.423377E-17	4.627893E-18
3.020000E+03	2.384040E-17	4.491600E-18
3.030000E+03	2.345234E-17	4.358955E-18
3.040000E+03	2.306903E-17	4.229803E-18
3.050000E+03	2.269097E-17	4.104177E-18
3.060000E+03	2.231856E-17	3.982101E-18
3.070000E+03	2.195082E-17	3.863340E-18
3.080000E+03	2.158908E-17	3.748078E-18
3.090000E+03	2.123238E-17	3.636086E-18
3.100000E+03	2.088152E-17	3.527449E-18
3.110000E+03	2.053600E-17	3.422025E-18
3.120000E+03	2.019577E-17	3.319748E-18
3.130000E+03	1.986156E-17	3.220682E-18
3.140000E+03	1.953257E-17	3.124636E-18
3.150000E+03	1.920992E-17	3.031725E-18
3.160000E+03	1.889248E-17	2.941709E-18
3.170000E+03	1.858130E-17	2.854692E-18
3.180000E+03	1.827567E-17	2.770499E-18
3.190000E+03	1.797622E-17	2.689168E-18
3.200000E+03	1.768258E-17	2.610579E-18
3.210000E+03	1.739504E-17	2.534715E-18
3.220000E+03	1.711353E-17	2.461505E-18
3.230000E+03	1.683804E-17	2.390886E-18
3.240000E+03	1.656830E-17	2.322755E-18
3.250000E+03	1.630484E-17	2.257128E-18
3.260000E+03	1.604739E-17	2.193903E-18
3.270000E+03	1.579616E-17	2.133052E-18
3.280000E+03	1.555089E-17	2.074477E-18
3.290000E+03	1.531154E-17	2.018117E-18
3.300000E+03	1.507833E-17	1.963942E-18
3.310000E+03	1.485099E-17	1.911860E-18
3.320000E+03	1.462969E-17	1.861838E-18
3.330000E+03	1.441440E-17	1.813815E-18
3.340000E+03	1.420466E-17	1.767679E-18
3.350000E+03	1.400084E-17	1.723424E-18
3.360000E+03	1.380271E-17	1.680969E-18
3.370000E+03	1.361023E-17	1.640259E-18
3.380000E+03	1.342335E-17	1.601239E-18
3.390000E+03	1.324169E-17	1.563813E-18
3.400000E+03	1.306559E-17	1.527976E-18
3.410000E+03	1.289483E-17	1.493654E-18
3.420000E+03	1.272921E-17	1.460782E-18
3.430000E+03	1.256872E-17	1.429312E-18
3.440000E+03	1.241334E-17	1.399200E-18
3.450000E+03	1.226274E-17	1.370366E-18
3.460000E+03	1.211705E-17	1.342788E-18
3.470000E+03	1.197598E-17	1.316391E-18
3.480000E+03	1.183954E-17	1.291140E-18
3.490000E+03	1.170758E-17	1.266983E-18
3.500000E+03	1.157998E-17	1.243871E-18
3.510000E+03	1.145663E-17	1.221758E-18
3.520000E+03	1.133742E-17	1.200601E-18
3.530000E+03	1.122214E-17	1.180344E-18
3.540000E+03	1.111059E-17	1.160937E-18
3.550000E+03	1.100269E-17	1.142344E-18
3.560000E+03	1.089827E-17	1.124520E-18
3.570000E+03	1.079728E-17	1.107432E-18
3.580000E+03	1.069946E-17	1.091029E-18
3.590000E+03	1.060476E-17	1.075283E-18
3.600000E+03	1.051305E-17	1.060157E-18
3.610000E+03	1.042442E-17	1.045638E-18
3.620000E+03	1.033862E-17	1.031681E-18
3.630000E+03	1.025564E-17	1.018265E-18
3.640000E+03	1.017517E-17	1.005339E-18
3.650000E+03	1.009721E-17	9.928850E-19
3.660000E+03	1.002165E-17	9.808764E-19
3.670000E+03	9.948399E-18	9.692879E-19
3.680000E+03	9.877465E-18	9.581035E-19
3.690000E+03	9.808842E-18	9.473083E-19
3.700000E+03	9.742438E-18	9.368792E-19
3.710000E+03	9.678334E-18	9.268102E-19
3.720000E+03	9.616433E-18	9.170787E-19
3.730000E+03	9.556894E-18	9.076875E-19
3.740000E+03	9.499692E-18	8.986219E-19
3.750000E+03	9.444802E-18	8.898679E-19
3.760000E+03	9.392277E-18	8.814196E-19
3.770000E+03	9.342244E-18	8.732781E-19
3.780000E+03	9.294661E-18	8.654292E-19
3.790000E+03	9.249642E-18	8.578741E-19
3.800000E+03	9.207138E-18	8.505985E-19
3.810000E+03	9.167175E-18	8.435957E-19
3.820000E+03	9.129855E-18	8.368664E-19
3.830000E+03	9.095270E-18	8.304102E-19
3.840000E+03	9.063359E-18	8.242131E-19
3.850000E+03	9.034284E-18	8.182819E-19
3.860000E+03	9.007903E-18	8.125956E-19
3.870000E+03	8.984444E-18	8.071669E-19
3.880000E+03	8.963763E-18	8.019755E-19
3.890000E+03	8.946076E-18	7.970333E-19
3.900000E+03	8.931306E-18	7.923258E-19
3.910000E+03	8.919521E-18	7.878520E-19
3.920000E+03	8.910710E-18	7.836037E-19
3.930000E+03	8.904936E-18	7.795793E-19
3.940000E+03	8.902187E-18	7.757710E-19
3.950000E+03	8.902594E-18	7.721828E-19
3.960000E+03	8.906072E-18	7.688004E-19
3.970000E+03	8.912679E-18	7.656220E-19
3.980000E+03	8.922401E-18	7.626389E-19
3.990000E+03	8.935364E-18	7.598547E-19
4.000000E+03	8.951553E-18	7.572613E-19
4.010000E+03	8.970954E-18	7.548495E-19
4.020000E+03	8.993551E-18	7.526107E-19
4.030000E+03	9.019472E-18	7.505480E-19
4.040000E+03	9.048631E-18	7.486464E-19
4.050000E+03	9.081159E-18	7.469087E-19
4.060000E+03	9.116972E-18	7.453203E-19
4.070000E+03	9.156131E-18	7.438777E-19
4.080000E+03	9.198701E-18	7.425777E-19
4.090000E+03	9.244672E-18	7.414113E-19
4.100000E+03	9.294041E-18	7.403693E-19
4.110000E+03	9.346800E-18	7.394424E-19
4.120000E+03	9.403092E-18	7.386334E-19
4.130000E+03	9.462840E-18	7.379267E-19
4.140000E+03	9.526114E-18	7.373186E-19
4.150000E+03	9.592838E-18	7.367940E-19
4.160000E+03	9.663082E-18	7.363482E-19
4.170000E+03	9.736921E-18	7.359765E-19
4.180000E+03	9.814277E-18	7.356628E-19
4.190000E+03	9.895226E-18	7.354016E-19
4.200000E+03	9.979687E-18	7.351762E-19
4.210000E+03	1.006774E-17	7.349811E-19
4.220000E+03	1.015929E-17	7.347987E-19
4.230000E+03	1.025443E-17	7.346231E-19
4.240000E+03	1.035307E-17	7.344369E-19
4.250000E+03	1.045519E-17	7.342278E-19
4.260000E+03	1.056071E-17	7.339778E-19
4.270000E+03	1.066970E-17	7.336809E-19
4.280000E+03	1.078206E-17	7.333186E-19
4.290000E+03	1.089776E-17	7.328787E-19
4.300000E+03	1.101671E-17	7.323431E-19
4.310000E+03	1.113877E-17	7.316934E-19
4.320000E+03	1.126391E-17	7.309169E-19
4.330000E+03	1.139208E-17	7.300014E-19
4.340000E+03	1.152315E-17	7.289283E-19
4.350000E+03	1.165705E-17	7.276850E-19
4.360000E+03	1.179362E-17	7.262536E-19
4.370000E+03	1.193288E-17	7.246269E-19
4.380000E+03	1.207475E-17	7.227921E-19
4.390000E+03	1.221942E-17	7.207542E-19
4.400000E+03	1.236680E-17	7.184897E-19
4.410000E+03	1.251691E-17	7.159790E-19
4.420000E+03	1.266969E-17	7.131961E-19
4.430000E+03	1.282529E-17	7.101260E-19
4.440000E+03	1.298355E-17	7.067371E-19
4.450000E+03	1.314440E-17	7.030050E-19
4.460000E+03	1.330787E-17	6.989110E-19
4.470000E+03	1.347391E-17	6.944330E-19
4.480000E+03	1.364243E-17	6.895511E-19
4.490000E+03	1.381326E-17	6.842412E-19
4.500000E+03	1.398641E-17	6.784945E-19
4.510000E+03	1.416170E-17	6.722949E-19
4.520000E+03	1.433901E-17	6.656354E-19
4.530000E+03	1.451825E-17	6.585150E-19
4.540000E+03	1.469906E-17	6.509291E-19
4.550000E+03	1.488146E-17	6.428970E-19
4.560000E+03	1.506519E-17	6.344369E-19
4.570000E+03	1.525012E-17	6.255843E-19
4.580000E+03	1.543587E-17	6.163757E-19
4.590000E+03	1.562241E-17	6.068792E-19
4.600000E+03	1.580934E-17	5.971640E-19
4.610000E+03	1.599664E-17	5.873327E-19
4.620000E+03	1.618386E-17	5.774936E-19
4.630000E+03	1.637085E-17	5.677890E-19
4.640000E+03	1.655729E-17	5.583788E-19
4.650000E+03	1.674314E-17	5.494592E-19
4.660000E+03	1.692792E-17	5.412381E-19
4.670000E+03	1.711162E-17	5.339604E-19
4.680000E+03	1.729387E-17	5.278832E-19
4.690000E+03	1.747434E-17	5.232798E-19
4.700000E+03	1.765297E-17	5.204381E-19
4.710000E+03	1.782925E-17	5.196272E-19
4.720000E+03	1.800296E-17	5.211064E-19
4.730000E+03	1.817366E-17	5.249919E-19
4.740000E+03	1.834144E-17	5.311748E-19
4.750000E+03	1.850593E-17	5.394625E-19
4.760000E+03	1.866724E-17	5.496416E-19
4.770000E+03	1.882517E-17	5.614703E-19
4.780000E+03	1.897983E-17	5.747095E-19
4.790000E+03	1.913102E-17	5.891091E-19
4.800000E+03	1.927869E-17	6.044336E-19
4.810000E+03	1.942279E-17	6.204629E-19
4.820000E+03	1.956328E-17	6.369920E-19
4.830000E+03	1.970012E-17	6.538358E-19
4.840000E+03	1.983310E-17	6.708242E-19
4.850000E+03	1.996235E-17	6.878165E-19
4.860000E+03	2.008784E-17	7.046863E-19
4.870000E+03	2.020937E-17	7.213190E-19
4.880000E+03	2.032691E-17	7.376202E-19
4.890000E+03	2.044063E-17	7.535192E-19
4.900000E+03	2.055013E-17	7.689382E-19
4.910000E+03	2.065578E-17	7.838357E-19
4.920000E+03	2.075736E-17	7.981609E-19
4.930000E+03	2.085465E-17	8.118721E-19
4.940000E+03	2.094783E-17	8.249434E-19
4.950000E+03	2.103684E-17	8.373496E-19
4.960000E+03	2.112145E-17	8.490654E-19
4.970000E+03	2.120182E-17	8.600801E-19
4.980000E+03	2.127748E-17	8.703651E-19
4.990000E+03	2.134879E-17	8.799316E-19
5.000000E+03	2.141550E-17	8.887646E-19
5.010000E+03	2.147732E-17	8.968545E-19
5.020000E+03	2.153442E-17	9.042151E-19
5.030000E+03	2.158651E-17	9.108416E-19
5.040000E+03	2.163355E-17	9.167437E-19
5.050000E+03	2.167547E-17	9.219363E-19
5.060000E+03	2.171220E-17	9.264326E-19
5.070000E+03	2.174348E-17	9.302418E-19
5.080000E+03	2.176946E-17	9.333958E-19
5.090000E+03	2.178986E-17	9.359043E-19
5.100000E+03	2.180461E-17	9.377906E-19
5.110000E+03	2.181345E-17	9.390731E-19
5.120000E+03	2.181655E-17	9.397849E-19
5.130000E+03	2.181343E-17	9.399359E-19
5.140000E+03	2.180450E-17	9.395761E-19
5.150000E+03	2.178932E-17	9.387126E-19
5.160000E+03	2.176810E-17	9.373835E-19
5.170000E+03	2.174062E-17	9.356134E-19
5.180000E+03	2.170670E-17	9.334248E-19
5.190000E+03	2.166656E-17	9.308638E-19
5.200000E+03	2.162002E-17	9.279620E-19
5.210000E+03	2.156712E-17	9.247572E-19
5.220000E+03	2.150792E-17	9.212909E-19
5.230000E+03	2.144226E-17	9.175988E-19
5.240000E+03	2.137023E-17	9.137191E-19
5.250000E+03	2.129169E-17	9.096835E-19
5.260000E+03	2.120695E-17	9.055431E-19
5.270000E+03	2.111591E-17	9.013195E-19
5.280000E+03	2.101868E-17	8.970443E-19
5.290000E+03	2.091541E-17	8.927500E-19
5.300000E+03	2.080602E-17	8.884498E-19
5.310000E+03	2.069069E-17	8.841670E-19
5.320000E+03	2.056958E-17	8.799252E-19
5.330000E+03	2.044288E-17	8.757389E-19
5.337625E+03	1.981736E-17	1.464175E-17
5.338425E+03	1.993993E-17	1.467290E-17
5.338825E+03	1.998659E-17	1.468786E-17
5.339025E+03	1.999558E-17	1.469411E-17
5.339225E+03	2.000553E-17	1.470069E-17
5.339426E+03	2.001410E-17	1.470750E-17
5.340026E+03	2.009556E-17	1.473461E-17
5.340226E+03	2.010201E-17	1.474201E-17
5.340626E+03	2.014670E-17	1.476041E-17
5.341826E+03	2.034000E-17	1.482631E-17
5.343026E+03	2.053424E-17	1.489736E-17
5.344827E+03	2.083788E-17	1.501400E-17
5.345627E+03	2.095374E-17	1.506810E-17
5.346027E+03	2.099401E-17	1.509559E-17
5.346627E+03	2.107378E-17	1.513900E-17
5.347027E+03	2.111406E-17	1.516799E-17
5.347427E+03	2.115469E-17	1.519759E-17
5.347627E+03	2.115792E-17	1.521195E-17
5.348226E+03	2.123283E-17	1.525898E-17
5.348426E+03	2.123453E-17	1.527393E-17
5.348627E+03	2.123727E-17	1.528909E-17
5.348827E+03	2.123653E-17	1.530443E-17
5.349026E+03	2.123566E-17	1.531995E-17
5.349626E+03	2.130832E-17	1.537032E-17
5.350227E+03	2.138135E-17	1.542194E-17
5.350827E+03	2.145421E-17	1.547515E-17
5.351827E+03	2.159963E-17	1.556688E-17
5.352027E+03	2.159697E-17	1.558467E-17
5.352227E+03	2.159179E-17	1.560254E-17
5.352427E+03	2.158544E-17	1.562076E-17
5.353427E+03	2.172723E-17	1.571810E-17
5.353827E+03	2.175654E-17	1.575715E-17
5.354027E+03	2.174996E-17	1.577639E-17
5.354227E+03	2.174215E-17	1.579592E-17
5.354427E+03	2.173295E-17	1.581556E-17
5.354827E+03	2.176088E-17	1.585613E-17
5.355027E+03	2.175193E-17	1.587615E-17
5.355228E+03	2.174249E-17	1.589659E-17
5.355428E+03	2.173393E-17	1.591707E-17
5.356228E+03	2.183335E-17	1.600222E-17
5.356628E+03	2.185694E-17	1.604494E-17
5.357028E+03	2.187980E-17	1.608849E-17
5.357228E+03	2.186726E-17	1.611010E-17
5.357828E+03	2.192580E-17	1.617670E-17
5.358028E+03	2.191151E-17	1.619866E-17
5.358228E+03	2.189593E-17	1.622099E-17
5.358628E+03	2.191566E-17	1.626647E-17
5.359028E+03	2.193629E-17	1.631226E-17
5.359628E+03	2.199251E-17	1.638174E-17
5.359828E+03	2.197602E-17	1.640504E-17
5.360028E+03	2.195745E-17	1.642840E-17
5.360427E+03	2.197384E-17	1.647576E-17
5.361029E+03	2.202703E-17	1.654761E-17
5.361628E+03	2.208048E-17	1.662079E-17
5.362028E+03	2.209647E-17	1.666969E-17
5.362228E+03	2.207336E-17	1.669405E-17
5.362428E+03	2.205006E-17	1.671847E-17
5.362628E+03	2.202994E-17	1.674346E-17
5.362828E+03	2.200576E-17	1.676848E-17
5.364428E+03	2.222770E-17	1.697166E-17
5.364628E+03	2.220246E-17	1.699698E-17
5.364828E+03	2.217650E-17	1.702290E-17
5.365028E+03	2.215233E-17	1.704884E-17
5.365628E+03	2.219670E-17	1.712716E-17
5.366029E+03	2.220375E-17	1.717950E-17
5.366229E+03	2.217484E-17	1.720610E-17
5.366429E+03	2.214707E-17	1.723271E-17
5.367429E+03	2.225879E-17	1.736656E-17
5.367829E+03	2.226285E-17	1.741998E-17
5.368229E+03	2.226684E-17	1.747471E-17
5.368429E+03	2.223784E-17	1.750198E-17
5.369029E+03	2.227428E-17	1.758415E-17
5.369429E+03	2.227498E-17	1.763885E-17
5.369629E+03	2.224047E-17	1.766663E-17
5.369829E+03	2.220574E-17	1.769440E-17
5.370429E+03	2.223864E-17	1.777814E-17
5.370629E+03	2.220396E-17	1.780591E-17
5.371830E+03	2.234100E-17	1.797715E-17
5.372030E+03	2.230421E-17	1.800547E-17
5.372230E+03	2.226721E-17	1.803379E-17
5.372430E+03	2.222998E-17	1.806211E-17
5.372630E+03	2.219353E-17	1.809094E-17
5.373230E+03	2.222145E-17	1.817803E-17
5.373430E+03	2.218082E-17	1.820687E-17
5.373630E+03	2.213996E-17	1.823570E-17
5.373829E+03	2.210061E-17	1.826498E-17
5.374029E+03	2.205960E-17	1.829425E-17
5.374229E+03	2.201766E-17	1.832353E-17
5.375229E+03	2.211021E-17	1.847163E-17
5.375429E+03	2.206846E-17	1.850146E-17
5.376029E+03	2.209419E-17	1.859189E-17
5.376229E+03	2.205102E-17	1.862173E-17
5.377030E+03	2.210790E-17	1.874285E-17
5.378230E+03	2.223414E-17	1.892910E-17
5.378830E+03	2.225560E-17	1.902215E-17
5.379030E+03	2.220864E-17	1.905270E-17
5.380230E+03	2.232923E-17	1.924001E-17
5.380430E+03	2.228094E-17	1.927111E-17
5.381030E+03	2.229955E-17	1.936617E-17
5.381230E+03	2.224900E-17	1.939725E-17
5.381430E+03	2.219817E-17	1.942830E-17
5.381630E+03	2.214819E-17	1.945970E-17
5.381831E+03	2.209661E-17	1.949123E-17
5.383031E+03	2.221354E-17	1.968472E-17
5.383231E+03	2.216062E-17	1.971607E-17
5.383831E+03	2.217522E-17	1.981346E-17
5.384031E+03	2.212032E-17	1.984510E-17
5.384431E+03	2.210091E-17	1.990965E-17
5.384631E+03	2.204765E-17	1.994128E-17
5.385030E+03	2.202559E-17	2.000634E-17
5.385431E+03	2.200300E-17	2.007142E-17
5.385631E+03	2.194665E-17	2.010325E-17
5.386030E+03	2.192233E-17	2.016828E-17
5.386230E+03	2.186320E-17	2.020024E-17
5.386430E+03	2.180455E-17	2.023217E-17
5.386630E+03	2.174719E-17	2.026412E-17
5.386830E+03	2.168722E-17	2.029601E-17
5.387030E+03	2.162637E-17	2.032804E-17
5.387431E+03	2.159727E-17	2.039383E-17
5.387631E+03	2.153490E-17	2.042577E-17
5.387831E+03	2.147227E-17	2.045769E-17
5.388231E+03	2.144117E-17	2.052360E-17
5.388431E+03	2.137722E-17	2.056268E-17
5.388631E+03	2.131298E-17	2.058688E-17
5.388831E+03	2.124764E-17	2.045176E-17
5.389231E+03	2.121436E-17	2.052461E-17
5.390031E+03	2.124433E-17	2.064386E-17
5.390231E+03	2.117698E-17	2.041828E-17
5.390431E+03	2.110933E-17	2.045206E-17
5.392432E+03	2.132880E-17	2.079673E-17
5.392632E+03	2.126040E-17	2.082514E-17
5.392832E+03	2.119089E-17	2.079060E-17
5.393032E+03	2.112190E-17	2.059680E-17
5.393232E+03	2.105222E-17	2.062911E-17
5.393632E+03	2.101378E-17	2.063699E-17
5.393832E+03	2.094333E-17	2.066345E-17
5.395232E+03	2.106008E-17	2.084089E-17
5.395432E+03	2.098850E-17	2.084852E-17
5.395632E+03	2.091577E-17	2.064642E-17
5.397232E+03	2.106177E-17	2.088485E-17
5.397431E+03	2.098731E-17	2.091557E-17
5.397632E+03	2.091283E-17	2.092735E-17
5.397833E+03	2.083733E-17	2.095838E-17
5.398233E+03	2.079389E-17	2.100325E-17
5.398432E+03	2.071745E-17	2.096525E-17
5.398632E+03	2.063915E-17	2.091370E-17
5.398832E+03	2.056140E-17	2.094763E-17
5.399032E+03	2.048333E-17	2.096554E-17
5.399632E+03	2.046448E-17	2.106299E-17
5.399832E+03	2.038564E-17	2.077026E-17
5.400632E+03	2.039588E-17	2.060019E-17
5.400832E+03	2.031505E-17	2.022779E-17
5.401032E+03	2.023387E-17	2.022504E-17
5.401232E+03	2.015256E-17	2.018820E-17
5.401432E+03	2.007179E-17	2.021014E-17
5.401632E+03	1.999157E-17	2.022263E-17
5.401832E+03	1.990752E-17	2.019374E-17
5.402032E+03	1.982335E-17	2.017170E-17
5.402232E+03	1.973884E-17	2.018817E-17
5.403233E+03	1.977088E-17	2.030379E-17
5.403633E+03	1.971559E-17	2.034026E-17
5.403833E+03	1.962768E-17	2.028940E-17
5.404033E+03	1.953943E-17	2.031315E-17
5.404233E+03	1.945439E-17	2.025588E-17
5.404833E+03	1.942303E-17	2.029160E-17
5.405233E+03	1.936372E-17	2.030983E-17
5.405433E+03	1.927285E-17	2.030146E-17
5.405833E+03	1.921145E-17	2.032879E-17
5.406033E+03	1.912240E-17	2.033250E-17
5.406433E+03	1.906193E-17	2.037571E-17
5.406633E+03	1.897041E-17	2.039611E-17
5.407033E+03	1.890783E-17	2.045054E-17
5.407233E+03	1.881543E-17	2.047522E-17
5.408233E+03	1.883218E-17	2.063140E-17
5.408434E+03	1.873962E-17	2.066164E-17
5.408634E+03	1.864658E-17	2.068990E-17
5.408834E+03	1.855320E-17	2.046036E-17
5.409434E+03	1.851243E-17	2.033643E-17
5.409633E+03	1.841819E-17	1.992116E-17
5.410234E+03	1.837659E-17	1.995776E-17
5.410434E+03	1.828131E-17	1.988154E-17
5.410633E+03	1.818584E-17	1.988810E-17
5.410833E+03	1.809003E-17	1.991191E-17
5.411233E+03	1.801979E-17	1.987882E-17
5.411433E+03	1.792309E-17	1.989137E-17
5.411633E+03	1.782621E-17	1.991687E-17
5.412633E+03	1.783130E-17	1.959775E-17
5.413033E+03	1.775935E-17	1.963975E-17
5.413233E+03	1.766052E-17	1.949256E-17
5.414034E+03	1.763863E-17	1.957557E-17
5.414634E+03	1.759005E-17	1.960796E-17
5.415634E+03	1.758938E-17	1.969247E-17
5.416034E+03	1.751351E-17	1.974450E-17
5.416834E+03	1.748515E-17	1.945345E-17
5.417034E+03	1.738037E-17	1.938419E-17
5.417234E+03	1.728012E-17	1.927392E-17
5.417434E+03	1.717951E-17	1.925100E-17
5.417634E+03	1.707573E-17	1.909030E-17
5.417834E+03	1.697160E-17	1.845587E-17
5.418234E+03	1.689097E-17	1.841346E-17
5.418434E+03	1.678494E-17	1.838941E-17
5.418834E+03	1.670330E-17	1.751139E-17
5.419035E+03	1.659758E-17	1.751082E-17
5.419235E+03	1.649138E-17	1.750038E-17
5.419835E+03	1.643099E-17	1.757129E-17
5.420035E+03	1.632383E-17	1.756548E-17
5.420235E+03	1.621630E-17	1.746160E-17
5.421035E+03	1.617644E-17	1.748928E-17
5.421235E+03	1.606662E-17	1.693142E-17
5.421435E+03	1.595555E-17	1.661159E-17
5.421835E+03	1.586637E-17	1.665509E-17
5.422234E+03	1.578349E-17	1.617257E-17
5.422635E+03	1.569587E-17	1.616929E-17
5.423234E+03	1.562956E-17	1.622494E-17
5.423434E+03	1.551580E-17	1.614706E-17
5.423634E+03	1.540473E-17	1.616205E-17
5.423834E+03	1.529227E-17	1.441953E-17
5.424034E+03	1.517851E-17	1.440164E-17
5.424435E+03	1.508854E-17	1.433491E-17
5.424635E+03	1.497383E-17	1.384151E-17
5.424835E+03	1.485979E-17	1.384302E-17
5.425035E+03	1.474545E-17	1.382870E-17
5.425435E+03	1.465209E-17	1.280348E-17
5.425635E+03	1.453991E-17	1.214396E-17
5.425835E+03	1.442530E-17	1.212918E-17
5.426235E+03	1.432819E-17	1.214004E-17
5.426435E+03	1.421481E-17	1.189002E-17
5.426635E+03	1.410210E-17	1.161591E-17
5.427035E+03	1.400519E-17	1.126320E-17
5.427235E+03	1.389062E-17	1.117530E-17
5.427435E+03	1.377463E-17	1.115520E-17
5.427835E+03	1.367711E-17	1.117626E-17
5.428435E+03	1.359750E-17	1.120564E-17
5.428635E+03	1.348202E-17	1.118528E-17
5.428835E+03	1.336511E-17	1.081439E-17
5.429035E+03	1.324678E-17	1.057795E-17
5.429235E+03	1.313125E-17	1.052766E-17
5.429836E+03	1.304916E-17	1.056066E-17
5.430036E+03	1.293154E-17	1.039408E-17
5.430236E+03	1.281354E-17	1.030296E-17
5.430636E+03	1.271357E-17	1.032397E-17
5.431636E+03	1.266590E-17	1.030176E-17
5.431836E+03	1.254811E-17	9.811175E-18
