#wls	flux	fluxerr
1.600000E+03	2.433853E-16	2.566494E-16
1.640000E+03	2.418533E-16	2.516344E-16
1.680000E+03	2.401210E-16	2.463763E-16
1.720000E+03	2.381654E-16	2.408617E-16
1.760000E+03	2.359839E-16	2.350998E-16
1.800000E+03	2.335912E-16	2.291170E-16
1.840000E+03	2.309214E-16	2.228619E-16
1.880000E+03	2.280068E-16	2.163810E-16
1.920000E+03	2.248212E-16	2.096650E-16
1.960000E+03	2.213419E-16	2.027101E-16
2.000000E+03	2.175357E-16	1.955052E-16
2.040000E+03	2.133914E-16	1.880620E-16
2.080000E+03	2.088770E-16	1.803755E-16
2.120000E+03	2.039478E-16	1.724331E-16
2.160000E+03	1.986122E-16	1.642707E-16
2.200000E+03	1.928439E-16	1.558958E-16
2.240000E+03	1.866462E-16	1.473425E-16
2.280000E+03	1.800559E-16	1.386712E-16
2.320000E+03	1.731344E-16	1.299585E-16
2.360000E+03	1.659673E-16	1.212945E-16
2.400000E+03	1.586398E-16	1.127626E-16
2.440000E+03	1.512274E-16	1.044328E-16
2.480000E+03	1.438147E-16	9.637484E-17
2.520000E+03	1.364551E-16	8.863128E-17
2.560000E+03	1.292052E-16	8.124178E-17
2.600000E+03	1.220983E-16	7.422668E-17
2.640000E+03	1.151685E-16	6.760339E-17
2.680000E+03	1.084380E-16	6.137913E-17
2.720000E+03	1.019278E-16	5.555792E-17
2.760000E+03	9.565771E-17	5.014067E-17
2.800000E+03	8.964350E-17	4.512387E-17
2.840000E+03	8.390062E-17	4.050180E-17
2.880000E+03	7.844808E-17	3.626836E-17
2.920000E+03	7.329850E-17	3.241239E-17
2.960000E+03	6.847221E-17	2.892431E-17
3.000000E+03	6.398071E-17	2.578880E-17
3.010000E+03	6.291347E-17	2.505888E-17
3.020000E+03	6.186720E-17	2.434933E-17
3.030000E+03	6.084199E-17	2.365987E-17
3.040000E+03	5.984062E-17	2.299122E-17
3.050000E+03	5.886169E-17	2.234247E-17
3.060000E+03	5.790520E-17	2.171327E-17
3.070000E+03	5.697238E-17	2.110373E-17
3.080000E+03	5.606198E-17	2.051300E-17
3.090000E+03	5.517402E-17	1.994076E-17
3.100000E+03	5.431076E-17	1.938745E-17
3.110000E+03	5.346988E-17	1.885188E-17
3.120000E+03	5.265249E-17	1.833407E-17
3.130000E+03	5.185749E-17	1.783330E-17
3.140000E+03	5.108796E-17	1.735025E-17
3.150000E+03	5.034076E-17	1.688350E-17
3.160000E+03	4.961689E-17	1.643304E-17
3.170000E+03	4.891727E-17	1.599881E-17
3.180000E+03	4.824180E-17	1.558042E-17
3.190000E+03	4.758863E-17	1.517694E-17
3.200000E+03	4.696040E-17	1.478885E-17
3.210000E+03	4.635530E-17	1.441524E-17
3.220000E+03	4.577415E-17	1.405602E-17
3.230000E+03	4.521610E-17	1.371060E-17
3.240000E+03	4.468192E-17	1.337888E-17
3.250000E+03	4.417158E-17	1.306052E-17
3.260000E+03	4.368504E-17	1.275519E-17
3.270000E+03	4.322154E-17	1.246233E-17
3.280000E+03	4.278181E-17	1.218185E-17
3.290000E+03	4.236585E-17	1.191342E-17
3.300000E+03	4.197295E-17	1.165655E-17
3.310000E+03	4.160383E-17	1.141112E-17
3.320000E+03	4.125783E-17	1.117667E-17
3.330000E+03	4.093565E-17	1.095307E-17
3.340000E+03	4.063666E-17	1.073987E-17
3.350000E+03	4.036093E-17	1.053681E-17
3.360000E+03	4.010852E-17	1.034362E-17
3.370000E+03	3.987950E-17	1.016004E-17
3.380000E+03	3.967394E-17	9.985812E-18
3.390000E+03	3.949134E-17	9.820553E-18
3.400000E+03	3.933238E-17	9.664166E-18
3.410000E+03	3.919602E-17	9.516142E-18
3.420000E+03	3.908350E-17	9.376531E-18
3.430000E+03	3.899382E-17	9.244845E-18
3.440000E+03	3.892713E-17	9.120881E-18
3.450000E+03	3.888355E-17	9.004435E-18
3.460000E+03	3.886270E-17	8.895187E-18
3.470000E+03	3.886523E-17	8.793068E-18
3.480000E+03	3.889077E-17	8.697768E-18
3.490000E+03	3.893893E-17	8.608993E-18
3.500000E+03	3.900986E-17	8.526568E-18
3.510000E+03	3.910319E-17	8.450213E-18
3.520000E+03	3.921955E-17	8.379867E-18
3.530000E+03	3.935757E-17	8.315048E-18
3.540000E+03	3.951784E-17	8.255703E-18
3.550000E+03	3.969999E-17	8.201572E-18
3.560000E+03	3.990406E-17	8.152497E-18
3.570000E+03	4.012916E-17	8.108126E-18
3.580000E+03	4.037485E-17	8.068213E-18
3.590000E+03	4.064158E-17	8.032699E-18
3.600000E+03	4.092792E-17	8.001149E-18
3.610000E+03	4.123426E-17	7.973502E-18
3.620000E+03	4.156002E-17	7.949507E-18
3.630000E+03	4.190412E-17	7.928824E-18
3.640000E+03	4.226588E-17	7.911206E-18
3.650000E+03	4.264506E-17	7.896486E-18
3.660000E+03	4.304043E-17	7.884321E-18
3.670000E+03	4.345209E-17	7.874623E-18
3.680000E+03	4.387825E-17	7.866957E-18
3.690000E+03	4.431842E-17	7.861140E-18
3.700000E+03	4.477162E-17	7.856899E-18
3.710000E+03	4.523726E-17	7.854038E-18
3.720000E+03	4.571376E-17	7.852194E-18
3.730000E+03	4.620044E-17	7.851160E-18
3.740000E+03	4.669606E-17	7.850647E-18
3.750000E+03	4.719986E-17	7.850439E-18
3.760000E+03	4.771050E-17	7.850238E-18
3.770000E+03	4.822714E-17	7.849823E-18
3.780000E+03	4.874838E-17	7.848891E-18
3.790000E+03	4.927283E-17	7.847141E-18
3.800000E+03	4.980052E-17	7.844503E-18
3.810000E+03	5.032907E-17	7.840523E-18
3.820000E+03	5.085803E-17	7.835057E-18
3.830000E+03	5.138697E-17	7.827965E-18
3.840000E+03	5.191404E-17	7.818885E-18
3.850000E+03	5.243839E-17	7.807613E-18
3.860000E+03	5.295972E-17	7.794028E-18
3.870000E+03	5.347731E-17	7.777944E-18
3.880000E+03	5.399052E-17	7.759185E-18
3.890000E+03	5.449828E-17	7.737514E-18
3.900000E+03	5.500064E-17	7.712855E-18
3.910000E+03	5.549723E-17	7.685072E-18
3.920000E+03	5.598784E-17	7.654043E-18
3.930000E+03	5.647235E-17	7.619664E-18
3.940000E+03	5.695082E-17	7.581846E-18
3.950000E+03	5.742395E-17	7.540584E-18
3.960000E+03	5.789208E-17	7.495822E-18
3.970000E+03	5.835520E-17	7.447449E-18
3.980000E+03	5.881504E-17	7.395576E-18
3.990000E+03	5.927194E-17	7.340124E-18
4.000000E+03	5.972745E-17	7.281163E-18
4.010000E+03	6.018280E-17	7.218707E-18
4.020000E+03	6.063886E-17	7.152720E-18
4.030000E+03	6.109831E-17	7.083369E-18
4.040000E+03	6.156243E-17	7.010637E-18
4.050000E+03	6.203375E-17	6.934639E-18
4.060000E+03	6.251449E-17	6.855435E-18
4.070000E+03	6.300708E-17	6.773088E-18
4.080000E+03	6.351418E-17	6.687661E-18
4.090000E+03	6.403922E-17	6.599281E-18
4.100000E+03	6.458475E-17	6.507950E-18
4.110000E+03	6.515414E-17	6.413733E-18
4.120000E+03	6.575216E-17	6.316797E-18
4.130000E+03	6.638159E-17	6.217082E-18
4.140000E+03	6.704721E-17	6.114689E-18
4.150000E+03	6.775358E-17	6.009657E-18
4.160000E+03	6.850558E-17	5.902019E-18
4.170000E+03	6.930850E-17	5.791805E-18
4.180000E+03	7.016805E-17	5.679041E-18
4.190000E+03	7.109040E-17	5.563758E-18
4.200000E+03	7.208226E-17	5.445992E-18
4.210000E+03	7.315091E-17	5.325798E-18
4.220000E+03	7.430430E-17	5.203259E-18
4.230000E+03	7.555048E-17	5.078458E-18
4.240000E+03	7.689895E-17	4.951596E-18
4.250000E+03	7.836088E-17	4.823011E-18
4.260000E+03	7.994791E-17	4.693139E-18
4.270000E+03	8.167153E-17	4.562531E-18
4.280000E+03	8.354679E-17	4.432133E-18
4.290000E+03	8.558981E-17	4.303217E-18
4.300000E+03	8.781870E-17	4.177551E-18
4.310000E+03	9.025395E-17	4.057559E-18
4.320000E+03	9.291800E-17	3.946487E-18
4.330000E+03	9.583899E-17	3.848768E-18
4.340000E+03	9.904565E-17	3.770016E-18
4.350000E+03	1.025746E-16	3.717489E-18
4.360000E+03	1.064663E-16	3.699954E-18
4.370000E+03	1.107686E-16	3.727630E-18
4.380000E+03	1.155359E-16	3.811662E-18
4.390000E+03	1.208319E-16	3.963289E-18
4.400000E+03	1.267043E-16	4.189249E-18
4.410000E+03	1.331859E-16	4.491093E-18
4.420000E+03	1.403094E-16	4.868543E-18
4.430000E+03	1.481103E-16	5.320335E-18
4.440000E+03	1.566296E-16	5.844917E-18
4.450000E+03	1.659082E-16	6.440685E-18
4.460000E+03	1.759906E-16	7.106334E-18
4.470000E+03	1.869252E-16	7.840941E-18
4.480000E+03	1.987571E-16	8.643649E-18
4.490000E+03	2.115374E-16	9.513979E-18
4.500000E+03	2.253163E-16	1.045146E-17
4.510000E+03	2.401418E-16	1.145546E-17
4.520000E+03	2.560626E-16	1.252529E-17
4.530000E+03	2.731256E-16	1.366006E-17
4.540000E+03	2.913749E-16	1.485857E-17
4.550000E+03	3.108501E-16	1.611933E-17
4.560000E+03	3.315826E-16	1.744039E-17
4.570000E+03	3.535957E-16	1.881950E-17
4.580000E+03	3.769141E-16	2.025477E-17
4.590000E+03	4.015389E-16	2.174356E-17
4.600000E+03	4.274614E-16	2.328352E-17
4.610000E+03	4.546672E-16	2.487313E-17
4.620000E+03	4.831232E-16	2.651138E-17
4.630000E+03	5.127650E-16	2.819747E-17
4.640000E+03	5.435387E-16	2.993354E-17
4.650000E+03	5.753367E-16	3.172149E-17
4.660000E+03	6.080629E-16	3.356692E-17
4.670000E+03	6.415864E-16	3.547675E-17
4.680000E+03	6.757576E-16	3.746012E-17
4.690000E+03	7.104088E-16	3.952825E-17
4.700000E+03	7.453564E-16	4.169407E-17
4.710000E+03	7.804193E-16	4.397250E-17
4.720000E+03	8.153848E-16	4.637753E-17
4.730000E+03	8.500531E-16	4.891911E-17
4.740000E+03	8.842583E-16	5.159791E-17
4.750000E+03	9.178178E-16	5.440861E-17
4.760000E+03	9.506025E-16	5.734488E-17
4.770000E+03	9.824395E-16	6.039376E-17
4.780000E+03	1.013216E-15	6.354210E-17
4.790000E+03	1.042813E-15	6.677318E-17
4.800000E+03	1.071108E-15	7.006690E-17
4.810000E+03	1.098021E-15	7.340371E-17
4.820000E+03	1.123490E-15	7.676336E-17
4.830000E+03	1.147433E-15	8.012297E-17
4.840000E+03	1.169816E-15	8.346201E-17
4.850000E+03	1.190607E-15	8.675973E-17
4.860000E+03	1.209774E-15	8.999525E-17
4.870000E+03	1.227307E-15	9.314963E-17
4.880000E+03	1.243223E-15	9.620615E-17
4.890000E+03	1.257519E-15	9.914765E-17
4.900000E+03	1.270230E-15	1.019604E-16
4.910000E+03	1.281356E-15	1.046293E-16
4.920000E+03	1.290944E-15	1.071439E-16
4.930000E+03	1.299035E-15	1.094941E-16
4.940000E+03	1.305661E-15	1.116706E-16
4.950000E+03	1.310883E-15	1.136678E-16
4.960000E+03	1.314741E-15	1.154792E-16
4.970000E+03	1.317304E-15	1.171022E-16
4.980000E+03	1.318617E-15	1.185330E-16
4.990000E+03	1.318738E-15	1.197705E-16
5.000000E+03	1.317716E-15	1.208133E-16
5.010000E+03	1.315640E-15	1.216650E-16
5.020000E+03	1.312544E-15	1.223251E-16
5.030000E+03	1.308490E-15	1.227966E-16
5.040000E+03	1.303555E-15	1.230845E-16
5.050000E+03	1.297786E-15	1.231921E-16
5.060000E+03	1.291244E-15	1.231245E-16
5.070000E+03	1.283987E-15	1.228874E-16
5.080000E+03	1.276074E-15	1.224869E-16
5.090000E+03	1.267548E-15	1.219284E-16
5.100000E+03	1.258461E-15	1.212188E-16
5.110000E+03	1.248880E-15	1.203664E-16
5.120000E+03	1.238829E-15	1.193761E-16
5.130000E+03	1.228379E-15	1.182578E-16
5.140000E+03	1.217537E-15	1.170153E-16
5.150000E+03	1.206371E-15	1.156587E-16
5.160000E+03	1.194906E-15	1.141943E-16
5.170000E+03	1.183180E-15	1.126296E-16
5.180000E+03	1.171226E-15	1.109722E-16
5.190000E+03	1.159063E-15	1.092284E-16
5.200000E+03	1.146718E-15	1.074054E-16
5.210000E+03	1.134207E-15	1.055097E-16
5.220000E+03	1.121576E-15	1.035506E-16
5.230000E+03	1.108810E-15	1.015321E-16
5.240000E+03	1.095942E-15	9.946253E-17
5.250000E+03	1.082987E-15	9.734915E-17
5.260000E+03	1.069961E-15	9.519916E-17
5.270000E+03	1.056856E-15	9.301793E-17
5.280000E+03	1.043697E-15	9.081387E-17
5.290000E+03	1.030484E-15	8.859359E-17
5.300000E+03	1.017230E-15	8.636480E-17
5.310000E+03	1.003934E-15	8.413451E-17
5.320000E+03	9.906188E-16	8.191168E-17
5.330000E+03	9.772747E-16	7.970292E-17
5.340000E+03	9.639137E-16	7.751681E-17
5.350000E+03	9.505384E-16	7.536136E-17
5.360000E+03	9.371716E-16	7.324633E-17
5.370000E+03	9.237990E-16	7.117863E-17
5.380000E+03	9.104456E-16	6.916832E-17
5.390000E+03	8.971191E-16	6.722403E-17
5.400000E+03	8.838285E-16	6.535436E-17
5.410000E+03	8.705674E-16	6.356647E-17
5.420000E+03	8.573493E-16	6.186863E-17
5.430000E+03	8.441897E-16	6.026856E-17
5.440000E+03	8.310723E-16	5.877092E-17
5.450000E+03	8.180173E-16	5.738196E-17
5.460000E+03	8.050226E-16	5.610503E-17
5.470000E+03	7.921044E-16	5.494336E-17
5.480000E+03	7.793200E-16	5.390136E-17
5.490000E+03	7.666947E-16	5.297947E-17
5.500000E+03	7.542823E-16	5.217743E-17
5.510000E+03	7.421132E-16	5.148924E-17
5.520000E+03	7.302384E-16	5.090877E-17
5.530000E+03	7.186707E-16	5.042655E-17
5.540000E+03	7.074441E-16	5.003425E-17
5.550000E+03	6.965767E-16	4.972239E-17
5.560000E+03	6.861065E-16	4.948316E-17
5.570000E+03	6.760409E-16	4.930706E-17
5.580000E+03	6.663996E-16	4.918616E-17
5.590000E+03	6.571932E-16	4.911260E-17
5.600000E+03	6.484432E-16	4.908023E-17
5.610000E+03	6.401486E-16	4.908204E-17
5.620000E+03	6.323194E-16	4.911271E-17
5.630000E+03	6.249629E-16	4.916751E-17
5.640000E+03	6.180775E-16	4.924178E-17
5.650000E+03	6.116656E-16	4.933181E-17
5.660000E+03	6.057148E-16	4.943331E-17
5.670000E+03	6.002232E-16	4.954332E-17
5.680000E+03	5.951870E-16	4.965916E-17
5.690000E+03	5.905943E-16	4.977783E-17
5.700000E+03	5.864316E-16	4.989647E-17
5.710000E+03	5.826842E-16	5.001232E-17
5.720000E+03	5.793482E-16	5.012374E-17
5.730000E+03	5.763945E-16	5.022700E-17
5.740000E+03	5.738176E-16	5.032051E-17
5.750000E+03	5.715990E-16	5.040161E-17
5.760000E+03	5.697140E-16	5.046706E-17
5.770000E+03	5.681498E-16	5.051470E-17
5.780000E+03	5.668935E-16	5.054234E-17
5.790000E+03	5.659204E-16	5.054667E-17
5.800000E+03	5.652117E-16	5.052493E-17
5.810000E+03	5.647618E-16	5.047542E-17
5.820000E+03	5.645408E-16	5.039426E-17
5.830000E+03	5.645378E-16	5.027922E-17
5.840000E+03	5.647364E-16	5.012751E-17
5.850000E+03	5.651210E-16	4.993639E-17
5.860000E+03	5.656829E-16	4.970368E-17
5.870000E+03	5.663953E-16	4.942556E-17
5.880000E+03	5.672570E-16	4.910048E-17
5.890000E+03	5.682488E-16	4.872527E-17
5.900000E+03	5.693582E-16	4.829734E-17
5.910000E+03	5.705731E-16	4.781417E-17
5.920000E+03	5.718820E-16	4.727332E-17
5.930000E+03	5.732798E-16	4.667293E-17
5.940000E+03	5.747423E-16	4.600962E-17
5.950000E+03	5.762583E-16	4.528123E-17
5.960000E+03	5.778229E-16	4.448620E-17
5.970000E+03	5.794246E-16	4.362263E-17
5.980000E+03	5.810383E-16	4.268780E-17
5.990000E+03	5.826648E-16	4.168125E-17
6.000000E+03	5.842712E-16	4.060038E-17
6.010000E+03	5.858644E-16	3.944586E-17
6.020000E+03	5.874098E-16	3.821601E-17
6.030000E+03	5.888925E-16	3.691122E-17
6.040000E+03	5.903041E-16	3.553305E-17
6.050000E+03	5.916219E-16	3.408316E-17
6.060000E+03	5.928295E-16	3.256485E-17
6.070000E+03	5.938964E-16	3.098225E-17
6.080000E+03	5.948204E-16	2.934303E-17
6.090000E+03	5.955642E-16	2.765562E-17
6.100000E+03	5.961274E-16	2.593366E-17
6.110000E+03	5.964896E-16	2.419430E-17
6.120000E+03	5.966328E-16	2.246080E-17
6.130000E+03	5.965493E-16	2.076499E-17
6.140000E+03	5.962428E-16	1.914976E-17
6.150000E+03	5.957076E-16	1.767130E-17
6.160000E+03	5.949512E-16	1.640195E-17
6.170000E+03	5.940032E-16	1.542857E-17
6.180000E+03	5.928708E-16	1.484148E-17
6.190000E+03	5.915915E-16	1.471517E-17
6.200000E+03	5.901822E-16	1.506663E-17
6.210000E+03	5.886218E-16	1.583899E-17
6.220000E+03	5.868788E-16	1.694574E-17
6.230000E+03	5.849372E-16	1.829722E-17
6.240000E+03	5.827960E-16	1.981529E-17
6.250000E+03	5.804455E-16	2.143722E-17
6.260000E+03	5.778963E-16	2.311591E-17
6.270000E+03	5.751560E-16	2.481626E-17
6.280000E+03	5.722427E-16	2.651288E-17
6.290000E+03	5.691695E-16	2.818706E-17
6.300000E+03	5.659510E-16	2.982519E-17
6.310000E+03	5.626102E-16	3.141795E-17
6.320000E+03	5.591708E-16	3.295895E-17
6.330000E+03	5.556407E-16	3.444312E-17
6.340000E+03	5.520429E-16	3.586793E-17
6.350000E+03	5.483997E-16	3.723222E-17
6.360000E+03	5.447169E-16	3.853478E-17
6.370000E+03	5.410228E-16	3.977677E-17
6.380000E+03	5.373288E-16	4.095889E-17
6.390000E+03	5.336455E-16	4.208228E-17
6.400000E+03	5.299823E-16	4.314838E-17
6.410000E+03	5.263628E-16	4.416012E-17
6.420000E+03	5.227865E-16	4.511877E-17
6.430000E+03	5.192751E-16	4.602764E-17
6.440000E+03	5.158339E-16	4.688882E-17
6.450000E+03	5.124673E-16	4.770442E-17
6.460000E+03	5.091867E-16	4.847724E-17
6.470000E+03	5.059950E-16	4.920938E-17
6.480000E+03	5.029022E-16	4.990360E-17
6.490000E+03	4.998948E-16	5.056035E-17
6.500000E+03	4.969892E-16	5.118303E-17
6.510000E+03	4.941863E-16	5.177344E-17
6.520000E+03	4.914788E-16	5.233249E-17
6.530000E+03	4.888743E-16	5.286260E-17
6.540000E+03	4.863727E-16	5.336531E-17
6.550000E+03	4.839733E-16	5.384206E-17
6.560000E+03	4.816755E-16	5.429419E-17
6.570000E+03	4.794860E-16	5.472386E-17
6.580000E+03	4.773961E-16	5.513138E-17
6.590000E+03	4.754045E-16	5.551784E-17
6.600000E+03	4.735175E-16	5.588517E-17
6.610000E+03	4.717339E-16	5.623435E-17
6.620000E+03	4.700443E-16	5.656532E-17
6.630000E+03	4.684549E-16	5.687982E-17
6.640000E+03	4.669561E-16	5.717764E-17
6.650000E+03	4.655621E-16	5.746139E-17
6.660000E+03	4.642552E-16	5.772973E-17
6.670000E+03	4.630337E-16	5.798320E-17
6.680000E+03	4.619034E-16	5.822327E-17
6.690000E+03	4.608627E-16	5.845037E-17
6.700000E+03	4.599014E-16	5.866387E-17
6.710000E+03	4.590176E-16	5.886407E-17
6.720000E+03	4.582173E-16	5.905226E-17
6.730000E+03	4.574904E-16	5.922762E-17
6.740000E+03	4.568429E-16	5.939138E-17
6.750000E+03	4.562564E-16	5.954154E-17
6.760000E+03	4.557451E-16	5.968031E-17
6.770000E+03	4.552906E-16	5.980560E-17
6.780000E+03	4.549072E-16	5.991956E-17
6.790000E+03	4.545764E-16	6.002002E-17
6.800000E+03	4.543043E-16	6.010801E-17
6.810000E+03	4.540889E-16	6.018346E-17
6.820000E+03	4.539199E-16	6.024516E-17
6.830000E+03	4.538038E-16	6.029410E-17
6.840000E+03	4.537303E-16	6.032905E-17
6.850000E+03	4.537060E-16	6.035096E-17
6.860000E+03	4.537123E-16	6.035744E-17
6.870000E+03	4.537644E-16	6.035057E-17
6.880000E+03	4.538522E-16	6.032905E-17
6.890000E+03	4.539743E-16	6.029270E-17
6.900000E+03	4.541206E-16	6.024020E-17
6.910000E+03	4.543070E-16	6.017366E-17
6.920000E+03	4.545063E-16	6.008944E-17
6.930000E+03	4.547433E-16	5.999082E-17
6.940000E+03	4.549994E-16	5.987533E-17
6.950000E+03	4.552737E-16	5.974277E-17
6.960000E+03	4.555738E-16	5.959414E-17
6.970000E+03	4.558902E-16	5.942811E-17
6.980000E+03	4.562219E-16	5.924452E-17
6.990000E+03	4.565682E-16	5.904320E-17
7.000000E+03	4.569282E-16	5.882400E-17
7.010000E+03	4.573014E-16	5.858678E-17
7.020000E+03	4.576780E-16	5.833023E-17
7.030000E+03	4.580754E-16	5.805652E-17
7.040000E+03	4.584660E-16	5.776207E-17
7.050000E+03	4.588764E-16	5.745019E-17
7.060000E+03	4.592787E-16	5.711735E-17
7.070000E+03	4.596907E-16	5.676572E-17
7.080000E+03	4.601025E-16	5.639407E-17
7.090000E+03	4.605137E-16	5.600232E-17
7.100000E+03	4.609329E-16	5.559153E-17
7.110000E+03	4.613410E-16	5.515940E-17
7.120000E+03	4.617466E-16	5.470702E-17
7.130000E+03	4.621396E-16	5.423328E-17
7.140000E+03	4.625285E-16	5.373931E-17
7.150000E+03	4.629125E-16	5.322513E-17
7.160000E+03	4.632813E-16	5.268973E-17
7.170000E+03	4.636429E-16	5.213432E-17
7.180000E+03	4.639775E-16	5.155692E-17
7.190000E+03	4.643023E-16	5.095986E-17
7.200000E+03	4.646063E-16	5.034235E-17
7.210000E+03	4.648782E-16	4.970371E-17
7.220000E+03	4.651255E-16	4.904541E-17
7.230000E+03	4.653460E-16	4.836794E-17
7.240000E+03	4.655276E-16	4.767092E-17
7.250000E+03	4.656677E-16	4.695511E-17
7.260000E+03	4.657633E-16	4.622142E-17
7.270000E+03	4.658113E-16	4.547088E-17
7.280000E+03	4.658082E-16	4.470471E-17
7.290000E+03	4.657312E-16	4.392252E-17
7.300000E+03	4.655958E-16	4.312783E-17
7.310000E+03	4.653884E-16	4.232164E-17
7.320000E+03	4.650951E-16	4.150530E-17
7.330000E+03	4.647216E-16	4.068223E-17
7.340000E+03	4.642442E-16	3.985361E-17
7.350000E+03	4.636586E-16	3.902272E-17
7.360000E+03	4.629608E-16	3.819327E-17
7.370000E+03	4.621371E-16	3.736855E-17
7.380000E+03	4.611934E-16	3.655386E-17
7.390000E+03	4.600972E-16	3.575185E-17
7.400000E+03	4.588649E-16	3.496944E-17
7.410000E+03	4.574746E-16	3.421086E-17
7.420000E+03	4.559341E-16	3.348293E-17
7.430000E+03	4.542325E-16	3.279119E-17
7.440000E+03	4.523694E-16	3.214204E-17
7.450000E+03	4.503549E-16	3.154248E-17
7.460000E+03	4.481809E-16	3.099791E-17
7.470000E+03	4.458787E-16	3.051593E-17
7.480000E+03	4.434323E-16	3.010016E-17
7.490000E+03	4.408657E-16	2.975594E-17
7.500000E+03	4.381748E-16	2.948561E-17
7.510000E+03	4.353950E-16	2.929279E-17
7.520000E+03	4.325201E-16	2.917592E-17
7.530000E+03	4.295494E-16	2.913103E-17
7.540000E+03	4.264920E-16	2.915361E-17
7.550000E+03	4.233488E-16	2.923767E-17
7.560000E+03	4.201403E-16	2.937793E-17
7.570000E+03	4.168507E-16	2.956615E-17
7.580000E+03	4.134927E-16	2.979592E-17
7.590000E+03	4.100795E-16	3.006093E-17
7.600000E+03	4.066063E-16	3.035380E-17
7.610000E+03	4.030872E-16	3.066885E-17
7.620000E+03	3.995180E-16	3.099950E-17
7.630000E+03	3.959220E-16	3.134178E-17
7.640000E+03	3.922863E-16	3.168946E-17
7.650000E+03	3.886338E-16	3.203967E-17
7.660000E+03	3.849519E-16	3.238723E-17
7.670000E+03	3.812629E-16	3.273034E-17
7.680000E+03	3.775539E-16	3.306473E-17
7.690000E+03	3.738466E-16	3.338953E-17
7.700000E+03	3.701365E-16	3.370203E-17
7.710000E+03	3.664272E-16	3.400059E-17
7.720000E+03	3.627224E-16	3.428388E-17
7.730000E+03	3.590251E-16	3.455085E-17
7.740000E+03	3.553383E-16	3.480065E-17
7.750000E+03	3.516565E-16	3.503187E-17
7.760000E+03	3.479984E-16	3.524565E-17
