#wls	flux	fluxerr
1.600000E+03	1.360677E-16	1.317655E-16
1.640000E+03	1.405786E-16	1.338734E-16
1.680000E+03	1.449464E-16	1.356521E-16
1.720000E+03	1.491050E-16	1.370435E-16
1.760000E+03	1.530412E-16	1.380420E-16
1.800000E+03	1.566810E-16	1.385897E-16
1.840000E+03	1.599757E-16	1.386567E-16
1.880000E+03	1.629014E-16	1.382380E-16
1.920000E+03	1.653773E-16	1.372845E-16
1.960000E+03	1.673633E-16	1.357867E-16
2.000000E+03	1.687942E-16	1.337196E-16
2.040000E+03	1.696327E-16	1.310862E-16
2.080000E+03	1.697989E-16	1.278610E-16
2.120000E+03	1.692362E-16	1.240440E-16
2.160000E+03	1.678907E-16	1.196430E-16
2.200000E+03	1.656772E-16	1.146497E-16
2.240000E+03	1.625327E-16	1.090797E-16
2.280000E+03	1.584643E-16	1.030007E-16
2.320000E+03	1.535369E-16	9.651796E-17
2.360000E+03	1.479124E-16	8.979096E-17
2.400000E+03	1.417251E-16	8.295023E-17
2.440000E+03	1.350938E-16	7.610612E-17
2.480000E+03	1.281399E-16	6.936049E-17
2.520000E+03	1.209416E-16	6.278186E-17
2.560000E+03	1.135862E-16	5.643615E-17
2.600000E+03	1.061481E-16	5.037481E-17
2.640000E+03	9.870336E-17	4.464292E-17
2.680000E+03	9.131427E-17	3.927194E-17
2.720000E+03	8.404241E-17	3.428666E-17
2.760000E+03	7.694450E-17	2.970355E-17
2.800000E+03	7.007237E-17	2.553126E-17
2.840000E+03	6.347425E-17	2.177167E-17
2.880000E+03	5.719601E-17	1.842076E-17
2.920000E+03	5.127747E-17	1.546789E-17
2.960000E+03	4.575224E-17	1.289660E-17
3.000000E+03	4.064403E-17	1.068452E-17
3.010000E+03	3.943495E-17	1.018480E-17
3.020000E+03	3.825196E-17	9.705131E-18
3.030000E+03	3.709668E-17	9.245438E-18
3.040000E+03	3.596808E-17	8.804969E-18
3.050000E+03	3.486677E-17	8.383383E-18
3.060000E+03	3.379324E-17	7.980298E-18
3.070000E+03	3.274579E-17	7.594817E-18
3.080000E+03	3.172624E-17	7.226878E-18
3.090000E+03	3.073296E-17	6.875611E-18
3.100000E+03	2.976694E-17	6.540751E-18
3.110000E+03	2.882722E-17	6.221605E-18
3.120000E+03	2.791356E-17	5.917638E-18
3.130000E+03	2.702671E-17	5.628540E-18
3.140000E+03	2.616531E-17	5.353545E-18
3.150000E+03	2.533051E-17	5.092432E-18
3.160000E+03	2.452052E-17	4.844375E-18
3.170000E+03	2.373639E-17	4.609136E-18
3.180000E+03	2.297688E-17	4.386026E-18
3.190000E+03	2.224245E-17	4.174704E-18
3.200000E+03	2.153231E-17	3.974595E-18
3.210000E+03	2.084644E-17	3.785282E-18
3.220000E+03	2.018442E-17	3.606285E-18
3.230000E+03	1.954580E-17	3.437136E-18
3.240000E+03	1.892984E-17	3.277324E-18
3.250000E+03	1.833673E-17	3.126519E-18
3.260000E+03	1.776567E-17	2.984233E-18
3.270000E+03	1.721647E-17	2.850095E-18
3.280000E+03	1.668835E-17	2.723651E-18
3.290000E+03	1.618083E-17	2.604511E-18
3.300000E+03	1.569364E-17	2.492336E-18
3.310000E+03	1.522601E-17	2.386722E-18
3.320000E+03	1.477765E-17	2.287352E-18
3.330000E+03	1.434800E-17	2.193888E-18
3.340000E+03	1.393613E-17	2.105940E-18
3.350000E+03	1.354190E-17	2.023266E-18
3.360000E+03	1.316460E-17	1.945538E-18
3.370000E+03	1.280370E-17	1.872478E-18
3.380000E+03	1.245868E-17	1.803817E-18
3.390000E+03	1.212871E-17	1.739257E-18
3.400000E+03	1.181362E-17	1.678606E-18
3.410000E+03	1.151277E-17	1.621615E-18
3.420000E+03	1.122555E-17	1.568049E-18
3.430000E+03	1.095150E-17	1.517710E-18
3.440000E+03	1.069019E-17	1.470409E-18
3.450000E+03	1.044093E-17	1.425933E-18
3.460000E+03	1.020345E-17	1.384135E-18
3.470000E+03	9.977128E-18	1.344827E-18
3.480000E+03	9.761596E-18	1.307865E-18
3.490000E+03	9.556396E-18	1.273102E-18
3.500000E+03	9.361095E-18	1.240397E-18
3.510000E+03	9.175281E-18	1.209623E-18
3.520000E+03	8.998563E-18	1.180659E-18
3.530000E+03	8.830477E-18	1.153382E-18
3.540000E+03	8.670589E-18	1.127677E-18
3.550000E+03	8.518584E-18	1.103450E-18
3.560000E+03	8.374076E-18	1.080604E-18
3.570000E+03	8.236788E-18	1.059059E-18
3.580000E+03	8.106291E-18	1.038719E-18
3.590000E+03	7.982346E-18	1.019518E-18
3.600000E+03	7.864647E-18	1.001382E-18
3.610000E+03	7.753061E-18	9.842641E-19
3.620000E+03	7.647228E-18	9.680914E-19
3.630000E+03	7.546961E-18	9.528144E-19
3.640000E+03	7.451862E-18	9.383601E-19
3.650000E+03	7.361773E-18	9.246875E-19
3.660000E+03	7.276469E-18	9.117496E-19
3.670000E+03	7.195739E-18	8.995023E-19
3.680000E+03	7.119446E-18	8.879127E-19
3.690000E+03	7.047456E-18	8.769496E-19
3.700000E+03	6.979574E-18	8.665754E-19
3.710000E+03	6.915740E-18	8.567704E-19
3.720000E+03	6.855768E-18	8.475002E-19
3.730000E+03	6.799659E-18	8.387546E-19
3.740000E+03	6.747291E-18	8.305089E-19
3.750000E+03	6.698543E-18	8.227395E-19
3.760000E+03	6.653357E-18	8.154307E-19
3.770000E+03	6.611730E-18	8.085745E-19
3.780000E+03	6.573543E-18	8.021490E-19
3.790000E+03	6.538791E-18	7.961469E-19
3.800000E+03	6.507358E-18	7.905475E-19
3.810000E+03	6.479185E-18	7.853374E-19
3.820000E+03	6.454267E-18	7.805102E-19
3.830000E+03	6.432599E-18	7.760596E-19
3.840000E+03	6.414068E-18	7.719664E-19
3.850000E+03	6.398722E-18	7.682311E-19
3.860000E+03	6.386397E-18	7.648288E-19
3.870000E+03	6.377194E-18	7.617665E-19
3.880000E+03	6.370950E-18	7.590196E-19
3.890000E+03	6.367765E-18	7.565952E-19
3.900000E+03	6.367528E-18	7.544752E-19
3.910000E+03	6.370236E-18	7.526540E-19
3.920000E+03	6.375831E-18	7.511202E-19
3.930000E+03	6.384306E-18	7.498681E-19
3.940000E+03	6.395607E-18	7.488861E-19
3.950000E+03	6.409778E-18	7.481748E-19
3.960000E+03	6.426711E-18	7.477164E-19
3.970000E+03	6.446402E-18	7.475054E-19
3.980000E+03	6.468794E-18	7.475301E-19
3.990000E+03	6.493933E-18	7.477910E-19
4.000000E+03	6.521765E-18	7.482762E-19
4.010000E+03	6.552234E-18	7.489744E-19
4.020000E+03	6.585285E-18	7.498741E-19
4.030000E+03	6.620968E-18	7.509755E-19
4.040000E+03	6.659177E-18	7.522616E-19
4.050000E+03	6.699964E-18	7.537329E-19
4.060000E+03	6.743224E-18	7.553725E-19
4.070000E+03	6.788959E-18	7.571756E-19
4.080000E+03	6.837172E-18	7.591375E-19
4.090000E+03	6.887813E-18	7.612479E-19
4.100000E+03	6.940833E-18	7.634967E-19
4.110000E+03	6.996183E-18	7.658741E-19
4.120000E+03	7.053925E-18	7.683826E-19
4.130000E+03	7.113957E-18	7.710070E-19
4.140000E+03	7.176288E-18	7.737445E-19
4.150000E+03	7.240814E-18	7.765806E-19
4.160000E+03	7.307545E-18	7.795130E-19
4.170000E+03	7.376492E-18	7.825404E-19
4.180000E+03	7.447551E-18	7.856492E-19
4.190000E+03	7.520735E-18	7.888391E-19
4.200000E+03	7.595936E-18	7.920976E-19
4.210000E+03	7.673167E-18	7.954256E-19
4.220000E+03	7.752319E-18	7.988123E-19
4.230000E+03	7.833404E-18	8.022602E-19
4.240000E+03	7.916309E-18	8.057601E-19
4.250000E+03	8.000982E-18	8.093102E-19
4.260000E+03	8.087303E-18	8.129033E-19
4.270000E+03	8.175280E-18	8.165459E-19
4.280000E+03	8.264787E-18	8.202330E-19
4.290000E+03	8.355761E-18	8.239668E-19
4.300000E+03	8.448067E-18	8.277439E-19
4.310000E+03	8.541566E-18	8.315616E-19
4.320000E+03	8.636177E-18	8.354244E-19
4.330000E+03	8.731819E-18	8.393369E-19
4.340000E+03	8.828333E-18	8.432970E-19
4.350000E+03	8.925625E-18	8.473091E-19
4.360000E+03	9.023523E-18	8.513696E-19
4.370000E+03	9.121995E-18	8.554870E-19
4.380000E+03	9.220932E-18	8.596614E-19
4.390000E+03	9.320450E-18	8.639112E-19
4.400000E+03	9.420442E-18	8.682308E-19
4.410000E+03	9.520953E-18	8.726253E-19
4.420000E+03	9.621956E-18	8.770903E-19
4.430000E+03	9.723585E-18	8.816335E-19
4.440000E+03	9.825740E-18	8.862394E-19
4.450000E+03	9.928400E-18	8.908981E-19
4.460000E+03	1.003163E-17	8.956064E-19
4.470000E+03	1.013542E-17	9.003532E-19
4.480000E+03	1.023976E-17	9.051273E-19
4.490000E+03	1.034456E-17	9.099101E-19
4.500000E+03	1.044989E-17	9.146989E-19
4.510000E+03	1.055567E-17	9.194764E-19
4.520000E+03	1.066189E-17	9.242342E-19
4.530000E+03	1.076856E-17	9.289651E-19
4.540000E+03	1.087549E-17	9.336480E-19
4.550000E+03	1.098279E-17	9.382867E-19
4.560000E+03	1.109037E-17	9.428713E-19
4.570000E+03	1.119825E-17	9.474018E-19
4.580000E+03	1.130625E-17	9.518635E-19
4.590000E+03	1.141450E-17	9.562682E-19
4.600000E+03	1.152281E-17	9.606044E-19
4.610000E+03	1.163132E-17	9.648873E-19
4.620000E+03	1.173987E-17	9.691080E-19
4.630000E+03	1.184850E-17	9.732754E-19
4.640000E+03	1.195716E-17	9.773909E-19
4.650000E+03	1.206600E-17	9.814733E-19
4.660000E+03	1.217489E-17	9.855162E-19
4.670000E+03	1.228400E-17	9.895390E-19
4.680000E+03	1.239330E-17	9.935439E-19
4.690000E+03	1.250278E-17	9.975322E-19
4.700000E+03	1.261263E-17	1.001523E-18
4.710000E+03	1.272274E-17	1.005508E-18
4.720000E+03	1.283321E-17	1.009496E-18
4.730000E+03	1.294394E-17	1.013476E-18
4.740000E+03	1.305502E-17	1.017457E-18
4.750000E+03	1.316625E-17	1.021417E-18
4.760000E+03	1.327772E-17	1.025363E-18
4.770000E+03	1.338934E-17	1.029283E-18
4.780000E+03	1.350122E-17	1.033183E-18
4.790000E+03	1.361326E-17	1.037051E-18
4.800000E+03	1.372546E-17	1.040886E-18
4.810000E+03	1.383783E-17	1.044689E-18
4.820000E+03	1.395038E-17	1.048460E-18
4.830000E+03	1.406312E-17	1.052204E-18
4.840000E+03	1.417592E-17	1.055916E-18
4.850000E+03	1.428892E-17	1.059614E-18
4.860000E+03	1.440213E-17	1.063307E-18
4.870000E+03	1.451542E-17	1.066995E-18
4.880000E+03	1.462879E-17	1.070692E-18
4.890000E+03	1.474238E-17	1.074419E-18
4.900000E+03	1.485591E-17	1.078170E-18
4.910000E+03	1.496964E-17	1.081976E-18
4.920000E+03	1.508344E-17	1.085837E-18
4.930000E+03	1.519714E-17	1.089750E-18
4.940000E+03	1.531086E-17	1.093732E-18
4.950000E+03	1.542456E-17	1.097783E-18
4.960000E+03	1.553807E-17	1.101892E-18
4.970000E+03	1.565149E-17	1.106065E-18
4.980000E+03	1.576445E-17	1.110271E-18
4.990000E+03	1.587720E-17	1.114521E-18
5.000000E+03	1.598950E-17	1.118790E-18
5.010000E+03	1.610111E-17	1.123051E-18
5.020000E+03	1.621209E-17	1.127296E-18
5.030000E+03	1.632218E-17	1.131495E-18
5.040000E+03	1.643125E-17	1.135627E-18
5.050000E+03	1.653917E-17	1.139672E-18
5.060000E+03	1.664580E-17	1.143609E-18
5.070000E+03	1.675082E-17	1.147406E-18
5.080000E+03	1.685425E-17	1.151054E-18
5.090000E+03	1.695574E-17	1.154523E-18
5.100000E+03	1.705512E-17	1.157796E-18
5.110000E+03	1.715205E-17	1.160844E-18
5.120000E+03	1.724649E-17	1.163664E-18
5.130000E+03	1.733793E-17	1.166220E-18
5.140000E+03	1.742651E-17	1.168527E-18
5.150000E+03	1.751168E-17	1.170555E-18
5.160000E+03	1.759342E-17	1.172311E-18
5.170000E+03	1.767135E-17	1.173784E-18
5.180000E+03	1.774511E-17	1.174967E-18
5.190000E+03	1.781464E-17	1.175880E-18
5.200000E+03	1.787957E-17	1.176525E-18
5.210000E+03	1.793969E-17	1.176916E-18
5.220000E+03	1.799478E-17	1.177073E-18
5.230000E+03	1.804445E-17	1.177006E-18
5.240000E+03	1.808848E-17	1.176738E-18
5.250000E+03	1.812647E-17	1.176283E-18
5.260000E+03	1.815839E-17	1.175676E-18
5.270000E+03	1.818384E-17	1.174929E-18
5.280000E+03	1.820260E-17	1.174066E-18
5.290000E+03	1.821448E-17	1.173107E-18
5.300000E+03	1.821910E-17	1.172058E-18
5.310000E+03	1.821626E-17	1.170936E-18
5.320000E+03	1.820581E-17	1.169755E-18
5.330000E+03	1.818760E-17	1.168525E-18
5.340000E+03	1.816132E-17	1.167244E-18
5.350000E+03	1.812706E-17	1.165928E-18
5.360000E+03	1.808477E-17	1.164581E-18
5.370000E+03	1.803441E-17	1.163205E-18
5.380000E+03	1.797585E-17	1.161789E-18
5.390000E+03	1.790950E-17	1.160353E-18
5.400000E+03	1.783530E-17	1.158885E-18
5.410000E+03	1.775380E-17	1.157403E-18
5.420000E+03	1.766503E-17	1.155892E-18
5.430000E+03	1.756948E-17	1.154361E-18
5.440000E+03	1.746747E-17	1.152805E-18
5.450000E+03	1.735975E-17	1.151244E-18
5.460000E+03	1.724661E-17	1.149665E-18
5.470000E+03	1.712837E-17	1.148053E-18
5.480000E+03	1.700525E-17	1.146384E-18
5.490000E+03	1.687786E-17	1.144657E-18
5.500000E+03	1.674649E-17	1.142850E-18
5.510000E+03	1.661168E-17	1.140954E-18
5.520000E+03	1.647395E-17	1.138961E-18
5.530000E+03	1.633389E-17	1.136862E-18
5.540000E+03	1.619207E-17	1.134654E-18
5.550000E+03	1.604925E-17	1.132345E-18
5.560000E+03	1.590602E-17	1.129932E-18
5.570000E+03	1.576327E-17	1.127441E-18
5.580000E+03	1.562141E-17	1.124862E-18
5.590000E+03	1.548143E-17	1.122233E-18
5.600000E+03	1.534367E-17	1.119552E-18
5.610000E+03	1.520891E-17	1.116849E-18
5.620000E+03	1.507787E-17	1.114158E-18
5.630000E+03	1.495074E-17	1.111482E-18
5.640000E+03	1.482847E-17	1.108879E-18
5.650000E+03	1.471129E-17	1.106366E-18
5.660000E+03	1.459942E-17	1.103960E-18
5.670000E+03	1.449360E-17	1.101724E-18
5.680000E+03	1.439378E-17	1.099665E-18
5.690000E+03	1.430032E-17	1.097823E-18
5.700000E+03	1.421352E-17	1.096238E-18
5.710000E+03	1.413350E-17	1.094939E-18
5.720000E+03	1.406035E-17	1.093950E-18
5.730000E+03	1.399412E-17	1.093297E-18
5.740000E+03	1.393500E-17	1.093013E-18
5.750000E+03	1.388316E-17	1.093128E-18
5.760000E+03	1.383831E-17	1.093636E-18
5.770000E+03	1.380090E-17	1.094583E-18
5.780000E+03	1.377065E-17	1.095958E-18
5.790000E+03	1.374785E-17	1.097788E-18
5.800000E+03	1.373236E-17	1.100065E-18
5.810000E+03	1.372434E-17	1.102800E-18
5.820000E+03	1.372382E-17	1.105991E-18
5.830000E+03	1.373096E-17	1.109642E-18
5.840000E+03	1.374564E-17	1.113733E-18
5.850000E+03	1.376789E-17	1.118252E-18
5.860000E+03	1.379788E-17	1.123200E-18
5.870000E+03	1.383580E-17	1.128572E-18
5.880000E+03	1.388137E-17	1.134329E-18
5.890000E+03	1.393492E-17	1.140480E-18
5.900000E+03	1.399630E-17	1.146994E-18
5.910000E+03	1.406568E-17	1.153866E-18
5.920000E+03	1.414305E-17	1.161081E-18
5.930000E+03	1.422826E-17	1.168608E-18
5.940000E+03	1.432143E-17	1.176444E-18
5.950000E+03	1.442251E-17	1.184575E-18
5.960000E+03	1.453130E-17	1.192973E-18
5.970000E+03	1.464802E-17	1.201651E-18
5.980000E+03	1.477227E-17	1.210572E-18
5.990000E+03	1.490407E-17	1.219740E-18
6.000000E+03	1.504329E-17	1.229145E-18
6.010000E+03	1.518958E-17	1.238767E-18
6.020000E+03	1.534291E-17	1.248614E-18
6.030000E+03	1.550269E-17	1.258655E-18
6.040000E+03	1.566903E-17	1.268917E-18
6.050000E+03	1.584127E-17	1.279370E-18
6.060000E+03	1.601928E-17	1.290030E-18
6.070000E+03	1.620249E-17	1.300888E-18
6.080000E+03	1.639053E-17	1.311949E-18
6.090000E+03	1.658279E-17	1.323204E-18
6.100000E+03	1.677860E-17	1.334647E-18
6.110000E+03	1.697768E-17	1.346305E-18
6.120000E+03	1.717891E-17	1.358138E-18
6.130000E+03	1.738196E-17	1.370175E-18
6.140000E+03	1.758587E-17	1.382393E-18
6.150000E+03	1.779005E-17	1.394798E-18
6.160000E+03	1.799308E-17	1.407329E-18
6.170000E+03	1.819459E-17	1.420002E-18
6.180000E+03	1.839335E-17	1.432759E-18
6.190000E+03	1.858859E-17	1.445567E-18
6.200000E+03	1.877930E-17	1.458370E-18
6.210000E+03	1.896546E-17	1.471171E-18
6.220000E+03	1.914739E-17	1.483991E-18
6.230000E+03	1.932546E-17	1.496845E-18
6.240000E+03	1.950015E-17	1.509748E-18
6.250000E+03	1.967128E-17	1.522655E-18
6.260000E+03	1.983996E-17	1.535617E-18
6.270000E+03	2.000586E-17	1.548569E-18
6.280000E+03	2.016972E-17	1.561528E-18
6.290000E+03	2.033207E-17	1.574492E-18
6.300000E+03	2.049266E-17	1.587400E-18
6.310000E+03	2.065210E-17	1.600259E-18
6.320000E+03	2.081074E-17	1.613056E-18
6.330000E+03	2.096894E-17	1.625786E-18
6.340000E+03	2.112654E-17	1.638400E-18
6.350000E+03	2.128392E-17	1.650899E-18
6.360000E+03	2.144122E-17	1.663268E-18
6.370000E+03	2.159855E-17	1.675493E-18
6.380000E+03	2.175574E-17	1.687540E-18
6.390000E+03	2.191260E-17	1.699379E-18
6.400000E+03	2.206893E-17	1.710982E-18
6.410000E+03	2.222481E-17	1.722348E-18
6.420000E+03	2.238004E-17	1.733453E-18
6.430000E+03	2.253372E-17	1.744226E-18
6.440000E+03	2.268688E-17	1.754748E-18
6.450000E+03	2.283963E-17	1.765027E-18
6.460000E+03	2.299237E-17	1.775102E-18
6.470000E+03	2.314591E-17	1.785040E-18
6.480000E+03	2.330002E-17	1.794831E-18
6.490000E+03	2.345550E-17	1.804548E-18
6.500000E+03	2.361248E-17	1.814208E-18
6.510000E+03	2.377146E-17	1.823860E-18
6.520000E+03	2.393183E-17	1.833468E-18
6.530000E+03	2.409483E-17	1.843136E-18
6.540000E+03	2.425983E-17	1.852825E-18
6.550000E+03	2.442733E-17	1.862583E-18
6.560000E+03	2.459746E-17	1.872426E-18
6.570000E+03	2.476994E-17	1.882341E-18
6.580000E+03	2.494528E-17	1.892371E-18
6.590000E+03	2.512360E-17	1.902531E-18
6.600000E+03	2.530459E-17	1.912802E-18
6.610000E+03	2.548835E-17	1.923195E-18
6.620000E+03	2.567498E-17	1.933720E-18
6.630000E+03	2.586498E-17	1.944417E-18
6.640000E+03	2.605761E-17	1.955231E-18
6.650000E+03	2.625336E-17	1.966200E-18
6.660000E+03	2.645230E-17	1.977333E-18
6.670000E+03	2.665407E-17	1.988602E-18
6.680000E+03	2.685918E-17	2.000045E-18
6.690000E+03	2.706722E-17	2.011633E-18
6.700000E+03	2.727872E-17	2.023406E-18
6.710000E+03	2.749279E-17	2.035298E-18
6.720000E+03	2.770995E-17	2.047345E-18
6.730000E+03	2.793072E-17	2.059585E-18
6.740000E+03	2.815418E-17	2.071947E-18
6.750000E+03	2.838086E-17	2.084465E-18
6.760000E+03	2.861030E-17	2.097101E-18
6.770000E+03	2.884304E-17	2.109886E-18
6.780000E+03	2.907863E-17	2.122775E-18
6.790000E+03	2.931707E-17	2.135761E-18
6.800000E+03	2.955894E-17	2.148868E-18
6.810000E+03	2.980321E-17	2.162007E-18
6.820000E+03	3.005097E-17	2.175240E-18
6.830000E+03	3.030116E-17	2.188471E-18
6.840000E+03	3.055490E-17	2.201762E-18
6.850000E+03	3.081107E-17	2.215013E-18
6.860000E+03	3.106966E-17	2.228205E-18
6.870000E+03	3.133122E-17	2.241361E-18
6.880000E+03	3.159573E-17	2.254462E-18
6.890000E+03	3.186196E-17	2.267411E-18
6.900000E+03	3.213104E-17	2.280277E-18
6.910000E+03	3.240230E-17	2.293007E-18
6.920000E+03	3.267628E-17	2.305637E-18
6.930000E+03	3.295165E-17	2.318074E-18
6.940000E+03	3.322893E-17	2.330359E-18
6.950000E+03	3.350800E-17	2.342491E-18
6.960000E+03	3.378809E-17	2.354429E-18
6.970000E+03	3.406973E-17	2.366222E-18
6.980000E+03	3.435278E-17	2.377875E-18
6.990000E+03	3.463647E-17	2.389351E-18
7.000000E+03	3.492063E-17	2.400659E-18
7.010000E+03	3.520514E-17	2.411806E-18
7.020000E+03	3.549055E-17	2.422851E-18
7.030000E+03	3.577535E-17	2.433708E-18
7.040000E+03	3.606082E-17	2.444482E-18
7.050000E+03	3.634543E-17	2.455087E-18
7.060000E+03	3.662979E-17	2.465576E-18
7.070000E+03	3.691307E-17	2.475909E-18
7.080000E+03	3.719592E-17	2.486138E-18
7.090000E+03	3.747826E-17	2.496267E-18
7.100000E+03	3.775929E-17	2.506246E-18
7.110000E+03	3.803817E-17	2.516021E-18
7.120000E+03	3.831637E-17	2.525690E-18
7.130000E+03	3.859311E-17	2.535195E-18
7.140000E+03	3.886835E-17	2.544526E-18
7.150000E+03	3.914208E-17	2.553670E-18
7.160000E+03	3.941347E-17	2.562560E-18
7.170000E+03	3.968332E-17	2.571231E-18
7.180000E+03	3.995081E-17	2.579612E-18
7.190000E+03	4.021594E-17	2.587680E-18
7.200000E+03	4.047954E-17	2.595467E-18
7.210000E+03	4.074077E-17	2.602897E-18
7.220000E+03	4.100048E-17	2.610002E-18
7.230000E+03	4.125696E-17	2.616650E-18
7.240000E+03	4.151103E-17	2.622875E-18
7.250000E+03	4.176265E-17	2.628660E-18
7.260000E+03	4.201180E-17	2.633990E-18
7.270000E+03	4.225841E-17	2.638855E-18
7.280000E+03	4.250241E-17	2.643250E-18
7.290000E+03	4.274280E-17	2.647118E-18
7.300000E+03	4.298040E-17	2.650525E-18
7.310000E+03	4.321508E-17	2.653486E-18
7.320000E+03	4.344674E-17	2.656025E-18
7.330000E+03	4.367431E-17	2.658119E-18
7.340000E+03	4.389861E-17	2.659867E-18
7.350000E+03	4.412048E-17	2.661385E-18
7.360000E+03	4.433788E-17	2.662621E-18
7.370000E+03	4.455167E-17	2.663713E-18
7.380000E+03	4.476176E-17	2.664751E-18
7.390000E+03	4.496908E-17	2.665900E-18
7.400000E+03	4.517258E-17	2.667219E-18
7.410000E+03	4.537326E-17	2.668897E-18
7.420000E+03	4.557216E-17	2.671139E-18
7.430000E+03	4.576829E-17	2.674037E-18
7.440000E+03	4.596382E-17	2.677874E-18
7.450000E+03	4.615678E-17	2.682692E-18
7.460000E+03	4.634834E-17	2.688715E-18
7.470000E+03	4.653757E-17	2.696035E-18
7.480000E+03	4.672570E-17	2.704850E-18
7.490000E+03	4.691074E-17	2.715147E-18
7.500000E+03	4.709389E-17	2.727065E-18
7.510000E+03	4.727531E-17	2.740643E-18
7.520000E+03	4.745402E-17	2.755803E-18
7.530000E+03	4.763233E-17	2.772610E-18
7.540000E+03	4.780813E-17	2.790825E-18
7.550000E+03	4.798261E-17	2.810366E-18
7.560000E+03	4.815471E-17	2.830988E-18
7.570000E+03	4.832560E-17	2.852555E-18
7.580000E+03	4.849421E-17	2.874791E-18
7.590000E+03	4.866171E-17	2.897549E-18
7.600000E+03	4.882697E-17	2.920556E-18
7.610000E+03	4.898998E-17	2.943622E-18
7.620000E+03	4.915191E-17	2.966651E-18
7.630000E+03	4.931156E-17	2.989433E-18
7.640000E+03	4.946886E-17	3.011856E-18
7.650000E+03	4.962497E-17	3.033913E-18
7.660000E+03	4.977857E-17	3.055481E-18
7.670000E+03	4.993079E-17	3.076611E-18
7.680000E+03	5.007903E-17	3.097155E-18
7.690000E+03	5.022561E-17	3.117286E-18
7.700000E+03	5.037037E-17	3.137043E-18
7.710000E+03	5.051188E-17	3.156399E-18
7.720000E+03	5.065119E-17	3.175491E-18
7.730000E+03	5.078683E-17	3.194299E-18
7.740000E+03	5.091856E-17	3.212886E-18
7.750000E+03	5.104740E-17	3.231387E-18
7.760000E+03	5.117311E-17	3.249858E-18
