#wls	flux	fluxerr
1.600000E+03	6.760129E-17	4.312129E-17
1.640000E+03	6.804351E-17	4.261797E-17
1.680000E+03	6.841934E-17	4.205349E-17
1.720000E+03	6.872838E-17	4.142992E-17
1.760000E+03	6.896241E-17	4.074481E-17
1.800000E+03	6.911918E-17	3.999970E-17
1.840000E+03	6.918915E-17	3.919214E-17
1.880000E+03	6.917464E-17	3.832686E-17
1.920000E+03	6.907049E-17	3.740451E-17
1.960000E+03	6.886525E-17	3.642277E-17
2.000000E+03	6.855857E-17	3.538576E-17
2.040000E+03	6.813872E-17	3.429195E-17
2.080000E+03	6.759491E-17	3.314104E-17
2.120000E+03	6.692676E-17	3.193832E-17
2.160000E+03	6.611175E-17	3.067896E-17
2.200000E+03	6.513204E-17	2.936153E-17
2.240000E+03	6.396317E-17	2.798273E-17
2.280000E+03	6.256330E-17	2.653332E-17
2.320000E+03	6.098265E-17	2.504417E-17
2.360000E+03	5.927014E-17	2.354302E-17
2.400000E+03	5.745689E-17	2.204813E-17
2.440000E+03	5.556290E-17	2.057199E-17
2.480000E+03	5.360477E-17	1.912476E-17
2.520000E+03	5.159395E-17	1.771389E-17
2.560000E+03	4.953614E-17	1.634424E-17
2.600000E+03	4.743932E-17	1.502101E-17
2.640000E+03	4.530965E-17	1.374829E-17
2.680000E+03	4.315253E-17	1.252953E-17
2.720000E+03	4.097351E-17	1.136775E-17
2.760000E+03	3.878143E-17	1.026640E-17
2.800000E+03	3.658079E-17	9.227164E-18
2.840000E+03	3.437963E-17	8.252135E-18
2.880000E+03	3.219147E-17	7.343994E-18
2.920000E+03	3.003303E-17	6.505193E-18
2.960000E+03	2.792577E-17	5.738117E-18
3.000000E+03	2.589055E-17	5.043812E-18
3.010000E+03	2.539489E-17	4.881513E-18
3.020000E+03	2.490496E-17	4.723680E-18
3.030000E+03	2.442136E-17	4.570349E-18
3.040000E+03	2.394409E-17	4.421443E-18
3.050000E+03	2.347315E-17	4.276883E-18
3.060000E+03	2.300905E-17	4.136683E-18
3.070000E+03	2.255129E-17	4.000668E-18
3.080000E+03	2.210082E-17	3.868928E-18
3.090000E+03	2.165714E-17	3.741286E-18
3.100000E+03	2.122068E-17	3.617734E-18
3.110000E+03	2.079140E-17	3.498177E-18
3.120000E+03	2.036966E-17	3.382591E-18
3.130000E+03	1.995540E-17	3.270877E-18
3.140000E+03	1.954856E-17	3.162937E-18
3.150000E+03	1.914947E-17	3.058734E-18
3.160000E+03	1.875767E-17	2.958111E-18
3.170000E+03	1.837382E-17	2.861082E-18
3.180000E+03	1.799748E-17	2.767491E-18
3.190000E+03	1.762891E-17	2.677291E-18
3.200000E+03	1.726802E-17	2.590383E-18
3.210000E+03	1.691472E-17	2.506667E-18
3.220000E+03	1.656922E-17	2.426091E-18
3.230000E+03	1.623142E-17	2.348555E-18
3.240000E+03	1.590096E-17	2.273925E-18
3.250000E+03	1.557853E-17	2.202219E-18
3.260000E+03	1.526324E-17	2.133232E-18
3.270000E+03	1.495576E-17	2.066978E-18
3.280000E+03	1.465549E-17	2.003298E-18
3.290000E+03	1.436256E-17	1.942136E-18
3.300000E+03	1.407710E-17	1.883433E-18
3.310000E+03	1.379855E-17	1.827047E-18
3.320000E+03	1.352725E-17	1.772950E-18
3.330000E+03	1.326307E-17	1.721059E-18
3.340000E+03	1.300572E-17	1.671268E-18
3.350000E+03	1.275509E-17	1.623501E-18
3.360000E+03	1.251111E-17	1.577686E-18
3.370000E+03	1.227383E-17	1.533770E-18
3.380000E+03	1.204284E-17	1.491643E-18
3.390000E+03	1.181837E-17	1.451278E-18
3.400000E+03	1.160000E-17	1.412569E-18
3.410000E+03	1.138766E-17	1.375456E-18
3.420000E+03	1.118142E-17	1.339897E-18
3.430000E+03	1.098078E-17	1.305783E-18
3.440000E+03	1.078594E-17	1.273094E-18
3.450000E+03	1.059670E-17	1.241761E-18
3.460000E+03	1.041262E-17	1.211690E-18
3.470000E+03	1.023390E-17	1.182864E-18
3.480000E+03	1.006014E-17	1.155199E-18
3.490000E+03	9.891294E-18	1.128653E-18
3.500000E+03	9.727229E-18	1.103176E-18
3.510000E+03	9.567491E-18	1.078683E-18
3.520000E+03	9.412085E-18	1.055143E-18
3.530000E+03	9.260711E-18	1.032494E-18
3.540000E+03	9.113098E-18	1.010678E-18
3.550000E+03	8.969095E-18	9.896515E-19
3.560000E+03	8.828382E-18	9.693544E-19
3.570000E+03	8.690758E-18	9.497417E-19
3.580000E+03	8.555956E-18	9.307623E-19
3.590000E+03	8.423899E-18	9.123872E-19
3.600000E+03	8.294434E-18	8.945807E-19
3.610000E+03	8.167343E-18	8.773007E-19
3.620000E+03	8.042577E-18	8.605250E-19
3.630000E+03	7.920091E-18	8.442324E-19
3.640000E+03	7.799693E-18	8.283871E-19
3.650000E+03	7.681559E-18	8.129931E-19
3.660000E+03	7.565499E-18	7.980167E-19
3.670000E+03	7.451602E-18	7.834543E-19
3.680000E+03	7.339881E-18	7.692948E-19
3.690000E+03	7.230340E-18	7.555268E-19
3.700000E+03	7.123037E-18	7.421456E-19
3.710000E+03	7.018082E-18	7.291518E-19
3.720000E+03	6.915329E-18	7.165206E-19
3.730000E+03	6.814989E-18	7.042643E-19
3.740000E+03	6.716963E-18	6.923638E-19
3.750000E+03	6.621320E-18	6.808179E-19
3.760000E+03	6.528118E-18	6.696247E-19
3.770000E+03	6.437245E-18	6.587651E-19
3.780000E+03	6.348850E-18	6.482476E-19
3.790000E+03	6.262862E-18	6.380583E-19
3.800000E+03	6.179310E-18	6.281938E-19
3.810000E+03	6.098165E-18	6.186455E-19
3.820000E+03	6.019444E-18	6.094097E-19
3.830000E+03	5.943111E-18	6.004773E-19
3.840000E+03	5.869171E-18	5.918444E-19
3.850000E+03	5.797582E-18	5.835020E-19
3.860000E+03	5.728389E-18	5.754503E-19
3.870000E+03	5.661542E-18	5.676804E-19
3.880000E+03	5.596989E-18	5.601833E-19
3.890000E+03	5.534721E-18	5.529547E-19
3.900000E+03	5.474685E-18	5.459858E-19
3.910000E+03	5.416910E-18	5.392765E-19
3.920000E+03	5.361341E-18	5.328183E-19
3.930000E+03	5.307960E-18	5.266068E-19
3.940000E+03	5.256710E-18	5.206336E-19
3.950000E+03	5.207535E-18	5.148907E-19
3.960000E+03	5.160496E-18	5.093820E-19
3.970000E+03	5.115456E-18	5.040917E-19
3.980000E+03	5.072437E-18	4.990199E-19
3.990000E+03	5.031382E-18	4.941590E-19
4.000000E+03	4.992273E-18	4.895054E-19
4.010000E+03	4.955093E-18	4.850557E-19
4.020000E+03	4.919747E-18	4.807991E-19
4.030000E+03	4.886257E-18	4.767360E-19
4.040000E+03	4.854570E-18	4.728597E-19
4.050000E+03	4.824670E-18	4.691673E-19
4.060000E+03	4.796504E-18	4.656523E-19
4.070000E+03	4.770023E-18	4.623085E-19
4.080000E+03	4.745248E-18	4.591370E-19
4.090000E+03	4.722096E-18	4.561282E-19
4.100000E+03	4.700554E-18	4.532799E-19
4.110000E+03	4.680612E-18	4.505900E-19
4.120000E+03	4.662188E-18	4.480496E-19
4.130000E+03	4.645309E-18	4.456602E-19
4.140000E+03	4.629896E-18	4.434133E-19
4.150000E+03	4.615941E-18	4.413072E-19
4.160000E+03	4.603439E-18	4.393404E-19
4.170000E+03	4.592314E-18	4.375048E-19
4.180000E+03	4.582597E-18	4.358025E-19
4.190000E+03	4.574178E-18	4.342222E-19
4.200000E+03	4.567125E-18	4.327697E-19
4.210000E+03	4.561332E-18	4.314338E-19
4.220000E+03	4.556797E-18	4.302138E-19
4.230000E+03	4.553484E-18	4.291056E-19
4.240000E+03	4.551395E-18	4.281086E-19
4.250000E+03	4.550425E-18	4.272122E-19
4.260000E+03	4.550611E-18	4.264192E-19
4.270000E+03	4.551886E-18	4.257226E-19
4.280000E+03	4.554181E-18	4.251154E-19
4.290000E+03	4.557499E-18	4.245974E-19
4.300000E+03	4.561809E-18	4.241649E-19
4.310000E+03	4.567007E-18	4.238079E-19
4.320000E+03	4.573063E-18	4.235229E-19
4.330000E+03	4.579942E-18	4.233064E-19
4.340000E+03	4.587614E-18	4.231550E-19
4.350000E+03	4.596046E-18	4.230652E-19
4.360000E+03	4.605242E-18	4.230369E-19
4.370000E+03	4.615169E-18	4.230669E-19
4.380000E+03	4.625795E-18	4.231517E-19
4.390000E+03	4.637199E-18	4.232980E-19
4.400000E+03	4.649349E-18	4.235027E-19
4.410000E+03	4.662251E-18	4.237658E-19
4.420000E+03	4.675950E-18	4.240910E-19
4.430000E+03	4.690455E-18	4.244787E-19
4.440000E+03	4.705737E-18	4.249259E-19
4.450000E+03	4.721845E-18	4.254363E-19
4.460000E+03	4.738750E-18	4.260073E-19
4.470000E+03	4.756465E-18	4.266394E-19
4.480000E+03	4.775004E-18	4.273333E-19
4.490000E+03	4.794302E-18	4.280830E-19
4.500000E+03	4.814412E-18	4.288927E-19
4.510000E+03	4.835311E-18	4.297600E-19
4.520000E+03	4.856974E-18	4.306823E-19
4.530000E+03	4.879420E-18	4.316607E-19
4.540000E+03	4.902585E-18	4.326893E-19
4.550000E+03	4.926486E-18	4.337692E-19
4.560000E+03	4.951144E-18	4.349017E-19
4.570000E+03	4.976538E-18	4.360848E-19
4.580000E+03	5.002603E-18	4.373123E-19
4.590000E+03	5.029362E-18	4.385858E-19
4.600000E+03	5.056795E-18	4.399032E-19
4.610000E+03	5.084879E-18	4.412622E-19
4.620000E+03	5.113640E-18	4.426645E-19
4.630000E+03	5.143014E-18	4.441042E-19
4.640000E+03	5.173026E-18	4.455832E-19
4.650000E+03	5.203656E-18	4.470992E-19
4.660000E+03	5.234887E-18	4.486504E-19
4.670000E+03	5.266699E-18	4.502346E-19
4.680000E+03	5.299074E-18	4.518499E-19
4.690000E+03	5.331994E-18	4.534942E-19
4.700000E+03	5.365534E-18	4.551736E-19
4.710000E+03	5.399678E-18	4.568863E-19
4.720000E+03	5.434411E-18	4.586303E-19
4.730000E+03	5.469814E-18	4.604121E-19
4.740000E+03	5.505826E-18	4.622260E-19
4.750000E+03	5.542431E-18	4.640703E-19
4.760000E+03	5.579665E-18	4.659476E-19
4.770000E+03	5.617515E-18	4.678562E-19
4.780000E+03	5.655918E-18	4.697906E-19
4.790000E+03	5.694909E-18	4.717535E-19
4.800000E+03	5.734477E-18	4.737434E-19
4.810000E+03	5.774554E-18	4.757548E-19
4.820000E+03	5.815178E-18	4.777907E-19
4.830000E+03	5.856337E-18	4.798497E-19
4.840000E+03	5.898015E-18	4.819310E-19
4.850000E+03	5.940199E-18	4.840332E-19
4.860000E+03	5.982819E-18	4.861511E-19
4.870000E+03	6.025969E-18	4.882927E-19
4.880000E+03	6.069525E-18	4.904480E-19
4.890000E+03	6.113468E-18	4.926162E-19
4.900000E+03	6.157839E-18	4.948013E-19
4.910000E+03	6.202622E-18	4.970024E-19
4.920000E+03	6.247799E-18	4.992192E-19
4.930000E+03	6.293237E-18	5.014416E-19
4.940000E+03	6.339032E-18	5.036786E-19
4.950000E+03	6.385108E-18	5.059249E-19
4.960000E+03	6.431445E-18	5.081803E-19
4.970000E+03	6.478022E-18	5.104442E-19
4.980000E+03	6.524817E-18	5.127165E-19
4.990000E+03	6.571749E-18	5.149920E-19
5.000000E+03	6.618792E-18	5.172704E-19
5.010000E+03	6.665987E-18	5.195564E-19
5.020000E+03	6.713247E-18	5.218450E-19
5.030000E+03	6.760481E-18	5.241311E-19
5.040000E+03	6.807794E-18	5.264246E-19
5.050000E+03	6.854965E-18	5.287105E-19
5.060000E+03	6.902095E-18	5.309990E-19
5.070000E+03	6.949159E-18	5.332904E-19
5.080000E+03	6.995928E-18	5.355696E-19
5.090000E+03	7.042572E-18	5.378523E-19
5.100000E+03	7.088928E-18	5.401289E-19
5.110000E+03	7.134965E-18	5.424000E-19
5.120000E+03	7.180720E-18	5.446716E-19
5.130000E+03	7.226025E-18	5.469341E-19
5.140000E+03	7.270846E-18	5.491887E-19
5.150000E+03	7.315220E-18	5.514418E-19
5.160000E+03	7.359047E-18	5.536896E-19
5.170000E+03	7.402293E-18	5.559336E-19
5.180000E+03	7.444854E-18	5.581700E-19
5.190000E+03	7.486769E-18	5.604062E-19
5.200000E+03	7.527861E-18	5.626331E-19
5.210000E+03	7.568244E-18	5.648638E-19
5.220000E+03	7.607814E-18	5.670949E-19
5.230000E+03	7.646467E-18	5.693230E-19
5.240000E+03	7.684173E-18	5.715505E-19
5.250000E+03	7.720978E-18	5.737851E-19
5.260000E+03	7.756704E-18	5.760179E-19
5.270000E+03	7.791402E-18	5.782567E-19
5.280000E+03	7.825123E-18	5.805094E-19
5.290000E+03	7.857615E-18	5.827611E-19
5.300000E+03	7.889090E-18	5.850309E-19
5.310000E+03	7.919298E-18	5.873035E-19
5.320000E+03	7.948455E-18	5.895978E-19
5.330000E+03	7.976315E-18	5.918980E-19
5.340000E+03	8.003024E-18	5.942172E-19
5.350000E+03	8.028576E-18	5.965566E-19
5.360000E+03	8.052887E-18	5.989112E-19
5.370000E+03	8.076115E-18	6.012938E-19
5.380000E+03	8.098024E-18	6.036870E-19
5.390000E+03	8.118858E-18	6.061092E-19
5.400000E+03	8.138548E-18	6.085545E-19
5.410000E+03	8.157104E-18	6.110229E-19
5.420000E+03	8.174541E-18	6.135141E-19
5.430000E+03	8.190879E-18	6.160278E-19
5.440000E+03	8.206056E-18	6.185571E-19
5.450000E+03	8.220095E-18	6.211012E-19
5.460000E+03	8.233024E-18	6.236590E-19
5.470000E+03	8.244869E-18	6.262296E-19
5.480000E+03	8.255581E-18	6.288052E-19
5.490000E+03	8.265108E-18	6.313782E-19
5.500000E+03	8.273569E-18	6.339533E-19
5.510000E+03	8.280917E-18	6.365227E-19
5.520000E+03	8.287106E-18	6.390781E-19
5.530000E+03	8.292092E-18	6.416113E-19
5.540000E+03	8.295999E-18	6.441268E-19
5.550000E+03	8.298701E-18	6.466099E-19
5.560000E+03	8.300322E-18	6.490650E-19
5.570000E+03	8.300737E-18	6.514772E-19
5.580000E+03	8.299987E-18	6.538442E-19
5.590000E+03	8.298199E-18	6.561708E-19
5.600000E+03	8.295246E-18	6.584418E-19
5.610000E+03	8.291255E-18	6.606617E-19
5.620000E+03	8.286266E-18	6.628288E-19
5.630000E+03	8.280236E-18	6.649344E-19
5.640000E+03	8.273203E-18	6.669766E-19
5.650000E+03	8.265292E-18	6.689603E-19
5.660000E+03	8.256539E-18	6.708840E-19
5.670000E+03	8.246897E-18	6.727390E-19
5.680000E+03	8.236486E-18	6.745306E-19
5.690000E+03	8.225425E-18	6.762642E-19
5.700000E+03	8.213575E-18	6.779242E-19
5.710000E+03	8.201053E-18	6.795161E-19
5.720000E+03	8.187975E-18	6.810456E-19
5.730000E+03	8.174370E-18	6.825113E-19
5.740000E+03	8.160264E-18	6.839119E-19
5.750000E+03	8.145683E-18	6.852460E-19
5.760000E+03	8.130652E-18	6.865123E-19
5.770000E+03	8.115279E-18	6.877168E-19
5.780000E+03	8.099501E-18	6.888511E-19
5.790000E+03	8.083512E-18	6.899287E-19
5.800000E+03	8.067244E-18	6.909410E-19
5.810000E+03	8.050715E-18	6.918870E-19
5.820000E+03	8.034118E-18	6.927806E-19
5.830000E+03	8.017294E-18	6.936057E-19
5.840000E+03	8.000345E-18	6.943689E-19
5.850000E+03	7.983373E-18	6.950769E-19
5.860000E+03	7.966304E-18	6.957212E-19
5.870000E+03	7.949237E-18	6.963085E-19
5.880000E+03	7.932095E-18	6.968304E-19
5.890000E+03	7.915063E-18	6.973016E-19
5.900000E+03	7.898063E-18	6.977137E-19
5.910000E+03	7.881101E-18	6.980661E-19
5.920000E+03	7.864271E-18	6.983661E-19
5.930000E+03	7.847491E-18	6.986053E-19
5.940000E+03	7.830852E-18	6.987913E-19
5.950000E+03	7.814267E-18	6.989156E-19
5.960000E+03	7.797826E-18	6.989861E-19
5.970000E+03	7.781528E-18	6.990024E-19
5.980000E+03	7.765372E-18	6.989643E-19
5.990000E+03	7.749263E-18	6.988638E-19
6.000000E+03	7.733286E-18	6.987087E-19
6.010000E+03	7.717435E-18	6.984990E-19
6.020000E+03	7.701612E-18	6.982265E-19
6.030000E+03	7.685897E-18	6.978994E-19
6.040000E+03	7.670190E-18	6.975094E-19
6.050000E+03	7.654386E-18	6.970483E-19
6.060000E+03	7.638656E-18	6.965326E-19
6.070000E+03	7.622803E-18	6.959457E-19
6.080000E+03	7.606903E-18	6.952959E-19
6.090000E+03	7.590757E-18	6.945664E-19
6.100000E+03	7.574440E-18	6.937654E-19
6.110000E+03	7.557843E-18	6.928844E-19
6.120000E+03	7.540949E-18	6.919231E-19
6.130000E+03	7.523742E-18	6.908814E-19
6.140000E+03	7.506110E-18	6.897506E-19
6.150000E+03	7.488039E-18	6.885303E-19
6.160000E+03	7.469511E-18	6.872202E-19
6.170000E+03	7.450513E-18	6.858201E-19
6.180000E+03	7.431031E-18	6.843296E-19
6.190000E+03	7.410958E-18	6.827399E-19
6.200000E+03	7.390377E-18	6.810592E-19
6.210000E+03	7.369279E-18	6.792872E-19
6.220000E+03	7.347655E-18	6.774239E-19
6.230000E+03	7.325596E-18	6.754777E-19
6.240000E+03	7.303193E-18	6.734574E-19
6.250000E+03	7.280540E-18	6.713719E-19
6.260000E+03	7.257733E-18	6.692301E-19
6.270000E+03	7.234873E-18	6.670414E-19
6.280000E+03	7.212158E-18	6.648238E-19
6.290000E+03	7.189496E-18	6.625689E-19
6.300000E+03	7.167287E-18	6.603134E-19
6.310000E+03	7.145442E-18	6.580488E-19
6.320000E+03	7.124170E-18	6.557942E-19
6.330000E+03	7.103584E-18	6.535597E-19
6.340000E+03	7.083796E-18	6.513554E-19
6.350000E+03	7.064823E-18	6.491825E-19
6.360000E+03	7.046781E-18	6.470513E-19
6.370000E+03	7.029788E-18	6.449725E-19
6.380000E+03	7.013863E-18	6.429475E-19
6.390000E+03	6.999025E-18	6.409776E-19
6.400000E+03	6.985394E-18	6.390737E-19
6.410000E+03	6.972787E-18	6.372188E-19
6.420000E+03	6.961222E-18	6.354141E-19
6.430000E+03	6.950615E-18	6.336519E-19
6.440000E+03	6.940774E-18	6.319148E-19
6.450000E+03	6.931819E-18	6.302133E-19
6.460000E+03	6.923557E-18	6.285302E-19
6.470000E+03	6.916107E-18	6.268760E-19
6.480000E+03	6.909481E-18	6.252522E-19
6.490000E+03	6.903590E-18	6.236505E-19
6.500000E+03	6.898447E-18	6.220724E-19
6.510000E+03	6.894064E-18	6.205191E-19
6.520000E+03	6.890454E-18	6.189920E-19
6.530000E+03	6.887631E-18	6.174924E-19
6.540000E+03	6.885717E-18	6.160314E-19
6.550000E+03	6.884615E-18	6.146006E-19
6.560000E+03	6.884231E-18	6.131916E-19
6.570000E+03	6.884796E-18	6.118252E-19
6.580000E+03	6.886102E-18	6.104831E-19
6.590000E+03	6.888273E-18	6.091765E-19
6.600000E+03	6.891322E-18	6.079066E-19
6.610000E+03	6.895263E-18	6.066747E-19
6.620000E+03	6.900107E-18	6.054821E-19
6.630000E+03	6.905756E-18	6.043199E-19
6.640000E+03	6.912335E-18	6.031995E-19
6.650000E+03	6.919743E-18	6.021119E-19
6.660000E+03	6.928108E-18	6.010685E-19
6.670000E+03	6.937328E-18	6.000602E-19
6.680000E+03	6.947415E-18	5.990883E-19
6.690000E+03	6.958500E-18	5.981639E-19
6.700000E+03	6.970599E-18	5.972884E-19
6.710000E+03	6.983487E-18	5.964423E-19
6.720000E+03	6.997417E-18	5.956473E-19
6.730000E+03	7.012163E-18	5.948838E-19
6.740000E+03	7.027981E-18	5.941737E-19
6.750000E+03	7.044765E-18	5.935076E-19
6.760000E+03	7.062406E-18	5.928762E-19
6.770000E+03	7.081167E-18	5.923013E-19
6.780000E+03	7.100815E-18	5.917632E-19
6.790000E+03	7.121490E-18	5.912734E-19
6.800000E+03	7.143208E-18	5.908329E-19
6.810000E+03	7.165986E-18	5.904427E-19
6.820000E+03	7.189712E-18	5.900933E-19
6.830000E+03	7.214531E-18	5.897964E-19
6.840000E+03	7.240330E-18	5.895422E-19
6.850000E+03	7.267256E-18	5.893426E-19
6.860000E+03	7.295193E-18	5.891878E-19
6.870000E+03	7.324157E-18	5.890789E-19
6.880000E+03	7.354301E-18	5.890277E-19
6.890000E+03	7.385368E-18	5.890137E-19
6.900000E+03	7.417649E-18	5.890597E-19
6.910000E+03	7.451023E-18	5.891559E-19
6.920000E+03	7.485507E-18	5.893035E-19
6.930000E+03	7.521118E-18	5.895038E-19
6.940000E+03	7.557873E-18	5.897580E-19
6.950000E+03	7.595644E-18	5.900561E-19
6.960000E+03	7.634591E-18	5.904107E-19
6.970000E+03	7.674730E-18	5.908232E-19
6.980000E+03	7.716081E-18	5.912951E-19
6.990000E+03	7.758361E-18	5.918049E-19
7.000000E+03	7.802033E-18	5.923885E-19
7.010000E+03	7.846663E-18	5.930129E-19
7.020000E+03	7.892568E-18	5.937028E-19
7.030000E+03	7.939612E-18	5.944482E-19
7.040000E+03	7.987810E-18	5.952506E-19
7.050000E+03	8.037176E-18	5.961117E-19
7.060000E+03	8.087725E-18	5.970332E-19
7.070000E+03	8.139309E-18	5.980049E-19
7.080000E+03	8.192104E-18	5.990401E-19
7.090000E+03	8.246123E-18	6.001408E-19
7.100000E+03	8.301216E-18	6.012964E-19
7.110000E+03	8.357561E-18	6.025207E-19
7.120000E+03	8.415002E-18	6.038034E-19
7.130000E+03	8.473550E-18	6.051458E-19
7.140000E+03	8.533213E-18	6.065496E-19
7.150000E+03	8.594179E-18	6.080289E-19
7.160000E+03	8.656104E-18	6.095603E-19
7.170000E+03	8.718991E-18	6.111452E-19
7.180000E+03	8.783208E-18	6.128104E-19
7.190000E+03	8.848400E-18	6.145320E-19
7.200000E+03	8.914566E-18	6.163116E-19
7.210000E+03	8.981897E-18	6.181633E-19
7.220000E+03	9.050207E-18	6.200758E-19
7.230000E+03	9.119494E-18	6.220504E-19
7.240000E+03	9.189756E-18	6.240885E-19
7.250000E+03	9.260988E-18	6.261915E-19
7.260000E+03	9.333387E-18	6.283742E-19
7.270000E+03	9.406546E-18	6.306110E-19
7.280000E+03	9.480864E-18	6.329305E-19
7.290000E+03	9.556130E-18	6.353205E-19
7.300000E+03	9.632333E-18	6.377822E-19
7.310000E+03	9.709675E-18	6.403308E-19
7.320000E+03	9.787935E-18	6.429537E-19
7.330000E+03	9.867316E-18	6.456663E-19
7.340000E+03	9.947810E-18	6.484697E-19
7.350000E+03	1.002963E-17	6.513797E-19
7.360000E+03	1.011278E-17	6.543976E-19
7.370000E+03	1.019748E-17	6.575396E-19
7.380000E+03	1.028350E-17	6.607918E-19
7.390000E+03	1.037155E-17	6.642006E-19
7.400000E+03	1.046164E-17	6.677677E-19
7.410000E+03	1.055356E-17	6.714789E-19
7.420000E+03	1.064805E-17	6.753821E-19
7.430000E+03	1.074489E-17	6.794630E-19
7.440000E+03	1.084438E-17	6.837389E-19
7.450000E+03	1.094628E-17	6.881945E-19
7.460000E+03	1.105089E-17	6.928465E-19
7.470000E+03	1.115744E-17	6.976458E-19
7.480000E+03	1.126649E-17	7.026242E-19
7.490000E+03	1.137723E-17	7.077302E-19
7.500000E+03	1.148994E-17	7.129778E-19
7.510000E+03	1.160432E-17	7.183468E-19
7.520000E+03	1.172010E-17	7.238158E-19
7.530000E+03	1.183751E-17	7.293976E-19
7.540000E+03	1.195569E-17	7.350338E-19
7.550000E+03	1.207514E-17	7.407535E-19
7.560000E+03	1.219555E-17	7.465324E-19
7.570000E+03	1.231686E-17	7.523633E-19
7.580000E+03	1.243871E-17	7.582202E-19
7.590000E+03	1.256134E-17	7.641137E-19
7.600000E+03	1.268437E-17	7.700169E-19
7.610000E+03	1.280773E-17	7.759212E-19
7.620000E+03	1.293165E-17	7.818373E-19
7.630000E+03	1.305575E-17	7.877374E-19
7.640000E+03	1.318025E-17	7.936327E-19
7.650000E+03	1.330442E-17	7.994747E-19
7.660000E+03	1.342882E-17	8.052950E-19
7.670000E+03	1.355303E-17	8.110649E-19
7.680000E+03	1.367728E-17	8.167968E-19
7.690000E+03	1.380114E-17	8.224620E-19
7.700000E+03	1.392450E-17	8.280525E-19
7.710000E+03	1.404725E-17	8.335602E-19
7.720000E+03	1.417000E-17	8.390210E-19
7.730000E+03	1.429156E-17	8.443627E-19
7.740000E+03	1.441291E-17	8.496439E-19
7.750000E+03	1.453321E-17	8.548141E-19
7.760000E+03	1.465272E-17	8.598891E-19
