#wls	flux	fluxerr
1.600000E+03	2.222102E-16	2.155793E-16
1.640000E+03	2.301303E-16	2.195444E-16
1.680000E+03	2.379517E-16	2.230765E-16
1.720000E+03	2.456462E-16	2.261465E-16
1.760000E+03	2.531080E-16	2.286569E-16
1.800000E+03	2.602912E-16	2.305717E-16
1.840000E+03	2.670961E-16	2.318118E-16
1.880000E+03	2.734602E-16	2.323382E-16
1.920000E+03	2.792907E-16	2.320924E-16
1.960000E+03	2.844892E-16	2.310194E-16
2.000000E+03	2.889113E-16	2.290372E-16
2.040000E+03	2.924561E-16	2.261102E-16
2.080000E+03	2.950049E-16	2.221996E-16
2.120000E+03	2.963905E-16	2.172428E-16
2.160000E+03	2.964665E-16	2.112082E-16
2.200000E+03	2.950619E-16	2.040618E-16
2.240000E+03	2.920314E-16	1.958041E-16
2.280000E+03	2.873416E-16	1.865237E-16
2.320000E+03	2.810267E-16	1.763571E-16
2.360000E+03	2.732870E-16	1.655411E-16
2.400000E+03	2.643030E-16	1.542855E-16
2.440000E+03	2.542386E-16	1.427766E-16
2.480000E+03	2.432770E-16	1.311971E-16
2.520000E+03	2.315625E-16	1.196940E-16
2.560000E+03	2.192235E-16	1.083931E-16
2.600000E+03	2.064192E-16	9.742290E-17
2.640000E+03	1.932698E-16	8.687887E-17
2.680000E+03	1.799192E-16	7.685429E-17
2.720000E+03	1.664910E-16	6.741958E-17
2.760000E+03	1.531326E-16	5.864110E-17
2.800000E+03	1.399714E-16	5.056262E-17
2.840000E+03	1.271437E-16	4.321725E-17
2.880000E+03	1.147807E-16	3.662212E-17
2.920000E+03	1.030041E-16	3.077812E-17
2.960000E+03	9.192149E-17	2.566997E-17
3.000000E+03	8.161995E-17	2.126674E-17
3.010000E+03	7.917369E-17	2.027089E-17
3.020000E+03	7.678167E-17	1.931571E-17
3.030000E+03	7.444240E-17	1.839981E-17
3.040000E+03	7.215933E-17	1.752303E-17
3.050000E+03	6.993080E-17	1.668393E-17
3.060000E+03	6.775682E-17	1.588150E-17
3.070000E+03	6.563737E-17	1.511469E-17
3.080000E+03	6.357501E-17	1.438308E-17
3.090000E+03	6.156675E-17	1.368496E-17
3.100000E+03	5.961484E-17	1.301981E-17
3.110000E+03	5.771761E-17	1.238626E-17
3.120000E+03	5.587576E-17	1.178345E-17
3.130000E+03	5.408871E-17	1.121027E-17
3.140000E+03	5.235586E-17	1.066562E-17
3.150000E+03	5.067656E-17	1.014841E-17
3.160000E+03	4.905107E-17	9.657740E-18
3.170000E+03	4.747767E-17	9.192360E-18
3.180000E+03	4.595649E-17	8.751391E-18
3.190000E+03	4.448663E-17	8.333785E-18
3.200000E+03	4.306721E-17	7.938521E-18
3.210000E+03	4.169803E-17	7.564734E-18
3.220000E+03	4.037666E-17	7.211181E-18
3.230000E+03	3.910421E-17	6.877288E-18
3.240000E+03	3.787762E-17	6.561768E-18
3.250000E+03	3.669779E-17	6.264062E-18
3.260000E+03	3.556238E-17	5.983077E-18
3.270000E+03	3.447092E-17	5.718073E-18
3.280000E+03	3.342228E-17	5.468233E-18
3.290000E+03	3.241484E-17	5.232687E-18
3.300000E+03	3.144852E-17	5.010846E-18
3.310000E+03	3.052120E-17	4.801824E-18
3.320000E+03	2.963182E-17	4.604937E-18
3.330000E+03	2.878017E-17	4.419658E-18
3.340000E+03	2.796428E-17	4.245216E-18
3.350000E+03	2.718309E-17	4.081012E-18
3.360000E+03	2.643557E-17	3.926474E-18
3.370000E+03	2.572104E-17	3.781110E-18
3.380000E+03	2.503775E-17	3.644294E-18
3.390000E+03	2.438475E-17	3.515542E-18
3.400000E+03	2.376140E-17	3.394437E-18
3.410000E+03	2.316642E-17	3.280494E-18
3.420000E+03	2.259889E-17	3.173298E-18
3.430000E+03	2.205736E-17	3.072380E-18
3.440000E+03	2.154128E-17	2.977419E-18
3.450000E+03	2.104981E-17	2.888069E-18
3.460000E+03	2.058164E-17	2.803937E-18
3.470000E+03	2.013604E-17	2.724725E-18
3.480000E+03	1.971205E-17	2.650121E-18
3.490000E+03	1.930923E-17	2.579896E-18
3.500000E+03	1.892623E-17	2.513714E-18
3.510000E+03	1.856267E-17	2.451379E-18
3.520000E+03	1.821754E-17	2.392626E-18
3.530000E+03	1.789008E-17	2.337232E-18
3.540000E+03	1.757961E-17	2.284995E-18
3.550000E+03	1.728525E-17	2.235699E-18
3.560000E+03	1.700657E-17	2.189195E-18
3.570000E+03	1.674262E-17	2.145271E-18
3.580000E+03	1.649285E-17	2.103780E-18
3.590000E+03	1.625692E-17	2.064605E-18
3.600000E+03	1.603415E-17	2.027595E-18
3.610000E+03	1.582409E-17	1.992629E-18
3.620000E+03	1.562612E-17	1.959577E-18
3.630000E+03	1.543968E-17	1.928317E-18
3.640000E+03	1.526439E-17	1.898755E-18
3.650000E+03	1.509958E-17	1.870766E-18
3.660000E+03	1.494506E-17	1.844289E-18
3.670000E+03	1.480023E-17	1.819212E-18
3.680000E+03	1.466477E-17	1.795466E-18
3.690000E+03	1.453854E-17	1.773003E-18
3.700000E+03	1.442098E-17	1.751729E-18
3.710000E+03	1.431182E-17	1.731585E-18
3.720000E+03	1.421106E-17	1.712550E-18
3.730000E+03	1.411832E-17	1.694554E-18
3.740000E+03	1.403335E-17	1.677548E-18
3.750000E+03	1.395614E-17	1.661514E-18
3.760000E+03	1.388634E-17	1.646392E-18
3.770000E+03	1.382381E-17	1.632151E-18
3.780000E+03	1.376858E-17	1.618776E-18
3.790000E+03	1.372039E-17	1.606225E-18
3.800000E+03	1.367913E-17	1.594472E-18
3.810000E+03	1.364469E-17	1.583490E-18
3.820000E+03	1.361694E-17	1.573252E-18
3.830000E+03	1.359589E-17	1.563748E-18
3.840000E+03	1.358130E-17	1.554939E-18
3.850000E+03	1.357318E-17	1.546814E-18
3.860000E+03	1.357152E-17	1.539361E-18
3.870000E+03	1.357609E-17	1.532545E-18
3.880000E+03	1.358677E-17	1.526340E-18
3.890000E+03	1.360368E-17	1.520750E-18
3.900000E+03	1.362669E-17	1.515749E-18
3.910000E+03	1.365557E-17	1.511302E-18
3.920000E+03	1.369042E-17	1.507408E-18
3.930000E+03	1.373125E-17	1.504058E-18
3.940000E+03	1.377769E-17	1.501200E-18
3.950000E+03	1.382985E-17	1.498837E-18
3.960000E+03	1.388772E-17	1.496954E-18
3.970000E+03	1.395117E-17	1.495527E-18
3.980000E+03	1.401994E-17	1.494519E-18
3.990000E+03	1.409426E-17	1.493941E-18
4.000000E+03	1.417387E-17	1.493757E-18
4.010000E+03	1.425864E-17	1.493940E-18
4.020000E+03	1.434866E-17	1.494491E-18
4.030000E+03	1.444368E-17	1.495373E-18
4.040000E+03	1.454379E-17	1.496585E-18
4.050000E+03	1.464861E-17	1.498080E-18
4.060000E+03	1.475835E-17	1.499870E-18
4.070000E+03	1.487276E-17	1.501921E-18
4.080000E+03	1.499169E-17	1.504209E-18
4.090000E+03	1.511525E-17	1.506739E-18
4.100000E+03	1.524304E-17	1.509465E-18
4.110000E+03	1.537530E-17	1.512403E-18
4.120000E+03	1.551164E-17	1.515512E-18
4.130000E+03	1.565204E-17	1.518785E-18
4.140000E+03	1.579650E-17	1.522219E-18
4.150000E+03	1.594474E-17	1.525788E-18
4.160000E+03	1.609677E-17	1.529491E-18
4.170000E+03	1.625244E-17	1.533319E-18
4.180000E+03	1.641150E-17	1.537250E-18
4.190000E+03	1.657408E-17	1.541305E-18
4.200000E+03	1.673978E-17	1.545457E-18
4.210000E+03	1.690874E-17	1.549733E-18
4.220000E+03	1.708056E-17	1.554112E-18
4.230000E+03	1.725524E-17	1.558617E-18
4.240000E+03	1.743267E-17	1.563261E-18
4.250000E+03	1.761242E-17	1.568037E-18
4.260000E+03	1.779466E-17	1.572993E-18
4.270000E+03	1.797912E-17	1.578142E-18
4.280000E+03	1.816551E-17	1.583502E-18
4.290000E+03	1.835357E-17	1.589095E-18
4.300000E+03	1.854329E-17	1.594971E-18
4.310000E+03	1.873457E-17	1.601168E-18
4.320000E+03	1.892679E-17	1.607688E-18
4.330000E+03	1.912014E-17	1.614596E-18
4.340000E+03	1.931400E-17	1.621890E-18
4.350000E+03	1.950854E-17	1.629630E-18
4.360000E+03	1.970330E-17	1.637819E-18
4.370000E+03	1.989828E-17	1.646492E-18
4.380000E+03	2.009350E-17	1.655676E-18
4.390000E+03	2.028898E-17	1.665390E-18
4.400000E+03	2.048471E-17	1.675640E-18
4.410000E+03	2.068088E-17	1.686437E-18
4.420000E+03	2.087768E-17	1.697779E-18
4.430000E+03	2.107512E-17	1.709645E-18
4.440000E+03	2.127341E-17	1.722017E-18
4.450000E+03	2.147240E-17	1.734842E-18
4.460000E+03	2.167251E-17	1.748104E-18
4.470000E+03	2.187359E-17	1.761741E-18
4.480000E+03	2.207571E-17	1.775700E-18
4.490000E+03	2.227893E-17	1.789931E-18
4.500000E+03	2.248330E-17	1.804379E-18
4.510000E+03	2.268892E-17	1.818996E-18
4.520000E+03	2.289585E-17	1.833732E-18
4.530000E+03	2.310379E-17	1.848511E-18
4.540000E+03	2.331322E-17	1.863325E-18
4.550000E+03	2.352383E-17	1.878107E-18
4.560000E+03	2.373573E-17	1.892827E-18
4.570000E+03	2.394879E-17	1.907444E-18
4.580000E+03	2.416333E-17	1.921956E-18
4.590000E+03	2.437927E-17	1.936335E-18
4.600000E+03	2.459627E-17	1.950539E-18
4.610000E+03	2.481489E-17	1.964603E-18
4.620000E+03	2.503483E-17	1.978495E-18
4.630000E+03	2.525599E-17	1.992206E-18
4.640000E+03	2.547873E-17	2.005767E-18
4.650000E+03	2.570320E-17	2.019196E-18
4.660000E+03	2.592888E-17	2.032459E-18
4.670000E+03	2.615640E-17	2.045616E-18
4.680000E+03	2.638570E-17	2.058676E-18
4.690000E+03	2.661673E-17	2.071648E-18
4.700000E+03	2.684970E-17	2.084563E-18
4.710000E+03	2.708460E-17	2.097434E-18
4.720000E+03	2.732164E-17	2.110294E-18
4.730000E+03	2.756031E-17	2.123118E-18
4.740000E+03	2.780086E-17	2.135942E-18
4.750000E+03	2.804356E-17	2.148798E-18
4.760000E+03	2.828762E-17	2.161642E-18
4.770000E+03	2.853359E-17	2.174529E-18
4.780000E+03	2.878120E-17	2.187453E-18
4.790000E+03	2.903021E-17	2.200410E-18
4.800000E+03	2.928115E-17	2.213456E-18
4.810000E+03	2.953323E-17	2.226546E-18
4.820000E+03	2.978728E-17	2.239758E-18
4.830000E+03	3.004247E-17	2.253046E-18
4.840000E+03	3.029937E-17	2.266470E-18
4.850000E+03	3.055740E-17	2.280005E-18
4.860000E+03	3.081714E-17	2.293711E-18
4.870000E+03	3.107799E-17	2.307563E-18
4.880000E+03	3.134022E-17	2.321598E-18
4.890000E+03	3.160382E-17	2.335833E-18
4.900000E+03	3.186844E-17	2.350259E-18
4.910000E+03	3.213405E-17	2.364889E-18
4.920000E+03	3.240059E-17	2.379732E-18
4.930000E+03	3.266831E-17	2.394818E-18
4.940000E+03	3.293650E-17	2.410103E-18
4.950000E+03	3.320572E-17	2.425632E-18
4.960000E+03	3.347522E-17	2.441352E-18
4.970000E+03	3.374520E-17	2.457276E-18
4.980000E+03	3.401519E-17	2.473362E-18
4.990000E+03	3.428503E-17	2.489588E-18
5.000000E+03	3.455454E-17	2.505925E-18
5.010000E+03	3.482384E-17	2.522365E-18
5.020000E+03	3.509201E-17	2.538818E-18
5.030000E+03	3.535915E-17	2.555265E-18
5.040000E+03	3.562461E-17	2.571633E-18
5.050000E+03	3.588841E-17	2.587895E-18
5.060000E+03	3.614986E-17	2.603970E-18
5.070000E+03	3.640821E-17	2.619777E-18
5.080000E+03	3.666340E-17	2.635283E-18
5.090000E+03	3.691500E-17	2.650431E-18
5.100000E+03	3.716215E-17	2.665138E-18
5.110000E+03	3.740399E-17	2.679322E-18
5.120000E+03	3.764072E-17	2.692985E-18
5.130000E+03	3.787104E-17	2.706025E-18
5.140000E+03	3.809436E-17	2.718398E-18
5.150000E+03	3.831008E-17	2.730064E-18
5.160000E+03	3.851756E-17	2.740989E-18
5.170000E+03	3.871578E-17	2.751117E-18
5.180000E+03	3.890446E-17	2.760450E-18
5.190000E+03	3.908216E-17	2.768917E-18
5.200000E+03	3.924858E-17	2.776529E-18
5.210000E+03	3.940226E-17	2.783222E-18
5.220000E+03	3.954329E-17	2.789044E-18
5.230000E+03	3.967019E-17	2.793936E-18
5.240000E+03	3.978268E-17	2.797924E-18
5.250000E+03	3.987931E-17	2.800952E-18
5.260000E+03	3.995982E-17	2.803047E-18
5.270000E+03	4.002360E-17	2.804212E-18
5.280000E+03	4.006928E-17	2.804391E-18
5.290000E+03	4.009631E-17	2.803586E-18
5.300000E+03	4.010461E-17	2.801829E-18
5.310000E+03	4.009337E-17	2.799094E-18
5.320000E+03	4.006187E-17	2.795360E-18
5.330000E+03	4.000985E-17	2.790636E-18
5.340000E+03	3.993717E-17	2.784933E-18
5.350000E+03	3.984382E-17	2.778270E-18
5.360000E+03	3.972947E-17	2.770639E-18
5.370000E+03	3.959478E-17	2.762098E-18
5.380000E+03	3.943970E-17	2.752653E-18
5.390000E+03	3.926516E-17	2.742375E-18
5.400000E+03	3.907145E-17	2.731286E-18
5.410000E+03	3.886016E-17	2.719496E-18
5.420000E+03	3.863268E-17	2.707095E-18
5.430000E+03	3.838973E-17	2.694123E-18
5.440000E+03	3.813374E-17	2.680734E-18
5.450000E+03	3.786609E-17	2.667005E-18
5.460000E+03	3.758680E-17	2.652908E-18
5.470000E+03	3.729863E-17	2.638605E-18
5.480000E+03	3.700258E-17	2.624124E-18
5.490000E+03	3.669972E-17	2.609497E-18
5.500000E+03	3.639159E-17	2.594777E-18
5.510000E+03	3.607940E-17	2.579995E-18
5.520000E+03	3.576441E-17	2.565178E-18
5.530000E+03	3.544862E-17	2.550404E-18
5.540000E+03	3.513330E-17	2.535700E-18
5.550000E+03	3.482077E-17	2.521169E-18
5.560000E+03	3.451293E-17	2.506886E-18
5.570000E+03	3.421125E-17	2.492903E-18
5.580000E+03	3.391784E-17	2.479319E-18
5.590000E+03	3.363433E-17	2.466209E-18
5.600000E+03	3.336225E-17	2.453645E-18
5.610000E+03	3.310334E-17	2.441724E-18
5.620000E+03	3.285887E-17	2.430515E-18
5.630000E+03	3.262995E-17	2.420085E-18
5.640000E+03	3.241791E-17	2.410521E-18
5.650000E+03	3.222360E-17	2.401886E-18
5.660000E+03	3.204803E-17	2.394258E-18
5.670000E+03	3.189179E-17	2.387692E-18
5.680000E+03	3.175530E-17	2.382234E-18
5.690000E+03	3.163923E-17	2.377952E-18
5.700000E+03	3.154377E-17	2.374885E-18
5.710000E+03	3.146904E-17	2.373067E-18
5.720000E+03	3.141541E-17	2.372553E-18
5.730000E+03	3.138285E-17	2.373368E-18
5.740000E+03	3.137158E-17	2.375557E-18
5.750000E+03	3.138115E-17	2.379112E-18
5.760000E+03	3.141207E-17	2.384097E-18
5.770000E+03	3.146381E-17	2.390495E-18
5.780000E+03	3.153618E-17	2.398310E-18
5.790000E+03	3.162968E-17	2.407596E-18
5.800000E+03	3.174344E-17	2.418297E-18
5.810000E+03	3.187798E-17	2.430460E-18
5.820000E+03	3.203313E-17	2.444072E-18
5.830000E+03	3.220877E-17	2.459121E-18
5.840000E+03	3.240440E-17	2.475561E-18
5.850000E+03	3.262062E-17	2.493424E-18
5.860000E+03	3.285696E-17	2.512656E-18
5.870000E+03	3.311369E-17	2.533256E-18
5.880000E+03	3.339072E-17	2.555192E-18
5.890000E+03	3.368757E-17	2.578399E-18
5.900000E+03	3.400451E-17	2.602866E-18
5.910000E+03	3.434178E-17	2.628582E-18
5.920000E+03	3.469851E-17	2.655446E-18
5.930000E+03	3.507488E-17	2.683442E-18
5.940000E+03	3.547072E-17	2.712525E-18
5.950000E+03	3.588620E-17	2.742680E-18
5.960000E+03	3.632024E-17	2.773802E-18
5.970000E+03	3.677335E-17	2.805907E-18
5.980000E+03	3.724436E-17	2.838893E-18
5.990000E+03	3.773325E-17	2.872749E-18
6.000000E+03	3.823958E-17	2.907440E-18
6.010000E+03	3.876239E-17	2.942899E-18
6.020000E+03	3.930154E-17	2.979130E-18
6.030000E+03	3.985549E-17	3.016039E-18
6.040000E+03	4.042445E-17	3.053674E-18
6.050000E+03	4.100624E-17	3.091912E-18
6.060000E+03	4.160097E-17	3.130812E-18
6.070000E+03	4.220676E-17	3.170292E-18
6.080000E+03	4.282314E-17	3.210387E-18
6.090000E+03	4.344807E-17	3.251018E-18
6.100000E+03	4.408045E-17	3.292187E-18
6.110000E+03	4.471859E-17	3.333857E-18
6.120000E+03	4.536128E-17	3.376031E-18
6.130000E+03	4.600618E-17	3.418630E-18
6.140000E+03	4.665141E-17	3.461610E-18
6.150000E+03	4.729563E-17	3.504963E-18
6.160000E+03	4.793689E-17	3.548635E-18
6.170000E+03	4.857206E-17	3.592470E-18
6.180000E+03	4.919969E-17	3.636432E-18
6.190000E+03	4.981776E-17	3.680428E-18
6.200000E+03	5.042489E-17	3.724390E-18
6.210000E+03	5.102035E-17	3.768282E-18
6.220000E+03	5.160353E-17	3.812056E-18
6.230000E+03	5.217460E-17	3.855706E-18
6.240000E+03	5.273523E-17	3.899323E-18
6.250000E+03	5.328529E-17	3.942852E-18
6.260000E+03	5.382406E-17	3.986181E-18
6.270000E+03	5.435376E-17	4.029410E-18
6.280000E+03	5.487466E-17	4.072488E-18
6.290000E+03	5.538571E-17	4.115261E-18
6.300000E+03	5.588960E-17	4.157850E-18
6.310000E+03	5.638470E-17	4.200058E-18
6.320000E+03	5.687320E-17	4.241971E-18
6.330000E+03	5.735435E-17	4.283460E-18
6.340000E+03	5.782901E-17	4.324518E-18
6.350000E+03	5.829728E-17	4.365090E-18
6.360000E+03	5.875932E-17	4.405130E-18
6.370000E+03	5.921531E-17	4.444597E-18
6.380000E+03	5.966464E-17	4.483400E-18
6.390000E+03	6.010666E-17	4.521448E-18
6.400000E+03	6.054240E-17	4.558789E-18
6.410000E+03	6.097036E-17	4.595279E-18
6.420000E+03	6.139161E-17	4.630979E-18
6.430000E+03	6.180548E-17	4.665822E-18
6.440000E+03	6.221216E-17	4.699813E-18
6.450000E+03	6.261279E-17	4.733030E-18
6.460000E+03	6.300949E-17	4.765631E-18
6.470000E+03	6.340258E-17	4.797644E-18
6.480000E+03	6.379336E-17	4.829169E-18
6.490000E+03	6.418316E-17	4.860314E-18
6.500000E+03	6.457139E-17	4.891041E-18
6.510000E+03	6.496041E-17	4.921538E-18
6.520000E+03	6.535066E-17	4.951847E-18
6.530000E+03	6.574153E-17	4.981931E-18
6.540000E+03	6.613546E-17	5.011984E-18
6.550000E+03	6.653186E-17	5.041969E-18
6.560000E+03	6.693005E-17	5.071842E-18
6.570000E+03	6.733252E-17	5.101800E-18
6.580000E+03	6.773857E-17	5.131795E-18
6.590000E+03	6.814855E-17	5.161860E-18
6.600000E+03	6.856389E-17	5.192106E-18
6.610000E+03	6.898267E-17	5.222394E-18
6.620000E+03	6.940513E-17	5.252742E-18
6.630000E+03	6.983379E-17	5.283344E-18
6.640000E+03	7.026656E-17	5.314045E-18
6.650000E+03	7.070361E-17	5.344857E-18
6.660000E+03	7.114626E-17	5.375881E-18
6.670000E+03	7.159342E-17	5.407036E-18
6.680000E+03	7.204517E-17	5.438325E-18
6.690000E+03	7.250278E-17	5.469844E-18
6.700000E+03	7.296380E-17	5.501406E-18
6.710000E+03	7.342816E-17	5.533003E-18
6.720000E+03	7.389832E-17	5.564816E-18
6.730000E+03	7.437167E-17	5.596644E-18
6.740000E+03	7.484806E-17	5.628467E-18
6.750000E+03	7.532863E-17	5.660365E-18
6.760000E+03	7.581189E-17	5.692214E-18
6.770000E+03	7.629763E-17	5.723987E-18
6.780000E+03	7.678560E-17	5.755651E-18
6.790000E+03	7.727553E-17	5.787171E-18
6.800000E+03	7.776577E-17	5.818404E-18
6.810000E+03	7.825738E-17	5.849410E-18
6.820000E+03	7.875006E-17	5.880147E-18
6.830000E+03	7.924205E-17	5.910462E-18
6.840000E+03	7.973444E-17	5.940414E-18
6.850000E+03	8.022544E-17	5.969848E-18
6.860000E+03	8.071466E-17	5.998715E-18
6.870000E+03	8.120172E-17	6.026968E-18
6.880000E+03	8.168474E-17	6.054450E-18
6.890000E+03	8.216636E-17	6.081345E-18
6.900000E+03	8.264471E-17	6.107501E-18
6.910000E+03	8.311787E-17	6.132771E-18
6.920000E+03	8.358701E-17	6.157239E-18
6.930000E+03	8.405021E-17	6.180764E-18
6.940000E+03	8.450710E-17	6.203326E-18
6.950000E+03	8.495894E-17	6.225026E-18
6.960000E+03	8.540382E-17	6.245737E-18
6.970000E+03	8.584143E-17	6.265454E-18
6.980000E+03	8.627148E-17	6.284174E-18
6.990000E+03	8.669370E-17	6.301902E-18
7.000000E+03	8.710619E-17	6.318521E-18
7.010000E+03	8.751213E-17	6.334287E-18
7.020000E+03	8.790795E-17	6.348967E-18
7.030000E+03	8.829351E-17	6.362573E-18
7.040000E+03	8.867042E-17	6.375246E-18
7.050000E+03	8.903692E-17	6.386877E-18
7.060000E+03	8.939296E-17	6.397484E-18
7.070000E+03	8.973859E-17	6.407082E-18
7.080000E+03	9.007388E-17	6.415687E-18
7.090000E+03	9.040077E-17	6.423443E-18
7.100000E+03	9.071582E-17	6.430104E-18
7.110000E+03	9.101923E-17	6.435682E-18
7.120000E+03	9.131308E-17	6.440313E-18
7.130000E+03	9.159771E-17	6.444005E-18
7.140000E+03	9.187159E-17	6.446631E-18
7.150000E+03	9.213698E-17	6.448324E-18
7.160000E+03	9.239053E-17	6.448823E-18
7.170000E+03	9.263643E-17	6.448388E-18
7.180000E+03	9.287324E-17	6.446888E-18
7.190000E+03	9.310144E-17	6.444321E-18
7.200000E+03	9.331953E-17	6.440551E-18
7.210000E+03	9.353184E-17	6.435847E-18
7.220000E+03	9.373494E-17	6.429945E-18
7.230000E+03	9.393116E-17	6.422986E-18
7.240000E+03	9.411894E-17	6.414845E-18
7.250000E+03	9.430059E-17	6.405674E-18
7.260000E+03	9.447442E-17	6.395361E-18
7.270000E+03	9.464068E-17	6.383939E-18
7.280000E+03	9.480157E-17	6.371581E-18
7.290000E+03	9.495525E-17	6.358205E-18
7.300000E+03	9.510384E-17	6.344009E-18
7.310000E+03	9.524335E-17	6.328799E-18
7.320000E+03	9.537583E-17	6.312803E-18
7.330000E+03	9.550332E-17	6.296266E-18
7.340000E+03	9.562170E-17	6.279045E-18
7.350000E+03	9.573300E-17	6.261424E-18
7.360000E+03	9.583509E-17	6.243440E-18
7.370000E+03	9.593005E-17	6.225422E-18
7.380000E+03	9.601578E-17	6.207451E-18
7.390000E+03	9.609232E-17	6.189771E-18
7.400000E+03	9.615976E-17	6.172645E-18
7.410000E+03	9.621609E-17	6.156221E-18
7.420000E+03	9.626150E-17	6.140799E-18
7.430000E+03	9.629622E-17	6.126692E-18
7.440000E+03	9.632055E-17	6.114213E-18
7.450000E+03	9.633697E-17	6.103810E-18
7.460000E+03	9.634377E-17	6.095639E-18
7.470000E+03	9.634572E-17	6.090242E-18
7.480000E+03	9.634331E-17	6.087849E-18
7.490000E+03	9.633706E-17	6.088635E-18
7.500000E+03	9.632747E-17	6.092714E-18
7.510000E+03	9.631497E-17	6.100124E-18
7.520000E+03	9.630423E-17	6.111073E-18
7.530000E+03	9.629084E-17	6.125089E-18
7.540000E+03	9.627695E-17	6.142045E-18
7.550000E+03	9.626243E-17	6.161612E-18
7.560000E+03	9.624941E-17	6.183562E-18
7.570000E+03	9.623326E-17	6.207204E-18
7.580000E+03	9.621607E-17	6.232265E-18
7.590000E+03	9.619770E-17	6.258330E-18
7.600000E+03	9.618027E-17	6.285150E-18
7.610000E+03	9.615917E-17	6.312060E-18
7.620000E+03	9.613884E-17	6.339028E-18
7.630000E+03	9.611692E-17	6.365624E-18
7.640000E+03	9.609109E-17	6.391463E-18
7.650000E+03	9.606587E-17	6.416671E-18
7.660000E+03	9.603895E-17	6.440971E-18
7.670000E+03	9.601030E-17	6.464287E-18
7.680000E+03	9.597990E-17	6.486591E-18
7.690000E+03	9.594772E-17	6.507892E-18
7.700000E+03	9.591374E-17	6.528234E-18
7.710000E+03	9.588022E-17	6.547844E-18
7.720000E+03	9.584243E-17	6.566493E-18
7.730000E+03	9.580497E-17	6.584598E-18
7.740000E+03	9.576536E-17	6.602105E-18
7.750000E+03	9.572347E-17	6.619117E-18
7.760000E+03	9.567911E-17	6.635732E-18
