#wls	flux	fluxerr
1.600000E+03	2.852359E-16	2.879158E-16
1.640000E+03	2.895174E-16	2.877329E-16
1.680000E+03	2.936742E-16	2.871839E-16
1.720000E+03	2.976618E-16	2.862265E-16
1.760000E+03	3.014588E-16	2.848435E-16
1.800000E+03	3.050125E-16	2.829908E-16
1.840000E+03	3.083181E-16	2.806720E-16
1.880000E+03	3.113390E-16	2.778638E-16
1.920000E+03	3.140109E-16	2.745217E-16
1.960000E+03	3.162690E-16	2.706069E-16
2.000000E+03	3.180498E-16	2.660873E-16
2.040000E+03	3.193130E-16	2.609566E-16
2.080000E+03	3.199163E-16	2.551313E-16
2.120000E+03	3.197950E-16	2.486013E-16
2.160000E+03	3.188564E-16	2.413430E-16
2.200000E+03	3.169553E-16	2.333032E-16
2.240000E+03	3.140643E-16	2.245279E-16
2.280000E+03	3.101403E-16	2.150572E-16
2.320000E+03	3.052393E-16	2.050034E-16
2.360000E+03	2.994508E-16	1.944985E-16
2.400000E+03	2.928892E-16	1.836840E-16
2.440000E+03	2.856971E-16	1.727101E-16
2.480000E+03	2.779518E-16	1.616772E-16
2.520000E+03	2.697588E-16	1.506957E-16
2.560000E+03	2.612003E-16	1.398543E-16
2.600000E+03	2.523218E-16	1.292159E-16
2.640000E+03	2.431786E-16	1.188440E-16
2.680000E+03	2.338092E-16	1.087892E-16
2.720000E+03	2.242640E-16	9.910332E-17
2.760000E+03	2.145827E-16	8.982849E-17
2.800000E+03	2.048121E-16	8.100500E-17
2.840000E+03	1.950005E-16	7.266815E-17
2.880000E+03	1.852243E-16	6.485712E-17
2.920000E+03	1.755562E-16	5.760097E-17
2.960000E+03	1.660726E-16	5.092113E-17
3.000000E+03	1.568732E-16	4.483641E-17
3.010000E+03	1.546303E-16	4.340954E-17
3.020000E+03	1.524115E-16	4.202000E-17
3.030000E+03	1.502181E-16	4.066769E-17
3.040000E+03	1.480547E-16	3.935333E-17
3.050000E+03	1.459223E-16	3.807667E-17
3.060000E+03	1.438220E-16	3.683743E-17
3.070000E+03	1.417550E-16	3.563532E-17
3.080000E+03	1.397226E-16	3.447002E-17
3.090000E+03	1.377261E-16	3.334121E-17
3.100000E+03	1.357695E-16	3.224921E-17
3.110000E+03	1.338539E-16	3.119355E-17
3.120000E+03	1.319780E-16	3.017317E-17
3.130000E+03	1.301482E-16	2.918882E-17
3.140000E+03	1.283606E-16	2.823883E-17
3.150000E+03	1.266190E-16	2.732330E-17
3.160000E+03	1.249271E-16	2.644220E-17
3.170000E+03	1.232837E-16	2.559445E-17
3.180000E+03	1.216922E-16	2.477997E-17
3.190000E+03	1.201517E-16	2.399771E-17
3.200000E+03	1.186654E-16	2.324751E-17
3.210000E+03	1.172347E-16	2.252876E-17
3.220000E+03	1.158585E-16	2.184043E-17
3.230000E+03	1.145401E-16	2.118232E-17
3.240000E+03	1.132808E-16	2.055376E-17
3.250000E+03	1.120817E-16	1.995413E-17
3.260000E+03	1.109440E-16	1.938278E-17
3.270000E+03	1.098689E-16	1.883905E-17
3.280000E+03	1.088576E-16	1.832230E-17
3.290000E+03	1.079097E-16	1.783160E-17
3.300000E+03	1.070300E-16	1.736687E-17
3.310000E+03	1.062163E-16	1.692691E-17
3.320000E+03	1.054718E-16	1.651136E-17
3.330000E+03	1.047962E-16	1.611933E-17
3.340000E+03	1.041926E-16	1.575044E-17
3.350000E+03	1.036625E-16	1.540405E-17
3.360000E+03	1.032044E-16	1.507910E-17
3.370000E+03	1.028230E-16	1.477543E-17
3.380000E+03	1.025170E-16	1.449203E-17
3.390000E+03	1.022897E-16	1.422854E-17
3.400000E+03	1.021428E-16	1.398439E-17
3.410000E+03	1.020755E-16	1.375865E-17
3.420000E+03	1.020926E-16	1.355119E-17
3.430000E+03	1.021934E-16	1.336114E-17
3.440000E+03	1.023800E-16	1.318801E-17
3.450000E+03	1.026548E-16	1.303136E-17
3.460000E+03	1.030187E-16	1.289059E-17
3.470000E+03	1.034756E-16	1.276547E-17
3.480000E+03	1.040253E-16	1.265529E-17
3.490000E+03	1.046705E-16	1.255970E-17
3.500000E+03	1.054127E-16	1.247823E-17
3.510000E+03	1.062559E-16	1.241073E-17
3.520000E+03	1.072006E-16	1.235664E-17
3.530000E+03	1.082484E-16	1.231555E-17
3.540000E+03	1.094036E-16	1.228741E-17
3.550000E+03	1.106655E-16	1.227158E-17
3.560000E+03	1.120373E-16	1.226790E-17
3.570000E+03	1.135222E-16	1.227622E-17
3.580000E+03	1.151206E-16	1.229614E-17
3.590000E+03	1.168358E-16	1.232754E-17
3.600000E+03	1.186683E-16	1.237007E-17
3.610000E+03	1.206196E-16	1.242350E-17
3.620000E+03	1.226927E-16	1.248778E-17
3.630000E+03	1.248863E-16	1.256243E-17
3.640000E+03	1.272043E-16	1.264756E-17
3.650000E+03	1.296462E-16	1.274283E-17
3.660000E+03	1.322126E-16	1.284807E-17
3.670000E+03	1.349024E-16	1.296294E-17
3.680000E+03	1.377169E-16	1.308737E-17
3.690000E+03	1.406554E-16	1.322115E-17
3.700000E+03	1.437154E-16	1.336390E-17
3.710000E+03	1.468968E-16	1.351548E-17
3.720000E+03	1.501972E-16	1.367559E-17
3.730000E+03	1.536124E-16	1.384374E-17
3.740000E+03	1.571431E-16	1.401996E-17
3.750000E+03	1.607823E-16	1.420354E-17
3.760000E+03	1.645263E-16	1.439412E-17
3.770000E+03	1.683726E-16	1.459143E-17
3.780000E+03	1.723114E-16	1.479458E-17
3.790000E+03	1.763404E-16	1.500333E-17
3.800000E+03	1.804497E-16	1.521678E-17
3.810000E+03	1.846338E-16	1.543442E-17
3.820000E+03	1.888850E-16	1.565553E-17
3.830000E+03	1.931927E-16	1.587918E-17
3.840000E+03	1.975478E-16	1.610450E-17
3.850000E+03	2.019421E-16	1.633075E-17
3.860000E+03	2.063633E-16	1.655680E-17
3.870000E+03	2.108023E-16	1.678179E-17
3.880000E+03	2.152458E-16	1.700450E-17
3.890000E+03	2.196839E-16	1.722399E-17
3.900000E+03	2.241046E-16	1.743911E-17
3.910000E+03	2.284954E-16	1.764869E-17
3.920000E+03	2.328462E-16	1.785171E-17
3.930000E+03	2.371424E-16	1.804679E-17
3.940000E+03	2.413736E-16	1.823289E-17
3.950000E+03	2.455299E-16	1.840896E-17
3.960000E+03	2.495948E-16	1.857348E-17
3.970000E+03	2.535632E-16	1.872574E-17
3.980000E+03	2.574217E-16	1.886444E-17
3.990000E+03	2.611591E-16	1.898844E-17
4.000000E+03	2.647673E-16	1.909682E-17
4.010000E+03	2.682340E-16	1.918838E-17
4.020000E+03	2.715544E-16	1.926246E-17
4.030000E+03	2.747194E-16	1.931813E-17
4.040000E+03	2.777208E-16	1.935452E-17
4.050000E+03	2.805483E-16	1.937067E-17
4.060000E+03	2.831994E-16	1.936618E-17
4.070000E+03	2.856675E-16	1.934037E-17
4.080000E+03	2.879466E-16	1.929265E-17
4.090000E+03	2.900311E-16	1.922252E-17
4.100000E+03	2.919163E-16	1.912953E-17
4.110000E+03	2.936004E-16	1.901348E-17
4.120000E+03	2.950776E-16	1.887393E-17
4.130000E+03	2.963478E-16	1.871084E-17
4.140000E+03	2.974092E-16	1.852413E-17
4.150000E+03	2.982610E-16	1.831379E-17
4.160000E+03	2.989033E-16	1.807994E-17
4.170000E+03	2.993373E-16	1.782281E-17
4.180000E+03	2.995680E-16	1.754296E-17
4.190000E+03	2.995938E-16	1.724064E-17
4.200000E+03	2.994222E-16	1.691674E-17
4.210000E+03	2.990617E-16	1.657240E-17
4.220000E+03	2.985149E-16	1.620857E-17
4.230000E+03	2.977931E-16	1.582690E-17
4.240000E+03	2.969042E-16	1.542916E-17
4.250000E+03	2.958624E-16	1.501772E-17
4.260000E+03	2.946781E-16	1.459516E-17
4.270000E+03	2.933635E-16	1.416456E-17
4.280000E+03	2.919391E-16	1.372989E-17
4.290000E+03	2.904148E-16	1.329517E-17
4.300000E+03	2.888137E-16	1.286563E-17
4.310000E+03	2.871528E-16	1.244685E-17
4.320000E+03	2.854527E-16	1.204521E-17
4.330000E+03	2.837321E-16	1.166763E-17
4.340000E+03	2.820156E-16	1.132174E-17
4.350000E+03	2.803251E-16	1.101533E-17
4.360000E+03	2.786798E-16	1.075592E-17
4.370000E+03	2.771075E-16	1.055071E-17
4.380000E+03	2.756235E-16	1.040509E-17
4.390000E+03	2.742468E-16	1.032254E-17
4.400000E+03	2.729778E-16	1.030137E-17
4.410000E+03	2.718091E-16	1.033541E-17
4.420000E+03	2.707232E-16	1.041647E-17
4.430000E+03	2.697107E-16	1.053582E-17
4.440000E+03	2.687554E-16	1.068434E-17
4.450000E+03	2.678416E-16	1.085331E-17
4.460000E+03	2.669622E-16	1.103509E-17
4.470000E+03	2.661046E-16	1.122274E-17
4.480000E+03	2.652606E-16	1.141047E-17
4.490000E+03	2.644239E-16	1.159350E-17
4.500000E+03	2.635898E-16	1.176805E-17
4.510000E+03	2.627533E-16	1.193110E-17
4.520000E+03	2.619156E-16	1.208062E-17
4.530000E+03	2.610769E-16	1.221520E-17
4.540000E+03	2.602362E-16	1.233391E-17
4.550000E+03	2.593936E-16	1.243634E-17
4.560000E+03	2.585547E-16	1.252277E-17
4.570000E+03	2.577234E-16	1.259374E-17
4.580000E+03	2.568991E-16	1.264991E-17
4.590000E+03	2.560910E-16	1.269269E-17
4.600000E+03	2.552967E-16	1.272316E-17
4.610000E+03	2.545232E-16	1.274308E-17
4.620000E+03	2.537751E-16	1.275429E-17
4.630000E+03	2.530544E-16	1.275868E-17
4.640000E+03	2.523657E-16	1.275840E-17
4.650000E+03	2.517085E-16	1.275547E-17
4.660000E+03	2.510920E-16	1.275252E-17
4.670000E+03	2.505135E-16	1.275161E-17
4.680000E+03	2.499801E-16	1.275529E-17
4.690000E+03	2.494942E-16	1.276584E-17
4.700000E+03	2.490608E-16	1.278547E-17
4.710000E+03	2.486804E-16	1.281593E-17
4.720000E+03	2.483580E-16	1.285880E-17
4.730000E+03	2.480936E-16	1.291473E-17
4.740000E+03	2.478935E-16	1.298374E-17
4.750000E+03	2.477545E-16	1.306492E-17
4.760000E+03	2.476804E-16	1.315742E-17
4.770000E+03	2.476729E-16	1.326009E-17
4.780000E+03	2.477312E-16	1.337159E-17
4.790000E+03	2.478599E-16	1.349086E-17
4.800000E+03	2.480582E-16	1.361662E-17
4.810000E+03	2.483282E-16	1.374783E-17
4.820000E+03	2.486712E-16	1.388354E-17
4.830000E+03	2.490885E-16	1.402294E-17
4.840000E+03	2.495783E-16	1.416516E-17
4.850000E+03	2.501458E-16	1.430988E-17
4.860000E+03	2.507830E-16	1.445613E-17
4.870000E+03	2.514937E-16	1.460374E-17
4.880000E+03	2.522737E-16	1.475218E-17
4.890000E+03	2.531230E-16	1.490124E-17
4.900000E+03	2.540338E-16	1.505029E-17
4.910000E+03	2.550048E-16	1.519919E-17
4.920000E+03	2.560323E-16	1.534764E-17
4.930000E+03	2.571092E-16	1.549519E-17
4.940000E+03	2.582335E-16	1.564169E-17
4.950000E+03	2.593979E-16	1.578669E-17
4.960000E+03	2.606000E-16	1.593005E-17
4.970000E+03	2.618300E-16	1.607114E-17
4.980000E+03	2.630883E-16	1.620999E-17
4.990000E+03	2.643651E-16	1.634597E-17
5.000000E+03	2.656591E-16	1.647898E-17
5.010000E+03	2.669636E-16	1.660859E-17
5.020000E+03	2.682780E-16	1.673473E-17
5.030000E+03	2.695993E-16	1.685722E-17
5.040000E+03	2.709199E-16	1.697552E-17
5.050000E+03	2.722402E-16	1.708967E-17
5.060000E+03	2.735590E-16	1.719956E-17
5.070000E+03	2.748752E-16	1.730510E-17
5.080000E+03	2.761826E-16	1.740589E-17
5.090000E+03	2.774864E-16	1.750223E-17
5.100000E+03	2.787865E-16	1.759410E-17
5.110000E+03	2.800746E-16	1.768096E-17
5.120000E+03	2.813593E-16	1.776333E-17
5.130000E+03	2.826348E-16	1.784083E-17
5.140000E+03	2.839011E-16	1.791345E-17
5.150000E+03	2.851575E-16	1.798116E-17
5.160000E+03	2.864003E-16	1.804373E-17
5.170000E+03	2.876309E-16	1.810126E-17
5.180000E+03	2.888440E-16	1.815348E-17
5.190000E+03	2.900368E-16	1.820026E-17
5.200000E+03	2.912055E-16	1.824144E-17
5.210000E+03	2.923394E-16	1.827645E-17
5.220000E+03	2.934389E-16	1.830543E-17
5.230000E+03	2.944944E-16	1.832791E-17
5.240000E+03	2.954953E-16	1.834340E-17
5.250000E+03	2.964334E-16	1.835156E-17
5.260000E+03	2.972992E-16	1.835202E-17
5.270000E+03	2.980800E-16	1.834421E-17
5.280000E+03	2.987682E-16	1.832792E-17
5.290000E+03	2.993468E-16	1.830240E-17
5.300000E+03	2.998078E-16	1.826749E-17
5.310000E+03	3.001340E-16	1.822251E-17
5.320000E+03	3.003177E-16	1.816738E-17
5.330000E+03	3.003454E-16	1.810175E-17
5.340000E+03	3.002079E-16	1.802556E-17
5.350000E+03	2.998966E-16	1.793886E-17
5.360000E+03	2.993987E-16	1.784148E-17
5.370000E+03	2.987118E-16	1.773396E-17
5.380000E+03	2.978296E-16	1.761662E-17
5.390000E+03	2.967511E-16	1.749017E-17
5.400000E+03	2.954715E-16	1.735514E-17
5.410000E+03	2.940007E-16	1.721291E-17
5.420000E+03	2.923365E-16	1.706420E-17
5.430000E+03	2.904881E-16	1.691040E-17
5.440000E+03	2.884676E-16	1.675302E-17
5.450000E+03	2.862756E-16	1.659284E-17
5.460000E+03	2.839153E-16	1.643072E-17
5.470000E+03	2.813927E-16	1.626758E-17
5.480000E+03	2.787414E-16	1.610571E-17
5.490000E+03	2.759934E-16	1.594711E-17
5.500000E+03	2.731755E-16	1.579315E-17
5.510000E+03	2.703142E-16	1.564464E-17
5.520000E+03	2.674360E-16	1.550219E-17
5.530000E+03	2.645623E-16	1.536601E-17
5.540000E+03	2.617252E-16	1.523688E-17
5.550000E+03	2.589454E-16	1.511499E-17
5.560000E+03	2.562459E-16	1.500066E-17
5.570000E+03	2.536537E-16	1.489460E-17
5.580000E+03	2.511865E-16	1.479704E-17
5.590000E+03	2.488658E-16	1.470854E-17
5.600000E+03	2.467110E-16	1.462965E-17
5.610000E+03	2.447366E-16	1.456071E-17
5.620000E+03	2.429575E-16	1.450216E-17
5.630000E+03	2.413832E-16	1.445421E-17
5.640000E+03	2.400207E-16	1.441695E-17
5.650000E+03	2.388768E-16	1.439050E-17
5.660000E+03	2.379503E-16	1.437456E-17
5.670000E+03	2.372475E-16	1.436925E-17
5.680000E+03	2.367595E-16	1.437384E-17
5.690000E+03	2.364845E-16	1.438802E-17
5.700000E+03	2.364139E-16	1.441105E-17
5.710000E+03	2.365339E-16	1.444193E-17
5.720000E+03	2.368368E-16	1.447996E-17
5.730000E+03	2.373053E-16	1.452393E-17
5.740000E+03	2.379260E-16	1.457281E-17
5.750000E+03	2.386820E-16	1.462539E-17
5.760000E+03	2.395582E-16	1.468056E-17
5.770000E+03	2.405342E-16	1.473686E-17
5.780000E+03	2.415972E-16	1.479333E-17
5.790000E+03	2.427246E-16	1.484838E-17
5.800000E+03	2.439018E-16	1.490090E-17
5.810000E+03	2.451156E-16	1.494986E-17
5.820000E+03	2.463511E-16	1.499411E-17
5.830000E+03	2.475918E-16	1.503240E-17
5.840000E+03	2.488282E-16	1.506386E-17
5.850000E+03	2.500523E-16	1.508771E-17
5.860000E+03	2.512492E-16	1.510276E-17
5.870000E+03	2.524137E-16	1.510835E-17
5.880000E+03	2.535422E-16	1.510394E-17
5.890000E+03	2.546239E-16	1.508854E-17
5.900000E+03	2.556605E-16	1.506191E-17
5.910000E+03	2.566493E-16	1.502355E-17
5.920000E+03	2.575829E-16	1.497272E-17
5.930000E+03	2.584632E-16	1.490924E-17
5.940000E+03	2.592932E-16	1.483304E-17
5.950000E+03	2.600678E-16	1.474362E-17
5.960000E+03	2.607915E-16	1.464110E-17
5.970000E+03	2.614663E-16	1.452552E-17
5.980000E+03	2.620921E-16	1.439689E-17
5.990000E+03	2.626720E-16	1.425551E-17
6.000000E+03	2.632100E-16	1.410180E-17
6.010000E+03	2.637076E-16	1.393621E-17
6.020000E+03	2.641729E-16	1.375965E-17
6.030000E+03	2.646088E-16	1.357294E-17
6.040000E+03	2.650216E-16	1.337726E-17
6.050000E+03	2.654125E-16	1.317372E-17
6.060000E+03	2.657956E-16	1.296439E-17
6.070000E+03	2.661703E-16	1.275085E-17
6.080000E+03	2.665527E-16	1.253585E-17
6.090000E+03	2.669437E-16	1.232178E-17
6.100000E+03	2.673611E-16	1.211227E-17
6.110000E+03	2.678077E-16	1.191070E-17
6.120000E+03	2.682999E-16	1.172155E-17
6.130000E+03	2.688518E-16	1.154967E-17
6.140000E+03	2.694749E-16	1.140021E-17
6.150000E+03	2.701810E-16	1.127866E-17
6.160000E+03	2.709887E-16	1.119091E-17
6.170000E+03	2.719124E-16	1.114249E-17
6.180000E+03	2.729653E-16	1.113832E-17
6.190000E+03	2.741579E-16	1.118226E-17
6.200000E+03	2.755000E-16	1.127593E-17
6.210000E+03	2.769871E-16	1.141752E-17
6.220000E+03	2.786009E-16	1.160329E-17
6.230000E+03	2.803344E-16	1.182911E-17
6.240000E+03	2.821691E-16	1.208987E-17
6.250000E+03	2.840890E-16	1.238040E-17
6.260000E+03	2.860860E-16	1.269592E-17
6.270000E+03	2.881446E-16	1.303162E-17
6.280000E+03	2.902540E-16	1.338318E-17
6.290000E+03	2.924003E-16	1.374655E-17
6.300000E+03	2.945701E-16	1.411808E-17
6.310000E+03	2.967630E-16	1.449514E-17
6.320000E+03	2.989596E-16	1.487453E-17
6.330000E+03	3.011572E-16	1.525423E-17
6.340000E+03	3.033417E-16	1.563191E-17
6.350000E+03	3.055123E-16	1.600621E-17
6.360000E+03	3.076561E-16	1.637536E-17
6.370000E+03	3.097697E-16	1.673829E-17
6.380000E+03	3.118501E-16	1.709414E-17
6.390000E+03	3.138817E-16	1.744149E-17
6.400000E+03	3.158673E-16	1.778006E-17
6.410000E+03	3.178010E-16	1.810920E-17
6.420000E+03	3.196775E-16	1.842840E-17
6.430000E+03	3.214967E-16	1.873749E-17
6.440000E+03	3.232588E-16	1.903642E-17
6.450000E+03	3.249648E-16	1.932521E-17
6.460000E+03	3.266113E-16	1.960371E-17
6.470000E+03	3.281951E-16	1.987177E-17
6.480000E+03	3.297184E-16	2.012963E-17
6.490000E+03	3.311689E-16	2.037662E-17
6.500000E+03	3.325544E-16	2.061333E-17
6.510000E+03	3.338732E-16	2.083980E-17
6.520000E+03	3.351239E-16	2.105606E-17
6.530000E+03	3.363054E-16	2.126218E-17
6.540000E+03	3.374171E-16	2.145825E-17
6.550000E+03	3.384637E-16	2.164471E-17
6.560000E+03	3.394399E-16	2.182136E-17
6.570000E+03	3.403513E-16	2.198867E-17
6.580000E+03	3.411985E-16	2.214682E-17
6.590000E+03	3.419766E-16	2.229562E-17
6.600000E+03	3.426921E-16	2.243561E-17
6.610000E+03	3.433462E-16	2.256698E-17
6.620000E+03	3.439401E-16	2.268995E-17
6.630000E+03	3.444754E-16	2.280471E-17
6.640000E+03	3.449533E-16	2.291149E-17
6.650000E+03	3.453755E-16	2.301048E-17
6.660000E+03	3.457374E-16	2.310150E-17
6.670000E+03	3.460463E-16	2.318514E-17
6.680000E+03	3.462975E-16	2.326118E-17
6.690000E+03	3.464981E-16	2.333020E-17
6.700000E+03	3.466492E-16	2.339236E-17
6.710000E+03	3.467455E-16	2.344740E-17
6.720000E+03	3.467877E-16	2.349543E-17
6.730000E+03	3.467823E-16	2.353697E-17
6.740000E+03	3.467176E-16	2.357128E-17
6.750000E+03	3.466059E-16	2.359925E-17
6.760000E+03	3.464412E-16	2.362050E-17
6.770000E+03	3.462173E-16	2.363463E-17
6.780000E+03	3.459403E-16	2.364207E-17
6.790000E+03	3.456100E-16	2.364281E-17
6.800000E+03	3.452201E-16	2.363640E-17
6.810000E+03	3.447767E-16	2.362323E-17
6.820000E+03	3.442736E-16	2.360284E-17
6.830000E+03	3.437169E-16	2.357564E-17
6.840000E+03	3.430943E-16	2.354071E-17
6.850000E+03	3.424187E-16	2.349890E-17
6.860000E+03	3.416778E-16	2.344934E-17
6.870000E+03	3.408849E-16	2.339291E-17
6.880000E+03	3.400280E-16	2.332876E-17
6.890000E+03	3.391144E-16	2.325738E-17
6.900000E+03	3.381387E-16	2.317840E-17
6.910000E+03	3.371085E-16	2.309237E-17
6.920000E+03	3.360188E-16	2.299895E-17
6.930000E+03	3.348773E-16	2.289874E-17
6.940000E+03	3.336728E-16	2.279100E-17
6.950000E+03	3.324198E-16	2.267678E-17
6.960000E+03	3.311135E-16	2.255583E-17
6.970000E+03	3.297494E-16	2.242790E-17
6.980000E+03	3.283420E-16	2.229403E-17
6.990000E+03	3.268804E-16	2.215356E-17
7.000000E+03	3.253730E-16	2.200710E-17
7.010000E+03	3.238154E-16	2.185440E-17
7.020000E+03	3.222160E-16	2.169605E-17
7.030000E+03	3.205704E-16	2.153180E-17
7.040000E+03	3.188872E-16	2.136222E-17
7.050000E+03	3.171559E-16	2.118660E-17
7.060000E+03	3.153913E-16	2.100592E-17
7.070000E+03	3.135833E-16	2.081947E-17
7.080000E+03	3.117468E-16	2.062816E-17
7.090000E+03	3.098717E-16	2.043128E-17
7.100000E+03	3.079668E-16	2.022933E-17
7.110000E+03	3.060287E-16	2.002195E-17
7.120000E+03	3.040661E-16	1.980962E-17
7.130000E+03	3.020819E-16	1.959239E-17
7.140000E+03	3.000666E-16	1.936949E-17
7.150000E+03	2.980353E-16	1.914176E-17
7.160000E+03	2.959909E-16	1.890919E-17
7.170000E+03	2.939242E-16	1.867103E-17
7.180000E+03	2.918441E-16	1.842768E-17
7.190000E+03	2.897536E-16	1.817914E-17
7.200000E+03	2.876495E-16	1.792503E-17
7.210000E+03	2.855463E-16	1.766610E-17
7.220000E+03	2.834348E-16	1.740161E-17
7.230000E+03	2.813175E-16	1.713159E-17
7.240000E+03	2.792027E-16	1.685641E-17
7.250000E+03	2.770810E-16	1.657542E-17
7.260000E+03	2.749660E-16	1.628938E-17
7.270000E+03	2.728538E-16	1.599803E-17
7.280000E+03	2.707463E-16	1.570152E-17
7.290000E+03	2.686396E-16	1.539969E-17
7.300000E+03	2.665356E-16	1.509281E-17
7.310000E+03	2.644416E-16	1.478150E-17
7.320000E+03	2.623538E-16	1.446584E-17
7.330000E+03	2.602689E-16	1.414606E-17
7.340000E+03	2.581893E-16	1.382281E-17
7.350000E+03	2.561174E-16	1.349688E-17
7.360000E+03	2.540565E-16	1.316927E-17
7.370000E+03	2.520047E-16	1.284088E-17
7.380000E+03	2.499610E-16	1.251289E-17
7.390000E+03	2.479302E-16	1.218707E-17
7.400000E+03	2.459076E-16	1.186496E-17
7.410000E+03	2.439105E-16	1.154953E-17
7.420000E+03	2.419308E-16	1.124286E-17
7.430000E+03	2.399772E-16	1.094823E-17
7.440000E+03	2.380647E-16	1.066953E-17
7.450000E+03	2.362090E-16	1.041103E-17
7.460000E+03	2.344168E-16	1.017683E-17
7.470000E+03	2.327105E-16	9.971877E-18
7.480000E+03	2.311029E-16	9.800630E-18
7.490000E+03	2.296164E-16	9.667648E-18
7.500000E+03	2.282575E-16	9.576176E-18
7.510000E+03	2.270459E-16	9.529034E-18
7.520000E+03	2.259824E-16	9.526087E-18
7.530000E+03	2.250572E-16	9.564224E-18
7.540000E+03	2.242635E-16	9.639439E-18
7.550000E+03	2.235838E-16	9.746701E-18
7.560000E+03	2.230157E-16	9.881400E-18
7.570000E+03	2.225426E-16	1.003835E-17
7.580000E+03	2.221539E-16	1.021286E-17
7.590000E+03	2.218454E-16	1.040089E-17
7.600000E+03	2.216088E-16	1.059868E-17
7.610000E+03	2.214372E-16	1.080294E-17
7.620000E+03	2.213195E-16	1.101068E-17
7.630000E+03	2.212606E-16	1.122011E-17
7.640000E+03	2.212461E-16	1.142885E-17
7.650000E+03	2.212823E-16	1.163597E-17
7.660000E+03	2.213558E-16	1.183982E-17
7.670000E+03	2.214737E-16	1.204011E-17
7.680000E+03	2.216233E-16	1.223572E-17
7.690000E+03	2.218125E-16	1.242684E-17
7.700000E+03	2.220338E-16	1.261297E-17
7.710000E+03	2.222852E-16	1.279404E-17
7.720000E+03	2.225594E-16	1.296975E-17
7.730000E+03	2.228648E-16	1.314078E-17
7.740000E+03	2.231943E-16	1.330698E-17
7.750000E+03	2.235460E-16	1.346847E-17
7.760000E+03	2.239126E-16	1.362512E-17
