#wls	flux	fluxerr
1.600000E+03	1.660400E-16	1.635643E-16
1.640000E+03	1.714667E-16	1.661312E-16
1.680000E+03	1.766612E-16	1.682331E-16
1.720000E+03	1.815744E-16	1.698295E-16
1.760000E+03	1.861340E-16	1.708624E-16
1.800000E+03	1.902810E-16	1.712917E-16
1.840000E+03	1.939347E-16	1.710635E-16
1.880000E+03	1.970465E-16	1.701587E-16
1.920000E+03	1.995479E-16	1.685465E-16
1.960000E+03	2.013538E-16	1.661889E-16
2.000000E+03	2.024138E-16	1.630845E-16
2.040000E+03	2.026493E-16	1.592156E-16
2.080000E+03	2.019904E-16	1.545794E-16
2.120000E+03	2.004069E-16	1.492106E-16
2.160000E+03	1.978126E-16	1.431083E-16
2.200000E+03	1.941485E-16	1.363002E-16
2.240000E+03	1.893516E-16	1.288185E-16
2.280000E+03	1.833273E-16	1.206827E-16
2.320000E+03	1.762722E-16	1.121079E-16
2.360000E+03	1.683904E-16	1.032981E-16
2.400000E+03	1.598430E-16	9.441459E-17
2.440000E+03	1.507667E-16	8.559112E-17
2.480000E+03	1.412948E-16	7.694693E-17
2.520000E+03	1.315501E-16	6.858351E-17
2.560000E+03	1.216438E-16	6.058423E-17
2.600000E+03	1.116933E-16	5.302427E-17
2.640000E+03	1.018101E-16	4.596365E-17
2.680000E+03	9.209990E-17	3.944796E-17
2.720000E+03	8.266240E-17	3.350875E-17
2.760000E+03	7.359503E-17	2.816553E-17
2.800000E+03	6.497519E-17	2.341978E-17
2.840000E+03	5.687426E-17	1.926216E-17
2.880000E+03	4.935718E-17	1.567334E-17
2.920000E+03	4.247504E-17	1.262311E-17
2.960000E+03	3.626531E-17	1.007255E-17
3.000000E+03	3.074342E-17	7.974043E-18
3.010000E+03	2.946971E-17	7.513774E-18
3.020000E+03	2.823816E-17	7.077520E-18
3.030000E+03	2.704879E-17	6.664510E-18
3.040000E+03	2.590090E-17	6.273801E-18
3.050000E+03	2.479376E-17	5.904465E-18
3.060000E+03	2.372712E-17	5.555713E-18
3.070000E+03	2.269965E-17	5.226518E-18
3.080000E+03	2.171149E-17	4.916214E-18
3.090000E+03	2.076126E-17	4.623810E-18
3.100000E+03	1.984848E-17	4.348543E-18
3.110000E+03	1.897219E-17	4.089570E-18
3.120000E+03	1.813181E-17	3.846146E-18
3.130000E+03	1.732630E-17	3.617463E-18
3.140000E+03	1.655466E-17	3.402741E-18
3.150000E+03	1.581618E-17	3.201290E-18
3.160000E+03	1.510951E-17	3.012318E-18
3.170000E+03	1.443420E-17	2.835236E-18
3.180000E+03	1.378892E-17	2.669309E-18
3.190000E+03	1.317289E-17	2.513935E-18
3.200000E+03	1.258505E-17	2.368490E-18
3.210000E+03	1.202439E-17	2.232375E-18
3.220000E+03	1.149010E-17	2.105061E-18
3.230000E+03	1.098113E-17	1.986000E-18
3.240000E+03	1.049633E-17	1.874644E-18
3.250000E+03	1.003523E-17	1.770597E-18
3.260000E+03	9.596368E-18	1.673302E-18
3.270000E+03	9.179266E-18	1.582404E-18
3.280000E+03	8.782699E-18	1.497433E-18
3.290000E+03	8.405918E-18	1.418024E-18
3.300000E+03	8.048170E-18	1.343829E-18
3.310000E+03	7.708358E-18	1.274460E-18
3.320000E+03	7.385901E-18	1.209631E-18
3.330000E+03	7.079987E-18	1.149036E-18
3.340000E+03	6.789742E-18	1.092370E-18
3.350000E+03	6.514431E-18	1.039369E-18
3.360000E+03	6.253348E-18	9.897842E-19
3.370000E+03	6.005894E-18	9.433969E-19
3.380000E+03	5.771249E-18	8.999648E-19
3.390000E+03	5.548947E-18	8.593114E-19
3.400000E+03	5.338237E-18	8.212261E-19
3.410000E+03	5.138556E-18	7.855364E-19
3.420000E+03	4.949426E-18	7.520911E-19
3.430000E+03	4.770146E-18	7.207126E-19
3.440000E+03	4.600352E-18	6.912820E-19
3.450000E+03	4.439519E-18	6.636621E-19
3.460000E+03	4.287054E-18	6.377117E-19
3.470000E+03	4.142654E-18	6.133382E-19
3.480000E+03	4.005784E-18	5.904198E-19
3.490000E+03	3.876085E-18	5.688651E-19
3.500000E+03	3.753174E-18	5.485828E-19
3.510000E+03	3.636569E-18	5.294715E-19
3.520000E+03	3.525983E-18	5.114614E-19
3.530000E+03	3.421031E-18	4.944718E-19
3.540000E+03	3.321361E-18	4.784287E-19
3.550000E+03	3.226678E-18	4.632699E-19
3.560000E+03	3.136644E-18	4.489286E-19
3.570000E+03	3.050978E-18	4.353486E-19
3.580000E+03	2.969391E-18	4.224739E-19
3.590000E+03	2.891672E-18	4.102618E-19
3.600000E+03	2.817595E-18	3.986686E-19
3.610000E+03	2.746923E-18	3.876502E-19
3.620000E+03	2.679486E-18	3.771734E-19
3.630000E+03	2.615123E-18	3.672071E-19
3.640000E+03	2.553632E-18	3.577155E-19
3.650000E+03	2.494942E-18	3.486818E-19
3.660000E+03	2.438865E-18	3.400736E-19
3.670000E+03	2.385313E-18	3.318732E-19
3.680000E+03	2.334179E-18	3.240605E-19
3.690000E+03	2.285355E-18	3.166162E-19
3.700000E+03	2.238761E-18	3.095249E-19
3.710000E+03	2.194334E-18	3.027740E-19
3.720000E+03	2.151936E-18	2.963413E-19
3.730000E+03	2.111547E-18	2.902206E-19
3.740000E+03	2.073053E-18	2.843935E-19
3.750000E+03	2.036399E-18	2.788497E-19
3.760000E+03	2.001527E-18	2.735789E-19
3.770000E+03	1.968335E-18	2.685646E-19
3.780000E+03	1.936803E-18	2.638020E-19
3.790000E+03	1.906846E-18	2.592778E-19
3.800000E+03	1.878415E-18	2.549832E-19
3.810000E+03	1.851446E-18	2.509081E-19
3.820000E+03	1.825894E-18	2.470443E-19
3.830000E+03	1.801699E-18	2.433824E-19
3.840000E+03	1.778816E-18	2.399151E-19
3.850000E+03	1.757191E-18	2.366334E-19
3.860000E+03	1.736797E-18	2.335326E-19
3.870000E+03	1.717582E-18	2.306044E-19
3.880000E+03	1.699494E-18	2.278408E-19
3.890000E+03	1.682500E-18	2.252359E-19
3.900000E+03	1.666551E-18	2.227825E-19
3.910000E+03	1.651628E-18	2.204769E-19
3.920000E+03	1.637688E-18	2.183123E-19
3.930000E+03	1.624699E-18	2.162838E-19
3.940000E+03	1.612623E-18	2.143851E-19
3.950000E+03	1.601418E-18	2.126100E-19
3.960000E+03	1.591083E-18	2.109576E-19
3.970000E+03	1.581558E-18	2.094190E-19
3.980000E+03	1.572831E-18	2.079919E-19
3.990000E+03	1.564867E-18	2.066711E-19
4.000000E+03	1.557645E-18	2.054529E-19
4.010000E+03	1.551145E-18	2.043341E-19
4.020000E+03	1.545323E-18	2.033082E-19
4.030000E+03	1.540174E-18	2.023740E-19
4.040000E+03	1.535668E-18	2.015267E-19
4.050000E+03	1.531788E-18	2.007638E-19
4.060000E+03	1.528507E-18	2.000811E-19
4.070000E+03	1.525799E-18	1.994744E-19
4.080000E+03	1.523661E-18	1.989430E-19
4.090000E+03	1.522057E-18	1.984816E-19
4.100000E+03	1.520973E-18	1.980880E-19
4.110000E+03	1.520399E-18	1.977602E-19
4.120000E+03	1.520299E-18	1.974932E-19
4.130000E+03	1.520675E-18	1.972868E-19
4.140000E+03	1.521494E-18	1.971362E-19
4.150000E+03	1.522747E-18	1.970397E-19
4.160000E+03	1.524424E-18	1.969959E-19
4.170000E+03	1.526494E-18	1.970002E-19
4.180000E+03	1.528962E-18	1.970529E-19
4.190000E+03	1.531785E-18	1.971480E-19
4.200000E+03	1.534980E-18	1.972874E-19
4.210000E+03	1.538505E-18	1.974654E-19
4.220000E+03	1.542354E-18	1.976810E-19
4.230000E+03	1.546511E-18	1.979316E-19
4.240000E+03	1.550971E-18	1.982162E-19
4.250000E+03	1.555692E-18	1.985296E-19
4.260000E+03	1.560682E-18	1.988722E-19
4.270000E+03	1.565914E-18	1.992404E-19
4.280000E+03	1.571358E-18	1.996304E-19
4.290000E+03	1.577012E-18	2.000413E-19
4.300000E+03	1.582859E-18	2.004712E-19
4.310000E+03	1.588859E-18	2.009147E-19
4.320000E+03	1.594996E-18	2.013696E-19
4.330000E+03	1.601254E-18	2.018340E-19
4.340000E+03	1.607617E-18	2.023056E-19
4.350000E+03	1.614070E-18	2.027824E-19
4.360000E+03	1.620609E-18	2.032641E-19
4.370000E+03	1.627218E-18	2.037487E-19
4.380000E+03	1.633882E-18	2.042341E-19
4.390000E+03	1.640625E-18	2.047234E-19
4.400000E+03	1.647432E-18	2.052148E-19
4.410000E+03	1.654302E-18	2.057081E-19
4.420000E+03	1.661248E-18	2.062051E-19
4.430000E+03	1.668269E-18	2.067056E-19
4.440000E+03	1.675353E-18	2.072083E-19
4.450000E+03	1.682514E-18	2.077149E-19
4.460000E+03	1.689742E-18	2.082242E-19
4.470000E+03	1.697037E-18	2.087366E-19
4.480000E+03	1.704405E-18	2.092526E-19
4.490000E+03	1.711820E-18	2.097692E-19
4.500000E+03	1.719302E-18	2.102890E-19
4.510000E+03	1.726840E-18	2.108110E-19
4.520000E+03	1.734428E-18	2.113343E-19
4.530000E+03	1.742071E-18	2.118599E-19
4.540000E+03	1.749749E-18	2.123853E-19
4.550000E+03	1.757468E-18	2.129116E-19
4.560000E+03	1.765238E-18	2.134401E-19
4.570000E+03	1.773054E-18	2.139702E-19
4.580000E+03	1.780897E-18	2.144998E-19
4.590000E+03	1.788777E-18	2.150304E-19
4.600000E+03	1.796691E-18	2.155615E-19
4.610000E+03	1.804636E-18	2.160929E-19
4.620000E+03	1.812626E-18	2.166264E-19
4.630000E+03	1.820643E-18	2.171598E-19
4.640000E+03	1.828703E-18	2.176948E-19
4.650000E+03	1.836805E-18	2.182314E-19
4.660000E+03	1.844949E-18	2.187696E-19
4.670000E+03	1.853136E-18	2.193091E-19
4.680000E+03	1.861367E-18	2.198501E-19
4.690000E+03	1.869644E-18	2.203924E-19
4.700000E+03	1.878002E-18	2.209399E-19
4.710000E+03	1.886444E-18	2.214928E-19
4.720000E+03	1.894975E-18	2.220511E-19
4.730000E+03	1.903632E-18	2.226188E-19
4.740000E+03	1.912403E-18	2.231943E-19
4.750000E+03	1.921295E-18	2.237777E-19
4.760000E+03	1.930329E-18	2.243714E-19
4.770000E+03	1.939513E-18	2.249756E-19
4.780000E+03	1.948836E-18	2.255888E-19
4.790000E+03	1.958321E-18	2.262135E-19
4.800000E+03	1.967978E-18	2.268502E-19
4.810000E+03	1.977796E-18	2.274975E-19
4.820000E+03	1.987800E-18	2.281582E-19
4.830000E+03	1.997999E-18	2.288331E-19
4.840000E+03	2.008402E-18	2.295231E-19
4.850000E+03	2.019018E-18	2.302292E-19
4.860000E+03	2.029838E-18	2.309503E-19
4.870000E+03	2.040908E-18	2.316920E-19
4.880000E+03	2.052200E-18	2.324510E-19
4.890000E+03	2.063725E-18	2.332287E-19
4.900000E+03	2.075510E-18	2.340287E-19
4.910000E+03	2.087566E-18	2.348522E-19
4.920000E+03	2.099903E-18	2.357007E-19
4.930000E+03	2.112492E-18	2.365712E-19
4.940000E+03	2.125382E-18	2.374696E-19
4.950000E+03	2.138564E-18	2.383950E-19
4.960000E+03	2.152048E-18	2.393489E-19
4.970000E+03	2.165842E-18	2.403324E-19
4.980000E+03	2.179958E-18	2.413471E-19
4.990000E+03	2.194383E-18	2.423917E-19
5.000000E+03	2.209127E-18	2.434675E-19
5.010000E+03	2.224220E-18	2.445779E-19
5.020000E+03	2.239649E-18	2.457217E-19
5.030000E+03	2.255401E-18	2.468976E-19
5.040000E+03	2.271527E-18	2.481111E-19
5.050000E+03	2.287970E-18	2.493563E-19
5.060000E+03	2.304781E-18	2.506388E-19
5.070000E+03	2.321966E-18	2.519596E-19
5.080000E+03	2.339466E-18	2.533125E-19
5.090000E+03	2.357353E-18	2.547057E-19
5.100000E+03	2.375588E-18	2.561354E-19
5.110000E+03	2.394176E-18	2.576030E-19
5.120000E+03	2.413144E-18	2.591121E-19
5.130000E+03	2.432450E-18	2.606593E-19
5.140000E+03	2.452097E-18	2.622462E-19
5.150000E+03	2.472112E-18	2.638769E-19
5.160000E+03	2.492472E-18	2.655509E-19
5.170000E+03	2.513180E-18	2.672704E-19
5.180000E+03	2.534212E-18	2.690351E-19
5.190000E+03	2.555593E-18	2.708500E-19
5.200000E+03	2.577272E-18	2.727125E-19
5.210000E+03	2.599298E-18	2.746309E-19
5.220000E+03	2.621643E-18	2.766054E-19
5.230000E+03	2.644278E-18	2.786366E-19
5.240000E+03	2.667200E-18	2.807277E-19
5.250000E+03	2.690429E-18	2.828847E-19
5.260000E+03	2.713906E-18	2.851057E-19
5.270000E+03	2.737650E-18	2.873969E-19
5.280000E+03	2.761680E-18	2.897645E-19
5.290000E+03	2.785904E-18	2.922037E-19
5.300000E+03	2.810395E-18	2.947262E-19
5.310000E+03	2.835057E-18	2.973268E-19
5.320000E+03	2.859960E-18	3.000174E-19
5.330000E+03	2.885007E-18	3.027921E-19
5.340000E+03	2.910237E-18	3.056597E-19
5.350000E+03	2.935634E-18	3.086228E-19
5.360000E+03	2.961153E-18	3.116807E-19
5.370000E+03	2.986831E-18	3.148416E-19
5.380000E+03	3.012561E-18	3.180977E-19
5.390000E+03	3.038409E-18	3.214600E-19
5.400000E+03	3.064324E-18	3.249264E-19
5.410000E+03	3.090282E-18	3.284974E-19
5.420000E+03	3.116257E-18	3.321733E-19
5.430000E+03	3.142224E-18	3.359540E-19
5.440000E+03	3.168122E-18	3.398355E-19
5.450000E+03	3.193922E-18	3.438167E-19
5.460000E+03	3.219593E-18	3.478961E-19
5.470000E+03	3.245102E-18	3.520718E-19
5.480000E+03	3.270383E-18	3.563378E-19
5.490000E+03	3.295366E-18	3.606876E-19
5.500000E+03	3.320047E-18	3.651215E-19
5.510000E+03	3.344355E-18	3.696321E-19
5.520000E+03	3.368215E-18	3.742116E-19
5.530000E+03	3.391552E-18	3.788515E-19
5.540000E+03	3.414356E-18	3.835506E-19
5.550000E+03	3.436515E-18	3.882958E-19
5.560000E+03	3.458019E-18	3.930853E-19
5.570000E+03	3.478752E-18	3.979052E-19
5.580000E+03	3.498669E-18	4.027491E-19
5.590000E+03	3.517758E-18	4.076146E-19
5.600000E+03	3.535904E-18	4.124866E-19
5.610000E+03	3.553095E-18	4.173625E-19
5.620000E+03	3.569290E-18	4.222352E-19
5.630000E+03	3.584406E-18	4.270934E-19
5.640000E+03	3.598404E-18	4.319297E-19
5.650000E+03	3.611278E-18	4.367413E-19
5.660000E+03	3.622993E-18	4.415212E-19
5.670000E+03	3.633474E-18	4.462574E-19
5.680000E+03	3.642727E-18	4.509473E-19
5.690000E+03	3.650758E-18	4.555885E-19
5.700000E+03	3.657466E-18	4.601643E-19
5.710000E+03	3.662863E-18	4.646721E-19
5.720000E+03	3.666968E-18	4.691098E-19
5.730000E+03	3.669764E-18	4.734702E-19
5.740000E+03	3.671238E-18	4.777463E-19
5.750000E+03	3.671380E-18	4.819310E-19
5.760000E+03	3.670187E-18	4.860171E-19
5.770000E+03	3.667694E-18	4.900029E-19
5.780000E+03	3.663867E-18	4.938760E-19
5.790000E+03	3.658789E-18	4.976399E-19
5.800000E+03	3.652432E-18	5.012827E-19
5.810000E+03	3.644812E-18	5.047973E-19
5.820000E+03	3.636026E-18	5.081879E-19
5.830000E+03	3.626016E-18	5.114371E-19
5.840000E+03	3.614850E-18	5.145440E-19
5.850000E+03	3.602595E-18	5.175081E-19
5.860000E+03	3.589245E-18	5.203178E-19
5.870000E+03	3.574876E-18	5.229734E-19
5.880000E+03	3.559487E-18	5.254638E-19
5.890000E+03	3.543198E-18	5.277961E-19
5.900000E+03	3.526014E-18	5.299600E-19
5.910000E+03	3.507981E-18	5.319519E-19
5.920000E+03	3.489186E-18	5.337745E-19
5.930000E+03	3.469639E-18	5.354192E-19
5.940000E+03	3.449429E-18	5.368900E-19
5.950000E+03	3.428568E-18	5.381793E-19
5.960000E+03	3.407147E-18	5.392926E-19
5.970000E+03	3.385219E-18	5.402296E-19
5.980000E+03	3.362834E-18	5.409909E-19
5.990000E+03	3.340007E-18	5.415714E-19
6.000000E+03	3.316827E-18	5.419788E-19
6.010000E+03	3.293345E-18	5.422155E-19
6.020000E+03	3.269572E-18	5.422781E-19
6.030000E+03	3.245595E-18	5.421760E-19
6.040000E+03	3.221424E-18	5.419068E-19
6.050000E+03	3.197066E-18	5.414682E-19
6.060000E+03	3.172642E-18	5.408777E-19
6.070000E+03	3.148120E-18	5.401274E-19
6.080000E+03	3.123580E-18	5.392291E-19
6.090000E+03	3.098985E-18	5.381754E-19
6.100000E+03	3.074412E-18	5.369785E-19
6.110000E+03	3.049859E-18	5.356380E-19
6.120000E+03	3.025362E-18	5.341600E-19
6.130000E+03	3.000954E-18	5.325508E-19
6.140000E+03	2.976628E-18	5.308102E-19
6.150000E+03	2.952413E-18	5.289448E-19
6.160000E+03	2.928339E-18	5.269608E-19
6.170000E+03	2.904429E-18	5.248649E-19
6.180000E+03	2.880708E-18	5.226634E-19
6.190000E+03	2.857161E-18	5.203561E-19
6.200000E+03	2.833844E-18	5.179559E-19
6.210000E+03	2.810777E-18	5.154690E-19
6.220000E+03	2.787976E-18	5.129015E-19
6.230000E+03	2.765492E-18	5.102660E-19
6.240000E+03	2.743373E-18	5.075750E-19
6.250000E+03	2.721669E-18	5.048407E-19
6.260000E+03	2.700424E-18	5.020753E-19
6.270000E+03	2.679683E-18	4.992907E-19
6.280000E+03	2.659525E-18	4.965055E-19
6.290000E+03	2.639920E-18	4.937177E-19
6.300000E+03	2.621016E-18	4.909591E-19
6.310000E+03	2.602781E-18	4.882272E-19
6.320000E+03	2.585289E-18	4.855398E-19
6.330000E+03	2.568579E-18	4.829079E-19
6.340000E+03	2.552688E-18	4.803419E-19
6.350000E+03	2.537618E-18	4.778458E-19
6.360000E+03	2.523406E-18	4.754298E-19
6.370000E+03	2.510087E-18	4.731040E-19
6.380000E+03	2.497664E-18	4.708717E-19
6.390000E+03	2.486137E-18	4.687360E-19
6.400000E+03	2.475542E-18	4.667067E-19
6.410000E+03	2.465808E-18	4.647729E-19
6.420000E+03	2.456936E-18	4.629373E-19
6.430000E+03	2.448890E-18	4.611956E-19
6.440000E+03	2.441598E-18	4.595365E-19
6.450000E+03	2.435096E-18	4.579688E-19
6.460000E+03	2.429312E-18	4.564810E-19
6.470000E+03	2.424281E-18	4.550819E-19
6.480000E+03	2.420005E-18	4.537733E-19
6.490000E+03	2.416446E-18	4.525500E-19
6.500000E+03	2.413604E-18	4.514135E-19
6.510000E+03	2.411480E-18	4.503654E-19
6.520000E+03	2.410072E-18	4.494072E-19
6.530000E+03	2.409383E-18	4.485401E-19
6.540000E+03	2.409449E-18	4.477725E-19
6.550000E+03	2.410234E-18	4.470986E-19
6.560000E+03	2.411701E-18	4.465124E-19
6.570000E+03	2.413926E-18	4.460292E-19
6.580000E+03	2.416834E-18	4.456359E-19
6.590000E+03	2.420464E-18	4.453405E-19
6.600000E+03	2.424818E-18	4.451439E-19
6.610000E+03	2.429898E-18	4.450471E-19
6.620000E+03	2.435705E-18	4.450510E-19
6.630000E+03	2.442201E-18	4.451490E-19
6.640000E+03	2.449429E-18	4.453492E-19
6.650000E+03	2.457350E-18	4.456451E-19
6.660000E+03	2.466007E-18	4.460447E-19
6.670000E+03	2.475361E-18	4.465413E-19
6.680000E+03	2.485415E-18	4.471354E-19
6.690000E+03	2.496214E-18	4.478353E-19
6.700000E+03	2.507761E-18	4.486417E-19
6.710000E+03	2.519974E-18	4.495399E-19
6.720000E+03	2.532943E-18	4.505458E-19
6.730000E+03	2.546583E-18	4.516444E-19
6.740000E+03	2.560985E-18	4.528520E-19
6.750000E+03	2.576111E-18	4.541612E-19
6.760000E+03	2.591917E-18	4.555645E-19
6.770000E+03	2.608499E-18	4.570785E-19
6.780000E+03	2.625770E-18	4.586876E-19
6.790000E+03	2.643779E-18	4.604002E-19
6.800000E+03	2.662530E-18	4.622170E-19
6.810000E+03	2.682030E-18	4.641384E-19
6.820000E+03	2.702233E-18	4.661565E-19
6.830000E+03	2.723192E-18	4.682801E-19
6.840000E+03	2.744863E-18	4.705012E-19
6.850000E+03	2.767299E-18	4.728286E-19
6.860000E+03	2.790456E-18	4.752542E-19
6.870000E+03	2.814335E-18	4.777783E-19
6.880000E+03	2.838994E-18	4.804100E-19
6.890000E+03	2.864332E-18	4.831318E-19
6.900000E+03	2.890458E-18	4.859619E-19
6.910000E+03	2.917323E-18	4.888917E-19
6.920000E+03	2.944932E-18	4.919215E-19
6.930000E+03	2.973287E-18	4.950514E-19
6.940000E+03	3.002393E-18	4.982817E-19
6.950000E+03	3.032195E-18	5.016032E-19
6.960000E+03	3.062754E-18	5.050254E-19
6.970000E+03	3.094073E-18	5.085486E-19
6.980000E+03	3.126155E-18	5.121730E-19
6.990000E+03	3.158882E-18	5.158790E-19
7.000000E+03	3.192439E-18	5.196963E-19
7.010000E+03	3.226642E-18	5.235949E-19
7.020000E+03	3.261617E-18	5.275951E-19
7.030000E+03	3.297303E-18	5.316867E-19
7.040000E+03	3.333700E-18	5.358695E-19
7.050000E+03	3.370809E-18	5.401434E-19
7.060000E+03	3.408629E-18	5.445083E-19
7.070000E+03	3.447091E-18	5.489530E-19
7.080000E+03	3.486262E-18	5.534883E-19
7.090000E+03	3.526141E-18	5.581138E-19
7.100000E+03	3.566655E-18	5.628180E-19
7.110000E+03	3.607873E-18	5.676120E-19
7.120000E+03	3.649721E-18	5.724837E-19
7.130000E+03	3.692191E-18	5.774327E-19
7.140000E+03	3.735281E-18	5.824582E-19
7.150000E+03	3.779060E-18	5.875717E-19
7.160000E+03	3.823370E-18	5.927485E-19
7.170000E+03	3.868199E-18	5.979873E-19
7.180000E+03	3.913701E-18	6.033120E-19
7.190000E+03	3.959706E-18	6.086970E-19
7.200000E+03	4.006203E-18	6.141408E-19
7.210000E+03	4.053264E-18	6.196553E-19
7.220000E+03	4.100794E-18	6.252264E-19
7.230000E+03	4.148780E-18	6.308524E-19
7.240000E+03	4.197208E-18	6.365321E-19
7.250000E+03	4.246062E-18	6.422639E-19
7.260000E+03	4.295421E-18	6.480600E-19
7.270000E+03	4.345084E-18	6.538912E-19
7.280000E+03	4.395222E-18	6.597838E-19
7.290000E+03	4.445724E-18	6.657220E-19
7.300000E+03	4.496573E-18	6.717040E-19
7.310000E+03	4.547849E-18	6.777428E-19
7.320000E+03	4.599438E-18	6.838217E-19
7.330000E+03	4.651420E-18	6.899540E-19
7.340000E+03	4.703782E-18	6.961381E-19
7.350000E+03	4.756612E-18	7.023879E-19
7.360000E+03	4.809898E-18	7.087024E-19
7.370000E+03	4.863739E-18	7.150964E-19
7.380000E+03	4.918013E-18	7.215529E-19
7.390000E+03	4.973050E-18	7.281203E-19
7.400000E+03	5.028849E-18	7.347990E-19
7.410000E+03	5.085296E-18	7.415723E-19
7.420000E+03	5.142744E-18	7.484919E-19
7.430000E+03	5.201085E-18	7.555417E-19
7.440000E+03	5.260448E-18	7.627405E-19
7.450000E+03	5.320721E-18	7.700716E-19
7.460000E+03	5.382037E-18	7.775539E-19
7.470000E+03	5.444023E-18	7.851330E-19
7.480000E+03	5.506934E-18	7.928455E-19
7.490000E+03	5.570379E-18	8.006345E-19
7.500000E+03	5.634480E-18	8.085173E-19
7.510000E+03	5.699093E-18	8.164726E-19
7.520000E+03	5.764068E-18	8.244782E-19
7.530000E+03	5.829524E-18	8.325508E-19
7.540000E+03	5.895019E-18	8.406265E-19
7.550000E+03	5.960807E-18	8.487412E-19
7.560000E+03	6.026721E-18	8.568702E-19
7.570000E+03	6.092730E-18	8.650085E-19
7.580000E+03	6.158652E-18	8.731296E-19
7.590000E+03	6.224604E-18	8.812494E-19
7.600000E+03	6.290396E-18	8.893405E-19
7.610000E+03	6.355990E-18	8.973967E-19
7.620000E+03	6.421505E-18	9.054342E-19
7.630000E+03	6.486744E-18	9.134247E-19
7.640000E+03	6.551828E-18	9.213848E-19
7.650000E+03	6.616387E-18	9.292618E-19
7.660000E+03	6.680709E-18	9.370958E-19
7.670000E+03	6.744583E-18	9.448569E-19
7.680000E+03	6.808138E-18	9.525629E-19
7.690000E+03	6.871157E-18	9.601832E-19
7.700000E+03	6.933594E-18	9.677112E-19
7.710000E+03	6.995401E-18	9.751401E-19
7.720000E+03	7.056896E-18	9.825143E-19
7.730000E+03	7.117486E-18	9.897515E-19
7.740000E+03	7.177681E-18	9.969224E-19
7.750000E+03	7.237063E-18	1.003969E-18
7.760000E+03	7.295777E-18	1.010913E-18
