#wls	flux	fluxerr
1.600000E+03	1.519537E-16	1.479501E-16
1.640000E+03	1.572146E-16	1.505261E-16
1.680000E+03	1.624480E-16	1.528472E-16
1.720000E+03	1.676424E-16	1.548980E-16
1.760000E+03	1.727330E-16	1.566166E-16
1.800000E+03	1.776965E-16	1.579820E-16
1.840000E+03	1.824723E-16	1.589433E-16
1.880000E+03	1.870250E-16	1.594759E-16
1.920000E+03	1.912980E-16	1.595405E-16
1.960000E+03	1.952295E-16	1.590990E-16
2.000000E+03	1.987249E-16	1.580929E-16
2.040000E+03	2.017179E-16	1.564936E-16
2.080000E+03	2.041270E-16	1.542683E-16
2.120000E+03	2.058347E-16	1.513653E-16
2.160000E+03	2.067339E-16	1.477517E-16
2.200000E+03	2.066962E-16	1.433904E-16
2.240000E+03	2.056056E-16	1.382657E-16
2.280000E+03	2.034201E-16	1.324216E-16
2.320000E+03	2.001413E-16	1.259353E-16
2.360000E+03	1.958865E-16	1.189562E-16
2.400000E+03	1.907587E-16	1.116161E-16
2.440000E+03	1.848491E-16	1.040328E-16
2.480000E+03	1.782635E-16	9.632402E-17
2.520000E+03	1.710807E-16	8.858483E-17
2.560000E+03	1.633689E-16	8.089787E-17
2.600000E+03	1.552211E-16	7.335113E-17
2.640000E+03	1.467038E-16	6.601175E-17
2.680000E+03	1.379042E-16	5.894871E-17
2.720000E+03	1.288980E-16	5.221726E-17
2.760000E+03	1.197831E-16	4.587302E-17
2.800000E+03	1.106473E-16	3.995742E-17
2.840000E+03	1.015907E-16	3.450645E-17
2.880000E+03	9.271498E-17	2.954602E-17
2.920000E+03	8.412028E-17	2.509094E-17
2.960000E+03	7.590114E-17	2.114431E-17
3.000000E+03	6.814049E-17	1.769701E-17
3.010000E+03	6.627953E-17	1.691084E-17
3.020000E+03	6.445296E-17	1.615436E-17
3.030000E+03	6.265980E-17	1.542667E-17
3.040000E+03	6.090325E-17	1.472786E-17
3.050000E+03	5.918222E-17	1.405699E-17
3.060000E+03	5.749704E-17	1.341343E-17
3.070000E+03	5.584803E-17	1.279655E-17
3.080000E+03	5.423768E-17	1.220623E-17
3.090000E+03	5.266381E-17	1.164124E-17
3.100000E+03	5.112871E-17	1.110136E-17
3.110000E+03	4.963131E-17	1.058564E-17
3.120000E+03	4.817259E-17	1.009355E-17
3.130000E+03	4.675245E-17	9.624356E-18
3.140000E+03	4.537076E-17	9.177291E-18
3.150000E+03	4.402735E-17	8.751609E-18
3.160000E+03	4.272285E-17	8.346718E-18
3.170000E+03	4.145618E-17	7.961704E-18
3.180000E+03	4.022782E-17	7.595968E-18
3.190000E+03	3.903741E-17	7.248760E-18
3.200000E+03	3.788454E-17	6.919340E-18
3.210000E+03	3.676943E-17	6.607097E-18
3.220000E+03	3.569029E-17	6.311081E-18
3.230000E+03	3.464849E-17	6.030920E-18
3.240000E+03	3.364167E-17	5.765607E-18
3.250000E+03	3.267095E-17	5.514765E-18
3.260000E+03	3.173460E-17	5.277542E-18
3.270000E+03	3.083251E-17	5.053390E-18
3.280000E+03	2.996400E-17	4.841680E-18
3.290000E+03	2.912791E-17	4.641734E-18
3.300000E+03	2.832445E-17	4.453113E-18
3.310000E+03	2.755200E-17	4.275110E-18
3.320000E+03	2.680988E-17	4.107189E-18
3.330000E+03	2.609816E-17	3.948949E-18
3.340000E+03	2.541529E-17	3.799766E-18
3.350000E+03	2.476057E-17	3.659163E-18
3.360000E+03	2.413327E-17	3.526682E-18
3.370000E+03	2.353301E-17	3.401935E-18
3.380000E+03	2.295841E-17	3.284405E-18
3.390000E+03	2.240877E-17	3.173699E-18
3.400000E+03	2.188371E-17	3.069483E-18
3.410000E+03	2.138225E-17	2.971353E-18
3.420000E+03	2.090371E-17	2.878970E-18
3.430000E+03	2.044691E-17	2.791939E-18
3.440000E+03	2.001150E-17	2.709996E-18
3.450000E+03	1.959686E-17	2.632854E-18
3.460000E+03	1.920192E-17	2.560179E-18
3.470000E+03	1.882613E-17	2.491722E-18
3.480000E+03	1.846874E-17	2.427218E-18
3.490000E+03	1.812945E-17	2.366478E-18
3.500000E+03	1.780714E-17	2.309210E-18
3.510000E+03	1.750157E-17	2.255254E-18
3.520000E+03	1.721189E-17	2.204380E-18
3.530000E+03	1.693752E-17	2.156400E-18
3.540000E+03	1.667790E-17	2.111139E-18
3.550000E+03	1.643231E-17	2.068414E-18
3.560000E+03	1.620045E-17	2.028096E-18
3.570000E+03	1.598149E-17	1.990004E-18
3.580000E+03	1.577501E-17	1.954011E-18
3.590000E+03	1.558075E-17	1.920018E-18
3.600000E+03	1.539817E-17	1.887896E-18
3.610000E+03	1.522689E-17	1.857541E-18
3.620000E+03	1.506640E-17	1.828841E-18
3.630000E+03	1.491624E-17	1.801690E-18
3.640000E+03	1.477610E-17	1.776008E-18
3.650000E+03	1.464541E-17	1.751686E-18
3.660000E+03	1.452404E-17	1.728673E-18
3.670000E+03	1.441147E-17	1.706872E-18
3.680000E+03	1.430746E-17	1.686225E-18
3.690000E+03	1.421192E-17	1.666692E-18
3.700000E+03	1.412437E-17	1.648190E-18
3.710000E+03	1.404460E-17	1.630670E-18
3.720000E+03	1.397267E-17	1.614116E-18
3.730000E+03	1.390824E-17	1.598467E-18
3.740000E+03	1.385112E-17	1.583681E-18
3.750000E+03	1.380136E-17	1.569745E-18
3.760000E+03	1.375864E-17	1.556604E-18
3.770000E+03	1.372288E-17	1.544234E-18
3.780000E+03	1.369415E-17	1.532623E-18
3.790000E+03	1.367223E-17	1.521735E-18
3.800000E+03	1.365706E-17	1.511545E-18
3.810000E+03	1.364855E-17	1.502032E-18
3.820000E+03	1.364664E-17	1.493174E-18
3.830000E+03	1.365135E-17	1.484961E-18
3.840000E+03	1.366250E-17	1.477361E-18
3.850000E+03	1.368012E-17	1.470363E-18
3.860000E+03	1.370425E-17	1.463961E-18
3.870000E+03	1.373469E-17	1.458119E-18
3.880000E+03	1.377137E-17	1.452818E-18
3.890000E+03	1.381442E-17	1.448058E-18
3.900000E+03	1.386378E-17	1.443819E-18
3.910000E+03	1.391923E-17	1.440064E-18
3.920000E+03	1.398091E-17	1.436794E-18
3.930000E+03	1.404884E-17	1.433996E-18
3.940000E+03	1.412271E-17	1.431622E-18
3.950000E+03	1.420262E-17	1.429667E-18
3.960000E+03	1.428859E-17	1.428118E-18
3.970000E+03	1.438051E-17	1.426945E-18
3.980000E+03	1.447813E-17	1.426108E-18
3.990000E+03	1.458168E-17	1.425612E-18
4.000000E+03	1.469091E-17	1.425416E-18
4.010000E+03	1.480568E-17	1.425488E-18
4.020000E+03	1.492609E-17	1.425822E-18
4.030000E+03	1.505185E-17	1.426373E-18
4.040000E+03	1.518306E-17	1.427135E-18
4.050000E+03	1.531930E-17	1.428053E-18
4.060000E+03	1.546078E-17	1.429131E-18
4.070000E+03	1.560720E-17	1.430327E-18
4.080000E+03	1.575838E-17	1.431611E-18
4.090000E+03	1.591439E-17	1.432977E-18
4.100000E+03	1.607479E-17	1.434372E-18
4.110000E+03	1.623977E-17	1.435803E-18
4.120000E+03	1.640887E-17	1.437219E-18
4.130000E+03	1.658202E-17	1.438605E-18
4.140000E+03	1.675915E-17	1.439947E-18
4.150000E+03	1.693992E-17	1.441208E-18
4.160000E+03	1.712423E-17	1.442378E-18
4.170000E+03	1.731187E-17	1.443436E-18
4.180000E+03	1.750246E-17	1.444352E-18
4.190000E+03	1.769604E-17	1.445137E-18
4.200000E+03	1.789209E-17	1.445757E-18
4.210000E+03	1.809064E-17	1.446232E-18
4.220000E+03	1.829112E-17	1.446541E-18
4.230000E+03	1.849340E-17	1.446706E-18
4.240000E+03	1.869720E-17	1.446745E-18
4.250000E+03	1.890191E-17	1.446664E-18
4.260000E+03	1.910751E-17	1.446522E-18
4.270000E+03	1.931353E-17	1.446358E-18
4.280000E+03	1.951946E-17	1.446219E-18
4.290000E+03	1.972479E-17	1.446163E-18
4.300000E+03	1.992931E-17	1.446282E-18
4.310000E+03	2.013263E-17	1.446663E-18
4.320000E+03	2.033389E-17	1.447365E-18
4.330000E+03	2.053300E-17	1.448511E-18
4.340000E+03	2.072907E-17	1.450162E-18
4.350000E+03	2.092203E-17	1.452435E-18
4.360000E+03	2.111115E-17	1.455391E-18
4.370000E+03	2.129624E-17	1.459111E-18
4.380000E+03	2.147715E-17	1.463659E-18
4.390000E+03	2.165377E-17	1.469073E-18
4.400000E+03	2.182609E-17	1.475368E-18
4.410000E+03	2.199430E-17	1.482542E-18
4.420000E+03	2.215871E-17	1.490568E-18
4.430000E+03	2.231947E-17	1.499386E-18
4.440000E+03	2.247696E-17	1.508927E-18
4.450000E+03	2.263122E-17	1.519082E-18
4.460000E+03	2.278288E-17	1.529774E-18
4.470000E+03	2.293203E-17	1.540877E-18
4.480000E+03	2.307893E-17	1.552280E-18
4.490000E+03	2.322387E-17	1.563873E-18
4.500000E+03	2.336713E-17	1.575549E-18
4.510000E+03	2.350902E-17	1.587211E-18
4.520000E+03	2.364981E-17	1.598771E-18
4.530000E+03	2.378939E-17	1.610123E-18
4.540000E+03	2.392845E-17	1.621227E-18
4.550000E+03	2.406687E-17	1.632002E-18
4.560000E+03	2.420491E-17	1.642405E-18
4.570000E+03	2.434263E-17	1.652392E-18
4.580000E+03	2.448053E-17	1.661956E-18
4.590000E+03	2.461865E-17	1.671077E-18
4.600000E+03	2.475680E-17	1.679724E-18
4.610000E+03	2.489569E-17	1.687939E-18
4.620000E+03	2.503513E-17	1.695707E-18
4.630000E+03	2.517512E-17	1.703039E-18
4.640000E+03	2.531613E-17	1.709977E-18
4.650000E+03	2.545842E-17	1.716556E-18
4.660000E+03	2.560152E-17	1.722767E-18
4.670000E+03	2.574614E-17	1.728679E-18
4.680000E+03	2.589229E-17	1.734319E-18
4.690000E+03	2.603999E-17	1.739712E-18
4.700000E+03	2.618949E-17	1.744902E-18
4.710000E+03	2.634081E-17	1.749916E-18
4.720000E+03	2.649423E-17	1.754796E-18
4.730000E+03	2.664929E-17	1.759536E-18
4.740000E+03	2.680627E-17	1.764177E-18
4.750000E+03	2.696548E-17	1.768758E-18
4.760000E+03	2.712620E-17	1.773253E-18
4.770000E+03	2.728899E-17	1.777718E-18
4.780000E+03	2.745364E-17	1.782156E-18
4.790000E+03	2.761993E-17	1.786571E-18
4.800000E+03	2.778841E-17	1.791020E-18
4.810000E+03	2.795832E-17	1.795471E-18
4.820000E+03	2.813047E-17	1.800000E-18
4.830000E+03	2.830408E-17	1.804578E-18
4.840000E+03	2.847967E-17	1.809265E-18
4.850000E+03	2.865670E-17	1.814052E-18
4.860000E+03	2.883569E-17	1.819001E-18
4.870000E+03	2.901607E-17	1.824106E-18
4.880000E+03	2.919807E-17	1.829412E-18
4.890000E+03	2.938166E-17	1.834946E-18
4.900000E+03	2.956652E-17	1.840719E-18
4.910000E+03	2.975260E-17	1.846754E-18
4.920000E+03	2.993982E-17	1.853072E-18
4.930000E+03	3.012842E-17	1.859711E-18
4.940000E+03	3.031776E-17	1.866645E-18
4.950000E+03	3.050833E-17	1.873918E-18
4.960000E+03	3.069947E-17	1.881494E-18
4.970000E+03	3.089137E-17	1.889383E-18
4.980000E+03	3.108361E-17	1.897549E-18
4.990000E+03	3.127608E-17	1.905969E-18
5.000000E+03	3.146860E-17	1.914607E-18
5.010000E+03	3.166133E-17	1.923438E-18
5.020000E+03	3.185346E-17	1.932373E-18
5.030000E+03	3.204506E-17	1.941372E-18
5.040000E+03	3.223557E-17	1.950349E-18
5.050000E+03	3.242505E-17	1.959254E-18
5.060000E+03	3.261286E-17	1.967993E-18
5.070000E+03	3.279835E-17	1.976471E-18
5.080000E+03	3.298148E-17	1.984631E-18
5.090000E+03	3.316186E-17	1.992399E-18
5.100000E+03	3.333875E-17	1.999682E-18
5.110000E+03	3.351138E-17	2.006393E-18
5.120000E+03	3.367994E-17	2.012510E-18
5.130000E+03	3.384329E-17	2.017939E-18
5.140000E+03	3.400091E-17	2.022631E-18
5.150000E+03	3.415228E-17	2.026551E-18
5.160000E+03	3.429688E-17	2.029670E-18
5.170000E+03	3.443381E-17	2.031950E-18
5.180000E+03	3.456286E-17	2.033404E-18
5.190000E+03	3.468279E-17	2.033996E-18
5.200000E+03	3.479337E-17	2.033754E-18
5.210000E+03	3.489333E-17	2.032659E-18
5.220000E+03	3.498279E-17	2.030773E-18
5.230000E+03	3.506045E-17	2.028085E-18
5.240000E+03	3.512607E-17	2.024645E-18
5.250000E+03	3.517835E-17	2.020443E-18
5.260000E+03	3.521706E-17	2.015530E-18
5.270000E+03	3.524159E-17	2.009933E-18
5.280000E+03	3.525065E-17	2.003638E-18
5.290000E+03	3.524370E-17	1.996668E-18
5.300000E+03	3.522053E-17	1.989063E-18
5.310000E+03	3.518030E-17	1.980826E-18
5.320000E+03	3.512221E-17	1.971955E-18
5.330000E+03	3.504586E-17	1.962475E-18
5.340000E+03	3.495094E-17	1.952413E-18
5.350000E+03	3.483722E-17	1.941800E-18
5.360000E+03	3.470423E-17	1.930658E-18
5.370000E+03	3.455231E-17	1.919055E-18
5.380000E+03	3.438124E-17	1.907026E-18
5.390000E+03	3.419160E-17	1.894659E-18
5.400000E+03	3.398349E-17	1.882007E-18
5.410000E+03	3.375813E-17	1.869189E-18
5.420000E+03	3.351660E-17	1.856308E-18
5.430000E+03	3.325943E-17	1.843436E-18
5.440000E+03	3.298868E-17	1.830716E-18
5.450000E+03	3.270552E-17	1.818233E-18
5.460000E+03	3.241002E-17	1.805995E-18
5.470000E+03	3.210466E-17	1.794129E-18
5.480000E+03	3.179046E-17	1.782659E-18
5.490000E+03	3.146858E-17	1.771595E-18
5.500000E+03	3.114067E-17	1.760953E-18
5.510000E+03	3.080817E-17	1.750715E-18
5.520000E+03	3.047261E-17	1.740854E-18
5.530000E+03	3.013620E-17	1.731369E-18
5.540000E+03	2.980055E-17	1.722219E-18
5.550000E+03	2.946811E-17	1.713413E-18
5.560000E+03	2.914100E-17	1.704947E-18
5.570000E+03	2.882090E-17	1.696800E-18
5.580000E+03	2.851001E-17	1.688992E-18
5.590000E+03	2.821006E-17	1.681533E-18
5.600000E+03	2.792263E-17	1.674437E-18
5.610000E+03	2.764943E-17	1.667740E-18
5.620000E+03	2.739169E-17	1.661466E-18
5.630000E+03	2.715046E-17	1.655643E-18
5.640000E+03	2.692686E-17	1.650316E-18
5.650000E+03	2.672155E-17	1.645515E-18
5.660000E+03	2.653528E-17	1.641285E-18
5.670000E+03	2.636834E-17	1.637655E-18
5.680000E+03	2.622084E-17	1.634650E-18
5.690000E+03	2.609302E-17	1.632310E-18
5.700000E+03	2.598470E-17	1.630655E-18
5.710000E+03	2.589559E-17	1.629701E-18
5.720000E+03	2.582558E-17	1.629481E-18
5.730000E+03	2.577419E-17	1.630004E-18
5.740000E+03	2.574120E-17	1.631293E-18
5.750000E+03	2.572579E-17	1.633337E-18
5.760000E+03	2.572796E-17	1.636170E-18
5.770000E+03	2.574692E-17	1.639770E-18
5.780000E+03	2.578214E-17	1.644130E-18
5.790000E+03	2.583373E-17	1.649274E-18
5.800000E+03	2.590071E-17	1.655150E-18
5.810000E+03	2.598325E-17	1.661773E-18
5.820000E+03	2.608105E-17	1.669117E-18
5.830000E+03	2.619382E-17	1.677152E-18
5.840000E+03	2.632105E-17	1.685823E-18
5.850000E+03	2.646311E-17	1.695128E-18
5.860000E+03	2.661954E-17	1.705003E-18
5.870000E+03	2.679049E-17	1.715416E-18
5.880000E+03	2.697582E-17	1.726315E-18
5.890000E+03	2.717513E-17	1.737624E-18
5.900000E+03	2.738858E-17	1.749302E-18
5.910000E+03	2.761637E-17	1.761308E-18
5.920000E+03	2.785776E-17	1.773541E-18
5.930000E+03	2.811292E-17	1.785960E-18
5.940000E+03	2.838169E-17	1.798505E-18
5.950000E+03	2.866423E-17	1.811142E-18
5.960000E+03	2.895971E-17	1.823781E-18
5.970000E+03	2.926856E-17	1.836419E-18
5.980000E+03	2.958989E-17	1.848981E-18
5.990000E+03	2.992377E-17	1.861461E-18
6.000000E+03	3.026992E-17	1.873846E-18
6.010000E+03	3.062768E-17	1.886113E-18
6.020000E+03	3.099705E-17	1.898296E-18
6.030000E+03	3.137693E-17	1.910377E-18
6.040000E+03	3.176765E-17	1.922442E-18
6.050000E+03	3.216765E-17	1.934482E-18
6.060000E+03	3.257719E-17	1.946615E-18
6.070000E+03	3.299497E-17	1.958887E-18
6.080000E+03	3.342080E-17	1.971427E-18
6.090000E+03	3.385328E-17	1.984309E-18
6.100000E+03	3.429171E-17	1.997669E-18
6.110000E+03	3.473495E-17	2.011628E-18
6.120000E+03	3.518220E-17	2.026344E-18
6.130000E+03	3.563178E-17	2.041927E-18
6.140000E+03	3.608233E-17	2.058513E-18
6.150000E+03	3.653289E-17	2.076256E-18
6.160000E+03	3.698204E-17	2.095273E-18
6.170000E+03	3.742743E-17	2.115610E-18
6.180000E+03	3.786804E-17	2.137360E-18
6.190000E+03	3.830242E-17	2.160554E-18
6.200000E+03	3.872968E-17	2.185212E-18
6.210000E+03	3.914950E-17	2.211337E-18
6.220000E+03	3.956169E-17	2.238894E-18
6.230000E+03	3.996667E-17	2.267841E-18
6.240000E+03	4.036601E-17	2.298166E-18
6.250000E+03	4.075990E-17	2.329750E-18
6.260000E+03	4.114804E-17	2.362426E-18
6.270000E+03	4.153234E-17	2.396137E-18
6.280000E+03	4.191318E-17	2.430734E-18
6.290000E+03	4.228988E-17	2.466001E-18
6.300000E+03	4.266457E-17	2.501886E-18
6.310000E+03	4.303605E-17	2.538149E-18
6.320000E+03	4.340597E-17	2.574725E-18
6.330000E+03	4.377372E-17	2.611426E-18
6.340000E+03	4.413984E-17	2.648143E-18
6.350000E+03	4.450431E-17	2.684747E-18
6.360000E+03	4.486710E-17	2.721120E-18
6.370000E+03	4.522816E-17	2.757159E-18
6.380000E+03	4.558681E-17	2.792734E-18
6.390000E+03	4.594235E-17	2.827727E-18
6.400000E+03	4.629532E-17	2.862109E-18
6.410000E+03	4.664432E-17	2.895744E-18
6.420000E+03	4.698991E-17	2.928626E-18
6.430000E+03	4.733130E-17	2.960680E-18
6.440000E+03	4.766839E-17	2.991878E-18
6.450000E+03	4.800176E-17	3.022248E-18
6.460000E+03	4.833278E-17	3.051872E-18
6.470000E+03	4.866145E-17	3.080755E-18
6.480000E+03	4.898851E-17	3.108950E-18
6.490000E+03	4.931475E-17	3.136521E-18
6.500000E+03	4.963948E-17	3.163440E-18
6.510000E+03	4.996431E-17	3.189825E-18
6.520000E+03	5.028935E-17	3.215701E-18
6.530000E+03	5.061395E-17	3.241045E-18
6.540000E+03	5.093980E-17	3.265984E-18
6.550000E+03	5.126624E-17	3.290494E-18
6.560000E+03	5.159259E-17	3.314548E-18
6.570000E+03	5.192060E-17	3.338274E-18
6.580000E+03	5.224956E-17	3.361644E-18
6.590000E+03	5.257958E-17	3.384680E-18
6.600000E+03	5.291163E-17	3.407456E-18
6.610000E+03	5.324407E-17	3.429882E-18
6.620000E+03	5.357694E-17	3.451971E-18
6.630000E+03	5.391204E-17	3.473852E-18
6.640000E+03	5.424764E-17	3.495424E-18
6.650000E+03	5.458369E-17	3.516696E-18
6.660000E+03	5.492109E-17	3.537735E-18
6.670000E+03	5.525886E-17	3.558489E-18
6.680000E+03	5.559690E-17	3.578963E-18
6.690000E+03	5.593606E-17	3.599220E-18
6.700000E+03	5.627429E-17	3.619139E-18
6.710000E+03	5.661139E-17	3.638716E-18
6.720000E+03	5.694912E-17	3.658072E-18
6.730000E+03	5.728531E-17	3.677075E-18
6.740000E+03	5.761969E-17	3.695712E-18
6.750000E+03	5.795301E-17	3.714033E-18
6.760000E+03	5.828398E-17	3.731955E-18
6.770000E+03	5.861227E-17	3.749455E-18
6.780000E+03	5.893756E-17	3.766504E-18
6.790000E+03	5.925952E-17	3.783070E-18
6.800000E+03	5.957673E-17	3.799048E-18
6.810000E+03	5.988989E-17	3.814463E-18
6.820000E+03	6.019864E-17	3.829272E-18
6.830000E+03	6.050152E-17	3.843358E-18
6.840000E+03	6.079926E-17	3.856740E-18
6.850000E+03	6.109039E-17	3.869299E-18
6.860000E+03	6.137453E-17	3.880984E-18
6.870000E+03	6.165132E-17	3.891748E-18
6.880000E+03	6.191924E-17	3.901474E-18
6.890000E+03	6.218027E-17	3.910267E-18
6.900000E+03	6.243294E-17	3.918021E-18
6.910000E+03	6.267576E-17	3.924635E-18
6.920000E+03	6.290960E-17	3.930162E-18
6.930000E+03	6.313301E-17	3.934512E-18
6.940000E+03	6.334571E-17	3.937677E-18
6.950000E+03	6.354867E-17	3.939732E-18
6.960000E+03	6.374048E-17	3.940607E-18
6.970000E+03	6.392093E-17	3.940310E-18
6.980000E+03	6.408987E-17	3.938856E-18
6.990000E+03	6.424717E-17	3.936264E-18
7.000000E+03	6.439148E-17	3.932478E-18
7.010000E+03	6.452526E-17	3.927677E-18
7.020000E+03	6.464598E-17	3.921733E-18
7.030000E+03	6.475367E-17	3.914671E-18
7.040000E+03	6.484967E-17	3.906597E-18
7.050000E+03	6.493286E-17	3.897458E-18
7.060000E+03	6.500340E-17	3.887280E-18
7.070000E+03	6.506155E-17	3.876083E-18
7.080000E+03	6.510760E-17	3.863887E-18
7.090000E+03	6.514324E-17	3.850784E-18
7.100000E+03	6.516627E-17	3.836629E-18
7.110000E+03	6.517719E-17	3.821429E-18
7.120000E+03	6.517785E-17	3.805261E-18
7.130000E+03	6.516887E-17	3.788119E-18
7.140000E+03	6.514959E-17	3.769918E-18
7.150000E+03	6.512207E-17	3.750718E-18
7.160000E+03	6.508441E-17	3.730348E-18
7.170000E+03	6.504009E-17	3.708938E-18
7.180000E+03	6.498861E-17	3.686387E-18
7.190000E+03	6.493085E-17	3.662669E-18
7.200000E+03	6.486635E-17	3.637682E-18
7.210000E+03	6.479868E-17	3.611552E-18
7.220000E+03	6.472605E-17	3.584107E-18
7.230000E+03	6.465067E-17	3.555402E-18
7.240000E+03	6.457202E-17	3.525351E-18
7.250000E+03	6.449226E-17	3.494021E-18
7.260000E+03	6.441075E-17	3.461341E-18
7.270000E+03	6.432819E-17	3.427324E-18
7.280000E+03	6.424654E-17	3.392065E-18
7.290000E+03	6.416497E-17	3.355529E-18
7.300000E+03	6.408529E-17	3.317838E-18
7.310000E+03	6.400514E-17	3.278922E-18
7.320000E+03	6.392620E-17	3.238941E-18
7.330000E+03	6.385004E-17	3.198079E-18
7.340000E+03	6.377409E-17	3.156337E-18
7.350000E+03	6.369979E-17	3.113958E-18
7.360000E+03	6.362581E-17	3.071083E-18
7.370000E+03	6.355350E-17	3.028030E-18
7.380000E+03	6.348141E-17	2.985029E-18
7.390000E+03	6.340940E-17	2.942430E-18
7.400000E+03	6.333730E-17	2.900635E-18
7.410000E+03	6.326350E-17	2.860044E-18
7.420000E+03	6.318769E-17	2.821176E-18
7.430000E+03	6.310952E-17	2.784601E-18
7.440000E+03	6.302859E-17	2.750935E-18
7.450000E+03	6.294583E-17	2.720881E-18
7.460000E+03	6.285929E-17	2.695024E-18
7.470000E+03	6.277125E-17	2.674104E-18
7.480000E+03	6.268117E-17	2.658678E-18
7.490000E+03	6.258855E-17	2.649194E-18
7.500000E+03	6.249308E-17	2.645951E-18
7.510000E+03	6.239466E-17	2.649058E-18
7.520000E+03	6.229632E-17	2.658535E-18
7.530000E+03	6.219572E-17	2.673949E-18
7.540000E+03	6.209502E-17	2.694861E-18
7.550000E+03	6.199507E-17	2.720624E-18
7.560000E+03	6.189823E-17	2.750557E-18
7.570000E+03	6.180251E-17	2.783737E-18
7.580000E+03	6.171015E-17	2.819427E-18
7.590000E+03	6.162185E-17	2.856855E-18
7.600000E+03	6.153966E-17	2.895381E-18
7.610000E+03	6.146118E-17	2.934240E-18
7.620000E+03	6.138969E-17	2.973036E-18
7.630000E+03	6.132403E-17	3.011268E-18
7.640000E+03	6.126293E-17	3.048532E-18
7.650000E+03	6.120943E-17	3.084737E-18
7.660000E+03	6.116211E-17	3.119666E-18
7.670000E+03	6.112095E-17	3.153250E-18
7.680000E+03	6.108586E-17	3.185484E-18
7.690000E+03	6.105672E-17	3.216416E-18
7.700000E+03	6.103331E-17	3.246131E-18
7.710000E+03	6.101690E-17	3.274821E-18
7.720000E+03	6.100421E-17	3.302452E-18
7.730000E+03	6.099791E-17	3.329316E-18
7.740000E+03	6.099611E-17	3.355463E-18
7.750000E+03	6.099843E-17	3.381013E-18
7.760000E+03	6.100440E-17	3.406074E-18
