#wls	flux	fluxerr
1.600000E+03	1.930928E-16	1.875440E-16
1.640000E+03	1.999413E-16	1.909611E-16
1.680000E+03	2.067267E-16	1.940235E-16
1.720000E+03	2.134280E-16	1.967077E-16
1.760000E+03	2.199566E-16	1.989309E-16
1.800000E+03	2.262762E-16	2.006629E-16
1.840000E+03	2.323030E-16	2.018358E-16
1.880000E+03	2.379854E-16	2.024158E-16
1.920000E+03	2.432452E-16	2.023515E-16
1.960000E+03	2.479982E-16	2.015941E-16
2.000000E+03	2.521194E-16	2.000697E-16
2.040000E+03	2.555206E-16	1.977443E-16
2.080000E+03	2.580967E-16	1.945801E-16
2.120000E+03	2.596986E-16	1.905170E-16
2.160000E+03	2.601934E-16	1.855212E-16
2.200000E+03	2.594245E-16	1.795555E-16
2.240000E+03	2.572556E-16	1.726120E-16
2.280000E+03	2.536464E-16	1.647595E-16
2.320000E+03	2.486149E-16	1.561094E-16
2.360000E+03	2.423253E-16	1.468622E-16
2.400000E+03	2.349246E-16	1.371960E-16
2.440000E+03	2.265457E-16	1.272694E-16
2.480000E+03	2.173397E-16	1.172397E-16
2.520000E+03	2.074241E-16	1.072340E-16
2.560000E+03	1.969037E-16	9.736220E-17
2.600000E+03	1.859122E-16	8.773813E-17
2.640000E+03	1.745507E-16	7.844794E-17
2.680000E+03	1.629431E-16	6.957720E-17
2.720000E+03	1.511975E-16	6.119231E-17
2.760000E+03	1.394457E-16	5.335720E-17
2.800000E+03	1.278038E-16	4.611633E-17
2.840000E+03	1.163980E-16	3.950515E-17
2.880000E+03	1.053517E-16	3.354506E-17
2.920000E+03	9.478105E-17	2.824277E-17
2.960000E+03	8.479012E-17	2.359018E-17
3.000000E+03	7.546444E-17	1.956459E-17
3.010000E+03	7.324411E-17	1.865205E-17
3.020000E+03	7.107078E-17	1.777600E-17
3.030000E+03	6.894317E-17	1.693526E-17
3.040000E+03	6.686454E-17	1.612975E-17
3.050000E+03	6.483346E-17	1.535823E-17
3.060000E+03	6.285002E-17	1.461983E-17
3.070000E+03	6.091429E-17	1.391369E-17
3.080000E+03	5.902874E-17	1.323948E-17
3.090000E+03	5.719069E-17	1.259568E-17
3.100000E+03	5.540234E-17	1.198190E-17
3.110000E+03	5.366226E-17	1.139693E-17
3.120000E+03	5.197124E-17	1.084004E-17
3.130000E+03	5.032889E-17	1.031025E-17
3.140000E+03	4.873485E-17	9.806605E-18
3.150000E+03	4.718871E-17	9.328131E-18
3.160000E+03	4.569090E-17	8.874037E-18
3.170000E+03	4.424005E-17	8.443196E-18
3.180000E+03	4.283645E-17	8.034823E-18
3.190000E+03	4.147944E-17	7.647976E-18
3.200000E+03	4.016836E-17	7.281737E-18
3.210000E+03	3.890317E-17	6.935329E-18
3.220000E+03	3.768173E-17	6.607629E-18
3.230000E+03	3.650521E-17	6.298129E-18
3.240000E+03	3.537085E-17	6.005661E-18
3.250000E+03	3.427960E-17	5.729724E-18
3.260000E+03	3.322935E-17	5.469324E-18
3.270000E+03	3.221973E-17	5.223789E-18
3.280000E+03	3.124977E-17	4.992368E-18
3.290000E+03	3.031800E-17	4.774265E-18
3.300000E+03	2.942440E-17	4.568935E-18
3.310000E+03	2.856702E-17	4.375562E-18
3.320000E+03	2.774491E-17	4.193514E-18
3.330000E+03	2.695792E-17	4.022301E-18
3.340000E+03	2.620423E-17	3.861211E-18
3.350000E+03	2.548288E-17	3.709686E-18
3.360000E+03	2.479292E-17	3.567197E-18
3.370000E+03	2.413375E-17	3.433284E-18
3.380000E+03	2.350375E-17	3.307365E-18
3.390000E+03	2.290203E-17	3.188985E-18
3.400000E+03	2.232800E-17	3.077752E-18
3.410000E+03	2.178047E-17	2.973208E-18
3.420000E+03	2.125857E-17	2.874961E-18
3.430000E+03	2.076092E-17	2.782566E-18
3.440000E+03	2.028700E-17	2.695714E-18
3.450000E+03	1.983603E-17	2.614075E-18
3.460000E+03	1.940676E-17	2.537274E-18
3.470000E+03	1.899849E-17	2.465026E-18
3.480000E+03	1.861033E-17	2.397033E-18
3.490000E+03	1.824185E-17	2.333073E-18
3.500000E+03	1.789181E-17	2.272829E-18
3.510000E+03	1.755985E-17	2.216113E-18
3.520000E+03	1.724503E-17	2.162672E-18
3.530000E+03	1.694667E-17	2.112298E-18
3.540000E+03	1.666412E-17	2.064798E-18
3.550000E+03	1.639657E-17	2.019970E-18
3.560000E+03	1.614365E-17	1.977671E-18
3.570000E+03	1.590445E-17	1.937705E-18
3.580000E+03	1.567848E-17	1.899931E-18
3.590000E+03	1.546542E-17	1.864239E-18
3.600000E+03	1.526465E-17	1.830488E-18
3.610000E+03	1.507573E-17	1.798566E-18
3.620000E+03	1.489811E-17	1.768350E-18
3.630000E+03	1.473125E-17	1.739726E-18
3.640000E+03	1.457480E-17	1.712608E-18
3.650000E+03	1.442814E-17	1.686881E-18
3.660000E+03	1.429111E-17	1.662487E-18
3.670000E+03	1.416315E-17	1.639326E-18
3.680000E+03	1.404398E-17	1.617333E-18
3.690000E+03	1.393349E-17	1.596465E-18
3.700000E+03	1.383116E-17	1.576636E-18
3.710000E+03	1.373676E-17	1.557794E-18
3.720000E+03	1.365033E-17	1.539918E-18
3.730000E+03	1.357150E-17	1.522945E-18
3.740000E+03	1.350006E-17	1.506829E-18
3.750000E+03	1.343603E-17	1.491552E-18
3.760000E+03	1.337905E-17	1.477056E-18
3.770000E+03	1.332904E-17	1.463313E-18
3.780000E+03	1.328599E-17	1.450306E-18
3.790000E+03	1.324969E-17	1.437994E-18
3.800000E+03	1.322003E-17	1.426352E-18
3.810000E+03	1.319690E-17	1.415354E-18
3.820000E+03	1.318020E-17	1.404975E-18
3.830000E+03	1.316994E-17	1.395206E-18
3.840000E+03	1.316590E-17	1.386011E-18
3.850000E+03	1.316811E-17	1.377381E-18
3.860000E+03	1.317657E-17	1.369307E-18
3.870000E+03	1.319109E-17	1.361756E-18
3.880000E+03	1.321156E-17	1.354706E-18
3.890000E+03	1.323811E-17	1.348160E-18
3.900000E+03	1.327065E-17	1.342094E-18
3.910000E+03	1.330897E-17	1.336474E-18
3.920000E+03	1.335319E-17	1.331299E-18
3.930000E+03	1.340332E-17	1.326555E-18
3.940000E+03	1.345902E-17	1.322194E-18
3.950000E+03	1.352040E-17	1.318210E-18
3.960000E+03	1.358746E-17	1.314587E-18
3.970000E+03	1.366005E-17	1.311295E-18
3.980000E+03	1.373794E-17	1.308294E-18
3.990000E+03	1.382133E-17	1.305585E-18
4.000000E+03	1.390994E-17	1.303125E-18
4.010000E+03	1.400363E-17	1.300885E-18
4.020000E+03	1.410246E-17	1.298852E-18
4.030000E+03	1.420616E-17	1.296986E-18
4.040000E+03	1.431478E-17	1.295276E-18
4.050000E+03	1.442793E-17	1.293671E-18
4.060000E+03	1.454577E-17	1.292175E-18
4.070000E+03	1.466802E-17	1.290750E-18
4.080000E+03	1.479451E-17	1.289370E-18
4.090000E+03	1.492530E-17	1.288031E-18
4.100000E+03	1.505999E-17	1.286688E-18
4.110000E+03	1.519876E-17	1.285350E-18
4.120000E+03	1.534121E-17	1.283972E-18
4.130000E+03	1.548729E-17	1.282543E-18
4.140000E+03	1.563695E-17	1.281050E-18
4.150000E+03	1.578992E-17	1.279460E-18
4.160000E+03	1.594616E-17	1.277760E-18
4.170000E+03	1.610551E-17	1.275928E-18
4.180000E+03	1.626769E-17	1.273933E-18
4.190000E+03	1.643281E-17	1.271776E-18
4.200000E+03	1.660044E-17	1.269422E-18
4.210000E+03	1.677071E-17	1.266878E-18
4.220000E+03	1.694320E-17	1.264121E-18
4.230000E+03	1.711788E-17	1.261163E-18
4.240000E+03	1.729459E-17	1.258015E-18
4.250000E+03	1.747290E-17	1.254678E-18
4.260000E+03	1.765292E-17	1.251207E-18
4.270000E+03	1.783434E-17	1.247640E-18
4.280000E+03	1.801685E-17	1.244028E-18
4.290000E+03	1.820013E-17	1.240438E-18
4.300000E+03	1.838415E-17	1.236974E-18
4.310000E+03	1.856873E-17	1.233742E-18
4.320000E+03	1.875326E-17	1.230835E-18
4.330000E+03	1.893785E-17	1.228406E-18
4.340000E+03	1.912189E-17	1.226569E-18
4.350000E+03	1.930550E-17	1.225492E-18
4.360000E+03	1.948822E-17	1.225298E-18
4.370000E+03	1.967005E-17	1.226131E-18
4.380000E+03	1.985101E-17	1.228108E-18
4.390000E+03	2.003116E-17	1.231313E-18
4.400000E+03	2.021051E-17	1.235774E-18
4.410000E+03	2.038926E-17	1.241475E-18
4.420000E+03	2.056761E-17	1.248356E-18
4.430000E+03	2.074563E-17	1.256315E-18
4.440000E+03	2.092357E-17	1.265238E-18
4.450000E+03	2.110135E-17	1.274971E-18
4.460000E+03	2.127942E-17	1.285388E-18
4.470000E+03	2.145772E-17	1.296326E-18
4.480000E+03	2.163637E-17	1.307637E-18
4.490000E+03	2.181547E-17	1.319176E-18
4.500000E+03	2.199514E-17	1.330809E-18
4.510000E+03	2.217552E-17	1.342412E-18
4.520000E+03	2.235673E-17	1.353875E-18
4.530000E+03	2.253850E-17	1.365077E-18
4.540000E+03	2.272135E-17	1.375961E-18
4.550000E+03	2.290503E-17	1.386436E-18
4.560000E+03	2.308967E-17	1.396452E-18
4.570000E+03	2.327520E-17	1.405961E-18
4.580000E+03	2.346195E-17	1.414955E-18
4.590000E+03	2.364987E-17	1.423413E-18
4.600000E+03	2.383866E-17	1.431315E-18
4.610000E+03	2.402888E-17	1.438700E-18
4.620000E+03	2.422024E-17	1.445565E-18
4.630000E+03	2.441264E-17	1.451925E-18
4.640000E+03	2.460643E-17	1.457825E-18
4.650000E+03	2.480175E-17	1.463304E-18
4.660000E+03	2.499805E-17	1.468361E-18
4.670000E+03	2.519592E-17	1.473062E-18
4.680000E+03	2.539526E-17	1.477437E-18
4.690000E+03	2.559600E-17	1.481514E-18
4.700000E+03	2.579829E-17	1.485335E-18
4.710000E+03	2.600208E-17	1.488931E-18
4.720000E+03	2.620757E-17	1.492342E-18
4.730000E+03	2.641427E-17	1.495567E-18
4.740000E+03	2.662245E-17	1.498642E-18
4.750000E+03	2.683242E-17	1.501603E-18
4.760000E+03	2.704351E-17	1.504425E-18
4.770000E+03	2.725629E-17	1.507152E-18
4.780000E+03	2.747060E-17	1.509785E-18
4.790000E+03	2.768623E-17	1.512326E-18
4.800000E+03	2.790379E-17	1.514818E-18
4.810000E+03	2.812250E-17	1.517237E-18
4.820000E+03	2.834322E-17	1.519647E-18
4.830000E+03	2.856513E-17	1.522029E-18
4.840000E+03	2.878878E-17	1.524444E-18
4.850000E+03	2.901362E-17	1.526901E-18
4.860000E+03	2.924018E-17	1.529472E-18
4.870000E+03	2.946788E-17	1.532178E-18
4.880000E+03	2.969697E-17	1.535085E-18
4.890000E+03	2.992742E-17	1.538247E-18
4.900000E+03	3.015892E-17	1.541704E-18
4.910000E+03	3.039143E-17	1.545508E-18
4.920000E+03	3.062493E-17	1.549709E-18
4.930000E+03	3.085969E-17	1.554368E-18
4.940000E+03	3.109508E-17	1.559498E-18
4.950000E+03	3.133170E-17	1.565162E-18
4.960000E+03	3.156890E-17	1.571355E-18
4.970000E+03	3.180698E-17	1.578106E-18
4.980000E+03	3.204557E-17	1.585398E-18
4.990000E+03	3.228463E-17	1.593211E-18
5.000000E+03	3.252406E-17	1.601508E-18
5.010000E+03	3.276407E-17	1.610249E-18
5.020000E+03	3.300386E-17	1.619329E-18
5.030000E+03	3.324357E-17	1.628674E-18
5.040000E+03	3.348266E-17	1.638171E-18
5.050000E+03	3.372120E-17	1.647728E-18
5.060000E+03	3.395855E-17	1.657219E-18
5.070000E+03	3.419407E-17	1.666518E-18
5.080000E+03	3.442770E-17	1.675533E-18
5.090000E+03	3.465907E-17	1.684161E-18
5.100000E+03	3.488737E-17	1.692286E-18
5.110000E+03	3.511180E-17	1.699801E-18
5.120000E+03	3.533251E-17	1.706658E-18
5.130000E+03	3.554829E-17	1.712752E-18
5.140000E+03	3.575856E-17	1.718030E-18
5.150000E+03	3.596273E-17	1.722452E-18
5.160000E+03	3.616022E-17	1.726003E-18
5.170000E+03	3.635008E-17	1.728670E-18
5.180000E+03	3.653207E-17	1.730500E-18
5.190000E+03	3.670490E-17	1.731507E-18
5.200000E+03	3.686833E-17	1.731779E-18
5.210000E+03	3.702104E-17	1.731367E-18
5.220000E+03	3.716317E-17	1.730400E-18
5.230000E+03	3.729335E-17	1.728945E-18
5.240000E+03	3.741129E-17	1.727119E-18
5.250000E+03	3.751557E-17	1.724980E-18
5.260000E+03	3.760584E-17	1.722628E-18
5.270000E+03	3.768135E-17	1.720130E-18
5.280000E+03	3.774058E-17	1.717503E-18
5.290000E+03	3.778274E-17	1.714776E-18
5.300000E+03	3.780743E-17	1.711981E-18
5.310000E+03	3.781348E-17	1.709096E-18
5.320000E+03	3.779977E-17	1.706086E-18
5.330000E+03	3.776559E-17	1.702926E-18
5.340000E+03	3.771028E-17	1.699586E-18
5.350000E+03	3.763330E-17	1.696040E-18
5.360000E+03	3.753379E-17	1.692251E-18
5.370000E+03	3.741179E-17	1.688227E-18
5.380000E+03	3.726674E-17	1.683955E-18
5.390000E+03	3.709900E-17	1.679467E-18
5.400000E+03	3.690841E-17	1.674775E-18
5.410000E+03	3.669611E-17	1.669951E-18
5.420000E+03	3.646315E-17	1.665058E-18
5.430000E+03	3.621011E-17	1.660133E-18
5.440000E+03	3.593925E-17	1.655288E-18
5.450000E+03	3.565202E-17	1.650586E-18
5.460000E+03	3.534870E-17	1.646026E-18
5.470000E+03	3.503228E-17	1.641717E-18
5.480000E+03	3.470418E-17	1.637675E-18
5.490000E+03	3.436601E-17	1.633899E-18
5.500000E+03	3.401983E-17	1.630373E-18
5.510000E+03	3.366742E-17	1.627029E-18
5.520000E+03	3.331061E-17	1.623778E-18
5.530000E+03	3.295198E-17	1.620562E-18
5.540000E+03	3.259344E-17	1.617292E-18
5.550000E+03	3.223792E-17	1.613940E-18
5.560000E+03	3.188796E-17	1.610481E-18
5.570000E+03	3.154573E-17	1.606889E-18
5.580000E+03	3.121395E-17	1.603189E-18
5.590000E+03	3.089489E-17	1.599411E-18
5.600000E+03	3.059069E-17	1.595598E-18
5.610000E+03	3.030360E-17	1.591823E-18
5.620000E+03	3.003533E-17	1.588151E-18
5.630000E+03	2.978735E-17	1.584653E-18
5.640000E+03	2.956114E-17	1.581417E-18
5.650000E+03	2.935762E-17	1.578517E-18
5.660000E+03	2.917769E-17	1.576038E-18
5.670000E+03	2.902167E-17	1.574048E-18
5.680000E+03	2.888961E-17	1.572607E-18
5.690000E+03	2.878160E-17	1.571790E-18
5.700000E+03	2.869721E-17	1.571649E-18
5.710000E+03	2.863582E-17	1.572236E-18
5.720000E+03	2.859694E-17	1.573613E-18
5.730000E+03	2.857970E-17	1.575826E-18
5.740000E+03	2.858345E-17	1.578933E-18
5.750000E+03	2.860696E-17	1.582959E-18
5.760000E+03	2.864991E-17	1.587976E-18
5.770000E+03	2.871119E-17	1.594000E-18
5.780000E+03	2.879010E-17	1.601058E-18
5.790000E+03	2.888668E-17	1.609204E-18
5.800000E+03	2.899989E-17	1.618415E-18
5.810000E+03	2.913006E-17	1.628731E-18
5.820000E+03	2.927699E-17	1.640144E-18
5.830000E+03	2.944059E-17	1.652643E-18
5.840000E+03	2.962050E-17	1.666184E-18
5.850000E+03	2.981738E-17	1.680773E-18
5.860000E+03	3.003093E-17	1.696351E-18
5.870000E+03	3.026154E-17	1.712886E-18
5.880000E+03	3.050926E-17	1.730322E-18
5.890000E+03	3.077382E-17	1.748574E-18
5.900000E+03	3.105558E-17	1.767588E-18
5.910000E+03	3.135491E-17	1.787305E-18
5.920000E+03	3.167111E-17	1.807603E-18
5.930000E+03	3.200446E-17	1.828416E-18
5.940000E+03	3.235487E-17	1.849660E-18
5.950000E+03	3.272254E-17	1.871274E-18
5.960000E+03	3.310654E-17	1.893139E-18
5.970000E+03	3.350735E-17	1.915230E-18
5.980000E+03	3.392392E-17	1.937443E-18
5.990000E+03	3.435624E-17	1.959752E-18
6.000000E+03	3.480392E-17	1.982119E-18
6.010000E+03	3.526609E-17	2.004495E-18
6.020000E+03	3.574264E-17	2.026889E-18
6.030000E+03	3.623216E-17	2.049251E-18
6.040000E+03	3.673486E-17	2.071633E-18
6.050000E+03	3.724878E-17	2.093984E-18
6.060000E+03	3.777400E-17	2.116378E-18
6.070000E+03	3.830884E-17	2.138807E-18
6.080000E+03	3.885286E-17	2.161343E-18
6.090000E+03	3.940419E-17	2.183995E-18
6.100000E+03	3.996178E-17	2.206831E-18
6.110000E+03	4.052404E-17	2.229902E-18
6.120000E+03	4.108978E-17	2.253291E-18
6.130000E+03	4.165672E-17	2.277034E-18
6.140000E+03	4.222300E-17	2.301196E-18
6.150000E+03	4.278719E-17	2.325872E-18
6.160000E+03	4.334733E-17	2.351123E-18
6.170000E+03	4.390034E-17	2.376940E-18
6.180000E+03	4.444473E-17	2.403382E-18
6.190000E+03	4.497856E-17	2.430447E-18
6.200000E+03	4.550055E-17	2.458119E-18
6.210000E+03	4.601020E-17	2.486353E-18
6.220000E+03	4.650719E-17	2.515071E-18
6.230000E+03	4.699198E-17	2.544202E-18
6.240000E+03	4.746640E-17	2.573723E-18
6.250000E+03	4.793071E-17	2.603513E-18
6.260000E+03	4.838463E-17	2.633411E-18
6.270000E+03	4.883046E-17	2.663399E-18
6.280000E+03	4.926880E-17	2.693368E-18
6.290000E+03	4.969898E-17	2.723148E-18
6.300000E+03	5.012366E-17	2.752757E-18
6.310000E+03	5.054161E-17	2.782015E-18
6.320000E+03	5.095497E-17	2.810936E-18
6.330000E+03	5.136324E-17	2.839398E-18
6.340000E+03	5.176727E-17	2.867369E-18
6.350000E+03	5.216725E-17	2.894791E-18
6.360000E+03	5.256338E-17	2.921617E-18
6.370000E+03	5.295584E-17	2.947813E-18
6.380000E+03	5.334407E-17	2.973312E-18
6.390000E+03	5.372746E-17	2.998057E-18
6.400000E+03	5.410688E-17	3.022086E-18
6.410000E+03	5.448091E-17	3.045313E-18
6.420000E+03	5.485038E-17	3.067795E-18
6.430000E+03	5.521460E-17	3.089504E-18
6.440000E+03	5.557362E-17	3.110467E-18
6.450000E+03	5.592833E-17	3.130760E-18
6.460000E+03	5.628051E-17	3.150512E-18
6.470000E+03	5.663035E-17	3.169767E-18
6.480000E+03	5.697894E-17	3.188615E-18
6.490000E+03	5.732739E-17	3.207149E-18
6.500000E+03	5.767513E-17	3.225363E-18
6.510000E+03	5.802422E-17	3.243394E-18
6.520000E+03	5.837499E-17	3.261281E-18
6.530000E+03	5.872688E-17	3.279007E-18
6.540000E+03	5.908201E-17	3.296701E-18
6.550000E+03	5.943980E-17	3.314339E-18
6.560000E+03	5.979962E-17	3.331889E-18
6.570000E+03	6.016363E-17	3.349475E-18
6.580000E+03	6.053119E-17	3.367058E-18
6.590000E+03	6.090257E-17	3.384652E-18
6.600000E+03	6.127903E-17	3.402320E-18
6.610000E+03	6.165884E-17	3.419961E-18
6.620000E+03	6.204219E-17	3.437578E-18
6.630000E+03	6.243128E-17	3.455286E-18
6.640000E+03	6.282422E-17	3.472973E-18
6.650000E+03	6.322111E-17	3.490638E-18
6.660000E+03	6.362304E-17	3.508336E-18
6.670000E+03	6.402897E-17	3.526004E-18
6.680000E+03	6.443887E-17	3.543639E-18
6.690000E+03	6.485376E-17	3.561297E-18
6.700000E+03	6.527135E-17	3.578855E-18
6.710000E+03	6.569146E-17	3.596309E-18
6.720000E+03	6.611617E-17	3.613780E-18
6.730000E+03	6.654302E-17	3.631139E-18
6.740000E+03	6.697175E-17	3.648380E-18
6.750000E+03	6.740326E-17	3.665553E-18
6.760000E+03	6.783608E-17	3.682579E-18
6.770000E+03	6.826986E-17	3.699432E-18
6.780000E+03	6.870426E-17	3.716078E-18
6.790000E+03	6.913891E-17	3.732476E-18
6.800000E+03	6.957216E-17	3.748507E-18
6.810000E+03	7.000486E-17	3.764179E-18
6.820000E+03	7.043659E-17	3.779424E-18
6.830000E+03	7.086565E-17	3.794097E-18
6.840000E+03	7.129290E-17	3.808184E-18
6.850000E+03	7.171660E-17	3.821530E-18
6.860000E+03	7.213632E-17	3.834046E-18
6.870000E+03	7.255164E-17	3.845648E-18
6.880000E+03	7.296078E-17	3.856187E-18
6.890000E+03	7.336605E-17	3.865739E-18
6.900000E+03	7.376576E-17	3.874183E-18
6.910000E+03	7.415815E-17	3.881409E-18
6.920000E+03	7.454426E-17	3.887471E-18
6.930000E+03	7.492236E-17	3.892290E-18
6.940000E+03	7.529208E-17	3.895875E-18
6.950000E+03	7.565455E-17	3.898319E-18
6.960000E+03	7.600801E-17	3.899578E-18
6.970000E+03	7.635214E-17	3.899691E-18
6.980000E+03	7.668665E-17	3.898701E-18
6.990000E+03	7.701128E-17	3.896662E-18
7.000000E+03	7.732430E-17	3.893555E-18
7.010000E+03	7.762849E-17	3.889596E-18
7.020000E+03	7.792070E-17	3.884699E-18
7.030000E+03	7.820078E-17	3.878935E-18
7.040000E+03	7.847020E-17	3.872452E-18
7.050000E+03	7.872740E-17	3.865242E-18
7.060000E+03	7.897239E-17	3.857374E-18
7.070000E+03	7.920526E-17	3.848913E-18
7.080000E+03	7.942617E-17	3.839918E-18
7.090000E+03	7.963694E-17	3.830516E-18
7.100000E+03	7.983470E-17	3.820595E-18
7.110000E+03	8.001982E-17	3.810188E-18
7.120000E+03	8.019438E-17	3.799391E-18
7.130000E+03	8.035892E-17	3.788208E-18
7.140000E+03	8.051247E-17	3.776555E-18
7.150000E+03	8.065735E-17	3.764485E-18
7.160000E+03	8.079103E-17	3.751809E-18
7.170000E+03	8.091762E-17	3.738633E-18
7.180000E+03	8.103635E-17	3.724826E-18
7.190000E+03	8.114813E-17	3.710325E-18
7.200000E+03	8.125221E-17	3.694989E-18
7.210000E+03	8.135293E-17	3.678907E-18
7.220000E+03	8.144786E-17	3.661861E-18
7.230000E+03	8.153961E-17	3.643869E-18
7.240000E+03	8.162734E-17	3.624802E-18
7.250000E+03	8.171353E-17	3.604695E-18
7.260000E+03	8.179711E-17	3.583438E-18
7.270000E+03	8.187856E-17	3.561014E-18
7.280000E+03	8.195996E-17	3.537496E-18
7.290000E+03	8.203971E-17	3.512820E-18
7.300000E+03	8.211955E-17	3.487088E-18
7.310000E+03	8.219576E-17	3.460195E-18
7.320000E+03	8.226975E-17	3.432275E-18
7.330000E+03	8.234279E-17	3.403476E-18
7.340000E+03	8.241077E-17	3.373746E-18
7.350000E+03	8.247481E-17	3.343277E-18
7.360000E+03	8.253247E-17	3.312146E-18
7.370000E+03	8.258487E-17	3.280609E-18
7.380000E+03	8.262961E-17	3.248830E-18
7.390000E+03	8.266615E-17	3.217097E-18
7.400000E+03	8.269406E-17	3.185771E-18
7.410000E+03	8.271124E-17	3.155220E-18
7.420000E+03	8.271752E-17	3.125973E-18
7.430000E+03	8.271289E-17	3.098651E-18
7.440000E+03	8.269753E-17	3.073971E-18
7.450000E+03	8.267360E-17	3.052804E-18
7.460000E+03	8.263974E-17	3.035950E-18
7.470000E+03	8.260028E-17	3.024445E-18
7.480000E+03	8.255597E-17	3.019162E-18
7.490000E+03	8.250764E-17	3.020871E-18
7.500000E+03	8.245612E-17	3.030140E-18
7.510000E+03	8.240224E-17	3.047241E-18
7.520000E+03	8.235023E-17	3.072134E-18
7.530000E+03	8.229631E-17	3.104019E-18
7.540000E+03	8.224221E-17	3.141965E-18
7.550000E+03	8.218775E-17	3.184736E-18
7.560000E+03	8.213460E-17	3.231033E-18
7.570000E+03	8.207876E-17	3.279292E-18
7.580000E+03	8.202196E-17	3.328212E-18
7.590000E+03	8.196413E-17	3.376526E-18
7.600000E+03	8.190718E-17	3.423215E-18
7.610000E+03	8.184730E-17	3.467227E-18
7.620000E+03	8.178847E-17	3.508060E-18
7.630000E+03	8.172893E-17	3.545206E-18
7.640000E+03	8.166697E-17	3.578379E-18
7.650000E+03	8.160674E-17	3.607757E-18
7.660000E+03	8.154660E-17	3.633446E-18
7.670000E+03	8.148688E-17	3.655779E-18
7.680000E+03	8.142791E-17	3.675198E-18
7.690000E+03	8.136999E-17	3.692208E-18
7.700000E+03	8.131339E-17	3.707343E-18
7.710000E+03	8.126030E-17	3.721226E-18
7.720000E+03	8.120690E-17	3.734179E-18
7.730000E+03	8.115721E-17	3.746844E-18
7.740000E+03	8.110925E-17	3.759531E-18
7.750000E+03	8.106291E-17	3.772583E-18
7.760000E+03	8.101803E-17	3.786274E-18
