#wls	flux	fluxerr
1.600000E+03	2.468960E-16	2.503060E-16
1.640000E+03	2.500016E-16	2.495967E-16
1.680000E+03	2.529811E-16	2.485726E-16
1.720000E+03	2.557974E-16	2.471998E-16
1.760000E+03	2.584338E-16	2.454666E-16
1.800000E+03	2.608467E-16	2.433378E-16
1.840000E+03	2.630343E-16	2.408200E-16
1.880000E+03	2.649674E-16	2.378963E-16
1.920000E+03	2.665939E-16	2.345320E-16
1.960000E+03	2.678617E-16	2.306975E-16
2.000000E+03	2.687203E-16	2.263693E-16
2.040000E+03	2.691396E-16	2.215455E-16
2.080000E+03	2.690038E-16	2.161591E-16
2.120000E+03	2.682632E-16	2.102056E-16
2.160000E+03	2.668457E-16	2.036687E-16
2.200000E+03	2.646353E-16	1.965074E-16
2.240000E+03	2.616159E-16	1.887642E-16
2.280000E+03	2.577579E-16	1.804757E-16
2.320000E+03	2.531144E-16	1.717390E-16
2.360000E+03	2.477656E-16	1.626662E-16
2.400000E+03	2.418113E-16	1.533764E-16
2.440000E+03	2.353736E-16	1.439951E-16
2.480000E+03	2.285200E-16	1.346052E-16
2.520000E+03	2.213403E-16	1.252971E-16
2.560000E+03	2.139045E-16	1.161425E-16
2.600000E+03	2.062518E-16	1.071912E-16
2.640000E+03	1.984293E-16	9.849309E-17
2.680000E+03	1.904698E-16	9.008678E-17
2.720000E+03	1.824157E-16	8.201185E-17
2.760000E+03	1.743000E-16	7.429937E-17
2.800000E+03	1.661609E-16	6.697877E-17
2.840000E+03	1.580371E-16	6.007509E-17
2.880000E+03	1.499890E-16	5.361647E-17
2.920000E+03	1.420723E-16	4.762262E-17
2.960000E+03	1.343439E-16	4.210704E-17
3.000000E+03	1.268782E-16	3.708143E-17
3.010000E+03	1.250621E-16	3.590229E-17
3.020000E+03	1.232671E-16	3.475365E-17
3.030000E+03	1.214941E-16	3.363539E-17
3.040000E+03	1.197468E-16	3.254808E-17
3.050000E+03	1.180259E-16	3.149148E-17
3.060000E+03	1.163323E-16	3.046533E-17
3.070000E+03	1.146670E-16	2.946938E-17
3.080000E+03	1.130309E-16	2.850334E-17
3.090000E+03	1.114251E-16	2.756695E-17
3.100000E+03	1.098529E-16	2.666045E-17
3.110000E+03	1.083152E-16	2.578344E-17
3.120000E+03	1.068109E-16	2.493505E-17
3.130000E+03	1.053452E-16	2.411589E-17
3.140000E+03	1.039150E-16	2.332457E-17
3.150000E+03	1.025234E-16	2.256118E-17
3.160000E+03	1.011734E-16	2.182569E-17
3.170000E+03	9.986390E-17	2.111721E-17
3.180000E+03	9.859789E-17	2.043569E-17
3.190000E+03	9.737444E-17	1.978026E-17
3.200000E+03	9.619634E-17	1.915081E-17
3.210000E+03	9.506449E-17	1.854684E-17
3.220000E+03	9.397817E-17	1.796752E-17
3.230000E+03	9.294004E-17	1.741270E-17
3.240000E+03	9.195103E-17	1.688186E-17
3.250000E+03	9.101211E-17	1.637451E-17
3.260000E+03	9.012427E-17	1.589014E-17
3.270000E+03	8.928850E-17	1.542825E-17
3.280000E+03	8.850585E-17	1.498832E-17
3.290000E+03	8.777600E-17	1.456962E-17
3.300000E+03	8.710292E-17	1.417212E-17
3.310000E+03	8.648498E-17	1.379485E-17
3.320000E+03	8.592483E-17	1.343753E-17
3.330000E+03	8.542243E-17	1.309944E-17
3.340000E+03	8.498046E-17	1.278028E-17
3.350000E+03	8.460031E-17	1.247952E-17
3.360000E+03	8.428094E-17	1.219630E-17
3.370000E+03	8.402640E-17	1.193047E-17
3.380000E+03	8.383585E-17	1.168118E-17
3.390000E+03	8.371220E-17	1.144812E-17
3.400000E+03	8.365716E-17	1.123079E-17
3.410000E+03	8.367024E-17	1.102841E-17
3.420000E+03	8.375568E-17	1.084083E-17
3.430000E+03	8.391317E-17	1.066728E-17
3.440000E+03	8.414481E-17	1.050735E-17
3.450000E+03	8.445280E-17	1.036061E-17
3.460000E+03	8.483834E-17	1.022653E-17
3.470000E+03	8.530492E-17	1.010486E-17
3.480000E+03	8.585286E-17	9.994979E-18
3.490000E+03	8.648480E-17	9.896547E-18
3.500000E+03	8.720237E-17	9.809122E-18
3.510000E+03	8.800951E-17	9.732527E-18
3.520000E+03	8.890701E-17	9.666242E-18
3.530000E+03	8.989682E-17	9.609895E-18
3.540000E+03	9.098315E-17	9.563367E-18
3.550000E+03	9.216598E-17	9.526097E-18
3.560000E+03	9.344856E-17	9.497895E-18
3.570000E+03	9.483421E-17	9.478581E-18
3.580000E+03	9.632407E-17	9.467779E-18
3.590000E+03	9.792148E-17	9.465349E-18
3.600000E+03	9.962755E-17	9.470954E-18
3.610000E+03	1.014444E-16	9.484386E-18
3.620000E+03	1.033752E-16	9.505558E-18
3.630000E+03	1.054195E-16	9.534087E-18
3.640000E+03	1.075814E-16	9.570021E-18
3.650000E+03	1.098612E-16	9.613114E-18
3.660000E+03	1.122600E-16	9.663234E-18
3.670000E+03	1.147775E-16	9.720159E-18
3.680000E+03	1.174155E-16	9.783874E-18
3.690000E+03	1.201737E-16	9.854266E-18
3.700000E+03	1.230506E-16	9.931117E-18
3.710000E+03	1.260463E-16	1.001440E-17
3.720000E+03	1.291590E-16	1.010398E-17
3.730000E+03	1.323851E-16	1.019959E-17
3.740000E+03	1.357254E-16	1.030134E-17
3.750000E+03	1.391735E-16	1.040881E-17
3.760000E+03	1.427260E-16	1.052183E-17
3.770000E+03	1.463803E-16	1.064032E-17
3.780000E+03	1.501274E-16	1.076371E-17
3.790000E+03	1.539645E-16	1.089190E-17
3.800000E+03	1.578822E-16	1.102434E-17
3.810000E+03	1.618748E-16	1.116071E-17
3.820000E+03	1.659345E-16	1.130057E-17
3.830000E+03	1.700509E-16	1.144329E-17
3.840000E+03	1.742147E-16	1.158831E-17
3.850000E+03	1.784176E-16	1.173512E-17
3.860000E+03	1.826472E-16	1.188295E-17
3.870000E+03	1.868943E-16	1.203120E-17
3.880000E+03	1.911456E-16	1.217902E-17
3.890000E+03	1.953910E-16	1.232572E-17
3.900000E+03	1.996186E-16	1.247050E-17
3.910000E+03	2.038163E-16	1.261248E-17
3.920000E+03	2.079736E-16	1.275091E-17
3.930000E+03	2.120769E-16	1.288477E-17
3.940000E+03	2.161161E-16	1.301328E-17
3.950000E+03	2.200817E-16	1.313562E-17
3.960000E+03	2.239588E-16	1.325067E-17
3.970000E+03	2.277429E-16	1.335786E-17
3.980000E+03	2.314220E-16	1.345621E-17
3.990000E+03	2.349868E-16	1.354487E-17
4.000000E+03	2.384307E-16	1.362314E-17
4.010000E+03	2.417438E-16	1.369014E-17
4.020000E+03	2.449228E-16	1.374539E-17
4.030000E+03	2.479610E-16	1.378824E-17
4.040000E+03	2.508525E-16	1.381809E-17
4.050000E+03	2.535894E-16	1.383431E-17
4.060000E+03	2.561709E-16	1.383668E-17
4.070000E+03	2.585924E-16	1.382483E-17
4.080000E+03	2.608496E-16	1.379843E-17
4.090000E+03	2.629385E-16	1.375723E-17
4.100000E+03	2.648555E-16	1.370102E-17
4.110000E+03	2.665995E-16	1.362975E-17
4.120000E+03	2.681657E-16	1.354316E-17
4.130000E+03	2.695538E-16	1.344126E-17
4.140000E+03	2.707622E-16	1.332393E-17
4.150000E+03	2.717898E-16	1.319110E-17
4.160000E+03	2.726364E-16	1.304268E-17
4.170000E+03	2.733026E-16	1.287859E-17
4.180000E+03	2.737924E-16	1.269892E-17
4.190000E+03	2.741041E-16	1.250343E-17
4.200000E+03	2.742442E-16	1.229234E-17
4.210000E+03	2.742204E-16	1.206591E-17
4.220000E+03	2.740349E-16	1.182428E-17
4.230000E+03	2.736983E-16	1.156810E-17
4.240000E+03	2.732180E-16	1.129805E-17
4.250000E+03	2.726075E-16	1.101533E-17
4.260000E+03	2.718769E-16	1.072134E-17
4.270000E+03	2.710376E-16	1.041792E-17
4.280000E+03	2.701096E-16	1.010773E-17
4.290000E+03	2.691020E-16	9.793565E-18
4.300000E+03	2.680372E-16	9.479371E-18
4.310000E+03	2.669312E-16	9.169577E-18
4.320000E+03	2.658035E-16	8.869500E-18
4.330000E+03	2.646721E-16	8.585185E-18
4.340000E+03	2.635597E-16	8.323558E-18
4.350000E+03	2.624871E-16	8.092010E-18
4.360000E+03	2.614725E-16	7.898076E-18
4.370000E+03	2.605420E-16	7.749273E-18
4.380000E+03	2.597114E-16	7.651909E-18
4.390000E+03	2.590003E-16	7.610680E-18
4.400000E+03	2.584077E-16	7.624229E-18
4.410000E+03	2.579218E-16	7.685791E-18
4.420000E+03	2.575226E-16	7.786977E-18
4.430000E+03	2.571981E-16	7.919175E-18
4.440000E+03	2.569303E-16	8.073746E-18
4.450000E+03	2.567020E-16	8.242703E-18
4.460000E+03	2.565043E-16	8.419217E-18
4.470000E+03	2.563236E-16	8.597310E-18
4.480000E+03	2.561509E-16	8.772146E-18
4.490000E+03	2.559794E-16	8.939904E-18
4.500000E+03	2.558046E-16	9.097679E-18
4.510000E+03	2.556219E-16	9.243299E-18
4.520000E+03	2.554334E-16	9.375455E-18
4.530000E+03	2.552404E-16	9.493369E-18
4.540000E+03	2.550433E-16	9.596686E-18
4.550000E+03	2.548436E-16	9.685486E-18
4.560000E+03	2.546479E-16	9.760387E-18
4.570000E+03	2.544613E-16	9.822225E-18
4.580000E+03	2.542839E-16	9.871899E-18
4.590000E+03	2.541252E-16	9.910870E-18
4.600000E+03	2.539823E-16	9.940297E-18
4.610000E+03	2.538613E-16	9.961830E-18
4.620000E+03	2.537648E-16	9.977122E-18
4.630000E+03	2.536922E-16	9.987809E-18
4.640000E+03	2.536442E-16	9.995677E-18
4.650000E+03	2.536157E-16	1.000236E-17
4.660000E+03	2.536102E-16	1.000991E-17
4.670000E+03	2.536185E-16	1.001987E-17
4.680000E+03	2.536411E-16	1.003413E-17
4.690000E+03	2.536733E-16	1.005431E-17
4.700000E+03	2.537136E-16	1.008194E-17
4.710000E+03	2.537568E-16	1.011812E-17
4.720000E+03	2.538038E-16	1.016387E-17
4.730000E+03	2.538529E-16	1.021944E-17
4.740000E+03	2.539129E-16	1.028464E-17
4.750000E+03	2.539846E-16	1.035857E-17
4.760000E+03	2.540775E-16	1.044038E-17
4.770000E+03	2.541996E-16	1.052900E-17
4.780000E+03	2.543567E-16	1.062323E-17
4.790000E+03	2.545599E-16	1.072211E-17
4.800000E+03	2.548148E-16	1.082453E-17
4.810000E+03	2.551287E-16	1.092960E-17
4.820000E+03	2.555080E-16	1.103657E-17
4.830000E+03	2.559577E-16	1.114483E-17
4.840000E+03	2.564789E-16	1.125380E-17
4.850000E+03	2.570789E-16	1.136335E-17
4.860000E+03	2.577508E-16	1.147291E-17
4.870000E+03	2.584989E-16	1.158255E-17
4.880000E+03	2.593187E-16	1.169208E-17
4.890000E+03	2.602093E-16	1.180155E-17
4.900000E+03	2.611611E-16	1.191070E-17
4.910000E+03	2.621711E-16	1.201957E-17
4.920000E+03	2.632332E-16	1.212807E-17
4.930000E+03	2.643379E-16	1.223593E-17
4.940000E+03	2.654806E-16	1.234307E-17
4.950000E+03	2.666513E-16	1.244910E-17
4.960000E+03	2.678453E-16	1.255384E-17
4.970000E+03	2.690500E-16	1.265669E-17
4.980000E+03	2.702641E-16	1.275755E-17
4.990000E+03	2.714758E-16	1.285578E-17
5.000000E+03	2.726823E-16	1.295119E-17
5.010000E+03	2.738761E-16	1.304333E-17
5.020000E+03	2.750560E-16	1.313206E-17
5.030000E+03	2.762191E-16	1.321720E-17
5.040000E+03	2.773580E-16	1.329833E-17
5.050000E+03	2.784743E-16	1.337552E-17
5.060000E+03	2.795681E-16	1.344873E-17
5.070000E+03	2.806405E-16	1.351800E-17
5.080000E+03	2.816876E-16	1.358311E-17
5.090000E+03	2.827177E-16	1.364442E-17
5.100000E+03	2.837338E-16	1.370205E-17
5.110000E+03	2.847311E-16	1.375569E-17
5.120000E+03	2.857219E-16	1.380586E-17
5.130000E+03	2.867044E-16	1.385240E-17
5.140000E+03	2.876824E-16	1.389541E-17
5.150000E+03	2.886591E-16	1.393500E-17
5.160000E+03	2.896343E-16	1.397113E-17
5.170000E+03	2.906129E-16	1.400401E-17
5.180000E+03	2.915929E-16	1.403360E-17
5.190000E+03	2.925741E-16	1.405997E-17
5.200000E+03	2.935550E-16	1.408314E-17
5.210000E+03	2.945267E-16	1.410284E-17
5.220000E+03	2.954907E-16	1.411931E-17
5.230000E+03	2.964381E-16	1.413230E-17
5.240000E+03	2.973582E-16	1.414151E-17
5.250000E+03	2.982421E-16	1.414671E-17
5.260000E+03	2.990791E-16	1.414760E-17
5.270000E+03	2.998543E-16	1.414368E-17
5.280000E+03	3.005576E-16	1.413469E-17
5.290000E+03	3.011690E-16	1.411990E-17
5.300000E+03	3.016766E-16	1.409898E-17
5.310000E+03	3.020591E-16	1.407116E-17
5.320000E+03	3.023041E-16	1.403614E-17
5.330000E+03	3.023934E-16	1.399335E-17
5.340000E+03	3.023123E-16	1.394241E-17
5.350000E+03	3.020472E-16	1.388307E-17
5.360000E+03	3.015798E-16	1.381487E-17
5.370000E+03	3.009026E-16	1.373792E-17
5.380000E+03	3.000044E-16	1.365220E-17
5.390000E+03	2.988796E-16	1.355802E-17
5.400000E+03	2.975197E-16	1.345558E-17
5.410000E+03	2.959314E-16	1.334582E-17
5.420000E+03	2.941100E-16	1.322920E-17
5.430000E+03	2.920636E-16	1.310675E-17
5.440000E+03	2.898039E-16	1.297965E-17
5.450000E+03	2.873322E-16	1.284856E-17
5.460000E+03	2.846538E-16	1.271427E-17
5.470000E+03	2.817777E-16	1.257762E-17
5.480000E+03	2.787418E-16	1.244063E-17
5.490000E+03	2.755833E-16	1.230513E-17
5.500000E+03	2.723350E-16	1.217239E-17
5.510000E+03	2.690293E-16	1.204286E-17
5.520000E+03	2.656995E-16	1.191690E-17
5.530000E+03	2.623743E-16	1.179470E-17
5.540000E+03	2.590933E-16	1.167702E-17
5.550000E+03	2.558853E-16	1.156431E-17
5.560000E+03	2.527815E-16	1.145724E-17
5.570000E+03	2.498171E-16	1.135680E-17
5.580000E+03	2.470182E-16	1.126375E-17
5.590000E+03	2.444140E-16	1.117908E-17
5.600000E+03	2.420311E-16	1.110378E-17
5.610000E+03	2.398909E-16	1.103864E-17
5.620000E+03	2.380137E-16	1.098449E-17
5.630000E+03	2.364136E-16	1.094186E-17
5.640000E+03	2.351008E-16	1.091114E-17
5.650000E+03	2.340835E-16	1.089259E-17
5.660000E+03	2.333608E-16	1.088604E-17
5.670000E+03	2.329372E-16	1.089153E-17
5.680000E+03	2.328009E-16	1.090832E-17
5.690000E+03	2.329454E-16	1.093591E-17
5.700000E+03	2.333561E-16	1.097338E-17
5.710000E+03	2.340119E-16	1.101953E-17
5.720000E+03	2.348965E-16	1.107335E-17
5.730000E+03	2.359834E-16	1.113341E-17
5.740000E+03	2.372491E-16	1.119845E-17
5.750000E+03	2.386662E-16	1.126703E-17
5.760000E+03	2.402092E-16	1.133786E-17
5.770000E+03	2.418473E-16	1.140945E-17
5.780000E+03	2.435583E-16	1.148070E-17
5.790000E+03	2.453107E-16	1.155013E-17
5.800000E+03	2.470828E-16	1.161669E-17
5.810000E+03	2.488549E-16	1.167943E-17
5.820000E+03	2.506077E-16	1.173740E-17
5.830000E+03	2.523217E-16	1.178957E-17
5.840000E+03	2.539857E-16	1.183529E-17
5.850000E+03	2.555915E-16	1.187399E-17
5.860000E+03	2.571251E-16	1.190476E-17
5.870000E+03	2.585833E-16	1.192716E-17
5.880000E+03	2.599650E-16	1.194079E-17
5.890000E+03	2.612626E-16	1.194491E-17
5.900000E+03	2.624812E-16	1.193935E-17
5.910000E+03	2.636218E-16	1.192372E-17
5.920000E+03	2.646801E-16	1.189742E-17
5.930000E+03	2.656616E-16	1.186029E-17
5.940000E+03	2.665722E-16	1.181226E-17
5.950000E+03	2.674095E-16	1.175293E-17
5.960000E+03	2.681801E-16	1.168240E-17
5.970000E+03	2.688881E-16	1.160074E-17
5.980000E+03	2.695347E-16	1.150802E-17
5.990000E+03	2.701245E-16	1.140453E-17
6.000000E+03	2.706623E-16	1.129073E-17
6.010000E+03	2.711501E-16	1.116705E-17
6.020000E+03	2.715969E-16	1.103432E-17
6.030000E+03	2.720056E-16	1.089325E-17
6.040000E+03	2.723830E-16	1.074483E-17
6.050000E+03	2.727300E-16	1.058995E-17
6.060000E+03	2.730613E-16	1.043021E-17
6.070000E+03	2.733760E-16	1.026679E-17
6.080000E+03	2.736901E-16	1.010176E-17
6.090000E+03	2.740043E-16	9.936877E-18
6.100000E+03	2.743364E-16	9.774873E-18
6.110000E+03	2.746882E-16	9.618282E-18
6.120000E+03	2.750754E-16	9.470544E-18
6.130000E+03	2.755108E-16	9.335416E-18
6.140000E+03	2.760040E-16	9.216939E-18
6.150000E+03	2.765642E-16	9.119461E-18
6.160000E+03	2.772069E-16	9.047688E-18
6.170000E+03	2.779432E-16	9.006100E-18
6.180000E+03	2.787825E-16	8.998756E-18
6.190000E+03	2.797318E-16	9.028936E-18
6.200000E+03	2.807995E-16	9.097947E-18
6.210000E+03	2.819821E-16	9.203984E-18
6.220000E+03	2.832624E-16	9.343738E-18
6.230000E+03	2.846359E-16	9.513668E-18
6.240000E+03	2.860860E-16	9.709490E-18
6.250000E+03	2.875989E-16	9.926916E-18
6.260000E+03	2.891682E-16	1.016202E-17
6.270000E+03	2.907801E-16	1.041089E-17
6.280000E+03	2.924255E-16	1.067007E-17
6.290000E+03	2.940917E-16	1.093637E-17
6.300000E+03	2.957669E-16	1.120700E-17
6.310000E+03	2.974521E-16	1.147999E-17
6.320000E+03	2.991291E-16	1.175300E-17
6.330000E+03	3.007969E-16	1.202463E-17
6.340000E+03	3.024430E-16	1.229326E-17
6.350000E+03	3.040678E-16	1.255806E-17
6.360000E+03	3.056603E-16	1.281787E-17
6.370000E+03	3.072183E-16	1.307207E-17
6.380000E+03	3.087406E-16	1.332021E-17
6.390000E+03	3.102129E-16	1.356140E-17
6.400000E+03	3.116394E-16	1.379560E-17
6.410000E+03	3.130154E-16	1.402248E-17
6.420000E+03	3.143368E-16	1.424180E-17
6.430000E+03	3.156043E-16	1.445358E-17
6.440000E+03	3.168190E-16	1.465787E-17
6.450000E+03	3.179824E-16	1.485483E-17
6.460000E+03	3.190916E-16	1.504439E-17
6.470000E+03	3.201438E-16	1.522651E-17
6.480000E+03	3.211415E-16	1.540143E-17
6.490000E+03	3.220729E-16	1.556866E-17
6.500000E+03	3.229458E-16	1.572868E-17
6.510000E+03	3.237587E-16	1.588149E-17
6.520000E+03	3.245104E-16	1.602714E-17
6.530000E+03	3.252003E-16	1.616564E-17
6.540000E+03	3.258279E-16	1.629703E-17
6.550000E+03	3.263983E-16	1.642163E-17
6.560000E+03	3.269067E-16	1.653925E-17
6.570000E+03	3.273592E-16	1.665024E-17
6.580000E+03	3.277568E-16	1.675469E-17
6.590000E+03	3.280958E-16	1.685247E-17
6.600000E+03	3.283830E-16	1.694396E-17
6.610000E+03	3.286205E-16	1.702933E-17
6.620000E+03	3.288104E-16	1.710874E-17
6.630000E+03	3.289550E-16	1.718236E-17
6.640000E+03	3.290565E-16	1.725038E-17
6.650000E+03	3.291172E-16	1.731297E-17
6.660000E+03	3.291337E-16	1.737004E-17
6.670000E+03	3.291134E-16	1.742206E-17
6.680000E+03	3.290524E-16	1.746890E-17
6.690000E+03	3.289579E-16	1.751102E-17
6.700000E+03	3.288311E-16	1.754858E-17
6.710000E+03	3.286669E-16	1.758140E-17
6.720000E+03	3.284660E-16	1.760959E-17
6.730000E+03	3.282342E-16	1.763355E-17
6.740000E+03	3.279599E-16	1.765271E-17
6.750000E+03	3.276542E-16	1.766773E-17
6.760000E+03	3.273106E-16	1.767830E-17
6.770000E+03	3.269225E-16	1.768408E-17
6.780000E+03	3.264949E-16	1.768531E-17
6.790000E+03	3.260266E-16	1.768194E-17
6.800000E+03	3.255110E-16	1.767351E-17
6.810000E+03	3.249529E-16	1.766023E-17
6.820000E+03	3.243457E-16	1.764164E-17
6.830000E+03	3.236946E-16	1.761791E-17
6.840000E+03	3.229873E-16	1.758826E-17
6.850000E+03	3.222357E-16	1.755318E-17
6.860000E+03	3.214277E-16	1.751194E-17
6.870000E+03	3.205757E-16	1.746508E-17
6.880000E+03	3.196683E-16	1.741194E-17
6.890000E+03	3.187124E-16	1.735282E-17
6.900000E+03	3.177030E-16	1.728746E-17
6.910000E+03	3.166473E-16	1.721629E-17
6.920000E+03	3.155410E-16	1.713910E-17
6.930000E+03	3.143914E-16	1.705642E-17
6.940000E+03	3.131882E-16	1.696780E-17
6.950000E+03	3.119452E-16	1.687412E-17
6.960000E+03	3.106580E-16	1.677528E-17
6.970000E+03	3.093225E-16	1.667122E-17
6.980000E+03	3.079522E-16	1.656282E-17
6.990000E+03	3.065369E-16	1.644966E-17
7.000000E+03	3.050842E-16	1.633228E-17
7.010000E+03	3.035900E-16	1.621056E-17
7.020000E+03	3.020616E-16	1.608500E-17
7.030000E+03	3.004950E-16	1.595547E-17
7.040000E+03	2.988977E-16	1.582242E-17
7.050000E+03	2.972597E-16	1.568538E-17
7.060000E+03	2.955946E-16	1.554510E-17
7.070000E+03	2.938926E-16	1.540107E-17
7.080000E+03	2.921674E-16	1.525402E-17
7.090000E+03	2.904095E-16	1.510341E-17
7.100000E+03	2.886270E-16	1.494965E-17
7.110000E+03	2.868164E-16	1.479249E-17
7.120000E+03	2.849862E-16	1.463230E-17
7.130000E+03	2.831391E-16	1.446911E-17
7.140000E+03	2.812664E-16	1.430238E-17
7.150000E+03	2.793826E-16	1.413273E-17
7.160000E+03	2.774908E-16	1.396016E-17
7.170000E+03	2.755829E-16	1.378413E-17
7.180000E+03	2.736679E-16	1.360493E-17
7.190000E+03	2.717490E-16	1.342256E-17
7.200000E+03	2.698240E-16	1.323677E-17
7.210000E+03	2.679073E-16	1.304811E-17
7.220000E+03	2.659909E-16	1.285606E-17
7.230000E+03	2.640778E-16	1.266066E-17
7.240000E+03	2.621762E-16	1.246220E-17
7.250000E+03	2.602777E-16	1.226023E-17
7.260000E+03	2.583952E-16	1.205534E-17
7.270000E+03	2.565253E-16	1.184739E-17
7.280000E+03	2.546696E-16	1.163651E-17
7.290000E+03	2.528240E-16	1.142260E-17
7.300000E+03	2.509897E-16	1.120589E-17
7.310000E+03	2.491729E-16	1.098684E-17
7.320000E+03	2.473694E-16	1.076548E-17
7.330000E+03	2.455748E-16	1.054193E-17
7.340000E+03	2.437903E-16	1.031658E-17
7.350000E+03	2.420172E-16	1.008988E-17
7.360000E+03	2.402571E-16	9.862401E-18
7.370000E+03	2.385070E-16	9.634591E-18
7.380000E+03	2.367642E-16	9.407075E-18
7.390000E+03	2.350320E-16	9.180874E-18
7.400000E+03	2.333039E-16	8.956849E-18
7.410000E+03	2.315943E-16	8.736919E-18
7.420000E+03	2.298932E-16	8.522371E-18
7.430000E+03	2.282063E-16	8.315437E-18
7.440000E+03	2.265448E-16	8.118903E-18
7.450000E+03	2.249205E-16	7.935925E-18
7.460000E+03	2.233357E-16	7.769647E-18
7.470000E+03	2.218080E-16	7.623978E-18
7.480000E+03	2.203452E-16	7.502571E-18
7.490000E+03	2.189651E-16	7.409270E-18
7.500000E+03	2.176702E-16	7.347009E-18
7.510000E+03	2.164770E-16	7.318462E-18
7.520000E+03	2.153867E-16	7.323712E-18
7.530000E+03	2.143932E-16	7.360070E-18
7.540000E+03	2.134945E-16	7.424137E-18
7.550000E+03	2.126788E-16	7.511715E-18
7.560000E+03	2.119491E-16	7.618920E-18
7.570000E+03	2.112943E-16	7.741421E-18
7.580000E+03	2.107089E-16	7.875282E-18
7.590000E+03	2.101928E-16	8.017113E-18
7.600000E+03	2.097416E-16	8.163792E-18
7.610000E+03	2.093517E-16	8.312679E-18
7.620000E+03	2.090151E-16	8.461430E-18
7.630000E+03	2.087384E-16	8.608753E-18
7.640000E+03	2.085093E-16	8.753022E-18
7.650000E+03	2.083352E-16	8.893802E-18
7.660000E+03	2.082040E-16	9.030192E-18
7.670000E+03	2.081230E-16	9.162397E-18
7.680000E+03	2.080805E-16	9.290010E-18
7.690000E+03	2.080837E-16	9.413633E-18
7.700000E+03	2.081254E-16	9.533341E-18
7.710000E+03	2.082033E-16	9.649478E-18
7.720000E+03	2.083099E-16	9.762183E-18
7.730000E+03	2.084524E-16	9.872265E-18
7.740000E+03	2.086234E-16	9.979822E-18
7.750000E+03	2.088200E-16	1.008513E-17
7.760000E+03	2.090347E-16	1.018817E-17
