#wls	flux	fluxerr
1.600000E+03	1.097711E-16	1.063519E-16
1.640000E+03	1.135653E-16	1.081974E-16
1.680000E+03	1.172850E-16	1.098099E-16
1.720000E+03	1.208800E-16	1.111430E-16
1.760000E+03	1.243423E-16	1.121918E-16
1.800000E+03	1.276138E-16	1.129086E-16
1.840000E+03	1.306564E-16	1.132670E-16
1.880000E+03	1.334510E-16	1.132604E-16
1.920000E+03	1.359309E-16	1.128446E-16
1.960000E+03	1.380614E-16	1.120069E-16
2.000000E+03	1.397852E-16	1.107205E-16
2.040000E+03	1.410668E-16	1.089806E-16
2.080000E+03	1.418328E-16	1.067577E-16
2.120000E+03	1.420273E-16	1.040421E-16
2.160000E+03	1.415942E-16	1.008298E-16
2.200000E+03	1.404486E-16	9.710252E-17
2.240000E+03	1.385214E-16	9.286128E-17
2.280000E+03	1.358011E-16	8.815147E-17
2.320000E+03	1.323251E-16	8.305160E-17
2.360000E+03	1.282149E-16	7.768902E-17
2.400000E+03	1.235711E-16	7.216917E-17
2.440000E+03	1.184825E-16	6.658287E-17
2.480000E+03	1.130437E-16	6.101635E-17
2.520000E+03	1.073136E-16	5.552917E-17
2.560000E+03	1.013618E-16	5.018085E-17
2.600000E+03	9.524910E-17	4.502017E-17
2.640000E+03	8.904080E-17	4.009205E-17
2.680000E+03	8.279244E-17	3.543068E-17
2.720000E+03	7.656159E-17	3.106536E-17
2.760000E+03	7.040398E-17	2.701863E-17
2.800000E+03	6.437301E-17	2.330626E-17
2.840000E+03	5.852078E-17	1.993787E-17
2.880000E+03	5.289871E-17	1.691728E-17
2.920000E+03	4.755376E-17	1.424160E-17
2.960000E+03	4.252775E-17	1.190171E-17
3.000000E+03	3.785342E-17	9.881992E-18
3.010000E+03	3.674362E-17	9.424958E-18
3.020000E+03	3.565661E-17	8.986018E-18
3.030000E+03	3.459405E-17	8.565151E-18
3.040000E+03	3.355512E-17	8.161700E-18
3.050000E+03	3.254052E-17	7.775388E-18
3.060000E+03	3.155084E-17	7.405897E-18
3.070000E+03	3.058460E-17	7.052426E-18
3.080000E+03	2.964362E-17	6.714945E-18
3.090000E+03	2.872647E-17	6.392670E-18
3.100000E+03	2.783415E-17	6.085378E-18
3.110000E+03	2.696588E-17	5.792443E-18
3.120000E+03	2.612145E-17	5.513382E-18
3.130000E+03	2.530165E-17	5.247921E-18
3.140000E+03	2.450523E-17	4.995360E-18
3.150000E+03	2.373332E-17	4.755501E-18
3.160000E+03	2.298424E-17	4.527586E-18
3.170000E+03	2.225902E-17	4.311400E-18
3.180000E+03	2.155647E-17	4.106308E-18
3.190000E+03	2.087707E-17	3.911999E-18
3.200000E+03	2.022006E-17	3.727943E-18
3.210000E+03	1.958542E-17	3.553758E-18
3.220000E+03	1.897276E-17	3.389003E-18
3.230000E+03	1.838166E-17	3.233247E-18
3.240000E+03	1.781141E-17	3.086019E-18
3.250000E+03	1.726219E-17	2.947019E-18
3.260000E+03	1.673325E-17	2.815798E-18
3.270000E+03	1.622442E-17	2.692017E-18
3.280000E+03	1.573497E-17	2.575260E-18
3.290000E+03	1.526445E-17	2.465170E-18
3.300000E+03	1.481262E-17	2.361441E-18
3.310000E+03	1.437877E-17	2.263701E-18
3.320000E+03	1.396265E-17	2.171666E-18
3.330000E+03	1.356375E-17	2.085026E-18
3.340000E+03	1.318120E-17	2.003427E-18
3.350000E+03	1.281493E-17	1.926650E-18
3.360000E+03	1.246425E-17	1.854399E-18
3.370000E+03	1.212872E-17	1.786419E-18
3.380000E+03	1.180785E-17	1.722470E-18
3.390000E+03	1.150089E-17	1.662277E-18
3.400000E+03	1.120771E-17	1.605672E-18
3.410000E+03	1.092773E-17	1.552427E-18
3.420000E+03	1.066039E-17	1.502331E-18
3.430000E+03	1.040528E-17	1.455202E-18
3.440000E+03	1.016202E-17	1.410872E-18
3.450000E+03	9.929982E-18	1.369146E-18
3.460000E+03	9.708930E-18	1.329893E-18
3.470000E+03	9.498286E-18	1.292941E-18
3.480000E+03	9.297729E-18	1.258162E-18
3.490000E+03	9.106839E-18	1.225421E-18
3.500000E+03	8.925219E-18	1.194590E-18
3.510000E+03	8.752493E-18	1.165554E-18
3.520000E+03	8.588304E-18	1.138203E-18
3.530000E+03	8.432222E-18	1.112423E-18
3.540000E+03	8.283845E-18	1.088110E-18
3.550000E+03	8.142884E-18	1.065179E-18
3.560000E+03	8.008981E-18	1.043539E-18
3.570000E+03	7.881881E-18	1.023118E-18
3.580000E+03	7.761183E-18	1.003826E-18
3.590000E+03	7.646667E-18	9.856038E-19
3.600000E+03	7.538049E-18	9.683832E-19
3.610000E+03	7.435209E-18	9.521214E-19
3.620000E+03	7.337810E-18	9.367502E-19
3.630000E+03	7.245678E-18	9.222243E-19
3.640000E+03	7.158438E-18	9.084752E-19
3.650000E+03	7.075944E-18	8.954651E-19
3.660000E+03	6.997985E-18	8.831503E-19
3.670000E+03	6.924363E-18	8.714896E-19
3.680000E+03	6.854949E-18	8.604527E-19
3.690000E+03	6.789620E-18	8.500107E-19
3.700000E+03	6.728191E-18	8.401284E-19
3.710000E+03	6.670609E-18	8.307879E-19
3.720000E+03	6.616697E-18	8.219568E-19
3.730000E+03	6.566460E-18	8.136264E-19
3.740000E+03	6.519782E-18	8.057737E-19
3.750000E+03	6.476553E-18	7.983764E-19
3.760000E+03	6.436717E-18	7.914204E-19
3.770000E+03	6.400274E-18	7.848985E-19
3.780000E+03	6.367113E-18	7.787901E-19
3.790000E+03	6.337231E-18	7.730887E-19
3.800000E+03	6.310517E-18	7.677747E-19
3.810000E+03	6.286915E-18	7.628355E-19
3.820000E+03	6.266421E-18	7.582651E-19
3.830000E+03	6.249032E-18	7.540578E-19
3.840000E+03	6.234636E-18	7.501951E-19
3.850000E+03	6.223282E-18	7.466776E-19
3.860000E+03	6.214808E-18	7.434813E-19
3.870000E+03	6.209313E-18	7.406128E-19
3.880000E+03	6.206636E-18	7.380487E-19
3.890000E+03	6.206874E-18	7.357956E-19
3.900000E+03	6.209920E-18	7.338361E-19
3.910000E+03	6.215767E-18	7.321650E-19
3.920000E+03	6.224358E-18	7.307709E-19
3.930000E+03	6.235688E-18	7.296487E-19
3.940000E+03	6.249701E-18	7.287872E-19
3.950000E+03	6.266440E-18	7.281871E-19
3.960000E+03	6.285799E-18	7.278315E-19
3.970000E+03	6.307773E-18	7.277151E-19
3.980000E+03	6.332306E-18	7.278271E-19
3.990000E+03	6.359444E-18	7.281682E-19
4.000000E+03	6.389130E-18	7.287276E-19
4.010000E+03	6.421311E-18	7.294946E-19
4.020000E+03	6.455932E-18	7.304587E-19
4.030000E+03	6.493041E-18	7.316210E-19
4.040000E+03	6.532532E-18	7.329655E-19
4.050000E+03	6.574457E-18	7.344937E-19
4.060000E+03	6.618711E-18	7.361901E-19
4.070000E+03	6.665293E-18	7.380507E-19
4.080000E+03	6.714205E-18	7.400723E-19
4.090000E+03	6.765397E-18	7.422457E-19
4.100000E+03	6.818818E-18	7.445625E-19
4.110000E+03	6.874419E-18	7.470144E-19
4.120000E+03	6.932257E-18	7.496051E-19
4.130000E+03	6.992233E-18	7.523216E-19
4.140000E+03	7.054351E-18	7.551627E-19
4.150000E+03	7.118510E-18	7.581161E-19
4.160000E+03	7.184718E-18	7.611818E-19
4.170000E+03	7.252985E-18	7.643605E-19
4.180000E+03	7.323208E-18	7.676413E-19
4.190000E+03	7.395399E-18	7.710263E-19
4.200000E+03	7.469454E-18	7.745058E-19
4.210000E+03	7.545384E-18	7.780833E-19
4.220000E+03	7.623084E-18	7.817504E-19
4.230000E+03	7.702567E-18	7.855120E-19
4.240000E+03	7.783724E-18	7.893611E-19
4.250000E+03	7.866505E-18	7.932978E-19
4.260000E+03	7.950797E-18	7.973163E-19
4.270000E+03	8.036610E-18	8.014241E-19
4.280000E+03	8.123825E-18	8.056165E-19
4.290000E+03	8.212386E-18	8.098955E-19
4.300000E+03	8.302166E-18	8.142569E-19
4.310000E+03	8.393037E-18	8.186964E-19
4.320000E+03	8.484927E-18	8.232163E-19
4.330000E+03	8.577767E-18	8.278181E-19
4.340000E+03	8.671411E-18	8.324965E-19
4.350000E+03	8.765779E-18	8.372520E-19
4.360000E+03	8.860716E-18	8.420771E-19
4.370000E+03	8.956202E-18	8.469767E-19
4.380000E+03	9.052146E-18	8.519477E-19
4.390000E+03	9.148674E-18	8.570060E-19
4.400000E+03	9.245694E-18	8.621455E-19
4.410000E+03	9.343263E-18	8.673724E-19
4.420000E+03	9.441364E-18	8.726845E-19
4.430000E+03	9.540138E-18	8.780927E-19
4.440000E+03	9.639498E-18	8.835853E-19
4.450000E+03	9.739432E-18	8.891567E-19
4.460000E+03	9.840016E-18	8.948077E-19
4.470000E+03	9.941244E-18	9.005317E-19
4.480000E+03	1.004312E-17	9.063213E-19
4.490000E+03	1.014555E-17	9.121616E-19
4.500000E+03	1.024864E-17	9.180529E-19
4.510000E+03	1.035230E-17	9.239806E-19
4.520000E+03	1.045653E-17	9.299382E-19
4.530000E+03	1.056136E-17	9.359202E-19
4.540000E+03	1.066661E-17	9.419057E-19
4.550000E+03	1.077239E-17	9.478988E-19
4.560000E+03	1.087864E-17	9.538888E-19
4.570000E+03	1.098537E-17	9.598743E-19
4.580000E+03	1.109242E-17	9.658385E-19
4.590000E+03	1.119991E-17	9.717906E-19
4.600000E+03	1.130770E-17	9.777162E-19
4.610000E+03	1.141591E-17	9.836272E-19
4.620000E+03	1.152439E-17	9.895110E-19
4.630000E+03	1.163318E-17	9.953731E-19
4.640000E+03	1.174225E-17	1.001211E-18
4.650000E+03	1.185174E-17	1.007042E-18
4.660000E+03	1.196153E-17	1.012855E-18
4.670000E+03	1.207179E-17	1.018668E-18
4.680000E+03	1.218249E-17	1.024481E-18
4.690000E+03	1.229362E-17	1.030295E-18
4.700000E+03	1.240537E-17	1.036128E-18
4.710000E+03	1.251763E-17	1.041972E-18
4.720000E+03	1.263051E-17	1.047837E-18
4.730000E+03	1.274387E-17	1.053713E-18
4.740000E+03	1.285785E-17	1.059611E-18
4.750000E+03	1.297221E-17	1.065512E-18
4.760000E+03	1.308706E-17	1.071425E-18
4.770000E+03	1.320229E-17	1.077341E-18
4.780000E+03	1.331803E-17	1.083271E-18
4.790000E+03	1.343415E-17	1.089205E-18
4.800000E+03	1.355067E-17	1.095145E-18
4.810000E+03	1.366759E-17	1.101094E-18
4.820000E+03	1.378492E-17	1.107054E-18
4.830000E+03	1.390265E-17	1.113028E-18
4.840000E+03	1.402066E-17	1.119012E-18
4.850000E+03	1.413909E-17	1.125019E-18
4.860000E+03	1.425793E-17	1.131056E-18
4.870000E+03	1.437705E-17	1.137118E-18
4.880000E+03	1.449643E-17	1.143210E-18
4.890000E+03	1.461620E-17	1.149350E-18
4.900000E+03	1.473608E-17	1.155520E-18
4.910000E+03	1.485631E-17	1.161746E-18
4.920000E+03	1.497673E-17	1.168022E-18
4.930000E+03	1.509717E-17	1.174336E-18
4.940000E+03	1.521772E-17	1.180701E-18
4.950000E+03	1.533834E-17	1.187113E-18
4.960000E+03	1.545882E-17	1.193558E-18
4.970000E+03	1.557924E-17	1.200040E-18
4.980000E+03	1.569923E-17	1.206527E-18
4.990000E+03	1.581899E-17	1.213032E-18
5.000000E+03	1.593828E-17	1.219529E-18
5.010000E+03	1.605683E-17	1.225993E-18
5.020000E+03	1.617467E-17	1.232419E-18
5.030000E+03	1.629151E-17	1.238776E-18
5.040000E+03	1.640720E-17	1.245047E-18
5.050000E+03	1.652159E-17	1.251210E-18
5.060000E+03	1.663449E-17	1.257246E-18
5.070000E+03	1.674558E-17	1.263122E-18
5.080000E+03	1.685482E-17	1.268828E-18
5.090000E+03	1.696184E-17	1.274334E-18
5.100000E+03	1.706643E-17	1.279619E-18
5.110000E+03	1.716822E-17	1.284651E-18
5.120000E+03	1.726712E-17	1.289426E-18
5.130000E+03	1.736258E-17	1.293901E-18
5.140000E+03	1.745468E-17	1.298089E-18
5.150000E+03	1.754285E-17	1.301950E-18
5.160000E+03	1.762700E-17	1.305487E-18
5.170000E+03	1.770671E-17	1.308679E-18
5.180000E+03	1.778155E-17	1.311508E-18
5.190000E+03	1.785144E-17	1.313983E-18
5.200000E+03	1.791594E-17	1.316090E-18
5.210000E+03	1.797481E-17	1.317830E-18
5.220000E+03	1.802780E-17	1.319207E-18
5.230000E+03	1.807448E-17	1.320213E-18
5.240000E+03	1.811461E-17	1.320855E-18
5.250000E+03	1.814779E-17	1.321128E-18
5.260000E+03	1.817398E-17	1.321055E-18
5.270000E+03	1.819281E-17	1.320633E-18
5.280000E+03	1.820407E-17	1.319871E-18
5.290000E+03	1.820762E-17	1.318781E-18
5.300000E+03	1.820314E-17	1.317361E-18
5.310000E+03	1.819049E-17	1.315622E-18
5.320000E+03	1.816962E-17	1.313574E-18
5.330000E+03	1.814046E-17	1.311228E-18
5.340000E+03	1.810282E-17	1.308583E-18
5.350000E+03	1.805691E-17	1.305661E-18
5.360000E+03	1.800282E-17	1.302474E-18
5.370000E+03	1.794064E-17	1.299032E-18
5.380000E+03	1.787039E-17	1.295336E-18
5.390000E+03	1.779262E-17	1.291422E-18
5.400000E+03	1.770744E-17	1.287291E-18
5.410000E+03	1.761551E-17	1.282982E-18
5.420000E+03	1.751704E-17	1.278497E-18
5.430000E+03	1.741261E-17	1.273863E-18
5.440000E+03	1.730270E-17	1.269098E-18
5.450000E+03	1.718816E-17	1.264243E-18
5.460000E+03	1.706938E-17	1.259305E-18
5.470000E+03	1.694678E-17	1.254291E-18
5.480000E+03	1.682065E-17	1.249195E-18
5.490000E+03	1.669167E-17	1.244040E-18
5.500000E+03	1.656019E-17	1.238824E-18
5.510000E+03	1.642676E-17	1.233558E-18
5.520000E+03	1.629195E-17	1.228255E-18
5.530000E+03	1.615634E-17	1.222927E-18
5.540000E+03	1.602052E-17	1.217590E-18
5.550000E+03	1.588522E-17	1.212270E-18
5.560000E+03	1.575101E-17	1.206983E-18
5.570000E+03	1.561877E-17	1.201770E-18
5.580000E+03	1.548886E-17	1.196635E-18
5.590000E+03	1.536226E-17	1.191632E-18
5.600000E+03	1.523927E-17	1.186766E-18
5.610000E+03	1.512064E-17	1.182079E-18
5.620000E+03	1.500707E-17	1.177613E-18
5.630000E+03	1.489874E-17	1.173373E-18
5.640000E+03	1.479658E-17	1.169424E-18
5.650000E+03	1.470085E-17	1.165784E-18
5.660000E+03	1.461176E-17	1.162469E-18
5.670000E+03	1.453009E-17	1.159542E-18
5.680000E+03	1.445583E-17	1.157007E-18
5.690000E+03	1.438938E-17	1.154900E-18
5.700000E+03	1.433109E-17	1.153259E-18
5.710000E+03	1.428114E-17	1.152105E-18
5.720000E+03	1.423969E-17	1.151461E-18
5.730000E+03	1.420686E-17	1.151345E-18
5.740000E+03	1.418290E-17	1.151786E-18
5.750000E+03	1.416806E-17	1.152812E-18
5.760000E+03	1.416211E-17	1.154411E-18
5.770000E+03	1.416555E-17	1.156630E-18
5.780000E+03	1.417814E-17	1.159452E-18
5.790000E+03	1.420025E-17	1.162906E-18
5.800000E+03	1.423175E-17	1.166984E-18
5.810000E+03	1.427284E-17	1.171698E-18
5.820000E+03	1.432357E-17	1.177045E-18
5.830000E+03	1.438414E-17	1.183033E-18
5.840000E+03	1.445442E-17	1.189643E-18
5.850000E+03	1.453447E-17	1.196867E-18
5.860000E+03	1.462447E-17	1.204704E-18
5.870000E+03	1.472461E-17	1.213157E-18
5.880000E+03	1.483462E-17	1.222184E-18
5.890000E+03	1.495484E-17	1.231797E-18
5.900000E+03	1.508512E-17	1.241965E-18
5.910000E+03	1.522564E-17	1.252684E-18
5.920000E+03	1.537641E-17	1.263936E-18
5.930000E+03	1.553722E-17	1.275689E-18
5.940000E+03	1.570824E-17	1.287938E-18
5.950000E+03	1.588940E-17	1.300663E-18
5.960000E+03	1.608045E-17	1.313832E-18
5.970000E+03	1.628166E-17	1.327456E-18
5.980000E+03	1.649255E-17	1.341489E-18
5.990000E+03	1.671315E-17	1.355928E-18
6.000000E+03	1.694326E-17	1.370761E-18
6.010000E+03	1.718249E-17	1.385957E-18
6.020000E+03	1.743076E-17	1.401521E-18
6.030000E+03	1.768737E-17	1.417411E-18
6.040000E+03	1.795239E-17	1.433654E-18
6.050000E+03	1.822500E-17	1.450212E-18
6.060000E+03	1.850500E-17	1.467099E-18
6.070000E+03	1.879166E-17	1.484300E-18
6.080000E+03	1.908447E-17	1.501820E-18
6.090000E+03	1.938261E-17	1.519649E-18
6.100000E+03	1.968521E-17	1.537776E-18
6.110000E+03	1.999182E-17	1.556234E-18
6.120000E+03	2.030099E-17	1.574980E-18
6.130000E+03	2.061219E-17	1.594047E-18
6.140000E+03	2.092409E-17	1.613411E-18
6.150000E+03	2.123586E-17	1.633086E-18
6.160000E+03	2.154558E-17	1.653000E-18
6.170000E+03	2.185260E-17	1.673178E-18
6.180000E+03	2.215524E-17	1.693553E-18
6.190000E+03	2.245231E-17	1.714092E-18
6.200000E+03	2.274243E-17	1.734722E-18
6.210000E+03	2.302544E-17	1.755440E-18
6.220000E+03	2.330156E-17	1.776259E-18
6.230000E+03	2.357118E-17	1.797184E-18
6.240000E+03	2.383477E-17	1.818220E-18
6.250000E+03	2.409200E-17	1.839299E-18
6.260000E+03	2.434417E-17	1.860471E-18
6.270000E+03	2.459079E-17	1.881643E-18
6.280000E+03	2.483268E-17	1.902820E-18
6.290000E+03	2.507046E-17	1.923989E-18
6.300000E+03	2.530378E-17	1.945062E-18
6.310000E+03	2.553332E-17	1.966033E-18
6.320000E+03	2.575950E-17	1.986876E-18
6.330000E+03	2.598275E-17	2.007572E-18
6.340000E+03	2.620285E-17	2.028051E-18
6.350000E+03	2.642029E-17	2.048304E-18
6.360000E+03	2.663522E-17	2.068302E-18
6.370000E+03	2.684781E-17	2.088019E-18
6.380000E+03	2.705785E-17	2.107407E-18
6.390000E+03	2.726512E-17	2.126420E-18
6.400000E+03	2.746939E-17	2.145016E-18
6.410000E+03	2.767081E-17	2.163187E-18
6.420000E+03	2.786913E-17	2.180899E-18
6.430000E+03	2.806325E-17	2.198055E-18
6.440000E+03	2.825451E-17	2.214752E-18
6.450000E+03	2.844306E-17	2.230999E-18
6.460000E+03	2.862947E-17	2.246838E-18
6.470000E+03	2.881474E-17	2.262352E-18
6.480000E+03	2.899863E-17	2.277526E-18
6.490000E+03	2.918219E-17	2.292449E-18
6.500000E+03	2.936563E-17	2.307145E-18
6.510000E+03	2.954958E-17	2.321672E-18
6.520000E+03	2.973333E-17	2.335985E-18
6.530000E+03	2.991845E-17	2.350216E-18
6.540000E+03	3.010421E-17	2.364318E-18
6.550000E+03	3.029124E-17	2.378353E-18
6.560000E+03	3.047974E-17	2.392345E-18
6.570000E+03	3.066940E-17	2.406278E-18
6.580000E+03	3.086085E-17	2.420213E-18
6.590000E+03	3.105426E-17	2.434169E-18
6.600000E+03	3.124928E-17	2.448127E-18
6.610000E+03	3.144604E-17	2.462105E-18
6.620000E+03	3.164466E-17	2.476117E-18
6.630000E+03	3.184578E-17	2.490219E-18
6.640000E+03	3.204846E-17	2.504343E-18
6.650000E+03	3.225332E-17	2.518541E-18
6.660000E+03	3.246045E-17	2.532824E-18
6.670000E+03	3.266938E-17	2.547158E-18
6.680000E+03	3.288072E-17	2.561592E-18
6.690000E+03	3.309399E-17	2.576091E-18
6.700000E+03	3.330978E-17	2.590702E-18
6.710000E+03	3.352700E-17	2.605340E-18
6.720000E+03	3.374625E-17	2.620049E-18
6.730000E+03	3.396813E-17	2.634876E-18
6.740000E+03	3.419149E-17	2.649727E-18
6.750000E+03	3.441693E-17	2.664645E-18
6.760000E+03	3.464384E-17	2.679576E-18
6.770000E+03	3.487282E-17	2.694561E-18
6.780000E+03	3.510324E-17	2.709542E-18
6.790000E+03	3.533508E-17	2.724508E-18
6.800000E+03	3.556893E-17	2.739495E-18
6.810000E+03	3.580349E-17	2.754390E-18
6.820000E+03	3.603999E-17	2.769276E-18
6.830000E+03	3.627709E-17	2.784037E-18
6.840000E+03	3.651603E-17	2.798756E-18
6.850000E+03	3.675541E-17	2.813314E-18
6.860000E+03	3.699515E-17	2.827692E-18
6.870000E+03	3.723582E-17	2.841923E-18
6.880000E+03	3.747734E-17	2.855994E-18
6.890000E+03	3.771819E-17	2.869780E-18
6.900000E+03	3.795966E-17	2.883374E-18
6.910000E+03	3.820090E-17	2.896710E-18
6.920000E+03	3.844250E-17	2.909832E-18
6.930000E+03	3.868288E-17	2.922621E-18
6.940000E+03	3.892260E-17	2.935125E-18
6.950000E+03	3.916152E-17	2.947338E-18
6.960000E+03	3.939873E-17	2.959201E-18
6.970000E+03	3.963482E-17	2.970768E-18
6.980000E+03	3.986964E-17	2.982040E-18
6.990000E+03	4.010228E-17	2.992960E-18
7.000000E+03	4.033257E-17	3.003530E-18
7.010000E+03	4.056038E-17	3.013752E-18
7.020000E+03	4.078635E-17	3.023690E-18
7.030000E+03	4.100877E-17	3.033228E-18
7.040000E+03	4.122913E-17	3.042489E-18
7.050000E+03	4.144571E-17	3.051358E-18
7.060000E+03	4.165921E-17	3.059896E-18
7.070000E+03	4.186875E-17	3.068046E-18
7.080000E+03	4.207507E-17	3.075870E-18
7.090000E+03	4.227814E-17	3.083369E-18
7.100000E+03	4.247707E-17	3.090480E-18
7.110000E+03	4.267097E-17	3.097139E-18
7.120000E+03	4.286154E-17	3.103466E-18
7.130000E+03	4.304793E-17	3.109395E-18
7.140000E+03	4.323015E-17	3.114919E-18
7.150000E+03	4.340821E-17	3.120032E-18
7.160000E+03	4.358127E-17	3.124661E-18
7.170000E+03	4.375025E-17	3.128861E-18
7.180000E+03	4.391430E-17	3.132558E-18
7.190000E+03	4.407345E-17	3.135742E-18
7.200000E+03	4.422868E-17	3.138469E-18
7.210000E+03	4.437913E-17	3.140666E-18
7.220000E+03	4.452578E-17	3.142391E-18
7.230000E+03	4.466682E-17	3.143506E-18
7.240000E+03	4.480324E-17	3.144074E-18
7.250000E+03	4.493506E-17	3.144096E-18
7.260000E+03	4.506234E-17	3.143575E-18
7.270000E+03	4.518511E-17	3.142518E-18
7.280000E+03	4.530340E-17	3.140940E-18
7.290000E+03	4.541626E-17	3.138790E-18
7.300000E+03	4.552467E-17	3.136161E-18
7.310000E+03	4.562866E-17	3.133085E-18
7.320000E+03	4.572823E-17	3.129599E-18
7.330000E+03	4.582240E-17	3.125683E-18
7.340000E+03	4.591217E-17	3.121458E-18
7.350000E+03	4.599858E-17	3.117056E-18
7.360000E+03	4.607963E-17	3.112411E-18
7.370000E+03	4.615635E-17	3.107669E-18
7.380000E+03	4.622878E-17	3.102920E-18
7.390000E+03	4.629800E-17	3.098326E-18
7.400000E+03	4.636304E-17	3.093919E-18
7.410000E+03	4.642502E-17	3.089877E-18
7.420000E+03	4.648507E-17	3.086379E-18
7.430000E+03	4.654226E-17	3.083469E-18
7.440000E+03	4.659883E-17	3.081400E-18
7.450000E+03	4.665279E-17	3.080141E-18
7.460000E+03	4.670535E-17	3.079864E-18
7.470000E+03	4.675558E-17	3.080592E-18
7.480000E+03	4.680469E-17	3.082472E-18
7.490000E+03	4.685068E-17	3.085422E-18
7.500000E+03	4.689474E-17	3.089552E-18
7.510000E+03	4.693703E-17	3.094875E-18
7.520000E+03	4.697657E-17	3.101304E-18
7.530000E+03	4.701569E-17	3.108940E-18
7.540000E+03	4.705232E-17	3.117569E-18
7.550000E+03	4.708769E-17	3.127175E-18
7.560000E+03	4.712079E-17	3.137579E-18
7.570000E+03	4.715281E-17	3.148735E-18
7.580000E+03	4.718273E-17	3.160445E-18
7.590000E+03	4.721172E-17	3.172654E-18
7.600000E+03	4.723871E-17	3.185163E-18
7.610000E+03	4.726373E-17	3.197850E-18
7.620000E+03	4.728791E-17	3.210680E-18
7.630000E+03	4.731013E-17	3.223480E-18
7.640000E+03	4.733037E-17	3.236162E-18
7.650000E+03	4.734973E-17	3.248735E-18
7.660000E+03	4.736703E-17	3.261065E-18
7.670000E+03	4.738336E-17	3.273193E-18
7.680000E+03	4.739630E-17	3.284932E-18
7.690000E+03	4.740810E-17	3.296428E-18
7.700000E+03	4.741865E-17	3.307679E-18
7.710000E+03	4.742667E-17	3.318611E-18
7.720000E+03	4.743319E-17	3.329319E-18
7.730000E+03	4.743690E-17	3.339738E-18
7.740000E+03	4.743763E-17	3.349887E-18
7.750000E+03	4.743640E-17	3.359873E-18
7.760000E+03	4.743305E-17	3.369717E-18
