#wls	flux	fluxerr
1.600000E+03	1.690826E-16	1.658120E-16
1.640000E+03	1.743979E-16	1.681899E-16
1.680000E+03	1.794422E-16	1.700703E-16
1.720000E+03	1.841636E-16	1.714123E-16
1.760000E+03	1.884869E-16	1.721586E-16
1.800000E+03	1.923512E-16	1.722701E-16
1.840000E+03	1.956739E-16	1.716950E-16
1.880000E+03	1.984061E-16	1.704172E-16
1.920000E+03	2.004795E-16	1.684097E-16
1.960000E+03	2.018101E-16	1.656396E-16
2.000000E+03	2.023505E-16	1.621114E-16
2.040000E+03	2.020263E-16	1.578142E-16
2.080000E+03	2.007733E-16	1.527531E-16
2.120000E+03	1.985690E-16	1.469713E-16
2.160000E+03	1.953369E-16	1.404775E-16
2.200000E+03	1.910298E-16	1.333093E-16
2.240000E+03	1.855993E-16	1.255095E-16
2.280000E+03	1.789683E-16	1.171088E-16
2.320000E+03	1.713464E-16	1.083277E-16
2.360000E+03	1.629489E-16	9.937316E-17
2.400000E+03	1.539474E-16	9.040805E-17
2.440000E+03	1.444886E-16	8.156617E-17
2.480000E+03	1.347139E-16	7.296505E-17
2.520000E+03	1.247531E-16	6.470280E-17
2.560000E+03	1.147227E-16	5.685801E-17
2.600000E+03	1.047429E-16	4.949924E-17
2.640000E+03	9.492532E-17	4.267862E-17
2.680000E+03	8.537326E-17	3.643286E-17
2.720000E+03	7.618120E-17	3.078394E-17
2.760000E+03	6.743801E-17	2.574138E-17
2.800000E+03	5.921064E-17	2.129723E-17
2.840000E+03	5.155725E-17	1.743323E-17
2.880000E+03	4.452693E-17	1.412209E-17
2.920000E+03	3.815351E-17	1.132715E-17
2.960000E+03	3.245645E-17	9.004825E-18
3.000000E+03	2.743434E-17	7.105011E-18
3.010000E+03	2.628183E-17	6.689722E-18
3.020000E+03	2.516959E-17	6.296588E-18
3.030000E+03	2.409740E-17	5.924842E-18
3.040000E+03	2.306442E-17	5.573576E-18
3.050000E+03	2.206979E-17	5.241899E-18
3.060000E+03	2.111310E-17	4.929049E-18
3.070000E+03	2.019297E-17	4.634055E-18
3.080000E+03	1.930933E-17	4.356275E-18
3.090000E+03	1.846080E-17	4.094783E-18
3.100000E+03	1.764678E-17	3.848859E-18
3.110000E+03	1.686629E-17	3.617713E-18
3.120000E+03	1.611865E-17	3.400651E-18
3.130000E+03	1.540285E-17	3.196921E-18
3.140000E+03	1.471787E-17	3.005801E-18
3.150000E+03	1.406297E-17	2.826652E-18
3.160000E+03	1.343690E-17	2.658746E-18
3.170000E+03	1.283914E-17	2.501537E-18
3.180000E+03	1.226847E-17	2.354353E-18
3.190000E+03	1.172411E-17	2.216642E-18
3.200000E+03	1.120508E-17	2.087831E-18
3.210000E+03	1.071043E-17	1.967378E-18
3.220000E+03	1.023937E-17	1.854798E-18
3.230000E+03	9.790975E-18	1.749596E-18
3.240000E+03	9.364147E-18	1.651276E-18
3.250000E+03	8.958455E-18	1.559479E-18
3.260000E+03	8.572556E-18	1.473704E-18
3.270000E+03	8.206013E-18	1.393630E-18
3.280000E+03	7.857706E-18	1.318835E-18
3.290000E+03	7.526951E-18	1.248990E-18
3.300000E+03	7.213059E-18	1.183783E-18
3.310000E+03	6.915037E-18	1.122864E-18
3.320000E+03	6.632354E-18	1.065977E-18
3.330000E+03	6.364279E-18	1.012845E-18
3.340000E+03	6.110020E-18	9.631972E-19
3.350000E+03	5.868918E-18	9.167942E-19
3.360000E+03	5.640336E-18	8.734133E-19
3.370000E+03	5.423739E-18	8.328581E-19
3.380000E+03	5.218393E-18	7.949114E-19
3.390000E+03	5.023882E-18	7.594149E-19
3.400000E+03	4.839536E-18	7.261801E-19
3.410000E+03	4.664854E-18	6.950527E-19
3.420000E+03	4.499416E-18	6.658976E-19
3.430000E+03	4.342594E-18	6.385565E-19
3.440000E+03	4.194073E-18	6.129233E-19
3.450000E+03	4.053387E-18	5.888760E-19
3.460000E+03	3.920010E-18	5.662893E-19
3.470000E+03	3.793680E-18	5.450813E-19
3.480000E+03	3.673925E-18	5.251440E-19
3.490000E+03	3.560430E-18	5.063968E-19
3.500000E+03	3.452859E-18	4.887593E-19
3.510000E+03	3.350787E-18	4.721419E-19
3.520000E+03	3.253964E-18	4.564833E-19
3.530000E+03	3.162054E-18	4.417123E-19
3.540000E+03	3.074744E-18	4.277641E-19
3.550000E+03	2.991778E-18	4.145840E-19
3.560000E+03	2.912858E-18	4.021131E-19
3.570000E+03	2.837737E-18	3.903022E-19
3.580000E+03	2.766161E-18	3.791022E-19
3.590000E+03	2.697948E-18	3.684758E-19
3.600000E+03	2.632899E-18	3.583848E-19
3.610000E+03	2.570808E-18	3.487906E-19
3.620000E+03	2.511526E-18	3.396644E-19
3.630000E+03	2.454916E-18	3.309793E-19
3.640000E+03	2.400800E-18	3.227044E-19
3.650000E+03	2.349123E-18	3.148252E-19
3.660000E+03	2.299720E-18	3.073139E-19
3.670000E+03	2.252518E-18	3.001555E-19
3.680000E+03	2.207426E-18	2.933328E-19
3.690000E+03	2.164354E-18	2.868295E-19
3.700000E+03	2.123235E-18	2.806326E-19
3.710000E+03	2.084017E-18	2.747315E-19
3.720000E+03	2.046581E-18	2.691071E-19
3.730000E+03	2.010913E-18	2.637545E-19
3.740000E+03	1.976915E-18	2.586577E-19
3.750000E+03	1.944541E-18	2.538079E-19
3.760000E+03	1.913744E-18	2.491967E-19
3.770000E+03	1.884431E-18	2.448095E-19
3.780000E+03	1.856591E-18	2.406426E-19
3.790000E+03	1.830149E-18	2.366842E-19
3.800000E+03	1.805064E-18	2.329271E-19
3.810000E+03	1.781281E-18	2.293623E-19
3.820000E+03	1.758762E-18	2.259829E-19
3.830000E+03	1.737454E-18	2.227808E-19
3.840000E+03	1.717321E-18	2.197495E-19
3.850000E+03	1.698316E-18	2.168815E-19
3.860000E+03	1.680419E-18	2.141728E-19
3.870000E+03	1.663584E-18	2.116161E-19
3.880000E+03	1.647768E-18	2.092045E-19
3.890000E+03	1.632940E-18	2.069332E-19
3.900000E+03	1.619062E-18	2.047956E-19
3.910000E+03	1.606117E-18	2.027890E-19
3.920000E+03	1.594068E-18	2.009074E-19
3.930000E+03	1.582890E-18	1.991465E-19
3.940000E+03	1.572545E-18	1.975008E-19
3.950000E+03	1.563000E-18	1.959650E-19
3.960000E+03	1.554257E-18	1.945384E-19
3.970000E+03	1.546258E-18	1.932130E-19
3.980000E+03	1.538994E-18	1.919867E-19
3.990000E+03	1.532436E-18	1.908548E-19
4.000000E+03	1.526563E-18	1.898142E-19
4.010000E+03	1.521359E-18	1.888617E-19
4.020000E+03	1.516782E-18	1.879916E-19
4.030000E+03	1.512829E-18	1.872025E-19
4.040000E+03	1.509473E-18	1.864903E-19
4.050000E+03	1.506698E-18	1.858524E-19
4.060000E+03	1.504479E-18	1.852851E-19
4.070000E+03	1.502792E-18	1.847845E-19
4.080000E+03	1.501636E-18	1.843501E-19
4.090000E+03	1.500976E-18	1.839769E-19
4.100000E+03	1.500801E-18	1.836630E-19
4.110000E+03	1.501101E-18	1.834066E-19
4.120000E+03	1.501843E-18	1.832031E-19
4.130000E+03	1.503030E-18	1.830523E-19
4.140000E+03	1.504631E-18	1.829498E-19
4.150000E+03	1.506637E-18	1.828942E-19
4.160000E+03	1.509041E-18	1.828838E-19
4.170000E+03	1.511815E-18	1.829147E-19
4.180000E+03	1.514961E-18	1.829868E-19
4.190000E+03	1.518441E-18	1.830948E-19
4.200000E+03	1.522271E-18	1.832402E-19
4.210000E+03	1.526412E-18	1.834177E-19
4.220000E+03	1.530860E-18	1.836263E-19
4.230000E+03	1.535597E-18	1.838635E-19
4.240000E+03	1.540620E-18	1.841285E-19
4.250000E+03	1.545891E-18	1.844161E-19
4.260000E+03	1.551418E-18	1.847270E-19
4.270000E+03	1.557175E-18	1.850576E-19
4.280000E+03	1.563135E-18	1.854042E-19
4.290000E+03	1.569295E-18	1.857664E-19
4.300000E+03	1.575643E-18	1.861421E-19
4.310000E+03	1.582138E-18	1.865263E-19
4.320000E+03	1.588766E-18	1.869171E-19
4.330000E+03	1.595513E-18	1.873125E-19
4.340000E+03	1.602363E-18	1.877105E-19
4.350000E+03	1.609302E-18	1.881092E-19
4.360000E+03	1.616328E-18	1.885081E-19
4.370000E+03	1.623424E-18	1.889051E-19
4.380000E+03	1.630576E-18	1.892985E-19
4.390000E+03	1.637806E-18	1.896906E-19
4.400000E+03	1.645100E-18	1.900796E-19
4.410000E+03	1.652455E-18	1.904651E-19
4.420000E+03	1.659883E-18	1.908484E-19
4.430000E+03	1.667382E-18	1.912292E-19
4.440000E+03	1.674938E-18	1.916057E-19
4.450000E+03	1.682564E-18	1.919795E-19
4.460000E+03	1.690246E-18	1.923491E-19
4.470000E+03	1.697984E-18	1.927145E-19
4.480000E+03	1.705780E-18	1.930762E-19
4.490000E+03	1.713608E-18	1.934312E-19
4.500000E+03	1.721484E-18	1.937817E-19
4.510000E+03	1.729397E-18	1.941269E-19
4.520000E+03	1.737338E-18	1.944659E-19
4.530000E+03	1.745312E-18	1.947997E-19
4.540000E+03	1.753296E-18	1.951261E-19
4.550000E+03	1.761296E-18	1.954464E-19
4.560000E+03	1.769321E-18	1.957620E-19
4.570000E+03	1.777363E-18	1.960727E-19
4.580000E+03	1.785404E-18	1.963768E-19
4.590000E+03	1.793452E-18	1.966762E-19
4.600000E+03	1.801504E-18	1.969709E-19
4.610000E+03	1.809557E-18	1.972612E-19
4.620000E+03	1.817623E-18	1.975489E-19
4.630000E+03	1.825685E-18	1.978328E-19
4.640000E+03	1.833756E-18	1.981148E-19
4.650000E+03	1.841837E-18	1.983950E-19
4.660000E+03	1.849927E-18	1.986738E-19
4.670000E+03	1.858027E-18	1.989512E-19
4.680000E+03	1.866136E-18	1.992272E-19
4.690000E+03	1.874257E-18	1.995019E-19
4.700000E+03	1.882423E-18	1.997784E-19
4.710000E+03	1.890638E-18	2.000567E-19
4.720000E+03	1.898904E-18	2.003362E-19
4.730000E+03	1.907259E-18	2.006203E-19
4.740000E+03	1.915691E-18	2.009067E-19
4.750000E+03	1.924203E-18	2.011949E-19
4.760000E+03	1.932818E-18	2.014863E-19
4.770000E+03	1.941541E-18	2.017805E-19
4.780000E+03	1.950362E-18	2.020753E-19
4.790000E+03	1.959303E-18	2.023722E-19
4.800000E+03	1.968372E-18	2.026712E-19
4.810000E+03	1.977558E-18	2.029705E-19
4.820000E+03	1.986886E-18	2.032720E-19
4.830000E+03	1.996364E-18	2.035763E-19
4.840000E+03	2.006000E-18	2.038841E-19
4.850000E+03	2.015803E-18	2.041962E-19
4.860000E+03	2.025763E-18	2.045119E-19
4.870000E+03	2.035927E-18	2.048364E-19
4.880000E+03	2.046268E-18	2.051676E-19
4.890000E+03	2.056793E-18	2.055072E-19
4.900000E+03	2.067533E-18	2.058591E-19
4.910000E+03	2.078498E-18	2.062256E-19
4.920000E+03	2.089698E-18	2.066087E-19
4.930000E+03	2.101105E-18	2.070067E-19
4.940000E+03	2.112769E-18	2.074259E-19
4.950000E+03	2.124680E-18	2.078663E-19
4.960000E+03	2.136848E-18	2.083300E-19
4.970000E+03	2.149283E-18	2.088187E-19
4.980000E+03	2.161996E-18	2.093342E-19
4.990000E+03	2.174976E-18	2.098758E-19
5.000000E+03	2.188231E-18	2.104447E-19
5.010000E+03	2.201790E-18	2.110436E-19
5.020000E+03	2.215640E-18	2.116711E-19
5.030000E+03	2.229768E-18	2.123255E-19
5.040000E+03	2.244223E-18	2.130108E-19
5.050000E+03	2.258947E-18	2.137208E-19
5.060000E+03	2.273987E-18	2.144594E-19
5.070000E+03	2.289350E-18	2.152261E-19
5.080000E+03	2.304975E-18	2.160145E-19
5.090000E+03	2.320931E-18	2.168304E-19
5.100000E+03	2.337178E-18	2.176697E-19
5.110000E+03	2.353720E-18	2.185322E-19
5.120000E+03	2.370580E-18	2.194205E-19
5.130000E+03	2.387717E-18	2.203310E-19
5.140000E+03	2.405132E-18	2.212647E-19
5.150000E+03	2.422850E-18	2.222254E-19
5.160000E+03	2.440848E-18	2.232127E-19
5.170000E+03	2.459127E-18	2.242293E-19
5.180000E+03	2.477663E-18	2.252760E-19
5.190000E+03	2.496480E-18	2.263583E-19
5.200000E+03	2.515527E-18	2.274761E-19
5.210000E+03	2.534851E-18	2.286379E-19
5.220000E+03	2.554426E-18	2.298466E-19
5.230000E+03	2.574223E-18	2.311050E-19
5.240000E+03	2.594237E-18	2.324186E-19
5.250000E+03	2.614488E-18	2.337953E-19
5.260000E+03	2.634918E-18	2.352364E-19
5.270000E+03	2.655545E-18	2.367501E-19
5.280000E+03	2.676387E-18	2.383447E-19
5.290000E+03	2.697354E-18	2.400191E-19
5.300000E+03	2.718514E-18	2.417862E-19
5.310000E+03	2.739774E-18	2.436444E-19
5.320000E+03	2.761202E-18	2.456062E-19
5.330000E+03	2.782699E-18	2.476695E-19
5.340000E+03	2.804305E-18	2.498436E-19
5.350000E+03	2.826003E-18	2.521327E-19
5.360000E+03	2.847748E-18	2.545381E-19
5.370000E+03	2.869577E-18	2.570679E-19
5.380000E+03	2.891386E-18	2.597169E-19
5.390000E+03	2.913243E-18	2.624947E-19
5.400000E+03	2.935099E-18	2.654001E-19
5.410000E+03	2.956934E-18	2.684338E-19
5.420000E+03	2.978729E-18	2.715958E-19
5.430000E+03	3.000464E-18	2.748856E-19
5.440000E+03	3.022086E-18	2.782991E-19
5.450000E+03	3.043575E-18	2.818346E-19
5.460000E+03	3.064906E-18	2.854894E-19
5.470000E+03	3.086058E-18	2.892608E-19
5.480000E+03	3.106973E-18	2.931422E-19
5.490000E+03	3.127594E-18	2.971266E-19
5.500000E+03	3.147926E-18	3.012123E-19
5.510000E+03	3.167908E-18	3.053913E-19
5.520000E+03	3.187479E-18	3.096553E-19
5.530000E+03	3.206574E-18	3.139952E-19
5.540000E+03	3.225193E-18	3.184080E-19
5.550000E+03	3.243238E-18	3.228811E-19
5.560000E+03	3.260708E-18	3.274110E-19
5.570000E+03	3.277501E-18	3.319842E-19
5.580000E+03	3.293581E-18	3.365938E-19
5.590000E+03	3.308947E-18	3.412359E-19
5.600000E+03	3.323494E-18	3.458966E-19
5.610000E+03	3.337220E-18	3.505720E-19
5.620000E+03	3.350091E-18	3.552552E-19
5.630000E+03	3.362037E-18	3.599354E-19
5.640000E+03	3.373025E-18	3.646057E-19
5.650000E+03	3.383056E-18	3.692633E-19
5.660000E+03	3.392101E-18	3.739018E-19
5.670000E+03	3.400096E-18	3.785114E-19
5.680000E+03	3.407048E-18	3.830900E-19
5.690000E+03	3.412971E-18	3.876363E-19
5.700000E+03	3.417772E-18	3.921369E-19
5.710000E+03	3.421467E-18	3.965908E-19
5.720000E+03	3.424077E-18	4.009974E-19
5.730000E+03	3.425589E-18	4.053518E-19
5.740000E+03	3.425994E-18	4.096495E-19
5.750000E+03	3.425284E-18	4.138857E-19
5.760000E+03	3.423456E-18	4.180555E-19
5.770000E+03	3.420545E-18	4.221584E-19
5.780000E+03	3.416517E-18	4.261844E-19
5.790000E+03	3.411449E-18	4.301372E-19
5.800000E+03	3.405314E-18	4.340062E-19
5.810000E+03	3.398120E-18	4.377851E-19
5.820000E+03	3.389957E-18	4.414770E-19
5.830000E+03	3.380769E-18	4.450655E-19
5.840000E+03	3.370611E-18	4.485484E-19
5.850000E+03	3.359546E-18	4.519236E-19
5.860000E+03	3.347563E-18	4.551790E-19
5.870000E+03	3.334731E-18	4.583127E-19
5.880000E+03	3.321046E-18	4.613128E-19
5.890000E+03	3.306619E-18	4.641832E-19
5.900000E+03	3.291452E-18	4.669127E-19
5.910000E+03	3.275588E-18	4.694958E-19
5.920000E+03	3.259108E-18	4.719329E-19
5.930000E+03	3.242019E-18	4.742145E-19
5.940000E+03	3.224405E-18	4.763423E-19
5.950000E+03	3.206277E-18	4.783082E-19
5.960000E+03	3.187717E-18	4.801154E-19
5.970000E+03	3.168772E-18	4.817627E-19
5.980000E+03	3.149490E-18	4.832495E-19
5.990000E+03	3.129879E-18	4.845704E-19
6.000000E+03	3.110020E-18	4.857317E-19
6.010000E+03	3.089957E-18	4.867350E-19
6.020000E+03	3.069697E-18	4.875766E-19
6.030000E+03	3.049317E-18	4.882649E-19
6.040000E+03	3.028821E-18	4.887972E-19
6.050000E+03	3.008212E-18	4.891712E-19
6.060000E+03	2.987598E-18	4.894026E-19
6.070000E+03	2.966943E-18	4.894841E-19
6.080000E+03	2.946318E-18	4.894262E-19
6.090000E+03	2.925682E-18	4.892219E-19
6.100000E+03	2.905104E-18	4.888824E-19
6.110000E+03	2.884575E-18	4.884070E-19
6.120000E+03	2.864126E-18	4.878010E-19
6.130000E+03	2.843781E-18	4.870702E-19
6.140000E+03	2.823529E-18	4.862141E-19
6.150000E+03	2.803395E-18	4.852384E-19
6.160000E+03	2.783399E-18	4.841487E-19
6.170000E+03	2.763561E-18	4.829508E-19
6.180000E+03	2.743900E-18	4.816503E-19
6.190000E+03	2.724398E-18	4.802468E-19
6.200000E+03	2.705105E-18	4.787518E-19
6.210000E+03	2.686035E-18	4.771709E-19
6.220000E+03	2.667201E-18	4.755095E-19
6.230000E+03	2.648648E-18	4.737788E-19
6.240000E+03	2.630422E-18	4.719904E-19
6.250000E+03	2.612565E-18	4.701554E-19
6.260000E+03	2.595119E-18	4.682851E-19
6.270000E+03	2.578126E-18	4.663903E-19
6.280000E+03	2.561660E-18	4.644884E-19
6.290000E+03	2.545692E-18	4.625775E-19
6.300000E+03	2.530362E-18	4.606872E-19
6.310000E+03	2.515640E-18	4.588153E-19
6.320000E+03	2.501597E-18	4.569787E-19
6.330000E+03	2.488271E-18	4.551876E-19
6.340000E+03	2.475697E-18	4.534521E-19
6.350000E+03	2.463879E-18	4.517760E-19
6.360000E+03	2.452851E-18	4.501692E-19
6.370000E+03	2.442651E-18	4.486416E-19
6.380000E+03	2.433280E-18	4.471964E-19
6.390000E+03	2.424740E-18	4.458368E-19
6.400000E+03	2.417068E-18	4.445724E-19
6.410000E+03	2.410195E-18	4.433933E-19
6.420000E+03	2.404122E-18	4.423022E-19
6.430000E+03	2.398817E-18	4.412952E-19
6.440000E+03	2.394210E-18	4.403616E-19
6.450000E+03	2.390336E-18	4.395105E-19
6.460000E+03	2.387125E-18	4.387308E-19
6.470000E+03	2.384615E-18	4.380312E-19
6.480000E+03	2.382805E-18	4.374137E-19
6.490000E+03	2.381662E-18	4.368736E-19
6.500000E+03	2.381186E-18	4.364126E-19
6.510000E+03	2.381377E-18	4.360324E-19
6.520000E+03	2.382237E-18	4.357346E-19
6.530000E+03	2.383766E-18	4.355209E-19
6.540000E+03	2.386005E-18	4.353996E-19
6.550000E+03	2.388916E-18	4.353652E-19
6.560000E+03	2.392464E-18	4.354123E-19
6.570000E+03	2.396726E-18	4.355560E-19
6.580000E+03	2.401627E-18	4.357836E-19
6.590000E+03	2.407207E-18	4.361034E-19
6.600000E+03	2.413469E-18	4.365164E-19
6.610000E+03	2.420414E-18	4.370239E-19
6.620000E+03	2.428046E-18	4.376269E-19
6.630000E+03	2.436326E-18	4.383192E-19
6.640000E+03	2.445296E-18	4.391090E-19
6.650000E+03	2.454919E-18	4.399901E-19
6.660000E+03	2.465238E-18	4.409706E-19
6.670000E+03	2.476214E-18	4.420440E-19
6.680000E+03	2.487851E-18	4.432112E-19
6.690000E+03	2.500193E-18	4.444805E-19
6.700000E+03	2.513244E-18	4.458528E-19
6.710000E+03	2.526921E-18	4.473138E-19
6.720000E+03	2.541315E-18	4.488794E-19
6.730000E+03	2.556341E-18	4.505351E-19
6.740000E+03	2.572091E-18	4.522971E-19
6.750000E+03	2.588524E-18	4.541584E-19
6.760000E+03	2.605600E-18	4.561118E-19
6.770000E+03	2.623414E-18	4.581739E-19
6.780000E+03	2.641877E-18	4.603294E-19
6.790000E+03	2.661040E-18	4.625871E-19
6.800000E+03	2.680908E-18	4.649477E-19
6.810000E+03	2.701485E-18	4.674119E-19
6.820000E+03	2.722728E-18	4.699720E-19
6.830000E+03	2.744689E-18	4.726370E-19
6.840000E+03	2.767323E-18	4.753990E-19
6.850000E+03	2.790684E-18	4.782672E-19
6.860000E+03	2.814727E-18	4.812334E-19
6.870000E+03	2.839454E-18	4.842981E-19
6.880000E+03	2.864922E-18	4.874707E-19
6.890000E+03	2.891028E-18	4.907336E-19
6.900000E+03	2.917883E-18	4.941053E-19
6.910000E+03	2.945437E-18	4.975771E-19
6.920000E+03	2.973693E-18	5.011495E-19
6.930000E+03	3.002655E-18	5.048227E-19
6.940000E+03	3.032325E-18	5.085970E-19
6.950000E+03	3.062648E-18	5.124630E-19
6.960000E+03	3.093684E-18	5.164305E-19
6.970000E+03	3.125436E-18	5.204997E-19
6.980000E+03	3.157906E-18	5.246710E-19
6.990000E+03	3.190975E-18	5.289242E-19
7.000000E+03	3.224826E-18	5.332898E-19
7.010000E+03	3.259274E-18	5.377369E-19
7.020000E+03	3.294446E-18	5.422863E-19
7.030000E+03	3.330279E-18	5.469274E-19
7.040000E+03	3.366770E-18	5.516601E-19
7.050000E+03	3.403921E-18	5.564840E-19
7.060000E+03	3.441729E-18	5.613990E-19
7.070000E+03	3.480124E-18	5.663936E-19
7.080000E+03	3.519172E-18	5.714783E-19
7.090000E+03	3.558870E-18	5.766530E-19
7.100000E+03	3.599145E-18	5.819056E-19
7.110000E+03	3.640064E-18	5.872470E-19
7.120000E+03	3.681550E-18	5.926650E-19
7.130000E+03	3.723597E-18	5.981585E-19
7.140000E+03	3.766198E-18	6.037266E-19
7.150000E+03	3.809424E-18	6.093809E-19
7.160000E+03	3.853112E-18	6.150955E-19
7.170000E+03	3.897251E-18	6.208687E-19
7.180000E+03	3.941994E-18	6.267251E-19
7.190000E+03	3.987167E-18	6.326375E-19
7.200000E+03	4.032758E-18	6.386041E-19
7.210000E+03	4.078840E-18	6.446367E-19
7.220000E+03	4.125314E-18	6.507203E-19
7.230000E+03	4.172166E-18	6.568528E-19
7.240000E+03	4.219380E-18	6.630321E-19
7.250000E+03	4.266941E-18	6.692563E-19
7.260000E+03	4.314923E-18	6.755376E-19
7.270000E+03	4.363126E-18	6.818449E-19
7.280000E+03	4.411718E-18	6.882051E-19
7.290000E+03	4.460588E-18	6.946012E-19
7.300000E+03	4.509716E-18	7.010307E-19
7.310000E+03	4.559181E-18	7.075065E-19
7.320000E+03	4.608867E-18	7.140108E-19
7.330000E+03	4.658853E-18	7.205566E-19
7.340000E+03	4.709123E-18	7.271418E-19
7.350000E+03	4.759765E-18	7.337804E-19
7.360000E+03	4.810764E-18	7.404706E-19
7.370000E+03	4.862217E-18	7.472275E-19
7.380000E+03	4.914002E-18	7.540325E-19
7.390000E+03	4.966443E-18	7.609359E-19
7.400000E+03	5.019540E-18	7.679376E-19
7.410000E+03	5.073175E-18	7.750195E-19
7.420000E+03	5.127699E-18	7.822353E-19
7.430000E+03	5.182999E-18	7.895676E-19
7.440000E+03	5.239203E-18	7.970357E-19
7.450000E+03	5.296196E-18	8.046216E-19
7.460000E+03	5.354107E-18	8.123449E-19
7.470000E+03	5.412561E-18	8.201483E-19
7.480000E+03	5.471812E-18	8.280697E-19
7.490000E+03	5.531465E-18	8.360495E-19
7.500000E+03	5.591642E-18	8.441053E-19
7.510000E+03	5.652197E-18	8.522150E-19
7.520000E+03	5.712978E-18	8.603552E-19
7.530000E+03	5.774102E-18	8.685434E-19
7.540000E+03	5.835130E-18	8.767127E-19
7.550000E+03	5.896312E-18	8.849007E-19
7.560000E+03	5.957481E-18	8.930817E-19
7.570000E+03	6.018607E-18	9.012508E-19
7.580000E+03	6.079508E-18	9.093805E-19
7.590000E+03	6.140300E-18	9.174874E-19
7.600000E+03	6.200797E-18	9.255436E-19
7.610000E+03	6.260959E-18	9.335428E-19
7.620000E+03	6.320907E-18	9.415024E-19
7.630000E+03	6.380445E-18	9.493933E-19
7.640000E+03	6.439697E-18	9.572332E-19
7.650000E+03	6.498299E-18	9.649680E-19
7.660000E+03	6.556536E-18	9.726399E-19
7.670000E+03	6.614206E-18	9.802185E-19
7.680000E+03	6.671435E-18	9.877228E-19
7.690000E+03	6.728016E-18	9.951218E-19
7.700000E+03	6.783906E-18	1.002409E-18
7.710000E+03	6.839063E-18	1.009579E-18
7.720000E+03	6.893801E-18	1.016677E-18
7.730000E+03	6.947547E-18	1.023620E-18
7.740000E+03	7.000803E-18	1.030481E-18
7.750000E+03	7.053166E-18	1.037202E-18
7.760000E+03	7.104784E-18	1.043804E-18
