#wls	flux	fluxerr
1.600000E+03	1.180665E-16	1.178239E-16
1.640000E+03	1.205801E-16	1.184203E-16
1.680000E+03	1.230376E-16	1.188359E-16
1.720000E+03	1.254663E-16	1.190966E-16
1.760000E+03	1.278321E-16	1.191688E-16
1.800000E+03	1.301220E-16	1.190410E-16
1.840000E+03	1.323313E-16	1.187103E-16
1.880000E+03	1.344303E-16	1.181526E-16
1.920000E+03	1.363988E-16	1.173540E-16
1.960000E+03	1.382141E-16	1.163009E-16
2.000000E+03	1.398323E-16	1.149643E-16
2.040000E+03	1.412395E-16	1.133433E-16
2.080000E+03	1.423736E-16	1.114011E-16
2.120000E+03	1.431782E-16	1.091106E-16
2.160000E+03	1.436115E-16	1.064618E-16
2.200000E+03	1.436135E-16	1.034355E-16
2.240000E+03	1.431118E-16	1.000101E-16
2.280000E+03	1.421097E-16	9.622300E-17
2.320000E+03	1.406018E-16	9.210640E-17
2.360000E+03	1.386434E-16	8.773302E-17
2.400000E+03	1.362923E-16	8.317287E-17
2.440000E+03	1.336003E-16	7.848823E-17
2.480000E+03	1.306191E-16	7.373731E-17
2.520000E+03	1.273729E-16	6.895929E-17
2.560000E+03	1.239048E-16	6.420124E-17
2.600000E+03	1.202296E-16	5.949265E-17
2.640000E+03	1.163683E-16	5.486454E-17
2.680000E+03	1.123347E-16	5.034291E-17
2.720000E+03	1.081495E-16	4.595529E-17
2.760000E+03	1.038294E-16	4.172534E-17
2.800000E+03	9.939250E-17	3.767534E-17
2.840000E+03	9.486775E-17	3.382905E-17
2.880000E+03	9.028455E-17	3.020697E-17
2.920000E+03	8.568278E-17	2.682915E-17
2.960000E+03	8.110750E-17	2.371239E-17
3.000000E+03	7.660746E-17	2.086922E-17
3.010000E+03	7.549965E-17	2.020204E-17
3.020000E+03	7.440060E-17	1.955254E-17
3.030000E+03	7.331082E-17	1.892068E-17
3.040000E+03	7.223240E-17	1.830683E-17
3.050000E+03	7.116425E-17	1.771048E-17
3.060000E+03	7.010695E-17	1.713158E-17
3.070000E+03	6.906402E-17	1.657073E-17
3.080000E+03	6.803301E-17	1.602711E-17
3.090000E+03	6.701734E-17	1.550123E-17
3.100000E+03	6.601613E-17	1.499260E-17
3.110000E+03	6.502996E-17	1.450107E-17
3.120000E+03	6.406196E-17	1.402700E-17
3.130000E+03	6.311012E-17	1.356961E-17
3.140000E+03	6.217626E-17	1.312895E-17
3.150000E+03	6.126096E-17	1.270480E-17
3.160000E+03	6.036593E-17	1.229713E-17
3.170000E+03	5.949057E-17	1.190542E-17
3.180000E+03	5.863657E-17	1.152963E-17
3.190000E+03	5.780446E-17	1.116946E-17
3.200000E+03	5.699376E-17	1.082439E-17
3.210000E+03	5.620609E-17	1.049432E-17
3.220000E+03	5.544296E-17	1.017910E-17
3.230000E+03	5.470296E-17	9.878044E-18
3.240000E+03	5.398855E-17	9.591161E-18
3.250000E+03	5.329840E-17	9.317779E-18
3.260000E+03	5.263572E-17	9.058022E-18
3.270000E+03	5.199836E-17	8.811076E-18
3.280000E+03	5.138772E-17	8.576748E-18
3.290000E+03	5.080510E-17	8.354821E-18
3.300000E+03	5.025013E-17	8.144802E-18
3.310000E+03	4.972406E-17	7.946465E-18
3.320000E+03	4.922577E-17	7.759213E-18
3.330000E+03	4.875650E-17	7.582830E-18
3.340000E+03	4.831667E-17	7.416977E-18
3.350000E+03	4.790667E-17	7.261317E-18
3.360000E+03	4.752692E-17	7.115522E-18
3.370000E+03	4.717713E-17	6.979170E-18
3.380000E+03	4.685771E-17	6.851956E-18
3.390000E+03	4.656908E-17	6.733583E-18
3.400000E+03	4.631162E-17	6.623761E-18
3.410000E+03	4.608510E-17	6.522122E-18
3.420000E+03	4.588995E-17	6.428402E-18
3.430000E+03	4.572658E-17	6.342347E-18
3.440000E+03	4.559479E-17	6.263632E-18
3.450000E+03	4.549502E-17	6.192028E-18
3.460000E+03	4.542770E-17	6.127319E-18
3.470000E+03	4.539212E-17	6.069145E-18
3.480000E+03	4.538930E-17	6.017391E-18
3.490000E+03	4.541915E-17	5.971804E-18
3.500000E+03	4.548156E-17	5.932142E-18
3.510000E+03	4.557702E-17	5.898250E-18
3.520000E+03	4.570493E-17	5.869843E-18
3.530000E+03	4.586577E-17	5.846790E-18
3.540000E+03	4.605952E-17	5.828899E-18
3.550000E+03	4.628613E-17	5.815989E-18
3.560000E+03	4.654556E-17	5.807889E-18
3.570000E+03	4.683779E-17	5.804438E-18
3.580000E+03	4.716224E-17	5.805416E-18
3.590000E+03	4.751939E-17	5.810741E-18
3.600000E+03	4.790862E-17	5.820207E-18
3.610000E+03	4.833037E-17	5.833739E-18
3.620000E+03	4.878346E-17	5.851077E-18
3.630000E+03	4.926876E-17	5.872215E-18
3.640000E+03	4.978450E-17	5.896835E-18
3.650000E+03	5.033095E-17	5.924870E-18
3.660000E+03	5.090725E-17	5.956126E-18
3.670000E+03	5.151354E-17	5.990529E-18
3.680000E+03	5.214831E-17	6.027821E-18
3.690000E+03	5.281153E-17	6.067919E-18
3.700000E+03	5.350206E-17	6.110614E-18
3.710000E+03	5.421969E-17	6.155811E-18
3.720000E+03	5.496306E-17	6.203287E-18
3.730000E+03	5.573231E-17	6.252991E-18
3.740000E+03	5.652535E-17	6.304624E-18
3.750000E+03	5.734208E-17	6.358113E-18
3.760000E+03	5.818127E-17	6.413261E-18
3.770000E+03	5.904208E-17	6.469915E-18
3.780000E+03	5.992303E-17	6.527855E-18
3.790000E+03	6.082362E-17	6.586969E-18
3.800000E+03	6.174160E-17	6.646953E-18
3.810000E+03	6.267624E-17	6.707673E-18
3.820000E+03	6.362618E-17	6.768925E-18
3.830000E+03	6.458994E-17	6.830491E-18
3.840000E+03	6.556597E-17	6.892147E-18
3.850000E+03	6.655200E-17	6.953596E-18
3.860000E+03	6.754746E-17	7.014712E-18
3.870000E+03	6.855052E-17	7.075241E-18
3.880000E+03	6.955867E-17	7.134859E-18
3.890000E+03	7.057055E-17	7.193354E-18
3.900000E+03	7.158411E-17	7.250448E-18
3.910000E+03	7.259787E-17	7.305918E-18
3.920000E+03	7.360910E-17	7.359409E-18
3.930000E+03	7.461686E-17	7.410752E-18
3.940000E+03	7.561836E-17	7.459582E-18
3.950000E+03	7.661266E-17	7.505725E-18
3.960000E+03	7.759692E-17	7.548812E-18
3.970000E+03	7.856893E-17	7.588539E-18
3.980000E+03	7.952782E-17	7.624731E-18
3.990000E+03	8.047077E-17	7.657022E-18
4.000000E+03	8.139632E-17	7.685179E-18
4.010000E+03	8.230238E-17	7.708910E-18
4.020000E+03	8.318761E-17	7.727996E-18
4.030000E+03	8.405005E-17	7.742162E-18
4.040000E+03	8.488779E-17	7.751142E-18
4.050000E+03	8.569973E-17	7.754751E-18
4.060000E+03	8.648485E-17	7.752816E-18
4.070000E+03	8.724010E-17	7.744992E-18
4.080000E+03	8.796609E-17	7.731270E-18
4.090000E+03	8.865997E-17	7.711349E-18
4.100000E+03	8.932188E-17	7.685205E-18
4.110000E+03	8.994991E-17	7.652653E-18
4.120000E+03	9.054372E-17	7.613667E-18
4.130000E+03	9.110237E-17	7.568191E-18
4.140000E+03	9.162505E-17	7.516210E-18
4.150000E+03	9.211107E-17	7.457751E-18
4.160000E+03	9.255986E-17	7.392891E-18
4.170000E+03	9.297174E-17	7.321818E-18
4.180000E+03	9.334640E-17	7.244713E-18
4.190000E+03	9.368285E-17	7.161763E-18
4.200000E+03	9.398099E-17	7.073283E-18
4.210000E+03	9.424079E-17	6.979656E-18
4.220000E+03	9.446310E-17	6.881403E-18
4.230000E+03	9.464726E-17	6.779010E-18
4.240000E+03	9.479346E-17	6.673105E-18
4.250000E+03	9.490109E-17	6.564353E-18
4.260000E+03	9.497112E-17	6.453615E-18
4.270000E+03	9.500295E-17	6.341734E-18
4.280000E+03	9.499665E-17	6.229692E-18
4.290000E+03	9.495225E-17	6.118547E-18
4.300000E+03	9.486802E-17	6.009320E-18
4.310000E+03	9.474523E-17	5.903283E-18
4.320000E+03	9.458181E-17	5.801525E-18
4.330000E+03	9.437699E-17	5.705227E-18
4.340000E+03	9.412894E-17	5.615466E-18
4.350000E+03	9.383794E-17	5.533361E-18
4.360000E+03	9.350006E-17	5.459648E-18
4.370000E+03	9.311509E-17	5.395086E-18
4.380000E+03	9.268113E-17	5.340086E-18
4.390000E+03	9.219723E-17	5.294805E-18
4.400000E+03	9.166697E-17	5.259078E-18
4.410000E+03	9.109653E-17	5.232347E-18
4.420000E+03	9.049359E-17	5.213884E-18
4.430000E+03	8.986242E-17	5.202597E-18
4.440000E+03	8.920998E-17	5.197446E-18
4.450000E+03	8.854045E-17	5.197205E-18
4.460000E+03	8.785839E-17	5.200690E-18
4.470000E+03	8.716941E-17	5.206855E-18
4.480000E+03	8.647496E-17	5.214513E-18
4.490000E+03	8.578066E-17	5.222855E-18
4.500000E+03	8.508732E-17	5.230926E-18
4.510000E+03	8.439924E-17	5.238131E-18
4.520000E+03	8.371823E-17	5.243874E-18
4.530000E+03	8.304667E-17	5.247740E-18
4.540000E+03	8.238675E-17	5.249440E-18
4.550000E+03	8.173906E-17	5.248712E-18
4.560000E+03	8.110701E-17	5.245595E-18
4.570000E+03	8.049096E-17	5.240040E-18
4.580000E+03	7.989264E-17	5.232185E-18
4.590000E+03	7.931373E-17	5.222248E-18
4.600000E+03	7.875579E-17	5.210522E-18
4.610000E+03	7.821963E-17	5.197309E-18
4.620000E+03	7.770600E-17	5.182967E-18
4.630000E+03	7.721631E-17	5.167941E-18
4.640000E+03	7.675190E-17	5.152705E-18
4.650000E+03	7.631406E-17	5.137755E-18
4.660000E+03	7.590259E-17	5.123501E-18
4.670000E+03	7.551934E-17	5.110490E-18
4.680000E+03	7.516468E-17	5.099159E-18
4.690000E+03	7.483886E-17	5.089916E-18
4.700000E+03	7.454275E-17	5.083175E-18
4.710000E+03	7.427641E-17	5.079249E-18
4.720000E+03	7.403978E-17	5.078386E-18
4.730000E+03	7.383278E-17	5.080760E-18
4.740000E+03	7.365545E-17	5.086459E-18
4.750000E+03	7.350770E-17	5.095499E-18
4.760000E+03	7.338936E-17	5.107837E-18
4.770000E+03	7.330015E-17	5.123379E-18
4.780000E+03	7.323900E-17	5.141936E-18
4.790000E+03	7.320617E-17	5.163389E-18
4.800000E+03	7.319973E-17	5.187445E-18
4.810000E+03	7.322054E-17	5.213997E-18
4.820000E+03	7.326658E-17	5.242731E-18
4.830000E+03	7.333791E-17	5.273480E-18
4.840000E+03	7.343387E-17	5.306031E-18
4.850000E+03	7.355233E-17	5.340075E-18
4.860000E+03	7.369401E-17	5.375515E-18
4.870000E+03	7.385747E-17	5.412111E-18
4.880000E+03	7.404269E-17	5.449738E-18
4.890000E+03	7.424671E-17	5.488070E-18
4.900000E+03	7.447096E-17	5.527110E-18
4.910000E+03	7.471318E-17	5.566606E-18
4.920000E+03	7.497332E-17	5.606475E-18
4.930000E+03	7.524982E-17	5.646537E-18
4.940000E+03	7.554263E-17	5.686727E-18
4.950000E+03	7.584944E-17	5.726822E-18
4.960000E+03	7.617018E-17	5.766772E-18
4.970000E+03	7.650479E-17	5.806535E-18
4.980000E+03	7.685093E-17	5.845901E-18
4.990000E+03	7.720779E-17	5.884778E-18
5.000000E+03	7.757532E-17	5.923135E-18
5.010000E+03	7.795270E-17	5.960888E-18
5.020000E+03	7.833757E-17	5.997835E-18
5.030000E+03	7.872989E-17	6.033953E-18
5.040000E+03	7.912883E-17	6.069161E-18
5.050000E+03	7.953355E-17	6.103380E-18
5.060000E+03	7.994242E-17	6.136471E-18
5.070000E+03	8.035457E-17	6.168355E-18
5.080000E+03	8.076990E-17	6.199015E-18
5.090000E+03	8.118590E-17	6.228249E-18
5.100000E+03	8.160239E-17	6.256041E-18
5.110000E+03	8.201755E-17	6.282249E-18
5.120000E+03	8.243033E-17	6.306793E-18
5.130000E+03	8.283960E-17	6.329592E-18
5.140000E+03	8.324416E-17	6.350565E-18
5.150000E+03	8.364195E-17	6.369568E-18
5.160000E+03	8.403244E-17	6.386581E-18
5.170000E+03	8.441254E-17	6.401396E-18
5.180000E+03	8.478160E-17	6.413994E-18
5.190000E+03	8.513718E-17	6.424230E-18
5.200000E+03	8.547760E-17	6.432023E-18
5.210000E+03	8.580112E-17	6.437298E-18
5.220000E+03	8.610594E-17	6.439979E-18
5.230000E+03	8.638845E-17	6.439868E-18
5.240000E+03	8.664845E-17	6.437033E-18
5.250000E+03	8.688138E-17	6.431223E-18
5.260000E+03	8.708702E-17	6.422523E-18
5.270000E+03	8.726165E-17	6.410771E-18
5.280000E+03	8.740422E-17	6.396012E-18
5.290000E+03	8.751198E-17	6.378179E-18
5.300000E+03	8.758228E-17	6.357226E-18
5.310000E+03	8.761432E-17	6.333253E-18
5.320000E+03	8.760483E-17	6.306198E-18
5.330000E+03	8.755337E-17	6.276212E-18
5.340000E+03	8.745793E-17	6.243349E-18
5.350000E+03	8.731677E-17	6.207694E-18
5.360000E+03	8.712930E-17	6.169427E-18
5.370000E+03	8.689520E-17	6.128758E-18
5.380000E+03	8.661450E-17	6.085927E-18
5.390000E+03	8.628582E-17	6.041084E-18
5.400000E+03	8.591073E-17	5.994588E-18
5.410000E+03	8.548944E-17	5.946701E-18
5.420000E+03	8.502422E-17	5.897826E-18
5.430000E+03	8.451515E-17	5.848198E-18
5.440000E+03	8.396690E-17	5.798356E-18
5.450000E+03	8.338272E-17	5.748712E-18
5.460000E+03	8.277033E-17	5.699955E-18
5.470000E+03	8.213105E-17	5.652288E-18
5.480000E+03	8.146250E-17	5.605609E-18
5.490000E+03	8.076444E-17	5.559899E-18
5.500000E+03	8.003971E-17	5.515265E-18
5.510000E+03	7.929524E-17	5.471964E-18
5.520000E+03	7.853427E-17	5.429936E-18
5.530000E+03	7.776484E-17	5.389417E-18
5.540000E+03	7.699099E-17	5.350343E-18
5.550000E+03	7.621896E-17	5.312802E-18
5.560000E+03	7.545472E-17	5.276869E-18
5.570000E+03	7.470392E-17	5.242614E-18
5.580000E+03	7.397034E-17	5.210001E-18
5.590000E+03	7.325888E-17	5.179099E-18
5.600000E+03	7.257405E-17	5.149977E-18
5.610000E+03	7.191914E-17	5.122656E-18
5.620000E+03	7.129704E-17	5.097151E-18
5.630000E+03	7.071164E-17	5.073582E-18
5.640000E+03	7.016424E-17	5.051908E-18
5.650000E+03	6.965712E-17	5.032183E-18
5.660000E+03	6.919147E-17	5.014404E-18
5.670000E+03	6.876878E-17	4.998606E-18
5.680000E+03	6.838944E-17	4.984760E-18
5.690000E+03	6.805352E-17	4.972825E-18
5.700000E+03	6.776148E-17	4.962795E-18
5.710000E+03	6.751345E-17	4.954649E-18
5.720000E+03	6.730792E-17	4.948246E-18
5.730000E+03	6.714455E-17	4.943532E-18
5.740000E+03	6.702209E-17	4.940387E-18
5.750000E+03	6.693914E-17	4.938673E-18
5.760000E+03	6.689556E-17	4.938343E-18
5.770000E+03	6.688828E-17	4.939127E-18
5.780000E+03	6.691699E-17	4.940952E-18
5.790000E+03	6.697921E-17	4.943576E-18
5.800000E+03	6.707383E-17	4.946852E-18
5.810000E+03	6.719906E-17	4.950572E-18
5.820000E+03	6.735311E-17	4.954521E-18
5.830000E+03	6.753495E-17	4.958531E-18
5.840000E+03	6.774217E-17	4.962326E-18
5.850000E+03	6.797387E-17	4.965734E-18
5.860000E+03	6.822852E-17	4.968530E-18
5.870000E+03	6.850389E-17	4.970437E-18
5.880000E+03	6.880015E-17	4.971346E-18
5.890000E+03	6.911452E-17	4.970938E-18
5.900000E+03	6.944737E-17	4.969119E-18
5.910000E+03	6.979689E-17	4.965646E-18
5.920000E+03	7.016216E-17	4.960343E-18
5.930000E+03	7.054314E-17	4.953108E-18
5.940000E+03	7.093754E-17	4.943692E-18
5.950000E+03	7.134553E-17	4.932038E-18
5.960000E+03	7.176742E-17	4.918115E-18
5.970000E+03	7.220120E-17	4.901758E-18
5.980000E+03	7.264738E-17	4.883002E-18
5.990000E+03	7.310576E-17	4.861869E-18
6.000000E+03	7.357539E-17	4.838370E-18
6.010000E+03	7.405623E-17	4.812620E-18
6.020000E+03	7.454834E-17	4.784795E-18
6.030000E+03	7.505096E-17	4.755074E-18
6.040000E+03	7.556428E-17	4.723764E-18
6.050000E+03	7.608940E-17	4.691301E-18
6.060000E+03	7.662395E-17	4.657985E-18
6.070000E+03	7.717000E-17	4.624477E-18
6.080000E+03	7.772511E-17	4.591257E-18
6.090000E+03	7.829136E-17	4.559171E-18
6.100000E+03	7.886620E-17	4.528887E-18
6.110000E+03	7.945065E-17	4.501376E-18
6.120000E+03	8.004277E-17	4.477522E-18
6.130000E+03	8.064332E-17	4.458428E-18
6.140000E+03	8.124991E-17	4.445063E-18
6.150000E+03	8.186081E-17	4.438441E-18
6.160000E+03	8.247597E-17	4.439631E-18
6.170000E+03	8.309205E-17	4.449435E-18
6.180000E+03	8.370840E-17	4.468652E-18
6.190000E+03	8.432317E-17	4.497815E-18
6.200000E+03	8.493531E-17	4.537161E-18
6.210000E+03	8.554522E-17	4.586592E-18
6.220000E+03	8.615547E-17	4.645865E-18
6.230000E+03	8.676630E-17	4.714401E-18
6.240000E+03	8.737884E-17	4.791506E-18
6.250000E+03	8.799393E-17	4.876365E-18
6.260000E+03	8.861453E-17	4.968214E-18
6.270000E+03	8.923884E-17	5.066004E-18
6.280000E+03	8.986711E-17	5.168811E-18
6.290000E+03	9.050071E-17	5.275808E-18
6.300000E+03	9.113970E-17	5.386152E-18
6.310000E+03	9.178290E-17	5.498990E-18
6.320000E+03	9.242900E-17	5.613532E-18
6.330000E+03	9.307914E-17	5.729212E-18
6.340000E+03	9.373069E-17	5.845309E-18
6.350000E+03	9.438351E-17	5.961327E-18
6.360000E+03	9.503618E-17	6.076758E-18
6.370000E+03	9.568725E-17	6.191155E-18
6.380000E+03	9.633527E-17	6.304127E-18
6.390000E+03	9.697876E-17	6.415337E-18
6.400000E+03	9.761627E-17	6.524491E-18
6.410000E+03	9.824493E-17	6.631244E-18
6.420000E+03	9.886468E-17	6.735472E-18
6.430000E+03	9.947409E-17	6.836996E-18
6.440000E+03	1.000733E-16	6.935764E-18
6.450000E+03	1.006623E-16	7.031760E-18
6.460000E+03	1.012386E-16	7.124784E-18
6.470000E+03	1.018040E-16	7.214974E-18
6.480000E+03	1.023573E-16	7.302277E-18
6.490000E+03	1.028992E-16	7.386766E-18
6.500000E+03	1.034272E-16	7.468306E-18
6.510000E+03	1.039435E-16	7.547113E-18
6.520000E+03	1.044459E-16	7.623071E-18
6.530000E+03	1.049353E-16	7.696303E-18
6.540000E+03	1.054095E-16	7.766702E-18
6.550000E+03	1.058694E-16	7.834405E-18
6.560000E+03	1.063165E-16	7.899560E-18
6.570000E+03	1.067468E-16	7.961945E-18
6.580000E+03	1.071617E-16	8.021710E-18
6.590000E+03	1.075627E-16	8.079018E-18
6.600000E+03	1.079461E-16	8.133640E-18
6.610000E+03	1.083150E-16	8.185873E-18
6.620000E+03	1.086660E-16	8.235486E-18
6.630000E+03	1.090023E-16	8.282781E-18
6.640000E+03	1.093203E-16	8.327522E-18
6.650000E+03	1.096217E-16	8.369879E-18
6.660000E+03	1.099065E-16	8.409886E-18
6.670000E+03	1.101728E-16	8.447435E-18
6.680000E+03	1.104224E-16	8.482698E-18
6.690000E+03	1.106534E-16	8.515559E-18
6.700000E+03	1.108658E-16	8.546042E-18
6.710000E+03	1.110615E-16	8.574317E-18
6.720000E+03	1.112387E-16	8.600258E-18
6.730000E+03	1.113953E-16	8.623728E-18
6.740000E+03	1.115352E-16	8.645039E-18
6.750000E+03	1.116547E-16	8.663897E-18
6.760000E+03	1.117557E-16	8.680456E-18
6.770000E+03	1.118381E-16	8.694715E-18
6.780000E+03	1.119002E-16	8.706517E-18
6.790000E+03	1.119419E-16	8.715850E-18
6.800000E+03	1.119632E-16	8.722703E-18
6.810000E+03	1.119664E-16	8.727222E-18
6.820000E+03	1.119495E-16	8.729234E-18
6.830000E+03	1.119106E-16	8.728566E-18
6.840000E+03	1.118517E-16	8.725362E-18
6.850000E+03	1.117732E-16	8.719614E-18
6.860000E+03	1.116752E-16	8.711312E-18
6.870000E+03	1.115559E-16	8.700293E-18
6.880000E+03	1.114155E-16	8.686558E-18
6.890000E+03	1.112563E-16	8.670276E-18
6.900000E+03	1.110766E-16	8.651301E-18
6.910000E+03	1.108766E-16	8.629653E-18
6.920000E+03	1.106569E-16	8.605362E-18
6.930000E+03	1.104178E-16	8.578464E-18
6.940000E+03	1.101597E-16	8.549004E-18
6.950000E+03	1.098831E-16	8.517031E-18
6.960000E+03	1.095864E-16	8.482439E-18
6.970000E+03	1.092702E-16	8.445289E-18
6.980000E+03	1.089372E-16	8.405811E-18
6.990000E+03	1.085880E-16	8.364074E-18
7.000000E+03	1.082190E-16	8.319825E-18
7.010000E+03	1.078353E-16	8.273461E-18
7.020000E+03	1.074354E-16	8.224892E-18
7.030000E+03	1.070201E-16	8.174189E-18
7.040000E+03	1.065881E-16	8.121261E-18
7.050000E+03	1.061425E-16	8.066336E-18
7.060000E+03	1.056840E-16	8.009472E-18
7.070000E+03	1.052137E-16	7.950726E-18
7.080000E+03	1.047304E-16	7.889987E-18
7.090000E+03	1.042351E-16	7.827301E-18
7.100000E+03	1.037309E-16	7.762859E-18
7.110000E+03	1.032168E-16	7.696532E-18
7.120000E+03	1.026917E-16	7.628187E-18
7.130000E+03	1.021610E-16	7.558146E-18
7.140000E+03	1.016236E-16	7.486258E-18
7.150000E+03	1.010807E-16	7.412523E-18
7.160000E+03	1.005313E-16	7.336780E-18
7.170000E+03	9.997872E-17	7.259168E-18
7.180000E+03	9.942401E-17	7.179667E-18
7.190000E+03	9.886627E-17	7.098107E-18
7.200000E+03	9.830666E-17	7.014468E-18
7.210000E+03	9.774829E-17	6.928873E-18
7.220000E+03	9.719023E-17	6.841155E-18
7.230000E+03	9.663355E-17	6.751300E-18
7.240000E+03	9.607929E-17	6.659300E-18
7.250000E+03	9.552845E-17	6.565157E-18
7.260000E+03	9.498001E-17	6.468752E-18
7.270000E+03	9.443885E-17	6.370388E-18
7.280000E+03	9.390386E-17	6.269982E-18
7.290000E+03	9.337195E-17	6.167353E-18
7.300000E+03	9.284979E-17	6.063006E-18
7.310000E+03	9.233225E-17	5.956702E-18
7.320000E+03	9.182394E-17	5.848889E-18
7.330000E+03	9.132354E-17	5.739682E-18
7.340000E+03	9.083164E-17	5.629378E-18
7.350000E+03	9.034687E-17	5.518220E-18
7.360000E+03	8.986971E-17	5.406645E-18
7.370000E+03	8.940062E-17	5.295167E-18
7.380000E+03	8.893994E-17	5.184384E-18
7.390000E+03	8.848414E-17	5.074765E-18
7.400000E+03	8.803534E-17	4.967209E-18
7.410000E+03	8.758981E-17	4.862386E-18
7.420000E+03	8.714563E-17	4.761173E-18
7.430000E+03	8.670070E-17	4.664536E-18
7.440000E+03	8.625650E-17	4.573706E-18
7.450000E+03	8.581238E-17	4.489846E-18
7.460000E+03	8.537120E-17	4.414311E-18
7.470000E+03	8.493546E-17	4.348396E-18
7.480000E+03	8.450180E-17	4.292996E-18
7.490000E+03	8.407034E-17	4.249030E-18
7.500000E+03	8.364295E-17	4.217267E-18
7.510000E+03	8.321403E-17	4.197801E-18
7.520000E+03	8.278738E-17	4.190678E-18
7.530000E+03	8.236564E-17	4.195314E-18
7.540000E+03	8.195152E-17	4.210839E-18
7.550000E+03	8.154754E-17	4.236181E-18
7.560000E+03	8.115590E-17	4.270137E-18
7.570000E+03	8.078030E-17	4.311552E-18
7.580000E+03	8.042037E-17	4.359076E-18
7.590000E+03	8.007909E-17	4.411610E-18
7.600000E+03	7.975545E-17	4.467935E-18
7.610000E+03	7.945189E-17	4.527141E-18
7.620000E+03	7.916873E-17	4.588333E-18
7.630000E+03	7.890430E-17	4.650624E-18
7.640000E+03	7.866045E-17	4.713462E-18
7.650000E+03	7.843704E-17	4.776299E-18
7.660000E+03	7.823200E-17	4.838574E-18
7.670000E+03	7.804684E-17	4.900048E-18
7.680000E+03	7.787932E-17	4.960332E-18
7.690000E+03	7.773265E-17	5.019465E-18
7.700000E+03	7.760263E-17	5.077075E-18
7.710000E+03	7.749054E-17	5.133196E-18
7.720000E+03	7.739395E-17	5.187667E-18
7.730000E+03	7.731408E-17	5.240604E-18
7.740000E+03	7.725030E-17	5.292031E-18
7.750000E+03	7.720194E-17	5.341993E-18
7.760000E+03	7.716648E-17	5.390420E-18
