#wls	flux	fluxerr
1.600000E+03	1.260826E-16	1.221043E-16
1.640000E+03	1.303450E-16	1.241348E-16
1.680000E+03	1.344942E-16	1.258754E-16
1.720000E+03	1.384704E-16	1.272726E-16
1.760000E+03	1.422624E-16	1.283208E-16
1.800000E+03	1.458026E-16	1.289660E-16
1.840000E+03	1.490462E-16	1.291792E-16
1.880000E+03	1.519712E-16	1.289547E-16
1.920000E+03	1.545020E-16	1.282447E-16
1.960000E+03	1.566003E-16	1.270382E-16
2.000000E+03	1.582035E-16	1.253087E-16
2.040000E+03	1.592748E-16	1.230558E-16
2.080000E+03	1.597358E-16	1.202517E-16
2.120000E+03	1.595294E-16	1.168919E-16
2.160000E+03	1.586000E-16	1.129787E-16
2.200000E+03	1.568613E-16	1.084993E-16
2.240000E+03	1.542462E-16	1.034625E-16
2.280000E+03	1.507535E-16	9.792684E-17
2.320000E+03	1.464367E-16	9.198688E-17
2.360000E+03	1.414417E-16	8.578984E-17
2.400000E+03	1.358896E-16	7.945675E-17
2.440000E+03	1.298875E-16	7.309069E-17
2.480000E+03	1.235464E-16	6.678785E-17
2.520000E+03	1.169370E-16	6.061358E-17
2.560000E+03	1.101396E-16	5.463172E-17
2.600000E+03	1.032233E-16	4.889308E-17
2.640000E+03	9.626028E-17	4.344316E-17
2.680000E+03	8.931017E-17	3.831489E-17
2.720000E+03	8.243314E-17	3.353527E-17
2.760000E+03	7.568567E-17	2.912356E-17
2.800000E+03	6.912029E-17	2.509161E-17
2.840000E+03	6.278684E-17	2.144475E-17
2.880000E+03	5.673340E-17	1.818245E-17
2.920000E+03	5.100249E-17	1.529751E-17
2.960000E+03	4.563054E-17	1.277674E-17
3.000000E+03	4.064381E-17	1.060081E-17
3.010000E+03	3.946036E-17	1.010820E-17
3.020000E+03	3.830115E-17	9.634952E-18
3.030000E+03	3.716785E-17	9.181035E-18
3.040000E+03	3.605945E-17	8.745733E-18
3.050000E+03	3.497659E-17	8.328741E-18
3.060000E+03	3.391978E-17	7.929713E-18
3.070000E+03	3.288732E-17	7.547788E-18
3.080000E+03	3.188107E-17	7.182935E-18
3.090000E+03	3.089935E-17	6.834314E-18
3.100000E+03	2.994313E-17	6.501690E-18
3.110000E+03	2.901145E-17	6.184397E-18
3.120000E+03	2.810397E-17	5.881925E-18
3.130000E+03	2.722150E-17	5.593993E-18
3.140000E+03	2.636286E-17	5.319892E-18
3.150000E+03	2.552949E-17	5.059445E-18
3.160000E+03	2.471978E-17	4.811872E-18
3.170000E+03	2.393497E-17	4.576963E-18
3.180000E+03	2.317392E-17	4.354058E-18
3.190000E+03	2.243723E-17	4.142837E-18
3.200000E+03	2.172413E-17	3.942746E-18
3.210000E+03	2.103466E-17	3.753385E-18
3.220000E+03	2.036844E-17	3.574290E-18
3.230000E+03	1.972521E-17	3.405017E-18
3.240000E+03	1.910440E-17	3.245077E-18
3.250000E+03	1.850637E-17	3.094157E-18
3.260000E+03	1.793044E-17	2.951783E-18
3.270000E+03	1.737652E-17	2.817596E-18
3.280000E+03	1.684390E-17	2.691154E-18
3.290000E+03	1.633212E-17	2.572065E-18
3.300000E+03	1.584094E-17	2.459992E-18
3.310000E+03	1.536962E-17	2.354530E-18
3.320000E+03	1.491784E-17	2.255359E-18
3.330000E+03	1.448507E-17	2.162134E-18
3.340000E+03	1.407033E-17	2.074470E-18
3.350000E+03	1.367350E-17	1.992114E-18
3.360000E+03	1.329386E-17	1.914739E-18
3.370000E+03	1.293085E-17	1.842063E-18
3.380000E+03	1.258397E-17	1.773814E-18
3.390000E+03	1.225235E-17	1.709693E-18
3.400000E+03	1.193584E-17	1.649507E-18
3.410000E+03	1.163377E-17	1.593001E-18
3.420000E+03	1.134549E-17	1.539937E-18
3.430000E+03	1.107054E-17	1.490114E-18
3.440000E+03	1.080846E-17	1.443336E-18
3.450000E+03	1.055855E-17	1.399385E-18
3.460000E+03	1.032050E-17	1.358112E-18
3.470000E+03	1.009368E-17	1.319324E-18
3.480000E+03	9.877713E-18	1.282874E-18
3.490000E+03	9.672122E-18	1.248613E-18
3.500000E+03	9.476472E-18	1.216398E-18
3.510000E+03	9.290350E-18	1.186098E-18
3.520000E+03	9.113368E-18	1.157594E-18
3.530000E+03	8.945060E-18	1.130760E-18
3.540000E+03	8.784995E-18	1.105482E-18
3.550000E+03	8.632862E-18	1.081666E-18
3.560000E+03	8.488274E-18	1.059214E-18
3.570000E+03	8.350956E-18	1.038046E-18
3.580000E+03	8.220475E-18	1.018067E-18
3.590000E+03	8.096591E-18	9.992089E-19
3.600000E+03	7.978994E-18	9.814002E-19
3.610000E+03	7.867547E-18	9.645939E-19
3.620000E+03	7.761888E-18	9.487159E-19
3.630000E+03	7.661826E-18	9.337167E-19
3.640000E+03	7.566961E-18	9.195251E-19
3.650000E+03	7.477134E-18	9.060994E-19
3.660000E+03	7.392125E-18	8.933933E-19
3.670000E+03	7.311723E-18	8.813648E-19
3.680000E+03	7.235795E-18	8.699806E-19
3.690000E+03	7.164212E-18	8.592106E-19
3.700000E+03	7.096785E-18	8.490193E-19
3.710000E+03	7.033455E-18	8.393859E-19
3.720000E+03	6.974039E-18	8.302763E-19
3.730000E+03	6.918540E-18	8.216810E-19
3.740000E+03	6.866834E-18	8.135736E-19
3.750000E+03	6.818798E-18	8.059295E-19
3.760000E+03	6.774370E-18	7.987335E-19
3.770000E+03	6.733543E-18	7.919759E-19
3.780000E+03	6.696194E-18	7.856349E-19
3.790000E+03	6.662315E-18	7.797037E-19
3.800000E+03	6.631789E-18	7.741607E-19
3.810000E+03	6.604557E-18	7.689925E-19
3.820000E+03	6.580617E-18	7.641935E-19
3.830000E+03	6.559972E-18	7.597562E-19
3.840000E+03	6.542513E-18	7.556620E-19
3.850000E+03	6.528298E-18	7.519122E-19
3.860000E+03	6.517168E-18	7.484816E-19
3.870000E+03	6.509234E-18	7.453771E-19
3.880000E+03	6.504339E-18	7.425759E-19
3.890000E+03	6.502587E-18	7.400831E-19
3.900000E+03	6.503869E-18	7.378806E-19
3.910000E+03	6.508185E-18	7.359631E-19
3.920000E+03	6.515475E-18	7.343176E-19
3.930000E+03	6.525733E-18	7.329378E-19
3.940000E+03	6.538902E-18	7.318123E-19
3.950000E+03	6.555027E-18	7.309398E-19
3.960000E+03	6.573998E-18	7.303022E-19
3.970000E+03	6.595810E-18	7.298939E-19
3.980000E+03	6.620403E-18	7.297015E-19
3.990000E+03	6.647823E-18	7.297238E-19
4.000000E+03	6.678010E-18	7.299489E-19
4.010000E+03	6.710903E-18	7.303626E-19
4.020000E+03	6.746439E-18	7.309515E-19
4.030000E+03	6.784663E-18	7.317147E-19
4.040000E+03	6.825462E-18	7.326323E-19
4.050000E+03	6.868883E-18	7.337027E-19
4.060000E+03	6.914815E-18	7.349086E-19
4.070000E+03	6.963258E-18	7.362422E-19
4.080000E+03	7.014215E-18	7.376974E-19
4.090000E+03	7.067635E-18	7.392637E-19
4.100000E+03	7.123470E-18	7.409294E-19
4.110000E+03	7.181671E-18	7.426845E-19
4.120000E+03	7.242301E-18	7.445323E-19
4.130000E+03	7.305257E-18	7.464566E-19
4.140000E+03	7.370547E-18	7.484546E-19
4.150000E+03	7.438063E-18	7.505132E-19
4.160000E+03	7.507814E-18	7.526275E-19
4.170000E+03	7.579811E-18	7.547943E-19
4.180000E+03	7.653945E-18	7.570001E-19
4.190000E+03	7.730229E-18	7.592408E-19
4.200000E+03	7.808558E-18	7.615025E-19
4.210000E+03	7.888942E-18	7.637851E-19
4.220000E+03	7.971275E-18	7.660749E-19
4.230000E+03	8.055570E-18	7.683725E-19
4.240000E+03	8.141716E-18	7.706693E-19
4.250000E+03	8.229665E-18	7.729614E-19
4.260000E+03	8.319306E-18	7.752422E-19
4.270000E+03	8.410650E-18	7.775201E-19
4.280000E+03	8.503581E-18	7.797909E-19
4.290000E+03	8.598044E-18	7.820597E-19
4.300000E+03	8.693909E-18	7.843291E-19
4.310000E+03	8.791043E-18	7.866001E-19
4.320000E+03	8.889373E-18	7.888832E-19
4.330000E+03	8.988820E-18	7.911924E-19
4.340000E+03	9.089228E-18	7.935334E-19
4.350000E+03	9.190500E-18	7.959212E-19
4.360000E+03	9.292461E-18	7.983665E-19
4.370000E+03	9.395081E-18	8.008881E-19
4.380000E+03	9.498247E-18	8.034994E-19
4.390000E+03	9.602080E-18	8.062331E-19
4.400000E+03	9.706470E-18	8.090818E-19
4.410000E+03	9.811451E-18	8.120396E-19
4.420000E+03	9.916982E-18	8.150935E-19
4.430000E+03	1.002320E-17	8.182375E-19
4.440000E+03	1.012999E-17	8.214469E-19
4.450000E+03	1.023734E-17	8.247053E-19
4.460000E+03	1.034531E-17	8.279984E-19
4.470000E+03	1.045389E-17	8.313080E-19
4.480000E+03	1.056309E-17	8.346187E-19
4.490000E+03	1.067280E-17	8.379032E-19
4.500000E+03	1.078311E-17	8.411518E-19
4.510000E+03	1.089392E-17	8.443443E-19
4.520000E+03	1.100522E-17	8.474613E-19
4.530000E+03	1.111701E-17	8.504880E-19
4.540000E+03	1.122909E-17	8.534005E-19
4.550000E+03	1.134154E-17	8.561952E-19
4.560000E+03	1.145427E-17	8.588602E-19
4.570000E+03	1.156727E-17	8.613982E-19
4.580000E+03	1.168037E-17	8.637957E-19
4.590000E+03	1.179366E-17	8.660691E-19
4.600000E+03	1.190697E-17	8.682187E-19
4.610000E+03	1.202042E-17	8.702624E-19
4.620000E+03	1.213384E-17	8.722016E-19
4.630000E+03	1.224726E-17	8.740583E-19
4.640000E+03	1.236064E-17	8.758366E-19
4.650000E+03	1.247412E-17	8.775611E-19
4.660000E+03	1.258757E-17	8.792377E-19
4.670000E+03	1.270118E-17	8.808833E-19
4.680000E+03	1.281492E-17	8.825036E-19
4.690000E+03	1.292877E-17	8.841090E-19
4.700000E+03	1.304294E-17	8.857137E-19
4.710000E+03	1.315731E-17	8.873130E-19
4.720000E+03	1.327197E-17	8.889229E-19
4.730000E+03	1.338680E-17	8.905300E-19
4.740000E+03	1.350196E-17	8.921382E-19
4.750000E+03	1.361721E-17	8.937296E-19
4.760000E+03	1.373271E-17	8.952926E-19
4.770000E+03	1.384837E-17	8.968032E-19
4.780000E+03	1.396433E-17	8.982595E-19
4.790000E+03	1.408049E-17	8.996302E-19
4.800000E+03	1.419685E-17	9.008990E-19
4.810000E+03	1.431344E-17	9.020588E-19
4.820000E+03	1.443026E-17	9.030951E-19
4.830000E+03	1.454732E-17	9.040037E-19
4.840000E+03	1.466446E-17	9.047846E-19
4.850000E+03	1.478185E-17	9.054525E-19
4.860000E+03	1.489947E-17	9.060275E-19
4.870000E+03	1.501721E-17	9.065339E-19
4.880000E+03	1.513508E-17	9.070009E-19
4.890000E+03	1.525325E-17	9.074788E-19
4.900000E+03	1.537144E-17	9.080017E-19
4.910000E+03	1.548997E-17	9.086207E-19
4.920000E+03	1.560871E-17	9.093687E-19
4.930000E+03	1.572753E-17	9.102806E-19
4.940000E+03	1.584655E-17	9.113697E-19
4.950000E+03	1.596575E-17	9.126411E-19
4.960000E+03	1.608496E-17	9.140933E-19
4.970000E+03	1.620427E-17	9.157083E-19
4.980000E+03	1.632333E-17	9.174444E-19
4.990000E+03	1.644237E-17	9.193008E-19
5.000000E+03	1.656117E-17	9.212240E-19
5.010000E+03	1.667945E-17	9.231679E-19
5.020000E+03	1.679727E-17	9.251140E-19
5.030000E+03	1.691434E-17	9.270082E-19
5.040000E+03	1.703054E-17	9.288170E-19
5.050000E+03	1.714573E-17	9.305191E-19
5.060000E+03	1.725974E-17	9.320767E-19
5.070000E+03	1.737222E-17	9.334560E-19
5.080000E+03	1.748314E-17	9.346532E-19
5.090000E+03	1.759211E-17	9.356233E-19
5.100000E+03	1.769888E-17	9.363429E-19
5.110000E+03	1.780302E-17	9.367931E-19
5.120000E+03	1.790448E-17	9.369533E-19
5.130000E+03	1.800267E-17	9.367901E-19
5.140000E+03	1.809774E-17	9.363186E-19
5.150000E+03	1.818912E-17	9.354853E-19
5.160000E+03	1.827683E-17	9.342781E-19
5.170000E+03	1.836049E-17	9.326886E-19
5.180000E+03	1.843974E-17	9.307047E-19
5.190000E+03	1.851454E-17	9.283577E-19
5.200000E+03	1.858452E-17	9.256855E-19
5.210000E+03	1.864947E-17	9.227278E-19
5.220000E+03	1.870920E-17	9.195495E-19
5.230000E+03	1.876330E-17	9.162276E-19
5.240000E+03	1.881157E-17	9.128260E-19
5.250000E+03	1.885359E-17	9.094192E-19
5.260000E+03	1.888931E-17	9.061105E-19
5.270000E+03	1.891831E-17	9.029344E-19
5.280000E+03	1.894032E-17	8.999435E-19
5.290000E+03	1.895510E-17	8.972021E-19
5.300000E+03	1.896219E-17	8.947212E-19
5.310000E+03	1.896133E-17	8.925321E-19
5.320000E+03	1.895227E-17	8.906790E-19
5.330000E+03	1.893477E-17	8.891658E-19
5.340000E+03	1.890841E-17	8.880005E-19
5.350000E+03	1.887320E-17	8.872192E-19
5.360000E+03	1.882893E-17	8.868032E-19
5.370000E+03	1.877546E-17	8.867445E-19
5.380000E+03	1.871247E-17	8.870373E-19
5.390000E+03	1.864033E-17	8.876601E-19
5.400000E+03	1.855889E-17	8.885765E-19
5.410000E+03	1.846859E-17	8.897907E-19
5.420000E+03	1.836950E-17	8.912482E-19
5.430000E+03	1.826208E-17	8.929267E-19
5.440000E+03	1.814667E-17	8.948110E-19
5.450000E+03	1.802413E-17	8.968796E-19
5.460000E+03	1.789478E-17	8.990994E-19
5.470000E+03	1.775903E-17	9.014489E-19
5.480000E+03	1.761724E-17	9.038637E-19
5.490000E+03	1.747019E-17	9.063091E-19
5.500000E+03	1.731834E-17	9.087457E-19
5.510000E+03	1.716245E-17	9.111201E-19
5.520000E+03	1.700333E-17	9.133931E-19
5.530000E+03	1.684176E-17	9.155410E-19
5.540000E+03	1.667856E-17	9.175246E-19
5.550000E+03	1.651472E-17	9.193288E-19
5.560000E+03	1.635103E-17	9.209418E-19
5.570000E+03	1.618867E-17	9.223487E-19
5.580000E+03	1.602832E-17	9.235187E-19
5.590000E+03	1.587127E-17	9.244746E-19
5.600000E+03	1.571808E-17	9.251928E-19
5.610000E+03	1.556979E-17	9.256927E-19
5.620000E+03	1.542734E-17	9.260078E-19
5.630000E+03	1.529105E-17	9.261329E-19
5.640000E+03	1.516198E-17	9.261226E-19
5.650000E+03	1.504046E-17	9.260062E-19
5.660000E+03	1.492670E-17	9.258040E-19
5.670000E+03	1.482146E-17	9.255852E-19
5.680000E+03	1.472467E-17	9.253819E-19
5.690000E+03	1.463657E-17	9.252450E-19
5.700000E+03	1.455738E-17	9.252343E-19
5.710000E+03	1.448712E-17	9.254074E-19
5.720000E+03	1.442571E-17	9.258086E-19
5.730000E+03	1.437301E-17	9.264879E-19
5.740000E+03	1.432906E-17	9.275079E-19
5.750000E+03	1.429385E-17	9.289083E-19
5.760000E+03	1.426689E-17	9.307010E-19
5.770000E+03	1.424852E-17	9.329476E-19
5.780000E+03	1.423839E-17	9.356357E-19
5.790000E+03	1.423680E-17	9.387926E-19
5.800000E+03	1.424364E-17	9.424168E-19
5.810000E+03	1.425912E-17	9.465050E-19
5.820000E+03	1.428336E-17	9.510453E-19
5.830000E+03	1.431661E-17	9.560382E-19
5.840000E+03	1.435883E-17	9.614444E-19
5.850000E+03	1.441013E-17	9.672376E-19
5.860000E+03	1.447076E-17	9.734051E-19
5.870000E+03	1.454097E-17	9.799187E-19
5.880000E+03	1.462051E-17	9.867213E-19
5.890000E+03	1.470977E-17	9.938039E-19
5.900000E+03	1.480870E-17	1.001113E-18
5.910000E+03	1.491756E-17	1.008621E-18
5.920000E+03	1.503648E-17	1.016298E-18
5.930000E+03	1.516531E-17	1.024095E-18
5.940000E+03	1.530427E-17	1.031995E-18
5.950000E+03	1.545337E-17	1.039974E-18
5.960000E+03	1.561242E-17	1.047992E-18
5.970000E+03	1.578169E-17	1.056051E-18
5.980000E+03	1.596079E-17	1.064115E-18
5.990000E+03	1.614974E-17	1.072174E-18
6.000000E+03	1.634841E-17	1.080220E-18
6.010000E+03	1.655644E-17	1.088240E-18
6.020000E+03	1.677376E-17	1.096235E-18
6.030000E+03	1.699974E-17	1.104182E-18
6.040000E+03	1.723443E-17	1.112116E-18
6.050000E+03	1.747708E-17	1.120015E-18
6.060000E+03	1.772744E-17	1.127905E-18
6.070000E+03	1.798485E-17	1.135800E-18
6.080000E+03	1.824875E-17	1.143720E-18
6.090000E+03	1.851830E-17	1.151685E-18
6.100000E+03	1.879261E-17	1.159730E-18
6.110000E+03	1.907115E-17	1.167913E-18
6.120000E+03	1.935240E-17	1.176249E-18
6.130000E+03	1.963572E-17	1.184827E-18
6.140000E+03	1.991965E-17	1.193684E-18
6.150000E+03	2.020318E-17	1.202899E-18
6.160000E+03	2.048422E-17	1.212505E-18
6.170000E+03	2.076183E-17	1.222594E-18
6.180000E+03	2.103401E-17	1.233201E-18
6.190000E+03	2.129921E-17	1.244395E-18
6.200000E+03	2.155596E-17	1.256157E-18
6.210000E+03	2.180443E-17	1.268454E-18
6.220000E+03	2.204524E-17	1.281257E-18
6.230000E+03	2.227907E-17	1.294508E-18
6.240000E+03	2.250670E-17	1.308158E-18
6.250000E+03	2.272811E-17	1.322114E-18
6.260000E+03	2.294477E-17	1.336348E-18
6.270000E+03	2.315646E-17	1.350744E-18
6.280000E+03	2.336417E-17	1.365268E-18
6.290000E+03	2.356863E-17	1.379854E-18
6.300000E+03	2.376966E-17	1.394400E-18
6.310000E+03	2.396801E-17	1.408875E-18
6.320000E+03	2.416415E-17	1.423219E-18
6.330000E+03	2.435851E-17	1.437391E-18
6.340000E+03	2.455092E-17	1.451332E-18
6.350000E+03	2.474185E-17	1.465003E-18
6.360000E+03	2.493146E-17	1.478364E-18
6.370000E+03	2.511989E-17	1.491398E-18
6.380000E+03	2.530698E-17	1.504050E-18
6.390000E+03	2.549253E-17	1.516284E-18
6.400000E+03	2.567634E-17	1.528084E-18
6.410000E+03	2.585857E-17	1.539430E-18
6.420000E+03	2.603898E-17	1.550302E-18
6.430000E+03	2.621657E-17	1.560650E-18
6.440000E+03	2.639260E-17	1.570540E-18
6.450000E+03	2.656718E-17	1.579991E-18
6.460000E+03	2.674085E-17	1.589064E-18
6.470000E+03	2.691454E-17	1.597821E-18
6.480000E+03	2.708803E-17	1.606273E-18
6.490000E+03	2.726229E-17	1.614517E-18
6.500000E+03	2.743749E-17	1.622573E-18
6.510000E+03	2.761423E-17	1.630500E-18
6.520000E+03	2.779180E-17	1.638295E-18
6.530000E+03	2.797165E-17	1.646047E-18
6.540000E+03	2.815306E-17	1.653735E-18
6.550000E+03	2.833660E-17	1.661423E-18
6.560000E+03	2.852240E-17	1.669118E-18
6.570000E+03	2.871014E-17	1.676812E-18
6.580000E+03	2.890037E-17	1.684562E-18
6.590000E+03	2.909324E-17	1.692365E-18
6.600000E+03	2.928843E-17	1.700202E-18
6.610000E+03	2.948607E-17	1.708096E-18
6.620000E+03	2.968628E-17	1.716037E-18
6.630000E+03	2.988968E-17	1.724056E-18
6.640000E+03	3.009541E-17	1.732118E-18
6.650000E+03	3.030405E-17	1.740239E-18
6.660000E+03	3.051568E-17	1.748423E-18
6.670000E+03	3.072986E-17	1.756663E-18
6.680000E+03	3.094713E-17	1.764975E-18
6.690000E+03	3.116700E-17	1.773333E-18
6.700000E+03	3.139001E-17	1.781792E-18
6.710000E+03	3.161511E-17	1.790278E-18
6.720000E+03	3.184284E-17	1.798827E-18
6.730000E+03	3.207376E-17	1.807498E-18
6.740000E+03	3.230680E-17	1.816216E-18
6.750000E+03	3.254253E-17	1.825021E-18
6.760000E+03	3.278042E-17	1.833905E-18
6.770000E+03	3.302106E-17	1.842877E-18
6.780000E+03	3.326393E-17	1.851894E-18
6.790000E+03	3.350906E-17	1.860964E-18
6.800000E+03	3.375713E-17	1.870074E-18
6.810000E+03	3.400699E-17	1.879129E-18
6.820000E+03	3.425994E-17	1.888181E-18
6.830000E+03	3.451481E-17	1.897092E-18
6.840000E+03	3.477290E-17	1.905879E-18
6.850000E+03	3.503300E-17	1.914439E-18
6.860000E+03	3.529508E-17	1.922690E-18
6.870000E+03	3.555978E-17	1.930610E-18
6.880000E+03	3.582705E-17	1.938168E-18
6.890000E+03	3.609550E-17	1.945235E-18
6.900000E+03	3.636636E-17	1.951855E-18
6.910000E+03	3.663883E-17	1.957997E-18
6.920000E+03	3.691345E-17	1.963673E-18
6.930000E+03	3.718868E-17	1.968816E-18
6.940000E+03	3.746500E-17	1.973499E-18
6.950000E+03	3.774223E-17	1.977716E-18
6.960000E+03	3.801942E-17	1.981448E-18
6.970000E+03	3.829708E-17	1.984784E-18
6.980000E+03	3.857499E-17	1.987721E-18
6.990000E+03	3.885217E-17	1.990249E-18
7.000000E+03	3.912840E-17	1.992424E-18
7.010000E+03	3.940346E-17	1.994250E-18
7.020000E+03	3.967794E-17	1.995800E-18
7.030000E+03	3.995011E-17	1.997059E-18
7.040000E+03	4.022137E-17	1.998108E-18
7.050000E+03	4.049001E-17	1.998901E-18
7.060000E+03	4.075665E-17	1.999535E-18
7.070000E+03	4.102040E-17	1.999963E-18
7.080000E+03	4.128196E-17	2.000242E-18
7.090000E+03	4.154126E-17	2.000419E-18
7.100000E+03	4.179743E-17	2.000430E-18
7.110000E+03	4.204960E-17	2.000239E-18
7.120000E+03	4.229941E-17	1.999960E-18
7.130000E+03	4.254605E-17	1.999509E-18
7.140000E+03	4.278953E-17	1.998873E-18
7.150000E+03	4.302989E-17	1.998070E-18
7.160000E+03	4.326628E-17	1.996993E-18
7.170000E+03	4.349963E-17	1.995652E-18
7.180000E+03	4.372909E-17	1.994003E-18
7.190000E+03	4.395476E-17	1.991959E-18
7.200000E+03	4.417766E-17	1.989511E-18
7.210000E+03	4.439703E-17	1.986599E-18
7.220000E+03	4.461391E-17	1.983162E-18
7.230000E+03	4.482661E-17	1.979052E-18
7.240000E+03	4.503615E-17	1.974288E-18
7.250000E+03	4.524263E-17	1.968776E-18
7.260000E+03	4.544610E-17	1.962470E-18
7.270000E+03	4.564658E-17	1.955370E-18
7.280000E+03	4.584397E-17	1.947405E-18
7.290000E+03	4.603718E-17	1.938516E-18
7.300000E+03	4.622703E-17	1.928784E-18
7.310000E+03	4.641331E-17	1.918181E-18
7.320000E+03	4.659580E-17	1.906744E-18
7.330000E+03	4.677325E-17	1.894528E-18
7.340000E+03	4.694646E-17	1.881593E-18
7.350000E+03	4.711627E-17	1.868064E-18
7.360000E+03	4.728043E-17	1.854016E-18
7.370000E+03	4.743979E-17	1.839569E-18
7.380000E+03	4.759420E-17	1.824884E-18
7.390000E+03	4.774457E-17	1.810236E-18
7.400000E+03	4.788973E-17	1.795732E-18
7.410000E+03	4.803067E-17	1.781645E-18
7.420000E+03	4.816842E-17	1.768345E-18
7.430000E+03	4.830199E-17	1.756046E-18
7.440000E+03	4.843365E-17	1.745190E-18
7.450000E+03	4.856137E-17	1.736163E-18
7.460000E+03	4.868651E-17	1.729405E-18
7.470000E+03	4.880824E-17	1.725375E-18
7.480000E+03	4.892801E-17	1.724699E-18
7.490000E+03	4.904397E-17	1.727792E-18
7.500000E+03	4.915772E-17	1.735228E-18
7.510000E+03	4.926970E-17	1.747535E-18
7.520000E+03	4.937906E-17	1.764656E-18
7.530000E+03	4.948799E-17	1.786145E-18
7.540000E+03	4.959411E-17	1.811332E-18
7.550000E+03	4.969860E-17	1.839491E-18
7.560000E+03	4.980037E-17	1.869851E-18
7.570000E+03	4.990068E-17	1.901790E-18
7.580000E+03	4.999854E-17	1.934480E-18
7.590000E+03	5.009535E-17	1.967275E-18
7.600000E+03	5.019010E-17	1.999573E-18
7.610000E+03	5.028291E-17	2.030868E-18
7.620000E+03	5.037509E-17	2.060846E-18
7.630000E+03	5.046549E-17	2.089248E-18
7.640000E+03	5.055414E-17	2.115936E-18
7.650000E+03	5.064223E-17	2.140967E-18
7.660000E+03	5.072850E-17	2.164409E-18
7.670000E+03	5.081405E-17	2.186444E-18
7.680000E+03	5.089622E-17	2.207191E-18
7.690000E+03	5.097733E-17	2.227046E-18
7.700000E+03	5.105720E-17	2.246187E-18
7.710000E+03	5.113438E-17	2.264783E-18
7.720000E+03	5.120994E-17	2.283153E-18
7.730000E+03	5.128245E-17	2.301375E-18
7.740000E+03	5.135174E-17	2.319616E-18
7.750000E+03	5.141895E-17	2.338134E-18
7.760000E+03	5.148387E-17	2.357014E-18
