#wls	flux	fluxerr
1.600000E+03	7.196904E-17	8.054456E-17
1.640000E+03	7.002435E-17	7.755472E-17
1.680000E+03	6.806225E-17	7.457409E-17
1.720000E+03	6.608027E-17	7.160214E-17
1.760000E+03	6.408207E-17	6.864506E-17
1.800000E+03	6.207564E-17	6.571354E-17
1.840000E+03	6.004762E-17	6.279552E-17
1.880000E+03	5.801092E-17	5.990686E-17
1.920000E+03	5.596298E-17	5.704694E-17
1.960000E+03	5.390248E-17	5.421661E-17
2.000000E+03	5.182581E-17	5.141449E-17
2.040000E+03	4.973504E-17	4.864500E-17
2.080000E+03	4.762734E-17	4.590770E-17
2.120000E+03	4.549742E-17	4.320002E-17
2.160000E+03	4.335217E-17	4.053104E-17
2.200000E+03	4.119045E-17	3.790206E-17
2.240000E+03	3.901748E-17	3.532014E-17
2.280000E+03	3.684481E-17	3.279767E-17
2.320000E+03	3.468789E-17	3.034962E-17
2.360000E+03	3.256545E-17	2.799281E-17
2.400000E+03	3.049442E-17	2.574125E-17
2.440000E+03	2.848827E-17	2.360488E-17
2.480000E+03	2.656075E-17	2.159293E-17
2.520000E+03	2.471862E-17	1.970800E-17
2.560000E+03	2.296831E-17	1.795190E-17
2.600000E+03	2.131142E-17	1.632214E-17
2.640000E+03	1.974923E-17	1.481577E-17
2.680000E+03	1.828063E-17	1.342790E-17
2.720000E+03	1.690411E-17	1.215326E-17
2.760000E+03	1.561781E-17	1.098637E-17
2.800000E+03	1.441909E-17	9.921213E-18
2.840000E+03	1.330520E-17	8.951815E-18
2.880000E+03	1.227393E-17	8.072644E-18
2.920000E+03	1.132198E-17	7.277596E-18
2.960000E+03	1.044725E-17	6.561481E-18
3.000000E+03	9.646227E-18	5.918379E-18
3.010000E+03	9.457381E-18	5.768522E-18
3.020000E+03	9.272741E-18	5.622705E-18
3.030000E+03	9.092245E-18	5.480837E-18
3.040000E+03	8.916226E-18	5.343068E-18
3.050000E+03	8.744394E-18	5.209170E-18
3.060000E+03	8.576671E-18	5.079048E-18
3.070000E+03	8.413163E-18	4.952711E-18
3.080000E+03	8.253603E-18	4.829954E-18
3.090000E+03	8.097918E-18	4.710686E-18
3.100000E+03	7.946367E-18	4.595009E-18
3.110000E+03	7.798531E-18	4.482633E-18
3.120000E+03	7.654498E-18	4.373563E-18
3.130000E+03	7.514037E-18	4.267622E-18
3.140000E+03	7.377519E-18	4.164976E-18
3.150000E+03	7.244419E-18	4.065285E-18
3.160000E+03	7.114813E-18	3.968548E-18
3.170000E+03	6.988760E-18	3.874757E-18
3.180000E+03	6.866179E-18	3.783824E-18
3.190000E+03	6.746738E-18	3.695528E-18
3.200000E+03	6.630747E-18	3.609999E-18
3.210000E+03	6.517883E-18	3.527022E-18
3.220000E+03	6.408197E-18	3.446586E-18
3.230000E+03	6.301507E-18	3.368558E-18
3.240000E+03	6.197859E-18	3.292927E-18
3.250000E+03	6.097186E-18	3.219621E-18
3.260000E+03	5.999421E-18	3.148572E-18
3.270000E+03	5.904402E-18	3.079659E-18
3.280000E+03	5.812170E-18	3.012873E-18
3.290000E+03	5.722665E-18	2.948150E-18
3.300000E+03	5.635735E-18	2.885382E-18
3.310000E+03	5.551419E-18	2.824558E-18
3.320000E+03	5.469575E-18	2.765576E-18
3.330000E+03	5.390239E-18	2.708426E-18
3.340000E+03	5.313276E-18	2.653011E-18
3.350000E+03	5.238640E-18	2.599283E-18
3.360000E+03	5.166288E-18	2.547193E-18
3.370000E+03	5.096176E-18	2.496693E-18
3.380000E+03	5.028262E-18	2.447738E-18
3.390000E+03	4.962433E-18	2.400249E-18
3.400000E+03	4.898725E-18	2.354219E-18
3.410000E+03	4.836963E-18	2.309539E-18
3.420000E+03	4.777252E-18	2.266240E-18
3.430000E+03	4.719425E-18	2.224218E-18
3.440000E+03	4.663455E-18	2.183440E-18
3.450000E+03	4.609318E-18	2.143873E-18
3.460000E+03	4.556926E-18	2.105458E-18
3.470000E+03	4.506320E-18	2.068192E-18
3.480000E+03	4.457417E-18	2.032018E-18
3.490000E+03	4.410142E-18	1.996884E-18
3.500000E+03	4.364479E-18	1.962763E-18
3.510000E+03	4.320361E-18	1.929608E-18
3.520000E+03	4.277830E-18	1.897421E-18
3.530000E+03	4.236716E-18	1.866109E-18
3.540000E+03	4.197068E-18	1.835677E-18
3.550000E+03	4.158829E-18	1.806084E-18
3.560000E+03	4.121998E-18	1.777315E-18
3.570000E+03	4.086475E-18	1.749310E-18
3.580000E+03	4.052218E-18	1.722038E-18
3.590000E+03	4.019280E-18	1.695506E-18
3.600000E+03	3.987529E-18	1.669644E-18
3.610000E+03	3.957021E-18	1.644463E-18
3.620000E+03	3.927724E-18	1.619935E-18
3.630000E+03	3.899562E-18	1.596016E-18
3.640000E+03	3.872513E-18	1.572684E-18
3.650000E+03	3.846595E-18	1.549934E-18
3.660000E+03	3.821747E-18	1.527728E-18
3.670000E+03	3.798035E-18	1.506082E-18
3.680000E+03	3.775361E-18	1.484943E-18
3.690000E+03	3.753755E-18	1.464312E-18
3.700000E+03	3.733208E-18	1.444174E-18
3.710000E+03	3.713754E-18	1.424529E-18
3.720000E+03	3.695348E-18	1.405348E-18
3.730000E+03	3.678028E-18	1.386635E-18
3.740000E+03	3.661795E-18	1.368377E-18
3.750000E+03	3.646691E-18	1.350578E-18
3.760000E+03	3.632720E-18	1.333228E-18
3.770000E+03	3.619928E-18	1.316329E-18
3.780000E+03	3.608326E-18	1.299875E-18
3.790000E+03	3.597928E-18	1.283855E-18
3.800000E+03	3.588857E-18	1.268302E-18
3.810000E+03	3.581061E-18	1.253182E-18
3.820000E+03	3.574635E-18	1.238515E-18
3.830000E+03	3.569672E-18	1.224318E-18
3.840000E+03	3.566168E-18	1.210573E-18
3.850000E+03	3.564191E-18	1.197287E-18
3.860000E+03	3.563847E-18	1.184480E-18
3.870000E+03	3.565211E-18	1.172159E-18
3.880000E+03	3.568364E-18	1.160332E-18
3.890000E+03	3.573359E-18	1.148996E-18
3.900000E+03	3.580319E-18	1.138172E-18
3.910000E+03	3.589344E-18	1.127869E-18
3.920000E+03	3.600537E-18	1.118097E-18
3.930000E+03	3.614011E-18	1.108869E-18
3.940000E+03	3.629886E-18	1.100195E-18
3.950000E+03	3.648324E-18	1.092100E-18
3.960000E+03	3.669463E-18	1.084597E-18
3.970000E+03	3.693421E-18	1.077691E-18
3.980000E+03	3.720425E-18	1.071419E-18
3.990000E+03	3.750616E-18	1.065789E-18
4.000000E+03	3.784217E-18	1.060830E-18
4.010000E+03	3.821432E-18	1.056563E-18
4.020000E+03	3.862448E-18	1.053002E-18
4.030000E+03	3.907572E-18	1.050190E-18
4.040000E+03	3.957031E-18	1.048147E-18
4.050000E+03	4.011144E-18	1.046912E-18
4.060000E+03	4.070218E-18	1.046519E-18
4.070000E+03	4.134588E-18	1.047002E-18
4.080000E+03	4.204621E-18	1.048404E-18
4.090000E+03	4.280750E-18	1.050777E-18
4.100000E+03	4.363375E-18	1.054160E-18
4.110000E+03	4.452969E-18	1.058607E-18
4.120000E+03	4.550128E-18	1.064196E-18
4.130000E+03	4.655343E-18	1.070973E-18
4.140000E+03	4.769274E-18	1.079021E-18
4.150000E+03	4.892602E-18	1.088419E-18
4.160000E+03	5.026072E-18	1.099256E-18
4.170000E+03	5.170502E-18	1.111631E-18
4.180000E+03	5.326788E-18	1.125652E-18
4.190000E+03	5.495917E-18	1.141441E-18
4.200000E+03	5.678967E-18	1.159134E-18
4.210000E+03	5.877128E-18	1.178880E-18
4.220000E+03	6.091703E-18	1.200848E-18
4.230000E+03	6.324074E-18	1.225212E-18
4.240000E+03	6.575812E-18	1.252180E-18
4.250000E+03	6.848704E-18	1.281995E-18
4.260000E+03	7.144657E-18	1.314913E-18
4.270000E+03	7.465640E-18	1.351200E-18
4.280000E+03	7.814008E-18	1.391184E-18
4.290000E+03	8.192283E-18	1.435220E-18
4.300000E+03	8.603237E-18	1.483703E-18
4.310000E+03	9.049909E-18	1.537068E-18
4.320000E+03	9.535547E-18	1.595786E-18
4.330000E+03	1.006396E-17	1.660416E-18
4.340000E+03	1.063898E-17	1.731519E-18
4.350000E+03	1.126513E-17	1.809771E-18
4.360000E+03	1.194718E-17	1.895882E-18
4.370000E+03	1.269044E-17	1.990647E-18
4.380000E+03	1.350056E-17	2.094915E-18
4.390000E+03	1.438382E-17	2.209627E-18
4.400000E+03	1.534686E-17	2.335784E-18
4.410000E+03	1.639718E-17	2.474513E-18
4.420000E+03	1.754258E-17	2.626984E-18
4.430000E+03	1.879144E-17	2.794456E-18
4.440000E+03	2.015308E-17	2.978327E-18
4.450000E+03	2.163717E-17	3.180043E-18
4.460000E+03	2.325417E-17	3.401169E-18
4.470000E+03	2.501549E-17	3.643409E-18
4.480000E+03	2.693250E-17	3.908467E-18
4.490000E+03	2.901793E-17	4.198249E-18
4.500000E+03	3.128494E-17	4.514729E-18
4.510000E+03	3.374697E-17	4.859938E-18
4.520000E+03	3.641830E-17	5.236043E-18
4.530000E+03	3.931368E-17	5.645301E-18
4.540000E+03	4.244828E-17	6.090058E-18
4.550000E+03	4.583757E-17	6.572743E-18
4.560000E+03	4.949672E-17	7.095792E-18
4.570000E+03	5.344083E-17	7.661681E-18
4.580000E+03	5.768629E-17	8.273147E-18
4.590000E+03	6.224713E-17	8.932674E-18
4.600000E+03	6.713715E-17	9.642804E-18
4.610000E+03	7.237050E-17	1.040625E-17
4.620000E+03	7.795979E-17	1.122561E-17
4.630000E+03	8.391393E-17	1.210311E-17
4.640000E+03	9.024479E-17	1.304154E-17
4.650000E+03	9.695661E-17	1.404273E-17
4.660000E+03	1.040566E-16	1.510911E-17
4.670000E+03	1.115469E-16	1.624253E-17
4.680000E+03	1.194270E-16	1.744458E-17
4.690000E+03	1.276933E-16	1.871654E-17
4.700000E+03	1.363391E-16	2.005930E-17
4.710000E+03	1.453573E-16	2.147380E-17
4.720000E+03	1.547336E-16	2.295989E-17
4.730000E+03	1.644516E-16	2.451712E-17
4.740000E+03	1.744933E-16	2.614471E-17
4.750000E+03	1.848326E-16	2.784049E-17
4.760000E+03	1.954489E-16	2.960296E-17
4.770000E+03	2.063077E-16	3.142827E-17
4.780000E+03	2.173815E-16	3.331328E-17
4.790000E+03	2.286363E-16	3.525355E-17
4.800000E+03	2.400314E-16	3.724317E-17
4.810000E+03	2.515307E-16	3.927650E-17
4.820000E+03	2.630969E-16	4.134730E-17
4.830000E+03	2.746839E-16	4.344741E-17
4.840000E+03	2.862522E-16	4.556927E-17
4.850000E+03	2.977592E-16	4.770436E-17
4.860000E+03	3.091594E-16	4.984314E-17
4.870000E+03	3.204099E-16	5.197613E-17
4.880000E+03	3.314720E-16	5.409405E-17
4.890000E+03	3.423014E-16	5.618637E-17
4.900000E+03	3.528617E-16	5.824350E-17
4.910000E+03	3.631075E-16	6.025408E-17
4.920000E+03	3.730059E-16	6.220858E-17
4.930000E+03	3.825227E-16	6.409705E-17
4.940000E+03	3.916220E-16	6.590917E-17
4.950000E+03	4.002783E-16	6.763632E-17
4.960000E+03	4.084610E-16	6.926899E-17
4.970000E+03	4.161505E-16	7.079962E-17
4.980000E+03	4.233220E-16	7.221984E-17
4.990000E+03	4.299577E-16	7.352271E-17
5.000000E+03	4.360386E-16	7.470126E-17
5.010000E+03	4.415623E-16	7.575164E-17
5.020000E+03	4.465113E-16	7.666775E-17
5.030000E+03	4.508805E-16	7.744591E-17
5.040000E+03	4.546721E-16	7.808411E-17
5.050000E+03	4.578821E-16	7.857968E-17
5.060000E+03	4.605138E-16	7.893161E-17
5.070000E+03	4.625732E-16	7.913980E-17
5.080000E+03	4.640688E-16	7.920500E-17
5.090000E+03	4.650066E-16	7.912798E-17
5.100000E+03	4.653995E-16	7.891115E-17
5.110000E+03	4.652671E-16	7.855848E-17
5.120000E+03	4.646164E-16	7.807224E-17
5.130000E+03	4.634754E-16	7.745860E-17
5.140000E+03	4.618491E-16	7.672034E-17
5.150000E+03	4.597681E-16	7.586481E-17
5.160000E+03	4.572493E-16	7.489747E-17
5.170000E+03	4.543155E-16	7.382503E-17
5.180000E+03	4.509900E-16	7.265460E-17
5.190000E+03	4.472919E-16	7.139288E-17
5.200000E+03	4.432455E-16	7.004761E-17
5.210000E+03	4.388708E-16	6.862606E-17
5.220000E+03	4.342012E-16	6.713779E-17
5.230000E+03	4.292477E-16	6.558902E-17
5.240000E+03	4.240390E-16	6.398881E-17
5.250000E+03	4.185992E-16	6.234559E-17
5.260000E+03	4.129516E-16	6.066776E-17
5.270000E+03	4.071110E-16	5.896248E-17
5.280000E+03	4.011042E-16	5.723872E-17
5.290000E+03	3.949491E-16	5.550411E-17
5.300000E+03	3.886668E-16	5.376677E-17
5.310000E+03	3.822741E-16	5.203414E-17
5.320000E+03	3.757947E-16	5.031449E-17
5.330000E+03	3.692399E-16	4.861437E-17
5.340000E+03	3.626279E-16	4.694113E-17
5.350000E+03	3.559726E-16	4.530135E-17
5.360000E+03	3.492941E-16	4.370225E-17
5.370000E+03	3.425975E-16	4.214890E-17
5.380000E+03	3.359012E-16	4.064777E-17
5.390000E+03	3.292158E-16	3.920402E-17
5.400000E+03	3.225513E-16	3.782230E-17
5.410000E+03	3.159103E-16	3.650599E-17
5.420000E+03	3.093018E-16	3.525863E-17
5.430000E+03	3.027339E-16	3.408305E-17
5.440000E+03	2.962021E-16	3.297996E-17
5.450000E+03	2.897140E-16	3.195064E-17
5.460000E+03	2.832677E-16	3.099450E-17
5.470000E+03	2.768671E-16	3.011067E-17
5.480000E+03	2.705292E-16	2.929881E-17
5.490000E+03	2.642587E-16	2.855634E-17
5.500000E+03	2.580702E-16	2.788092E-17
5.510000E+03	2.519714E-16	2.726878E-17
5.520000E+03	2.459767E-16	2.671628E-17
5.530000E+03	2.400867E-16	2.621786E-17
5.540000E+03	2.343088E-16	2.576845E-17
5.550000E+03	2.286446E-16	2.536223E-17
5.560000E+03	2.231022E-16	2.499416E-17
5.570000E+03	2.176796E-16	2.465824E-17
5.580000E+03	2.123792E-16	2.434926E-17
5.590000E+03	2.072005E-16	2.406206E-17
5.600000E+03	2.021471E-16	2.379234E-17
5.610000E+03	1.972157E-16	2.353554E-17
5.620000E+03	1.924071E-16	2.328802E-17
5.630000E+03	1.877217E-16	2.304659E-17
5.640000E+03	1.831576E-16	2.280830E-17
5.650000E+03	1.787148E-16	2.257082E-17
5.660000E+03	1.743893E-16	2.233182E-17
5.670000E+03	1.701809E-16	2.208976E-17
5.680000E+03	1.660890E-16	2.184346E-17
5.690000E+03	1.621111E-16	2.159182E-17
5.700000E+03	1.582450E-16	2.133400E-17
5.710000E+03	1.544880E-16	2.106941E-17
5.720000E+03	1.508411E-16	2.079811E-17
5.730000E+03	1.472984E-16	2.051946E-17
5.740000E+03	1.438606E-16	2.023383E-17
5.750000E+03	1.405252E-16	1.994132E-17
5.760000E+03	1.372881E-16	1.964191E-17
5.770000E+03	1.341484E-16	1.933609E-17
5.780000E+03	1.311050E-16	1.902445E-17
5.790000E+03	1.281542E-16	1.870718E-17
5.800000E+03	1.252936E-16	1.838479E-17
5.810000E+03	1.225236E-16	1.805819E-17
5.820000E+03	1.198393E-16	1.772753E-17
5.830000E+03	1.172397E-16	1.739359E-17
5.840000E+03	1.147229E-16	1.705696E-17
5.850000E+03	1.122867E-16	1.671827E-17
5.860000E+03	1.099303E-16	1.637831E-17
5.870000E+03	1.076495E-16	1.603734E-17
5.880000E+03	1.054448E-16	1.569638E-17
5.890000E+03	1.033132E-16	1.535588E-17
5.900000E+03	1.012532E-16	1.501648E-17
5.910000E+03	9.926313E-17	1.467884E-17
5.920000E+03	9.734149E-17	1.434361E-17
5.930000E+03	9.548798E-17	1.401161E-17
5.940000E+03	9.369909E-17	1.368317E-17
5.950000E+03	9.197363E-17	1.335896E-17
5.960000E+03	9.031153E-17	1.303983E-17
5.970000E+03	8.871171E-17	1.272646E-17
5.980000E+03	8.717116E-17	1.241923E-17
5.990000E+03	8.569104E-17	1.211915E-17
6.000000E+03	8.426756E-17	1.182652E-17
6.010000E+03	8.290300E-17	1.154250E-17
6.020000E+03	8.159377E-17	1.126741E-17
6.030000E+03	8.033938E-17	1.100204E-17
6.040000E+03	7.914029E-17	1.074730E-17
6.050000E+03	7.799514E-17	1.050385E-17
6.060000E+03	7.690357E-17	1.027249E-17
6.070000E+03	7.586342E-17	1.005380E-17
6.080000E+03	7.487627E-17	9.848805E-18
6.090000E+03	7.393913E-17	9.657961E-18
6.100000E+03	7.305358E-17	9.482278E-18
6.110000E+03	7.221845E-17	9.322383E-18
6.120000E+03	7.143258E-17	9.178864E-18
6.130000E+03	7.069565E-17	9.052360E-18
6.140000E+03	7.000815E-17	8.943548E-18
6.150000E+03	6.936874E-17	8.852788E-18
6.160000E+03	6.877684E-17	8.780447E-18
6.170000E+03	6.823349E-17	8.726993E-18
6.180000E+03	6.773616E-17	8.692328E-18
6.190000E+03	6.728480E-17	8.676550E-18
6.200000E+03	6.687919E-17	8.679627E-18
6.210000E+03	6.651901E-17	8.701397E-18
6.220000E+03	6.620210E-17	8.741356E-18
6.230000E+03	6.592707E-17	8.798996E-18
6.240000E+03	6.569328E-17	8.873830E-18
6.250000E+03	6.549832E-17	8.965058E-18
6.260000E+03	6.534142E-17	9.072046E-18
6.270000E+03	6.522092E-17	9.193998E-18
6.280000E+03	6.513602E-17	9.330210E-18
6.290000E+03	6.508503E-17	9.479841E-18
6.300000E+03	6.506629E-17	9.642047E-18
6.310000E+03	6.507904E-17	9.816120E-18
6.320000E+03	6.512256E-17	1.000138E-17
6.330000E+03	6.519440E-17	1.019690E-17
6.340000E+03	6.529396E-17	1.040205E-17
6.350000E+03	6.542069E-17	1.061624E-17
6.360000E+03	6.557229E-17	1.083863E-17
6.370000E+03	6.574928E-17	1.106887E-17
6.380000E+03	6.595042E-17	1.130632E-17
6.390000E+03	6.617451E-17	1.155041E-17
6.400000E+03	6.642043E-17	1.180057E-17
6.410000E+03	6.668904E-17	1.205662E-17
6.420000E+03	6.697839E-17	1.231791E-17
6.430000E+03	6.728952E-17	1.258434E-17
6.440000E+03	6.762160E-17	1.285548E-17
6.450000E+03	6.797384E-17	1.313095E-17
6.460000E+03	6.834653E-17	1.341057E-17
6.470000E+03	6.873902E-17	1.369399E-17
6.480000E+03	6.915173E-17	1.398111E-17
6.490000E+03	6.958201E-17	1.427118E-17
6.500000E+03	7.003142E-17	1.456434E-17
6.510000E+03	7.049950E-17	1.486031E-17
6.520000E+03	7.098469E-17	1.515858E-17
6.530000E+03	7.148768E-17	1.545914E-17
6.540000E+03	7.200808E-17	1.576171E-17
6.550000E+03	7.254553E-17	1.606607E-17
6.560000E+03	7.309971E-17	1.637196E-17
6.570000E+03	7.367149E-17	1.667942E-17
6.580000E+03	7.425943E-17	1.698797E-17
6.590000E+03	7.486324E-17	1.729735E-17
6.600000E+03	7.548391E-17	1.760764E-17
6.610000E+03	7.612125E-17	1.791862E-17
6.620000E+03	7.677381E-17	1.822978E-17
6.630000E+03	7.744266E-17	1.854118E-17
6.640000E+03	7.812633E-17	1.885230E-17
6.650000E+03	7.882730E-17	1.916355E-17
6.660000E+03	7.954277E-17	1.947407E-17
6.670000E+03	8.027256E-17	1.978361E-17
6.680000E+03	8.101788E-17	2.009226E-17
6.690000E+03	8.177861E-17	2.039981E-17
6.700000E+03	8.255320E-17	2.070564E-17
6.710000E+03	8.334148E-17	2.100949E-17
6.720000E+03	8.414475E-17	2.131148E-17
6.730000E+03	8.496140E-17	2.161096E-17
6.740000E+03	8.579277E-17	2.190804E-17
6.750000E+03	8.663566E-17	2.220165E-17
6.760000E+03	8.749296E-17	2.249231E-17
6.770000E+03	8.836135E-17	2.277888E-17
6.780000E+03	8.924380E-17	2.306189E-17
6.790000E+03	9.013690E-17	2.334019E-17
6.800000E+03	9.104202E-17	2.361385E-17
6.810000E+03	9.195895E-17	2.388255E-17
6.820000E+03	9.288575E-17	2.414550E-17
6.830000E+03	9.382381E-17	2.440279E-17
6.840000E+03	9.477115E-17	2.465359E-17
6.850000E+03	9.572918E-17	2.489799E-17
6.860000E+03	9.669401E-17	2.513468E-17
6.870000E+03	9.766885E-17	2.536419E-17
6.880000E+03	9.865153E-17	2.558565E-17
6.890000E+03	9.964163E-17	2.579865E-17
6.900000E+03	1.006368E-16	2.600228E-17
6.910000E+03	1.016404E-16	2.619709E-17
6.920000E+03	1.026462E-16	2.638117E-17
6.930000E+03	1.036594E-16	2.655558E-17
6.940000E+03	1.046756E-16	2.671887E-17
6.950000E+03	1.056942E-16	2.687059E-17
6.960000E+03	1.067166E-16	2.701081E-17
6.970000E+03	1.077402E-16	2.713856E-17
6.980000E+03	1.087641E-16	2.725338E-17
6.990000E+03	1.097878E-16	2.735484E-17
7.000000E+03	1.108104E-16	2.744248E-17
7.010000E+03	1.118313E-16	2.751586E-17
7.020000E+03	1.128473E-16	2.757401E-17
7.030000E+03	1.138621E-16	2.761759E-17
7.040000E+03	1.148681E-16	2.764455E-17
7.050000E+03	1.158710E-16	2.765612E-17
7.060000E+03	1.168632E-16	2.765027E-17
7.070000E+03	1.178483E-16	2.762774E-17
7.080000E+03	1.188228E-16	2.758762E-17
7.090000E+03	1.197857E-16	2.752959E-17
7.100000E+03	1.207384E-16	2.745391E-17
7.110000E+03	1.216748E-16	2.735920E-17
7.120000E+03	1.225963E-16	2.724579E-17
7.130000E+03	1.234991E-16	2.711294E-17
7.140000E+03	1.243845E-16	2.696104E-17
7.150000E+03	1.252513E-16	2.678999E-17
7.160000E+03	1.260958E-16	2.659920E-17
7.170000E+03	1.269190E-16	2.638922E-17
7.180000E+03	1.277146E-16	2.615904E-17
7.190000E+03	1.284863E-16	2.590988E-17
7.200000E+03	1.292303E-16	2.564142E-17
7.210000E+03	1.299424E-16	2.535344E-17
7.220000E+03	1.306240E-16	2.504685E-17
7.230000E+03	1.312736E-16	2.472213E-17
7.240000E+03	1.318870E-16	2.437937E-17
7.250000E+03	1.324630E-16	2.401929E-17
7.260000E+03	1.330000E-16	2.364272E-17
7.270000E+03	1.334966E-16	2.325063E-17
7.280000E+03	1.339515E-16	2.284413E-17
7.290000E+03	1.343576E-16	2.242354E-17
7.300000E+03	1.347193E-16	2.199126E-17
7.310000E+03	1.350323E-16	2.154841E-17
7.320000E+03	1.352925E-16	2.109637E-17
7.330000E+03	1.355016E-16	2.063757E-17
7.340000E+03	1.356526E-16	2.017336E-17
7.350000E+03	1.357444E-16	1.970618E-17
7.360000E+03	1.357760E-16	1.923870E-17
7.370000E+03	1.357434E-16	1.877336E-17
7.380000E+03	1.356487E-16	1.831366E-17
7.390000E+03	1.354826E-16	1.786168E-17
7.400000E+03	1.352500E-16	1.742166E-17
7.410000E+03	1.349447E-16	1.699640E-17
7.420000E+03	1.345693E-16	1.658991E-17
7.430000E+03	1.341207E-16	1.620548E-17
7.440000E+03	1.335988E-16	1.584667E-17
7.450000E+03	1.330068E-16	1.551718E-17
7.460000E+03	1.323419E-16	1.521974E-17
7.470000E+03	1.316134E-16	1.495796E-17
7.480000E+03	1.308163E-16	1.473328E-17
7.490000E+03	1.299569E-16	1.454780E-17
7.500000E+03	1.290336E-16	1.440193E-17
7.510000E+03	1.280560E-16	1.429657E-17
7.520000E+03	1.270226E-16	1.423058E-17
7.530000E+03	1.259349E-16	1.420238E-17
7.540000E+03	1.247972E-16	1.421003E-17
7.550000E+03	1.236113E-16	1.425067E-17
7.560000E+03	1.223845E-16	1.432163E-17
7.570000E+03	1.211132E-16	1.441866E-17
7.580000E+03	1.198022E-16	1.453823E-17
7.590000E+03	1.184561E-16	1.467678E-17
7.600000E+03	1.170745E-16	1.483011E-17
7.610000E+03	1.156620E-16	1.499482E-17
7.620000E+03	1.142182E-16	1.516702E-17
7.630000E+03	1.127505E-16	1.534409E-17
7.640000E+03	1.112558E-16	1.552229E-17
7.650000E+03	1.097415E-16	1.569957E-17
7.660000E+03	1.082046E-16	1.587276E-17
7.670000E+03	1.066522E-16	1.604040E-17
7.680000E+03	1.050816E-16	1.619987E-17
7.690000E+03	1.034995E-16	1.635027E-17
7.700000E+03	1.019056E-16	1.648985E-17
7.710000E+03	1.003019E-16	1.661743E-17
7.720000E+03	9.869025E-17	1.673208E-17
7.730000E+03	9.707254E-17	1.683303E-17
7.740000E+03	9.545058E-17	1.691969E-17
7.750000E+03	9.382393E-17	1.699123E-17
7.760000E+03	9.219868E-17	1.704817E-17
