#wls	flux	fluxerr
1.600000E+03	2.157720E-16	2.136446E-16
1.640000E+03	2.273993E-16	2.215878E-16
1.680000E+03	2.393409E-16	2.293778E-16
1.720000E+03	2.516329E-16	2.370200E-16
1.760000E+03	2.641869E-16	2.444009E-16
1.800000E+03	2.769465E-16	2.514418E-16
1.840000E+03	2.898658E-16	2.580770E-16
1.880000E+03	3.028366E-16	2.641891E-16
1.920000E+03	3.157595E-16	2.696764E-16
1.960000E+03	3.285201E-16	2.744323E-16
2.000000E+03	3.409414E-16	2.783084E-16
2.040000E+03	3.529064E-16	2.812187E-16
2.080000E+03	3.641686E-16	2.829873E-16
2.120000E+03	3.744783E-16	2.834576E-16
2.160000E+03	3.836131E-16	2.825154E-16
2.200000E+03	3.912918E-16	2.800266E-16
2.240000E+03	3.971913E-16	2.758544E-16
2.280000E+03	4.011954E-16	2.700334E-16
2.320000E+03	4.031732E-16	2.626029E-16
2.360000E+03	4.031842E-16	2.537379E-16
2.400000E+03	4.013180E-16	2.436313E-16
2.440000E+03	3.976714E-16	2.324757E-16
2.480000E+03	3.923639E-16	2.204715E-16
2.520000E+03	3.854539E-16	2.077785E-16
2.560000E+03	3.770755E-16	1.945926E-16
2.600000E+03	3.672961E-16	1.810664E-16
2.640000E+03	3.562167E-16	1.673634E-16
2.680000E+03	3.439317E-16	1.536356E-16
2.720000E+03	3.305694E-16	1.400405E-16
2.760000E+03	3.162559E-16	1.267221E-16
2.800000E+03	3.011296E-16	1.138159E-16
2.840000E+03	2.853656E-16	1.014549E-16
2.880000E+03	2.691404E-16	8.975392E-17
2.920000E+03	2.526564E-16	7.881571E-17
2.960000E+03	2.361202E-16	6.872188E-17
2.996961E+03	3.675640E-15	8.041385E-15
2.997561E+03	3.669455E-15	8.041325E-15
2.998360E+03	3.662890E-15	8.041466E-15
2.998561E+03	3.655550E-15	8.040764E-15
2.998961E+03	3.648501E-15	8.040349E-15
3.015962E+03	3.653215E-15	8.062225E-15
3.019763E+03	3.647437E-15	8.066253E-15
3.019963E+03	3.640687E-15	8.065648E-15
3.020363E+03	3.633556E-15	8.065248E-15
3.021163E+03	3.626904E-15	8.065415E-15
3.021763E+03	3.619855E-15	8.065283E-15
3.022762E+03	3.612454E-15	8.065614E-15
3.023363E+03	3.605454E-15	8.065496E-15
3.023963E+03	3.598814E-15	8.065423E-15
3.024563E+03	3.591291E-15	8.065244E-15
3.024763E+03	3.583393E-15	8.064514E-15
3.024963E+03	3.575338E-15	8.063767E-15
3.026763E+03	3.568566E-15	8.065211E-15
3.026963E+03	3.561079E-15	8.064540E-15
3.028563E+03	3.554113E-15	8.065714E-15
3.029363E+03	3.546453E-15	8.065791E-15
3.029764E+03	3.538161E-15	8.065287E-15
3.030764E+03	3.530422E-15	8.065615E-15
3.032764E+03	3.523863E-15	8.067367E-15
3.032964E+03	3.515950E-15	8.066663E-15
3.033364E+03	3.507338E-15	8.066132E-15
3.034363E+03	3.499795E-15	8.066500E-15
3.034963E+03	3.492246E-15	8.066360E-15
3.035164E+03	3.483394E-15	8.065554E-15
3.035964E+03	3.475142E-15	8.065593E-15
3.037364E+03	3.466292E-15	8.066334E-15
3.038164E+03	3.457982E-15	8.066374E-15
3.039564E+03	3.450371E-15	8.067272E-15
3.043765E+03	3.444575E-15	8.071997E-15
3.044565E+03	3.436302E-15	8.072057E-15
3.050765E+03	3.431268E-15	8.079484E-15
3.067567E+03	3.432229E-15	8.101354E-15
3.079768E+03	3.430459E-15	8.117030E-15
3.089168E+03	3.426470E-15	8.128835E-15
3.092169E+03	3.418595E-15	8.131877E-15
3.095568E+03	3.410073E-15	8.135379E-15
3.095769E+03	3.399328E-15	8.134452E-15
3.095968E+03	3.389266E-15	8.133604E-15
3.096168E+03	3.378677E-15	8.132702E-15
3.097569E+03	3.369639E-15	8.133552E-15
3.097769E+03	3.358731E-15	8.132624E-15
3.098169E+03	3.347738E-15	8.131954E-15
3.098369E+03	3.336880E-15	8.131040E-15
3.100369E+03	3.327099E-15	8.132621E-15
3.100569E+03	3.316131E-15	8.131705E-15
3.101569E+03	3.306240E-15	8.131967E-15
3.101969E+03	3.296339E-15	8.131438E-15
3.102369E+03	3.285491E-15	8.130813E-15
3.102769E+03	3.275272E-15	8.130259E-15
3.103970E+03	3.266176E-15	8.130891E-15
3.104770E+03	3.255303E-15	8.130808E-15
3.106170E+03	3.244900E-15	8.131579E-15
3.106370E+03	3.234232E-15	8.130731E-15
3.106970E+03	3.223649E-15	8.130428E-15
3.107169E+03	3.212347E-15	8.129523E-15
3.107369E+03	3.201256E-15	8.128643E-15
3.107570E+03	3.190426E-15	8.127795E-15
3.108169E+03	3.179783E-15	8.127505E-15
3.108769E+03	3.168927E-15	8.127199E-15
3.108969E+03	3.157725E-15	8.126326E-15
3.110170E+03	3.147484E-15	8.126897E-15
3.110370E+03	3.136225E-15	8.126028E-15
3.110570E+03	3.125071E-15	8.125174E-15
3.110970E+03	3.114192E-15	8.124620E-15
3.111170E+03	3.103035E-15	8.123774E-15
3.111370E+03	3.091562E-15	8.122902E-15
3.111570E+03	3.080035E-15	8.122028E-15
3.112570E+03	3.069128E-15	8.122300E-15
3.112970E+03	3.058082E-15	8.121753E-15
3.113370E+03	3.046613E-15	8.121170E-15
3.113970E+03	3.035309E-15	8.120878E-15
3.114170E+03	3.023827E-15	8.120033E-15
3.114570E+03	3.012510E-15	8.119480E-15
3.114770E+03	3.001870E-15	8.118725E-15
3.114970E+03	2.990965E-15	8.117949E-15
3.115170E+03	2.979426E-15	8.117116E-15
3.115571E+03	2.968474E-15	8.116617E-15
3.115971E+03	2.957097E-15	8.116081E-15
3.116371E+03	2.945508E-15	8.115529E-15
3.116571E+03	2.934808E-15	8.114794E-15
3.116771E+03	2.923475E-15	8.114004E-15
3.116971E+03	2.911824E-15	8.113188E-15
3.117171E+03	2.900173E-15	8.112377E-15
3.117371E+03	2.888732E-15	8.111590E-15
3.117971E+03	2.877876E-15	8.111408E-15
3.118171E+03	2.866326E-15	8.110621E-15
3.118771E+03	2.854991E-15	8.110405E-15
3.118970E+03	2.843597E-15	8.109641E-15
3.119171E+03	2.832308E-15	8.108891E-15
3.119370E+03	2.820543E-15	8.108102E-15
3.119570E+03	2.809569E-15	8.107389E-15
3.120170E+03	2.798700E-15	8.107240E-15
3.120370E+03	2.786931E-15	8.106465E-15
3.120570E+03	2.775162E-15	8.105694E-15
3.120770E+03	2.763867E-15	8.104970E-15
3.120970E+03	2.751990E-15	8.104200E-15
3.121170E+03	2.740377E-15	8.103457E-15
3.121370E+03	2.728498E-15	8.102695E-15
3.121570E+03	2.716988E-15	8.101971E-15
3.121771E+03	2.705214E-15	8.101229E-15
3.122371E+03	2.693589E-15	8.101059E-15
3.122571E+03	2.681759E-15	8.100321E-15
3.122971E+03	2.670187E-15	8.099887E-15
3.123171E+03	2.658302E-15	8.099154E-15
3.123371E+03	2.646469E-15	8.098431E-15
3.123571E+03	2.635163E-15	8.097756E-15
3.123771E+03	2.623328E-15	8.097041E-15
3.123971E+03	2.611756E-15	8.096353E-15
3.124371E+03	2.600334E-15	8.095961E-15
3.124571E+03	2.588707E-15	8.095278E-15
3.124771E+03	2.577397E-15	8.094104E-15
3.124971E+03	2.565557E-15	8.093413E-15
3.125171E+03	2.554086E-15	8.092756E-15
3.125371E+03	2.542403E-15	8.088958E-15
3.125571E+03	2.530613E-15	7.674998E-15
3.125771E+03	2.518664E-15	7.209535E-15
3.126171E+03	2.506914E-15	7.158533E-15
3.126371E+03	2.495068E-15	7.155108E-15
3.126571E+03	2.483169E-15	7.122041E-15
3.126771E+03	2.471321E-15	7.120700E-15
3.126971E+03	2.459420E-15	7.118839E-15
3.127171E+03	2.447518E-15	6.226693E-15
3.127371E+03	2.435615E-15	6.212748E-15
3.127571E+03	2.423658E-15	5.265220E-15
3.127772E+03	2.411701E-15	5.189371E-15
3.127972E+03	2.399795E-15	5.181946E-15
3.128172E+03	2.387836E-15	4.421024E-15
3.128372E+03	2.375876E-15	3.933076E-15
3.128572E+03	2.363914E-15	3.930921E-15
3.128772E+03	2.351899E-15	3.927155E-15
3.128972E+03	2.340253E-15	3.925973E-15
3.129172E+03	2.328448E-15	3.825594E-15
3.129372E+03	2.316747E-15	3.565776E-15
3.129572E+03	2.304993E-15	3.546630E-15
3.129772E+03	2.293291E-15	3.545914E-15
3.129972E+03	2.281852E-15	3.288790E-15
3.130172E+03	2.269883E-15	1.801257E-15
3.130372E+03	2.257914E-15	1.800261E-15
3.130572E+03	2.246049E-15	1.698361E-15
3.130772E+03	2.234396E-15	1.695676E-15
3.130972E+03	2.222529E-15	1.535172E-15
3.131171E+03	2.210662E-15	1.529030E-15
3.131372E+03	2.198688E-15	1.527258E-15
3.131572E+03	2.186819E-15	1.524506E-15
3.131771E+03	2.175267E-15	1.521565E-15
3.131972E+03	2.163766E-15	1.517970E-15
3.132171E+03	2.151947E-15	1.512073E-15
3.132371E+03	2.139969E-15	1.507115E-15
3.132571E+03	2.128254E-15	1.502447E-15
3.132771E+03	2.116274E-15	1.500986E-15
3.132971E+03	2.104663E-15	1.496832E-15
3.133171E+03	2.092734E-15	1.493955E-15
3.133371E+03	2.081545E-15	1.485836E-15
3.133571E+03	2.069878E-15	1.481170E-15
3.133771E+03	2.058158E-15	1.475332E-15
3.133972E+03	2.046543E-15	1.469125E-15
3.134172E+03	2.035033E-15	1.466986E-15
3.134372E+03	2.023046E-15	1.464326E-15
3.134572E+03	2.011322E-15	1.462620E-15
3.134772E+03	1.999492E-15	1.457630E-15
3.134972E+03	1.987925E-15	1.458939E-15
3.135172E+03	1.976093E-15	1.452062E-15
3.135372E+03	1.964260E-15	1.445150E-15
3.135572E+03	1.952955E-15	1.442814E-15
3.135772E+03	1.941438E-15	1.441011E-15
3.135972E+03	1.929814E-15	1.436130E-15
3.136172E+03	1.918083E-15	1.431144E-15
3.136372E+03	1.906404E-15	1.428997E-15
3.136572E+03	1.894566E-15	1.422669E-15
3.136772E+03	1.883044E-15	1.422029E-15
3.136972E+03	1.871575E-15	1.415686E-15
3.137172E+03	1.860316E-15	1.407291E-15
3.137372E+03	1.848580E-15	1.397474E-15
3.137572E+03	1.836896E-15	1.394853E-15
3.137772E+03	1.825635E-15	1.391604E-15
3.137972E+03	1.814214E-15	1.387961E-15
3.138172E+03	1.802633E-15	1.380179E-15
3.138372E+03	1.791316E-15	1.372446E-15
3.138572E+03	1.779681E-15	1.367957E-15
3.138772E+03	1.768468E-15	1.362900E-15
3.138972E+03	1.757096E-15	1.357879E-15
3.139172E+03	1.745511E-15	1.352636E-15
3.139372E+03	1.734349E-15	1.348749E-15
3.139572E+03	1.722762E-15	1.342960E-15
3.139772E+03	1.711333E-15	1.342654E-15
3.139973E+03	1.700010E-15	1.338151E-15
3.140173E+03	1.688738E-15	1.335144E-15
3.140373E+03	1.677201E-15	1.327251E-15
3.140573E+03	1.665822E-15	1.320717E-15
3.140773E+03	1.654548E-15	1.310257E-15
3.140973E+03	1.643220E-15	1.301331E-15
3.141173E+03	1.631997E-15	1.298369E-15
3.141373E+03	1.620773E-15	1.291117E-15
3.141573E+03	1.609548E-15	1.281816E-15
3.141773E+03	1.598376E-15	1.274870E-15
3.141973E+03	1.587256E-15	1.265726E-15
3.142173E+03	1.576135E-15	1.254653E-15
3.142373E+03	1.565066E-15	1.250698E-15
3.142573E+03	1.554049E-15	1.243149E-15
3.142773E+03	1.543031E-15	1.234820E-15
3.142972E+03	1.532331E-15	1.232569E-15
3.143173E+03	1.521258E-15	1.227575E-15
3.143372E+03	1.510185E-15	1.222920E-15
3.143573E+03	1.499482E-15	1.214572E-15
3.143773E+03	1.488566E-15	1.210062E-15
3.143972E+03	1.477650E-15	1.206605E-15
3.144173E+03	1.466785E-15	1.197750E-15
3.144372E+03	1.455761E-15	1.189514E-15
3.144572E+03	1.444842E-15	1.183274E-15
3.144772E+03	1.434240E-15	1.179231E-15
3.144972E+03	1.423372E-15	1.172473E-15
3.145172E+03	1.412557E-15	1.163216E-15
3.145372E+03	1.401847E-15	1.152274E-15
3.145572E+03	1.391401E-15	1.147283E-15
3.145772E+03	1.380954E-15	1.140661E-15
3.145972E+03	1.370665E-15	1.134552E-15
3.146173E+03	1.360695E-15	1.124040E-15
3.146373E+03	1.350192E-15	1.117783E-15
3.146573E+03	1.339530E-15	1.111564E-15
3.146773E+03	1.329345E-15	1.107438E-15
3.147173E+03	1.318943E-15	1.101767E-15
3.147373E+03	1.308703E-15	1.096795E-15
3.147573E+03	1.298249E-15	1.093254E-15
3.147773E+03	1.288113E-15	1.087649E-15
3.147973E+03	1.278030E-15	1.076867E-15
3.148173E+03	1.268051E-15	1.075535E-15
3.148373E+03	1.258019E-15	1.071901E-15
3.148573E+03	1.248039E-15	1.067308E-15
3.148773E+03	1.238218E-15	1.066299E-15
3.148973E+03	1.228661E-15	1.062846E-15
3.149173E+03	1.219050E-15	1.053557E-15
3.149373E+03	1.208961E-15	1.048014E-15
3.149573E+03	1.199084E-15	1.042061E-15
3.149773E+03	1.189259E-15	1.037516E-15
3.149973E+03	1.179698E-15	1.034315E-15
3.150173E+03	1.170137E-15	1.027383E-15
3.150373E+03	1.160363E-15	1.025317E-15
3.150573E+03	1.150641E-15	1.020531E-15
3.150773E+03	1.141396E-15	1.013873E-15
3.150973E+03	1.131779E-15	1.005666E-15
3.151173E+03	1.122373E-15	9.963817E-16
3.151373E+03	1.113285E-15	9.923992E-16
3.151573E+03	1.104037E-15	9.881166E-16
3.151773E+03	1.094630E-15	9.832250E-16
3.151973E+03	1.085274E-15	9.742586E-16
3.152174E+03	1.076131E-15	9.666280E-16
3.152374E+03	1.066986E-15	9.571489E-16
3.152574E+03	1.057788E-15	9.476993E-16
3.152774E+03	1.049173E-15	9.414486E-16
3.152974E+03	1.040398E-15	9.368287E-16
3.153174E+03	1.031570E-15	9.252353E-16
3.153374E+03	1.022900E-15	9.146154E-16
3.153574E+03	1.014336E-15	9.077624E-16
3.153774E+03	1.005771E-15	9.012177E-16
3.153974E+03	9.974175E-16	8.927974E-16
3.154174E+03	9.890636E-16	8.871485E-16
3.154374E+03	9.806030E-16	8.829705E-16
3.154574E+03	9.721947E-16	8.775330E-16
3.154774E+03	9.641046E-16	8.705961E-16
3.154974E+03	9.561732E-16	8.623788E-16
3.155173E+03	9.477100E-16	8.527782E-16
3.155374E+03	9.396180E-16	8.420064E-16
3.155573E+03	9.315254E-16	8.346712E-16
3.155773E+03	9.233259E-16	8.242268E-16
3.155974E+03	9.152321E-16	8.194421E-16
3.156173E+03	9.075096E-16	8.072447E-16
3.156373E+03	8.997864E-16	7.987857E-16
3.156573E+03	8.920627E-16	7.950219E-16
3.156773E+03	8.846041E-16	7.878654E-16
3.156973E+03	8.770387E-16	7.843276E-16
3.157173E+03	8.693664E-16	7.800170E-16
3.157373E+03	8.620124E-16	7.761968E-16
3.157573E+03	8.547641E-16	7.710405E-16
3.157773E+03	8.473558E-16	7.654874E-16
3.157973E+03	8.402128E-16	7.576651E-16
3.158173E+03	8.332817E-16	7.535273E-16
3.158374E+03	8.265098E-16	7.417451E-16
3.158574E+03	8.195777E-16	7.379117E-16
3.158774E+03	8.130172E-16	7.308714E-16
3.158974E+03	8.067752E-16	7.243619E-16
3.159174E+03	8.000542E-16	7.224896E-16
3.159374E+03	7.933327E-16	7.144306E-16
3.159574E+03	7.866108E-16	7.090682E-16
3.159774E+03	7.801541E-16	7.040895E-16
3.159974E+03	7.740160E-16	6.999080E-16
3.160174E+03	7.681964E-16	6.893154E-16
3.160374E+03	7.618978E-16	6.837169E-16
3.160574E+03	7.560774E-16	6.792231E-16
3.160774E+03	7.501501E-16	6.778404E-16
3.160974E+03	7.441160E-16	6.727587E-16
3.161174E+03	7.383474E-16	6.686368E-16
3.161374E+03	7.325783E-16	6.618565E-16
3.161574E+03	7.266493E-16	6.554756E-16
3.161774E+03	7.208794E-16	6.486973E-16
3.161974E+03	7.152154E-16	6.459746E-16
3.162174E+03	7.096573E-16	6.423985E-16
3.162374E+03	7.042584E-16	6.345739E-16
3.162574E+03	6.991251E-16	6.276770E-16
3.162774E+03	6.939914E-16	6.257282E-16
3.162974E+03	6.890169E-16	6.242193E-16
3.163174E+03	6.842548E-16	6.188064E-16
3.163374E+03	6.792796E-16	6.141730E-16
3.163574E+03	6.743571E-16	6.130739E-16
3.163774E+03	6.695407E-16	6.064813E-16
3.163974E+03	6.650432E-16	6.001706E-16
3.164174E+03	6.608115E-16	5.941938E-16
3.164375E+03	6.564198E-16	5.905010E-16
3.164575E+03	6.520810E-16	5.849919E-16
3.164775E+03	6.484336E-16	5.822176E-16
3.164975E+03	6.441473E-16	5.768656E-16
3.165175E+03	6.400204E-16	5.722966E-16
3.165375E+03	6.359463E-16	5.674871E-16
3.165575E+03	6.320849E-16	5.629319E-16
3.165775E+03	6.284361E-16	5.642937E-16
3.165975E+03	6.248934E-16	5.603192E-16
3.166175E+03	6.218828E-16	5.573064E-16
3.166375E+03	6.185526E-16	5.531620E-16
3.166575E+03	6.150624E-16	5.490754E-16
3.166775E+03	6.117849E-16	5.445947E-16
3.166975E+03	6.085603E-16	5.402012E-16
3.167175E+03	6.057615E-16	5.357007E-16
3.167374E+03	6.030157E-16	5.318372E-16
3.167575E+03	6.001099E-16	5.293123E-16
3.167774E+03	5.976299E-16	5.251398E-16
3.167974E+03	5.950432E-16	5.207346E-16
3.168175E+03	5.929356E-16	5.169985E-16
3.168374E+03	5.910940E-16	5.148904E-16
3.168574E+03	5.887198E-16	5.127394E-16
3.168774E+03	5.867182E-16	5.134133E-16
3.168974E+03	5.847164E-16	5.089601E-16
3.169174E+03	5.828743E-16	5.112554E-16
3.169374E+03	5.812984E-16	5.162601E-16
3.169574E+03	5.796157E-16	5.235895E-16
3.169774E+03	5.785189E-16	5.240615E-16
3.169974E+03	5.772622E-16	5.213914E-16
3.170174E+03	5.759521E-16	5.272802E-16
3.170374E+03	5.750682E-16	5.302639E-16
3.170575E+03	5.740777E-16	5.263213E-16
3.170775E+03	5.733001E-16	5.271003E-16
3.170975E+03	5.727355E-16	5.318400E-16
3.171175E+03	5.722242E-16	5.350231E-16
3.171375E+03	5.717129E-16	5.375839E-16
3.171575E+03	5.718409E-16	5.452774E-16
3.171775E+03	5.717558E-16	5.433861E-16
3.171975E+03	5.715642E-16	5.452456E-16
3.172175E+03	5.716389E-16	5.462809E-16
3.172375E+03	5.716603E-16	5.482958E-16
3.172575E+03	5.720016E-16	5.508065E-16
3.172775E+03	5.723961E-16	5.523478E-16
3.172975E+03	5.731638E-16	5.526981E-16
3.173175E+03	5.738249E-16	5.526650E-16
3.173375E+03	5.748058E-16	5.547271E-16
3.173575E+03	5.756270E-16	5.561689E-16
3.173775E+03	5.767147E-16	5.564457E-16
3.173975E+03	5.778558E-16	5.567593E-16
3.174175E+03	5.791569E-16	5.575753E-16
3.174375E+03	5.806714E-16	5.585056E-16
3.174575E+03	5.822393E-16	5.601615E-16
3.174775E+03	5.842338E-16	5.611790E-16
3.174975E+03	5.866550E-16	5.618557E-16
3.175175E+03	5.887032E-16	5.624147E-16
3.175375E+03	5.910714E-16	5.635310E-16
3.175575E+03	5.933865E-16	5.634161E-16
3.175775E+03	5.958085E-16	5.640811E-16
3.175975E+03	5.984972E-16	5.635941E-16
3.176175E+03	6.012395E-16	5.639454E-16
3.176375E+03	6.044619E-16	5.641605E-16
3.176576E+03	6.076848E-16	5.644663E-16
3.176776E+03	6.109610E-16	5.652005E-16
3.176976E+03	6.145042E-16	5.661489E-16
3.177176E+03	6.179410E-16	5.670678E-16
3.177376E+03	6.215915E-16	5.678193E-16
3.177576E+03	6.256689E-16	5.689728E-16
3.177776E+03	6.298000E-16	5.702702E-16
3.177976E+03	6.340915E-16	5.721500E-16
3.178176E+03	6.384366E-16	5.733359E-16
3.178376E+03	6.428887E-16	5.762343E-16
3.178576E+03	6.475012E-16	5.795417E-16
3.178776E+03	6.522208E-16	5.813094E-16
3.178976E+03	6.570475E-16	5.842084E-16
3.179176E+03	6.619812E-16	5.857065E-16
3.179376E+03	6.670754E-16	5.891255E-16
3.179575E+03	6.723301E-16	5.929164E-16
3.179776E+03	6.776385E-16	5.962819E-16
3.179976E+03	6.832676E-16	5.995449E-16
3.180175E+03	6.894841E-16	6.019999E-16
3.180376E+03	6.955409E-16	6.024152E-16
3.180575E+03	7.014915E-16	6.042703E-16
3.180775E+03	7.077094E-16	6.075731E-16
3.180975E+03	7.141413E-16	6.097234E-16
3.181175E+03	7.205736E-16	6.113454E-16
3.181375E+03	7.278072E-16	6.154116E-16
3.181575E+03	7.348278E-16	6.190735E-16
3.181775E+03	7.421691E-16	6.201016E-16
3.181975E+03	7.494577E-16	6.230540E-16
3.182175E+03	7.569604E-16	6.248820E-16
3.182375E+03	7.646772E-16	6.285778E-16
3.182576E+03	7.725549E-16	6.313636E-16
3.182776E+03	7.803796E-16	6.344115E-16
3.182976E+03	7.883652E-16	6.344167E-16
3.183176E+03	7.968319E-16	6.358592E-16
3.183376E+03	8.056730E-16	6.387068E-16
3.183576E+03	8.142479E-16	6.422894E-16
3.183776E+03	8.232506E-16	6.460567E-16
3.183976E+03	8.321471E-16	6.490705E-16
3.184176E+03	8.411511E-16	6.526512E-16
3.184376E+03	8.502627E-16	6.556999E-16
3.184576E+03	8.597488E-16	6.599530E-16
3.184776E+03	8.694493E-16	6.639830E-16
3.184976E+03	8.792573E-16	6.676298E-16
3.185176E+03	8.891195E-16	6.678917E-16
3.185376E+03	8.994098E-16	6.692641E-16
3.185576E+03	9.096475E-16	6.719080E-16
3.185776E+03	9.201530E-16	6.762040E-16
3.185976E+03	9.309265E-16	6.769307E-16
3.186176E+03	9.415405E-16	6.806738E-16
3.186376E+03	9.524225E-16	6.852829E-16
3.186576E+03	9.634655E-16	6.874721E-16
3.186776E+03	9.747231E-16	6.921345E-16
3.186976E+03	9.861419E-16	6.968398E-16
3.187176E+03	9.977219E-16	7.002002E-16
3.187376E+03	1.009516E-15	7.044008E-16
3.187576E+03	1.021472E-15	7.091824E-16
3.187776E+03	1.033589E-15	7.122711E-16
3.187976E+03	1.045921E-15	7.166214E-16
3.188176E+03	1.058414E-15	7.192103E-16
3.188376E+03	1.071122E-15	7.221069E-16
3.188576E+03	1.083937E-15	7.261880E-16
3.188777E+03	1.097021E-15	7.279401E-16
3.188977E+03	1.110267E-15	7.325370E-16
3.189177E+03	1.123673E-15	7.373239E-16
3.189377E+03	1.137348E-15	7.398720E-16
3.189577E+03	1.151131E-15	7.449118E-16
3.189777E+03	1.165128E-15	7.495968E-16
3.189977E+03	1.179288E-15	7.541324E-16
3.190177E+03	1.193662E-15	7.589429E-16
3.190377E+03	1.208251E-15	7.641486E-16
3.190577E+03	1.223001E-15	7.695900E-16
3.190777E+03	1.237913E-15	7.758465E-16
3.190977E+03	1.253041E-15	7.798298E-16
3.191177E+03	1.268329E-15	7.843881E-16
3.191376E+03	1.283833E-15	7.889422E-16
3.191577E+03	1.299552E-15	7.955036E-16
3.191776E+03	1.315432E-15	8.014715E-16
3.191977E+03	1.331528E-15	8.062219E-16
3.192177E+03	1.347839E-15	8.111567E-16
3.192376E+03	1.364311E-15	8.143801E-16
3.192576E+03	1.380999E-15	8.195568E-16
3.192776E+03	1.397848E-15	8.255357E-16
3.193176E+03	1.415019E-15	8.295500E-16
3.193376E+03	1.432889E-15	8.367607E-16
3.193576E+03	1.450920E-15	8.424401E-16
3.193776E+03	1.466919E-15	8.475860E-16
3.193976E+03	1.489714E-15	8.558194E-16
3.194176E+03	1.424328E-15	8.242356E-16
3.194376E+03	1.354387E-15	7.922472E-16
3.194576E+03	1.339026E-15	7.847801E-16
3.194777E+03	1.344160E-15	7.863217E-16
3.194977E+03	1.333668E-15	7.789160E-16
3.195177E+03	1.341103E-15	7.806926E-16
3.195377E+03	1.347897E-15	7.819939E-16
3.195577E+03	1.248661E-15	7.390296E-16
3.195777E+03	1.243622E-15	7.331994E-16
3.195977E+03	1.146248E-15	6.917601E-16
3.196177E+03	1.123059E-15	6.787104E-16
3.196377E+03	1.118925E-15	6.742740E-16
3.196577E+03	1.036686E-15	6.396414E-16
3.196777E+03	9.743014E-16	6.139287E-16
3.196977E+03	9.708043E-16	6.110791E-16
3.197177E+03	9.661827E-16	6.077335E-16
3.197377E+03	9.650409E-16	6.057088E-16
3.197577E+03	9.369128E-16	5.931401E-16
