#wls	flux	fluxerr
1.600000E+03	1.634866E-16	1.615775E-16
1.640000E+03	1.689576E-16	1.642551E-16
1.680000E+03	1.742221E-16	1.664912E-16
1.720000E+03	1.792333E-16	1.682457E-16
1.760000E+03	1.839214E-16	1.694609E-16
1.800000E+03	1.882291E-16	1.700964E-16
1.840000E+03	1.920774E-16	1.700973E-16
1.880000E+03	1.954188E-16	1.694429E-16
1.920000E+03	1.981854E-16	1.681002E-16
1.960000E+03	2.002920E-16	1.660286E-16
2.000000E+03	2.016872E-16	1.632230E-16
2.040000E+03	2.022906E-16	1.596612E-16
2.080000E+03	2.020294E-16	1.553355E-16
2.120000E+03	2.008690E-16	1.502750E-16
2.160000E+03	1.987178E-16	1.444722E-16
2.200000E+03	1.955097E-16	1.379480E-16
2.240000E+03	1.911727E-16	1.307270E-16
2.280000E+03	1.856011E-16	1.228203E-16
2.320000E+03	1.789820E-16	1.144382E-16
2.360000E+03	1.715113E-16	1.057812E-16
2.400000E+03	1.633418E-16	9.700828E-17
2.440000E+03	1.546027E-16	8.825167E-17
2.480000E+03	1.454201E-16	7.963043E-17
2.520000E+03	1.359107E-16	7.124702E-17
2.560000E+03	1.261802E-16	6.318681E-17
2.600000E+03	1.163421E-16	5.552838E-17
2.640000E+03	1.065054E-16	4.833617E-17
2.680000E+03	9.677489E-17	4.166114E-17
2.720000E+03	8.725139E-17	3.554097E-17
2.760000E+03	7.803559E-17	3.000193E-17
2.800000E+03	6.920963E-17	2.505222E-17
2.840000E+03	6.085187E-17	2.068920E-17
2.880000E+03	5.303653E-17	1.690001E-17
2.920000E+03	4.582579E-17	1.366013E-17
2.960000E+03	3.926966E-17	1.093532E-17
3.000000E+03	3.339635E-17	8.681213E-18
3.010000E+03	3.203540E-17	8.185187E-18
3.020000E+03	3.071722E-17	7.714465E-18
3.030000E+03	2.944204E-17	7.268292E-18
3.040000E+03	2.820929E-17	6.845722E-18
3.050000E+03	2.701836E-17	6.445819E-18
3.060000E+03	2.586920E-17	6.067794E-18
3.070000E+03	2.476055E-17	5.710591E-18
3.080000E+03	2.369274E-17	5.373546E-18
3.090000E+03	2.266445E-17	5.055632E-18
3.100000E+03	2.167532E-17	4.756073E-18
3.110000E+03	2.072449E-17	4.473992E-18
3.120000E+03	1.981146E-17	4.208622E-18
3.130000E+03	1.893526E-17	3.959120E-18
3.140000E+03	1.809494E-17	3.724668E-18
3.150000E+03	1.728985E-17	3.504547E-18
3.160000E+03	1.651865E-17	3.297918E-18
3.170000E+03	1.578096E-17	3.104165E-18
3.180000E+03	1.507542E-17	2.922507E-18
3.190000E+03	1.440127E-17	2.752307E-18
3.200000E+03	1.375747E-17	2.592898E-18
3.210000E+03	1.314297E-17	2.443643E-18
3.220000E+03	1.255696E-17	2.303976E-18
3.230000E+03	1.199837E-17	2.173308E-18
3.240000E+03	1.146598E-17	2.051051E-18
3.250000E+03	1.095934E-17	1.936778E-18
3.260000E+03	1.047689E-17	1.829888E-18
3.270000E+03	1.001815E-17	1.729998E-18
3.280000E+03	9.581821E-18	1.636599E-18
3.290000E+03	9.167103E-18	1.549295E-18
3.300000E+03	8.773200E-18	1.467708E-18
3.310000E+03	8.398935E-18	1.391415E-18
3.320000E+03	8.043689E-18	1.320106E-18
3.330000E+03	7.706590E-18	1.253446E-18
3.340000E+03	7.386693E-18	1.191105E-18
3.350000E+03	7.083204E-18	1.132792E-18
3.360000E+03	6.795358E-18	1.078235E-18
3.370000E+03	6.522507E-18	1.027196E-18
3.380000E+03	6.263757E-18	9.794089E-19
3.390000E+03	6.018599E-18	9.346803E-19
3.400000E+03	5.786214E-18	8.927794E-19
3.410000E+03	5.565988E-18	8.535168E-19
3.420000E+03	5.357396E-18	8.167264E-19
3.430000E+03	5.159670E-18	7.822133E-19
3.440000E+03	4.972410E-18	7.498464E-19
3.450000E+03	4.795041E-18	7.194750E-19
3.460000E+03	4.626910E-18	6.909439E-19
3.470000E+03	4.467682E-18	6.641510E-19
3.480000E+03	4.316772E-18	6.389622E-19
3.490000E+03	4.173782E-18	6.152769E-19
3.500000E+03	4.038289E-18	5.929944E-19
3.510000E+03	3.909764E-18	5.720032E-19
3.520000E+03	3.787891E-18	5.522264E-19
3.530000E+03	3.672246E-18	5.335749E-19
3.540000E+03	3.562440E-18	5.159677E-19
3.550000E+03	3.458148E-18	4.993357E-19
3.560000E+03	3.358999E-18	4.836057E-19
3.570000E+03	3.264684E-18	4.687157E-19
3.580000E+03	3.174884E-18	4.546043E-19
3.590000E+03	3.089365E-18	4.412240E-19
3.600000E+03	3.007879E-18	4.285268E-19
3.610000E+03	2.930164E-18	4.164640E-19
3.620000E+03	2.856031E-18	4.049989E-19
3.630000E+03	2.785301E-18	3.940970E-19
3.640000E+03	2.717753E-18	3.837190E-19
3.650000E+03	2.653302E-18	3.738456E-19
3.660000E+03	2.591744E-18	3.644414E-19
3.670000E+03	2.532978E-18	3.554864E-19
3.680000E+03	2.476883E-18	3.469582E-19
3.690000E+03	2.423340E-18	3.388353E-19
3.700000E+03	2.372256E-18	3.311004E-19
3.710000E+03	2.323559E-18	3.237394E-19
3.720000E+03	2.277099E-18	3.167276E-19
3.730000E+03	2.232848E-18	3.100578E-19
3.740000E+03	2.190681E-18	3.037098E-19
3.750000E+03	2.150533E-18	2.976716E-19
3.760000E+03	2.112342E-18	2.919321E-19
3.770000E+03	2.075991E-18	2.864728E-19
3.780000E+03	2.041457E-18	2.812883E-19
3.790000E+03	2.008646E-18	2.763636E-19
3.800000E+03	1.977503E-18	2.716893E-19
3.810000E+03	1.947956E-18	2.672538E-19
3.820000E+03	1.919954E-18	2.630483E-19
3.830000E+03	1.893430E-18	2.590622E-19
3.840000E+03	1.868335E-18	2.552875E-19
3.850000E+03	1.844608E-18	2.517143E-19
3.860000E+03	1.822218E-18	2.483373E-19
3.870000E+03	1.801107E-18	2.451473E-19
3.880000E+03	1.781219E-18	2.421356E-19
3.890000E+03	1.762515E-18	2.392958E-19
3.900000E+03	1.744943E-18	2.366199E-19
3.910000E+03	1.728481E-18	2.341038E-19
3.920000E+03	1.713079E-18	2.317402E-19
3.930000E+03	1.698706E-18	2.295236E-19
3.940000E+03	1.685316E-18	2.274472E-19
3.950000E+03	1.672865E-18	2.255043E-19
3.960000E+03	1.661352E-18	2.236938E-19
3.970000E+03	1.650711E-18	2.220061E-19
3.980000E+03	1.640927E-18	2.204388E-19
3.990000E+03	1.631963E-18	2.189860E-19
4.000000E+03	1.623797E-18	2.176441E-19
4.010000E+03	1.616405E-18	2.164093E-19
4.020000E+03	1.609742E-18	2.152749E-19
4.030000E+03	1.603799E-18	2.142393E-19
4.040000E+03	1.598545E-18	2.132976E-19
4.050000E+03	1.593961E-18	2.124470E-19
4.060000E+03	1.590019E-18	2.116828E-19
4.070000E+03	1.586689E-18	2.110009E-19
4.080000E+03	1.583969E-18	2.104003E-19
4.090000E+03	1.581818E-18	2.098754E-19
4.100000E+03	1.580224E-18	2.094238E-19
4.110000E+03	1.579173E-18	2.090434E-19
4.120000E+03	1.578629E-18	2.087289E-19
4.130000E+03	1.578592E-18	2.084800E-19
4.140000E+03	1.579027E-18	2.082917E-19
4.150000E+03	1.579924E-18	2.081623E-19
4.160000E+03	1.581272E-18	2.080901E-19
4.170000E+03	1.583039E-18	2.080705E-19
4.180000E+03	1.585228E-18	2.081035E-19
4.190000E+03	1.587794E-18	2.081831E-19
4.200000E+03	1.590755E-18	2.083112E-19
4.210000E+03	1.594067E-18	2.084819E-19
4.220000E+03	1.597723E-18	2.086940E-19
4.230000E+03	1.601706E-18	2.089450E-19
4.240000E+03	1.606008E-18	2.092338E-19
4.250000E+03	1.610588E-18	2.095549E-19
4.260000E+03	1.615453E-18	2.099090E-19
4.270000E+03	1.620574E-18	2.102921E-19
4.280000E+03	1.625921E-18	2.107003E-19
4.290000E+03	1.631489E-18	2.111329E-19
4.300000E+03	1.637262E-18	2.115878E-19
4.310000E+03	1.643197E-18	2.120594E-19
4.320000E+03	1.649279E-18	2.125455E-19
4.330000E+03	1.655490E-18	2.130441E-19
4.340000E+03	1.661814E-18	2.135531E-19
4.350000E+03	1.668233E-18	2.140703E-19
4.360000E+03	1.674746E-18	2.145954E-19
4.370000E+03	1.681335E-18	2.151265E-19
4.380000E+03	1.687985E-18	2.156616E-19
4.390000E+03	1.694721E-18	2.162040E-19
4.400000E+03	1.701527E-18	2.167519E-19
4.410000E+03	1.708403E-18	2.173052E-19
4.420000E+03	1.715362E-18	2.178659E-19
4.430000E+03	1.722404E-18	2.184340E-19
4.440000E+03	1.729518E-18	2.190082E-19
4.450000E+03	1.736718E-18	2.195904E-19
4.460000E+03	1.743994E-18	2.201793E-19
4.470000E+03	1.751349E-18	2.207756E-19
4.480000E+03	1.758786E-18	2.213796E-19
4.490000E+03	1.766282E-18	2.219885E-19
4.500000E+03	1.773856E-18	2.226049E-19
4.510000E+03	1.781500E-18	2.232278E-19
4.520000E+03	1.789207E-18	2.238561E-19
4.530000E+03	1.796984E-18	2.244910E-19
4.540000E+03	1.804810E-18	2.251297E-19
4.550000E+03	1.812693E-18	2.257733E-19
4.560000E+03	1.820644E-18	2.264231E-19
4.570000E+03	1.828658E-18	2.270785E-19
4.580000E+03	1.836716E-18	2.277369E-19
4.590000E+03	1.844830E-18	2.283998E-19
4.600000E+03	1.852997E-18	2.290668E-19
4.610000E+03	1.861216E-18	2.297373E-19
4.620000E+03	1.869500E-18	2.304131E-19
4.630000E+03	1.877833E-18	2.310919E-19
4.640000E+03	1.886230E-18	2.317753E-19
4.650000E+03	1.894692E-18	2.324633E-19
4.660000E+03	1.903221E-18	2.331556E-19
4.670000E+03	1.911816E-18	2.338521E-19
4.680000E+03	1.920480E-18	2.345528E-19
4.690000E+03	1.929215E-18	2.352577E-19
4.700000E+03	1.938059E-18	2.359708E-19
4.710000E+03	1.947014E-18	2.366924E-19
4.720000E+03	1.956086E-18	2.374225E-19
4.730000E+03	1.965313E-18	2.381658E-19
4.740000E+03	1.974685E-18	2.389203E-19
4.750000E+03	1.984207E-18	2.396865E-19
4.760000E+03	1.993903E-18	2.404670E-19
4.770000E+03	2.003781E-18	2.412622E-19
4.780000E+03	2.013829E-18	2.420706E-19
4.790000E+03	2.024073E-18	2.428949E-19
4.800000E+03	2.034522E-18	2.437360E-19
4.810000E+03	2.045164E-18	2.445922E-19
4.820000E+03	2.056028E-18	2.454668E-19
4.830000E+03	2.067121E-18	2.463606E-19
4.840000E+03	2.078454E-18	2.472745E-19
4.850000E+03	2.090035E-18	2.482097E-19
4.860000E+03	2.101854E-18	2.491649E-19
4.870000E+03	2.113961E-18	2.501459E-19
4.880000E+03	2.126327E-18	2.511493E-19
4.890000E+03	2.138961E-18	2.521762E-19
4.900000E+03	2.151892E-18	2.532303E-19
4.910000E+03	2.165133E-18	2.543130E-19
4.920000E+03	2.178692E-18	2.554255E-19
4.930000E+03	2.192540E-18	2.565645E-19
4.940000E+03	2.206728E-18	2.577360E-19
4.950000E+03	2.221246E-18	2.589390E-19
4.960000E+03	2.236104E-18	2.601748E-19
4.970000E+03	2.251311E-18	2.614448E-19
4.980000E+03	2.266879E-18	2.627504E-19
4.990000E+03	2.282795E-18	2.640902E-19
5.000000E+03	2.299069E-18	2.654656E-19
5.010000E+03	2.315732E-18	2.668804E-19
5.020000E+03	2.332771E-18	2.683332E-19
5.030000E+03	2.350172E-18	2.698228E-19
5.040000E+03	2.367990E-18	2.713555E-19
5.050000E+03	2.386164E-18	2.729249E-19
5.060000E+03	2.404747E-18	2.745373E-19
5.070000E+03	2.423748E-18	2.761941E-19
5.080000E+03	2.443103E-18	2.778887E-19
5.090000E+03	2.462889E-18	2.796303E-19
5.100000E+03	2.483065E-18	2.814151E-19
5.110000E+03	2.503637E-18	2.832446E-19
5.120000E+03	2.524635E-18	2.851230E-19
5.130000E+03	2.546013E-18	2.870467E-19
5.140000E+03	2.567776E-18	2.890172E-19
5.150000E+03	2.589953E-18	2.910394E-19
5.160000E+03	2.612521E-18	2.931125E-19
5.170000E+03	2.635482E-18	2.952385E-19
5.180000E+03	2.658812E-18	2.974170E-19
5.190000E+03	2.682538E-18	2.996532E-19
5.200000E+03	2.706608E-18	3.019438E-19
5.210000E+03	2.731073E-18	3.042973E-19
5.220000E+03	2.755906E-18	3.067135E-19
5.230000E+03	2.781077E-18	3.091924E-19
5.240000E+03	2.806582E-18	3.117368E-19
5.250000E+03	2.832443E-18	3.143528E-19
5.260000E+03	2.858601E-18	3.170372E-19
5.270000E+03	2.885076E-18	3.197963E-19
5.280000E+03	2.911887E-18	3.226362E-19
5.290000E+03	2.938942E-18	3.255505E-19
5.300000E+03	2.966315E-18	3.285518E-19
5.310000E+03	2.993907E-18	3.316332E-19
5.320000E+03	3.021794E-18	3.348074E-19
5.330000E+03	3.049871E-18	3.380670E-19
5.340000E+03	3.078183E-18	3.414212E-19
5.350000E+03	3.106712E-18	3.448723E-19
5.360000E+03	3.135409E-18	3.484189E-19
5.370000E+03	3.164316E-18	3.520698E-19
5.380000E+03	3.193317E-18	3.558160E-19
5.390000E+03	3.222483E-18	3.596693E-19
5.400000E+03	3.251757E-18	3.636270E-19
5.410000E+03	3.281114E-18	3.676898E-19
5.420000E+03	3.310523E-18	3.718579E-19
5.430000E+03	3.339957E-18	3.761311E-19
5.440000E+03	3.369347E-18	3.805049E-19
5.450000E+03	3.398661E-18	3.849784E-19
5.460000E+03	3.427861E-18	3.895500E-19
5.470000E+03	3.456910E-18	3.942176E-19
5.480000E+03	3.485732E-18	3.989751E-19
5.490000E+03	3.514250E-18	4.038152E-19
5.500000E+03	3.542454E-18	4.087388E-19
5.510000E+03	3.570263E-18	4.137378E-19
5.520000E+03	3.597592E-18	4.188038E-19
5.530000E+03	3.624355E-18	4.239276E-19
5.540000E+03	3.650537E-18	4.291081E-19
5.550000E+03	3.676012E-18	4.343311E-19
5.560000E+03	3.700762E-18	4.395948E-19
5.570000E+03	3.724658E-18	4.448838E-19
5.580000E+03	3.747644E-18	4.501912E-19
5.590000E+03	3.769704E-18	4.555142E-19
5.600000E+03	3.790704E-18	4.608363E-19
5.610000E+03	3.810630E-18	4.661543E-19
5.620000E+03	3.829428E-18	4.714604E-19
5.630000E+03	3.847006E-18	4.767417E-19
5.640000E+03	3.863314E-18	4.819899E-19
5.650000E+03	3.878344E-18	4.872015E-19
5.660000E+03	3.892048E-18	4.923681E-19
5.670000E+03	3.904346E-18	4.974763E-19
5.680000E+03	3.915235E-18	5.025225E-19
5.690000E+03	3.924722E-18	5.075035E-19
5.700000E+03	3.932692E-18	5.124002E-19
5.710000E+03	3.939156E-18	5.172092E-19
5.720000E+03	3.944132E-18	5.219274E-19
5.730000E+03	3.947599E-18	5.265464E-19
5.740000E+03	3.949542E-18	5.310578E-19
5.750000E+03	3.949950E-18	5.354532E-19
5.760000E+03	3.948817E-18	5.397242E-19
5.770000E+03	3.946183E-18	5.438684E-19
5.780000E+03	3.942010E-18	5.478720E-19
5.790000E+03	3.936390E-18	5.517387E-19
5.800000E+03	3.929295E-18	5.554549E-19
5.810000E+03	3.920743E-18	5.590132E-19
5.820000E+03	3.910840E-18	5.624183E-19
5.830000E+03	3.899529E-18	5.656513E-19
5.840000E+03	3.886883E-18	5.687114E-19
5.850000E+03	3.872980E-18	5.715988E-19
5.860000E+03	3.857816E-18	5.743013E-19
5.870000E+03	3.841477E-18	5.768199E-19
5.880000E+03	3.823965E-18	5.791432E-19
5.890000E+03	3.805415E-18	5.812798E-19
5.900000E+03	3.785834E-18	5.832194E-19
5.910000E+03	3.765277E-18	5.849590E-19
5.920000E+03	3.743841E-18	5.865023E-19
5.930000E+03	3.721541E-18	5.878411E-19
5.940000E+03	3.698477E-18	5.889806E-19
5.950000E+03	3.674667E-18	5.899136E-19
5.960000E+03	3.650212E-18	5.906470E-19
5.970000E+03	3.625172E-18	5.911813E-19
5.980000E+03	3.599606E-18	5.915183E-19
5.990000E+03	3.573533E-18	5.916529E-19
6.000000E+03	3.547053E-18	5.915948E-19
6.010000E+03	3.520224E-18	5.913471E-19
6.020000E+03	3.493062E-18	5.909069E-19
6.030000E+03	3.465664E-18	5.902853E-19
6.040000E+03	3.438043E-18	5.894803E-19
6.050000E+03	3.410211E-18	5.884900E-19
6.060000E+03	3.382301E-18	5.873341E-19
6.070000E+03	3.354281E-18	5.860047E-19
6.080000E+03	3.326238E-18	5.845150E-19
6.090000E+03	3.298139E-18	5.828575E-19
6.100000E+03	3.270067E-18	5.810461E-19
6.110000E+03	3.242023E-18	5.790808E-19
6.120000E+03	3.214047E-18	5.769687E-19
6.130000E+03	3.186177E-18	5.747170E-19
6.140000E+03	3.158408E-18	5.723260E-19
6.150000E+03	3.130774E-18	5.698031E-19
6.160000E+03	3.103306E-18	5.671557E-19
6.170000E+03	3.076034E-18	5.643910E-19
6.180000E+03	3.048982E-18	5.615164E-19
6.190000E+03	3.022139E-18	5.585320E-19
6.200000E+03	2.995565E-18	5.554519E-19
6.210000E+03	2.969282E-18	5.522832E-19
6.220000E+03	2.943307E-18	5.490325E-19
6.230000E+03	2.917695E-18	5.457138E-19
6.240000E+03	2.892501E-18	5.423405E-19
6.250000E+03	2.867773E-18	5.389259E-19
6.260000E+03	2.843562E-18	5.354833E-19
6.270000E+03	2.819913E-18	5.320254E-19
6.280000E+03	2.796911E-18	5.285720E-19
6.290000E+03	2.774523E-18	5.251213E-19
6.300000E+03	2.752905E-18	5.217067E-19
6.310000E+03	2.732023E-18	5.183259E-19
6.320000E+03	2.711954E-18	5.149977E-19
6.330000E+03	2.692739E-18	5.117335E-19
6.340000E+03	2.674416E-18	5.085444E-19
6.350000E+03	2.656985E-18	5.054342E-19
6.360000E+03	2.640484E-18	5.024137E-19
6.370000E+03	2.624951E-18	4.994934E-19
6.380000E+03	2.610385E-18	4.966765E-19
6.390000E+03	2.596786E-18	4.939660E-19
6.400000E+03	2.584192E-18	4.913721E-19
6.410000E+03	2.572526E-18	4.888829E-19
6.420000E+03	2.561789E-18	4.865012E-19
6.430000E+03	2.551943E-18	4.842221E-19
6.440000E+03	2.542910E-18	4.820334E-19
6.450000E+03	2.534729E-18	4.799445E-19
6.460000E+03	2.527322E-18	4.779428E-19
6.470000E+03	2.520727E-18	4.760373E-19
6.480000E+03	2.514943E-18	4.742299E-19
6.490000E+03	2.509932E-18	4.725147E-19
6.500000E+03	2.505692E-18	4.708934E-19
6.510000E+03	2.502223E-18	4.693671E-19
6.520000E+03	2.499524E-18	4.679372E-19
6.530000E+03	2.497595E-18	4.666050E-19
6.540000E+03	2.496474E-18	4.653787E-19
6.550000E+03	2.496124E-18	4.642522E-19
6.560000E+03	2.496505E-18	4.632190E-19
6.570000E+03	2.497695E-18	4.622948E-19
6.580000E+03	2.499616E-18	4.614656E-19
6.590000E+03	2.502309E-18	4.607397E-19
6.600000E+03	2.505774E-18	4.601178E-19
6.610000E+03	2.510014E-18	4.596005E-19
6.620000E+03	2.515029E-18	4.591886E-19
6.630000E+03	2.520779E-18	4.588751E-19
6.640000E+03	2.527308E-18	4.586682E-19
6.650000E+03	2.534577E-18	4.585608E-19
6.660000E+03	2.542628E-18	4.585610E-19
6.670000E+03	2.551423E-18	4.586616E-19
6.680000E+03	2.560963E-18	4.588630E-19
6.690000E+03	2.571294E-18	4.591735E-19
6.700000E+03	2.582420E-18	4.595935E-19
6.710000E+03	2.594256E-18	4.601077E-19
6.720000E+03	2.606894E-18	4.607322E-19
6.730000E+03	2.620248E-18	4.614516E-19
6.740000E+03	2.634410E-18	4.622819E-19
6.750000E+03	2.649341E-18	4.632157E-19
6.760000E+03	2.664997E-18	4.642450E-19
6.770000E+03	2.681475E-18	4.653865E-19
6.780000E+03	2.698686E-18	4.666240E-19
6.790000E+03	2.716681E-18	4.679661E-19
6.800000E+03	2.735465E-18	4.694129E-19
6.810000E+03	2.755041E-18	4.709648E-19
6.820000E+03	2.775367E-18	4.726136E-19
6.830000E+03	2.796495E-18	4.743679E-19
6.840000E+03	2.818380E-18	4.762194E-19
6.850000E+03	2.841077E-18	4.781769E-19
6.860000E+03	2.864539E-18	4.802319E-19
6.870000E+03	2.888771E-18	4.823845E-19
6.880000E+03	2.913829E-18	4.846437E-19
6.890000E+03	2.939612E-18	4.869918E-19
6.900000E+03	2.966230E-18	4.894469E-19
6.910000E+03	2.993635E-18	4.920001E-19
6.920000E+03	3.021831E-18	4.946515E-19
6.930000E+03	3.050821E-18	4.974011E-19
6.940000E+03	3.080610E-18	5.002492E-19
6.950000E+03	3.111142E-18	5.031862E-19
6.960000E+03	3.142480E-18	5.062216E-19
6.970000E+03	3.174627E-18	5.093556E-19
6.980000E+03	3.207588E-18	5.125883E-19
6.990000E+03	3.241241E-18	5.158998E-19
7.000000E+03	3.275775E-18	5.193200E-19
7.010000E+03	3.311005E-18	5.228188E-19
7.020000E+03	3.347059E-18	5.264162E-19
7.030000E+03	3.383874E-18	5.301020E-19
7.040000E+03	3.421452E-18	5.338762E-19
7.050000E+03	3.459794E-18	5.377385E-19
7.060000E+03	3.498900E-18	5.416889E-19
7.070000E+03	3.538700E-18	5.457162E-19
7.080000E+03	3.579263E-18	5.498311E-19
7.090000E+03	3.620588E-18	5.540333E-19
7.100000E+03	3.662603E-18	5.583116E-19
7.110000E+03	3.705379E-18	5.626767E-19
7.120000E+03	3.748838E-18	5.671171E-19
7.130000E+03	3.792976E-18	5.716322E-19
7.140000E+03	3.837790E-18	5.762216E-19
7.150000E+03	3.883354E-18	5.808967E-19
7.160000E+03	3.929504E-18	5.856332E-19
7.170000E+03	3.976231E-18	5.904301E-19
7.180000E+03	4.023692E-18	5.953114E-19
7.190000E+03	4.071715E-18	6.002517E-19
7.200000E+03	4.120288E-18	6.052502E-19
7.210000E+03	4.169488E-18	6.103187E-19
7.220000E+03	4.219219E-18	6.154436E-19
7.230000E+03	4.269466E-18	6.206240E-19
7.240000E+03	4.320218E-18	6.258586E-19
7.250000E+03	4.371460E-18	6.311466E-19
7.260000E+03	4.423272E-18	6.365004E-19
7.270000E+03	4.475451E-18	6.418917E-19
7.280000E+03	4.528173E-18	6.473470E-19
7.290000E+03	4.581326E-18	6.528513E-19
7.300000E+03	4.634892E-18	6.584033E-19
7.310000E+03	4.688958E-18	6.640164E-19
7.320000E+03	4.743403E-18	6.696749E-19
7.330000E+03	4.798316E-18	6.753924E-19
7.340000E+03	4.853681E-18	6.811679E-19
7.350000E+03	4.909592E-18	6.870159E-19
7.360000E+03	4.966040E-18	6.929358E-19
7.370000E+03	5.023125E-18	6.989428E-19
7.380000E+03	5.080726E-18	7.050208E-19
7.390000E+03	5.139182E-18	7.112178E-19
7.400000E+03	5.198498E-18	7.175348E-19
7.410000E+03	5.258555E-18	7.239559E-19
7.420000E+03	5.319722E-18	7.305321E-19
7.430000E+03	5.381889E-18	7.372482E-19
7.440000E+03	5.445191E-18	7.441228E-19
7.450000E+03	5.509515E-18	7.511401E-19
7.460000E+03	5.575002E-18	7.583190E-19
7.470000E+03	5.641266E-18	7.656065E-19
7.480000E+03	5.708575E-18	7.730387E-19
7.490000E+03	5.776527E-18	7.805601E-19
7.500000E+03	5.845248E-18	7.881876E-19
7.510000E+03	5.914594E-18	7.959008E-19
7.520000E+03	5.984409E-18	8.036778E-19
7.530000E+03	6.054820E-18	8.115349E-19
7.540000E+03	6.125368E-18	8.194096E-19
7.550000E+03	6.196321E-18	8.273367E-19
7.560000E+03	6.267504E-18	8.352917E-19
7.570000E+03	6.338889E-18	8.432697E-19
7.580000E+03	6.410286E-18	8.512443E-19
7.590000E+03	6.481818E-18	8.592307E-19
7.600000E+03	6.553290E-18	8.672019E-19
7.610000E+03	6.624660E-18	8.751513E-19
7.620000E+03	6.696054E-18	8.830944E-19
7.630000E+03	6.767266E-18	8.910030E-19
7.640000E+03	6.838423E-18	8.988931E-19
7.650000E+03	6.909138E-18	9.067129E-19
7.660000E+03	6.979710E-18	9.145011E-19
7.670000E+03	7.049919E-18	9.222282E-19
7.680000E+03	7.119897E-18	9.299110E-19
7.690000E+03	7.189415E-18	9.375196E-19
7.700000E+03	7.258424E-18	9.450469E-19
7.710000E+03	7.326869E-18	9.524861E-19
7.720000E+03	7.395080E-18	9.598801E-19
7.730000E+03	7.462435E-18	9.671481E-19
7.740000E+03	7.529461E-18	9.743588E-19
7.750000E+03	7.595719E-18	9.814556E-19
7.760000E+03	7.661354E-18	9.884577E-19
