#wls	flux	fluxerr
1.600000E+03	1.390981E-16	1.355774E-16
1.640000E+03	1.438488E-16	1.378778E-16
1.680000E+03	1.485797E-16	1.399517E-16
1.720000E+03	1.532817E-16	1.417863E-16
1.760000E+03	1.578974E-16	1.433260E-16
1.800000E+03	1.624073E-16	1.445530E-16
1.840000E+03	1.667579E-16	1.454218E-16
1.880000E+03	1.709189E-16	1.459106E-16
1.920000E+03	1.748404E-16	1.459847E-16
1.960000E+03	1.784680E-16	1.456096E-16
2.000000E+03	1.817172E-16	1.447322E-16
2.040000E+03	1.845287E-16	1.433264E-16
2.080000E+03	1.868298E-16	1.413619E-16
2.120000E+03	1.885136E-16	1.387904E-16
2.160000E+03	1.894829E-16	1.355805E-16
2.200000E+03	1.896195E-16	1.316963E-16
2.240000E+03	1.888160E-16	1.271208E-16
2.280000E+03	1.870317E-16	1.218912E-16
2.320000E+03	1.842650E-16	1.160749E-16
2.360000E+03	1.806199E-16	1.098054E-16
2.400000E+03	1.761869E-16	1.032006E-16
2.440000E+03	1.710454E-16	9.636477E-17
2.480000E+03	1.652876E-16	8.940335E-17
2.520000E+03	1.589808E-16	8.240067E-17
2.560000E+03	1.521820E-16	7.543008E-17
2.600000E+03	1.449710E-16	6.857044E-17
2.640000E+03	1.374028E-16	6.188181E-17
2.680000E+03	1.295519E-16	5.542668E-17
2.720000E+03	1.214817E-16	4.925547E-17
2.760000E+03	1.132777E-16	4.341985E-17
2.800000E+03	1.050159E-16	3.795907E-17
2.840000E+03	9.678526E-17	3.290822E-17
2.880000E+03	8.867782E-17	2.829376E-17
2.920000E+03	8.078612E-17	2.413253E-17
2.960000E+03	7.319949E-17	2.043087E-17
3.000000E+03	6.599853E-17	1.718393E-17
3.010000E+03	6.426615E-17	1.644145E-17
3.020000E+03	6.256364E-17	1.572625E-17
3.030000E+03	6.089011E-17	1.503752E-17
3.040000E+03	5.924875E-17	1.437543E-17
3.050000E+03	5.763858E-17	1.373912E-17
3.060000E+03	5.606001E-17	1.312806E-17
3.070000E+03	5.451339E-17	1.254168E-17
3.080000E+03	5.300127E-17	1.197994E-17
3.090000E+03	5.152160E-17	1.144171E-17
3.100000E+03	5.007669E-17	1.092683E-17
3.110000E+03	4.866558E-17	1.043443E-17
3.120000E+03	4.728932E-17	9.964081E-18
3.130000E+03	4.594789E-17	9.515097E-18
3.140000E+03	4.464121E-17	9.086805E-18
3.150000E+03	4.336923E-17	8.678531E-18
3.160000E+03	4.213262E-17	8.289756E-18
3.170000E+03	4.093040E-17	7.919638E-18
3.180000E+03	3.976313E-17	7.567649E-18
3.190000E+03	3.863053E-17	7.233105E-18
3.200000E+03	3.753228E-17	6.915333E-18
3.210000E+03	3.646869E-17	6.613782E-18
3.220000E+03	3.543809E-17	6.327563E-18
3.230000E+03	3.444193E-17	6.056360E-18
3.240000E+03	3.347796E-17	5.799220E-18
3.250000E+03	3.254742E-17	5.555819E-18
3.260000E+03	3.164867E-17	5.325354E-18
3.270000E+03	3.078174E-17	5.107320E-18
3.280000E+03	2.994604E-17	4.901138E-18
3.290000E+03	2.914053E-17	4.706169E-18
3.300000E+03	2.836554E-17	4.522016E-18
3.310000E+03	2.761955E-17	4.348009E-18
3.320000E+03	2.690199E-17	4.183647E-18
3.330000E+03	2.621305E-17	4.028568E-18
3.340000E+03	2.555128E-17	3.882175E-18
3.350000E+03	2.491608E-17	3.744024E-18
3.360000E+03	2.430682E-17	3.613685E-18
3.370000E+03	2.372323E-17	3.490797E-18
3.380000E+03	2.316400E-17	3.374867E-18
3.390000E+03	2.262855E-17	3.265527E-18
3.400000E+03	2.211658E-17	3.162467E-18
3.410000E+03	2.162719E-17	3.065305E-18
3.420000E+03	2.115979E-17	2.973722E-18
3.430000E+03	2.071327E-17	2.887341E-18
3.440000E+03	2.028736E-17	2.805917E-18
3.450000E+03	1.988154E-17	2.729182E-18
3.460000E+03	1.949477E-17	2.656815E-18
3.470000E+03	1.912658E-17	2.588583E-18
3.480000E+03	1.877628E-17	2.524235E-18
3.490000E+03	1.844363E-17	2.463596E-18
3.500000E+03	1.812755E-17	2.406384E-18
3.510000E+03	1.782785E-17	2.352449E-18
3.520000E+03	1.754373E-17	2.301571E-18
3.530000E+03	1.727465E-17	2.253570E-18
3.540000E+03	1.702006E-17	2.208280E-18
3.550000E+03	1.677930E-17	2.165521E-18
3.560000E+03	1.655209E-17	2.125173E-18
3.570000E+03	1.633762E-17	2.087059E-18
3.580000E+03	1.613549E-17	2.051054E-18
3.590000E+03	1.594549E-17	2.017069E-18
3.600000E+03	1.576708E-17	1.984975E-18
3.610000E+03	1.559991E-17	1.954673E-18
3.620000E+03	1.544350E-17	1.926052E-18
3.630000E+03	1.529738E-17	1.899009E-18
3.640000E+03	1.516127E-17	1.873466E-18
3.650000E+03	1.503461E-17	1.849314E-18
3.660000E+03	1.491728E-17	1.826506E-18
3.670000E+03	1.480877E-17	1.804944E-18
3.680000E+03	1.470885E-17	1.784572E-18
3.690000E+03	1.461744E-17	1.765351E-18
3.700000E+03	1.453406E-17	1.747197E-18
3.710000E+03	1.445850E-17	1.730063E-18
3.720000E+03	1.439084E-17	1.713936E-18
3.730000E+03	1.433076E-17	1.698754E-18
3.740000E+03	1.427805E-17	1.684478E-18
3.750000E+03	1.423278E-17	1.671095E-18
3.760000E+03	1.419465E-17	1.658552E-18
3.770000E+03	1.416357E-17	1.646825E-18
3.780000E+03	1.413963E-17	1.635906E-18
3.790000E+03	1.412262E-17	1.625759E-18
3.800000E+03	1.411248E-17	1.616360E-18
3.810000E+03	1.410914E-17	1.607690E-18
3.820000E+03	1.411254E-17	1.599726E-18
3.830000E+03	1.412272E-17	1.592462E-18
3.840000E+03	1.413949E-17	1.585862E-18
3.850000E+03	1.416290E-17	1.579920E-18
3.860000E+03	1.419299E-17	1.574627E-18
3.870000E+03	1.422957E-17	1.569950E-18
3.880000E+03	1.427255E-17	1.565866E-18
3.890000E+03	1.432210E-17	1.562380E-18
3.900000E+03	1.437813E-17	1.559470E-18
3.910000E+03	1.444043E-17	1.557100E-18
3.920000E+03	1.450916E-17	1.555272E-18
3.930000E+03	1.458434E-17	1.553975E-18
3.940000E+03	1.466564E-17	1.553159E-18
3.950000E+03	1.475319E-17	1.552824E-18
3.960000E+03	1.484701E-17	1.552956E-18
3.970000E+03	1.494699E-17	1.553529E-18
3.980000E+03	1.505289E-17	1.554502E-18
3.990000E+03	1.516497E-17	1.555886E-18
4.000000E+03	1.528296E-17	1.557640E-18
4.010000E+03	1.540674E-17	1.559733E-18
4.020000E+03	1.553642E-17	1.562161E-18
4.030000E+03	1.567173E-17	1.564883E-18
4.040000E+03	1.581276E-17	1.567893E-18
4.050000E+03	1.595912E-17	1.571135E-18
4.060000E+03	1.611101E-17	1.574617E-18
4.070000E+03	1.626814E-17	1.578295E-18
4.080000E+03	1.643034E-17	1.582140E-18
4.090000E+03	1.659767E-17	1.586147E-18
4.100000E+03	1.676968E-17	1.590262E-18
4.110000E+03	1.694657E-17	1.594492E-18
4.120000E+03	1.712787E-17	1.598786E-18
4.130000E+03	1.731348E-17	1.603130E-18
4.140000E+03	1.750334E-17	1.607510E-18
4.150000E+03	1.769705E-17	1.611892E-18
4.160000E+03	1.789451E-17	1.616266E-18
4.170000E+03	1.809547E-17	1.620614E-18
4.180000E+03	1.829952E-17	1.624908E-18
4.190000E+03	1.850666E-17	1.629162E-18
4.200000E+03	1.871631E-17	1.633343E-18
4.210000E+03	1.892846E-17	1.637476E-18
4.220000E+03	1.914248E-17	1.641536E-18
4.230000E+03	1.935820E-17	1.645547E-18
4.240000E+03	1.957526E-17	1.649524E-18
4.250000E+03	1.979298E-17	1.653462E-18
4.260000E+03	2.001129E-17	1.657418E-18
4.270000E+03	2.022964E-17	1.661414E-18
4.280000E+03	2.044743E-17	1.665480E-18
4.290000E+03	2.066409E-17	1.669649E-18
4.300000E+03	2.087931E-17	1.673991E-18
4.310000E+03	2.109264E-17	1.678560E-18
4.320000E+03	2.130309E-17	1.683376E-18
4.330000E+03	2.151052E-17	1.688525E-18
4.340000E+03	2.171392E-17	1.694023E-18
4.350000E+03	2.191313E-17	1.699949E-18
4.360000E+03	2.210732E-17	1.706320E-18
4.370000E+03	2.229618E-17	1.713186E-18
4.380000E+03	2.247945E-17	1.720582E-18
4.390000E+03	2.265692E-17	1.728531E-18
4.400000E+03	2.282852E-17	1.737040E-18
4.410000E+03	2.299454E-17	1.746112E-18
4.420000E+03	2.315533E-17	1.755734E-18
4.430000E+03	2.331111E-17	1.765866E-18
4.440000E+03	2.346232E-17	1.776472E-18
4.450000E+03	2.360904E-17	1.787475E-18
4.460000E+03	2.375197E-17	1.798838E-18
4.470000E+03	2.389122E-17	1.810474E-18
4.480000E+03	2.402714E-17	1.822307E-18
4.490000E+03	2.416006E-17	1.834265E-18
4.500000E+03	2.429034E-17	1.846276E-18
4.510000E+03	2.441832E-17	1.858272E-18
4.520000E+03	2.454436E-17	1.870192E-18
4.530000E+03	2.466840E-17	1.881949E-18
4.540000E+03	2.479122E-17	1.893528E-18
4.550000E+03	2.491273E-17	1.904858E-18
4.560000E+03	2.503329E-17	1.915907E-18
4.570000E+03	2.515301E-17	1.926637E-18
4.580000E+03	2.527245E-17	1.937051E-18
4.590000E+03	2.539173E-17	1.947126E-18
4.600000E+03	2.551072E-17	1.956830E-18
4.610000E+03	2.563019E-17	1.966206E-18
4.620000E+03	2.575001E-17	1.975235E-18
4.630000E+03	2.587026E-17	1.983918E-18
4.640000E+03	2.599146E-17	1.992301E-18
4.650000E+03	2.611395E-17	2.000413E-18
4.660000E+03	2.623729E-17	2.008233E-18
4.670000E+03	2.636227E-17	2.015833E-18
4.680000E+03	2.648895E-17	2.023235E-18
4.690000E+03	2.661739E-17	2.030461E-18
4.700000E+03	2.674787E-17	2.037551E-18
4.710000E+03	2.688047E-17	2.044529E-18
4.720000E+03	2.701547E-17	2.051439E-18
4.730000E+03	2.715243E-17	2.058266E-18
4.740000E+03	2.729165E-17	2.065052E-18
4.750000E+03	2.743342E-17	2.071838E-18
4.760000E+03	2.757701E-17	2.078590E-18
4.770000E+03	2.772299E-17	2.085366E-18
4.780000E+03	2.787110E-17	2.092167E-18
4.790000E+03	2.802112E-17	2.098995E-18
4.800000E+03	2.817359E-17	2.105907E-18
4.810000E+03	2.832771E-17	2.112862E-18
4.820000E+03	2.848429E-17	2.119939E-18
4.830000E+03	2.864251E-17	2.127095E-18
4.840000E+03	2.880291E-17	2.134388E-18
4.850000E+03	2.896489E-17	2.141793E-18
4.860000E+03	2.912899E-17	2.149367E-18
4.870000E+03	2.929461E-17	2.157084E-18
4.880000E+03	2.946197E-17	2.164977E-18
4.890000E+03	2.963101E-17	2.173059E-18
4.900000E+03	2.980139E-17	2.181317E-18
4.910000E+03	2.997302E-17	2.189760E-18
4.920000E+03	3.014581E-17	2.198392E-18
4.930000E+03	3.031996E-17	2.207234E-18
4.940000E+03	3.049477E-17	2.216241E-18
4.950000E+03	3.067072E-17	2.225449E-18
4.960000E+03	3.084707E-17	2.234802E-18
4.970000E+03	3.102398E-17	2.244306E-18
4.980000E+03	3.120098E-17	2.253915E-18
4.990000E+03	3.137790E-17	2.263604E-18
5.000000E+03	3.155452E-17	2.273337E-18
5.010000E+03	3.173095E-17	2.283101E-18
5.020000E+03	3.190633E-17	2.292807E-18
5.030000E+03	3.208071E-17	2.302429E-18
5.040000E+03	3.225349E-17	2.311894E-18
5.050000E+03	3.242469E-17	2.321170E-18
5.060000E+03	3.259366E-17	2.330177E-18
5.070000E+03	3.275972E-17	2.338833E-18
5.080000E+03	3.292283E-17	2.347100E-18
5.090000E+03	3.308258E-17	2.354919E-18
5.100000E+03	3.323823E-17	2.362207E-18
5.110000E+03	3.338901E-17	2.368883E-18
5.120000E+03	3.353510E-17	2.374940E-18
5.130000E+03	3.367538E-17	2.380279E-18
5.140000E+03	3.380933E-17	2.384852E-18
5.150000E+03	3.393645E-17	2.388615E-18
5.160000E+03	3.405620E-17	2.391531E-18
5.170000E+03	3.416772E-17	2.393541E-18
5.180000E+03	3.427079E-17	2.394643E-18
5.190000E+03	3.436418E-17	2.394765E-18
5.200000E+03	3.444767E-17	2.393914E-18
5.210000E+03	3.452003E-17	2.392029E-18
5.220000E+03	3.458139E-17	2.389151E-18
5.230000E+03	3.463052E-17	2.385228E-18
5.240000E+03	3.466722E-17	2.380286E-18
5.250000E+03	3.469029E-17	2.374282E-18
5.260000E+03	3.469957E-17	2.367249E-18
5.270000E+03	3.469460E-17	2.359200E-18
5.280000E+03	3.467426E-17	2.350106E-18
5.290000E+03	3.463816E-17	2.339990E-18
5.300000E+03	3.458630E-17	2.328903E-18
5.310000E+03	3.451805E-17	2.316856E-18
5.320000E+03	3.443286E-17	2.303866E-18
5.330000E+03	3.433060E-17	2.289982E-18
5.340000E+03	3.421121E-17	2.275261E-18
5.350000E+03	3.407474E-17	2.259766E-18
5.360000E+03	3.392100E-17	2.243549E-18
5.370000E+03	3.375057E-17	2.226716E-18
5.380000E+03	3.356349E-17	2.209335E-18
5.390000E+03	3.336057E-17	2.191527E-18
5.400000E+03	3.314206E-17	2.173375E-18
5.410000E+03	3.290935E-17	2.155033E-18
5.420000E+03	3.266358E-17	2.136636E-18
5.430000E+03	3.240533E-17	2.118274E-18
5.440000E+03	3.213661E-17	2.100123E-18
5.450000E+03	3.185850E-17	2.082289E-18
5.460000E+03	3.157093E-17	2.064792E-18
5.470000E+03	3.127613E-17	2.047784E-18
5.480000E+03	3.097481E-17	2.031308E-18
5.490000E+03	3.066776E-17	2.015392E-18
5.500000E+03	3.035624E-17	2.000070E-18
5.510000E+03	3.004153E-17	1.985336E-18
5.520000E+03	2.972495E-17	1.971175E-18
5.530000E+03	2.940842E-17	1.957598E-18
5.540000E+03	2.909323E-17	1.944575E-18
5.550000E+03	2.878148E-17	1.932128E-18
5.560000E+03	2.847489E-17	1.920255E-18
5.570000E+03	2.817480E-17	1.908938E-18
5.580000E+03	2.788300E-17	1.898194E-18
5.590000E+03	2.760089E-17	1.888025E-18
5.600000E+03	2.732971E-17	1.878434E-18
5.610000E+03	2.707088E-17	1.869444E-18
5.620000E+03	2.682537E-17	1.861062E-18
5.630000E+03	2.659403E-17	1.853298E-18
5.640000E+03	2.637785E-17	1.846179E-18
5.650000E+03	2.617739E-17	1.839718E-18
5.660000E+03	2.599337E-17	1.833942E-18
5.670000E+03	2.582610E-17	1.828864E-18
5.680000E+03	2.567580E-17	1.824491E-18
5.690000E+03	2.554281E-17	1.820851E-18
5.700000E+03	2.542716E-17	1.817948E-18
5.710000E+03	2.532874E-17	1.815785E-18
5.720000E+03	2.524768E-17	1.814381E-18
5.730000E+03	2.518376E-17	1.813734E-18
5.740000E+03	2.513698E-17	1.813855E-18
5.750000E+03	2.510679E-17	1.814717E-18
5.760000E+03	2.509339E-17	1.816344E-18
5.770000E+03	2.509617E-17	1.818702E-18
5.780000E+03	2.511481E-17	1.821768E-18
5.790000E+03	2.514948E-17	1.825559E-18
5.800000E+03	2.519932E-17	1.830007E-18
5.810000E+03	2.526454E-17	1.835120E-18
5.820000E+03	2.534483E-17	1.840862E-18
5.830000E+03	2.543991E-17	1.847195E-18
5.840000E+03	2.554921E-17	1.854056E-18
5.850000E+03	2.567302E-17	1.861439E-18
5.860000E+03	2.581083E-17	1.869275E-18
5.870000E+03	2.596268E-17	1.877532E-18
5.880000E+03	2.612835E-17	1.886157E-18
5.890000E+03	2.630733E-17	1.895072E-18
5.900000E+03	2.649971E-17	1.904242E-18
5.910000E+03	2.670557E-17	1.913629E-18
5.920000E+03	2.692412E-17	1.923135E-18
5.930000E+03	2.715544E-17	1.932726E-18
5.940000E+03	2.739933E-17	1.942350E-18
5.950000E+03	2.765588E-17	1.951979E-18
5.960000E+03	2.792425E-17	1.961527E-18
5.970000E+03	2.820483E-17	1.971002E-18
5.980000E+03	2.849674E-17	1.980333E-18
5.990000E+03	2.880006E-17	1.989525E-18
6.000000E+03	2.911452E-17	1.998571E-18
6.010000E+03	2.943952E-17	2.007458E-18
6.020000E+03	2.977509E-17	2.016230E-18
6.030000E+03	3.012026E-17	2.024883E-18
6.040000E+03	3.047540E-17	2.033519E-18
6.050000E+03	3.083911E-17	2.042145E-18
6.060000E+03	3.121174E-17	2.050906E-18
6.070000E+03	3.159220E-17	2.059872E-18
6.080000E+03	3.198044E-17	2.069205E-18
6.090000E+03	3.237530E-17	2.079015E-18
6.100000E+03	3.277630E-17	2.089478E-18
6.110000E+03	3.318255E-17	2.100761E-18
6.120000E+03	3.359352E-17	2.113067E-18
6.130000E+03	3.400781E-17	2.126556E-18
6.140000E+03	3.442437E-17	2.141414E-18
6.150000E+03	3.484249E-17	2.157846E-18
6.160000E+03	3.526099E-17	2.176021E-18
6.170000E+03	3.567778E-17	2.196029E-18
6.180000E+03	3.609192E-17	2.218010E-18
6.190000E+03	3.650205E-17	2.242041E-18
6.200000E+03	3.690732E-17	2.268168E-18
6.210000E+03	3.730763E-17	2.296396E-18
6.220000E+03	3.770292E-17	2.326683E-18
6.230000E+03	3.809360E-17	2.358976E-18
6.240000E+03	3.848117E-17	2.393249E-18
6.250000E+03	3.886568E-17	2.429358E-18
6.260000E+03	3.924672E-17	2.467103E-18
6.270000E+03	3.962595E-17	2.506395E-18
6.280000E+03	4.000354E-17	2.547045E-18
6.290000E+03	4.037865E-17	2.588787E-18
6.300000E+03	4.075310E-17	2.631529E-18
6.310000E+03	4.112555E-17	2.674979E-18
6.320000E+03	4.149738E-17	2.719027E-18
6.330000E+03	4.186781E-17	2.763436E-18
6.340000E+03	4.223720E-17	2.808052E-18
6.350000E+03	4.260535E-17	2.852702E-18
6.360000E+03	4.297208E-17	2.897227E-18
6.370000E+03	4.333722E-17	2.941485E-18
6.380000E+03	4.369998E-17	2.985306E-18
6.390000E+03	4.405957E-17	3.028536E-18
6.400000E+03	4.441642E-17	3.071118E-18
6.410000E+03	4.476909E-17	3.112880E-18
6.420000E+03	4.511804E-17	3.153794E-18
6.430000E+03	4.546245E-17	3.193756E-18
6.440000E+03	4.580213E-17	3.232717E-18
6.450000E+03	4.613760E-17	3.270688E-18
6.460000E+03	4.647011E-17	3.307742E-18
6.470000E+03	4.679960E-17	3.343868E-18
6.480000E+03	4.712673E-17	3.379112E-18
6.490000E+03	4.745221E-17	3.413533E-18
6.500000E+03	4.777534E-17	3.447090E-18
6.510000E+03	4.809759E-17	3.479906E-18
6.520000E+03	4.841905E-17	3.512002E-18
6.530000E+03	4.873901E-17	3.543352E-18
6.540000E+03	4.905907E-17	3.574090E-18
6.550000E+03	4.937855E-17	3.604192E-18
6.560000E+03	4.969675E-17	3.633629E-18
6.570000E+03	5.001530E-17	3.662544E-18
6.580000E+03	5.033349E-17	3.690909E-18
6.590000E+03	5.065140E-17	3.718752E-18
6.600000E+03	5.096989E-17	3.746160E-18
6.610000E+03	5.128738E-17	3.773037E-18
6.620000E+03	5.160386E-17	3.799405E-18
6.630000E+03	5.192104E-17	3.825408E-18
6.640000E+03	5.223722E-17	3.850941E-18
6.650000E+03	5.255237E-17	3.876018E-18
6.660000E+03	5.286731E-17	3.900718E-18
6.670000E+03	5.318110E-17	3.924987E-18
6.680000E+03	5.349365E-17	3.948833E-18
6.690000E+03	5.380577E-17	3.972327E-18
6.700000E+03	5.411550E-17	3.995339E-18
6.710000E+03	5.442266E-17	4.017865E-18
6.720000E+03	5.472896E-17	4.040040E-18
6.730000E+03	5.503232E-17	4.061717E-18
6.740000E+03	5.533252E-17	4.082885E-18
6.750000E+03	5.563029E-17	4.103600E-18
6.760000E+03	5.592442E-17	4.123775E-18
6.770000E+03	5.621462E-17	4.143386E-18
6.780000E+03	5.650063E-17	4.162410E-18
6.790000E+03	5.678214E-17	4.180819E-18
6.800000E+03	5.705783E-17	4.198507E-18
6.810000E+03	5.732840E-17	4.215517E-18
6.820000E+03	5.759355E-17	4.231814E-18
6.830000E+03	5.785190E-17	4.247284E-18
6.840000E+03	5.810418E-17	4.261968E-18
6.850000E+03	5.834902E-17	4.275750E-18
6.860000E+03	5.858607E-17	4.288593E-18
6.870000E+03	5.881503E-17	4.300459E-18
6.880000E+03	5.903447E-17	4.311233E-18
6.890000E+03	5.924629E-17	4.321042E-18
6.900000E+03	5.944911E-17	4.329777E-18
6.910000E+03	5.964153E-17	4.337329E-18
6.920000E+03	5.982441E-17	4.343755E-18
6.930000E+03	5.999637E-17	4.348954E-18
6.940000E+03	6.015718E-17	4.352907E-18
6.950000E+03	6.030779E-17	4.355685E-18
6.960000E+03	6.044688E-17	4.357195E-18
6.970000E+03	6.057428E-17	4.357430E-18
6.980000E+03	6.068989E-17	4.356385E-18
6.990000E+03	6.079361E-17	4.354060E-18
7.000000E+03	6.088420E-17	4.350371E-18
7.010000E+03	6.096403E-17	4.345487E-18
7.020000E+03	6.103074E-17	4.339245E-18
7.030000E+03	6.108438E-17	4.331646E-18
7.040000E+03	6.112627E-17	4.322780E-18
7.050000E+03	6.115536E-17	4.312565E-18
7.060000E+03	6.117184E-17	4.301004E-18
7.070000E+03	6.117596E-17	4.288097E-18
7.080000E+03	6.116801E-17	4.273844E-18
7.090000E+03	6.114958E-17	4.258328E-18
7.100000E+03	6.111860E-17	4.241373E-18
7.110000E+03	6.107552E-17	4.222973E-18
7.120000E+03	6.102205E-17	4.203203E-18
7.130000E+03	6.095874E-17	4.182052E-18
7.140000E+03	6.088493E-17	4.159420E-18
7.150000E+03	6.080248E-17	4.135376E-18
7.160000E+03	6.070955E-17	4.109734E-18
7.170000E+03	6.060933E-17	4.082645E-18
7.180000E+03	6.050127E-17	4.054006E-18
7.190000E+03	6.038612E-17	4.023800E-18
7.200000E+03	6.026338E-17	3.991927E-18
7.210000E+03	6.013630E-17	3.958541E-18
7.220000E+03	6.000316E-17	3.923466E-18
7.230000E+03	5.986596E-17	3.886780E-18
7.240000E+03	5.972423E-17	3.848404E-18
7.250000E+03	5.957996E-17	3.808427E-18
7.260000E+03	5.943263E-17	3.766791E-18
7.270000E+03	5.928295E-17	3.723526E-18
7.280000E+03	5.913287E-17	3.678757E-18
7.290000E+03	5.898181E-17	3.632466E-18
7.300000E+03	5.883166E-17	3.584812E-18
7.310000E+03	5.868053E-17	3.535742E-18
7.320000E+03	5.853026E-17	3.485463E-18
7.330000E+03	5.838268E-17	3.434204E-18
7.340000E+03	5.823579E-17	3.382005E-18
7.350000E+03	5.809136E-17	3.329166E-18
7.360000E+03	5.794861E-17	3.275880E-18
7.370000E+03	5.780923E-17	3.222529E-18
7.380000E+03	5.767236E-17	3.169398E-18
7.390000E+03	5.753833E-17	3.116896E-18
7.400000E+03	5.740742E-17	3.065480E-18
7.410000E+03	5.727859E-17	3.015592E-18
7.420000E+03	5.715195E-17	2.967789E-18
7.430000E+03	5.702751E-17	2.922666E-18
7.440000E+03	5.690514E-17	2.880851E-18
7.450000E+03	5.678586E-17	2.843047E-18
7.460000E+03	5.666798E-17	2.809825E-18
7.470000E+03	5.655346E-17	2.781916E-18
7.480000E+03	5.644154E-17	2.759866E-18
7.490000E+03	5.633134E-17	2.744136E-18
7.500000E+03	5.622183E-17	2.735066E-18
7.510000E+03	5.611193E-17	2.732854E-18
7.520000E+03	5.600413E-17	2.737578E-18
7.530000E+03	5.589721E-17	2.748797E-18
7.540000E+03	5.579381E-17	2.766109E-18
7.550000E+03	5.569514E-17	2.788944E-18
7.560000E+03	5.560353E-17	2.816721E-18
7.570000E+03	5.551725E-17	2.848624E-18
7.580000E+03	5.543823E-17	2.884019E-18
7.590000E+03	5.536696E-17	2.922221E-18
7.600000E+03	5.530503E-17	2.962649E-18
7.610000E+03	5.524999E-17	3.004562E-18
7.620000E+03	5.520447E-17	3.047560E-18
7.630000E+03	5.516708E-17	3.091094E-18
7.640000E+03	5.513634E-17	3.134681E-18
7.650000E+03	5.511461E-17	3.178125E-18
7.660000E+03	5.510027E-17	3.221074E-18
7.670000E+03	5.509298E-17	3.263306E-18
7.680000E+03	5.509232E-17	3.304655E-18
7.690000E+03	5.509786E-17	3.345000E-18
7.700000E+03	5.510917E-17	3.384261E-18
7.710000E+03	5.512711E-17	3.422475E-18
7.720000E+03	5.514851E-17	3.459455E-18
7.730000E+03	5.517556E-17	3.495373E-18
7.740000E+03	5.520642E-17	3.530161E-18
7.750000E+03	5.524057E-17	3.563846E-18
7.760000E+03	5.527749E-17	3.596465E-18
