#wls	flux	fluxerr
1.600000E+03	1.790393E-16	1.740172E-16
1.640000E+03	1.853542E-16	1.771549E-16
1.680000E+03	1.916201E-16	1.799734E-16
1.720000E+03	1.978193E-16	1.824521E-16
1.760000E+03	2.038715E-16	1.845151E-16
1.800000E+03	2.097449E-16	1.861355E-16
1.840000E+03	2.153636E-16	1.872509E-16
1.880000E+03	2.206816E-16	1.878306E-16
1.920000E+03	2.256277E-16	1.878271E-16
1.960000E+03	2.301254E-16	1.871948E-16
2.000000E+03	2.340596E-16	1.858648E-16
2.040000E+03	2.373492E-16	1.838045E-16
2.080000E+03	2.398967E-16	1.809772E-16
2.120000E+03	2.415628E-16	1.773252E-16
2.160000E+03	2.422228E-16	1.728145E-16
2.200000E+03	2.417286E-16	1.674072E-16
2.240000E+03	2.399498E-16	1.610921E-16
2.280000E+03	2.368445E-16	1.539293E-16
2.320000E+03	2.324241E-16	1.460179E-16
2.360000E+03	2.268362E-16	1.375411E-16
2.400000E+03	2.202121E-16	1.286613E-16
2.440000E+03	2.126703E-16	1.195231E-16
2.480000E+03	2.043459E-16	1.102708E-16
2.520000E+03	1.953434E-16	1.010210E-16
2.560000E+03	1.857551E-16	9.187479E-17
2.600000E+03	1.757015E-16	8.293785E-17
2.640000E+03	1.652725E-16	7.429053E-17
2.680000E+03	1.545806E-16	6.601348E-17
2.720000E+03	1.437241E-16	5.817003E-17
2.760000E+03	1.328247E-16	5.082196E-17
2.800000E+03	1.219904E-16	4.401324E-17
2.840000E+03	1.113403E-16	3.777999E-17
2.880000E+03	1.009917E-16	3.214539E-17
2.920000E+03	9.105672E-17	2.711903E-17
2.960000E+03	8.163690E-17	2.269655E-17
2.996600E+03	2.584600E-16	7.544847E-16
2.998200E+03	2.577748E-16	7.544831E-16
3.024602E+03	2.570897E-16	7.544816E-16
3.040804E+03	2.563865E-16	7.544800E-16
3.041404E+03	2.557374E-16	7.544786E-16
3.042004E+03	2.550523E-16	7.544771E-16
3.042204E+03	2.544032E-16	7.544756E-16
3.043804E+03	2.536640E-16	7.544740E-16
3.044204E+03	2.529428E-16	7.544724E-16
3.044404E+03	2.522216E-16	7.544708E-16
3.045004E+03	2.514824E-16	7.544692E-16
3.046004E+03	2.507431E-16	7.544676E-16
3.047204E+03	2.500940E-16	7.544662E-16
3.051604E+03	2.493909E-16	7.544647E-16
3.052205E+03	2.486516E-16	7.544631E-16
3.053205E+03	2.479304E-16	7.544615E-16
3.055005E+03	2.471552E-16	7.544599E-16
3.055205E+03	2.464340E-16	7.544583E-16
3.055805E+03	2.456767E-16	7.544567E-16
3.056005E+03	2.449014E-16	7.544551E-16
3.057606E+03	2.441622E-16	7.544535E-16
3.057806E+03	2.434049E-16	7.544519E-16
3.058805E+03	2.426657E-16	7.544503E-16
3.059605E+03	2.418904E-16	7.544487E-16
3.061005E+03	2.410610E-16	7.544470E-16
3.061405E+03	2.403038E-16	7.544454E-16
3.061605E+03	2.394924E-16	7.544437E-16
3.061805E+03	2.386811E-16	7.544420E-16
3.062005E+03	2.378517E-16	7.544403E-16
3.062405E+03	2.370764E-16	7.544387E-16
3.063406E+03	2.362650E-16	7.544370E-16
3.065006E+03	2.354537E-16	7.544354E-16
3.066006E+03	2.346063E-16	7.544336E-16
3.066206E+03	2.337769E-16	7.544319E-16
3.067406E+03	2.329295E-16	7.544302E-16
3.067806E+03	2.321001E-16	7.544285E-16
3.068006E+03	2.312527E-16	7.544268E-16
3.068206E+03	2.304053E-16	7.544251E-16
3.069007E+03	2.295759E-16	7.544235E-16
3.069807E+03	2.287465E-16	7.544218E-16
3.070207E+03	2.278991E-16	7.544202E-16
3.071806E+03	2.270697E-16	7.544185E-16
3.072006E+03	2.262223E-16	7.544169E-16
3.072606E+03	2.253930E-16	7.544152E-16
3.072806E+03	2.245095E-16	7.544135E-16
3.073006E+03	2.236440E-16	7.544118E-16
3.073206E+03	2.227606E-16	7.544101E-16
3.073406E+03	2.218771E-16	7.544084E-16
3.074006E+03	2.210297E-16	7.544068E-16
3.074206E+03	2.201282E-16	7.544050E-16
3.074406E+03	2.192267E-16	7.544033E-16
3.074606E+03	2.183793E-16	7.544017E-16
3.074807E+03	2.175138E-16	7.544001E-16
3.075007E+03	2.166484E-16	7.543984E-16
3.075207E+03	2.157469E-16	7.543968E-16
3.075407E+03	2.148454E-16	7.543951E-16
3.076007E+03	2.139439E-16	7.543934E-16
3.076207E+03	2.130785E-16	7.543918E-16
3.076607E+03	2.122130E-16	7.543902E-16
3.076807E+03	2.112755E-16	7.543885E-16
3.077007E+03	2.104100E-16	7.543869E-16
3.077407E+03	2.094725E-16	7.543852E-16
3.077607E+03	2.085710E-16	7.543835E-16
3.078007E+03	2.077236E-16	7.543820E-16
3.078807E+03	2.068401E-16	7.543804E-16
3.079407E+03	2.058845E-16	7.543787E-16
3.080207E+03	2.049289E-16	7.543770E-16
3.080408E+03	2.039914E-16	7.543753E-16
3.080608E+03	2.030358E-16	7.543736E-16
3.080808E+03	2.020982E-16	7.543720E-16
3.081008E+03	2.011426E-16	7.543703E-16
3.081408E+03	2.002051E-16	7.543687E-16
3.081808E+03	1.992314E-16	7.543670E-16
3.082408E+03	1.982578E-16	7.543653E-16
3.082608E+03	1.973203E-16	7.543637E-16
3.083008E+03	1.963286E-16	7.543620E-16
3.083407E+03	1.953550E-16	7.543604E-16
3.083807E+03	1.944535E-16	7.543588E-16
3.084407E+03	1.935159E-16	7.543573E-16
3.085407E+03	1.926144E-16	7.543557E-16
3.085607E+03	1.916408E-16	7.543541E-16
3.085807E+03	1.906311E-16	7.543524E-16
3.086007E+03	1.896755E-16	7.543509E-16
3.086208E+03	1.887199E-16	7.543493E-16
3.087008E+03	1.877103E-16	7.543476E-16
3.087208E+03	1.867366E-16	7.543461E-16
3.088008E+03	1.857630E-16	7.543445E-16
3.088208E+03	1.847353E-16	7.543428E-16
3.088608E+03	1.837978E-16	7.543413E-16
3.088808E+03	1.828241E-16	7.543398E-16
3.089808E+03	1.818866E-16	7.543383E-16
3.090408E+03	1.808408E-16	7.543367E-16
3.091008E+03	1.798005E-16	7.543350E-16
3.091208E+03	1.787728E-16	7.543334E-16
3.091408E+03	1.777631E-16	7.543319E-16
3.091809E+03	1.767751E-16	7.543303E-16
3.092209E+03	1.757546E-16	7.543288E-16
3.092409E+03	1.747197E-16	7.543272E-16
3.092609E+03	1.736613E-16	7.543256E-16
3.093009E+03	1.726444E-16	7.543241E-16
3.093209E+03	1.715842E-16	7.543225E-16
3.093409E+03	1.705710E-16	7.543210E-16
3.093609E+03	1.695360E-16	7.543195E-16
3.093809E+03	1.684993E-16	7.543179E-16
3.094608E+03	1.674572E-16	7.543164E-16
3.095008E+03	1.664349E-16	7.543149E-16
3.095209E+03	1.653765E-16	7.543134E-16
3.095409E+03	1.643686E-16	7.543120E-16
3.095608E+03	1.633427E-16	7.543105E-16
3.095809E+03	1.623421E-16	7.543091E-16
3.096608E+03	1.612783E-16	7.543076E-16
3.096808E+03	1.602794E-16	7.543062E-16
3.097409E+03	1.592373E-16	7.542507E-16
3.097809E+03	1.582601E-16	1.578502E-16
3.098209E+03	1.572684E-16	1.549649E-16
3.098409E+03	1.562335E-16	1.418800E-16
3.098809E+03	1.551625E-16	1.415922E-16
3.099009E+03	1.541006E-16	1.374669E-16
3.099409E+03	1.530476E-16	1.354948E-16
3.099609E+03	1.520055E-16	1.354674E-16
3.100209E+03	1.509201E-16	1.145539E-16
3.100809E+03	1.498329E-16	1.123270E-16
3.101009E+03	1.487547E-16	8.694697E-17
3.101809E+03	1.477053E-16	8.210006E-17
3.102409E+03	1.466307E-16	8.139530E-17
3.103610E+03	1.455616E-16	8.071021E-17
3.103810E+03	1.445194E-16	7.555142E-17
3.104010E+03	1.434611E-16	6.354898E-17
3.104210E+03	1.424261E-16	6.292921E-17
3.104410E+03	1.413750E-16	6.297219E-17
3.104610E+03	1.403184E-16	6.248327E-17
3.105210E+03	1.392673E-16	6.242353E-17
3.105410E+03	1.382919E-16	6.236853E-17
3.105810E+03	1.372623E-16	6.226492E-17
3.106010E+03	1.361769E-16	6.212865E-17
3.106210E+03	1.351799E-16	6.140637E-17
3.106809E+03	1.341558E-16	6.116097E-17
3.107410E+03	1.331353E-16	6.146585E-17
3.107809E+03	1.320463E-16	6.183757E-17
3.108009E+03	1.309627E-16	6.196636E-17
3.108209E+03	1.299259E-16	6.151145E-17
3.108409E+03	1.289181E-16	6.159707E-17
3.108609E+03	1.279462E-16	6.163711E-17
3.108810E+03	1.268789E-16	6.163866E-17
3.109010E+03	1.258584E-16	6.161251E-17
3.110210E+03	1.248126E-16	6.171774E-17
3.111010E+03	1.238300E-16	6.174747E-17
3.111210E+03	1.227897E-16	6.198656E-17
3.111610E+03	1.217439E-16	6.212258E-17
3.111810E+03	1.207090E-16	6.207374E-17
3.113610E+03	1.196362E-16	6.240210E-17
3.113810E+03	1.185634E-16	6.251874E-17
3.115811E+03	1.174943E-16	6.254472E-17
3.116411E+03	1.164269E-16	6.278120E-17
3.116611E+03	1.153613E-16	6.322300E-17
3.116811E+03	1.142975E-16	6.363843E-17
3.117411E+03	1.132356E-16	6.365454E-17
3.117611E+03	1.121772E-16	6.389212E-17
3.117811E+03	1.111207E-16	6.392643E-17
3.118211E+03	1.100659E-16	6.373238E-17
3.118411E+03	1.090130E-16	6.358303E-17
3.118611E+03	1.079636E-16	6.347665E-17
3.119010E+03	1.069143E-16	6.301672E-17
3.119211E+03	1.058685E-16	6.358574E-17
3.120010E+03	1.048246E-16	6.303660E-17
3.120611E+03	1.037824E-16	6.303066E-17
3.120811E+03	1.027439E-16	6.272106E-17
3.121211E+03	1.017072E-16	6.289768E-17
3.121411E+03	1.006705E-16	6.296363E-17
3.122411E+03	9.963735E-17	6.262743E-17
3.122611E+03	9.860604E-17	6.279558E-17
3.122811E+03	9.757833E-17	6.272424E-17
3.123011E+03	9.655963E-17	6.166216E-17
3.123211E+03	9.560044E-17	6.141984E-17
3.123411E+03	9.459076E-17	6.172089E-17
3.123611E+03	9.357206E-17	6.168387E-17
3.125011E+03	9.255697E-17	6.170963E-17
3.125211E+03	9.156893E-17	6.094648E-17
3.125411E+03	9.059531E-17	6.048771E-17
3.125611E+03	8.958563E-17	6.039552E-17
3.127012E+03	8.862283E-17	6.046319E-17
3.127612E+03	8.763659E-17	5.995066E-17
3.127812E+03	8.664133E-17	5.914623E-17
3.128412E+03	8.565690E-17	5.956838E-17
3.129012E+03	8.467426E-17	5.961649E-17
3.130212E+03	8.379259E-17	5.947936E-17
3.130812E+03	8.290732E-17	5.947123E-17
3.131211E+03	8.201664E-17	5.951690E-17
3.131812E+03	8.112055E-17	5.964505E-17
3.133212E+03	8.021905E-17	5.895783E-17
3.133412E+03	7.931214E-17	5.891932E-17
3.133812E+03	7.840523E-17	5.879128E-17
3.134012E+03	7.749472E-17	5.885687E-17
3.134412E+03	7.658420E-17	5.891540E-17
3.134612E+03	7.567189E-17	5.846477E-17
3.135012E+03	7.475957E-17	5.855034E-17
3.135212E+03	7.384364E-17	5.853017E-17
3.135812E+03	7.292952E-17	5.833970E-17
3.137413E+03	7.201540E-17	5.837711E-17
3.137613E+03	7.110308E-17	5.838593E-17
3.138013E+03	7.019257E-17	5.805034E-17
3.138413E+03	6.928206E-17	5.819033E-17
3.138613E+03	6.836974E-17	5.843634E-17
3.138813E+03	6.745742E-17	5.818526E-17
3.139413E+03	6.654691E-17	5.824482E-17
3.139613E+03	6.564000E-17	5.826321E-17
3.139813E+03	6.472588E-17	5.801590E-17
3.140613E+03	6.381356E-17	5.776505E-17
3.140813E+03	6.290304E-17	5.781238E-17
3.141013E+03	6.199073E-17	5.725452E-17
3.141413E+03	6.108021E-17	5.710081E-17
3.142013E+03	6.017150E-17	5.673881E-17
3.142213E+03	5.926639E-17	5.684216E-17
3.142814E+03	5.836129E-17	5.660065E-17
3.143414E+03	5.745979E-17	5.646883E-17
3.143613E+03	5.660336E-17	5.639128E-17
3.144014E+03	5.582627E-17	5.562063E-17
3.144213E+03	5.498788E-17	5.504726E-17
3.145413E+03	5.412244E-17	5.470017E-17
3.145613E+03	5.324618E-17	5.472689E-17
3.146413E+03	5.242221E-17	5.467853E-17
3.147013E+03	5.159643E-17	5.467159E-17
3.147613E+03	5.080852E-17	5.468294E-17
3.148213E+03	5.002963E-17	5.433481E-17
3.148413E+03	4.923090E-17	5.430306E-17
3.149614E+03	4.838529E-17	5.397259E-17
3.149814E+03	4.754329E-17	5.316024E-17
3.151014E+03	4.676259E-17	5.287515E-17
3.152814E+03	4.594583E-17	5.301255E-17
3.154014E+03	4.518497E-17	5.303345E-17
3.154215E+03	4.441689E-17	5.303459E-17
3.154415E+03	4.363619E-17	5.235214E-17
3.155215E+03	4.284828E-17	5.246662E-17
3.156015E+03	4.206578E-17	5.207025E-17
3.156215E+03	4.135359E-17	5.174805E-17
3.157014E+03	4.067386E-17	5.199283E-17
3.157214E+03	3.988054E-17	5.125282E-17
3.157414E+03	3.911788E-17	5.091246E-17
3.158214E+03	3.834439E-17	5.082042E-17
3.158414E+03	3.758352E-17	5.047295E-17
3.158614E+03	3.680823E-17	5.075359E-17
3.158814E+03	3.610867E-17	5.066749E-17
3.160215E+03	3.539829E-17	5.063361E-17
3.161815E+03	3.465906E-17	5.055285E-17
3.162015E+03	3.399375E-17	5.048508E-17
3.162615E+03	3.332484E-17	5.039214E-17
3.163615E+03	3.265593E-17	4.976090E-17
3.164015E+03	3.192571E-17	4.910060E-17
3.164215E+03	3.123696E-17	4.847470E-17
3.164815E+03	3.053740E-17	4.786497E-17
3.165215E+03	2.983964E-17	4.725526E-17
3.165416E+03	2.923744E-17	4.727080E-17
3.165816E+03	2.864425E-17	4.698929E-17
3.166016E+03	2.797354E-17	4.624289E-17
3.166216E+03	2.730823E-17	4.616104E-17
3.166416E+03	2.667177E-17	4.592988E-17
3.166816E+03	2.599925E-17	4.526815E-17
3.167416E+03	2.536099E-17	4.526038E-17
3.167615E+03	2.471732E-17	4.463663E-17
3.168015E+03	2.406644E-17	4.444336E-17
3.168215E+03	2.343899E-17	4.440694E-17
3.168415E+03	2.290530E-17	4.388271E-17
3.168615E+03	2.230671E-17	4.316011E-17
3.168815E+03	2.170451E-17	4.267890E-17
3.169415E+03	2.113656E-17	4.266443E-17
3.170015E+03	2.054878E-17	4.234546E-17
3.170215E+03	1.994117E-17	4.177603E-17
3.170415E+03	1.938405E-17	4.177611E-17
3.170815E+03	1.880709E-17	4.125908E-17
3.171616E+03	1.825176E-17	4.106284E-17
3.171816E+03	1.770924E-17	4.087389E-17
3.172016E+03	1.716311E-17	4.088318E-17
3.172616E+03	1.663591E-17	4.077363E-17
3.172816E+03	1.615596E-17	4.050746E-17
3.173216E+03	1.562678E-17	3.998349E-17
3.173816E+03	1.511040E-17	3.962717E-17
3.174216E+03	1.458374E-17	3.909423E-17
3.175616E+03	1.408052E-17	3.910203E-17
3.175816E+03	1.363176E-17	3.897303E-17
3.176216E+03	1.320499E-17	3.846922E-17
3.176416E+03	1.272557E-17	3.792385E-17
3.176616E+03	1.227049E-17	3.791566E-17
3.177017E+03	1.181686E-17	3.754162E-17
3.177417E+03	1.134195E-17	3.684671E-17
3.177817E+03	1.088777E-17	3.627083E-17
3.178017E+03	1.045253E-17	3.614381E-17
3.178217E+03	1.000484E-17	3.594470E-17
3.179017E+03	9.613773E-18	3.546272E-17
3.179416E+03	9.173841E-18	3.522942E-17
3.179617E+03	8.784393E-18	3.497460E-17
3.179816E+03	8.443627E-18	3.497224E-17
3.180017E+03	8.077798E-18	3.498610E-17
3.180216E+03	7.672844E-18	3.499091E-17
3.180416E+03	7.274562E-18	3.502821E-17
3.180816E+03	6.893227E-18	3.467076E-17
3.181016E+03	6.537496E-18	3.426829E-17
3.181216E+03	6.187353E-18	3.422640E-17
3.182016E+03	5.840636E-18	3.379873E-17
3.182216E+03	5.484904E-18	3.369377E-17
3.182417E+03	5.210849E-18	3.330587E-17
3.182617E+03	4.909026E-18	3.331278E-17
3.182817E+03	4.644526E-18	3.283117E-17
3.183017E+03	4.321609E-18	3.283809E-17
3.183217E+03	4.051340E-18	3.244303E-17
3.183417E+03	3.786299E-18	3.203355E-17
3.183617E+03	3.528830E-18	3.196305E-17
3.183817E+03	3.238367E-18	3.203857E-17
3.184217E+03	2.972064E-18	3.182926E-17
3.184417E+03	2.722709E-18	3.145049E-17
3.184617E+03	2.539344E-18	3.136205E-17
3.184817E+03	2.392580E-18	3.139803E-17
3.185217E+03	2.145930E-18	3.099765E-17
3.185417E+03	1.949042E-18	3.096151E-17
3.186217E+03	1.729888E-18	3.094520E-17
3.186417E+03	1.552527E-18	3.087662E-17
3.187017E+03	1.355423E-18	3.094327E-17
3.187217E+03	1.155542E-18	3.095223E-17
3.187417E+03	1.027367E-18	3.066372E-17
3.187617E+03	9.327096E-19	3.040227E-17
3.187817E+03	8.087895E-19	3.044372E-17
3.188218E+03	6.534430E-19	3.010833E-17
3.188418E+03	4.986195E-19	2.987032E-17
3.188618E+03	3.897904E-19	2.992981E-17
3.189418E+03	3.002896E-19	2.961428E-17
3.190018E+03	2.172614E-19	2.970803E-17
3.190218E+03	1.305967E-19	2.973687E-17
3.190618E+03	1.004361E-19	2.977293E-17
3.190818E+03	8.685589E-20	2.981800E-17
3.191418E+03	2.289088E-20	2.987390E-17
3.191617E+03	3.783053E-20	2.994421E-17
3.192418E+03	5.572530E-20	3.002535E-17
3.192617E+03	-4.353522E-21	3.004699E-17
3.192817E+03	-2.132227E-20	3.027416E-17
3.193017E+03	-5.410441E-20	3.054281E-17
3.193217E+03	-9.153648E-20	3.065640E-17
3.193417E+03	-1.122061E-19	3.065820E-17
3.194418E+03	-1.277173E-19	3.070688E-17
3.194618E+03	-1.379295E-19	3.068705E-17
3.195418E+03	-1.102444E-19	3.058789E-17
3.195618E+03	-6.015167E-20	3.050495E-17
3.196018E+03	-1.472239E-20	3.043824E-17
3.196218E+03	5.648076E-20	3.055002E-17
3.196818E+03	1.402048E-19	3.041841E-17
3.197218E+03	2.020441E-19	3.029941E-17
3.197618E+03	2.823136E-19	3.030122E-17
3.197818E+03	4.191793E-19	3.034810E-17
3.198418E+03	5.092031E-19	3.035533E-17
3.198818E+03	6.055554E-19	3.045450E-17
3.199018E+03	7.155383E-19	3.029045E-17
3.199819E+03	8.311467E-19	3.026703E-17
3.200019E+03	9.679042E-19	3.033376E-17
3.200219E+03	1.137621E-18	3.030856E-17
3.200619E+03	1.293129E-18	3.032843E-17
3.201819E+03	1.445771E-18	3.032307E-17
3.202019E+03	1.649600E-18	3.033936E-17
3.202219E+03	1.819587E-18	3.044040E-17
3.202419E+03	2.009443E-18	3.032869E-17
3.202619E+03	2.216968E-18	3.006375E-17
3.202819E+03	2.435131E-18	2.999354E-17
3.203419E+03	2.657080E-18	3.009643E-17
3.203619E+03	2.939791E-18	3.004612E-17
3.203818E+03	3.233679E-18	3.007337E-17
3.204019E+03	3.516750E-18	3.011865E-17
3.204218E+03	3.824703E-18	3.016757E-17
3.205019E+03	4.083433E-18	3.016238E-17
3.205219E+03	4.398417E-18	3.023479E-17
3.205619E+03	4.695912E-18	3.029999E-17
3.206219E+03	4.983130E-18	3.028586E-17
3.206419E+03	5.300097E-18	3.031506E-17
3.207219E+03	5.642126E-18	3.031006E-17
3.207419E+03	5.963601E-18	3.015362E-17
3.207819E+03	6.312662E-18	3.015048E-17
3.208019E+03	6.659378E-18	3.012933E-17
3.208619E+03	7.025387E-18	3.008842E-17
3.208819E+03	7.412671E-18	2.979880E-17
3.209219E+03	7.806807E-18	2.957774E-17
3.209619E+03	8.212662E-18	2.962713E-17
3.209819E+03	8.628254E-18	2.950173E-17
3.210219E+03	9.067825E-18	2.948998E-17
3.211020E+03	9.510281E-18	2.949269E-17
3.211220E+03	9.931281E-18	2.949901E-17
3.211620E+03	1.040367E-17	2.939915E-17
3.211820E+03	1.086650E-17	2.939303E-17
3.212420E+03	1.134033E-17	2.897612E-17
3.212620E+03	1.182750E-17	2.893415E-17
3.213020E+03	1.230583E-17	2.894086E-17
3.213220E+03	1.278543E-17	2.872420E-17
3.213620E+03	1.331245E-17	2.870234E-17
3.213820E+03	1.386470E-17	2.863199E-17
3.214820E+03	1.437441E-17	2.861922E-17
3.215220E+03	1.490756E-17	2.839043E-17
3.215420E+03	1.549624E-17	2.780351E-17
3.216019E+03	1.603858E-17	2.781453E-17
3.216220E+03	1.665034E-17	2.780427E-17
3.216820E+03	1.722856E-17	2.767873E-17
3.217020E+03	1.780570E-17	2.766132E-17
3.217220E+03	1.841043E-17	2.767111E-17
3.217420E+03	1.907393E-17	2.766865E-17
3.217820E+03	1.971400E-17	2.767699E-17
3.218020E+03	2.033964E-17	2.772855E-17
3.218420E+03	2.101035E-17	2.771023E-17
3.218620E+03	2.165222E-17	2.772067E-17
3.219020E+03	2.229769E-17	2.771682E-17
3.219220E+03	2.301348E-17	2.727454E-17
3.219620E+03	2.372747E-17	2.730192E-17
3.219820E+03	2.441261E-17	2.729149E-17
3.220020E+03	2.510136E-17	2.731716E-17
3.220220E+03	2.581535E-17	2.731792E-17
3.220620E+03	2.653655E-17	2.732604E-17
3.221020E+03	2.725053E-17	2.731088E-17
3.221420E+03	2.798616E-17	2.732114E-17
3.221821E+03	2.874161E-17	2.728316E-17
3.222021E+03	2.948806E-17	2.728299E-17
3.222621E+03	3.028498E-17	2.723663E-17
3.222821E+03	3.106748E-17	2.719034E-17
3.223621E+03	3.184998E-17	2.714243E-17
3.223821E+03	3.265052E-17	2.697819E-17
3.224221E+03	3.346547E-17	2.642509E-17
3.225221E+03	3.433632E-17	2.647006E-17
3.225421E+03	3.520717E-17	2.642378E-17
3.225621E+03	3.605097E-17	2.639360E-17
3.225821E+03	3.691100E-17	2.639959E-17
3.226421E+03	3.776743E-17	2.624994E-17
3.226621E+03	3.865270E-17	2.623331E-17
3.227622E+03	3.955420E-17	2.621527E-17
3.228222E+03	4.043947E-17	2.622412E-17
3.228421E+03	4.132114E-17	2.580399E-17
3.228822E+03	4.223706E-17	2.576902E-17
3.229421E+03	4.313676E-17	2.578414E-17
3.229621E+03	4.405809E-17	2.577291E-17
3.229821E+03	4.500827E-17	2.577117E-17
3.230221E+03	4.592961E-17	2.581928E-17
3.231021E+03	4.688339E-17	2.542931E-17
3.231221E+03	4.784800E-17	2.492798E-17
3.231421E+03	4.882162E-17	2.437084E-17
3.232821E+03	4.980606E-17	2.348638E-17
3.233022E+03	5.079951E-17	2.349321E-17
3.233422E+03	5.180198E-17	2.349158E-17
3.233622E+03	5.281526E-17	2.351522E-17
3.233822E+03	5.383756E-17	2.326999E-17
3.234022E+03	5.486707E-17	2.261532E-17
3.234222E+03	5.590560E-17	2.253482E-17
3.234422E+03	5.714787E-17	2.257287E-17
3.234822E+03	3.458694E-17	2.203806E-17
3.236222E+03	3.398113E-17	2.177967E-17
3.237022E+03	3.232237E-17	2.180251E-17
3.237822E+03	3.230434E-17	2.176295E-17
3.238222E+03	3.149119E-17	2.175515E-17
3.238422E+03	3.099717E-17	2.149083E-17
3.239223E+03	3.115222E-17	2.147618E-17
3.239423E+03	2.907337E-17	2.145708E-17
3.240823E+03	2.851984E-17	2.139665E-17
3.241422E+03	2.640132E-17	2.092859E-17
3.241622E+03	2.557915E-17	2.075685E-17
3.242222E+03	2.600827E-17	2.067963E-17
3.242422E+03	2.645902E-17	1.995543E-17
3.242822E+03	2.563865E-17	1.977807E-17
3.243022E+03	2.439278E-17	1.974442E-17
3.243222E+03	2.414396E-17	1.971371E-17
3.244823E+03	2.415298E-17	1.957564E-17
3.245023E+03	2.388614E-17	1.882188E-17
3.245223E+03	2.407545E-17	1.792508E-17
3.245823E+03	2.391318E-17	1.786128E-17
3.246023E+03	2.408266E-17	1.797497E-17
3.246223E+03	2.392220E-17	1.799113E-17
3.246423E+03	2.423592E-17	1.785642E-17
3.246623E+03	2.439999E-17	1.790466E-17
3.247023E+03	2.420887E-17	1.785224E-17
3.247223E+03	2.411151E-17	1.766231E-17
3.247423E+03	2.410430E-17	1.769020E-17
3.247623E+03	2.433148E-17	1.770048E-17
3.247823E+03	2.437114E-17	1.762648E-17
3.248423E+03	2.439098E-17	1.760606E-17
3.248823E+03	2.446490E-17	1.777174E-17
3.249023E+03	2.449916E-17	1.777420E-17
3.249223E+03	2.456406E-17	1.777640E-17
3.249423E+03	2.462717E-17	1.777966E-17
