#wls	flux	fluxerr
1.600000E+03	1.257977E-16	1.218289E-16
1.640000E+03	1.300526E-16	1.238567E-16
1.680000E+03	1.341950E-16	1.255958E-16
1.720000E+03	1.381654E-16	1.269926E-16
1.760000E+03	1.419526E-16	1.280417E-16
1.800000E+03	1.454891E-16	1.286889E-16
1.840000E+03	1.487304E-16	1.289056E-16
1.880000E+03	1.516544E-16	1.286859E-16
1.920000E+03	1.541857E-16	1.279821E-16
1.960000E+03	1.562861E-16	1.267830E-16
2.000000E+03	1.578930E-16	1.250624E-16
2.040000E+03	1.589696E-16	1.228194E-16
2.080000E+03	1.594376E-16	1.200266E-16
2.120000E+03	1.592400E-16	1.166789E-16
2.160000E+03	1.583211E-16	1.127789E-16
2.200000E+03	1.565944E-16	1.083134E-16
2.240000E+03	1.539930E-16	1.032912E-16
2.280000E+03	1.505154E-16	9.777056E-17
2.320000E+03	1.462147E-16	9.184566E-17
2.360000E+03	1.412364E-16	8.566343E-17
2.400000E+03	1.357014E-16	7.934464E-17
2.440000E+03	1.297162E-16	7.299214E-17
2.480000E+03	1.233917E-16	6.670198E-17
2.520000E+03	1.167983E-16	6.053940E-17
2.560000E+03	1.100161E-16	5.456816E-17
2.600000E+03	1.031142E-16	4.883909E-17
2.640000E+03	9.616458E-17	4.339765E-17
2.680000E+03	8.922676E-17	3.827683E-17
2.720000E+03	8.236089E-17	3.350367E-17
2.760000E+03	7.562346E-17	2.909750E-17
2.800000E+03	6.906701E-17	2.507028E-17
2.840000E+03	6.274142E-17	2.142739E-17
2.880000E+03	5.669485E-17	1.816839E-17
2.920000E+03	5.096987E-17	1.528618E-17
2.960000E+03	4.560302E-17	1.276766E-17
2.989568E+03	2.907370E-16	8.286958E-16
2.989768E+03	2.912502E-16	8.286959E-16
2.991769E+03	2.917634E-16	8.286959E-16
2.991969E+03	2.922300E-16	8.286959E-16
2.993369E+03	2.926344E-16	8.286959E-16
2.993569E+03	2.930854E-16	8.286959E-16
2.994969E+03	2.934431E-16	8.286959E-16
2.995769E+03	2.938164E-16	8.286959E-16
2.996569E+03	2.941896E-16	8.286959E-16
2.996769E+03	2.945473E-16	8.286959E-16
2.997170E+03	2.948584E-16	8.286959E-16
2.997370E+03	2.952005E-16	8.286959E-16
2.998769E+03	2.955116E-16	8.286959E-16
3.012770E+03	2.958071E-16	8.286959E-16
3.013170E+03	2.960715E-16	8.286960E-16
3.013970E+03	2.963203E-16	8.286960E-16
3.014770E+03	2.965536E-16	8.286960E-16
3.015771E+03	2.967869E-16	8.286960E-16
3.016371E+03	2.970357E-16	8.286960E-16
3.016971E+03	2.972690E-16	8.286960E-16
3.017771E+03	2.975179E-16	8.286960E-16
3.019171E+03	2.977201E-16	8.286960E-16
3.019371E+03	2.979067E-16	8.286960E-16
3.019571E+03	2.980622E-16	8.286960E-16
3.020371E+03	2.982022E-16	8.286960E-16
3.021372E+03	2.983266E-16	8.286960E-16
3.022171E+03	2.984510E-16	8.286960E-16
3.022972E+03	2.985288E-16	8.286960E-16
3.023371E+03	2.986221E-16	8.286960E-16
3.023571E+03	2.986843E-16	8.286960E-16
3.023771E+03	2.987310E-16	8.286960E-16
3.024971E+03	2.987776E-16	8.286960E-16
3.025171E+03	2.988087E-16	8.286960E-16
3.025771E+03	2.988398E-16	8.286960E-16
3.025971E+03	2.988398E-16	8.286960E-16
3.027772E+03	2.988243E-16	8.286960E-16
3.027972E+03	2.987932E-16	8.286960E-16
3.028972E+03	2.987621E-16	8.286960E-16
3.031972E+03	2.987154E-16	8.286960E-16
3.032172E+03	2.986532E-16	8.286960E-16
3.032372E+03	2.985910E-16	8.286960E-16
3.033773E+03	2.984977E-16	8.286960E-16
3.033973E+03	2.984044E-16	8.286960E-16
3.034372E+03	2.982955E-16	8.286960E-16
3.034573E+03	2.981866E-16	8.286960E-16
3.034773E+03	2.980467E-16	8.286960E-16
3.035372E+03	2.979067E-16	8.286960E-16
3.036172E+03	2.977823E-16	8.286960E-16
3.036772E+03	2.975957E-16	8.286960E-16
3.036972E+03	2.973935E-16	8.286960E-16
3.037372E+03	2.971757E-16	8.286960E-16
3.038172E+03	2.969580E-16	8.286960E-16
3.038372E+03	2.967714E-16	8.286960E-16
3.038572E+03	2.965225E-16	8.286960E-16
3.038772E+03	2.963048E-16	8.286960E-16
3.038972E+03	2.960560E-16	8.286960E-16
3.040373E+03	2.957916E-16	8.286960E-16
3.040973E+03	2.955116E-16	8.286960E-16
3.041173E+03	2.952161E-16	8.286960E-16
3.042573E+03	2.948895E-16	8.286960E-16
3.042773E+03	2.945785E-16	8.286960E-16
3.043173E+03	2.942208E-16	8.286960E-16
3.044173E+03	2.939097E-16	8.286961E-16
3.044373E+03	2.935520E-16	8.286961E-16
3.044773E+03	2.931477E-16	8.286961E-16
3.045173E+03	2.927278E-16	8.286961E-16
3.045373E+03	2.923078E-16	8.286960E-16
3.045574E+03	2.918568E-16	8.286960E-16
3.046174E+03	2.914369E-16	8.286960E-16
3.047573E+03	2.909859E-16	8.286961E-16
3.048573E+03	2.905660E-16	8.286961E-16
3.048973E+03	2.900994E-16	8.286961E-16
3.049173E+03	2.895862E-16	8.286961E-16
3.050373E+03	2.890885E-16	8.286961E-16
3.050573E+03	2.885908E-16	8.286961E-16
3.052574E+03	2.880465E-16	8.286961E-16
3.052774E+03	2.874866E-16	8.286961E-16
3.052974E+03	2.868956E-16	8.286961E-16
3.055574E+03	2.863513E-16	8.286961E-16
3.058575E+03	2.857914E-16	8.286961E-16
3.059974E+03	2.851693E-16	8.286961E-16
3.061174E+03	2.845783E-16	8.286961E-16
3.061374E+03	2.839407E-16	8.286961E-16
3.061774E+03	2.832875E-16	8.286961E-16
3.062174E+03	2.826498E-16	8.286961E-16
3.065175E+03	2.819811E-16	8.286961E-16
3.066775E+03	2.813123E-16	8.286961E-16
3.069375E+03	2.806436E-16	8.286961E-16
3.071376E+03	2.799748E-16	8.286961E-16
3.071575E+03	2.792749E-16	8.286961E-16
3.072975E+03	2.785129E-16	8.286961E-16
3.073575E+03	2.777664E-16	8.286961E-16
3.075175E+03	2.770043E-16	8.286961E-16
3.075775E+03	2.762422E-16	8.286961E-16
3.076576E+03	2.754491E-16	8.286961E-16
3.077776E+03	2.746559E-16	8.286961E-16
3.079976E+03	2.738472E-16	8.286961E-16
3.081576E+03	2.730384E-16	8.286961E-16
3.081776E+03	2.721986E-16	8.286961E-16
3.081977E+03	2.713588E-16	8.286961E-16
3.082177E+03	2.705034E-16	8.286961E-16
3.084176E+03	2.696480E-16	8.286961E-16
3.084776E+03	2.687771E-16	8.286961E-16
3.085776E+03	2.678906E-16	8.286961E-16
3.086376E+03	2.669730E-16	8.286961E-16
3.087176E+03	2.660710E-16	8.286961E-16
3.088577E+03	2.651223E-16	8.286961E-16
3.089577E+03	2.642202E-16	8.283851E-16
3.089777E+03	2.632715E-16	8.280585E-16
3.092977E+03	2.623073E-16	8.281207E-16
3.094178E+03	2.613275E-16	8.282140E-16
3.094778E+03	2.603166E-16	8.281984E-16
3.096377E+03	2.593368E-16	8.281984E-16
3.096577E+03	2.583103E-16	8.280740E-16
3.097177E+03	2.572683E-16	8.279185E-16
3.098577E+03	2.562418E-16	8.279963E-16
3.098777E+03	2.551843E-16	8.279185E-16
3.098977E+03	2.541423E-16	8.276074E-16
3.099177E+03	2.530536E-16	8.276696E-16
3.099977E+03	2.519805E-16	8.275763E-16
3.100178E+03	2.508918E-16	8.191469E-16
3.100378E+03	2.497876E-16	8.173273E-16
3.100778E+03	2.486678E-16	8.170318E-16
3.102178E+03	2.475325E-16	6.814302E-16
3.102578E+03	2.463816E-16	6.775110E-16
3.102778E+03	2.452774E-16	6.119887E-16
3.103378E+03	2.441109E-16	6.118331E-16
3.103578E+03	2.429756E-16	6.118487E-16
3.104978E+03	2.418092E-16	6.041036E-16
3.105578E+03	2.406272E-16	6.040258E-16
3.106179E+03	2.394297E-16	6.040569E-16
3.107178E+03	2.382166E-16	6.032793E-16
3.107579E+03	2.370035E-16	5.998267E-16
3.108978E+03	2.357748E-16	5.927814E-16
3.109178E+03	2.345462E-16	5.807127E-16
3.109978E+03	2.332865E-16	5.652692E-16
3.110178E+03	2.320267E-16	5.475705E-16
3.110578E+03	2.307514E-16	5.272591E-16
3.110778E+03	2.294761E-16	4.923283E-16
3.111178E+03	2.281853E-16	4.515033E-16
3.111378E+03	2.268789E-16	3.957634E-16
3.111978E+03	2.255413E-16	3.256377E-16
3.112379E+03	2.242349E-16	3.246423E-16
3.113379E+03	2.228819E-16	2.718264E-16
3.114179E+03	2.215444E-16	2.085439E-16
3.114779E+03	2.201758E-16	2.012654E-16
3.115379E+03	2.188538E-16	1.776881E-16
3.115579E+03	2.174696E-16	1.760395E-16
3.115979E+03	2.161010E-16	1.758529E-16
3.116779E+03	2.147013E-16	1.733023E-16
3.118180E+03	2.133171E-16	1.734578E-16
3.118380E+03	2.119174E-16	1.650284E-16
3.119380E+03	2.104866E-16	1.624467E-16
3.119780E+03	2.090713E-16	1.554528E-16
3.119979E+03	2.076250E-16	1.344666E-16
3.120179E+03	2.061786E-16	1.269751E-16
3.120379E+03	2.047167E-16	1.154820E-16
3.120979E+03	2.032858E-16	1.157323E-16
3.121179E+03	2.018239E-16	1.129298E-16
3.121379E+03	2.003775E-16	1.134290E-16
3.121579E+03	1.988845E-16	1.070993E-16
3.121779E+03	1.974070E-16	1.015705E-16
3.121979E+03	1.959140E-16	9.711631E-17
3.122579E+03	1.943898E-16	9.143044E-17
3.122779E+03	1.929124E-16	8.946774E-17
3.122979E+03	1.913882E-16	9.026863E-17
3.123379E+03	1.898641E-16	8.989379E-17
3.123779E+03	1.883555E-16	9.050650E-17
3.123979E+03	1.868469E-16	9.094037E-17
3.124380E+03	1.852917E-16	9.132758E-17
3.124980E+03	1.837364E-16	9.132910E-17
3.125780E+03	1.821967E-16	8.965255E-17
3.125980E+03	1.806259E-16	8.968829E-17
3.126180E+03	1.790551E-16	9.012837E-17
3.126780E+03	1.774843E-16	9.127142E-17
3.127180E+03	1.759291E-16	8.953888E-17
3.127380E+03	1.743272E-16	9.020136E-17
3.127780E+03	1.727409E-16	9.067100E-17
3.127980E+03	1.711390E-16	9.119974E-17
3.129180E+03	1.695060E-16	9.175336E-17
3.129380E+03	1.678885E-16	9.232720E-17
3.129580E+03	1.662866E-16	9.292748E-17
3.130181E+03	1.646847E-16	9.354176E-17
3.130381E+03	1.630828E-16	9.418248E-17
3.130581E+03	1.614498E-16	9.484497E-17
3.130981E+03	1.598168E-16	9.556811E-17
3.131180E+03	1.581527E-16	9.626326E-17
3.132180E+03	1.564886E-16	9.630833E-17
3.132380E+03	1.548571E-16	9.633319E-17
3.132580E+03	1.532412E-16	9.678417E-17
3.132780E+03	1.515802E-16	9.700809E-17
3.133380E+03	1.499021E-16	9.721491E-17
3.133580E+03	1.482147E-16	9.722110E-17
3.133780E+03	1.465257E-16	9.725373E-17
3.133980E+03	1.448351E-16	9.727858E-17
3.134380E+03	1.431601E-16	9.733766E-17
3.134580E+03	1.414665E-16	9.744805E-17
3.134780E+03	1.397666E-16	9.791459E-17
3.135180E+03	1.380683E-16	9.821161E-17
3.135580E+03	1.363715E-16	9.839976E-17
3.135780E+03	1.346623E-16	9.892229E-17
3.136381E+03	1.329546E-16	9.897048E-17
3.136581E+03	1.312579E-16	9.915708E-17
3.137181E+03	1.295642E-16	9.918505E-17
3.137581E+03	1.278550E-16	9.972624E-17
3.137781E+03	1.261971E-16	9.988174E-17
3.137981E+03	1.245097E-16	9.990660E-17
3.138781E+03	1.227958E-16	9.994235E-17
3.138981E+03	1.210881E-16	9.987234E-17
3.139581E+03	1.194007E-16	9.985987E-17
3.140981E+03	1.177055E-16	9.990029E-17
3.141181E+03	1.159994E-16	9.991115E-17
3.141581E+03	1.142855E-16	9.963119E-17
3.141781E+03	1.125809E-16	9.936833E-17
3.141981E+03	1.108453E-16	9.915835E-17
3.142582E+03	1.091392E-16	9.879130E-17
3.142782E+03	1.074331E-16	9.887059E-17
3.143182E+03	1.056881E-16	9.910852E-17
3.143381E+03	1.039525E-16	9.888144E-17
3.144581E+03	1.022075E-16	9.861392E-17
3.144781E+03	1.004734E-16	9.864656E-17
3.144981E+03	9.875639E-17	9.878962E-17
3.145181E+03	9.704563E-17	9.939459E-17
3.145381E+03	9.533952E-17	9.936502E-17
3.145581E+03	9.359299E-17	9.922036E-17
3.145981E+03	9.187755E-17	9.962782E-17
3.146181E+03	9.018856E-17	9.979576E-17
3.146381E+03	8.845602E-17	1.001255E-16
3.146581E+03	8.673125E-17	1.000290E-16
3.146781E+03	8.499716E-17	9.985014E-17
3.147181E+03	8.326151E-17	9.953441E-17
3.147381E+03	8.155229E-17	9.920002E-17
3.147981E+03	7.983686E-17	9.920778E-17
3.148182E+03	7.815720E-17	9.903047E-17
3.148382E+03	7.644176E-17	9.914243E-17
3.148782E+03	7.474188E-17	9.887336E-17
3.148982E+03	7.306378E-17	9.851564E-17
3.149382E+03	7.134679E-17	9.847053E-17
3.149582E+03	6.963602E-17	9.849851E-17
3.149982E+03	6.791903E-17	9.835386E-17
3.150982E+03	6.623937E-17	9.841450E-17
3.151182E+03	6.455193E-17	9.839427E-17
3.151382E+03	6.286760E-17	9.844091E-17
3.151582E+03	6.117394E-17	9.881105E-17
3.151982E+03	5.953005E-17	9.877060E-17
3.152182E+03	5.788149E-17	9.879703E-17
3.152582E+03	5.618628E-17	9.860417E-17
3.152782E+03	5.451439E-17	9.853417E-17
3.152982E+03	5.286583E-17	9.834909E-17
3.153382E+03	5.122350E-17	9.844861E-17
3.153582E+03	4.955316E-17	9.840817E-17
3.154183E+03	4.789216E-17	9.805356E-17
3.154383E+03	4.629026E-17	9.744856E-17
3.154783E+03	4.468681E-17	9.691822E-17
3.155182E+03	4.305225E-17	9.654495E-17
3.155383E+03	4.140991E-17	9.625878E-17
3.155582E+03	3.981268E-17	9.624633E-17
3.155782E+03	3.819989E-17	9.576420E-17
3.156182E+03	3.659332E-17	9.531317E-17
3.157182E+03	3.501319E-17	9.493991E-17
3.157382E+03	3.342996E-17	9.449666E-17
3.157782E+03	3.187005E-17	9.417783E-17
3.158182E+03	3.028059E-17	9.363037E-17
3.158382E+03	2.868646E-17	9.320112E-17
3.158782E+03	2.713122E-17	9.270655E-17
3.158982E+03	2.555887E-17	9.213733E-17
3.159182E+03	2.402073E-17	9.150745E-17
3.159382E+03	2.251215E-17	9.088068E-17
3.159582E+03	2.097712E-17	9.047009E-17
3.159782E+03	1.945143E-17	9.012482E-17
3.159982E+03	1.796306E-17	8.980133E-17
3.160183E+03	1.643892E-17	8.930365E-17
3.160383E+03	1.492971E-17	8.888995E-17
3.160983E+03	1.348832E-17	8.829429E-17
3.161583E+03	1.202919E-17	8.785260E-17
3.161783E+03	1.059230E-17	8.708897E-17
3.162183E+03	9.138144E-18	8.632068E-17
3.162383E+03	7.677459E-18	8.562082E-17
3.162783E+03	6.259544E-18	8.498628E-17
3.162983E+03	4.816744E-18	8.433930E-17
3.163183E+03	3.407072E-18	8.356634E-17
3.163383E+03	1.979203E-18	8.292558E-17
3.163783E+03	5.705100E-19	8.260676E-17
3.163983E+03	-8.255543E-19	8.178870E-17
3.164383E+03	-2.171275E-18	8.129569E-17
3.164583E+03	-3.529625E-18	8.050718E-17
3.164783E+03	-4.890463E-18	7.983998E-17
3.164983E+03	-6.210087E-18	7.905458E-17
3.165183E+03	-7.551174E-18	7.819298E-17
3.165383E+03	-8.833472E-18	7.736404E-17
3.165583E+03	-1.012759E-17	7.656931E-17
3.166184E+03	-1.142264E-17	7.576214E-17
3.166384E+03	-1.267430E-17	7.503584E-17
3.166584E+03	-1.393591E-17	7.430177E-17
3.166784E+03	-1.517218E-17	7.361125E-17
3.167184E+03	-1.634872E-17	7.295494E-17
3.167383E+03	-1.752137E-17	7.227219E-17
3.167584E+03	-1.868158E-17	7.166254E-17
3.167784E+03	-1.983246E-17	7.096268E-17
3.168383E+03	-2.096935E-17	7.021772E-17
3.168983E+03	-2.209690E-17	6.946343E-17
3.169183E+03	-2.321356E-17	6.870604E-17
3.169583E+03	-2.431623E-17	6.792842E-17
3.169783E+03	-2.541423E-17	6.714925E-17
3.169983E+03	-2.649824E-17	6.634986E-17
3.170183E+03	-2.756669E-17	6.556291E-17
3.170383E+03	-2.862737E-17	6.472309E-17
3.170583E+03	-2.966938E-17	6.388793E-17
3.170783E+03	-3.069273E-17	6.307299E-17
3.170983E+03	-3.169431E-17	6.223627E-17
3.171383E+03	-3.267722E-17	6.136379E-17
3.171583E+03	-3.363992E-17	6.052396E-17
3.171783E+03	-3.458239E-17	5.968103E-17
3.171983E+03	-3.550310E-17	5.876033E-17
3.172184E+03	-3.640514E-17	5.808070E-17
3.172384E+03	-3.728541E-17	5.754881E-17
3.172584E+03	-3.814546E-17	5.679919E-17
3.173184E+03	-3.898373E-17	5.615222E-17
3.173384E+03	-3.977846E-17	5.554880E-17
3.173584E+03	-4.053898E-17	5.488005E-17
3.173784E+03	-4.132438E-17	5.431861E-17
3.173984E+03	-4.211910E-17	5.366231E-17
3.174184E+03	-4.287340E-17	5.315220E-17
3.174384E+03	-4.362614E-17	5.259543E-17
3.174584E+03	-4.428711E-17	5.206666E-17
3.174784E+03	-4.498542E-17	5.163120E-17
3.174984E+03	-4.565417E-17	5.146324E-17
3.175184E+03	-4.631671E-17	5.112109E-17
3.175384E+03	-4.692636E-17	5.111177E-17
3.175584E+03	-4.748159E-17	5.104801E-17
3.175784E+03	-4.804458E-17	5.099514E-17
3.175984E+03	-4.859203E-17	5.096093E-17
3.176184E+03	-4.910059E-17	5.113823E-17
3.176384E+03	-4.962316E-17	5.131553E-17
3.176584E+03	-5.010062E-17	5.161881E-17
3.176784E+03	-5.052986E-17	5.167169E-17
3.176984E+03	-5.097155E-17	5.200918E-17
3.177384E+03	-5.138836E-17	5.213672E-17
3.177584E+03	-5.171962E-17	5.226736E-17
3.177784E+03	-5.209599E-17	5.233891E-17
3.177984E+03	-5.241482E-17	5.232180E-17
3.178185E+03	-5.273209E-17	5.231092E-17
3.178385E+03	-5.295760E-17	5.232492E-17
3.178585E+03	-5.322666E-17	5.219117E-17
3.178785E+03	-5.341640E-17	5.222539E-17
3.179185E+03	-5.359680E-17	5.244313E-17
3.179385E+03	-5.378810E-17	5.252245E-17
3.179785E+03	-5.395140E-17	5.267642E-17
3.180184E+03	-5.408982E-17	5.311033E-17
3.180385E+03	-5.417691E-17	5.338249E-17
3.180584E+03	-5.422668E-17	5.365311E-17
3.180784E+03	-5.425778E-17	5.396571E-17
3.180984E+03	-5.427489E-17	5.416167E-17
3.181184E+03	-5.421579E-17	5.431408E-17
3.181584E+03	-5.417380E-17	5.471378E-17
3.181784E+03	-5.410070E-17	5.501394E-17
3.181984E+03	-5.396229E-17	5.524877E-17
3.182184E+03	-5.379121E-17	5.544007E-17
3.182384E+03	-5.361858E-17	5.569512E-17
3.182584E+03	-5.340551E-17	5.577133E-17
3.182784E+03	-5.316756E-17	5.594707E-17
3.182984E+03	-5.287517E-17	5.605904E-17
3.183184E+03	-5.256723E-17	5.610258E-17
3.183384E+03	-5.222041E-17	5.618034E-17
3.183584E+03	-5.184405E-17	5.627676E-17
3.183784E+03	-5.145834E-17	5.639807E-17
3.183984E+03	-5.103221E-17	5.652715E-17
3.184185E+03	-5.052986E-17	5.664534E-17
3.184385E+03	-4.998242E-17	5.666555E-17
3.184585E+03	-4.944897E-17	5.660489E-17
3.184785E+03	-4.888753E-17	5.661888E-17
3.185185E+03	-4.828098E-17	5.675574E-17
3.185385E+03	-4.762156E-17	5.688015E-17
3.185585E+03	-4.691548E-17	5.696724E-17
3.185785E+03	-4.620318E-17	5.697967E-17
3.185985E+03	-4.544888E-17	5.701233E-17
3.186385E+03	-4.467437E-17	5.697344E-17
3.186585E+03	-4.386409E-17	5.700609E-17
3.186785E+03	-4.299938E-17	5.705896E-17
3.186985E+03	-4.210044E-17	5.709628E-17
3.187185E+03	-4.114241E-17	5.716159E-17
3.187385E+03	-4.015950E-17	5.716003E-17
3.187585E+03	-3.910349E-17	5.720357E-17
3.187785E+03	-3.807392E-17	5.726266E-17
3.187985E+03	-3.695725E-17	5.724243E-17
3.188385E+03	-3.581882E-17	5.726731E-17
3.188585E+03	-3.464616E-17	5.735595E-17
3.188785E+03	-3.340819E-17	5.734505E-17
3.189185E+03	-3.215622E-17	5.741348E-17
3.189385E+03	-3.085759E-17	5.749123E-17
3.189585E+03	-2.952163E-17	5.752699E-17
3.189785E+03	-2.814835E-17	5.756276E-17
3.190386E+03	-2.673619E-17	5.755964E-17
3.190586E+03	-2.528515E-17	5.756119E-17
3.190786E+03	-2.379678E-17	5.759695E-17
3.191186E+03	-2.226642E-17	5.758917E-17
3.191385E+03	-2.069718E-17	5.754872E-17
3.191586E+03	-1.908595E-17	5.751917E-17
3.191785E+03	-1.743428E-17	5.744451E-17
3.191985E+03	-1.573907E-17	5.734497E-17
3.192385E+03	-1.401368E-17	5.736363E-17
3.192585E+03	-1.224366E-17	5.737140E-17
3.192785E+03	-1.041329E-17	5.732629E-17
3.192985E+03	-8.548241E-18	5.731851E-17
3.193185E+03	-6.643068E-18	5.732318E-17
3.193585E+03	-4.675996E-18	5.737450E-17
3.193785E+03	-2.657911E-18	5.738694E-17
3.193985E+03	-6.017393E-19	5.742271E-17
3.194185E+03	1.489643E-18	5.744448E-17
3.194385E+03	3.629006E-18	5.743515E-17
3.194585E+03	5.817078E-18	5.725941E-17
3.194785E+03	8.053829E-18	5.716765E-17
3.194985E+03	1.033957E-17	5.716299E-17
3.195185E+03	1.267461E-17	5.694060E-17
3.195385E+03	1.505911E-17	5.694683E-17
3.195585E+03	1.749338E-17	5.689551E-17
3.195785E+03	1.997711E-17	5.681776E-17
3.196186E+03	2.251215E-17	5.660470E-17
3.196386E+03	2.509697E-17	5.657361E-17
3.196586E+03	2.773155E-17	5.654252E-17
3.196786E+03	3.042057E-17	5.651143E-17
3.197186E+03	3.315935E-17	5.648034E-17
3.197386E+03	3.595101E-17	5.644770E-17
3.198186E+03	3.879400E-17	5.641506E-17
3.198786E+03	4.168986E-17	5.639176E-17
3.198986E+03	4.463705E-17	5.636690E-17
3.199186E+03	4.763867E-17	5.634982E-17
3.199586E+03	5.069317E-17	5.633119E-17
3.199786E+03	5.380210E-17	5.633433E-17
3.199986E+03	5.696391E-17	5.630015E-17
3.200186E+03	6.018482E-17	5.608557E-17
3.200386E+03	6.227196E-17	5.605605E-17
3.200786E+03	6.460794E-17	5.597676E-17
3.200986E+03	6.751469E-17	5.587571E-17
3.201186E+03	7.041055E-17	5.562691E-17
3.201786E+03	7.355214E-17	5.523504E-17
3.201987E+03	7.678549E-17	5.509046E-17
3.202387E+03	7.942474E-17	5.491009E-17
3.202587E+03	8.157253E-17	5.437824E-17
3.203187E+03	8.506250E-17	5.402060E-17
3.203387E+03	8.766909E-17	5.372516E-17
3.203787E+03	9.096154E-17	5.360702E-17
3.204387E+03	8.992730E-17	5.341416E-17
3.204786E+03	9.084645E-17	5.329131E-17
3.205386E+03	9.433487E-17	5.307987E-17
3.205586E+03	8.250102E-17	5.285570E-17
3.205786E+03	8.248235E-17	5.252132E-17
3.206186E+03	7.544488E-17	5.216350E-17
3.207186E+03	7.706544E-17	5.206866E-17
3.207786E+03	7.900483E-17	5.198004E-17
3.208587E+03	7.795193E-17	5.166432E-17
3.208787E+03	8.035478E-17	5.135176E-17
3.208987E+03	8.229417E-17	5.093033E-17
3.209387E+03	8.335951E-17	5.016518E-17
3.209787E+03	8.332685E-17	4.983236E-17
3.209987E+03	8.238749E-17	4.947464E-17
3.210387E+03	8.050253E-17	4.862235E-17
3.210987E+03	7.807635E-17	4.828016E-17
3.211987E+03	7.535623E-17	4.780576E-17
3.212587E+03	7.228929E-17	4.757398E-17
3.212787E+03	6.772309E-17	4.713844E-17
3.213187E+03	6.275098E-17	4.678377E-17
3.213387E+03	5.693126E-17	4.591120E-17
3.213787E+03	5.068695E-17	4.508684E-17
3.214388E+03	5.064807E-17	4.462494E-17
3.214988E+03	4.572417E-17	4.444603E-17
3.215988E+03	4.078471E-17	4.404161E-17
3.216188E+03	3.949386E-17	4.346927E-17
3.216588E+03	3.688261E-17	4.322352E-17
3.216787E+03	3.640204E-17	4.231836E-17
3.217587E+03	3.711434E-17	4.175382E-17
3.218187E+03	3.648136E-17	4.110373E-17
3.218387E+03	3.680640E-17	4.061227E-17
3.218587E+03	3.538802E-17	4.025922E-17
