#wls	flux	fluxerr
1.600000E+03	1.579200E-16	1.565735E-16
1.640000E+03	1.631472E-16	1.591306E-16
1.680000E+03	1.681816E-16	1.612693E-16
1.720000E+03	1.729644E-16	1.629375E-16
1.760000E+03	1.774493E-16	1.640992E-16
1.800000E+03	1.815681E-16	1.647024E-16
1.840000E+03	1.852661E-16	1.647131E-16
1.880000E+03	1.884851E-16	1.640990E-16
1.920000E+03	1.911482E-16	1.628176E-16
1.960000E+03	1.931944E-16	1.608469E-16
2.000000E+03	1.945639E-16	1.581721E-16
2.040000E+03	1.951989E-16	1.547865E-16
2.080000E+03	1.950317E-16	1.506823E-16
2.120000E+03	1.940178E-16	1.458767E-16
2.160000E+03	1.920956E-16	1.403805E-16
2.200000E+03	1.892211E-16	1.342239E-16
2.240000E+03	1.853239E-16	1.274254E-16
2.280000E+03	1.803686E-16	1.200349E-16
2.320000E+03	1.744664E-16	1.122021E-16
2.360000E+03	1.677673E-16	1.040927E-16
2.400000E+03	1.603931E-16	9.584315E-17
2.440000E+03	1.524446E-16	8.756793E-17
2.480000E+03	1.440169E-16	7.936936E-17
2.520000E+03	1.352145E-16	7.134635E-17
2.560000E+03	1.261317E-16	6.358236E-17
2.600000E+03	1.168776E-16	5.615850E-17
2.640000E+03	1.075511E-16	4.914006E-17
2.680000E+03	9.824619E-17	4.257931E-17
2.720000E+03	8.906646E-17	3.652211E-17
2.760000E+03	8.010395E-17	3.099816E-17
2.800000E+03	7.144696E-17	2.602522E-17
2.840000E+03	6.317607E-17	2.160816E-17
2.880000E+03	5.536647E-17	1.774075E-17
2.920000E+03	4.809141E-17	1.440766E-17
2.960000E+03	4.141717E-17	1.158383E-17
3.000000E+03	3.538601E-17	9.231615E-18
3.010000E+03	3.398088E-17	8.711793E-18
3.020000E+03	3.261831E-17	8.218017E-18
3.030000E+03	3.129639E-17	7.748991E-18
3.040000E+03	3.001556E-17	7.304030E-18
3.050000E+03	2.877673E-17	6.882554E-18
3.060000E+03	2.757806E-17	6.483337E-18
3.070000E+03	2.642027E-17	6.105780E-18
3.080000E+03	2.530271E-17	5.748972E-18
3.090000E+03	2.422474E-17	5.412019E-18
3.100000E+03	2.318566E-17	5.094049E-18
3.110000E+03	2.218572E-17	4.794402E-18
3.120000E+03	2.122361E-17	4.512110E-18
3.130000E+03	2.029895E-17	4.246425E-18
3.140000E+03	1.941085E-17	3.996521E-18
3.150000E+03	1.855845E-17	3.761596E-18
3.160000E+03	1.774118E-17	3.540944E-18
3.170000E+03	1.695841E-17	3.333865E-18
3.180000E+03	1.620852E-17	3.139494E-18
3.190000E+03	1.549144E-17	2.957302E-18
3.200000E+03	1.480586E-17	2.786536E-18
3.210000E+03	1.415101E-17	2.626587E-18
3.220000E+03	1.352586E-17	2.476813E-18
3.230000E+03	1.292914E-17	2.336566E-18
3.240000E+03	1.236049E-17	2.205386E-18
3.250000E+03	1.181825E-17	2.082603E-18
3.260000E+03	1.130200E-17	1.967798E-18
3.270000E+03	1.081070E-17	1.860462E-18
3.280000E+03	1.034302E-17	1.760059E-18
3.290000E+03	9.898453E-18	1.666226E-18
3.300000E+03	9.475727E-18	1.578481E-18
3.310000E+03	9.074054E-18	1.496450E-18
3.320000E+03	8.692511E-18	1.419755E-18
3.330000E+03	8.330328E-18	1.348062E-18
3.340000E+03	7.986503E-18	1.281015E-18
3.350000E+03	7.660199E-18	1.218303E-18
3.360000E+03	7.350610E-18	1.159635E-18
3.370000E+03	7.057050E-18	1.104754E-18
3.380000E+03	6.778663E-18	1.053389E-18
3.390000E+03	6.514726E-18	1.005302E-18
3.400000E+03	6.264546E-18	9.602732E-19
3.410000E+03	6.027379E-18	9.180840E-19
3.420000E+03	5.802602E-18	8.785449E-19
3.430000E+03	5.589612E-18	8.414794E-19
3.440000E+03	5.387771E-18	8.067132E-19
3.450000E+03	5.196539E-18	7.740951E-19
3.460000E+03	5.015339E-18	7.434755E-19
3.470000E+03	4.843632E-18	7.147169E-19
3.480000E+03	4.680908E-18	6.876921E-19
3.490000E+03	4.526638E-18	6.622769E-19
3.500000E+03	4.380427E-18	6.383712E-19
3.510000E+03	4.241804E-18	6.158688E-19
3.520000E+03	4.110288E-18	5.946657E-19
3.530000E+03	3.985394E-18	5.746614E-19
3.540000E+03	3.866797E-18	5.557821E-19
3.550000E+03	3.754076E-18	5.379429E-19
3.560000E+03	3.646769E-18	5.210558E-19
3.570000E+03	3.544566E-18	5.050573E-19
3.580000E+03	3.447142E-18	4.898836E-19
3.590000E+03	3.354164E-18	4.754722E-19
3.600000E+03	3.265297E-18	4.617616E-19
3.610000E+03	3.180351E-18	4.487129E-19
3.620000E+03	3.099089E-18	4.362814E-19
3.630000E+03	3.021287E-18	4.244259E-19
3.640000E+03	2.946870E-18	4.131268E-19
3.650000E+03	2.875678E-18	4.023537E-19
3.660000E+03	2.807583E-18	3.920816E-19
3.670000E+03	2.742484E-18	3.822894E-19
3.680000E+03	2.680277E-18	3.729571E-19
3.690000E+03	2.620839E-18	3.640618E-19
3.700000E+03	2.564112E-18	3.555909E-19
3.710000E+03	2.509953E-18	3.475197E-19
3.720000E+03	2.458284E-18	3.398336E-19
3.730000E+03	2.409050E-18	3.325210E-19
3.740000E+03	2.362093E-18	3.255569E-19
3.750000E+03	2.317398E-18	3.189362E-19
3.760000E+03	2.274816E-18	3.126352E-19
3.770000E+03	2.234314E-18	3.066470E-19
3.780000E+03	2.195804E-18	3.009570E-19
3.790000E+03	2.159201E-18	2.955513E-19
3.800000E+03	2.124440E-18	2.904189E-19
3.810000E+03	2.091442E-18	2.855470E-19
3.820000E+03	2.060145E-18	2.809257E-19
3.830000E+03	2.030492E-18	2.765453E-19
3.840000E+03	2.002409E-18	2.723943E-19
3.850000E+03	1.975844E-18	2.684642E-19
3.860000E+03	1.950744E-18	2.647464E-19
3.870000E+03	1.927045E-18	2.612310E-19
3.880000E+03	1.904699E-18	2.579103E-19
3.890000E+03	1.883661E-18	2.547772E-19
3.900000E+03	1.863872E-18	2.518226E-19
3.910000E+03	1.845292E-18	2.490401E-19
3.920000E+03	1.827867E-18	2.464215E-19
3.930000E+03	1.811572E-18	2.439627E-19
3.940000E+03	1.796359E-18	2.416562E-19
3.950000E+03	1.782192E-18	2.394965E-19
3.960000E+03	1.769012E-18	2.374748E-19
3.970000E+03	1.756815E-18	2.355899E-19
3.980000E+03	1.745545E-18	2.338335E-19
3.990000E+03	1.735172E-18	2.322012E-19
4.000000E+03	1.725657E-18	2.306869E-19
4.010000E+03	1.716988E-18	2.292883E-19
4.020000E+03	1.709114E-18	2.279982E-19
4.030000E+03	1.702025E-18	2.268145E-19
4.040000E+03	1.695673E-18	2.257305E-19
4.050000E+03	1.690050E-18	2.247444E-19
4.060000E+03	1.685111E-18	2.238497E-19
4.070000E+03	1.680836E-18	2.230435E-19
4.080000E+03	1.677209E-18	2.223229E-19
4.090000E+03	1.674211E-18	2.216852E-19
4.100000E+03	1.671802E-18	2.211246E-19
4.110000E+03	1.669967E-18	2.206385E-19
4.120000E+03	1.668678E-18	2.202232E-19
4.130000E+03	1.667921E-18	2.198763E-19
4.140000E+03	1.667685E-18	2.195960E-19
4.150000E+03	1.667932E-18	2.193770E-19
4.160000E+03	1.668663E-18	2.192192E-19
4.170000E+03	1.669843E-18	2.191176E-19
4.180000E+03	1.671460E-18	2.190707E-19
4.190000E+03	1.673507E-18	2.190770E-19
4.200000E+03	1.675949E-18	2.191319E-19
4.210000E+03	1.678777E-18	2.192340E-19
4.220000E+03	1.681972E-18	2.193807E-19
4.230000E+03	1.685539E-18	2.195725E-19
4.240000E+03	1.689433E-18	2.198034E-19
4.250000E+03	1.693661E-18	2.200743E-19
4.260000E+03	1.698191E-18	2.203809E-19
4.270000E+03	1.703032E-18	2.207243E-19
4.280000E+03	1.708140E-18	2.210987E-19
4.290000E+03	1.713510E-18	2.215036E-19
4.300000E+03	1.719137E-18	2.219384E-19
4.310000E+03	1.724979E-18	2.223976E-19
4.320000E+03	1.731046E-18	2.228826E-19
4.330000E+03	1.737280E-18	2.233860E-19
4.340000E+03	1.743692E-18	2.239093E-19
4.350000E+03	1.750210E-18	2.244436E-19
4.360000E+03	1.756831E-18	2.249885E-19
4.370000E+03	1.763594E-18	2.255493E-19
4.380000E+03	1.770498E-18	2.261259E-19
4.390000E+03	1.777555E-18	2.267202E-19
4.400000E+03	1.784766E-18	2.273323E-19
4.410000E+03	1.792102E-18	2.279590E-19
4.420000E+03	1.799594E-18	2.286040E-19
4.430000E+03	1.807214E-18	2.292642E-19
4.440000E+03	1.814964E-18	2.299400E-19
4.450000E+03	1.822834E-18	2.306301E-19
4.460000E+03	1.830826E-18	2.313350E-19
4.470000E+03	1.838915E-18	2.320517E-19
4.480000E+03	1.847121E-18	2.327826E-19
4.490000E+03	1.855420E-18	2.335249E-19
4.500000E+03	1.863802E-18	2.342774E-19
4.510000E+03	1.872291E-18	2.350429E-19
4.520000E+03	1.880847E-18	2.358166E-19
4.530000E+03	1.889479E-18	2.365994E-19
4.540000E+03	1.898197E-18	2.373924E-19
4.550000E+03	1.906980E-18	2.381928E-19
4.560000E+03	1.915838E-18	2.390018E-19
4.570000E+03	1.924750E-18	2.398166E-19
4.580000E+03	1.933731E-18	2.406385E-19
4.590000E+03	1.942776E-18	2.414670E-19
4.600000E+03	1.951884E-18	2.423012E-19
4.610000E+03	1.961035E-18	2.431388E-19
4.620000E+03	1.970263E-18	2.439832E-19
4.630000E+03	1.979533E-18	2.448299E-19
4.640000E+03	1.988862E-18	2.456805E-19
4.650000E+03	1.998249E-18	2.465346E-19
4.660000E+03	2.007679E-18	2.473900E-19
4.670000E+03	2.017188E-18	2.482504E-19
4.680000E+03	2.026742E-18	2.491114E-19
4.690000E+03	2.036362E-18	2.499751E-19
4.700000E+03	2.046084E-18	2.508456E-19
4.710000E+03	2.055895E-18	2.517209E-19
4.720000E+03	2.065817E-18	2.526031E-19
4.730000E+03	2.075873E-18	2.534946E-19
4.740000E+03	2.086067E-18	2.543957E-19
4.750000E+03	2.096406E-18	2.553067E-19
4.760000E+03	2.106932E-18	2.562324E-19
4.770000E+03	2.117616E-18	2.571689E-19
4.780000E+03	2.128501E-18	2.581213E-19
4.790000E+03	2.139596E-18	2.590901E-19
4.800000E+03	2.150889E-18	2.600738E-19
4.810000E+03	2.162427E-18	2.610778E-19
4.820000E+03	2.174200E-18	2.621007E-19
4.830000E+03	2.186217E-18	2.631434E-19
4.840000E+03	2.198486E-18	2.642069E-19
4.850000E+03	2.211018E-18	2.652922E-19
4.860000E+03	2.223862E-18	2.664054E-19
4.870000E+03	2.236969E-18	2.675403E-19
4.880000E+03	2.250388E-18	2.687030E-19
4.890000E+03	2.264110E-18	2.698924E-19
4.900000E+03	2.278166E-18	2.711123E-19
4.910000E+03	2.292547E-18	2.723614E-19
4.920000E+03	2.307262E-18	2.736413E-19
4.930000E+03	2.322344E-18	2.749557E-19
4.940000E+03	2.337761E-18	2.763010E-19
4.950000E+03	2.353545E-18	2.776810E-19
4.960000E+03	2.369706E-18	2.790973E-19
4.970000E+03	2.386254E-18	2.805510E-19
4.980000E+03	2.403178E-18	2.820410E-19
4.990000E+03	2.420488E-18	2.835686E-19
5.000000E+03	2.438216E-18	2.851378E-19
5.010000E+03	2.456326E-18	2.867445E-19
5.020000E+03	2.474872E-18	2.883954E-19
5.030000E+03	2.493819E-18	2.900865E-19
5.040000E+03	2.513173E-18	2.918190E-19
5.050000E+03	2.532966E-18	2.935970E-19
5.060000E+03	2.553183E-18	2.954192E-19
5.070000E+03	2.573831E-18	2.972868E-19
5.080000E+03	2.594893E-18	2.991985E-19
5.090000E+03	2.616398E-18	3.011585E-19
5.100000E+03	2.638355E-18	3.031686E-19
5.110000E+03	2.660717E-18	3.052244E-19
5.120000E+03	2.683516E-18	3.073306E-19
5.130000E+03	2.706755E-18	3.094890E-19
5.140000E+03	2.730440E-18	3.117016E-19
5.150000E+03	2.754548E-18	3.139674E-19
5.160000E+03	2.779081E-18	3.162886E-19
5.170000E+03	2.804016E-18	3.186643E-19
5.180000E+03	2.829409E-18	3.211033E-19
5.190000E+03	2.855205E-18	3.236018E-19
5.200000E+03	2.881406E-18	3.261626E-19
5.210000E+03	2.908011E-18	3.287885E-19
5.220000E+03	2.935048E-18	3.314856E-19
5.230000E+03	2.962458E-18	3.342506E-19
5.240000E+03	2.990237E-18	3.370866E-19
5.250000E+03	3.018441E-18	3.400034E-19
5.260000E+03	3.046977E-18	3.429944E-19
5.270000E+03	3.075897E-18	3.460696E-19
5.280000E+03	3.105165E-18	3.492289E-19
5.290000E+03	3.134773E-18	3.524757E-19
5.300000E+03	3.164741E-18	3.558167E-19
5.310000E+03	3.194998E-18	3.592482E-19
5.320000E+03	3.225560E-18	3.627766E-19
5.330000E+03	3.256415E-18	3.664050E-19
5.340000E+03	3.287546E-18	3.701361E-19
5.350000E+03	3.318969E-18	3.739762E-19
5.360000E+03	3.350600E-18	3.779203E-19
5.370000E+03	3.382450E-18	3.819740E-19
5.380000E+03	3.414495E-18	3.861392E-19
5.390000E+03	3.446678E-18	3.904133E-19
5.400000E+03	3.479039E-18	3.948052E-19
5.410000E+03	3.511514E-18	3.993116E-19
5.420000E+03	3.544038E-18	4.039289E-19
5.430000E+03	3.576577E-18	4.086568E-19
5.440000E+03	3.609128E-18	4.134985E-19
5.450000E+03	3.641581E-18	4.184447E-19
5.460000E+03	3.673932E-18	4.234978E-19
5.470000E+03	3.706135E-18	4.286555E-19
5.480000E+03	3.738071E-18	4.339065E-19
5.490000E+03	3.769690E-18	4.392473E-19
5.500000E+03	3.800977E-18	4.446784E-19
5.510000E+03	3.831841E-18	4.501909E-19
5.520000E+03	3.862188E-18	4.557753E-19
5.530000E+03	3.891919E-18	4.614213E-19
5.540000E+03	3.921052E-18	4.671322E-19
5.550000E+03	3.949408E-18	4.728873E-19
5.560000E+03	3.976963E-18	4.786842E-19
5.570000E+03	4.003611E-18	4.845105E-19
5.580000E+03	4.029288E-18	4.903583E-19
5.590000E+03	4.053928E-18	4.962192E-19
5.600000E+03	4.077424E-18	5.020796E-19
5.610000E+03	4.099755E-18	5.079356E-19
5.620000E+03	4.120813E-18	5.137728E-19
5.630000E+03	4.140495E-18	5.195765E-19
5.640000E+03	4.158825E-18	5.253476E-19
5.650000E+03	4.175704E-18	5.310711E-19
5.660000E+03	4.191032E-18	5.367317E-19
5.670000E+03	4.204801E-18	5.423247E-19
5.680000E+03	4.217008E-18	5.478460E-19
5.690000E+03	4.227521E-18	5.532740E-19
5.700000E+03	4.236344E-18	5.586045E-19
5.710000E+03	4.243488E-18	5.638332E-19
5.720000E+03	4.248879E-18	5.689444E-19
5.730000E+03	4.252538E-18	5.739342E-19
5.740000E+03	4.254401E-18	5.787866E-19
5.750000E+03	4.254500E-18	5.834980E-19
5.760000E+03	4.252829E-18	5.880588E-19
5.770000E+03	4.249431E-18	5.924660E-19
5.780000E+03	4.244221E-18	5.966977E-19
5.790000E+03	4.237345E-18	6.007638E-19
5.800000E+03	4.228729E-18	6.046430E-19
5.810000E+03	4.218440E-18	6.083331E-19
5.820000E+03	4.206506E-18	6.118260E-19
5.830000E+03	4.192958E-18	6.151139E-19
5.840000E+03	4.177882E-18	6.181963E-19
5.850000E+03	4.161320E-18	6.210663E-19
5.860000E+03	4.143319E-18	6.237177E-19
5.870000E+03	4.123884E-18	6.261379E-19
5.880000E+03	4.103162E-18	6.283356E-19
5.890000E+03	4.081167E-18	6.302995E-19
5.900000E+03	4.058004E-18	6.320328E-19
5.910000E+03	4.033694E-18	6.335254E-19
5.920000E+03	4.008347E-18	6.347823E-19
5.930000E+03	3.982031E-18	6.358021E-19
5.940000E+03	3.954816E-18	6.365840E-19
5.950000E+03	3.926772E-18	6.371282E-19
5.960000E+03	3.897969E-18	6.374355E-19
5.970000E+03	3.868521E-18	6.375151E-19
5.980000E+03	3.838411E-18	6.373545E-19
5.990000E+03	3.807795E-18	6.369718E-19
6.000000E+03	3.776699E-18	6.363632E-19
6.010000E+03	3.745188E-18	6.355332E-19
6.020000E+03	3.713374E-18	6.344945E-19
6.030000E+03	3.681230E-18	6.332376E-19
6.040000E+03	3.648907E-18	6.317837E-19
6.050000E+03	3.616377E-18	6.301243E-19
6.060000E+03	3.583741E-18	6.282739E-19
6.070000E+03	3.551054E-18	6.262400E-19
6.080000E+03	3.518325E-18	6.240226E-19
6.090000E+03	3.485606E-18	6.216297E-19
6.100000E+03	3.452945E-18	6.190693E-19
6.110000E+03	3.420385E-18	6.163498E-19
6.120000E+03	3.387971E-18	6.134795E-19
6.130000E+03	3.355742E-18	6.104670E-19
6.140000E+03	3.323737E-18	6.073208E-19
6.150000E+03	3.291989E-18	6.040494E-19
6.160000E+03	3.260572E-18	6.006688E-19
6.170000E+03	3.229559E-18	5.971952E-19
6.180000E+03	3.199017E-18	5.936444E-19
6.190000E+03	3.168969E-18	5.900245E-19
6.200000E+03	3.139439E-18	5.863434E-19
6.210000E+03	3.110403E-18	5.826011E-19
6.220000E+03	3.081882E-18	5.788052E-19
6.230000E+03	3.053891E-18	5.749628E-19
6.240000E+03	3.026404E-18	5.710733E-19
6.250000E+03	2.999475E-18	5.671510E-19
6.260000E+03	2.973195E-18	5.632178E-19
6.270000E+03	2.947532E-18	5.592721E-19
6.280000E+03	2.922535E-18	5.553275E-19
6.290000E+03	2.898290E-18	5.514047E-19
6.300000E+03	2.874761E-18	5.475015E-19
6.310000E+03	2.852071E-18	5.436455E-19
6.320000E+03	2.830263E-18	5.398492E-19
6.330000E+03	2.809298E-18	5.361093E-19
6.340000E+03	2.789295E-18	5.324527E-19
6.350000E+03	2.770294E-18	5.288909E-19
6.360000E+03	2.752295E-18	5.254275E-19
6.370000E+03	2.735337E-18	5.220734E-19
6.380000E+03	2.719537E-18	5.188546E-19
6.390000E+03	2.704855E-18	5.157665E-19
6.400000E+03	2.691330E-18	5.128194E-19
6.410000E+03	2.679041E-18	5.100311E-19
6.420000E+03	2.667869E-18	5.073814E-19
6.430000E+03	2.657733E-18	5.048575E-19
6.440000E+03	2.648594E-18	5.024541E-19
6.450000E+03	2.640413E-18	5.001656E-19
6.460000E+03	2.633108E-18	4.979788E-19
6.470000E+03	2.626681E-18	4.958955E-19
6.480000E+03	2.621089E-18	4.939099E-19
6.490000E+03	2.616334E-18	4.920234E-19
6.500000E+03	2.612374E-18	4.902299E-19
6.510000E+03	2.609209E-18	4.885307E-19
6.520000E+03	2.606839E-18	4.869270E-19
6.530000E+03	2.605222E-18	4.854123E-19
6.540000E+03	2.604399E-18	4.839952E-19
6.550000E+03	2.604370E-18	4.826767E-19
6.560000E+03	2.605094E-18	4.814499E-19
6.570000E+03	2.606612E-18	4.803233E-19
6.580000E+03	2.608883E-18	4.792898E-19
6.590000E+03	2.611906E-18	4.783501E-19
6.600000E+03	2.615726E-18	4.775124E-19
6.610000E+03	2.620256E-18	4.767617E-19
6.620000E+03	2.625626E-18	4.761218E-19
6.630000E+03	2.631709E-18	4.755696E-19
6.640000E+03	2.638592E-18	4.751212E-19
6.650000E+03	2.646232E-18	4.747689E-19
6.660000E+03	2.654631E-18	4.745131E-19
6.670000E+03	2.663835E-18	4.743618E-19
6.680000E+03	2.673802E-18	4.743073E-19
6.690000E+03	2.684533E-18	4.743497E-19
6.700000E+03	2.696030E-18	4.744892E-19
6.710000E+03	2.708343E-18	4.747339E-19
6.720000E+03	2.721380E-18	4.750675E-19
6.730000E+03	2.735237E-18	4.755065E-19
6.740000E+03	2.749871E-18	4.760427E-19
6.750000E+03	2.765285E-18	4.766760E-19
6.760000E+03	2.781481E-18	4.774064E-19
6.770000E+03	2.798463E-18	4.782338E-19
6.780000E+03	2.816283E-18	4.791667E-19
6.790000E+03	2.834845E-18	4.801879E-19
6.800000E+03	2.854204E-18	4.813059E-19
6.810000E+03	2.874361E-18	4.825205E-19
6.820000E+03	2.895321E-18	4.838315E-19
6.830000E+03	2.917087E-18	4.852388E-19
6.840000E+03	2.939664E-18	4.867423E-19
6.850000E+03	2.963055E-18	4.883418E-19
6.860000E+03	2.987209E-18	4.900282E-19
6.870000E+03	3.012185E-18	4.918101E-19
6.880000E+03	3.037985E-18	4.936873E-19
6.890000E+03	3.064557E-18	4.956505E-19
6.900000E+03	3.091961E-18	4.977086E-19
6.910000E+03	3.120201E-18	4.998614E-19
6.920000E+03	3.149222E-18	5.020992E-19
6.930000E+03	3.179025E-18	5.044218E-19
6.940000E+03	3.209673E-18	5.068382E-19
6.950000E+03	3.241109E-18	5.093386E-19
6.960000E+03	3.273334E-18	5.119227E-19
6.970000E+03	3.306413E-18	5.145999E-19
6.980000E+03	3.340285E-18	5.173602E-19
6.990000E+03	3.374953E-18	5.202031E-19
7.000000E+03	3.410351E-18	5.231182E-19
7.010000E+03	3.446611E-18	5.261252E-19
7.020000E+03	3.483670E-18	5.292139E-19
7.030000E+03	3.521528E-18	5.323839E-19
7.040000E+03	3.560117E-18	5.356242E-19
7.050000E+03	3.599503E-18	5.389450E-19
7.060000E+03	3.639617E-18	5.423351E-19
7.070000E+03	3.680602E-18	5.458158E-19
7.080000E+03	3.722237E-18	5.493541E-19
7.090000E+03	3.764667E-18	5.529712E-19
7.100000E+03	3.807816E-18	5.566558E-19
7.110000E+03	3.851757E-18	5.604186E-19
7.120000E+03	3.896331E-18	5.642365E-19
7.130000E+03	3.941692E-18	5.681318E-19
7.140000E+03	3.987674E-18	5.720807E-19
7.150000E+03	4.034351E-18	5.760944E-19
7.160000E+03	4.081720E-18	5.801723E-19
7.170000E+03	4.129772E-18	5.843139E-19
7.180000E+03	4.178416E-18	5.885065E-19
7.190000E+03	4.227639E-18	5.927493E-19
7.200000E+03	4.277522E-18	5.970540E-19
7.210000E+03	4.327965E-18	6.014075E-19
7.220000E+03	4.379048E-18	6.058218E-19
7.230000E+03	4.430575E-18	6.102707E-19
7.240000E+03	4.482718E-18	6.147792E-19
7.250000E+03	4.535371E-18	6.193338E-19
7.260000E+03	4.588519E-18	6.239338E-19
7.270000E+03	4.642147E-18	6.285784E-19
7.280000E+03	4.696237E-18	6.332670E-19
7.290000E+03	4.750774E-18	6.379989E-19
7.300000E+03	4.805845E-18	6.427876E-19
7.310000E+03	4.861222E-18	6.476041E-19
7.320000E+03	4.917208E-18	6.524909E-19
7.330000E+03	4.973683E-18	6.574336E-19
7.340000E+03	5.030518E-18	6.624169E-19
7.350000E+03	5.088038E-18	6.674853E-19
7.360000E+03	5.146002E-18	6.726089E-19
7.370000E+03	5.204750E-18	6.778338E-19
7.380000E+03	5.264160E-18	6.831454E-19
7.390000E+03	5.324348E-18	6.885601E-19
7.400000E+03	5.385439E-18	6.940949E-19
7.410000E+03	5.447437E-18	6.997513E-19
7.420000E+03	5.510604E-18	7.055637E-19
7.430000E+03	5.575089E-18	7.115511E-19
7.440000E+03	5.640782E-18	7.176996E-19
7.450000E+03	5.707700E-18	7.240113E-19
7.460000E+03	5.775862E-18	7.304880E-19
7.470000E+03	5.845145E-18	7.371139E-19
7.480000E+03	5.915420E-18	7.438718E-19
7.490000E+03	5.986547E-18	7.507435E-19
7.500000E+03	6.058524E-18	7.577277E-19
7.510000E+03	6.131199E-18	7.648044E-19
7.520000E+03	6.204411E-18	7.719522E-19
7.530000E+03	6.278296E-18	7.791864E-19
7.540000E+03	6.352530E-18	7.864653E-19
7.550000E+03	6.427087E-18	7.937837E-19
7.560000E+03	6.501940E-18	8.011366E-19
7.570000E+03	6.577058E-18	8.085181E-19
7.580000E+03	6.652413E-18	8.159228E-19
7.590000E+03	6.727804E-18	8.233240E-19
7.600000E+03	6.803192E-18	8.307150E-19
7.610000E+03	6.878708E-18	8.381100E-19
7.620000E+03	6.954140E-18	8.454814E-19
7.630000E+03	7.029623E-18	8.528439E-19
7.640000E+03	7.104755E-18	8.601475E-19
7.650000E+03	7.179848E-18	8.674289E-19
7.660000E+03	7.254674E-18	8.746595E-19
7.670000E+03	7.329182E-18	8.818323E-19
7.680000E+03	7.403319E-18	8.889407E-19
7.690000E+03	7.477224E-18	8.960011E-19
7.700000E+03	7.550652E-18	9.029840E-19
7.710000E+03	7.623546E-18	9.098828E-19
7.720000E+03	7.696049E-18	9.167147E-19
7.730000E+03	7.768108E-18	9.234741E-19
7.740000E+03	7.839462E-18	9.301303E-19
7.750000E+03	7.910260E-18	9.367016E-19
7.760000E+03	7.980444E-18	9.431820E-19
