#wls	flux	fluxerr
1.600000E+03	1.542706E-16	1.494601E-16
1.640000E+03	1.589897E-16	1.514750E-16
1.680000E+03	1.634613E-16	1.530501E-16
1.720000E+03	1.676570E-16	1.541667E-16
1.760000E+03	1.714791E-16	1.547467E-16
1.800000E+03	1.749244E-16	1.548027E-16
1.840000E+03	1.778904E-16	1.542624E-16
1.880000E+03	1.803531E-16	1.531286E-16
1.920000E+03	1.822558E-16	1.513801E-16
1.960000E+03	1.835142E-16	1.489784E-16
2.000000E+03	1.841066E-16	1.459425E-16
2.040000E+03	1.839724E-16	1.422645E-16
2.080000E+03	1.830605E-16	1.379500E-16
2.120000E+03	1.813319E-16	1.330190E-16
2.160000E+03	1.787390E-16	1.274899E-16
2.200000E+03	1.752133E-16	1.213724E-16
2.240000E+03	1.706913E-16	1.146868E-16
2.280000E+03	1.651821E-16	1.075072E-16
2.320000E+03	1.587982E-16	9.997366E-17
2.360000E+03	1.517477E-16	9.227596E-17
2.400000E+03	1.441944E-16	8.456042E-17
2.440000E+03	1.362855E-16	7.695051E-17
2.480000E+03	1.281238E-16	6.953234E-17
2.520000E+03	1.198185E-16	6.238634E-17
2.560000E+03	1.114564E-16	5.557145E-17
2.600000E+03	1.031297E-16	4.914082E-17
2.640000E+03	9.491183E-17	4.313015E-17
2.680000E+03	8.687350E-17	3.756638E-17
2.720000E+03	7.908058E-17	3.246727E-17
2.760000E+03	7.158587E-17	2.783860E-17
2.800000E+03	6.443847E-17	2.367919E-17
2.840000E+03	5.767995E-17	1.997998E-17
2.880000E+03	5.134801E-17	1.672628E-17
2.920000E+03	4.547521E-17	1.389794E-17
2.960000E+03	4.008481E-17	1.146901E-17
3.000000E+03	3.519054E-17	9.408903E-18
3.010000E+03	3.404488E-17	8.947502E-18
3.020000E+03	3.292959E-17	8.506258E-18
3.030000E+03	3.184580E-17	8.084920E-18
3.040000E+03	3.079164E-17	7.682475E-18
3.050000E+03	2.976809E-17	7.298644E-18
3.060000E+03	2.877462E-17	6.932776E-18
3.070000E+03	2.781134E-17	6.584371E-18
3.080000E+03	2.687652E-17	6.252517E-18
3.090000E+03	2.597137E-17	5.936993E-18
3.100000E+03	2.509420E-17	5.636926E-18
3.110000E+03	2.424552E-17	5.351943E-18
3.120000E+03	2.342468E-17	5.081431E-18
3.130000E+03	2.263065E-17	4.824701E-18
3.140000E+03	2.186372E-17	4.581368E-18
3.150000E+03	2.112284E-17	4.350768E-18
3.160000E+03	2.040782E-17	4.132433E-18
3.170000E+03	1.971802E-17	3.925817E-18
3.180000E+03	1.905283E-17	3.730392E-18
3.190000E+03	1.841197E-17	3.545711E-18
3.200000E+03	1.779482E-17	3.371268E-18
3.210000E+03	1.720045E-17	3.206518E-18
3.220000E+03	1.662884E-17	3.051105E-18
3.230000E+03	1.607910E-17	2.904514E-18
3.240000E+03	1.555088E-17	2.766352E-18
3.250000E+03	1.504357E-17	2.636190E-18
3.260000E+03	1.455631E-17	2.513572E-18
3.270000E+03	1.408900E-17	2.398184E-18
3.280000E+03	1.364058E-17	2.289563E-18
3.290000E+03	1.321091E-17	2.187419E-18
3.300000E+03	1.279940E-17	2.091392E-18
3.310000E+03	1.240507E-17	2.001081E-18
3.320000E+03	1.202775E-17	1.916227E-18
3.330000E+03	1.166689E-17	1.836518E-18
3.340000E+03	1.132175E-17	1.761631E-18
3.350000E+03	1.099181E-17	1.691288E-18
3.360000E+03	1.067656E-17	1.625225E-18
3.370000E+03	1.037549E-17	1.563189E-18
3.380000E+03	1.008811E-17	1.504942E-18
3.390000E+03	9.813930E-18	1.450259E-18
3.400000E+03	9.552357E-18	1.398909E-18
3.410000E+03	9.302827E-18	1.350674E-18
3.420000E+03	9.065150E-18	1.305403E-18
3.430000E+03	8.838558E-18	1.262870E-18
3.440000E+03	8.622774E-18	1.222927E-18
3.450000E+03	8.417307E-18	1.185407E-18
3.460000E+03	8.221794E-18	1.150165E-18
3.470000E+03	8.035692E-18	1.117041E-18
3.480000E+03	7.858587E-18	1.085900E-18
3.490000E+03	7.690175E-18	1.056628E-18
3.500000E+03	7.529994E-18	1.029096E-18
3.510000E+03	7.377773E-18	1.003206E-18
3.520000E+03	7.232934E-18	9.788237E-19
3.530000E+03	7.095257E-18	9.558691E-19
3.540000E+03	6.964301E-18	9.342363E-19
3.550000E+03	6.839731E-18	9.138381E-19
3.560000E+03	6.721235E-18	8.945940E-19
3.570000E+03	6.608383E-18	8.764114E-19
3.580000E+03	6.501043E-18	8.592407E-19
3.590000E+03	6.398890E-18	8.430092E-19
3.600000E+03	6.301624E-18	8.276504E-19
3.610000E+03	6.209142E-18	8.131262E-19
3.620000E+03	6.121109E-18	7.993697E-19
3.630000E+03	6.037326E-18	7.863345E-19
3.640000E+03	5.957603E-18	7.739767E-19
3.650000E+03	5.881761E-18	7.622557E-19
3.660000E+03	5.809628E-18	7.511331E-19
3.670000E+03	5.741039E-18	7.405731E-19
3.680000E+03	5.675888E-18	7.305483E-19
3.690000E+03	5.614070E-18	7.210331E-19
3.700000E+03	5.555434E-18	7.119965E-19
3.710000E+03	5.500025E-18	7.034340E-19
3.720000E+03	5.447644E-18	6.953104E-19
3.730000E+03	5.398286E-18	6.876164E-19
3.740000E+03	5.351850E-18	6.803312E-19
3.750000E+03	5.308283E-18	6.734404E-19
3.760000E+03	5.267619E-18	6.669416E-19
3.770000E+03	5.229666E-18	6.608046E-19
3.780000E+03	5.194456E-18	6.550278E-19
3.790000E+03	5.161974E-18	6.496042E-19
3.800000E+03	5.132076E-18	6.445110E-19
3.810000E+03	5.104789E-18	6.397476E-19
3.820000E+03	5.080094E-18	6.353079E-19
3.830000E+03	5.057890E-18	6.311758E-19
3.840000E+03	5.038120E-18	6.273412E-19
3.850000E+03	5.020846E-18	6.238091E-19
3.860000E+03	5.005928E-18	6.205597E-19
3.870000E+03	4.993389E-18	6.175936E-19
3.880000E+03	4.983169E-18	6.149015E-19
3.890000E+03	4.975251E-18	6.124794E-19
3.900000E+03	4.969618E-18	6.103235E-19
3.910000E+03	4.966173E-18	6.084205E-19
3.920000E+03	4.964899E-18	6.067669E-19
3.930000E+03	4.965821E-18	6.053643E-19
3.940000E+03	4.968882E-18	6.042047E-19
3.950000E+03	4.974031E-18	6.032802E-19
3.960000E+03	4.981251E-18	6.025881E-19
3.970000E+03	4.990493E-18	6.021207E-19
3.980000E+03	5.001742E-18	6.018753E-19
3.990000E+03	5.014988E-18	6.018492E-19
4.000000E+03	5.030220E-18	6.020397E-19
4.010000E+03	5.047350E-18	6.024350E-19
4.020000E+03	5.066369E-18	6.030325E-19
4.030000E+03	5.087269E-18	6.038297E-19
4.040000E+03	5.110043E-18	6.048242E-19
4.050000E+03	5.134646E-18	6.060087E-19
4.060000E+03	5.161033E-18	6.073764E-19
4.070000E+03	5.189199E-18	6.089246E-19
4.080000E+03	5.219101E-18	6.106464E-19
4.090000E+03	5.250735E-18	6.125394E-19
4.100000E+03	5.284060E-18	6.145965E-19
4.110000E+03	5.319074E-18	6.168154E-19
4.120000E+03	5.355735E-18	6.191890E-19
4.130000E+03	5.394002E-18	6.217104E-19
4.140000E+03	5.433876E-18	6.243773E-19
4.150000E+03	5.475317E-18	6.271826E-19
4.160000E+03	5.518325E-18	6.301242E-19
4.170000E+03	5.562819E-18	6.331904E-19
4.180000E+03	5.608800E-18	6.363791E-19
4.190000E+03	5.656184E-18	6.396785E-19
4.200000E+03	5.705018E-18	6.430917E-19
4.210000E+03	5.755217E-18	6.466072E-19
4.220000E+03	5.806785E-18	6.502232E-19
4.230000E+03	5.859590E-18	6.539231E-19
4.240000E+03	5.913679E-18	6.577106E-19
4.250000E+03	5.968918E-18	6.615691E-19
4.260000E+03	6.025354E-18	6.655026E-19
4.270000E+03	6.082849E-18	6.694943E-19
4.280000E+03	6.141308E-18	6.735329E-19
4.290000E+03	6.200777E-18	6.776225E-19
4.300000E+03	6.261062E-18	6.817410E-19
4.310000E+03	6.322207E-18	6.858927E-19
4.320000E+03	6.384011E-18	6.900553E-19
4.330000E+03	6.446517E-18	6.942329E-19
4.340000E+03	6.509616E-18	6.984136E-19
4.350000E+03	6.573200E-18	7.025853E-19
4.360000E+03	6.637256E-18	7.067466E-19
4.370000E+03	6.701724E-18	7.108906E-19
4.380000E+03	6.766647E-18	7.150218E-19
4.390000E+03	6.831910E-18	7.191275E-19
4.400000E+03	6.897615E-18	7.232180E-19
4.410000E+03	6.963759E-18	7.272922E-19
4.420000E+03	7.030341E-18	7.313493E-19
4.430000E+03	7.097359E-18	7.353885E-19
4.440000E+03	7.164874E-18	7.394153E-19
4.450000E+03	7.232832E-18	7.434236E-19
4.460000E+03	7.301298E-18	7.474198E-19
4.470000E+03	7.370279E-18	7.514044E-19
4.480000E+03	7.439787E-18	7.553787E-19
4.490000E+03	7.509772E-18	7.593382E-19
4.500000E+03	7.580244E-18	7.632848E-19
4.510000E+03	7.651154E-18	7.672150E-19
4.520000E+03	7.722580E-18	7.711383E-19
4.530000E+03	7.794410E-18	7.750458E-19
4.540000E+03	7.866659E-18	7.789417E-19
4.550000E+03	7.939345E-18	7.828309E-19
4.560000E+03	8.012353E-18	7.867056E-19
4.570000E+03	8.085771E-18	7.905781E-19
4.580000E+03	8.159484E-18	7.944411E-19
4.590000E+03	8.233515E-18	7.983008E-19
4.600000E+03	8.307748E-18	8.021500E-19
4.610000E+03	8.382280E-18	8.060019E-19
4.620000E+03	8.457071E-18	8.098561E-19
4.630000E+03	8.532004E-18	8.137049E-19
4.640000E+03	8.607113E-18	8.175542E-19
4.650000E+03	8.682436E-18	8.214097E-19
4.660000E+03	8.757938E-18	8.252698E-19
4.670000E+03	8.833507E-18	8.291248E-19
4.680000E+03	8.909345E-18	8.329943E-19
4.690000E+03	8.985507E-18	8.368828E-19
4.700000E+03	9.061891E-18	8.407799E-19
4.710000E+03	9.138558E-18	8.446897E-19
4.720000E+03	9.215573E-18	8.486162E-19
4.730000E+03	9.292754E-18	8.525407E-19
4.740000E+03	9.370170E-18	8.564669E-19
4.750000E+03	9.447721E-18	8.603834E-19
4.760000E+03	9.525480E-18	8.642944E-19
4.770000E+03	9.603436E-18	8.681969E-19
4.780000E+03	9.681490E-18	8.720802E-19
4.790000E+03	9.759722E-18	8.759500E-19
4.800000E+03	9.838033E-18	8.797967E-19
4.810000E+03	9.916504E-18	8.836274E-19
4.820000E+03	9.995036E-18	8.874336E-19
4.830000E+03	1.007362E-17	8.912158E-19
4.840000E+03	1.015224E-17	8.949751E-19
4.850000E+03	1.023100E-17	8.987214E-19
4.860000E+03	1.030977E-17	9.024489E-19
4.870000E+03	1.038855E-17	9.061603E-19
4.880000E+03	1.046723E-17	9.098501E-19
4.890000E+03	1.054598E-17	9.135385E-19
4.900000E+03	1.062470E-17	9.172204E-19
4.910000E+03	1.070336E-17	9.208988E-19
4.920000E+03	1.078185E-17	9.245678E-19
4.930000E+03	1.086022E-17	9.282383E-19
4.940000E+03	1.093837E-17	9.319032E-19
4.950000E+03	1.101625E-17	9.355633E-19
4.960000E+03	1.109393E-17	9.392275E-19
4.970000E+03	1.117127E-17	9.428860E-19
4.980000E+03	1.124823E-17	9.465370E-19
4.990000E+03	1.132466E-17	9.501687E-19
5.000000E+03	1.140061E-17	9.537864E-19
5.010000E+03	1.147604E-17	9.573856E-19
5.020000E+03	1.155078E-17	9.609520E-19
5.030000E+03	1.162478E-17	9.644798E-19
5.040000E+03	1.169796E-17	9.679625E-19
5.050000E+03	1.177016E-17	9.713843E-19
5.060000E+03	1.184141E-17	9.747478E-19
5.070000E+03	1.191165E-17	9.780464E-19
5.080000E+03	1.198058E-17	9.812548E-19
5.090000E+03	1.204822E-17	9.843765E-19
5.100000E+03	1.211452E-17	9.874061E-19
5.110000E+03	1.217926E-17	9.903295E-19
5.120000E+03	1.224238E-17	9.931432E-19
5.130000E+03	1.230377E-17	9.958445E-19
5.140000E+03	1.236336E-17	9.984324E-19
5.150000E+03	1.242094E-17	1.000897E-18
5.160000E+03	1.247654E-17	1.003251E-18
5.170000E+03	1.252983E-17	1.005476E-18
5.180000E+03	1.258083E-17	1.007588E-18
5.190000E+03	1.262933E-17	1.009583E-18
5.200000E+03	1.267523E-17	1.011469E-18
5.210000E+03	1.271843E-17	1.013255E-18
5.220000E+03	1.275884E-17	1.014952E-18
5.230000E+03	1.279610E-17	1.016551E-18
5.240000E+03	1.283037E-17	1.018085E-18
5.250000E+03	1.286143E-17	1.019557E-18
5.260000E+03	1.288918E-17	1.020982E-18
5.270000E+03	1.291342E-17	1.022363E-18
5.280000E+03	1.293404E-17	1.023715E-18
5.290000E+03	1.295098E-17	1.025053E-18
5.300000E+03	1.296417E-17	1.026390E-18
5.310000E+03	1.297353E-17	1.027741E-18
5.320000E+03	1.297891E-17	1.029108E-18
5.330000E+03	1.298050E-17	1.030524E-18
5.340000E+03	1.297804E-17	1.031982E-18
5.350000E+03	1.297151E-17	1.033491E-18
5.360000E+03	1.296116E-17	1.035083E-18
5.370000E+03	1.294677E-17	1.036746E-18
5.380000E+03	1.292861E-17	1.038507E-18
5.390000E+03	1.290662E-17	1.040365E-18
5.400000E+03	1.288100E-17	1.042333E-18
5.410000E+03	1.285168E-17	1.044406E-18
5.420000E+03	1.281904E-17	1.046608E-18
5.430000E+03	1.278305E-17	1.048929E-18
5.440000E+03	1.274397E-17	1.051380E-18
5.450000E+03	1.270169E-17	1.053939E-18
5.460000E+03	1.265650E-17	1.056616E-18
5.470000E+03	1.260844E-17	1.059395E-18
5.480000E+03	1.255756E-17	1.062263E-18
5.490000E+03	1.250419E-17	1.065224E-18
5.500000E+03	1.244828E-17	1.068253E-18
5.510000E+03	1.238991E-17	1.071331E-18
5.520000E+03	1.232931E-17	1.074452E-18
5.530000E+03	1.226645E-17	1.077588E-18
5.540000E+03	1.220168E-17	1.080743E-18
5.550000E+03	1.213487E-17	1.083877E-18
5.560000E+03	1.206651E-17	1.087006E-18
5.570000E+03	1.199670E-17	1.090112E-18
5.580000E+03	1.192555E-17	1.093180E-18
5.590000E+03	1.185329E-17	1.096205E-18
5.600000E+03	1.178015E-17	1.099185E-18
5.610000E+03	1.170622E-17	1.102106E-18
5.620000E+03	1.163196E-17	1.104988E-18
5.630000E+03	1.155733E-17	1.107811E-18
5.640000E+03	1.148275E-17	1.110599E-18
5.650000E+03	1.140819E-17	1.113330E-18
5.660000E+03	1.133404E-17	1.116033E-18
5.670000E+03	1.126048E-17	1.118713E-18
5.680000E+03	1.118754E-17	1.121363E-18
5.690000E+03	1.111549E-17	1.124003E-18
5.700000E+03	1.104445E-17	1.126641E-18
5.710000E+03	1.097467E-17	1.129296E-18
5.720000E+03	1.090627E-17	1.131977E-18
5.730000E+03	1.083924E-17	1.134681E-18
5.740000E+03	1.077390E-17	1.137440E-18
5.750000E+03	1.071034E-17	1.140263E-18
5.760000E+03	1.064853E-17	1.143146E-18
5.770000E+03	1.058867E-17	1.146108E-18
5.780000E+03	1.053094E-17	1.149167E-18
5.790000E+03	1.047539E-17	1.152330E-18
5.800000E+03	1.042197E-17	1.155589E-18
5.810000E+03	1.037085E-17	1.158961E-18
5.820000E+03	1.032219E-17	1.162460E-18
5.830000E+03	1.027604E-17	1.166089E-18
5.840000E+03	1.023231E-17	1.169837E-18
5.850000E+03	1.019116E-17	1.173716E-18
5.860000E+03	1.015262E-17	1.177726E-18
5.870000E+03	1.011683E-17	1.181878E-18
5.880000E+03	1.008381E-17	1.186170E-18
5.890000E+03	1.005348E-17	1.190587E-18
5.900000E+03	1.002596E-17	1.195138E-18
5.910000E+03	1.000115E-17	1.199808E-18
5.920000E+03	9.979404E-18	1.204632E-18
5.930000E+03	9.960385E-18	1.209566E-18
5.940000E+03	9.944208E-18	1.214620E-18
5.950000E+03	9.930983E-18	1.219803E-18
5.960000E+03	9.920589E-18	1.225096E-18
5.970000E+03	9.913017E-18	1.230497E-18
5.980000E+03	9.908363E-18	1.236013E-18
5.990000E+03	9.906494E-18	1.241626E-18
6.000000E+03	9.907501E-18	1.247347E-18
6.010000E+03	9.911127E-18	1.253143E-18
6.020000E+03	9.917569E-18	1.259036E-18
6.030000E+03	9.926560E-18	1.264995E-18
6.040000E+03	9.938293E-18	1.271044E-18
6.050000E+03	9.952375E-18	1.277133E-18
6.060000E+03	9.968992E-18	1.283289E-18
6.070000E+03	9.987976E-18	1.289490E-18
6.080000E+03	1.000927E-17	1.295732E-18
6.090000E+03	1.003259E-17	1.301979E-18
6.100000E+03	1.005810E-17	1.308257E-18
6.110000E+03	1.008539E-17	1.314513E-18
6.120000E+03	1.011462E-17	1.320772E-18
6.130000E+03	1.014536E-17	1.326981E-18
6.140000E+03	1.017753E-17	1.333131E-18
6.150000E+03	1.021093E-17	1.339201E-18
6.160000E+03	1.024549E-17	1.345182E-18
6.170000E+03	1.028072E-17	1.351015E-18
6.180000E+03	1.031654E-17	1.356692E-18
6.190000E+03	1.035272E-17	1.362186E-18
6.200000E+03	1.038917E-17	1.367487E-18
6.210000E+03	1.042577E-17	1.372584E-18
6.220000E+03	1.046271E-17	1.377503E-18
6.230000E+03	1.050028E-17	1.382288E-18
6.240000E+03	1.053855E-17	1.386950E-18
6.250000E+03	1.057771E-17	1.391518E-18
6.260000E+03	1.061798E-17	1.396022E-18
6.270000E+03	1.065944E-17	1.400477E-18
6.280000E+03	1.070232E-17	1.404915E-18
6.290000E+03	1.074674E-17	1.409353E-18
6.300000E+03	1.079279E-17	1.413808E-18
6.310000E+03	1.084075E-17	1.418317E-18
6.320000E+03	1.089062E-17	1.422880E-18
6.330000E+03	1.094267E-17	1.427537E-18
6.340000E+03	1.099677E-17	1.432270E-18
6.350000E+03	1.105307E-17	1.437101E-18
6.360000E+03	1.111157E-17	1.442031E-18
6.370000E+03	1.117246E-17	1.447084E-18
6.380000E+03	1.123560E-17	1.452243E-18
6.390000E+03	1.130099E-17	1.457511E-18
6.400000E+03	1.136852E-17	1.462871E-18
6.410000E+03	1.143785E-17	1.468283E-18
6.420000E+03	1.150883E-17	1.473728E-18
6.430000E+03	1.158148E-17	1.479208E-18
6.440000E+03	1.165578E-17	1.484725E-18
6.450000E+03	1.173176E-17	1.490280E-18
6.460000E+03	1.180959E-17	1.495899E-18
6.470000E+03	1.188948E-17	1.501607E-18
6.480000E+03	1.197144E-17	1.507408E-18
6.490000E+03	1.205533E-17	1.513283E-18
6.500000E+03	1.214152E-17	1.519282E-18
6.510000E+03	1.223006E-17	1.525410E-18
6.520000E+03	1.232080E-17	1.531648E-18
6.530000E+03	1.241395E-17	1.538024E-18
6.540000E+03	1.250956E-17	1.544543E-18
6.550000E+03	1.260746E-17	1.551186E-18
6.560000E+03	1.270769E-17	1.557957E-18
6.570000E+03	1.281070E-17	1.564911E-18
6.580000E+03	1.291591E-17	1.571976E-18
6.590000E+03	1.302377E-17	1.579208E-18
6.600000E+03	1.313432E-17	1.586612E-18
6.610000E+03	1.324717E-17	1.594140E-18
6.620000E+03	1.336279E-17	1.601848E-18
6.630000E+03	1.348079E-17	1.609687E-18
6.640000E+03	1.360164E-17	1.617714E-18
6.650000E+03	1.372493E-17	1.625879E-18
6.660000E+03	1.385092E-17	1.634212E-18
6.670000E+03	1.397965E-17	1.642716E-18
6.680000E+03	1.411092E-17	1.651367E-18
6.690000E+03	1.424475E-17	1.660167E-18
6.700000E+03	1.438143E-17	1.669145E-18
6.710000E+03	1.452073E-17	1.678276E-18
6.720000E+03	1.466270E-17	1.687562E-18
6.730000E+03	1.480735E-17	1.697005E-18
6.740000E+03	1.495472E-17	1.706605E-18
6.750000E+03	1.510484E-17	1.716363E-18
6.760000E+03	1.525773E-17	1.726281E-18
6.770000E+03	1.541315E-17	1.736330E-18
6.780000E+03	1.557140E-17	1.746539E-18
6.790000E+03	1.573250E-17	1.756909E-18
6.800000E+03	1.589619E-17	1.767410E-18
6.810000E+03	1.606278E-17	1.778072E-18
6.820000E+03	1.623201E-17	1.788863E-18
6.830000E+03	1.640389E-17	1.799783E-18
6.840000E+03	1.657844E-17	1.810831E-18
6.850000E+03	1.675566E-17	1.822005E-18
6.860000E+03	1.693588E-17	1.833338E-18
6.870000E+03	1.711850E-17	1.844762E-18
6.880000E+03	1.730383E-17	1.856309E-18
6.890000E+03	1.749189E-17	1.867977E-18
6.900000E+03	1.768236E-17	1.879731E-18
6.910000E+03	1.787556E-17	1.891604E-18
6.920000E+03	1.807151E-17	1.903593E-18
6.930000E+03	1.826986E-17	1.915663E-18
6.940000E+03	1.847062E-17	1.927810E-18
6.950000E+03	1.867412E-17	1.940069E-18
6.960000E+03	1.888001E-17	1.952402E-18
6.970000E+03	1.908829E-17	1.964806E-18
6.980000E+03	1.929893E-17	1.977279E-18
6.990000E+03	1.951193E-17	1.989819E-18
7.000000E+03	1.972689E-17	2.002385E-18
7.010000E+03	1.994456E-17	2.015052E-18
7.020000E+03	2.016414E-17	2.027739E-18
7.030000E+03	2.038601E-17	2.040483E-18
7.040000E+03	2.060974E-17	2.053240E-18
7.050000E+03	2.083529E-17	2.066008E-18
7.060000E+03	2.106306E-17	2.078823E-18
7.070000E+03	2.129259E-17	2.091642E-18
7.080000E+03	2.152342E-17	2.104418E-18
7.090000E+03	2.175636E-17	2.117231E-18
7.100000E+03	2.199096E-17	2.130035E-18
7.110000E+03	2.222671E-17	2.142783E-18
7.120000E+03	2.246403E-17	2.155512E-18
7.130000E+03	2.270240E-17	2.168175E-18
7.140000E+03	2.294224E-17	2.180811E-18
7.150000E+03	2.318302E-17	2.193370E-18
7.160000E+03	2.342517E-17	2.205893E-18
7.170000E+03	2.366766E-17	2.218285E-18
7.180000E+03	2.391090E-17	2.230587E-18
7.190000E+03	2.415534E-17	2.242840E-18
7.200000E+03	2.439990E-17	2.254949E-18
7.210000E+03	2.464450E-17	2.266910E-18
7.220000E+03	2.488957E-17	2.278768E-18
7.230000E+03	2.513504E-17	2.290521E-18
7.240000E+03	2.538029E-17	2.302122E-18
7.250000E+03	2.562579E-17	2.313619E-18
7.260000E+03	2.587090E-17	2.324967E-18
7.270000E+03	2.611552E-17	2.336168E-18
7.280000E+03	2.636013E-17	2.347278E-18
7.290000E+03	2.660407E-17	2.358254E-18
7.300000E+03	2.684782E-17	2.369156E-18
7.310000E+03	2.709072E-17	2.379944E-18
7.320000E+03	2.733267E-17	2.390631E-18
7.330000E+03	2.757477E-17	2.401339E-18
7.340000E+03	2.781576E-17	2.411979E-18
7.350000E+03	2.805677E-17	2.422678E-18
7.360000E+03	2.829714E-17	2.433408E-18
7.370000E+03	2.853743E-17	2.444246E-18
7.380000E+03	2.877826E-17	2.455275E-18
7.390000E+03	2.901895E-17	2.466471E-18
7.400000E+03	2.926082E-17	2.477974E-18
7.410000E+03	2.950387E-17	2.489819E-18
7.420000E+03	2.974884E-17	2.502097E-18
7.430000E+03	2.999577E-17	2.514841E-18
7.440000E+03	3.024475E-17	2.528084E-18
7.450000E+03	3.049654E-17	2.541916E-18
7.460000E+03	3.074982E-17	2.556249E-18
7.470000E+03	3.100467E-17	2.571105E-18
7.480000E+03	3.126041E-17	2.586443E-18
7.490000E+03	3.151782E-17	2.602333E-18
7.500000E+03	3.177623E-17	2.618721E-18
7.510000E+03	3.203493E-17	2.635544E-18
7.520000E+03	3.229394E-17	2.652787E-18
7.530000E+03	3.255328E-17	2.670432E-18
7.540000E+03	3.281217E-17	2.688387E-18
7.550000E+03	3.307141E-17	2.706681E-18
7.560000E+03	3.332938E-17	2.725146E-18
7.570000E+03	3.358766E-17	2.743865E-18
7.580000E+03	3.384542E-17	2.762729E-18
7.590000E+03	3.410262E-17	2.781687E-18
7.600000E+03	3.435836E-17	2.800623E-18
7.610000E+03	3.461340E-17	2.819554E-18
7.620000E+03	3.486764E-17	2.838433E-18
7.630000E+03	3.512099E-17	2.857217E-18
7.640000E+03	3.537247E-17	2.875792E-18
7.650000E+03	3.562277E-17	2.894191E-18
7.660000E+03	3.587087E-17	2.912307E-18
7.670000E+03	3.611836E-17	2.930255E-18
7.680000E+03	3.636234E-17	2.947788E-18
7.690000E+03	3.660530E-17	2.965104E-18
7.700000E+03	3.684610E-17	2.982110E-18
7.710000E+03	3.708356E-17	2.998714E-18
7.720000E+03	3.731833E-17	3.014977E-18
7.730000E+03	3.755011E-17	3.030887E-18
7.740000E+03	3.777863E-17	3.046432E-18
7.750000E+03	3.800355E-17	3.061605E-18
7.760000E+03	3.822555E-17	3.076473E-18
