#wls	flux	fluxerr
1.600000E+03	7.187234E-17	4.537660E-17
1.640000E+03	7.229066E-17	4.480492E-17
1.680000E+03	7.263263E-17	4.416681E-17
1.720000E+03	7.289775E-17	4.346472E-17
1.760000E+03	7.307728E-17	4.269641E-17
1.800000E+03	7.316890E-17	4.186378E-17
1.840000E+03	7.316264E-17	4.096472E-17
1.880000E+03	7.306113E-17	4.000457E-17
1.920000E+03	7.285920E-17	3.898449E-17
1.960000E+03	7.254516E-17	3.790260E-17
2.000000E+03	7.211911E-17	3.676372E-17
2.040000E+03	7.156933E-17	3.556689E-17
2.080000E+03	7.088524E-17	3.431242E-17
2.120000E+03	7.006737E-17	3.300651E-17
2.160000E+03	6.909320E-17	3.164484E-17
2.200000E+03	6.794542E-17	3.022672E-17
2.240000E+03	6.660008E-17	2.874956E-17
2.280000E+03	6.501551E-17	2.720471E-17
2.320000E+03	6.324604E-17	2.562468E-17
2.360000E+03	6.134431E-17	2.403845E-17
2.400000E+03	5.934430E-17	2.246515E-17
2.440000E+03	5.726832E-17	2.091780E-17
2.480000E+03	5.513508E-17	1.940689E-17
2.520000E+03	5.295786E-17	1.794003E-17
2.560000E+03	5.074398E-17	1.652209E-17
2.600000E+03	4.850299E-17	1.515813E-17
2.640000E+03	4.624247E-17	1.385200E-17
2.680000E+03	4.396904E-17	1.260676E-17
2.720000E+03	4.168926E-17	1.142494E-17
2.760000E+03	3.941277E-17	1.030938E-17
2.800000E+03	3.714441E-17	9.261051E-18
2.840000E+03	3.489218E-17	8.281244E-18
2.880000E+03	3.266915E-17	7.371799E-18
2.920000E+03	3.049097E-17	6.534298E-18
2.960000E+03	2.837757E-17	5.770275E-18
2.993873E+03	1.622179E-16	4.182141E-16
3.006473E+03	1.624233E-16	4.182141E-16
3.023874E+03	1.625320E-16	4.182141E-16
3.027274E+03	1.627012E-16	4.182141E-16
3.028274E+03	1.628704E-16	4.182141E-16
3.033275E+03	1.630033E-16	4.182141E-16
3.035674E+03	1.630879E-16	4.182141E-16
3.040275E+03	1.631845E-16	4.182141E-16
3.043075E+03	1.632570E-16	4.182141E-16
3.043475E+03	1.633537E-16	4.182141E-16
3.045075E+03	1.634625E-16	4.182141E-16
3.047875E+03	1.635591E-16	4.182141E-16
3.048075E+03	1.636679E-16	4.182141E-16
3.048275E+03	1.637041E-16	4.182141E-16
3.048475E+03	1.637404E-16	4.182141E-16
3.051275E+03	1.637645E-16	4.182141E-16
3.051475E+03	1.637887E-16	4.182141E-16
3.052075E+03	1.637887E-16	4.182141E-16
3.053076E+03	1.638733E-16	4.182141E-16
3.053876E+03	1.638733E-16	4.182141E-16
3.055876E+03	1.638491E-16	4.182141E-16
3.056676E+03	1.638370E-16	4.182141E-16
3.056876E+03	1.638250E-16	4.182141E-16
3.057476E+03	1.638129E-16	4.182141E-16
3.057676E+03	1.637766E-16	4.182141E-16
3.058276E+03	1.637887E-16	4.182141E-16
3.059276E+03	1.638129E-16	4.182141E-16
3.060075E+03	1.637404E-16	4.182141E-16
3.061276E+03	1.636437E-16	4.182141E-16
3.062476E+03	1.636075E-16	4.182141E-16
3.062676E+03	1.635229E-16	4.182141E-16
3.063076E+03	1.634383E-16	4.182141E-16
3.064676E+03	1.633900E-16	4.182141E-16
3.065476E+03	1.633175E-16	4.182141E-16
3.066076E+03	1.631966E-16	4.182141E-16
3.066876E+03	1.631120E-16	4.182141E-16
3.067476E+03	1.629671E-16	4.182141E-16
3.068077E+03	1.628341E-16	4.182141E-16
3.069077E+03	1.626771E-16	4.182141E-16
3.069677E+03	1.625200E-16	4.182141E-16
3.070277E+03	1.623508E-16	4.182141E-16
3.070477E+03	1.621816E-16	4.182141E-16
3.073876E+03	1.620125E-16	4.182141E-16
3.074076E+03	1.618312E-16	4.182141E-16
3.074276E+03	1.616500E-16	4.182141E-16
3.074476E+03	1.614687E-16	4.182141E-16
3.075076E+03	1.612754E-16	4.182141E-16
3.075877E+03	1.610700E-16	4.182141E-16
3.076077E+03	1.608646E-16	4.182141E-16
3.076277E+03	1.606591E-16	4.182141E-16
3.077277E+03	1.604416E-16	4.182141E-16
3.078277E+03	1.602121E-16	4.182141E-16
3.079077E+03	1.599704E-16	4.182141E-16
3.079477E+03	1.597287E-16	4.182141E-16
3.080477E+03	1.594629E-16	4.182141E-16
3.080677E+03	1.591850E-16	4.182141E-16
3.080877E+03	1.589071E-16	4.182141E-16
3.081077E+03	1.586171E-16	4.182141E-16
3.081277E+03	1.583271E-16	4.182141E-16
3.081877E+03	1.580250E-16	4.182141E-16
3.082077E+03	1.577229E-16	4.182141E-16
3.082477E+03	1.574087E-16	4.182141E-16
3.082677E+03	1.570946E-16	4.182141E-16
3.083077E+03	1.567683E-16	4.182141E-16
3.084677E+03	1.564300E-16	4.182141E-16
3.084877E+03	1.560917E-16	4.182141E-16
3.085477E+03	1.557533E-16	4.182141E-16
3.085877E+03	1.554271E-16	4.182141E-16
3.086077E+03	1.550767E-16	4.182141E-16
3.086677E+03	1.547263E-16	4.182141E-16
3.086877E+03	1.543275E-16	4.182141E-16
3.087077E+03	1.539650E-16	4.182141E-16
3.088277E+03	1.536267E-16	4.182141E-16
3.088477E+03	1.532400E-16	4.182141E-16
3.088677E+03	1.528896E-16	4.182141E-16
3.090278E+03	1.525029E-16	4.182141E-16
3.090478E+03	1.521284E-16	4.182141E-16
3.090878E+03	1.517175E-16	4.182141E-16
3.091078E+03	1.512825E-16	4.182141E-16
3.091678E+03	1.508354E-16	4.182141E-16
3.092878E+03	1.503763E-16	4.182141E-16
3.093078E+03	1.499655E-16	4.182141E-16
3.093278E+03	1.495063E-16	4.182141E-16
3.093878E+03	1.491438E-16	4.182141E-16
3.094078E+03	1.486725E-16	4.182141E-16
3.094478E+03	1.482496E-16	4.182141E-16
3.095077E+03	1.477905E-16	4.182141E-16
3.095477E+03	1.473071E-16	4.182141E-16
3.095677E+03	1.467876E-16	4.182141E-16
3.096677E+03	1.463646E-16	4.182141E-16
3.096877E+03	1.458813E-16	4.182141E-16
3.097077E+03	1.453738E-16	4.182141E-16
3.097277E+03	1.448421E-16	4.182141E-16
3.097477E+03	1.443588E-16	4.182141E-16
3.097677E+03	1.438151E-16	4.182141E-16
3.098078E+03	1.432592E-16	4.182141E-16
3.098678E+03	1.427276E-16	4.182141E-16
3.098878E+03	1.421476E-16	4.182141E-16
3.099478E+03	1.416038E-16	4.182141E-16
3.099678E+03	1.410722E-16	4.180932E-16
3.100078E+03	1.405284E-16	3.593685E-16
3.100278E+03	1.399968E-16	3.018884E-16
3.101478E+03	1.394047E-16	3.015501E-16
3.101678E+03	1.388005E-16	3.015622E-16
3.101878E+03	1.381722E-16	1.747725E-16
3.102278E+03	1.375439E-16	1.733708E-16
3.102478E+03	1.369276E-16	1.731292E-16
3.103478E+03	1.362872E-16	1.730325E-16
3.103678E+03	1.356468E-16	1.585447E-16
3.103878E+03	1.350064E-16	1.524184E-16
3.104078E+03	1.343660E-16	1.508476E-16
3.105479E+03	1.337255E-16	1.508476E-16
3.106079E+03	1.330851E-16	1.483222E-16
3.106878E+03	1.324326E-16	1.454826E-16
3.107079E+03	1.317681E-16	1.454464E-16
3.108478E+03	1.311156E-16	1.354052E-16
3.108878E+03	1.304510E-16	1.317198E-16
3.109278E+03	1.297743E-16	1.213765E-16
3.109478E+03	1.290976E-16	1.179268E-16
3.110278E+03	1.284210E-16	1.167341E-16
3.110478E+03	1.277443E-16	1.166169E-16
3.110678E+03	1.270797E-16	1.163922E-16
3.110878E+03	1.264152E-16	1.163813E-16
3.111078E+03	1.257023E-16	1.163825E-16
3.111278E+03	1.249773E-16	1.161795E-16
3.112278E+03	1.243006E-16	1.090347E-16
3.113079E+03	1.235635E-16	1.083894E-16
3.114279E+03	1.228748E-16	9.886662E-17
3.114479E+03	1.222102E-16	9.846304E-17
3.114679E+03	1.215214E-16	9.704326E-17
3.115479E+03	1.208109E-16	9.643305E-17
3.115679E+03	1.200449E-16	9.644876E-17
3.117079E+03	1.192993E-16	9.581439E-17
3.117679E+03	1.185538E-16	9.582647E-17
3.117879E+03	1.178203E-16	9.560534E-17
3.119278E+03	1.171098E-16	8.913959E-17
3.121079E+03	1.163196E-16	8.551703E-17
3.121279E+03	1.155656E-16	8.331183E-17
3.121479E+03	1.147681E-16	7.094583E-17
3.123679E+03	1.140020E-16	6.877568E-17
3.124879E+03	1.132142E-16	6.774981E-17
3.125079E+03	1.124481E-16	6.765073E-17
3.125479E+03	1.116760E-16	6.602432E-17
3.125679E+03	1.108954E-16	6.630344E-17
3.126879E+03	1.101064E-16	6.635056E-17
3.127079E+03	1.093113E-16	6.614636E-17
3.127479E+03	1.085090E-16	6.562436E-17
3.129480E+03	1.077006E-16	6.337929E-17
3.129680E+03	1.068850E-16	6.346266E-17
3.130480E+03	1.060621E-16	6.344333E-17
3.130680E+03	1.052296E-16	6.344937E-17
3.131079E+03	1.043886E-16	6.343607E-17
3.131680E+03	1.035403E-16	5.616921E-17
3.131880E+03	1.027054E-16	5.645437E-17
3.132079E+03	1.018330E-16	5.644953E-17
3.133279E+03	1.009630E-16	5.686761E-17
3.133679E+03	1.001715E-16	5.339851E-17
3.134479E+03	9.931481E-17	5.352901E-17
3.135280E+03	9.843152E-17	5.352659E-17
3.135480E+03	9.757482E-17	5.362688E-17
3.135680E+03	9.679061E-17	5.353263E-17
3.135880E+03	9.593149E-17	5.351088E-17
3.136080E+03	9.507721E-17	5.356525E-17
3.137280E+03	9.417821E-17	5.365225E-17
3.137480E+03	9.328405E-17	5.362445E-17
3.139680E+03	9.237539E-17	5.371024E-17
3.140080E+03	9.154285E-17	4.989435E-17
3.141480E+03	9.063902E-17	5.001397E-17
3.141880E+03	8.975453E-17	4.907631E-17
3.143081E+03	8.889661E-17	4.911739E-17
3.143680E+03	8.797587E-17	4.933972E-17
3.144081E+03	8.708533E-17	4.947868E-17
3.144480E+03	8.621171E-17	4.948955E-17
3.145080E+03	8.534897E-17	4.934455E-17
3.146080E+03	8.446689E-17	4.770243E-17
3.146280E+03	8.360777E-17	4.798397E-17
3.147080E+03	8.272448E-17	4.820388E-17
3.147280E+03	8.188469E-17	4.809997E-17
3.147680E+03	8.104007E-17	4.824980E-17
3.148280E+03	8.014470E-17	4.838996E-17
3.149680E+03	7.924692E-17	4.814104E-17
3.150081E+03	7.832738E-17	4.830175E-17
3.151081E+03	7.746826E-17	4.753809E-17
3.151281E+03	7.652456E-17	4.732058E-17
3.152081E+03	7.563281E-17	4.743296E-17
3.152481E+03	7.477490E-17	4.796703E-17
3.152681E+03	7.387349E-17	4.800207E-17
3.153681E+03	7.292495E-17	4.887327E-17
3.153881E+03	7.210087E-17	4.984477E-17
3.154081E+03	7.119462E-17	5.004776E-17
3.154481E+03	7.023280E-17	4.964056E-17
3.156480E+03	6.939059E-17	4.940493E-17
3.157080E+03	6.846622E-17	4.949797E-17
3.158881E+03	6.754064E-17	4.963451E-17
3.161481E+03	6.659815E-17	4.927322E-17
3.161681E+03	6.567620E-17	4.947742E-17
3.161881E+03	6.482674E-17	4.939405E-17
3.162081E+03	6.387821E-17	4.940613E-17
3.162881E+03	6.295263E-17	4.921159E-17
3.163481E+03	6.207176E-17	4.926596E-17
3.164081E+03	6.113530E-17	4.949071E-17
3.164281E+03	6.020006E-17	4.952575E-17
3.164481E+03	5.925756E-17	4.955958E-17
3.164882E+03	5.837911E-17	4.962966E-17
3.165482E+03	5.744024E-17	4.980607E-17
3.165882E+03	5.651829E-17	4.988945E-17
3.166082E+03	5.556250E-17	4.966591E-17
3.166282E+03	5.468284E-17	4.973115E-17
3.166482E+03	5.374638E-17	4.977344E-17
3.167082E+03	5.280389E-17	4.946774E-17
3.167682E+03	5.191577E-17	4.964898E-17
3.168081E+03	5.102765E-17	4.980486E-17
3.168282E+03	5.010932E-17	4.992085E-17
3.168881E+03	4.916199E-17	5.001631E-17
3.169481E+03	4.823762E-17	5.002960E-17
3.169681E+03	4.729633E-17	5.000906E-17
3.171281E+03	4.643842E-17	4.995227E-17
3.172282E+03	4.559864E-17	4.987372E-17
3.172482E+03	4.470085E-17	4.971664E-17
3.172882E+03	4.383206E-17	4.953418E-17
3.173482E+03	4.295965E-17	4.932514E-17
3.173682E+03	4.203407E-17	4.908589E-17
3.174282E+03	4.113628E-17	4.879468E-17
3.174482E+03	4.021433E-17	4.881885E-17
3.174882E+03	3.934917E-17	4.840923E-17
3.175082E+03	3.847796E-17	4.815910E-17
3.175682E+03	3.758018E-17	4.779177E-17
3.176482E+03	3.672710E-17	4.741719E-17
3.177082E+03	3.582569E-17	4.703415E-17
3.177282E+03	3.493636E-17	4.663781E-17
3.177482E+03	3.405065E-17	4.624027E-17
3.178082E+03	3.319878E-17	4.582219E-17
3.178282E+03	3.231429E-17	4.539203E-17
3.178882E+03	3.146604E-17	4.495340E-17
3.179481E+03	3.066251E-17	4.449786E-17
3.179682E+03	2.983601E-17	4.402299E-17
3.180282E+03	2.904576E-17	4.353966E-17
3.180482E+03	2.818544E-17	4.305512E-17
3.180882E+03	2.732027E-17	4.314212E-17
3.183282E+03	2.650465E-17	4.302612E-17
3.183482E+03	2.573132E-17	4.303699E-17
3.184482E+03	2.495558E-17	4.263341E-17
3.185282E+03	2.415446E-17	4.260683E-17
3.185682E+03	2.334609E-17	4.233616E-17
3.186482E+03	2.253651E-17	4.200508E-17
3.186682E+03	2.172330E-17	4.164379E-17
3.186882E+03	2.091493E-17	4.111333E-17
3.187483E+03	2.011260E-17	4.055509E-17
3.188083E+03	1.931632E-17	3.999684E-17
3.188683E+03	1.852365E-17	3.967663E-17
3.189083E+03	1.773824E-17	3.971288E-17
3.189283E+03	1.695887E-17	3.958601E-17
3.189483E+03	1.618554E-17	3.904709E-17
3.190083E+03	1.541825E-17	3.868459E-17
3.190283E+03	1.465821E-17	3.832934E-17
3.190683E+03	1.390543E-17	3.838734E-17
3.191083E+03	1.315868E-17	3.804780E-17
3.191283E+03	1.242160E-17	3.806230E-17
3.192082E+03	1.169201E-17	3.776868E-17
3.192282E+03	1.097125E-17	3.736510E-17
3.192483E+03	1.025918E-17	3.736872E-17
3.193082E+03	9.555812E-18	3.735301E-17
3.193682E+03	8.861749E-18	3.715606E-17
3.193882E+03	8.177715E-18	3.690352E-17
3.194683E+03	7.503348E-18	3.667877E-17
3.194883E+03	6.837922E-18	3.646127E-17
3.196083E+03	6.181680E-18	3.627035E-17
3.196283E+03	5.586821E-18	3.609031E-17
3.197483E+03	4.940970E-18	3.601540E-17
3.197683E+03	4.332698E-18	3.586556E-17
3.197883E+03	3.709322E-18	3.573144E-17
3.198083E+03	3.084859E-18	3.561302E-17
3.198483E+03	2.499183E-18	3.549340E-17
3.199083E+03	1.974769E-18	3.540398E-17
3.199283E+03	1.372780E-18	3.531940E-17
3.199883E+03	7.872130E-19	3.522273E-17
3.200283E+03	2.089439E-19	3.511036E-17
3.200483E+03	-3.163763E-19	3.499557E-17
3.200683E+03	-8.592776E-19	3.488923E-17
3.201483E+03	-1.396584E-18	3.474423E-17
3.202084E+03	-1.938157E-18	3.464878E-17
3.202884E+03	-2.374483E-18	3.449049E-17
3.203684E+03	-2.851168E-18	3.434911E-17
3.203883E+03	-3.357457E-18	3.423915E-17
3.204084E+03	-3.841876E-18	3.410986E-17
3.204284E+03	-4.310223E-18	3.367366E-17
3.204483E+03	-4.743650E-18	3.371716E-17
3.205083E+03	-5.218281E-18	3.343078E-17
3.205283E+03	-5.581383E-18	3.320483E-17
3.206083E+03	-6.017831E-18	3.295833E-17
3.206483E+03	-6.459475E-18	3.280366E-17
3.206883E+03	-6.851214E-18	3.257891E-17
3.207083E+03	-7.270745E-18	3.226717E-17
3.207283E+03	-7.678072E-18	3.190829E-17
3.207483E+03	-7.993566E-18	3.153854E-17
3.207883E+03	-8.335886E-18	3.119175E-17
3.208083E+03	-8.675425E-18	3.103226E-17
3.208283E+03	-9.024994E-18	3.078334E-17
3.208683E+03	-9.303876E-18	3.040634E-17
3.208883E+03	-9.593512E-18	3.020093E-17
3.209083E+03	-9.915048E-18	2.982635E-17
3.209284E+03	-1.022269E-17	2.943968E-17
3.209484E+03	-1.047112E-17	2.912189E-17
3.209684E+03	-1.072777E-17	2.886693E-17
3.210084E+03	-1.097125E-17	2.861319E-17
3.210284E+03	-1.120167E-17	2.840535E-17
3.210484E+03	-1.141917E-17	2.813469E-17
3.211284E+03	-1.162302E-17	2.783744E-17
3.211484E+03	-1.181442E-17	2.758490E-17
3.211684E+03	-1.199180E-17	2.732028E-17
3.211884E+03	-1.215456E-17	2.719944E-17
3.212084E+03	-1.230439E-17	2.704236E-17
3.212484E+03	-1.243852E-17	2.690099E-17
3.213284E+03	-1.256056E-17	2.676686E-17
3.213684E+03	-1.267293E-17	2.664482E-17
3.214284E+03	-1.276477E-17	2.638866E-17
3.214484E+03	-1.281552E-17	2.621708E-17
3.214684E+03	-1.286868E-17	2.605274E-17
3.214884E+03	-1.290372E-17	2.586424E-17
3.215883E+03	-1.289647E-17	2.566850E-17
3.216084E+03	-1.291822E-17	2.545583E-17
3.217084E+03	-1.290493E-17	2.541354E-17
3.217284E+03	-1.288560E-17	2.529754E-17
3.217884E+03	-1.286264E-17	2.526250E-17
3.218084E+03	-1.277443E-17	2.517912E-17
3.218284E+03	-1.264273E-17	2.526371E-17
3.219084E+03	-1.255331E-17	2.512596E-17
3.219284E+03	-1.242644E-17	2.499908E-17
3.220084E+03	-1.228144E-17	2.505708E-17
3.220284E+03	-1.213644E-17	2.506554E-17
3.220484E+03	-1.192087E-17	2.500150E-17
3.220684E+03	-1.173225E-17	2.500391E-17
3.221484E+03	-1.151318E-17	2.486737E-17
3.222484E+03	-1.132033E-17	2.480212E-17
3.222884E+03	-1.107553E-17	2.473808E-17
3.224085E+03	-1.081851E-17	2.477554E-17
3.224285E+03	-1.056960E-17	2.474533E-17
3.224885E+03	-1.029543E-17	2.482871E-17
3.226285E+03	-9.947069E-18	2.489758E-17
3.226485E+03	-9.618041E-18	2.495921E-17
3.226685E+03	-9.295660E-18	2.475741E-17
3.226885E+03	-8.958053E-18	2.476225E-17
3.227085E+03	-8.536226E-18	2.468733E-17
3.227285E+03	-8.122737E-18	2.471754E-17
3.227485E+03	-7.698614E-18	2.473566E-17
3.229084E+03	-7.247304E-18	2.477796E-17
3.229284E+03	-6.767719E-18	2.473446E-17
3.229484E+03	-6.275688E-18	2.469096E-17
3.229884E+03	-5.800574E-18	2.469821E-17
3.230084E+03	-5.238339E-18	2.474533E-17
3.230284E+03	-4.671755E-18	2.474291E-17
3.230484E+03	-4.132358E-18	2.475620E-17
3.230684E+03	-3.560577E-18	2.445412E-17
3.230884E+03	-2.975143E-18	2.448312E-17
3.231084E+03	-2.326513E-18	2.454837E-17
3.231685E+03	-1.672687E-18	2.457737E-17
3.231885E+03	-1.006645E-18	2.462812E-17
3.233085E+03	-3.342595E-19	2.468008E-17
3.233285E+03	3.853234E-19	2.469820E-17
3.233485E+03	1.097536E-18	2.471512E-17
3.234285E+03	1.833515E-18	2.477312E-17
3.234485E+03	2.603461E-18	2.482145E-17
3.234685E+03	3.435878E-18	2.477554E-17
3.236085E+03	4.252949E-18	2.482145E-17
3.237285E+03	5.110740E-18	2.482870E-17
3.237685E+03	5.998619E-18	2.483958E-17
3.237885E+03	6.915497E-18	2.485408E-17
3.238085E+03	7.820172E-18	2.464383E-17
3.238285E+03	8.749134E-18	2.467283E-17
3.238485E+03	9.701174E-18	2.440096E-17
3.239286E+03	1.067497E-17	2.443358E-17
3.239486E+03	1.169081E-17	2.432725E-17
3.239885E+03	1.275027E-17	2.407955E-17
3.240485E+03	1.379547E-17	2.405055E-17
3.240686E+03	1.488296E-17	2.406746E-17
3.240885E+03	1.600308E-17	2.406263E-17
3.242085E+03	1.714012E-17	2.410976E-17
3.242285E+03	1.831582E-17	2.417259E-17
3.242485E+03	1.949273E-17	2.414843E-17
3.242685E+03	2.070831E-17	2.417501E-17
3.244485E+03	2.194322E-17	2.421972E-17
3.244685E+03	2.323371E-17	2.371223E-17
3.244885E+03	2.452662E-17	2.339565E-17
3.245285E+03	2.584007E-17	2.328327E-17
3.245885E+03	2.719702E-17	2.249424E-17
3.246086E+03	2.858056E-17	2.150704E-17
3.246286E+03	3.001726E-17	2.133063E-17
3.246486E+03	3.147329E-17	2.131009E-17
3.247086E+03	3.291966E-17	2.127022E-17
3.247486E+03	3.440107E-17	2.130284E-17
3.247886E+03	3.591027E-17	2.128351E-17
3.248086E+03	3.745572E-17	2.118685E-17
3.248286E+03	3.901326E-17	2.108898E-17
3.248686E+03	4.059133E-17	2.093311E-17
3.248886E+03	4.220445E-17	2.091378E-17
3.249286E+03	4.387919E-17	2.080262E-17
3.249686E+03	4.557085E-17	2.069509E-17
3.250086E+03	3.964642E-17	2.055974E-17
3.250686E+03	3.414974E-17	2.055610E-17
3.250886E+03	3.452553E-17	2.055731E-17
3.251086E+03	3.558040E-17	2.058027E-17
3.251286E+03	2.822894E-17	2.038571E-17
3.251486E+03	2.816127E-17	2.010538E-17
3.251686E+03	2.915451E-17	1.985043E-17
3.251885E+03	3.005230E-17	1.962447E-17
3.252285E+03	2.842710E-17	1.941059E-17
3.252485E+03	2.757765E-17	1.927043E-17
3.252686E+03	2.743990E-17	1.913389E-17
3.252885E+03	2.790752E-17	1.900943E-17
3.253085E+03	2.754744E-17	1.889585E-17
3.253286E+03	2.712332E-17	1.879435E-17
3.253886E+03	2.752207E-17	1.869043E-17
3.254286E+03	2.626057E-17	1.858893E-17
3.255286E+03	2.568541E-17	1.848743E-17
3.255686E+03	2.441666E-17	1.838593E-17
3.255886E+03	2.385600E-17	1.828443E-17
3.256286E+03	2.367475E-17	1.817930E-17
3.256886E+03	2.422454E-17	1.807418E-17
3.257486E+03	2.485166E-17	1.797993E-17
3.257686E+03	2.518637E-17	1.790018E-17
3.258086E+03	2.559720E-17	1.781681E-17
3.258286E+03	2.623278E-17	1.773464E-17
3.258686E+03	2.529633E-17	1.765610E-17
3.259286E+03	2.524920E-17	1.757272E-17
3.259486E+03	2.412304E-17	1.749418E-17
3.259686E+03	2.414842E-17	1.748331E-17
3.259886E+03	2.391521E-17	1.742410E-17
3.260086E+03	2.386567E-17	1.733106E-17
3.260286E+03	2.402758E-17	1.723318E-17
3.260887E+03	2.391883E-17	1.711598E-17
3.261287E+03	2.422696E-17	1.699514E-17
3.261487E+03	2.472720E-17	1.687552E-17
3.262487E+03	2.385721E-17	1.679819E-17
3.262687E+03	2.324217E-17	1.665198E-17
3.262887E+03	2.287605E-17	1.647798E-17
3.263087E+03	2.162905E-17	1.629914E-17
3.263287E+03	2.117231E-17	1.610460E-17
3.263487E+03	2.092218E-17	1.586898E-17
3.264686E+03	2.127381E-17	1.575660E-17
3.264887E+03	2.088472E-17	1.564906E-17
3.265286E+03	2.084727E-17	1.553790E-17
3.265486E+03	2.096810E-17	1.542552E-17
3.265686E+03	2.092097E-17	1.530952E-17
3.265886E+03	2.072523E-17	1.519232E-17
3.266286E+03	2.025277E-17	1.506665E-17
3.266486E+03	2.048839E-17	1.493977E-17
3.266686E+03	2.065273E-17	1.481290E-17
3.266886E+03	2.055485E-17	1.468361E-17
3.267086E+03	2.055002E-17	1.455553E-17
3.268087E+03	1.964740E-17	1.443107E-17
3.268487E+03	1.963531E-17	1.431024E-17
3.268687E+03	1.987698E-17	1.382570E-17
3.268887E+03	1.973561E-17	1.361182E-17
3.269287E+03	1.911694E-17	1.342212E-17
3.269487E+03	1.920273E-17	1.334116E-17
3.270287E+03	1.932961E-17	1.326987E-17
3.270487E+03	1.932961E-17	1.318408E-17
3.270687E+03	1.947461E-17	1.338224E-17
3.271287E+03	1.958094E-17	1.292549E-17
3.271487E+03	1.957852E-17	1.259200E-17
3.272687E+03	1.967036E-17	1.248325E-17
3.273487E+03	1.977548E-17	1.248566E-17
3.273687E+03	1.957852E-17	1.250137E-17
3.274087E+03	1.888494E-17	1.260770E-17
3.274287E+03	1.875686E-17	1.256300E-17
3.274887E+03	1.840524E-17	1.213404E-17
3.275288E+03	1.830736E-17	1.215821E-17
3.275888E+03	1.848861E-17	1.217633E-17
3.276088E+03	1.846565E-17	1.204619E-17
3.276688E+03	1.864932E-17	1.206553E-17
3.277088E+03	1.873753E-17	1.213646E-17
3.277487E+03	1.823849E-17	1.215821E-17
3.277887E+03	1.831220E-17	1.225366E-17
3.278287E+03	1.826507E-17	1.227541E-17
3.278687E+03	1.833999E-17	1.248325E-17
