#wls	flux	fluxerr
1.600000E+03	1.551367E-16	1.543229E-16
1.640000E+03	1.603659E-16	1.569558E-16
1.680000E+03	1.654232E-16	1.591915E-16
1.720000E+03	1.702522E-16	1.609787E-16
1.760000E+03	1.748086E-16	1.622820E-16
1.800000E+03	1.790265E-16	1.630495E-16
1.840000E+03	1.828528E-16	1.632467E-16
1.880000E+03	1.862308E-16	1.628407E-16
1.920000E+03	1.890848E-16	1.617875E-16
1.960000E+03	1.913545E-16	1.600633E-16
2.000000E+03	1.929799E-16	1.576505E-16
2.040000E+03	1.939025E-16	1.545392E-16
2.080000E+03	1.940531E-16	1.507178E-16
2.120000E+03	1.933847E-16	1.461988E-16
2.160000E+03	1.918323E-16	1.409879E-16
2.200000E+03	1.893472E-16	1.351098E-16
2.240000E+03	1.858532E-16	1.285766E-16
2.280000E+03	1.813072E-16	1.214318E-16
2.320000E+03	1.758130E-16	1.138195E-16
2.360000E+03	1.695132E-16	1.059012E-16
2.400000E+03	1.625223E-16	9.780990E-17
2.440000E+03	1.549341E-16	8.965720E-17
2.480000E+03	1.468364E-16	8.154353E-17
2.520000E+03	1.383276E-16	7.356696E-17
2.560000E+03	1.294958E-16	6.581105E-17
2.600000E+03	1.204447E-16	5.835828E-17
2.640000E+03	1.112694E-16	5.127627E-17
2.680000E+03	1.020602E-16	4.462049E-17
2.720000E+03	9.291913E-17	3.844117E-17
2.760000E+03	8.393772E-17	3.277296E-17
2.800000E+03	7.520533E-17	2.763917E-17
2.840000E+03	6.680508E-17	2.305054E-17
2.880000E+03	5.881644E-17	1.900687E-17
2.920000E+03	5.131910E-17	1.549883E-17
2.960000E+03	4.438788E-17	1.250704E-17
3.000000E+03	3.807468E-17	9.998552E-18
3.010000E+03	3.659632E-17	9.441920E-18
3.020000E+03	3.515987E-17	8.912360E-18
3.030000E+03	3.376346E-17	8.408573E-18
3.040000E+03	3.240775E-17	7.929919E-18
3.050000E+03	3.109392E-17	7.475871E-18
3.060000E+03	2.982019E-17	7.045192E-18
3.070000E+03	2.858756E-17	6.637322E-18
3.080000E+03	2.739555E-17	6.251360E-18
3.090000E+03	2.624366E-17	5.886416E-18
3.100000E+03	2.513140E-17	5.541618E-18
3.110000E+03	2.405922E-17	5.216319E-18
3.120000E+03	2.302594E-17	4.909532E-18
3.130000E+03	2.203135E-17	4.620504E-18
3.140000E+03	2.107472E-17	4.348389E-18
3.150000E+03	2.015528E-17	4.092366E-18
3.160000E+03	1.927262E-17	3.851709E-18
3.170000E+03	1.842621E-17	3.625694E-18
3.180000E+03	1.761448E-17	3.413417E-18
3.190000E+03	1.683749E-17	3.214328E-18
3.200000E+03	1.609395E-17	3.027637E-18
3.210000E+03	1.538315E-17	2.852698E-18
3.220000E+03	1.470406E-17	2.688834E-18
3.230000E+03	1.405543E-17	2.535354E-18
3.240000E+03	1.343694E-17	2.391769E-18
3.250000E+03	1.284685E-17	2.257360E-18
3.260000E+03	1.228478E-17	2.131677E-18
3.270000E+03	1.174965E-17	2.014174E-18
3.280000E+03	1.124005E-17	1.904270E-18
3.290000E+03	1.075549E-17	1.801572E-18
3.300000E+03	1.029461E-17	1.705557E-18
3.310000E+03	9.856572E-18	1.615818E-18
3.320000E+03	9.440405E-18	1.531942E-18
3.330000E+03	9.045284E-18	1.453563E-18
3.340000E+03	8.670134E-18	1.380294E-18
3.350000E+03	8.314057E-18	1.311791E-18
3.360000E+03	7.976183E-18	1.247736E-18
3.370000E+03	7.655772E-18	1.187845E-18
3.380000E+03	7.351897E-18	1.131820E-18
3.390000E+03	7.063776E-18	1.079399E-18
3.400000E+03	6.790654E-18	1.030337E-18
3.410000E+03	6.531727E-18	9.843964E-19
3.420000E+03	6.286312E-18	9.413657E-19
3.430000E+03	6.053758E-18	9.010499E-19
3.440000E+03	5.833367E-18	8.632568E-19
3.450000E+03	5.624552E-18	8.278190E-19
3.460000E+03	5.426686E-18	7.945715E-19
3.470000E+03	5.239179E-18	7.633622E-19
3.480000E+03	5.061479E-18	7.340510E-19
3.490000E+03	4.893007E-18	7.065008E-19
3.500000E+03	4.733334E-18	6.806013E-19
3.510000E+03	4.581947E-18	6.562354E-19
3.520000E+03	4.438323E-18	6.332890E-19
3.530000E+03	4.301932E-18	6.116521E-19
3.540000E+03	4.172423E-18	5.912434E-19
3.550000E+03	4.049337E-18	5.719697E-19
3.560000E+03	3.932173E-18	5.537355E-19
3.570000E+03	3.820591E-18	5.364708E-19
3.580000E+03	3.714240E-18	5.201061E-19
3.590000E+03	3.612756E-18	5.045730E-19
3.600000E+03	3.515776E-18	4.898047E-19
3.610000E+03	3.423092E-18	4.757583E-19
3.620000E+03	3.334445E-18	4.623849E-19
3.630000E+03	3.249590E-18	4.496394E-19
3.640000E+03	3.168444E-18	4.374997E-19
3.650000E+03	3.090832E-18	4.259326E-19
3.660000E+03	3.016612E-18	4.149099E-19
3.670000E+03	2.945670E-18	4.044086E-19
3.680000E+03	2.877893E-18	3.944061E-19
3.690000E+03	2.813143E-18	3.848772E-19
3.700000E+03	2.751356E-18	3.758075E-19
3.710000E+03	2.692373E-18	3.671700E-19
3.720000E+03	2.636108E-18	3.589482E-19
3.730000E+03	2.582497E-18	3.511290E-19
3.740000E+03	2.531367E-18	3.436851E-19
3.750000E+03	2.482701E-18	3.366101E-19
3.760000E+03	2.436333E-18	3.298787E-19
3.770000E+03	2.392225E-18	3.234825E-19
3.780000E+03	2.350282E-18	3.174056E-19
3.790000E+03	2.310408E-18	3.116327E-19
3.800000E+03	2.272532E-18	3.061518E-19
3.810000E+03	2.236567E-18	3.009489E-19
3.820000E+03	2.202445E-18	2.960129E-19
3.830000E+03	2.170102E-18	2.913334E-19
3.840000E+03	2.139460E-18	2.868981E-19
3.850000E+03	2.110459E-18	2.826974E-19
3.860000E+03	2.083043E-18	2.787223E-19
3.870000E+03	2.057141E-18	2.749620E-19
3.880000E+03	2.032702E-18	2.714084E-19
3.890000E+03	2.009676E-18	2.680536E-19
3.900000E+03	1.988001E-18	2.648882E-19
3.910000E+03	1.967632E-18	2.619052E-19
3.920000E+03	1.948510E-18	2.590959E-19
3.930000E+03	1.930611E-18	2.564560E-19
3.940000E+03	1.913880E-18	2.539773E-19
3.950000E+03	1.898279E-18	2.516542E-19
3.960000E+03	1.883745E-18	2.494772E-19
3.970000E+03	1.870273E-18	2.474451E-19
3.980000E+03	1.857800E-18	2.455490E-19
3.990000E+03	1.846297E-18	2.437841E-19
4.000000E+03	1.835721E-18	2.421440E-19
4.010000E+03	1.826057E-18	2.406263E-19
4.020000E+03	1.817250E-18	2.392232E-19
4.030000E+03	1.809289E-18	2.379325E-19
4.040000E+03	1.802123E-18	2.367469E-19
4.050000E+03	1.795741E-18	2.356646E-19
4.060000E+03	1.790096E-18	2.346786E-19
4.070000E+03	1.785165E-18	2.337857E-19
4.080000E+03	1.780930E-18	2.329829E-19
4.090000E+03	1.777372E-18	2.322672E-19
4.100000E+03	1.774445E-18	2.316324E-19
4.110000E+03	1.772134E-18	2.310759E-19
4.120000E+03	1.770408E-18	2.305935E-19
4.130000E+03	1.769254E-18	2.301830E-19
4.140000E+03	1.768656E-18	2.298422E-19
4.150000E+03	1.768575E-18	2.295657E-19
4.160000E+03	1.769012E-18	2.293534E-19
4.170000E+03	1.769929E-18	2.292001E-19
4.180000E+03	1.771314E-18	2.291041E-19
4.190000E+03	1.773158E-18	2.290641E-19
4.200000E+03	1.775424E-18	2.290751E-19
4.210000E+03	1.778104E-18	2.291361E-19
4.220000E+03	1.781176E-18	2.292440E-19
4.230000E+03	1.784645E-18	2.293996E-19
4.240000E+03	1.788466E-18	2.295969E-19
4.250000E+03	1.792644E-18	2.298366E-19
4.260000E+03	1.797147E-18	2.301146E-19
4.270000E+03	1.801983E-18	2.304320E-19
4.280000E+03	1.807106E-18	2.307829E-19
4.290000E+03	1.812512E-18	2.311668E-19
4.300000E+03	1.818197E-18	2.315833E-19
4.310000E+03	1.824115E-18	2.320267E-19
4.320000E+03	1.830276E-18	2.324985E-19
4.330000E+03	1.836621E-18	2.329913E-19
4.340000E+03	1.843160E-18	2.335068E-19
4.350000E+03	1.849819E-18	2.340355E-19
4.360000E+03	1.856594E-18	2.345776E-19
4.370000E+03	1.863527E-18	2.351383E-19
4.380000E+03	1.870615E-18	2.357180E-19
4.390000E+03	1.877873E-18	2.363185E-19
4.400000E+03	1.885300E-18	2.369403E-19
4.410000E+03	1.892868E-18	2.375798E-19
4.420000E+03	1.900607E-18	2.382415E-19
4.430000E+03	1.908488E-18	2.389218E-19
4.440000E+03	1.916514E-18	2.396214E-19
4.450000E+03	1.924673E-18	2.403391E-19
4.460000E+03	1.932968E-18	2.410754E-19
4.470000E+03	1.941372E-18	2.418272E-19
4.480000E+03	1.949907E-18	2.425973E-19
4.490000E+03	1.958546E-18	2.433825E-19
4.500000E+03	1.967280E-18	2.441818E-19
4.510000E+03	1.976132E-18	2.449979E-19
4.520000E+03	1.985064E-18	2.458259E-19
4.530000E+03	1.994084E-18	2.466667E-19
4.540000E+03	2.003203E-18	2.475214E-19
4.550000E+03	2.012399E-18	2.483870E-19
4.560000E+03	2.021684E-18	2.492645E-19
4.570000E+03	2.031038E-18	2.501511E-19
4.580000E+03	2.040475E-18	2.510480E-19
4.590000E+03	2.049992E-18	2.519544E-19
4.600000E+03	2.059590E-18	2.528696E-19
4.610000E+03	2.069248E-18	2.537907E-19
4.620000E+03	2.079003E-18	2.547213E-19
4.630000E+03	2.088819E-18	2.556567E-19
4.640000E+03	2.098715E-18	2.565984E-19
4.650000E+03	2.108692E-18	2.575460E-19
4.660000E+03	2.118733E-18	2.584968E-19
4.670000E+03	2.128878E-18	2.594550E-19
4.680000E+03	2.139092E-18	2.604157E-19
4.690000E+03	2.149396E-18	2.613810E-19
4.700000E+03	2.159831E-18	2.623552E-19
4.710000E+03	2.170382E-18	2.633360E-19
4.720000E+03	2.181074E-18	2.643257E-19
4.730000E+03	2.191929E-18	2.653266E-19
4.740000E+03	2.202954E-18	2.663390E-19
4.750000E+03	2.214155E-18	2.673630E-19
4.760000E+03	2.225577E-18	2.684038E-19
4.770000E+03	2.237189E-18	2.694570E-19
4.780000E+03	2.249037E-18	2.705279E-19
4.790000E+03	2.261130E-18	2.716170E-19
4.800000E+03	2.273455E-18	2.727228E-19
4.810000E+03	2.286062E-18	2.738508E-19
4.820000E+03	2.298940E-18	2.749994E-19
4.830000E+03	2.312098E-18	2.761698E-19
4.840000E+03	2.325546E-18	2.773628E-19
4.850000E+03	2.339295E-18	2.785796E-19
4.860000E+03	2.353396E-18	2.798266E-19
4.870000E+03	2.367798E-18	2.810975E-19
4.880000E+03	2.382554E-18	2.823985E-19
4.890000E+03	2.397653E-18	2.837287E-19
4.900000E+03	2.413129E-18	2.850919E-19
4.910000E+03	2.428971E-18	2.864872E-19
4.920000E+03	2.445191E-18	2.879158E-19
4.930000E+03	2.461823E-18	2.893821E-19
4.940000E+03	2.478833E-18	2.908820E-19
4.950000E+03	2.496255E-18	2.924198E-19
4.960000E+03	2.514101E-18	2.939969E-19
4.970000E+03	2.532381E-18	2.956148E-19
4.980000E+03	2.551083E-18	2.972721E-19
4.990000E+03	2.570217E-18	2.989702E-19
5.000000E+03	2.589817E-18	3.007132E-19
5.010000E+03	2.609846E-18	3.024968E-19
5.020000E+03	2.630360E-18	3.043282E-19
5.030000E+03	2.651320E-18	3.062028E-19
5.040000E+03	2.672735E-18	3.081221E-19
5.050000E+03	2.694637E-18	3.100901E-19
5.060000E+03	2.717009E-18	3.121055E-19
5.070000E+03	2.739859E-18	3.141695E-19
5.080000E+03	2.763167E-18	3.162806E-19
5.090000E+03	2.786965E-18	3.184434E-19
5.100000E+03	2.811260E-18	3.206594E-19
5.110000E+03	2.836003E-18	3.229242E-19
5.120000E+03	2.861226E-18	3.252427E-19
5.130000E+03	2.886934E-18	3.276167E-19
5.140000E+03	2.913132E-18	3.300483E-19
5.150000E+03	2.939794E-18	3.325367E-19
5.160000E+03	2.966925E-18	3.350841E-19
5.170000E+03	2.994498E-18	3.376899E-19
5.180000E+03	3.022572E-18	3.403633E-19
5.190000E+03	3.051093E-18	3.431007E-19
5.200000E+03	3.080061E-18	3.459053E-19
5.210000E+03	3.109476E-18	3.487802E-19
5.220000E+03	3.139369E-18	3.517324E-19
5.230000E+03	3.169679E-18	3.547588E-19
5.240000E+03	3.200402E-18	3.578630E-19
5.250000E+03	3.231599E-18	3.610559E-19
5.260000E+03	3.263173E-18	3.643312E-19
5.270000E+03	3.295181E-18	3.676998E-19
5.280000E+03	3.327587E-18	3.711625E-19
5.290000E+03	3.360382E-18	3.747232E-19
5.300000E+03	3.393592E-18	3.783899E-19
5.310000E+03	3.427140E-18	3.821592E-19
5.320000E+03	3.461047E-18	3.860386E-19
5.330000E+03	3.495300E-18	3.900320E-19
5.340000E+03	3.529884E-18	3.941428E-19
5.350000E+03	3.564817E-18	3.983784E-19
5.360000E+03	3.600009E-18	4.027339E-19
5.370000E+03	3.635475E-18	4.072160E-19
5.380000E+03	3.671190E-18	4.118270E-19
5.390000E+03	3.707092E-18	4.165648E-19
5.400000E+03	3.743224E-18	4.214390E-19
5.410000E+03	3.779521E-18	4.264468E-19
5.420000E+03	3.815910E-18	4.315844E-19
5.430000E+03	3.852353E-18	4.368516E-19
5.440000E+03	3.888850E-18	4.422522E-19
5.450000E+03	3.925279E-18	4.477762E-19
5.460000E+03	3.961633E-18	4.534261E-19
5.470000E+03	3.997864E-18	4.591995E-19
5.480000E+03	4.033839E-18	4.650841E-19
5.490000E+03	4.069502E-18	4.710758E-19
5.500000E+03	4.104834E-18	4.771747E-19
5.510000E+03	4.139733E-18	4.833708E-19
5.520000E+03	4.174094E-18	4.896534E-19
5.530000E+03	4.207804E-18	4.960107E-19
5.540000E+03	4.240880E-18	5.024455E-19
5.550000E+03	4.273119E-18	5.089346E-19
5.560000E+03	4.304491E-18	5.154745E-19
5.570000E+03	4.334875E-18	5.220508E-19
5.580000E+03	4.364193E-18	5.286539E-19
5.590000E+03	4.392367E-18	5.352737E-19
5.600000E+03	4.419274E-18	5.418942E-19
5.610000E+03	4.444881E-18	5.485100E-19
5.620000E+03	4.469064E-18	5.551045E-19
5.630000E+03	4.491703E-18	5.616604E-19
5.640000E+03	4.512815E-18	5.681777E-19
5.650000E+03	4.532285E-18	5.746389E-19
5.660000E+03	4.549999E-18	5.810264E-19
5.670000E+03	4.565939E-18	5.873341E-19
5.680000E+03	4.580095E-18	5.935565E-19
5.690000E+03	4.592320E-18	5.996696E-19
5.700000E+03	4.602612E-18	6.056677E-19
5.710000E+03	4.610978E-18	6.115456E-19
5.720000E+03	4.617333E-18	6.172856E-19
5.730000E+03	4.621699E-18	6.228827E-19
5.740000E+03	4.624003E-18	6.283192E-19
5.750000E+03	4.624279E-18	6.335905E-19
5.760000E+03	4.622518E-18	6.386857E-19
5.770000E+03	4.618768E-18	6.436010E-19
5.780000E+03	4.612935E-18	6.483122E-19
5.790000E+03	4.605182E-18	6.528296E-19
5.800000E+03	4.595426E-18	6.571295E-19
5.810000E+03	4.583745E-18	6.612090E-19
5.820000E+03	4.570171E-18	6.650590E-19
5.830000E+03	4.554744E-18	6.686704E-19
5.840000E+03	4.537557E-18	6.720423E-19
5.850000E+03	4.518663E-18	6.751668E-19
5.860000E+03	4.498117E-18	6.780369E-19
5.870000E+03	4.475933E-18	6.806385E-19
5.880000E+03	4.452276E-18	6.829808E-19
5.890000E+03	4.427167E-18	6.850516E-19
5.900000E+03	4.400730E-18	6.868542E-19
5.910000E+03	4.372992E-18	6.883779E-19
5.920000E+03	4.344083E-18	6.896282E-19
5.930000E+03	4.314084E-18	6.906039E-19
5.940000E+03	4.283077E-18	6.913046E-19
5.950000E+03	4.251147E-18	6.917310E-19
5.960000E+03	4.218376E-18	6.918846E-19
5.970000E+03	4.184897E-18	6.917760E-19
5.980000E+03	4.150693E-18	6.913925E-19
5.990000E+03	4.115944E-18	6.907544E-19
6.000000E+03	4.080679E-18	6.898587E-19
6.010000E+03	4.044977E-18	6.887110E-19
6.020000E+03	4.008960E-18	6.873260E-19
6.030000E+03	3.972605E-18	6.856945E-19
6.040000E+03	3.936077E-18	6.838402E-19
6.050000E+03	3.899350E-18	6.817551E-19
6.060000E+03	3.862534E-18	6.794557E-19
6.070000E+03	3.825691E-18	6.769509E-19
6.080000E+03	3.788834E-18	6.742419E-19
6.090000E+03	3.752017E-18	6.713379E-19
6.100000E+03	3.715294E-18	6.682485E-19
6.110000E+03	3.678715E-18	6.649837E-19
6.120000E+03	3.642325E-18	6.615531E-19
6.130000E+03	3.606168E-18	6.579667E-19
6.140000E+03	3.570286E-18	6.542343E-19
6.150000E+03	3.534715E-18	6.503657E-19
6.160000E+03	3.499535E-18	6.463789E-19
6.170000E+03	3.464821E-18	6.422917E-19
6.180000E+03	3.430647E-18	6.381215E-19
6.190000E+03	3.397037E-18	6.338777E-19
6.200000E+03	3.364014E-18	6.295689E-19
6.210000E+03	3.331555E-18	6.251956E-19
6.220000E+03	3.299679E-18	6.207663E-19
6.230000E+03	3.268403E-18	6.162889E-19
6.240000E+03	3.237697E-18	6.117630E-19
6.250000E+03	3.207619E-18	6.072043E-19
6.260000E+03	3.178265E-18	6.026362E-19
6.270000E+03	3.149601E-18	5.980574E-19
6.280000E+03	3.121678E-18	5.934824E-19
6.290000E+03	3.094585E-18	5.889336E-19
6.300000E+03	3.068285E-18	5.844084E-19
6.310000E+03	3.042908E-18	5.799368E-19
6.320000E+03	3.018498E-18	5.755316E-19
6.330000E+03	2.995012E-18	5.711895E-19
6.340000E+03	2.972577E-18	5.669390E-19
6.350000E+03	2.951234E-18	5.627924E-19
6.360000E+03	2.930981E-18	5.587532E-19
6.370000E+03	2.911859E-18	5.548329E-19
6.380000E+03	2.893992E-18	5.510590E-19
6.390000E+03	2.877335E-18	5.474263E-19
6.400000E+03	2.861928E-18	5.439455E-19
6.410000E+03	2.847855E-18	5.406352E-19
6.420000E+03	2.834988E-18	5.374737E-19
6.430000E+03	2.823240E-18	5.344473E-19
6.440000E+03	2.812568E-18	5.315499E-19
6.450000E+03	2.802929E-18	5.287756E-19
6.460000E+03	2.794237E-18	5.261102E-19
6.470000E+03	2.786491E-18	5.235554E-19
6.480000E+03	2.779648E-18	5.211047E-19
6.490000E+03	2.773707E-18	5.187596E-19
6.500000E+03	2.768623E-18	5.165134E-19
6.510000E+03	2.764396E-18	5.143673E-19
6.520000E+03	2.761026E-18	5.123224E-19
6.530000E+03	2.758467E-18	5.103715E-19
6.540000E+03	2.756762E-18	5.085237E-19
6.550000E+03	2.755911E-18	5.067797E-19
6.560000E+03	2.755871E-18	5.051320E-19
6.570000E+03	2.756683E-18	5.035894E-19
6.580000E+03	2.758305E-18	5.021443E-19
6.590000E+03	2.760735E-18	5.007971E-19
6.600000E+03	2.764020E-18	4.995563E-19
6.610000E+03	2.768068E-18	4.984059E-19
6.620000E+03	2.773017E-18	4.973705E-19
6.630000E+03	2.778730E-18	4.964258E-19
6.640000E+03	2.785300E-18	4.955884E-19
6.650000E+03	2.792682E-18	4.948500E-19
6.660000E+03	2.800877E-18	4.942107E-19
6.670000E+03	2.809935E-18	4.936787E-19
6.680000E+03	2.819808E-18	4.932457E-19
6.690000E+03	2.830500E-18	4.929116E-19
6.700000E+03	2.842013E-18	4.926761E-19
6.710000E+03	2.854396E-18	4.925475E-19
6.720000E+03	2.867556E-18	4.925088E-19
6.730000E+03	2.881592E-18	4.925766E-19
6.740000E+03	2.896459E-18	4.927422E-19
6.750000E+03	2.912159E-18	4.930052E-19
6.760000E+03	2.928695E-18	4.933654E-19
6.770000E+03	2.946071E-18	4.938224E-19
6.780000E+03	2.964342E-18	4.943844E-19
6.790000E+03	2.983408E-18	4.950338E-19
6.800000E+03	3.003324E-18	4.957788E-19
6.810000E+03	3.024093E-18	4.966189E-19
6.820000E+03	3.045719E-18	4.975538E-19
6.830000E+03	3.068207E-18	4.985828E-19
6.840000E+03	3.091560E-18	4.997057E-19
6.850000E+03	3.115782E-18	5.009218E-19
6.860000E+03	3.140821E-18	5.022215E-19
6.870000E+03	3.166735E-18	5.036133E-19
6.880000E+03	3.193530E-18	5.050969E-19
6.890000E+03	3.221150E-18	5.066621E-19
6.900000E+03	3.249657E-18	5.083179E-19
6.910000E+03	3.279056E-18	5.100637E-19
6.920000E+03	3.309288E-18	5.118893E-19
6.930000E+03	3.340355E-18	5.137942E-19
6.940000E+03	3.372323E-18	5.157872E-19
6.950000E+03	3.405132E-18	5.178582E-19
6.960000E+03	3.438782E-18	5.200064E-19
6.970000E+03	3.473343E-18	5.222412E-19
6.980000E+03	3.508749E-18	5.245521E-19
6.990000E+03	3.545004E-18	5.269384E-19
7.000000E+03	3.582039E-18	5.293893E-19
7.010000E+03	3.619992E-18	5.319246E-19
7.020000E+03	3.658797E-18	5.345336E-19
7.030000E+03	3.698454E-18	5.372158E-19
7.040000E+03	3.738891E-18	5.399599E-19
7.050000E+03	3.780181E-18	5.427760E-19
7.060000E+03	3.822247E-18	5.456527E-19
7.070000E+03	3.865242E-18	5.486112E-19
7.080000E+03	3.908934E-18	5.516182E-19
7.090000E+03	3.953476E-18	5.546950E-19
7.100000E+03	3.998788E-18	5.578301E-19
7.110000E+03	4.044947E-18	5.610341E-19
7.120000E+03	4.091787E-18	5.642838E-19
7.130000E+03	4.139470E-18	5.676015E-19
7.140000E+03	4.187823E-18	5.709634E-19
7.150000E+03	4.236924E-18	5.743806E-19
7.160000E+03	4.286769E-18	5.778525E-19
7.170000E+03	4.337353E-18	5.813787E-19
7.180000E+03	4.388577E-18	5.849466E-19
7.190000E+03	4.440432E-18	5.885555E-19
7.200000E+03	4.493002E-18	5.922172E-19
7.210000E+03	4.546183E-18	5.959188E-19
7.220000E+03	4.600061E-18	5.996725E-19
7.230000E+03	4.654430E-18	6.034525E-19
7.240000E+03	4.709474E-18	6.072840E-19
7.250000E+03	4.765081E-18	6.111540E-19
7.260000E+03	4.821237E-18	6.150622E-19
7.270000E+03	4.877927E-18	6.190085E-19
7.280000E+03	4.935136E-18	6.229927E-19
7.290000E+03	4.992846E-18	6.270148E-19
7.300000E+03	5.051152E-18	6.310888E-19
7.310000E+03	5.109815E-18	6.351872E-19
7.320000E+03	5.169155E-18	6.393523E-19
7.330000E+03	5.229048E-18	6.435710E-19
7.340000E+03	5.289358E-18	6.478293E-19
7.350000E+03	5.350428E-18	6.521717E-19
7.360000E+03	5.412008E-18	6.565701E-19
7.370000E+03	5.474454E-18	6.610704E-19
7.380000E+03	5.537642E-18	6.656595E-19
7.390000E+03	5.601694E-18	6.703544E-19
7.400000E+03	5.666742E-18	6.751727E-19
7.410000E+03	5.732792E-18	6.801169E-19
7.420000E+03	5.800122E-18	6.852212E-19
7.430000E+03	5.868890E-18	6.905049E-19
7.440000E+03	5.938981E-18	6.959553E-19
7.450000E+03	6.010417E-18	7.015750E-19
7.460000E+03	6.083218E-18	7.073663E-19
7.470000E+03	6.157257E-18	7.133142E-19
7.480000E+03	6.232400E-18	7.194024E-19
7.490000E+03	6.308502E-18	7.256133E-19
7.500000E+03	6.385562E-18	7.319456E-19
7.510000E+03	6.463423E-18	7.383796E-19
7.520000E+03	6.541918E-18	7.448940E-19
7.530000E+03	6.621191E-18	7.515030E-19
7.540000E+03	6.700905E-18	7.581653E-19
7.550000E+03	6.781034E-18	7.648749E-19
7.560000E+03	6.861550E-18	7.716255E-19
7.570000E+03	6.942426E-18	7.784104E-19
7.580000E+03	7.023633E-18	7.852227E-19
7.590000E+03	7.104963E-18	7.920356E-19
7.600000E+03	7.186375E-18	7.988412E-19
7.610000E+03	7.268010E-18	8.056520E-19
7.620000E+03	7.349648E-18	8.124405E-19
7.630000E+03	7.431430E-18	8.192199E-19
7.640000E+03	7.512936E-18	8.259415E-19
7.650000E+03	7.594495E-18	8.326401E-19
7.660000E+03	7.675867E-18	8.392880E-19
7.670000E+03	7.756997E-18	8.458785E-19
7.680000E+03	7.837830E-18	8.524052E-19
7.690000E+03	7.918512E-18	8.588841E-19
7.700000E+03	7.998781E-18	8.652875E-19
7.710000E+03	8.078576E-18	8.716093E-19
7.720000E+03	8.158045E-18	8.778666E-19
7.730000E+03	8.237130E-18	8.840542E-19
7.740000E+03	8.315550E-18	8.901432E-19
7.750000E+03	8.393457E-18	8.961515E-19
7.760000E+03	8.470788E-18	9.020734E-19
