#wls	flux	fluxerr
1.600000E+03	1.550222E-16	1.542297E-16
1.640000E+03	1.602510E-16	1.568653E-16
1.680000E+03	1.653089E-16	1.591046E-16
1.720000E+03	1.701393E-16	1.608963E-16
1.760000E+03	1.746981E-16	1.622049E-16
1.800000E+03	1.789195E-16	1.629787E-16
1.840000E+03	1.827503E-16	1.631831E-16
1.880000E+03	1.861341E-16	1.627851E-16
1.920000E+03	1.889951E-16	1.617408E-16
1.960000E+03	1.912732E-16	1.600262E-16
2.000000E+03	1.929082E-16	1.576236E-16
2.040000E+03	1.938417E-16	1.545231E-16
2.080000E+03	1.940045E-16	1.507129E-16
2.120000E+03	1.933494E-16	1.462054E-16
2.160000E+03	1.918113E-16	1.410059E-16
2.200000E+03	1.893413E-16	1.351390E-16
2.240000E+03	1.858630E-16	1.286166E-16
2.280000E+03	1.813331E-16	1.214818E-16
2.320000E+03	1.758551E-16	1.138787E-16
2.360000E+03	1.695712E-16	1.059684E-16
2.400000E+03	1.625957E-16	9.788386E-17
2.440000E+03	1.550221E-16	8.973657E-17
2.480000E+03	1.469380E-16	8.162684E-17
2.520000E+03	1.384414E-16	7.365269E-17
2.560000E+03	1.296202E-16	6.589769E-17
2.600000E+03	1.205780E-16	5.844435E-17
2.640000E+03	1.114095E-16	5.136036E-17
2.680000E+03	1.022050E-16	4.470132E-17
2.720000E+03	9.306650E-17	3.851760E-17
2.760000E+03	8.408539E-17	3.284405E-17
2.800000E+03	7.535106E-17	2.770420E-17
2.840000E+03	6.694674E-17	2.310900E-17
2.880000E+03	5.895201E-17	1.905847E-17
2.920000E+03	5.144679E-17	1.554356E-17
2.960000E+03	4.450619E-17	1.254509E-17
3.000000E+03	3.818244E-17	1.003033E-17
3.010000E+03	3.670131E-17	9.472209E-18
3.020000E+03	3.526205E-17	8.941197E-18
3.030000E+03	3.386278E-17	8.435997E-18
3.040000E+03	3.250420E-17	7.955970E-18
3.050000E+03	3.118747E-17	7.500591E-18
3.060000E+03	2.991084E-17	7.068623E-18
3.070000E+03	2.867529E-17	6.659510E-18
3.080000E+03	2.748036E-17	6.272348E-18
3.090000E+03	2.632557E-17	5.906250E-18
3.100000E+03	2.521042E-17	5.560343E-18
3.110000E+03	2.413538E-17	5.233982E-18
3.120000E+03	2.309928E-17	4.926179E-18
3.130000E+03	2.210191E-17	4.636180E-18
3.140000E+03	2.114255E-17	4.363141E-18
3.150000E+03	2.022043E-17	4.106239E-18
3.160000E+03	1.933515E-17	3.864747E-18
3.170000E+03	1.848619E-17	3.637941E-18
3.180000E+03	1.767197E-17	3.424914E-18
3.190000E+03	1.689257E-17	3.225117E-18
3.200000E+03	1.614670E-17	3.037758E-18
3.210000E+03	1.543364E-17	2.862190E-18
3.220000E+03	1.475238E-17	2.697734E-18
3.230000E+03	1.410165E-17	2.543698E-18
3.240000E+03	1.348114E-17	2.399592E-18
3.250000E+03	1.288912E-17	2.264694E-18
3.260000E+03	1.232520E-17	2.138554E-18
3.270000E+03	1.178830E-17	2.020622E-18
3.280000E+03	1.127701E-17	1.910319E-18
3.290000E+03	1.079083E-17	1.807247E-18
3.300000E+03	1.032840E-17	1.710884E-18
3.310000E+03	9.888896E-18	1.620820E-18
3.320000E+03	9.471327E-18	1.536642E-18
3.330000E+03	9.074872E-18	1.457983E-18
3.340000E+03	8.698454E-18	1.384451E-18
3.350000E+03	8.341171E-18	1.315705E-18
3.360000E+03	8.002151E-18	1.251424E-18
3.370000E+03	7.680652E-18	1.191322E-18
3.380000E+03	7.375743E-18	1.135101E-18
3.390000E+03	7.086640E-18	1.082498E-18
3.400000E+03	6.812587E-18	1.033268E-18
3.410000E+03	6.552776E-18	9.871692E-19
3.420000E+03	6.306523E-18	9.439921E-19
3.430000E+03	6.073173E-18	9.035402E-19
3.440000E+03	5.852028E-18	8.656203E-19
3.450000E+03	5.642497E-18	8.300645E-19
3.460000E+03	5.443951E-18	7.967069E-19
3.470000E+03	5.255800E-18	7.653951E-19
3.480000E+03	5.077488E-18	7.359883E-19
3.490000E+03	4.908437E-18	7.083489E-19
3.500000E+03	4.748214E-18	6.823661E-19
3.510000E+03	4.596305E-18	6.579223E-19
3.520000E+03	4.452184E-18	6.349031E-19
3.530000E+03	4.315323E-18	6.131980E-19
3.540000E+03	4.185367E-18	5.927254E-19
3.550000E+03	4.061855E-18	5.733919E-19
3.560000E+03	3.944286E-18	5.551015E-19
3.570000E+03	3.832319E-18	5.377840E-19
3.580000E+03	3.725601E-18	5.213696E-19
3.590000E+03	3.623767E-18	5.057898E-19
3.600000E+03	3.526453E-18	4.909775E-19
3.610000E+03	3.433450E-18	4.768895E-19
3.620000E+03	3.344498E-18	4.634769E-19
3.630000E+03	3.259353E-18	4.506944E-19
3.640000E+03	3.177929E-18	4.385198E-19
3.650000E+03	3.100051E-18	4.269197E-19
3.660000E+03	3.025578E-18	4.158659E-19
3.670000E+03	2.954394E-18	4.053351E-19
3.680000E+03	2.886387E-18	3.953049E-19
3.690000E+03	2.821417E-18	3.857497E-19
3.700000E+03	2.759420E-18	3.766552E-19
3.710000E+03	2.700237E-18	3.679942E-19
3.720000E+03	2.643781E-18	3.597503E-19
3.730000E+03	2.589988E-18	3.519101E-19
3.740000E+03	2.538685E-18	3.444463E-19
3.750000E+03	2.489853E-18	3.373526E-19
3.760000E+03	2.443327E-18	3.306033E-19
3.770000E+03	2.399069E-18	3.241903E-19
3.780000E+03	2.356983E-18	3.180973E-19
3.790000E+03	2.316972E-18	3.123093E-19
3.800000E+03	2.278966E-18	3.068139E-19
3.810000E+03	2.242876E-18	3.015972E-19
3.820000E+03	2.208636E-18	2.966482E-19
3.830000E+03	2.176180E-18	2.919562E-19
3.840000E+03	2.145431E-18	2.875091E-19
3.850000E+03	2.116327E-18	2.832971E-19
3.860000E+03	2.088814E-18	2.793113E-19
3.870000E+03	2.062819E-18	2.755408E-19
3.880000E+03	2.038291E-18	2.719774E-19
3.890000E+03	2.015182E-18	2.686133E-19
3.900000E+03	1.993427E-18	2.654390E-19
3.910000E+03	1.972982E-18	2.624476E-19
3.920000E+03	1.953788E-18	2.596302E-19
3.930000E+03	1.935821E-18	2.569826E-19
3.940000E+03	1.919026E-18	2.544967E-19
3.950000E+03	1.903365E-18	2.521667E-19
3.960000E+03	1.888773E-18	2.499832E-19
3.970000E+03	1.875246E-18	2.479448E-19
3.980000E+03	1.862723E-18	2.460427E-19
3.990000E+03	1.851172E-18	2.442722E-19
4.000000E+03	1.840551E-18	2.426268E-19
4.010000E+03	1.830844E-18	2.411040E-19
4.020000E+03	1.821998E-18	2.396961E-19
4.030000E+03	1.814000E-18	2.384008E-19
4.040000E+03	1.806799E-18	2.372108E-19
4.050000E+03	1.800385E-18	2.361243E-19
4.060000E+03	1.794710E-18	2.351344E-19
4.070000E+03	1.789752E-18	2.342377E-19
4.080000E+03	1.785491E-18	2.334313E-19
4.090000E+03	1.781908E-18	2.327122E-19
4.100000E+03	1.778960E-18	2.320741E-19
4.110000E+03	1.776628E-18	2.315144E-19
4.120000E+03	1.774884E-18	2.310290E-19
4.130000E+03	1.773712E-18	2.306157E-19
4.140000E+03	1.773099E-18	2.302722E-19
4.150000E+03	1.773004E-18	2.299930E-19
4.160000E+03	1.773429E-18	2.297782E-19
4.170000E+03	1.774334E-18	2.296224E-19
4.180000E+03	1.775709E-18	2.295241E-19
4.190000E+03	1.777545E-18	2.294819E-19
4.200000E+03	1.779803E-18	2.294908E-19
4.210000E+03	1.782476E-18	2.295497E-19
4.220000E+03	1.785542E-18	2.296557E-19
4.230000E+03	1.789008E-18	2.298096E-19
4.240000E+03	1.792825E-18	2.300051E-19
4.250000E+03	1.797000E-18	2.302432E-19
4.260000E+03	1.801502E-18	2.305197E-19
4.270000E+03	1.806338E-18	2.308356E-19
4.280000E+03	1.811462E-18	2.311851E-19
4.290000E+03	1.816869E-18	2.315678E-19
4.300000E+03	1.822556E-18	2.319832E-19
4.310000E+03	1.828477E-18	2.324256E-19
4.320000E+03	1.834642E-18	2.328965E-19
4.330000E+03	1.840992E-18	2.333885E-19
4.340000E+03	1.847537E-18	2.339032E-19
4.350000E+03	1.854202E-18	2.344313E-19
4.360000E+03	1.860984E-18	2.349728E-19
4.370000E+03	1.867924E-18	2.355332E-19
4.380000E+03	1.875020E-18	2.361126E-19
4.390000E+03	1.882287E-18	2.367129E-19
4.400000E+03	1.889724E-18	2.373347E-19
4.410000E+03	1.897302E-18	2.379744E-19
4.420000E+03	1.905052E-18	2.386362E-19
4.430000E+03	1.912945E-18	2.393170E-19
4.440000E+03	1.920983E-18	2.400172E-19
4.450000E+03	1.929155E-18	2.407355E-19
4.460000E+03	1.937463E-18	2.414727E-19
4.470000E+03	1.945882E-18	2.422256E-19
4.480000E+03	1.954430E-18	2.429969E-19
4.490000E+03	1.963084E-18	2.437834E-19
4.500000E+03	1.971834E-18	2.445841E-19
4.510000E+03	1.980703E-18	2.454019E-19
4.520000E+03	1.989651E-18	2.462317E-19
4.530000E+03	1.998688E-18	2.470745E-19
4.540000E+03	2.007824E-18	2.479313E-19
4.550000E+03	2.017037E-18	2.487991E-19
4.560000E+03	2.026341E-18	2.496791E-19
4.570000E+03	2.035714E-18	2.505682E-19
4.580000E+03	2.045170E-18	2.514678E-19
4.590000E+03	2.054708E-18	2.523769E-19
4.600000E+03	2.064326E-18	2.532949E-19
4.610000E+03	2.074006E-18	2.542190E-19
4.620000E+03	2.083783E-18	2.551528E-19
4.630000E+03	2.093623E-18	2.560913E-19
4.640000E+03	2.103543E-18	2.570363E-19
4.650000E+03	2.113544E-18	2.579872E-19
4.660000E+03	2.123612E-18	2.589415E-19
4.670000E+03	2.133784E-18	2.599032E-19
4.680000E+03	2.144026E-18	2.608675E-19
4.690000E+03	2.154359E-18	2.618364E-19
4.700000E+03	2.164824E-18	2.628144E-19
4.710000E+03	2.175407E-18	2.637990E-19
4.720000E+03	2.186131E-18	2.647925E-19
4.730000E+03	2.197020E-18	2.657974E-19
4.740000E+03	2.208080E-18	2.668138E-19
4.750000E+03	2.219317E-18	2.678419E-19
4.760000E+03	2.230778E-18	2.688868E-19
4.770000E+03	2.242428E-18	2.699442E-19
4.780000E+03	2.254317E-18	2.710193E-19
4.790000E+03	2.266452E-18	2.721128E-19
4.800000E+03	2.278820E-18	2.732229E-19
4.810000E+03	2.291472E-18	2.743552E-19
4.820000E+03	2.304397E-18	2.755083E-19
4.830000E+03	2.317603E-18	2.766832E-19
4.840000E+03	2.331101E-18	2.778807E-19
4.850000E+03	2.344900E-18	2.791022E-19
4.860000E+03	2.359054E-18	2.803539E-19
4.870000E+03	2.373510E-18	2.816294E-19
4.880000E+03	2.388322E-18	2.829353E-19
4.890000E+03	2.403478E-18	2.842703E-19
4.900000E+03	2.419014E-18	2.856386E-19
4.910000E+03	2.434917E-18	2.870389E-19
4.920000E+03	2.451200E-18	2.884727E-19
4.930000E+03	2.467897E-18	2.899443E-19
4.940000E+03	2.484973E-18	2.914496E-19
4.950000E+03	2.502464E-18	2.929929E-19
4.960000E+03	2.520380E-18	2.945757E-19
4.970000E+03	2.538733E-18	2.961993E-19
4.980000E+03	2.557509E-18	2.978625E-19
4.990000E+03	2.576719E-18	2.995665E-19
5.000000E+03	2.596398E-18	3.013156E-19
5.010000E+03	2.616507E-18	3.031055E-19
5.020000E+03	2.637104E-18	3.049432E-19
5.030000E+03	2.658148E-18	3.068244E-19
5.040000E+03	2.679649E-18	3.087502E-19
5.050000E+03	2.701640E-18	3.107249E-19
5.060000E+03	2.724102E-18	3.127471E-19
5.070000E+03	2.747044E-18	3.148181E-19
5.080000E+03	2.770445E-18	3.169362E-19
5.090000E+03	2.794339E-18	3.191061E-19
5.100000E+03	2.818732E-18	3.213294E-19
5.110000E+03	2.843575E-18	3.236015E-19
5.120000E+03	2.868899E-18	3.259274E-19
5.130000E+03	2.894710E-18	3.283090E-19
5.140000E+03	2.921012E-18	3.307483E-19
5.150000E+03	2.947781E-18	3.332444E-19
5.160000E+03	2.975020E-18	3.357997E-19
5.170000E+03	3.002702E-18	3.384135E-19
5.180000E+03	3.030888E-18	3.410951E-19
5.190000E+03	3.059522E-18	3.438408E-19
5.200000E+03	3.088604E-18	3.466538E-19
5.210000E+03	3.118136E-18	3.495374E-19
5.220000E+03	3.148147E-18	3.524985E-19
5.230000E+03	3.178576E-18	3.555339E-19
5.240000E+03	3.209421E-18	3.586476E-19
5.250000E+03	3.240742E-18	3.618503E-19
5.260000E+03	3.272441E-18	3.651356E-19
5.270000E+03	3.304576E-18	3.685147E-19
5.280000E+03	3.337111E-18	3.719883E-19
5.290000E+03	3.370037E-18	3.755605E-19
5.300000E+03	3.403380E-18	3.792391E-19
5.310000E+03	3.437064E-18	3.830208E-19
5.320000E+03	3.471108E-18	3.869133E-19
5.330000E+03	3.505501E-18	3.909203E-19
5.340000E+03	3.540227E-18	3.950456E-19
5.350000E+03	3.575304E-18	3.992963E-19
5.360000E+03	3.610643E-18	4.036677E-19
5.370000E+03	3.646257E-18	4.081665E-19
5.380000E+03	3.682123E-18	4.127950E-19
5.390000E+03	3.718178E-18	4.175511E-19
5.400000E+03	3.754466E-18	4.224446E-19
5.410000E+03	3.790920E-18	4.274726E-19
5.420000E+03	3.827468E-18	4.326311E-19
5.430000E+03	3.864072E-18	4.379203E-19
5.440000E+03	3.900731E-18	4.433438E-19
5.450000E+03	3.937324E-18	4.488916E-19
5.460000E+03	3.973844E-18	4.545662E-19
5.470000E+03	4.010241E-18	4.603652E-19
5.480000E+03	4.046383E-18	4.662762E-19
5.490000E+03	4.082213E-18	4.722951E-19
5.500000E+03	4.117713E-18	4.784221E-19
5.510000E+03	4.152780E-18	4.846472E-19
5.520000E+03	4.187307E-18	4.909593E-19
5.530000E+03	4.221183E-18	4.973469E-19
5.540000E+03	4.254423E-18	5.038125E-19
5.550000E+03	4.286824E-18	5.103329E-19
5.560000E+03	4.318356E-18	5.169046E-19
5.570000E+03	4.348896E-18	5.235131E-19
5.580000E+03	4.378367E-18	5.301487E-19
5.590000E+03	4.406689E-18	5.368011E-19
5.600000E+03	4.433739E-18	5.434543E-19
5.610000E+03	4.459483E-18	5.501029E-19
5.620000E+03	4.483798E-18	5.567301E-19
5.630000E+03	4.506562E-18	5.633185E-19
5.640000E+03	4.527792E-18	5.698681E-19
5.650000E+03	4.547371E-18	5.763613E-19
5.660000E+03	4.565185E-18	5.827803E-19
5.670000E+03	4.581217E-18	5.891190E-19
5.680000E+03	4.595457E-18	5.953719E-19
5.690000E+03	4.607754E-18	6.015148E-19
5.700000E+03	4.618108E-18	6.075420E-19
5.710000E+03	4.626526E-18	6.134483E-19
5.720000E+03	4.632923E-18	6.192158E-19
5.730000E+03	4.637319E-18	6.248396E-19
5.740000E+03	4.639642E-18	6.303017E-19
5.750000E+03	4.639926E-18	6.355978E-19
5.760000E+03	4.638162E-18	6.407168E-19
5.770000E+03	4.634398E-18	6.456548E-19
5.780000E+03	4.628540E-18	6.503875E-19
5.790000E+03	4.620750E-18	6.549254E-19
5.800000E+03	4.610948E-18	6.592445E-19
5.810000E+03	4.599209E-18	6.633420E-19
5.820000E+03	4.585567E-18	6.672087E-19
5.830000E+03	4.570061E-18	6.708354E-19
5.840000E+03	4.552786E-18	6.742213E-19
5.850000E+03	4.533794E-18	6.773583E-19
5.860000E+03	4.513142E-18	6.802395E-19
5.870000E+03	4.490843E-18	6.828506E-19
5.880000E+03	4.467063E-18	6.852009E-19
5.890000E+03	4.441824E-18	6.872781E-19
5.900000E+03	4.415249E-18	6.890856E-19
5.910000E+03	4.387368E-18	6.906126E-19
5.920000E+03	4.358309E-18	6.918646E-19
5.930000E+03	4.328156E-18	6.928404E-19
5.940000E+03	4.296992E-18	6.935396E-19
5.950000E+03	4.264899E-18	6.939630E-19
5.960000E+03	4.231963E-18	6.941121E-19
5.970000E+03	4.198315E-18	6.939975E-19
5.980000E+03	4.163942E-18	6.936066E-19
5.990000E+03	4.129021E-18	6.929596E-19
6.000000E+03	4.093583E-18	6.920537E-19
6.010000E+03	4.057708E-18	6.908946E-19
6.020000E+03	4.021517E-18	6.894969E-19
6.030000E+03	3.984988E-18	6.878514E-19
6.040000E+03	3.948287E-18	6.859822E-19
6.050000E+03	3.911386E-18	6.838809E-19
6.060000E+03	3.874399E-18	6.815645E-19
6.070000E+03	3.837385E-18	6.790418E-19
6.080000E+03	3.800358E-18	6.763138E-19
6.090000E+03	3.763374E-18	6.733901E-19
6.100000E+03	3.726484E-18	6.702803E-19
6.110000E+03	3.689740E-18	6.669942E-19
6.120000E+03	3.653188E-18	6.635418E-19
6.130000E+03	3.616870E-18	6.599330E-19
6.140000E+03	3.580829E-18	6.561777E-19
6.150000E+03	3.545102E-18	6.522858E-19
6.160000E+03	3.509768E-18	6.482752E-19
6.170000E+03	3.474904E-18	6.441638E-19
6.180000E+03	3.440581E-18	6.399693E-19
6.190000E+03	3.406826E-18	6.357008E-19
6.200000E+03	3.373661E-18	6.313672E-19
6.210000E+03	3.341063E-18	6.269690E-19
6.220000E+03	3.309050E-18	6.225146E-19
6.230000E+03	3.277640E-18	6.180121E-19
6.240000E+03	3.246803E-18	6.134610E-19
6.250000E+03	3.216596E-18	6.088770E-19
6.260000E+03	3.187117E-18	6.042838E-19
6.270000E+03	3.158331E-18	5.996798E-19
6.280000E+03	3.130288E-18	5.950798E-19
6.290000E+03	3.103080E-18	5.905060E-19
6.300000E+03	3.076667E-18	5.859562E-19
6.310000E+03	3.051181E-18	5.814600E-19
6.320000E+03	3.026665E-18	5.770306E-19
6.330000E+03	3.003076E-18	5.726645E-19
6.340000E+03	2.980542E-18	5.683904E-19
6.350000E+03	2.959104E-18	5.642204E-19
6.360000E+03	2.938760E-18	5.601583E-19
6.370000E+03	2.919550E-18	5.562155E-19
6.380000E+03	2.901599E-18	5.524194E-19
6.390000E+03	2.884862E-18	5.487650E-19
6.400000E+03	2.869380E-18	5.452629E-19
6.410000E+03	2.855235E-18	5.419318E-19
6.420000E+03	2.842299E-18	5.387500E-19
6.430000E+03	2.830486E-18	5.357036E-19
6.440000E+03	2.819753E-18	5.327865E-19
6.450000E+03	2.810056E-18	5.299929E-19
6.460000E+03	2.801308E-18	5.273085E-19
6.470000E+03	2.793510E-18	5.247349E-19
6.480000E+03	2.786617E-18	5.222657E-19
6.490000E+03	2.780628E-18	5.199023E-19
6.500000E+03	2.775500E-18	5.176381E-19
6.510000E+03	2.771231E-18	5.154742E-19
6.520000E+03	2.767821E-18	5.134117E-19
6.530000E+03	2.765225E-18	5.114435E-19
6.540000E+03	2.763486E-18	5.095785E-19
6.550000E+03	2.762603E-18	5.078176E-19
6.560000E+03	2.762533E-18	5.061532E-19
6.570000E+03	2.763318E-18	5.045940E-19
6.580000E+03	2.764915E-18	5.031325E-19
6.590000E+03	2.767323E-18	5.017691E-19
6.600000E+03	2.770587E-18	5.005122E-19
6.610000E+03	2.774617E-18	4.993459E-19
6.620000E+03	2.779550E-18	4.982947E-19
6.630000E+03	2.785250E-18	4.973344E-19
6.640000E+03	2.791809E-18	4.964815E-19
6.650000E+03	2.799183E-18	4.957278E-19
6.660000E+03	2.807371E-18	4.950732E-19
6.670000E+03	2.816424E-18	4.945261E-19
6.680000E+03	2.826296E-18	4.940780E-19
6.690000E+03	2.836989E-18	4.937288E-19
6.700000E+03	2.848503E-18	4.934784E-19
6.710000E+03	2.860892E-18	4.933350E-19
6.720000E+03	2.874058E-18	4.932814E-19
6.730000E+03	2.888104E-18	4.933344E-19
6.740000E+03	2.902982E-18	4.934852E-19
6.750000E+03	2.918696E-18	4.937335E-19
6.760000E+03	2.935248E-18	4.940789E-19
6.770000E+03	2.952642E-18	4.945210E-19
6.780000E+03	2.970934E-18	4.950683E-19
6.790000E+03	2.990022E-18	4.957028E-19
6.800000E+03	3.009963E-18	4.964329E-19
6.810000E+03	3.030759E-18	4.972580E-19
6.820000E+03	3.052415E-18	4.981778E-19
6.830000E+03	3.074934E-18	4.991917E-19
6.840000E+03	3.098321E-18	5.002993E-19
6.850000E+03	3.122580E-18	5.015000E-19
6.860000E+03	3.147656E-18	5.027842E-19
6.870000E+03	3.173611E-18	5.041604E-19
6.880000E+03	3.200449E-18	5.056281E-19
6.890000E+03	3.228114E-18	5.071773E-19
6.900000E+03	3.256668E-18	5.088169E-19
6.910000E+03	3.286116E-18	5.105462E-19
6.920000E+03	3.316400E-18	5.123552E-19
6.930000E+03	3.347521E-18	5.142431E-19
6.940000E+03	3.379545E-18	5.162190E-19
6.950000E+03	3.412412E-18	5.182726E-19
6.960000E+03	3.446122E-18	5.204031E-19
6.970000E+03	3.480745E-18	5.226199E-19
6.980000E+03	3.516216E-18	5.249124E-19
6.990000E+03	3.552538E-18	5.272801E-19
7.000000E+03	3.589641E-18	5.297120E-19
7.010000E+03	3.627665E-18	5.322280E-19
7.020000E+03	3.666543E-18	5.348173E-19
7.030000E+03	3.706275E-18	5.374794E-19
7.040000E+03	3.746790E-18	5.402031E-19
7.050000E+03	3.788158E-18	5.429984E-19
7.060000E+03	3.830305E-18	5.458539E-19
7.070000E+03	3.873384E-18	5.487908E-19
7.080000E+03	3.917161E-18	5.517758E-19
7.090000E+03	3.961791E-18	5.548302E-19
7.100000E+03	4.007191E-18	5.579424E-19
7.110000E+03	4.053442E-18	5.611232E-19
7.120000E+03	4.100376E-18	5.643492E-19
7.130000E+03	4.148154E-18	5.676427E-19
7.140000E+03	4.196604E-18	5.709800E-19
7.150000E+03	4.245804E-18	5.743722E-19
7.160000E+03	4.295751E-18	5.778186E-19
7.170000E+03	4.346437E-18	5.813190E-19
7.180000E+03	4.397767E-18	5.848605E-19
7.190000E+03	4.449729E-18	5.884426E-19
7.200000E+03	4.502408E-18	5.920770E-19
7.210000E+03	4.555700E-18	5.957509E-19
7.220000E+03	4.609692E-18	5.994765E-19
7.230000E+03	4.664176E-18	6.032280E-19
7.240000E+03	4.719337E-18	6.070306E-19
7.250000E+03	4.775064E-18	6.108713E-19
7.260000E+03	4.831341E-18	6.147498E-19
7.270000E+03	4.888155E-18	6.186659E-19
7.280000E+03	4.945489E-18	6.226197E-19
7.290000E+03	5.003327E-18	6.266111E-19
7.300000E+03	5.061763E-18	6.306541E-19
7.310000E+03	5.120558E-18	6.347212E-19
7.320000E+03	5.180033E-18	6.388549E-19
7.330000E+03	5.240062E-18	6.430419E-19
7.340000E+03	5.300512E-18	6.472684E-19
7.350000E+03	5.361724E-18	6.515788E-19
7.360000E+03	5.423448E-18	6.559452E-19
7.370000E+03	5.486042E-18	6.604135E-19
7.380000E+03	5.549381E-18	6.649706E-19
7.390000E+03	5.613587E-18	6.696335E-19
7.400000E+03	5.678793E-18	6.744199E-19
7.410000E+03	5.745004E-18	6.793323E-19
7.420000E+03	5.812501E-18	6.844049E-19
7.430000E+03	5.881439E-18	6.896571E-19
7.440000E+03	5.951706E-18	6.950761E-19
7.450000E+03	6.023322E-18	7.006646E-19
7.460000E+03	6.096307E-18	7.064250E-19
7.470000E+03	6.170536E-18	7.123423E-19
7.480000E+03	6.245873E-18	7.184002E-19
7.490000E+03	6.322173E-18	7.245811E-19
7.500000E+03	6.399435E-18	7.308839E-19
7.510000E+03	6.477502E-18	7.372886E-19
7.520000E+03	6.556206E-18	7.437741E-19
7.530000E+03	6.635693E-18	7.503545E-19
7.540000E+03	6.715624E-18	7.569884E-19
7.550000E+03	6.795973E-18	7.636700E-19
7.560000E+03	6.876713E-18	7.703927E-19
7.570000E+03	6.957817E-18	7.771498E-19
7.580000E+03	7.039255E-18	7.839344E-19
7.590000E+03	7.120819E-18	7.907196E-19
7.600000E+03	7.202469E-18	7.974975E-19
7.610000E+03	7.284346E-18	8.042805E-19
7.620000E+03	7.366228E-18	8.110410E-19
7.630000E+03	7.448259E-18	8.177923E-19
7.640000E+03	7.530016E-18	8.244856E-19
7.650000E+03	7.611830E-18	8.311557E-19
7.660000E+03	7.693460E-18	8.377748E-19
7.670000E+03	7.774851E-18	8.443364E-19
7.680000E+03	7.855947E-18	8.508341E-19
7.690000E+03	7.936896E-18	8.572839E-19
7.700000E+03	8.017435E-18	8.636581E-19
7.710000E+03	8.097502E-18	8.699506E-19
7.720000E+03	8.177245E-18	8.761786E-19
7.730000E+03	8.256607E-18	8.823370E-19
7.740000E+03	8.335304E-18	8.883969E-19
7.750000E+03	8.413492E-18	8.943762E-19
7.760000E+03	8.491104E-18	9.002692E-19
