#wls	flux	fluxerr
1.600000E+03	1.710055E-16	1.666977E-16
1.640000E+03	1.760543E-16	1.687590E-16
1.680000E+03	1.807818E-16	1.702875E-16
1.720000E+03	1.851341E-16	1.712440E-16
1.760000E+03	1.890345E-16	1.715736E-16
1.800000E+03	1.924215E-16	1.712410E-16
1.840000E+03	1.952136E-16	1.701991E-16
1.880000E+03	1.973638E-16	1.684376E-16
1.920000E+03	1.988073E-16	1.659366E-16
1.960000E+03	1.994658E-16	1.626713E-16
2.000000E+03	1.992987E-16	1.586554E-16
2.040000E+03	1.982409E-16	1.538881E-16
2.080000E+03	1.962399E-16	1.483855E-16
2.120000E+03	1.932857E-16	1.422012E-16
2.160000E+03	1.893181E-16	1.353559E-16
2.200000E+03	1.843080E-16	1.278986E-16
2.240000E+03	1.782270E-16	1.198833E-16
2.280000E+03	1.710222E-16	1.113519E-16
2.320000E+03	1.629157E-16	1.025259E-16
2.360000E+03	1.541321E-16	9.360974E-17
2.400000E+03	1.448512E-16	8.476255E-17
2.440000E+03	1.352261E-16	7.611267E-17
2.480000E+03	1.254020E-16	6.777003E-17
2.520000E+03	1.155099E-16	5.982360E-17
2.560000E+03	1.056645E-16	5.234155E-17
2.600000E+03	9.598063E-17	4.538054E-17
2.640000E+03	8.656128E-17	3.898021E-17
2.680000E+03	7.749786E-17	3.316462E-17
2.720000E+03	6.887015E-17	2.794348E-17
2.760000E+03	6.074941E-17	2.331485E-17
2.800000E+03	5.318424E-17	1.926109E-17
2.840000E+03	4.621315E-17	1.575599E-17
2.880000E+03	3.986512E-17	1.276630E-17
2.920000E+03	3.415494E-17	1.025180E-17
2.960000E+03	2.908506E-17	8.167672E-18
3.000000E+03	2.464070E-17	6.464901E-18
3.010000E+03	2.362377E-17	6.092766E-18
3.020000E+03	2.264334E-17	5.740457E-18
3.030000E+03	2.169909E-17	5.407268E-18
3.040000E+03	2.079012E-17	5.092364E-18
3.050000E+03	1.991553E-17	4.794933E-18
3.060000E+03	1.907485E-17	4.514281E-18
3.070000E+03	1.826675E-17	4.249530E-18
3.080000E+03	1.749107E-17	4.000103E-18
3.090000E+03	1.674649E-17	3.765163E-18
3.100000E+03	1.603242E-17	3.544070E-18
3.110000E+03	1.534789E-17	3.336118E-18
3.120000E+03	1.469228E-17	3.140688E-18
3.130000E+03	1.406459E-17	2.957115E-18
3.140000E+03	1.346391E-17	2.784756E-18
3.150000E+03	1.288953E-17	2.623048E-18
3.160000E+03	1.234030E-17	2.471346E-18
3.170000E+03	1.181577E-17	2.329173E-18
3.180000E+03	1.131481E-17	2.195933E-18
3.190000E+03	1.083673E-17	2.071143E-18
3.200000E+03	1.038065E-17	1.954299E-18
3.210000E+03	9.945721E-18	1.844923E-18
3.220000E+03	9.531269E-18	1.742590E-18
3.230000E+03	9.136458E-18	1.646864E-18
3.240000E+03	8.760330E-18	1.557308E-18
3.250000E+03	8.402535E-18	1.473608E-18
3.260000E+03	8.061874E-18	1.395319E-18
3.270000E+03	7.738001E-18	1.322161E-18
3.280000E+03	7.429927E-18	1.253760E-18
3.290000E+03	7.137074E-18	1.189826E-18
3.300000E+03	6.858860E-18	1.130083E-18
3.310000E+03	6.594414E-18	1.074219E-18
3.320000E+03	6.343302E-18	1.022008E-18
3.330000E+03	6.104899E-18	9.732066E-19
3.340000E+03	5.878521E-18	9.275700E-19
3.350000E+03	5.663605E-18	8.848859E-19
3.360000E+03	5.459611E-18	8.449555E-19
3.370000E+03	5.266093E-18	8.076037E-19
3.380000E+03	5.082409E-18	7.726344E-19
3.390000E+03	4.908223E-18	7.399071E-19
3.400000E+03	4.742951E-18	7.092508E-19
3.410000E+03	4.586168E-18	6.805266E-19
3.420000E+03	4.437525E-18	6.536135E-19
3.430000E+03	4.296467E-18	6.283664E-19
3.440000E+03	4.162744E-18	6.046907E-19
3.450000E+03	4.035953E-18	5.824754E-19
3.460000E+03	3.915628E-18	5.616051E-19
3.470000E+03	3.801561E-18	5.420065E-19
3.480000E+03	3.693333E-18	5.235800E-19
3.490000E+03	3.590681E-18	5.062523E-19
3.500000E+03	3.493313E-18	4.899498E-19
3.510000E+03	3.400846E-18	4.745891E-19
3.520000E+03	3.313072E-18	4.601144E-19
3.530000E+03	3.229691E-18	4.464597E-19
3.540000E+03	3.150424E-18	4.335646E-19
3.550000E+03	3.075046E-18	4.213787E-19
3.560000E+03	3.003289E-18	4.098469E-19
3.570000E+03	2.934932E-18	3.989233E-19
3.580000E+03	2.869744E-18	3.885620E-19
3.590000E+03	2.807568E-18	3.787284E-19
3.600000E+03	2.748226E-18	3.693871E-19
3.610000E+03	2.691529E-18	3.605017E-19
3.620000E+03	2.637350E-18	3.520459E-19
3.630000E+03	2.585569E-18	3.439948E-19
3.640000E+03	2.536023E-18	3.363192E-19
3.650000E+03	2.488676E-18	3.290070E-19
3.660000E+03	2.443375E-18	3.220319E-19
3.670000E+03	2.400064E-18	3.153806E-19
3.680000E+03	2.358667E-18	3.090379E-19
3.690000E+03	2.319108E-18	3.029890E-19
3.700000E+03	2.281331E-18	2.972224E-19
3.710000E+03	2.245302E-18	2.917295E-19
3.720000E+03	2.210909E-18	2.864920E-19
3.730000E+03	2.178156E-18	2.815072E-19
3.740000E+03	2.146951E-18	2.767601E-19
3.750000E+03	2.117260E-18	2.722433E-19
3.760000E+03	2.089049E-18	2.679498E-19
3.770000E+03	2.062231E-18	2.638660E-19
3.780000E+03	2.036808E-18	2.599897E-19
3.790000E+03	2.012711E-18	2.563101E-19
3.800000E+03	1.989910E-18	2.528210E-19
3.810000E+03	1.968355E-18	2.495145E-19
3.820000E+03	1.948016E-18	2.463847E-19
3.830000E+03	1.928847E-18	2.434242E-19
3.840000E+03	1.910820E-18	2.406277E-19
3.850000E+03	1.893892E-18	2.379882E-19
3.860000E+03	1.878050E-18	2.355028E-19
3.870000E+03	1.863254E-18	2.331647E-19
3.880000E+03	1.849463E-18	2.309679E-19
3.890000E+03	1.836655E-18	2.289079E-19
3.900000E+03	1.824790E-18	2.269789E-19
3.910000E+03	1.813862E-18	2.251787E-19
3.920000E+03	1.803834E-18	2.235019E-19
3.930000E+03	1.794686E-18	2.219448E-19
3.940000E+03	1.786384E-18	2.205022E-19
3.950000E+03	1.778894E-18	2.191690E-19
3.960000E+03	1.772226E-18	2.179454E-19
3.970000E+03	1.766320E-18	2.168231E-19
3.980000E+03	1.761174E-18	2.158010E-19
3.990000E+03	1.756757E-18	2.148742E-19
4.000000E+03	1.753053E-18	2.140401E-19
4.010000E+03	1.750048E-18	2.132959E-19
4.020000E+03	1.747700E-18	2.126357E-19
4.030000E+03	1.746008E-18	2.120585E-19
4.040000E+03	1.744946E-18	2.115605E-19
4.050000E+03	1.744502E-18	2.111391E-19
4.060000E+03	1.744650E-18	2.107907E-19
4.070000E+03	1.745366E-18	2.105116E-19
4.080000E+03	1.746652E-18	2.103012E-19
4.090000E+03	1.748473E-18	2.101546E-19
4.100000E+03	1.750818E-18	2.100700E-19
4.110000E+03	1.753679E-18	2.100455E-19
4.120000E+03	1.757021E-18	2.100765E-19
4.130000E+03	1.760851E-18	2.101628E-19
4.140000E+03	1.765134E-18	2.102998E-19
4.150000E+03	1.769865E-18	2.104861E-19
4.160000E+03	1.775036E-18	2.107202E-19
4.170000E+03	1.780617E-18	2.109976E-19
4.180000E+03	1.786614E-18	2.113186E-19
4.190000E+03	1.792983E-18	2.116771E-19
4.200000E+03	1.799746E-18	2.120752E-19
4.210000E+03	1.806859E-18	2.125070E-19
4.220000E+03	1.814318E-18	2.129713E-19
4.230000E+03	1.822107E-18	2.134656E-19
4.240000E+03	1.830221E-18	2.139888E-19
4.250000E+03	1.838618E-18	2.145352E-19
4.260000E+03	1.847309E-18	2.151055E-19
4.270000E+03	1.856263E-18	2.156958E-19
4.280000E+03	1.865451E-18	2.163019E-19
4.290000E+03	1.874870E-18	2.169231E-19
4.300000E+03	1.884505E-18	2.175570E-19
4.310000E+03	1.894311E-18	2.181981E-19
4.320000E+03	1.904270E-18	2.188440E-19
4.330000E+03	1.914366E-18	2.194923E-19
4.340000E+03	1.924582E-18	2.201407E-19
4.350000E+03	1.934899E-18	2.207870E-19
4.360000E+03	1.945316E-18	2.214305E-19
4.370000E+03	1.955815E-18	2.220691E-19
4.380000E+03	1.966376E-18	2.227003E-19
4.390000E+03	1.977029E-18	2.233271E-19
4.400000E+03	1.987756E-18	2.239475E-19
4.410000E+03	1.998553E-18	2.245610E-19
4.420000E+03	2.009436E-18	2.251689E-19
4.430000E+03	2.020403E-18	2.257713E-19
4.440000E+03	2.031436E-18	2.263659E-19
4.450000E+03	2.042551E-18	2.269547E-19
4.460000E+03	2.053732E-18	2.275360E-19
4.470000E+03	2.064980E-18	2.281098E-19
4.480000E+03	2.076295E-18	2.286767E-19
4.490000E+03	2.087646E-18	2.292334E-19
4.500000E+03	2.099052E-18	2.297824E-19
4.510000E+03	2.110499E-18	2.303226E-19
4.520000E+03	2.121975E-18	2.308533E-19
4.530000E+03	2.133485E-18	2.313755E-19
4.540000E+03	2.145000E-18	2.318867E-19
4.550000E+03	2.156526E-18	2.323884E-19
4.560000E+03	2.168073E-18	2.328822E-19
4.570000E+03	2.179630E-18	2.333680E-19
4.580000E+03	2.191171E-18	2.338437E-19
4.590000E+03	2.202706E-18	2.343114E-19
4.600000E+03	2.214230E-18	2.347712E-19
4.610000E+03	2.225735E-18	2.352232E-19
4.620000E+03	2.237236E-18	2.356697E-19
4.630000E+03	2.248708E-18	2.361090E-19
4.640000E+03	2.260167E-18	2.365434E-19
4.650000E+03	2.271609E-18	2.369729E-19
4.660000E+03	2.283032E-18	2.373978E-19
4.670000E+03	2.294434E-18	2.378180E-19
4.680000E+03	2.305812E-18	2.382336E-19
4.690000E+03	2.317166E-18	2.386443E-19
4.700000E+03	2.328537E-18	2.390540E-19
4.710000E+03	2.339924E-18	2.394624E-19
4.720000E+03	2.351329E-18	2.398689E-19
4.730000E+03	2.362796E-18	2.402772E-19
4.740000E+03	2.374306E-18	2.406847E-19
4.750000E+03	2.385863E-18	2.410907E-19
4.760000E+03	2.397491E-18	2.414967E-19
4.770000E+03	2.409194E-18	2.419021E-19
4.780000E+03	2.420957E-18	2.423043E-19
4.790000E+03	2.432805E-18	2.427050E-19
4.800000E+03	2.444744E-18	2.431039E-19
4.810000E+03	2.456758E-18	2.434987E-19
4.820000E+03	2.468876E-18	2.438918E-19
4.830000E+03	2.481104E-18	2.442835E-19
4.840000E+03	2.493450E-18	2.446746E-19
4.850000E+03	2.505923E-18	2.450658E-19
4.860000E+03	2.518506E-18	2.454561E-19
4.870000E+03	2.531254E-18	2.458515E-19
4.880000E+03	2.544130E-18	2.462492E-19
4.890000E+03	2.557143E-18	2.466509E-19
4.900000E+03	2.570325E-18	2.470611E-19
4.910000E+03	2.583686E-18	2.474820E-19
4.920000E+03	2.597235E-18	2.479158E-19
4.930000E+03	2.610934E-18	2.483603E-19
4.940000E+03	2.624840E-18	2.488223E-19
4.950000E+03	2.638938E-18	2.493017E-19
4.960000E+03	2.653238E-18	2.498005E-19
4.970000E+03	2.667748E-18	2.503206E-19
4.980000E+03	2.682476E-18	2.508634E-19
4.990000E+03	2.697405E-18	2.514280E-19
5.000000E+03	2.712542E-18	2.520153E-19
5.010000E+03	2.727918E-18	2.526282E-19
5.020000E+03	2.743514E-18	2.532649E-19
5.030000E+03	2.759309E-18	2.539228E-19
5.040000E+03	2.775360E-18	2.546065E-19
5.050000E+03	2.791589E-18	2.553084E-19
5.060000E+03	2.808054E-18	2.560327E-19
5.070000E+03	2.824757E-18	2.567787E-19
5.080000E+03	2.841617E-18	2.575384E-19
5.090000E+03	2.858718E-18	2.583186E-19
5.100000E+03	2.876004E-18	2.591137E-19
5.110000E+03	2.893474E-18	2.599238E-19
5.120000E+03	2.911157E-18	2.607513E-19
5.130000E+03	2.928993E-18	2.615917E-19
5.140000E+03	2.946981E-18	2.624459E-19
5.150000E+03	2.965146E-18	2.633179E-19
5.160000E+03	2.983456E-18	2.642072E-19
5.170000E+03	3.001908E-18	2.651163E-19
5.180000E+03	3.020466E-18	2.660456E-19
5.190000E+03	3.039156E-18	2.670016E-19
5.200000E+03	3.057913E-18	2.679831E-19
5.210000E+03	3.076788E-18	2.690002E-19
5.220000E+03	3.095746E-18	2.700552E-19
5.230000E+03	3.114747E-18	2.711512E-19
5.240000E+03	3.133782E-18	2.722939E-19
5.250000E+03	3.152871E-18	2.734921E-19
5.260000E+03	3.171943E-18	2.747466E-19
5.270000E+03	3.191015E-18	2.760665E-19
5.280000E+03	3.210105E-18	2.774608E-19
5.290000E+03	3.229107E-18	2.789275E-19
5.300000E+03	3.248098E-18	2.804810E-19
5.310000E+03	3.266968E-18	2.821189E-19
5.320000E+03	3.285796E-18	2.838549E-19
5.330000E+03	3.304468E-18	2.856859E-19
5.340000E+03	3.323030E-18	2.876221E-19
5.350000E+03	3.341464E-18	2.896677E-19
5.360000E+03	3.359719E-18	2.918234E-19
5.370000E+03	3.377844E-18	2.940979E-19
5.380000E+03	3.395718E-18	2.964848E-19
5.390000E+03	3.413426E-18	2.989944E-19
5.400000E+03	3.430915E-18	3.016249E-19
5.410000E+03	3.448170E-18	3.043763E-19
5.420000E+03	3.465172E-18	3.072484E-19
5.430000E+03	3.481906E-18	3.102399E-19
5.440000E+03	3.498320E-18	3.133462E-19
5.450000E+03	3.514398E-18	3.165648E-19
5.460000E+03	3.530123E-18	3.198926E-19
5.470000E+03	3.545479E-18	3.233261E-19
5.480000E+03	3.560414E-18	3.268582E-19
5.490000E+03	3.574874E-18	3.304808E-19
5.500000E+03	3.588879E-18	3.341924E-19
5.510000E+03	3.602373E-18	3.379843E-19
5.520000E+03	3.615303E-18	3.418474E-19
5.530000E+03	3.627613E-18	3.457724E-19
5.540000E+03	3.639320E-18	3.497564E-19
5.550000E+03	3.650331E-18	3.537861E-19
5.560000E+03	3.660664E-18	3.578586E-19
5.570000E+03	3.670225E-18	3.619601E-19
5.580000E+03	3.678994E-18	3.660840E-19
5.590000E+03	3.686990E-18	3.702274E-19
5.600000E+03	3.694117E-18	3.743763E-19
5.610000E+03	3.700396E-18	3.785281E-19
5.620000E+03	3.705809E-18	3.826768E-19
5.630000E+03	3.710302E-18	3.868123E-19
5.640000E+03	3.713858E-18	3.909291E-19
5.650000E+03	3.716502E-18	3.950257E-19
5.660000E+03	3.718221E-18	3.990973E-19
5.670000E+03	3.718967E-18	4.031351E-19
5.680000E+03	3.718769E-18	4.071390E-19
5.690000E+03	3.717659E-18	4.111093E-19
5.700000E+03	3.715555E-18	4.150340E-19
5.710000E+03	3.712494E-18	4.189138E-19
5.720000E+03	3.708514E-18	4.227499E-19
5.730000E+03	3.703617E-18	4.265395E-19
5.740000E+03	3.697808E-18	4.302795E-19
5.750000E+03	3.691093E-18	4.339669E-19
5.760000E+03	3.683481E-18	4.375987E-19
5.770000E+03	3.675021E-18	4.411761E-19
5.780000E+03	3.665687E-18	4.446910E-19
5.790000E+03	3.655571E-18	4.481489E-19
5.800000E+03	3.644652E-18	4.515410E-19
5.810000E+03	3.632946E-18	4.548628E-19
5.820000E+03	3.620555E-18	4.581194E-19
5.830000E+03	3.607422E-18	4.612959E-19
5.840000E+03	3.593611E-18	4.643919E-19
5.850000E+03	3.579190E-18	4.674070E-19
5.860000E+03	3.564148E-18	4.703308E-19
5.870000E+03	3.548557E-18	4.731629E-19
5.880000E+03	3.532412E-18	4.758926E-19
5.890000E+03	3.515827E-18	4.785255E-19
5.900000E+03	3.498801E-18	4.810514E-19
5.910000E+03	3.481372E-18	4.834658E-19
5.920000E+03	3.463620E-18	4.857701E-19
5.930000E+03	3.445547E-18	4.879554E-19
5.940000E+03	3.427232E-18	4.900243E-19
5.950000E+03	3.408679E-18	4.919688E-19
5.960000E+03	3.389968E-18	4.937926E-19
5.970000E+03	3.371137E-18	4.954948E-19
5.980000E+03	3.352228E-18	4.970746E-19
5.990000E+03	3.333239E-18	4.985265E-19
6.000000E+03	3.314246E-18	4.998567E-19
6.010000E+03	3.295286E-18	5.010663E-19
6.020000E+03	3.276355E-18	5.021510E-19
6.030000E+03	3.257525E-18	5.031188E-19
6.040000E+03	3.238788E-18	5.039661E-19
6.050000E+03	3.220137E-18	5.046899E-19
6.060000E+03	3.201677E-18	5.053050E-19
6.070000E+03	3.183360E-18	5.058031E-19
6.080000E+03	3.165248E-18	5.061936E-19
6.090000E+03	3.147290E-18	5.064684E-19
6.100000E+03	3.129546E-18	5.066374E-19
6.110000E+03	3.112000E-18	5.066986E-19
6.120000E+03	3.094671E-18	5.066563E-19
6.130000E+03	3.077577E-18	5.065148E-19
6.140000E+03	3.060696E-18	5.062720E-19
6.150000E+03	3.044045E-18	5.059324E-19
6.160000E+03	3.027637E-18	5.055002E-19
6.170000E+03	3.011484E-18	5.049799E-19
6.180000E+03	2.995597E-18	5.043757E-19
6.190000E+03	2.979948E-18	5.036854E-19
6.200000E+03	2.964584E-18	5.029196E-19
6.210000E+03	2.949511E-18	5.020825E-19
6.220000E+03	2.934736E-18	5.011780E-19
6.230000E+03	2.920302E-18	5.002167E-19
6.240000E+03	2.906252E-18	4.992089E-19
6.250000E+03	2.892625E-18	4.981651E-19
6.260000E+03	2.879465E-18	4.970957E-19
6.270000E+03	2.866810E-18	4.960111E-19
6.280000E+03	2.854739E-18	4.949283E-19
6.290000E+03	2.843214E-18	4.938442E-19
6.300000E+03	2.832391E-18	4.927892E-19
6.310000E+03	2.822232E-18	4.917603E-19
6.320000E+03	2.812815E-18	4.907743E-19
6.330000E+03	2.804180E-18	4.898416E-19
6.340000E+03	2.796367E-18	4.889725E-19
6.350000E+03	2.789378E-18	4.881703E-19
6.360000E+03	2.783253E-18	4.874452E-19
6.370000E+03	2.778034E-18	4.868073E-19
6.380000E+03	2.773724E-18	4.862601E-19
6.390000E+03	2.770325E-18	4.858065E-19
6.400000E+03	2.767881E-18	4.854568E-19
6.410000E+03	2.766315E-18	4.851998E-19
6.420000E+03	2.765629E-18	4.850384E-19
6.430000E+03	2.765786E-18	4.849682E-19
6.440000E+03	2.766706E-18	4.849772E-19
6.450000E+03	2.768433E-18	4.850750E-19
6.460000E+03	2.770885E-18	4.852493E-19
6.470000E+03	2.774106E-18	4.855095E-19
6.480000E+03	2.778098E-18	4.858577E-19
6.490000E+03	2.782822E-18	4.862885E-19
6.500000E+03	2.788278E-18	4.868037E-19
6.510000E+03	2.794469E-18	4.874051E-19
6.520000E+03	2.801397E-18	4.880945E-19
6.530000E+03	2.809065E-18	4.888735E-19
6.540000E+03	2.817519E-18	4.897514E-19
6.550000E+03	2.826718E-18	4.907224E-19
6.560000E+03	2.836620E-18	4.917800E-19
6.570000E+03	2.847318E-18	4.929415E-19
6.580000E+03	2.858724E-18	4.941925E-19
6.590000E+03	2.870888E-18	4.955423E-19
6.600000E+03	2.883812E-18	4.969924E-19
6.610000E+03	2.897501E-18	4.985440E-19
6.620000E+03	2.911959E-18	5.001986E-19
6.630000E+03	2.927141E-18	5.019492E-19
6.640000E+03	2.943099E-18	5.038052E-19
6.650000E+03	2.959788E-18	5.057594E-19
6.660000E+03	2.977262E-18	5.078214E-19
6.670000E+03	2.995476E-18	5.099839E-19
6.680000E+03	3.014432E-18	5.122478E-19
6.690000E+03	3.034187E-18	5.146229E-19
6.700000E+03	3.054746E-18	5.171105E-19
6.710000E+03	3.076009E-18	5.196938E-19
6.720000E+03	3.098087E-18	5.223917E-19
6.730000E+03	3.120877E-18	5.251872E-19
6.740000E+03	3.144492E-18	5.280992E-19
6.750000E+03	3.168884E-18	5.311199E-19
6.760000E+03	3.194002E-18	5.342407E-19
6.770000E+03	3.219963E-18	5.374812E-19
6.780000E+03	3.246659E-18	5.408236E-19
6.790000E+03	3.274154E-18	5.442782E-19
6.800000E+03	3.302452E-18	5.478458E-19
6.810000E+03	3.331560E-18	5.515275E-19
6.820000E+03	3.361423E-18	5.553141E-19
6.830000E+03	3.392107E-18	5.592163E-19
6.840000E+03	3.423557E-18	5.632247E-19
6.850000E+03	3.455839E-18	5.673503E-19
6.860000E+03	3.488895E-18	5.715834E-19
6.870000E+03	3.522731E-18	5.759245E-19
6.880000E+03	3.557414E-18	5.803848E-19
6.890000E+03	3.592820E-18	5.849434E-19
6.900000E+03	3.629083E-18	5.896222E-19
6.910000E+03	3.666142E-18	5.944110E-19
6.920000E+03	3.704000E-18	5.993101E-19
6.930000E+03	3.742661E-18	6.043197E-19
6.940000E+03	3.782128E-18	6.094403E-19
6.950000E+03	3.822332E-18	6.146604E-19
6.960000E+03	3.863347E-18	6.199916E-19
6.970000E+03	3.905175E-18	6.254343E-19
6.980000E+03	3.947819E-18	6.309885E-19
6.990000E+03	3.991128E-18	6.366299E-19
7.000000E+03	4.035331E-18	6.423952E-19
7.010000E+03	4.080198E-18	6.482469E-19
7.020000E+03	4.125883E-18	6.542100E-19
7.030000E+03	4.172307E-18	6.602714E-19
7.040000E+03	4.219467E-18	6.664307E-19
7.050000E+03	4.267363E-18	6.726876E-19
7.060000E+03	4.315990E-18	6.790414E-19
7.070000E+03	4.365259E-18	6.854779E-19
7.080000E+03	4.415251E-18	6.920100E-19
7.090000E+03	4.465963E-18	6.986369E-19
7.100000E+03	4.517299E-18	7.053439E-19
7.110000E+03	4.569343E-18	7.121439E-19
7.120000E+03	4.621998E-18	7.190218E-19
7.130000E+03	4.675252E-18	7.259761E-19
7.140000E+03	4.729097E-18	7.330055E-19
7.150000E+03	4.783620E-18	7.401236E-19
7.160000E+03	4.838615E-18	7.472988E-19
7.170000E+03	4.894066E-18	7.545288E-19
7.180000E+03	4.950161E-18	7.618432E-19
7.190000E+03	5.006684E-18	7.692087E-19
7.200000E+03	5.063616E-18	7.766229E-19
7.210000E+03	5.121046E-18	7.841000E-19
7.220000E+03	5.178850E-18	7.916214E-19
7.230000E+03	5.237008E-18	7.991844E-19
7.240000E+03	5.295499E-18	8.067865E-19
7.250000E+03	5.354301E-18	8.144250E-19
7.260000E+03	5.413507E-18	8.221149E-19
7.270000E+03	5.472863E-18	8.298180E-19
7.280000E+03	5.532580E-18	8.375671E-19
7.290000E+03	5.592516E-18	8.453416E-19
7.300000E+03	5.652645E-18	8.531384E-19
7.310000E+03	5.713066E-18	8.609732E-19
7.320000E+03	5.773631E-18	8.688245E-19
7.330000E+03	5.834441E-18	8.767083E-19
7.340000E+03	5.895472E-18	8.846220E-19
7.350000E+03	5.956835E-18	8.925831E-19
7.360000E+03	6.018512E-18	9.005894E-19
7.370000E+03	6.080621E-18	9.086595E-19
7.380000E+03	6.143009E-18	9.167712E-19
7.390000E+03	6.206083E-18	9.249858E-19
7.400000E+03	6.269841E-18	9.333034E-19
7.410000E+03	6.334135E-18	9.417024E-19
7.420000E+03	6.399403E-18	9.502482E-19
7.430000E+03	6.465504E-18	9.589202E-19
7.440000E+03	6.532596E-18	9.677417E-19
7.450000E+03	6.600534E-18	9.766914E-19
7.460000E+03	6.669482E-18	9.857932E-19
7.470000E+03	6.738970E-18	9.949780E-19
7.480000E+03	6.809314E-18	1.004292E-18
7.490000E+03	6.880025E-18	1.013663E-18
7.500000E+03	6.951253E-18	1.023112E-18
7.510000E+03	7.022818E-18	1.032614E-18
7.520000E+03	7.094531E-18	1.042139E-18
7.530000E+03	7.166542E-18	1.051710E-18
7.540000E+03	7.238302E-18	1.061245E-18
7.550000E+03	7.310129E-18	1.070791E-18
7.560000E+03	7.381813E-18	1.080315E-18
7.570000E+03	7.453320E-18	1.089813E-18
7.580000E+03	7.524428E-18	1.099251E-18
7.590000E+03	7.595280E-18	1.108650E-18
7.600000E+03	7.665650E-18	1.117975E-18
7.610000E+03	7.735492E-18	1.127220E-18
7.620000E+03	7.804954E-18	1.136404E-18
7.630000E+03	7.873800E-18	1.145494E-18
7.640000E+03	7.942182E-18	1.154510E-18
7.650000E+03	8.009654E-18	1.163388E-18
7.660000E+03	8.076570E-18	1.172178E-18
7.670000E+03	8.142681E-18	1.180843E-18
7.680000E+03	8.208147E-18	1.189407E-18
7.690000E+03	8.272713E-18	1.197832E-18
7.700000E+03	8.336329E-18	1.206110E-18
7.710000E+03	8.398944E-18	1.214235E-18
7.720000E+03	8.460948E-18	1.222262E-18
7.730000E+03	8.521637E-18	1.230090E-18
7.740000E+03	8.581628E-18	1.237808E-18
7.750000E+03	8.640431E-18	1.245345E-18
7.760000E+03	8.698227E-18	1.252728E-18
