#wls	flux	fluxerr
1.600000E+03	1.721770E-16	1.673587E-16
1.640000E+03	1.772770E-16	1.694445E-16
1.680000E+03	1.820505E-16	1.709934E-16
1.720000E+03	1.864590E-16	1.719813E-16
1.760000E+03	1.903876E-16	1.723181E-16
1.800000E+03	1.938261E-16	1.720158E-16
1.840000E+03	1.966548E-16	1.709930E-16
1.880000E+03	1.988415E-16	1.692531E-16
1.920000E+03	2.003188E-16	1.667740E-16
1.960000E+03	2.009905E-16	1.635165E-16
2.000000E+03	2.008312E-16	1.595072E-16
2.040000E+03	1.997750E-16	1.547449E-16
2.080000E+03	1.977693E-16	1.492457E-16
2.120000E+03	1.947783E-16	1.430440E-16
2.160000E+03	1.907612E-16	1.361759E-16
2.200000E+03	1.856602E-16	1.286704E-16
2.240000E+03	1.794297E-16	1.205718E-16
2.280000E+03	1.721072E-16	1.119837E-16
2.320000E+03	1.638431E-16	1.030792E-16
2.360000E+03	1.548876E-16	9.407995E-17
2.400000E+03	1.454421E-16	8.515801E-17
2.440000E+03	1.356897E-16	7.645737E-17
2.480000E+03	1.257660E-16	6.807984E-17
2.520000E+03	1.158112E-16	6.011697E-17
2.560000E+03	1.059402E-16	5.263429E-17
2.600000E+03	9.626914E-17	4.568669E-17
2.640000E+03	8.689206E-17	3.930731E-17
2.680000E+03	7.789476E-17	3.351621E-17
2.720000E+03	6.935253E-17	2.832024E-17
2.760000E+03	6.132219E-17	2.371125E-17
2.800000E+03	5.385025E-17	1.967134E-17
2.840000E+03	4.696944E-17	1.617295E-17
2.880000E+03	4.070192E-17	1.318171E-17
2.920000E+03	3.505837E-17	1.065759E-17
2.960000E+03	3.003562E-17	8.555794E-18
3.000000E+03	2.561775E-17	6.828768E-18
3.010000E+03	2.460461E-17	6.449837E-18
3.020000E+03	2.362647E-17	6.090388E-18
3.030000E+03	2.268361E-17	5.749900E-18
3.040000E+03	2.177420E-17	5.427319E-18
3.050000E+03	2.089842E-17	5.122124E-18
3.060000E+03	2.005540E-17	4.833543E-18
3.070000E+03	1.924467E-17	4.560920E-18
3.080000E+03	1.846454E-17	4.303330E-18
3.090000E+03	1.771532E-17	4.060336E-18
3.100000E+03	1.699535E-17	3.831065E-18
3.110000E+03	1.630445E-17	3.615004E-18
3.120000E+03	1.564171E-17	3.411485E-18
3.130000E+03	1.500591E-17	3.219804E-18
3.140000E+03	1.439677E-17	3.039475E-18
3.150000E+03	1.381312E-17	2.869839E-18
3.160000E+03	1.325434E-17	2.710378E-18
3.170000E+03	1.271956E-17	2.560538E-18
3.180000E+03	1.220793E-17	2.419790E-18
3.190000E+03	1.171883E-17	2.287666E-18
3.200000E+03	1.125141E-17	2.163676E-18
3.210000E+03	1.080467E-17	2.047315E-18
3.220000E+03	1.037819E-17	1.938212E-18
3.230000E+03	9.971016E-18	1.835903E-18
3.240000E+03	9.582540E-18	1.740016E-18
3.250000E+03	9.212013E-18	1.650162E-18
3.260000E+03	8.858565E-18	1.565949E-18
3.270000E+03	8.521781E-18	1.487081E-18
3.280000E+03	8.200700E-18	1.413180E-18
3.290000E+03	7.894926E-18	1.343981E-18
3.300000E+03	7.603800E-18	1.279187E-18
3.310000E+03	7.326471E-18	1.218481E-18
3.320000E+03	7.062570E-18	1.161640E-18
3.330000E+03	6.811506E-18	1.108416E-18
3.340000E+03	6.572619E-18	1.058560E-18
3.350000E+03	6.345378E-18	1.011855E-18
3.360000E+03	6.129271E-18	9.680990E-19
3.370000E+03	5.923806E-18	9.271002E-19
3.380000E+03	5.728511E-18	8.886803E-19
3.390000E+03	5.542929E-18	8.526718E-19
3.400000E+03	5.366556E-18	8.189074E-19
3.410000E+03	5.198915E-18	7.872323E-19
3.420000E+03	5.039751E-18	7.575319E-19
3.430000E+03	4.888496E-18	7.296511E-19
3.440000E+03	4.744864E-18	7.034831E-19
3.450000E+03	4.608460E-18	6.789108E-19
3.460000E+03	4.478967E-18	6.558337E-19
3.470000E+03	4.355981E-18	6.341431E-19
3.480000E+03	4.239172E-18	6.137465E-19
3.490000E+03	4.128280E-18	5.945653E-19
3.500000E+03	4.022965E-18	5.765129E-19
3.510000E+03	3.922995E-18	5.595224E-19
3.520000E+03	3.827984E-18	5.435076E-19
3.530000E+03	3.737738E-18	5.284130E-19
3.540000E+03	3.651954E-18	5.141703E-19
3.550000E+03	3.570390E-18	5.007224E-19
3.560000E+03	3.492820E-18	4.880167E-19
3.570000E+03	3.418962E-18	4.759948E-19
3.580000E+03	3.348693E-18	4.646224E-19
3.590000E+03	3.281794E-18	4.538535E-19
3.600000E+03	3.218060E-18	4.436459E-19
3.610000E+03	3.157394E-18	4.339733E-19
3.620000E+03	3.099579E-18	4.247944E-19
3.630000E+03	3.044475E-18	4.160793E-19
3.640000E+03	2.991947E-18	4.078001E-19
3.650000E+03	2.941866E-18	3.999308E-19
3.660000E+03	2.894111E-18	3.924471E-19
3.670000E+03	2.848567E-18	3.853263E-19
3.680000E+03	2.805149E-18	3.785503E-19
3.690000E+03	2.763773E-18	3.721022E-19
3.700000E+03	2.724335E-18	3.659627E-19
3.710000E+03	2.686830E-18	3.601261E-19
3.720000E+03	2.651133E-18	3.545713E-19
3.730000E+03	2.617215E-18	3.492905E-19
3.740000E+03	2.585002E-18	3.442702E-19
3.750000E+03	2.554444E-18	3.395002E-19
3.760000E+03	2.525535E-18	3.349766E-19
3.770000E+03	2.498159E-18	3.306815E-19
3.780000E+03	2.472312E-18	3.266116E-19
3.790000E+03	2.447964E-18	3.227607E-19
3.800000E+03	2.425028E-18	3.191152E-19
3.810000E+03	2.403498E-18	3.156722E-19
3.820000E+03	2.383347E-18	3.124265E-19
3.830000E+03	2.364510E-18	3.093678E-19
3.840000E+03	2.346943E-18	3.064888E-19
3.850000E+03	2.330660E-18	3.037900E-19
3.860000E+03	2.315579E-18	3.012595E-19
3.870000E+03	2.301697E-18	2.988955E-19
3.880000E+03	2.288973E-18	2.966915E-19
3.890000E+03	2.277383E-18	2.946436E-19
3.900000E+03	2.266908E-18	2.927481E-19
3.910000E+03	2.257490E-18	2.909967E-19
3.920000E+03	2.249110E-18	2.893861E-19
3.930000E+03	2.241767E-18	2.879152E-19
3.940000E+03	2.235425E-18	2.865786E-19
3.950000E+03	2.230048E-18	2.853709E-19
3.960000E+03	2.225620E-18	2.842894E-19
3.970000E+03	2.222108E-18	2.833289E-19
3.980000E+03	2.219495E-18	2.824868E-19
3.990000E+03	2.217768E-18	2.817606E-19
4.000000E+03	2.216913E-18	2.811476E-19
4.010000E+03	2.216881E-18	2.806413E-19
4.020000E+03	2.217661E-18	2.802391E-19
4.030000E+03	2.219240E-18	2.799390E-19
4.040000E+03	2.221608E-18	2.797387E-19
4.050000E+03	2.224736E-18	2.796340E-19
4.060000E+03	2.228597E-18	2.796208E-19
4.070000E+03	2.233183E-18	2.796970E-19
4.080000E+03	2.238467E-18	2.798587E-19
4.090000E+03	2.244441E-18	2.801041E-19
4.100000E+03	2.251080E-18	2.804291E-19
4.110000E+03	2.258377E-18	2.808322E-19
4.120000E+03	2.266308E-18	2.813094E-19
4.130000E+03	2.274850E-18	2.818571E-19
4.140000E+03	2.283998E-18	2.824737E-19
4.150000E+03	2.293727E-18	2.831554E-19
4.160000E+03	2.304035E-18	2.839009E-19
4.170000E+03	2.314881E-18	2.847043E-19
4.180000E+03	2.326262E-18	2.855644E-19
4.190000E+03	2.338137E-18	2.864753E-19
4.200000E+03	2.350522E-18	2.874381E-19
4.210000E+03	2.363378E-18	2.884470E-19
4.220000E+03	2.376702E-18	2.895009E-19
4.230000E+03	2.390436E-18	2.905920E-19
4.240000E+03	2.404597E-18	2.917213E-19
4.250000E+03	2.419126E-18	2.928811E-19
4.260000E+03	2.434041E-18	2.940726E-19
4.270000E+03	2.449281E-18	2.952879E-19
4.280000E+03	2.464807E-18	2.965215E-19
4.290000E+03	2.480635E-18	2.977747E-19
4.300000E+03	2.496685E-18	2.990373E-19
4.310000E+03	2.512974E-18	3.003108E-19
4.320000E+03	2.529419E-18	3.015847E-19
4.330000E+03	2.546037E-18	3.028608E-19
4.340000E+03	2.562784E-18	3.041333E-19
4.350000E+03	2.579615E-18	3.053967E-19
4.360000E+03	2.596526E-18	3.066502E-19
4.370000E+03	2.613493E-18	3.078908E-19
4.380000E+03	2.630532E-18	3.091203E-19
4.390000E+03	2.647598E-18	3.103333E-19
4.400000E+03	2.664730E-18	3.115345E-19
4.410000E+03	2.681927E-18	3.127236E-19
4.420000E+03	2.699187E-18	3.139006E-19
4.430000E+03	2.716511E-18	3.150656E-19
4.440000E+03	2.733921E-18	3.162215E-19
4.450000E+03	2.751396E-18	3.173661E-19
4.460000E+03	2.768962E-18	3.185027E-19
4.470000E+03	2.786621E-18	3.196320E-19
4.480000E+03	2.804378E-18	3.207550E-19
4.490000E+03	2.822216E-18	3.218703E-19
4.500000E+03	2.840140E-18	3.229791E-19
4.510000E+03	2.858132E-18	3.240801E-19
4.520000E+03	2.876225E-18	3.251778E-19
4.530000E+03	2.894379E-18	3.262683E-19
4.540000E+03	2.912603E-18	3.273536E-19
4.550000E+03	2.930907E-18	3.284357E-19
4.560000E+03	2.949252E-18	3.295112E-19
4.570000E+03	2.967675E-18	3.305850E-19
4.580000E+03	2.986139E-18	3.316540E-19
4.590000E+03	3.004656E-18	3.327204E-19
4.600000E+03	3.023190E-18	3.337811E-19
4.610000E+03	3.041782E-18	3.348415E-19
4.620000E+03	3.060422E-18	3.359012E-19
4.630000E+03	3.079076E-18	3.369571E-19
4.640000E+03	3.097760E-18	3.380117E-19
4.650000E+03	3.116495E-18	3.390678E-19
4.660000E+03	3.135275E-18	3.401251E-19
4.670000E+03	3.154065E-18	3.411802E-19
4.680000E+03	3.172946E-18	3.422420E-19
4.690000E+03	3.191942E-18	3.433134E-19
4.700000E+03	3.211023E-18	3.443910E-19
4.710000E+03	3.230218E-18	3.454777E-19
4.720000E+03	3.249555E-18	3.465766E-19
4.730000E+03	3.268977E-18	3.476812E-19
4.740000E+03	3.288514E-18	3.487946E-19
4.750000E+03	3.308138E-18	3.499136E-19
4.760000E+03	3.327881E-18	3.510411E-19
4.770000E+03	3.347747E-18	3.521774E-19
4.780000E+03	3.367708E-18	3.533192E-19
4.790000E+03	3.387799E-18	3.544700E-19
4.800000E+03	3.407992E-18	3.556269E-19
4.810000E+03	3.428325E-18	3.567935E-19
4.820000E+03	3.448771E-18	3.579671E-19
4.830000E+03	3.469334E-18	3.591481E-19
4.840000E+03	3.490021E-18	3.603375E-19
4.850000E+03	3.510869E-18	3.615392E-19
4.860000E+03	3.531853E-18	3.627510E-19
4.870000E+03	3.552979E-18	3.639737E-19
4.880000E+03	3.574220E-18	3.652051E-19
4.890000E+03	3.595648E-18	3.664531E-19
4.900000E+03	3.617237E-18	3.677154E-19
4.910000E+03	3.638993E-18	3.689933E-19
4.920000E+03	3.660888E-18	3.702843E-19
4.930000E+03	3.682962E-18	3.715931E-19
4.940000E+03	3.705186E-18	3.729174E-19
4.950000E+03	3.727565E-18	3.742580E-19
4.960000E+03	3.750139E-18	3.756194E-19
4.970000E+03	3.772877E-18	3.769991E-19
4.980000E+03	3.795783E-18	3.783977E-19
4.990000E+03	3.818824E-18	3.798123E-19
5.000000E+03	3.842040E-18	3.812470E-19
5.010000E+03	3.865431E-18	3.827022E-19
5.020000E+03	3.888964E-18	3.841748E-19
5.030000E+03	3.912638E-18	3.856650E-19
5.040000E+03	3.936453E-18	3.871729E-19
5.050000E+03	3.960372E-18	3.886951E-19
5.060000E+03	3.984429E-18	3.902354E-19
5.070000E+03	4.008623E-18	3.917941E-19
5.080000E+03	4.032872E-18	3.933639E-19
5.090000E+03	4.057212E-18	3.949488E-19
5.100000E+03	4.081636E-18	3.965493E-19
5.110000E+03	4.106099E-18	3.981621E-19
5.120000E+03	4.130593E-18	3.997878E-19
5.130000E+03	4.155110E-18	4.014275E-19
5.140000E+03	4.179640E-18	4.030822E-19
5.150000E+03	4.204131E-18	4.047495E-19
5.160000E+03	4.228613E-18	4.064348E-19
5.170000E+03	4.252991E-18	4.081322E-19
5.180000E+03	4.277291E-18	4.098478E-19
5.190000E+03	4.301457E-18	4.115800E-19
5.200000E+03	4.325471E-18	4.133315E-19
5.210000E+03	4.349316E-18	4.151052E-19
5.220000E+03	4.372974E-18	4.169045E-19
5.230000E+03	4.396338E-18	4.187244E-19
5.240000E+03	4.419474E-18	4.205768E-19
5.250000E+03	4.442317E-18	4.224613E-19
5.260000E+03	4.464845E-18	4.243818E-19
5.270000E+03	4.486989E-18	4.263381E-19
5.280000E+03	4.508727E-18	4.283342E-19
5.290000E+03	4.530033E-18	4.303741E-19
5.300000E+03	4.550883E-18	4.324616E-19
5.310000E+03	4.571251E-18	4.346006E-19
5.320000E+03	4.591067E-18	4.367906E-19
5.330000E+03	4.610398E-18	4.390436E-19
5.340000E+03	4.629127E-18	4.413543E-19
5.350000E+03	4.647230E-18	4.437257E-19
5.360000E+03	4.664776E-18	4.461694E-19
5.370000E+03	4.681650E-18	4.486787E-19
5.380000E+03	4.697923E-18	4.512648E-19
5.390000E+03	4.713527E-18	4.539248E-19
5.400000E+03	4.728491E-18	4.566644E-19
5.410000E+03	4.742748E-18	4.594800E-19
5.420000E+03	4.756378E-18	4.623810E-19
5.430000E+03	4.769317E-18	4.653630E-19
5.440000E+03	4.781599E-18	4.684301E-19
5.450000E+03	4.793116E-18	4.715721E-19
5.460000E+03	4.803904E-18	4.747923E-19
5.470000E+03	4.813906E-18	4.780841E-19
5.480000E+03	4.823065E-18	4.814404E-19
5.490000E+03	4.831421E-18	4.848633E-19
5.500000E+03	4.838871E-18	4.883400E-19
5.510000E+03	4.845361E-18	4.918619E-19
5.520000E+03	4.850888E-18	4.954252E-19
5.530000E+03	4.855352E-18	4.990155E-19
5.540000E+03	4.858799E-18	5.026332E-19
5.550000E+03	4.861083E-18	5.062583E-19
5.560000E+03	4.862304E-18	5.098960E-19
5.570000E+03	4.862415E-18	5.135360E-19
5.580000E+03	4.861371E-18	5.171679E-19
5.590000E+03	4.859179E-18	5.207863E-19
5.600000E+03	4.855845E-18	5.243862E-19
5.610000E+03	4.851328E-18	5.279568E-19
5.620000E+03	4.845737E-18	5.315038E-19
5.630000E+03	4.838985E-18	5.350115E-19
5.640000E+03	4.831184E-18	5.384860E-19
5.650000E+03	4.822250E-18	5.419116E-19
5.660000E+03	4.812296E-18	5.452951E-19
5.670000E+03	4.801341E-18	5.486322E-19
5.680000E+03	4.789352E-18	5.519132E-19
5.690000E+03	4.776401E-18	5.551401E-19
5.700000E+03	4.762509E-18	5.583090E-19
5.710000E+03	4.747747E-18	5.614224E-19
5.720000E+03	4.732141E-18	5.644768E-19
5.730000E+03	4.715665E-18	5.674633E-19
5.740000E+03	4.698447E-18	5.703905E-19
5.750000E+03	4.680515E-18	5.732555E-19
5.760000E+03	4.661848E-18	5.760493E-19
5.770000E+03	4.642527E-18	5.787751E-19
5.780000E+03	4.622633E-18	5.814363E-19
5.790000E+03	4.602200E-18	5.840300E-19
5.800000E+03	4.581213E-18	5.865474E-19
5.810000E+03	4.559757E-18	5.889919E-19
5.820000E+03	4.537916E-18	5.913673E-19
5.830000E+03	4.515728E-18	5.936710E-19
5.840000E+03	4.493182E-18	5.958941E-19
5.850000E+03	4.470365E-18	5.980407E-19
5.860000E+03	4.447317E-18	6.001083E-19
5.870000E+03	4.424125E-18	6.021013E-19
5.880000E+03	4.400830E-18	6.040180E-19
5.890000E+03	4.377422E-18	6.058497E-19
5.900000E+03	4.353990E-18	6.076015E-19
5.910000E+03	4.330525E-18	6.092652E-19
5.920000E+03	4.307212E-18	6.108601E-19
5.930000E+03	4.283944E-18	6.123650E-19
5.940000E+03	4.260807E-18	6.137859E-19
5.950000E+03	4.237888E-18	6.151296E-19
5.960000E+03	4.215175E-18	6.163892E-19
5.970000E+03	4.192703E-18	6.175649E-19
5.980000E+03	4.170556E-18	6.186644E-19
5.990000E+03	4.148718E-18	6.196815E-19
6.000000E+03	4.127270E-18	6.206246E-19
6.010000E+03	4.106148E-18	6.214810E-19
6.020000E+03	4.085476E-18	6.222666E-19
6.030000E+03	4.065187E-18	6.229691E-19
6.040000E+03	4.045403E-18	6.236052E-19
6.050000E+03	4.026007E-18	6.241555E-19
6.060000E+03	4.007117E-18	6.246372E-19
6.070000E+03	3.988709E-18	6.250458E-19
6.080000E+03	3.970802E-18	6.253841E-19
6.090000E+03	3.953322E-18	6.256402E-19
6.100000E+03	3.936381E-18	6.258323E-19
6.110000E+03	3.919852E-18	6.259409E-19
6.120000E+03	3.903845E-18	6.259842E-19
6.130000E+03	3.888230E-18	6.259427E-19
6.140000E+03	3.873019E-18	6.258194E-19
6.150000E+03	3.858174E-18	6.256096E-19
6.160000E+03	3.843703E-18	6.253164E-19
6.170000E+03	3.829468E-18	6.249192E-19
6.180000E+03	3.815474E-18	6.244207E-19
6.190000E+03	3.801676E-18	6.238154E-19
6.200000E+03	3.788073E-18	6.231059E-19
6.210000E+03	3.774665E-18	6.222941E-19
6.220000E+03	3.761545E-18	6.213983E-19
6.230000E+03	3.748854E-18	6.204447E-19
6.240000E+03	3.736638E-18	6.194438E-19
6.250000E+03	3.724990E-18	6.184141E-19
6.260000E+03	3.714003E-18	6.173746E-19
6.270000E+03	3.703721E-18	6.163359E-19
6.280000E+03	3.694239E-18	6.153173E-19
6.290000E+03	3.685602E-18	6.143295E-19
6.300000E+03	3.677857E-18	6.133838E-19
6.310000E+03	3.671101E-18	6.124996E-19
6.320000E+03	3.665332E-18	6.116797E-19
6.330000E+03	3.660649E-18	6.109440E-19
6.340000E+03	3.657002E-18	6.102868E-19
6.350000E+03	3.654440E-18	6.097195E-19
6.360000E+03	3.652965E-18	6.092450E-19
6.370000E+03	3.652628E-18	6.088747E-19
6.380000E+03	3.653381E-18	6.086027E-19
6.390000E+03	3.655223E-18	6.084317E-19
6.400000E+03	3.658106E-18	6.083555E-19
6.410000E+03	3.661922E-18	6.083588E-19
6.420000E+03	3.666619E-18	6.084347E-19
6.430000E+03	3.672194E-18	6.085849E-19
6.440000E+03	3.678646E-18	6.088112E-19
6.450000E+03	3.685973E-18	6.091151E-19
6.460000E+03	3.694228E-18	6.095072E-19
6.470000E+03	3.703468E-18	6.099984E-19
6.480000E+03	3.713694E-18	6.105905E-19
6.490000E+03	3.724852E-18	6.112759E-19
6.500000E+03	3.737057E-18	6.120748E-19
6.510000E+03	3.750314E-18	6.129892E-19
6.520000E+03	3.764570E-18	6.140113E-19
6.530000E+03	3.779886E-18	6.151525E-19
6.540000E+03	3.796269E-18	6.164144E-19
6.550000E+03	3.813666E-18	6.177892E-19
6.560000E+03	3.832080E-18	6.192785E-19
6.570000E+03	3.851642E-18	6.209035E-19
6.580000E+03	3.872173E-18	6.226363E-19
6.590000E+03	3.893804E-18	6.244984E-19
6.600000E+03	3.916545E-18	6.264915E-19
6.610000E+03	3.940275E-18	6.285968E-19
6.620000E+03	3.965130E-18	6.308364E-19
6.630000E+03	3.990990E-18	6.331912E-19
6.640000E+03	4.017994E-18	6.356833E-19
6.650000E+03	4.046019E-18	6.382934E-19
6.660000E+03	4.075139E-18	6.410334E-19
6.670000E+03	4.105365E-18	6.439049E-19
6.680000E+03	4.136637E-18	6.468983E-19
6.690000E+03	4.168964E-18	6.500149E-19
6.700000E+03	4.202426E-18	6.532671E-19
6.710000E+03	4.236963E-18	6.566452E-19
6.720000E+03	4.272583E-18	6.601503E-19
6.730000E+03	4.309296E-18	6.637838E-19
6.740000E+03	4.347112E-18	6.675468E-19
6.750000E+03	4.386043E-18	6.714405E-19
6.760000E+03	4.426099E-18	6.754663E-19
6.770000E+03	4.467212E-18	6.796133E-19
6.780000E+03	4.509470E-18	6.838945E-19
6.790000E+03	4.552886E-18	6.883112E-19
6.800000E+03	4.597389E-18	6.928522E-19
6.810000E+03	4.643072E-18	6.975310E-19
6.820000E+03	4.689863E-18	7.023362E-19
6.830000E+03	4.737772E-18	7.072685E-19
6.840000E+03	4.786808E-18	7.123289E-19
6.850000E+03	4.836980E-18	7.175182E-19
6.860000E+03	4.888390E-18	7.228504E-19
6.870000E+03	4.940868E-18	7.283001E-19
6.880000E+03	4.994514E-18	7.338812E-19
6.890000E+03	5.049337E-18	7.395945E-19
6.900000E+03	5.105253E-18	7.454270E-19
6.910000E+03	5.162365E-18	7.513929E-19
6.920000E+03	5.220684E-18	7.574932E-19
6.930000E+03	5.280120E-18	7.637142E-19
6.940000E+03	5.340680E-18	7.700562E-19
6.950000E+03	5.402472E-18	7.765342E-19
6.960000E+03	5.465403E-18	7.831339E-19
6.970000E+03	5.529478E-18	7.898557E-19
6.980000E+03	5.594702E-18	7.966997E-19
6.990000E+03	5.661082E-18	8.036660E-19
7.000000E+03	5.728512E-18	8.107390E-19
7.010000E+03	5.797216E-18	8.179502E-19
7.020000E+03	5.866975E-18	8.252679E-19
7.030000E+03	5.937906E-18	8.327080E-19
7.040000E+03	6.009893E-18	8.402539E-19
7.050000E+03	6.082936E-18	8.479050E-19
7.060000E+03	6.157153E-18	8.556776E-19
7.070000E+03	6.232424E-18	8.635546E-19
7.080000E+03	6.308620E-18	8.715177E-19
7.090000E+03	6.385987E-18	8.796008E-19
7.100000E+03	6.464396E-18	8.877859E-19
7.110000E+03	6.543712E-18	8.960543E-19
7.120000E+03	6.624055E-18	9.044225E-19
7.130000E+03	6.705285E-18	9.128714E-19
7.140000E+03	6.787525E-18	9.214180E-19
7.150000E+03	6.870628E-18	9.300425E-19
7.160000E+03	6.954723E-18	9.387627E-19
7.170000E+03	7.039509E-18	9.475385E-19
7.180000E+03	7.125110E-18	9.563874E-19
7.190000E+03	7.211661E-18	9.653280E-19
7.200000E+03	7.298843E-18	9.743187E-19
7.210000E+03	7.386632E-18	9.833573E-19
7.220000E+03	7.475156E-18	9.924624E-19
7.230000E+03	7.564396E-18	1.001633E-18
7.240000E+03	7.654165E-18	1.010845E-18
7.250000E+03	7.744600E-18	1.020120E-18
7.260000E+03	7.835508E-18	1.029433E-18
7.270000E+03	7.926856E-18	1.038782E-18
7.280000E+03	8.018785E-18	1.048189E-18
7.290000E+03	8.111092E-18	1.057630E-18
7.300000E+03	8.203920E-18	1.067125E-18
7.310000E+03	8.297059E-18	1.076651E-18
7.320000E+03	8.390473E-18	1.086206E-18
7.330000E+03	8.484496E-18	1.095837E-18
7.340000E+03	8.578728E-18	1.105494E-18
7.350000E+03	8.673515E-18	1.115227E-18
7.360000E+03	8.768638E-18	1.125010E-18
7.370000E+03	8.864264E-18	1.134868E-18
7.380000E+03	8.960571E-18	1.144828E-18
7.390000E+03	9.057341E-18	1.154864E-18
7.400000E+03	9.154964E-18	1.165030E-18
7.410000E+03	9.253437E-18	1.175328E-18
7.420000E+03	9.352968E-18	1.185787E-18
7.430000E+03	9.453560E-18	1.196410E-18
7.440000E+03	9.555220E-18	1.207199E-18
7.450000E+03	9.658176E-18	1.218185E-18
7.460000E+03	9.761989E-18	1.229314E-18
7.470000E+03	9.866656E-18	1.240587E-18
7.480000E+03	9.971939E-18	1.251974E-18
7.490000E+03	1.007806E-17	1.263504E-18
7.500000E+03	1.018478E-17	1.275145E-18
7.510000E+03	1.029183E-17	1.286864E-18
7.520000E+03	1.039920E-17	1.298658E-18
7.530000E+03	1.050685E-17	1.310520E-18
7.540000E+03	1.061450E-17	1.322413E-18
7.550000E+03	1.072238E-17	1.334362E-18
7.560000E+03	1.082993E-17	1.346296E-18
7.570000E+03	1.093764E-17	1.358269E-18
7.580000E+03	1.104519E-17	1.370241E-18
7.590000E+03	1.115255E-17	1.382203E-18
7.600000E+03	1.125939E-17	1.394111E-18
7.610000E+03	1.136593E-17	1.405987E-18
7.620000E+03	1.147212E-17	1.417822E-18
7.630000E+03	1.157791E-17	1.429606E-18
7.640000E+03	1.168295E-17	1.441291E-18
7.650000E+03	1.178746E-17	1.452904E-18
7.660000E+03	1.189109E-17	1.464395E-18
7.670000E+03	1.199436E-17	1.475829E-18
7.680000E+03	1.209630E-17	1.487084E-18
7.690000E+03	1.219774E-17	1.498260E-18
7.700000E+03	1.229832E-17	1.509310E-18
7.710000E+03	1.239763E-17	1.520186E-18
7.720000E+03	1.249593E-17	1.530916E-18
7.730000E+03	1.259311E-17	1.541491E-18
7.740000E+03	1.268912E-17	1.551901E-18
7.750000E+03	1.278386E-17	1.562137E-18
7.760000E+03	1.287759E-17	1.572230E-18
