#wls	flux	fluxerr
1.600000E+03	1.039084E-16	1.006970E-16
1.640000E+03	1.075182E-16	1.024611E-16
1.680000E+03	1.110651E-16	1.040109E-16
1.720000E+03	1.145019E-16	1.053024E-16
1.760000E+03	1.178217E-16	1.063312E-16
1.800000E+03	1.209702E-16	1.070521E-16
1.840000E+03	1.239113E-16	1.074397E-16
1.880000E+03	1.266271E-16	1.074873E-16
1.920000E+03	1.290546E-16	1.071524E-16
1.960000E+03	1.311602E-16	1.064221E-16
2.000000E+03	1.328891E-16	1.052697E-16
2.040000E+03	1.342067E-16	1.036895E-16
2.080000E+03	1.350419E-16	1.016518E-16
2.120000E+03	1.353398E-16	9.914568E-17
2.160000E+03	1.350451E-16	9.616534E-17
2.200000E+03	1.340742E-16	9.269134E-17
2.240000E+03	1.323583E-16	8.872232E-17
2.280000E+03	1.298831E-16	8.429943E-17
2.320000E+03	1.266809E-16	7.949565E-17
2.360000E+03	1.228647E-16	7.443109E-17
2.400000E+03	1.185278E-16	6.920542E-17
2.440000E+03	1.137529E-16	6.390483E-17
2.480000E+03	1.086284E-16	5.861159E-17
2.520000E+03	1.032090E-16	5.338290E-17
2.560000E+03	9.756036E-17	4.827630E-17
2.600000E+03	9.174017E-17	4.333946E-17
2.640000E+03	8.581105E-17	3.861662E-17
2.680000E+03	7.982677E-17	3.414202E-17
2.720000E+03	7.384376E-17	2.994538E-17
2.760000E+03	6.791716E-17	2.605000E-17
2.800000E+03	6.210048E-17	2.247273E-17
2.840000E+03	5.644640E-17	1.922437E-17
2.880000E+03	5.100736E-17	1.631005E-17
2.920000E+03	4.583171E-17	1.372814E-17
2.960000E+03	4.096299E-17	1.147075E-17
3.000000E+03	3.643582E-17	9.523357E-18
3.010000E+03	3.536141E-17	9.082920E-18
3.020000E+03	3.430934E-17	8.660023E-18
3.030000E+03	3.328122E-17	8.254643E-18
3.040000E+03	3.227630E-17	7.866144E-18
3.050000E+03	3.129529E-17	7.494256E-18
3.060000E+03	3.033875E-17	7.138665E-18
3.070000E+03	2.940528E-17	6.798593E-18
3.080000E+03	2.849665E-17	6.474004E-18
3.090000E+03	2.761147E-17	6.164135E-18
3.100000E+03	2.675071E-17	5.868762E-18
3.110000E+03	2.591359E-17	5.587272E-18
3.120000E+03	2.509992E-17	5.319190E-18
3.130000E+03	2.431043E-17	5.064243E-18
3.140000E+03	2.354388E-17	4.821746E-18
3.150000E+03	2.280134E-17	4.591500E-18
3.160000E+03	2.208116E-17	4.372764E-18
3.170000E+03	2.138427E-17	4.165323E-18
3.180000E+03	2.070953E-17	3.968556E-18
3.190000E+03	2.005733E-17	3.782158E-18
3.200000E+03	1.942690E-17	3.605609E-18
3.210000E+03	1.881821E-17	3.438538E-18
3.220000E+03	1.823081E-17	3.280513E-18
3.230000E+03	1.766427E-17	3.131114E-18
3.240000E+03	1.711789E-17	2.989885E-18
3.250000E+03	1.659178E-17	2.856534E-18
3.260000E+03	1.608522E-17	2.730627E-18
3.270000E+03	1.559800E-17	2.611836E-18
3.280000E+03	1.512940E-17	2.499759E-18
3.290000E+03	1.467896E-17	2.394054E-18
3.300000E+03	1.424644E-17	2.294424E-18
3.310000E+03	1.383115E-17	2.200516E-18
3.320000E+03	1.343282E-17	2.112055E-18
3.330000E+03	1.305098E-17	2.028746E-18
3.340000E+03	1.268477E-17	1.950250E-18
3.350000E+03	1.233412E-17	1.876358E-18
3.360000E+03	1.199838E-17	1.806788E-18
3.370000E+03	1.167710E-17	1.741297E-18
3.380000E+03	1.136985E-17	1.679657E-18
3.390000E+03	1.107589E-17	1.621606E-18
3.400000E+03	1.079511E-17	1.566984E-18
3.410000E+03	1.052695E-17	1.515576E-18
3.420000E+03	1.027088E-17	1.467180E-18
3.430000E+03	1.002653E-17	1.421624E-18
3.440000E+03	9.793511E-18	1.378750E-18
3.450000E+03	9.571240E-18	1.338370E-18
3.460000E+03	9.359500E-18	1.300362E-18
3.470000E+03	9.157736E-18	1.264562E-18
3.480000E+03	8.965648E-18	1.230848E-18
3.490000E+03	8.782836E-18	1.199092E-18
3.500000E+03	8.608923E-18	1.169175E-18
3.510000E+03	8.443552E-18	1.140983E-18
3.520000E+03	8.286384E-18	1.114415E-18
3.530000E+03	8.137008E-18	1.089361E-18
3.540000E+03	7.995040E-18	1.065722E-18
3.550000E+03	7.860205E-18	1.043417E-18
3.560000E+03	7.732159E-18	1.022358E-18
3.570000E+03	7.610662E-18	1.002477E-18
3.580000E+03	7.495326E-18	9.836885E-19
3.590000E+03	7.385944E-18	9.659344E-19
3.600000E+03	7.282242E-18	9.491503E-19
3.610000E+03	7.184106E-18	9.332953E-19
3.620000E+03	7.091213E-18	9.183034E-19
3.630000E+03	7.003395E-18	9.041315E-19
3.640000E+03	6.920293E-18	8.907131E-19
3.650000E+03	6.841764E-18	8.780122E-19
3.660000E+03	6.767608E-18	8.659864E-19
3.670000E+03	6.697632E-18	8.545963E-19
3.680000E+03	6.631714E-18	8.438125E-19
3.690000E+03	6.569734E-18	8.336072E-19
3.700000E+03	6.511515E-18	8.239466E-19
3.710000E+03	6.457005E-18	8.148134E-19
3.720000E+03	6.406034E-18	8.061765E-19
3.730000E+03	6.358607E-18	7.980276E-19
3.740000E+03	6.314613E-18	7.903445E-19
3.750000E+03	6.273943E-18	7.831060E-19
3.760000E+03	6.236546E-18	7.762982E-19
3.770000E+03	6.202421E-18	7.699145E-19
3.780000E+03	6.171460E-18	7.639351E-19
3.790000E+03	6.143661E-18	7.583538E-19
3.800000E+03	6.118916E-18	7.531516E-19
3.810000E+03	6.097170E-18	7.483165E-19
3.820000E+03	6.078419E-18	7.438427E-19
3.830000E+03	6.062658E-18	7.397248E-19
3.840000E+03	6.049779E-18	7.359448E-19
3.850000E+03	6.039828E-18	7.325036E-19
3.860000E+03	6.032648E-18	7.293776E-19
3.870000E+03	6.028331E-18	7.265737E-19
3.880000E+03	6.026722E-18	7.240688E-19
3.890000E+03	6.027914E-18	7.218697E-19
3.900000E+03	6.031801E-18	7.199595E-19
3.910000E+03	6.038375E-18	7.183332E-19
3.920000E+03	6.047581E-18	7.169800E-19
3.930000E+03	6.059411E-18	7.158950E-19
3.940000E+03	6.073811E-18	7.150674E-19
3.950000E+03	6.090822E-18	7.144983E-19
3.960000E+03	6.110340E-18	7.141712E-19
3.970000E+03	6.132359E-18	7.140814E-19
3.980000E+03	6.156825E-18	7.142187E-19
3.990000E+03	6.183779E-18	7.145840E-19
4.000000E+03	6.213168E-18	7.151671E-19
4.010000E+03	6.244939E-18	7.159581E-19
4.020000E+03	6.279037E-18	7.169469E-19
4.030000E+03	6.315509E-18	7.181352E-19
4.040000E+03	6.354250E-18	7.195078E-19
4.050000E+03	6.395310E-18	7.210666E-19
4.060000E+03	6.438585E-18	7.227969E-19
4.070000E+03	6.484074E-18	7.246954E-19
4.080000E+03	6.531777E-18	7.267593E-19
4.090000E+03	6.581643E-18	7.289803E-19
4.100000E+03	6.633623E-18	7.313507E-19
4.110000E+03	6.687666E-18	7.338629E-19
4.120000E+03	6.743827E-18	7.365213E-19
4.130000E+03	6.802006E-18	7.393137E-19
4.140000E+03	6.862208E-18	7.422398E-19
4.150000E+03	6.924331E-18	7.452882E-19
4.160000E+03	6.988381E-18	7.484597E-19
4.170000E+03	7.054366E-18	7.517558E-19
4.180000E+03	7.122184E-18	7.551669E-19
4.190000E+03	7.191845E-18	7.586959E-19
4.200000E+03	7.263246E-18	7.623342E-19
4.210000E+03	7.336397E-18	7.660861E-19
4.220000E+03	7.411193E-18	7.699444E-19
4.230000E+03	7.487646E-18	7.739147E-19
4.240000E+03	7.565648E-18	7.779909E-19
4.250000E+03	7.645151E-18	7.821737E-19
4.260000E+03	7.726043E-18	7.864580E-19
4.270000E+03	7.808333E-18	7.908515E-19
4.280000E+03	7.891907E-18	7.953498E-19
4.290000E+03	7.976709E-18	7.999549E-19
4.300000E+03	8.062618E-18	8.046626E-19
4.310000E+03	8.149509E-18	8.094683E-19
4.320000E+03	8.237317E-18	8.143735E-19
4.330000E+03	8.325975E-18	8.193794E-19
4.340000E+03	8.415344E-18	8.244799E-19
4.350000E+03	8.505351E-18	8.296747E-19
4.360000E+03	8.595849E-18	8.349557E-19
4.370000E+03	8.686824E-18	8.403272E-19
4.380000E+03	8.778192E-18	8.457854E-19
4.390000E+03	8.870081E-18	8.513460E-19
4.400000E+03	8.962408E-18	8.570030E-19
4.410000E+03	9.055233E-18	8.627627E-19
4.420000E+03	9.148548E-18	8.686235E-19
4.430000E+03	9.242495E-18	8.745970E-19
4.440000E+03	9.336995E-18	8.806726E-19
4.450000E+03	9.432047E-18	8.868457E-19
4.460000E+03	9.527727E-18	8.931185E-19
4.470000E+03	9.624041E-18	8.994853E-19
4.480000E+03	9.720993E-18	9.059402E-19
4.490000E+03	9.818512E-18	9.124691E-19
4.500000E+03	9.916689E-18	9.190734E-19
4.510000E+03	1.001546E-17	9.257391E-19
4.520000E+03	1.011483E-17	9.324602E-19
4.530000E+03	1.021482E-17	9.392313E-19
4.540000E+03	1.031528E-17	9.460314E-19
4.550000E+03	1.041632E-17	9.528643E-19
4.560000E+03	1.051788E-17	9.597184E-19
4.570000E+03	1.061999E-17	9.665915E-19
4.580000E+03	1.072249E-17	9.734652E-19
4.590000E+03	1.082552E-17	9.803476E-19
4.600000E+03	1.092892E-17	9.872221E-19
4.610000E+03	1.103283E-17	9.940990E-19
4.620000E+03	1.113711E-17	1.000964E-18
4.630000E+03	1.124180E-17	1.007820E-18
4.640000E+03	1.134687E-17	1.014664E-18
4.650000E+03	1.145247E-17	1.021510E-18
4.660000E+03	1.155847E-17	1.028346E-18
4.670000E+03	1.166504E-17	1.035190E-18
4.680000E+03	1.177216E-17	1.042041E-18
4.690000E+03	1.187981E-17	1.048898E-18
4.700000E+03	1.198818E-17	1.055780E-18
4.710000E+03	1.209716E-17	1.062679E-18
4.720000E+03	1.220684E-17	1.069605E-18
4.730000E+03	1.231712E-17	1.076550E-18
4.740000E+03	1.242809E-17	1.083526E-18
4.750000E+03	1.253954E-17	1.090514E-18
4.760000E+03	1.265156E-17	1.097527E-18
4.770000E+03	1.276405E-17	1.104555E-18
4.780000E+03	1.287712E-17	1.111612E-18
4.790000E+03	1.299066E-17	1.118690E-18
4.800000E+03	1.310466E-17	1.125791E-18
4.810000E+03	1.321912E-17	1.132918E-18
4.820000E+03	1.333405E-17	1.140075E-18
4.830000E+03	1.344944E-17	1.147265E-18
4.840000E+03	1.356517E-17	1.154480E-18
4.850000E+03	1.368135E-17	1.161734E-18
4.860000E+03	1.379798E-17	1.169031E-18
4.870000E+03	1.391492E-17	1.176363E-18
4.880000E+03	1.403215E-17	1.183732E-18
4.890000E+03	1.414980E-17	1.191153E-18
4.900000E+03	1.426757E-17	1.198603E-18
4.910000E+03	1.438570E-17	1.206108E-18
4.920000E+03	1.450402E-17	1.213654E-18
4.930000E+03	1.462236E-17	1.221229E-18
4.940000E+03	1.474081E-17	1.228842E-18
4.950000E+03	1.485931E-17	1.236489E-18
4.960000E+03	1.497766E-17	1.244153E-18
4.970000E+03	1.509592E-17	1.251837E-18
4.980000E+03	1.521374E-17	1.259510E-18
4.990000E+03	1.533131E-17	1.267186E-18
5.000000E+03	1.544837E-17	1.274840E-18
5.010000E+03	1.556468E-17	1.282446E-18
5.020000E+03	1.568025E-17	1.290003E-18
5.030000E+03	1.579480E-17	1.297482E-18
5.040000E+03	1.590818E-17	1.304865E-18
5.050000E+03	1.602024E-17	1.312136E-18
5.060000E+03	1.613080E-17	1.319274E-18
5.070000E+03	1.623953E-17	1.326250E-18
5.080000E+03	1.634640E-17	1.333054E-18
5.090000E+03	1.645104E-17	1.339656E-18
5.100000E+03	1.655325E-17	1.346036E-18
5.110000E+03	1.665264E-17	1.352161E-18
5.120000E+03	1.674915E-17	1.358026E-18
5.130000E+03	1.684221E-17	1.363587E-18
5.140000E+03	1.693190E-17	1.368854E-18
5.150000E+03	1.701765E-17	1.373784E-18
5.160000E+03	1.709936E-17	1.378375E-18
5.170000E+03	1.717662E-17	1.382603E-18
5.180000E+03	1.724899E-17	1.386441E-18
5.190000E+03	1.731638E-17	1.389892E-18
5.200000E+03	1.737836E-17	1.392936E-18
5.210000E+03	1.743468E-17	1.395565E-18
5.220000E+03	1.748510E-17	1.397773E-18
5.230000E+03	1.752918E-17	1.399544E-18
5.240000E+03	1.756672E-17	1.400876E-18
5.250000E+03	1.759731E-17	1.401753E-18
5.260000E+03	1.762092E-17	1.402192E-18
5.270000E+03	1.763721E-17	1.402180E-18
5.280000E+03	1.764601E-17	1.401720E-18
5.290000E+03	1.764718E-17	1.400819E-18
5.300000E+03	1.764044E-17	1.399468E-18
5.310000E+03	1.762572E-17	1.397676E-18
5.320000E+03	1.760298E-17	1.395450E-18
5.330000E+03	1.757221E-17	1.392802E-18
5.340000E+03	1.753327E-17	1.389729E-18
5.350000E+03	1.748643E-17	1.386258E-18
5.360000E+03	1.743179E-17	1.382404E-18
5.370000E+03	1.736953E-17	1.378183E-18
5.380000E+03	1.729969E-17	1.373598E-18
5.390000E+03	1.722287E-17	1.368697E-18
5.400000E+03	1.713922E-17	1.363486E-18
5.410000E+03	1.704943E-17	1.358013E-18
5.420000E+03	1.695373E-17	1.352290E-18
5.430000E+03	1.685273E-17	1.346354E-18
5.440000E+03	1.674690E-17	1.340232E-18
5.450000E+03	1.663711E-17	1.333978E-18
5.460000E+03	1.652372E-17	1.327606E-18
5.470000E+03	1.640715E-17	1.321133E-18
5.480000E+03	1.628769E-17	1.314564E-18
5.490000E+03	1.616597E-17	1.307930E-18
5.500000E+03	1.604231E-17	1.301237E-18
5.510000E+03	1.591723E-17	1.294507E-18
5.520000E+03	1.579124E-17	1.287759E-18
5.530000E+03	1.566487E-17	1.281016E-18
5.540000E+03	1.553864E-17	1.274299E-18
5.550000E+03	1.541323E-17	1.267644E-18
5.560000E+03	1.528913E-17	1.261073E-18
5.570000E+03	1.516715E-17	1.254632E-18
5.580000E+03	1.504760E-17	1.248332E-18
5.590000E+03	1.493136E-17	1.242231E-18
5.600000E+03	1.481871E-17	1.236337E-18
5.610000E+03	1.471032E-17	1.230697E-18
5.620000E+03	1.460684E-17	1.225352E-18
5.630000E+03	1.450842E-17	1.220311E-18
5.640000E+03	1.441593E-17	1.215638E-18
5.650000E+03	1.432960E-17	1.211351E-18
5.660000E+03	1.424965E-17	1.207464E-18
5.670000E+03	1.417681E-17	1.204040E-18
5.680000E+03	1.411108E-17	1.201078E-18
5.690000E+03	1.405285E-17	1.198613E-18
5.700000E+03	1.400248E-17	1.196679E-18
5.710000E+03	1.396014E-17	1.195294E-18
5.720000E+03	1.392602E-17	1.194477E-18
5.730000E+03	1.390024E-17	1.194242E-18
5.740000E+03	1.388307E-17	1.194616E-18
5.750000E+03	1.387476E-17	1.195624E-18
5.760000E+03	1.387509E-17	1.197251E-18
5.770000E+03	1.388459E-17	1.199541E-18
5.780000E+03	1.390301E-17	1.202476E-18
5.790000E+03	1.393071E-17	1.206085E-18
5.800000E+03	1.396758E-17	1.210358E-18
5.810000E+03	1.401380E-17	1.215308E-18
5.820000E+03	1.406942E-17	1.220933E-18
5.830000E+03	1.413460E-17	1.227244E-18
5.840000E+03	1.420923E-17	1.234221E-18
5.850000E+03	1.429331E-17	1.241859E-18
5.860000E+03	1.438702E-17	1.250162E-18
5.870000E+03	1.449052E-17	1.259135E-18
5.880000E+03	1.460349E-17	1.268738E-18
5.890000E+03	1.472626E-17	1.278989E-18
5.900000E+03	1.485865E-17	1.289859E-18
5.910000E+03	1.500079E-17	1.301348E-18
5.920000E+03	1.515266E-17	1.313443E-18
5.930000E+03	1.531405E-17	1.326113E-18
5.940000E+03	1.548505E-17	1.339356E-18
5.950000E+03	1.566559E-17	1.353157E-18
5.960000E+03	1.585540E-17	1.367485E-18
5.970000E+03	1.605471E-17	1.382353E-18
5.980000E+03	1.626302E-17	1.397716E-18
5.990000E+03	1.648034E-17	1.413573E-18
6.000000E+03	1.670647E-17	1.429910E-18
6.010000E+03	1.694100E-17	1.446698E-18
6.020000E+03	1.718386E-17	1.463939E-18
6.030000E+03	1.743436E-17	1.481589E-18
6.040000E+03	1.769256E-17	1.499673E-18
6.050000E+03	1.795770E-17	1.518145E-18
6.060000E+03	1.822957E-17	1.537019E-18
6.070000E+03	1.850753E-17	1.556269E-18
6.080000E+03	1.879108E-17	1.575893E-18
6.090000E+03	1.907950E-17	1.595870E-18
6.100000E+03	1.937198E-17	1.616179E-18
6.110000E+03	1.966817E-17	1.636839E-18
6.120000E+03	1.996674E-17	1.657790E-18
6.130000E+03	2.026725E-17	1.679052E-18
6.140000E+03	2.056852E-17	1.700581E-18
6.150000E+03	2.086986E-17	1.722374E-18
6.160000E+03	2.116949E-17	1.744337E-18
6.170000E+03	2.146692E-17	1.766478E-18
6.180000E+03	2.176058E-17	1.788712E-18
6.190000E+03	2.204945E-17	1.810989E-18
6.200000E+03	2.233221E-17	1.833227E-18
6.210000E+03	2.260871E-17	1.855424E-18
6.220000E+03	2.287917E-17	1.877599E-18
6.230000E+03	2.314390E-17	1.899769E-18
6.240000E+03	2.340333E-17	1.921951E-18
6.250000E+03	2.365707E-17	1.944089E-18
6.260000E+03	2.390633E-17	1.966249E-18
6.270000E+03	2.415055E-17	1.988352E-18
6.280000E+03	2.439049E-17	2.010418E-18
6.290000E+03	2.462666E-17	2.032450E-18
6.300000E+03	2.485867E-17	2.054369E-18
6.310000E+03	2.508714E-17	2.076184E-18
6.320000E+03	2.531240E-17	2.097879E-18
6.330000E+03	2.553486E-17	2.119444E-18
6.340000E+03	2.575424E-17	2.140817E-18
6.350000E+03	2.597098E-17	2.161997E-18
6.360000E+03	2.618520E-17	2.182956E-18
6.370000E+03	2.639703E-17	2.203676E-18
6.380000E+03	2.660626E-17	2.224106E-18
6.390000E+03	2.681264E-17	2.244202E-18
6.400000E+03	2.701592E-17	2.263920E-18
6.410000E+03	2.721624E-17	2.283251E-18
6.420000E+03	2.741333E-17	2.302158E-18
6.430000E+03	2.760613E-17	2.320537E-18
6.440000E+03	2.779592E-17	2.338488E-18
6.450000E+03	2.798285E-17	2.356014E-18
6.460000E+03	2.816748E-17	2.373159E-18
6.470000E+03	2.835079E-17	2.390003E-18
6.480000E+03	2.853255E-17	2.406527E-18
6.490000E+03	2.871379E-17	2.422819E-18
6.500000E+03	2.889471E-17	2.438899E-18
6.510000E+03	2.907594E-17	2.454827E-18
6.520000E+03	2.925679E-17	2.470547E-18
6.530000E+03	2.943881E-17	2.486198E-18
6.540000E+03	2.962127E-17	2.501724E-18
6.550000E+03	2.980481E-17	2.517187E-18
6.560000E+03	2.998963E-17	2.532610E-18
6.570000E+03	3.017542E-17	2.547974E-18
6.580000E+03	3.036283E-17	2.563340E-18
6.590000E+03	3.055200E-17	2.578728E-18
6.600000E+03	3.074260E-17	2.594115E-18
6.610000E+03	3.093477E-17	2.609519E-18
6.620000E+03	3.112862E-17	2.624954E-18
6.630000E+03	3.132478E-17	2.640479E-18
6.640000E+03	3.152234E-17	2.656020E-18
6.650000E+03	3.172189E-17	2.671631E-18
6.660000E+03	3.192352E-17	2.687324E-18
6.670000E+03	3.212678E-17	2.703061E-18
6.680000E+03	3.233227E-17	2.718894E-18
6.690000E+03	3.253948E-17	2.734784E-18
6.700000E+03	3.274902E-17	2.750780E-18
6.710000E+03	3.295980E-17	2.766791E-18
6.720000E+03	3.317238E-17	2.782864E-18
6.730000E+03	3.338737E-17	2.799045E-18
6.740000E+03	3.360361E-17	2.815236E-18
6.750000E+03	3.382166E-17	2.831481E-18
6.760000E+03	3.404092E-17	2.847724E-18
6.770000E+03	3.426195E-17	2.864007E-18
6.780000E+03	3.448412E-17	2.880272E-18
6.790000E+03	3.470736E-17	2.896507E-18
6.800000E+03	3.493225E-17	2.912753E-18
6.810000E+03	3.515748E-17	2.928893E-18
6.820000E+03	3.538422E-17	2.945018E-18
6.830000E+03	3.561112E-17	2.961009E-18
6.840000E+03	3.583940E-17	2.976957E-18
6.850000E+03	3.606764E-17	2.992740E-18
6.860000E+03	3.629575E-17	3.008341E-18
6.870000E+03	3.652426E-17	3.023800E-18
6.880000E+03	3.675307E-17	3.039104E-18
6.890000E+03	3.698069E-17	3.054124E-18
6.900000E+03	3.720836E-17	3.068960E-18
6.910000E+03	3.743526E-17	3.083542E-18
6.920000E+03	3.766196E-17	3.097917E-18
6.930000E+03	3.788690E-17	3.111958E-18
6.940000E+03	3.811065E-17	3.125712E-18
6.950000E+03	3.833306E-17	3.139172E-18
6.960000E+03	3.855327E-17	3.152270E-18
6.970000E+03	3.877187E-17	3.165060E-18
6.980000E+03	3.898872E-17	3.177537E-18
6.990000E+03	3.920296E-17	3.189636E-18
7.000000E+03	3.941443E-17	3.201353E-18
7.010000E+03	3.962303E-17	3.212686E-18
7.020000E+03	3.982941E-17	3.223694E-18
7.030000E+03	4.003191E-17	3.234251E-18
7.040000E+03	4.023202E-17	3.244482E-18
7.050000E+03	4.042806E-17	3.254259E-18
7.060000E+03	4.062075E-17	3.263644E-18
7.070000E+03	4.080924E-17	3.272572E-18
7.080000E+03	4.099428E-17	3.281105E-18
7.090000E+03	4.117584E-17	3.289244E-18
7.100000E+03	4.135308E-17	3.296920E-18
7.110000E+03	4.152514E-17	3.304063E-18
7.120000E+03	4.169370E-17	3.310805E-18
7.130000E+03	4.185791E-17	3.317074E-18
7.140000E+03	4.201781E-17	3.322869E-18
7.150000E+03	4.217342E-17	3.328183E-18
7.160000E+03	4.232391E-17	3.332947E-18
7.170000E+03	4.247020E-17	3.337224E-18
7.180000E+03	4.261145E-17	3.340942E-18
7.190000E+03	4.274771E-17	3.344097E-18
7.200000E+03	4.287992E-17	3.346757E-18
7.210000E+03	4.300726E-17	3.348853E-18
7.220000E+03	4.313068E-17	3.350455E-18
7.230000E+03	4.324844E-17	3.351425E-18
7.240000E+03	4.336150E-17	3.351840E-18
7.250000E+03	4.346992E-17	3.351708E-18
7.260000E+03	4.357375E-17	3.351040E-18
7.270000E+03	4.367304E-17	3.349853E-18
7.280000E+03	4.376786E-17	3.348166E-18
7.290000E+03	4.385731E-17	3.345932E-18
7.300000E+03	4.394238E-17	3.343253E-18
7.310000E+03	4.402312E-17	3.340165E-18
7.320000E+03	4.409958E-17	3.336708E-18
7.330000E+03	4.417086E-17	3.332857E-18
7.340000E+03	4.423796E-17	3.328738E-18
7.350000E+03	4.430192E-17	3.324483E-18
7.360000E+03	4.436087E-17	3.320012E-18
7.370000E+03	4.441583E-17	3.315469E-18
7.380000E+03	4.446688E-17	3.310929E-18
7.390000E+03	4.451511E-17	3.306546E-18
7.400000E+03	4.455961E-17	3.302332E-18
7.410000E+03	4.460149E-17	3.298447E-18
7.420000E+03	4.464186E-17	3.295052E-18
7.430000E+03	4.467986E-17	3.292162E-18
7.440000E+03	4.471764E-17	3.290010E-18
7.450000E+03	4.475331E-17	3.288530E-18
7.460000E+03	4.478805E-17	3.287870E-18
7.470000E+03	4.482097E-17	3.288024E-18
7.480000E+03	4.485323E-17	3.289121E-18
7.490000E+03	4.488290E-17	3.291054E-18
7.500000E+03	4.491112E-17	3.293928E-18
7.510000E+03	4.493801E-17	3.297754E-18
7.520000E+03	4.496261E-17	3.302447E-18
7.530000E+03	4.498713E-17	3.308129E-18
7.540000E+03	4.500955E-17	3.314598E-18
7.550000E+03	4.503099E-17	3.321871E-18
7.560000E+03	4.505047E-17	3.329796E-18
7.570000E+03	4.506907E-17	3.338373E-18
7.580000E+03	4.508577E-17	3.347435E-18
7.590000E+03	4.510166E-17	3.356972E-18
7.600000E+03	4.511565E-17	3.366815E-18
7.610000E+03	4.512775E-17	3.376875E-18
7.620000E+03	4.513903E-17	3.387148E-18
7.630000E+03	4.514836E-17	3.397474E-18
7.640000E+03	4.515572E-17	3.407782E-18
7.650000E+03	4.516214E-17	3.418088E-18
7.660000E+03	4.516647E-17	3.428256E-18
7.670000E+03	4.516975E-17	3.438323E-18
7.680000E+03	4.516969E-17	3.448080E-18
7.690000E+03	4.516840E-17	3.457667E-18
7.700000E+03	4.516582E-17	3.467063E-18
7.710000E+03	4.516070E-17	3.476167E-18
7.720000E+03	4.515406E-17	3.485055E-18
7.730000E+03	4.514465E-17	3.493637E-18
7.740000E+03	4.513234E-17	3.501911E-18
7.750000E+03	4.511812E-17	3.509966E-18
7.760000E+03	4.510186E-17	3.517808E-18
