#wls	flux	fluxerr
1.600000E+03	2.422105E-16	2.554627E-16
1.640000E+03	2.406647E-16	2.504514E-16
1.680000E+03	2.389198E-16	2.451990E-16
1.720000E+03	2.369526E-16	2.396920E-16
1.760000E+03	2.347609E-16	2.339397E-16
1.800000E+03	2.323594E-16	2.279685E-16
1.840000E+03	2.296824E-16	2.217274E-16
1.880000E+03	2.267623E-16	2.152627E-16
1.920000E+03	2.235731E-16	2.085651E-16
1.960000E+03	2.200923E-16	2.016310E-16
2.000000E+03	2.162870E-16	1.944494E-16
2.040000E+03	2.121462E-16	1.870321E-16
2.080000E+03	2.076381E-16	1.793741E-16
2.120000E+03	2.027185E-16	1.714631E-16
2.160000E+03	1.973959E-16	1.633346E-16
2.200000E+03	1.916443E-16	1.549963E-16
2.240000E+03	1.854670E-16	1.464821E-16
2.280000E+03	1.789009E-16	1.378521E-16
2.320000E+03	1.720070E-16	1.291824E-16
2.360000E+03	1.648706E-16	1.205626E-16
2.400000E+03	1.575762E-16	1.120755E-16
2.440000E+03	1.501991E-16	1.037907E-16
2.480000E+03	1.428231E-16	9.577735E-17
2.520000E+03	1.355015E-16	8.807769E-17
2.560000E+03	1.282903E-16	8.073104E-17
2.600000E+03	1.212226E-16	7.375747E-17
2.640000E+03	1.143323E-16	6.717418E-17
2.680000E+03	1.076412E-16	6.098821E-17
2.720000E+03	1.011702E-16	5.520345E-17
2.760000E+03	9.493890E-17	4.982069E-17
2.800000E+03	8.896285E-17	4.483632E-17
2.840000E+03	8.325731E-17	4.024454E-17
2.880000E+03	7.784105E-17	3.603921E-17
2.920000E+03	7.272650E-17	3.220914E-17
2.960000E+03	6.793370E-17	2.874472E-17
3.000000E+03	6.347394E-17	2.563066E-17
3.010000E+03	6.241431E-17	2.490575E-17
3.020000E+03	6.137553E-17	2.420108E-17
3.030000E+03	6.035770E-17	2.351637E-17
3.040000E+03	5.936355E-17	2.285232E-17
3.050000E+03	5.839170E-17	2.220805E-17
3.060000E+03	5.744214E-17	2.158320E-17
3.070000E+03	5.651611E-17	2.097787E-17
3.080000E+03	5.561233E-17	2.039123E-17
3.090000E+03	5.473084E-17	1.982295E-17
3.100000E+03	5.387389E-17	1.927347E-17
3.110000E+03	5.303915E-17	1.874159E-17
3.120000E+03	5.222773E-17	1.822737E-17
3.130000E+03	5.143854E-17	1.773005E-17
3.140000E+03	5.067462E-17	1.725034E-17
3.150000E+03	4.993286E-17	1.678681E-17
3.160000E+03	4.921425E-17	1.633945E-17
3.170000E+03	4.851969E-17	1.590820E-17
3.180000E+03	4.784909E-17	1.549269E-17
3.190000E+03	4.720060E-17	1.509196E-17
3.200000E+03	4.657685E-17	1.470652E-17
3.210000E+03	4.597604E-17	1.433545E-17
3.220000E+03	4.539896E-17	1.397867E-17
3.230000E+03	4.484477E-17	1.363558E-17
3.240000E+03	4.431425E-17	1.330609E-17
3.250000E+03	4.380735E-17	1.298986E-17
3.260000E+03	4.332402E-17	1.268656E-17
3.270000E+03	4.286352E-17	1.239564E-17
3.280000E+03	4.242658E-17	1.211700E-17
3.290000E+03	4.201316E-17	1.185032E-17
3.300000E+03	4.162258E-17	1.159511E-17
3.310000E+03	4.125553E-17	1.135126E-17
3.320000E+03	4.091138E-17	1.111829E-17
3.330000E+03	4.059078E-17	1.089609E-17
3.340000E+03	4.029315E-17	1.068421E-17
3.350000E+03	4.001852E-17	1.048239E-17
3.360000E+03	3.976695E-17	1.029036E-17
3.370000E+03	3.953852E-17	1.010787E-17
3.380000E+03	3.933328E-17	9.934653E-18
3.390000E+03	3.915073E-17	9.770331E-18
3.400000E+03	3.899155E-17	9.614809E-18
3.410000E+03	3.885470E-17	9.467581E-18
3.420000E+03	3.874139E-17	9.328696E-18
3.430000E+03	3.865065E-17	9.197671E-18
3.440000E+03	3.858260E-17	9.074302E-18
3.450000E+03	3.853737E-17	8.958386E-18
3.460000E+03	3.851456E-17	8.849608E-18
3.470000E+03	3.851483E-17	8.747895E-18
3.480000E+03	3.853778E-17	8.652942E-18
3.490000E+03	3.858304E-17	8.564455E-18
3.500000E+03	3.865075E-17	8.482261E-18
3.510000E+03	3.874053E-17	8.406079E-18
3.520000E+03	3.885299E-17	8.335851E-18
3.530000E+03	3.898678E-17	8.271095E-18
3.540000E+03	3.914249E-17	8.211761E-18
3.550000E+03	3.931972E-17	8.157587E-18
3.560000E+03	3.951852E-17	8.108418E-18
3.570000E+03	3.973800E-17	8.063902E-18
3.580000E+03	3.997771E-17	8.023795E-18
3.590000E+03	4.023811E-17	7.988038E-18
3.600000E+03	4.051776E-17	7.956199E-18
3.610000E+03	4.081704E-17	7.928214E-18
3.620000E+03	4.113539E-17	7.903837E-18
3.630000E+03	4.147171E-17	7.882728E-18
3.640000E+03	4.182535E-17	7.864641E-18
3.650000E+03	4.219606E-17	7.849410E-18
3.660000E+03	4.258261E-17	7.836696E-18
3.670000E+03	4.298512E-17	7.826409E-18
3.680000E+03	4.340179E-17	7.818118E-18
3.690000E+03	4.383215E-17	7.811640E-18
3.700000E+03	4.427524E-17	7.806707E-18
3.710000E+03	4.473047E-17	7.803122E-18
3.720000E+03	4.519628E-17	7.800526E-18
3.730000E+03	4.567200E-17	7.798716E-18
3.740000E+03	4.615642E-17	7.797402E-18
3.750000E+03	4.664877E-17	7.796374E-18
3.760000E+03	4.714777E-17	7.795335E-18
3.770000E+03	4.765255E-17	7.794068E-18
3.780000E+03	4.816179E-17	7.792274E-18
3.790000E+03	4.867408E-17	7.789655E-18
3.800000E+03	4.918949E-17	7.786143E-18
3.810000E+03	4.970566E-17	7.781290E-18
3.820000E+03	5.022217E-17	7.774956E-18
3.830000E+03	5.073860E-17	7.767003E-18
3.840000E+03	5.125315E-17	7.757074E-18
3.850000E+03	5.176498E-17	7.744969E-18
3.860000E+03	5.227382E-17	7.730571E-18
3.870000E+03	5.277897E-17	7.713698E-18
3.880000E+03	5.327981E-17	7.694176E-18
3.890000E+03	5.377529E-17	7.671775E-18
3.900000E+03	5.426548E-17	7.646420E-18
3.910000E+03	5.475004E-17	7.617979E-18
3.920000E+03	5.522876E-17	7.586335E-18
3.930000E+03	5.570155E-17	7.551385E-18
3.940000E+03	5.616847E-17	7.513043E-18
3.950000E+03	5.663022E-17	7.471308E-18
3.960000E+03	5.708716E-17	7.426124E-18
3.970000E+03	5.753929E-17	7.377385E-18
3.980000E+03	5.798831E-17	7.325202E-18
3.990000E+03	5.843458E-17	7.269498E-18
4.000000E+03	5.887964E-17	7.210343E-18
4.010000E+03	5.932470E-17	7.147754E-18
4.020000E+03	5.977064E-17	7.081696E-18
4.030000E+03	6.022010E-17	7.012334E-18
4.040000E+03	6.067434E-17	6.939653E-18
4.050000E+03	6.113588E-17	6.863769E-18
4.060000E+03	6.160691E-17	6.784740E-18
4.070000E+03	6.208983E-17	6.702630E-18
4.080000E+03	6.258727E-17	6.617503E-18
4.090000E+03	6.310262E-17	6.529482E-18
4.100000E+03	6.363840E-17	6.438574E-18
4.110000E+03	6.419795E-17	6.344839E-18
4.120000E+03	6.478597E-17	6.248446E-18
4.130000E+03	6.540522E-17	6.149335E-18
4.140000E+03	6.606043E-17	6.047606E-18
4.150000E+03	6.675609E-17	5.943297E-18
4.160000E+03	6.749705E-17	5.836442E-18
4.170000E+03	6.828853E-17	5.727070E-18
4.180000E+03	6.913620E-17	5.615208E-18
4.190000E+03	7.004616E-17	5.500886E-18
4.200000E+03	7.102505E-17	5.384139E-18
4.210000E+03	7.208010E-17	5.265023E-18
4.220000E+03	7.321920E-17	5.143618E-18
4.230000E+03	7.445032E-17	5.020006E-18
4.240000E+03	7.578289E-17	4.894384E-18
4.250000E+03	7.722802E-17	4.767087E-18
4.260000E+03	7.879725E-17	4.638542E-18
4.270000E+03	8.050203E-17	4.509294E-18
4.280000E+03	8.235732E-17	4.380273E-18
4.290000E+03	8.437913E-17	4.252737E-18
4.300000E+03	8.658550E-17	4.128429E-18
4.310000E+03	8.899680E-17	4.009744E-18
4.320000E+03	9.163540E-17	3.899890E-18
4.330000E+03	9.452929E-17	3.803253E-18
4.340000E+03	9.770708E-17	3.725389E-18
4.350000E+03	1.012052E-16	3.673489E-18
4.360000E+03	1.050640E-16	3.656245E-18
4.370000E+03	1.093310E-16	3.683793E-18
4.380000E+03	1.140604E-16	3.767198E-18
4.390000E+03	1.193153E-16	3.917595E-18
4.400000E+03	1.251436E-16	4.141707E-18
4.410000E+03	1.315782E-16	4.441158E-18
4.420000E+03	1.386522E-16	4.815734E-18
4.430000E+03	1.464014E-16	5.264239E-18
4.440000E+03	1.548669E-16	5.785193E-18
4.450000E+03	1.640899E-16	6.377065E-18
4.460000E+03	1.741154E-16	7.038621E-18
4.470000E+03	1.849920E-16	7.769010E-18
4.480000E+03	1.967652E-16	8.567443E-18
4.490000E+03	2.094864E-16	9.433510E-18
4.500000E+03	2.232064E-16	1.036680E-17
4.510000E+03	2.379736E-16	1.136676E-17
4.520000E+03	2.538373E-16	1.243277E-17
4.530000E+03	2.708450E-16	1.356397E-17
4.540000E+03	2.890412E-16	1.475925E-17
4.550000E+03	3.084666E-16	1.601717E-17
4.560000E+03	3.291530E-16	1.733583E-17
4.570000E+03	3.511247E-16	1.871304E-17
4.580000E+03	3.744070E-16	2.014693E-17
4.590000E+03	3.990020E-16	2.163493E-17
4.600000E+03	4.249019E-16	2.317471E-17
4.610000E+03	4.520930E-16	2.476479E-17
4.620000E+03	4.805431E-16	2.640418E-17
4.630000E+03	5.101886E-16	2.809212E-17
4.640000E+03	5.409763E-16	2.983077E-17
4.650000E+03	5.727993E-16	3.162206E-17
4.660000E+03	6.055618E-16	3.347163E-17
4.670000E+03	6.391335E-16	3.538645E-17
4.680000E+03	6.733648E-16	3.737571E-17
4.690000E+03	7.080880E-16	3.945071E-17
4.700000E+03	7.431195E-16	4.162444E-17
4.710000E+03	7.782776E-16	4.391190E-17
4.720000E+03	8.133492E-16	4.632713E-17
4.730000E+03	8.481339E-16	4.888012E-17
4.740000E+03	8.824648E-16	5.157167E-17
4.750000E+03	9.161581E-16	5.439650E-17
4.760000E+03	9.490835E-16	5.734834E-17
4.770000E+03	9.810671E-16	6.041418E-17
4.780000E+03	1.011994E-15	6.358085E-17
4.790000E+03	1.041747E-15	6.683154E-17
4.800000E+03	1.070198E-15	7.014602E-17
4.810000E+03	1.097268E-15	7.350463E-17
4.820000E+03	1.122893E-15	7.688695E-17
4.830000E+03	1.146991E-15	8.026992E-17
4.840000E+03	1.169525E-15	8.363284E-17
4.850000E+03	1.190463E-15	8.695475E-17
4.860000E+03	1.209772E-15	9.021457E-17
4.870000E+03	1.227442E-15	9.339314E-17
4.880000E+03	1.243486E-15	9.647357E-17
4.890000E+03	1.257904E-15	9.943847E-17
4.900000E+03	1.270728E-15	1.022740E-16
4.910000E+03	1.281958E-15	1.049648E-16
4.920000E+03	1.291642E-15	1.075002E-16
4.930000E+03	1.299819E-15	1.098701E-16
4.940000E+03	1.306522E-15	1.120651E-16
4.950000E+03	1.311812E-15	1.140793E-16
4.960000E+03	1.315729E-15	1.159062E-16
4.970000E+03	1.318341E-15	1.175431E-16
4.980000E+03	1.319694E-15	1.189862E-16
4.990000E+03	1.319848E-15	1.202343E-16
5.000000E+03	1.318849E-15	1.212861E-16
5.010000E+03	1.316788E-15	1.221449E-16
5.020000E+03	1.313700E-15	1.228105E-16
5.030000E+03	1.309646E-15	1.232857E-16
5.040000E+03	1.304705E-15	1.235756E-16
5.050000E+03	1.298922E-15	1.236835E-16
5.060000E+03	1.292360E-15	1.236146E-16
5.070000E+03	1.285078E-15	1.233746E-16
5.080000E+03	1.277134E-15	1.229697E-16
5.090000E+03	1.268571E-15	1.224053E-16
5.100000E+03	1.259443E-15	1.216884E-16
5.110000E+03	1.249817E-15	1.208273E-16
5.120000E+03	1.239715E-15	1.198270E-16
5.130000E+03	1.229211E-15	1.186976E-16
5.140000E+03	1.218312E-15	1.174428E-16
5.150000E+03	1.207085E-15	1.160728E-16
5.160000E+03	1.195558E-15	1.145941E-16
5.170000E+03	1.183766E-15	1.130143E-16
5.180000E+03	1.171744E-15	1.113409E-16
5.190000E+03	1.159510E-15	1.095804E-16
5.200000E+03	1.147094E-15	1.077402E-16
5.210000E+03	1.134510E-15	1.058266E-16
5.220000E+03	1.121805E-15	1.038492E-16
5.230000E+03	1.108965E-15	1.018121E-16
5.240000E+03	1.096022E-15	9.972370E-17
5.250000E+03	1.082993E-15	9.759127E-17
5.260000E+03	1.069893E-15	9.542216E-17
5.270000E+03	1.056715E-15	9.322181E-17
5.280000E+03	1.043484E-15	9.099871E-17
5.290000E+03	1.030202E-15	8.875956E-17
5.300000E+03	1.016879E-15	8.651215E-17
5.310000E+03	1.003517E-15	8.426357E-17
5.320000E+03	9.901387E-16	8.202287E-17
5.330000E+03	9.767339E-16	7.979672E-17
5.340000E+03	9.633151E-16	7.759379E-17
5.350000E+03	9.498853E-16	7.542216E-17
5.360000E+03	9.364673E-16	7.329165E-17
5.370000E+03	9.230470E-16	7.120925E-17
5.380000E+03	9.096497E-16	6.918509E-17
5.390000E+03	8.962827E-16	6.722786E-17
5.400000E+03	8.829553E-16	6.534623E-17
5.410000E+03	8.696611E-16	6.354743E-17
5.420000E+03	8.564133E-16	6.183978E-17
5.430000E+03	8.432274E-16	6.023106E-17
5.440000E+03	8.300868E-16	5.872597E-17
5.450000E+03	8.170118E-16	5.733079E-17
5.460000E+03	8.039996E-16	5.604892E-17
5.470000E+03	7.910664E-16	5.488356E-17
5.480000E+03	7.782692E-16	5.383909E-17
5.490000E+03	7.656327E-16	5.291589E-17
5.500000E+03	7.532104E-16	5.211360E-17
5.510000E+03	7.410324E-16	5.142615E-17
5.520000E+03	7.291493E-16	5.084728E-17
5.530000E+03	7.175735E-16	5.036739E-17
5.540000E+03	7.063387E-16	4.997801E-17
5.550000E+03	6.954628E-16	4.966951E-17
5.560000E+03	6.849832E-16	4.943394E-17
5.570000E+03	6.749071E-16	4.926168E-17
5.580000E+03	6.652539E-16	4.914466E-17
5.590000E+03	6.560339E-16	4.907494E-17
5.600000E+03	6.472684E-16	4.904625E-17
5.610000E+03	6.389563E-16	4.905152E-17
5.620000E+03	6.311072E-16	4.908536E-17
5.630000E+03	6.237284E-16	4.914298E-17
5.640000E+03	6.168181E-16	4.921968E-17
5.650000E+03	6.103786E-16	4.931173E-17
5.660000E+03	6.043976E-16	4.941480E-17
5.670000E+03	5.988731E-16	4.952594E-17
5.680000E+03	5.938013E-16	4.964243E-17
5.690000E+03	5.891703E-16	4.976130E-17
5.700000E+03	5.849669E-16	4.987968E-17
5.710000E+03	5.811763E-16	4.999483E-17
5.720000E+03	5.777949E-16	5.010513E-17
5.730000E+03	5.747937E-16	5.020687E-17
5.740000E+03	5.721672E-16	5.029847E-17
5.750000E+03	5.698973E-16	5.037730E-17
5.760000E+03	5.679595E-16	5.044015E-17
5.770000E+03	5.663410E-16	5.048490E-17
5.780000E+03	5.650293E-16	5.050938E-17
5.790000E+03	5.639997E-16	5.051032E-17
5.800000E+03	5.632338E-16	5.048498E-17
5.810000E+03	5.627261E-16	5.043170E-17
5.820000E+03	5.624467E-16	5.034663E-17
5.830000E+03	5.623850E-16	5.022756E-17
5.840000E+03	5.625249E-16	5.007176E-17
5.850000E+03	5.628507E-16	4.987648E-17
5.860000E+03	5.633538E-16	4.963959E-17
5.870000E+03	5.640076E-16	4.935730E-17
5.880000E+03	5.648110E-16	4.902808E-17
5.890000E+03	5.657449E-16	4.864878E-17
5.900000E+03	5.667968E-16	4.821685E-17
5.910000E+03	5.679548E-16	4.772980E-17
5.920000E+03	5.692072E-16	4.718518E-17
5.930000E+03	5.705491E-16	4.658118E-17
5.940000E+03	5.719564E-16	4.591445E-17
5.950000E+03	5.734179E-16	4.518282E-17
5.960000E+03	5.749287E-16	4.438480E-17
5.970000E+03	5.764775E-16	4.351848E-17
5.980000E+03	5.780391E-16	4.258117E-17
5.990000E+03	5.796146E-16	4.157243E-17
6.000000E+03	5.811712E-16	4.048967E-17
6.010000E+03	5.827156E-16	3.933360E-17
6.020000E+03	5.842137E-16	3.810255E-17
6.030000E+03	5.856507E-16	3.679691E-17
6.040000E+03	5.870182E-16	3.541825E-17
6.050000E+03	5.882938E-16	3.396822E-17
6.060000E+03	5.894612E-16	3.245013E-17
6.070000E+03	5.904902E-16	3.086809E-17
6.080000E+03	5.913788E-16	2.922972E-17
6.090000E+03	5.920899E-16	2.754341E-17
6.100000E+03	5.926231E-16	2.582274E-17
6.110000E+03	5.929584E-16	2.408475E-17
6.120000E+03	5.930777E-16	2.235264E-17
6.130000E+03	5.929733E-16	2.065809E-17
6.140000E+03	5.926492E-16	1.904387E-17
6.150000E+03	5.920994E-16	1.756610E-17
6.160000E+03	5.913315E-16	1.629707E-17
6.170000E+03	5.903745E-16	1.532376E-17
6.180000E+03	5.892358E-16	1.473667E-17
6.190000E+03	5.879524E-16	1.461032E-17
6.200000E+03	5.865408E-16	1.496159E-17
6.210000E+03	5.849804E-16	1.573379E-17
6.220000E+03	5.832400E-16	1.684020E-17
6.230000E+03	5.813038E-16	1.819101E-17
6.240000E+03	5.791708E-16	1.970801E-17
6.250000E+03	5.768315E-16	2.132856E-17
6.260000E+03	5.742964E-16	2.300565E-17
6.270000E+03	5.715728E-16	2.470430E-17
6.280000E+03	5.686790E-16	2.639923E-17
6.290000E+03	5.656279E-16	2.807180E-17
6.300000E+03	5.624337E-16	2.970851E-17
6.310000E+03	5.591194E-16	3.130007E-17
6.320000E+03	5.557082E-16	3.284013E-17
6.330000E+03	5.522079E-16	3.432365E-17
6.340000E+03	5.486414E-16	3.574812E-17
6.350000E+03	5.450304E-16	3.711236E-17
6.360000E+03	5.413810E-16	3.841518E-17
6.370000E+03	5.377207E-16	3.965772E-17
6.380000E+03	5.340612E-16	4.084068E-17
6.390000E+03	5.304127E-16	4.196516E-17
6.400000E+03	5.267845E-16	4.303259E-17
6.410000E+03	5.232000E-16	4.404590E-17
6.420000E+03	5.196587E-16	4.500632E-17
6.430000E+03	5.161820E-16	4.591714E-17
6.440000E+03	5.127751E-16	4.678044E-17
6.450000E+03	5.094425E-16	4.759830E-17
6.460000E+03	5.061955E-16	4.837352E-17
6.470000E+03	5.030368E-16	4.910817E-17
6.480000E+03	4.999766E-16	4.980500E-17
6.490000E+03	4.970011E-16	5.046445E-17
6.500000E+03	4.941269E-16	5.108988E-17
6.510000E+03	4.913548E-16	5.168312E-17
6.520000E+03	4.886774E-16	5.224505E-17
6.530000E+03	4.861025E-16	5.277808E-17
6.540000E+03	4.836297E-16	5.328373E-17
6.550000E+03	4.812587E-16	5.376345E-17
6.560000E+03	4.789885E-16	5.421857E-17
6.570000E+03	4.768261E-16	5.465124E-17
6.580000E+03	4.747626E-16	5.506176E-17
6.590000E+03	4.727968E-16	5.545122E-17
6.600000E+03	4.709351E-16	5.582155E-17
6.610000E+03	4.691762E-16	5.617371E-17
6.620000E+03	4.675106E-16	5.650764E-17
6.630000E+03	4.659447E-16	5.682510E-17
6.640000E+03	4.644689E-16	5.712585E-17
6.650000E+03	4.630973E-16	5.741249E-17
6.660000E+03	4.618123E-16	5.768371E-17
6.670000E+03	4.606122E-16	5.794003E-17
6.680000E+03	4.595029E-16	5.818291E-17
6.690000E+03	4.584825E-16	5.841279E-17
6.700000E+03	4.575413E-16	5.862903E-17
6.710000E+03	4.566771E-16	5.883194E-17
6.720000E+03	4.558960E-16	5.902279E-17
6.730000E+03	4.551879E-16	5.920078E-17
6.740000E+03	4.545588E-16	5.936713E-17
6.750000E+03	4.539905E-16	5.951984E-17
6.760000E+03	4.534971E-16	5.966112E-17
6.770000E+03	4.530602E-16	5.978887E-17
6.780000E+03	4.526941E-16	5.990526E-17
6.790000E+03	4.523804E-16	6.000810E-17
6.800000E+03	4.521252E-16	6.009843E-17
6.810000E+03	4.519265E-16	6.017617E-17
6.820000E+03	4.517742E-16	6.024013E-17
6.830000E+03	4.516745E-16	6.029128E-17
6.840000E+03	4.516174E-16	6.032840E-17
6.850000E+03	4.516093E-16	6.035243E-17
6.860000E+03	4.516318E-16	6.036099E-17
6.870000E+03	4.517001E-16	6.035614E-17
6.880000E+03	4.518040E-16	6.033659E-17
6.890000E+03	4.519422E-16	6.030216E-17
6.900000E+03	4.521046E-16	6.025153E-17
6.910000E+03	4.523071E-16	6.018679E-17
6.920000E+03	4.525225E-16	6.010432E-17
6.930000E+03	4.527755E-16	6.000739E-17
6.940000E+03	4.530477E-16	5.989350E-17
6.950000E+03	4.533381E-16	5.976249E-17
6.960000E+03	4.536543E-16	5.961533E-17
6.970000E+03	4.539867E-16	5.945068E-17
6.980000E+03	4.543346E-16	5.926839E-17
6.990000E+03	4.546969E-16	5.906828E-17
7.000000E+03	4.550730E-16	5.885020E-17
7.010000E+03	4.554622E-16	5.861399E-17
7.020000E+03	4.558549E-16	5.835835E-17
7.030000E+03	4.562683E-16	5.808544E-17
7.040000E+03	4.566748E-16	5.779167E-17
7.050000E+03	4.571010E-16	5.748036E-17
7.060000E+03	4.575192E-16	5.714796E-17
7.070000E+03	4.579468E-16	5.679663E-17
7.080000E+03	4.583742E-16	5.642515E-17
7.090000E+03	4.588008E-16	5.603343E-17
7.100000E+03	4.592352E-16	5.562252E-17
7.110000E+03	4.596584E-16	5.519012E-17
7.120000E+03	4.600788E-16	5.473731E-17
7.130000E+03	4.604865E-16	5.426298E-17
7.140000E+03	4.608898E-16	5.376825E-17
7.150000E+03	4.612879E-16	5.325314E-17
7.160000E+03	4.616704E-16	5.271665E-17
7.170000E+03	4.620455E-16	5.215996E-17
7.180000E+03	4.623931E-16	5.158110E-17
7.190000E+03	4.627306E-16	5.098239E-17
7.200000E+03	4.630469E-16	5.036306E-17
7.210000E+03	4.633307E-16	4.972241E-17
7.220000E+03	4.635895E-16	4.906191E-17
7.230000E+03	4.638209E-16	4.838205E-17
7.240000E+03	4.640130E-16	4.768247E-17
7.250000E+03	4.641631E-16	4.696391E-17
7.260000E+03	4.642682E-16	4.622728E-17
7.270000E+03	4.643252E-16	4.547364E-17
7.280000E+03	4.643307E-16	4.470420E-17
7.290000E+03	4.642617E-16	4.391858E-17
7.300000E+03	4.641339E-16	4.312030E-17
7.310000E+03	4.639336E-16	4.231039E-17
7.320000E+03	4.636471E-16	4.149021E-17
7.330000E+03	4.632799E-16	4.066318E-17
7.340000E+03	4.628084E-16	3.983051E-17
7.350000E+03	4.622286E-16	3.899550E-17
7.360000E+03	4.615362E-16	3.816188E-17
7.370000E+03	4.607177E-16	3.733297E-17
7.380000E+03	4.597790E-16	3.651410E-17
7.390000E+03	4.586877E-16	3.570795E-17
7.400000E+03	4.574603E-16	3.492148E-17
7.410000E+03	4.560748E-16	3.415898E-17
7.420000E+03	4.545392E-16	3.342729E-17
7.430000E+03	4.528426E-16	3.273203E-17
7.440000E+03	4.509846E-16	3.207964E-17
7.450000E+03	4.489753E-16	3.147718E-17
7.460000E+03	4.468067E-16	3.093009E-17
7.470000E+03	4.445098E-16	3.044605E-17
7.480000E+03	4.420691E-16	3.002869E-17
7.490000E+03	4.395081E-16	2.968343E-17
7.500000E+03	4.368230E-16	2.941259E-17
7.510000E+03	4.340489E-16	2.921980E-17
7.520000E+03	4.311797E-16	2.910348E-17
7.530000E+03	4.282146E-16	2.905966E-17
7.540000E+03	4.251628E-16	2.908380E-17
7.550000E+03	4.220251E-16	2.916985E-17
7.560000E+03	4.188221E-16	2.931246E-17
7.570000E+03	4.155378E-16	2.950335E-17
7.580000E+03	4.121849E-16	2.973605E-17
7.590000E+03	4.087766E-16	3.000418E-17
7.600000E+03	4.053081E-16	3.030029E-17
7.610000E+03	4.017933E-16	3.061866E-17
7.620000E+03	3.982282E-16	3.095268E-17
7.630000E+03	3.946359E-16	3.129831E-17
7.640000E+03	3.910035E-16	3.164930E-17
7.650000E+03	3.873539E-16	3.200275E-17
7.660000E+03	3.836744E-16	3.235345E-17
7.670000E+03	3.799874E-16	3.269958E-17
7.680000E+03	3.762800E-16	3.303685E-17
7.690000E+03	3.725738E-16	3.336439E-17
7.700000E+03	3.688643E-16	3.367945E-17
7.710000E+03	3.651552E-16	3.398041E-17
7.720000E+03	3.614501E-16	3.426592E-17
7.730000E+03	3.577521E-16	3.453491E-17
7.740000E+03	3.540643E-16	3.478656E-17
7.750000E+03	3.503811E-16	3.501943E-17
7.760000E+03	3.467212E-16	3.523468E-17
