#wls	flux	fluxerr
1.600000E+03	1.489675E-16	1.442800E-16
1.640000E+03	1.537500E-16	1.464405E-16
1.680000E+03	1.583419E-16	1.482143E-16
1.720000E+03	1.626686E-16	1.495375E-16
1.760000E+03	1.667134E-16	1.504040E-16
1.800000E+03	1.703936E-16	1.507513E-16
1.840000E+03	1.736552E-16	1.505483E-16
1.880000E+03	1.764713E-16	1.497918E-16
1.920000E+03	1.787545E-16	1.484314E-16
1.960000E+03	1.804624E-16	1.464606E-16
2.000000E+03	1.815265E-16	1.438572E-16
2.040000E+03	1.819104E-16	1.406299E-16
2.080000E+03	1.815326E-16	1.367584E-16
2.120000E+03	1.803389E-16	1.322498E-16
2.160000E+03	1.782801E-16	1.271210E-16
2.200000E+03	1.752754E-16	1.213728E-16
2.240000E+03	1.712702E-16	1.150316E-16
2.280000E+03	1.662860E-16	1.081798E-16
2.320000E+03	1.604059E-16	1.009380E-16
2.360000E+03	1.538139E-16	9.348220E-17
2.400000E+03	1.466636E-16	8.595583E-17
2.440000E+03	1.390903E-16	7.847890E-17
2.480000E+03	1.312305E-16	7.116043E-17
2.520000E+03	1.231743E-16	6.407307E-17
2.560000E+03	1.150192E-16	5.728494E-17
2.600000E+03	1.068480E-16	5.084770E-17
2.640000E+03	9.874333E-17	4.480492E-17
2.680000E+03	9.077180E-17	3.918502E-17
2.720000E+03	8.299769E-17	3.400852E-17
2.760000E+03	7.547860E-17	2.928668E-17
2.800000E+03	6.826559E-17	2.502218E-17
2.840000E+03	6.140461E-17	2.121049E-17
2.880000E+03	5.493788E-17	1.784096E-17
2.920000E+03	4.890049E-17	1.489632E-17
2.960000E+03	4.332047E-17	1.235374E-17
3.000000E+03	3.821542E-17	1.018488E-17
3.010000E+03	3.701536E-17	9.697567E-18
3.020000E+03	3.584454E-17	9.230809E-18
3.030000E+03	3.470439E-17	8.784433E-18
3.040000E+03	3.359381E-17	8.357624E-18
3.050000E+03	3.251327E-17	7.949965E-18
3.060000E+03	3.146309E-17	7.560997E-18
3.070000E+03	3.044153E-17	7.189780E-18
3.080000E+03	2.945017E-17	6.836166E-18
3.090000E+03	2.848731E-17	6.499241E-18
3.100000E+03	2.755370E-17	6.178672E-18
3.110000E+03	2.664830E-17	5.873722E-18
3.120000E+03	2.577066E-17	5.583804E-18
3.130000E+03	2.492131E-17	5.308549E-18
3.140000E+03	2.409875E-17	5.047163E-18
3.150000E+03	2.330385E-17	4.799368E-18
3.160000E+03	2.253474E-17	4.564320E-18
3.170000E+03	2.179216E-17	4.341734E-18
3.180000E+03	2.107474E-17	4.130903E-18
3.190000E+03	2.038270E-17	3.931457E-18
3.200000E+03	1.971510E-17	3.742803E-18
3.210000E+03	1.907171E-17	3.564509E-18
3.220000E+03	1.845193E-17	3.396082E-18
3.230000E+03	1.785519E-17	3.237047E-18
3.240000E+03	1.728061E-17	3.086892E-18
3.250000E+03	1.672820E-17	2.945281E-18
3.260000E+03	1.619708E-17	2.811730E-18
3.270000E+03	1.568693E-17	2.685870E-18
3.280000E+03	1.519691E-17	2.567258E-18
3.290000E+03	1.472645E-17	2.455513E-18
3.300000E+03	1.427522E-17	2.350306E-18
3.310000E+03	1.384242E-17	2.251246E-18
3.320000E+03	1.342772E-17	2.158031E-18
3.330000E+03	1.303053E-17	2.070335E-18
3.340000E+03	1.264994E-17	1.987791E-18
3.350000E+03	1.228580E-17	1.910167E-18
3.360000E+03	1.193740E-17	1.837155E-18
3.370000E+03	1.160422E-17	1.768492E-18
3.380000E+03	1.128577E-17	1.703928E-18
3.390000E+03	1.098127E-17	1.643181E-18
3.400000E+03	1.069054E-17	1.586075E-18
3.410000E+03	1.041298E-17	1.532378E-18
3.420000E+03	1.014803E-17	1.481873E-18
3.430000E+03	9.895245E-18	1.434373E-18
3.440000E+03	9.654232E-18	1.389707E-18
3.450000E+03	9.424356E-18	1.347676E-18
3.460000E+03	9.205364E-18	1.308145E-18
3.470000E+03	8.996673E-18	1.270942E-18
3.480000E+03	8.797950E-18	1.235934E-18
3.490000E+03	8.608767E-18	1.202985E-18
3.500000E+03	8.428721E-18	1.171967E-18
3.510000E+03	8.257428E-18	1.142760E-18
3.520000E+03	8.094528E-18	1.115255E-18
3.530000E+03	7.939587E-18	1.089337E-18
3.540000E+03	7.792203E-18	1.064900E-18
3.550000E+03	7.652081E-18	1.041858E-18
3.560000E+03	7.518862E-18	1.020120E-18
3.570000E+03	7.392287E-18	9.996118E-19
3.580000E+03	7.271955E-18	9.802441E-19
3.590000E+03	7.157644E-18	9.619548E-19
3.600000E+03	7.049068E-18	9.446763E-19
3.610000E+03	6.946097E-18	9.283642E-19
3.620000E+03	6.848398E-18	9.129497E-19
3.630000E+03	6.755793E-18	8.983867E-19
3.640000E+03	6.667917E-18	8.846063E-19
3.650000E+03	6.584618E-18	8.715700E-19
3.660000E+03	6.505688E-18	8.592332E-19
3.670000E+03	6.430928E-18	8.475543E-19
3.680000E+03	6.360206E-18	8.365022E-19
3.690000E+03	6.293397E-18	8.260472E-19
3.700000E+03	6.230318E-18	8.161538E-19
3.710000E+03	6.170908E-18	8.068033E-19
3.720000E+03	6.114994E-18	7.979632E-19
3.730000E+03	6.062571E-18	7.896240E-19
3.740000E+03	6.013524E-18	7.817621E-19
3.750000E+03	5.967739E-18	7.743556E-19
3.760000E+03	5.925158E-18	7.673897E-19
3.770000E+03	5.885773E-18	7.608571E-19
3.780000E+03	5.849472E-18	7.547372E-19
3.790000E+03	5.816245E-18	7.490234E-19
3.800000E+03	5.785983E-18	7.436964E-19
3.810000E+03	5.758626E-18	7.387440E-19
3.820000E+03	5.734165E-18	7.341604E-19
3.830000E+03	5.712586E-18	7.299399E-19
3.840000E+03	5.693784E-18	7.260651E-19
3.850000E+03	5.677792E-18	7.225367E-19
3.860000E+03	5.664460E-18	7.193320E-19
3.870000E+03	5.653868E-18	7.164581E-19
3.880000E+03	5.645867E-18	7.138929E-19
3.890000E+03	5.640538E-18	7.116436E-19
3.900000E+03	5.637777E-18	7.096943E-19
3.910000E+03	5.637575E-18	7.080411E-19
3.920000E+03	5.639877E-18	7.066743E-19
3.930000E+03	5.644673E-18	7.055900E-19
3.940000E+03	5.651909E-18	7.047790E-19
3.950000E+03	5.661623E-18	7.042432E-19
3.960000E+03	5.673717E-18	7.039680E-19
3.970000E+03	5.688185E-18	7.039500E-19
3.980000E+03	5.704975E-18	7.041804E-19
3.990000E+03	5.724127E-18	7.046615E-19
4.000000E+03	5.745593E-18	7.053848E-19
4.010000E+03	5.769323E-18	7.063417E-19
4.020000E+03	5.795269E-18	7.075238E-19
4.030000E+03	5.823476E-18	7.089339E-19
4.040000E+03	5.853849E-18	7.105581E-19
4.050000E+03	5.886436E-18	7.123995E-19
4.060000E+03	5.921144E-18	7.144444E-19
4.070000E+03	5.957975E-18	7.166905E-19
4.080000E+03	5.996931E-18	7.191356E-19
4.090000E+03	6.037967E-18	7.217720E-19
4.100000E+03	6.081042E-18	7.245920E-19
4.110000E+03	6.126110E-18	7.275883E-19
4.120000E+03	6.173224E-18	7.307649E-19
4.130000E+03	6.222294E-18	7.341090E-19
4.140000E+03	6.273326E-18	7.376192E-19
4.150000E+03	6.326228E-18	7.412830E-19
4.160000E+03	6.381005E-18	7.450995E-19
4.170000E+03	6.437666E-18	7.490680E-19
4.180000E+03	6.496117E-18	7.531765E-19
4.190000E+03	6.556364E-18	7.574248E-19
4.200000E+03	6.618312E-18	7.618010E-19
4.210000E+03	6.681968E-18	7.663054E-19
4.220000E+03	6.747233E-18	7.709266E-19
4.230000E+03	6.814112E-18	7.756653E-19
4.240000E+03	6.882503E-18	7.805103E-19
4.250000E+03	6.952356E-18	7.854567E-19
4.260000E+03	7.023562E-18	7.904932E-19
4.270000E+03	7.096122E-18	7.956214E-19
4.280000E+03	7.169925E-18	8.008302E-19
4.290000E+03	7.244909E-18	8.061151E-19
4.300000E+03	7.320956E-18	8.114648E-19
4.310000E+03	7.397941E-18	8.168679E-19
4.320000E+03	7.475794E-18	8.223194E-19
4.330000E+03	7.554442E-18	8.278139E-19
4.340000E+03	7.633750E-18	8.333393E-19
4.350000E+03	7.713638E-18	8.388897E-19
4.360000E+03	7.793960E-18	8.444518E-19
4.370000E+03	7.874693E-18	8.500258E-19
4.380000E+03	7.955749E-18	8.556045E-19
4.390000E+03	8.037234E-18	8.612010E-19
4.400000E+03	8.119063E-18	8.668078E-19
4.410000E+03	8.201283E-18	8.724307E-19
4.420000E+03	8.283880E-18	8.780686E-19
4.430000E+03	8.366977E-18	8.837346E-19
4.440000E+03	8.450498E-18	8.894203E-19
4.450000E+03	8.534436E-18	8.951243E-19
4.460000E+03	8.618858E-18	9.008528E-19
4.470000E+03	8.703763E-18	9.066047E-19
4.480000E+03	8.789155E-18	9.123792E-19
4.490000E+03	8.874963E-18	9.181681E-19
4.500000E+03	8.961270E-18	9.239787E-19
4.510000E+03	9.048009E-18	9.298033E-19
4.520000E+03	9.135192E-18	9.356423E-19
4.530000E+03	9.222834E-18	9.414967E-19
4.540000E+03	9.310795E-18	9.473515E-19
4.550000E+03	9.399172E-18	9.532168E-19
4.560000E+03	9.487906E-18	9.590865E-19
4.570000E+03	9.577023E-18	9.649636E-19
4.580000E+03	9.666385E-18	9.708345E-19
4.590000E+03	9.756104E-18	9.767115E-19
4.600000E+03	9.846044E-18	9.825818E-19
4.610000E+03	9.936328E-18	9.884585E-19
4.620000E+03	1.002682E-17	9.943295E-19
4.630000E+03	1.011757E-17	1.000200E-18
4.640000E+03	1.020853E-17	1.006068E-18
4.650000E+03	1.029984E-17	1.011947E-18
4.660000E+03	1.039138E-17	1.017827E-18
4.670000E+03	1.048330E-17	1.023723E-18
4.680000E+03	1.057558E-17	1.029634E-18
4.690000E+03	1.066819E-17	1.035558E-18
4.700000E+03	1.076131E-17	1.041512E-18
4.710000E+03	1.085482E-17	1.047486E-18
4.720000E+03	1.094881E-17	1.053488E-18
4.730000E+03	1.104317E-17	1.059507E-18
4.740000E+03	1.113799E-17	1.065553E-18
4.750000E+03	1.123306E-17	1.071605E-18
4.760000E+03	1.132847E-17	1.077672E-18
4.770000E+03	1.142411E-17	1.083744E-18
4.780000E+03	1.152006E-17	1.089831E-18
4.790000E+03	1.161623E-17	1.095921E-18
4.800000E+03	1.171260E-17	1.102017E-18
4.810000E+03	1.180917E-17	1.108116E-18
4.820000E+03	1.190592E-17	1.114222E-18
4.830000E+03	1.200285E-17	1.120333E-18
4.840000E+03	1.209983E-17	1.126441E-18
4.850000E+03	1.219697E-17	1.132558E-18
4.860000E+03	1.229426E-17	1.138683E-18
4.870000E+03	1.239156E-17	1.144809E-18
4.880000E+03	1.248887E-17	1.150936E-18
4.890000E+03	1.258628E-17	1.157076E-18
4.900000E+03	1.268352E-17	1.163207E-18
4.910000E+03	1.278083E-17	1.169351E-18
4.920000E+03	1.287804E-17	1.175499E-18
4.930000E+03	1.297501E-17	1.181636E-18
4.940000E+03	1.307182E-17	1.187774E-18
4.950000E+03	1.316844E-17	1.193911E-18
4.960000E+03	1.326469E-17	1.200031E-18
4.970000E+03	1.336064E-17	1.206143E-18
4.980000E+03	1.345600E-17	1.212219E-18
4.990000E+03	1.355096E-17	1.218278E-18
5.000000E+03	1.364532E-17	1.224300E-18
5.010000E+03	1.373888E-17	1.230269E-18
5.020000E+03	1.383170E-17	1.236188E-18
5.030000E+03	1.392356E-17	1.242036E-18
5.040000E+03	1.401438E-17	1.247806E-18
5.050000E+03	1.410405E-17	1.253489E-18
5.060000E+03	1.419248E-17	1.259074E-18
5.070000E+03	1.427943E-17	1.264541E-18
5.080000E+03	1.436492E-17	1.269892E-18
5.090000E+03	1.444871E-17	1.275105E-18
5.100000E+03	1.453066E-17	1.280172E-18
5.110000E+03	1.461052E-17	1.285071E-18
5.120000E+03	1.468828E-17	1.289807E-18
5.130000E+03	1.476354E-17	1.294347E-18
5.140000E+03	1.483645E-17	1.298709E-18
5.150000E+03	1.490656E-17	1.302863E-18
5.160000E+03	1.497388E-17	1.306817E-18
5.170000E+03	1.503813E-17	1.310553E-18
5.180000E+03	1.509899E-17	1.314056E-18
5.190000E+03	1.515648E-17	1.317338E-18
5.200000E+03	1.521030E-17	1.320385E-18
5.210000E+03	1.526029E-17	1.323197E-18
5.220000E+03	1.530631E-17	1.325776E-18
5.230000E+03	1.534807E-17	1.328111E-18
5.240000E+03	1.538543E-17	1.330207E-18
5.250000E+03	1.541811E-17	1.332054E-18
5.260000E+03	1.544612E-17	1.333671E-18
5.270000E+03	1.546922E-17	1.335050E-18
5.280000E+03	1.548727E-17	1.336199E-18
5.290000E+03	1.550020E-17	1.337124E-18
5.300000E+03	1.550777E-17	1.337820E-18
5.310000E+03	1.550992E-17	1.338295E-18
5.320000E+03	1.550658E-17	1.338558E-18
5.330000E+03	1.549774E-17	1.338616E-18
5.340000E+03	1.548323E-17	1.338465E-18
5.350000E+03	1.546320E-17	1.338128E-18
5.360000E+03	1.543771E-17	1.337614E-18
5.370000E+03	1.540679E-17	1.336932E-18
5.380000E+03	1.537038E-17	1.336078E-18
5.390000E+03	1.532888E-17	1.335087E-18
5.400000E+03	1.528228E-17	1.333956E-18
5.410000E+03	1.523102E-17	1.332721E-18
5.420000E+03	1.517514E-17	1.331377E-18
5.430000E+03	1.511497E-17	1.329948E-18
5.440000E+03	1.505075E-17	1.328443E-18
5.450000E+03	1.498301E-17	1.326899E-18
5.460000E+03	1.491187E-17	1.325311E-18
5.470000E+03	1.483745E-17	1.323677E-18
5.480000E+03	1.475975E-17	1.321981E-18
5.490000E+03	1.467910E-17	1.320233E-18
5.500000E+03	1.459554E-17	1.318418E-18
5.510000E+03	1.450925E-17	1.316535E-18
5.520000E+03	1.442046E-17	1.314581E-18
5.530000E+03	1.432937E-17	1.312557E-18
5.540000E+03	1.423623E-17	1.310461E-18
5.550000E+03	1.414141E-17	1.308308E-18
5.560000E+03	1.404513E-17	1.306098E-18
5.570000E+03	1.394791E-17	1.303859E-18
5.580000E+03	1.384983E-17	1.301580E-18
5.590000E+03	1.375153E-17	1.299301E-18
5.600000E+03	1.365308E-17	1.297013E-18
5.610000E+03	1.355494E-17	1.294744E-18
5.620000E+03	1.345759E-17	1.292524E-18
5.630000E+03	1.336103E-17	1.290344E-18
5.640000E+03	1.326599E-17	1.288259E-18
5.650000E+03	1.317257E-17	1.286273E-18
5.660000E+03	1.308091E-17	1.284389E-18
5.670000E+03	1.299165E-17	1.282663E-18
5.680000E+03	1.290471E-17	1.281084E-18
5.690000E+03	1.282045E-17	1.279681E-18
5.700000E+03	1.273917E-17	1.278482E-18
5.710000E+03	1.266103E-17	1.277501E-18
5.720000E+03	1.258617E-17	1.276752E-18
5.730000E+03	1.251474E-17	1.276246E-18
5.740000E+03	1.244697E-17	1.276009E-18
5.750000E+03	1.238310E-17	1.276065E-18
5.760000E+03	1.232296E-17	1.276397E-18
5.770000E+03	1.226702E-17	1.277052E-18
5.780000E+03	1.221508E-17	1.278012E-18
5.790000E+03	1.216746E-17	1.279309E-18
5.800000E+03	1.212408E-17	1.280935E-18
5.810000E+03	1.208511E-17	1.282906E-18
5.820000E+03	1.205057E-17	1.285226E-18
5.830000E+03	1.202064E-17	1.287910E-18
5.840000E+03	1.199519E-17	1.290944E-18
5.850000E+03	1.197423E-17	1.294327E-18
5.860000E+03	1.195791E-17	1.298073E-18
5.870000E+03	1.194635E-17	1.302193E-18
5.880000E+03	1.193929E-17	1.306655E-18
5.890000E+03	1.193698E-17	1.311484E-18
5.900000E+03	1.193927E-17	1.316661E-18
5.910000E+03	1.194628E-17	1.322195E-18
5.920000E+03	1.195796E-17	1.328081E-18
5.930000E+03	1.197417E-17	1.334298E-18
5.940000E+03	1.199499E-17	1.340853E-18
5.950000E+03	1.202037E-17	1.347740E-18
5.960000E+03	1.205014E-17	1.354937E-18
5.970000E+03	1.208450E-17	1.362466E-18
5.980000E+03	1.212311E-17	1.370288E-18
5.990000E+03	1.216605E-17	1.378412E-18
6.000000E+03	1.221322E-17	1.386828E-18
6.010000E+03	1.226442E-17	1.395512E-18
6.020000E+03	1.231967E-17	1.404472E-18
6.030000E+03	1.237861E-17	1.413666E-18
6.040000E+03	1.244140E-17	1.423118E-18
6.050000E+03	1.250764E-17	1.432784E-18
6.060000E+03	1.257735E-17	1.442673E-18
6.070000E+03	1.265026E-17	1.452757E-18
6.080000E+03	1.272624E-17	1.463026E-18
6.090000E+03	1.280498E-17	1.473453E-18
6.100000E+03	1.288620E-17	1.484007E-18
6.110000E+03	1.296987E-17	1.494696E-18
6.120000E+03	1.305538E-17	1.505454E-18
6.130000E+03	1.314272E-17	1.516284E-18
6.140000E+03	1.323139E-17	1.527138E-18
6.150000E+03	1.332121E-17	1.537999E-18
6.160000E+03	1.341134E-17	1.548776E-18
6.170000E+03	1.350175E-17	1.559471E-18
6.180000E+03	1.359174E-17	1.570006E-18
6.190000E+03	1.368092E-17	1.580340E-18
6.200000E+03	1.376873E-17	1.590412E-18
6.210000E+03	1.385530E-17	1.600238E-18
6.220000E+03	1.394096E-17	1.609855E-18
6.230000E+03	1.402604E-17	1.619304E-18
6.240000E+03	1.411094E-17	1.628630E-18
6.250000E+03	1.419553E-17	1.637814E-18
6.260000E+03	1.428060E-17	1.646947E-18
6.270000E+03	1.436588E-17	1.655995E-18
6.280000E+03	1.445186E-17	1.665010E-18
6.290000E+03	1.453887E-17	1.674026E-18
6.300000E+03	1.462668E-17	1.683012E-18
6.310000E+03	1.471564E-17	1.692006E-18
6.320000E+03	1.480595E-17	1.701025E-18
6.330000E+03	1.489781E-17	1.710088E-18
6.340000E+03	1.499102E-17	1.719169E-18
6.350000E+03	1.508582E-17	1.728288E-18
6.360000E+03	1.518223E-17	1.737446E-18
6.370000E+03	1.528027E-17	1.746643E-18
6.380000E+03	1.537977E-17	1.755855E-18
6.390000E+03	1.548055E-17	1.765058E-18
6.400000E+03	1.558240E-17	1.774227E-18
6.410000E+03	1.568535E-17	1.783364E-18
6.420000E+03	1.578919E-17	1.792445E-18
6.430000E+03	1.589325E-17	1.801393E-18
6.440000E+03	1.599822E-17	1.810286E-18
6.450000E+03	1.610412E-17	1.819128E-18
6.460000E+03	1.621122E-17	1.827949E-18
6.470000E+03	1.632002E-17	1.836809E-18
6.480000E+03	1.643033E-17	1.845687E-18
6.490000E+03	1.654270E-17	1.854645E-18
6.500000E+03	1.665719E-17	1.863692E-18
6.510000E+03	1.677411E-17	1.872866E-18
6.520000E+03	1.689301E-17	1.882119E-18
6.530000E+03	1.701475E-17	1.891546E-18
6.540000E+03	1.713887E-17	1.901099E-18
6.550000E+03	1.726570E-17	1.910817E-18
6.560000E+03	1.739532E-17	1.920711E-18
6.570000E+03	1.752753E-17	1.930760E-18
6.580000E+03	1.766267E-17	1.941003E-18
6.590000E+03	1.780081E-17	1.951451E-18
6.600000E+03	1.794175E-17	1.962081E-18
6.610000E+03	1.808554E-17	1.972901E-18
6.620000E+03	1.823225E-17	1.983920E-18
6.630000E+03	1.838224E-17	1.995177E-18
6.640000E+03	1.853498E-17	2.006616E-18
6.650000E+03	1.869082E-17	2.018277E-18
6.660000E+03	1.884983E-17	2.030164E-18
6.670000E+03	1.901175E-17	2.042252E-18
6.680000E+03	1.917696E-17	2.054580E-18
6.690000E+03	1.934518E-17	2.067119E-18
6.700000E+03	1.951679E-17	2.079908E-18
6.710000E+03	1.969119E-17	2.092881E-18
6.720000E+03	1.986875E-17	2.106077E-18
6.730000E+03	2.004985E-17	2.119536E-18
6.740000E+03	2.023386E-17	2.133187E-18
6.750000E+03	2.042115E-17	2.147070E-18
6.760000E+03	2.061142E-17	2.161149E-18
6.770000E+03	2.080506E-17	2.175462E-18
6.780000E+03	2.100174E-17	2.189972E-18
6.790000E+03	2.120147E-17	2.204679E-18
6.800000E+03	2.140468E-17	2.219622E-18
6.810000E+03	2.161062E-17	2.234722E-18
6.820000E+03	2.182008E-17	2.250057E-18
6.830000E+03	2.203230E-17	2.265545E-18
6.840000E+03	2.224810E-17	2.281267E-18
6.850000E+03	2.246668E-17	2.297138E-18
6.860000E+03	2.268804E-17	2.313155E-18
6.870000E+03	2.291260E-17	2.329357E-18
6.880000E+03	2.314037E-17	2.345744E-18
6.890000E+03	2.337050E-17	2.362225E-18
6.900000E+03	2.360382E-17	2.378884E-18
6.910000E+03	2.383990E-17	2.395676E-18
6.920000E+03	2.407918E-17	2.412642E-18
6.930000E+03	2.432074E-17	2.429690E-18
6.940000E+03	2.456501E-17	2.446862E-18
6.950000E+03	2.481196E-17	2.464155E-18
6.960000E+03	2.506109E-17	2.481521E-18
6.970000E+03	2.531286E-17	2.499002E-18
6.980000E+03	2.556722E-17	2.516598E-18
6.990000E+03	2.582367E-17	2.534258E-18
7.000000E+03	2.608215E-17	2.551979E-18
7.010000E+03	2.634261E-17	2.569757E-18
7.020000E+03	2.660553E-17	2.587641E-18
7.030000E+03	2.686983E-17	2.605526E-18
7.040000E+03	2.713651E-17	2.623512E-18
7.050000E+03	2.740447E-17	2.641492E-18
7.060000E+03	2.767418E-17	2.659515E-18
7.070000E+03	2.794505E-17	2.677524E-18
7.080000E+03	2.821758E-17	2.695568E-18
7.090000E+03	2.849173E-17	2.713643E-18
7.100000E+03	2.876688E-17	2.731691E-18
7.110000E+03	2.904237E-17	2.749651E-18
7.120000E+03	2.931933E-17	2.767627E-18
7.130000E+03	2.959712E-17	2.785559E-18
7.140000E+03	2.987567E-17	2.803442E-18
7.150000E+03	3.015493E-17	2.821269E-18
7.160000E+03	3.043423E-17	2.838975E-18
7.170000E+03	3.071413E-17	2.856614E-18
7.180000E+03	3.099393E-17	2.874120E-18
7.190000E+03	3.127355E-17	2.891487E-18
7.200000E+03	3.155358E-17	2.908769E-18
7.210000E+03	3.183331E-17	2.925901E-18
7.220000E+03	3.211333E-17	2.942941E-18
7.230000E+03	3.239224E-17	2.959764E-18
7.240000E+03	3.267062E-17	2.976428E-18
7.250000E+03	3.294840E-17	2.992932E-18
7.260000E+03	3.322551E-17	3.009279E-18
7.270000E+03	3.350188E-17	3.025472E-18
7.280000E+03	3.377744E-17	3.041516E-18
7.290000E+03	3.405137E-17	3.057353E-18
7.300000E+03	3.432433E-17	3.073057E-18
7.310000E+03	3.459625E-17	3.088643E-18
7.320000E+03	3.486705E-17	3.104125E-18
7.330000E+03	3.513592E-17	3.119454E-18
7.340000E+03	3.540353E-17	3.134717E-18
7.350000E+03	3.567060E-17	3.150008E-18
7.360000E+03	3.593554E-17	3.165215E-18
7.370000E+03	3.619905E-17	3.180435E-18
7.380000E+03	3.646109E-17	3.195699E-18
7.390000E+03	3.672245E-17	3.211112E-18
7.400000E+03	3.698228E-17	3.226637E-18
7.410000E+03	3.724139E-17	3.242381E-18
7.420000E+03	3.750063E-17	3.258454E-18
7.430000E+03	3.775917E-17	3.274821E-18
7.440000E+03	3.801875E-17	3.291665E-18
7.450000E+03	3.827771E-17	3.308874E-18
7.460000E+03	3.853693E-17	3.326553E-18
7.470000E+03	3.879560E-17	3.344654E-18
7.480000E+03	3.905462E-17	3.363276E-18
7.490000E+03	3.931224E-17	3.382283E-18
7.500000E+03	3.956938E-17	3.401761E-18
7.510000E+03	3.982607E-17	3.421713E-18
7.520000E+03	4.008138E-17	3.442056E-18
7.530000E+03	4.033719E-17	3.462936E-18
7.540000E+03	4.059163E-17	3.484170E-18
7.550000E+03	4.084563E-17	3.505813E-18
7.560000E+03	4.109820E-17	3.527748E-18
7.570000E+03	4.135030E-17	3.550022E-18
7.580000E+03	4.160089E-17	3.572507E-18
7.590000E+03	4.185091E-17	3.595244E-18
7.600000E+03	4.209931E-17	3.618101E-18
7.610000E+03	4.234599E-17	3.641030E-18
7.620000E+03	4.259188E-17	3.664071E-18
7.630000E+03	4.283586E-17	3.687090E-18
7.640000E+03	4.307779E-17	3.710041E-18
7.650000E+03	4.331859E-17	3.732971E-18
7.660000E+03	4.355705E-17	3.755749E-18
7.670000E+03	4.379407E-17	3.778432E-18
7.680000E+03	4.402733E-17	3.800797E-18
7.690000E+03	4.425876E-17	3.823001E-18
7.700000E+03	4.448818E-17	3.845015E-18
7.710000E+03	4.471425E-17	3.866721E-18
7.720000E+03	4.493786E-17	3.888191E-18
7.730000E+03	4.515763E-17	3.909309E-18
7.740000E+03	4.537327E-17	3.930055E-18
7.750000E+03	4.558565E-17	3.950511E-18
7.760000E+03	4.579450E-17	3.970661E-18
