#wls	flux	fluxerr
1.600000E+03	1.700646E-16	1.664636E-16
1.640000E+03	1.753131E-16	1.687501E-16
1.680000E+03	1.802738E-16	1.705261E-16
1.720000E+03	1.848941E-16	1.717512E-16
1.760000E+03	1.890979E-16	1.723682E-16
1.800000E+03	1.928235E-16	1.723392E-16
1.840000E+03	1.959884E-16	1.716134E-16
1.880000E+03	1.985436E-16	1.701764E-16
1.920000E+03	2.004216E-16	1.680031E-16
1.960000E+03	2.015395E-16	1.650630E-16
2.000000E+03	2.018517E-16	1.613634E-16
2.040000E+03	2.012860E-16	1.568965E-16
2.080000E+03	1.997817E-16	1.516710E-16
2.120000E+03	1.973196E-16	1.457336E-16
2.160000E+03	1.938282E-16	1.390969E-16
2.200000E+03	1.892661E-16	1.318027E-16
2.240000E+03	1.835909E-16	1.238979E-16
2.280000E+03	1.767336E-16	1.154175E-16
2.320000E+03	1.689088E-16	1.065834E-16
2.360000E+03	1.603356E-16	9.760264E-17
2.400000E+03	1.511895E-16	8.863808E-17
2.440000E+03	1.416203E-16	7.982258E-17
2.480000E+03	1.317720E-16	7.127206E-17
2.520000E+03	1.217762E-16	6.308241E-17
2.560000E+03	1.117501E-16	5.532944E-17
2.600000E+03	1.018137E-16	4.807831E-17
2.640000E+03	9.207713E-17	4.137735E-17
2.680000E+03	8.264121E-17	3.525924E-17
2.720000E+03	7.359668E-17	2.974185E-17
2.760000E+03	6.502750E-17	2.483062E-17
2.800000E+03	5.699516E-17	2.051396E-17
2.840000E+03	4.955152E-17	1.677039E-17
2.880000E+03	4.273878E-17	1.356994E-17
2.920000E+03	3.658379E-17	1.087402E-17
2.960000E+03	3.109928E-17	8.637936E-18
3.000000E+03	2.627799E-17	6.811303E-18
3.010000E+03	2.517331E-17	6.412318E-18
3.020000E+03	2.410781E-17	6.034714E-18
3.030000E+03	2.308123E-17	5.677741E-18
3.040000E+03	2.209267E-17	5.340508E-18
3.050000E+03	2.114125E-17	5.022148E-18
3.060000E+03	2.022650E-17	4.721916E-18
3.070000E+03	1.934705E-17	4.438871E-18
3.080000E+03	1.850277E-17	4.172390E-18
3.090000E+03	1.769228E-17	3.921575E-18
3.100000E+03	1.691497E-17	3.685732E-18
3.110000E+03	1.616984E-17	3.464100E-18
3.120000E+03	1.545621E-17	3.256007E-18
3.130000E+03	1.477307E-17	3.060731E-18
3.140000E+03	1.411942E-17	2.877577E-18
3.150000E+03	1.349457E-17	2.705927E-18
3.160000E+03	1.289727E-17	2.545079E-18
3.170000E+03	1.232706E-17	2.394505E-18
3.180000E+03	1.178274E-17	2.253557E-18
3.190000E+03	1.126357E-17	2.121699E-18
3.200000E+03	1.076863E-17	1.998379E-18
3.210000E+03	1.029698E-17	1.883075E-18
3.220000E+03	9.847891E-18	1.775321E-18
3.230000E+03	9.420451E-18	1.674641E-18
3.240000E+03	9.013622E-18	1.580561E-18
3.250000E+03	8.626991E-18	1.492738E-18
3.260000E+03	8.259267E-18	1.410693E-18
3.270000E+03	7.910033E-18	1.334120E-18
3.280000E+03	7.578217E-18	1.262615E-18
3.290000E+03	7.263158E-18	1.195863E-18
3.300000E+03	6.964198E-18	1.133564E-18
3.310000E+03	6.680378E-18	1.075381E-18
3.320000E+03	6.411192E-18	1.021068E-18
3.330000E+03	6.155934E-18	9.703577E-19
3.340000E+03	5.913846E-18	9.229890E-19
3.350000E+03	5.684293E-18	8.787316E-19
3.360000E+03	5.466668E-18	8.373710E-19
3.370000E+03	5.260458E-18	7.987174E-19
3.380000E+03	5.064959E-18	7.625619E-19
3.390000E+03	4.879777E-18	7.287515E-19
3.400000E+03	4.704268E-18	6.971046E-19
3.410000E+03	4.537956E-18	6.674724E-19
3.420000E+03	4.380440E-18	6.397245E-19
3.430000E+03	4.231118E-18	6.137085E-19
3.440000E+03	4.089691E-18	5.893222E-19
3.450000E+03	3.955716E-18	5.664487E-19
3.460000E+03	3.828689E-18	5.449675E-19
3.470000E+03	3.708364E-18	5.248005E-19
3.480000E+03	3.594287E-18	5.058442E-19
3.490000E+03	3.486164E-18	4.880218E-19
3.500000E+03	3.383674E-18	4.712563E-19
3.510000E+03	3.286408E-18	4.554622E-19
3.520000E+03	3.194135E-18	4.405810E-19
3.530000E+03	3.106530E-18	4.265446E-19
3.540000E+03	3.023298E-18	4.132910E-19
3.550000E+03	2.944194E-18	4.007677E-19
3.560000E+03	2.868933E-18	3.889185E-19
3.570000E+03	2.797282E-18	3.776962E-19
3.580000E+03	2.728997E-18	3.670539E-19
3.590000E+03	2.663904E-18	3.569557E-19
3.600000E+03	2.601817E-18	3.473650E-19
3.610000E+03	2.542536E-18	3.382451E-19
3.620000E+03	2.485923E-18	3.295685E-19
3.630000E+03	2.431847E-18	3.213095E-19
3.640000E+03	2.380139E-18	3.134388E-19
3.650000E+03	2.330750E-18	3.059430E-19
3.660000E+03	2.283523E-18	2.987958E-19
3.670000E+03	2.238392E-18	2.919833E-19
3.680000E+03	2.195271E-18	2.854895E-19
3.690000E+03	2.154078E-18	2.792992E-19
3.700000E+03	2.114749E-18	2.734003E-19
3.710000E+03	2.077239E-18	2.677830E-19
3.720000E+03	2.041434E-18	2.624290E-19
3.730000E+03	2.007325E-18	2.573339E-19
3.740000E+03	1.974816E-18	2.524825E-19
3.750000E+03	1.943865E-18	2.478665E-19
3.760000E+03	1.914428E-18	2.434779E-19
3.770000E+03	1.886415E-18	2.393027E-19
3.780000E+03	1.859817E-18	2.353377E-19
3.790000E+03	1.834563E-18	2.315716E-19
3.800000E+03	1.810612E-18	2.279974E-19
3.810000E+03	1.787913E-18	2.246066E-19
3.820000E+03	1.766430E-18	2.213928E-19
3.830000E+03	1.746113E-18	2.183480E-19
3.840000E+03	1.726930E-18	2.154664E-19
3.850000E+03	1.708835E-18	2.127406E-19
3.860000E+03	1.691811E-18	2.101669E-19
3.870000E+03	1.675817E-18	2.077384E-19
3.880000E+03	1.660811E-18	2.054487E-19
3.890000E+03	1.646767E-18	2.032932E-19
3.900000E+03	1.633646E-18	2.012659E-19
3.910000E+03	1.621437E-18	1.993641E-19
3.920000E+03	1.610104E-18	1.975825E-19
3.930000E+03	1.599623E-18	1.959171E-19
3.940000E+03	1.589959E-18	1.943627E-19
3.950000E+03	1.581079E-18	1.929144E-19
3.960000E+03	1.572987E-18	1.915716E-19
3.970000E+03	1.565625E-18	1.903265E-19
3.980000E+03	1.558988E-18	1.891772E-19
3.990000E+03	1.553045E-18	1.881191E-19
4.000000E+03	1.547777E-18	1.871490E-19
4.010000E+03	1.543168E-18	1.862638E-19
4.020000E+03	1.539178E-18	1.854578E-19
4.030000E+03	1.535802E-18	1.847295E-19
4.040000E+03	1.533016E-18	1.840749E-19
4.050000E+03	1.530803E-18	1.834913E-19
4.060000E+03	1.529139E-18	1.829752E-19
4.070000E+03	1.527998E-18	1.825228E-19
4.080000E+03	1.527382E-18	1.821335E-19
4.090000E+03	1.527254E-18	1.818026E-19
4.100000E+03	1.527605E-18	1.815284E-19
4.110000E+03	1.528425E-18	1.813092E-19
4.120000E+03	1.529682E-18	1.811406E-19
4.130000E+03	1.531380E-18	1.810224E-19
4.140000E+03	1.533488E-18	1.809504E-19
4.150000E+03	1.536000E-18	1.809232E-19
4.160000E+03	1.538907E-18	1.809392E-19
4.170000E+03	1.542181E-18	1.809942E-19
4.180000E+03	1.545827E-18	1.810884E-19
4.190000E+03	1.549804E-18	1.812163E-19
4.200000E+03	1.554130E-18	1.813794E-19
4.210000E+03	1.558766E-18	1.815723E-19
4.220000E+03	1.563705E-18	1.817941E-19
4.230000E+03	1.568932E-18	1.820423E-19
4.240000E+03	1.574444E-18	1.823159E-19
4.250000E+03	1.580202E-18	1.826099E-19
4.260000E+03	1.586215E-18	1.829250E-19
4.270000E+03	1.592457E-18	1.832574E-19
4.280000E+03	1.598902E-18	1.836038E-19
4.290000E+03	1.605548E-18	1.839636E-19
4.300000E+03	1.612383E-18	1.843348E-19
4.310000E+03	1.619368E-18	1.847126E-19
4.320000E+03	1.626489E-18	1.850951E-19
4.330000E+03	1.633732E-18	1.854805E-19
4.340000E+03	1.641083E-18	1.858670E-19
4.350000E+03	1.648528E-18	1.862526E-19
4.360000E+03	1.656064E-18	1.866369E-19
4.370000E+03	1.663678E-18	1.870181E-19
4.380000E+03	1.671351E-18	1.873940E-19
4.390000E+03	1.679110E-18	1.877672E-19
4.400000E+03	1.686938E-18	1.881355E-19
4.410000E+03	1.694831E-18	1.884985E-19
4.420000E+03	1.702801E-18	1.888570E-19
4.430000E+03	1.710845E-18	1.892106E-19
4.440000E+03	1.718947E-18	1.895573E-19
4.450000E+03	1.727119E-18	1.898984E-19
4.460000E+03	1.735344E-18	1.902320E-19
4.470000E+03	1.743623E-18	1.905583E-19
4.480000E+03	1.751953E-18	1.908773E-19
4.490000E+03	1.760308E-18	1.911863E-19
4.500000E+03	1.768704E-18	1.914874E-19
4.510000E+03	1.777129E-18	1.917795E-19
4.520000E+03	1.785572E-18	1.920620E-19
4.530000E+03	1.794037E-18	1.923356E-19
4.540000E+03	1.802502E-18	1.925984E-19
4.550000E+03	1.810971E-18	1.928516E-19
4.560000E+03	1.819454E-18	1.930967E-19
4.570000E+03	1.827944E-18	1.933338E-19
4.580000E+03	1.836419E-18	1.935614E-19
4.590000E+03	1.844889E-18	1.937815E-19
4.600000E+03	1.853351E-18	1.939947E-19
4.610000E+03	1.861801E-18	1.942015E-19
4.620000E+03	1.870252E-18	1.944042E-19
4.630000E+03	1.878685E-18	1.946017E-19
4.640000E+03	1.887116E-18	1.947964E-19
4.650000E+03	1.895544E-18	1.949890E-19
4.660000E+03	1.903967E-18	1.951799E-19
4.670000E+03	1.912388E-18	1.953697E-19
4.680000E+03	1.920807E-18	1.955584E-19
4.690000E+03	1.929224E-18	1.957460E-19
4.700000E+03	1.937675E-18	1.959356E-19
4.710000E+03	1.946162E-18	1.961267E-19
4.720000E+03	1.954688E-18	1.963186E-19
4.730000E+03	1.963289E-18	1.965139E-19
4.740000E+03	1.971953E-18	1.967100E-19
4.750000E+03	1.980684E-18	1.969058E-19
4.760000E+03	1.989503E-18	1.971021E-19
4.770000E+03	1.998415E-18	1.972979E-19
4.780000E+03	2.007409E-18	1.974904E-19
4.790000E+03	2.016508E-18	1.976806E-19
4.800000E+03	2.025718E-18	1.978678E-19
4.810000E+03	2.035028E-18	1.980495E-19
4.820000E+03	2.044463E-18	1.982274E-19
4.830000E+03	2.054030E-18	1.984014E-19
4.840000E+03	2.063739E-18	1.985720E-19
4.850000E+03	2.073596E-18	1.987400E-19
4.860000E+03	2.083592E-18	1.989048E-19
4.870000E+03	2.093774E-18	1.990718E-19
4.880000E+03	2.104113E-18	1.992392E-19
4.890000E+03	2.114618E-18	1.994096E-19
4.900000E+03	2.125320E-18	1.995873E-19
4.910000E+03	2.136229E-18	1.997752E-19
4.920000E+03	2.147357E-18	1.999763E-19
4.930000E+03	2.158674E-18	2.001896E-19
4.940000E+03	2.170231E-18	2.004220E-19
4.950000E+03	2.182018E-18	2.006745E-19
4.960000E+03	2.194049E-18	2.009498E-19
4.970000E+03	2.206332E-18	2.012504E-19
4.980000E+03	2.218879E-18	2.015785E-19
4.990000E+03	2.231679E-18	2.019339E-19
5.000000E+03	2.244741E-18	2.023180E-19
5.010000E+03	2.258096E-18	2.027333E-19
5.020000E+03	2.271727E-18	2.031781E-19
5.030000E+03	2.285621E-18	2.036500E-19
5.040000E+03	2.299826E-18	2.041522E-19
5.050000E+03	2.314281E-18	2.046777E-19
5.060000E+03	2.329033E-18	2.052290E-19
5.070000E+03	2.344087E-18	2.058046E-19
5.080000E+03	2.359379E-18	2.063971E-19
5.090000E+03	2.374978E-18	2.070113E-19
5.100000E+03	2.390842E-18	2.076420E-19
5.110000E+03	2.406972E-18	2.082883E-19
5.120000E+03	2.423395E-18	2.089517E-19
5.130000E+03	2.440064E-18	2.096282E-19
5.140000E+03	2.456981E-18	2.103181E-19
5.150000E+03	2.474168E-18	2.110247E-19
5.160000E+03	2.491603E-18	2.117481E-19
5.170000E+03	2.509286E-18	2.124909E-19
5.180000E+03	2.527191E-18	2.132548E-19
5.190000E+03	2.545342E-18	2.140464E-19
5.200000E+03	2.563689E-18	2.148667E-19
5.210000E+03	2.582279E-18	2.157257E-19
5.220000E+03	2.601086E-18	2.166276E-19
5.230000E+03	2.620081E-18	2.175770E-19
5.240000E+03	2.639258E-18	2.185809E-19
5.250000E+03	2.658640E-18	2.196487E-19
5.260000E+03	2.678168E-18	2.207837E-19
5.270000E+03	2.697859E-18	2.219954E-19
5.280000E+03	2.717732E-18	2.232937E-19
5.290000E+03	2.737696E-18	2.246795E-19
5.300000E+03	2.757820E-18	2.261666E-19
5.310000E+03	2.778008E-18	2.277556E-19
5.320000E+03	2.798326E-18	2.294598E-19
5.330000E+03	2.818676E-18	2.312788E-19
5.340000E+03	2.839093E-18	2.332229E-19
5.350000E+03	2.859558E-18	2.352971E-19
5.360000E+03	2.880025E-18	2.375034E-19
5.370000E+03	2.900531E-18	2.398502E-19
5.380000E+03	2.920969E-18	2.423330E-19
5.390000E+03	2.941409E-18	2.449608E-19
5.400000E+03	2.961801E-18	2.477322E-19
5.410000E+03	2.982129E-18	2.506475E-19
5.420000E+03	3.002375E-18	2.537061E-19
5.430000E+03	3.022522E-18	2.569069E-19
5.440000E+03	3.042522E-18	2.602452E-19
5.450000E+03	3.062359E-18	2.637185E-19
5.460000E+03	3.082015E-18	2.673234E-19
5.470000E+03	3.101471E-18	2.710560E-19
5.480000E+03	3.120677E-18	2.749090E-19
5.490000E+03	3.139578E-18	2.788741E-19
5.500000E+03	3.158183E-18	2.829484E-19
5.510000E+03	3.176435E-18	2.871228E-19
5.520000E+03	3.194275E-18	2.913879E-19
5.530000E+03	3.211644E-18	2.957339E-19
5.540000E+03	3.228545E-18	3.001568E-19
5.550000E+03	3.244882E-18	3.046436E-19
5.560000E+03	3.260658E-18	3.091900E-19
5.570000E+03	3.275777E-18	3.137826E-19
5.580000E+03	3.290207E-18	3.184135E-19
5.590000E+03	3.303948E-18	3.230785E-19
5.600000E+03	3.316902E-18	3.277629E-19
5.610000E+03	3.329070E-18	3.324621E-19
5.620000E+03	3.340418E-18	3.371685E-19
5.630000E+03	3.350881E-18	3.418709E-19
5.640000E+03	3.360425E-18	3.465620E-19
5.650000E+03	3.369056E-18	3.512386E-19
5.660000E+03	3.376744E-18	3.558944E-19
5.670000E+03	3.383428E-18	3.605202E-19
5.680000E+03	3.389118E-18	3.651142E-19
5.690000E+03	3.393829E-18	3.696757E-19
5.700000E+03	3.397473E-18	3.741928E-19
5.710000E+03	3.400070E-18	3.786654E-19
5.720000E+03	3.401642E-18	3.830941E-19
5.730000E+03	3.402183E-18	3.874756E-19
5.740000E+03	3.401684E-18	3.918069E-19
5.750000E+03	3.400144E-18	3.960852E-19
5.760000E+03	3.397560E-18	4.003071E-19
5.770000E+03	3.393968E-18	4.044735E-19
5.780000E+03	3.389337E-18	4.085762E-19
5.790000E+03	3.383742E-18	4.126192E-19
5.800000E+03	3.377154E-18	4.165929E-19
5.810000E+03	3.369583E-18	4.204913E-19
5.820000E+03	3.361112E-18	4.243170E-19
5.830000E+03	3.351683E-18	4.280534E-19
5.840000E+03	3.341349E-18	4.316976E-19
5.850000E+03	3.330167E-18	4.352464E-19
5.860000E+03	3.318126E-18	4.386869E-19
5.870000E+03	3.305290E-18	4.420160E-19
5.880000E+03	3.291655E-18	4.452209E-19
5.890000E+03	3.277332E-18	4.483040E-19
5.900000E+03	3.262325E-18	4.512533E-19
5.910000E+03	3.246680E-18	4.540623E-19
5.920000E+03	3.230481E-18	4.567306E-19
5.930000E+03	3.213738E-18	4.592479E-19
5.940000E+03	3.196537E-18	4.616156E-19
5.950000E+03	3.178889E-18	4.638252E-19
5.960000E+03	3.160878E-18	4.658795E-19
5.970000E+03	3.142549E-18	4.677773E-19
5.980000E+03	3.123948E-18	4.695178E-19
5.990000E+03	3.105082E-18	4.710958E-19
6.000000E+03	3.086031E-18	4.725175E-19
6.010000E+03	3.066835E-18	4.737844E-19
6.020000E+03	3.047498E-18	4.748931E-19
6.030000E+03	3.028095E-18	4.758519E-19
6.040000E+03	3.008627E-18	4.766583E-19
6.050000E+03	2.989095E-18	4.773102E-19
6.060000E+03	2.969602E-18	4.778230E-19
6.070000E+03	2.950110E-18	4.781895E-19
6.080000E+03	2.930687E-18	4.784202E-19
6.090000E+03	2.911289E-18	4.785084E-19
6.100000E+03	2.891981E-18	4.784648E-19
6.110000E+03	2.872753E-18	4.782887E-19
6.120000E+03	2.853631E-18	4.779855E-19
6.130000E+03	2.834637E-18	4.775606E-19
6.140000E+03	2.815757E-18	4.770134E-19
6.150000E+03	2.797013E-18	4.763493E-19
6.160000E+03	2.778422E-18	4.755739E-19
6.170000E+03	2.760003E-18	4.746925E-19
6.180000E+03	2.741770E-18	4.737105E-19
6.190000E+03	2.723704E-18	4.726273E-19
6.200000E+03	2.705853E-18	4.714542E-19
6.210000E+03	2.688229E-18	4.701963E-19
6.220000E+03	2.670842E-18	4.688587E-19
6.230000E+03	2.653736E-18	4.674526E-19
6.240000E+03	2.636955E-18	4.659890E-19
6.250000E+03	2.620541E-18	4.644788E-19
6.260000E+03	2.604534E-18	4.629329E-19
6.270000E+03	2.588975E-18	4.613620E-19
6.280000E+03	2.573937E-18	4.597831E-19
6.290000E+03	2.559389E-18	4.581944E-19
6.300000E+03	2.545473E-18	4.566248E-19
6.310000E+03	2.532158E-18	4.550723E-19
6.320000E+03	2.519515E-18	4.535535E-19
6.330000E+03	2.507581E-18	4.520784E-19
6.340000E+03	2.496393E-18	4.506572E-19
6.350000E+03	2.485952E-18	4.492935E-19
6.360000E+03	2.476294E-18	4.479971E-19
6.370000E+03	2.467458E-18	4.467778E-19
6.380000E+03	2.459443E-18	4.456390E-19
6.390000E+03	2.452254E-18	4.445839E-19
6.400000E+03	2.445926E-18	4.436220E-19
6.410000E+03	2.440391E-18	4.427434E-19
6.420000E+03	2.435652E-18	4.419509E-19
6.430000E+03	2.431673E-18	4.412408E-19
6.440000E+03	2.428385E-18	4.406024E-19
6.450000E+03	2.425826E-18	4.400447E-19
6.460000E+03	2.423923E-18	4.395567E-19
6.470000E+03	2.422714E-18	4.391471E-19
6.480000E+03	2.422201E-18	4.388181E-19
6.490000E+03	2.422349E-18	4.385650E-19
6.500000E+03	2.423159E-18	4.383895E-19
6.510000E+03	2.424631E-18	4.382935E-19
6.520000E+03	2.426768E-18	4.382787E-19
6.530000E+03	2.429572E-18	4.383466E-19
6.540000E+03	2.433081E-18	4.385059E-19
6.550000E+03	2.437260E-18	4.387512E-19
6.560000E+03	2.442073E-18	4.390769E-19
6.570000E+03	2.447598E-18	4.394984E-19
6.580000E+03	2.453760E-18	4.400030E-19
6.590000E+03	2.460599E-18	4.405990E-19
6.600000E+03	2.468119E-18	4.412877E-19
6.610000E+03	2.476322E-18	4.420702E-19
6.620000E+03	2.485210E-18	4.429477E-19
6.630000E+03	2.494745E-18	4.439140E-19
6.640000E+03	2.504970E-18	4.449775E-19
6.650000E+03	2.515847E-18	4.461317E-19
6.660000E+03	2.527420E-18	4.473851E-19
6.670000E+03	2.539650E-18	4.487311E-19
6.680000E+03	2.552538E-18	4.501705E-19
6.690000E+03	2.566132E-18	4.517120E-19
6.700000E+03	2.580436E-18	4.533563E-19
6.710000E+03	2.595364E-18	4.550891E-19
6.720000E+03	2.611009E-18	4.569266E-19
6.730000E+03	2.627285E-18	4.588539E-19
6.740000E+03	2.644286E-18	4.608877E-19
6.750000E+03	2.661970E-18	4.630210E-19
6.760000E+03	2.680296E-18	4.652464E-19
6.770000E+03	2.699361E-18	4.675811E-19
6.780000E+03	2.719075E-18	4.700093E-19
6.790000E+03	2.739490E-18	4.725402E-19
6.800000E+03	2.760611E-18	4.751745E-19
6.810000E+03	2.782444E-18	4.779130E-19
6.820000E+03	2.804941E-18	4.807480E-19
6.830000E+03	2.828160E-18	4.836887E-19
6.840000E+03	2.852052E-18	4.867270E-19
6.850000E+03	2.876674E-18	4.898724E-19
6.860000E+03	2.901979E-18	4.931167E-19
6.870000E+03	2.927968E-18	4.964601E-19
6.880000E+03	2.954701E-18	4.999124E-19
6.890000E+03	2.982073E-18	5.034557E-19
6.900000E+03	3.010195E-18	5.071088E-19
6.910000E+03	3.039017E-18	5.108628E-19
6.920000E+03	3.068542E-18	5.147181E-19
6.930000E+03	3.098772E-18	5.186751E-19
6.940000E+03	3.129711E-18	5.227340E-19
6.950000E+03	3.161301E-18	5.268850E-19
6.960000E+03	3.193603E-18	5.311383E-19
6.970000E+03	3.226621E-18	5.354940E-19
6.980000E+03	3.260356E-18	5.399524E-19
6.990000E+03	3.294683E-18	5.444928E-19
7.000000E+03	3.329794E-18	5.491464E-19
7.010000E+03	3.365496E-18	5.538816E-19
7.020000E+03	3.401919E-18	5.587195E-19
7.030000E+03	3.438997E-18	5.636492E-19
7.040000E+03	3.476729E-18	5.686705E-19
7.050000E+03	3.515114E-18	5.737831E-19
7.060000E+03	3.554149E-18	5.789867E-19
7.070000E+03	3.593762E-18	5.842692E-19
7.080000E+03	3.634019E-18	5.896418E-19
7.090000E+03	3.674920E-18	5.951039E-19
7.100000E+03	3.716385E-18	6.006430E-19
7.110000E+03	3.758485E-18	6.062706E-19
7.120000E+03	3.801140E-18	6.119736E-19
7.130000E+03	3.844343E-18	6.177511E-19
7.140000E+03	3.888085E-18	6.236018E-19
7.150000E+03	3.932442E-18	6.295378E-19
7.160000E+03	3.977242E-18	6.355320E-19
7.170000E+03	4.022475E-18	6.415827E-19
7.180000E+03	4.068296E-18	6.477150E-19
7.190000E+03	4.114527E-18	6.539008E-19
7.200000E+03	4.161155E-18	6.601381E-19
7.210000E+03	4.208254E-18	6.664389E-19
7.220000E+03	4.255722E-18	6.727875E-19
7.230000E+03	4.303544E-18	6.791818E-19
7.240000E+03	4.351703E-18	6.856194E-19
7.250000E+03	4.400183E-18	6.920982E-19
7.260000E+03	4.449061E-18	6.986307E-19
7.270000E+03	4.498129E-18	7.051846E-19
7.280000E+03	4.547560E-18	7.117876E-19
7.290000E+03	4.597239E-18	7.184219E-19
7.300000E+03	4.647146E-18	7.250849E-19
7.310000E+03	4.697361E-18	7.317897E-19
7.320000E+03	4.747763E-18	7.385178E-19
7.330000E+03	4.798434E-18	7.452825E-19
7.340000E+03	4.849358E-18	7.520816E-19
7.350000E+03	4.900623E-18	7.589294E-19
7.360000E+03	4.952214E-18	7.658239E-19
7.370000E+03	5.004230E-18	7.727807E-19
7.380000E+03	5.056545E-18	7.797805E-19
7.390000E+03	5.109492E-18	7.868751E-19
7.400000E+03	5.163070E-18	7.940644E-19
7.410000E+03	5.217157E-18	8.013297E-19
7.420000E+03	5.272112E-18	8.087262E-19
7.430000E+03	5.327821E-18	8.162361E-19
7.440000E+03	5.384412E-18	8.238789E-19
7.450000E+03	5.441767E-18	8.316363E-19
7.460000E+03	5.500017E-18	8.395282E-19
7.470000E+03	5.558778E-18	8.474954E-19
7.480000E+03	5.618306E-18	8.555770E-19
7.490000E+03	5.678200E-18	8.637113E-19
7.500000E+03	5.738581E-18	8.719166E-19
7.510000E+03	5.799300E-18	8.801699E-19
7.520000E+03	5.860200E-18	8.884471E-19
7.530000E+03	5.921401E-18	8.967660E-19
7.540000E+03	5.982453E-18	9.050579E-19
7.550000E+03	6.043612E-18	9.133614E-19
7.560000E+03	6.104707E-18	9.216499E-19
7.570000E+03	6.165706E-18	9.299183E-19
7.580000E+03	6.226424E-18	9.381385E-19
7.590000E+03	6.286979E-18	9.463274E-19
7.600000E+03	6.347181E-18	9.544563E-19
7.610000E+03	6.406991E-18	9.625188E-19
7.620000E+03	6.466531E-18	9.705329E-19
7.630000E+03	6.525603E-18	9.784687E-19
7.640000E+03	6.584334E-18	9.863448E-19
7.650000E+03	6.642353E-18	9.941056E-19
7.660000E+03	6.699954E-18	1.001795E-18
7.670000E+03	6.756928E-18	1.009381E-18
7.680000E+03	6.813410E-18	1.016885E-18
7.690000E+03	6.869187E-18	1.024274E-18
7.700000E+03	6.924217E-18	1.031543E-18
7.710000E+03	6.978459E-18	1.038685E-18
7.720000E+03	7.032235E-18	1.045748E-18
7.730000E+03	7.084962E-18	1.052647E-18
7.740000E+03	7.137151E-18	1.059456E-18
7.750000E+03	7.188397E-18	1.066116E-18
7.760000E+03	7.238849E-18	1.072649E-18
