#wls	flux	fluxerr
1.600000E+03	1.526586E-16	1.522962E-16
1.640000E+03	1.578753E-16	1.549828E-16
1.680000E+03	1.629366E-16	1.572899E-16
1.720000E+03	1.677882E-16	1.591670E-16
1.760000E+03	1.723875E-16	1.605790E-16
1.800000E+03	1.766704E-16	1.614745E-16
1.840000E+03	1.805855E-16	1.618189E-16
1.880000E+03	1.840773E-16	1.615786E-16
1.920000E+03	1.870714E-16	1.607090E-16
1.960000E+03	1.895084E-16	1.591847E-16
2.000000E+03	1.913283E-16	1.569863E-16
2.040000E+03	1.924725E-16	1.541013E-16
2.080000E+03	1.928709E-16	1.505151E-16
2.120000E+03	1.924748E-16	1.462368E-16
2.160000E+03	1.912168E-16	1.412679E-16
2.200000E+03	1.890449E-16	1.356286E-16
2.240000E+03	1.858785E-16	1.293259E-16
2.280000E+03	1.816691E-16	1.223978E-16
2.320000E+03	1.765141E-16	1.149838E-16
2.360000E+03	1.705503E-16	1.072414E-16
2.400000E+03	1.638862E-16	9.930056E-17
2.440000E+03	1.566098E-16	9.127003E-17
2.480000E+03	1.488031E-16	8.324823E-17
2.520000E+03	1.405589E-16	7.533207E-17
2.560000E+03	1.319600E-16	6.760468E-17
2.600000E+03	1.231059E-16	6.014916E-17
2.640000E+03	1.140875E-16	5.303451E-17
2.680000E+03	1.049919E-16	4.631838E-17
2.720000E+03	9.591926E-17	4.005414E-17
2.760000E+03	8.695986E-17	3.428016E-17
2.800000E+03	7.820319E-17	2.902407E-17
2.840000E+03	6.973362E-17	2.430128E-17
2.880000E+03	6.163313E-17	2.011648E-17
2.920000E+03	5.398553E-17	1.646541E-17
2.960000E+03	4.687126E-17	1.333358E-17
3.000000E+03	4.034859E-17	1.069228E-17
3.010000E+03	3.881454E-17	1.010398E-17
3.020000E+03	3.732139E-17	9.543493E-18
3.030000E+03	3.586728E-17	9.009518E-18
3.040000E+03	3.445307E-17	8.501465E-18
3.050000E+03	3.308013E-17	8.018863E-18
3.060000E+03	3.174675E-17	7.560476E-18
3.070000E+03	3.045415E-17	7.125793E-18
3.080000E+03	2.920202E-17	6.713929E-18
3.090000E+03	2.799001E-17	6.324011E-18
3.100000E+03	2.681780E-17	5.955179E-18
3.110000E+03	2.568608E-17	5.606812E-18
3.120000E+03	2.459380E-17	5.277917E-18
3.130000E+03	2.354096E-17	4.967748E-18
3.140000E+03	2.252696E-17	4.675454E-18
3.150000E+03	2.155118E-17	4.400203E-18
3.160000E+03	2.061338E-17	4.141264E-18
3.170000E+03	1.971316E-17	3.897899E-18
3.180000E+03	1.884899E-17	3.669173E-18
3.190000E+03	1.802110E-17	3.454528E-18
3.200000E+03	1.722821E-17	3.253142E-18
3.210000E+03	1.646971E-17	3.064346E-18
3.220000E+03	1.574458E-17	2.887432E-18
3.230000E+03	1.505157E-17	2.721675E-18
3.240000E+03	1.439044E-17	2.566563E-18
3.250000E+03	1.375937E-17	2.421336E-18
3.260000E+03	1.315803E-17	2.285521E-18
3.270000E+03	1.258531E-17	2.158535E-18
3.280000E+03	1.203974E-17	2.039763E-18
3.290000E+03	1.152083E-17	1.928783E-18
3.300000E+03	1.102716E-17	1.825037E-18
3.310000E+03	1.055786E-17	1.728089E-18
3.320000E+03	1.011190E-17	1.637495E-18
3.330000E+03	9.688415E-18	1.552860E-18
3.340000E+03	9.286275E-18	1.473765E-18
3.350000E+03	8.904522E-18	1.399842E-18
3.360000E+03	8.542235E-18	1.330743E-18
3.370000E+03	8.198627E-18	1.266162E-18
3.380000E+03	7.872711E-18	1.205773E-18
3.390000E+03	7.563651E-18	1.149294E-18
3.400000E+03	7.270645E-18	1.096458E-18
3.410000E+03	6.992831E-18	1.047004E-18
3.420000E+03	6.729482E-18	1.000704E-18
3.430000E+03	6.479901E-18	9.573454E-19
3.440000E+03	6.243343E-18	9.167180E-19
3.450000E+03	6.019181E-18	8.786397E-19
3.460000E+03	5.806743E-18	8.429308E-19
3.470000E+03	5.605402E-18	8.094258E-19
3.480000E+03	5.414565E-18	7.779723E-19
3.490000E+03	5.233616E-18	7.484214E-19
3.500000E+03	5.062096E-18	7.206529E-19
3.510000E+03	4.899458E-18	6.945397E-19
3.520000E+03	4.745142E-18	6.699585E-19
3.530000E+03	4.598585E-18	6.467902E-19
3.540000E+03	4.459411E-18	6.249465E-19
3.550000E+03	4.327129E-18	6.043270E-19
3.560000E+03	4.201206E-18	5.848286E-19
3.570000E+03	4.081278E-18	5.663756E-19
3.580000E+03	3.966970E-18	5.488932E-19
3.590000E+03	3.857895E-18	5.323076E-19
3.600000E+03	3.753661E-18	5.165468E-19
3.610000E+03	3.654049E-18	5.015643E-19
3.620000E+03	3.558780E-18	4.873074E-19
3.630000E+03	3.467593E-18	4.737274E-19
3.640000E+03	3.380397E-18	4.607999E-19
3.650000E+03	3.297004E-18	4.484887E-19
3.660000E+03	3.217260E-18	4.367633E-19
3.670000E+03	3.141044E-18	4.255983E-19
3.680000E+03	3.068232E-18	4.149690E-19
3.690000E+03	2.998674E-18	4.048478E-19
3.700000E+03	2.932301E-18	3.952186E-19
3.710000E+03	2.868940E-18	3.860521E-19
3.720000E+03	2.808498E-18	3.773301E-19
3.730000E+03	2.750903E-18	3.690379E-19
3.740000E+03	2.695970E-18	3.611458E-19
3.750000E+03	2.643676E-18	3.536467E-19
3.760000E+03	2.593845E-18	3.465128E-19
3.770000E+03	2.546434E-18	3.397349E-19
3.780000E+03	2.501338E-18	3.332957E-19
3.790000E+03	2.458455E-18	3.271785E-19
3.800000E+03	2.417707E-18	3.213701E-19
3.810000E+03	2.378999E-18	3.158555E-19
3.820000E+03	2.342260E-18	3.106228E-19
3.830000E+03	2.307420E-18	3.056606E-19
3.840000E+03	2.274395E-18	3.009557E-19
3.850000E+03	2.243122E-18	2.964980E-19
3.860000E+03	2.213539E-18	2.922779E-19
3.870000E+03	2.185573E-18	2.882838E-19
3.880000E+03	2.159168E-18	2.845071E-19
3.890000E+03	2.134273E-18	2.809396E-19
3.900000E+03	2.110819E-18	2.775714E-19
3.910000E+03	2.088761E-18	2.743951E-19
3.920000E+03	2.068036E-18	2.714016E-19
3.930000E+03	2.048618E-18	2.685862E-19
3.940000E+03	2.030448E-18	2.659406E-19
3.950000E+03	2.013488E-18	2.634587E-19
3.960000E+03	1.997668E-18	2.611306E-19
3.970000E+03	1.982984E-18	2.589549E-19
3.980000E+03	1.969369E-18	2.569223E-19
3.990000E+03	1.956792E-18	2.550277E-19
4.000000E+03	1.945205E-18	2.532643E-19
4.010000E+03	1.934593E-18	2.516295E-19
4.020000E+03	1.924897E-18	2.501150E-19
4.030000E+03	1.916105E-18	2.487185E-19
4.040000E+03	1.908161E-18	2.474320E-19
4.050000E+03	1.901055E-18	2.462538E-19
4.060000E+03	1.894733E-18	2.451762E-19
4.070000E+03	1.889174E-18	2.441960E-19
4.080000E+03	1.884355E-18	2.433096E-19
4.090000E+03	1.880256E-18	2.425142E-19
4.100000E+03	1.876829E-18	2.418029E-19
4.110000E+03	1.874056E-18	2.411731E-19
4.120000E+03	1.871906E-18	2.406203E-19
4.130000E+03	1.870363E-18	2.401423E-19
4.140000E+03	1.869410E-18	2.397366E-19
4.150000E+03	1.869005E-18	2.393976E-19
4.160000E+03	1.869150E-18	2.391252E-19
4.170000E+03	1.869803E-18	2.389141E-19
4.180000E+03	1.870953E-18	2.387626E-19
4.190000E+03	1.872589E-18	2.386693E-19
4.200000E+03	1.874673E-18	2.386292E-19
4.210000E+03	1.877195E-18	2.386411E-19
4.220000E+03	1.880133E-18	2.387021E-19
4.230000E+03	1.883493E-18	2.388130E-19
4.240000E+03	1.887227E-18	2.389676E-19
4.250000E+03	1.891341E-18	2.391669E-19
4.260000E+03	1.895802E-18	2.394066E-19
4.270000E+03	1.900618E-18	2.396879E-19
4.280000E+03	1.905742E-18	2.400049E-19
4.290000E+03	1.911169E-18	2.403571E-19
4.300000E+03	1.916895E-18	2.407442E-19
4.310000E+03	1.922874E-18	2.411604E-19
4.320000E+03	1.929116E-18	2.416074E-19
4.330000E+03	1.935558E-18	2.420774E-19
4.340000E+03	1.942213E-18	2.425724E-19
4.350000E+03	1.949002E-18	2.430828E-19
4.360000E+03	1.955922E-18	2.436086E-19
4.370000E+03	1.963015E-18	2.441557E-19
4.380000E+03	1.970281E-18	2.447241E-19
4.390000E+03	1.977733E-18	2.453163E-19
4.400000E+03	1.985373E-18	2.459327E-19
4.410000E+03	1.993167E-18	2.465698E-19
4.420000E+03	2.001150E-18	2.472320E-19
4.430000E+03	2.009290E-18	2.479162E-19
4.440000E+03	2.017590E-18	2.486229E-19
4.450000E+03	2.026036E-18	2.493510E-19
4.460000E+03	2.034632E-18	2.501012E-19
4.470000E+03	2.043348E-18	2.508703E-19
4.480000E+03	2.052207E-18	2.516613E-19
4.490000E+03	2.061180E-18	2.524709E-19
4.500000E+03	2.070259E-18	2.532979E-19
4.510000E+03	2.079468E-18	2.541455E-19
4.520000E+03	2.088764E-18	2.550083E-19
4.530000E+03	2.098159E-18	2.558872E-19
4.540000E+03	2.107662E-18	2.567832E-19
4.550000E+03	2.117253E-18	2.576932E-19
4.560000E+03	2.126945E-18	2.586182E-19
4.570000E+03	2.136716E-18	2.595550E-19
4.580000E+03	2.146584E-18	2.605048E-19
4.590000E+03	2.156546E-18	2.614665E-19
4.600000E+03	2.166603E-18	2.624394E-19
4.610000E+03	2.176737E-18	2.634203E-19
4.620000E+03	2.186986E-18	2.644129E-19
4.630000E+03	2.197313E-18	2.654122E-19
4.640000E+03	2.207740E-18	2.664196E-19
4.650000E+03	2.218269E-18	2.674347E-19
4.660000E+03	2.228883E-18	2.684547E-19
4.670000E+03	2.239623E-18	2.694838E-19
4.680000E+03	2.250455E-18	2.705169E-19
4.690000E+03	2.261400E-18	2.715561E-19
4.700000E+03	2.272502E-18	2.726059E-19
4.710000E+03	2.283746E-18	2.736637E-19
4.720000E+03	2.295157E-18	2.747318E-19
4.730000E+03	2.306760E-18	2.758126E-19
4.740000E+03	2.318561E-18	2.769061E-19
4.750000E+03	2.330567E-18	2.780124E-19
4.760000E+03	2.342825E-18	2.791367E-19
4.770000E+03	2.355301E-18	2.802742E-19
4.780000E+03	2.368045E-18	2.814304E-19
4.790000E+03	2.381064E-18	2.826058E-19
4.800000E+03	2.394346E-18	2.837984E-19
4.810000E+03	2.407943E-18	2.850141E-19
4.820000E+03	2.421842E-18	2.862512E-19
4.830000E+03	2.436054E-18	2.875108E-19
4.840000E+03	2.450589E-18	2.887938E-19
4.850000E+03	2.465457E-18	2.901017E-19
4.860000E+03	2.480714E-18	2.914409E-19
4.870000E+03	2.496304E-18	2.928050E-19
4.880000E+03	2.512285E-18	2.942007E-19
4.890000E+03	2.528645E-18	2.956271E-19
4.900000E+03	2.545420E-18	2.970884E-19
4.910000E+03	2.562600E-18	2.985836E-19
4.920000E+03	2.580197E-18	3.001142E-19
4.930000E+03	2.598247E-18	3.016846E-19
4.940000E+03	2.616714E-18	3.032911E-19
4.950000E+03	2.635635E-18	3.049377E-19
4.960000E+03	2.655023E-18	3.066263E-19
4.970000E+03	2.674888E-18	3.083582E-19
4.980000E+03	2.695218E-18	3.101320E-19
4.990000E+03	2.716023E-18	3.119492E-19
5.000000E+03	2.737340E-18	3.138140E-19
5.010000E+03	2.759127E-18	3.157219E-19
5.020000E+03	2.781446E-18	3.176801E-19
5.030000E+03	2.804253E-18	3.196840E-19
5.040000E+03	2.827558E-18	3.217348E-19
5.050000E+03	2.851394E-18	3.238369E-19
5.060000E+03	2.875743E-18	3.259884E-19
5.070000E+03	2.900611E-18	3.281908E-19
5.080000E+03	2.925976E-18	3.304422E-19
5.090000E+03	2.951873E-18	3.327473E-19
5.100000E+03	2.978308E-18	3.351075E-19
5.110000E+03	3.005227E-18	3.375183E-19
5.120000E+03	3.032664E-18	3.399845E-19
5.130000E+03	3.060622E-18	3.425081E-19
5.140000E+03	3.089106E-18	3.450912E-19
5.150000E+03	3.118089E-18	3.477328E-19
5.160000E+03	3.147575E-18	3.504355E-19
5.170000E+03	3.177535E-18	3.531987E-19
5.180000E+03	3.208034E-18	3.560321E-19
5.190000E+03	3.239011E-18	3.589323E-19
5.200000E+03	3.270469E-18	3.619029E-19
5.210000E+03	3.302409E-18	3.649476E-19
5.220000E+03	3.334864E-18	3.680741E-19
5.230000E+03	3.367770E-18	3.712798E-19
5.240000E+03	3.401126E-18	3.745691E-19
5.250000E+03	3.434996E-18	3.779541E-19
5.260000E+03	3.469280E-18	3.814288E-19
5.270000E+03	3.504040E-18	3.850056E-19
5.280000E+03	3.539238E-18	3.886860E-19
5.290000E+03	3.574868E-18	3.924751E-19
5.300000E+03	3.610958E-18	3.963820E-19
5.310000E+03	3.647429E-18	4.004040E-19
5.320000E+03	3.684305E-18	4.045499E-19
5.330000E+03	3.721574E-18	4.088245E-19
5.340000E+03	3.759221E-18	4.132323E-19
5.350000E+03	3.797268E-18	4.177817E-19
5.360000E+03	3.835620E-18	4.224685E-19
5.370000E+03	3.874294E-18	4.273001E-19
5.380000E+03	3.913266E-18	4.322797E-19
5.390000E+03	3.952469E-18	4.374054E-19
5.400000E+03	3.991953E-18	4.426880E-19
5.410000E+03	4.031645E-18	4.481247E-19
5.420000E+03	4.071470E-18	4.537120E-19
5.430000E+03	4.111388E-18	4.594498E-19
5.440000E+03	4.151396E-18	4.653424E-19
5.450000E+03	4.191368E-18	4.713792E-19
5.460000E+03	4.231293E-18	4.775629E-19
5.470000E+03	4.271120E-18	4.838908E-19
5.480000E+03	4.310706E-18	4.903496E-19
5.490000E+03	4.349989E-18	4.969348E-19
5.500000E+03	4.388949E-18	5.036461E-19
5.510000E+03	4.427475E-18	5.104723E-19
5.520000E+03	4.465448E-18	5.174013E-19
5.530000E+03	4.502750E-18	5.244199E-19
5.540000E+03	4.539390E-18	5.315301E-19
5.550000E+03	4.575151E-18	5.387064E-19
5.560000E+03	4.609993E-18	5.459439E-19
5.570000E+03	4.643782E-18	5.532262E-19
5.580000E+03	4.676427E-18	5.605418E-19
5.590000E+03	4.707839E-18	5.678786E-19
5.600000E+03	4.737879E-18	5.752184E-19
5.610000E+03	4.766501E-18	5.825541E-19
5.620000E+03	4.793569E-18	5.898666E-19
5.630000E+03	4.818942E-18	5.971363E-19
5.640000E+03	4.842633E-18	6.043619E-19
5.650000E+03	4.864509E-18	6.115237E-19
5.660000E+03	4.884441E-18	6.186017E-19
5.670000E+03	4.902404E-18	6.255887E-19
5.680000E+03	4.918380E-18	6.324779E-19
5.690000E+03	4.932205E-18	6.392430E-19
5.700000E+03	4.943874E-18	6.458774E-19
5.710000E+03	4.953391E-18	6.523753E-19
5.720000E+03	4.960662E-18	6.587171E-19
5.730000E+03	4.965707E-18	6.648975E-19
5.740000E+03	4.968447E-18	6.708973E-19
5.750000E+03	4.968918E-18	6.767114E-19
5.760000E+03	4.967109E-18	6.823281E-19
5.770000E+03	4.963072E-18	6.877430E-19
5.780000E+03	4.956708E-18	6.929300E-19
5.790000E+03	4.948188E-18	6.979000E-19
5.800000E+03	4.937429E-18	7.026269E-19
5.810000E+03	4.924512E-18	7.071076E-19
5.820000E+03	4.909475E-18	7.113315E-19
5.830000E+03	4.892361E-18	7.152886E-19
5.840000E+03	4.873276E-18	7.189770E-19
5.850000E+03	4.852278E-18	7.223881E-19
5.860000E+03	4.829432E-18	7.255135E-19
5.870000E+03	4.804756E-18	7.283378E-19
5.880000E+03	4.778435E-18	7.308703E-19
5.890000E+03	4.750499E-18	7.330976E-19
5.900000E+03	4.721086E-18	7.350230E-19
5.910000E+03	4.690235E-18	7.366349E-19
5.920000E+03	4.658093E-18	7.379392E-19
5.930000E+03	4.624754E-18	7.389346E-19
5.940000E+03	4.590315E-18	7.396212E-19
5.950000E+03	4.554873E-18	7.399999E-19
5.960000E+03	4.518524E-18	7.400729E-19
5.970000E+03	4.481416E-18	7.398520E-19
5.980000E+03	4.443537E-18	7.393243E-19
5.990000E+03	4.405085E-18	7.385122E-19
6.000000E+03	4.366095E-18	7.374132E-19
6.010000E+03	4.326655E-18	7.360343E-19
6.020000E+03	4.286899E-18	7.343917E-19
6.030000E+03	4.246805E-18	7.324765E-19
6.040000E+03	4.206552E-18	7.303151E-19
6.050000E+03	4.166112E-18	7.278993E-19
6.060000E+03	4.125606E-18	7.252479E-19
6.070000E+03	4.085100E-18	7.223712E-19
6.080000E+03	4.044607E-18	7.192708E-19
6.090000E+03	4.004188E-18	7.159577E-19
6.100000E+03	3.963899E-18	7.124428E-19
6.110000E+03	3.923792E-18	7.087371E-19
6.120000E+03	3.883917E-18	7.048518E-19
6.130000E+03	3.844319E-18	7.007979E-19
6.140000E+03	3.805043E-18	6.965865E-19
6.150000E+03	3.766126E-18	6.922286E-19
6.160000E+03	3.727653E-18	6.877437E-19
6.170000E+03	3.689704E-18	6.831511E-19
6.180000E+03	3.652356E-18	6.784700E-19
6.190000E+03	3.615633E-18	6.737104E-19
6.200000E+03	3.579560E-18	6.688819E-19
6.210000E+03	3.544111E-18	6.639854E-19
6.220000E+03	3.509305E-18	6.590299E-19
6.230000E+03	3.475159E-18	6.540242E-19
6.240000E+03	3.441642E-18	6.489682E-19
6.250000E+03	3.408812E-18	6.438785E-19
6.260000E+03	3.376773E-18	6.387802E-19
6.270000E+03	3.345486E-18	6.336720E-19
6.280000E+03	3.315004E-18	6.285693E-19
6.290000E+03	3.285423E-18	6.234960E-19
6.300000E+03	3.256701E-18	6.184494E-19
6.310000E+03	3.228976E-18	6.134610E-19
6.320000E+03	3.202292E-18	6.085447E-19
6.330000E+03	3.176605E-18	6.036968E-19
6.340000E+03	3.152048E-18	5.989474E-19
6.350000E+03	3.128662E-18	5.943092E-19
6.360000E+03	3.106446E-18	5.897860E-19
6.370000E+03	3.085441E-18	5.853898E-19
6.380000E+03	3.065778E-18	5.811494E-19
6.390000E+03	3.047409E-18	5.770591E-19
6.400000E+03	3.030375E-18	5.731302E-19
6.410000E+03	3.014764E-18	5.693819E-19
6.420000E+03	3.000438E-18	5.657912E-19
6.430000E+03	2.987306E-18	5.623433E-19
6.440000E+03	2.975322E-18	5.590320E-19
6.450000E+03	2.964439E-18	5.558506E-19
6.460000E+03	2.954566E-18	5.527841E-19
6.470000E+03	2.945701E-18	5.498341E-19
6.480000E+03	2.937798E-18	5.469937E-19
6.490000E+03	2.930854E-18	5.442644E-19
6.500000E+03	2.924824E-18	5.416389E-19
6.510000E+03	2.919707E-18	5.391183E-19
6.520000E+03	2.915500E-18	5.367036E-19
6.530000E+03	2.912157E-18	5.343874E-19
6.540000E+03	2.909722E-18	5.321787E-19
6.550000E+03	2.908195E-18	5.300782E-19
6.560000E+03	2.907528E-18	5.280781E-19
6.570000E+03	2.907768E-18	5.261872E-19
6.580000E+03	2.908868E-18	5.243975E-19
6.590000E+03	2.910826E-18	5.227092E-19
6.600000E+03	2.913690E-18	5.211310E-19
6.610000E+03	2.917366E-18	5.196460E-19
6.620000E+03	2.921995E-18	5.182798E-19
6.630000E+03	2.927436E-18	5.170069E-19
6.640000E+03	2.933785E-18	5.158442E-19
6.650000E+03	2.940995E-18	5.147830E-19
6.660000E+03	2.949067E-18	5.138232E-19
6.670000E+03	2.958051E-18	5.129731E-19
6.680000E+03	2.967900E-18	5.122238E-19
6.690000E+03	2.978615E-18	5.115750E-19
6.700000E+03	2.990199E-18	5.110263E-19
6.710000E+03	3.002704E-18	5.105860E-19
6.720000E+03	3.016030E-18	5.102362E-19
6.730000E+03	3.030283E-18	5.099939E-19
6.740000E+03	3.045415E-18	5.098498E-19
6.750000E+03	3.061428E-18	5.098035E-19
6.760000E+03	3.078325E-18	5.098543E-19
6.770000E+03	3.096109E-18	5.100015E-19
6.780000E+03	3.114839E-18	5.102536E-19
6.790000E+03	3.134409E-18	5.105920E-19
6.800000E+03	3.154877E-18	5.110248E-19
6.810000E+03	3.176247E-18	5.115514E-19
6.820000E+03	3.198522E-18	5.121711E-19
6.830000E+03	3.221707E-18	5.128831E-19
6.840000E+03	3.245806E-18	5.136866E-19
6.850000E+03	3.270822E-18	5.145808E-19
6.860000E+03	3.296701E-18	5.155555E-19
6.870000E+03	3.323504E-18	5.166191E-19
6.880000E+03	3.351236E-18	5.177710E-19
6.890000E+03	3.379838E-18	5.190005E-19
6.900000E+03	3.409376E-18	5.203164E-19
6.910000E+03	3.439854E-18	5.217178E-19
6.920000E+03	3.471211E-18	5.231940E-19
6.930000E+03	3.503448E-18	5.247441E-19
6.940000E+03	3.536634E-18	5.263770E-19
6.950000E+03	3.570705E-18	5.280818E-19
6.960000E+03	3.605662E-18	5.298575E-19
6.970000E+03	3.641576E-18	5.317135E-19
6.980000E+03	3.678381E-18	5.336386E-19
6.990000E+03	3.716077E-18	5.356321E-19
7.000000E+03	3.754594E-18	5.376826E-19
7.010000E+03	3.794076E-18	5.398101E-19
7.020000E+03	3.834454E-18	5.420033E-19
7.030000E+03	3.875727E-18	5.442617E-19
7.040000E+03	3.917820E-18	5.465736E-19
7.050000E+03	3.960809E-18	5.489489E-19
7.060000E+03	4.004615E-18	5.513762E-19
7.070000E+03	4.049396E-18	5.538765E-19
7.080000E+03	4.094912E-18	5.564161E-19
7.090000E+03	4.141320E-18	5.590163E-19
7.100000E+03	4.188539E-18	5.616654E-19
7.110000E+03	4.236649E-18	5.643740E-19
7.120000E+03	4.285477E-18	5.671185E-19
7.130000E+03	4.335192E-18	5.699213E-19
7.140000E+03	4.385613E-18	5.727584E-19
7.150000E+03	4.436825E-18	5.756407E-19
7.160000E+03	4.488821E-18	5.785677E-19
7.170000E+03	4.541597E-18	5.815389E-19
7.180000E+03	4.595052E-18	5.845416E-19
7.190000E+03	4.649175E-18	5.875749E-19
7.200000E+03	4.704056E-18	5.906508E-19
7.210000E+03	4.759587E-18	5.937565E-19
7.220000E+03	4.815858E-18	5.969041E-19
7.230000E+03	4.872655E-18	6.000681E-19
7.240000E+03	4.930171E-18	6.032738E-19
7.250000E+03	4.988291E-18	6.065083E-19
7.260000E+03	5.047001E-18	6.097717E-19
7.270000E+03	5.106286E-18	6.130642E-19
7.280000E+03	5.166131E-18	6.163862E-19
7.290000E+03	5.226520E-18	6.197381E-19
7.300000E+03	5.287552E-18	6.231345E-19
7.310000E+03	5.348978E-18	6.265486E-19
7.320000E+03	5.411136E-18	6.300233E-19
7.330000E+03	5.473895E-18	6.335461E-19
7.340000E+03	5.537115E-18	6.371045E-19
7.350000E+03	5.601156E-18	6.407430E-19
7.360000E+03	5.665756E-18	6.444350E-19
7.370000E+03	5.731291E-18	6.482267E-19
7.380000E+03	5.797630E-18	6.521064E-19
7.390000E+03	5.864902E-18	6.560916E-19
7.400000E+03	5.933245E-18	6.602009E-19
7.410000E+03	6.002669E-18	6.644376E-19
7.420000E+03	6.073463E-18	6.688362E-19
7.430000E+03	6.145794E-18	6.734167E-19
7.440000E+03	6.219544E-18	6.781674E-19
7.450000E+03	6.294735E-18	6.830917E-19
7.460000E+03	6.371391E-18	6.881927E-19
7.470000E+03	6.449379E-18	6.934563E-19
7.480000E+03	6.528560E-18	6.988671E-19
7.490000E+03	6.608783E-18	7.044082E-19
7.500000E+03	6.690050E-18	7.100783E-19
7.510000E+03	6.772196E-18	7.158579E-19
7.520000E+03	6.855049E-18	7.217256E-19
7.530000E+03	6.938762E-18	7.276940E-19
7.540000E+03	7.022983E-18	7.337218E-19
7.550000E+03	7.107686E-18	7.398015E-19
7.560000E+03	7.192847E-18	7.459249E-19
7.570000E+03	7.278438E-18	7.520838E-19
7.580000E+03	7.364431E-18	7.582691E-19
7.590000E+03	7.450612E-18	7.644530E-19
7.600000E+03	7.536940E-18	7.706259E-19
7.610000E+03	7.623566E-18	7.767982E-19
7.620000E+03	7.710260E-18	7.829419E-19
7.630000E+03	7.797174E-18	7.890686E-19
7.640000E+03	7.883869E-18	7.951308E-19
7.650000E+03	7.970690E-18	8.011614E-19
7.660000E+03	8.057388E-18	8.071338E-19
7.670000E+03	8.143906E-18	8.130420E-19
7.680000E+03	8.230184E-18	8.188805E-19
7.690000E+03	8.316376E-18	8.246656E-19
7.700000E+03	8.402208E-18	8.303714E-19
7.710000E+03	8.487612E-18	8.359932E-19
7.720000E+03	8.572742E-18	8.415485E-19
7.730000E+03	8.657534E-18	8.470334E-19
7.740000E+03	8.741690E-18	8.524211E-19
7.750000E+03	8.825367E-18	8.577293E-19
7.760000E+03	8.908495E-18	8.629534E-19
