#wls	flux	fluxerr
1.600000E+03	1.709739E-16	1.668793E-16
1.640000E+03	1.760929E-16	1.690130E-16
1.680000E+03	1.809001E-16	1.706193E-16
1.720000E+03	1.853415E-16	1.716586E-16
1.760000E+03	1.893406E-16	1.720750E-16
1.800000E+03	1.928355E-16	1.718321E-16
1.840000E+03	1.957439E-16	1.708817E-16
1.880000E+03	1.980181E-16	1.692121E-16
1.920000E+03	1.995921E-16	1.668017E-16
1.960000E+03	2.003858E-16	1.636238E-16
2.000000E+03	2.003571E-16	1.596902E-16
2.040000E+03	1.994382E-16	1.549980E-16
2.080000E+03	1.975739E-16	1.495612E-16
2.120000E+03	1.947515E-16	1.434315E-16
2.160000E+03	1.909072E-16	1.366273E-16
2.200000E+03	1.860080E-16	1.291957E-16
2.240000E+03	1.800218E-16	1.211892E-16
2.280000E+03	1.728909E-16	1.126480E-16
2.320000E+03	1.648358E-16	1.037945E-16
2.360000E+03	1.560803E-16	9.483441E-17
2.400000E+03	1.468037E-16	8.592876E-17
2.440000E+03	1.371588E-16	7.720769E-17
2.480000E+03	1.272913E-16	6.878342E-17
2.520000E+03	1.173332E-16	6.074735E-17
2.560000E+03	1.074008E-16	5.317023E-17
2.600000E+03	9.761145E-17	4.611144E-17
2.640000E+03	8.807082E-17	3.961327E-17
2.680000E+03	7.887382E-17	3.370229E-17
2.720000E+03	7.010399E-17	2.839048E-17
2.760000E+03	6.183666E-17	2.367778E-17
2.800000E+03	5.412439E-17	1.954802E-17
2.840000E+03	4.700953E-17	1.597593E-17
2.880000E+03	4.052459E-17	1.292879E-17
2.920000E+03	3.468736E-17	1.036638E-17
2.960000E+03	2.950252E-17	8.243480E-18
3.000000E+03	2.495660E-17	6.510320E-18
3.010000E+03	2.391644E-17	6.131784E-18
3.020000E+03	2.291364E-17	5.773518E-18
3.030000E+03	2.194787E-17	5.434800E-18
3.040000E+03	2.101823E-17	5.114776E-18
3.050000E+03	2.012382E-17	4.812616E-18
3.060000E+03	1.926415E-17	4.527610E-18
3.070000E+03	1.843785E-17	4.258860E-18
3.080000E+03	1.764478E-17	4.005775E-18
3.090000E+03	1.688358E-17	3.767499E-18
3.100000E+03	1.615364E-17	3.543376E-18
3.110000E+03	1.545399E-17	3.332684E-18
3.120000E+03	1.478396E-17	3.134790E-18
3.130000E+03	1.414257E-17	2.949009E-18
3.140000E+03	1.352886E-17	2.774685E-18
3.150000E+03	1.294215E-17	2.611236E-18
3.160000E+03	1.238125E-17	2.458002E-18
3.170000E+03	1.184571E-17	2.314487E-18
3.180000E+03	1.133439E-17	2.180079E-18
3.190000E+03	1.084659E-17	2.054277E-18
3.200000E+03	1.038142E-17	1.936564E-18
3.210000E+03	9.938012E-18	1.826446E-18
3.220000E+03	9.515673E-18	1.723487E-18
3.230000E+03	9.113546E-18	1.627239E-18
3.240000E+03	8.730654E-18	1.537256E-18
3.250000E+03	8.366624E-18	1.453215E-18
3.260000E+03	8.020234E-18	1.374664E-18
3.270000E+03	7.691111E-18	1.301315E-18
3.280000E+03	7.378244E-18	1.232787E-18
3.290000E+03	7.081026E-18	1.168784E-18
3.300000E+03	6.798849E-18	1.109021E-18
3.310000E+03	6.530815E-18	1.053183E-18
3.320000E+03	6.276462E-18	1.001036E-18
3.330000E+03	6.035139E-18	9.523289E-19
3.340000E+03	5.806137E-18	9.068137E-19
3.350000E+03	5.588871E-18	8.642729E-19
3.360000E+03	5.382776E-18	8.245030E-19
3.370000E+03	5.187385E-18	7.873248E-19
3.380000E+03	5.002036E-18	7.525392E-19
3.390000E+03	4.826374E-18	7.200019E-19
3.400000E+03	4.659797E-18	6.895394E-19
3.410000E+03	4.501863E-18	6.610103E-19
3.420000E+03	4.352205E-18	6.342910E-19
3.430000E+03	4.210258E-18	6.092353E-19
3.440000E+03	4.075752E-18	5.857466E-19
3.450000E+03	3.948276E-18	5.637128E-19
3.460000E+03	3.827352E-18	5.430183E-19
3.470000E+03	3.712760E-18	5.235888E-19
3.480000E+03	3.604073E-18	5.053248E-19
3.490000E+03	3.501019E-18	4.881527E-19
3.500000E+03	3.403298E-18	4.719987E-19
3.510000E+03	3.310524E-18	4.567800E-19
3.520000E+03	3.222481E-18	4.424407E-19
3.530000E+03	3.138864E-18	4.289152E-19
3.540000E+03	3.059392E-18	4.161433E-19
3.550000E+03	2.983836E-18	4.040748E-19
3.560000E+03	2.911925E-18	3.926550E-19
3.570000E+03	2.843437E-18	3.818384E-19
3.580000E+03	2.778139E-18	3.715793E-19
3.590000E+03	2.715871E-18	3.618434E-19
3.600000E+03	2.656453E-18	3.525954E-19
3.610000E+03	2.599696E-18	3.437994E-19
3.620000E+03	2.545471E-18	3.354291E-19
3.630000E+03	2.493654E-18	3.274599E-19
3.640000E+03	2.444086E-18	3.198632E-19
3.650000E+03	2.396724E-18	3.126266E-19
3.660000E+03	2.351417E-18	3.057245E-19
3.670000E+03	2.308108E-18	2.991437E-19
3.680000E+03	2.266718E-18	2.928692E-19
3.690000E+03	2.227169E-18	2.868863E-19
3.700000E+03	2.189405E-18	2.811836E-19
3.710000E+03	2.153388E-18	2.757524E-19
3.720000E+03	2.119007E-18	2.705746E-19
3.730000E+03	2.086261E-18	2.656470E-19
3.740000E+03	2.055058E-18	2.609546E-19
3.750000E+03	2.025362E-18	2.564901E-19
3.760000E+03	1.997134E-18	2.522459E-19
3.770000E+03	1.970287E-18	2.482087E-19
3.780000E+03	1.944819E-18	2.443757E-19
3.790000E+03	1.920661E-18	2.407362E-19
3.800000E+03	1.897777E-18	2.372838E-19
3.810000E+03	1.876120E-18	2.340104E-19
3.820000E+03	1.855657E-18	2.309100E-19
3.830000E+03	1.836342E-18	2.279750E-19
3.840000E+03	1.818144E-18	2.252001E-19
3.850000E+03	1.801021E-18	2.225783E-19
3.860000E+03	1.784960E-18	2.201062E-19
3.870000E+03	1.769920E-18	2.177773E-19
3.880000E+03	1.755862E-18	2.155854E-19
3.890000E+03	1.742762E-18	2.135263E-19
3.900000E+03	1.730584E-18	2.115940E-19
3.910000E+03	1.719318E-18	2.097865E-19
3.920000E+03	1.708929E-18	2.080983E-19
3.930000E+03	1.699397E-18	2.065259E-19
3.940000E+03	1.690686E-18	2.050642E-19
3.950000E+03	1.682766E-18	2.037083E-19
3.960000E+03	1.675642E-18	2.024580E-19
3.970000E+03	1.669258E-18	2.013055E-19
3.980000E+03	1.663609E-18	2.002492E-19
3.990000E+03	1.658664E-18	1.992845E-19
4.000000E+03	1.654408E-18	1.984085E-19
4.010000E+03	1.650824E-18	1.976181E-19
4.020000E+03	1.647873E-18	1.969077E-19
4.030000E+03	1.645551E-18	1.962760E-19
4.040000E+03	1.643834E-18	1.957189E-19
4.050000E+03	1.642707E-18	1.952342E-19
4.060000E+03	1.642146E-18	1.948179E-19
4.070000E+03	1.642125E-18	1.944665E-19
4.080000E+03	1.642647E-18	1.941795E-19
4.090000E+03	1.643675E-18	1.939521E-19
4.100000E+03	1.645200E-18	1.937826E-19
4.110000E+03	1.647214E-18	1.936693E-19
4.120000E+03	1.649683E-18	1.936077E-19
4.130000E+03	1.652612E-18	1.935977E-19
4.140000E+03	1.655970E-18	1.936349E-19
4.150000E+03	1.659750E-18	1.937179E-19
4.160000E+03	1.663945E-18	1.938452E-19
4.170000E+03	1.668526E-18	1.940126E-19
4.180000E+03	1.673498E-18	1.942201E-19
4.190000E+03	1.678819E-18	1.944620E-19
4.200000E+03	1.684510E-18	1.947402E-19
4.210000E+03	1.690527E-18	1.950489E-19
4.220000E+03	1.696867E-18	1.953870E-19
4.230000E+03	1.703514E-18	1.957521E-19
4.240000E+03	1.710463E-18	1.961433E-19
4.250000E+03	1.717675E-18	1.965550E-19
4.260000E+03	1.725159E-18	1.969881E-19
4.270000E+03	1.732888E-18	1.974387E-19
4.280000E+03	1.740834E-18	1.979030E-19
4.290000E+03	1.748997E-18	1.983806E-19
4.300000E+03	1.757360E-18	1.988692E-19
4.310000E+03	1.765885E-18	1.993638E-19
4.320000E+03	1.774554E-18	1.998622E-19
4.330000E+03	1.783354E-18	2.003625E-19
4.340000E+03	1.792269E-18	2.008626E-19
4.350000E+03	1.801283E-18	2.013605E-19
4.360000E+03	1.810395E-18	2.018557E-19
4.370000E+03	1.819588E-18	2.023461E-19
4.380000E+03	1.828845E-18	2.028295E-19
4.390000E+03	1.838192E-18	2.033087E-19
4.400000E+03	1.847612E-18	2.037813E-19
4.410000E+03	1.857102E-18	2.042469E-19
4.420000E+03	1.866674E-18	2.047065E-19
4.430000E+03	1.876325E-18	2.051596E-19
4.440000E+03	1.886038E-18	2.056042E-19
4.450000E+03	1.895826E-18	2.060416E-19
4.460000E+03	1.905672E-18	2.064701E-19
4.470000E+03	1.915575E-18	2.068896E-19
4.480000E+03	1.925535E-18	2.073004E-19
4.490000E+03	1.935521E-18	2.076993E-19
4.500000E+03	1.945551E-18	2.080888E-19
4.510000E+03	1.955610E-18	2.084677E-19
4.520000E+03	1.965688E-18	2.088351E-19
4.530000E+03	1.975788E-18	2.091923E-19
4.540000E+03	1.985884E-18	2.095367E-19
4.550000E+03	1.995982E-18	2.098700E-19
4.560000E+03	2.006090E-18	2.101936E-19
4.570000E+03	2.016201E-18	2.105077E-19
4.580000E+03	2.026290E-18	2.108106E-19
4.590000E+03	2.036368E-18	2.111045E-19
4.600000E+03	2.046429E-18	2.113899E-19
4.610000E+03	2.056468E-18	2.116674E-19
4.620000E+03	2.066499E-18	2.119393E-19
4.630000E+03	2.076500E-18	2.122045E-19
4.640000E+03	2.086487E-18	2.124655E-19
4.650000E+03	2.096458E-18	2.127229E-19
4.660000E+03	2.106412E-18	2.129771E-19
4.670000E+03	2.116347E-18	2.132285E-19
4.680000E+03	2.126264E-18	2.134772E-19
4.690000E+03	2.136163E-18	2.137231E-19
4.700000E+03	2.146080E-18	2.139695E-19
4.710000E+03	2.156019E-18	2.142161E-19
4.720000E+03	2.165979E-18	2.144619E-19
4.730000E+03	2.176003E-18	2.147098E-19
4.740000E+03	2.186073E-18	2.149570E-19
4.750000E+03	2.196193E-18	2.152023E-19
4.760000E+03	2.206387E-18	2.154466E-19
4.770000E+03	2.216658E-18	2.156887E-19
4.780000E+03	2.226993E-18	2.159257E-19
4.790000E+03	2.237416E-18	2.161586E-19
4.800000E+03	2.247933E-18	2.163866E-19
4.810000E+03	2.258530E-18	2.166072E-19
4.820000E+03	2.269233E-18	2.168219E-19
4.830000E+03	2.280051E-18	2.170310E-19
4.840000E+03	2.290991E-18	2.172347E-19
4.850000E+03	2.302060E-18	2.174339E-19
4.860000E+03	2.313246E-18	2.176279E-19
4.870000E+03	2.324601E-18	2.178224E-19
4.880000E+03	2.336090E-18	2.180154E-19
4.890000E+03	2.347723E-18	2.182094E-19
4.900000E+03	2.359531E-18	2.184090E-19
4.910000E+03	2.371526E-18	2.186172E-19
4.920000E+03	2.383717E-18	2.188369E-19
4.930000E+03	2.396071E-18	2.190672E-19
4.940000E+03	2.408643E-18	2.193150E-19
4.950000E+03	2.421421E-18	2.195814E-19
4.960000E+03	2.434415E-18	2.198690E-19
4.970000E+03	2.447637E-18	2.201804E-19
4.980000E+03	2.461095E-18	2.205177E-19
4.990000E+03	2.474776E-18	2.208805E-19
5.000000E+03	2.488688E-18	2.212699E-19
5.010000E+03	2.502861E-18	2.216888E-19
5.020000E+03	2.517280E-18	2.221350E-19
5.030000E+03	2.531925E-18	2.226060E-19
5.040000E+03	2.546848E-18	2.231052E-19
5.050000E+03	2.561979E-18	2.236249E-19
5.060000E+03	2.577372E-18	2.241679E-19
5.070000E+03	2.593027E-18	2.247326E-19
5.080000E+03	2.608872E-18	2.253110E-19
5.090000E+03	2.624984E-18	2.259080E-19
5.100000E+03	2.641312E-18	2.265180E-19
5.110000E+03	2.657858E-18	2.271401E-19
5.120000E+03	2.674646E-18	2.277757E-19
5.130000E+03	2.691624E-18	2.284206E-19
5.140000E+03	2.708792E-18	2.290750E-19
5.150000E+03	2.726173E-18	2.297425E-19
5.160000E+03	2.743741E-18	2.304229E-19
5.170000E+03	2.761492E-18	2.311191E-19
5.180000E+03	2.779398E-18	2.318325E-19
5.190000E+03	2.797481E-18	2.325700E-19
5.200000E+03	2.815686E-18	2.333323E-19
5.210000E+03	2.834062E-18	2.341298E-19
5.220000E+03	2.852577E-18	2.349668E-19
5.230000E+03	2.871198E-18	2.358479E-19
5.240000E+03	2.889920E-18	2.367803E-19
5.250000E+03	2.908761E-18	2.377739E-19
5.260000E+03	2.927658E-18	2.388317E-19
5.270000E+03	2.946628E-18	2.399637E-19
5.280000E+03	2.965691E-18	2.411801E-19
5.290000E+03	2.984746E-18	2.424814E-19
5.300000E+03	3.003868E-18	2.438823E-19
5.310000E+03	3.022951E-18	2.453827E-19
5.320000E+03	3.042070E-18	2.469967E-19
5.330000E+03	3.061115E-18	2.487232E-19
5.340000E+03	3.080128E-18	2.505730E-19
5.350000E+03	3.099090E-18	2.525509E-19
5.360000E+03	3.117951E-18	2.546587E-19
5.370000E+03	3.136752E-18	2.569050E-19
5.380000E+03	3.155382E-18	2.592845E-19
5.390000E+03	3.173915E-18	2.618067E-19
5.400000E+03	3.192304E-18	2.644698E-19
5.410000E+03	3.210530E-18	2.672737E-19
5.420000E+03	3.228578E-18	2.702177E-19
5.430000E+03	3.246434E-18	2.733003E-19
5.440000E+03	3.264048E-18	2.765163E-19
5.450000E+03	3.281407E-18	2.798628E-19
5.460000E+03	3.298494E-18	2.833360E-19
5.470000E+03	3.315295E-18	2.869317E-19
5.480000E+03	3.331760E-18	2.906421E-19
5.490000E+03	3.347837E-18	2.944586E-19
5.500000E+03	3.363541E-18	2.983780E-19
5.510000E+03	3.378818E-18	3.023912E-19
5.520000E+03	3.393613E-18	3.064882E-19
5.530000E+03	3.407868E-18	3.106591E-19
5.540000E+03	3.421597E-18	3.148999E-19
5.550000E+03	3.434706E-18	3.191971E-19
5.560000E+03	3.447205E-18	3.235468E-19
5.570000E+03	3.459003E-18	3.279350E-19
5.580000E+03	3.470072E-18	3.323542E-19
5.590000E+03	3.480426E-18	3.368003E-19
5.600000E+03	3.489967E-18	3.412589E-19
5.610000E+03	3.498706E-18	3.457260E-19
5.620000E+03	3.506620E-18	3.501942E-19
5.630000E+03	3.513647E-18	3.546531E-19
5.640000E+03	3.519765E-18	3.590959E-19
5.650000E+03	3.524988E-18	3.635201E-19
5.660000E+03	3.529296E-18	3.679203E-19
5.670000E+03	3.532633E-18	3.722876E-19
5.680000E+03	3.535021E-18	3.766213E-19
5.690000E+03	3.536484E-18	3.809214E-19
5.700000E+03	3.536937E-18	3.851766E-19
5.710000E+03	3.536410E-18	3.893876E-19
5.720000E+03	3.534934E-18	3.935558E-19
5.730000E+03	3.532508E-18	3.976789E-19
5.740000E+03	3.529132E-18	4.017546E-19
5.750000E+03	3.524807E-18	4.057805E-19
5.760000E+03	3.519538E-18	4.097542E-19
5.770000E+03	3.513369E-18	4.136772E-19
5.780000E+03	3.506269E-18	4.175420E-19
5.790000E+03	3.498324E-18	4.213537E-19
5.800000E+03	3.489505E-18	4.251033E-19
5.810000E+03	3.479827E-18	4.287857E-19
5.820000E+03	3.469380E-18	4.324045E-19
5.830000E+03	3.458106E-18	4.359440E-19
5.840000E+03	3.446061E-18	4.394023E-19
5.850000E+03	3.433307E-18	4.427771E-19
5.860000E+03	3.419833E-18	4.460565E-19
5.870000E+03	3.405704E-18	4.492381E-19
5.880000E+03	3.390918E-18	4.523099E-19
5.890000E+03	3.375585E-18	4.552751E-19
5.900000E+03	3.359709E-18	4.581223E-19
5.910000E+03	3.343332E-18	4.608457E-19
5.920000E+03	3.326537E-18	4.634452E-19
5.930000E+03	3.309331E-18	4.659111E-19
5.940000E+03	3.291798E-18	4.682449E-19
5.950000E+03	3.273946E-18	4.704384E-19
5.960000E+03	3.255855E-18	4.724947E-19
5.970000E+03	3.237569E-18	4.744125E-19
5.980000E+03	3.219131E-18	4.761910E-19
5.990000E+03	3.200544E-18	4.778249E-19
6.000000E+03	3.181884E-18	4.793204E-19
6.010000E+03	3.163189E-18	4.806788E-19
6.020000E+03	3.144458E-18	4.818964E-19
6.030000E+03	3.125764E-18	4.829811E-19
6.040000E+03	3.107102E-18	4.839303E-19
6.050000E+03	3.088468E-18	4.847413E-19
6.060000E+03	3.069965E-18	4.854292E-19
6.070000E+03	3.051549E-18	4.859864E-19
6.080000E+03	3.033283E-18	4.864228E-19
6.090000E+03	3.015120E-18	4.867311E-19
6.100000E+03	2.997120E-18	4.869215E-19
6.110000E+03	2.979269E-18	4.869928E-19
6.120000E+03	2.961588E-18	4.869498E-19
6.130000E+03	2.944097E-18	4.867970E-19
6.140000E+03	2.926777E-18	4.865335E-19
6.150000E+03	2.909645E-18	4.861640E-19
6.160000E+03	2.892715E-18	4.856932E-19
6.170000E+03	2.876003E-18	4.851261E-19
6.180000E+03	2.859520E-18	4.844673E-19
6.190000E+03	2.843240E-18	4.837154E-19
6.200000E+03	2.827212E-18	4.828812E-19
6.210000E+03	2.811442E-18	4.819693E-19
6.220000E+03	2.795940E-18	4.809841E-19
6.230000E+03	2.780747E-18	4.799363E-19
6.240000E+03	2.765905E-18	4.788365E-19
6.250000E+03	2.751457E-18	4.776952E-19
6.260000E+03	2.737441E-18	4.765230E-19
6.270000E+03	2.723898E-18	4.753304E-19
6.280000E+03	2.710903E-18	4.741341E-19
6.290000E+03	2.698421E-18	4.729317E-19
6.300000E+03	2.686602E-18	4.717527E-19
6.310000E+03	2.675409E-18	4.705946E-19
6.320000E+03	2.664918E-18	4.694738E-19
6.330000E+03	2.655166E-18	4.684007E-19
6.340000E+03	2.646193E-18	4.673854E-19
6.350000E+03	2.637999E-18	4.664312E-19
6.360000E+03	2.630624E-18	4.655482E-19
6.370000E+03	2.624106E-18	4.647464E-19
6.380000E+03	2.618447E-18	4.640290E-19
6.390000E+03	2.613651E-18	4.633992E-19
6.400000E+03	2.609757E-18	4.628669E-19
6.410000E+03	2.606693E-18	4.624217E-19
6.420000E+03	2.604461E-18	4.620664E-19
6.430000E+03	2.603026E-18	4.617968E-19
6.440000E+03	2.602311E-18	4.616019E-19
6.450000E+03	2.602359E-18	4.614908E-19
6.460000E+03	2.603093E-18	4.614520E-19
6.470000E+03	2.604553E-18	4.614946E-19
6.480000E+03	2.606741E-18	4.616206E-19
6.490000E+03	2.609620E-18	4.618252E-19
6.500000E+03	2.613192E-18	4.621100E-19
6.510000E+03	2.617457E-18	4.624770E-19
6.520000E+03	2.622419E-18	4.629280E-19
6.530000E+03	2.628079E-18	4.634645E-19
6.540000E+03	2.634481E-18	4.640956E-19
6.550000E+03	2.641587E-18	4.648156E-19
6.560000E+03	2.649356E-18	4.656187E-19
6.570000E+03	2.657876E-18	4.665211E-19
6.580000E+03	2.667065E-18	4.675095E-19
6.590000E+03	2.676967E-18	4.685925E-19
6.600000E+03	2.687587E-18	4.697715E-19
6.610000E+03	2.698926E-18	4.710479E-19
6.620000E+03	2.710989E-18	4.724230E-19
6.630000E+03	2.723734E-18	4.738901E-19
6.640000E+03	2.737209E-18	4.754583E-19
6.650000E+03	2.751372E-18	4.771206E-19
6.660000E+03	2.766272E-18	4.788862E-19
6.670000E+03	2.781866E-18	4.807480E-19
6.680000E+03	2.798157E-18	4.827071E-19
6.690000E+03	2.815197E-18	4.847726E-19
6.700000E+03	2.832990E-18	4.869455E-19
6.710000E+03	2.851444E-18	4.892104E-19
6.720000E+03	2.870660E-18	4.915847E-19
6.730000E+03	2.890544E-18	4.940526E-19
6.740000E+03	2.911199E-18	4.966320E-19
6.750000E+03	2.932581E-18	4.993153E-19
6.760000E+03	2.954643E-18	5.020947E-19
6.770000E+03	2.977493E-18	5.049885E-19
6.780000E+03	3.001031E-18	5.079801E-19
6.790000E+03	3.025315E-18	5.110791E-19
6.800000E+03	3.050351E-18	5.142864E-19
6.810000E+03	3.076144E-18	5.176030E-19
6.820000E+03	3.102645E-18	5.210204E-19
6.830000E+03	3.129913E-18	5.245486E-19
6.840000E+03	3.157897E-18	5.281789E-19
6.850000E+03	3.186660E-18	5.319216E-19
6.860000E+03	3.216147E-18	5.357675E-19
6.870000E+03	3.246364E-18	5.397173E-19
6.880000E+03	3.277373E-18	5.437814E-19
6.890000E+03	3.309058E-18	5.479402E-19
6.900000E+03	3.341545E-18	5.522143E-19
6.910000E+03	3.374776E-18	5.565941E-19
6.920000E+03	3.408754E-18	5.610798E-19
6.930000E+03	3.443482E-18	5.656719E-19
6.940000E+03	3.478964E-18	5.703705E-19
6.950000E+03	3.515135E-18	5.751650E-19
6.960000E+03	3.552063E-18	5.800663E-19
6.970000E+03	3.589751E-18	5.850747E-19
6.980000E+03	3.628201E-18	5.901904E-19
6.990000E+03	3.667274E-18	5.953905E-19
7.000000E+03	3.707182E-18	6.007093E-19
7.010000E+03	3.747710E-18	6.061119E-19
7.020000E+03	3.789002E-18	6.116216E-19
7.030000E+03	3.830986E-18	6.172263E-19
7.040000E+03	3.873658E-18	6.229256E-19
7.050000E+03	3.917018E-18	6.287192E-19
7.060000E+03	3.961061E-18	6.346065E-19
7.070000E+03	4.005707E-18	6.405743E-19
7.080000E+03	4.051030E-18	6.466345E-19
7.090000E+03	4.097026E-18	6.527867E-19
7.100000E+03	4.143608E-18	6.590170E-19
7.110000E+03	4.190854E-18	6.653376E-19
7.120000E+03	4.238674E-18	6.717343E-19
7.130000E+03	4.287059E-18	6.782057E-19
7.140000E+03	4.336000E-18	6.847508E-19
7.150000E+03	4.385577E-18	6.913822E-19
7.160000E+03	4.435603E-18	6.980702E-19
7.170000E+03	4.486061E-18	7.048129E-19
7.180000E+03	4.537126E-18	7.116378E-19
7.190000E+03	4.588600E-18	7.185138E-19
7.200000E+03	4.640464E-18	7.254387E-19
7.210000E+03	4.692803E-18	7.324256E-19
7.220000E+03	4.745501E-18	7.394571E-19
7.230000E+03	4.798540E-18	7.465307E-19
7.240000E+03	4.851902E-18	7.536440E-19
7.250000E+03	4.905567E-18	7.607943E-19
7.260000E+03	4.959621E-18	7.679955E-19
7.270000E+03	5.013832E-18	7.752120E-19
7.280000E+03	5.068391E-18	7.824742E-19
7.290000E+03	5.123171E-18	7.897627E-19
7.300000E+03	5.178146E-18	7.970743E-19
7.310000E+03	5.233409E-18	8.044239E-19
7.320000E+03	5.288821E-18	8.117907E-19
7.330000E+03	5.344477E-18	8.191899E-19
7.340000E+03	5.400354E-18	8.266186E-19
7.350000E+03	5.456553E-18	8.340930E-19
7.360000E+03	5.513058E-18	8.416108E-19
7.370000E+03	5.569977E-18	8.491893E-19
7.380000E+03	5.627168E-18	8.568075E-19
7.390000E+03	5.685005E-18	8.645222E-19
7.400000E+03	5.743484E-18	8.723336E-19
7.410000E+03	5.802471E-18	8.802210E-19
7.420000E+03	5.862364E-18	8.882455E-19
7.430000E+03	5.923035E-18	8.963874E-19
7.440000E+03	5.984628E-18	9.046684E-19
7.450000E+03	6.047011E-18	9.130683E-19
7.460000E+03	6.110329E-18	9.216093E-19
7.470000E+03	6.174155E-18	9.302264E-19
7.480000E+03	6.238775E-18	9.389627E-19
7.490000E+03	6.303742E-18	9.477505E-19
7.500000E+03	6.369191E-18	9.566099E-19
7.510000E+03	6.434957E-18	9.655160E-19
7.520000E+03	6.500866E-18	9.744422E-19
7.530000E+03	6.567054E-18	9.834083E-19
7.540000E+03	6.633018E-18	9.923389E-19
7.550000E+03	6.699046E-18	1.001277E-18
7.560000E+03	6.764948E-18	1.010192E-18
7.570000E+03	6.830689E-18	1.019080E-18
7.580000E+03	6.896066E-18	1.027910E-18
7.590000E+03	6.961210E-18	1.036699E-18
7.600000E+03	7.025912E-18	1.045418E-18
7.610000E+03	7.090129E-18	1.054059E-18
7.620000E+03	7.153997E-18	1.062641E-18
7.630000E+03	7.217299E-18	1.071132E-18
7.640000E+03	7.280175E-18	1.079552E-18
7.650000E+03	7.342217E-18	1.087841E-18
7.660000E+03	7.403748E-18	1.096046E-18
7.670000E+03	7.464542E-18	1.104134E-18
7.680000E+03	7.524745E-18	1.112126E-18
7.690000E+03	7.584125E-18	1.119986E-18
7.700000E+03	7.642637E-18	1.127710E-18
7.710000E+03	7.700234E-18	1.135290E-18
7.720000E+03	7.757274E-18	1.142778E-18
7.730000E+03	7.813114E-18	1.150081E-18
7.740000E+03	7.868320E-18	1.157281E-18
7.750000E+03	7.922444E-18	1.164313E-18
7.760000E+03	7.975652E-18	1.171202E-18
