#wls	flux	fluxerr
1.600000E+03	1.694512E-16	1.644982E-16
1.640000E+03	1.744455E-16	1.665275E-16
1.680000E+03	1.791202E-16	1.680324E-16
1.720000E+03	1.834388E-16	1.689904E-16
1.760000E+03	1.872892E-16	1.693140E-16
1.800000E+03	1.906630E-16	1.690162E-16
1.840000E+03	1.934439E-16	1.680181E-16
1.880000E+03	1.956019E-16	1.663239E-16
1.920000E+03	1.970726E-16	1.639129E-16
1.960000E+03	1.977630E-16	1.607474E-16
2.000000E+03	1.976497E-16	1.568538E-16
2.040000E+03	1.966694E-16	1.522312E-16
2.080000E+03	1.947717E-16	1.468952E-16
2.120000E+03	1.919222E-16	1.408789E-16
2.160000E+03	1.880811E-16	1.342163E-16
2.200000E+03	1.831908E-16	1.269342E-16
2.240000E+03	1.772051E-16	1.190732E-16
2.280000E+03	1.701582E-16	1.107322E-16
2.320000E+03	1.621952E-16	1.020781E-16
2.360000E+03	1.535589E-16	9.332576E-17
2.400000E+03	1.444442E-16	8.464163E-17
2.440000E+03	1.350272E-16	7.616461E-17
2.480000E+03	1.254369E-16	6.799228E-17
2.520000E+03	1.158068E-16	6.021263E-17
2.560000E+03	1.062454E-16	5.288850E-17
2.600000E+03	9.686292E-17	4.607294E-17
2.640000E+03	8.774771E-17	3.979819E-17
2.680000E+03	7.898097E-17	3.408433E-17
2.720000E+03	7.063431E-17	2.893916E-17
2.760000E+03	6.276191E-17	2.435630E-17
2.800000E+03	5.540898E-17	2.032033E-17
2.840000E+03	4.860818E-17	1.680676E-17
2.880000E+03	4.238306E-17	1.378475E-17
2.920000E+03	3.674705E-17	1.121805E-17
2.960000E+03	3.170083E-17	9.065616E-18
3.000000E+03	2.723325E-17	7.283507E-18
3.010000E+03	2.620419E-17	6.890495E-18
3.020000E+03	2.520887E-17	6.516929E-18
3.030000E+03	2.424772E-17	6.162344E-18
3.040000E+03	2.331890E-17	5.825708E-18
3.050000E+03	2.242275E-17	5.506553E-18
3.060000E+03	2.155846E-17	5.204139E-18
3.070000E+03	2.072568E-17	4.917853E-18
3.080000E+03	1.992272E-17	4.646781E-18
3.090000E+03	1.915004E-17	4.390538E-18
3.100000E+03	1.840602E-17	4.148260E-18
3.110000E+03	1.769060E-17	3.919471E-18
3.120000E+03	1.700292E-17	3.703524E-18
3.130000E+03	1.634184E-17	3.499727E-18
3.140000E+03	1.570717E-17	3.307621E-18
3.150000E+03	1.509779E-17	3.126556E-18
3.160000E+03	1.451318E-17	2.956033E-18
3.170000E+03	1.395253E-17	2.795506E-18
3.180000E+03	1.341506E-17	2.644454E-18
3.190000E+03	1.290021E-17	2.502420E-18
3.200000E+03	1.240722E-17	2.368916E-18
3.210000E+03	1.193510E-17	2.243437E-18
3.220000E+03	1.148354E-17	2.125618E-18
3.230000E+03	1.105160E-17	2.014991E-18
3.240000E+03	1.063875E-17	1.911182E-18
3.250000E+03	1.024429E-17	1.813799E-18
3.260000E+03	9.867365E-18	1.722438E-18
3.270000E+03	9.507629E-18	1.636802E-18
3.280000E+03	9.164124E-18	1.556498E-18
3.290000E+03	8.836510E-18	1.481255E-18
3.300000E+03	8.524152E-18	1.410765E-18
3.310000E+03	8.226187E-18	1.344694E-18
3.320000E+03	7.942291E-18	1.282811E-18
3.330000E+03	7.671884E-18	1.224853E-18
3.340000E+03	7.414300E-18	1.170558E-18
3.350000E+03	7.169013E-18	1.119694E-18
3.360000E+03	6.935514E-18	1.072046E-18
3.370000E+03	6.713310E-18	1.027407E-18
3.380000E+03	6.501924E-18	9.855868E-19
3.390000E+03	6.300897E-18	9.464043E-19
3.400000E+03	6.109706E-18	9.096781E-19
3.410000E+03	5.927859E-18	8.752402E-19
3.420000E+03	5.755109E-18	8.429666E-19
3.430000E+03	5.590850E-18	8.126875E-19
3.440000E+03	5.434797E-18	7.842867E-19
3.450000E+03	5.286535E-18	7.576360E-19
3.460000E+03	5.145735E-18	7.326255E-19
3.470000E+03	5.011966E-18	7.091358E-19
3.480000E+03	4.884881E-18	6.870655E-19
3.490000E+03	4.764210E-18	6.663281E-19
3.500000E+03	4.649587E-18	6.468285E-19
3.510000E+03	4.540772E-18	6.284931E-19
3.520000E+03	4.437343E-18	6.112267E-19
3.530000E+03	4.339097E-18	5.949684E-19
3.540000E+03	4.245706E-18	5.796426E-19
3.550000E+03	4.156911E-18	5.651864E-19
3.560000E+03	4.072467E-18	5.515416E-19
3.570000E+03	3.992065E-18	5.386436E-19
3.580000E+03	3.915579E-18	5.264546E-19
3.590000E+03	3.842770E-18	5.149237E-19
3.600000E+03	3.773415E-18	5.040040E-19
3.610000E+03	3.707417E-18	4.936666E-19
3.620000E+03	3.644537E-18	4.838657E-19
3.630000E+03	3.584623E-18	4.745681E-19
3.640000E+03	3.527531E-18	4.657428E-19
3.650000E+03	3.473123E-18	4.573610E-19
3.660000E+03	3.421270E-18	4.493958E-19
3.670000E+03	3.371847E-18	4.418217E-19
3.680000E+03	3.324766E-18	4.346191E-19
3.690000E+03	3.279941E-18	4.277692E-19
3.700000E+03	3.237260E-18	4.212505E-19
3.710000E+03	3.196728E-18	4.150573E-19
3.720000E+03	3.158206E-18	4.091661E-19
3.730000E+03	3.121672E-18	4.035685E-19
3.740000E+03	3.087047E-18	3.982498E-19
3.750000E+03	3.054282E-18	3.931990E-19
3.760000E+03	3.023377E-18	3.884125E-19
3.770000E+03	2.994205E-18	3.838702E-19
3.780000E+03	2.966768E-18	3.795692E-19
3.790000E+03	2.941040E-18	3.755032E-19
3.800000E+03	2.916923E-18	3.716571E-19
3.810000E+03	2.894417E-18	3.680287E-19
3.820000E+03	2.873497E-18	3.646125E-19
3.830000E+03	2.854093E-18	3.613977E-19
3.840000E+03	2.836156E-18	3.583766E-19
3.850000E+03	2.819710E-18	3.555507E-19
3.860000E+03	2.804663E-18	3.529070E-19
3.870000E+03	2.791015E-18	3.504444E-19
3.880000E+03	2.778721E-18	3.481562E-19
3.890000E+03	2.767760E-18	3.460388E-19
3.900000E+03	2.758110E-18	3.440887E-19
3.910000E+03	2.749707E-18	3.422971E-19
3.920000E+03	2.742532E-18	3.406609E-19
3.930000E+03	2.736587E-18	3.391798E-19
3.940000E+03	2.731833E-18	3.378482E-19
3.950000E+03	2.728229E-18	3.366607E-19
3.960000E+03	2.725759E-18	3.356146E-19
3.970000E+03	2.724386E-18	3.347047E-19
3.980000E+03	2.724094E-18	3.339286E-19
3.990000E+03	2.724868E-18	3.332837E-19
4.000000E+03	2.726695E-18	3.327678E-19
4.010000E+03	2.729518E-18	3.323734E-19
4.020000E+03	2.733325E-18	3.320982E-19
4.030000E+03	2.738104E-18	3.319400E-19
4.040000E+03	2.743844E-18	3.318968E-19
4.050000E+03	2.750514E-18	3.319637E-19
4.060000E+03	2.758083E-18	3.321361E-19
4.070000E+03	2.766541E-18	3.324120E-19
4.080000E+03	2.775860E-18	3.327867E-19
4.090000E+03	2.786030E-18	3.332582E-19
4.100000E+03	2.797024E-18	3.338218E-19
4.110000E+03	2.808836E-18	3.344757E-19
4.120000E+03	2.821437E-18	3.352153E-19
4.130000E+03	2.834801E-18	3.360359E-19
4.140000E+03	2.848922E-18	3.369357E-19
4.150000E+03	2.863775E-18	3.379101E-19
4.160000E+03	2.879355E-18	3.389572E-19
4.170000E+03	2.895615E-18	3.400698E-19
4.180000E+03	2.912552E-18	3.412463E-19
4.190000E+03	2.930117E-18	3.424793E-19
4.200000E+03	2.948332E-18	3.437699E-19
4.210000E+03	2.967148E-18	3.451110E-19
4.220000E+03	2.986565E-18	3.465009E-19
4.230000E+03	3.006510E-18	3.479300E-19
4.240000E+03	3.027007E-18	3.493994E-19
4.250000E+03	3.047983E-18	3.508994E-19
4.260000E+03	3.069460E-18	3.524314E-19
4.270000E+03	3.091366E-18	3.539857E-19
4.280000E+03	3.113652E-18	3.555555E-19
4.290000E+03	3.136339E-18	3.571423E-19
4.300000E+03	3.159328E-18	3.587338E-19
4.310000E+03	3.182641E-18	3.603314E-19
4.320000E+03	3.206177E-18	3.619228E-19
4.330000E+03	3.229957E-18	3.635097E-19
4.340000E+03	3.253928E-18	3.650853E-19
4.350000E+03	3.278035E-18	3.666429E-19
4.360000E+03	3.302275E-18	3.681814E-19
4.370000E+03	3.326618E-18	3.696971E-19
4.380000E+03	3.351087E-18	3.711921E-19
4.390000E+03	3.375628E-18	3.726597E-19
4.400000E+03	3.400291E-18	3.741056E-19
4.410000E+03	3.425078E-18	3.755293E-19
4.420000E+03	3.449989E-18	3.769306E-19
4.430000E+03	3.475025E-18	3.783097E-19
4.440000E+03	3.500219E-18	3.796699E-19
4.450000E+03	3.525544E-18	3.810086E-19
4.460000E+03	3.551035E-18	3.823297E-19
4.470000E+03	3.576698E-18	3.836343E-19
4.480000E+03	3.602539E-18	3.849236E-19
4.490000E+03	3.628537E-18	3.861963E-19
4.500000E+03	3.654699E-18	3.874540E-19
4.510000E+03	3.681004E-18	3.886959E-19
4.520000E+03	3.707491E-18	3.899275E-19
4.530000E+03	3.734110E-18	3.911452E-19
4.540000E+03	3.760870E-18	3.923519E-19
4.550000E+03	3.787784E-18	3.935509E-19
4.560000E+03	3.814799E-18	3.947389E-19
4.570000E+03	3.841961E-18	3.959229E-19
4.580000E+03	3.869219E-18	3.971000E-19
4.590000E+03	3.896588E-18	3.982738E-19
4.600000E+03	3.924016E-18	3.994416E-19
4.610000E+03	3.951554E-18	4.006104E-19
4.620000E+03	3.979186E-18	4.017807E-19
4.630000E+03	4.006862E-18	4.029491E-19
4.640000E+03	4.034603E-18	4.041193E-19
4.650000E+03	4.062430E-18	4.052947E-19
4.660000E+03	4.090332E-18	4.064749E-19
4.670000E+03	4.118262E-18	4.076559E-19
4.680000E+03	4.146318E-18	4.088477E-19
4.690000E+03	4.174532E-18	4.100532E-19
4.700000E+03	4.202860E-18	4.112678E-19
4.710000E+03	4.231335E-18	4.124941E-19
4.720000E+03	4.259993E-18	4.137346E-19
4.730000E+03	4.288755E-18	4.149806E-19
4.740000E+03	4.317657E-18	4.162346E-19
4.750000E+03	4.346661E-18	4.174916E-19
4.760000E+03	4.375805E-18	4.187543E-19
4.770000E+03	4.405090E-18	4.200216E-19
4.780000E+03	4.434479E-18	4.212890E-19
4.790000E+03	4.464013E-18	4.225597E-19
4.800000E+03	4.493654E-18	4.238297E-19
4.810000E+03	4.523448E-18	4.251027E-19
4.820000E+03	4.553356E-18	4.263754E-19
4.830000E+03	4.583383E-18	4.276483E-19
4.840000E+03	4.613533E-18	4.289223E-19
4.850000E+03	4.643852E-18	4.302029E-19
4.860000E+03	4.674304E-18	4.314876E-19
4.870000E+03	4.704892E-18	4.327782E-19
4.880000E+03	4.735576E-18	4.340726E-19
4.890000E+03	4.766449E-18	4.353809E-19
4.900000E+03	4.797471E-18	4.367014E-19
4.910000E+03	4.828645E-18	4.380361E-19
4.920000E+03	4.859929E-18	4.393830E-19
4.930000E+03	4.891371E-18	4.407480E-19
4.940000E+03	4.922925E-18	4.421288E-19
4.950000E+03	4.954592E-18	4.435267E-19
4.960000E+03	4.986419E-18	4.449471E-19
4.970000E+03	5.018359E-18	4.463866E-19
4.980000E+03	5.050410E-18	4.478458E-19
4.990000E+03	5.082521E-18	4.493205E-19
5.000000E+03	5.114737E-18	4.508150E-19
5.010000E+03	5.147053E-18	4.523287E-19
5.020000E+03	5.179416E-18	4.538569E-19
5.030000E+03	5.211820E-18	4.553984E-19
5.040000E+03	5.244256E-18	4.569525E-19
5.050000E+03	5.276667E-18	4.585136E-19
5.060000E+03	5.309093E-18	4.600850E-19
5.070000E+03	5.341527E-18	4.616658E-19
5.080000E+03	5.373853E-18	4.632461E-19
5.090000E+03	5.406113E-18	4.648298E-19
5.100000E+03	5.438293E-18	4.664165E-19
5.110000E+03	5.470327E-18	4.680016E-19
5.120000E+03	5.502201E-18	4.695856E-19
5.130000E+03	5.533900E-18	4.711693E-19
5.140000E+03	5.565405E-18	4.727542E-19
5.150000E+03	5.596646E-18	4.743377E-19
5.160000E+03	5.627656E-18	4.759270E-19
5.170000E+03	5.658306E-18	4.775161E-19
5.180000E+03	5.688626E-18	4.791137E-19
5.190000E+03	5.718536E-18	4.807195E-19
5.200000E+03	5.748008E-18	4.823388E-19
5.210000E+03	5.777015E-18	4.839774E-19
5.220000E+03	5.805524E-18	4.856415E-19
5.230000E+03	5.833389E-18	4.873285E-19
5.240000E+03	5.860687E-18	4.890549E-19
5.250000E+03	5.887327E-18	4.908236E-19
5.260000E+03	5.913269E-18	4.926421E-19
5.270000E+03	5.938415E-18	4.945134E-19
5.280000E+03	5.962725E-18	4.964453E-19
5.290000E+03	5.986158E-18	4.984455E-19
5.300000E+03	6.008673E-18	5.005215E-19
5.310000E+03	6.030229E-18	5.026807E-19
5.320000E+03	6.050727E-18	5.049251E-19
5.330000E+03	6.070248E-18	5.072713E-19
5.340000E+03	6.088635E-18	5.097155E-19
5.350000E+03	6.105854E-18	5.122632E-19
5.360000E+03	6.121993E-18	5.149298E-19
5.370000E+03	6.136901E-18	5.177093E-19
5.380000E+03	6.150675E-18	5.206157E-19
5.390000E+03	6.163230E-18	5.236468E-19
5.400000E+03	6.174609E-18	5.268101E-19
5.410000E+03	6.184735E-18	5.301016E-19
5.420000E+03	6.193720E-18	5.335322E-19
5.430000E+03	6.201494E-18	5.370965E-19
5.440000E+03	6.208115E-18	5.407984E-19
5.450000E+03	6.213459E-18	5.446251E-19
5.460000E+03	6.217592E-18	5.485788E-19
5.470000E+03	6.220458E-18	5.526501E-19
5.480000E+03	6.222007E-18	5.568285E-19
5.490000E+03	6.222315E-18	5.611137E-19
5.500000E+03	6.221274E-18	5.654882E-19
5.510000E+03	6.218842E-18	5.699389E-19
5.520000E+03	6.215042E-18	5.744576E-19
5.530000E+03	6.209777E-18	5.790245E-19
5.540000E+03	6.203136E-18	5.836360E-19
5.550000E+03	6.194963E-18	5.882652E-19
5.560000E+03	6.185417E-18	5.929142E-19
5.570000E+03	6.174470E-18	5.975674E-19
5.580000E+03	6.162096E-18	6.022088E-19
5.590000E+03	6.148333E-18	6.068290E-19
5.600000E+03	6.133219E-18	6.114184E-19
5.610000E+03	6.116732E-18	6.159618E-19
5.620000E+03	6.099038E-18	6.204632E-19
5.630000E+03	6.080051E-18	6.249018E-19
5.640000E+03	6.059938E-18	6.292830E-19
5.650000E+03	6.038616E-18	6.335871E-19
5.660000E+03	6.016251E-18	6.378209E-19
5.670000E+03	5.992883E-18	6.419789E-19
5.680000E+03	5.968494E-18	6.460498E-19
5.690000E+03	5.943185E-18	6.500358E-19
5.700000E+03	5.917000E-18	6.539333E-19
5.710000E+03	5.890041E-18	6.577461E-19
5.720000E+03	5.862350E-18	6.614713E-19
5.730000E+03	5.833910E-18	6.650999E-19
5.740000E+03	5.804885E-18	6.686434E-19
5.750000E+03	5.775318E-18	6.721004E-19
5.760000E+03	5.745192E-18	6.754618E-19
5.770000E+03	5.714613E-18	6.787331E-19
5.780000E+03	5.683686E-18	6.819200E-19
5.790000E+03	5.652457E-18	6.850207E-19
5.800000E+03	5.620912E-18	6.880264E-19
5.810000E+03	5.589159E-18	6.909424E-19
5.820000E+03	5.557305E-18	6.937744E-19
5.830000E+03	5.525397E-18	6.965207E-19
5.840000E+03	5.493426E-18	6.991717E-19
5.850000E+03	5.461499E-18	7.017331E-19
5.860000E+03	5.429666E-18	7.042031E-19
5.870000E+03	5.398034E-18	7.065876E-19
5.880000E+03	5.366652E-18	7.088850E-19
5.890000E+03	5.335509E-18	7.110862E-19
5.900000E+03	5.304712E-18	7.131977E-19
5.910000E+03	5.274248E-18	7.152106E-19
5.920000E+03	5.244339E-18	7.171481E-19
5.930000E+03	5.214852E-18	7.189859E-19
5.940000E+03	5.185889E-18	7.207320E-19
5.950000E+03	5.157548E-18	7.223948E-19
5.960000E+03	5.129811E-18	7.239669E-19
5.970000E+03	5.102713E-18	7.254491E-19
5.980000E+03	5.076349E-18	7.268511E-19
5.990000E+03	5.050692E-18	7.281663E-19
6.000000E+03	5.025832E-18	7.294049E-19
6.010000E+03	5.001680E-18	7.305526E-19
6.020000E+03	4.978379E-18	7.316284E-19
6.030000E+03	4.955838E-18	7.326183E-19
6.040000E+03	4.934194E-18	7.335423E-19
6.050000E+03	4.913293E-18	7.343775E-19
6.060000E+03	4.893270E-18	7.351444E-19
6.070000E+03	4.874083E-18	7.358378E-19
6.080000E+03	4.855745E-18	7.364609E-19
6.090000E+03	4.838153E-18	7.369995E-19
6.100000E+03	4.821434E-18	7.374747E-19
6.110000E+03	4.805421E-18	7.378633E-19
6.120000E+03	4.790238E-18	7.381863E-19
6.130000E+03	4.775714E-18	7.384202E-19
6.140000E+03	4.761853E-18	7.385679E-19
6.150000E+03	4.748596E-18	7.386231E-19
6.160000E+03	4.735943E-18	7.385888E-19
6.170000E+03	4.723713E-18	7.384398E-19
6.180000E+03	4.711902E-18	7.381783E-19
6.190000E+03	4.700442E-18	7.377971E-19
6.200000E+03	4.689323E-18	7.372978E-19
6.210000E+03	4.678533E-18	7.366821E-19
6.220000E+03	4.668178E-18	7.359701E-19
6.230000E+03	4.658425E-18	7.351921E-19
6.240000E+03	4.649320E-18	7.343594E-19
6.250000E+03	4.640973E-18	7.334929E-19
6.260000E+03	4.633492E-18	7.326140E-19
6.270000E+03	4.626927E-18	7.317345E-19
6.280000E+03	4.621391E-18	7.308761E-19
6.290000E+03	4.616937E-18	7.300509E-19
6.300000E+03	4.613617E-18	7.292711E-19
6.310000E+03	4.611551E-18	7.285589E-19
6.320000E+03	4.610734E-18	7.279171E-19
6.330000E+03	4.611289E-18	7.273682E-19
6.340000E+03	4.613149E-18	7.269050E-19
6.350000E+03	4.616378E-18	7.265400E-19
6.360000E+03	4.620975E-18	7.262761E-19
6.370000E+03	4.627006E-18	7.261260E-19
6.380000E+03	4.634408E-18	7.260822E-19
6.390000E+03	4.643182E-18	7.261471E-19
6.400000E+03	4.653265E-18	7.263126E-19
6.410000E+03	4.664522E-18	7.265598E-19
6.420000E+03	4.676883E-18	7.268799E-19
6.430000E+03	4.690347E-18	7.272742E-19
6.440000E+03	4.704910E-18	7.277441E-19
6.450000E+03	4.720570E-18	7.282910E-19
6.460000E+03	4.737397E-18	7.289268E-19
6.470000E+03	4.755462E-18	7.296641E-19
6.480000E+03	4.774769E-18	7.305044E-19
6.490000E+03	4.795248E-18	7.314381E-19
6.500000E+03	4.817049E-18	7.324889E-19
6.510000E+03	4.840178E-18	7.336585E-19
6.520000E+03	4.864569E-18	7.349373E-19
6.530000E+03	4.890303E-18	7.363381E-19
6.540000E+03	4.917390E-18	7.378627E-19
6.550000E+03	4.945761E-18	7.395010E-19
6.560000E+03	4.975424E-18	7.412543E-19
6.570000E+03	5.006547E-18	7.431477E-19
6.580000E+03	5.038903E-18	7.451472E-19
6.590000E+03	5.072661E-18	7.472781E-19
6.600000E+03	5.107834E-18	7.495417E-19
6.610000E+03	5.144270E-18	7.519152E-19
6.620000E+03	5.182144E-18	7.544244E-19
6.630000E+03	5.221302E-18	7.570457E-19
6.640000E+03	5.261925E-18	7.598054E-19
6.650000E+03	5.303854E-18	7.626795E-19
6.660000E+03	5.347188E-18	7.656818E-19
6.670000E+03	5.391942E-18	7.688136E-19
6.680000E+03	5.438038E-18	7.720629E-19
6.690000E+03	5.485488E-18	7.754306E-19
6.700000E+03	5.534399E-18	7.789310E-19
6.710000E+03	5.584690E-18	7.825517E-19
6.720000E+03	5.636376E-18	7.862937E-19
6.730000E+03	5.689470E-18	7.901578E-19
6.740000E+03	5.743985E-18	7.941448E-19
6.750000E+03	5.799937E-18	7.982556E-19
6.760000E+03	5.857340E-18	8.024909E-19
6.770000E+03	5.916106E-18	8.068373E-19
6.780000E+03	5.976352E-18	8.113097E-19
6.790000E+03	6.038094E-18	8.159089E-19
6.800000E+03	6.101241E-18	8.206209E-19
6.810000E+03	6.165915E-18	8.254609E-19
6.820000E+03	6.232023E-18	8.304148E-19
6.830000E+03	6.299576E-18	8.354829E-19
6.840000E+03	6.368589E-18	8.406656E-19
6.850000E+03	6.439075E-18	8.459631E-19
6.860000E+03	6.511168E-18	8.513914E-19
6.870000E+03	6.584644E-18	8.569197E-19
6.880000E+03	6.659636E-18	8.625638E-19
6.890000E+03	6.736158E-18	8.683240E-19
6.900000E+03	6.814098E-18	8.741842E-19
6.910000E+03	6.893593E-18	8.801608E-19
6.920000E+03	6.974659E-18	8.862540E-19
6.930000E+03	7.057177E-18	8.924473E-19
6.940000E+03	7.141155E-18	8.987404E-19
6.950000E+03	7.226740E-18	9.051503E-19
6.960000E+03	7.313806E-18	9.116597E-19
6.970000E+03	7.402363E-18	9.182686E-19
6.980000E+03	7.492417E-18	9.249764E-19
6.990000E+03	7.583976E-18	9.317830E-19
7.000000E+03	7.676899E-18	9.386696E-19
7.010000E+03	7.771488E-18	9.456722E-19
7.020000E+03	7.867449E-18	9.527536E-19
7.030000E+03	7.964937E-18	9.599318E-19
7.040000E+03	8.063800E-18	9.671871E-19
7.050000E+03	8.164035E-18	9.745183E-19
7.060000E+03	8.265803E-18	9.819439E-19
7.070000E+03	8.368942E-18	9.894434E-19
7.080000E+03	8.473278E-18	9.969958E-19
7.090000E+03	8.579143E-18	1.004639E-18
7.100000E+03	8.686364E-18	1.012353E-18
7.110000E+03	8.794757E-18	1.020114E-18
7.120000E+03	8.904486E-18	1.027943E-18
7.130000E+03	9.015361E-18	1.035816E-18
7.140000E+03	9.127551E-18	1.043752E-18
7.150000E+03	9.240855E-18	1.051730E-18
7.160000E+03	9.355447E-18	1.059768E-18
7.170000E+03	9.470923E-18	1.067821E-18
7.180000E+03	9.587450E-18	1.075909E-18
7.190000E+03	9.705208E-18	1.084052E-18
7.200000E+03	9.823771E-18	1.092205E-18
7.210000E+03	9.943101E-18	1.100366E-18
7.220000E+03	1.006338E-17	1.108554E-18
7.230000E+03	1.018456E-17	1.116770E-18
7.240000E+03	1.030642E-17	1.124990E-18
7.250000E+03	1.042912E-17	1.133235E-18
7.260000E+03	1.055240E-17	1.141483E-18
7.270000E+03	1.067622E-17	1.149731E-18
7.280000E+03	1.080077E-17	1.158007E-18
7.290000E+03	1.092577E-17	1.166285E-18
7.300000E+03	1.105142E-17	1.174593E-18
7.310000E+03	1.117742E-17	1.182907E-18
7.320000E+03	1.130372E-17	1.191229E-18
7.330000E+03	1.143078E-17	1.199615E-18
7.340000E+03	1.155805E-17	1.208016E-18
7.350000E+03	1.168600E-17	1.216491E-18
7.360000E+03	1.181432E-17	1.225019E-18
7.370000E+03	1.194326E-17	1.233632E-18
7.380000E+03	1.207303E-17	1.242367E-18
7.390000E+03	1.220336E-17	1.251203E-18
7.400000E+03	1.233477E-17	1.260206E-18
7.410000E+03	1.246726E-17	1.269385E-18
7.420000E+03	1.260111E-17	1.278780E-18
7.430000E+03	1.273633E-17	1.288401E-18
7.440000E+03	1.287295E-17	1.298259E-18
7.450000E+03	1.301128E-17	1.308393E-18
7.460000E+03	1.315073E-17	1.318751E-18
7.470000E+03	1.329132E-17	1.329340E-18
7.480000E+03	1.343274E-17	1.340134E-18
7.490000E+03	1.357531E-17	1.351166E-18
7.500000E+03	1.371871E-17	1.362404E-18
7.510000E+03	1.386261E-17	1.373813E-18
7.520000E+03	1.400701E-17	1.385387E-18
7.530000E+03	1.415189E-17	1.397118E-18
7.540000E+03	1.429690E-17	1.408960E-18
7.550000E+03	1.444235E-17	1.420933E-18
7.560000E+03	1.458753E-17	1.432953E-18
7.570000E+03	1.473311E-17	1.445070E-18
7.580000E+03	1.487870E-17	1.457232E-18
7.590000E+03	1.502427E-17	1.469419E-18
7.600000E+03	1.516942E-17	1.481574E-18
7.610000E+03	1.531444E-17	1.493713E-18
7.620000E+03	1.545930E-17	1.505817E-18
7.630000E+03	1.560393E-17	1.517867E-18
7.640000E+03	1.574787E-17	1.529806E-18
7.650000E+03	1.589145E-17	1.541656E-18
7.660000E+03	1.603417E-17	1.553361E-18
7.670000E+03	1.617676E-17	1.564986E-18
7.680000E+03	1.631788E-17	1.576399E-18
7.690000E+03	1.645867E-17	1.587706E-18
7.700000E+03	1.659861E-17	1.598858E-18
7.710000E+03	1.673715E-17	1.609804E-18
7.720000E+03	1.687459E-17	1.620575E-18
7.730000E+03	1.701079E-17	1.631164E-18
7.740000E+03	1.714563E-17	1.641562E-18
7.750000E+03	1.727897E-17	1.651762E-18
7.760000E+03	1.741110E-17	1.661801E-18
