#wls	flux	fluxerr
1.600000E+03	1.873772E-16	1.809697E-16
1.640000E+03	1.971117E-16	1.871056E-16
1.680000E+03	2.070164E-16	1.929967E-16
1.720000E+03	2.169967E-16	1.985363E-16
1.760000E+03	2.270263E-16	2.036850E-16
1.800000E+03	2.369825E-16	2.083208E-16
1.840000E+03	2.467690E-16	2.123538E-16
1.880000E+03	2.563177E-16	2.157254E-16
1.920000E+03	2.654609E-16	2.183014E-16
1.960000E+03	2.740813E-16	2.200020E-16
2.000000E+03	2.820075E-16	2.207161E-16
2.040000E+03	2.891007E-16	2.203733E-16
2.080000E+03	2.951354E-16	2.188526E-16
2.120000E+03	2.999103E-16	2.160720E-16
2.160000E+03	3.032157E-16	2.119638E-16
2.200000E+03	3.047723E-16	2.064346E-16
2.240000E+03	3.043285E-16	1.994377E-16
2.280000E+03	3.017590E-16	1.910323E-16
2.320000E+03	2.970564E-16	1.813649E-16
2.360000E+03	2.904194E-16	1.707076E-16
2.400000E+03	2.820233E-16	1.593038E-16
2.440000E+03	2.720396E-16	1.473816E-16
2.480000E+03	2.606750E-16	1.351723E-16
2.520000E+03	2.480755E-16	1.228589E-16
2.560000E+03	2.344321E-16	1.106314E-16
2.600000E+03	2.199340E-16	9.866045E-17
2.640000E+03	2.047976E-16	8.710877E-17
2.680000E+03	1.892306E-16	7.611301E-17
2.720000E+03	1.734561E-16	6.579338E-17
2.760000E+03	1.576987E-16	5.624677E-17
2.800000E+03	1.421789E-16	4.754473E-17
2.840000E+03	1.271101E-16	3.973307E-17
2.880000E+03	1.126943E-16	3.283217E-17
2.920000E+03	9.910821E-17	2.683541E-17
2.960000E+03	8.649815E-17	2.171159E-17
3.000000E+03	7.496859E-17	1.740702E-17
3.010000E+03	7.226493E-17	1.645127E-17
3.020000E+03	6.963152E-17	1.554067E-17
3.030000E+03	6.707155E-17	1.467458E-17
3.040000E+03	6.458330E-17	1.385124E-17
3.050000E+03	6.216794E-17	1.306955E-17
3.060000E+03	5.982628E-17	1.232834E-17
3.070000E+03	5.755516E-17	1.162561E-17
3.080000E+03	5.535760E-17	1.096066E-17
3.090000E+03	5.323039E-17	1.033154E-17
3.100000E+03	5.117483E-17	9.737242E-18
3.110000E+03	4.918881E-17	9.176104E-18
3.120000E+03	4.727130E-17	8.646712E-18
3.130000E+03	4.542301E-17	8.147999E-18
3.140000E+03	4.364111E-17	7.678256E-18
3.150000E+03	4.192703E-17	7.236571E-18
3.160000E+03	4.027712E-17	6.821183E-18
3.170000E+03	3.869243E-17	6.431180E-18
3.180000E+03	3.717013E-17	6.065032E-18
3.190000E+03	3.571016E-17	5.721722E-18
3.200000E+03	3.431032E-17	5.399930E-18
3.210000E+03	3.296968E-17	5.098583E-18
3.220000E+03	3.168660E-17	4.816543E-18
3.230000E+03	3.045957E-17	4.552719E-18
3.240000E+03	2.928655E-17	4.305990E-18
3.250000E+03	2.816698E-17	4.075502E-18
3.260000E+03	2.709873E-17	3.860214E-18
3.270000E+03	2.608061E-17	3.659269E-18
3.280000E+03	2.511054E-17	3.471725E-18
3.290000E+03	2.418685E-17	3.296740E-18
3.300000E+03	2.330822E-17	3.133564E-18
3.310000E+03	2.247263E-17	2.981386E-18
3.320000E+03	2.167873E-17	2.839530E-18
3.330000E+03	2.092487E-17	2.707309E-18
3.340000E+03	2.020884E-17	2.584007E-18
3.350000E+03	1.952966E-17	2.469097E-18
3.360000E+03	1.888551E-17	2.361977E-18
3.370000E+03	1.827493E-17	2.262119E-18
3.380000E+03	1.769646E-17	2.169027E-18
3.390000E+03	1.714825E-17	2.082183E-18
3.400000E+03	1.662946E-17	2.001219E-18
3.410000E+03	1.613855E-17	1.925703E-18
3.420000E+03	1.567408E-17	1.855238E-18
3.430000E+03	1.523488E-17	1.789481E-18
3.440000E+03	1.481982E-17	1.728109E-18
3.450000E+03	1.442745E-17	1.670782E-18
3.460000E+03	1.405694E-17	1.617251E-18
3.470000E+03	1.370698E-17	1.567222E-18
3.480000E+03	1.337669E-17	1.520463E-18
3.490000E+03	1.306505E-17	1.476746E-18
3.500000E+03	1.277113E-17	1.435856E-18
3.510000E+03	1.249403E-17	1.397599E-18
3.520000E+03	1.223294E-17	1.361797E-18
3.530000E+03	1.198693E-17	1.328268E-18
3.540000E+03	1.175517E-17	1.296849E-18
3.550000E+03	1.153699E-17	1.267405E-18
3.560000E+03	1.133163E-17	1.239795E-18
3.570000E+03	1.113853E-17	1.213904E-18
3.580000E+03	1.095689E-17	1.189602E-18
3.590000E+03	1.078622E-17	1.166793E-18
3.600000E+03	1.062592E-17	1.145375E-18
3.610000E+03	1.047565E-17	1.125279E-18
3.620000E+03	1.033479E-17	1.106406E-18
3.630000E+03	1.020294E-17	1.088686E-18
3.640000E+03	1.007943E-17	1.072024E-18
3.650000E+03	9.963921E-18	1.056360E-18
3.660000E+03	9.856011E-18	1.041630E-18
3.670000E+03	9.755309E-18	1.027777E-18
3.680000E+03	9.661533E-18	1.014752E-18
3.690000E+03	9.574414E-18	1.002511E-18
3.700000E+03	9.493609E-18	9.910054E-19
3.710000E+03	9.418952E-18	9.802028E-19
3.720000E+03	9.350115E-18	9.700566E-19
3.730000E+03	9.287032E-18	9.605487E-19
3.740000E+03	9.229460E-18	9.516422E-19
3.750000E+03	9.177169E-18	9.433024E-19
3.760000E+03	9.130013E-18	9.355054E-19
3.770000E+03	9.087923E-18	9.282343E-19
3.780000E+03	9.050676E-18	9.214577E-19
3.790000E+03	9.018211E-18	9.151622E-19
3.800000E+03	8.990315E-18	9.093171E-19
3.810000E+03	8.966857E-18	9.039011E-19
3.820000E+03	8.947786E-18	8.989025E-19
3.830000E+03	8.933054E-18	8.943073E-19
3.840000E+03	8.922466E-18	8.900883E-19
3.850000E+03	8.916054E-18	8.862417E-19
3.860000E+03	8.913555E-18	8.827326E-19
3.870000E+03	8.915075E-18	8.795639E-19
3.880000E+03	8.920357E-18	8.767032E-19
3.890000E+03	8.929502E-18	8.741515E-19
3.900000E+03	8.942321E-18	8.718819E-19
3.910000E+03	8.958773E-18	8.698830E-19
3.920000E+03	8.978739E-18	8.681338E-19
3.930000E+03	9.002174E-18	8.666211E-19
3.940000E+03	9.028965E-18	8.653262E-19
3.950000E+03	9.059138E-18	8.642412E-19
3.960000E+03	9.092508E-18	8.633388E-19
3.970000E+03	9.129035E-18	8.626063E-19
3.980000E+03	9.168605E-18	8.620213E-19
3.990000E+03	9.211248E-18	8.615761E-19
4.000000E+03	9.256856E-18	8.612503E-19
4.010000E+03	9.305314E-18	8.610202E-19
4.020000E+03	9.356508E-18	8.608633E-19
4.030000E+03	9.410480E-18	8.607720E-19
4.040000E+03	9.467048E-18	8.607159E-19
4.050000E+03	9.526258E-18	8.606864E-19
4.060000E+03	9.587940E-18	8.606562E-19
4.070000E+03	9.652077E-18	8.606094E-19
4.080000E+03	9.718660E-18	8.605322E-19
4.090000E+03	9.787613E-18	8.604059E-19
4.100000E+03	9.858862E-18	8.602108E-19
4.110000E+03	9.932342E-18	8.599294E-19
4.120000E+03	1.000815E-17	8.595603E-19
4.130000E+03	1.008615E-17	8.590804E-19
4.140000E+03	1.016637E-17	8.584828E-19
4.150000E+03	1.024869E-17	8.577500E-19
4.160000E+03	1.033315E-17	8.568755E-19
4.170000E+03	1.041980E-17	8.558559E-19
4.180000E+03	1.050852E-17	8.546786E-19
4.190000E+03	1.059938E-17	8.533431E-19
4.200000E+03	1.069228E-17	8.518407E-19
4.210000E+03	1.078731E-17	8.501806E-19
4.220000E+03	1.088439E-17	8.483601E-19
4.230000E+03	1.098361E-17	8.463957E-19
4.240000E+03	1.108491E-17	8.442974E-19
4.250000E+03	1.118833E-17	8.420849E-19
4.260000E+03	1.129381E-17	8.397792E-19
4.270000E+03	1.140150E-17	8.374231E-19
4.280000E+03	1.151137E-17	8.350507E-19
4.290000E+03	1.162348E-17	8.327124E-19
4.300000E+03	1.173783E-17	8.304619E-19
4.310000E+03	1.185439E-17	8.283574E-19
4.320000E+03	1.197326E-17	8.264743E-19
4.330000E+03	1.209452E-17	8.248978E-19
4.340000E+03	1.221818E-17	8.237103E-19
4.350000E+03	1.234432E-17	8.230095E-19
4.360000E+03	1.247296E-17	8.228940E-19
4.370000E+03	1.260430E-17	8.234734E-19
4.380000E+03	1.273846E-17	8.248541E-19
4.390000E+03	1.287586E-17	8.271572E-19
4.400000E+03	1.301642E-17	8.303724E-19
4.410000E+03	1.316005E-17	8.344007E-19
4.420000E+03	1.330655E-17	8.391255E-19
4.430000E+03	1.345595E-17	8.444316E-19
4.440000E+03	1.360793E-17	8.501814E-19
4.450000E+03	1.376230E-17	8.562451E-19
4.460000E+03	1.391896E-17	8.624950E-19
4.470000E+03	1.407771E-17	8.688018E-19
4.480000E+03	1.423832E-17	8.750431E-19
4.490000E+03	1.440045E-17	8.810879E-19
4.500000E+03	1.456395E-17	8.868300E-19
4.510000E+03	1.472846E-17	8.921596E-19
4.520000E+03	1.489367E-17	8.969750E-19
4.530000E+03	1.505926E-17	9.011885E-19
4.540000E+03	1.522468E-17	9.047134E-19
4.550000E+03	1.538968E-17	9.074944E-19
4.560000E+03	1.555377E-17	9.094801E-19
4.570000E+03	1.571659E-17	9.106486E-19
4.580000E+03	1.587747E-17	9.109752E-19
4.590000E+03	1.603613E-17	9.104838E-19
4.600000E+03	1.619188E-17	9.092002E-19
4.610000E+03	1.634440E-17	9.071883E-19
4.620000E+03	1.649295E-17	9.045171E-19
4.630000E+03	1.663705E-17	9.013010E-19
4.640000E+03	1.677603E-17	8.976604E-19
4.650000E+03	1.690950E-17	8.937622E-19
4.660000E+03	1.703664E-17	8.897796E-19
4.670000E+03	1.715701E-17	8.859207E-19
4.680000E+03	1.726986E-17	8.824028E-19
4.690000E+03	1.737445E-17	8.794645E-19
4.700000E+03	1.747028E-17	8.773564E-19
4.710000E+03	1.755640E-17	8.763099E-19
4.720000E+03	1.763214E-17	8.765638E-19
4.730000E+03	1.769690E-17	8.782016E-19
4.740000E+03	1.775119E-17	8.810911E-19
4.750000E+03	1.779517E-17	8.850274E-19
4.760000E+03	1.782942E-17	8.897958E-19
4.770000E+03	1.785422E-17	8.951650E-19
4.780000E+03	1.787019E-17	9.009293E-19
4.790000E+03	1.787757E-17	9.068637E-19
4.800000E+03	1.787676E-17	9.127746E-19
4.810000E+03	1.786819E-17	9.184953E-19
4.820000E+03	1.785223E-17	9.238713E-19
4.830000E+03	1.782926E-17	9.287790E-19
4.840000E+03	1.779948E-17	9.331181E-19
4.850000E+03	1.776343E-17	9.368209E-19
4.860000E+03	1.772147E-17	9.398412E-19
4.870000E+03	1.767379E-17	9.421515E-19
4.880000E+03	1.762074E-17	9.437411E-19
4.890000E+03	1.756284E-17	9.446318E-19
4.900000E+03	1.750009E-17	9.448371E-19
4.910000E+03	1.743313E-17	9.443986E-19
4.920000E+03	1.736209E-17	9.433456E-19
4.930000E+03	1.728708E-17	9.417169E-19
4.940000E+03	1.720850E-17	9.395442E-19
4.950000E+03	1.712653E-17	9.368575E-19
4.960000E+03	1.704123E-17	9.336845E-19
4.970000E+03	1.695289E-17	9.300479E-19
4.980000E+03	1.686135E-17	9.259494E-19
4.990000E+03	1.676708E-17	9.214338E-19
5.000000E+03	1.667000E-17	9.164995E-19
5.010000E+03	1.657007E-17	9.111519E-19
5.020000E+03	1.646753E-17	9.054223E-19
5.030000E+03	1.636230E-17	8.993090E-19
5.040000E+03	1.625447E-17	8.928276E-19
5.050000E+03	1.614410E-17	8.860014E-19
5.060000E+03	1.603125E-17	8.788389E-19
5.070000E+03	1.591581E-17	8.713481E-19
5.080000E+03	1.579799E-17	8.635615E-19
5.090000E+03	1.567765E-17	8.554766E-19
5.100000E+03	1.555484E-17	8.471072E-19
5.110000E+03	1.542942E-17	8.384668E-19
5.120000E+03	1.530162E-17	8.295706E-19
5.130000E+03	1.517118E-17	8.204180E-19
5.140000E+03	1.503849E-17	8.110478E-19
5.150000E+03	1.490335E-17	8.014486E-19
5.160000E+03	1.476602E-17	7.916416E-19
5.170000E+03	1.462647E-17	7.816426E-19
5.180000E+03	1.448467E-17	7.714614E-19
5.190000E+03	1.434087E-17	7.611342E-19
5.200000E+03	1.419505E-17	7.506924E-19
5.210000E+03	1.404734E-17	7.401663E-19
5.220000E+03	1.389785E-17	7.295962E-19
5.230000E+03	1.374658E-17	7.190235E-19
5.240000E+03	1.359366E-17	7.084824E-19
5.250000E+03	1.343909E-17	6.980081E-19
5.260000E+03	1.328314E-17	6.876543E-19
5.270000E+03	1.312582E-17	6.774401E-19
5.280000E+03	1.296728E-17	6.673964E-19
5.290000E+03	1.280767E-17	6.575596E-19
5.300000E+03	1.264702E-17	6.479410E-19
5.310000E+03	1.248548E-17	6.385643E-19
5.320000E+03	1.232324E-17	6.294590E-19
5.330000E+03	1.216045E-17	6.206382E-19
5.340000E+03	1.199719E-17	6.121147E-19
5.350000E+03	1.183376E-17	6.039187E-19
5.360000E+03	1.167035E-17	5.960563E-19
5.370000E+03	1.150719E-17	5.885388E-19
5.380000E+03	1.134436E-17	5.813775E-19
5.390000E+03	1.118236E-17	5.745874E-19
5.400000E+03	1.102136E-17	5.681718E-19
5.410000E+03	1.086184E-17	5.621577E-19
5.420000E+03	1.070402E-17	5.565448E-19
5.430000E+03	1.054832E-17	5.513501E-19
5.440000E+03	1.039504E-17	5.465913E-19
5.450000E+03	1.024473E-17	5.422885E-19
5.460000E+03	1.009764E-17	5.384508E-19
5.470000E+03	9.953975E-18	5.350920E-19
5.480000E+03	9.813879E-18	5.322109E-19
5.490000E+03	9.677679E-18	5.298207E-19
5.500000E+03	9.545513E-18	5.279157E-19
5.510000E+03	9.417683E-18	5.264572E-19
5.520000E+03	9.294483E-18	5.254076E-19
5.530000E+03	9.176183E-18	5.247360E-19
5.540000E+03	9.063031E-18	5.244094E-19
5.550000E+03	8.955347E-18	5.244079E-19
5.560000E+03	8.853330E-18	5.247142E-19
5.570000E+03	8.757332E-18	5.253178E-19
5.580000E+03	8.667413E-18	5.262003E-19
5.590000E+03	8.583965E-18	5.273714E-19
5.600000E+03	8.506981E-18	5.288162E-19
5.610000E+03	8.436698E-18	5.305424E-19
5.620000E+03	8.373329E-18	5.325632E-19
5.630000E+03	8.316765E-18	5.348692E-19
5.640000E+03	8.267306E-18	5.374831E-19
5.650000E+03	8.224898E-18	5.404102E-19
5.660000E+03	8.189434E-18	5.436496E-19
5.670000E+03	8.161136E-18	5.472267E-19
5.680000E+03	8.139797E-18	5.511427E-19
5.690000E+03	8.125430E-18	5.554102E-19
5.700000E+03	8.118045E-18	5.600450E-19
5.710000E+03	8.117568E-18	5.650607E-19
5.720000E+03	8.123903E-18	5.704645E-19
5.730000E+03	8.136957E-18	5.762665E-19
5.740000E+03	8.156726E-18	5.824850E-19
5.750000E+03	8.183194E-18	5.891314E-19
5.760000E+03	8.216086E-18	5.962007E-19
5.770000E+03	8.255570E-18	6.037208E-19
5.780000E+03	8.301381E-18	6.116824E-19
5.790000E+03	8.353608E-18	6.201032E-19
5.800000E+03	8.412082E-18	6.289834E-19
5.810000E+03	8.476818E-18	6.383296E-19
5.820000E+03	8.547746E-18	6.481431E-19
5.830000E+03	8.624893E-18	6.584338E-19
5.840000E+03	8.708104E-18	6.691908E-19
5.850000E+03	8.797320E-18	6.804113E-19
5.860000E+03	8.892579E-18	6.921007E-19
5.870000E+03	8.993930E-18	7.042593E-19
5.880000E+03	9.101127E-18	7.168650E-19
5.890000E+03	9.214321E-18	7.299279E-19
5.900000E+03	9.333370E-18	7.434290E-19
5.910000E+03	9.458336E-18	7.573662E-19
5.920000E+03	9.589178E-18	7.717317E-19
5.930000E+03	9.725744E-18	7.865053E-19
5.940000E+03	9.868093E-18	8.016858E-19
5.950000E+03	1.001617E-17	8.172653E-19
5.960000E+03	1.016981E-17	8.332231E-19
5.970000E+03	1.032919E-17	8.495683E-19
5.980000E+03	1.049400E-17	8.662740E-19
5.990000E+03	1.066429E-17	8.833383E-19
6.000000E+03	1.083999E-17	9.007518E-19
6.010000E+03	1.102089E-17	9.184962E-19
6.020000E+03	1.120703E-17	9.365698E-19
6.030000E+03	1.139806E-17	9.549404E-19
6.040000E+03	1.159413E-17	9.736210E-19
6.050000E+03	1.179487E-17	9.925758E-19
6.060000E+03	1.200031E-17	1.011804E-18
6.070000E+03	1.221017E-17	1.031283E-18
6.080000E+03	1.242433E-17	1.050998E-18
6.090000E+03	1.264249E-17	1.070921E-18
6.100000E+03	1.286434E-17	1.091028E-18
6.110000E+03	1.308986E-17	1.111311E-18
6.120000E+03	1.331842E-17	1.131715E-18
6.130000E+03	1.354996E-17	1.152236E-18
6.140000E+03	1.378397E-17	1.172824E-18
6.150000E+03	1.402022E-17	1.193459E-18
6.160000E+03	1.425778E-17	1.214062E-18
6.170000E+03	1.449656E-17	1.234620E-18
6.180000E+03	1.473575E-17	1.255062E-18
6.190000E+03	1.497485E-17	1.275345E-18
6.200000E+03	1.521315E-17	1.295407E-18
6.210000E+03	1.545068E-17	1.315249E-18
6.220000E+03	1.568771E-17	1.334896E-18
6.230000E+03	1.592454E-17	1.354372E-18
6.240000E+03	1.616154E-17	1.373707E-18
6.250000E+03	1.639847E-17	1.392886E-18
6.260000E+03	1.663621E-17	1.411981E-18
6.270000E+03	1.687440E-17	1.430960E-18
6.280000E+03	1.711353E-17	1.449871E-18
6.290000E+03	1.735397E-17	1.468741E-18
6.300000E+03	1.759541E-17	1.487543E-18
6.310000E+03	1.783822E-17	1.506314E-18
6.320000E+03	1.808261E-17	1.525067E-18
6.330000E+03	1.832877E-17	1.543820E-18
6.340000E+03	1.857645E-17	1.562553E-18
6.350000E+03	1.882588E-17	1.581283E-18
6.360000E+03	1.907706E-17	1.600012E-18
6.370000E+03	1.933002E-17	1.618742E-18
6.380000E+03	1.958449E-17	1.637450E-18
6.390000E+03	1.984023E-17	1.656114E-18
6.400000E+03	2.009694E-17	1.674715E-18
6.410000E+03	2.035464E-17	1.693250E-18
6.420000E+03	2.061304E-17	1.711697E-18
6.430000E+03	2.087123E-17	1.729983E-18
6.440000E+03	2.113008E-17	1.748180E-18
6.450000E+03	2.138961E-17	1.766290E-18
6.460000E+03	2.165014E-17	1.784346E-18
6.470000E+03	2.191237E-17	1.802403E-18
6.480000E+03	2.217604E-17	1.820441E-18
6.490000E+03	2.244187E-17	1.838527E-18
6.500000E+03	2.270999E-17	1.856666E-18
6.510000E+03	2.298084E-17	1.874897E-18
6.520000E+03	2.325382E-17	1.893177E-18
6.530000E+03	2.353012E-17	1.911598E-18
6.540000E+03	2.380916E-17	1.930114E-18
6.550000E+03	2.409141E-17	1.948768E-18
6.560000E+03	2.437701E-17	1.967568E-18
6.570000E+03	2.466572E-17	1.986491E-18
6.580000E+03	2.495802E-17	2.005584E-18
6.590000E+03	2.525409E-17	2.024854E-18
6.600000E+03	2.555366E-17	2.044277E-18
6.610000E+03	2.585685E-17	2.063867E-18
6.620000E+03	2.616380E-17	2.083629E-18
6.630000E+03	2.647508E-17	2.103607E-18
6.640000E+03	2.678995E-17	2.123745E-18
6.650000E+03	2.710899E-17	2.144081E-18
6.660000E+03	2.743231E-17	2.164623E-18
6.670000E+03	2.775957E-17	2.185347E-18
6.680000E+03	2.809134E-17	2.206293E-18
6.690000E+03	2.842728E-17	2.227429E-18
6.700000E+03	2.876794E-17	2.248805E-18
6.710000E+03	2.911246E-17	2.270344E-18
6.720000E+03	2.946142E-17	2.292091E-18
6.730000E+03	2.981542E-17	2.314097E-18
6.740000E+03	3.017355E-17	2.336281E-18
6.750000E+03	3.053641E-17	2.358690E-18
6.760000E+03	3.090355E-17	2.381292E-18
6.770000E+03	3.127561E-17	2.404128E-18
6.780000E+03	3.165215E-17	2.427159E-18
6.790000E+03	3.203323E-17	2.450393E-18
6.800000E+03	3.241954E-17	2.473872E-18
6.810000E+03	3.281002E-17	2.497507E-18
6.820000E+03	3.320593E-17	2.521397E-18
6.830000E+03	3.360618E-17	2.545444E-18
6.840000E+03	3.401209E-17	2.569740E-18
6.850000E+03	3.442251E-17	2.594199E-18
6.860000E+03	3.483751E-17	2.618808E-18
6.870000E+03	3.525779E-17	2.643615E-18
6.880000E+03	3.568342E-17	2.668624E-18
6.890000E+03	3.611315E-17	2.693729E-18
6.900000E+03	3.654834E-17	2.719027E-18
6.910000E+03	3.698834E-17	2.744475E-18
6.920000E+03	3.743391E-17	2.770119E-18
6.930000E+03	3.788365E-17	2.795855E-18
6.940000E+03	3.833826E-17	2.821744E-18
6.950000E+03	3.879777E-17	2.847781E-18
6.960000E+03	3.926144E-17	2.873912E-18
6.970000E+03	3.972999E-17	2.900203E-18
6.980000E+03	4.020346E-17	2.926645E-18
6.990000E+03	4.068108E-17	2.953186E-18
7.000000E+03	4.116281E-17	2.979834E-18
7.010000E+03	4.164866E-17	3.006582E-18
7.020000E+03	4.213945E-17	3.033490E-18
7.030000E+03	4.263353E-17	3.060450E-18
7.040000E+03	4.313259E-17	3.087573E-18
7.050000E+03	4.363495E-17	3.114739E-18
7.060000E+03	4.414145E-17	3.142017E-18
7.070000E+03	4.465125E-17	3.169332E-18
7.080000E+03	4.516523E-17	3.196744E-18
7.090000E+03	4.568342E-17	3.224260E-18
7.100000E+03	4.620494E-17	3.251800E-18
7.110000E+03	4.672886E-17	3.279290E-18
7.120000E+03	4.725704E-17	3.306865E-18
7.130000E+03	4.778856E-17	3.334435E-18
7.140000E+03	4.832345E-17	3.361990E-18
7.150000E+03	4.886167E-17	3.389528E-18
7.160000E+03	4.940224E-17	3.416951E-18
7.170000E+03	4.994613E-17	3.444310E-18
7.180000E+03	5.049224E-17	3.471529E-18
7.190000E+03	5.104054E-17	3.498571E-18
7.200000E+03	5.159202E-17	3.525487E-18
7.210000E+03	5.214552E-17	3.552193E-18
7.220000E+03	5.270205E-17	3.578727E-18
7.230000E+03	5.325930E-17	3.604911E-18
7.240000E+03	5.381817E-17	3.630808E-18
7.250000E+03	5.437847E-17	3.656375E-18
7.260000E+03	5.493998E-17	3.681587E-18
7.270000E+03	5.550239E-17	3.706432E-18
7.280000E+03	5.606538E-17	3.730869E-18
7.290000E+03	5.662735E-17	3.754792E-18
7.300000E+03	5.718905E-17	3.778275E-18
7.310000E+03	5.774999E-17	3.801281E-18
7.320000E+03	5.830963E-17	3.823797E-18
7.330000E+03	5.886610E-17	3.845741E-18
7.340000E+03	5.942004E-17	3.867174E-18
7.350000E+03	5.997208E-17	3.888181E-18
7.360000E+03	6.051887E-17	3.908612E-18
7.370000E+03	6.106095E-17	3.928546E-18
7.380000E+03	6.159753E-17	3.948002E-18
7.390000E+03	6.212909E-17	3.967110E-18
7.400000E+03	6.265340E-17	3.985797E-18
7.410000E+03	6.317093E-17	4.004193E-18
7.420000E+03	6.368215E-17	4.022452E-18
7.430000E+03	6.418471E-17	4.040523E-18
7.440000E+03	6.468052E-17	4.058651E-18
7.450000E+03	6.516567E-17	4.076739E-18
7.460000E+03	6.564059E-17	4.094930E-18
7.470000E+03	6.610272E-17	4.113204E-18
7.480000E+03	6.655243E-17	4.131747E-18
7.490000E+03	6.698553E-17	4.150416E-18
7.500000E+03	6.740237E-17	4.169365E-18
7.510000E+03	6.780173E-17	4.188663E-18
7.520000E+03	6.818161E-17	4.208172E-18
7.530000E+03	6.854581E-17	4.227981E-18
7.540000E+03	6.889186E-17	4.247789E-18
7.550000E+03	6.922214E-17	4.267532E-18
7.560000E+03	6.953577E-17	4.286965E-18
7.570000E+03	6.983517E-17	4.306061E-18
7.580000E+03	7.011946E-17	4.324548E-18
7.590000E+03	7.039111E-17	4.342385E-18
7.600000E+03	7.064920E-17	4.359357E-18
7.610000E+03	7.089445E-17	4.375329E-18
7.620000E+03	7.112925E-17	4.390305E-18
7.630000E+03	7.135255E-17	4.404123E-18
7.640000E+03	7.156494E-17	4.416710E-18
7.650000E+03	7.176872E-17	4.428145E-18
7.660000E+03	7.196264E-17	4.438329E-18
7.670000E+03	7.214890E-17	4.447355E-18
7.680000E+03	7.232435E-17	4.455025E-18
7.690000E+03	7.249284E-17	4.461611E-18
7.700000E+03	7.265472E-17	4.467127E-18
7.710000E+03	7.280843E-17	4.471504E-18
7.720000E+03	7.295599E-17	4.474924E-18
7.730000E+03	7.309578E-17	4.477300E-18
7.740000E+03	7.322793E-17	4.478680E-18
7.750000E+03	7.335436E-17	4.479251E-18
7.760000E+03	7.347513E-17	4.479037E-18
