#wls	flux	fluxerr
1.600000E+03	1.533755E-16	1.521051E-16
1.640000E+03	1.572145E-16	1.533979E-16
1.680000E+03	1.609995E-16	1.544552E-16
1.720000E+03	1.647643E-16	1.553067E-16
1.760000E+03	1.684618E-16	1.559056E-16
1.800000E+03	1.720722E-16	1.562329E-16
1.840000E+03	1.755861E-16	1.562808E-16
1.880000E+03	1.789611E-16	1.560136E-16
1.920000E+03	1.821659E-16	1.554088E-16
1.960000E+03	1.851663E-16	1.544444E-16
2.000000E+03	1.878986E-16	1.530774E-16
2.040000E+03	1.903389E-16	1.513026E-16
2.080000E+03	1.923980E-16	1.490666E-16
2.120000E+03	1.939933E-16	1.463297E-16
2.160000E+03	1.950619E-16	1.430743E-16
2.200000E+03	1.955155E-16	1.392717E-16
2.240000E+03	1.952485E-16	1.348902E-16
2.280000E+03	1.942591E-16	1.299784E-16
2.320000E+03	1.925338E-16	1.245790E-16
2.360000E+03	1.901439E-16	1.187907E-16
2.400000E+03	1.871650E-16	1.127100E-16
2.440000E+03	1.836662E-16	1.064236E-16
2.480000E+03	1.797175E-16	1.000139E-16
2.520000E+03	1.753526E-16	9.353811E-17
2.560000E+03	1.706321E-16	8.706442E-17
2.600000E+03	1.655787E-16	8.063758E-17
2.640000E+03	1.602244E-16	7.430448E-17
2.680000E+03	1.545923E-16	6.810512E-17
2.720000E+03	1.487154E-16	6.208132E-17
2.760000E+03	1.426216E-16	5.626919E-17
2.800000E+03	1.363410E-16	5.070237E-17
2.840000E+03	1.299176E-16	4.541570E-17
2.880000E+03	1.233950E-16	4.043867E-17
2.920000E+03	1.168290E-16	3.579920E-17
2.960000E+03	1.102794E-16	3.151992E-17
3.000000E+03	1.038079E-16	2.761704E-17
3.010000E+03	1.022088E-16	2.670119E-17
3.020000E+03	1.006196E-16	2.580958E-17
3.030000E+03	9.904067E-17	2.494216E-17
3.040000E+03	9.747487E-17	2.409936E-17
3.050000E+03	9.592053E-17	2.328054E-17
3.060000E+03	9.437831E-17	2.248561E-17
3.070000E+03	9.285282E-17	2.171535E-17
3.080000E+03	9.134064E-17	2.096866E-17
3.090000E+03	8.984623E-17	2.024622E-17
3.100000E+03	8.836827E-17	1.954738E-17
3.110000E+03	8.690745E-17	1.887190E-17
3.120000E+03	8.546787E-17	1.822028E-17
3.130000E+03	8.404673E-17	1.759147E-17
3.140000E+03	8.264643E-17	1.698555E-17
3.150000E+03	8.126772E-17	1.640218E-17
3.160000E+03	7.991288E-17	1.584134E-17
3.170000E+03	7.858116E-17	1.530234E-17
3.180000E+03	7.727486E-17	1.478510E-17
3.190000E+03	7.599482E-17	1.428920E-17
3.200000E+03	7.474054E-17	1.381397E-17
3.210000E+03	7.351433E-17	1.335923E-17
3.220000E+03	7.231835E-17	1.292475E-17
3.230000E+03	7.115096E-17	1.250960E-17
3.240000E+03	7.001552E-17	1.211375E-17
3.250000E+03	6.891053E-17	1.173627E-17
3.260000E+03	6.784026E-17	1.137725E-17
3.270000E+03	6.680207E-17	1.103560E-17
3.280000E+03	6.579784E-17	1.071098E-17
3.290000E+03	6.482929E-17	1.040304E-17
3.300000E+03	6.389594E-17	1.011108E-17
3.310000E+03	6.299932E-17	9.834709E-18
3.320000E+03	6.213795E-17	9.573103E-18
3.330000E+03	6.131325E-17	9.325892E-18
3.340000E+03	6.052558E-17	9.092556E-18
3.350000E+03	5.977524E-17	8.872582E-18
3.360000E+03	5.906249E-17	8.665463E-18
3.370000E+03	5.838671E-17	8.470578E-18
3.380000E+03	5.774811E-17	8.287453E-18
3.390000E+03	5.714688E-17	8.115622E-18
3.400000E+03	5.658317E-17	7.954628E-18
3.410000E+03	5.605631E-17	7.803924E-18
3.420000E+03	5.556644E-17	7.663091E-18
3.430000E+03	5.511366E-17	7.531725E-18
3.440000E+03	5.469733E-17	7.409337E-18
3.450000E+03	5.431755E-17	7.295561E-18
3.460000E+03	5.397439E-17	7.190045E-18
3.470000E+03	5.366656E-17	7.092275E-18
3.480000E+03	5.339484E-17	7.002031E-18
3.490000E+03	5.315863E-17	6.918930E-18
3.500000E+03	5.295738E-17	6.842613E-18
3.510000E+03	5.279117E-17	6.772820E-18
3.520000E+03	5.265886E-17	6.709150E-18
3.530000E+03	5.256055E-17	6.651382E-18
3.540000E+03	5.249575E-17	6.599230E-18
3.550000E+03	5.246398E-17	6.552424E-18
3.560000E+03	5.246477E-17	6.510710E-18
3.570000E+03	5.249764E-17	6.473848E-18
3.580000E+03	5.256158E-17	6.441540E-18
3.590000E+03	5.265671E-17	6.413643E-18
3.600000E+03	5.278202E-17	6.389882E-18
3.610000E+03	5.293763E-17	6.370132E-18
3.620000E+03	5.312197E-17	6.354070E-18
3.630000E+03	5.333570E-17	6.341652E-18
3.640000E+03	5.357668E-17	6.332505E-18
3.650000E+03	5.384500E-17	6.326532E-18
3.660000E+03	5.413961E-17	6.323505E-18
3.670000E+03	5.446054E-17	6.323330E-18
3.680000E+03	5.480616E-17	6.325727E-18
3.690000E+03	5.517644E-17	6.330604E-18
3.700000E+03	5.557022E-17	6.337749E-18
3.710000E+03	5.598741E-17	6.347071E-18
3.720000E+03	5.642677E-17	6.358357E-18
3.730000E+03	5.688865E-17	6.371577E-18
3.740000E+03	5.737118E-17	6.386453E-18
3.750000E+03	5.787462E-17	6.402950E-18
3.760000E+03	5.839807E-17	6.420908E-18
3.770000E+03	5.894114E-17	6.440225E-18
3.780000E+03	5.950285E-17	6.460735E-18
3.790000E+03	6.008323E-17	6.482388E-18
3.800000E+03	6.068064E-17	6.504953E-18
3.810000E+03	6.129503E-17	6.528374E-18
3.820000E+03	6.192574E-17	6.552530E-18
3.830000E+03	6.257209E-17	6.577299E-18
3.840000E+03	6.323332E-17	6.602555E-18
3.850000E+03	6.390808E-17	6.628112E-18
3.860000E+03	6.459668E-17	6.653952E-18
3.870000E+03	6.529824E-17	6.679942E-18
3.880000E+03	6.601128E-17	6.705886E-18
3.890000E+03	6.673543E-17	6.731700E-18
3.900000E+03	6.746972E-17	6.757240E-18
3.910000E+03	6.821370E-17	6.782416E-18
3.920000E+03	6.896576E-17	6.807018E-18
3.930000E+03	6.972599E-17	6.831005E-18
3.940000E+03	7.049272E-17	6.854160E-18
3.950000E+03	7.126602E-17	6.876433E-18
3.960000E+03	7.204416E-17	6.897596E-18
3.970000E+03	7.282597E-17	6.917478E-18
3.980000E+03	7.361152E-17	6.936017E-18
3.990000E+03	7.439900E-17	6.952975E-18
4.000000E+03	7.518785E-17	6.968231E-18
4.010000E+03	7.597687E-17	6.981603E-18
4.020000E+03	7.676551E-17	6.992969E-18
4.030000E+03	7.755257E-17	7.002152E-18
4.040000E+03	7.833686E-17	7.008978E-18
4.050000E+03	7.911785E-17	7.013338E-18
4.060000E+03	7.989504E-17	7.015129E-18
4.070000E+03	8.066595E-17	7.014082E-18
4.080000E+03	8.143141E-17	7.010228E-18
4.090000E+03	8.218897E-17	7.003319E-18
4.100000E+03	8.293882E-17	6.993352E-18
4.110000E+03	8.367916E-17	6.980164E-18
4.120000E+03	8.440957E-17	6.963722E-18
4.130000E+03	8.512889E-17	6.943954E-18
4.140000E+03	8.583600E-17	6.920806E-18
4.150000E+03	8.652972E-17	6.894246E-18
4.160000E+03	8.720887E-17	6.864268E-18
4.170000E+03	8.787293E-17	6.830944E-18
4.180000E+03	8.852063E-17	6.794323E-18
4.190000E+03	8.914991E-17	6.754427E-18
4.200000E+03	8.975937E-17	6.711373E-18
4.210000E+03	9.034750E-17	6.665314E-18
4.220000E+03	9.091345E-17	6.616498E-18
4.230000E+03	9.145476E-17	6.565111E-18
4.240000E+03	9.196960E-17	6.511438E-18
4.250000E+03	9.245522E-17	6.455761E-18
4.260000E+03	9.291025E-17	6.398516E-18
4.270000E+03	9.333163E-17	6.340085E-18
4.280000E+03	9.371688E-17	6.280947E-18
4.290000E+03	9.406338E-17	6.221625E-18
4.300000E+03	9.436678E-17	6.162574E-18
4.310000E+03	9.462574E-17	6.104481E-18
4.320000E+03	9.483567E-17	6.047838E-18
4.330000E+03	9.499354E-17	5.993236E-18
4.340000E+03	9.509556E-17	5.941189E-18
4.350000E+03	9.514054E-17	5.892307E-18
4.360000E+03	9.512363E-17	5.846879E-18
4.370000E+03	9.504456E-17	5.805331E-18
4.380000E+03	9.490226E-17	5.767864E-18
4.390000E+03	9.469754E-17	5.734574E-18
4.400000E+03	9.443317E-17	5.705446E-18
4.410000E+03	9.411231E-17	5.680261E-18
4.420000E+03	9.374069E-17	5.658764E-18
4.430000E+03	9.332154E-17	5.640399E-18
4.440000E+03	9.286173E-17	5.624729E-18
4.450000E+03	9.236597E-17	5.611134E-18
4.460000E+03	9.183978E-17	5.599031E-18
4.470000E+03	9.129018E-17	5.587950E-18
4.480000E+03	9.072004E-17	5.577214E-18
4.490000E+03	9.013676E-17	5.566491E-18
4.500000E+03	8.954269E-17	5.555218E-18
4.510000E+03	8.894385E-17	5.543148E-18
4.520000E+03	8.834359E-17	5.529962E-18
4.530000E+03	8.774572E-17	5.515463E-18
4.540000E+03	8.715378E-17	5.499528E-18
4.550000E+03	8.656945E-17	5.482007E-18
4.560000E+03	8.599724E-17	5.463013E-18
4.570000E+03	8.543832E-17	5.442519E-18
4.580000E+03	8.489514E-17	5.420656E-18
4.590000E+03	8.436996E-17	5.397598E-18
4.600000E+03	8.386480E-17	5.373565E-18
4.610000E+03	8.338073E-17	5.348759E-18
4.620000E+03	8.291863E-17	5.323413E-18
4.630000E+03	8.248000E-17	5.297829E-18
4.640000E+03	8.206617E-17	5.272323E-18
4.650000E+03	8.167834E-17	5.247223E-18
4.660000E+03	8.131606E-17	5.222759E-18
4.670000E+03	8.098104E-17	5.199304E-18
4.680000E+03	8.067338E-17	5.177123E-18
4.690000E+03	8.039310E-17	5.156465E-18
4.700000E+03	8.014090E-17	5.137602E-18
4.710000E+03	7.991668E-17	5.120727E-18
4.720000E+03	7.972031E-17	5.105994E-18
4.730000E+03	7.955165E-17	5.093518E-18
4.740000E+03	7.941056E-17	5.083366E-18
4.750000E+03	7.929687E-17	5.075566E-18
4.760000E+03	7.921038E-17	5.070107E-18
4.770000E+03	7.915086E-17	5.066946E-18
4.780000E+03	7.911728E-17	5.065964E-18
4.790000E+03	7.911002E-17	5.067119E-18
4.800000E+03	7.912717E-17	5.070206E-18
4.810000E+03	7.916976E-17	5.075202E-18
4.820000E+03	7.923572E-17	5.081882E-18
4.830000E+03	7.932521E-17	5.090161E-18
4.840000E+03	7.943756E-17	5.099905E-18
4.850000E+03	7.957051E-17	5.110882E-18
4.860000E+03	7.972486E-17	5.123059E-18
4.870000E+03	7.989905E-17	5.136259E-18
4.880000E+03	8.009304E-17	5.150412E-18
4.890000E+03	8.030364E-17	5.165250E-18
4.900000E+03	8.053236E-17	5.180813E-18
4.910000E+03	8.077676E-17	5.196895E-18
4.920000E+03	8.103680E-17	5.213446E-18
4.930000E+03	8.131080E-17	5.230316E-18
4.940000E+03	8.159874E-17	5.247462E-18
4.950000E+03	8.189818E-17	5.264685E-18
4.960000E+03	8.220909E-17	5.281943E-18
4.970000E+03	8.253151E-17	5.299194E-18
4.980000E+03	8.286303E-17	5.316237E-18
4.990000E+03	8.320288E-17	5.332974E-18
5.000000E+03	8.355116E-17	5.349359E-18
5.010000E+03	8.390717E-17	5.365291E-18
5.020000E+03	8.426855E-17	5.380562E-18
5.030000E+03	8.463544E-17	5.395123E-18
5.040000E+03	8.500718E-17	5.408872E-18
5.050000E+03	8.538308E-17	5.421709E-18
5.060000E+03	8.576163E-17	5.433482E-18
5.070000E+03	8.614213E-17	5.444096E-18
5.080000E+03	8.652473E-17	5.453518E-18
5.090000E+03	8.690695E-17	5.461553E-18
5.100000E+03	8.728888E-17	5.468178E-18
5.110000E+03	8.766882E-17	5.473265E-18
5.120000E+03	8.804589E-17	5.476752E-18
5.130000E+03	8.841913E-17	5.478579E-18
5.140000E+03	8.878753E-17	5.478699E-18
5.150000E+03	8.914910E-17	5.477018E-18
5.160000E+03	8.950355E-17	5.473559E-18
5.170000E+03	8.984781E-17	5.468196E-18
5.180000E+03	9.018138E-17	5.460973E-18
5.190000E+03	9.050188E-17	5.451840E-18
5.200000E+03	9.080773E-17	5.440811E-18
5.210000E+03	9.109721E-17	5.427911E-18
5.220000E+03	9.136852E-17	5.413176E-18
5.230000E+03	9.161793E-17	5.396545E-18
5.240000E+03	9.184528E-17	5.378181E-18
5.250000E+03	9.204571E-17	5.357988E-18
5.260000E+03	9.221892E-17	5.336144E-18
5.270000E+03	9.236086E-17	5.312620E-18
5.280000E+03	9.247021E-17	5.287551E-18
5.290000E+03	9.254381E-17	5.260968E-18
5.300000E+03	9.257852E-17	5.232905E-18
5.310000E+03	9.257310E-17	5.203503E-18
5.320000E+03	9.252363E-17	5.172746E-18
5.330000E+03	9.242911E-17	5.140775E-18
5.340000E+03	9.228683E-17	5.107629E-18
5.350000E+03	9.209432E-17	5.073352E-18
5.360000E+03	9.185028E-17	5.038043E-18
5.370000E+03	9.155370E-17	5.001811E-18
5.380000E+03	9.120392E-17	4.964773E-18
5.390000E+03	9.079879E-17	4.926959E-18
5.400000E+03	9.033936E-17	4.888565E-18
5.410000E+03	8.982525E-17	4.849702E-18
5.420000E+03	8.925836E-17	4.810592E-18
5.430000E+03	8.863838E-17	4.771327E-18
5.440000E+03	8.796991E-17	4.732246E-18
5.450000E+03	8.725627E-17	4.693594E-18
5.460000E+03	8.650557E-17	4.655841E-18
5.470000E+03	8.571943E-17	4.619062E-18
5.480000E+03	8.489586E-17	4.583079E-18
5.490000E+03	8.403541E-17	4.547772E-18
5.500000E+03	8.314191E-17	4.513117E-18
5.510000E+03	8.222319E-17	4.479226E-18
5.520000E+03	8.128333E-17	4.445946E-18
5.530000E+03	8.033169E-17	4.413377E-18
5.540000E+03	7.937361E-17	4.381390E-18
5.550000E+03	7.841681E-17	4.350004E-18
5.560000E+03	7.746880E-17	4.319257E-18
5.570000E+03	7.653676E-17	4.289213E-18
5.580000E+03	7.562596E-17	4.259876E-18
5.590000E+03	7.474279E-17	4.231366E-18
5.600000E+03	7.389309E-17	4.203823E-18
5.610000E+03	7.308145E-17	4.177364E-18
5.620000E+03	7.231187E-17	4.152119E-18
5.630000E+03	7.158924E-17	4.128307E-18
5.640000E+03	7.091561E-17	4.106019E-18
5.650000E+03	7.029388E-17	4.085425E-18
5.660000E+03	6.972561E-17	4.066642E-18
5.670000E+03	6.921250E-17	4.049808E-18
5.680000E+03	6.875495E-17	4.035005E-18
5.690000E+03	6.835283E-17	4.022289E-18
5.700000E+03	6.800626E-17	4.011735E-18
5.710000E+03	6.771495E-17	4.003397E-18
5.720000E+03	6.747686E-17	3.997219E-18
5.730000E+03	6.729106E-17	3.993209E-18
5.740000E+03	6.715576E-17	3.991313E-18
5.750000E+03	6.706901E-17	3.991454E-18
5.760000E+03	6.703023E-17	3.993626E-18
5.770000E+03	6.703598E-17	3.997635E-18
5.780000E+03	6.708571E-17	4.003441E-18
5.790000E+03	6.717683E-17	4.010862E-18
5.800000E+03	6.730827E-17	4.019787E-18
5.810000E+03	6.747839E-17	4.030048E-18
5.820000E+03	6.768567E-17	4.041465E-18
5.830000E+03	6.792949E-17	4.053888E-18
5.840000E+03	6.820791E-17	4.067069E-18
5.850000E+03	6.852059E-17	4.080837E-18
5.860000E+03	6.886658E-17	4.094973E-18
5.870000E+03	6.924430E-17	4.109203E-18
5.880000E+03	6.965456E-17	4.123387E-18
5.890000E+03	7.009519E-17	4.137207E-18
5.900000E+03	7.056717E-17	4.150528E-18
5.910000E+03	7.106923E-17	4.163089E-18
5.920000E+03	7.160089E-17	4.174685E-18
5.930000E+03	7.216252E-17	4.185175E-18
5.940000E+03	7.275204E-17	4.194295E-18
5.950000E+03	7.336978E-17	4.201948E-18
5.960000E+03	7.401610E-17	4.208064E-18
5.970000E+03	7.468879E-17	4.212460E-18
5.980000E+03	7.538810E-17	4.215132E-18
5.990000E+03	7.611340E-17	4.216060E-18
6.000000E+03	7.686312E-17	4.215219E-18
6.010000E+03	7.763647E-17	4.212667E-18
6.020000E+03	7.843257E-17	4.208509E-18
6.030000E+03	7.924954E-17	4.202843E-18
6.040000E+03	8.008631E-17	4.195863E-18
6.050000E+03	8.094259E-17	4.187866E-18
6.060000E+03	8.181422E-17	4.179005E-18
6.070000E+03	8.270158E-17	4.169739E-18
6.080000E+03	8.360005E-17	4.160343E-18
6.090000E+03	8.450968E-17	4.151410E-18
6.100000E+03	8.542534E-17	4.143352E-18
6.110000E+03	8.634565E-17	4.136850E-18
6.120000E+03	8.726593E-17	4.132501E-18
6.130000E+03	8.818438E-17	4.131103E-18
6.140000E+03	8.909587E-17	4.133335E-18
6.150000E+03	8.999613E-17	4.139933E-18
6.160000E+03	9.088305E-17	4.151692E-18
6.170000E+03	9.175129E-17	4.169174E-18
6.180000E+03	9.259915E-17	4.192948E-18
6.190000E+03	9.342425E-17	4.223341E-18
6.200000E+03	9.422483E-17	4.260448E-18
6.210000E+03	9.499980E-17	4.304117E-18
6.220000E+03	9.575107E-17	4.354082E-18
6.230000E+03	9.647871E-17	4.409784E-18
6.240000E+03	9.718441E-17	4.470584E-18
6.250000E+03	9.787010E-17	4.535766E-18
6.260000E+03	9.854046E-17	4.604700E-18
6.270000E+03	9.919518E-17	4.676528E-18
6.280000E+03	9.983649E-17	4.750543E-18
6.290000E+03	1.004679E-16	4.826158E-18
6.300000E+03	1.010916E-16	4.902795E-18
6.310000E+03	1.017084E-16	4.979890E-18
6.320000E+03	1.023188E-16	5.056949E-18
6.330000E+03	1.029261E-16	5.133689E-18
6.340000E+03	1.035291E-16	5.209696E-18
6.350000E+03	1.041295E-16	5.284752E-18
6.360000E+03	1.047271E-16	5.358631E-18
6.370000E+03	1.053219E-16	5.431150E-18
6.380000E+03	1.059134E-16	5.502168E-18
6.390000E+03	1.065012E-16	5.571578E-18
6.400000E+03	1.070845E-16	5.639300E-18
6.410000E+03	1.076611E-16	5.705194E-18
6.420000E+03	1.082315E-16	5.769296E-18
6.430000E+03	1.087947E-16	5.831581E-18
6.440000E+03	1.093512E-16	5.892116E-18
6.450000E+03	1.099015E-16	5.950986E-18
6.460000E+03	1.104428E-16	6.008107E-18
6.470000E+03	1.109773E-16	6.063667E-18
6.480000E+03	1.115039E-16	6.117683E-18
6.490000E+03	1.120232E-16	6.170270E-18
6.500000E+03	1.125328E-16	6.221354E-18
6.510000E+03	1.130349E-16	6.271145E-18
6.520000E+03	1.135272E-16	6.319567E-18
6.530000E+03	1.140107E-16	6.366731E-18
6.540000E+03	1.144830E-16	6.412549E-18
6.550000E+03	1.149454E-16	6.457125E-18
6.560000E+03	1.153991E-16	6.500563E-18
6.570000E+03	1.158403E-16	6.542657E-18
6.580000E+03	1.162704E-16	6.583503E-18
6.590000E+03	1.166912E-16	6.623202E-18
6.600000E+03	1.170987E-16	6.661532E-18
6.610000E+03	1.174965E-16	6.698704E-18
6.620000E+03	1.178808E-16	6.734496E-18
6.630000E+03	1.182554E-16	6.769129E-18
6.640000E+03	1.186162E-16	6.802383E-18
6.650000E+03	1.189650E-16	6.834381E-18
6.660000E+03	1.193018E-16	6.865137E-18
6.670000E+03	1.196245E-16	6.894555E-18
6.680000E+03	1.199347E-16	6.922773E-18
6.690000E+03	1.202304E-16	6.949702E-18
6.700000E+03	1.205113E-16	6.975366E-18
6.710000E+03	1.207793E-16	6.999912E-18
6.720000E+03	1.210321E-16	7.023241E-18
6.730000E+03	1.212674E-16	7.045245E-18
6.740000E+03	1.214892E-16	7.066174E-18
6.750000E+03	1.216930E-16	7.085774E-18
6.760000E+03	1.218810E-16	7.104148E-18
6.770000E+03	1.220529E-16	7.121255E-18
6.780000E+03	1.222065E-16	7.136912E-18
6.790000E+03	1.223416E-16	7.151041E-18
6.800000E+03	1.224582E-16	7.163548E-18
6.810000E+03	1.225583E-16	7.174451E-18
6.820000E+03	1.226398E-16	7.183500E-18
6.830000E+03	1.227004E-16	7.190429E-18
6.840000E+03	1.227422E-16	7.195233E-18
6.850000E+03	1.227653E-16	7.197780E-18
6.860000E+03	1.227698E-16	7.197943E-18
6.870000E+03	1.227534E-16	7.195479E-18
6.880000E+03	1.227163E-16	7.190297E-18
6.890000E+03	1.226608E-16	7.182464E-18
6.900000E+03	1.225849E-16	7.171809E-18
6.910000E+03	1.224887E-16	7.158325E-18
6.920000E+03	1.223726E-16	7.142038E-18
6.930000E+03	1.222367E-16	7.123002E-18
6.940000E+03	1.220814E-16	7.101300E-18
6.950000E+03	1.219070E-16	7.077041E-18
6.960000E+03	1.217117E-16	7.050218E-18
6.970000E+03	1.214957E-16	7.020981E-18
6.980000E+03	1.212620E-16	6.989625E-18
6.990000E+03	1.210110E-16	6.956321E-18
7.000000E+03	1.207388E-16	6.920977E-18
7.010000E+03	1.204505E-16	6.884046E-18
7.020000E+03	1.201447E-16	6.845573E-18
7.030000E+03	1.198220E-16	6.805740E-18
7.040000E+03	1.194809E-16	6.764588E-18
7.050000E+03	1.191247E-16	6.722417E-18
7.060000E+03	1.187543E-16	6.679382E-18
7.070000E+03	1.183707E-16	6.635624E-18
7.080000E+03	1.179726E-16	6.591135E-18
7.090000E+03	1.175610E-16	6.546019E-18
7.100000E+03	1.171395E-16	6.500489E-18
7.110000E+03	1.167068E-16	6.454472E-18
7.120000E+03	1.162620E-16	6.407872E-18
7.130000E+03	1.158109E-16	6.360956E-18
7.140000E+03	1.153527E-16	6.313578E-18
7.150000E+03	1.148886E-16	6.265699E-18
7.160000E+03	1.144179E-16	6.217131E-18
7.170000E+03	1.139444E-16	6.167920E-18
7.180000E+03	1.134696E-16	6.117969E-18
7.190000E+03	1.129929E-16	6.067041E-18
7.200000E+03	1.125159E-16	6.015014E-18
7.210000E+03	1.120425E-16	5.961881E-18
7.220000E+03	1.115720E-16	5.907381E-18
7.230000E+03	1.111061E-16	5.851377E-18
7.240000E+03	1.106463E-16	5.793732E-18
7.250000E+03	1.101939E-16	5.734317E-18
7.260000E+03	1.097481E-16	5.672898E-18
7.270000E+03	1.093145E-16	5.609611E-18
7.280000E+03	1.088918E-16	5.544262E-18
7.290000E+03	1.084763E-16	5.476572E-18
7.300000E+03	1.080755E-16	5.406880E-18
7.310000E+03	1.076828E-16	5.334873E-18
7.320000E+03	1.073029E-16	5.260859E-18
7.330000E+03	1.069335E-16	5.184856E-18
7.340000E+03	1.065743E-16	5.107057E-18
7.350000E+03	1.062224E-16	5.027608E-18
7.360000E+03	1.058770E-16	4.946841E-18
7.370000E+03	1.055371E-16	4.865163E-18
7.380000E+03	1.052015E-16	4.783071E-18
7.390000E+03	1.048643E-16	4.700948E-18
7.400000E+03	1.045261E-16	4.619593E-18
7.410000E+03	1.041805E-16	4.539611E-18
7.420000E+03	1.038233E-16	4.461827E-18
7.430000E+03	1.034502E-16	4.387179E-18
7.440000E+03	1.030611E-16	4.316891E-18
7.450000E+03	1.026537E-16	4.252160E-18
7.460000E+03	1.022301E-16	4.194395E-18
7.470000E+03	1.017926E-16	4.144967E-18
7.480000E+03	1.013368E-16	4.104857E-18
7.490000E+03	1.008634E-16	4.075027E-18
7.500000E+03	1.003757E-16	4.056221E-18
7.510000E+03	9.986929E-17	4.048426E-18
7.520000E+03	9.934962E-17	4.051551E-18
7.530000E+03	9.881874E-17	4.064890E-18
7.540000E+03	9.827957E-17	4.087375E-18
7.550000E+03	9.773560E-17	4.117679E-18
7.560000E+03	9.719056E-17	4.154339E-18
7.570000E+03	9.665042E-17	4.195952E-18
7.580000E+03	9.611657E-17	4.240977E-18
7.590000E+03	9.559453E-17	4.288183E-18
7.600000E+03	9.508507E-17	4.336300E-18
7.610000E+03	9.459298E-17	4.384437E-18
7.620000E+03	9.412047E-17	4.431791E-18
7.630000E+03	9.366714E-17	4.477646E-18
7.640000E+03	9.323663E-17	4.521662E-18
7.650000E+03	9.283002E-17	4.563560E-18
7.660000E+03	9.244589E-17	4.603091E-18
7.670000E+03	9.208691E-17	4.640339E-18
7.680000E+03	9.175112E-17	4.675268E-18
7.690000E+03	9.144286E-17	4.708252E-18
7.700000E+03	9.115757E-17	4.739280E-18
7.710000E+03	9.089705E-17	4.768712E-18
7.720000E+03	9.065862E-17	4.796712E-18
7.730000E+03	9.044379E-17	4.823680E-18
7.740000E+03	9.025182E-17	4.849905E-18
7.750000E+03	9.008188E-17	4.875667E-18
7.760000E+03	8.993091E-17	4.901108E-18
