#wls	flux	fluxerr
1.600000E+03	1.867978E-16	1.802260E-16
1.640000E+03	1.960309E-16	1.858703E-16
1.680000E+03	2.053288E-16	1.911862E-16
1.720000E+03	2.146518E-16	1.961228E-16
1.760000E+03	2.238642E-16	2.005461E-16
1.800000E+03	2.329418E-16	2.044301E-16
1.840000E+03	2.417207E-16	2.076308E-16
1.880000E+03	2.501289E-16	2.100948E-16
1.920000E+03	2.580390E-16	2.117300E-16
1.960000E+03	2.652702E-16	2.124125E-16
2.000000E+03	2.717163E-16	2.120933E-16
2.040000E+03	2.772017E-16	2.106814E-16
2.080000E+03	2.815504E-16	2.081025E-16
2.120000E+03	2.845910E-16	2.043035E-16
2.160000E+03	2.861274E-16	1.992317E-16
2.200000E+03	2.859185E-16	1.928249E-16
2.240000E+03	2.837210E-16	1.850445E-16
2.280000E+03	2.794079E-16	1.759505E-16
2.320000E+03	2.730375E-16	1.657311E-16
2.360000E+03	2.648581E-16	1.546835E-16
2.400000E+03	2.550749E-16	1.430607E-16
2.440000E+03	2.438970E-16	1.311008E-16
2.480000E+03	2.314841E-16	1.189976E-16
2.520000E+03	2.180375E-16	1.069510E-16
2.560000E+03	2.037460E-16	9.513531E-17
2.600000E+03	1.888349E-16	8.372172E-17
2.640000E+03	1.735193E-16	7.285406E-17
2.680000E+03	1.580290E-16	6.265887E-17
2.720000E+03	1.425996E-16	5.324033E-17
2.760000E+03	1.274514E-16	4.467193E-17
2.800000E+03	1.127997E-16	3.700184E-17
2.840000E+03	9.884063E-17	3.024959E-17
2.880000E+03	8.575044E-17	2.440882E-17
2.920000E+03	7.367610E-17	1.944817E-17
2.960000E+03	6.272349E-17	1.531282E-17
3.000000E+03	5.295430E-17	1.192964E-17
3.010000E+03	5.069944E-17	1.119142E-17
3.020000E+03	4.851838E-17	1.049319E-17
3.030000E+03	4.641261E-17	9.833904E-18
3.040000E+03	4.437911E-17	9.211564E-18
3.050000E+03	4.241896E-17	8.625080E-18
3.060000E+03	4.053098E-17	8.072904E-18
3.070000E+03	3.871473E-17	7.553675E-18
3.080000E+03	3.696725E-17	7.065569E-18
3.090000E+03	3.528949E-17	6.607566E-18
3.100000E+03	3.367845E-17	6.177923E-18
3.110000E+03	3.213398E-17	5.775477E-18
3.120000E+03	3.065437E-17	5.398817E-18
3.130000E+03	2.923735E-17	5.046477E-18
3.140000E+03	2.788239E-17	4.717338E-18
3.150000E+03	2.658718E-17	4.410013E-18
3.160000E+03	2.535047E-17	4.123347E-18
3.170000E+03	2.417042E-17	3.856137E-18
3.180000E+03	2.304520E-17	3.607230E-18
3.190000E+03	2.197336E-17	3.375583E-18
3.200000E+03	2.095302E-17	3.160129E-18
3.210000E+03	1.998195E-17	2.959800E-18
3.220000E+03	1.905903E-17	2.773738E-18
3.230000E+03	1.818221E-17	2.600969E-18
3.240000E+03	1.735011E-17	2.440663E-18
3.250000E+03	1.656101E-17	2.291988E-18
3.260000E+03	1.581296E-17	2.154120E-18
3.270000E+03	1.510481E-17	2.026388E-18
3.280000E+03	1.443440E-17	1.908025E-18
3.290000E+03	1.380049E-17	1.798416E-18
3.300000E+03	1.320141E-17	1.696920E-18
3.310000E+03	1.263512E-17	1.602894E-18
3.320000E+03	1.210042E-17	1.515827E-18
3.330000E+03	1.159577E-17	1.435195E-18
3.340000E+03	1.111950E-17	1.360494E-18
3.350000E+03	1.067019E-17	1.291269E-18
3.360000E+03	1.024645E-17	1.227104E-18
3.370000E+03	9.846974E-18	1.167612E-18
3.380000E+03	9.470492E-18	1.112432E-18
3.390000E+03	9.115787E-18	1.061232E-18
3.400000E+03	8.781590E-18	1.013693E-18
3.410000E+03	8.466694E-18	9.695211E-19
3.420000E+03	8.170279E-18	9.284840E-19
3.430000E+03	7.891048E-18	8.903106E-19
3.440000E+03	7.628175E-18	8.547962E-19
3.450000E+03	7.380689E-18	8.217333E-19
3.460000E+03	7.147769E-18	7.909431E-19
3.470000E+03	6.928463E-18	7.622403E-19
3.480000E+03	6.721973E-18	7.354670E-19
3.490000E+03	6.527630E-18	7.104878E-19
3.500000E+03	6.344649E-18	6.871604E-19
3.510000E+03	6.172446E-18	6.653711E-19
3.520000E+03	6.010207E-18	6.449885E-19
3.530000E+03	5.857439E-18	6.259193E-19
3.540000E+03	5.713495E-18	6.080595E-19
3.550000E+03	5.577842E-18	5.913216E-19
3.560000E+03	5.449976E-18	5.756244E-19
3.570000E+03	5.329324E-18	5.608829E-19
3.580000E+03	5.215572E-18	5.470430E-19
3.590000E+03	5.108261E-18	5.340363E-19
3.600000E+03	5.006966E-18	5.218009E-19
3.610000E+03	4.911437E-18	5.102958E-19
3.620000E+03	4.821247E-18	4.994614E-19
3.630000E+03	4.736092E-18	4.892532E-19
3.640000E+03	4.655685E-18	4.796302E-19
3.650000E+03	4.579759E-18	4.705531E-19
3.660000E+03	4.508062E-18	4.619855E-19
3.670000E+03	4.440359E-18	4.538944E-19
3.680000E+03	4.376467E-18	4.462516E-19
3.690000E+03	4.316212E-18	4.390312E-19
3.700000E+03	4.259393E-18	4.322056E-19
3.710000E+03	4.205963E-18	4.257628E-19
3.720000E+03	4.155696E-18	4.196734E-19
3.730000E+03	4.108519E-18	4.139245E-19
3.740000E+03	4.064285E-18	4.084956E-19
3.750000E+03	4.022889E-18	4.033708E-19
3.760000E+03	3.984296E-18	3.985427E-19
3.770000E+03	3.948303E-18	3.939858E-19
3.780000E+03	3.914877E-18	3.896934E-19
3.790000E+03	3.883956E-18	3.856560E-19
3.800000E+03	3.855379E-18	3.818543E-19
3.810000E+03	3.829121E-18	3.782832E-19
3.820000E+03	3.805125E-18	3.749351E-19
3.830000E+03	3.783274E-18	3.717958E-19
3.840000E+03	3.763484E-18	3.688555E-19
3.850000E+03	3.745768E-18	3.661142E-19
3.860000E+03	3.729985E-18	3.635563E-19
3.870000E+03	3.716119E-18	3.611788E-19
3.880000E+03	3.704097E-18	3.589740E-19
3.890000E+03	3.693876E-18	3.569363E-19
3.900000E+03	3.685414E-18	3.550607E-19
3.910000E+03	3.678616E-18	3.533377E-19
3.920000E+03	3.673444E-18	3.517623E-19
3.930000E+03	3.669894E-18	3.503332E-19
3.940000E+03	3.667904E-18	3.490441E-19
3.950000E+03	3.667413E-18	3.478880E-19
3.960000E+03	3.668390E-18	3.468612E-19
3.970000E+03	3.670779E-18	3.459579E-19
3.980000E+03	3.674551E-18	3.451737E-19
3.990000E+03	3.679678E-18	3.445048E-19
4.000000E+03	3.686137E-18	3.439480E-19
4.010000E+03	3.693846E-18	3.434939E-19
4.020000E+03	3.702785E-18	3.431390E-19
4.030000E+03	3.712936E-18	3.428806E-19
4.040000E+03	3.724283E-18	3.427151E-19
4.050000E+03	3.736785E-18	3.426369E-19
4.060000E+03	3.750401E-18	3.426412E-19
4.070000E+03	3.765123E-18	3.427247E-19
4.080000E+03	3.780916E-18	3.428820E-19
4.090000E+03	3.797777E-18	3.431115E-19
4.100000E+03	3.815670E-18	3.434078E-19
4.110000E+03	3.834595E-18	3.437692E-19
4.120000E+03	3.854522E-18	3.441922E-19
4.130000E+03	3.875422E-18	3.446722E-19
4.140000E+03	3.897296E-18	3.452079E-19
4.150000E+03	3.920119E-18	3.457966E-19
4.160000E+03	3.943898E-18	3.464368E-19
4.170000E+03	3.968583E-18	3.471225E-19
4.180000E+03	3.994184E-18	3.478542E-19
4.190000E+03	4.020654E-18	3.486258E-19
4.200000E+03	4.048039E-18	3.494403E-19
4.210000E+03	4.076296E-18	3.502939E-19
4.220000E+03	4.105445E-18	3.511875E-19
4.230000E+03	4.135410E-18	3.521148E-19
4.240000E+03	4.166246E-18	3.530817E-19
4.250000E+03	4.197876E-18	3.540822E-19
4.260000E+03	4.230353E-18	3.551221E-19
4.270000E+03	4.263602E-18	3.561973E-19
4.280000E+03	4.297575E-18	3.573054E-19
4.290000E+03	4.332327E-18	3.584532E-19
4.300000E+03	4.367745E-18	3.596342E-19
4.310000E+03	4.403885E-18	3.608545E-19
4.320000E+03	4.440629E-18	3.621065E-19
4.330000E+03	4.478034E-18	3.633973E-19
4.340000E+03	4.516050E-18	3.647232E-19
4.350000E+03	4.554625E-18	3.660812E-19
4.360000E+03	4.593776E-18	3.674734E-19
4.370000E+03	4.633476E-18	3.688962E-19
4.380000E+03	4.673770E-18	3.703514E-19
4.390000E+03	4.714592E-18	3.718322E-19
4.400000E+03	4.756014E-18	3.733402E-19
4.410000E+03	4.798037E-18	3.748709E-19
4.420000E+03	4.840657E-18	3.764205E-19
4.430000E+03	4.883864E-18	3.779821E-19
4.440000E+03	4.927690E-18	3.795527E-19
4.450000E+03	4.972082E-18	3.811235E-19
4.460000E+03	5.017067E-18	3.826888E-19
4.470000E+03	5.062630E-18	3.842410E-19
4.480000E+03	5.108755E-18	3.857734E-19
4.490000E+03	5.155378E-18	3.872752E-19
4.500000E+03	5.202475E-18	3.887399E-19
4.510000E+03	5.249979E-18	3.901603E-19
4.520000E+03	5.297899E-18	3.915345E-19
4.530000E+03	5.346114E-18	3.928532E-19
4.540000E+03	5.394589E-18	3.941166E-19
4.550000E+03	5.443284E-18	3.953243E-19
4.560000E+03	5.492067E-18	3.964724E-19
4.570000E+03	5.540948E-18	3.975699E-19
4.580000E+03	5.589793E-18	3.986157E-19
4.590000E+03	5.638565E-18	3.996183E-19
4.600000E+03	5.687136E-18	4.005819E-19
4.610000E+03	5.735520E-18	4.015184E-19
4.620000E+03	5.783642E-18	4.024348E-19
4.630000E+03	5.831378E-18	4.033365E-19
4.640000E+03	5.878700E-18	4.042303E-19
4.650000E+03	5.925590E-18	4.051246E-19
4.660000E+03	5.971981E-18	4.060247E-19
4.670000E+03	6.017749E-18	4.069252E-19
4.680000E+03	6.062987E-18	4.078353E-19
4.690000E+03	6.107694E-18	4.087582E-19
4.700000E+03	6.151766E-18	4.096849E-19
4.710000E+03	6.195214E-18	4.106147E-19
4.720000E+03	6.238062E-18	4.115477E-19
4.730000E+03	6.280169E-18	4.124678E-19
4.740000E+03	6.321567E-18	4.133710E-19
4.750000E+03	6.362190E-18	4.142474E-19
4.760000E+03	6.402084E-18	4.150898E-19
4.770000E+03	6.441252E-18	4.158889E-19
4.780000E+03	6.479647E-18	4.166345E-19
4.790000E+03	6.517344E-18	4.173216E-19
4.800000E+03	6.554310E-18	4.179404E-19
4.810000E+03	6.590641E-18	4.184920E-19
4.820000E+03	6.626313E-18	4.189666E-19
4.830000E+03	6.661371E-18	4.193618E-19
4.840000E+03	6.695868E-18	4.196791E-19
4.850000E+03	6.729916E-18	4.199230E-19
4.860000E+03	6.763512E-18	4.200949E-19
4.870000E+03	6.796719E-18	4.202041E-19
4.880000E+03	6.829530E-18	4.202536E-19
4.890000E+03	6.862137E-18	4.202622E-19
4.900000E+03	6.894539E-18	4.202407E-19
4.910000E+03	6.926786E-18	4.201984E-19
4.920000E+03	6.958860E-18	4.201436E-19
4.930000E+03	6.990875E-18	4.200949E-19
4.940000E+03	7.022791E-18	4.200526E-19
4.950000E+03	7.054634E-18	4.200224E-19
4.960000E+03	7.086494E-18	4.200162E-19
4.970000E+03	7.118318E-18	4.200282E-19
4.980000E+03	7.150121E-18	4.200585E-19
4.990000E+03	7.181844E-18	4.201055E-19
5.000000E+03	7.213554E-18	4.201684E-19
5.010000E+03	7.245244E-18	4.202448E-19
5.020000E+03	7.276838E-18	4.203304E-19
5.030000E+03	7.308304E-18	4.204142E-19
5.040000E+03	7.339609E-18	4.204874E-19
5.050000E+03	7.370648E-18	4.205407E-19
5.060000E+03	7.401445E-18	4.205670E-19
5.070000E+03	7.431952E-18	4.205589E-19
5.080000E+03	7.461980E-18	4.205053E-19
5.090000E+03	7.491548E-18	4.204018E-19
5.100000E+03	7.520609E-18	4.202447E-19
5.110000E+03	7.549042E-18	4.200305E-19
5.120000E+03	7.576799E-18	4.197530E-19
5.130000E+03	7.603838E-18	4.194111E-19
5.140000E+03	7.630114E-18	4.190073E-19
5.150000E+03	7.655508E-18	4.185299E-19
5.160000E+03	7.680046E-18	4.179798E-19
5.170000E+03	7.703535E-18	4.173522E-19
5.180000E+03	7.725990E-18	4.166517E-19
5.190000E+03	7.747279E-18	4.158822E-19
5.200000E+03	7.767346E-18	4.150593E-19
5.210000E+03	7.786120E-18	4.141984E-19
5.220000E+03	7.803534E-18	4.133224E-19
5.230000E+03	7.819368E-18	4.124525E-19
5.240000E+03	7.833682E-18	4.116165E-19
5.250000E+03	7.846311E-18	4.108354E-19
5.260000E+03	7.857161E-18	4.101374E-19
5.270000E+03	7.866032E-18	4.095294E-19
5.280000E+03	7.872802E-18	4.090249E-19
5.290000E+03	7.877352E-18	4.086418E-19
5.300000E+03	7.879570E-18	4.083867E-19
5.310000E+03	7.879349E-18	4.082705E-19
5.320000E+03	7.876518E-18	4.083041E-19
5.330000E+03	7.871162E-18	4.084997E-19
5.337598E+03	3.757673E-17	5.035419E-17
5.337998E+03	3.761424E-17	5.026633E-17
5.338198E+03	3.762656E-17	5.021703E-17
5.338398E+03	3.763479E-17	5.016439E-17
5.338598E+03	3.764300E-17	5.011184E-17
5.338998E+03	3.767424E-17	5.001983E-17
5.339598E+03	3.772657E-17	4.988712E-17
5.339798E+03	3.773658E-17	4.983686E-17
5.340598E+03	3.781348E-17	4.966734E-17
5.341198E+03	3.786311E-17	4.953485E-17
5.341398E+03	3.786551E-17	4.947938E-17
5.341598E+03	3.787024E-17	4.942596E-17
5.341798E+03	3.787200E-17	4.937030E-17
5.342799E+03	3.796521E-17	4.916198E-17
5.342999E+03	3.796228E-17	4.910355E-17
5.343999E+03	3.805278E-17	4.889611E-17
5.344199E+03	3.804854E-17	4.883754E-17
5.344399E+03	3.804443E-17	4.877947E-17
5.344799E+03	3.806466E-17	4.868579E-17
5.345799E+03	3.815018E-17	4.848013E-17
5.345999E+03	3.814769E-17	4.842450E-17
5.346399E+03	3.816434E-17	4.833029E-17
5.346599E+03	3.815590E-17	4.827089E-17
5.346799E+03	3.814921E-17	4.821301E-17
5.346999E+03	3.813828E-17	4.815224E-17
5.347199E+03	3.812741E-17	4.809183E-17
5.347400E+03	3.811781E-17	4.803233E-17
5.348000E+03	3.815151E-17	4.790138E-17
5.348199E+03	3.813745E-17	4.783968E-17
5.348999E+03	3.819535E-17	4.767767E-17
5.349199E+03	3.818131E-17	4.761712E-17
5.349599E+03	3.818930E-17	4.752230E-17
5.350999E+03	3.831476E-17	4.726252E-17
5.351199E+03	3.829512E-17	4.720015E-17
5.351599E+03	3.830244E-17	4.710805E-17
5.351799E+03	3.828327E-17	4.704671E-17
5.351999E+03	3.825918E-17	4.698233E-17
5.352199E+03	3.824059E-17	4.692206E-17
5.352399E+03	3.821891E-17	4.685997E-17
5.352599E+03	3.819595E-17	4.679732E-17
5.352799E+03	3.816928E-17	4.673248E-17
5.353000E+03	3.814031E-17	4.666633E-17
5.353200E+03	3.811175E-17	4.660102E-17
5.353800E+03	3.812844E-17	4.647390E-17
5.354000E+03	3.809787E-17	4.640827E-17
5.355200E+03	3.818360E-17	4.619448E-17
5.355800E+03	3.819771E-17	4.607089E-17
5.356200E+03	3.818894E-17	4.597786E-17
5.357000E+03	3.822593E-17	4.582776E-17
5.357200E+03	3.819378E-17	4.576548E-17
5.357400E+03	3.815910E-17	4.570199E-17
5.357600E+03	3.812248E-17	4.563767E-17
5.358801E+03	3.819997E-17	4.543545E-17
5.360401E+03	3.832589E-17	4.518907E-17
5.360600E+03	3.828508E-17	4.512622E-17
5.361200E+03	3.828980E-17	4.501198E-17
5.362800E+03	3.841306E-17	4.477539E-17
5.363400E+03	3.842038E-17	4.466887E-17
5.363801E+03	3.840089E-17	4.458529E-17
5.364401E+03	3.840462E-17	4.447936E-17
5.365401E+03	3.845381E-17	4.432845E-17
5.365601E+03	3.840773E-17	4.426994E-17
5.366001E+03	3.838449E-17	4.418956E-17
5.366201E+03	3.833565E-17	4.413060E-17
5.367001E+03	3.835649E-17	4.400757E-17
5.367401E+03	3.832978E-17	4.392902E-17
5.368201E+03	3.834800E-17	4.380980E-17
5.368801E+03	3.834111E-17	4.371188E-17
5.369001E+03	3.828579E-17	4.365396E-17
5.369202E+03	3.823000E-17	4.359647E-17
5.370202E+03	3.826726E-17	4.346432E-17
5.370602E+03	3.823631E-17	4.339099E-17
5.370802E+03	3.818116E-17	4.333625E-17
5.371002E+03	3.812280E-17	4.328071E-17
5.371202E+03	3.806369E-17	4.322526E-17
5.371602E+03	3.802652E-17	4.315243E-17
5.371802E+03	3.796780E-17	4.309820E-17
5.372002E+03	3.790393E-17	4.304240E-17
5.372202E+03	3.784254E-17	4.298814E-17
5.373601E+03	3.791658E-17	4.283793E-17
5.373801E+03	3.785141E-17	4.278419E-17
5.375002E+03	3.790211E-17	4.265834E-17
5.375202E+03	3.783332E-17	4.260549E-17
5.375402E+03	3.776182E-17	4.255193E-17
5.375602E+03	3.769347E-17	4.250013E-17
5.375802E+03	3.762513E-17	4.244912E-17
5.376002E+03	3.755536E-17	4.239795E-17
5.376402E+03	3.750655E-17	4.233364E-17
5.376802E+03	3.745554E-17	4.226942E-17
5.378002E+03	3.749864E-17	4.216101E-17
5.378202E+03	3.742746E-17	4.211294E-17
5.378402E+03	3.734891E-17	4.206246E-17
5.378602E+03	3.727419E-17	4.201392E-17
5.379202E+03	3.723940E-17	4.194364E-17
5.379802E+03	3.720820E-17	4.187631E-17
5.380002E+03	3.712639E-17	4.182779E-17
5.380403E+03	3.706530E-17	4.176955E-17
5.380603E+03	3.698130E-17	4.172182E-17
5.381603E+03	3.698941E-17	4.164163E-17
5.381803E+03	3.690755E-17	4.159648E-17
5.382003E+03	3.682156E-17	4.155034E-17
5.382603E+03	3.678017E-17	4.149061E-17
5.382803E+03	3.669389E-17	4.144615E-17
5.383403E+03	3.664850E-17	4.138754E-17
5.383603E+03	3.656048E-17	4.134386E-17
5.383803E+03	3.647038E-17	4.130027E-17
5.384003E+03	3.637882E-17	4.125665E-17
5.384203E+03	3.628443E-17	4.121257E-17
5.384403E+03	3.619124E-17	4.116936E-17
5.384803E+03	3.612094E-17	4.112252E-17
5.385604E+03	3.609416E-17	4.106770E-17
5.385803E+03	3.599630E-17	4.102562E-17
5.386003E+03	3.589694E-17	4.098356E-17
5.386203E+03	3.579754E-17	4.094236E-17
5.386803E+03	3.574063E-17	4.089526E-17
5.387003E+03	3.563942E-17	4.085491E-17
5.387403E+03	3.555855E-17	4.081210E-17
5.387603E+03	3.545573E-17	4.077298E-17
5.389203E+03	3.550555E-17	4.072487E-17
5.389603E+03	3.542227E-17	4.068659E-17
5.389803E+03	3.531633E-17	4.064970E-17
5.390603E+03	3.527569E-17	4.061478E-17
5.390803E+03	3.516868E-17	4.057745E-17
5.391404E+03	3.510414E-17	4.054846E-17
5.392404E+03	3.508206E-17	4.048559E-17
5.393004E+03	3.501536E-17	4.042482E-17
5.393604E+03	3.494816E-17	4.004519E-17
5.393804E+03	3.483623E-17	3.992584E-17
5.394004E+03	3.472208E-17	3.979265E-17
5.394604E+03	3.465412E-17	3.977848E-17
5.395004E+03	3.456158E-17	3.961068E-17
5.395404E+03	3.446941E-17	3.956195E-17
5.396204E+03	3.441987E-17	3.954112E-17
5.397205E+03	3.438525E-17	3.887675E-17
5.397404E+03	3.426662E-17	3.855716E-17
5.397805E+03	3.416885E-17	3.852379E-17
5.398204E+03	3.406934E-17	3.838716E-17
5.398404E+03	3.394734E-17	3.834898E-17
5.398604E+03	3.382655E-17	3.800976E-17
5.398804E+03	3.370770E-17	3.783100E-17
5.399404E+03	3.362162E-17	3.769394E-17
5.399604E+03	3.349387E-17	3.716811E-17
5.399804E+03	3.336593E-17	3.711732E-17
5.400004E+03	3.323711E-17	3.649991E-17
5.400204E+03	3.310740E-17	3.588970E-17
5.400404E+03	3.297757E-17	3.580141E-17
5.400604E+03	3.284756E-17	3.550002E-17
5.400804E+03	3.271594E-17	3.541772E-17
5.401404E+03	3.262427E-17	3.517408E-17
5.401604E+03	3.249217E-17	3.482918E-17
5.401804E+03	3.235917E-17	3.469177E-17
5.402005E+03	3.222608E-17	3.464597E-17
5.402605E+03	3.213152E-17	3.425123E-17
5.403405E+03	3.205730E-17	3.422924E-17
5.405005E+03	3.205897E-17	3.424325E-17
5.405205E+03	3.192115E-17	3.419791E-17
5.405605E+03	3.180193E-17	3.413187E-17
5.405805E+03	3.166231E-17	3.410059E-17
5.406005E+03	3.152249E-17	3.407420E-17
5.406205E+03	3.138176E-17	3.403573E-17
5.406805E+03	3.127933E-17	3.373658E-17
5.408006E+03	3.123373E-17	3.297030E-17
5.408206E+03	3.109037E-17	3.282244E-17
5.408406E+03	3.094681E-17	3.149598E-17
5.409206E+03	3.085917E-17	3.134084E-17
5.409406E+03	3.071356E-17	3.131880E-17
5.409606E+03	3.056774E-17	3.122930E-17
5.409806E+03	3.041953E-17	3.119572E-17
5.410006E+03	3.027186E-17	3.108211E-17
5.411005E+03	3.019929E-17	3.107977E-17
5.411605E+03	3.008721E-17	3.090614E-17
5.412005E+03	2.995608E-17	3.088669E-17
5.412605E+03	2.984284E-17	3.069121E-17
5.412806E+03	2.969130E-17	3.065626E-17
5.413006E+03	2.953946E-17	3.053694E-17
5.413206E+03	2.938668E-17	3.042686E-17
5.413806E+03	2.926967E-17	3.040809E-17
5.414006E+03	2.911558E-17	2.968421E-17
5.414206E+03	2.896054E-17	2.846634E-17
5.414606E+03	2.882301E-17	2.814559E-17
5.414806E+03	2.866670E-17	2.811834E-17
5.415006E+03	2.850948E-17	2.803701E-17
5.415206E+03	2.835205E-17	2.799652E-17
5.415406E+03	2.819662E-17	2.793800E-17
5.415606E+03	2.804171E-17	2.784969E-17
5.416006E+03	2.790094E-17	2.758584E-17
5.417206E+03	2.782673E-17	2.741454E-17
5.417606E+03	2.768466E-17	2.739644E-17
5.418006E+03	2.753918E-17	2.727132E-17
5.418206E+03	2.737732E-17	2.684235E-17
5.419007E+03	2.726493E-17	2.654221E-17
5.419607E+03	2.713339E-17	2.568225E-17
5.419807E+03	2.696807E-17	2.563187E-17
5.420007E+03	2.680258E-17	2.517374E-17
5.420207E+03	2.663988E-17	2.464681E-17
5.420407E+03	2.647394E-17	2.419186E-17
5.420607E+03	2.630704E-17	2.416244E-17
5.421207E+03	2.617148E-17	2.415201E-17
5.421807E+03	2.603902E-17	2.393704E-17
5.422407E+03	2.590664E-17	2.389792E-17
5.422606E+03	2.573898E-17	2.368819E-17
5.423007E+03	2.558544E-17	2.365702E-17
5.423206E+03	2.541578E-17	2.219908E-17
5.424207E+03	2.530664E-17	2.219064E-17
5.424407E+03	2.513682E-17	2.044378E-17
5.424607E+03	2.496761E-17	2.034734E-17
5.424807E+03	2.479436E-17	2.031168E-17
5.425207E+03	2.463908E-17	2.024912E-17
5.425407E+03	2.446983E-17	1.980079E-17
5.425807E+03	2.431155E-17	1.970167E-17
5.426007E+03	2.413873E-17	1.956872E-17
5.426407E+03	2.397965E-17	1.939296E-17
5.426607E+03	2.380395E-17	1.891359E-17
5.426807E+03	2.362959E-17	1.829981E-17
5.427007E+03	2.345652E-17	1.827049E-17
5.427207E+03	2.328016E-17	1.823491E-17
5.427407E+03	2.310664E-17	1.820757E-17
5.427607E+03	2.293216E-17	1.817880E-17
5.427807E+03	2.275668E-17	1.814885E-17
5.428007E+03	2.258021E-17	1.806242E-17
5.428807E+03	2.244328E-17	1.803343E-17
5.429007E+03	2.226683E-17	1.800772E-17
5.430008E+03	2.214236E-17	1.801201E-17
5.430608E+03	2.199119E-17	1.793860E-17
5.431208E+03	2.184087E-17	1.791986E-17
5.431408E+03	2.166570E-17	1.790001E-17
5.431608E+03	2.148564E-17	1.761013E-17
5.431808E+03	2.130612E-17	1.733548E-17
5.432008E+03	2.112636E-17	1.707107E-17
5.433608E+03	2.103686E-17	1.687763E-17
5.433808E+03	2.085586E-17	1.664557E-17
5.434408E+03	2.070155E-17	1.646055E-17
5.434609E+03	2.052382E-17	1.633103E-17
5.434809E+03	2.034194E-17	1.621656E-17
5.435408E+03	2.018464E-17	1.612646E-17
5.435808E+03	2.001275E-17	1.603897E-17
5.436208E+03	1.984353E-17	1.599107E-17
5.437008E+03	1.969660E-17	1.596314E-17
5.437208E+03	1.951354E-17	1.593733E-17
5.437608E+03	1.934369E-17	1.591986E-17
5.438208E+03	1.918511E-17	1.587925E-17
5.438408E+03	1.899864E-17	1.584489E-17
5.438608E+03	1.881431E-17	1.578334E-17
