#wls	flux	fluxerr
1.600000E+03	1.898672E-16	1.922665E-16
1.640000E+03	1.997652E-16	1.993218E-16
1.680000E+03	2.100042E-16	2.063451E-16
1.720000E+03	2.205467E-16	2.132736E-16
1.760000E+03	2.313660E-16	2.200565E-16
1.800000E+03	2.424053E-16	2.266159E-16
1.840000E+03	2.536379E-16	2.329053E-16
1.880000E+03	2.650063E-16	2.388515E-16
1.920000E+03	2.764202E-16	2.443566E-16
1.960000E+03	2.877778E-16	2.493186E-16
2.000000E+03	2.989659E-16	2.536342E-16
2.040000E+03	3.098825E-16	2.572176E-16
2.080000E+03	3.203138E-16	2.599015E-16
2.120000E+03	3.301047E-16	2.615818E-16
2.160000E+03	3.390587E-16	2.621367E-16
2.200000E+03	3.469071E-16	2.614072E-16
2.240000E+03	3.534940E-16	2.593411E-16
2.280000E+03	3.586412E-16	2.558856E-16
2.320000E+03	3.622838E-16	2.510842E-16
2.360000E+03	3.644067E-16	2.450231E-16
2.400000E+03	3.650404E-16	2.378222E-16
2.440000E+03	3.642703E-16	2.296371E-16
2.480000E+03	3.621188E-16	2.205807E-16
2.520000E+03	3.586612E-16	2.107975E-16
2.560000E+03	3.539601E-16	2.004207E-16
2.600000E+03	3.480431E-16	1.895610E-16
2.640000E+03	3.409644E-16	1.783417E-16
2.680000E+03	3.327670E-16	1.668771E-16
2.720000E+03	3.235222E-16	1.552915E-16
2.760000E+03	3.132972E-16	1.437007E-16
2.800000E+03	3.021789E-16	1.322226E-16
2.840000E+03	2.902652E-16	1.209703E-16
2.880000E+03	2.777036E-16	1.100655E-16
2.920000E+03	2.646415E-16	9.961407E-17
2.960000E+03	2.512347E-16	8.970861E-17
2.991594E+03	4.687084E-16	1.096435E-15
2.991794E+03	4.659217E-16	1.092585E-15
2.991994E+03	4.630730E-16	1.088660E-15
2.992194E+03	4.602246E-16	1.084745E-15
2.992594E+03	4.573829E-16	1.080822E-15
2.992794E+03	4.545618E-16	1.076964E-15
2.994594E+03	4.515822E-16	1.072681E-15
2.994994E+03	4.487340E-16	1.068780E-15
2.995194E+03	4.459058E-16	1.064944E-15
2.996395E+03	4.429895E-16	1.060861E-15
2.996595E+03	4.401536E-16	1.057037E-15
2.998794E+03	4.371352E-16	1.052700E-15
2.999594E+03	4.342439E-16	1.048740E-15
3.019997E+03	4.295577E-16	1.039493E-15
3.064200E+03	4.227078E-16	1.023885E-15
3.080002E+03	4.185480E-16	1.015916E-15
3.083802E+03	4.154681E-16	1.011300E-15
3.084402E+03	4.126262E-16	1.007519E-15
3.085802E+03	4.096910E-16	1.003499E-15
3.086002E+03	4.068674E-16	9.998310E-16
3.094404E+03	4.034048E-16	9.940188E-16
3.095803E+03	4.005054E-16	9.900858E-16
3.100004E+03	3.973796E-16	9.854186E-16
3.100604E+03	3.945326E-16	9.817122E-16
3.105205E+03	3.913584E-16	9.769463E-16
3.109004E+03	3.883242E-16	9.725026E-16
3.110604E+03	3.854663E-16	9.686610E-16
3.111005E+03	3.826773E-16	9.651175E-16
3.111805E+03	3.798928E-16	9.615267E-16
3.112005E+03	3.771289E-16	9.580739E-16
3.112605E+03	3.743437E-16	9.545419E-16
3.113205E+03	3.715332E-16	9.509924E-16
3.113405E+03	3.687618E-16	9.475705E-16
3.114205E+03	3.659204E-16	9.439783E-16
3.114605E+03	3.631005E-16	9.404925E-16
3.115605E+03	3.602203E-16	9.368500E-16
3.116606E+03	3.573498E-16	9.332347E-16
3.116806E+03	3.546156E-16	9.299285E-16
3.117406E+03	3.518359E-16	9.265169E-16
3.119206E+03	3.489644E-16	9.228155E-16
3.119606E+03	3.461574E-16	9.194348E-16
3.120605E+03	3.433011E-16	9.159137E-16
3.121405E+03	3.404682E-16	9.124687E-16
3.123606E+03	3.375765E-16	9.087440E-16
3.123806E+03	3.348296E-16	9.055287E-16
3.125206E+03	3.319777E-16	9.020134E-16
3.126406E+03	3.291405E-16	8.985645E-16
3.126606E+03	3.264301E-16	8.954383E-16
3.126806E+03	3.237200E-16	8.923275E-16
3.127206E+03	3.209973E-16	8.891857E-16
3.127406E+03	3.182964E-16	8.861161E-16
3.128007E+03	3.155619E-16	8.829604E-16
3.128607E+03	3.128368E-16	8.798316E-16
3.128807E+03	3.101369E-16	8.768107E-16
3.129207E+03	3.074251E-16	8.737609E-16
3.129407E+03	3.047344E-16	8.707823E-16
3.129807E+03	3.020233E-16	8.677662E-16
3.132006E+03	2.992148E-16	8.643770E-16
3.132206E+03	2.965346E-16	8.614604E-16
3.132806E+03	2.937796E-16	8.584175E-16
3.133406E+03	2.910339E-16	8.554024E-16
3.133607E+03	2.883029E-16	8.524833E-16
3.134207E+03	2.855756E-16	8.495234E-16
3.134407E+03	2.828453E-16	8.466410E-16
3.135007E+03	2.801882E-16	8.437899E-16
3.135807E+03	2.774517E-16	8.408438E-16
3.136007E+03	2.747658E-16	8.380612E-16
3.136607E+03	2.720587E-16	8.352133E-16
3.136807E+03	2.693561E-16	8.324504E-16
3.137007E+03	2.666797E-16	8.297322E-16
3.138207E+03	2.640207E-16	8.268960E-16
3.138407E+03	2.613452E-16	8.242159E-16
3.139007E+03	2.586410E-16	8.214653E-16
3.139207E+03	2.560611E-16	8.189160E-16
3.139808E+03	2.534097E-16	8.162545E-16
3.140008E+03	2.507355E-16	8.136512E-16
3.140408E+03	2.481725E-16	8.111428E-16
3.140608E+03	2.456109E-16	8.086841E-16
3.141008E+03	2.429882E-16	8.061562E-16
3.141808E+03	2.403300E-16	8.035542E-16
3.142008E+03	2.377436E-16	8.011289E-16
3.142208E+03	2.351142E-16	7.986833E-16
3.142608E+03	2.324847E-16	7.962274E-16
3.142808E+03	2.298817E-16	7.938454E-16
3.143008E+03	2.272962E-16	7.914987E-16
3.143207E+03	2.247884E-16	7.892405E-16
3.144407E+03	2.221859E-16	7.867695E-16
3.144807E+03	2.195929E-16	7.844462E-16
3.145408E+03	2.170092E-16	7.821214E-16
3.146408E+03	2.144438E-16	7.797743E-16
3.146608E+03	2.119469E-16	7.776232E-16
3.146808E+03	2.094070E-16	7.754554E-16
3.147208E+03	2.068938E-16	7.733006E-16
3.148008E+03	2.044254E-16	7.711443E-16
3.148208E+03	2.019124E-16	7.690587E-16
3.148408E+03	1.994169E-16	7.670073E-16
3.149408E+03	1.969856E-16	7.649113E-16
3.149808E+03	1.945694E-16	7.629337E-16
3.150408E+03	1.920858E-16	7.608936E-16
3.150608E+03	1.896519E-16	7.589702E-16
3.151409E+03	1.871965E-16	7.569636E-16
3.151609E+03	1.847289E-16	7.550543E-16
3.151809E+03	1.822786E-16	7.531785E-16
3.152009E+03	1.798802E-16	7.513615E-16
3.152209E+03	1.774647E-16	7.495517E-16
3.153009E+03	1.750808E-16	7.476995E-16
3.153209E+03	1.726832E-16	7.459426E-16
3.153409E+03	1.702772E-16	7.441997E-16
3.153609E+03	1.679402E-16	7.425254E-16
3.154209E+03	1.656164E-16	7.408233E-16
3.154409E+03	1.632455E-16	7.391645E-16
3.155009E+03	1.608625E-16	7.374616E-16
3.155209E+03	1.585437E-16	7.358781E-16
3.155608E+03	1.562278E-16	7.339533E-16
3.155809E+03	1.539181E-16	7.322943E-16
3.156008E+03	1.516086E-16	7.298063E-16
3.156209E+03	1.493250E-16	7.261406E-16
3.157009E+03	1.470075E-16	7.245019E-16
3.157609E+03	1.447393E-16	7.230702E-16
3.158009E+03	1.425114E-16	7.216943E-16
3.158209E+03	1.402548E-16	7.203072E-16
3.158409E+03	1.380500E-16	7.189460E-16
3.158809E+03	1.358574E-16	7.174292E-16
3.159009E+03	1.336530E-16	7.131519E-16
3.159409E+03	1.314523E-16	7.117840E-16
3.159609E+03	1.292569E-16	7.103103E-16
3.159809E+03	1.270617E-16	2.601344E-16
3.160209E+03	1.249049E-16	2.563258E-16
3.160609E+03	1.227827E-16	2.525474E-16
3.161409E+03	1.206087E-16	2.487448E-16
3.161809E+03	1.184616E-16	2.454795E-16
3.162210E+03	1.163148E-16	2.419081E-16
3.162410E+03	1.142671E-16	2.384225E-16
3.163010E+03	1.122111E-16	2.348765E-16
3.163210E+03	1.101124E-16	2.313581E-16
3.163410E+03	1.080739E-16	2.277606E-16
3.163810E+03	1.060230E-16	2.246735E-16
3.164010E+03	1.039935E-16	2.213945E-16
3.164210E+03	1.019814E-16	2.181123E-16
3.164410E+03	1.000037E-16	2.150583E-16
3.164810E+03	9.797954E-17	2.118138E-16
3.165010E+03	9.605373E-17	2.084465E-16
3.165210E+03	9.410231E-17	2.052783E-16
3.165410E+03	9.213389E-17	2.020871E-16
3.165610E+03	9.022567E-17	1.989190E-16
3.165810E+03	8.827470E-17	1.954240E-16
3.166010E+03	8.632389E-17	1.922940E-16
3.166410E+03	8.440348E-17	1.889028E-16
3.166610E+03	8.255254E-17	1.859060E-16
3.167010E+03	8.070212E-17	1.828931E-16
3.167209E+03	7.884124E-17	1.797483E-16
3.167610E+03	7.698788E-17	1.767718E-16
3.168410E+03	7.510254E-17	1.736194E-16
3.168610E+03	7.327066E-17	1.707223E-16
3.168810E+03	7.148694E-17	1.676185E-16
3.169010E+03	6.966392E-17	1.647944E-16
3.169410E+03	6.785305E-17	1.617122E-16
3.169610E+03	6.606723E-17	1.587971E-16
3.170410E+03	6.427258E-17	1.556484E-16
3.170610E+03	6.250267E-17	1.526373E-16
3.170810E+03	6.074917E-17	1.496231E-16
3.171010E+03	5.901210E-17	1.469331E-16
3.171410E+03	5.729014E-17	1.440779E-16
3.171610E+03	5.558682E-17	1.411044E-16
3.171810E+03	5.390076E-17	1.382202E-16
3.172210E+03	5.222915E-17	1.353174E-16
3.172810E+03	5.057389E-17	1.331503E-16
3.173010E+03	4.894067E-17	1.304859E-16
3.173811E+03	4.731938E-17	1.279941E-16
3.174611E+03	4.571487E-17	1.257276E-16
3.174811E+03	4.412949E-17	1.237900E-16
3.175011E+03	4.253824E-17	1.216829E-16
3.175411E+03	4.099182E-17	1.195460E-16
3.175811E+03	3.944306E-17	1.172610E-16
3.176011E+03	3.790880E-17	1.152162E-16
3.176611E+03	3.640190E-17	1.126265E-16
3.177011E+03	3.489322E-17	1.101365E-16
3.177211E+03	3.346734E-17	1.079811E-16
3.177811E+03	3.204261E-17	1.055521E-16
3.178411E+03	3.061478E-17	1.035575E-16
3.178611E+03	2.918857E-17	1.011580E-16
3.179212E+03	2.777667E-17	9.887508E-17
3.179412E+03	2.637560E-17	9.696927E-17
3.180012E+03	2.501301E-17	9.471124E-17
3.180211E+03	2.367985E-17	9.247013E-17
3.180811E+03	2.236652E-17	9.025007E-17
3.181211E+03	2.102347E-17	8.838745E-17
3.181411E+03	1.971299E-17	8.676363E-17
3.181611E+03	1.846506E-17	8.590251E-17
3.181811E+03	1.720953E-17	8.464594E-17
3.182011E+03	1.595751E-17	8.264315E-17
3.182811E+03	1.470566E-17	8.128352E-17
3.183011E+03	1.344199E-17	7.983356E-17
3.183211E+03	1.223742E-17	7.872659E-17
3.183611E+03	1.101458E-17	7.750820E-17
3.183811E+03	9.870086E-18	7.638379E-17
3.184411E+03	8.689127E-18	7.581773E-17
3.184611E+03	7.516848E-18	7.425317E-17
3.184811E+03	6.356368E-18	7.343207E-17
3.185012E+03	5.221534E-18	7.196869E-17
3.185212E+03	4.111318E-18	7.063224E-17
3.185412E+03	3.049653E-18	6.964233E-17
3.185812E+03	2.002694E-18	6.870231E-17
3.186012E+03	9.703692E-19	6.790516E-17
3.186412E+03	-4.701154E-20	6.665002E-17
3.186612E+03	-1.049743E-18	6.586120E-17
3.186812E+03	-2.037450E-18	6.525537E-17
3.187412E+03	-3.009910E-18	6.532470E-17
3.187612E+03	-3.969630E-18	6.510749E-17
3.188412E+03	-4.913702E-18	6.432312E-17
3.189212E+03	-5.842379E-18	6.359406E-17
3.189412E+03	-6.756408E-18	6.321460E-17
3.189812E+03	-7.654971E-18	6.315121E-17
3.190012E+03	-8.538514E-18	6.277423E-17
3.190412E+03	-9.406360E-18	6.201646E-17
3.190613E+03	-1.025917E-17	6.152537E-17
3.190813E+03	-1.109740E-17	6.122784E-17
3.191013E+03	-1.191934E-17	6.103569E-17
3.191412E+03	-1.272624E-17	6.080069E-17
3.191613E+03	-1.350705E-17	6.049067E-17
3.191812E+03	-1.428695E-17	5.992265E-17
3.193012E+03	-1.506662E-17	6.006550E-17
3.193612E+03	-1.585791E-17	6.011664E-17
3.194812E+03	-1.659347E-17	6.014548E-17
3.195012E+03	-1.732843E-17	5.981898E-17
3.195212E+03	-1.798996E-17	5.959639E-17
3.196012E+03	-1.865027E-17	5.958769E-17
3.196213E+03	-1.933978E-17	5.933321E-17
3.196413E+03	-1.996782E-17	5.902804E-17
3.196613E+03	-2.059837E-17	5.910166E-17
3.196813E+03	-2.122718E-17	5.969244E-17
3.197013E+03	-2.186446E-17	6.003239E-17
3.197213E+03	-2.250597E-17	6.017962E-17
3.197413E+03	-2.312185E-17	6.026249E-17
3.198013E+03	-2.365921E-17	6.007544E-17
3.198213E+03	-2.424681E-17	6.043089E-17
3.198613E+03	-2.478742E-17	6.069912E-17
3.198813E+03	-2.532461E-17	6.117582E-17
3.199013E+03	-2.582509E-17	6.169838E-17
3.199413E+03	-2.633056E-17	6.158891E-17
3.199613E+03	-2.681304E-17	6.180041E-17
3.199813E+03	-2.727077E-17	6.194504E-17
3.200013E+03	-2.774722E-17	6.204652E-17
3.200413E+03	-2.819364E-17	6.207391E-17
3.201013E+03	-2.859635E-17	6.231670E-17
3.201213E+03	-2.895588E-17	6.218845E-17
3.201613E+03	-2.933308E-17	6.228836E-17
3.202014E+03	-2.970597E-17	6.253023E-17
3.202414E+03	-3.007454E-17	6.252162E-17
3.203014E+03	-3.041301E-17	6.294202E-17
3.203214E+03	-3.071526E-17	6.318946E-17
3.203414E+03	-3.102430E-17	6.335441E-17
3.203613E+03	-3.128391E-17	6.324702E-17
3.203814E+03	-3.158098E-17	6.361231E-17
3.204213E+03	-3.186838E-17	6.362715E-17
3.205013E+03	-3.213301E-17	6.380506E-17
3.205813E+03	-3.234732E-17	6.386078E-17
3.206013E+03	-3.251649E-17	6.402701E-17
3.206213E+03	-3.270355E-17	6.411467E-17
3.206813E+03	-3.291294E-17	6.419655E-17
3.207013E+03	-3.303694E-17	6.438378E-17
3.207614E+03	-3.319009E-17	6.461005E-17
3.208414E+03	-3.329945E-17	6.476287E-17
3.208814E+03	-3.341116E-17	6.492394E-17
3.209214E+03	-3.354073E-17	6.510731E-17
3.210214E+03	-3.361481E-17	6.517684E-17
3.210414E+03	-3.370127E-17	6.528041E-17
3.211814E+03	-3.377719E-17	6.535667E-17
3.212014E+03	-3.379047E-17	6.535363E-17
3.212214E+03	-3.383352E-17	6.538082E-17
3.212814E+03	-3.386058E-17	6.533371E-17
3.213014E+03	-3.388491E-17	6.524800E-17
3.214615E+03	-3.388391E-17	6.505819E-17
3.214815E+03	-3.385466E-17	6.487379E-17
3.215215E+03	-3.379533E-17	6.469392E-17
3.215415E+03	-3.366491E-17	6.438943E-17
3.216615E+03	-3.361876E-17	6.423981E-17
3.216814E+03	-3.354109E-17	6.403216E-17
3.217014E+03	-3.344132E-17	6.370605E-17
3.217214E+03	-3.330161E-17	6.333945E-17
3.218014E+03	-3.314741E-17	6.297782E-17
3.218614E+03	-3.298335E-17	6.256157E-17
3.218814E+03	-3.281141E-17	6.211864E-17
3.219015E+03	-3.263013E-17	6.186733E-17
3.220015E+03	-3.243418E-17	6.159462E-17
3.221215E+03	-3.222700E-17	6.130454E-17
3.222815E+03	-3.200752E-17	6.101083E-17
3.223015E+03	-3.178395E-17	6.063425E-17
3.223415E+03	-3.154912E-17	6.033518E-17
3.224015E+03	-3.130221E-17	5.984769E-17
3.224215E+03	-3.104646E-17	5.950133E-17
3.227016E+03	-3.078975E-17	5.915728E-17
3.227816E+03	-3.052847E-17	5.886471E-17
3.229015E+03	-3.023977E-17	5.839648E-17
3.229215E+03	-2.989776E-17	5.788919E-17
3.229415E+03	-2.962108E-17	5.761775E-17
3.230416E+03	-2.930567E-17	5.729565E-17
3.231416E+03	-2.895476E-17	5.674092E-17
3.232016E+03	-2.860846E-17	5.634126E-17
3.234616E+03	-2.823069E-17	5.590059E-17
3.235216E+03	-2.785161E-17	5.539959E-17
3.235616E+03	-2.747524E-17	5.497013E-17
3.235816E+03	-2.708965E-17	5.451734E-17
3.236017E+03	-2.669478E-17	5.400838E-17
3.236617E+03	-2.628715E-17	5.348729E-17
3.236817E+03	-2.587118E-17	5.302181E-17
3.238017E+03	-2.544167E-17	5.244702E-17
3.239617E+03	-2.500052E-17	5.179963E-17
3.240017E+03	-2.455435E-17	5.116167E-17
3.240216E+03	-2.410143E-17	5.062193E-17
3.240416E+03	-2.364007E-17	5.019115E-17
3.240617E+03	-2.316858E-17	4.958175E-17
3.242417E+03	-2.268095E-17	4.906514E-17
3.242617E+03	-2.217919E-17	4.849969E-17
3.243217E+03	-2.164725E-17	4.796185E-17
3.243417E+03	-2.108720E-17	4.738550E-17
3.243817E+03	-2.054259E-17	4.680691E-17
3.245017E+03	-1.997850E-17	4.620030E-17
3.245217E+03	-1.941529E-17	4.560382E-17
3.245417E+03	-1.885381E-17	4.499827E-17
3.245617E+03	-1.827037E-17	4.436025E-17
3.245817E+03	-1.768444E-17	4.368021E-17
3.246417E+03	-1.713040E-17	4.308059E-17
3.247618E+03	-1.656217E-17	4.247020E-17
3.247818E+03	-1.594942E-17	4.181601E-17
3.248618E+03	-1.532169E-17	4.116158E-17
3.249618E+03	-1.472408E-17	4.055293E-17
3.249818E+03	-1.407947E-17	3.990151E-17
3.250218E+03	-1.344969E-17	3.904914E-17
3.251018E+03	-1.282423E-17	3.839266E-17
3.251218E+03	-1.219758E-17	3.787327E-17
3.251418E+03	-1.154224E-17	3.736842E-17
3.252218E+03	-1.088504E-17	3.670042E-17
3.252418E+03	-1.022224E-17	3.626830E-17
3.253218E+03	-9.545891E-18	3.587589E-17
3.253418E+03	-8.842696E-18	3.517255E-17
3.253618E+03	-8.164805E-18	3.482582E-17
3.253818E+03	-7.494561E-18	3.446588E-17
3.254018E+03	-6.752642E-18	3.365568E-17
3.255018E+03	-6.054171E-18	3.301792E-17
3.255418E+03	-5.380680E-18	3.263826E-17
3.255618E+03	-4.690114E-18	3.226999E-17
3.256418E+03	-3.963321E-18	3.184277E-17
3.256618E+03	-3.190922E-18	3.146460E-17
3.257218E+03	-2.447039E-18	3.115948E-17
3.257818E+03	-1.658218E-18	3.091523E-17
3.258619E+03	-8.761047E-19	3.074568E-17
3.259019E+03	-1.192909E-19	3.069658E-17
3.260019E+03	5.830593E-19	3.071156E-17
3.260819E+03	1.282857E-18	3.078962E-17
3.261219E+03	2.002759E-18	3.089560E-17
3.261819E+03	2.733285E-18	3.108216E-17
3.262219E+03	3.459225E-18	3.118058E-17
3.262419E+03	4.222663E-18	3.144294E-17
3.263019E+03	4.960094E-18	3.149688E-17
3.263219E+03	5.686950E-18	3.168837E-17
3.264220E+03	6.480251E-18	3.206222E-17
3.265219E+03	7.203488E-18	3.242226E-17
3.265419E+03	7.950597E-18	3.289425E-17
3.266219E+03	8.711766E-18	3.342552E-17
3.266419E+03	9.506513E-18	3.399242E-17
3.267219E+03	1.025304E-17	3.456125E-17
3.267419E+03	1.100294E-17	3.506895E-17
3.267819E+03	1.175159E-17	3.574067E-17
3.268019E+03	1.253087E-17	3.647042E-17
3.268619E+03	1.331181E-17	3.718164E-17
3.268819E+03	1.404881E-17	3.791900E-17
3.269419E+03	1.475872E-17	3.867268E-17
3.269619E+03	1.549980E-17	3.940904E-17
3.270420E+03	1.622079E-17	4.020276E-17
3.271020E+03	1.700531E-17	4.094440E-17
3.271420E+03	1.770853E-17	4.178325E-17
3.271620E+03	1.842318E-17	4.258307E-17
3.272420E+03	1.917392E-17	4.342507E-17
3.272620E+03	1.994316E-17	4.432206E-17
3.273220E+03	2.064624E-17	4.502699E-17
3.274820E+03	2.134844E-17	4.588475E-17
3.275420E+03	2.209157E-17	4.684667E-17
3.276220E+03	2.278504E-17	4.776536E-17
3.276620E+03	2.350083E-17	4.874590E-17
3.276820E+03	2.426019E-17	4.978819E-17
3.277420E+03	2.498096E-17	5.076850E-17
3.278420E+03	2.572528E-17	5.178668E-17
3.279020E+03	2.645921E-17	5.281379E-17
3.279620E+03	2.718712E-17	5.384347E-17
3.280020E+03	2.787789E-17	5.482542E-17
3.280220E+03	2.854756E-17	5.578658E-17
3.281020E+03	2.925494E-17	5.680147E-17
3.282421E+03	2.988796E-17	5.770148E-17
3.282621E+03	3.050183E-17	5.860394E-17
3.282821E+03	3.110304E-17	5.929046E-17
3.283021E+03	3.170086E-17	6.010129E-17
3.283421E+03	3.233805E-17	6.101327E-17
3.284021E+03	3.292456E-17	6.181527E-17
3.284221E+03	3.352138E-17	6.267046E-17
3.284421E+03	3.411901E-17	6.349098E-17
3.284621E+03	3.467709E-17	6.423723E-17
3.285021E+03	3.523156E-17	6.502768E-17
3.285821E+03	3.580823E-17	6.578087E-17
3.286021E+03	3.635857E-17	6.662210E-17
3.286221E+03	3.688788E-17	6.742500E-17
3.287422E+03	3.744187E-17	6.818141E-17
3.287622E+03	3.798868E-17	6.899317E-17
3.288421E+03	3.844636E-17	6.968537E-17
3.289222E+03	3.898375E-17	7.045900E-17
3.290021E+03	3.946054E-17	7.111976E-17
3.290421E+03	3.995972E-17	7.183484E-17
3.290821E+03	4.040425E-17	7.248236E-17
3.291221E+03	4.079917E-17	7.308982E-17
3.291421E+03	4.120785E-17	7.370824E-17
3.291621E+03	4.161147E-17	7.428551E-17
3.292622E+03	4.196146E-17	7.479209E-17
3.292822E+03	4.231125E-17	7.525778E-17
3.293022E+03	4.264926E-17	7.574621E-17
3.293222E+03	4.300657E-17	7.632246E-17
3.293422E+03	4.339660E-17	7.694707E-17
3.294022E+03	4.375804E-17	7.749949E-17
3.295022E+03	4.403547E-17	7.791185E-17
3.295222E+03	4.430113E-17	7.831398E-17
3.295622E+03	4.456383E-17	7.863168E-17
3.296622E+03	4.480585E-17	7.899530E-17
3.297022E+03	4.498119E-17	7.921828E-17
3.297222E+03	4.521320E-17	7.956473E-17
3.297422E+03	4.540995E-17	7.986861E-17
3.298022E+03	4.562589E-17	8.018949E-17
3.298223E+03	4.576723E-17	8.037881E-17
3.298623E+03	4.589466E-17	8.047860E-17
3.299423E+03	4.599766E-17	8.061019E-17
3.299623E+03	4.606430E-17	8.070240E-17
3.299823E+03	4.616366E-17	8.082938E-17
3.300222E+03	4.617446E-17	8.082103E-17
3.300823E+03	4.615543E-17	8.075120E-17
3.301023E+03	4.615916E-17	8.073306E-17
3.301222E+03	4.611927E-17	8.063611E-17
3.301622E+03	4.600931E-17	8.047195E-17
3.301822E+03	4.592331E-17	8.029465E-17
3.302222E+03	4.577061E-17	7.998704E-17
3.302422E+03	4.567456E-17	7.979697E-17
3.302622E+03	4.551982E-17	7.952417E-17
3.302822E+03	4.529885E-17	7.914872E-17
3.303222E+03	4.510764E-17	7.881339E-17
3.303422E+03	4.488334E-17	7.842897E-17
3.303622E+03	4.459786E-17	7.794873E-17
3.303823E+03	4.426711E-17	7.739104E-17
3.304623E+03	4.395113E-17	7.683429E-17
3.304823E+03	4.355507E-17	7.615933E-17
3.305223E+03	4.315950E-17	7.547766E-17
3.305423E+03	4.271068E-17	7.471036E-17
3.305623E+03	4.223842E-17	7.389301E-17
3.306023E+03	4.176587E-17	7.306963E-17
3.306223E+03	4.122160E-17	7.212687E-17
3.307023E+03	4.194359E-17	7.324099E-17
3.307623E+03	4.092449E-17	7.148962E-17
3.308023E+03	3.928074E-17	6.871407E-17
3.308423E+03	3.896856E-17	6.811254E-17
3.309223E+03	3.896928E-17	6.806172E-17
3.309424E+03	3.911984E-17	6.830057E-17
3.309624E+03	3.944464E-17	6.880301E-17
3.310024E+03	3.988979E-17	6.951958E-17
3.310224E+03	4.053370E-17	7.056722E-17
3.311024E+03	3.857017E-17	6.732600E-17
3.312024E+03	3.820898E-17	6.670432E-17
3.312224E+03	3.878912E-17	6.762553E-17
3.313023E+03	1.851952E-17	3.549142E-17
3.313224E+03	1.857679E-17	3.555906E-17
3.313823E+03	1.867156E-17	3.569369E-17
3.314023E+03	1.870789E-17	3.575115E-17
3.314223E+03	1.857678E-17	3.554068E-17
3.314423E+03	1.858716E-17	3.555277E-17
3.314623E+03	1.861345E-17	3.559958E-17
3.314823E+03	1.865564E-17	3.568779E-17
3.315024E+03	1.865011E-17	3.570819E-17
3.315224E+03	1.871322E-17	3.579867E-17
