#wls	flux	fluxerr
1.600000E+03	1.542819E-16	1.494711E-16
1.640000E+03	1.590011E-16	1.514860E-16
1.680000E+03	1.634729E-16	1.530610E-16
1.720000E+03	1.676686E-16	1.541776E-16
1.760000E+03	1.714908E-16	1.547574E-16
1.800000E+03	1.749360E-16	1.548130E-16
1.840000E+03	1.779019E-16	1.542724E-16
1.880000E+03	1.803644E-16	1.531382E-16
1.920000E+03	1.822667E-16	1.513892E-16
1.960000E+03	1.835247E-16	1.489869E-16
2.000000E+03	1.841166E-16	1.459505E-16
2.040000E+03	1.839818E-16	1.422719E-16
2.080000E+03	1.830692E-16	1.379567E-16
2.120000E+03	1.813399E-16	1.330248E-16
2.160000E+03	1.787461E-16	1.274950E-16
2.200000E+03	1.752195E-16	1.213768E-16
2.240000E+03	1.706965E-16	1.146904E-16
2.280000E+03	1.651863E-16	1.075100E-16
2.320000E+03	1.588013E-16	9.997567E-17
2.360000E+03	1.517498E-16	9.227727E-17
2.400000E+03	1.441954E-16	8.456109E-17
2.440000E+03	1.362856E-16	7.695060E-17
2.480000E+03	1.281229E-16	6.953192E-17
2.520000E+03	1.198167E-16	6.238549E-17
2.560000E+03	1.114539E-16	5.557025E-17
2.600000E+03	1.031264E-16	4.913934E-17
2.640000E+03	9.490799E-17	4.312847E-17
2.680000E+03	8.686917E-17	3.756458E-17
2.720000E+03	7.907587E-17	3.246540E-17
2.760000E+03	7.158088E-17	2.783673E-17
2.800000E+03	6.443333E-17	2.367735E-17
2.840000E+03	5.767473E-17	1.997822E-17
2.880000E+03	5.134283E-17	1.672464E-17
2.920000E+03	4.547015E-17	1.389643E-17
2.960000E+03	4.007992E-17	1.146763E-17
3.000000E+03	3.518589E-17	9.407665E-18
3.010000E+03	3.404029E-17	8.946299E-18
3.020000E+03	3.292507E-17	8.505089E-18
3.030000E+03	3.184135E-17	8.083784E-18
3.040000E+03	3.078726E-17	7.681373E-18
3.050000E+03	2.976378E-17	7.297575E-18
3.060000E+03	2.877039E-17	6.931739E-18
3.070000E+03	2.780717E-17	6.583365E-18
3.080000E+03	2.687243E-17	6.251542E-18
3.090000E+03	2.596735E-17	5.936048E-18
3.100000E+03	2.509026E-17	5.636010E-18
3.110000E+03	2.424165E-17	5.351055E-18
3.120000E+03	2.342089E-17	5.080571E-18
3.130000E+03	2.262693E-17	4.823868E-18
3.140000E+03	2.186007E-17	4.580561E-18
3.150000E+03	2.111926E-17	4.349986E-18
3.160000E+03	2.040431E-17	4.131675E-18
3.170000E+03	1.971457E-17	3.925082E-18
3.180000E+03	1.904945E-17	3.729680E-18
3.190000E+03	1.840867E-17	3.545021E-18
3.200000E+03	1.779158E-17	3.370599E-18
3.210000E+03	1.719728E-17	3.205869E-18
3.220000E+03	1.662574E-17	3.050476E-18
3.230000E+03	1.607606E-17	2.903903E-18
3.240000E+03	1.554790E-17	2.765760E-18
3.250000E+03	1.504065E-17	2.635616E-18
3.260000E+03	1.455345E-17	2.513015E-18
3.270000E+03	1.408620E-17	2.397642E-18
3.280000E+03	1.363784E-17	2.289038E-18
3.290000E+03	1.320822E-17	2.186908E-18
3.300000E+03	1.279676E-17	2.090896E-18
3.310000E+03	1.240249E-17	2.000599E-18
3.320000E+03	1.202523E-17	1.915758E-18
3.330000E+03	1.166441E-17	1.836062E-18
3.340000E+03	1.131932E-17	1.761187E-18
3.350000E+03	1.098943E-17	1.690856E-18
3.360000E+03	1.067423E-17	1.624804E-18
3.370000E+03	1.037321E-17	1.562779E-18
3.380000E+03	1.008587E-17	1.504543E-18
3.390000E+03	9.811732E-18	1.449870E-18
3.400000E+03	9.550201E-18	1.398529E-18
3.410000E+03	9.300712E-18	1.350303E-18
3.420000E+03	9.063074E-18	1.305041E-18
3.430000E+03	8.836521E-18	1.262516E-18
3.440000E+03	8.620773E-18	1.222582E-18
3.450000E+03	8.415342E-18	1.185069E-18
3.460000E+03	8.219864E-18	1.149834E-18
3.470000E+03	8.033794E-18	1.116717E-18
3.480000E+03	7.856721E-18	1.085583E-18
3.490000E+03	7.688341E-18	1.056317E-18
3.500000E+03	7.528188E-18	1.028791E-18
3.510000E+03	7.375995E-18	1.002906E-18
3.520000E+03	7.231184E-18	9.785295E-19
3.530000E+03	7.093533E-18	9.555799E-19
3.540000E+03	6.962601E-18	9.339520E-19
3.550000E+03	6.838055E-18	9.135584E-19
3.560000E+03	6.719582E-18	8.943186E-19
3.570000E+03	6.606751E-18	8.761402E-19
3.580000E+03	6.499432E-18	8.589734E-19
3.590000E+03	6.397299E-18	8.427457E-19
3.600000E+03	6.300051E-18	8.273904E-19
3.610000E+03	6.207587E-18	8.128696E-19
3.620000E+03	6.119571E-18	7.991164E-19
3.630000E+03	6.035804E-18	7.860842E-19
3.640000E+03	5.956096E-18	7.737294E-19
3.650000E+03	5.880268E-18	7.620111E-19
3.660000E+03	5.808149E-18	7.508912E-19
3.670000E+03	5.739573E-18	7.403337E-19
3.680000E+03	5.674435E-18	7.303113E-19
3.690000E+03	5.612628E-18	7.207984E-19
3.700000E+03	5.554002E-18	7.117638E-19
3.710000E+03	5.498604E-18	7.032033E-19
3.720000E+03	5.446232E-18	6.950816E-19
3.730000E+03	5.396883E-18	6.873894E-19
3.740000E+03	5.350456E-18	6.801058E-19
3.750000E+03	5.306896E-18	6.732165E-19
3.760000E+03	5.266239E-18	6.667192E-19
3.770000E+03	5.228291E-18	6.605835E-19
3.780000E+03	5.193087E-18	6.548079E-19
3.790000E+03	5.160610E-18	6.493854E-19
3.800000E+03	5.130717E-18	6.442932E-19
3.810000E+03	5.103433E-18	6.395306E-19
3.820000E+03	5.078741E-18	6.350916E-19
3.830000E+03	5.056540E-18	6.309602E-19
3.840000E+03	5.036771E-18	6.271262E-19
3.850000E+03	5.019498E-18	6.235945E-19
3.860000E+03	5.004581E-18	6.203455E-19
3.870000E+03	4.992041E-18	6.173796E-19
3.880000E+03	4.981821E-18	6.146877E-19
3.890000E+03	4.973902E-18	6.122657E-19
3.900000E+03	4.968266E-18	6.101098E-19
3.910000E+03	4.964819E-18	6.082066E-19
3.920000E+03	4.963542E-18	6.065529E-19
3.930000E+03	4.964459E-18	6.051500E-19
3.940000E+03	4.967517E-18	6.039900E-19
3.950000E+03	4.972660E-18	6.030651E-19
3.960000E+03	4.979875E-18	6.023725E-19
3.970000E+03	4.989110E-18	6.019045E-19
3.980000E+03	5.000352E-18	6.016584E-19
3.990000E+03	5.013590E-18	6.016316E-19
4.000000E+03	5.028814E-18	6.018213E-19
4.010000E+03	5.045935E-18	6.022158E-19
4.020000E+03	5.064944E-18	6.028123E-19
4.030000E+03	5.085834E-18	6.036086E-19
4.040000E+03	5.108598E-18	6.046020E-19
4.050000E+03	5.133189E-18	6.057854E-19
4.060000E+03	5.159564E-18	6.071518E-19
4.070000E+03	5.187718E-18	6.086988E-19
4.080000E+03	5.217606E-18	6.104193E-19
4.090000E+03	5.249227E-18	6.123110E-19
4.100000E+03	5.282537E-18	6.143667E-19
4.110000E+03	5.317535E-18	6.165841E-19
4.120000E+03	5.354181E-18	6.189562E-19
4.130000E+03	5.392432E-18	6.214760E-19
4.140000E+03	5.432289E-18	6.241412E-19
4.150000E+03	5.473712E-18	6.269447E-19
4.160000E+03	5.516702E-18	6.298846E-19
4.170000E+03	5.561177E-18	6.329489E-19
4.180000E+03	5.607138E-18	6.361357E-19
4.190000E+03	5.654503E-18	6.394332E-19
4.200000E+03	5.703316E-18	6.428444E-19
4.210000E+03	5.753494E-18	6.463577E-19
4.220000E+03	5.805040E-18	6.499716E-19
4.230000E+03	5.857823E-18	6.536693E-19
4.240000E+03	5.911889E-18	6.574545E-19
4.250000E+03	5.967105E-18	6.613106E-19
4.260000E+03	6.023517E-18	6.652416E-19
4.270000E+03	6.080988E-18	6.692308E-19
4.280000E+03	6.139421E-18	6.732668E-19
4.290000E+03	6.198865E-18	6.773537E-19
4.300000E+03	6.259124E-18	6.814694E-19
4.310000E+03	6.320244E-18	6.856184E-19
4.320000E+03	6.382021E-18	6.897780E-19
4.330000E+03	6.444500E-18	6.939527E-19
4.340000E+03	6.507573E-18	6.981304E-19
4.350000E+03	6.571129E-18	7.022990E-19
4.360000E+03	6.635158E-18	7.064571E-19
4.370000E+03	6.699597E-18	7.105979E-19
4.380000E+03	6.764493E-18	7.147258E-19
4.390000E+03	6.829728E-18	7.188282E-19
4.400000E+03	6.895405E-18	7.229152E-19
4.410000E+03	6.961520E-18	7.269859E-19
4.420000E+03	7.028073E-18	7.310394E-19
4.430000E+03	7.095062E-18	7.350749E-19
4.440000E+03	7.162548E-18	7.390980E-19
4.450000E+03	7.230477E-18	7.431025E-19
4.460000E+03	7.298914E-18	7.470947E-19
4.470000E+03	7.367866E-18	7.510754E-19
4.480000E+03	7.437344E-18	7.550456E-19
4.490000E+03	7.507299E-18	7.590009E-19
4.500000E+03	7.577741E-18	7.629433E-19
4.510000E+03	7.648622E-18	7.668692E-19
4.520000E+03	7.720018E-18	7.707882E-19
4.530000E+03	7.791818E-18	7.746912E-19
4.540000E+03	7.864037E-18	7.785826E-19
4.550000E+03	7.936693E-18	7.824673E-19
4.560000E+03	8.009670E-18	7.863374E-19
4.570000E+03	8.083058E-18	7.902053E-19
4.580000E+03	8.156741E-18	7.940636E-19
4.590000E+03	8.230742E-18	7.979187E-19
4.600000E+03	8.304945E-18	8.017632E-19
4.610000E+03	8.379447E-18	8.056104E-19
4.620000E+03	8.454207E-18	8.094600E-19
4.630000E+03	8.529110E-18	8.133041E-19
4.640000E+03	8.604189E-18	8.171487E-19
4.650000E+03	8.679481E-18	8.209995E-19
4.660000E+03	8.754953E-18	8.248549E-19
4.670000E+03	8.830491E-18	8.287054E-19
4.680000E+03	8.906298E-18	8.325702E-19
4.690000E+03	8.982430E-18	8.364541E-19
4.700000E+03	9.058784E-18	8.403466E-19
4.710000E+03	9.135420E-18	8.442518E-19
4.720000E+03	9.212404E-18	8.481737E-19
4.730000E+03	9.289554E-18	8.520936E-19
4.740000E+03	9.366939E-18	8.560151E-19
4.750000E+03	9.444459E-18	8.599269E-19
4.760000E+03	9.522187E-18	8.638333E-19
4.770000E+03	9.600112E-18	8.677311E-19
4.780000E+03	9.678136E-18	8.716096E-19
4.790000E+03	9.756336E-18	8.754746E-19
4.800000E+03	9.834616E-18	8.793164E-19
4.810000E+03	9.913056E-18	8.831421E-19
4.820000E+03	9.991558E-18	8.869434E-19
4.830000E+03	1.007011E-17	8.907206E-19
4.840000E+03	1.014870E-17	8.944748E-19
4.850000E+03	1.022742E-17	8.982160E-19
4.860000E+03	1.030616E-17	9.019384E-19
4.870000E+03	1.038492E-17	9.056446E-19
4.880000E+03	1.046356E-17	9.093292E-19
4.890000E+03	1.054229E-17	9.130124E-19
4.900000E+03	1.062098E-17	9.166890E-19
4.910000E+03	1.069961E-17	9.203622E-19
4.920000E+03	1.077806E-17	9.240260E-19
4.930000E+03	1.085641E-17	9.276914E-19
4.940000E+03	1.093453E-17	9.313512E-19
4.950000E+03	1.101237E-17	9.350062E-19
4.960000E+03	1.109003E-17	9.386654E-19
4.970000E+03	1.116734E-17	9.423190E-19
4.980000E+03	1.124427E-17	9.459651E-19
4.990000E+03	1.132067E-17	9.495919E-19
5.000000E+03	1.139660E-17	9.532048E-19
5.010000E+03	1.147201E-17	9.567994E-19
5.020000E+03	1.154672E-17	9.603612E-19
5.030000E+03	1.162069E-17	9.638844E-19
5.040000E+03	1.169385E-17	9.673626E-19
5.050000E+03	1.176602E-17	9.707801E-19
5.060000E+03	1.183725E-17	9.741393E-19
5.070000E+03	1.190746E-17	9.774337E-19
5.080000E+03	1.197637E-17	9.806380E-19
5.090000E+03	1.204400E-17	9.837556E-19
5.100000E+03	1.211027E-17	9.867812E-19
5.110000E+03	1.217500E-17	9.897008E-19
5.120000E+03	1.223809E-17	9.925107E-19
5.130000E+03	1.229947E-17	9.952085E-19
5.140000E+03	1.235904E-17	9.977929E-19
5.150000E+03	1.241661E-17	1.000254E-18
5.160000E+03	1.247220E-17	1.002605E-18
5.170000E+03	1.252548E-17	1.004827E-18
5.180000E+03	1.257647E-17	1.006936E-18
5.190000E+03	1.262496E-17	1.008928E-18
5.200000E+03	1.267085E-17	1.010812E-18
5.210000E+03	1.271405E-17	1.012596E-18
5.220000E+03	1.275446E-17	1.014290E-18
5.230000E+03	1.279172E-17	1.015888E-18
5.240000E+03	1.282599E-17	1.017420E-18
5.250000E+03	1.285706E-17	1.018892E-18
5.260000E+03	1.288482E-17	1.020316E-18
5.270000E+03	1.290906E-17	1.021697E-18
5.280000E+03	1.292970E-17	1.023049E-18
5.290000E+03	1.294665E-17	1.024388E-18
5.300000E+03	1.295985E-17	1.025726E-18
5.310000E+03	1.296924E-17	1.027078E-18
5.320000E+03	1.297463E-17	1.028447E-18
5.330000E+03	1.297625E-17	1.029866E-18
5.340000E+03	1.297381E-17	1.031326E-18
5.350000E+03	1.296730E-17	1.032839E-18
5.360000E+03	1.295699E-17	1.034435E-18
5.370000E+03	1.294262E-17	1.036102E-18
5.380000E+03	1.292450E-17	1.037868E-18
5.390000E+03	1.290255E-17	1.039731E-18
5.400000E+03	1.287695E-17	1.041705E-18
5.410000E+03	1.284767E-17	1.043784E-18
5.420000E+03	1.281507E-17	1.045992E-18
5.430000E+03	1.277912E-17	1.048320E-18
5.440000E+03	1.274008E-17	1.050779E-18
5.450000E+03	1.269784E-17	1.053347E-18
5.460000E+03	1.265269E-17	1.056031E-18
5.470000E+03	1.260467E-17	1.058819E-18
5.480000E+03	1.255384E-17	1.061695E-18
5.490000E+03	1.250051E-17	1.064666E-18
5.500000E+03	1.244464E-17	1.067704E-18
5.510000E+03	1.238632E-17	1.070791E-18
5.520000E+03	1.232576E-17	1.073922E-18
5.530000E+03	1.226294E-17	1.077068E-18
5.540000E+03	1.219822E-17	1.080233E-18
5.550000E+03	1.213145E-17	1.083377E-18
5.560000E+03	1.206313E-17	1.086515E-18
5.570000E+03	1.199336E-17	1.089631E-18
5.580000E+03	1.192225E-17	1.092709E-18
5.590000E+03	1.185003E-17	1.095745E-18
5.600000E+03	1.177693E-17	1.098734E-18
5.610000E+03	1.170304E-17	1.101664E-18
5.620000E+03	1.162881E-17	1.104556E-18
5.630000E+03	1.155421E-17	1.107389E-18
5.640000E+03	1.147967E-17	1.110185E-18
5.650000E+03	1.140513E-17	1.112925E-18
5.660000E+03	1.133102E-17	1.115637E-18
5.670000E+03	1.125748E-17	1.118324E-18
5.680000E+03	1.118457E-17	1.120983E-18
5.690000E+03	1.111254E-17	1.123630E-18
5.700000E+03	1.104152E-17	1.126275E-18
5.710000E+03	1.097176E-17	1.128937E-18
5.720000E+03	1.090337E-17	1.131624E-18
5.730000E+03	1.083635E-17	1.134335E-18
5.740000E+03	1.077102E-17	1.137100E-18
5.750000E+03	1.070747E-17	1.139928E-18
5.760000E+03	1.064567E-17	1.142816E-18
5.770000E+03	1.058581E-17	1.145782E-18
5.780000E+03	1.052807E-17	1.148846E-18
5.790000E+03	1.047252E-17	1.152013E-18
5.800000E+03	1.041910E-17	1.155276E-18
5.810000E+03	1.036797E-17	1.158650E-18
5.820000E+03	1.031930E-17	1.162153E-18
5.830000E+03	1.027313E-17	1.165785E-18
5.840000E+03	1.022939E-17	1.169535E-18
5.850000E+03	1.018822E-17	1.173416E-18
5.860000E+03	1.014965E-17	1.177427E-18
5.870000E+03	1.011384E-17	1.181580E-18
5.880000E+03	1.008080E-17	1.185873E-18
5.890000E+03	1.005043E-17	1.190290E-18
5.900000E+03	1.002288E-17	1.194842E-18
5.910000E+03	9.998039E-18	1.199511E-18
5.920000E+03	9.976254E-18	1.204334E-18
5.930000E+03	9.957196E-18	1.209267E-18
5.940000E+03	9.940979E-18	1.214320E-18
5.950000E+03	9.927711E-18	1.219501E-18
5.960000E+03	9.917273E-18	1.224793E-18
5.970000E+03	9.909654E-18	1.230190E-18
5.980000E+03	9.904952E-18	1.235704E-18
5.990000E+03	9.903034E-18	1.241314E-18
6.000000E+03	9.903990E-18	1.247032E-18
6.010000E+03	9.907563E-18	1.252823E-18
6.020000E+03	9.913950E-18	1.258713E-18
6.030000E+03	9.922886E-18	1.264668E-18
6.040000E+03	9.934562E-18	1.270712E-18
6.050000E+03	9.948586E-18	1.276797E-18
6.060000E+03	9.965144E-18	1.282947E-18
6.070000E+03	9.984068E-18	1.289143E-18
6.080000E+03	1.000531E-17	1.295379E-18
6.090000E+03	1.002856E-17	1.301621E-18
6.100000E+03	1.005401E-17	1.307893E-18
6.110000E+03	1.008123E-17	1.314143E-18
6.120000E+03	1.011040E-17	1.320396E-18
6.130000E+03	1.014108E-17	1.326598E-18
6.140000E+03	1.017319E-17	1.332742E-18
6.150000E+03	1.020653E-17	1.338805E-18
6.160000E+03	1.024101E-17	1.344780E-18
6.170000E+03	1.027619E-17	1.350606E-18
6.180000E+03	1.031194E-17	1.356276E-18
6.190000E+03	1.034807E-17	1.361764E-18
6.200000E+03	1.038445E-17	1.367057E-18
6.210000E+03	1.042100E-17	1.372148E-18
6.220000E+03	1.045787E-17	1.377060E-18
6.230000E+03	1.049539E-17	1.381839E-18
6.240000E+03	1.053360E-17	1.386494E-18
6.250000E+03	1.057270E-17	1.391055E-18
6.260000E+03	1.061292E-17	1.395553E-18
6.270000E+03	1.065432E-17	1.400000E-18
6.280000E+03	1.069715E-17	1.404432E-18
6.290000E+03	1.074151E-17	1.408863E-18
6.300000E+03	1.078750E-17	1.413312E-18
6.310000E+03	1.083542E-17	1.417814E-18
6.320000E+03	1.088523E-17	1.422370E-18
6.330000E+03	1.093723E-17	1.427021E-18
6.340000E+03	1.099127E-17	1.431747E-18
6.350000E+03	1.104752E-17	1.436571E-18
6.360000E+03	1.110597E-17	1.441495E-18
6.370000E+03	1.116681E-17	1.446541E-18
6.380000E+03	1.122989E-17	1.451694E-18
6.390000E+03	1.129523E-17	1.456955E-18
6.400000E+03	1.136270E-17	1.462309E-18
6.410000E+03	1.143198E-17	1.467714E-18
6.420000E+03	1.150291E-17	1.473153E-18
6.430000E+03	1.157550E-17	1.478626E-18
6.440000E+03	1.164976E-17	1.484137E-18
6.450000E+03	1.172568E-17	1.489686E-18
6.460000E+03	1.180346E-17	1.495298E-18
6.470000E+03	1.188330E-17	1.501000E-18
6.480000E+03	1.196521E-17	1.506794E-18
6.490000E+03	1.204904E-17	1.512663E-18
6.500000E+03	1.213518E-17	1.518656E-18
6.510000E+03	1.222367E-17	1.524777E-18
6.520000E+03	1.231435E-17	1.531009E-18
6.530000E+03	1.240745E-17	1.537378E-18
6.540000E+03	1.250301E-17	1.543891E-18
6.550000E+03	1.260086E-17	1.550527E-18
6.560000E+03	1.270104E-17	1.557292E-18
6.570000E+03	1.280399E-17	1.564239E-18
6.580000E+03	1.290914E-17	1.571298E-18
6.590000E+03	1.301694E-17	1.578523E-18
6.600000E+03	1.312744E-17	1.585920E-18
6.610000E+03	1.324023E-17	1.593441E-18
6.620000E+03	1.335580E-17	1.601142E-18
6.630000E+03	1.347374E-17	1.608974E-18
6.640000E+03	1.359453E-17	1.616994E-18
6.650000E+03	1.371776E-17	1.625152E-18
6.660000E+03	1.384369E-17	1.633478E-18
6.670000E+03	1.397236E-17	1.641975E-18
6.680000E+03	1.410357E-17	1.650618E-18
6.690000E+03	1.423734E-17	1.659410E-18
6.700000E+03	1.437395E-17	1.668380E-18
6.710000E+03	1.451320E-17	1.677504E-18
6.720000E+03	1.465510E-17	1.686782E-18
6.730000E+03	1.479969E-17	1.696217E-18
6.740000E+03	1.494700E-17	1.705808E-18
6.750000E+03	1.509705E-17	1.715559E-18
6.760000E+03	1.524988E-17	1.725469E-18
6.770000E+03	1.540523E-17	1.735508E-18
6.780000E+03	1.556341E-17	1.745709E-18
6.790000E+03	1.572444E-17	1.756071E-18
6.800000E+03	1.588807E-17	1.766563E-18
6.810000E+03	1.605460E-17	1.777216E-18
6.820000E+03	1.622376E-17	1.787998E-18
6.830000E+03	1.639557E-17	1.798909E-18
6.840000E+03	1.657004E-17	1.809948E-18
6.850000E+03	1.674719E-17	1.821113E-18
6.860000E+03	1.692734E-17	1.832436E-18
6.870000E+03	1.710989E-17	1.843851E-18
6.880000E+03	1.729516E-17	1.855388E-18
6.890000E+03	1.748314E-17	1.867047E-18
6.900000E+03	1.767354E-17	1.878791E-18
6.910000E+03	1.786667E-17	1.890654E-18
6.920000E+03	1.806254E-17	1.902634E-18
6.930000E+03	1.826083E-17	1.914693E-18
6.940000E+03	1.846151E-17	1.926830E-18
6.950000E+03	1.866494E-17	1.939079E-18
6.960000E+03	1.887077E-17	1.951402E-18
6.970000E+03	1.907897E-17	1.963796E-18
6.980000E+03	1.928954E-17	1.976258E-18
6.990000E+03	1.950247E-17	1.988788E-18
7.000000E+03	1.971736E-17	2.001344E-18
7.010000E+03	1.993495E-17	2.014000E-18
7.020000E+03	2.015446E-17	2.026676E-18
7.030000E+03	2.037626E-17	2.039409E-18
7.040000E+03	2.059992E-17	2.052156E-18
7.050000E+03	2.082541E-17	2.064913E-18
7.060000E+03	2.105311E-17	2.077717E-18
7.070000E+03	2.128257E-17	2.090525E-18
7.080000E+03	2.151333E-17	2.103290E-18
7.090000E+03	2.174621E-17	2.116092E-18
7.100000E+03	2.198074E-17	2.128885E-18
7.110000E+03	2.221643E-17	2.141622E-18
7.120000E+03	2.245369E-17	2.154340E-18
7.130000E+03	2.269200E-17	2.166992E-18
7.140000E+03	2.293177E-17	2.179617E-18
7.150000E+03	2.317249E-17	2.192165E-18
7.160000E+03	2.341458E-17	2.204677E-18
7.170000E+03	2.365702E-17	2.217058E-18
7.180000E+03	2.390021E-17	2.229348E-18
7.190000E+03	2.414459E-17	2.241591E-18
7.200000E+03	2.438910E-17	2.253689E-18
7.210000E+03	2.463364E-17	2.265639E-18
7.220000E+03	2.487866E-17	2.277485E-18
7.230000E+03	2.512408E-17	2.289228E-18
7.240000E+03	2.536929E-17	2.300817E-18
7.250000E+03	2.561474E-17	2.312304E-18
7.260000E+03	2.585981E-17	2.323641E-18
7.270000E+03	2.610439E-17	2.334831E-18
7.280000E+03	2.634896E-17	2.345930E-18
7.290000E+03	2.659286E-17	2.356895E-18
7.300000E+03	2.683658E-17	2.367786E-18
7.310000E+03	2.707944E-17	2.378564E-18
7.320000E+03	2.732135E-17	2.389241E-18
7.330000E+03	2.756343E-17	2.399937E-18
7.340000E+03	2.780438E-17	2.410567E-18
7.350000E+03	2.804537E-17	2.421256E-18
7.360000E+03	2.828570E-17	2.431975E-18
7.370000E+03	2.852597E-17	2.442802E-18
7.380000E+03	2.876677E-17	2.453821E-18
7.390000E+03	2.900744E-17	2.465006E-18
7.400000E+03	2.924928E-17	2.476499E-18
7.410000E+03	2.949232E-17	2.488333E-18
7.420000E+03	2.973726E-17	2.500600E-18
7.430000E+03	2.998417E-17	2.513333E-18
7.440000E+03	3.023312E-17	2.526566E-18
7.450000E+03	3.048488E-17	2.540388E-18
7.460000E+03	3.073815E-17	2.554710E-18
7.470000E+03	3.099297E-17	2.569555E-18
7.480000E+03	3.124868E-17	2.584882E-18
7.490000E+03	3.150607E-17	2.600762E-18
7.500000E+03	3.176446E-17	2.617140E-18
7.510000E+03	3.202314E-17	2.633952E-18
7.520000E+03	3.228213E-17	2.651186E-18
7.530000E+03	3.254145E-17	2.668821E-18
7.540000E+03	3.280033E-17	2.686766E-18
7.550000E+03	3.305954E-17	2.705051E-18
7.560000E+03	3.331750E-17	2.723505E-18
7.570000E+03	3.357577E-17	2.742215E-18
7.580000E+03	3.383352E-17	2.761069E-18
7.590000E+03	3.409070E-17	2.780017E-18
7.600000E+03	3.434643E-17	2.798943E-18
7.610000E+03	3.460146E-17	2.817864E-18
7.620000E+03	3.485570E-17	2.836733E-18
7.630000E+03	3.510905E-17	2.855506E-18
7.640000E+03	3.536052E-17	2.874071E-18
7.650000E+03	3.561083E-17	2.892459E-18
7.660000E+03	3.585893E-17	2.910564E-18
7.670000E+03	3.610642E-17	2.928501E-18
7.680000E+03	3.635041E-17	2.946022E-18
7.690000E+03	3.659338E-17	2.963327E-18
7.700000E+03	3.683419E-17	2.980322E-18
7.710000E+03	3.707166E-17	2.996915E-18
7.720000E+03	3.730645E-17	3.013166E-18
7.730000E+03	3.753825E-17	3.029064E-18
7.740000E+03	3.776678E-17	3.044599E-18
7.750000E+03	3.799173E-17	3.059760E-18
7.760000E+03	3.821375E-17	3.074617E-18
