#wls	flux	fluxerr
1.600000E+03	1.097552E-16	1.063365E-16
1.640000E+03	1.135488E-16	1.081818E-16
1.680000E+03	1.172681E-16	1.097942E-16
1.720000E+03	1.208627E-16	1.111271E-16
1.760000E+03	1.243246E-16	1.121759E-16
1.800000E+03	1.275958E-16	1.128927E-16
1.840000E+03	1.306382E-16	1.132512E-16
1.880000E+03	1.334325E-16	1.132448E-16
1.920000E+03	1.359124E-16	1.128292E-16
1.960000E+03	1.380428E-16	1.119919E-16
2.000000E+03	1.397666E-16	1.107058E-16
2.040000E+03	1.410483E-16	1.089664E-16
2.080000E+03	1.418146E-16	1.067440E-16
2.120000E+03	1.420093E-16	1.040290E-16
2.160000E+03	1.415767E-16	1.008173E-16
2.200000E+03	1.404316E-16	9.709072E-17
2.240000E+03	1.385050E-16	9.285023E-17
2.280000E+03	1.357853E-16	8.814120E-17
2.320000E+03	1.323101E-16	8.304214E-17
2.360000E+03	1.282008E-16	7.768036E-17
2.400000E+03	1.235577E-16	7.216131E-17
2.440000E+03	1.184700E-16	6.657579E-17
2.480000E+03	1.130321E-16	6.101000E-17
2.520000E+03	1.073028E-16	5.552352E-17
2.560000E+03	1.013518E-16	5.017584E-17
2.600000E+03	9.523990E-17	4.501576E-17
2.640000E+03	8.903236E-17	4.008818E-17
2.680000E+03	8.278470E-17	3.542730E-17
2.720000E+03	7.655451E-17	3.106243E-17
2.760000E+03	7.039750E-17	2.701610E-17
2.800000E+03	6.436710E-17	2.330409E-17
2.840000E+03	5.851538E-17	1.993601E-17
2.880000E+03	5.289379E-17	1.691570E-17
2.920000E+03	4.754927E-17	1.424027E-17
2.960000E+03	4.252367E-17	1.190059E-17
3.000000E+03	3.784971E-17	9.881064E-18
3.010000E+03	3.674000E-17	9.424073E-18
3.020000E+03	3.565308E-17	8.985176E-18
3.030000E+03	3.459061E-17	8.564349E-18
3.040000E+03	3.355176E-17	8.160938E-18
3.050000E+03	3.253726E-17	7.774665E-18
3.060000E+03	3.154766E-17	7.405210E-18
3.070000E+03	3.058150E-17	7.051774E-18
3.080000E+03	2.964061E-17	6.714328E-18
3.090000E+03	2.872354E-17	6.392086E-18
3.100000E+03	2.783131E-17	6.084826E-18
3.110000E+03	2.696311E-17	5.791921E-18
3.120000E+03	2.611876E-17	5.512890E-18
3.130000E+03	2.529905E-17	5.247457E-18
3.140000E+03	2.450271E-17	4.994922E-18
3.150000E+03	2.373087E-17	4.755090E-18
3.160000E+03	2.298187E-17	4.527199E-18
3.170000E+03	2.225672E-17	4.311036E-18
3.180000E+03	2.155425E-17	4.105966E-18
3.190000E+03	2.087492E-17	3.911679E-18
3.200000E+03	2.021798E-17	3.727642E-18
3.210000E+03	1.958342E-17	3.553477E-18
3.220000E+03	1.897082E-17	3.388740E-18
3.230000E+03	1.837979E-17	3.233001E-18
3.240000E+03	1.780960E-17	3.085789E-18
3.250000E+03	1.726044E-17	2.946804E-18
3.260000E+03	1.673156E-17	2.815597E-18
3.270000E+03	1.622279E-17	2.691830E-18
3.280000E+03	1.573340E-17	2.575085E-18
3.290000E+03	1.526293E-17	2.465007E-18
3.300000E+03	1.481115E-17	2.361288E-18
3.310000E+03	1.437735E-17	2.263558E-18
3.320000E+03	1.396128E-17	2.171533E-18
3.330000E+03	1.356242E-17	2.084901E-18
3.340000E+03	1.317992E-17	2.003311E-18
3.350000E+03	1.281369E-17	1.926541E-18
3.360000E+03	1.246305E-17	1.854296E-18
3.370000E+03	1.212755E-17	1.786323E-18
3.380000E+03	1.180672E-17	1.722380E-18
3.390000E+03	1.149979E-17	1.662193E-18
3.400000E+03	1.120665E-17	1.605592E-18
3.410000E+03	1.092670E-17	1.552352E-18
3.420000E+03	1.065938E-17	1.502259E-18
3.430000E+03	1.040431E-17	1.455135E-18
3.440000E+03	1.016107E-17	1.410808E-18
3.450000E+03	9.929060E-18	1.369086E-18
3.460000E+03	9.708032E-18	1.329835E-18
3.470000E+03	9.497411E-18	1.292887E-18
3.480000E+03	9.296875E-18	1.258110E-18
3.490000E+03	9.106006E-18	1.225371E-18
3.500000E+03	8.924406E-18	1.194542E-18
3.510000E+03	8.751699E-18	1.165508E-18
3.520000E+03	8.587528E-18	1.138158E-18
3.530000E+03	8.431463E-18	1.112380E-18
3.540000E+03	8.283102E-18	1.088069E-18
3.550000E+03	8.142157E-18	1.065139E-18
3.560000E+03	8.008269E-18	1.043501E-18
3.570000E+03	7.881184E-18	1.023080E-18
3.580000E+03	7.760499E-18	1.003790E-18
3.590000E+03	7.645996E-18	9.855688E-19
3.600000E+03	7.537391E-18	9.683491E-19
3.610000E+03	7.434563E-18	9.520883E-19
3.620000E+03	7.337175E-18	9.367179E-19
3.630000E+03	7.245054E-18	9.221927E-19
3.640000E+03	7.157825E-18	9.084443E-19
3.650000E+03	7.075341E-18	8.954349E-19
3.660000E+03	6.997392E-18	8.831207E-19
3.670000E+03	6.923778E-18	8.714607E-19
3.680000E+03	6.854374E-18	8.604243E-19
3.690000E+03	6.789053E-18	8.499828E-19
3.700000E+03	6.727633E-18	8.401010E-19
3.710000E+03	6.670059E-18	8.307609E-19
3.720000E+03	6.616154E-18	8.219302E-19
3.730000E+03	6.565923E-18	8.136003E-19
3.740000E+03	6.519253E-18	8.057479E-19
3.750000E+03	6.476030E-18	7.983510E-19
3.760000E+03	6.436200E-18	7.913953E-19
3.770000E+03	6.399764E-18	7.848737E-19
3.780000E+03	6.366608E-18	7.787657E-19
3.790000E+03	6.336731E-18	7.730646E-19
3.800000E+03	6.310022E-18	7.677508E-19
3.810000E+03	6.286424E-18	7.628119E-19
3.820000E+03	6.265935E-18	7.582418E-19
3.830000E+03	6.248550E-18	7.540348E-19
3.840000E+03	6.234158E-18	7.501723E-19
3.850000E+03	6.222807E-18	7.466551E-19
3.860000E+03	6.214337E-18	7.434589E-19
3.870000E+03	6.208844E-18	7.405907E-19
3.880000E+03	6.206170E-18	7.380268E-19
3.890000E+03	6.206411E-18	7.357739E-19
3.900000E+03	6.209458E-18	7.338147E-19
3.910000E+03	6.215307E-18	7.321437E-19
3.920000E+03	6.223900E-18	7.307499E-19
3.930000E+03	6.235231E-18	7.296279E-19
3.940000E+03	6.249244E-18	7.287666E-19
3.950000E+03	6.265984E-18	7.281667E-19
3.960000E+03	6.285343E-18	7.278113E-19
3.970000E+03	6.307317E-18	7.276951E-19
3.980000E+03	6.331850E-18	7.278074E-19
3.990000E+03	6.358986E-18	7.281487E-19
4.000000E+03	6.388671E-18	7.287083E-19
4.010000E+03	6.420851E-18	7.294756E-19
4.020000E+03	6.455470E-18	7.304400E-19
4.030000E+03	6.492577E-18	7.316026E-19
4.040000E+03	6.532066E-18	7.329474E-19
4.050000E+03	6.573988E-18	7.344760E-19
4.060000E+03	6.618239E-18	7.361727E-19
4.070000E+03	6.664818E-18	7.380337E-19
4.080000E+03	6.713727E-18	7.400557E-19
4.090000E+03	6.764915E-18	7.422296E-19
4.100000E+03	6.818332E-18	7.445469E-19
4.110000E+03	6.873928E-18	7.469992E-19
4.120000E+03	6.931762E-18	7.495906E-19
4.130000E+03	6.991733E-18	7.523076E-19
4.140000E+03	7.053846E-18	7.551494E-19
4.150000E+03	7.117999E-18	7.581035E-19
4.160000E+03	7.184202E-18	7.611700E-19
4.170000E+03	7.252462E-18	7.643494E-19
4.180000E+03	7.322679E-18	7.676311E-19
4.190000E+03	7.394863E-18	7.710170E-19
4.200000E+03	7.468911E-18	7.744976E-19
4.210000E+03	7.544834E-18	7.780761E-19
4.220000E+03	7.622526E-18	7.817444E-19
4.230000E+03	7.702001E-18	7.855071E-19
4.240000E+03	7.783150E-18	7.893576E-19
4.250000E+03	7.865922E-18	7.932956E-19
4.260000E+03	7.950206E-18	7.973156E-19
4.270000E+03	8.036009E-18	8.014248E-19
4.280000E+03	8.123215E-18	8.056188E-19
4.290000E+03	8.211766E-18	8.098994E-19
4.300000E+03	8.301536E-18	8.142625E-19
4.310000E+03	8.392396E-18	8.187039E-19
4.320000E+03	8.484276E-18	8.232255E-19
4.330000E+03	8.577105E-18	8.278292E-19
4.340000E+03	8.670738E-18	8.325096E-19
4.350000E+03	8.765095E-18	8.372671E-19
4.360000E+03	8.860020E-18	8.420942E-19
4.370000E+03	8.955495E-18	8.469959E-19
4.380000E+03	9.051427E-18	8.519690E-19
4.390000E+03	9.147943E-18	8.570294E-19
4.400000E+03	9.244951E-18	8.621710E-19
4.410000E+03	9.342508E-18	8.674001E-19
4.420000E+03	9.440597E-18	8.727144E-19
4.430000E+03	9.539358E-18	8.781249E-19
4.440000E+03	9.638705E-18	8.836197E-19
4.450000E+03	9.738628E-18	8.891934E-19
4.460000E+03	9.839198E-18	8.948469E-19
4.470000E+03	9.940414E-18	9.005733E-19
4.480000E+03	1.004228E-17	9.063654E-19
4.490000E+03	1.014470E-17	9.122083E-19
4.500000E+03	1.024777E-17	9.181023E-19
4.510000E+03	1.035142E-17	9.240327E-19
4.520000E+03	1.045564E-17	9.299932E-19
4.530000E+03	1.056045E-17	9.359781E-19
4.540000E+03	1.066569E-17	9.419666E-19
4.550000E+03	1.077147E-17	9.479628E-19
4.560000E+03	1.087770E-17	9.539560E-19
4.570000E+03	1.098442E-17	9.599449E-19
4.580000E+03	1.109145E-17	9.659124E-19
4.590000E+03	1.119894E-17	9.718681E-19
4.600000E+03	1.130671E-17	9.777972E-19
4.610000E+03	1.141491E-17	9.837118E-19
4.620000E+03	1.152338E-17	9.895993E-19
4.630000E+03	1.163217E-17	9.954651E-19
4.640000E+03	1.174122E-17	1.001307E-18
4.650000E+03	1.185071E-17	1.007141E-18
4.660000E+03	1.196049E-17	1.012958E-18
4.670000E+03	1.207074E-17	1.018775E-18
4.680000E+03	1.218143E-17	1.024592E-18
4.690000E+03	1.229255E-17	1.030410E-18
4.700000E+03	1.240430E-17	1.036247E-18
4.710000E+03	1.251655E-17	1.042095E-18
4.720000E+03	1.262942E-17	1.047964E-18
4.730000E+03	1.274278E-17	1.053845E-18
4.740000E+03	1.285675E-17	1.059747E-18
4.750000E+03	1.297110E-17	1.065651E-18
4.760000E+03	1.308594E-17	1.071569E-18
4.770000E+03	1.320117E-17	1.077489E-18
4.780000E+03	1.331690E-17	1.083423E-18
4.790000E+03	1.343302E-17	1.089361E-18
4.800000E+03	1.354954E-17	1.095306E-18
4.810000E+03	1.366645E-17	1.101259E-18
4.820000E+03	1.378377E-17	1.107224E-18
4.830000E+03	1.390150E-17	1.113203E-18
4.840000E+03	1.401951E-17	1.119191E-18
4.850000E+03	1.413793E-17	1.125203E-18
4.860000E+03	1.425677E-17	1.131245E-18
4.870000E+03	1.437588E-17	1.137311E-18
4.880000E+03	1.449526E-17	1.143409E-18
4.890000E+03	1.461503E-17	1.149553E-18
4.900000E+03	1.473490E-17	1.155728E-18
4.910000E+03	1.485513E-17	1.161959E-18
4.920000E+03	1.497555E-17	1.168239E-18
4.930000E+03	1.509598E-17	1.174559E-18
4.940000E+03	1.521653E-17	1.180928E-18
4.950000E+03	1.533715E-17	1.187345E-18
4.960000E+03	1.545762E-17	1.193794E-18
4.970000E+03	1.557804E-17	1.200281E-18
4.980000E+03	1.569803E-17	1.206772E-18
4.990000E+03	1.581778E-17	1.213281E-18
5.000000E+03	1.593707E-17	1.219783E-18
5.010000E+03	1.605561E-17	1.226251E-18
5.020000E+03	1.617345E-17	1.232681E-18
5.030000E+03	1.629028E-17	1.239043E-18
5.040000E+03	1.640597E-17	1.245317E-18
5.050000E+03	1.652035E-17	1.251485E-18
5.060000E+03	1.663325E-17	1.257525E-18
5.070000E+03	1.674433E-17	1.263404E-18
5.080000E+03	1.685356E-17	1.269115E-18
5.090000E+03	1.696058E-17	1.274625E-18
5.100000E+03	1.706517E-17	1.279913E-18
5.110000E+03	1.716694E-17	1.284950E-18
5.120000E+03	1.726584E-17	1.289728E-18
5.130000E+03	1.736129E-17	1.294208E-18
5.140000E+03	1.745339E-17	1.298399E-18
5.150000E+03	1.754155E-17	1.302264E-18
5.160000E+03	1.762569E-17	1.305805E-18
5.170000E+03	1.770540E-17	1.309002E-18
5.180000E+03	1.778023E-17	1.311834E-18
5.190000E+03	1.785011E-17	1.314312E-18
5.200000E+03	1.791460E-17	1.316423E-18
5.210000E+03	1.797347E-17	1.318166E-18
5.220000E+03	1.802644E-17	1.319546E-18
5.230000E+03	1.807311E-17	1.320555E-18
5.240000E+03	1.811323E-17	1.321200E-18
5.250000E+03	1.814641E-17	1.321476E-18
5.260000E+03	1.817259E-17	1.321405E-18
5.270000E+03	1.819140E-17	1.320984E-18
5.280000E+03	1.820266E-17	1.320223E-18
5.290000E+03	1.820620E-17	1.319135E-18
5.300000E+03	1.820170E-17	1.317715E-18
5.310000E+03	1.818905E-17	1.315975E-18
5.320000E+03	1.816817E-17	1.313927E-18
5.330000E+03	1.813900E-17	1.311580E-18
5.340000E+03	1.810136E-17	1.308933E-18
5.350000E+03	1.805545E-17	1.306009E-18
5.360000E+03	1.800135E-17	1.302819E-18
5.370000E+03	1.793917E-17	1.299375E-18
5.380000E+03	1.786891E-17	1.295676E-18
5.390000E+03	1.779115E-17	1.291758E-18
5.400000E+03	1.770597E-17	1.287624E-18
5.410000E+03	1.761405E-17	1.283310E-18
5.420000E+03	1.751558E-17	1.278820E-18
5.430000E+03	1.741116E-17	1.274182E-18
5.440000E+03	1.730126E-17	1.269411E-18
5.450000E+03	1.718674E-17	1.264551E-18
5.460000E+03	1.706798E-17	1.259608E-18
5.470000E+03	1.694540E-17	1.254588E-18
5.480000E+03	1.681929E-17	1.249487E-18
5.490000E+03	1.669033E-17	1.244326E-18
5.500000E+03	1.655887E-17	1.239105E-18
5.510000E+03	1.642547E-17	1.233833E-18
5.520000E+03	1.629069E-17	1.228524E-18
5.530000E+03	1.615511E-17	1.223191E-18
5.540000E+03	1.601932E-17	1.217848E-18
5.550000E+03	1.588405E-17	1.212523E-18
5.560000E+03	1.574988E-17	1.207231E-18
5.570000E+03	1.561767E-17	1.202013E-18
5.580000E+03	1.548780E-17	1.196874E-18
5.590000E+03	1.536123E-17	1.191866E-18
5.600000E+03	1.523827E-17	1.186996E-18
5.610000E+03	1.511967E-17	1.182306E-18
5.620000E+03	1.500613E-17	1.177836E-18
5.630000E+03	1.489783E-17	1.173592E-18
5.640000E+03	1.479571E-17	1.169641E-18
5.650000E+03	1.470000E-17	1.165998E-18
5.660000E+03	1.461094E-17	1.162681E-18
5.670000E+03	1.452930E-17	1.159752E-18
5.680000E+03	1.445506E-17	1.157215E-18
5.690000E+03	1.438863E-17	1.155107E-18
5.700000E+03	1.433036E-17	1.153464E-18
5.710000E+03	1.428044E-17	1.152309E-18
5.720000E+03	1.423901E-17	1.151664E-18
5.730000E+03	1.420620E-17	1.151547E-18
5.740000E+03	1.418227E-17	1.151988E-18
5.750000E+03	1.416744E-17	1.153013E-18
5.760000E+03	1.416151E-17	1.154612E-18
5.770000E+03	1.416497E-17	1.156831E-18
5.780000E+03	1.417758E-17	1.159653E-18
5.790000E+03	1.419970E-17	1.163108E-18
5.800000E+03	1.423122E-17	1.167187E-18
5.810000E+03	1.427233E-17	1.171901E-18
5.820000E+03	1.432307E-17	1.177249E-18
5.830000E+03	1.438366E-17	1.183238E-18
5.840000E+03	1.445396E-17	1.189850E-18
5.850000E+03	1.453402E-17	1.197074E-18
5.860000E+03	1.462403E-17	1.204914E-18
5.870000E+03	1.472419E-17	1.213368E-18
5.880000E+03	1.483421E-17	1.222398E-18
5.890000E+03	1.495444E-17	1.232013E-18
5.900000E+03	1.508473E-17	1.242183E-18
5.910000E+03	1.522526E-17	1.252905E-18
5.920000E+03	1.537603E-17	1.264161E-18
5.930000E+03	1.553686E-17	1.275917E-18
5.940000E+03	1.570788E-17	1.288170E-18
5.950000E+03	1.588904E-17	1.300899E-18
5.960000E+03	1.608010E-17	1.314073E-18
5.970000E+03	1.628132E-17	1.327702E-18
5.980000E+03	1.649221E-17	1.341739E-18
5.990000E+03	1.671280E-17	1.356185E-18
6.000000E+03	1.694291E-17	1.371023E-18
6.010000E+03	1.718213E-17	1.386225E-18
6.020000E+03	1.743039E-17	1.401796E-18
6.030000E+03	1.768700E-17	1.417693E-18
6.040000E+03	1.795200E-17	1.433943E-18
6.050000E+03	1.822461E-17	1.450508E-18
6.060000E+03	1.850459E-17	1.467403E-18
6.070000E+03	1.879124E-17	1.484613E-18
6.080000E+03	1.908403E-17	1.502142E-18
6.090000E+03	1.938215E-17	1.519978E-18
6.100000E+03	1.968473E-17	1.538115E-18
6.110000E+03	1.999132E-17	1.556581E-18
6.120000E+03	2.030048E-17	1.575336E-18
6.130000E+03	2.061165E-17	1.594412E-18
6.140000E+03	2.092353E-17	1.613785E-18
6.150000E+03	2.123528E-17	1.633468E-18
6.160000E+03	2.154498E-17	1.653391E-18
6.170000E+03	2.185199E-17	1.673577E-18
6.180000E+03	2.215461E-17	1.693960E-18
6.190000E+03	2.245167E-17	1.714506E-18
6.200000E+03	2.274179E-17	1.735143E-18
6.210000E+03	2.302478E-17	1.755868E-18
6.220000E+03	2.330090E-17	1.776693E-18
6.230000E+03	2.357052E-17	1.797624E-18
6.240000E+03	2.383411E-17	1.818665E-18
6.250000E+03	2.409134E-17	1.839750E-18
6.260000E+03	2.434351E-17	1.860926E-18
6.270000E+03	2.459013E-17	1.882103E-18
6.280000E+03	2.483203E-17	1.903285E-18
6.290000E+03	2.506982E-17	1.924458E-18
6.300000E+03	2.530314E-17	1.945535E-18
6.310000E+03	2.553269E-17	1.966510E-18
6.320000E+03	2.575887E-17	1.987358E-18
6.330000E+03	2.598213E-17	2.008057E-18
6.340000E+03	2.620224E-17	2.028541E-18
6.350000E+03	2.641968E-17	2.048799E-18
6.360000E+03	2.663462E-17	2.068801E-18
6.370000E+03	2.684721E-17	2.088523E-18
6.380000E+03	2.705726E-17	2.107916E-18
6.390000E+03	2.726454E-17	2.126934E-18
6.400000E+03	2.746881E-17	2.145535E-18
6.410000E+03	2.767023E-17	2.163711E-18
6.420000E+03	2.786855E-17	2.181428E-18
6.430000E+03	2.806267E-17	2.198589E-18
6.440000E+03	2.825394E-17	2.215292E-18
6.450000E+03	2.844249E-17	2.231544E-18
6.460000E+03	2.862889E-17	2.247388E-18
6.470000E+03	2.881417E-17	2.262908E-18
6.480000E+03	2.899806E-17	2.278088E-18
6.490000E+03	2.918162E-17	2.293016E-18
6.500000E+03	2.936505E-17	2.307717E-18
6.510000E+03	2.954900E-17	2.322250E-18
6.520000E+03	2.973275E-17	2.336568E-18
6.530000E+03	2.991786E-17	2.350805E-18
6.540000E+03	3.010361E-17	2.364913E-18
6.550000E+03	3.029064E-17	2.378954E-18
6.560000E+03	3.047913E-17	2.392951E-18
6.570000E+03	3.066878E-17	2.406890E-18
6.580000E+03	3.086022E-17	2.420830E-18
6.590000E+03	3.105362E-17	2.434792E-18
6.600000E+03	3.124863E-17	2.448756E-18
6.610000E+03	3.144538E-17	2.462739E-18
6.620000E+03	3.164399E-17	2.476756E-18
6.630000E+03	3.184510E-17	2.490864E-18
6.640000E+03	3.204777E-17	2.504994E-18
6.650000E+03	3.225262E-17	2.519197E-18
6.660000E+03	3.245973E-17	2.533485E-18
6.670000E+03	3.266865E-17	2.547825E-18
6.680000E+03	3.287998E-17	2.562265E-18
6.690000E+03	3.309323E-17	2.576769E-18
6.700000E+03	3.330900E-17	2.591385E-18
6.710000E+03	3.352621E-17	2.606028E-18
6.720000E+03	3.374544E-17	2.620743E-18
6.730000E+03	3.396731E-17	2.635576E-18
6.740000E+03	3.419065E-17	2.650432E-18
6.750000E+03	3.441607E-17	2.665355E-18
6.760000E+03	3.464296E-17	2.680292E-18
6.770000E+03	3.487192E-17	2.695282E-18
6.780000E+03	3.510232E-17	2.710268E-18
6.790000E+03	3.533414E-17	2.725240E-18
6.800000E+03	3.556797E-17	2.740231E-18
6.810000E+03	3.580250E-17	2.755132E-18
6.820000E+03	3.603898E-17	2.770023E-18
6.830000E+03	3.627605E-17	2.784789E-18
6.840000E+03	3.651496E-17	2.799513E-18
6.850000E+03	3.675432E-17	2.814076E-18
6.860000E+03	3.699402E-17	2.828459E-18
6.870000E+03	3.723466E-17	2.842697E-18
6.880000E+03	3.747615E-17	2.856772E-18
6.890000E+03	3.771696E-17	2.870564E-18
6.900000E+03	3.795839E-17	2.884164E-18
6.910000E+03	3.819959E-17	2.897506E-18
6.920000E+03	3.844115E-17	2.910633E-18
6.930000E+03	3.868149E-17	2.923428E-18
6.940000E+03	3.892117E-17	2.935938E-18
6.950000E+03	3.916005E-17	2.948157E-18
6.960000E+03	3.939721E-17	2.960026E-18
6.970000E+03	3.963325E-17	2.971599E-18
6.980000E+03	3.986802E-17	2.982877E-18
6.990000E+03	4.010061E-17	2.993803E-18
7.000000E+03	4.033085E-17	3.004378E-18
7.010000E+03	4.055861E-17	3.014607E-18
7.020000E+03	4.078453E-17	3.024550E-18
7.030000E+03	4.100689E-17	3.034093E-18
7.040000E+03	4.122720E-17	3.043360E-18
7.050000E+03	4.144372E-17	3.052234E-18
7.060000E+03	4.165717E-17	3.060777E-18
7.070000E+03	4.186664E-17	3.068932E-18
7.080000E+03	4.207291E-17	3.076761E-18
7.090000E+03	4.227592E-17	3.084264E-18
7.100000E+03	4.247479E-17	3.091379E-18
7.110000E+03	4.266863E-17	3.098042E-18
7.120000E+03	4.285915E-17	3.104373E-18
7.130000E+03	4.304547E-17	3.110305E-18
7.140000E+03	4.322763E-17	3.115832E-18
7.150000E+03	4.340563E-17	3.120947E-18
7.160000E+03	4.357863E-17	3.125579E-18
7.170000E+03	4.374755E-17	3.129781E-18
7.180000E+03	4.391153E-17	3.133481E-18
7.190000E+03	4.407062E-17	3.136667E-18
7.200000E+03	4.422579E-17	3.139396E-18
7.210000E+03	4.437617E-17	3.141595E-18
7.220000E+03	4.452276E-17	3.143321E-18
7.230000E+03	4.466373E-17	3.144438E-18
7.240000E+03	4.480008E-17	3.145008E-18
7.250000E+03	4.493184E-17	3.145032E-18
7.260000E+03	4.505905E-17	3.144512E-18
7.270000E+03	4.518175E-17	3.143457E-18
7.280000E+03	4.529997E-17	3.141881E-18
7.290000E+03	4.541277E-17	3.139733E-18
7.300000E+03	4.552111E-17	3.137106E-18
7.310000E+03	4.562503E-17	3.134032E-18
7.320000E+03	4.572453E-17	3.130549E-18
7.330000E+03	4.581863E-17	3.126635E-18
7.340000E+03	4.590834E-17	3.122413E-18
7.350000E+03	4.599468E-17	3.118014E-18
7.360000E+03	4.607566E-17	3.113372E-18
7.370000E+03	4.615232E-17	3.108633E-18
7.380000E+03	4.622468E-17	3.103887E-18
7.390000E+03	4.629384E-17	3.099296E-18
7.400000E+03	4.635882E-17	3.094892E-18
7.410000E+03	4.642074E-17	3.090853E-18
7.420000E+03	4.648073E-17	3.087357E-18
7.430000E+03	4.653787E-17	3.084450E-18
7.440000E+03	4.659438E-17	3.082382E-18
7.450000E+03	4.664828E-17	3.081124E-18
7.460000E+03	4.670079E-17	3.080848E-18
7.470000E+03	4.675097E-17	3.081575E-18
7.480000E+03	4.680003E-17	3.083453E-18
7.490000E+03	4.684596E-17	3.086401E-18
7.500000E+03	4.688998E-17	3.090527E-18
7.510000E+03	4.693222E-17	3.095845E-18
7.520000E+03	4.697171E-17	3.102268E-18
7.530000E+03	4.701079E-17	3.109897E-18
7.540000E+03	4.704738E-17	3.118518E-18
7.550000E+03	4.708270E-17	3.128116E-18
7.560000E+03	4.711576E-17	3.138509E-18
7.570000E+03	4.714774E-17	3.149656E-18
7.580000E+03	4.717762E-17	3.161355E-18
7.590000E+03	4.720657E-17	3.173554E-18
7.600000E+03	4.723352E-17	3.186053E-18
7.610000E+03	4.725849E-17	3.198729E-18
7.620000E+03	4.728263E-17	3.211550E-18
7.630000E+03	4.730481E-17	3.224340E-18
7.640000E+03	4.732501E-17	3.237013E-18
7.650000E+03	4.734433E-17	3.249578E-18
7.660000E+03	4.736159E-17	3.261901E-18
7.670000E+03	4.737787E-17	3.274022E-18
7.680000E+03	4.739077E-17	3.285753E-18
7.690000E+03	4.740253E-17	3.297243E-18
7.700000E+03	4.741304E-17	3.308488E-18
7.710000E+03	4.742101E-17	3.319414E-18
7.720000E+03	4.742749E-17	3.330116E-18
7.730000E+03	4.743115E-17	3.340528E-18
7.740000E+03	4.743184E-17	3.350671E-18
7.750000E+03	4.743057E-17	3.360650E-18
7.760000E+03	4.742718E-17	3.370488E-18
