#wls	flux	fluxerr
1.600000E+03	1.344691E-16	1.391810E-16
1.640000E+03	1.347181E-16	1.374521E-16
1.680000E+03	1.348681E-16	1.355678E-16
1.720000E+03	1.349026E-16	1.335161E-16
1.760000E+03	1.348165E-16	1.312968E-16
1.800000E+03	1.345915E-16	1.288982E-16
1.840000E+03	1.342314E-16	1.263307E-16
1.880000E+03	1.337266E-16	1.235922E-16
1.920000E+03	1.330562E-16	1.206719E-16
1.960000E+03	1.322008E-16	1.175622E-16
2.000000E+03	1.311430E-16	1.142585E-16
2.040000E+03	1.298759E-16	1.107678E-16
2.080000E+03	1.283528E-16	1.070642E-16
2.120000E+03	1.265603E-16	1.031535E-16
2.160000E+03	1.244755E-16	9.903568E-17
2.200000E+03	1.220567E-16	9.469844E-17
2.240000E+03	1.193099E-16	9.016961E-17
2.280000E+03	1.162352E-16	8.547302E-17
2.320000E+03	1.128699E-16	8.065961E-17
2.360000E+03	1.092616E-16	7.578527E-17
2.400000E+03	1.054649E-16	7.090679E-17
2.440000E+03	1.015415E-16	6.608150E-17
2.480000E+03	9.752752E-17	6.134526E-17
2.520000E+03	9.346667E-17	5.673571E-17
2.560000E+03	8.939268E-17	5.228062E-17
2.600000E+03	8.532512E-17	4.799675E-17
2.640000E+03	8.128577E-17	4.390009E-17
2.680000E+03	7.728961E-17	4.000091E-17
2.720000E+03	7.335452E-17	3.630924E-17
2.760000E+03	6.949359E-17	3.283094E-17
2.800000E+03	6.572101E-17	2.957075E-17
2.840000E+03	6.204994E-17	2.653133E-17
2.880000E+03	5.850081E-17	2.371663E-17
2.920000E+03	5.509068E-17	2.112708E-17
2.960000E+03	5.183570E-17	1.876079E-17
3.000000E+03	4.875733E-17	1.661575E-17
3.010000E+03	4.801794E-17	1.611363E-17
3.020000E+03	4.729071E-17	1.562478E-17
3.030000E+03	4.657585E-17	1.514910E-17
3.040000E+03	4.587460E-17	1.468674E-17
3.050000E+03	4.518710E-17	1.423754E-17
3.060000E+03	4.451353E-17	1.380132E-17
3.070000E+03	4.385410E-17	1.337789E-17
3.080000E+03	4.320901E-17	1.296708E-17
3.090000E+03	4.257849E-17	1.256872E-17
3.100000E+03	4.196364E-17	1.218287E-17
3.110000E+03	4.136465E-17	1.180932E-17
3.120000E+03	4.078090E-17	1.144764E-17
3.130000E+03	4.021425E-17	1.109808E-17
3.140000E+03	3.966331E-17	1.075999E-17
3.150000E+03	3.912912E-17	1.043339E-17
3.160000E+03	3.861264E-17	1.011826E-17
3.170000E+03	3.811333E-17	9.814188E-18
3.180000E+03	3.763212E-17	9.521141E-18
3.190000E+03	3.716853E-17	9.238724E-18
3.200000E+03	3.672345E-17	8.966895E-18
3.210000E+03	3.629708E-17	8.705431E-18
3.220000E+03	3.588901E-17	8.453964E-18
3.230000E+03	3.550009E-17	8.212436E-18
3.240000E+03	3.513056E-17	7.980633E-18
3.250000E+03	3.478063E-17	7.758342E-18
3.260000E+03	3.445056E-17	7.545352E-18
3.270000E+03	3.414059E-17	7.341457E-18
3.280000E+03	3.385100E-17	7.146450E-18
3.290000E+03	3.358153E-17	6.960016E-18
3.300000E+03	3.333358E-17	6.782181E-18
3.310000E+03	3.310642E-17	6.612522E-18
3.320000E+03	3.290093E-17	6.450950E-18
3.330000E+03	3.271697E-17	6.297168E-18
3.340000E+03	3.255546E-17	6.151080E-18
3.350000E+03	3.241680E-17	6.012484E-18
3.360000E+03	3.230049E-17	5.881009E-18
3.370000E+03	3.220796E-17	5.756641E-18
3.380000E+03	3.213876E-17	5.639020E-18
3.390000E+03	3.209388E-17	5.528044E-18
3.400000E+03	3.207386E-17	5.423526E-18
3.410000E+03	3.207838E-17	5.325133E-18
3.420000E+03	3.210894E-17	5.232839E-18
3.430000E+03	3.216526E-17	5.146325E-18
3.440000E+03	3.224803E-17	5.065426E-18
3.450000E+03	3.235793E-17	4.989979E-18
3.460000E+03	3.249524E-17	4.919764E-18
3.470000E+03	3.266115E-17	4.854694E-18
3.480000E+03	3.285560E-17	4.794496E-18
3.490000E+03	3.307940E-17	4.739035E-18
3.500000E+03	3.333297E-17	4.688120E-18
3.510000E+03	3.361761E-17	4.641685E-18
3.520000E+03	3.393338E-17	4.599494E-18
3.530000E+03	3.428079E-17	4.561380E-18
3.540000E+03	3.466119E-17	4.527291E-18
3.550000E+03	3.507428E-17	4.496966E-18
3.560000E+03	3.552103E-17	4.470311E-18
3.570000E+03	3.600238E-17	4.447238E-18
3.580000E+03	3.651845E-17	4.427559E-18
3.590000E+03	3.707017E-17	4.411198E-18
3.600000E+03	3.765760E-17	4.397981E-18
3.610000E+03	3.828119E-17	4.387792E-18
3.620000E+03	3.894175E-17	4.380570E-18
3.630000E+03	3.963875E-17	4.376112E-18
3.640000E+03	4.037329E-17	4.374414E-18
3.650000E+03	4.114510E-17	4.375331E-18
3.660000E+03	4.195420E-17	4.378772E-18
3.670000E+03	4.280007E-17	4.384603E-18
3.680000E+03	4.368290E-17	4.392781E-18
3.690000E+03	4.460232E-17	4.403221E-18
3.700000E+03	4.555728E-17	4.415792E-18
3.710000E+03	4.654748E-17	4.430448E-18
3.720000E+03	4.757196E-17	4.447097E-18
3.730000E+03	4.862905E-17	4.465596E-18
3.740000E+03	4.971880E-17	4.485970E-18
3.750000E+03	5.083861E-17	4.508015E-18
3.760000E+03	5.198712E-17	4.531650E-18
3.770000E+03	5.316327E-17	4.556824E-18
3.780000E+03	5.436374E-17	4.583298E-18
3.790000E+03	5.558757E-17	4.611040E-18
3.800000E+03	5.683154E-17	4.639827E-18
3.810000E+03	5.809381E-17	4.669556E-18
3.820000E+03	5.937190E-17	4.700066E-18
3.830000E+03	6.066259E-17	4.731138E-18
3.840000E+03	6.196314E-17	4.762587E-18
3.850000E+03	6.327125E-17	4.794261E-18
3.860000E+03	6.458347E-17	4.825911E-18
3.870000E+03	6.589747E-17	4.857366E-18
3.880000E+03	6.720976E-17	4.888363E-18
3.890000E+03	6.851809E-17	4.918719E-18
3.900000E+03	6.981972E-17	4.948205E-18
3.910000E+03	7.111203E-17	4.976591E-18
3.920000E+03	7.239322E-17	5.003689E-18
3.930000E+03	7.366042E-17	5.029228E-18
3.940000E+03	7.491231E-17	5.053028E-18
3.950000E+03	7.614786E-17	5.074918E-18
3.960000E+03	7.736436E-17	5.094603E-18
3.970000E+03	7.856280E-17	5.112021E-18
3.980000E+03	7.974183E-17	5.126948E-18
3.990000E+03	8.090114E-17	5.139219E-18
4.000000E+03	8.204151E-17	5.148732E-18
4.010000E+03	8.316266E-17	5.155314E-18
4.020000E+03	8.426684E-17	5.158945E-18
4.030000E+03	8.535521E-17	5.159540E-18
4.040000E+03	8.642927E-17	5.157031E-18
4.050000E+03	8.749007E-17	5.151331E-18
4.060000E+03	8.854118E-17	5.142501E-18
4.070000E+03	8.958497E-17	5.130533E-18
4.080000E+03	9.062402E-17	5.115434E-18
4.090000E+03	9.166118E-17	5.097218E-18
4.100000E+03	9.269948E-17	5.075910E-18
4.110000E+03	9.374298E-17	5.051576E-18
4.120000E+03	9.479437E-17	5.024190E-18
4.130000E+03	9.585817E-17	4.993802E-18
4.140000E+03	9.693833E-17	4.960403E-18
4.150000E+03	9.803908E-17	4.923960E-18
4.160000E+03	9.916493E-17	4.884413E-18
4.170000E+03	1.003207E-16	4.841672E-18
4.180000E+03	1.015123E-16	4.795652E-18
4.190000E+03	1.027435E-16	4.746116E-18
4.200000E+03	1.040209E-16	4.692919E-18
4.210000E+03	1.053516E-16	4.635891E-18
4.220000E+03	1.067400E-16	4.574728E-18
4.230000E+03	1.081937E-16	4.509249E-18
4.240000E+03	1.097187E-16	4.439215E-18
4.250000E+03	1.113227E-16	4.364515E-18
4.260000E+03	1.130116E-16	4.285048E-18
4.270000E+03	1.147912E-16	4.200857E-18
4.280000E+03	1.166697E-16	4.112297E-18
4.290000E+03	1.186501E-16	4.019843E-18
4.300000E+03	1.207391E-16	3.924556E-18
4.310000E+03	1.229397E-16	3.827952E-18
4.320000E+03	1.252542E-16	3.732316E-18
4.330000E+03	1.276818E-16	3.640839E-18
4.340000E+03	1.302215E-16	3.557917E-18
4.350000E+03	1.328682E-16	3.489202E-18
4.360000E+03	1.356120E-16	3.441624E-18
4.370000E+03	1.384433E-16	3.423286E-18
4.380000E+03	1.413431E-16	3.442597E-18
4.390000E+03	1.442914E-16	3.507249E-18
4.400000E+03	1.472869E-16	3.618990E-18
4.410000E+03	1.503523E-16	3.773471E-18
4.420000E+03	1.535051E-16	3.964557E-18
4.430000E+03	1.567661E-16	4.185761E-18
4.440000E+03	1.601494E-16	4.430756E-18
4.450000E+03	1.636673E-16	4.693883E-18
4.460000E+03	1.673345E-16	4.970439E-18
4.470000E+03	1.711598E-16	5.256430E-18
4.480000E+03	1.751517E-16	5.548641E-18
4.490000E+03	1.793179E-16	5.844485E-18
4.500000E+03	1.836645E-16	6.141888E-18
4.510000E+03	1.881949E-16	6.439131E-18
4.520000E+03	1.929148E-16	6.734940E-18
4.530000E+03	1.978272E-16	7.028254E-18
4.540000E+03	2.029316E-16	7.318172E-18
4.550000E+03	2.082261E-16	7.603967E-18
4.560000E+03	2.137110E-16	7.885215E-18
4.570000E+03	2.193826E-16	8.161580E-18
4.580000E+03	2.252309E-16	8.432720E-18
4.590000E+03	2.312517E-16	8.698741E-18
4.600000E+03	2.374270E-16	8.959509E-18
4.610000E+03	2.437444E-16	9.215371E-18
4.620000E+03	2.501854E-16	9.466782E-18
4.630000E+03	2.567256E-16	9.714317E-18
4.640000E+03	2.633384E-16	9.958868E-18
4.650000E+03	2.699880E-16	1.020139E-17
4.660000E+03	2.766445E-16	1.044349E-17
4.670000E+03	2.832608E-16	1.068654E-17
4.680000E+03	2.897966E-16	1.093255E-17
4.690000E+03	2.962034E-16	1.118352E-17
4.700000E+03	3.024331E-16	1.144159E-17
4.710000E+03	3.084305E-16	1.170867E-17
4.720000E+03	3.141460E-16	1.198660E-17
4.730000E+03	3.195392E-16	1.227604E-17
4.740000E+03	3.246114E-16	1.257632E-17
4.750000E+03	3.293590E-16	1.288565E-17
4.760000E+03	3.337923E-16	1.320222E-17
4.770000E+03	3.379219E-16	1.352389E-17
4.780000E+03	3.417579E-16	1.384831E-17
4.790000E+03	3.453190E-16	1.417340E-17
4.800000E+03	3.486185E-16	1.449693E-17
4.810000E+03	3.516736E-16	1.481700E-17
4.820000E+03	3.545008E-16	1.513192E-17
4.830000E+03	3.571161E-16	1.544024E-17
4.840000E+03	3.595306E-16	1.574060E-17
4.850000E+03	3.617647E-16	1.603235E-17
4.860000E+03	3.638187E-16	1.631423E-17
4.870000E+03	3.657093E-16	1.658597E-17
4.880000E+03	3.674405E-16	1.684696E-17
4.890000E+03	3.690218E-16	1.709700E-17
4.900000E+03	3.704497E-16	1.733544E-17
4.910000E+03	3.717309E-16	1.756216E-17
4.920000E+03	3.728666E-16	1.777689E-17
4.930000E+03	3.738539E-16	1.797911E-17
4.940000E+03	3.746965E-16	1.816866E-17
4.950000E+03	3.753902E-16	1.834499E-17
4.960000E+03	3.759387E-16	1.850788E-17
4.970000E+03	3.763342E-16	1.865658E-17
4.980000E+03	3.765848E-16	1.879110E-17
4.990000E+03	3.766842E-16	1.891074E-17
5.000000E+03	3.766382E-16	1.901547E-17
5.010000E+03	3.764461E-16	1.910493E-17
5.020000E+03	3.761160E-16	1.917928E-17
5.030000E+03	3.756534E-16	1.923862E-17
5.040000E+03	3.750574E-16	1.928275E-17
5.050000E+03	3.743397E-16	1.931218E-17
5.060000E+03	3.735091E-16	1.932732E-17
5.070000E+03	3.725757E-16	1.932867E-17
5.080000E+03	3.715428E-16	1.931642E-17
5.090000E+03	3.704291E-16	1.929158E-17
5.100000E+03	3.692467E-16	1.925480E-17
5.110000E+03	3.679963E-16	1.920619E-17
5.120000E+03	3.667011E-16	1.914700E-17
5.130000E+03	3.653653E-16	1.907754E-17
5.140000E+03	3.639999E-16	1.899849E-17
5.150000E+03	3.626152E-16	1.891051E-17
5.160000E+03	3.612166E-16	1.881407E-17
5.170000E+03	3.598157E-16	1.871000E-17
5.180000E+03	3.584152E-16	1.859870E-17
5.190000E+03	3.570199E-16	1.848076E-17
5.200000E+03	3.556328E-16	1.835671E-17
5.210000E+03	3.542479E-16	1.822665E-17
5.220000E+03	3.528719E-16	1.809137E-17
5.230000E+03	3.514987E-16	1.795104E-17
5.240000E+03	3.501203E-16	1.780576E-17
5.250000E+03	3.487309E-16	1.765573E-17
5.260000E+03	3.473228E-16	1.750112E-17
5.270000E+03	3.458835E-16	1.734182E-17
5.280000E+03	3.444062E-16	1.717807E-17
5.290000E+03	3.428728E-16	1.700955E-17
5.300000E+03	3.412747E-16	1.683643E-17
5.310000E+03	3.395926E-16	1.665841E-17
5.320000E+03	3.378175E-16	1.647569E-17
5.330000E+03	3.359335E-16	1.628822E-17
5.340000E+03	3.339290E-16	1.609615E-17
5.350000E+03	3.317930E-16	1.589973E-17
5.360000E+03	3.295093E-16	1.569898E-17
5.370000E+03	3.270733E-16	1.549453E-17
5.380000E+03	3.244758E-16	1.528680E-17
5.390000E+03	3.217131E-16	1.507649E-17
5.400000E+03	3.187776E-16	1.486412E-17
5.410000E+03	3.156777E-16	1.465095E-17
5.420000E+03	3.124086E-16	1.443756E-17
5.430000E+03	3.089782E-16	1.422509E-17
5.440000E+03	3.053976E-16	1.401472E-17
5.450000E+03	3.016659E-16	1.380694E-17
5.460000E+03	2.977856E-16	1.360230E-17
5.470000E+03	2.937629E-16	1.340134E-17
5.480000E+03	2.896329E-16	1.320577E-17
5.490000E+03	2.854295E-16	1.301706E-17
5.500000E+03	2.811831E-16	1.283616E-17
5.510000E+03	2.769289E-16	1.266352E-17
5.520000E+03	2.727028E-16	1.249952E-17
5.530000E+03	2.685351E-16	1.234429E-17
5.540000E+03	2.644665E-16	1.219855E-17
5.550000E+03	2.605257E-16	1.206257E-17
5.560000E+03	2.567432E-16	1.193681E-17
5.570000E+03	2.531527E-16	1.182207E-17
5.580000E+03	2.497784E-16	1.171879E-17
5.590000E+03	2.466470E-16	1.162766E-17
5.600000E+03	2.437825E-16	1.154936E-17
5.610000E+03	2.412035E-16	1.148435E-17
5.620000E+03	2.389275E-16	1.143315E-17
5.630000E+03	2.369658E-16	1.139599E-17
5.640000E+03	2.353262E-16	1.137297E-17
5.650000E+03	2.340146E-16	1.136411E-17
5.660000E+03	2.330286E-16	1.136899E-17
5.670000E+03	2.323711E-16	1.138748E-17
5.680000E+03	2.320295E-16	1.141863E-17
5.690000E+03	2.319970E-16	1.146181E-17
5.700000E+03	2.322589E-16	1.151593E-17
5.710000E+03	2.327950E-16	1.157966E-17
5.720000E+03	2.335898E-16	1.165190E-17
5.730000E+03	2.346183E-16	1.173107E-17
5.740000E+03	2.358589E-16	1.181578E-17
5.750000E+03	2.372862E-16	1.190448E-17
5.760000E+03	2.388770E-16	1.199573E-17
5.770000E+03	2.406032E-16	1.208786E-17
5.780000E+03	2.424450E-16	1.217965E-17
5.790000E+03	2.443734E-16	1.226940E-17
5.800000E+03	2.463691E-16	1.235590E-17
5.810000E+03	2.484149E-16	1.243803E-17
5.820000E+03	2.504935E-16	1.251462E-17
5.830000E+03	2.525874E-16	1.258446E-17
5.840000E+03	2.546869E-16	1.264670E-17
5.850000E+03	2.567855E-16	1.270057E-17
5.860000E+03	2.588701E-16	1.274494E-17
5.870000E+03	2.609387E-16	1.277916E-17
5.880000E+03	2.629909E-16	1.280262E-17
5.890000E+03	2.650196E-16	1.281430E-17
5.900000E+03	2.670303E-16	1.281376E-17
5.910000E+03	2.690240E-16	1.280032E-17
5.920000E+03	2.709963E-16	1.277299E-17
5.930000E+03	2.729519E-16	1.273122E-17
5.940000E+03	2.748961E-16	1.267447E-17
5.950000E+03	2.768251E-16	1.260179E-17
5.960000E+03	2.787439E-16	1.251266E-17
5.970000E+03	2.806542E-16	1.240645E-17
5.980000E+03	2.825543E-16	1.228242E-17
5.990000E+03	2.844451E-16	1.213999E-17
6.000000E+03	2.863270E-16	1.197863E-17
6.010000E+03	2.881963E-16	1.179771E-17
6.020000E+03	2.900556E-16	1.159692E-17
6.030000E+03	2.918999E-16	1.137576E-17
6.040000E+03	2.937269E-16	1.113398E-17
6.050000E+03	2.955263E-16	1.087119E-17
6.060000E+03	2.973008E-16	1.058780E-17
6.070000E+03	2.990343E-16	1.028390E-17
6.080000E+03	3.007270E-16	9.960721E-18
6.090000E+03	3.023599E-16	9.619578E-18
6.100000E+03	3.039298E-16	9.263384E-18
6.110000E+03	3.054137E-16	8.895824E-18
6.120000E+03	3.068006E-16	8.522839E-18
6.130000E+03	3.080734E-16	8.152582E-18
6.140000E+03	3.092081E-16	7.796009E-18
6.150000E+03	3.101777E-16	7.467467E-18
6.160000E+03	3.109588E-16	7.185012E-18
6.170000E+03	3.115209E-16	6.969495E-18
6.180000E+03	3.118297E-16	6.842797E-18
6.190000E+03	3.118473E-16	6.824359E-18
6.200000E+03	3.115702E-16	6.919191E-18
6.210000E+03	3.110348E-16	7.111572E-18
6.220000E+03	3.102669E-16	7.380384E-18
6.230000E+03	3.093042E-16	7.704659E-18
6.240000E+03	3.081695E-16	8.065361E-18
6.250000E+03	3.068862E-16	8.446807E-18
6.260000E+03	3.054831E-16	8.836941E-18
6.270000E+03	3.039781E-16	9.226556E-18
6.280000E+03	3.023912E-16	9.609097E-18
6.290000E+03	3.007362E-16	9.979894E-18
6.300000E+03	2.990251E-16	1.033582E-17
6.310000E+03	2.972804E-16	1.067532E-17
6.320000E+03	2.955030E-16	1.099702E-17
6.330000E+03	2.937088E-16	1.130077E-17
6.340000E+03	2.919003E-16	1.158638E-17
6.350000E+03	2.900912E-16	1.185448E-17
6.360000E+03	2.882823E-16	1.210544E-17
6.370000E+03	2.864815E-16	1.234006E-17
6.380000E+03	2.846960E-16	1.255928E-17
6.390000E+03	2.829205E-16	1.276351E-17
6.400000E+03	2.811648E-16	1.295390E-17
6.410000E+03	2.794304E-16	1.313122E-17
6.420000E+03	2.777181E-16	1.329622E-17
6.430000E+03	2.760324E-16	1.344982E-17
6.440000E+03	2.743774E-16	1.359288E-17
6.450000E+03	2.727569E-16	1.372625E-17
6.460000E+03	2.711702E-16	1.385052E-17
6.470000E+03	2.696166E-16	1.396625E-17
6.480000E+03	2.680992E-16	1.407413E-17
6.490000E+03	2.666089E-16	1.417418E-17
6.500000E+03	2.651527E-16	1.426725E-17
6.510000E+03	2.637296E-16	1.435370E-17
6.520000E+03	2.623386E-16	1.443387E-17
6.530000E+03	2.609788E-16	1.450807E-17
6.540000E+03	2.596494E-16	1.457657E-17
6.550000E+03	2.583539E-16	1.463989E-17
6.560000E+03	2.570876E-16	1.469804E-17
6.570000E+03	2.558544E-16	1.475148E-17
6.580000E+03	2.546539E-16	1.480047E-17
6.590000E+03	2.534820E-16	1.484498E-17
6.600000E+03	2.523430E-16	1.488547E-17
6.610000E+03	2.512368E-16	1.492216E-17
6.620000E+03	2.501639E-16	1.495526E-17
6.630000E+03	2.491243E-16	1.498498E-17
6.640000E+03	2.481184E-16	1.501151E-17
6.650000E+03	2.471462E-16	1.503504E-17
6.660000E+03	2.462037E-16	1.505550E-17
6.670000E+03	2.452950E-16	1.507329E-17
6.680000E+03	2.444157E-16	1.508832E-17
6.690000E+03	2.435696E-16	1.510096E-17
6.700000E+03	2.427560E-16	1.511133E-17
6.710000E+03	2.419699E-16	1.511926E-17
6.720000E+03	2.412103E-16	1.512480E-17
6.730000E+03	2.404802E-16	1.512828E-17
6.740000E+03	2.397698E-16	1.512918E-17
6.750000E+03	2.390858E-16	1.512802E-17
6.760000E+03	2.384225E-16	1.512452E-17
6.770000E+03	2.377739E-16	1.511834E-17
6.780000E+03	2.371422E-16	1.510970E-17
6.790000E+03	2.365258E-16	1.509849E-17
6.800000E+03	2.359185E-16	1.508434E-17
6.810000E+03	2.353230E-16	1.506739E-17
6.820000E+03	2.347333E-16	1.504726E-17
6.830000E+03	2.341522E-16	1.502407E-17
6.840000E+03	2.335699E-16	1.499716E-17
6.850000E+03	2.329939E-16	1.496695E-17
6.860000E+03	2.324145E-16	1.493280E-17
6.870000E+03	2.318397E-16	1.489516E-17
6.880000E+03	2.312603E-16	1.485344E-17
6.890000E+03	2.306803E-16	1.480787E-17
6.900000E+03	2.300952E-16	1.475818E-17
6.910000E+03	2.295092E-16	1.470470E-17
6.920000E+03	2.289182E-16	1.464719E-17
6.930000E+03	2.283267E-16	1.458602E-17
6.940000E+03	2.277263E-16	1.452075E-17
6.950000E+03	2.271260E-16	1.445205E-17
6.960000E+03	2.265219E-16	1.437977E-17
6.970000E+03	2.259099E-16	1.430378E-17
6.980000E+03	2.252994E-16	1.422475E-17
6.990000E+03	2.246818E-16	1.414227E-17
7.000000E+03	2.240621E-16	1.405675E-17
7.010000E+03	2.234363E-16	1.396801E-17
7.020000E+03	2.228092E-16	1.387647E-17
7.030000E+03	2.221770E-16	1.378195E-17
7.040000E+03	2.215444E-16	1.368482E-17
7.050000E+03	2.209034E-16	1.358465E-17
7.060000E+03	2.202634E-16	1.348206E-17
7.070000E+03	2.196162E-16	1.337662E-17
7.080000E+03	2.189715E-16	1.326896E-17
7.090000E+03	2.183213E-16	1.315861E-17
7.100000E+03	2.176712E-16	1.304595E-17
7.110000E+03	2.170178E-16	1.293078E-17
7.120000E+03	2.163667E-16	1.281347E-17
7.130000E+03	2.157194E-16	1.269409E-17
7.140000E+03	2.150685E-16	1.257222E-17
7.150000E+03	2.144244E-16	1.244845E-17
7.160000E+03	2.137887E-16	1.232288E-17
7.170000E+03	2.131546E-16	1.219508E-17
7.180000E+03	2.125281E-16	1.206542E-17
7.190000E+03	2.119111E-16	1.193398E-17
7.200000E+03	2.113011E-16	1.180065E-17
7.210000E+03	2.107083E-16	1.166600E-17
7.220000E+03	2.101257E-16	1.152970E-17
7.230000E+03	2.095548E-16	1.139188E-17
7.240000E+03	2.090010E-16	1.125292E-17
7.250000E+03	2.084565E-16	1.111253E-17
7.260000E+03	2.079305E-16	1.097137E-17
7.270000E+03	2.074189E-16	1.082940E-17
7.280000E+03	2.069215E-16	1.068686E-17
7.290000E+03	2.064334E-16	1.054376E-17
7.300000E+03	2.059536E-16	1.040040E-17
7.310000E+03	2.054850E-16	1.025727E-17
7.320000E+03	2.050216E-16	1.011448E-17
7.330000E+03	2.045571E-16	9.972147E-18
7.340000E+03	2.040890E-16	9.830645E-18
7.350000E+03	2.036148E-16	9.690355E-18
7.360000E+03	2.031316E-16	9.551686E-18
7.370000E+03	2.026320E-16	9.414882E-18
7.380000E+03	2.021086E-16	9.280233E-18
7.390000E+03	2.015579E-16	9.148285E-18
7.400000E+03	2.009680E-16	9.019262E-18
7.410000E+03	2.003437E-16	8.894242E-18
7.420000E+03	1.996686E-16	8.773429E-18
7.430000E+03	1.989390E-16	8.657704E-18
7.440000E+03	1.981555E-16	8.548223E-18
7.450000E+03	1.973189E-16	8.446212E-18
7.460000E+03	1.964214E-16	8.352585E-18
7.470000E+03	1.954685E-16	8.268817E-18
7.480000E+03	1.944573E-16	8.195970E-18
7.490000E+03	1.933939E-16	8.135354E-18
7.500000E+03	1.922721E-16	8.087549E-18
7.510000E+03	1.910991E-16	8.053397E-18
7.520000E+03	1.898765E-16	8.032772E-18
7.530000E+03	1.886095E-16	8.024824E-18
7.540000E+03	1.873082E-16	8.028565E-18
7.550000E+03	1.859744E-16	8.042425E-18
7.560000E+03	1.846229E-16	8.065224E-18
7.570000E+03	1.832557E-16	8.095173E-18
7.580000E+03	1.818789E-16	8.130668E-18
7.590000E+03	1.805026E-16	8.170365E-18
7.600000E+03	1.791324E-16	8.212875E-18
7.610000E+03	1.777732E-16	8.256985E-18
7.620000E+03	1.764257E-16	8.301501E-18
7.630000E+03	1.751019E-16	8.346009E-18
7.640000E+03	1.737973E-16	8.389556E-18
7.650000E+03	1.725226E-16	8.432154E-18
7.660000E+03	1.712722E-16	8.473219E-18
7.670000E+03	1.700556E-16	8.513092E-18
7.680000E+03	1.688660E-16	8.551440E-18
7.690000E+03	1.677119E-16	8.588791E-18
7.700000E+03	1.665894E-16	8.625126E-18
7.710000E+03	1.654983E-16	8.660631E-18
7.720000E+03	1.644340E-16	8.695279E-18
7.730000E+03	1.634033E-16	8.729626E-18
7.740000E+03	1.624010E-16	8.763575E-18
7.750000E+03	1.614258E-16	8.797190E-18
7.760000E+03	1.604723E-16	8.830273E-18
