#wls	flux	fluxerr
1.600000E+03	1.674411E-16	1.646236E-16
1.640000E+03	1.728276E-16	1.671144E-16
1.680000E+03	1.779655E-16	1.691260E-16
1.720000E+03	1.828046E-16	1.706178E-16
1.760000E+03	1.872711E-16	1.715318E-16
1.800000E+03	1.913051E-16	1.718285E-16
1.840000E+03	1.948250E-16	1.714545E-16
1.880000E+03	1.977818E-16	1.703920E-16
1.920000E+03	2.001071E-16	1.686117E-16
1.960000E+03	2.017158E-16	1.660775E-16
2.000000E+03	2.025589E-16	1.627906E-16
2.040000E+03	2.025590E-16	1.587360E-16
2.080000E+03	2.016487E-16	1.539142E-16
2.120000E+03	1.998006E-16	1.483636E-16
2.160000E+03	1.969325E-16	1.420872E-16
2.200000E+03	1.929903E-16	1.351170E-16
2.240000E+03	1.879168E-16	1.274899E-16
2.280000E+03	1.816248E-16	1.192303E-16
2.320000E+03	1.743166E-16	1.105558E-16
2.360000E+03	1.662013E-16	1.016720E-16
2.400000E+03	1.574445E-16	9.274128E-17
2.440000E+03	1.481877E-16	8.389767E-17
2.480000E+03	1.385677E-16	7.526000E-17
2.520000E+03	1.287109E-16	6.692864E-17
2.560000E+03	1.187310E-16	5.898519E-17
2.600000E+03	1.087474E-16	5.150228E-17
2.640000E+03	9.887191E-17	4.453675E-17
2.680000E+03	8.920990E-17	3.813056E-17
2.720000E+03	7.985944E-17	3.231125E-17
2.760000E+03	7.091484E-17	2.709406E-17
2.800000E+03	6.244953E-17	2.247637E-17
2.840000E+03	5.452966E-17	1.844487E-17
2.880000E+03	4.721361E-17	1.497660E-17
2.920000E+03	4.054515E-17	1.203832E-17
2.960000E+03	3.455389E-17	9.588788E-18
3.000000E+03	2.924772E-17	7.579012E-18
3.010000E+03	2.802671E-17	7.138937E-18
3.020000E+03	2.684718E-17	6.722080E-18
3.030000E+03	2.570905E-17	6.327669E-18
3.040000E+03	2.461155E-17	5.954770E-18
3.050000E+03	2.355386E-17	5.602469E-18
3.060000E+03	2.253568E-17	5.269986E-18
3.070000E+03	2.155565E-17	4.956313E-18
3.080000E+03	2.061379E-17	4.660794E-18
3.090000E+03	1.970872E-17	4.382461E-18
3.100000E+03	1.883991E-17	4.120569E-18
3.110000E+03	1.800637E-17	3.874294E-18
3.120000E+03	1.720747E-17	3.642913E-18
3.130000E+03	1.644218E-17	3.425640E-18
3.140000E+03	1.570946E-17	3.221719E-18
3.150000E+03	1.500860E-17	3.030481E-18
3.160000E+03	1.433828E-17	2.851162E-18
3.170000E+03	1.369800E-17	2.683192E-18
3.180000E+03	1.308647E-17	2.525863E-18
3.190000E+03	1.250291E-17	2.378594E-18
3.200000E+03	1.194630E-17	2.240784E-18
3.210000E+03	1.141561E-17	2.111861E-18
3.220000E+03	1.091007E-17	1.991313E-18
3.230000E+03	1.042866E-17	1.878616E-18
3.240000E+03	9.970255E-18	1.773246E-18
3.250000E+03	9.534401E-18	1.674823E-18
3.260000E+03	9.119677E-18	1.582814E-18
3.270000E+03	8.725629E-18	1.496881E-18
3.280000E+03	8.351074E-18	1.416574E-18
3.290000E+03	7.995290E-18	1.341546E-18
3.300000E+03	7.657554E-18	1.271463E-18
3.310000E+03	7.336812E-18	1.205956E-18
3.320000E+03	7.032507E-18	1.144754E-18
3.330000E+03	6.743862E-18	1.087562E-18
3.340000E+03	6.470042E-18	1.034093E-18
3.350000E+03	6.210344E-18	9.840935E-19
3.360000E+03	5.964094E-18	9.373274E-19
3.370000E+03	5.730724E-18	8.935866E-19
3.380000E+03	5.509451E-18	8.526405E-19
3.390000E+03	5.299832E-18	8.143215E-19
3.400000E+03	5.101154E-18	7.784292E-19
3.410000E+03	4.912882E-18	7.447998E-19
3.420000E+03	4.734564E-18	7.132899E-19
3.430000E+03	4.565533E-18	6.837308E-19
3.440000E+03	4.405447E-18	6.560098E-19
3.450000E+03	4.253809E-18	6.299969E-19
3.460000E+03	4.110056E-18	6.055580E-19
3.470000E+03	3.973903E-18	5.826058E-19
3.480000E+03	3.844844E-18	5.610247E-19
3.490000E+03	3.722542E-18	5.407284E-19
3.500000E+03	3.606633E-18	5.216306E-19
3.510000E+03	3.496662E-18	5.036352E-19
3.520000E+03	3.392359E-18	4.866765E-19
3.530000E+03	3.293361E-18	4.706781E-19
3.540000E+03	3.199335E-18	4.555704E-19
3.550000E+03	3.110002E-18	4.412942E-19
3.560000E+03	3.025042E-18	4.277868E-19
3.570000E+03	2.944192E-18	4.149949E-19
3.580000E+03	2.867178E-18	4.028660E-19
3.590000E+03	2.793801E-18	3.913596E-19
3.600000E+03	2.723849E-18	3.804345E-19
3.610000E+03	2.657098E-18	3.700494E-19
3.620000E+03	2.593387E-18	3.601729E-19
3.630000E+03	2.532567E-18	3.507758E-19
3.640000E+03	2.474448E-18	3.418246E-19
3.650000E+03	2.418963E-18	3.333034E-19
3.660000E+03	2.365937E-18	3.251821E-19
3.670000E+03	2.315287E-18	3.174439E-19
3.680000E+03	2.266914E-18	3.100701E-19
3.690000E+03	2.220718E-18	3.030428E-19
3.700000E+03	2.176623E-18	2.963475E-19
3.710000E+03	2.134573E-18	2.899727E-19
3.720000E+03	2.094439E-18	2.838975E-19
3.730000E+03	2.056202E-18	2.781162E-19
3.740000E+03	2.019756E-18	2.726116E-19
3.750000E+03	1.985050E-18	2.673741E-19
3.760000E+03	1.952032E-18	2.623941E-19
3.770000E+03	1.920603E-18	2.576562E-19
3.780000E+03	1.890747E-18	2.531560E-19
3.790000E+03	1.862385E-18	2.488808E-19
3.800000E+03	1.835471E-18	2.448227E-19
3.810000E+03	1.809946E-18	2.409720E-19
3.820000E+03	1.785766E-18	2.373212E-19
3.830000E+03	1.762876E-18	2.338613E-19
3.840000E+03	1.741235E-18	2.305855E-19
3.850000E+03	1.720791E-18	2.274856E-19
3.860000E+03	1.701521E-18	2.245569E-19
3.870000E+03	1.683375E-18	2.217918E-19
3.880000E+03	1.666305E-18	2.191826E-19
3.890000E+03	1.650280E-18	2.167240E-19
3.900000E+03	1.635253E-18	2.144091E-19
3.910000E+03	1.621209E-18	2.122345E-19
3.920000E+03	1.608105E-18	2.101937E-19
3.930000E+03	1.595913E-18	2.082821E-19
3.940000E+03	1.584596E-18	2.064938E-19
3.950000E+03	1.574114E-18	2.048230E-19
3.960000E+03	1.564469E-18	2.032688E-19
3.970000E+03	1.555601E-18	2.018227E-19
3.980000E+03	1.547501E-18	2.004825E-19
3.990000E+03	1.540134E-18	1.992433E-19
4.000000E+03	1.533482E-18	1.981017E-19
4.010000E+03	1.527524E-18	1.970544E-19
4.020000E+03	1.522220E-18	1.960954E-19
4.030000E+03	1.517564E-18	1.952233E-19
4.040000E+03	1.513527E-18	1.944338E-19
4.050000E+03	1.510095E-18	1.937243E-19
4.060000E+03	1.507240E-18	1.930907E-19
4.070000E+03	1.504937E-18	1.925292E-19
4.080000E+03	1.503185E-18	1.920390E-19
4.090000E+03	1.501947E-18	1.916149E-19
4.100000E+03	1.501213E-18	1.912550E-19
4.110000E+03	1.500970E-18	1.909573E-19
4.120000E+03	1.501187E-18	1.907170E-19
4.130000E+03	1.501863E-18	1.905338E-19
4.140000E+03	1.502967E-18	1.904032E-19
4.150000E+03	1.504490E-18	1.903235E-19
4.160000E+03	1.506425E-18	1.902933E-19
4.170000E+03	1.508740E-18	1.903083E-19
4.180000E+03	1.511440E-18	1.903685E-19
4.190000E+03	1.514484E-18	1.904684E-19
4.200000E+03	1.517889E-18	1.906096E-19
4.210000E+03	1.521614E-18	1.907868E-19
4.220000E+03	1.525654E-18	1.909987E-19
4.230000E+03	1.529992E-18	1.912430E-19
4.240000E+03	1.534624E-18	1.915187E-19
4.250000E+03	1.539511E-18	1.918206E-19
4.260000E+03	1.544659E-18	1.921492E-19
4.270000E+03	1.550042E-18	1.925010E-19
4.280000E+03	1.555633E-18	1.928722E-19
4.290000E+03	1.561428E-18	1.932621E-19
4.300000E+03	1.567411E-18	1.936687E-19
4.310000E+03	1.573544E-18	1.940867E-19
4.320000E+03	1.579811E-18	1.945141E-19
4.330000E+03	1.586196E-18	1.949489E-19
4.340000E+03	1.592684E-18	1.953889E-19
4.350000E+03	1.599259E-18	1.958323E-19
4.360000E+03	1.605919E-18	1.962784E-19
4.370000E+03	1.612647E-18	1.967253E-19
4.380000E+03	1.619429E-18	1.971712E-19
4.390000E+03	1.626288E-18	1.976187E-19
4.400000E+03	1.633209E-18	1.980661E-19
4.410000E+03	1.640190E-18	1.985131E-19
4.420000E+03	1.647244E-18	1.989612E-19
4.430000E+03	1.654371E-18	1.994105E-19
4.440000E+03	1.661557E-18	1.998592E-19
4.450000E+03	1.668816E-18	2.003092E-19
4.460000E+03	1.676136E-18	2.007591E-19
4.470000E+03	1.683518E-18	2.012092E-19
4.480000E+03	1.690967E-18	2.016599E-19
4.490000E+03	1.698456E-18	2.021085E-19
4.500000E+03	1.706004E-18	2.025572E-19
4.510000E+03	1.713601E-18	2.030051E-19
4.520000E+03	1.721238E-18	2.034514E-19
4.530000E+03	1.728922E-18	2.038971E-19
4.540000E+03	1.736630E-18	2.043398E-19
4.550000E+03	1.744370E-18	2.047806E-19
4.560000E+03	1.752149E-18	2.052209E-19
4.570000E+03	1.759964E-18	2.056603E-19
4.580000E+03	1.767792E-18	2.060967E-19
4.590000E+03	1.775647E-18	2.065318E-19
4.600000E+03	1.783522E-18	2.069652E-19
4.610000E+03	1.791416E-18	2.073969E-19
4.620000E+03	1.799342E-18	2.078286E-19
4.630000E+03	1.807281E-18	2.082584E-19
4.640000E+03	1.815249E-18	2.086882E-19
4.650000E+03	1.823245E-18	2.091179E-19
4.660000E+03	1.831269E-18	2.095476E-19
4.670000E+03	1.839321E-18	2.099771E-19
4.680000E+03	1.847403E-18	2.104064E-19
4.690000E+03	1.855515E-18	2.108356E-19
4.700000E+03	1.863692E-18	2.112683E-19
4.710000E+03	1.871939E-18	2.117044E-19
4.720000E+03	1.880256E-18	2.121439E-19
4.730000E+03	1.888684E-18	2.125906E-19
4.740000E+03	1.897208E-18	2.130427E-19
4.750000E+03	1.905836E-18	2.135000E-19
4.760000E+03	1.914588E-18	2.139647E-19
4.770000E+03	1.923471E-18	2.144369E-19
4.780000E+03	1.932475E-18	2.149148E-19
4.790000E+03	1.941624E-18	2.154007E-19
4.800000E+03	1.950924E-18	2.158949E-19
4.810000E+03	1.960366E-18	2.163959E-19
4.820000E+03	1.969975E-18	2.169063E-19
4.830000E+03	1.979759E-18	2.174268E-19
4.840000E+03	1.989726E-18	2.179583E-19
4.850000E+03	1.999887E-18	2.185016E-19
4.860000E+03	2.010231E-18	2.190559E-19
4.870000E+03	2.020805E-18	2.196264E-19
4.880000E+03	2.031580E-18	2.202105E-19
4.890000E+03	2.042567E-18	2.208094E-19
4.900000E+03	2.053795E-18	2.214268E-19
4.910000E+03	2.065272E-18	2.220641E-19
4.920000E+03	2.077010E-18	2.227231E-19
4.930000E+03	2.088980E-18	2.234011E-19
4.940000E+03	2.101230E-18	2.241040E-19
4.950000E+03	2.113752E-18	2.248311E-19
4.960000E+03	2.126554E-18	2.255839E-19
4.970000E+03	2.139648E-18	2.263640E-19
4.980000E+03	2.153041E-18	2.271727E-19
4.990000E+03	2.166725E-18	2.280090E-19
5.000000E+03	2.180706E-18	2.288741E-19
5.010000E+03	2.195014E-18	2.297711E-19
5.020000E+03	2.209638E-18	2.306989E-19
5.030000E+03	2.224564E-18	2.316559E-19
5.040000E+03	2.239843E-18	2.326472E-19
5.050000E+03	2.255416E-18	2.336670E-19
5.060000E+03	2.271334E-18	2.347202E-19
5.070000E+03	2.287603E-18	2.358075E-19
5.080000E+03	2.304164E-18	2.369227E-19
5.090000E+03	2.321087E-18	2.380732E-19
5.100000E+03	2.338334E-18	2.392553E-19
5.110000E+03	2.355908E-18	2.404697E-19
5.120000E+03	2.373837E-18	2.417200E-19
5.130000E+03	2.392078E-18	2.430025E-19
5.140000E+03	2.410634E-18	2.443189E-19
5.150000E+03	2.429530E-18	2.456730E-19
5.160000E+03	2.448745E-18	2.470645E-19
5.170000E+03	2.468280E-18	2.484956E-19
5.180000E+03	2.488111E-18	2.499663E-19
5.190000E+03	2.508262E-18	2.514819E-19
5.200000E+03	2.528684E-18	2.530404E-19
5.210000E+03	2.549423E-18	2.546501E-19
5.220000E+03	2.570452E-18	2.563120E-19
5.230000E+03	2.591744E-18	2.580273E-19
5.240000E+03	2.613293E-18	2.598000E-19
5.250000E+03	2.635119E-18	2.616366E-19
5.260000E+03	2.657164E-18	2.635361E-19
5.270000E+03	2.679446E-18	2.655053E-19
5.280000E+03	2.701984E-18	2.675511E-19
5.290000E+03	2.724688E-18	2.696698E-19
5.300000E+03	2.747627E-18	2.718734E-19
5.310000E+03	2.770708E-18	2.741579E-19
5.320000E+03	2.793999E-18	2.765353E-19
5.330000E+03	2.817403E-18	2.790010E-19
5.340000E+03	2.840961E-18	2.815638E-19
5.350000E+03	2.864657E-18	2.842269E-19
5.360000E+03	2.888444E-18	2.869903E-19
5.370000E+03	2.912361E-18	2.898620E-19
5.380000E+03	2.936303E-18	2.928355E-19
5.390000E+03	2.960336E-18	2.959210E-19
5.400000E+03	2.984410E-18	2.991168E-19
5.410000E+03	3.008503E-18	3.024237E-19
5.420000E+03	3.032592E-18	3.058419E-19
5.430000E+03	3.056653E-18	3.093713E-19
5.440000E+03	3.080630E-18	3.130081E-19
5.450000E+03	3.104497E-18	3.167510E-19
5.460000E+03	3.128225E-18	3.205983E-19
5.470000E+03	3.151785E-18	3.245479E-19
5.480000E+03	3.175116E-18	3.285939E-19
5.490000E+03	3.198154E-18	3.327297E-19
5.500000E+03	3.220897E-18	3.369552E-19
5.510000E+03	3.243280E-18	3.412629E-19
5.520000E+03	3.265233E-18	3.456451E-19
5.530000E+03	3.286686E-18	3.500933E-19
5.540000E+03	3.307634E-18	3.546057E-19
5.550000E+03	3.327972E-18	3.591698E-19
5.560000E+03	3.347693E-18	3.637833E-19
5.570000E+03	3.366688E-18	3.684326E-19
5.580000E+03	3.384917E-18	3.731114E-19
5.590000E+03	3.402372E-18	3.778170E-19
5.600000E+03	3.418944E-18	3.825349E-19
5.610000E+03	3.434625E-18	3.872623E-19
5.620000E+03	3.449378E-18	3.919923E-19
5.630000E+03	3.463126E-18	3.967142E-19
5.640000E+03	3.475833E-18	4.014208E-19
5.650000E+03	3.487498E-18	4.061097E-19
5.660000E+03	3.498087E-18	4.107740E-19
5.670000E+03	3.507531E-18	4.154029E-19
5.680000E+03	3.515836E-18	4.199940E-19
5.690000E+03	3.523013E-18	4.245453E-19
5.700000E+03	3.528964E-18	4.290416E-19
5.710000E+03	3.533702E-18	4.334808E-19
5.720000E+03	3.537247E-18	4.378612E-19
5.730000E+03	3.539584E-18	4.421766E-19
5.740000E+03	3.540701E-18	4.464208E-19
5.750000E+03	3.540589E-18	4.505875E-19
5.760000E+03	3.539244E-18	4.546705E-19
5.770000E+03	3.536702E-18	4.586681E-19
5.780000E+03	3.532926E-18	4.625690E-19
5.790000E+03	3.528000E-18	4.663768E-19
5.800000E+03	3.521894E-18	4.700799E-19
5.810000E+03	3.514621E-18	4.736717E-19
5.820000E+03	3.506275E-18	4.771560E-19
5.830000E+03	3.496799E-18	4.805158E-19
5.840000E+03	3.486255E-18	4.837500E-19
5.850000E+03	3.474709E-18	4.868573E-19
5.860000E+03	3.462152E-18	4.898264E-19
5.870000E+03	3.448655E-18	4.926567E-19
5.880000E+03	3.434218E-18	4.953370E-19
5.890000E+03	3.418954E-18	4.978731E-19
5.900000E+03	3.402866E-18	5.002547E-19
5.910000E+03	3.385998E-18	5.024774E-19
5.920000E+03	3.368433E-18	5.045431E-19
5.930000E+03	3.350178E-18	5.064427E-19
5.940000E+03	3.331319E-18	5.081794E-19
5.950000E+03	3.311866E-18	5.097454E-19
5.960000E+03	3.291906E-18	5.111452E-19
5.970000E+03	3.271488E-18	5.123779E-19
5.980000E+03	3.250660E-18	5.134437E-19
5.990000E+03	3.229434E-18	5.143371E-19
6.000000E+03	3.207894E-18	5.150653E-19
6.010000E+03	3.186089E-18	5.156300E-19
6.020000E+03	3.164026E-18	5.160276E-19
6.030000E+03	3.141789E-18	5.162670E-19
6.040000E+03	3.119385E-18	5.163456E-19
6.050000E+03	3.096819E-18	5.162609E-19
6.060000E+03	3.074206E-18	5.160294E-19
6.070000E+03	3.051513E-18	5.156435E-19
6.080000E+03	3.028815E-18	5.151141E-19
6.090000E+03	3.006075E-18	5.144342E-19
6.100000E+03	2.983365E-18	5.136152E-19
6.110000E+03	2.960682E-18	5.126565E-19
6.120000E+03	2.938057E-18	5.115640E-19
6.130000E+03	2.915522E-18	5.103435E-19
6.140000E+03	2.893068E-18	5.089947E-19
6.150000E+03	2.870721E-18	5.075236E-19
6.160000E+03	2.848508E-18	5.059363E-19
6.170000E+03	2.826451E-18	5.042389E-19
6.180000E+03	2.804573E-18	5.024375E-19
6.190000E+03	2.782856E-18	5.005315E-19
6.200000E+03	2.761355E-18	4.985335E-19
6.210000E+03	2.740088E-18	4.964491E-19
6.220000E+03	2.719068E-18	4.942842E-19
6.230000E+03	2.698345E-18	4.920507E-19
6.240000E+03	2.677965E-18	4.897606E-19
6.250000E+03	2.657976E-18	4.874257E-19
6.260000E+03	2.638419E-18	4.850577E-19
6.270000E+03	2.619339E-18	4.826679E-19
6.280000E+03	2.600813E-18	4.802744E-19
6.290000E+03	2.582809E-18	4.778752E-19
6.300000E+03	2.565474E-18	4.755010E-19
6.310000E+03	2.548776E-18	4.731495E-19
6.320000E+03	2.532788E-18	4.708380E-19
6.330000E+03	2.517547E-18	4.685771E-19
6.340000E+03	2.503090E-18	4.663772E-19
6.350000E+03	2.489419E-18	4.642420E-19
6.360000E+03	2.476571E-18	4.621816E-19
6.370000E+03	2.464583E-18	4.602060E-19
6.380000E+03	2.453454E-18	4.583185E-19
6.390000E+03	2.443187E-18	4.565223E-19
6.400000E+03	2.433818E-18	4.548269E-19
6.410000E+03	2.425277E-18	4.532221E-19
6.420000E+03	2.417566E-18	4.517104E-19
6.430000E+03	2.410651E-18	4.502879E-19
6.440000E+03	2.404459E-18	4.489434E-19
6.450000E+03	2.399029E-18	4.476861E-19
6.460000E+03	2.394287E-18	4.465046E-19
6.470000E+03	2.390272E-18	4.454075E-19
6.480000E+03	2.386982E-18	4.443968E-19
6.490000E+03	2.384384E-18	4.434676E-19
6.500000E+03	2.382476E-18	4.426214E-19
6.510000E+03	2.381259E-18	4.418600E-19
6.520000E+03	2.380733E-18	4.411847E-19
6.530000E+03	2.380900E-18	4.405971E-19
6.540000E+03	2.381798E-18	4.401054E-19
6.550000E+03	2.383390E-18	4.397041E-19
6.560000E+03	2.385639E-18	4.393875E-19
6.570000E+03	2.388623E-18	4.391706E-19
6.580000E+03	2.392266E-18	4.390407E-19
6.590000E+03	2.396608E-18	4.390058E-19
6.600000E+03	2.401651E-18	4.390669E-19
6.610000E+03	2.407396E-18	4.392251E-19
6.620000E+03	2.413847E-18	4.394814E-19
6.630000E+03	2.420964E-18	4.398294E-19
6.640000E+03	2.428790E-18	4.402773E-19
6.650000E+03	2.437288E-18	4.408185E-19
6.660000E+03	2.446499E-18	4.414614E-19
6.670000E+03	2.456386E-18	4.421992E-19
6.680000E+03	2.466951E-18	4.430327E-19
6.690000E+03	2.478239E-18	4.439701E-19
6.700000E+03	2.490254E-18	4.450122E-19
6.710000E+03	2.502913E-18	4.461445E-19
6.720000E+03	2.516306E-18	4.473830E-19
6.730000E+03	2.530349E-18	4.487130E-19
6.740000E+03	2.545134E-18	4.501505E-19
6.750000E+03	2.560619E-18	4.516884E-19
6.760000E+03	2.576765E-18	4.533195E-19
6.770000E+03	2.593665E-18	4.550603E-19
6.780000E+03	2.611232E-18	4.568953E-19
6.790000E+03	2.629516E-18	4.588331E-19
6.800000E+03	2.648522E-18	4.608744E-19
6.810000E+03	2.668253E-18	4.630197E-19
6.820000E+03	2.688667E-18	4.652613E-19
6.830000E+03	2.709816E-18	4.676081E-19
6.840000E+03	2.731656E-18	4.700521E-19
6.850000E+03	2.754239E-18	4.726023E-19
6.860000E+03	2.777520E-18	4.752505E-19
6.870000E+03	2.801503E-18	4.779973E-19
6.880000E+03	2.826243E-18	4.808516E-19
6.890000E+03	2.851641E-18	4.837964E-19
6.900000E+03	2.877804E-18	4.868496E-19
6.910000E+03	2.904684E-18	4.900027E-19
6.920000E+03	2.932284E-18	4.932561E-19
6.930000E+03	2.960609E-18	4.966101E-19
6.940000E+03	2.989661E-18	5.000649E-19
6.950000E+03	3.019386E-18	5.036113E-19
6.960000E+03	3.049844E-18	5.072589E-19
6.970000E+03	3.081038E-18	5.110080E-19
6.980000E+03	3.112971E-18	5.148588E-19
6.990000E+03	3.145525E-18	5.187917E-19
7.000000E+03	3.178883E-18	5.228365E-19
7.010000E+03	3.212862E-18	5.269632E-19
7.020000E+03	3.247588E-18	5.311919E-19
7.030000E+03	3.282998E-18	5.355125E-19
7.040000E+03	3.319093E-18	5.399248E-19
7.050000E+03	3.355873E-18	5.444287E-19
7.060000E+03	3.393336E-18	5.490240E-19
7.070000E+03	3.431414E-18	5.536994E-19
7.080000E+03	3.470173E-18	5.584656E-19
7.090000E+03	3.509611E-18	5.633224E-19
7.100000E+03	3.549655E-18	5.682580E-19
7.110000E+03	3.590374E-18	5.732834E-19
7.120000E+03	3.631691E-18	5.783866E-19
7.130000E+03	3.673602E-18	5.835668E-19
7.140000E+03	3.716100E-18	5.888232E-19
7.150000E+03	3.759256E-18	5.941673E-19
7.160000E+03	3.802911E-18	5.995740E-19
7.170000E+03	3.847053E-18	6.050419E-19
7.180000E+03	3.891834E-18	6.105950E-19
7.190000E+03	3.937085E-18	6.162071E-19
7.200000E+03	3.982793E-18	6.218767E-19
7.210000E+03	4.029032E-18	6.276156E-19
7.220000E+03	4.075704E-18	6.334091E-19
7.230000E+03	4.122796E-18	6.392557E-19
7.240000E+03	4.170293E-18	6.451535E-19
7.250000E+03	4.218181E-18	6.511009E-19
7.260000E+03	4.266536E-18	6.571101E-19
7.270000E+03	4.315157E-18	6.631510E-19
7.280000E+03	4.364214E-18	6.692501E-19
7.290000E+03	4.413596E-18	6.753911E-19
7.300000E+03	4.463285E-18	6.815719E-19
7.310000E+03	4.513362E-18	6.878054E-19
7.320000E+03	4.563709E-18	6.940744E-19
7.330000E+03	4.614408E-18	7.003920E-19
7.340000E+03	4.665443E-18	7.067562E-19
7.350000E+03	4.716902E-18	7.131812E-19
7.360000E+03	4.768773E-18	7.196653E-19
7.370000E+03	4.821151E-18	7.262234E-19
7.380000E+03	4.873916E-18	7.328379E-19
7.390000E+03	4.927393E-18	7.395577E-19
7.400000E+03	4.981580E-18	7.463831E-19
7.410000E+03	5.036364E-18	7.532967E-19
7.420000E+03	5.092092E-18	7.603508E-19
7.430000E+03	5.148657E-18	7.675289E-19
7.440000E+03	5.206184E-18	7.748498E-19
7.450000E+03	5.264562E-18	7.822963E-19
7.460000E+03	5.323921E-18	7.898876E-19
7.470000E+03	5.383890E-18	7.975682E-19
7.480000E+03	5.444721E-18	8.053752E-19
7.490000E+03	5.506025E-18	8.132505E-19
7.500000E+03	5.567923E-18	8.212116E-19
7.510000E+03	5.630271E-18	8.292370E-19
7.520000E+03	5.692918E-18	8.373041E-19
7.530000E+03	5.755984E-18	8.454297E-19
7.540000E+03	5.819028E-18	8.535489E-19
7.550000E+03	5.882304E-18	8.616984E-19
7.560000E+03	5.945643E-18	8.698529E-19
7.570000E+03	6.009016E-18	8.780077E-19
7.580000E+03	6.072243E-18	8.861359E-19
7.590000E+03	6.135438E-18	8.942537E-19
7.600000E+03	6.198415E-18	9.023336E-19
7.610000E+03	6.261136E-18	9.103694E-19
7.620000E+03	6.323718E-18	9.183777E-19
7.630000E+03	6.385967E-18	9.263300E-19
7.640000E+03	6.448004E-18	9.342434E-19
7.650000E+03	6.509464E-18	9.420647E-19
7.660000E+03	6.570632E-18	9.498347E-19
7.670000E+03	6.631302E-18	9.575235E-19
7.680000E+03	6.691601E-18	9.651492E-19
7.690000E+03	6.751318E-18	9.726812E-19
7.700000E+03	6.810408E-18	9.801131E-19
7.710000E+03	6.868826E-18	9.874382E-19
7.720000E+03	6.926886E-18	9.947018E-19
7.730000E+03	6.984010E-18	1.001821E-18
7.740000E+03	7.040698E-18	1.008867E-18
7.750000E+03	7.096543E-18	1.015783E-18
7.760000E+03	7.151690E-18	1.022589E-18
