#wls	flux	fluxerr
1.600000E+03	1.877586E-16	1.810524E-16
1.640000E+03	1.971565E-16	1.868321E-16
1.680000E+03	2.066390E-16	1.922962E-16
1.720000E+03	2.161678E-16	1.973940E-16
1.760000E+03	2.256082E-16	2.019911E-16
1.800000E+03	2.349373E-16	2.060615E-16
1.840000E+03	2.439916E-16	2.094601E-16
1.880000E+03	2.526999E-16	2.121326E-16
1.920000E+03	2.609348E-16	2.139853E-16
1.960000E+03	2.685143E-16	2.148920E-16
2.000000E+03	2.753314E-16	2.148014E-16
2.040000E+03	2.812082E-16	2.136191E-16
2.080000E+03	2.859652E-16	2.112669E-16
2.120000E+03	2.894268E-16	2.076871E-16
2.160000E+03	2.913908E-16	2.028219E-16
2.200000E+03	2.916074E-16	1.966025E-16
2.240000E+03	2.898225E-16	1.889828E-16
2.280000E+03	2.858985E-16	1.800165E-16
2.320000E+03	2.798854E-16	1.698878E-16
2.360000E+03	2.720274E-16	1.588933E-16
2.400000E+03	2.625249E-16	1.472850E-16
2.440000E+03	2.515823E-16	1.353009E-16
2.480000E+03	2.393536E-16	1.231347E-16
2.520000E+03	2.260354E-16	1.109871E-16
2.560000E+03	2.118118E-16	9.903383E-17
2.600000E+03	1.969054E-16	8.744905E-17
2.640000E+03	1.815291E-16	7.637991E-17
2.680000E+03	1.659119E-16	6.595735E-17
2.720000E+03	1.502908E-16	5.629084E-17
2.760000E+03	1.348885E-16	4.745953E-17
2.800000E+03	1.199250E-16	3.951780E-17
2.840000E+03	1.056026E-16	3.249155E-17
2.880000E+03	9.210599E-17	2.638084E-17
2.920000E+03	7.959230E-17	2.116040E-17
2.960000E+03	6.817873E-17	1.678080E-17
3.000000E+03	5.793907E-17	1.317327E-17
3.010000E+03	5.556651E-17	1.238246E-17
3.020000E+03	5.326801E-17	1.163310E-17
3.030000E+03	5.104537E-17	1.092421E-17
3.040000E+03	4.889553E-17	1.025376E-17
3.050000E+03	4.681988E-17	9.620722E-18
3.060000E+03	4.481737E-17	9.023554E-18
3.070000E+03	4.288779E-17	8.460914E-18
3.080000E+03	4.102810E-17	7.930938E-18
3.090000E+03	3.923965E-17	7.432655E-18
3.100000E+03	3.751938E-17	6.964275E-18
3.110000E+03	3.586742E-17	6.524653E-18
3.120000E+03	3.428217E-17	6.112357E-18
3.130000E+03	3.276137E-17	5.725886E-18
3.140000E+03	3.130472E-17	5.364121E-18
3.150000E+03	2.990990E-17	5.025639E-18
3.160000E+03	2.857578E-17	4.709266E-18
3.170000E+03	2.730060E-17	4.413766E-18
3.180000E+03	2.608262E-17	4.137951E-18
3.190000E+03	2.492053E-17	3.880748E-18
3.200000E+03	2.381250E-17	3.641047E-18
3.210000E+03	2.275635E-17	3.417729E-18
3.220000E+03	2.175111E-17	3.209904E-18
3.230000E+03	2.079459E-17	3.016542E-18
3.240000E+03	1.988538E-17	2.836771E-18
3.250000E+03	1.902170E-17	2.669706E-18
3.260000E+03	1.820150E-17	2.514466E-18
3.270000E+03	1.742365E-17	2.370341E-18
3.280000E+03	1.668587E-17	2.236499E-18
3.290000E+03	1.598699E-17	2.112300E-18
3.300000E+03	1.532533E-17	1.997066E-18
3.310000E+03	1.469877E-17	1.890102E-18
3.320000E+03	1.410618E-17	1.790874E-18
3.330000E+03	1.354598E-17	1.698820E-18
3.340000E+03	1.301643E-17	1.613391E-18
3.350000E+03	1.251607E-17	1.534101E-18
3.360000E+03	1.204349E-17	1.460498E-18
3.370000E+03	1.159732E-17	1.392159E-18
3.380000E+03	1.117624E-17	1.328693E-18
3.390000E+03	1.077900E-17	1.269737E-18
3.400000E+03	1.040424E-17	1.214938E-18
3.410000E+03	1.005069E-17	1.163973E-18
3.420000E+03	9.717517E-18	1.116588E-18
3.430000E+03	9.403313E-18	1.072476E-18
3.440000E+03	9.107226E-18	1.031413E-18
3.450000E+03	8.828214E-18	9.931631E-19
3.460000E+03	8.565404E-18	9.575252E-19
3.470000E+03	8.317769E-18	9.242906E-19
3.480000E+03	8.084449E-18	8.932802E-19
3.490000E+03	7.864732E-18	8.643401E-19
3.500000E+03	7.657766E-18	8.373095E-19
3.510000E+03	7.462928E-18	8.120603E-19
3.520000E+03	7.279308E-18	7.884397E-19
3.530000E+03	7.106382E-18	7.663431E-19
3.540000E+03	6.943428E-18	7.456500E-19
3.550000E+03	6.789854E-18	7.262585E-19
3.560000E+03	6.645108E-18	7.080756E-19
3.570000E+03	6.508543E-18	6.910018E-19
3.580000E+03	6.379821E-18	6.749741E-19
3.590000E+03	6.258430E-18	6.599139E-19
3.600000E+03	6.143896E-18	6.457490E-19
3.610000E+03	6.035954E-18	6.324319E-19
3.620000E+03	5.934121E-18	6.198938E-19
3.630000E+03	5.838059E-18	6.080831E-19
3.640000E+03	5.747453E-18	5.969520E-19
3.650000E+03	5.662004E-18	5.864558E-19
3.660000E+03	5.581430E-18	5.765529E-19
3.670000E+03	5.505465E-18	5.672041E-19
3.680000E+03	5.433908E-18	5.583781E-19
3.690000E+03	5.366564E-18	5.500450E-19
3.700000E+03	5.303200E-18	5.421719E-19
3.710000E+03	5.243779E-18	5.347466E-19
3.720000E+03	5.188034E-18	5.277339E-19
3.730000E+03	5.135889E-18	5.211188E-19
3.740000E+03	5.087179E-18	5.148780E-19
3.750000E+03	5.041790E-18	5.089936E-19
3.760000E+03	4.999693E-18	5.034569E-19
3.770000E+03	4.960651E-18	4.982386E-19
3.780000E+03	4.924639E-18	4.933315E-19
3.790000E+03	4.891594E-18	4.887245E-19
3.800000E+03	4.861329E-18	4.843950E-19
3.810000E+03	4.833827E-18	4.803372E-19
3.820000E+03	4.809026E-18	4.765416E-19
3.830000E+03	4.786792E-18	4.729916E-19
3.840000E+03	4.767032E-18	4.696749E-19
3.850000E+03	4.749769E-18	4.665911E-19
3.860000E+03	4.734839E-18	4.637213E-19
3.870000E+03	4.722228E-18	4.610620E-19
3.880000E+03	4.711854E-18	4.586023E-19
3.890000E+03	4.703669E-18	4.563357E-19
3.900000E+03	4.697630E-18	4.542555E-19
3.910000E+03	4.693620E-18	4.523484E-19
3.920000E+03	4.691599E-18	4.506083E-19
3.930000E+03	4.691566E-18	4.490328E-19
3.940000E+03	4.693446E-18	4.476125E-19
3.950000E+03	4.697166E-18	4.463381E-19
3.960000E+03	4.702692E-18	4.452040E-19
3.970000E+03	4.709956E-18	4.442010E-19
3.980000E+03	4.718926E-18	4.433237E-19
3.990000E+03	4.729574E-18	4.425665E-19
4.000000E+03	4.741872E-18	4.419239E-19
4.010000E+03	4.755724E-18	4.413836E-19
4.020000E+03	4.771105E-18	4.409405E-19
4.030000E+03	4.787996E-18	4.405893E-19
4.040000E+03	4.806379E-18	4.403250E-19
4.050000E+03	4.826203E-18	4.401394E-19
4.060000E+03	4.847418E-18	4.400244E-19
4.070000E+03	4.870014E-18	4.399757E-19
4.080000E+03	4.893947E-18	4.399858E-19
4.090000E+03	4.919212E-18	4.400509E-19
4.100000E+03	4.945772E-18	4.401642E-19
4.110000E+03	4.973627E-18	4.403226E-19
4.120000E+03	5.002743E-18	4.405204E-19
4.130000E+03	5.033090E-18	4.407519E-19
4.140000E+03	5.064677E-18	4.410158E-19
4.150000E+03	5.097480E-18	4.413078E-19
4.160000E+03	5.131516E-18	4.416277E-19
4.170000E+03	5.166726E-18	4.419693E-19
4.180000E+03	5.203135E-18	4.423340E-19
4.190000E+03	5.240687E-18	4.427173E-19
4.200000E+03	5.279455E-18	4.431262E-19
4.210000E+03	5.319392E-18	4.435581E-19
4.220000E+03	5.360534E-18	4.440189E-19
4.230000E+03	5.402796E-18	4.445048E-19
4.240000E+03	5.446263E-18	4.450276E-19
4.250000E+03	5.490852E-18	4.455859E-19
4.260000E+03	5.536653E-18	4.461937E-19
4.270000E+03	5.583585E-18	4.468518E-19
4.280000E+03	5.631610E-18	4.475655E-19
4.290000E+03	5.680822E-18	4.483513E-19
4.300000E+03	5.731094E-18	4.492082E-19
4.310000E+03	5.782518E-18	4.501532E-19
4.320000E+03	5.834963E-18	4.511850E-19
4.330000E+03	5.888518E-18	4.523195E-19
4.340000E+03	5.943134E-18	4.535606E-19
4.350000E+03	5.998755E-18	4.549104E-19
4.360000E+03	6.055412E-18	4.563761E-19
4.370000E+03	6.113084E-18	4.579588E-19
4.380000E+03	6.171841E-18	4.596641E-19
4.390000E+03	6.231598E-18	4.614834E-19
4.400000E+03	6.292461E-18	4.634197E-19
4.410000E+03	6.354432E-18	4.654654E-19
4.420000E+03	6.417505E-18	4.676101E-19
4.430000E+03	6.481665E-18	4.698402E-19
4.440000E+03	6.546945E-18	4.721438E-19
4.450000E+03	6.613264E-18	4.744991E-19
4.460000E+03	6.680640E-18	4.768905E-19
4.470000E+03	6.749032E-18	4.792978E-19
4.480000E+03	6.818394E-18	4.817004E-19
4.490000E+03	6.888612E-18	4.840739E-19
4.500000E+03	6.959626E-18	4.863991E-19
4.510000E+03	7.031307E-18	4.886540E-19
4.520000E+03	7.103638E-18	4.908271E-19
4.530000E+03	7.176420E-18	4.928971E-19
4.540000E+03	7.249564E-18	4.948541E-19
4.550000E+03	7.322977E-18	4.966916E-19
4.560000E+03	7.396437E-18	4.983984E-19
4.570000E+03	7.469905E-18	4.999797E-19
4.580000E+03	7.543149E-18	5.014323E-19
4.590000E+03	7.616060E-18	5.027647E-19
4.600000E+03	7.688398E-18	5.039807E-19
4.610000E+03	7.760117E-18	5.051003E-19
4.620000E+03	7.831042E-18	5.061372E-19
4.630000E+03	7.900929E-18	5.071032E-19
4.640000E+03	7.969670E-18	5.080199E-19
4.650000E+03	8.037166E-18	5.089098E-19
4.660000E+03	8.103252E-18	5.097908E-19
4.670000E+03	8.167701E-18	5.106751E-19
4.680000E+03	8.230581E-18	5.115914E-19
4.690000E+03	8.291836E-18	5.125570E-19
4.700000E+03	8.351275E-18	5.135771E-19
4.710000E+03	8.408873E-18	5.146621E-19
4.720000E+03	8.464623E-18	5.158188E-19
4.730000E+03	8.518309E-18	5.170356E-19
4.740000E+03	8.569962E-18	5.183111E-19
4.750000E+03	8.619478E-18	5.196303E-19
4.760000E+03	8.666928E-18	5.209845E-19
4.770000E+03	8.712324E-18	5.223575E-19
4.780000E+03	8.755617E-18	5.237267E-19
4.790000E+03	8.796932E-18	5.250776E-19
4.800000E+03	8.836249E-18	5.263865E-19
4.810000E+03	8.873721E-18	5.276398E-19
4.820000E+03	8.909351E-18	5.288158E-19
4.830000E+03	8.943229E-18	5.299000E-19
4.840000E+03	8.975455E-18	5.308803E-19
4.850000E+03	9.006213E-18	5.317531E-19
4.860000E+03	9.035528E-18	5.325077E-19
4.870000E+03	9.063504E-18	5.331418E-19
4.880000E+03	9.090160E-18	5.336510E-19
4.890000E+03	9.115769E-18	5.340485E-19
4.900000E+03	9.140341E-18	5.343346E-19
4.910000E+03	9.163967E-18	5.345161E-19
4.920000E+03	9.186644E-18	5.345957E-19
4.930000E+03	9.208531E-18	5.345866E-19
4.940000E+03	9.229608E-18	5.344916E-19
4.950000E+03	9.249928E-18	5.343180E-19
4.960000E+03	9.269625E-18	5.340771E-19
4.970000E+03	9.288647E-18	5.337690E-19
4.980000E+03	9.307020E-18	5.333974E-19
4.990000E+03	9.324669E-18	5.329596E-19
5.000000E+03	9.341690E-18	5.324617E-19
5.010000E+03	9.358078E-18	5.319031E-19
5.020000E+03	9.373733E-18	5.312773E-19
5.030000E+03	9.388631E-18	5.305816E-19
5.040000E+03	9.402744E-18	5.298125E-19
5.050000E+03	9.415945E-18	5.289608E-19
5.060000E+03	9.428282E-18	5.280274E-19
5.070000E+03	9.439710E-18	5.270080E-19
5.080000E+03	9.449996E-18	5.258881E-19
5.090000E+03	9.459179E-18	5.246693E-19
5.100000E+03	9.467205E-18	5.233483E-19
5.110000E+03	9.473927E-18	5.219176E-19
5.120000E+03	9.479291E-18	5.203756E-19
5.130000E+03	9.483239E-18	5.187216E-19
5.140000E+03	9.485718E-18	5.169562E-19
5.150000E+03	9.486578E-18	5.150764E-19
5.160000E+03	9.485856E-18	5.130910E-19
5.170000E+03	9.483310E-18	5.109959E-19
5.180000E+03	9.478973E-18	5.088043E-19
5.190000E+03	9.472692E-18	5.065219E-19
5.200000E+03	9.464407E-18	5.041619E-19
5.210000E+03	9.454051E-18	5.017396E-19
5.220000E+03	9.441558E-18	4.992723E-19
5.230000E+03	9.426675E-18	4.967689E-19
5.240000E+03	9.409515E-18	4.942584E-19
5.250000E+03	9.389913E-18	4.917553E-19
5.260000E+03	9.367798E-18	4.892788E-19
5.270000E+03	9.343006E-18	4.868423E-19
5.280000E+03	9.315472E-18	4.844630E-19
5.290000E+03	9.285137E-18	4.821571E-19
5.300000E+03	9.251949E-18	4.799394E-19
5.310000E+03	9.215873E-18	4.778235E-19
5.320000E+03	9.176794E-18	4.758175E-19
5.330000E+03	9.134890E-18	4.739423E-19
5.340000E+03	9.089996E-18	4.721990E-19
5.350000E+03	9.042151E-18	4.705974E-19
5.360000E+03	8.991595E-18	4.691553E-19
5.370000E+03	8.938238E-18	4.678710E-19
5.380000E+03	8.882367E-18	4.667602E-19
5.390000E+03	8.824030E-18	4.658238E-19
5.400000E+03	8.763476E-18	4.650706E-19
5.410000E+03	8.700804E-18	4.644993E-19
5.420000E+03	8.636396E-18	4.641213E-19
5.430000E+03	8.570396E-18	4.639333E-19
5.440000E+03	8.503142E-18	4.639404E-19
5.450000E+03	8.434734E-18	4.641329E-19
5.460000E+03	8.365546E-18	4.645143E-19
5.470000E+03	8.295796E-18	4.650780E-19
5.480000E+03	8.225714E-18	4.658168E-19
5.490000E+03	8.155706E-18	4.667323E-19
5.500000E+03	8.085933E-18	4.678114E-19
5.510000E+03	8.016645E-18	4.690457E-19
5.520000E+03	7.948170E-18	4.704313E-19
5.530000E+03	7.880671E-18	4.719552E-19
5.540000E+03	7.814544E-18	4.736189E-19
5.550000E+03	7.749858E-18	4.754055E-19
5.560000E+03	7.687061E-18	4.773224E-19
5.570000E+03	7.626350E-18	4.793640E-19
5.580000E+03	7.567903E-18	4.815249E-19
5.590000E+03	7.511957E-18	4.838059E-19
5.600000E+03	7.458727E-18	4.862085E-19
5.610000E+03	7.408330E-18	4.887306E-19
5.620000E+03	7.361087E-18	4.913857E-19
5.630000E+03	7.316993E-18	4.941688E-19
5.640000E+03	7.276323E-18	4.970957E-19
5.650000E+03	7.239029E-18	5.001633E-19
5.660000E+03	7.205342E-18	5.033897E-19
5.670000E+03	7.175324E-18	5.067839E-19
5.680000E+03	7.148944E-18	5.103503E-19
5.690000E+03	7.126305E-18	5.141045E-19
5.700000E+03	7.107419E-18	5.180572E-19
5.710000E+03	7.092358E-18	5.222250E-19
5.720000E+03	7.081112E-18	5.266189E-19
5.730000E+03	7.073582E-18	5.312443E-19
5.740000E+03	7.069888E-18	5.361226E-19
5.750000E+03	7.069991E-18	5.412637E-19
5.760000E+03	7.073775E-18	5.466706E-19
5.770000E+03	7.081268E-18	5.523565E-19
5.780000E+03	7.092495E-18	5.583338E-19
5.790000E+03	7.107406E-18	5.646074E-19
5.800000E+03	7.125873E-18	5.711749E-19
5.810000E+03	7.147920E-18	5.780440E-19
5.820000E+03	7.173573E-18	5.852216E-19
5.830000E+03	7.202784E-18	5.927068E-19
5.840000E+03	7.235428E-18	6.004907E-19
5.850000E+03	7.271537E-18	6.085760E-19
5.860000E+03	7.311069E-18	6.169577E-19
5.870000E+03	7.354065E-18	6.256366E-19
5.880000E+03	7.400488E-18	6.346058E-19
5.890000E+03	7.450224E-18	6.438506E-19
5.900000E+03	7.503321E-18	6.533694E-19
5.910000E+03	7.559664E-18	6.631459E-19
5.920000E+03	7.619474E-18	6.731926E-19
5.930000E+03	7.682469E-18	6.834778E-19
5.940000E+03	7.748702E-18	6.939988E-19
5.950000E+03	7.818228E-18	7.047537E-19
5.960000E+03	7.890929E-18	7.157247E-19
5.970000E+03	7.966769E-18	7.269019E-19
5.980000E+03	8.045804E-18	7.382838E-19
5.990000E+03	8.127906E-18	7.498525E-19
6.000000E+03	8.213128E-18	7.616073E-19
6.010000E+03	8.301242E-18	7.735212E-19
6.020000E+03	8.392394E-18	7.856029E-19
6.030000E+03	8.486343E-18	7.978249E-19
6.040000E+03	8.583239E-18	8.101968E-19
6.050000E+03	8.682731E-18	8.226813E-19
6.060000E+03	8.784963E-18	8.352883E-19
6.070000E+03	8.889779E-18	8.479992E-19
6.080000E+03	8.997116E-18	8.608048E-19
6.090000E+03	9.106694E-18	8.736753E-19
6.100000E+03	9.218661E-18	8.866221E-19
6.110000E+03	9.332610E-18	8.996035E-19
6.120000E+03	9.448686E-18	9.126314E-19
6.130000E+03	9.566463E-18	9.256624E-19
6.140000E+03	9.685845E-18	9.386857E-19
6.150000E+03	9.806612E-18	9.516782E-19
6.160000E+03	9.928656E-18	9.646285E-19
6.170000E+03	1.005149E-17	9.774884E-19
6.180000E+03	1.017499E-17	9.902444E-19
6.190000E+03	1.029888E-17	1.002870E-18
6.200000E+03	1.042301E-17	1.015352E-18
6.210000E+03	1.054725E-17	1.027676E-18
6.220000E+03	1.067170E-17	1.039853E-18
6.230000E+03	1.079665E-17	1.051914E-18
6.240000E+03	1.092212E-17	1.063860E-18
6.250000E+03	1.104829E-17	1.075712E-18
6.260000E+03	1.117535E-17	1.087489E-18
6.270000E+03	1.130336E-17	1.099201E-18
6.280000E+03	1.143256E-17	1.110871E-18
6.290000E+03	1.156305E-17	1.122513E-18
6.300000E+03	1.169493E-17	1.134138E-18
6.310000E+03	1.182851E-17	1.145777E-18
6.320000E+03	1.196375E-17	1.157431E-18
6.330000E+03	1.210098E-17	1.169132E-18
6.340000E+03	1.224003E-17	1.180868E-18
6.350000E+03	1.238109E-17	1.192656E-18
6.360000E+03	1.252417E-17	1.204501E-18
6.370000E+03	1.266946E-17	1.216423E-18
6.380000E+03	1.281682E-17	1.228410E-18
6.390000E+03	1.296628E-17	1.240467E-18
6.400000E+03	1.311767E-17	1.252579E-18
6.410000E+03	1.327063E-17	1.264715E-18
6.420000E+03	1.342498E-17	1.276858E-18
6.430000E+03	1.358072E-17	1.289010E-18
6.440000E+03	1.373785E-17	1.301175E-18
6.450000E+03	1.389638E-17	1.313353E-18
6.460000E+03	1.405652E-17	1.325568E-18
6.470000E+03	1.421851E-17	1.337844E-18
6.480000E+03	1.438238E-17	1.350186E-18
6.490000E+03	1.454796E-17	1.362577E-18
6.500000E+03	1.471572E-17	1.375063E-18
6.510000E+03	1.488572E-17	1.387652E-18
6.520000E+03	1.505778E-17	1.400328E-18
6.530000E+03	1.523219E-17	1.413118E-18
6.540000E+03	1.540902E-17	1.426028E-18
6.550000E+03	1.558807E-17	1.439042E-18
6.560000E+03	1.576941E-17	1.452166E-18
6.570000E+03	1.595361E-17	1.465452E-18
6.580000E+03	1.613996E-17	1.478837E-18
6.590000E+03	1.632906E-17	1.492373E-18
6.600000E+03	1.652097E-17	1.506067E-18
6.610000E+03	1.671522E-17	1.519876E-18
6.620000E+03	1.691243E-17	1.533855E-18
6.630000E+03	1.711211E-17	1.547959E-18
6.640000E+03	1.731488E-17	1.562244E-18
6.650000E+03	1.752026E-17	1.576666E-18
6.660000E+03	1.772859E-17	1.591254E-18
6.670000E+03	1.793995E-17	1.606014E-18
6.680000E+03	1.815410E-17	1.620924E-18
6.690000E+03	1.837111E-17	1.635988E-18
6.700000E+03	1.859134E-17	1.651240E-18
6.710000E+03	1.881457E-17	1.666655E-18
6.720000E+03	1.904085E-17	1.682239E-18
6.730000E+03	1.927026E-17	1.697994E-18
6.740000E+03	1.950286E-17	1.713927E-18
6.750000E+03	1.973872E-17	1.730040E-18
6.760000E+03	1.997792E-17	1.746339E-18
6.770000E+03	2.022017E-17	1.762796E-18
6.780000E+03	2.046590E-17	1.779445E-18
6.790000E+03	2.071518E-17	1.796292E-18
6.800000E+03	2.096772E-17	1.813306E-18
6.810000E+03	2.122397E-17	1.830523E-18
6.820000E+03	2.148361E-17	1.847915E-18
6.830000E+03	2.174672E-17	1.865483E-18
6.840000E+03	2.201336E-17	1.883229E-18
6.850000E+03	2.228359E-17	1.901156E-18
6.860000E+03	2.255789E-17	1.919302E-18
6.870000E+03	2.283552E-17	1.937597E-18
6.880000E+03	2.311694E-17	1.956081E-18
6.890000E+03	2.340222E-17	1.974754E-18
6.900000E+03	2.369099E-17	1.993583E-18
6.910000E+03	2.398374E-17	2.012605E-18
6.920000E+03	2.428054E-17	2.031824E-18
6.930000E+03	2.458099E-17	2.051204E-18
6.940000E+03	2.488514E-17	2.070746E-18
6.950000E+03	2.519351E-17	2.090491E-18
6.960000E+03	2.550567E-17	2.110402E-18
6.970000E+03	2.582167E-17	2.130480E-18
6.980000E+03	2.614155E-17	2.150727E-18
6.990000E+03	2.646534E-17	2.171144E-18
7.000000E+03	2.679257E-17	2.191689E-18
7.010000E+03	2.712430E-17	2.212448E-18
7.020000E+03	2.745953E-17	2.233336E-18
7.030000E+03	2.779882E-17	2.254396E-18
7.040000E+03	2.814164E-17	2.275584E-18
7.050000E+03	2.848801E-17	2.296897E-18
7.060000E+03	2.883851E-17	2.318379E-18
7.070000E+03	2.919259E-17	2.339983E-18
7.080000E+03	2.954967E-17	2.361656E-18
7.090000E+03	2.991092E-17	2.383489E-18
7.100000E+03	3.027577E-17	2.405429E-18
7.110000E+03	3.064358E-17	2.427422E-18
7.120000E+03	3.101496E-17	2.449508E-18
7.130000E+03	3.138926E-17	2.471629E-18
7.140000E+03	3.176706E-17	2.493825E-18
7.150000E+03	3.214770E-17	2.516035E-18
7.160000E+03	3.253177E-17	2.538298E-18
7.170000E+03	3.291788E-17	2.560497E-18
7.180000E+03	3.330659E-17	2.582669E-18
7.190000E+03	3.369853E-17	2.604853E-18
7.200000E+03	3.409218E-17	2.626924E-18
7.210000E+03	3.448740E-17	2.648865E-18
7.220000E+03	3.488474E-17	2.670712E-18
7.230000E+03	3.528405E-17	2.692448E-18
7.240000E+03	3.568440E-17	2.713997E-18
7.250000E+03	3.608631E-17	2.735398E-18
7.260000E+03	3.648879E-17	2.756572E-18
7.270000E+03	3.689155E-17	2.777500E-18
7.280000E+03	3.729508E-17	2.798224E-18
7.290000E+03	3.769827E-17	2.818665E-18
7.300000E+03	3.810158E-17	2.838866E-18
7.310000E+03	3.850379E-17	2.858750E-18
7.320000E+03	3.890450E-17	2.878302E-18
7.330000E+03	3.930496E-17	2.897635E-18
7.340000E+03	3.970302E-17	2.916611E-18
7.350000E+03	4.009995E-17	2.935350E-18
7.360000E+03	4.049438E-17	2.953783E-18
7.370000E+03	4.088671E-17	2.971972E-18
7.380000E+03	4.127737E-17	2.989984E-18
7.390000E+03	4.166493E-17	3.007756E-18
7.400000E+03	4.205076E-17	3.025430E-18
7.410000E+03	4.243441E-17	3.043017E-18
7.420000E+03	4.281637E-17	3.060598E-18
7.430000E+03	4.319620E-17	3.078188E-18
7.440000E+03	4.357348E-17	3.095800E-18
7.450000E+03	4.394878E-17	3.113522E-18
7.460000E+03	4.431970E-17	3.131221E-18
7.470000E+03	4.468580E-17	3.148905E-18
7.480000E+03	4.504566E-17	3.166503E-18
7.490000E+03	4.539999E-17	3.184087E-18
7.500000E+03	4.574744E-17	3.201574E-18
7.510000E+03	4.608671E-17	3.218871E-18
7.520000E+03	4.641760E-17	3.235955E-18
7.530000E+03	4.674002E-17	3.252794E-18
7.540000E+03	4.705283E-17	3.269271E-18
7.550000E+03	4.735719E-17	3.285420E-18
7.560000E+03	4.765093E-17	3.301034E-18
7.570000E+03	4.793646E-17	3.316218E-18
7.580000E+03	4.821285E-17	3.330839E-18
7.590000E+03	4.848032E-17	3.344844E-18
7.600000E+03	4.873791E-17	3.358100E-18
7.610000E+03	4.898704E-17	3.370640E-18
7.620000E+03	4.922797E-17	3.382421E-18
7.630000E+03	4.946094E-17	3.393408E-18
7.640000E+03	4.968493E-17	3.403485E-18
7.650000E+03	4.990139E-17	3.412714E-18
7.660000E+03	5.010922E-17	3.420993E-18
7.670000E+03	5.031109E-17	3.428483E-18
7.680000E+03	5.050335E-17	3.434923E-18
7.690000E+03	5.068985E-17	3.440573E-18
7.700000E+03	5.086942E-17	3.445353E-18
7.710000E+03	5.104078E-17	3.449185E-18
7.720000E+03	5.120521E-17	3.452169E-18
7.730000E+03	5.136269E-17	3.454316E-18
7.740000E+03	5.151316E-17	3.455644E-18
7.750000E+03	5.165651E-17	3.456166E-18
7.760000E+03	5.179398E-17	3.455987E-18
