#wls	flux	fluxerr
1.600000E+03	2.475811E-16	2.431700E-16
1.640000E+03	2.552008E-16	2.465330E-16
1.680000E+03	2.627680E-16	2.495020E-16
1.720000E+03	2.703286E-16	2.521137E-16
1.760000E+03	2.777958E-16	2.542806E-16
1.800000E+03	2.851253E-16	2.559593E-16
1.840000E+03	2.922889E-16	2.571245E-16
1.880000E+03	2.992017E-16	2.577047E-16
1.920000E+03	3.057958E-16	2.576499E-16
1.960000E+03	3.119966E-16	2.569103E-16
2.000000E+03	3.176784E-16	2.554026E-16
2.040000E+03	3.227813E-16	2.531060E-16
2.080000E+03	3.271336E-16	2.499211E-16
2.120000E+03	3.305740E-16	2.457718E-16
2.160000E+03	3.329743E-16	2.406221E-16
2.200000E+03	3.341639E-16	2.344191E-16
2.240000E+03	3.339446E-16	2.271087E-16
2.280000E+03	3.322988E-16	2.187757E-16
2.320000E+03	3.291926E-16	2.094993E-16
2.360000E+03	3.247425E-16	1.994569E-16
2.400000E+03	3.190769E-16	1.888251E-16
2.440000E+03	3.123177E-16	1.777673E-16
2.480000E+03	3.045926E-16	1.664409E-16
2.520000E+03	2.959716E-16	1.549625E-16
2.560000E+03	2.865740E-16	1.434679E-16
2.600000E+03	2.764598E-16	1.320534E-16
2.640000E+03	2.657075E-16	1.208186E-16
2.680000E+03	2.543851E-16	1.098504E-16
2.720000E+03	2.425801E-16	9.923655E-17
2.760000E+03	2.303739E-16	8.905268E-17
2.800000E+03	2.178530E-16	7.936712E-17
2.840000E+03	2.051273E-16	7.024590E-17
2.880000E+03	1.923044E-16	6.174191E-17
2.920000E+03	1.795087E-16	5.390041E-17
2.960000E+03	1.668661E-16	4.675323E-17
3.000000E+03	1.544991E-16	4.031725E-17
3.010000E+03	1.514632E-16	3.881965E-17
3.020000E+03	1.484537E-16	3.736661E-17
3.030000E+03	1.454716E-16	3.595778E-17
3.040000E+03	1.425212E-16	3.459357E-17
3.050000E+03	1.396004E-16	3.327276E-17
3.060000E+03	1.367103E-16	3.199493E-17
3.070000E+03	1.338576E-16	3.076093E-17
3.080000E+03	1.310377E-16	2.956884E-17
3.090000E+03	1.282570E-16	2.841934E-17
3.100000E+03	1.255137E-16	2.731116E-17
3.110000E+03	1.228088E-16	2.624365E-17
3.120000E+03	1.201481E-16	2.521713E-17
3.130000E+03	1.175276E-16	2.422981E-17
3.140000E+03	1.149507E-16	2.328142E-17
3.150000E+03	1.124183E-16	2.237116E-17
3.160000E+03	1.099334E-16	2.149859E-17
3.170000E+03	1.074948E-16	2.066243E-17
3.180000E+03	1.051056E-16	1.986218E-17
3.190000E+03	1.027665E-16	1.909689E-17
3.200000E+03	1.004766E-16	1.836530E-17
3.210000E+03	9.823876E-17	1.766679E-17
3.220000E+03	9.605549E-17	1.700068E-17
3.230000E+03	9.392421E-17	1.636538E-17
3.240000E+03	9.184897E-17	1.576046E-17
3.250000E+03	8.982731E-17	1.518437E-17
3.260000E+03	8.786432E-17	1.463688E-17
3.270000E+03	8.595604E-17	1.411620E-17
3.280000E+03	8.410436E-17	1.362159E-17
3.290000E+03	8.231087E-17	1.315226E-17
3.300000E+03	8.057435E-17	1.270699E-17
3.310000E+03	7.889609E-17	1.228499E-17
3.320000E+03	7.727355E-17	1.188491E-17
3.330000E+03	7.570784E-17	1.150601E-17
3.340000E+03	7.419871E-17	1.114734E-17
3.350000E+03	7.274581E-17	1.080802E-17
3.360000E+03	7.134871E-17	1.048715E-17
3.370000E+03	7.000591E-17	1.018372E-17
3.380000E+03	6.871695E-17	9.896931E-18
3.390000E+03	6.748128E-17	9.625978E-18
3.400000E+03	6.629832E-17	9.370100E-18
3.410000E+03	6.516652E-17	9.128437E-18
3.420000E+03	6.408530E-17	8.900293E-18
3.430000E+03	6.305401E-17	8.685003E-18
3.440000E+03	6.207115E-17	8.481820E-18
3.450000E+03	6.113609E-17	8.290147E-18
3.460000E+03	6.024818E-17	8.109416E-18
3.470000E+03	5.940523E-17	7.938889E-18
3.480000E+03	5.860739E-17	7.778170E-18
3.490000E+03	5.785330E-17	7.626690E-18
3.500000E+03	5.714166E-17	7.483918E-18
3.510000E+03	5.647190E-17	7.349445E-18
3.520000E+03	5.584212E-17	7.222717E-18
3.530000E+03	5.525183E-17	7.103385E-18
3.540000E+03	5.469990E-17	6.991039E-18
3.550000E+03	5.418524E-17	6.885296E-18
3.560000E+03	5.370681E-17	6.785802E-18
3.570000E+03	5.326363E-17	6.692222E-18
3.580000E+03	5.285416E-17	6.604174E-18
3.590000E+03	5.247809E-17	6.521443E-18
3.600000E+03	5.213400E-17	6.443686E-18
3.610000E+03	5.182160E-17	6.370723E-18
3.620000E+03	5.153903E-17	6.302181E-18
3.630000E+03	5.128662E-17	6.237973E-18
3.640000E+03	5.106205E-17	6.177697E-18
3.650000E+03	5.086518E-17	6.121229E-18
3.660000E+03	5.069486E-17	6.068326E-18
3.670000E+03	5.055097E-17	6.018880E-18
3.680000E+03	5.043190E-17	5.972612E-18
3.690000E+03	5.033759E-17	5.929432E-18
3.700000E+03	5.026697E-17	5.889140E-18
3.710000E+03	5.021998E-17	5.851657E-18
3.720000E+03	5.019559E-17	5.816798E-18
3.730000E+03	5.019422E-17	5.784548E-18
3.740000E+03	5.021436E-17	5.754676E-18
3.750000E+03	5.025644E-17	5.727175E-18
3.760000E+03	5.031989E-17	5.701930E-18
3.770000E+03	5.040462E-17	5.678881E-18
3.780000E+03	5.051008E-17	5.657918E-18
3.790000E+03	5.063661E-17	5.639035E-18
3.800000E+03	5.078318E-17	5.622076E-18
3.810000E+03	5.095013E-17	5.607035E-18
3.820000E+03	5.113730E-17	5.593858E-18
3.830000E+03	5.134454E-17	5.582492E-18
3.840000E+03	5.157170E-17	5.572881E-18
3.850000E+03	5.181814E-17	5.564924E-18
3.860000E+03	5.208458E-17	5.558664E-18
3.870000E+03	5.237083E-17	5.554047E-18
3.880000E+03	5.267622E-17	5.550969E-18
3.890000E+03	5.300097E-17	5.549424E-18
3.900000E+03	5.334484E-17	5.549353E-18
3.910000E+03	5.370803E-17	5.550745E-18
3.920000E+03	5.408981E-17	5.553491E-18
3.930000E+03	5.449079E-17	5.557621E-18
3.940000E+03	5.491020E-17	5.563021E-18
3.950000E+03	5.534863E-17	5.569712E-18
3.960000E+03	5.580526E-17	5.577574E-18
3.970000E+03	5.627969E-17	5.586527E-18
3.980000E+03	5.677245E-17	5.596581E-18
3.990000E+03	5.728264E-17	5.607603E-18
4.000000E+03	5.781025E-17	5.619549E-18
4.010000E+03	5.835479E-17	5.632328E-18
4.020000E+03	5.891621E-17	5.645890E-18
4.030000E+03	5.949394E-17	5.660138E-18
4.040000E+03	6.008738E-17	5.674975E-18
4.050000E+03	6.069640E-17	5.690349E-18
4.060000E+03	6.132081E-17	5.706208E-18
4.070000E+03	6.195889E-17	5.722359E-18
4.080000E+03	6.261140E-17	5.738847E-18
4.090000E+03	6.327652E-17	5.755479E-18
4.100000E+03	6.395441E-17	5.772255E-18
4.110000E+03	6.464364E-17	5.789034E-18
4.120000E+03	6.534376E-17	5.805772E-18
4.130000E+03	6.605372E-17	5.822377E-18
4.140000E+03	6.677244E-17	5.838766E-18
4.150000E+03	6.749872E-17	5.854853E-18
4.160000E+03	6.823131E-17	5.870563E-18
4.170000E+03	6.896944E-17	5.885869E-18
4.180000E+03	6.971171E-17	5.900706E-18
4.190000E+03	7.045604E-17	5.914967E-18
4.200000E+03	7.120084E-17	5.928603E-18
4.210000E+03	7.194444E-17	5.941576E-18
4.220000E+03	7.268567E-17	5.953905E-18
4.230000E+03	7.342209E-17	5.965530E-18
4.240000E+03	7.415177E-17	5.976452E-18
4.250000E+03	7.487209E-17	5.986639E-18
4.260000E+03	7.558158E-17	5.996174E-18
4.270000E+03	7.627745E-17	6.005060E-18
4.280000E+03	7.695752E-17	6.013367E-18
4.290000E+03	7.761952E-17	6.021181E-18
4.300000E+03	7.825990E-17	6.028508E-18
4.310000E+03	7.887763E-17	6.035561E-18
4.320000E+03	7.946915E-17	6.042368E-18
4.330000E+03	8.003221E-17	6.049060E-18
4.340000E+03	8.056394E-17	6.055718E-18
4.350000E+03	8.106361E-17	6.062568E-18
4.360000E+03	8.152727E-17	6.069565E-18
4.370000E+03	8.195454E-17	6.076895E-18
4.380000E+03	8.234399E-17	6.084603E-18
4.390000E+03	8.269525E-17	6.092739E-18
4.400000E+03	8.300919E-17	6.101339E-18
4.410000E+03	8.328648E-17	6.110333E-18
4.420000E+03	8.352964E-17	6.119704E-18
4.430000E+03	8.373870E-17	6.129189E-18
4.440000E+03	8.391677E-17	6.138715E-18
4.450000E+03	8.406505E-17	6.148036E-18
4.460000E+03	8.418561E-17	6.156957E-18
4.470000E+03	8.428212E-17	6.165395E-18
4.480000E+03	8.435469E-17	6.173011E-18
4.490000E+03	8.440789E-17	6.179807E-18
4.500000E+03	8.444195E-17	6.185485E-18
4.510000E+03	8.446078E-17	6.190043E-18
4.520000E+03	8.446607E-17	6.193344E-18
4.530000E+03	8.446026E-17	6.195337E-18
4.540000E+03	8.444574E-17	6.195999E-18
4.550000E+03	8.442333E-17	6.195229E-18
4.560000E+03	8.439682E-17	6.193173E-18
4.570000E+03	8.436692E-17	6.189785E-18
4.580000E+03	8.433575E-17	6.185153E-18
4.590000E+03	8.430537E-17	6.179388E-18
4.600000E+03	8.427775E-17	6.172622E-18
4.610000E+03	8.425401E-17	6.164946E-18
4.620000E+03	8.423517E-17	6.156466E-18
4.630000E+03	8.422295E-17	6.147353E-18
4.640000E+03	8.421896E-17	6.137787E-18
4.650000E+03	8.422476E-17	6.127953E-18
4.660000E+03	8.424025E-17	6.117925E-18
4.670000E+03	8.426762E-17	6.107944E-18
4.680000E+03	8.430740E-17	6.098138E-18
4.690000E+03	8.436007E-17	6.088626E-18
4.700000E+03	8.442682E-17	6.079578E-18
4.710000E+03	8.450802E-17	6.071095E-18
4.720000E+03	8.460392E-17	6.063264E-18
4.730000E+03	8.471476E-17	6.056156E-18
4.740000E+03	8.484066E-17	6.049822E-18
4.750000E+03	8.498170E-17	6.044297E-18
4.760000E+03	8.513791E-17	6.039601E-18
4.770000E+03	8.530923E-17	6.035742E-18
4.780000E+03	8.549474E-17	6.032658E-18
4.790000E+03	8.569508E-17	6.030393E-18
4.800000E+03	8.590837E-17	6.028813E-18
4.810000E+03	8.613597E-17	6.028005E-18
4.820000E+03	8.637585E-17	6.027823E-18
4.830000E+03	8.662842E-17	6.028292E-18
4.840000E+03	8.689321E-17	6.029376E-18
4.850000E+03	8.716801E-17	6.030921E-18
4.860000E+03	8.745393E-17	6.033009E-18
4.870000E+03	8.774951E-17	6.035546E-18
4.880000E+03	8.805498E-17	6.038555E-18
4.890000E+03	8.836708E-17	6.041824E-18
4.900000E+03	8.868771E-17	6.045495E-18
4.910000E+03	8.901442E-17	6.049414E-18
4.920000E+03	8.934739E-17	6.053599E-18
4.930000E+03	8.968499E-17	6.057950E-18
4.940000E+03	9.002741E-17	6.062477E-18
4.950000E+03	9.037214E-17	6.067008E-18
4.960000E+03	9.071935E-17	6.071541E-18
4.970000E+03	9.106924E-17	6.076068E-18
4.980000E+03	9.141930E-17	6.080392E-18
4.990000E+03	9.176885E-17	6.084428E-18
5.000000E+03	9.211812E-17	6.088143E-18
5.010000E+03	9.246645E-17	6.091438E-18
5.020000E+03	9.281135E-17	6.094085E-18
5.030000E+03	9.315307E-17	6.096034E-18
5.040000E+03	9.349096E-17	6.097170E-18
5.050000E+03	9.382434E-17	6.097378E-18
5.060000E+03	9.415162E-17	6.096481E-18
5.070000E+03	9.447208E-17	6.094365E-18
5.080000E+03	9.478594E-17	6.090981E-18
5.090000E+03	9.509055E-17	6.086102E-18
5.100000E+03	9.538605E-17	6.079689E-18
5.110000E+03	9.567064E-17	6.071591E-18
5.120000E+03	9.594341E-17	6.061725E-18
5.130000E+03	9.620342E-17	6.050017E-18
5.140000E+03	9.644963E-17	6.036406E-18
5.150000E+03	9.667999E-17	6.020782E-18
5.160000E+03	9.689431E-17	6.003167E-18
5.170000E+03	9.708941E-17	5.983420E-18
5.180000E+03	9.726496E-17	5.961591E-18
5.190000E+03	9.741858E-17	5.937629E-18
5.200000E+03	9.754881E-17	5.911557E-18
5.210000E+03	9.765414E-17	5.883413E-18
5.220000E+03	9.773295E-17	5.853252E-18
5.230000E+03	9.778165E-17	5.821024E-18
5.240000E+03	9.780051E-17	5.786929E-18
5.250000E+03	9.778489E-17	5.750886E-18
5.260000E+03	9.773502E-17	5.713117E-18
5.270000E+03	9.764725E-17	5.673623E-18
5.280000E+03	9.752089E-17	5.632584E-18
5.290000E+03	9.735339E-17	5.590075E-18
5.300000E+03	9.714230E-17	5.546173E-18
5.310000E+03	9.688724E-17	5.501075E-18
5.320000E+03	9.658514E-17	5.454812E-18
5.330000E+03	9.623600E-17	5.407584E-18
5.340000E+03	9.583819E-17	5.359485E-18
5.350000E+03	9.539038E-17	5.310616E-18
5.360000E+03	9.489253E-17	5.261136E-18
5.370000E+03	9.434498E-17	5.211209E-18
5.380000E+03	9.374848E-17	5.161012E-18
5.390000E+03	9.310234E-17	5.110623E-18
5.400000E+03	9.240914E-17	5.060288E-18
5.410000E+03	9.167010E-17	5.010160E-18
5.420000E+03	9.088871E-17	4.960498E-18
5.430000E+03	9.006621E-17	4.911417E-18
5.440000E+03	8.920881E-17	4.863277E-18
5.450000E+03	8.832126E-17	4.816330E-18
5.460000E+03	8.741300E-17	4.771052E-18
5.470000E+03	8.648665E-17	4.727509E-18
5.480000E+03	8.554087E-17	4.685504E-18
5.490000E+03	8.457641E-17	4.644902E-18
5.500000E+03	8.359682E-17	4.605658E-18
5.510000E+03	8.260905E-17	4.567854E-18
5.520000E+03	8.161585E-17	4.531301E-18
5.530000E+03	8.062496E-17	4.496065E-18
5.540000E+03	7.963993E-17	4.461978E-18
5.550000E+03	7.866669E-17	4.429019E-18
5.560000E+03	7.771103E-17	4.397184E-18
5.570000E+03	7.677853E-17	4.366491E-18
5.580000E+03	7.587298E-17	4.336896E-18
5.590000E+03	7.499949E-17	4.308469E-18
5.600000E+03	7.416279E-17	4.281305E-18
5.610000E+03	7.336653E-17	4.255476E-18
5.620000E+03	7.261392E-17	4.231070E-18
5.630000E+03	7.190923E-17	4.208271E-18
5.640000E+03	7.125403E-17	4.187139E-18
5.650000E+03	7.065087E-17	4.167818E-18
5.660000E+03	7.010108E-17	4.150404E-18
5.670000E+03	6.960619E-17	4.135022E-18
5.680000E+03	6.916656E-17	4.121742E-18
5.690000E+03	6.878209E-17	4.110614E-18
5.700000E+03	6.845299E-17	4.101713E-18
5.710000E+03	6.817912E-17	4.095092E-18
5.720000E+03	6.795862E-17	4.090701E-18
5.730000E+03	6.779080E-17	4.088554E-18
5.740000E+03	6.767410E-17	4.088603E-18
5.750000E+03	6.760688E-17	4.090783E-18
5.760000E+03	6.758884E-17	4.095098E-18
5.770000E+03	6.761685E-17	4.101362E-18
5.780000E+03	6.769067E-17	4.109548E-18
5.790000E+03	6.780801E-17	4.119482E-18
5.800000E+03	6.796812E-17	4.131062E-18
5.810000E+03	6.816963E-17	4.144127E-18
5.820000E+03	6.841131E-17	4.158501E-18
5.830000E+03	6.869281E-17	4.174037E-18
5.840000E+03	6.901239E-17	4.190487E-18
5.850000E+03	6.936993E-17	4.207676E-18
5.860000E+03	6.976468E-17	4.225376E-18
5.870000E+03	7.019518E-17	4.243302E-18
5.880000E+03	7.066236E-17	4.261301E-18
5.890000E+03	7.116410E-17	4.279029E-18
5.900000E+03	7.170145E-17	4.296331E-18
5.910000E+03	7.227312E-17	4.312913E-18
5.920000E+03	7.287859E-17	4.328535E-18
5.930000E+03	7.351813E-17	4.343017E-18
5.940000E+03	7.418956E-17	4.356050E-18
5.950000E+03	7.489306E-17	4.367491E-18
5.960000E+03	7.562881E-17	4.377221E-18
5.970000E+03	7.639438E-17	4.385005E-18
5.980000E+03	7.718982E-17	4.390786E-18
5.990000E+03	7.801429E-17	4.394497E-18
6.000000E+03	7.886596E-17	4.396063E-18
6.010000E+03	7.974386E-17	4.395502E-18
6.020000E+03	8.064692E-17	4.392886E-18
6.030000E+03	8.157313E-17	4.388290E-18
6.040000E+03	8.252135E-17	4.381903E-18
6.050000E+03	8.349135E-17	4.374034E-18
6.060000E+03	8.447902E-17	4.364862E-18
6.070000E+03	8.548504E-17	4.354907E-18
6.080000E+03	8.650511E-17	4.344526E-18
6.090000E+03	8.753990E-17	4.334430E-18
6.100000E+03	8.858488E-17	4.325175E-18
6.110000E+03	8.963961E-17	4.317626E-18
6.120000E+03	9.070039E-17	4.312589E-18
6.130000E+03	9.176665E-17	4.311104E-18
6.140000E+03	9.283444E-17	4.314112E-18
6.150000E+03	9.390076E-17	4.322617E-18
6.160000E+03	9.496475E-17	4.337694E-18
6.170000E+03	9.602203E-17	4.360158E-18
6.180000E+03	9.707162E-17	4.390816E-18
6.190000E+03	9.811147E-17	4.430171E-18
6.200000E+03	9.913976E-17	4.478409E-18
6.210000E+03	1.001549E-16	4.535381E-18
6.220000E+03	1.011582E-16	4.600739E-18
6.230000E+03	1.021483E-16	4.673780E-18
6.240000E+03	1.031254E-16	4.753675E-18
6.250000E+03	1.040897E-16	4.839478E-18
6.260000E+03	1.050442E-16	4.930317E-18
6.270000E+03	1.059868E-16	5.025061E-18
6.280000E+03	1.069178E-16	5.122738E-18
6.290000E+03	1.078393E-16	5.222511E-18
6.300000E+03	1.087520E-16	5.323562E-18
6.310000E+03	1.096555E-16	5.425101E-18
6.320000E+03	1.105490E-16	5.526434E-18
6.330000E+03	1.114350E-16	5.627117E-18
6.340000E+03	1.123117E-16	5.726578E-18
6.350000E+03	1.131799E-16	5.824484E-18
6.360000E+03	1.140392E-16	5.920507E-18
6.370000E+03	1.148891E-16	6.014388E-18
6.380000E+03	1.157290E-16	6.105931E-18
6.390000E+03	1.165585E-16	6.194990E-18
6.400000E+03	1.173767E-16	6.281464E-18
6.410000E+03	1.181813E-16	6.365197E-18
6.420000E+03	1.189732E-16	6.446242E-18
6.430000E+03	1.197517E-16	6.524588E-18
6.440000E+03	1.205175E-16	6.600343E-18
6.450000E+03	1.212718E-16	6.673634E-18
6.460000E+03	1.220120E-16	6.744412E-18
6.470000E+03	1.227410E-16	6.812931E-18
6.480000E+03	1.234581E-16	6.879262E-18
6.490000E+03	1.241646E-16	6.943584E-18
6.500000E+03	1.248582E-16	7.005868E-18
6.510000E+03	1.255422E-16	7.066406E-18
6.520000E+03	1.262144E-16	7.125166E-18
6.530000E+03	1.268764E-16	7.182329E-18
6.540000E+03	1.275261E-16	7.237848E-18
6.550000E+03	1.281653E-16	7.291894E-18
6.560000E+03	1.287962E-16	7.344633E-18
6.570000E+03	1.294146E-16	7.395882E-18
6.580000E+03	1.300227E-16	7.445793E-18
6.590000E+03	1.306227E-16	7.494524E-18
6.600000E+03	1.312107E-16	7.541864E-18
6.610000E+03	1.317909E-16	7.588088E-18
6.620000E+03	1.323594E-16	7.632976E-18
6.630000E+03	1.329205E-16	7.676809E-18
6.640000E+03	1.334700E-16	7.719364E-18
6.650000E+03	1.340102E-16	7.760802E-18
6.660000E+03	1.345411E-16	7.801158E-18
6.670000E+03	1.350604E-16	7.840340E-18
6.680000E+03	1.355701E-16	7.878518E-18
6.690000E+03	1.360679E-16	7.915598E-18
6.700000E+03	1.365534E-16	7.951616E-18
6.710000E+03	1.370289E-16	7.986743E-18
6.720000E+03	1.374916E-16	8.020868E-18
6.730000E+03	1.379388E-16	8.053867E-18
6.740000E+03	1.383751E-16	8.086023E-18
6.750000E+03	1.387951E-16	8.117038E-18
6.760000E+03	1.392011E-16	8.147022E-18
6.770000E+03	1.395926E-16	8.175919E-18
6.780000E+03	1.399668E-16	8.203506E-18
6.790000E+03	1.403232E-16	8.229680E-18
6.800000E+03	1.406616E-16	8.254313E-18
6.810000E+03	1.409840E-16	8.277409E-18
6.820000E+03	1.412874E-16	8.298655E-18
6.830000E+03	1.415690E-16	8.317723E-18
6.840000E+03	1.418309E-16	8.334578E-18
6.850000E+03	1.420726E-16	8.349037E-18
6.860000E+03	1.422938E-16	8.360925E-18
6.870000E+03	1.424916E-16	8.369923E-18
6.880000E+03	1.426655E-16	8.375889E-18
6.890000E+03	1.428178E-16	8.378863E-18
6.900000E+03	1.429457E-16	8.378607E-18
6.910000E+03	1.430488E-16	8.375069E-18
6.920000E+03	1.431268E-16	8.368235E-18
6.930000E+03	1.431795E-16	8.358127E-18
6.940000E+03	1.432067E-16	8.344795E-18
6.950000E+03	1.432082E-16	8.328322E-18
6.960000E+03	1.431812E-16	8.308655E-18
6.970000E+03	1.431255E-16	8.285920E-18
6.980000E+03	1.430439E-16	8.260420E-18
6.990000E+03	1.429363E-16	8.232311E-18
7.000000E+03	1.427974E-16	8.201437E-18
7.010000E+03	1.426327E-16	8.168285E-18
7.020000E+03	1.424398E-16	8.132865E-18
7.030000E+03	1.422190E-16	8.095342E-18
7.040000E+03	1.419676E-16	8.055718E-18
7.050000E+03	1.416891E-16	8.014302E-18
7.060000E+03	1.413838E-16	7.971231E-18
7.070000E+03	1.410523E-16	7.926622E-18
7.080000E+03	1.406924E-16	7.880416E-18
7.090000E+03	1.403049E-16	7.832688E-18
7.100000E+03	1.398933E-16	7.783642E-18
7.110000E+03	1.394556E-16	7.733139E-18
7.120000E+03	1.389899E-16	7.681013E-18
7.130000E+03	1.385029E-16	7.627533E-18
7.140000E+03	1.379928E-16	7.572472E-18
7.150000E+03	1.374608E-16	7.515733E-18
7.160000E+03	1.369055E-16	7.457041E-18
7.170000E+03	1.363309E-16	7.396403E-18
7.180000E+03	1.357386E-16	7.333656E-18
7.190000E+03	1.351272E-16	7.268473E-18
7.200000E+03	1.344985E-16	7.200668E-18
7.210000E+03	1.338569E-16	7.130197E-18
7.220000E+03	1.332014E-16	7.056717E-18
7.230000E+03	1.325337E-16	6.980039E-18
7.240000E+03	1.318556E-16	6.899985E-18
7.250000E+03	1.311688E-16	6.816394E-18
7.260000E+03	1.304723E-16	6.728987E-18
7.270000E+03	1.297731E-16	6.637941E-18
7.280000E+03	1.290702E-16	6.543050E-18
7.290000E+03	1.283595E-16	6.444027E-18
7.300000E+03	1.276507E-16	6.341327E-18
7.310000E+03	1.269369E-16	6.234659E-18
7.320000E+03	1.262250E-16	6.124478E-18
7.330000E+03	1.255134E-16	6.010923E-18
7.340000E+03	1.248036E-16	5.894359E-18
7.350000E+03	1.240941E-16	5.775128E-18
7.360000E+03	1.233864E-16	5.653812E-18
7.370000E+03	1.226821E-16	5.531113E-18
7.380000E+03	1.219828E-16	5.407864E-18
7.390000E+03	1.212852E-16	5.284808E-18
7.400000E+03	1.205939E-16	5.163195E-18
7.410000E+03	1.199059E-16	5.044092E-18
7.420000E+03	1.192213E-16	4.928851E-18
7.430000E+03	1.185401E-16	4.818978E-18
7.440000E+03	1.178677E-16	4.716323E-18
7.450000E+03	1.172072E-16	4.622713E-18
7.460000E+03	1.165666E-16	4.540200E-18
7.470000E+03	1.159538E-16	4.470767E-18
7.480000E+03	1.153690E-16	4.415932E-18
7.490000E+03	1.148170E-16	4.377123E-18
7.500000E+03	1.143047E-16	4.355432E-18
7.510000E+03	1.138284E-16	4.351007E-18
7.520000E+03	1.133936E-16	4.363728E-18
7.530000E+03	1.130002E-16	4.392640E-18
7.540000E+03	1.126474E-16	4.436255E-18
7.550000E+03	1.123340E-16	4.492717E-18
7.560000E+03	1.120584E-16	4.559959E-18
7.570000E+03	1.118212E-16	4.635943E-18
7.580000E+03	1.116180E-16	4.718465E-18
7.590000E+03	1.114493E-16	4.805657E-18
7.600000E+03	1.113104E-16	4.895624E-18
7.610000E+03	1.112020E-16	4.986913E-18
7.620000E+03	1.111219E-16	5.078203E-18
7.630000E+03	1.110658E-16	5.168298E-18
7.640000E+03	1.110344E-16	5.256470E-18
7.650000E+03	1.110258E-16	5.342092E-18
7.660000E+03	1.110359E-16	5.424609E-18
7.670000E+03	1.110656E-16	5.503888E-18
7.680000E+03	1.111107E-16	5.579685E-18
7.690000E+03	1.111750E-16	5.652277E-18
7.700000E+03	1.112518E-16	5.721509E-18
7.710000E+03	1.113425E-16	5.787701E-18
7.720000E+03	1.114430E-16	5.850957E-18
7.730000E+03	1.115547E-16	5.911696E-18
7.740000E+03	1.116765E-16	5.970221E-18
7.750000E+03	1.118073E-16	6.026842E-18
7.760000E+03	1.119431E-16	6.081716E-18
