#wls	flux	fluxerr
1.600000E+03	1.412183E-16	1.427409E-16
1.640000E+03	1.462582E-16	1.455595E-16
1.680000E+03	1.512005E-16	1.480681E-16
1.720000E+03	1.559989E-16	1.502207E-16
1.760000E+03	1.606180E-16	1.519850E-16
1.800000E+03	1.650021E-16	1.533126E-16
1.840000E+03	1.691066E-16	1.541696E-16
1.880000E+03	1.728825E-16	1.545222E-16
1.920000E+03	1.762621E-16	1.543243E-16
1.960000E+03	1.791905E-16	1.535468E-16
2.000000E+03	1.816109E-16	1.521644E-16
2.040000E+03	1.834659E-16	1.501572E-16
2.080000E+03	1.846855E-16	1.475008E-16
2.120000E+03	1.852174E-16	1.441918E-16
2.160000E+03	1.849888E-16	1.402178E-16
2.200000E+03	1.839385E-16	1.355822E-16
2.240000E+03	1.819740E-16	1.302735E-16
2.280000E+03	1.790298E-16	1.243088E-16
2.320000E+03	1.751807E-16	1.178074E-16
2.360000E+03	1.705402E-16	1.109092E-16
2.400000E+03	1.651946E-16	1.037287E-16
2.440000E+03	1.592094E-16	9.636122E-17
2.480000E+03	1.526444E-16	8.889399E-17
2.520000E+03	1.455707E-16	8.141568E-17
2.560000E+03	1.380497E-16	7.400371E-17
2.600000E+03	1.301616E-16	6.673935E-17
2.640000E+03	1.219795E-16	5.969268E-17
2.680000E+03	1.135748E-16	5.292554E-17
2.720000E+03	1.050361E-16	4.649955E-17
2.760000E+03	9.644514E-17	4.046402E-17
2.800000E+03	8.788736E-17	3.486033E-17
2.840000E+03	7.944735E-17	2.971988E-17
2.880000E+03	7.121258E-17	2.506521E-17
2.920000E+03	6.327867E-17	2.091155E-17
2.960000E+03	5.574374E-17	1.726435E-17
3.000000E+03	4.868563E-17	1.411288E-17
3.010000E+03	4.700206E-17	1.339968E-17
3.020000E+03	4.535413E-17	1.271589E-17
3.030000E+03	4.373989E-17	1.206026E-17
3.040000E+03	4.216069E-17	1.143244E-17
3.050000E+03	4.061859E-17	1.083224E-17
3.060000E+03	3.911185E-17	1.025844E-17
3.070000E+03	3.764239E-17	9.710782E-18
3.080000E+03	3.621026E-17	9.188506E-18
3.090000E+03	3.481558E-17	8.690857E-18
3.100000E+03	3.345856E-17	8.217097E-18
3.110000E+03	3.214082E-17	7.766813E-18
3.120000E+03	3.086187E-17	7.339069E-18
3.130000E+03	2.962252E-17	6.933250E-18
3.140000E+03	2.842288E-17	6.548574E-18
3.150000E+03	2.726297E-17	6.184256E-18
3.160000E+03	2.614321E-17	5.839624E-18
3.170000E+03	2.506381E-17	5.513973E-18
3.180000E+03	2.402343E-17	5.206289E-18
3.190000E+03	2.302293E-17	4.916070E-18
3.200000E+03	2.206122E-17	4.642416E-18
3.210000E+03	2.113797E-17	4.384623E-18
3.220000E+03	2.025237E-17	4.141915E-18
3.230000E+03	1.940320E-17	3.913471E-18
3.240000E+03	1.859055E-17	3.698759E-18
3.250000E+03	1.781250E-17	3.496872E-18
3.260000E+03	1.706894E-17	3.307303E-18
3.270000E+03	1.635879E-17	3.129368E-18
3.280000E+03	1.568044E-17	2.962321E-18
3.290000E+03	1.503355E-17	2.805683E-18
3.300000E+03	1.441653E-17	2.658761E-18
3.310000E+03	1.382850E-17	2.521024E-18
3.320000E+03	1.326835E-17	2.391923E-18
3.330000E+03	1.273516E-17	2.270965E-18
3.340000E+03	1.222762E-17	2.157612E-18
3.350000E+03	1.174469E-17	2.051391E-18
3.360000E+03	1.128531E-17	1.951852E-18
3.370000E+03	1.084861E-17	1.858597E-18
3.380000E+03	1.043344E-17	1.771195E-18
3.390000E+03	1.003885E-17	1.689271E-18
3.400000E+03	9.663891E-18	1.612472E-18
3.410000E+03	9.307567E-18	1.540445E-18
3.420000E+03	8.969028E-18	1.472885E-18
3.430000E+03	8.647462E-18	1.409501E-18
3.440000E+03	8.341986E-18	1.350009E-18
3.450000E+03	8.051864E-18	1.294158E-18
3.460000E+03	7.776298E-18	1.241700E-18
3.470000E+03	7.514540E-18	1.192406E-18
3.480000E+03	7.265885E-18	1.146064E-18
3.490000E+03	7.029590E-18	1.102466E-18
3.500000E+03	6.805117E-18	1.061445E-18
3.510000E+03	6.591808E-18	1.022824E-18
3.520000E+03	6.388979E-18	9.864285E-19
3.530000E+03	6.195939E-18	9.520899E-19
3.540000E+03	6.012244E-18	9.196846E-19
3.550000E+03	5.837288E-18	8.890699E-19
3.560000E+03	5.670404E-18	8.600986E-19
3.570000E+03	5.511152E-18	8.326628E-19
3.580000E+03	5.359064E-18	8.066550E-19
3.590000E+03	5.213659E-18	7.819689E-19
3.600000E+03	5.074443E-18	7.585001E-19
3.610000E+03	4.941151E-18	7.361816E-19
3.620000E+03	4.813435E-18	7.149372E-19
3.630000E+03	4.690971E-18	6.946963E-19
3.640000E+03	4.573660E-18	6.754241E-19
3.650000E+03	4.461269E-18	6.570678E-19
3.660000E+03	4.353613E-18	6.395830E-19
3.670000E+03	4.250543E-18	6.229323E-19
3.680000E+03	4.151908E-18	6.070789E-19
3.690000E+03	4.057522E-18	5.919818E-19
3.700000E+03	3.967300E-18	5.776158E-19
3.710000E+03	3.881020E-18	5.639365E-19
3.720000E+03	3.798564E-18	5.509154E-19
3.730000E+03	3.719841E-18	5.385290E-19
3.740000E+03	3.644606E-18	5.267325E-19
3.750000E+03	3.572835E-18	5.155135E-19
3.760000E+03	3.504292E-18	5.048304E-19
3.770000E+03	3.438924E-18	4.946684E-19
3.780000E+03	3.376592E-18	4.850009E-19
3.790000E+03	3.317161E-18	4.758030E-19
3.800000E+03	3.260531E-18	4.670543E-19
3.810000E+03	3.206578E-18	4.587320E-19
3.820000E+03	3.155208E-18	4.508182E-19
3.830000E+03	3.106333E-18	4.432957E-19
3.840000E+03	3.059843E-18	4.361452E-19
3.850000E+03	3.015659E-18	4.293516E-19
3.860000E+03	2.973705E-18	4.229010E-19
3.870000E+03	2.933885E-18	4.167770E-19
3.880000E+03	2.896131E-18	4.109672E-19
3.890000E+03	2.860380E-18	4.054601E-19
3.900000E+03	2.826547E-18	4.002417E-19
3.910000E+03	2.794573E-18	3.953017E-19
3.920000E+03	2.764381E-18	3.906273E-19
3.930000E+03	2.735938E-18	3.862119E-19
3.940000E+03	2.709169E-18	3.820436E-19
3.950000E+03	2.684023E-18	3.781136E-19
3.960000E+03	2.660410E-18	3.744077E-19
3.970000E+03	2.638323E-18	3.709239E-19
3.980000E+03	2.617675E-18	3.676484E-19
3.990000E+03	2.598420E-18	3.645740E-19
4.000000E+03	2.580495E-18	3.616906E-19
4.010000E+03	2.563879E-18	3.589940E-19
4.020000E+03	2.548492E-18	3.564720E-19
4.030000E+03	2.534315E-18	3.541209E-19
4.040000E+03	2.521274E-18	3.519289E-19
4.050000E+03	2.509352E-18	3.498930E-19
4.060000E+03	2.498480E-18	3.480020E-19
4.070000E+03	2.488625E-18	3.462507E-19
4.080000E+03	2.479758E-18	3.446340E-19
4.090000E+03	2.471850E-18	3.431472E-19
4.100000E+03	2.464838E-18	3.417806E-19
4.110000E+03	2.458696E-18	3.405301E-19
4.120000E+03	2.453382E-18	3.393894E-19
4.130000E+03	2.448874E-18	3.383550E-19
4.140000E+03	2.445152E-18	3.374238E-19
4.150000E+03	2.442158E-18	3.365878E-19
4.160000E+03	2.439895E-18	3.358470E-19
4.170000E+03	2.438308E-18	3.351942E-19
4.180000E+03	2.437382E-18	3.346273E-19
4.190000E+03	2.437104E-18	3.341446E-19
4.200000E+03	2.437424E-18	3.337393E-19
4.210000E+03	2.438331E-18	3.334102E-19
4.220000E+03	2.439796E-18	3.331535E-19
4.230000E+03	2.441829E-18	3.329707E-19
4.240000E+03	2.444367E-18	3.328533E-19
4.250000E+03	2.447423E-18	3.328031E-19
4.260000E+03	2.450954E-18	3.328144E-19
4.270000E+03	2.454974E-18	3.328892E-19
4.280000E+03	2.459424E-18	3.330195E-19
4.290000E+03	2.464300E-18	3.332050E-19
4.300000E+03	2.469601E-18	3.334455E-19
4.310000E+03	2.475268E-18	3.337330E-19
4.320000E+03	2.481319E-18	3.340703E-19
4.330000E+03	2.487674E-18	3.344467E-19
4.340000E+03	2.494351E-18	3.348652E-19
4.350000E+03	2.501252E-18	3.353127E-19
4.360000E+03	2.508373E-18	3.357894E-19
4.370000E+03	2.515771E-18	3.363035E-19
4.380000E+03	2.523444E-18	3.368555E-19
4.390000E+03	2.531413E-18	3.374488E-19
4.400000E+03	2.539677E-18	3.380841E-19
4.410000E+03	2.548196E-18	3.387568E-19
4.420000E+03	2.557012E-18	3.394735E-19
4.430000E+03	2.566085E-18	3.402297E-19
4.440000E+03	2.575418E-18	3.410270E-19
4.450000E+03	2.584992E-18	3.418637E-19
4.460000E+03	2.594812E-18	3.427415E-19
4.470000E+03	2.604838E-18	3.436561E-19
4.480000E+03	2.615096E-18	3.446118E-19
4.490000E+03	2.625550E-18	3.456045E-19
4.500000E+03	2.636185E-18	3.466325E-19
4.510000E+03	2.647031E-18	3.477002E-19
4.520000E+03	2.658032E-18	3.488002E-19
4.530000E+03	2.669202E-18	3.499338E-19
4.540000E+03	2.680555E-18	3.511020E-19
4.550000E+03	2.692065E-18	3.523000E-19
4.560000E+03	2.703754E-18	3.535289E-19
4.570000E+03	2.715598E-18	3.547837E-19
4.580000E+03	2.727624E-18	3.560655E-19
4.590000E+03	2.739834E-18	3.573727E-19
4.600000E+03	2.752234E-18	3.587036E-19
4.610000E+03	2.764805E-18	3.600539E-19
4.620000E+03	2.777599E-18	3.614283E-19
4.630000E+03	2.790574E-18	3.628199E-19
4.640000E+03	2.803758E-18	3.642308E-19
4.650000E+03	2.817157E-18	3.656606E-19
4.660000E+03	2.830749E-18	3.671057E-19
4.670000E+03	2.844588E-18	3.685722E-19
4.680000E+03	2.858629E-18	3.700537E-19
4.690000E+03	2.872901E-18	3.715529E-19
4.700000E+03	2.887459E-18	3.730761E-19
4.710000E+03	2.902282E-18	3.746196E-19
4.720000E+03	2.917402E-18	3.761859E-19
4.730000E+03	2.932851E-18	3.777779E-19
4.740000E+03	2.948635E-18	3.793948E-19
4.750000E+03	2.964762E-18	3.810362E-19
4.760000E+03	2.981290E-18	3.827082E-19
4.770000E+03	2.998176E-18	3.844036E-19
4.780000E+03	3.015480E-18	3.861292E-19
4.790000E+03	3.033209E-18	3.878847E-19
4.800000E+03	3.051343E-18	3.896670E-19
4.810000E+03	3.069947E-18	3.914834E-19
4.820000E+03	3.089003E-18	3.933311E-19
4.830000E+03	3.108520E-18	3.952114E-19
4.840000E+03	3.128511E-18	3.971254E-19
4.850000E+03	3.148989E-18	3.990750E-19
4.860000E+03	3.170023E-18	4.010694E-19
4.870000E+03	3.191544E-18	4.031000E-19
4.880000E+03	3.213625E-18	4.051765E-19
4.890000E+03	3.236252E-18	4.072979E-19
4.900000E+03	3.259471E-18	4.094704E-19
4.910000E+03	3.283270E-18	4.116927E-19
4.920000E+03	3.307665E-18	4.139675E-19
4.930000E+03	3.332703E-18	4.163007E-19
4.940000E+03	3.358339E-18	4.186868E-19
4.950000E+03	3.384620E-18	4.211318E-19
4.960000E+03	3.411561E-18	4.236375E-19
4.970000E+03	3.439178E-18	4.262057E-19
4.980000E+03	3.467453E-18	4.288338E-19
4.990000E+03	3.496398E-18	4.315235E-19
5.000000E+03	3.526058E-18	4.342801E-19
5.010000E+03	3.556379E-18	4.370970E-19
5.020000E+03	3.587437E-18	4.399835E-19
5.030000E+03	3.619176E-18	4.429326E-19
5.040000E+03	3.651603E-18	4.459452E-19
5.050000E+03	3.684760E-18	4.490265E-19
5.060000E+03	3.718621E-18	4.521735E-19
5.070000E+03	3.753190E-18	4.553870E-19
5.080000E+03	3.788438E-18	4.586640E-19
5.090000E+03	3.824402E-18	4.620098E-19
5.100000E+03	3.861086E-18	4.654257E-19
5.110000E+03	3.898417E-18	4.689042E-19
5.120000E+03	3.936432E-18	4.724508E-19
5.130000E+03	3.975131E-18	4.760672E-19
5.140000E+03	4.014514E-18	4.797551E-19
5.150000E+03	4.054542E-18	4.835117E-19
5.160000E+03	4.095214E-18	4.873396E-19
5.170000E+03	4.136491E-18	4.912369E-19
5.180000E+03	4.178457E-18	4.952164E-19
5.190000E+03	4.221033E-18	4.992728E-19
5.200000E+03	4.264223E-18	5.034106E-19
5.210000E+03	4.308032E-18	5.076352E-19
5.220000E+03	4.352506E-18	5.119573E-19
5.230000E+03	4.397565E-18	5.163734E-19
5.240000E+03	4.443211E-18	5.208903E-19
5.250000E+03	4.489531E-18	5.255255E-19
5.260000E+03	4.536395E-18	5.302711E-19
5.270000E+03	4.583889E-18	5.351452E-19
5.280000E+03	4.631965E-18	5.401505E-19
5.290000E+03	4.680617E-18	5.452949E-19
5.300000E+03	4.729885E-18	5.505919E-19
5.310000E+03	4.779669E-18	5.560386E-19
5.320000E+03	4.830004E-18	5.616481E-19
5.330000E+03	4.880881E-18	5.674276E-19
5.340000E+03	4.932284E-18	5.733839E-19
5.350000E+03	4.984248E-18	5.795288E-19
5.360000E+03	5.036655E-18	5.858564E-19
5.370000E+03	5.089533E-18	5.923768E-19
5.380000E+03	5.142853E-18	5.990938E-19
5.390000E+03	5.196531E-18	6.060044E-19
5.400000E+03	5.250631E-18	6.131224E-19
5.410000E+03	5.305061E-18	6.204432E-19
5.420000E+03	5.359718E-18	6.279608E-19
5.430000E+03	5.414549E-18	6.356746E-19
5.440000E+03	5.469552E-18	6.435895E-19
5.450000E+03	5.524558E-18	6.516900E-19
5.460000E+03	5.579558E-18	6.599787E-19
5.470000E+03	5.634487E-18	6.684511E-19
5.480000E+03	5.689159E-18	6.770874E-19
5.490000E+03	5.743499E-18	6.858800E-19
5.500000E+03	5.797481E-18	6.948269E-19
5.510000E+03	5.850961E-18	7.039110E-19
5.520000E+03	5.903784E-18	7.131137E-19
5.530000E+03	5.955790E-18	7.224143E-19
5.540000E+03	6.006991E-18	7.318132E-19
5.550000E+03	6.057092E-18	7.412724E-19
5.560000E+03	6.106035E-18	7.507826E-19
5.570000E+03	6.153633E-18	7.603185E-19
5.580000E+03	6.199758E-18	7.698613E-19
5.590000E+03	6.244278E-18	7.793919E-19
5.600000E+03	6.286994E-18	7.888823E-19
5.610000E+03	6.327831E-18	7.983201E-19
5.620000E+03	6.366585E-18	8.076766E-19
5.630000E+03	6.403048E-18	8.169227E-19
5.640000E+03	6.437213E-18	8.260547E-19
5.650000E+03	6.468881E-18	8.350444E-19
5.660000E+03	6.497859E-18	8.438639E-19
5.670000E+03	6.524097E-18	8.525037E-19
5.680000E+03	6.547561E-18	8.609554E-19
5.690000E+03	6.568021E-18	8.691854E-19
5.700000E+03	6.585467E-18	8.771878E-19
5.710000E+03	6.599900E-18	8.849584E-19
5.720000E+03	6.611200E-18	8.924756E-19
5.730000E+03	6.619394E-18	8.997373E-19
5.740000E+03	6.624385E-18	9.067230E-19
5.750000E+03	6.626226E-18	9.134317E-19
5.760000E+03	6.624909E-18	9.198531E-19
5.770000E+03	6.620505E-18	9.259865E-19
5.780000E+03	6.612881E-18	9.318016E-19
5.790000E+03	6.602265E-18	9.373173E-19
5.800000E+03	6.588540E-18	9.425023E-19
5.810000E+03	6.571810E-18	9.473553E-19
5.820000E+03	6.552114E-18	9.518648E-19
5.830000E+03	6.529505E-18	9.560191E-19
5.840000E+03	6.504115E-18	9.598176E-19
5.850000E+03	6.476017E-18	9.632495E-19
5.860000E+03	6.445296E-18	9.663050E-19
5.870000E+03	6.411982E-18	9.689643E-19
5.880000E+03	6.376330E-18	9.712409E-19
5.890000E+03	6.338398E-18	9.731175E-19
5.900000E+03	6.298394E-18	9.746002E-19
5.910000E+03	6.256393E-18	9.756747E-19
5.920000E+03	6.212616E-18	9.763505E-19
5.930000E+03	6.167213E-18	9.766276E-19
5.940000E+03	6.120331E-18	9.765074E-19
5.950000E+03	6.072115E-18	9.759932E-19
5.960000E+03	6.022706E-18	9.750893E-19
5.970000E+03	5.972308E-18	9.738128E-19
5.980000E+03	5.920914E-18	9.721483E-19
5.990000E+03	5.868789E-18	9.701265E-19
6.000000E+03	5.815985E-18	9.677454E-19
6.010000E+03	5.762617E-18	9.650152E-19
6.020000E+03	5.708864E-18	9.619583E-19
6.030000E+03	5.654696E-18	9.585637E-19
6.040000E+03	5.600348E-18	9.548665E-19
6.050000E+03	5.545780E-18	9.508569E-19
6.060000E+03	5.491149E-18	9.465595E-19
6.070000E+03	5.436540E-18	9.419881E-19
6.080000E+03	5.381966E-18	9.371450E-19
6.090000E+03	5.327504E-18	9.320444E-19
6.100000E+03	5.273224E-18	9.267004E-19
6.110000E+03	5.219191E-18	9.211272E-19
6.120000E+03	5.165469E-18	9.153390E-19
6.130000E+03	5.112114E-18	9.093497E-19
6.140000E+03	5.059178E-18	9.031734E-19
6.150000E+03	5.006711E-18	8.968235E-19
6.160000E+03	4.954820E-18	8.903249E-19
6.170000E+03	4.903609E-18	8.837020E-19
6.180000E+03	4.853175E-18	8.769785E-19
6.190000E+03	4.803551E-18	8.701669E-19
6.200000E+03	4.754763E-18	8.632787E-19
6.210000E+03	4.706775E-18	8.563142E-19
6.220000E+03	4.659611E-18	8.492844E-19
6.230000E+03	4.613290E-18	8.421998E-19
6.240000E+03	4.567769E-18	8.350594E-19
6.250000E+03	4.523126E-18	8.278841E-19
6.260000E+03	4.479493E-18	8.207053E-19
6.270000E+03	4.436820E-18	8.135204E-19
6.280000E+03	4.395176E-18	8.063489E-19
6.290000E+03	4.354686E-18	7.992203E-19
6.300000E+03	4.315294E-18	7.921308E-19
6.310000E+03	4.277179E-18	7.851198E-19
6.320000E+03	4.240403E-18	7.782044E-19
6.330000E+03	4.204902E-18	7.713792E-19
6.340000E+03	4.170853E-18	7.646820E-19
6.350000E+03	4.138311E-18	7.581282E-19
6.360000E+03	4.107271E-18	7.517220E-19
6.370000E+03	4.077786E-18	7.454780E-19
6.380000E+03	4.050030E-18	7.394321E-19
6.390000E+03	4.023936E-18	7.335763E-19
6.400000E+03	3.999559E-18	7.279242E-19
6.410000E+03	3.977012E-18	7.224997E-19
6.420000E+03	3.956113E-18	7.172727E-19
6.430000E+03	3.936741E-18	7.122240E-19
6.440000E+03	3.918833E-18	7.073449E-19
6.450000E+03	3.902326E-18	7.026266E-19
6.460000E+03	3.887100E-18	6.980496E-19
6.470000E+03	3.873153E-18	6.936158E-19
6.480000E+03	3.860421E-18	6.893158E-19
6.490000E+03	3.848903E-18	6.851513E-19
6.500000E+03	3.838538E-18	6.811128E-19
6.510000E+03	3.829322E-18	6.772015E-19
6.520000E+03	3.821253E-18	6.734183E-19
6.530000E+03	3.814270E-18	6.697536E-19
6.540000E+03	3.808431E-18	6.662185E-19
6.550000E+03	3.803733E-18	6.628137E-19
6.560000E+03	3.800115E-18	6.595288E-19
6.570000E+03	3.797637E-18	6.563749E-19
6.580000E+03	3.796235E-18	6.533415E-19
6.590000E+03	3.795908E-18	6.504286E-19
6.600000E+03	3.796716E-18	6.476467E-19
6.610000E+03	3.798536E-18	6.449746E-19
6.620000E+03	3.801553E-18	6.424436E-19
6.630000E+03	3.805579E-18	6.400217E-19
6.640000E+03	3.810739E-18	6.377295E-19
6.650000E+03	3.816970E-18	6.355559E-19
6.660000E+03	3.824272E-18	6.335003E-19
6.670000E+03	3.832709E-18	6.315726E-19
6.680000E+03	3.842218E-18	6.297614E-19
6.690000E+03	3.852800E-18	6.280660E-19
6.700000E+03	3.864455E-18	6.264853E-19
6.710000E+03	3.877251E-18	6.250291E-19
6.720000E+03	3.891056E-18	6.236751E-19
6.730000E+03	3.906004E-18	6.224435E-19
6.740000E+03	3.922032E-18	6.213226E-19
6.750000E+03	3.939141E-18	6.203111E-19
6.760000E+03	3.957334E-18	6.194080E-19
6.770000E+03	3.976611E-18	6.186118E-19
6.780000E+03	3.997047E-18	6.179322E-19
6.790000E+03	4.018504E-18	6.173460E-19
6.800000E+03	4.041053E-18	6.168629E-19
6.810000E+03	4.064699E-18	6.164812E-19
6.820000E+03	4.089444E-18	6.161996E-19
6.830000E+03	4.115292E-18	6.160166E-19
6.840000E+03	4.142246E-18	6.159305E-19
6.850000E+03	4.170309E-18	6.159399E-19
6.860000E+03	4.199407E-18	6.160317E-19
6.870000E+03	4.229618E-18	6.162154E-19
6.880000E+03	4.260946E-18	6.164893E-19
6.890000E+03	4.293312E-18	6.168403E-19
6.900000E+03	4.326797E-18	6.172778E-19
6.910000E+03	4.361404E-18	6.178002E-19
6.920000E+03	4.397051E-18	6.183941E-19
6.930000E+03	4.433738E-18	6.190575E-19
6.940000E+03	4.471548E-18	6.198003E-19
6.950000E+03	4.510397E-18	6.206090E-19
6.960000E+03	4.550283E-18	6.214817E-19
6.970000E+03	4.591293E-18	6.224286E-19
6.980000E+03	4.633341E-18	6.234362E-19
6.990000E+03	4.676424E-18	6.245029E-19
7.000000E+03	4.720451E-18	6.256152E-19
7.010000E+03	4.765602E-18	6.267957E-19
7.020000E+03	4.811788E-18	6.280311E-19
7.030000E+03	4.859007E-18	6.293202E-19
7.040000E+03	4.907163E-18	6.306494E-19
7.050000E+03	4.956351E-18	6.320299E-19
7.060000E+03	5.006469E-18	6.334481E-19
7.070000E+03	5.057716E-18	6.349280E-19
7.080000E+03	5.109789E-18	6.364308E-19
7.090000E+03	5.162886E-18	6.379807E-19
7.100000E+03	5.216903E-18	6.395640E-19
7.110000E+03	5.271941E-18	6.411925E-19
7.120000E+03	5.327785E-18	6.428393E-19
7.130000E+03	5.384644E-18	6.445296E-19
7.140000E+03	5.442295E-18	6.462361E-19
7.150000E+03	5.500843E-18	6.479711E-19
7.160000E+03	5.560282E-18	6.497336E-19
7.170000E+03	5.620609E-18	6.515229E-19
7.180000E+03	5.681698E-18	6.533247E-19
7.190000E+03	5.743539E-18	6.551379E-19
7.200000E+03	5.806245E-18	6.569757E-19
7.210000E+03	5.869684E-18	6.588237E-19
7.220000E+03	5.933972E-18	6.606955E-19
7.230000E+03	5.998846E-18	6.625627E-19
7.240000E+03	6.064550E-18	6.644535E-19
7.250000E+03	6.130943E-18	6.663540E-19
7.260000E+03	6.198013E-18	6.682647E-19
7.270000E+03	6.265746E-18	6.701864E-19
7.280000E+03	6.334128E-18	6.721201E-19
7.290000E+03	6.403143E-18	6.740674E-19
7.300000E+03	6.472919E-18	6.760452E-19
7.310000E+03	6.543154E-18	6.780260E-19
7.320000E+03	6.614266E-18	6.800577E-19
7.330000E+03	6.686100E-18	6.821288E-19
7.340000E+03	6.758488E-18	6.842277E-19
7.350000E+03	6.831874E-18	6.864047E-19
7.360000E+03	6.905940E-18	6.886334E-19
7.370000E+03	6.981147E-18	6.909657E-19
7.380000E+03	7.057337E-18	6.933911E-19
7.390000E+03	7.134670E-18	6.959310E-19
7.400000E+03	7.213314E-18	6.986072E-19
7.410000E+03	7.293279E-18	7.014255E-19
7.420000E+03	7.374919E-18	7.044248E-19
7.430000E+03	7.458437E-18	7.076280E-19
7.440000E+03	7.543688E-18	7.110254E-19
7.450000E+03	7.630701E-18	7.146229E-19
7.460000E+03	7.719504E-18	7.184263E-19
7.470000E+03	7.809940E-18	7.224237E-19
7.480000E+03	7.901840E-18	7.266017E-19
7.490000E+03	7.995024E-18	7.309452E-19
7.500000E+03	8.089494E-18	7.354544E-19
7.510000E+03	8.185053E-18	7.401094E-19
7.520000E+03	8.281492E-18	7.448864E-19
7.530000E+03	8.378998E-18	7.497943E-19
7.540000E+03	8.477146E-18	7.547843E-19
7.550000E+03	8.575909E-18	7.598416E-19
7.560000E+03	8.675262E-18	7.649497E-19
7.570000E+03	8.775179E-18	7.700908E-19
7.580000E+03	8.875634E-18	7.752467E-19
7.590000E+03	8.976376E-18	7.803796E-19
7.600000E+03	9.077366E-18	7.854716E-19
7.610000E+03	9.178792E-18	7.905259E-19
7.620000E+03	9.280387E-18	7.955086E-19
7.630000E+03	9.382337E-18	8.004282E-19
7.640000E+03	9.484117E-18	8.052351E-19
7.650000E+03	9.586149E-18	8.099636E-19
7.660000E+03	9.688131E-18	8.145892E-19
7.670000E+03	9.789996E-18	8.191098E-19
7.680000E+03	9.891670E-18	8.235245E-19
7.690000E+03	9.993337E-18	8.278551E-19
7.700000E+03	1.009466E-17	8.320810E-19
7.710000E+03	1.019555E-17	8.362026E-19
7.720000E+03	1.029620E-17	8.402424E-19
7.730000E+03	1.039650E-17	8.442007E-19
7.740000E+03	1.049610E-17	8.480543E-19
7.750000E+03	1.059518E-17	8.518239E-19
7.760000E+03	1.069362E-17	8.555068E-19
