#wls	flux	fluxerr
1.600000E+03	1.259358E-16	1.295986E-16
1.640000E+03	1.305525E-16	1.324017E-16
1.680000E+03	1.351176E-16	1.349671E-16
1.720000E+03	1.395939E-16	1.372551E-16
1.760000E+03	1.439537E-16	1.392383E-16
1.800000E+03	1.481508E-16	1.408734E-16
1.840000E+03	1.521488E-16	1.421298E-16
1.880000E+03	1.559070E-16	1.429759E-16
1.920000E+03	1.593670E-16	1.433677E-16
1.960000E+03	1.624810E-16	1.432753E-16
2.000000E+03	1.651988E-16	1.426710E-16
2.040000E+03	1.674681E-16	1.415303E-16
2.080000E+03	1.692236E-16	1.398227E-16
2.120000E+03	1.704143E-16	1.375357E-16
2.160000E+03	1.709685E-16	1.346456E-16
2.200000E+03	1.708224E-16	1.311423E-16
2.240000E+03	1.698802E-16	1.269980E-16
2.280000E+03	1.680675E-16	1.222105E-16
2.320000E+03	1.654390E-16	1.168760E-16
2.360000E+03	1.620852E-16	1.111129E-16
2.400000E+03	1.580710E-16	1.050163E-16
2.440000E+03	1.534413E-16	9.866378E-17
2.480000E+03	1.482351E-16	9.212659E-17
2.520000E+03	1.425020E-16	8.547949E-17
2.560000E+03	1.362827E-16	7.878807E-17
2.600000E+03	1.296367E-16	7.212483E-17
2.640000E+03	1.226175E-16	6.555375E-17
2.680000E+03	1.152787E-16	5.913335E-17
2.720000E+03	1.076932E-16	5.292593E-17
2.760000E+03	9.993013E-17	4.698443E-17
2.800000E+03	9.206576E-17	4.135724E-17
2.840000E+03	8.418010E-17	3.608582E-17
2.880000E+03	7.636133E-17	3.120590E-17
2.920000E+03	6.871262E-17	2.674930E-17
2.960000E+03	6.134735E-17	2.274088E-17
3.000000E+03	5.436427E-17	1.918945E-17
3.010000E+03	5.268734E-17	1.837231E-17
3.020000E+03	5.104211E-17	1.758372E-17
3.030000E+03	4.942664E-17	1.682239E-17
3.040000E+03	4.784265E-17	1.608828E-17
3.050000E+03	4.629268E-17	1.538159E-17
3.060000E+03	4.477495E-17	1.470108E-17
3.070000E+03	4.329178E-17	1.404684E-17
3.080000E+03	4.184333E-17	1.341826E-17
3.090000E+03	4.042977E-17	1.281471E-17
3.100000E+03	3.905122E-17	1.223558E-17
3.110000E+03	3.770934E-17	1.168070E-17
3.120000E+03	3.640327E-17	1.114915E-17
3.130000E+03	3.513364E-17	1.064046E-17
3.140000E+03	3.390029E-17	1.015392E-17
3.150000E+03	3.270300E-17	9.688847E-18
3.160000E+03	3.154215E-17	9.244709E-18
3.170000E+03	3.041793E-17	8.820953E-18
3.180000E+03	2.932880E-17	8.416530E-18
3.190000E+03	2.827597E-17	8.031205E-18
3.200000E+03	2.725834E-17	7.664097E-18
3.210000E+03	2.627582E-17	7.314633E-18
3.220000E+03	2.532776E-17	6.982103E-18
3.230000E+03	2.441308E-17	6.665698E-18
3.240000E+03	2.353234E-17	6.365081E-18
3.250000E+03	2.268358E-17	6.079253E-18
3.260000E+03	2.186720E-17	5.807873E-18
3.270000E+03	2.108234E-17	5.550283E-18
3.280000E+03	2.032751E-17	5.305678E-18
3.290000E+03	1.960287E-17	5.073712E-18
3.300000E+03	1.890691E-17	4.853626E-18
3.310000E+03	1.823910E-17	4.644932E-18
3.320000E+03	1.759858E-17	4.447079E-18
3.330000E+03	1.698473E-17	4.259598E-18
3.340000E+03	1.639642E-17	4.081912E-18
3.350000E+03	1.583283E-17	3.913533E-18
3.360000E+03	1.529311E-17	3.753994E-18
3.370000E+03	1.477665E-17	3.602896E-18
3.380000E+03	1.428242E-17	3.459759E-18
3.390000E+03	1.380962E-17	3.324173E-18
3.400000E+03	1.335748E-17	3.195749E-18
3.410000E+03	1.292508E-17	3.074078E-18
3.420000E+03	1.251169E-17	2.958812E-18
3.430000E+03	1.211661E-17	2.849621E-18
3.440000E+03	1.173901E-17	2.746157E-18
3.450000E+03	1.137824E-17	2.648126E-18
3.460000E+03	1.103354E-17	2.555218E-18
3.470000E+03	1.070419E-17	2.467143E-18
3.480000E+03	1.038950E-17	2.383630E-18
3.490000E+03	1.008870E-17	2.304399E-18
3.500000E+03	9.801308E-18	2.229239E-18
3.510000E+03	9.526621E-18	2.157905E-18
3.520000E+03	9.263899E-18	2.090143E-18
3.530000E+03	9.012361E-18	2.025704E-18
3.540000E+03	8.771567E-18	1.964417E-18
3.550000E+03	8.540831E-18	1.906065E-18
3.560000E+03	8.319359E-18	1.850412E-18
3.570000E+03	8.106673E-18	1.797297E-18
3.580000E+03	7.902249E-18	1.746557E-18
3.590000E+03	7.705530E-18	1.698020E-18
3.600000E+03	7.515930E-18	1.651518E-18
3.610000E+03	7.333193E-18	1.606955E-18
3.620000E+03	7.156933E-18	1.564212E-18
3.630000E+03	6.986788E-18	1.523177E-18
3.640000E+03	6.822728E-18	1.483812E-18
3.650000E+03	6.664519E-18	1.446040E-18
3.660000E+03	6.511991E-18	1.409797E-18
3.670000E+03	6.365024E-18	1.375032E-18
3.680000E+03	6.223492E-18	1.341696E-18
3.690000E+03	6.087208E-18	1.309727E-18
3.700000E+03	5.956137E-18	1.279098E-18
3.710000E+03	5.830031E-18	1.249737E-18
3.720000E+03	5.708794E-18	1.221608E-18
3.730000E+03	5.592372E-18	1.194682E-18
3.740000E+03	5.480469E-18	1.168881E-18
3.750000E+03	5.373117E-18	1.144199E-18
3.760000E+03	5.270025E-18	1.120561E-18
3.770000E+03	5.171174E-18	1.097951E-18
3.780000E+03	5.076408E-18	1.076325E-18
3.790000E+03	4.985576E-18	1.055641E-18
3.800000E+03	4.898569E-18	1.035867E-18
3.810000E+03	4.815240E-18	1.016962E-18
3.820000E+03	4.735484E-18	9.988960E-19
3.830000E+03	4.659197E-18	9.816402E-19
3.840000E+03	4.586240E-18	9.651581E-19
3.850000E+03	4.516515E-18	9.494224E-19
3.860000E+03	4.449925E-18	9.344068E-19
3.870000E+03	4.386341E-18	9.200787E-19
3.880000E+03	4.325673E-18	9.064141E-19
3.890000E+03	4.267834E-18	8.933898E-19
3.900000E+03	4.212704E-18	8.809765E-19
3.910000E+03	4.160204E-18	8.691530E-19
3.920000E+03	4.110222E-18	8.578926E-19
3.930000E+03	4.062713E-18	8.471824E-19
3.940000E+03	4.017574E-18	8.369971E-19
3.950000E+03	3.974734E-18	8.273191E-19
3.960000E+03	3.934066E-18	8.181189E-19
3.970000E+03	3.895564E-18	8.093928E-19
3.980000E+03	3.859107E-18	8.011131E-19
3.990000E+03	3.824637E-18	7.932652E-19
4.000000E+03	3.792067E-18	7.858290E-19
4.010000E+03	3.761373E-18	7.787974E-19
4.020000E+03	3.732445E-18	7.721457E-19
4.030000E+03	3.705263E-18	7.658680E-19
4.040000E+03	3.679723E-18	7.599411E-19
4.050000E+03	3.655809E-18	7.543601E-19
4.060000E+03	3.633423E-18	7.491032E-19
4.070000E+03	3.612525E-18	7.441610E-19
4.080000E+03	3.593077E-18	7.395242E-19
4.090000E+03	3.575043E-18	7.351842E-19
4.100000E+03	3.558333E-18	7.311217E-19
4.110000E+03	3.542918E-18	7.273292E-19
4.120000E+03	3.528738E-18	7.237941E-19
4.130000E+03	3.515767E-18	7.205096E-19
4.140000E+03	3.503978E-18	7.174695E-19
4.150000E+03	3.493292E-18	7.146572E-19
4.160000E+03	3.483713E-18	7.120727E-19
4.170000E+03	3.475168E-18	7.097002E-19
4.180000E+03	3.467635E-18	7.075351E-19
4.190000E+03	3.461097E-18	7.055732E-19
4.200000E+03	3.455484E-18	7.037998E-19
4.210000E+03	3.450781E-18	7.022116E-19
4.220000E+03	3.446948E-18	7.007998E-19
4.230000E+03	3.443998E-18	6.995671E-19
4.240000E+03	3.441841E-18	6.984948E-19
4.250000E+03	3.440494E-18	6.975860E-19
4.260000E+03	3.439894E-18	6.968280E-19
4.270000E+03	3.440061E-18	6.962244E-19
4.280000E+03	3.440908E-18	6.957577E-19
4.290000E+03	3.442430E-18	6.954266E-19
4.300000E+03	3.444622E-18	6.952301E-19
4.310000E+03	3.447400E-18	6.951513E-19
4.320000E+03	3.450788E-18	6.951950E-19
4.330000E+03	3.454676E-18	6.953390E-19
4.340000E+03	3.459089E-18	6.955886E-19
4.350000E+03	3.463892E-18	6.959163E-19
4.360000E+03	3.469081E-18	6.963220E-19
4.370000E+03	3.474741E-18	6.968223E-19
4.380000E+03	3.480871E-18	6.974177E-19
4.390000E+03	3.487503E-18	6.981142E-19
4.400000E+03	3.494641E-18	6.989129E-19
4.410000E+03	3.502234E-18	6.998036E-19
4.420000E+03	3.510346E-18	7.007988E-19
4.430000E+03	3.518926E-18	7.018889E-19
4.440000E+03	3.527985E-18	7.030755E-19
4.450000E+03	3.537503E-18	7.043548E-19
4.460000E+03	3.547492E-18	7.057289E-19
4.470000E+03	3.557907E-18	7.071887E-19
4.480000E+03	3.568790E-18	7.087421E-19
4.490000E+03	3.580097E-18	7.103803E-19
4.500000E+03	3.591816E-18	7.121002E-19
4.510000E+03	3.603993E-18	7.139106E-19
4.520000E+03	3.616558E-18	7.157969E-19
4.530000E+03	3.629530E-18	7.177625E-19
4.540000E+03	3.642931E-18	7.198106E-19
4.550000E+03	3.656723E-18	7.219331E-19
4.560000E+03	3.670929E-18	7.241337E-19
4.570000E+03	3.685514E-18	7.264042E-19
4.580000E+03	3.700503E-18	7.287488E-19
4.590000E+03	3.715892E-18	7.311655E-19
4.600000E+03	3.731679E-18	7.336528E-19
4.610000E+03	3.747830E-18	7.362026E-19
4.620000E+03	3.764406E-18	7.388261E-19
4.630000E+03	3.781345E-18	7.415094E-19
4.640000E+03	3.798676E-18	7.442573E-19
4.650000E+03	3.816402E-18	7.470687E-19
4.660000E+03	3.834490E-18	7.499361E-19
4.670000E+03	3.853008E-18	7.528713E-19
4.680000E+03	3.871891E-18	7.558606E-19
4.690000E+03	3.891176E-18	7.589095E-19
4.700000E+03	3.910933E-18	7.620306E-19
4.710000E+03	3.931133E-18	7.652168E-19
4.720000E+03	3.951815E-18	7.684745E-19
4.730000E+03	3.973021E-18	7.718103E-19
4.740000E+03	3.994756E-18	7.752242E-19
4.750000E+03	4.017028E-18	7.787164E-19
4.760000E+03	4.039918E-18	7.823009E-19
4.770000E+03	4.063362E-18	7.859644E-19
4.780000E+03	4.087442E-18	7.897215E-19
4.790000E+03	4.112168E-18	7.935730E-19
4.800000E+03	4.137516E-18	7.975125E-19
4.810000E+03	4.163569E-18	8.015555E-19
4.820000E+03	4.190304E-18	8.056960E-19
4.830000E+03	4.217732E-18	8.099351E-19
4.840000E+03	4.245866E-18	8.142742E-19
4.850000E+03	4.274720E-18	8.187147E-19
4.860000E+03	4.304384E-18	8.232731E-19
4.870000E+03	4.334755E-18	8.279285E-19
4.880000E+03	4.365927E-18	8.326976E-19
4.890000E+03	4.397875E-18	8.375746E-19
4.900000E+03	4.430652E-18	8.425688E-19
4.910000E+03	4.464234E-18	8.476744E-19
4.920000E+03	4.498635E-18	8.528931E-19
4.930000E+03	4.533912E-18	8.582344E-19
4.940000E+03	4.569995E-18	8.636843E-19
4.950000E+03	4.606941E-18	8.692523E-19
4.960000E+03	4.644764E-18	8.749400E-19
4.970000E+03	4.683479E-18	8.807489E-19
4.980000E+03	4.723055E-18	8.866724E-19
4.990000E+03	4.763505E-18	8.927117E-19
5.000000E+03	4.804887E-18	8.988764E-19
5.010000E+03	4.847122E-18	9.051509E-19
5.020000E+03	4.890314E-18	9.115531E-19
5.030000E+03	4.934381E-18	9.180669E-19
5.040000E+03	4.979334E-18	9.246931E-19
5.050000E+03	5.025229E-18	9.314411E-19
5.060000E+03	5.072028E-18	9.383028E-19
5.070000E+03	5.119738E-18	9.452788E-19
5.080000E+03	5.168319E-18	9.523605E-19
5.090000E+03	5.217827E-18	9.595572E-19
5.100000E+03	5.268266E-18	9.668693E-19
5.110000E+03	5.319543E-18	9.742787E-19
5.120000E+03	5.371710E-18	9.817947E-19
5.130000E+03	5.424772E-18	9.894173E-19
5.140000E+03	5.478731E-18	9.971468E-19
5.150000E+03	5.533537E-18	1.004974E-18
5.160000E+03	5.589189E-18	1.012898E-18
5.170000E+03	5.645632E-18	1.020909E-18
5.180000E+03	5.702974E-18	1.029027E-18
5.190000E+03	5.761103E-18	1.037232E-18
5.200000E+03	5.820014E-18	1.045524E-18
5.210000E+03	5.879700E-18	1.053902E-18
5.220000E+03	5.940214E-18	1.062376E-18
5.230000E+03	6.001431E-18	1.070925E-18
5.240000E+03	6.063342E-18	1.079548E-18
5.250000E+03	6.126052E-18	1.088265E-18
5.260000E+03	6.189370E-18	1.097044E-18
5.270000E+03	6.253401E-18	1.105904E-18
5.280000E+03	6.318066E-18	1.114833E-18
5.290000E+03	6.383346E-18	1.123830E-18
5.300000E+03	6.449281E-18	1.132902E-18
5.310000E+03	6.515722E-18	1.142025E-18
5.320000E+03	6.582704E-18	1.151208E-18
5.330000E+03	6.650197E-18	1.160446E-18
5.340000E+03	6.718168E-18	1.169735E-18
5.350000E+03	6.786648E-18	1.179082E-18
5.360000E+03	6.855466E-18	1.188459E-18
5.370000E+03	6.924645E-18	1.197871E-18
5.380000E+03	6.994139E-18	1.207313E-18
5.390000E+03	7.063830E-18	1.216763E-18
5.400000E+03	7.133802E-18	1.226239E-18
5.410000E+03	7.203929E-18	1.235720E-18
5.420000E+03	7.274079E-18	1.245184E-18
5.430000E+03	7.344184E-18	1.254620E-18
5.440000E+03	7.414247E-18	1.264029E-18
5.450000E+03	7.484044E-18	1.273375E-18
5.460000E+03	7.553570E-18	1.282657E-18
5.470000E+03	7.622741E-18	1.291862E-18
5.480000E+03	7.691315E-18	1.300949E-18
5.490000E+03	7.759197E-18	1.309904E-18
5.500000E+03	7.826366E-18	1.318723E-18
5.510000E+03	7.892642E-18	1.327377E-18
5.520000E+03	7.957839E-18	1.335837E-18
5.530000E+03	8.021763E-18	1.344071E-18
5.540000E+03	8.084464E-18	1.352089E-18
5.550000E+03	8.145579E-18	1.359832E-18
5.560000E+03	8.205071E-18	1.367297E-18
5.570000E+03	8.262734E-18	1.374452E-18
5.580000E+03	8.318445E-18	1.381279E-18
5.590000E+03	8.372081E-18	1.387761E-18
5.600000E+03	8.423435E-18	1.393869E-18
5.610000E+03	8.472470E-18	1.399600E-18
5.620000E+03	8.518981E-18	1.404925E-18
5.630000E+03	8.562762E-18	1.409816E-18
5.640000E+03	8.603877E-18	1.414289E-18
5.650000E+03	8.642130E-18	1.418318E-18
5.660000E+03	8.677328E-18	1.421878E-18
5.670000E+03	8.709463E-18	1.424976E-18
5.680000E+03	8.738536E-18	1.427618E-18
5.690000E+03	8.764285E-18	1.429771E-18
5.700000E+03	8.786726E-18	1.431443E-18
5.710000E+03	8.805887E-18	1.432649E-18
5.720000E+03	8.821619E-18	1.433371E-18
5.730000E+03	8.833970E-18	1.433627E-18
5.740000E+03	8.842810E-18	1.433402E-18
5.750000E+03	8.848208E-18	1.432716E-18
5.760000E+03	8.850148E-18	1.431574E-18
5.770000E+03	8.848721E-18	1.429996E-18
5.780000E+03	8.843744E-18	1.427960E-18
5.790000E+03	8.835516E-18	1.425520E-18
5.800000E+03	8.823875E-18	1.422654E-18
5.810000E+03	8.808954E-18	1.419388E-18
5.820000E+03	8.790798E-18	1.415733E-18
5.830000E+03	8.769465E-18	1.411700E-18
5.840000E+03	8.745115E-18	1.407317E-18
5.850000E+03	8.717824E-18	1.402595E-18
5.860000E+03	8.687673E-18	1.397548E-18
5.870000E+03	8.654655E-18	1.392173E-18
5.880000E+03	8.619061E-18	1.386514E-18
5.890000E+03	8.580896E-18	1.380568E-18
5.900000E+03	8.540366E-18	1.374364E-18
5.910000E+03	8.497487E-18	1.367899E-18
5.920000E+03	8.452471E-18	1.361201E-18
5.930000E+03	8.405440E-18	1.354284E-18
5.940000E+03	8.356515E-18	1.347160E-18
5.950000E+03	8.305820E-18	1.339841E-18
5.960000E+03	8.253481E-18	1.332338E-18
5.970000E+03	8.199717E-18	1.324680E-18
5.980000E+03	8.144462E-18	1.316845E-18
5.990000E+03	8.088030E-18	1.308876E-18
6.000000E+03	8.030448E-18	1.300769E-18
6.010000E+03	7.971836E-18	1.292532E-18
6.020000E+03	7.912404E-18	1.284191E-18
6.030000E+03	7.852078E-18	1.275725E-18
6.040000E+03	7.791157E-18	1.267173E-18
6.050000E+03	7.729561E-18	1.258512E-18
6.060000E+03	7.667487E-18	1.249768E-18
6.070000E+03	7.605035E-18	1.240946E-18
6.080000E+03	7.542206E-18	1.232039E-18
6.090000E+03	7.479093E-18	1.223054E-18
6.100000E+03	7.415783E-18	1.213998E-18
6.110000E+03	7.352359E-18	1.204877E-18
6.120000E+03	7.288899E-18	1.195697E-18
6.130000E+03	7.225477E-18	1.186464E-18
6.140000E+03	7.162163E-18	1.177182E-18
6.150000E+03	7.099021E-18	1.167858E-18
6.160000E+03	7.036202E-18	1.158510E-18
6.170000E+03	6.973852E-18	1.149158E-18
6.180000E+03	6.912110E-18	1.139821E-18
6.190000E+03	6.851024E-18	1.130503E-18
6.200000E+03	6.790635E-18	1.121207E-18
6.210000E+03	6.730895E-18	1.111923E-18
6.220000E+03	6.671839E-18	1.102654E-18
6.230000E+03	6.613502E-18	1.093404E-18
6.240000E+03	6.555824E-18	1.084162E-18
6.250000E+03	6.498922E-18	1.074945E-18
6.260000E+03	6.442994E-18	1.065785E-18
6.270000E+03	6.387974E-18	1.056672E-18
6.280000E+03	6.333965E-18	1.047621E-18
6.290000E+03	6.281159E-18	1.038666E-18
6.300000E+03	6.229479E-18	1.029794E-18
6.310000E+03	6.179198E-18	1.021050E-18
6.320000E+03	6.130408E-18	1.012451E-18
6.330000E+03	6.083031E-18	1.003985E-18
6.340000E+03	6.037329E-18	9.956958E-19
6.350000E+03	5.993393E-18	9.876007E-19
6.360000E+03	5.951224E-18	9.797008E-19
6.370000E+03	5.910911E-18	9.720120E-19
6.380000E+03	5.872712E-18	9.645781E-19
6.390000E+03	5.836541E-18	9.573866E-19
6.400000E+03	5.802486E-18	9.504528E-19
6.410000E+03	5.770719E-18	9.438063E-19
6.420000E+03	5.740985E-18	9.374061E-19
6.430000E+03	5.713114E-18	9.312259E-19
6.440000E+03	5.687022E-18	9.252533E-19
6.450000E+03	5.662625E-18	9.194757E-19
6.460000E+03	5.639755E-18	9.138671E-19
6.470000E+03	5.618412E-18	9.084289E-19
6.480000E+03	5.598512E-18	9.031490E-19
6.490000E+03	5.580057E-18	8.980288E-19
6.500000E+03	5.562962E-18	8.930559E-19
6.510000E+03	5.547228E-18	8.882318E-19
6.520000E+03	5.532856E-18	8.835577E-19
6.530000E+03	5.519759E-18	8.790212E-19
6.540000E+03	5.508026E-18	8.746372E-19
6.550000E+03	5.497656E-18	8.704067E-19
6.560000E+03	5.488564E-18	8.663170E-19
6.570000E+03	5.480836E-18	8.623828E-19
6.580000E+03	5.474385E-18	8.585909E-19
6.590000E+03	5.469212E-18	8.549422E-19
6.600000E+03	5.465404E-18	8.514511E-19
6.610000E+03	5.462784E-18	8.480904E-19
6.620000E+03	5.461618E-18	8.449021E-19
6.630000E+03	5.461639E-18	8.418449E-19
6.640000E+03	5.463026E-18	8.389469E-19
6.650000E+03	5.465687E-18	8.361943E-19
6.660000E+03	5.469623E-18	8.335871E-19
6.670000E+03	5.474923E-18	8.311394E-19
6.680000E+03	5.481497E-18	8.288371E-19
6.690000E+03	5.489342E-18	8.266800E-19
6.700000E+03	5.498457E-18	8.246678E-19
6.710000E+03	5.508936E-18	8.228142E-19
6.720000E+03	5.520587E-18	8.210906E-19
6.730000E+03	5.533600E-18	8.195248E-19
6.740000E+03	5.547878E-18	8.181020E-19
6.750000E+03	5.563418E-18	8.168216E-19
6.760000E+03	5.580219E-18	8.156828E-19
6.770000E+03	5.598279E-18	8.146847E-19
6.780000E+03	5.617694E-18	8.138408E-19
6.790000E+03	5.638263E-18	8.131215E-19
6.800000E+03	5.660083E-18	8.125400E-19
6.810000E+03	5.683151E-18	8.120952E-19
6.820000E+03	5.707463E-18	8.117860E-19
6.830000E+03	5.733017E-18	8.116111E-19
6.840000E+03	5.759808E-18	8.115694E-19
6.850000E+03	5.787834E-18	8.116595E-19
6.860000E+03	5.816985E-18	8.118652E-19
6.870000E+03	5.847361E-18	8.122001E-19
6.880000E+03	5.878958E-18	8.126627E-19
6.890000E+03	5.911664E-18	8.132367E-19
6.900000E+03	5.945581E-18	8.139357E-19
6.910000E+03	5.980705E-18	8.147584E-19
6.920000E+03	6.016921E-18	8.156882E-19
6.930000E+03	6.054221E-18	8.167239E-19
6.940000E+03	6.092713E-18	8.178793E-19
6.950000E+03	6.132276E-18	8.191379E-19
6.960000E+03	6.172905E-18	8.204984E-19
6.970000E+03	6.214710E-18	8.219754E-19
6.980000E+03	6.257570E-18	8.235521E-19
6.990000E+03	6.301477E-18	8.252276E-19
7.000000E+03	6.346302E-18	8.269849E-19
7.010000E+03	6.392284E-18	8.288550E-19
7.020000E+03	6.439296E-18	8.308213E-19
7.030000E+03	6.487333E-18	8.328831E-19
7.040000E+03	6.536260E-18	8.350234E-19
7.050000E+03	6.586200E-18	8.372579E-19
7.060000E+03	6.637015E-18	8.395695E-19
7.070000E+03	6.688966E-18	8.419913E-19
7.080000E+03	6.741647E-18	8.444726E-19
7.090000E+03	6.795320E-18	8.470466E-19
7.100000E+03	6.849843E-18	8.496962E-19
7.110000E+03	6.905351E-18	8.524383E-19
7.120000E+03	6.961557E-18	8.552381E-19
7.130000E+03	7.018736E-18	8.581303E-19
7.140000E+03	7.076597E-18	8.610798E-19
7.150000E+03	7.135276E-18	8.641040E-19
7.160000E+03	7.194765E-18	8.672029E-19
7.170000E+03	7.255060E-18	8.703767E-19
7.180000E+03	7.316001E-18	8.736074E-19
7.190000E+03	7.377576E-18	8.768950E-19
7.200000E+03	7.439931E-18	8.802579E-19
7.210000E+03	7.502900E-18	8.836780E-19
7.220000E+03	7.566632E-18	8.871744E-19
7.230000E+03	7.630794E-18	8.907097E-19
7.240000E+03	7.695696E-18	8.943223E-19
7.250000E+03	7.761165E-18	8.979937E-19
7.260000E+03	7.827186E-18	9.017246E-19
7.270000E+03	7.893743E-18	9.055156E-19
7.280000E+03	7.960821E-18	9.093673E-19
7.290000E+03	8.028403E-18	9.132806E-19
7.300000E+03	8.096651E-18	9.172764E-19
7.310000E+03	8.165190E-18	9.213152E-19
7.320000E+03	8.234545E-18	9.254591E-19
7.330000E+03	8.304524E-18	9.296890E-19
7.340000E+03	8.374923E-18	9.339851E-19
7.350000E+03	8.446293E-18	9.384113E-19
7.360000E+03	8.518246E-18	9.429269E-19
7.370000E+03	8.591352E-18	9.475973E-19
7.380000E+03	8.665418E-18	9.524029E-19
7.390000E+03	8.740642E-18	9.573670E-19
7.400000E+03	8.817231E-18	9.625134E-19
7.410000E+03	8.895196E-18	9.678439E-19
7.420000E+03	8.974968E-18	9.734056E-19
7.430000E+03	9.056787E-18	9.792237E-19
7.440000E+03	9.140473E-18	9.852776E-19
7.450000E+03	9.226051E-18	9.915688E-19
7.460000E+03	9.313548E-18	9.980982E-19
7.470000E+03	9.402766E-18	1.004842E-18
7.480000E+03	9.493493E-18	1.011775E-18
7.490000E+03	9.585505E-18	1.018870E-18
7.500000E+03	9.678798E-18	1.026124E-18
7.510000E+03	9.773129E-18	1.033507E-18
7.520000E+03	9.868241E-18	1.040987E-18
7.530000E+03	9.964352E-18	1.048585E-18
7.540000E+03	1.006095E-17	1.056240E-18
7.550000E+03	1.015799E-17	1.063944E-18
7.560000E+03	1.025542E-17	1.071688E-18
7.570000E+03	1.035321E-17	1.079462E-18
7.580000E+03	1.045131E-17	1.087257E-18
7.590000E+03	1.054940E-17	1.095036E-18
7.600000E+03	1.064741E-17	1.102789E-18
7.610000E+03	1.074555E-17	1.110533E-18
7.620000E+03	1.084348E-17	1.118230E-18
7.630000E+03	1.094142E-17	1.125899E-18
7.640000E+03	1.103873E-17	1.133473E-18
7.650000E+03	1.113589E-17	1.141002E-18
7.660000E+03	1.123254E-17	1.148446E-18
7.670000E+03	1.132859E-17	1.155798E-18
7.680000E+03	1.142397E-17	1.163049E-18
7.690000E+03	1.151886E-17	1.170220E-18
7.700000E+03	1.161290E-17	1.177275E-18
7.710000E+03	1.170597E-17	1.184205E-18
7.720000E+03	1.179829E-17	1.191034E-18
7.730000E+03	1.188977E-17	1.197755E-18
7.740000E+03	1.198000E-17	1.204328E-18
7.750000E+03	1.206918E-17	1.210778E-18
7.760000E+03	1.215722E-17	1.217099E-18
