#wls	flux	fluxerr
1.600000E+03	1.028405E-16	1.087303E-16
1.640000E+03	1.065107E-16	1.111380E-16
1.680000E+03	1.101408E-16	1.133682E-16
1.720000E+03	1.137164E-16	1.154046E-16
1.760000E+03	1.171964E-16	1.172053E-16
1.800000E+03	1.205836E-16	1.187740E-16
1.840000E+03	1.238185E-16	1.200544E-16
1.880000E+03	1.268856E-16	1.210363E-16
1.920000E+03	1.297427E-16	1.216857E-16
1.960000E+03	1.323568E-16	1.219804E-16
2.000000E+03	1.346810E-16	1.218886E-16
2.040000E+03	1.366784E-16	1.213909E-16
2.080000E+03	1.383003E-16	1.204612E-16
2.120000E+03	1.395092E-16	1.190871E-16
2.160000E+03	1.402487E-16	1.172440E-16
2.200000E+03	1.404864E-16	1.149317E-16
2.240000E+03	1.401842E-16	1.121494E-16
2.280000E+03	1.393369E-16	1.089249E-16
2.320000E+03	1.379498E-16	1.052960E-16
2.360000E+03	1.360217E-16	1.012961E-16
2.400000E+03	1.335778E-16	9.697829E-17
2.440000E+03	1.306355E-16	9.238894E-17
2.480000E+03	1.272144E-16	8.757505E-17
2.520000E+03	1.233373E-16	8.258436E-17
2.560000E+03	1.190258E-16	7.746205E-17
2.600000E+03	1.143181E-16	7.226191E-17
2.640000E+03	1.092476E-16	6.703122E-17
2.680000E+03	1.038518E-16	6.181634E-17
2.720000E+03	9.818143E-17	5.666732E-17
2.760000E+03	9.228519E-17	5.162784E-17
2.800000E+03	8.621975E-17	4.674075E-17
2.840000E+03	8.004681E-17	4.204565E-17
2.880000E+03	7.383532E-17	3.757959E-17
2.920000E+03	6.767755E-17	3.338453E-17
2.960000E+03	6.167139E-17	2.949749E-17
3.000000E+03	5.590930E-17	2.594560E-17
3.010000E+03	5.451543E-17	2.511150E-17
3.020000E+03	5.314363E-17	2.429979E-17
3.030000E+03	5.179166E-17	2.350904E-17
3.040000E+03	5.046354E-17	2.274070E-17
3.050000E+03	4.915819E-17	2.199387E-17
3.060000E+03	4.787583E-17	2.126824E-17
3.070000E+03	4.661770E-17	2.056396E-17
3.080000E+03	4.538486E-17	1.988108E-17
3.090000E+03	4.417630E-17	1.921875E-17
3.100000E+03	4.299391E-17	1.857738E-17
3.110000E+03	4.183667E-17	1.795611E-17
3.120000E+03	4.070534E-17	1.735488E-17
3.130000E+03	3.960059E-17	1.677354E-17
3.140000E+03	3.852214E-17	1.621160E-17
3.150000E+03	3.746901E-17	1.566824E-17
3.160000E+03	3.644316E-17	1.514389E-17
3.170000E+03	3.544280E-17	1.463743E-17
3.180000E+03	3.446898E-17	1.414892E-17
3.190000E+03	3.352127E-17	1.367782E-17
3.200000E+03	3.259928E-17	1.322360E-17
3.210000E+03	3.170259E-17	1.278577E-17
3.220000E+03	3.083189E-17	1.236425E-17
3.230000E+03	2.998613E-17	1.195829E-17
3.240000E+03	2.916486E-17	1.156740E-17
3.250000E+03	2.836808E-17	1.119127E-17
3.260000E+03	2.759576E-17	1.082959E-17
3.270000E+03	2.684690E-17	1.048168E-17
3.280000E+03	2.612141E-17	1.014723E-17
3.290000E+03	2.541878E-17	9.825778E-18
3.300000E+03	2.473884E-17	9.516999E-18
3.310000E+03	2.408066E-17	9.220292E-18
3.320000E+03	2.344375E-17	8.935230E-18
3.330000E+03	2.282826E-17	8.661652E-18
3.340000E+03	2.223298E-17	8.398880E-18
3.350000E+03	2.165772E-17	8.146644E-18
3.360000E+03	2.110227E-17	7.904663E-18
3.370000E+03	2.056553E-17	7.672337E-18
3.380000E+03	2.004756E-17	7.449520E-18
3.390000E+03	1.954733E-17	7.235656E-18
3.400000E+03	1.906440E-17	7.030421E-18
3.410000E+03	1.859856E-17	6.833590E-18
3.420000E+03	1.814912E-17	6.644764E-18
3.430000E+03	1.771565E-17	6.463651E-18
3.440000E+03	1.729731E-17	6.289816E-18
3.450000E+03	1.689394E-17	6.123079E-18
3.460000E+03	1.650496E-17	5.963113E-18
3.470000E+03	1.612962E-17	5.809547E-18
3.480000E+03	1.576763E-17	5.662165E-18
3.490000E+03	1.541831E-17	5.520636E-18
3.500000E+03	1.508123E-17	5.384711E-18
3.510000E+03	1.475597E-17	5.254155E-18
3.520000E+03	1.444182E-17	5.128639E-18
3.530000E+03	1.413813E-17	5.007858E-18
3.540000E+03	1.384417E-17	4.891485E-18
3.550000E+03	1.355915E-17	4.779173E-18
3.560000E+03	1.328235E-17	4.670612E-18
3.570000E+03	1.301312E-17	4.565518E-18
3.580000E+03	1.275076E-17	4.463595E-18
3.590000E+03	1.249464E-17	4.364573E-18
3.600000E+03	1.224440E-17	4.268291E-18
3.610000E+03	1.199942E-17	4.174482E-18
3.620000E+03	1.175943E-17	4.083018E-18
3.630000E+03	1.152461E-17	3.993926E-18
3.640000E+03	1.129489E-17	3.907150E-18
3.650000E+03	1.107041E-17	3.822698E-18
3.660000E+03	1.085125E-17	3.740570E-18
3.670000E+03	1.063756E-17	3.660790E-18
3.680000E+03	1.042937E-17	3.583336E-18
3.690000E+03	1.022659E-17	3.508152E-18
3.700000E+03	1.002948E-17	3.435296E-18
3.710000E+03	9.837820E-18	3.364669E-18
3.720000E+03	9.651718E-18	3.296286E-18
3.730000E+03	9.471101E-18	3.230098E-18
3.740000E+03	9.295959E-18	3.166080E-18
3.750000E+03	9.126192E-18	3.104176E-18
3.760000E+03	8.961692E-18	3.044332E-18
3.770000E+03	8.802488E-18	2.986538E-18
3.780000E+03	8.648451E-18	2.930733E-18
3.790000E+03	8.499518E-18	2.876880E-18
3.800000E+03	8.355485E-18	2.824894E-18
3.810000E+03	8.216412E-18	2.774780E-18
3.820000E+03	8.082088E-18	2.726453E-18
3.830000E+03	7.952495E-18	2.679895E-18
3.840000E+03	7.827421E-18	2.635022E-18
3.850000E+03	7.706903E-18	2.591833E-18
3.860000E+03	7.590671E-18	2.550229E-18
3.870000E+03	7.478754E-18	2.510207E-18
3.880000E+03	7.371003E-18	2.471709E-18
3.890000E+03	7.267271E-18	2.434676E-18
3.900000E+03	7.167471E-18	2.399071E-18
3.910000E+03	7.071514E-18	2.364855E-18
3.920000E+03	6.979313E-18	2.331991E-18
3.930000E+03	6.890729E-18	2.300427E-18
3.940000E+03	6.805626E-18	2.270109E-18
3.950000E+03	6.723976E-18	2.241023E-18
3.960000E+03	6.645698E-18	2.213134E-18
3.970000E+03	6.570562E-18	2.186362E-18
3.980000E+03	6.498596E-18	2.160710E-18
3.990000E+03	6.429676E-18	2.136131E-18
4.000000E+03	6.363733E-18	2.112599E-18
4.010000E+03	6.300602E-18	2.090053E-18
4.020000E+03	6.240221E-18	2.068469E-18
4.030000E+03	6.182574E-18	2.047838E-18
4.040000E+03	6.127507E-18	2.028104E-18
4.050000E+03	6.074965E-18	2.009247E-18
4.060000E+03	6.024847E-18	1.991229E-18
4.070000E+03	5.977101E-18	1.974030E-18
4.080000E+03	5.931634E-18	1.957617E-18
4.090000E+03	5.888398E-18	1.941970E-18
4.100000E+03	5.847306E-18	1.927058E-18
4.110000E+03	5.808271E-18	1.912850E-18
4.120000E+03	5.771253E-18	1.899331E-18
4.130000E+03	5.736217E-18	1.886486E-18
4.140000E+03	5.703039E-18	1.874273E-18
4.150000E+03	5.671731E-18	1.862693E-18
4.160000E+03	5.642175E-18	1.851706E-18
4.170000E+03	5.614344E-18	1.841300E-18
4.180000E+03	5.588211E-18	1.831466E-18
4.190000E+03	5.563708E-18	1.822180E-18
4.200000E+03	5.540771E-18	1.813417E-18
4.210000E+03	5.519379E-18	1.805172E-18
4.220000E+03	5.499471E-18	1.797421E-18
4.230000E+03	5.481030E-18	1.790157E-18
4.240000E+03	5.464040E-18	1.783376E-18
4.250000E+03	5.448447E-18	1.777056E-18
4.260000E+03	5.434155E-18	1.771165E-18
4.270000E+03	5.421238E-18	1.765727E-18
4.280000E+03	5.409603E-18	1.760709E-18
4.290000E+03	5.399244E-18	1.756110E-18
4.300000E+03	5.390072E-18	1.751897E-18
4.310000E+03	5.382126E-18	1.748084E-18
4.320000E+03	5.375362E-18	1.744655E-18
4.330000E+03	5.369738E-18	1.741594E-18
4.340000E+03	5.365256E-18	1.738901E-18
4.350000E+03	5.361876E-18	1.736563E-18
4.360000E+03	5.359688E-18	1.734606E-18
4.370000E+03	5.358613E-18	1.733006E-18
4.380000E+03	5.358660E-18	1.731763E-18
4.390000E+03	5.359838E-18	1.730879E-18
4.400000E+03	5.362075E-18	1.730329E-18
4.410000E+03	5.365382E-18	1.730116E-18
4.420000E+03	5.369732E-18	1.730231E-18
4.430000E+03	5.375054E-18	1.730648E-18
4.440000E+03	5.381408E-18	1.731387E-18
4.450000E+03	5.388727E-18	1.732424E-18
4.460000E+03	5.396988E-18	1.733750E-18
4.470000E+03	5.406123E-18	1.735343E-18
4.480000E+03	5.416199E-18	1.737223E-18
4.490000E+03	5.427196E-18	1.739382E-18
4.500000E+03	5.439007E-18	1.741784E-18
4.510000E+03	5.451701E-18	1.744450E-18
4.520000E+03	5.465217E-18	1.747360E-18
4.530000E+03	5.479539E-18	1.750506E-18
4.540000E+03	5.494696E-18	1.753896E-18
4.550000E+03	5.510674E-18	1.757525E-18
4.560000E+03	5.527414E-18	1.761371E-18
4.570000E+03	5.544903E-18	1.765430E-18
4.580000E+03	5.563175E-18	1.769710E-18
4.590000E+03	5.582219E-18	1.774207E-18
4.600000E+03	5.601931E-18	1.778885E-18
4.610000E+03	5.622394E-18	1.783769E-18
4.620000E+03	5.643601E-18	1.788856E-18
4.630000E+03	5.665446E-18	1.794109E-18
4.640000E+03	5.687970E-18	1.799539E-18
4.650000E+03	5.711163E-18	1.805143E-18
4.660000E+03	5.734971E-18	1.810900E-18
4.670000E+03	5.759484E-18	1.816838E-18
4.680000E+03	5.784646E-18	1.822937E-18
4.690000E+03	5.810503E-18	1.829208E-18
4.700000E+03	5.837050E-18	1.835648E-18
4.710000E+03	5.864335E-18	1.842271E-18
4.720000E+03	5.892303E-18	1.849056E-18
4.730000E+03	5.921055E-18	1.856034E-18
4.740000E+03	5.950540E-18	1.863185E-18
4.750000E+03	5.980913E-18	1.870556E-18
4.760000E+03	6.012072E-18	1.878112E-18
4.770000E+03	6.044071E-18	1.885867E-18
4.780000E+03	6.077021E-18	1.893854E-18
4.790000E+03	6.110873E-18	1.902054E-18
4.800000E+03	6.145742E-18	1.910501E-18
4.810000E+03	6.181525E-18	1.919158E-18
4.820000E+03	6.218340E-18	1.928060E-18
4.830000E+03	6.256194E-18	1.937205E-18
4.840000E+03	6.295040E-18	1.946576E-18
4.850000E+03	6.334944E-18	1.956190E-18
4.860000E+03	6.375973E-18	1.966064E-18
4.870000E+03	6.418021E-18	1.976161E-18
4.880000E+03	6.461157E-18	1.986499E-18
4.890000E+03	6.505451E-18	1.997096E-18
4.900000E+03	6.550793E-18	2.007914E-18
4.910000E+03	6.597255E-18	2.018972E-18
4.920000E+03	6.644847E-18	2.030267E-18
4.930000E+03	6.693579E-18	2.041800E-18
4.940000E+03	6.743464E-18	2.053568E-18
4.950000E+03	6.794448E-18	2.065553E-18
4.960000E+03	6.846605E-18	2.077771E-18
4.970000E+03	6.899882E-18	2.090201E-18
4.980000E+03	6.954286E-18	2.102841E-18
4.990000E+03	7.009828E-18	2.115689E-18
5.000000E+03	7.066514E-18	2.128743E-18
5.010000E+03	7.124354E-18	2.141999E-18
5.020000E+03	7.183355E-18	2.155454E-18
5.030000E+03	7.243457E-18	2.169086E-18
5.040000E+03	7.304664E-18	2.182888E-18
5.050000E+03	7.366982E-18	2.196858E-18
5.060000E+03	7.430413E-18	2.210990E-18
5.070000E+03	7.494961E-18	2.225280E-18
5.080000E+03	7.560629E-18	2.239721E-18
5.090000E+03	7.627274E-18	2.254265E-18
5.100000E+03	7.695039E-18	2.268948E-18
5.110000E+03	7.763925E-18	2.283763E-18
5.120000E+03	7.833781E-18	2.298660E-18
5.130000E+03	7.904600E-18	2.313629E-18
5.140000E+03	7.976453E-18	2.328684E-18
5.150000E+03	8.049334E-18	2.343816E-18
5.160000E+03	8.123078E-18	2.358969E-18
5.170000E+03	8.197752E-18	2.374156E-18
5.180000E+03	8.273423E-18	2.389388E-18
5.190000E+03	8.349920E-18	2.404607E-18
5.200000E+03	8.427223E-18	2.419802E-18
5.210000E+03	8.505315E-18	2.434957E-18
5.220000E+03	8.584258E-18	2.450083E-18
5.230000E+03	8.663947E-18	2.465141E-18
5.240000E+03	8.744358E-18	2.480117E-18
5.250000E+03	8.825380E-18	2.494970E-18
5.260000E+03	8.907069E-18	2.509706E-18
5.270000E+03	8.989393E-18	2.524309E-18
5.280000E+03	9.072234E-18	2.538735E-18
5.290000E+03	9.155642E-18	2.552991E-18
5.300000E+03	9.239493E-18	2.567031E-18
5.310000E+03	9.323743E-18	2.580835E-18
5.320000E+03	9.408442E-18	2.594407E-18
5.330000E+03	9.493454E-18	2.607699E-18
5.340000E+03	9.578730E-18	2.620690E-18
5.350000E+03	9.664220E-18	2.633355E-18
5.360000E+03	9.749871E-18	2.645670E-18
5.370000E+03	9.835627E-18	2.657612E-18
5.380000E+03	9.921430E-18	2.669154E-18
5.390000E+03	1.000722E-17	2.680272E-18
5.400000E+03	1.009284E-17	2.690912E-18
5.410000E+03	1.017821E-17	2.701047E-18
5.420000E+03	1.026338E-17	2.710676E-18
5.430000E+03	1.034816E-17	2.719746E-18
5.440000E+03	1.043248E-17	2.728228E-18
5.450000E+03	1.051617E-17	2.736068E-18
5.460000E+03	1.059925E-17	2.743263E-18
5.470000E+03	1.068142E-17	2.749731E-18
5.480000E+03	1.076282E-17	2.755499E-18
5.490000E+03	1.084303E-17	2.760455E-18
5.500000E+03	1.092207E-17	2.764599E-18
5.510000E+03	1.099985E-17	2.767905E-18
5.520000E+03	1.107618E-17	2.770317E-18
5.530000E+03	1.115095E-17	2.771809E-18
5.540000E+03	1.122396E-17	2.772329E-18
5.550000E+03	1.129512E-17	2.771852E-18
5.560000E+03	1.136432E-17	2.770355E-18
5.570000E+03	1.143148E-17	2.767818E-18
5.580000E+03	1.149637E-17	2.764192E-18
5.590000E+03	1.155892E-17	2.759459E-18
5.600000E+03	1.161903E-17	2.753604E-18
5.610000E+03	1.167660E-17	2.746612E-18
5.620000E+03	1.173143E-17	2.738445E-18
5.630000E+03	1.178344E-17	2.729091E-18
5.640000E+03	1.183266E-17	2.718575E-18
5.650000E+03	1.187890E-17	2.706862E-18
5.660000E+03	1.192196E-17	2.693924E-18
5.670000E+03	1.196202E-17	2.679819E-18
5.680000E+03	1.199901E-17	2.664552E-18
5.690000E+03	1.203264E-17	2.648074E-18
5.700000E+03	1.206296E-17	2.630424E-18
5.710000E+03	1.209007E-17	2.611645E-18
5.720000E+03	1.211380E-17	2.591726E-18
5.730000E+03	1.213410E-17	2.570688E-18
5.740000E+03	1.215109E-17	2.548582E-18
5.750000E+03	1.216462E-17	2.525407E-18
5.760000E+03	1.217493E-17	2.501249E-18
5.770000E+03	1.218175E-17	2.476087E-18
5.780000E+03	1.218522E-17	2.449985E-18
5.790000E+03	1.218535E-17	2.422982E-18
5.800000E+03	1.218227E-17	2.395147E-18
5.810000E+03	1.217589E-17	2.366499E-18
5.820000E+03	1.216636E-17	2.337113E-18
5.830000E+03	1.215372E-17	2.307040E-18
5.840000E+03	1.213787E-17	2.276307E-18
5.850000E+03	1.211912E-17	2.245022E-18
5.860000E+03	1.209740E-17	2.213216E-18
5.870000E+03	1.207291E-17	2.180976E-18
5.880000E+03	1.204555E-17	2.148339E-18
5.890000E+03	1.201555E-17	2.115393E-18
5.900000E+03	1.198296E-17	2.082203E-18
5.910000E+03	1.194788E-17	2.048835E-18
5.920000E+03	1.191050E-17	2.015382E-18
5.930000E+03	1.187065E-17	1.981864E-18
5.940000E+03	1.182868E-17	1.948398E-18
5.950000E+03	1.178467E-17	1.915051E-18
5.960000E+03	1.173872E-17	1.881891E-18
5.970000E+03	1.169078E-17	1.848966E-18
5.980000E+03	1.164109E-17	1.816362E-18
5.990000E+03	1.158986E-17	1.784167E-18
6.000000E+03	1.153692E-17	1.752399E-18
6.010000E+03	1.148263E-17	1.721161E-18
6.020000E+03	1.142695E-17	1.690486E-18
6.030000E+03	1.137011E-17	1.660445E-18
6.040000E+03	1.131191E-17	1.631046E-18
6.050000E+03	1.125273E-17	1.602368E-18
6.060000E+03	1.119264E-17	1.574446E-18
6.070000E+03	1.113159E-17	1.547290E-18
6.080000E+03	1.106965E-17	1.520921E-18
6.090000E+03	1.100705E-17	1.495375E-18
6.100000E+03	1.094371E-17	1.470643E-18
6.110000E+03	1.087984E-17	1.446748E-18
6.120000E+03	1.081538E-17	1.423671E-18
6.130000E+03	1.075050E-17	1.401423E-18
6.140000E+03	1.068542E-17	1.380009E-18
6.150000E+03	1.062005E-17	1.359398E-18
6.160000E+03	1.055456E-17	1.339586E-18
6.170000E+03	1.048929E-17	1.320585E-18
6.180000E+03	1.042426E-17	1.302370E-18
6.190000E+03	1.035966E-17	1.284928E-18
6.200000E+03	1.029539E-17	1.268214E-18
6.210000E+03	1.023147E-17	1.252196E-18
6.220000E+03	1.016781E-17	1.236826E-18
6.230000E+03	1.010442E-17	1.222074E-18
6.240000E+03	1.004148E-17	1.207923E-18
6.250000E+03	9.978865E-18	1.194326E-18
6.260000E+03	9.916613E-18	1.181253E-18
6.270000E+03	9.854879E-18	1.168688E-18
6.280000E+03	9.793823E-18	1.156618E-18
6.290000E+03	9.733466E-18	1.145015E-18
6.300000E+03	9.673833E-18	1.133850E-18
6.310000E+03	9.615350E-18	1.123144E-18
6.320000E+03	9.557768E-18	1.112840E-18
6.330000E+03	9.501651E-18	1.102976E-18
6.340000E+03	9.446882E-18	1.093513E-18
6.350000E+03	9.393618E-18	1.084445E-18
6.360000E+03	9.342287E-18	1.075799E-18
6.370000E+03	9.292909E-18	1.067554E-18
6.380000E+03	9.245639E-18	1.059708E-18
6.390000E+03	9.200634E-18	1.052261E-18
6.400000E+03	9.158188E-18	1.045228E-18
6.410000E+03	9.118185E-18	1.038580E-18
6.420000E+03	9.080375E-18	1.032274E-18
6.430000E+03	9.044642E-18	1.026282E-18
6.440000E+03	9.010873E-18	1.020580E-18
6.450000E+03	8.978953E-18	1.015143E-18
6.460000E+03	8.948631E-18	1.009933E-18
6.470000E+03	8.919794E-18	1.004928E-18
6.480000E+03	8.892327E-18	1.000106E-18
6.490000E+03	8.866255E-18	9.954620E-19
6.500000E+03	8.841464E-18	9.909758E-19
6.510000E+03	8.817838E-18	9.866275E-19
6.520000E+03	8.795540E-18	9.824285E-19
6.530000E+03	8.774316E-18	9.783439E-19
6.540000E+03	8.754324E-18	9.743856E-19
6.550000E+03	8.735448E-18	9.705345E-19
6.560000E+03	8.717846E-18	9.668030E-19
6.570000E+03	8.701396E-18	9.631722E-19
6.580000E+03	8.686114E-18	9.596393E-19
6.590000E+03	8.672015E-18	9.562013E-19
6.600000E+03	8.659253E-18	9.528713E-19
6.610000E+03	8.647556E-18	9.496161E-19
6.620000E+03	8.637215E-18	9.464647E-19
6.630000E+03	8.628096E-18	9.434003E-19
6.640000E+03	8.620204E-18	9.404218E-19
6.650000E+03	8.613686E-18	9.375441E-19
6.660000E+03	8.608257E-18	9.347359E-19
6.670000E+03	8.604206E-18	9.320288E-19
6.680000E+03	8.601387E-18	9.294079E-19
6.690000E+03	8.599801E-18	9.268744E-19
6.700000E+03	8.599590E-18	9.244455E-19
6.710000E+03	8.600607E-18	9.221072E-19
6.720000E+03	8.602847E-18	9.198615E-19
6.730000E+03	8.606306E-18	9.177101E-19
6.740000E+03	8.611127E-18	9.156708E-19
6.750000E+03	8.617156E-18	9.137291E-19
6.760000E+03	8.624385E-18	9.118861E-19
6.770000E+03	8.632955E-18	9.101584E-19
6.780000E+03	8.642708E-18	9.085301E-19
6.790000E+03	8.653629E-18	9.070005E-19
6.800000E+03	8.665859E-18	9.055844E-19
6.810000E+03	8.679074E-18	9.042476E-19
6.820000E+03	8.693567E-18	9.030198E-19
6.830000E+03	8.709319E-18	9.018981E-19
6.840000E+03	8.725996E-18	9.008465E-19
6.850000E+03	8.743888E-18	8.998936E-19
6.860000E+03	8.762815E-18	8.990192E-19
6.870000E+03	8.782748E-18	8.982191E-19
6.880000E+03	8.803659E-18	8.974890E-19
6.890000E+03	8.825518E-18	8.968249E-19
6.900000E+03	8.848460E-18	8.962394E-19
6.910000E+03	8.872126E-18	8.956957E-19
6.920000E+03	8.896814E-18	8.952237E-19
6.930000E+03	8.922162E-18	8.947870E-19
6.940000E+03	8.948473E-18	8.944167E-19
6.950000E+03	8.975381E-18	8.940770E-19
6.960000E+03	9.003197E-18	8.938002E-19
6.970000E+03	9.031551E-18	8.935514E-19
6.980000E+03	9.060588E-18	8.933471E-19
6.990000E+03	9.090285E-18	8.931875E-19
7.000000E+03	9.120443E-18	8.930560E-19
7.010000E+03	9.151394E-18	8.929883E-19
7.020000E+03	9.182768E-18	8.929514E-19
7.030000E+03	9.214546E-18	8.929473E-19
7.040000E+03	9.246895E-18	8.929957E-19
7.050000E+03	9.279804E-18	8.930996E-19
7.060000E+03	9.313083E-18	8.932442E-19
7.070000E+03	9.346722E-18	8.934324E-19
7.080000E+03	9.380903E-18	8.936852E-19
7.090000E+03	9.415436E-18	8.939875E-19
7.100000E+03	9.450318E-18	8.943421E-19
7.110000E+03	9.485547E-18	8.947512E-19
7.120000E+03	9.521316E-18	8.952350E-19
7.130000E+03	9.557239E-18	8.957585E-19
7.140000E+03	9.593706E-18	8.963590E-19
7.150000E+03	9.630328E-18	8.970000E-19
7.160000E+03	9.667299E-18	8.976992E-19
7.170000E+03	9.704624E-18	8.984558E-19
7.180000E+03	9.742302E-18	8.992680E-19
7.190000E+03	9.780132E-18	9.001149E-19
7.200000E+03	9.818315E-18	9.010129E-19
7.210000E+03	9.856853E-18	9.019594E-19
7.220000E+03	9.895536E-18	9.029328E-19
7.230000E+03	9.934358E-18	9.039305E-19
7.240000E+03	9.973529E-18	9.049698E-19
7.250000E+03	1.001283E-17	9.060300E-19
7.260000E+03	1.005226E-17	9.071105E-19
7.270000E+03	1.009203E-17	9.082314E-19
7.280000E+03	1.013191E-17	9.093745E-19
7.290000E+03	1.017190E-17	9.105422E-19
7.300000E+03	1.021244E-17	9.117785E-19
7.310000E+03	1.025285E-17	9.130279E-19
7.320000E+03	1.029381E-17	9.143569E-19
7.330000E+03	1.033484E-17	9.157315E-19
7.340000E+03	1.037642E-17	9.171999E-19
7.350000E+03	1.041829E-17	9.187488E-19
7.360000E+03	1.046069E-17	9.204066E-19
7.370000E+03	1.050386E-17	9.222012E-19
7.380000E+03	1.054754E-17	9.241180E-19
7.390000E+03	1.059246E-17	9.262261E-19
7.400000E+03	1.063839E-17	9.285084E-19
7.410000E+03	1.068532E-17	9.309673E-19
7.420000E+03	1.073425E-17	9.336903E-19
7.430000E+03	1.078445E-17	9.366109E-19
7.440000E+03	1.083669E-17	9.397917E-19
7.450000E+03	1.089098E-17	9.432275E-19
7.460000E+03	1.094681E-17	9.468656E-19
7.470000E+03	1.100393E-17	9.506723E-19
7.480000E+03	1.106231E-17	9.546341E-19
7.490000E+03	1.112168E-17	9.587128E-19
7.500000E+03	1.118202E-17	9.628909E-19
7.510000E+03	1.124302E-17	9.671266E-19
7.520000E+03	1.130437E-17	9.713760E-19
7.530000E+03	1.136603E-17	9.756185E-19
7.540000E+03	1.142793E-17	9.798327E-19
7.550000E+03	1.148975E-17	9.839736E-19
7.560000E+03	1.155171E-17	9.880446E-19
7.570000E+03	1.161317E-17	9.919766E-19
7.580000E+03	1.167465E-17	9.958001E-19
7.590000E+03	1.173578E-17	9.994735E-19
7.600000E+03	1.179620E-17	1.002956E-18
7.610000E+03	1.185614E-17	1.006261E-18
7.620000E+03	1.191522E-17	1.009352E-18
7.630000E+03	1.197367E-17	1.012249E-18
7.640000E+03	1.203142E-17	1.014948E-18
7.650000E+03	1.208810E-17	1.017423E-18
7.660000E+03	1.214393E-17	1.019705E-18
7.670000E+03	1.219855E-17	1.021772E-18
7.680000E+03	1.225219E-17	1.023660E-18
7.690000E+03	1.230478E-17	1.025380E-18
7.700000E+03	1.235593E-17	1.026919E-18
7.710000E+03	1.240590E-17	1.028316E-18
7.720000E+03	1.245461E-17	1.029587E-18
7.730000E+03	1.250200E-17	1.030745E-18
7.740000E+03	1.254800E-17	1.031804E-18
7.750000E+03	1.259253E-17	1.032777E-18
7.760000E+03	1.263552E-17	1.033674E-18
