#wls	flux	fluxerr
1.600000E+03	1.043481E-16	1.100939E-16
1.640000E+03	1.080755E-16	1.125226E-16
1.680000E+03	1.117609E-16	1.147689E-16
1.720000E+03	1.153896E-16	1.168161E-16
1.760000E+03	1.189195E-16	1.186213E-16
1.800000E+03	1.223533E-16	1.201883E-16
1.840000E+03	1.256304E-16	1.214601E-16
1.880000E+03	1.287348E-16	1.224258E-16
1.920000E+03	1.316234E-16	1.230513E-16
1.960000E+03	1.342626E-16	1.233140E-16
2.000000E+03	1.366045E-16	1.231817E-16
2.040000E+03	1.386116E-16	1.226350E-16
2.080000E+03	1.402344E-16	1.216478E-16
2.120000E+03	1.414347E-16	1.202077E-16
2.160000E+03	1.421553E-16	1.182905E-16
2.200000E+03	1.423635E-16	1.158966E-16
2.240000E+03	1.420210E-16	1.130257E-16
2.280000E+03	1.411224E-16	1.097069E-16
2.320000E+03	1.396736E-16	1.059790E-16
2.360000E+03	1.376737E-16	1.018766E-16
2.400000E+03	1.351487E-16	9.745414E-17
2.440000E+03	1.321166E-16	9.275951E-17
2.480000E+03	1.285979E-16	8.784100E-17
2.520000E+03	1.246161E-16	8.274768E-17
2.560000E+03	1.201937E-16	7.752607E-17
2.600000E+03	1.153701E-16	7.223124E-17
2.640000E+03	1.101798E-16	6.691171E-17
2.680000E+03	1.046614E-16	6.161493E-17
2.720000E+03	9.886699E-17	5.639197E-17
2.760000E+03	9.284662E-17	5.128739E-17
2.800000E+03	8.665844E-17	4.634473E-17
2.840000E+03	8.036572E-17	4.160408E-17
2.880000E+03	7.403907E-17	3.710277E-17
2.920000E+03	6.777249E-17	3.288262E-17
2.960000E+03	6.166549E-17	2.898014E-17
3.000000E+03	5.581185E-17	2.542159E-17
3.010000E+03	5.439668E-17	2.458709E-17
3.020000E+03	5.300422E-17	2.377543E-17
3.030000E+03	5.163228E-17	2.298520E-17
3.040000E+03	5.028486E-17	2.221780E-17
3.050000E+03	4.896090E-17	2.147232E-17
3.060000E+03	4.766063E-17	2.074844E-17
3.070000E+03	4.638529E-17	2.004629E-17
3.080000E+03	4.513594E-17	1.936590E-17
3.090000E+03	4.391159E-17	1.870640E-17
3.100000E+03	4.271412E-17	1.806817E-17
3.110000E+03	4.154250E-17	1.745035E-17
3.120000E+03	4.039751E-17	1.685285E-17
3.130000E+03	3.927979E-17	1.627550E-17
3.140000E+03	3.818908E-17	1.571780E-17
3.150000E+03	3.712440E-17	1.517891E-17
3.160000E+03	3.608766E-17	1.465923E-17
3.170000E+03	3.507710E-17	1.415765E-17
3.180000E+03	3.409374E-17	1.367418E-17
3.190000E+03	3.313716E-17	1.320828E-17
3.200000E+03	3.220693E-17	1.275941E-17
3.210000E+03	3.130264E-17	1.232704E-17
3.220000E+03	3.042494E-17	1.191110E-17
3.230000E+03	2.957279E-17	1.151081E-17
3.240000E+03	2.874570E-17	1.112567E-17
3.250000E+03	2.794367E-17	1.075536E-17
3.260000E+03	2.716664E-17	1.039955E-17
3.270000E+03	2.641359E-17	1.005755E-17
3.280000E+03	2.568443E-17	9.729037E-18
3.290000E+03	2.497860E-17	9.413532E-18
3.300000E+03	2.429593E-17	9.110705E-18
3.310000E+03	2.363548E-17	8.819948E-18
3.320000E+03	2.299671E-17	8.540824E-18
3.330000E+03	2.237976E-17	8.273152E-18
3.340000E+03	2.178341E-17	8.016259E-18
3.350000E+03	2.120745E-17	7.769860E-18
3.360000E+03	2.065163E-17	7.533665E-18
3.370000E+03	2.011485E-17	7.307075E-18
3.380000E+03	1.959715E-17	7.089928E-18
3.390000E+03	1.909747E-17	6.881672E-18
3.400000E+03	1.861537E-17	6.681979E-18
3.410000E+03	1.815060E-17	6.490612E-18
3.420000E+03	1.770247E-17	6.307172E-18
3.430000E+03	1.727052E-17	6.131364E-18
3.440000E+03	1.685392E-17	5.962754E-18
3.450000E+03	1.645247E-17	5.801154E-18
3.460000E+03	1.606558E-17	5.646239E-18
3.470000E+03	1.569251E-17	5.497639E-18
3.480000E+03	1.533293E-17	5.355136E-18
3.490000E+03	1.498617E-17	5.218400E-18
3.500000E+03	1.465178E-17	5.087183E-18
3.510000E+03	1.432933E-17	4.961249E-18
3.520000E+03	1.401812E-17	4.840275E-18
3.530000E+03	1.371748E-17	4.723960E-18
3.540000E+03	1.342670E-17	4.611985E-18
3.550000E+03	1.314498E-17	4.504013E-18
3.560000E+03	1.287160E-17	4.399740E-18
3.570000E+03	1.260593E-17	4.298891E-18
3.580000E+03	1.234726E-17	4.201177E-18
3.590000E+03	1.209496E-17	4.106337E-18
3.600000E+03	1.184870E-17	4.014211E-18
3.610000E+03	1.160784E-17	3.924541E-18
3.620000E+03	1.137210E-17	3.837199E-18
3.630000E+03	1.114165E-17	3.752205E-18
3.640000E+03	1.091642E-17	3.669498E-18
3.650000E+03	1.069651E-17	3.589082E-18
3.660000E+03	1.048200E-17	3.510949E-18
3.670000E+03	1.027302E-17	3.435114E-18
3.680000E+03	1.006958E-17	3.361554E-18
3.690000E+03	9.871596E-18	3.290210E-18
3.700000E+03	9.679287E-18	3.221130E-18
3.710000E+03	9.492437E-18	3.154216E-18
3.720000E+03	9.311142E-18	3.089479E-18
3.730000E+03	9.135318E-18	3.026866E-18
3.740000E+03	8.964946E-18	2.966351E-18
3.750000E+03	8.799919E-18	2.907877E-18
3.760000E+03	8.640122E-18	2.851388E-18
3.770000E+03	8.485574E-18	2.796873E-18
3.780000E+03	8.336144E-18	2.744271E-18
3.790000E+03	8.191760E-18	2.693542E-18
3.800000E+03	8.052218E-18	2.644604E-18
3.810000E+03	7.917569E-18	2.597459E-18
3.820000E+03	7.787601E-18	2.552026E-18
3.830000E+03	7.662291E-18	2.508283E-18
3.840000E+03	7.541428E-18	2.466149E-18
3.850000E+03	7.425041E-18	2.425624E-18
3.860000E+03	7.312863E-18	2.386608E-18
3.870000E+03	7.204919E-18	2.349101E-18
3.880000E+03	7.101059E-18	2.313044E-18
3.890000E+03	7.001137E-18	2.278380E-18
3.900000E+03	6.905063E-18	2.245073E-18
3.910000E+03	6.812749E-18	2.213086E-18
3.920000E+03	6.724106E-18	2.182382E-18
3.930000E+03	6.638997E-18	2.152911E-18
3.940000E+03	6.557287E-18	2.124621E-18
3.950000E+03	6.478946E-18	2.097498E-18
3.960000E+03	6.403892E-18	2.071509E-18
3.970000E+03	6.331903E-18	2.046577E-18
3.980000E+03	6.263000E-18	2.022703E-18
3.990000E+03	6.197064E-18	1.999844E-18
4.000000E+03	6.134025E-18	1.977973E-18
4.010000E+03	6.073721E-18	1.957034E-18
4.020000E+03	6.016091E-18	1.937003E-18
4.030000E+03	5.961118E-18	1.917871E-18
4.040000E+03	5.908651E-18	1.899585E-18
4.050000E+03	5.858636E-18	1.882125E-18
4.060000E+03	5.810973E-18	1.865456E-18
4.070000E+03	5.765613E-18	1.849558E-18
4.080000E+03	5.722462E-18	1.834400E-18
4.090000E+03	5.681475E-18	1.819962E-18
4.100000E+03	5.642565E-18	1.806216E-18
4.110000E+03	5.605647E-18	1.793132E-18
4.120000E+03	5.570684E-18	1.780695E-18
4.130000E+03	5.537638E-18	1.768892E-18
4.140000E+03	5.506391E-18	1.757682E-18
4.150000E+03	5.476952E-18	1.747066E-18
4.160000E+03	5.449208E-18	1.737007E-18
4.170000E+03	5.423131E-18	1.727494E-18
4.180000E+03	5.398694E-18	1.718516E-18
4.190000E+03	5.375832E-18	1.710052E-18
4.200000E+03	5.354481E-18	1.702079E-18
4.210000E+03	5.334622E-18	1.694589E-18
4.220000E+03	5.316195E-18	1.687564E-18
4.230000E+03	5.299183E-18	1.680994E-18
4.240000E+03	5.283571E-18	1.674876E-18
4.250000E+03	5.269305E-18	1.669189E-18
4.260000E+03	5.256292E-18	1.663904E-18
4.270000E+03	5.244603E-18	1.659042E-18
4.280000E+03	5.234149E-18	1.654574E-18
4.290000E+03	5.224924E-18	1.650496E-18
4.300000E+03	5.216841E-18	1.646780E-18
4.310000E+03	5.209937E-18	1.643436E-18
4.320000E+03	5.204170E-18	1.640451E-18
4.330000E+03	5.199500E-18	1.637810E-18
4.340000E+03	5.195926E-18	1.635513E-18
4.350000E+03	5.193411E-18	1.633547E-18
4.360000E+03	5.192042E-18	1.631937E-18
4.370000E+03	5.191743E-18	1.630659E-18
4.380000E+03	5.192522E-18	1.629715E-18
4.390000E+03	5.194387E-18	1.629106E-18
4.400000E+03	5.197269E-18	1.628809E-18
4.410000E+03	5.201178E-18	1.628826E-18
4.420000E+03	5.206088E-18	1.629148E-18
4.430000E+03	5.211931E-18	1.629753E-18
4.440000E+03	5.218765E-18	1.630658E-18
4.450000E+03	5.226524E-18	1.631840E-18
4.460000E+03	5.235186E-18	1.633292E-18
4.470000E+03	5.244686E-18	1.634993E-18
4.480000E+03	5.255089E-18	1.636961E-18
4.490000E+03	5.266374E-18	1.639189E-18
4.500000E+03	5.278439E-18	1.641643E-18
4.510000E+03	5.291351E-18	1.644343E-18
4.520000E+03	5.305050E-18	1.647270E-18
4.530000E+03	5.319521E-18	1.650417E-18
4.540000E+03	5.334792E-18	1.653792E-18
4.550000E+03	5.350851E-18	1.657388E-18
4.560000E+03	5.367639E-18	1.661188E-18
4.570000E+03	5.385145E-18	1.665185E-18
4.580000E+03	5.403402E-18	1.669388E-18
4.590000E+03	5.422400E-18	1.673793E-18
4.600000E+03	5.442037E-18	1.678367E-18
4.610000E+03	5.462395E-18	1.683133E-18
4.620000E+03	5.483467E-18	1.688087E-18
4.630000E+03	5.505151E-18	1.693196E-18
4.640000E+03	5.527486E-18	1.698471E-18
4.650000E+03	5.550465E-18	1.703907E-18
4.660000E+03	5.574033E-18	1.709486E-18
4.670000E+03	5.598279E-18	1.715233E-18
4.680000E+03	5.623151E-18	1.721130E-18
4.690000E+03	5.648691E-18	1.727189E-18
4.700000E+03	5.674897E-18	1.733406E-18
4.710000E+03	5.701814E-18	1.739794E-18
4.720000E+03	5.729390E-18	1.746334E-18
4.730000E+03	5.757726E-18	1.753055E-18
4.740000E+03	5.786769E-18	1.759938E-18
4.750000E+03	5.816672E-18	1.767028E-18
4.760000E+03	5.847337E-18	1.774292E-18
4.770000E+03	5.878817E-18	1.781744E-18
4.780000E+03	5.911220E-18	1.789415E-18
4.790000E+03	5.944500E-18	1.797287E-18
4.800000E+03	5.978767E-18	1.805391E-18
4.810000E+03	6.013924E-18	1.813695E-18
4.820000E+03	6.050084E-18	1.822230E-18
4.830000E+03	6.087257E-18	1.830996E-18
4.840000E+03	6.125397E-18	1.839976E-18
4.850000E+03	6.164568E-18	1.849187E-18
4.860000E+03	6.204836E-18	1.858644E-18
4.870000E+03	6.246100E-18	1.868315E-18
4.880000E+03	6.288426E-18	1.878214E-18
4.890000E+03	6.331883E-18	1.888360E-18
4.900000E+03	6.376366E-18	1.898718E-18
4.910000E+03	6.421944E-18	1.909303E-18
4.920000E+03	6.468629E-18	1.920117E-18
4.930000E+03	6.516431E-18	1.931157E-18
4.940000E+03	6.565362E-18	1.942424E-18
4.950000E+03	6.615372E-18	1.953898E-18
4.960000E+03	6.666532E-18	1.965597E-18
4.970000E+03	6.718791E-18	1.977500E-18
4.980000E+03	6.772159E-18	1.989606E-18
4.990000E+03	6.826645E-18	2.001913E-18
5.000000E+03	6.882256E-18	2.014419E-18
5.010000E+03	6.939003E-18	2.027121E-18
5.020000E+03	6.996893E-18	2.040017E-18
5.030000E+03	7.055867E-18	2.053084E-18
5.040000E+03	7.115932E-18	2.066320E-18
5.050000E+03	7.177092E-18	2.079720E-18
5.060000E+03	7.239352E-18	2.093279E-18
5.070000E+03	7.302715E-18	2.106994E-18
5.080000E+03	7.367184E-18	2.120859E-18
5.090000E+03	7.432622E-18	2.134829E-18
5.100000E+03	7.499167E-18	2.148938E-18
5.110000E+03	7.566822E-18	2.163180E-18
5.120000E+03	7.635439E-18	2.177506E-18
5.130000E+03	7.705014E-18	2.191910E-18
5.140000E+03	7.775615E-18	2.206403E-18
5.150000E+03	7.847236E-18	2.220978E-18
5.160000E+03	7.919719E-18	2.235583E-18
5.170000E+03	7.993127E-18	2.250229E-18
5.180000E+03	8.067528E-18	2.264927E-18
5.190000E+03	8.142754E-18	2.279624E-18
5.200000E+03	8.218789E-18	2.294307E-18
5.210000E+03	8.295613E-18	2.308964E-18
5.220000E+03	8.373287E-18	2.323604E-18
5.230000E+03	8.451712E-18	2.338192E-18
5.240000E+03	8.530864E-18	2.352712E-18
5.250000E+03	8.610632E-18	2.367128E-18
5.260000E+03	8.691073E-18	2.381446E-18
5.270000E+03	8.772156E-18	2.395650E-18
5.280000E+03	8.853764E-18	2.409698E-18
5.290000E+03	8.935949E-18	2.423598E-18
5.300000E+03	9.018586E-18	2.437306E-18
5.310000E+03	9.101634E-18	2.450804E-18
5.320000E+03	9.185142E-18	2.464095E-18
5.330000E+03	9.268974E-18	2.477134E-18
5.340000E+03	9.353084E-18	2.489899E-18
5.350000E+03	9.437422E-18	2.502370E-18
5.360000E+03	9.521934E-18	2.514523E-18
5.370000E+03	9.606566E-18	2.526334E-18
5.380000E+03	9.691260E-18	2.537779E-18
5.390000E+03	9.775956E-18	2.548835E-18
5.400000E+03	9.860494E-18	2.559450E-18
5.410000E+03	9.944807E-18	2.569598E-18
5.420000E+03	1.002892E-17	2.579280E-18
5.430000E+03	1.011267E-17	2.588442E-18
5.440000E+03	1.019598E-17	2.597058E-18
5.450000E+03	1.027867E-17	2.605076E-18
5.460000E+03	1.036077E-17	2.612492E-18
5.470000E+03	1.044197E-17	2.619229E-18
5.480000E+03	1.052242E-17	2.625311E-18
5.490000E+03	1.060169E-17	2.630631E-18
5.500000E+03	1.067982E-17	2.635189E-18
5.510000E+03	1.075670E-17	2.638958E-18
5.520000E+03	1.083213E-17	2.641886E-18
5.530000E+03	1.090603E-17	2.643947E-18
5.540000E+03	1.097818E-17	2.645090E-18
5.550000E+03	1.104849E-17	2.645291E-18
5.560000E+03	1.111685E-17	2.644528E-18
5.570000E+03	1.118318E-17	2.642780E-18
5.580000E+03	1.124726E-17	2.640001E-18
5.590000E+03	1.130899E-17	2.636173E-18
5.600000E+03	1.136830E-17	2.631281E-18
5.610000E+03	1.142507E-17	2.625310E-18
5.620000E+03	1.147911E-17	2.618222E-18
5.630000E+03	1.153032E-17	2.610009E-18
5.640000E+03	1.157875E-17	2.600689E-18
5.650000E+03	1.162420E-17	2.590233E-18
5.660000E+03	1.166647E-17	2.578612E-18
5.670000E+03	1.170574E-17	2.565881E-18
5.680000E+03	1.174193E-17	2.552044E-18
5.690000E+03	1.177475E-17	2.537057E-18
5.700000E+03	1.180426E-17	2.520956E-18
5.710000E+03	1.183055E-17	2.503781E-18
5.720000E+03	1.185344E-17	2.485523E-18
5.730000E+03	1.187291E-17	2.466201E-18
5.740000E+03	1.188905E-17	2.445867E-18
5.750000E+03	1.190172E-17	2.424518E-18
5.760000E+03	1.191115E-17	2.402238E-18
5.770000E+03	1.191709E-17	2.379007E-18
5.780000E+03	1.191967E-17	2.354886E-18
5.790000E+03	1.191890E-17	2.329914E-18
5.800000E+03	1.191491E-17	2.304158E-18
5.810000E+03	1.190761E-17	2.277636E-18
5.820000E+03	1.189715E-17	2.250421E-18
5.830000E+03	1.188356E-17	2.222561E-18
5.840000E+03	1.186677E-17	2.194085E-18
5.850000E+03	1.184708E-17	2.165094E-18
5.860000E+03	1.182442E-17	2.135621E-18
5.870000E+03	1.179897E-17	2.105747E-18
5.880000E+03	1.177066E-17	2.075507E-18
5.890000E+03	1.173971E-17	2.044987E-18
5.900000E+03	1.170619E-17	2.014248E-18
5.910000E+03	1.167017E-17	1.983354E-18
5.920000E+03	1.163186E-17	1.952390E-18
5.930000E+03	1.159109E-17	1.921377E-18
5.940000E+03	1.154822E-17	1.890423E-18
5.950000E+03	1.150332E-17	1.859591E-18
5.960000E+03	1.145650E-17	1.828945E-18
5.970000E+03	1.140771E-17	1.798525E-18
5.980000E+03	1.135718E-17	1.768414E-18
5.990000E+03	1.130514E-17	1.738689E-18
6.000000E+03	1.125142E-17	1.709366E-18
6.010000E+03	1.119637E-17	1.680538E-18
6.020000E+03	1.113995E-17	1.652233E-18
6.030000E+03	1.108240E-17	1.624515E-18
6.040000E+03	1.102354E-17	1.597385E-18
6.050000E+03	1.096371E-17	1.570918E-18
6.060000E+03	1.090301E-17	1.545141E-18
6.070000E+03	1.084139E-17	1.520061E-18
6.080000E+03	1.077892E-17	1.495695E-18
6.090000E+03	1.071582E-17	1.472075E-18
6.100000E+03	1.065202E-17	1.449191E-18
6.110000E+03	1.058774E-17	1.427061E-18
6.120000E+03	1.052290E-17	1.405666E-18
6.130000E+03	1.045770E-17	1.385016E-18
6.140000E+03	1.039233E-17	1.365117E-18
6.150000E+03	1.032671E-17	1.345936E-18
6.160000E+03	1.026103E-17	1.327471E-18
6.170000E+03	1.019560E-17	1.309736E-18
6.180000E+03	1.013046E-17	1.292705E-18
6.190000E+03	1.006579E-17	1.276369E-18
6.200000E+03	1.000150E-17	1.260684E-18
6.210000E+03	9.937602E-18	1.245622E-18
6.220000E+03	9.874015E-18	1.231136E-18
6.230000E+03	9.810764E-18	1.217199E-18
6.240000E+03	9.748011E-18	1.203798E-18
6.250000E+03	9.685650E-18	1.190888E-18
6.260000E+03	9.623708E-18	1.178441E-18
6.270000E+03	9.562342E-18	1.166446E-18
6.280000E+03	9.501706E-18	1.154892E-18
6.290000E+03	9.441824E-18	1.143754E-18
6.300000E+03	9.382718E-18	1.133006E-18
6.310000E+03	9.324803E-18	1.122673E-18
6.320000E+03	9.267837E-18	1.112700E-18
6.330000E+03	9.212366E-18	1.103128E-18
6.340000E+03	9.158278E-18	1.093923E-18
6.350000E+03	9.105724E-18	1.085079E-18
6.360000E+03	9.055118E-18	1.076627E-18
6.370000E+03	9.006478E-18	1.068550E-18
6.380000E+03	8.959956E-18	1.060848E-18
6.390000E+03	8.915702E-18	1.053522E-18
6.400000E+03	8.874000E-18	1.046591E-18
6.410000E+03	8.834738E-18	1.040028E-18
6.420000E+03	8.797671E-18	1.033790E-18
6.430000E+03	8.762689E-18	1.027853E-18
6.440000E+03	8.729680E-18	1.022194E-18
6.450000E+03	8.698531E-18	1.016790E-18
6.460000E+03	8.669000E-18	1.011603E-18
6.470000E+03	8.640975E-18	1.006613E-18
6.480000E+03	8.614345E-18	1.001800E-18
6.490000E+03	8.589130E-18	9.971582E-19
6.500000E+03	8.565219E-18	9.926697E-19
6.510000E+03	8.542499E-18	9.883151E-19
6.520000E+03	8.521125E-18	9.841071E-19
6.530000E+03	8.500849E-18	9.800116E-19
6.540000E+03	8.481824E-18	9.760415E-19
6.550000E+03	8.463934E-18	9.721788E-19
6.560000E+03	8.447331E-18	9.684366E-19
6.570000E+03	8.431894E-18	9.647973E-19
6.580000E+03	8.417640E-18	9.612586E-19
6.590000E+03	8.404580E-18	9.578188E-19
6.600000E+03	8.392862E-18	9.544916E-19
6.610000E+03	8.382223E-18	9.512446E-19
6.620000E+03	8.372943E-18	9.481075E-19
6.630000E+03	8.364894E-18	9.450640E-19
6.640000E+03	8.358079E-18	9.421135E-19
6.650000E+03	8.352640E-18	9.392714E-19
6.660000E+03	8.348302E-18	9.365063E-19
6.670000E+03	8.345344E-18	9.338502E-19
6.680000E+03	8.343627E-18	9.312881E-19
6.690000E+03	8.343149E-18	9.288209E-19
6.700000E+03	8.344050E-18	9.264656E-19
6.710000E+03	8.346185E-18	9.242079E-19
6.720000E+03	8.349551E-18	9.220492E-19
6.730000E+03	8.354143E-18	9.199908E-19
6.740000E+03	8.360099E-18	9.180500E-19
6.750000E+03	8.367269E-18	9.162118E-19
6.760000E+03	8.375645E-18	9.144770E-19
6.770000E+03	8.385363E-18	9.128618E-19
6.780000E+03	8.396269E-18	9.113501E-19
6.790000E+03	8.408350E-18	9.099412E-19
6.800000E+03	8.421741E-18	9.086500E-19
6.810000E+03	8.436128E-18	9.074423E-19
6.820000E+03	8.451795E-18	9.063484E-19
6.830000E+03	8.468725E-18	9.053656E-19
6.840000E+03	8.486594E-18	9.044583E-19
6.850000E+03	8.505685E-18	9.036557E-19
6.860000E+03	8.525823E-18	9.029381E-19
6.870000E+03	8.546982E-18	9.023017E-19
6.880000E+03	8.569136E-18	9.017428E-19
6.890000E+03	8.592258E-18	9.012576E-19
6.900000E+03	8.616480E-18	9.008594E-19
6.910000E+03	8.641455E-18	9.005114E-19
6.920000E+03	8.667475E-18	9.002440E-19
6.930000E+03	8.694189E-18	9.000208E-19
6.940000E+03	8.721895E-18	8.998732E-19
6.950000E+03	8.750236E-18	8.997652E-19
6.960000E+03	8.779517E-18	8.997294E-19
6.970000E+03	8.809380E-18	8.997305E-19
6.980000E+03	8.839967E-18	8.997849E-19
6.990000E+03	8.871255E-18	8.998925E-19
7.000000E+03	8.903053E-18	9.000363E-19
7.010000E+03	8.935684E-18	9.002518E-19
7.020000E+03	8.968788E-18	9.005053E-19
7.030000E+03	9.002345E-18	9.007981E-19
7.040000E+03	9.036519E-18	9.011497E-19
7.050000E+03	9.071298E-18	9.015622E-19
7.060000E+03	9.106496E-18	9.020202E-19
7.070000E+03	9.142102E-18	9.025258E-19
7.080000E+03	9.178293E-18	9.030994E-19
7.090000E+03	9.214881E-18	9.037253E-19
7.100000E+03	9.251861E-18	9.044056E-19
7.110000E+03	9.289232E-18	9.051419E-19
7.120000E+03	9.327179E-18	9.059542E-19
7.130000E+03	9.365325E-18	9.068068E-19
7.140000E+03	9.404049E-18	9.077373E-19
7.150000E+03	9.442967E-18	9.087086E-19
7.160000E+03	9.482271E-18	9.097390E-19
7.170000E+03	9.521961E-18	9.108277E-19
7.180000E+03	9.562039E-18	9.119735E-19
7.190000E+03	9.602303E-18	9.131559E-19
7.200000E+03	9.642952E-18	9.143919E-19
7.210000E+03	9.683986E-18	9.156800E-19
7.220000E+03	9.725198E-18	9.169988E-19
7.230000E+03	9.766581E-18	9.183466E-19
7.240000E+03	9.808342E-18	9.197416E-19
7.250000E+03	9.850266E-18	9.211634E-19
7.260000E+03	9.892345E-18	9.226117E-19
7.270000E+03	9.934790E-18	9.241071E-19
7.280000E+03	9.977379E-18	9.256311E-19
7.290000E+03	1.002010E-17	9.271858E-19
7.300000E+03	1.006340E-17	9.288153E-19
7.310000E+03	1.010659E-17	9.304621E-19
7.320000E+03	1.015035E-17	9.321930E-19
7.330000E+03	1.019421E-17	9.339716E-19
7.340000E+03	1.023863E-17	9.358456E-19
7.350000E+03	1.028336E-17	9.377999E-19
7.360000E+03	1.032863E-17	9.398613E-19
7.370000E+03	1.037467E-17	9.420569E-19
7.380000E+03	1.042124E-17	9.443702E-19
7.390000E+03	1.046906E-17	9.468702E-19
7.400000E+03	1.051788E-17	9.495384E-19
7.410000E+03	1.056772E-17	9.523765E-19
7.420000E+03	1.061955E-17	9.554736E-19
7.430000E+03	1.067266E-17	9.587618E-19
7.440000E+03	1.072780E-17	9.623057E-19
7.450000E+03	1.078499E-17	9.661009E-19
7.460000E+03	1.084373E-17	9.700951E-19
7.470000E+03	1.090376E-17	9.742553E-19
7.480000E+03	1.096507E-17	9.785701E-19
7.490000E+03	1.102739E-17	9.830025E-19
7.500000E+03	1.109068E-17	9.875372E-19
7.510000E+03	1.115466E-17	9.921339E-19
7.520000E+03	1.121901E-17	9.967506E-19
7.530000E+03	1.128369E-17	1.001368E-18
7.540000E+03	1.134864E-17	1.005968E-18
7.550000E+03	1.141354E-17	1.010507E-18
7.560000E+03	1.147861E-17	1.014990E-18
7.570000E+03	1.154321E-17	1.019349E-18
7.580000E+03	1.160786E-17	1.023618E-18
7.590000E+03	1.167220E-17	1.027756E-18
7.600000E+03	1.173587E-17	1.031722E-18
7.610000E+03	1.179909E-17	1.035532E-18
7.620000E+03	1.186149E-17	1.039149E-18
7.630000E+03	1.192330E-17	1.042593E-18
7.640000E+03	1.198445E-17	1.045861E-18
7.650000E+03	1.204455E-17	1.048923E-18
7.660000E+03	1.210385E-17	1.051809E-18
7.670000E+03	1.216196E-17	1.054494E-18
7.680000E+03	1.221911E-17	1.057013E-18
7.690000E+03	1.227525E-17	1.059373E-18
7.700000E+03	1.232996E-17	1.061556E-18
7.710000E+03	1.238351E-17	1.063600E-18
7.720000E+03	1.243582E-17	1.065515E-18
7.730000E+03	1.248682E-17	1.067313E-18
7.740000E+03	1.253643E-17	1.069003E-18
7.750000E+03	1.258458E-17	1.070595E-18
7.760000E+03	1.263119E-17	1.072096E-18
