#wls	flux	fluxerr
1.600000E+03	9.758112E-17	1.039434E-16
1.640000E+03	1.010488E-16	1.062721E-16
1.680000E+03	1.044820E-16	1.084399E-16
1.720000E+03	1.078678E-16	1.104319E-16
1.760000E+03	1.111682E-16	1.122088E-16
1.800000E+03	1.143865E-16	1.137748E-16
1.840000E+03	1.174671E-16	1.150768E-16
1.880000E+03	1.203962E-16	1.161053E-16
1.920000E+03	1.231345E-16	1.168283E-16
1.960000E+03	1.256515E-16	1.172244E-16
2.000000E+03	1.279034E-16	1.172630E-16
2.040000E+03	1.298557E-16	1.169254E-16
2.080000E+03	1.314628E-16	1.161858E-16
2.120000E+03	1.326892E-16	1.150311E-16
2.160000E+03	1.334816E-16	1.134364E-16
2.200000E+03	1.338091E-16	1.113998E-16
2.240000E+03	1.336352E-16	1.089181E-16
2.280000E+03	1.329542E-16	1.060160E-16
2.320000E+03	1.317704E-16	1.027272E-16
2.360000E+03	1.300819E-16	9.908107E-17
2.400000E+03	1.279114E-16	9.512602E-17
2.440000E+03	1.252742E-16	9.090394E-17
2.480000E+03	1.221874E-16	8.645715E-17
2.520000E+03	1.186712E-16	8.182876E-17
2.560000E+03	1.147442E-16	7.705934E-17
2.600000E+03	1.104409E-16	7.219811E-17
2.640000E+03	1.057910E-16	6.728805E-17
2.680000E+03	1.008278E-16	6.237143E-17
2.720000E+03	9.559751E-17	5.749458E-17
2.760000E+03	9.014370E-17	5.269790E-17
2.800000E+03	8.451766E-17	4.802150E-17
2.840000E+03	7.877526E-17	4.350285E-17
2.880000E+03	7.297924E-17	3.917771E-17
2.920000E+03	6.721538E-17	3.508814E-17
2.960000E+03	6.157559E-17	3.127258E-17
3.000000E+03	5.614734E-17	2.776082E-17
3.010000E+03	5.483139E-17	2.693223E-17
3.020000E+03	5.353519E-17	2.612438E-17
3.030000E+03	5.225647E-17	2.533580E-17
3.040000E+03	5.099921E-17	2.456809E-17
3.050000E+03	4.976231E-17	2.382038E-17
3.060000E+03	4.854596E-17	2.309239E-17
3.070000E+03	4.735137E-17	2.238437E-17
3.080000E+03	4.617960E-17	2.169644E-17
3.090000E+03	4.502962E-17	2.102777E-17
3.100000E+03	4.390335E-17	2.037890E-17
3.110000E+03	4.279971E-17	1.974897E-17
3.120000E+03	4.171953E-17	1.913800E-17
3.130000E+03	4.066347E-17	1.854595E-17
3.140000E+03	3.963127E-17	1.797235E-17
3.150000E+03	3.862193E-17	1.741641E-17
3.160000E+03	3.763751E-17	1.687871E-17
3.170000E+03	3.667619E-17	1.635811E-17
3.180000E+03	3.573909E-17	1.585477E-17
3.190000E+03	3.482583E-17	1.536822E-17
3.200000E+03	3.393602E-17	1.489796E-17
3.210000E+03	3.306931E-17	1.444353E-17
3.220000E+03	3.222648E-17	1.400498E-17
3.230000E+03	3.140647E-17	1.358156E-17
3.240000E+03	3.060890E-17	1.317282E-17
3.250000E+03	2.983386E-17	1.277853E-17
3.260000E+03	2.908137E-17	1.239843E-17
3.270000E+03	2.835047E-17	1.203185E-17
3.280000E+03	2.764117E-17	1.167856E-17
3.290000E+03	2.695299E-17	1.133812E-17
3.300000E+03	2.628587E-17	1.101026E-17
3.310000E+03	2.563892E-17	1.069440E-17
3.320000E+03	2.501169E-17	1.039013E-17
3.330000E+03	2.440446E-17	1.009737E-17
3.340000E+03	2.381602E-17	9.815427E-18
3.350000E+03	2.324630E-17	9.544079E-18
3.360000E+03	2.269515E-17	9.283092E-18
3.370000E+03	2.216149E-17	9.031850E-18
3.380000E+03	2.164551E-17	8.790268E-18
3.390000E+03	2.114619E-17	8.557777E-18
3.400000E+03	2.066314E-17	8.334074E-18
3.410000E+03	2.019626E-17	8.118974E-18
3.420000E+03	1.974488E-17	7.912078E-18
3.430000E+03	1.930864E-17	7.713116E-18
3.440000E+03	1.888672E-17	7.521637E-18
3.450000E+03	1.847904E-17	7.337495E-18
3.460000E+03	1.808506E-17	7.160367E-18
3.470000E+03	1.770406E-17	6.989869E-18
3.480000E+03	1.733580E-17	6.825803E-18
3.490000E+03	1.697962E-17	6.667826E-18
3.500000E+03	1.663512E-17	6.515695E-18
3.510000E+03	1.630194E-17	6.369180E-18
3.520000E+03	1.597936E-17	6.227928E-18
3.530000E+03	1.566675E-17	6.091620E-18
3.540000E+03	1.536336E-17	5.959903E-18
3.550000E+03	1.506839E-17	5.832398E-18
3.560000E+03	1.478109E-17	5.708762E-18
3.570000E+03	1.450082E-17	5.588689E-18
3.580000E+03	1.422684E-17	5.471850E-18
3.590000E+03	1.395850E-17	5.357948E-18
3.600000E+03	1.369548E-17	5.246816E-18
3.610000E+03	1.343710E-17	5.138155E-18
3.620000E+03	1.318313E-17	5.031838E-18
3.630000E+03	1.293381E-17	4.927922E-18
3.640000E+03	1.268912E-17	4.826366E-18
3.650000E+03	1.244925E-17	4.727207E-18
3.660000E+03	1.221434E-17	4.630470E-18
3.670000E+03	1.198462E-17	4.536208E-18
3.680000E+03	1.176017E-17	4.444420E-18
3.690000E+03	1.154093E-17	4.355058E-18
3.700000E+03	1.132723E-17	4.268219E-18
3.710000E+03	1.111887E-17	4.183800E-18
3.720000E+03	1.091603E-17	4.101841E-18
3.730000E+03	1.071865E-17	4.022302E-18
3.740000E+03	1.052678E-17	3.945170E-18
3.750000E+03	1.034033E-17	3.870396E-18
3.760000E+03	1.015922E-17	3.797928E-18
3.770000E+03	9.983516E-18	3.727772E-18
3.780000E+03	9.813116E-18	3.659867E-18
3.790000E+03	9.647978E-18	3.594182E-18
3.800000E+03	9.487903E-18	3.530625E-18
3.810000E+03	9.332989E-18	3.469217E-18
3.820000E+03	9.183027E-18	3.409865E-18
3.830000E+03	9.038023E-18	3.352556E-18
3.840000E+03	8.897763E-18	3.297199E-18
3.850000E+03	8.762316E-18	3.243803E-18
3.860000E+03	8.631395E-18	3.192253E-18
3.870000E+03	8.505059E-18	3.142558E-18
3.880000E+03	8.383159E-18	3.094651E-18
3.890000E+03	8.265547E-18	3.048469E-18
3.900000E+03	8.152143E-18	3.003971E-18
3.910000E+03	8.042864E-18	2.961117E-18
3.920000E+03	7.937628E-18	2.919870E-18
3.930000E+03	7.836292E-18	2.880167E-18
3.940000E+03	7.738716E-18	2.841950E-18
3.950000E+03	7.644882E-18	2.805204E-18
3.960000E+03	7.554711E-18	2.769894E-18
3.970000E+03	7.467954E-18	2.735921E-18
3.980000E+03	7.384654E-18	2.703296E-18
3.990000E+03	7.304681E-18	2.671964E-18
4.000000E+03	7.227965E-18	2.641895E-18
4.010000E+03	7.154329E-18	2.613019E-18
4.020000E+03	7.083711E-18	2.585307E-18
4.030000E+03	7.016101E-18	2.558752E-18
4.040000E+03	6.951333E-18	2.533288E-18
4.050000E+03	6.889348E-18	2.508890E-18
4.060000E+03	6.830041E-18	2.485515E-18
4.070000E+03	6.773360E-18	2.463140E-18
4.080000E+03	6.719202E-18	2.441725E-18
4.090000E+03	6.667521E-18	2.421249E-18
4.100000E+03	6.618220E-18	2.401675E-18
4.110000E+03	6.571208E-18	2.382964E-18
4.120000E+03	6.526444E-18	2.365101E-18
4.130000E+03	6.483891E-18	2.348067E-18
4.140000E+03	6.443413E-18	2.331813E-18
4.150000E+03	6.405026E-18	2.316340E-18
4.160000E+03	6.368602E-18	2.301601E-18
4.170000E+03	6.334112E-18	2.287581E-18
4.180000E+03	6.301528E-18	2.274269E-18
4.190000E+03	6.270777E-18	2.261636E-18
4.200000E+03	6.241789E-18	2.249655E-18
4.210000E+03	6.214542E-18	2.238317E-18
4.220000E+03	6.188969E-18	2.227594E-18
4.230000E+03	6.165054E-18	2.217479E-18
4.240000E+03	6.142781E-18	2.207965E-18
4.250000E+03	6.122089E-18	2.199027E-18
4.260000E+03	6.102872E-18	2.190627E-18
4.270000E+03	6.085214E-18	2.182793E-18
4.280000E+03	6.069014E-18	2.175486E-18
4.290000E+03	6.054264E-18	2.168703E-18
4.300000E+03	6.040867E-18	2.162406E-18
4.310000E+03	6.028867E-18	2.156611E-18
4.320000E+03	6.018215E-18	2.151298E-18
4.330000E+03	6.008866E-18	2.146449E-18
4.340000E+03	6.000821E-18	2.142064E-18
4.350000E+03	5.994037E-18	2.138125E-18
4.360000E+03	5.988615E-18	2.134667E-18
4.370000E+03	5.984468E-18	2.131658E-18
4.380000E+03	5.981604E-18	2.129099E-18
4.390000E+03	5.980036E-18	2.126993E-18
4.400000E+03	5.979681E-18	2.125309E-18
4.410000E+03	5.980554E-18	2.124050E-18
4.420000E+03	5.982623E-18	2.123204E-18
4.430000E+03	5.985810E-18	2.122741E-18
4.440000E+03	5.990181E-18	2.122684E-18
4.450000E+03	5.995662E-18	2.123004E-18
4.460000E+03	6.002225E-18	2.123690E-18
4.470000E+03	6.009797E-18	2.124715E-18
4.480000E+03	6.018451E-18	2.126102E-18
4.490000E+03	6.028164E-18	2.127843E-18
4.500000E+03	6.038817E-18	2.129892E-18
4.510000E+03	6.050486E-18	2.132276E-18
4.520000E+03	6.063104E-18	2.134968E-18
4.530000E+03	6.076650E-18	2.137961E-18
4.540000E+03	6.091158E-18	2.141263E-18
4.550000E+03	6.106610E-18	2.144867E-18
4.560000E+03	6.122941E-18	2.148747E-18
4.570000E+03	6.140135E-18	2.152897E-18
4.580000E+03	6.158228E-18	2.157327E-18
4.590000E+03	6.177208E-18	2.162031E-18
4.600000E+03	6.196958E-18	2.166965E-18
4.610000E+03	6.217569E-18	2.172161E-18
4.620000E+03	6.239031E-18	2.177611E-18
4.630000E+03	6.261228E-18	2.183273E-18
4.640000E+03	6.284201E-18	2.189159E-18
4.650000E+03	6.307939E-18	2.195264E-18
4.660000E+03	6.332381E-18	2.201563E-18
4.670000E+03	6.357623E-18	2.208088E-18
4.680000E+03	6.383605E-18	2.214816E-18
4.690000E+03	6.410374E-18	2.221759E-18
4.700000E+03	6.437922E-18	2.228914E-18
4.710000E+03	6.466301E-18	2.236295E-18
4.720000E+03	6.495449E-18	2.243879E-18
4.730000E+03	6.525475E-18	2.251699E-18
4.740000E+03	6.556320E-18	2.259733E-18
4.750000E+03	6.588154E-18	2.268037E-18
4.760000E+03	6.620862E-18	2.276567E-18
4.770000E+03	6.654501E-18	2.285340E-18
4.780000E+03	6.689192E-18	2.294395E-18
4.790000E+03	6.724878E-18	2.303708E-18
4.800000E+03	6.761684E-18	2.313318E-18
4.810000E+03	6.799493E-18	2.323182E-18
4.820000E+03	6.838433E-18	2.333339E-18
4.830000E+03	6.878510E-18	2.343789E-18
4.840000E+03	6.919670E-18	2.354507E-18
4.850000E+03	6.961981E-18	2.365514E-18
4.860000E+03	7.005517E-18	2.376830E-18
4.870000E+03	7.050158E-18	2.388409E-18
4.880000E+03	7.095976E-18	2.400273E-18
4.890000E+03	7.143046E-18	2.412440E-18
4.900000E+03	7.191247E-18	2.424865E-18
4.910000E+03	7.240652E-18	2.437569E-18
4.920000E+03	7.291271E-18	2.450550E-18
4.930000E+03	7.343115E-18	2.463804E-18
4.940000E+03	7.396191E-18	2.477330E-18
4.950000E+03	7.450440E-18	2.491103E-18
4.960000E+03	7.505941E-18	2.505141E-18
4.970000E+03	7.562631E-18	2.519420E-18
4.980000E+03	7.620519E-18	2.533936E-18
4.990000E+03	7.679610E-18	2.548684E-18
5.000000E+03	7.739913E-18	2.563660E-18
5.010000E+03	7.801433E-18	2.578860E-18
5.020000E+03	7.864177E-18	2.594279E-18
5.030000E+03	7.928075E-18	2.609888E-18
5.040000E+03	7.993131E-18	2.625680E-18
5.050000E+03	8.059348E-18	2.641650E-18
5.060000E+03	8.126727E-18	2.657789E-18
5.070000E+03	8.195270E-18	2.674092E-18
5.080000E+03	8.264978E-18	2.690550E-18
5.090000E+03	8.335692E-18	2.707103E-18
5.100000E+03	8.407566E-18	2.723795E-18
5.110000E+03	8.480599E-18	2.740615E-18
5.120000E+03	8.554626E-18	2.757502E-18
5.130000E+03	8.629636E-18	2.774444E-18
5.140000E+03	8.705705E-18	2.791455E-18
5.150000E+03	8.782823E-18	2.808525E-18
5.160000E+03	8.860812E-18	2.825586E-18
5.170000E+03	8.939740E-18	2.842650E-18
5.180000E+03	9.019681E-18	2.859733E-18
5.190000E+03	9.100446E-18	2.876762E-18
5.200000E+03	9.182014E-18	2.893723E-18
5.210000E+03	9.264363E-18	2.910598E-18
5.220000E+03	9.347560E-18	2.927398E-18
5.230000E+03	9.431493E-18	2.944076E-18
5.240000E+03	9.516133E-18	2.960614E-18
5.250000E+03	9.601359E-18	2.976962E-18
5.260000E+03	9.687233E-18	2.993129E-18
5.270000E+03	9.773720E-18	3.009094E-18
5.280000E+03	9.860693E-18	3.024805E-18
5.290000E+03	9.948207E-18	3.040268E-18
5.300000E+03	1.003613E-17	3.055431E-18
5.310000E+03	1.012441E-17	3.070268E-18
5.320000E+03	1.021311E-17	3.084785E-18
5.330000E+03	1.030208E-17	3.098925E-18
5.340000E+03	1.039128E-17	3.112663E-18
5.350000E+03	1.048065E-17	3.125970E-18
5.360000E+03	1.057013E-17	3.138819E-18
5.370000E+03	1.065968E-17	3.151182E-18
5.380000E+03	1.074923E-17	3.163030E-18
5.390000E+03	1.083872E-17	3.174333E-18
5.400000E+03	1.092799E-17	3.185031E-18
5.410000E+03	1.101697E-17	3.195092E-18
5.420000E+03	1.110569E-17	3.204517E-18
5.430000E+03	1.119399E-17	3.213245E-18
5.440000E+03	1.128179E-17	3.221244E-18
5.450000E+03	1.136889E-17	3.228451E-18
5.460000E+03	1.145535E-17	3.234867E-18
5.470000E+03	1.154085E-17	3.240395E-18
5.480000E+03	1.162554E-17	3.245071E-18
5.490000E+03	1.170898E-17	3.248765E-18
5.500000E+03	1.179122E-17	3.251481E-18
5.510000E+03	1.187217E-17	3.253189E-18
5.520000E+03	1.195161E-17	3.253827E-18
5.530000E+03	1.202946E-17	3.253368E-18
5.540000E+03	1.210551E-17	3.251752E-18
5.550000E+03	1.217968E-17	3.248954E-18
5.560000E+03	1.225186E-17	3.244950E-18
5.570000E+03	1.232197E-17	3.239717E-18
5.580000E+03	1.238980E-17	3.233203E-18
5.590000E+03	1.245526E-17	3.225388E-18
5.600000E+03	1.251826E-17	3.216256E-18
5.610000E+03	1.257872E-17	3.205793E-18
5.620000E+03	1.263643E-17	3.193955E-18
5.630000E+03	1.269132E-17	3.180731E-18
5.640000E+03	1.274343E-17	3.166150E-18
5.650000E+03	1.279256E-17	3.150173E-18
5.660000E+03	1.283851E-17	3.132769E-18
5.670000E+03	1.288148E-17	3.114004E-18
5.680000E+03	1.292142E-17	3.093885E-18
5.690000E+03	1.295800E-17	3.072355E-18
5.700000E+03	1.299131E-17	3.049458E-18
5.710000E+03	1.302144E-17	3.025243E-18
5.720000E+03	1.304822E-17	2.999695E-18
5.730000E+03	1.307161E-17	2.972838E-18
5.740000E+03	1.309172E-17	2.944727E-18
5.750000E+03	1.310841E-17	2.915362E-18
5.760000E+03	1.312192E-17	2.884836E-18
5.770000E+03	1.313198E-17	2.853123E-18
5.780000E+03	1.313872E-17	2.820293E-18
5.790000E+03	1.314216E-17	2.786389E-18
5.800000E+03	1.314243E-17	2.751486E-18
5.810000E+03	1.313942E-17	2.715603E-18
5.820000E+03	1.313330E-17	2.678822E-18
5.830000E+03	1.312409E-17	2.641196E-18
5.840000E+03	1.311168E-17	2.602756E-18
5.850000E+03	1.309640E-17	2.563619E-18
5.860000E+03	1.307815E-17	2.523820E-18
5.870000E+03	1.305714E-17	2.483454E-18
5.880000E+03	1.303326E-17	2.442561E-18
5.890000E+03	1.300672E-17	2.401241E-18
5.900000E+03	1.297759E-17	2.359565E-18
5.910000E+03	1.294593E-17	2.317611E-18
5.920000E+03	1.291196E-17	2.275482E-18
5.930000E+03	1.287547E-17	2.233206E-18
5.940000E+03	1.283681E-17	2.190916E-18
5.950000E+03	1.279608E-17	2.148696E-18
5.960000E+03	1.275335E-17	2.106628E-18
5.970000E+03	1.270856E-17	2.064774E-18
5.980000E+03	1.266194E-17	2.023245E-18
5.990000E+03	1.261373E-17	1.982151E-18
6.000000E+03	1.256370E-17	1.941530E-18
6.010000E+03	1.251226E-17	1.901512E-18
6.020000E+03	1.245932E-17	1.862155E-18
6.030000E+03	1.240514E-17	1.823560E-18
6.040000E+03	1.234948E-17	1.785752E-18
6.050000E+03	1.229273E-17	1.748840E-18
6.060000E+03	1.223497E-17	1.712878E-18
6.070000E+03	1.217612E-17	1.677893E-18
6.080000E+03	1.211626E-17	1.643922E-18
6.090000E+03	1.205561E-17	1.611016E-18
6.100000E+03	1.199407E-17	1.579174E-18
6.110000E+03	1.193188E-17	1.548430E-18
6.120000E+03	1.186893E-17	1.518769E-18
6.130000E+03	1.180544E-17	1.490209E-18
6.140000E+03	1.174159E-17	1.462761E-18
6.150000E+03	1.167730E-17	1.436391E-18
6.160000E+03	1.161274E-17	1.411098E-18
6.170000E+03	1.154826E-17	1.386896E-18
6.180000E+03	1.148388E-17	1.363754E-18
6.190000E+03	1.141979E-17	1.341659E-18
6.200000E+03	1.135585E-17	1.320558E-18
6.210000E+03	1.129209E-17	1.300417E-18
6.220000E+03	1.122838E-17	1.281180E-18
6.230000E+03	1.116474E-17	1.262810E-18
6.240000E+03	1.110134E-17	1.245286E-18
6.250000E+03	1.103805E-17	1.228553E-18
6.260000E+03	1.097490E-17	1.212571E-18
6.270000E+03	1.091204E-17	1.197318E-18
6.280000E+03	1.084967E-17	1.182774E-18
6.290000E+03	1.078779E-17	1.168900E-18
6.300000E+03	1.072644E-17	1.155657E-18
6.310000E+03	1.066609E-17	1.143059E-18
6.320000E+03	1.060645E-17	1.131036E-18
6.330000E+03	1.054817E-17	1.119619E-18
6.340000E+03	1.049110E-17	1.108756E-18
6.350000E+03	1.043543E-17	1.098431E-18
6.360000E+03	1.038163E-17	1.088660E-18
6.370000E+03	1.032972E-17	1.079414E-18
6.380000E+03	1.027989E-17	1.070680E-18
6.390000E+03	1.023230E-17	1.062446E-18
6.400000E+03	1.018729E-17	1.054721E-18
6.410000E+03	1.014473E-17	1.047464E-18
6.420000E+03	1.010433E-17	1.040626E-18
6.430000E+03	1.006597E-17	1.034171E-18
6.440000E+03	1.002953E-17	1.028067E-18
6.450000E+03	9.994878E-18	1.022284E-18
6.460000E+03	9.961736E-18	1.016778E-18
6.470000E+03	9.929982E-18	1.011522E-18
6.480000E+03	9.899495E-18	1.006490E-18
6.490000E+03	9.870306E-18	1.001672E-18
6.500000E+03	9.842296E-18	9.970432E-19
6.510000E+03	9.815344E-18	9.925802E-19
6.520000E+03	9.789637E-18	9.882899E-19
6.530000E+03	9.764900E-18	9.841328E-19
6.540000E+03	9.741319E-18	9.801162E-19
6.550000E+03	9.718771E-18	9.762165E-19
6.560000E+03	9.697439E-18	9.724413E-19
6.570000E+03	9.677195E-18	9.687671E-19
6.580000E+03	9.658063E-18	9.651865E-19
6.590000E+03	9.640064E-18	9.616923E-19
6.600000E+03	9.623373E-18	9.582934E-19
6.610000E+03	9.607690E-18	9.549524E-19
6.620000E+03	9.593341E-18	9.516952E-19
6.630000E+03	9.580175E-18	9.485017E-19
6.640000E+03	9.568199E-18	9.453683E-19
6.650000E+03	9.557571E-18	9.423081E-19
6.660000E+03	9.547976E-18	9.392883E-19
6.670000E+03	9.539729E-18	9.363399E-19
6.680000E+03	9.532669E-18	9.334478E-19
6.690000E+03	9.526793E-18	9.306137E-19
6.700000E+03	9.522261E-18	9.278562E-19
6.710000E+03	9.518910E-18	9.251631E-19
6.720000E+03	9.516736E-18	9.225387E-19
6.730000E+03	9.515737E-18	9.199876E-19
6.740000E+03	9.516076E-18	9.175303E-19
6.750000E+03	9.517585E-18	9.151552E-19
6.760000E+03	9.520260E-18	9.128657E-19
6.770000E+03	9.524260E-18	9.106800E-19
6.780000E+03	9.529410E-18	9.085833E-19
6.790000E+03	9.535701E-18	9.065748E-19
6.800000E+03	9.543287E-18	9.046687E-19
6.810000E+03	9.551813E-18	9.028294E-19
6.820000E+03	9.561602E-18	9.010844E-19
6.830000E+03	9.572632E-18	8.994285E-19
6.840000E+03	9.584535E-18	8.978233E-19
6.850000E+03	9.597627E-18	8.962949E-19
6.860000E+03	9.611703E-18	8.948206E-19
6.870000E+03	9.626729E-18	8.933943E-19
6.880000E+03	9.642668E-18	8.920097E-19
6.890000E+03	9.659480E-18	8.906611E-19
6.900000E+03	9.677305E-18	8.893596E-19
6.910000E+03	9.695746E-18	8.880674E-19
6.920000E+03	9.715120E-18	8.868135E-19
6.930000E+03	9.735027E-18	8.855609E-19
6.940000E+03	9.755790E-18	8.843402E-19
6.950000E+03	9.777005E-18	8.831158E-19
6.960000E+03	9.799004E-18	8.819199E-19
6.970000E+03	9.821380E-18	8.807187E-19
6.980000E+03	9.844288E-18	8.795294E-19
6.990000E+03	9.867697E-18	8.783534E-19
7.000000E+03	9.891389E-18	8.771758E-19
7.010000E+03	9.915724E-18	8.760336E-19
7.020000E+03	9.940299E-18	8.748962E-19
7.030000E+03	9.965095E-18	8.737678E-19
7.040000E+03	9.990295E-18	8.726703E-19
7.050000E+03	1.001589E-17	8.716092E-19
7.060000E+03	1.004169E-17	8.705730E-19
7.070000E+03	1.006767E-17	8.695677E-19
7.080000E+03	1.009404E-17	8.686169E-19
7.090000E+03	1.012062E-17	8.677092E-19
7.100000E+03	1.014738E-17	8.668502E-19
7.110000E+03	1.017435E-17	8.660449E-19
7.120000E+03	1.020174E-17	8.653150E-19
7.130000E+03	1.022913E-17	8.646283E-19
7.140000E+03	1.025696E-17	8.640220E-19
7.150000E+03	1.028480E-17	8.634612E-19
7.160000E+03	1.031288E-17	8.629629E-19
7.170000E+03	1.034120E-17	8.625247E-19
7.180000E+03	1.036977E-17	8.621432E-19
7.190000E+03	1.039838E-17	8.617952E-19
7.200000E+03	1.042724E-17	8.614930E-19
7.210000E+03	1.045635E-17	8.612300E-19
7.220000E+03	1.048551E-17	8.609816E-19
7.230000E+03	1.051469E-17	8.607411E-19
7.240000E+03	1.054412E-17	8.605213E-19
7.250000E+03	1.057358E-17	8.602992E-19
7.260000E+03	1.060306E-17	8.600716E-19
7.270000E+03	1.063278E-17	8.598559E-19
7.280000E+03	1.066251E-17	8.596345E-19
7.290000E+03	1.069226E-17	8.594107E-19
7.300000E+03	1.072248E-17	8.592283E-19
7.310000E+03	1.075248E-17	8.590388E-19
7.320000E+03	1.078296E-17	8.589097E-19
7.330000E+03	1.081344E-17	8.588153E-19
7.340000E+03	1.084441E-17	8.588083E-19
7.350000E+03	1.087563E-17	8.588841E-19
7.360000E+03	1.090733E-17	8.590775E-19
7.370000E+03	1.093977E-17	8.594228E-19
7.380000E+03	1.097269E-17	8.599141E-19
7.390000E+03	1.100684E-17	8.606223E-19
7.400000E+03	1.104199E-17	8.615373E-19
7.410000E+03	1.107811E-17	8.626653E-19
7.420000E+03	1.111626E-17	8.640898E-19
7.430000E+03	1.115566E-17	8.657495E-19
7.440000E+03	1.119710E-17	8.677002E-19
7.450000E+03	1.124059E-17	8.699327E-19
7.460000E+03	1.128561E-17	8.723918E-19
7.470000E+03	1.133188E-17	8.750380E-19
7.480000E+03	1.137939E-17	8.778492E-19
7.490000E+03	1.142784E-17	8.807795E-19
7.500000E+03	1.147722E-17	8.838022E-19
7.510000E+03	1.152719E-17	8.868680E-19
7.520000E+03	1.157745E-17	8.899270E-19
7.530000E+03	1.162794E-17	8.929506E-19
7.540000E+03	1.167860E-17	8.959106E-19
7.550000E+03	1.172908E-17	8.987571E-19
7.560000E+03	1.177961E-17	9.014846E-19
7.570000E+03	1.182953E-17	9.040207E-19
7.580000E+03	1.187935E-17	9.063837E-19
7.590000E+03	1.192872E-17	9.085256E-19
7.600000E+03	1.197725E-17	9.104007E-19
7.610000E+03	1.202518E-17	9.120133E-19
7.620000E+03	1.207213E-17	9.133264E-19
7.630000E+03	1.211832E-17	9.143558E-19
7.640000E+03	1.216371E-17	9.151006E-19
7.650000E+03	1.220791E-17	9.155429E-19
7.660000E+03	1.225116E-17	9.157183E-19
7.670000E+03	1.229310E-17	9.156204E-19
7.680000E+03	1.233399E-17	9.152949E-19
7.690000E+03	1.237376E-17	9.147667E-19
7.700000E+03	1.241203E-17	9.140390E-19
7.710000E+03	1.244909E-17	9.131636E-19
7.720000E+03	1.248487E-17	9.121691E-19
7.730000E+03	1.251932E-17	9.110835E-19
7.740000E+03	1.255238E-17	9.099339E-19
7.750000E+03	1.258400E-17	9.087458E-19
7.760000E+03	1.261411E-17	9.075424E-19
