#wls	flux	fluxerr
1.600000E+03	1.435479E-16	1.418912E-16
1.640000E+03	1.496270E-16	1.455214E-16
1.680000E+03	1.556691E-16	1.488629E-16
1.720000E+03	1.616190E-16	1.518581E-16
1.760000E+03	1.674305E-16	1.544620E-16
1.800000E+03	1.730338E-16	1.566114E-16
1.840000E+03	1.783687E-16	1.582571E-16
1.880000E+03	1.833680E-16	1.593490E-16
1.920000E+03	1.879424E-16	1.598238E-16
1.960000E+03	1.920142E-16	1.596358E-16
2.000000E+03	1.955021E-16	1.587435E-16
2.040000E+03	1.983231E-16	1.571120E-16
2.080000E+03	2.003797E-16	1.547034E-16
2.120000E+03	2.015937E-16	1.515043E-16
2.160000E+03	2.018657E-16	1.474944E-16
2.200000E+03	2.011105E-16	1.426740E-16
2.240000E+03	1.992117E-16	1.370316E-16
2.280000E+03	1.960864E-16	1.305908E-16
2.320000E+03	1.918109E-16	1.234875E-16
2.360000E+03	1.865103E-16	1.158834E-16
2.400000E+03	1.802855E-16	1.079167E-16
2.440000E+03	1.732207E-16	9.970846E-17
2.480000E+03	1.653994E-16	9.137254E-17
2.520000E+03	1.569225E-16	8.302526E-17
2.560000E+03	1.478850E-16	7.477094E-17
2.600000E+03	1.384060E-16	6.671630E-17
2.640000E+03	1.285992E-16	5.895398E-17
2.680000E+03	1.185778E-16	5.156470E-17
2.720000E+03	1.084729E-16	4.462430E-17
2.760000E+03	9.840633E-17	3.819103E-17
2.800000E+03	8.849972E-17	3.230957E-17
2.840000E+03	7.886872E-17	2.700893E-17
2.880000E+03	6.962471E-17	2.230378E-17
2.920000E+03	6.087844E-17	1.819625E-17
2.960000E+03	5.273281E-17	1.467444E-17
2.994228E+03	7.016083E-16	1.130184E-15
2.998829E+03	7.014829E-16	1.130184E-15
2.999028E+03	7.012949E-16	1.130184E-15
2.999428E+03	7.010441E-16	1.130184E-15
3.002429E+03	7.007933E-16	1.130184E-15
3.006830E+03	7.004798E-16	1.130184E-15
3.007030E+03	7.001037E-16	1.130184E-15
3.007230E+03	6.996648E-16	1.130184E-15
3.009430E+03	6.992260E-16	1.130184E-15
3.009830E+03	6.986617E-16	1.130184E-15
3.010229E+03	6.980975E-16	1.130184E-15
3.011229E+03	6.974078E-16	1.130184E-15
3.012029E+03	6.967182E-16	1.130184E-15
3.012230E+03	6.959659E-16	1.130184E-15
3.012630E+03	6.950881E-16	1.130184E-15
3.012830E+03	6.942731E-16	1.130184E-15
3.015030E+03	6.933327E-16	1.130184E-15
3.015630E+03	6.923923E-16	1.130184E-15
3.016030E+03	6.913265E-16	1.130184E-15
3.016230E+03	6.902607E-16	1.130184E-15
3.017230E+03	6.891322E-16	1.130184E-15
3.017831E+03	6.879410E-16	1.130184E-15
3.018431E+03	6.866872E-16	1.130184E-15
3.019031E+03	6.854333E-16	1.130184E-15
3.019231E+03	6.841167E-16	1.130184E-15
3.020031E+03	6.827374E-16	1.130184E-15
3.020231E+03	6.813582E-16	1.130184E-15
3.020631E+03	6.798535E-16	1.130184E-15
3.022231E+03	6.782862E-16	1.130184E-15
3.024231E+03	6.767188E-16	1.130184E-15
3.024431E+03	6.750888E-16	1.130184E-15
3.024631E+03	6.733960E-16	1.130184E-15
3.025231E+03	6.717033E-16	1.130184E-15
3.025431E+03	6.698852E-16	1.130184E-15
3.025631E+03	6.680044E-16	1.130184E-15
3.025831E+03	6.661862E-16	1.130184E-15
3.026231E+03	6.642427E-16	1.130184E-15
3.026431E+03	6.622365E-16	1.130184E-15
3.027031E+03	6.602303E-16	1.130184E-15
3.027831E+03	6.581614E-16	1.130184E-15
3.028031E+03	6.560298E-16	1.130184E-15
3.028632E+03	6.538355E-16	1.130184E-15
3.028832E+03	6.515785E-16	1.130184E-15
3.029032E+03	6.492589E-16	1.130184E-15
3.029432E+03	6.470019E-16	1.130184E-15
3.029632E+03	6.446195E-16	1.130184E-15
3.031032E+03	6.421744E-16	1.130184E-15
3.031632E+03	6.397294E-16	1.130184E-15
3.031832E+03	6.372216E-16	1.130184E-15
3.033832E+03	6.346512E-16	1.130184E-15
3.034233E+03	6.320180E-16	1.130184E-15
3.034832E+03	6.293849E-16	1.130184E-15
3.035032E+03	6.267392E-16	1.130184E-15
3.035432E+03	6.239869E-16	1.130184E-15
3.035632E+03	6.211845E-16	1.130184E-15
3.035832E+03	6.183382E-16	1.130184E-15
3.036032E+03	6.154981E-16	1.130184E-15
3.036232E+03	6.125954E-16	1.130184E-15
3.036832E+03	6.096739E-16	1.130184E-15
3.037632E+03	6.066771E-16	1.130184E-15
3.038032E+03	6.036490E-16	1.130184E-15
3.039032E+03	6.005394E-16	1.130184E-15
3.039833E+03	5.973921E-16	1.130184E-15
3.040433E+03	5.942261E-16	1.130184E-15
3.041033E+03	5.910350E-16	1.130184E-15
3.041233E+03	5.877999E-16	1.130184E-15
3.041433E+03	5.844960E-16	1.130184E-15
3.041833E+03	5.811732E-16	1.130184E-15
3.042433E+03	5.777877E-16	1.130184E-15
3.043633E+03	5.743646E-16	1.130184E-15
3.043833E+03	5.709102E-16	1.130184E-15
3.044633E+03	5.674119E-16	1.130184E-15
3.044834E+03	5.638759E-16	1.130184E-15
3.045034E+03	5.602961E-16	1.130184E-15
3.045634E+03	5.566724E-16	1.130184E-15
3.046034E+03	5.530111E-16	1.129808E-15
3.047233E+03	5.493058E-16	1.128115E-15
3.048233E+03	5.455630E-16	1.126924E-15
3.049033E+03	5.417763E-16	1.125670E-15
3.049433E+03	5.379582E-16	1.125921E-15
3.049633E+03	5.341025E-16	1.125482E-15
3.050033E+03	5.302093E-16	1.120843E-15
3.050434E+03	5.262783E-16	1.120404E-15
3.050634E+03	5.223224E-16	1.021849E-15
3.051234E+03	5.183287E-16	8.505692E-16
3.051634E+03	5.143038E-16	8.506946E-16
3.052034E+03	5.102475E-16	8.414786E-16
3.052634E+03	5.061598E-16	8.402874E-16
3.052834E+03	5.020408E-16	8.397232E-16
3.053234E+03	4.978780E-16	8.085016E-16
3.053434E+03	4.937276E-16	8.075611E-16
3.054834E+03	4.895271E-16	8.068088E-16
3.055635E+03	4.853078E-16	8.060565E-16
3.056435E+03	4.810196E-16	8.053042E-16
3.057835E+03	4.767188E-16	8.046145E-16
3.059834E+03	4.723803E-16	8.039876E-16
3.060034E+03	4.680168E-16	8.033607E-16
3.064035E+03	4.636847E-16	8.027964E-16
3.065635E+03	4.592961E-16	8.022949E-16
3.066035E+03	4.548762E-16	8.017306E-16
3.066235E+03	4.504249E-16	8.012918E-16
3.066436E+03	4.459862E-16	8.007902E-16
3.067236E+03	4.414597E-16	6.906996E-16
3.067836E+03	4.369206E-16	6.175733E-16
3.068436E+03	4.323690E-16	5.883078E-16
3.068636E+03	4.277736E-16	5.610735E-16
3.069436E+03	4.231593E-16	5.359896E-16
3.071035E+03	4.185450E-16	5.199776E-16
3.071235E+03	4.138806E-16	5.062664E-16
3.071436E+03	4.092161E-16	4.948436E-16
3.073236E+03	4.045329E-16	4.855335E-16
3.073636E+03	3.998810E-16	4.802860E-16
3.074836E+03	3.951852E-16	4.765808E-16
3.075836E+03	3.904581E-16	4.760730E-16
3.077036E+03	3.857435E-16	4.757658E-16
3.080037E+03	3.810101E-16	4.593149E-16
3.080837E+03	3.761890E-16	4.544185E-16
3.081437E+03	3.713552E-16	4.122505E-16
3.082237E+03	3.665341E-16	4.116737E-16
3.082838E+03	3.616816E-16	3.534561E-16
3.085037E+03	3.568165E-16	3.127552E-16
3.085237E+03	3.519765E-16	1.829097E-16
3.086237E+03	3.470989E-16	1.836181E-16
3.086437E+03	3.422088E-16	1.814677E-16
3.087237E+03	3.372936E-16	1.719884E-16
3.087837E+03	3.324035E-16	1.727783E-16
3.088038E+03	3.274883E-16	1.736561E-16
3.090838E+03	3.225417E-16	1.737814E-16
3.091638E+03	3.175952E-16	1.726906E-16
3.092038E+03	3.126298E-16	1.732360E-16
3.093639E+03	3.076707E-16	1.735495E-16
3.095039E+03	3.026803E-16	1.743833E-16
3.095238E+03	2.976961E-16	1.747093E-16
3.095838E+03	2.927370E-16	1.736811E-16
3.097838E+03	2.877403E-16	1.729539E-16
3.098438E+03	2.827310E-16	1.723583E-16
3.100039E+03	2.777845E-16	1.621016E-16
3.101039E+03	2.727752E-16	1.618570E-16
3.102639E+03	2.677597E-16	1.606345E-16
3.104640E+03	2.627505E-16	1.619323E-16
3.105640E+03	2.577412E-16	1.634557E-16
3.107439E+03	2.527508E-16	1.645905E-16
3.107640E+03	2.477729E-16	1.627975E-16
3.109039E+03	2.427762E-16	1.620389E-16
3.111240E+03	2.377606E-16	1.612803E-16
3.111440E+03	2.327577E-16	1.613806E-16
3.112840E+03	2.277798E-16	1.598320E-16
3.113440E+03	2.228207E-16	1.609543E-16
3.114840E+03	2.178365E-16	1.602897E-16
3.116241E+03	2.128962E-16	1.591863E-16
3.117241E+03	2.079434E-16	1.602145E-16
3.118441E+03	2.029718E-16	1.616188E-16
3.119240E+03	1.980315E-16	1.616502E-16
3.121041E+03	1.930912E-16	1.612991E-16
3.121241E+03	1.881760E-16	1.623398E-16
3.121441E+03	1.832357E-16	1.637379E-16
3.121841E+03	1.783393E-16	1.630357E-16
3.122441E+03	1.734366E-16	1.630043E-16
3.123241E+03	1.685465E-16	1.639510E-16
3.123441E+03	1.636564E-16	1.623649E-16
3.123641E+03	1.587788E-16	1.613492E-16
3.125842E+03	1.539200E-16	1.603461E-16
3.126642E+03	1.490800E-16	1.598885E-16
3.127842E+03	1.442588E-16	1.597004E-16
3.131443E+03	1.394502E-16	1.596565E-16
3.132043E+03	1.346667E-16	1.597443E-16
3.132242E+03	1.299019E-16	1.604025E-16
3.133242E+03	1.251497E-16	1.615561E-16
3.133642E+03	1.204289E-16	1.625091E-16
3.134242E+03	1.157268E-16	1.635059E-16
3.135842E+03	1.110436E-16	1.640513E-16
3.136042E+03	1.063917E-16	1.637379E-16
3.136242E+03	1.017586E-16	1.632677E-16
3.136443E+03	9.715059E-17	1.640952E-16
3.136643E+03	9.256766E-17	1.633241E-16
3.137043E+03	8.801608E-17	1.645027E-16
3.137843E+03	8.348957E-17	1.653178E-16
3.138243E+03	7.898814E-17	1.654055E-16
3.138443E+03	7.451806E-17	1.639071E-16
3.139043E+03	7.007306E-17	1.637065E-16
3.139443E+03	6.566567E-17	1.626721E-16
3.141443E+03	6.128587E-17	1.629918E-16
3.141844E+03	5.693867E-17	1.621580E-16
3.142044E+03	5.261843E-17	1.613241E-16
3.142244E+03	4.834019E-17	1.595060E-16
3.142444E+03	4.407199E-17	1.582835E-16
3.143044E+03	3.983826E-17	1.579826E-16
3.143443E+03	3.565219E-17	1.569606E-16
3.144044E+03	3.150372E-17	1.567600E-16
3.144243E+03	2.739351E-17	1.551613E-16
3.145243E+03	2.332279E-17	1.539388E-16
3.145843E+03	1.929219E-17	1.531551E-16
3.146243E+03	1.530235E-17	1.519827E-16
3.146443E+03	1.135388E-17	1.503464E-16
3.147444E+03	7.448672E-18	1.483528E-16
3.148844E+03	3.586534E-18	1.470048E-16
3.149444E+03	-2.310336E-19	1.459955E-16
3.149844E+03	-4.003512E-18	1.438513E-16
3.150444E+03	-7.730168E-18	1.419642E-16
3.151244E+03	-1.137143E-17	1.412433E-16
3.151844E+03	-1.499201E-17	1.394063E-16
3.152044E+03	-1.855491E-17	1.373688E-16
3.152645E+03	-2.204132E-17	1.359080E-16
3.152845E+03	-2.550642E-17	1.342592E-16
3.153045E+03	-2.892512E-17	1.321903E-16
3.153645E+03	-3.229179E-17	1.303596E-16
3.153845E+03	-3.557633E-17	1.281465E-16
3.154045E+03	-3.883453E-17	1.259961E-16
3.154445E+03	-4.206703E-17	1.247234E-16
3.154645E+03	-4.523057E-17	1.227924E-16
3.155445E+03	-4.832640E-17	1.213442E-16
3.157244E+03	-5.136330E-17	1.197768E-16
3.157444E+03	-5.436634E-17	1.179274E-16
3.157644E+03	-5.727910E-17	1.158271E-16
3.158245E+03	-6.010284E-17	1.135827E-16
3.158445E+03	-6.291968E-17	1.115263E-16
3.158645E+03	-6.564687E-17	1.096643E-16
3.159245E+03	-6.831763E-17	1.081220E-16
3.160445E+03	-7.091943E-17	1.064418E-16
3.160645E+03	-7.348361E-17	1.048870E-16
3.162445E+03	-7.598510E-17	1.029059E-16
3.163045E+03	-7.839255E-17	1.008872E-16
3.163246E+03	-8.075611E-17	9.911291E-17
3.163446E+03	-8.300683E-17	9.730733E-17
3.163646E+03	-8.522620E-17	9.553936E-17
3.164046E+03	-8.735779E-17	9.350180E-17
3.164246E+03	-8.942669E-17	9.168994E-17
3.164646E+03	-9.143290E-17	8.994705E-17
3.165246E+03	-9.337014E-17	8.831701E-17
3.165446E+03	-9.523215E-17	8.696909E-17
3.165646E+03	-9.696251E-17	8.525127E-17
3.166846E+03	-9.866152E-17	8.358988E-17
3.167046E+03	-1.002728E-16	8.206015E-17
3.168646E+03	-1.017649E-16	8.051788E-17
3.168846E+03	-1.032319E-16	7.911980E-17
3.170846E+03	-1.046300E-16	7.751484E-17
3.171446E+03	-1.059340E-16	7.611049E-17
3.171646E+03	-1.071377E-16	7.460584E-17
3.172246E+03	-1.082725E-16	7.364035E-17
3.172446E+03	-1.093383E-16	7.233631E-17
3.172846E+03	-1.102850E-16	7.093824E-17
3.173246E+03	-1.111564E-16	7.038653E-17
3.173446E+03	-1.119276E-16	6.940850E-17
3.174447E+03	-1.126611E-16	6.843675E-17
3.174647E+03	-1.132692E-16	6.816089E-17
3.175247E+03	-1.137896E-16	6.774711E-17
3.175447E+03	-1.142347E-16	6.703240E-17
3.175647E+03	-1.145795E-16	6.654339E-17
3.175847E+03	-1.148366E-16	6.647443E-17
3.177447E+03	-1.150246E-16	6.648070E-17
3.177647E+03	-1.151187E-16	6.631142E-17
3.178447E+03	-1.151061E-16	6.624246E-17
3.179047E+03	-1.149870E-16	6.648070E-17
3.179648E+03	-1.147488E-16	6.661235E-17
3.179847E+03	-1.144353E-16	6.656847E-17
3.180048E+03	-1.140153E-16	6.670639E-17
3.180647E+03	-1.135137E-16	6.656220E-17
3.182847E+03	-1.129119E-16	6.661862E-17
3.184247E+03	-1.122034E-16	6.702613E-17
3.184447E+03	-1.113884E-16	6.715779E-17
3.184648E+03	-1.104731E-16	6.731453E-17
3.185848E+03	-1.094511E-16	6.743991E-17
3.186048E+03	-1.083164E-16	6.755903E-17
3.187248E+03	-1.070813E-16	6.779100E-17
3.187448E+03	-1.057334E-16	6.801043E-17
3.188848E+03	-1.042789E-16	6.837405E-17
3.189048E+03	-1.027115E-16	6.864991E-17
3.190449E+03	-1.010251E-16	6.898845E-17
3.190849E+03	-9.923203E-17	6.933954E-17
3.191448E+03	-9.732613E-17	6.949628E-17
3.192048E+03	-9.529485E-17	6.984109E-17
3.193248E+03	-9.316325E-17	7.004171E-17
3.193448E+03	-9.091254E-17	7.013575E-17
3.193648E+03	-8.853017E-17	7.026741E-17
3.194848E+03	-8.605376E-17	7.043669E-17
3.195649E+03	-8.344569E-17	7.061850E-17
3.195849E+03	-8.070596E-17	7.080658E-17
3.196049E+03	-7.786592E-17	7.087554E-17
3.196249E+03	-7.490677E-17	7.108243E-17
3.196449E+03	-7.182849E-17	7.130813E-17
3.196649E+03	-6.859348E-17	7.151502E-17
3.196849E+03	-6.526443E-17	7.163414E-17
3.197249E+03	-6.180247E-17	7.171564E-17
3.200049E+03	-5.821888E-17	7.171564E-17
3.200249E+03	-5.448044E-17	7.183476E-17
3.200449E+03	-5.062476E-17	7.196015E-17
3.200650E+03	-4.665184E-17	7.214823E-17
3.200850E+03	-4.253034E-17	7.226108E-17
3.201250E+03	-3.828032E-17	7.234258E-17
3.203050E+03	-3.391243E-17	7.231124E-17
3.203250E+03	-2.940912E-17	7.226735E-17
3.203450E+03	-2.476600E-17	7.229870E-17
3.204050E+03	-1.998496E-17	7.228616E-17
3.204649E+03	-1.506411E-17	7.232377E-17
3.205449E+03	-1.000282E-17	7.234885E-17
3.205649E+03	-4.801230E-18	7.230497E-17
3.206050E+03	5.411055E-19	7.223600E-17
3.206250E+03	6.026145E-18	7.214823E-17
3.206850E+03	1.165857E-17	7.202911E-17
3.207450E+03	1.743394E-17	7.189119E-17
3.207650E+03	2.335539E-17	7.173445E-17
3.208250E+03	3.048808E-17	7.154637E-17
3.209250E+03	3.743896E-17	7.131440E-17
3.209450E+03	4.459611E-17	7.103855E-17
3.209650E+03	4.907810E-17	7.073135E-17
3.209850E+03	5.258458E-17	7.049938E-17
3.210050E+03	5.360147E-17	7.022353E-17
3.210250E+03	5.708788E-17	7.002918E-17
3.210850E+03	4.424440E-17	6.979094E-17
3.211050E+03	2.668005E-17	6.932073E-17
3.211250E+03	3.025173E-17	6.908250E-17
3.211651E+03	2.900725E-17	6.874395E-17
3.211851E+03	3.071692E-17	6.823613E-17
3.212051E+03	3.290619E-17	6.780981E-17
3.212451E+03	2.758849E-17	6.735214E-17
3.213251E+03	3.236702E-17	6.692582E-17
3.213451E+03	3.711233E-17	6.617976E-17
3.213851E+03	4.192660E-17	6.575345E-17
3.214051E+03	4.682551E-17	6.524562E-17
3.214251E+03	5.181657E-17	6.446195E-17
3.214451E+03	5.684965E-17	6.388517E-17
3.215051E+03	6.194541E-17	6.318926E-17
3.215851E+03	6.710764E-17	6.248207E-17
3.216050E+03	7.233004E-17	6.189589E-17
3.216851E+03	7.764649E-17	6.079937E-17
3.218051E+03	8.300683E-17	6.019562E-17
3.219651E+03	8.839851E-17	5.940066E-17
3.220451E+03	7.706344E-17	5.859254E-17
3.221251E+03	6.885680E-17	5.784147E-17
3.221451E+03	6.498231E-17	5.679698E-17
3.222252E+03	6.127333E-17	5.571551E-17
3.222652E+03	5.771357E-17	5.449737E-17
3.222852E+03	5.532681E-17	5.332311E-17
3.223052E+03	5.318957E-17	5.257768E-17
3.223252E+03	5.133070E-17	5.132004E-17
3.223452E+03	4.978529E-17	5.013700E-17
3.223852E+03	4.902544E-17	4.902230E-17
3.224052E+03	4.865366E-17	4.810948E-17
3.225452E+03	4.958655E-17	4.693773E-17
3.225852E+03	5.066489E-17	4.569388E-17
3.226052E+03	4.764053E-17	4.471523E-17
3.226452E+03	4.661485E-17	4.371651E-17
3.226652E+03	4.067397E-17	4.286074E-17
3.226852E+03	4.287140E-17	4.201437E-17
3.227052E+03	3.590610E-17	4.049530E-17
3.227653E+03	3.039968E-17	3.909785E-17
3.228452E+03	2.119119E-17	3.824207E-17
3.228852E+03	2.117364E-17	3.717440E-17
3.229652E+03	2.265635E-17	3.619762E-17
3.230252E+03	2.056801E-17	3.507164E-17
3.232252E+03	2.091597E-17	3.383281E-17
3.234253E+03	2.097991E-17	3.265228E-17
3.236053E+03	2.173224E-17	3.175764E-17
3.236253E+03	2.289020E-17	3.080970E-17
3.236653E+03	2.253347E-17	2.998089E-17
3.236853E+03	2.194665E-17	2.889252E-17
3.238254E+03	2.224194E-17	2.815022E-17
3.238454E+03	2.288456E-17	2.730448E-17
3.238654E+03	2.402433E-17	2.614903E-17
3.238854E+03	2.300367E-17	2.505377E-17
3.239054E+03	2.199806E-17	2.414408E-17
3.239454E+03	1.950911E-17	2.357795E-17
3.239654E+03	1.846275E-17	2.278487E-17
3.239854E+03	1.706405E-17	2.237172E-17
3.240454E+03	1.683772E-17	2.193850E-17
3.240854E+03	1.640012E-17	2.121439E-17
3.241053E+03	1.553933E-17	2.088336E-17
3.242453E+03	1.382590E-17	2.056300E-17
3.242653E+03	1.433561E-17	2.043636E-17
3.243254E+03	1.481835E-17	2.016238E-17
3.243454E+03	1.505032E-17	2.006772E-17
3.243854E+03	1.572365E-17	2.009781E-17
3.244054E+03	1.483716E-17	2.013480E-17
3.244854E+03	1.527476E-17	2.014044E-17
3.245654E+03	1.583023E-17	2.024890E-17
3.246054E+03	1.571550E-17	2.033040E-17
3.246254E+03	1.504718E-17	2.031849E-17
3.246654E+03	1.526975E-17	2.038307E-17
3.247054E+03	1.559889E-17	2.038181E-17
3.247254E+03	1.544466E-17	2.042256E-17
3.247454E+03	1.467353E-17	2.033291E-17
3.247654E+03	1.502085E-17	2.039811E-17
3.249255E+03	1.517382E-17	2.030407E-17
3.249455E+03	1.417699E-17	2.031786E-17
3.250055E+03	1.465033E-17	2.033730E-17
3.250255E+03	1.504844E-17	2.034796E-17
3.250855E+03	1.536504E-17	2.036802E-17
3.251455E+03	1.559074E-17	2.036300E-17
3.251655E+03	1.577318E-17	2.032163E-17
3.252454E+03	1.586910E-17	2.033730E-17
3.253254E+03	1.591737E-17	2.031724E-17
3.254255E+03	1.567538E-17	2.025016E-17
3.254455E+03	1.524906E-17	2.013919E-17
3.254855E+03	1.463277E-17	1.997305E-17
3.255855E+03	1.369926E-17	1.986835E-17
3.256255E+03	1.231623E-17	1.967337E-17
3.256455E+03	1.226921E-17	1.933670E-17
3.257055E+03	1.227799E-17	1.899878E-17
3.257255E+03	1.171437E-17	1.837937E-17
3.257855E+03	1.174760E-17	1.792985E-17
3.258655E+03	1.098587E-17	1.719257E-17
3.258855E+03	9.919441E-18	1.609229E-17
3.259256E+03	9.602210E-18	1.539890E-17
3.260056E+03	9.723209E-18	1.471177E-17
3.260256E+03	9.478076E-18	1.404972E-17
3.260856E+03	9.509423E-18	1.371682E-17
3.261056E+03	9.086238E-18	1.321840E-17
3.261256E+03	9.033575E-18	1.261967E-17
3.262256E+03	8.990944E-18	1.212000E-17
3.262456E+03	9.095643E-18	1.195511E-17
3.262856E+03	9.111943E-18	1.146171E-17
3.263056E+03	8.839851E-18	1.101471E-17
3.264256E+03	8.762738E-18	1.081722E-17
3.264456E+03	8.395351E-18	1.023981E-17
3.265256E+03	8.463060E-18	9.773991E-18
3.266056E+03	8.400366E-18	9.141409E-18
3.266456E+03	8.194103E-18	8.500677E-18
3.266656E+03	8.068715E-18	8.006648E-18
3.266856E+03	8.037368E-18	7.811670E-18
3.267256E+03	8.088150E-18	7.344600E-18
3.267456E+03	8.052415E-18	7.165922E-18
3.267656E+03	7.898188E-18	7.140217E-18
3.268656E+03	7.960882E-18	7.106990E-18
3.269456E+03	8.018560E-18	6.967809E-18
3.271057E+03	7.711359E-18	6.883799E-18
3.271857E+03	7.737691E-18	6.765307E-18
3.272457E+03	7.767784E-18	6.757157E-18
3.273057E+03	7.668101E-18	6.735841E-18
3.273257E+03	7.627350E-18	6.549640E-18
3.273857E+03	7.653054E-18	6.388517E-18
3.274457E+03	7.610422E-18	6.395413E-18
3.275057E+03	7.659950E-18	6.461242E-18
3.275258E+03	7.676251E-18	6.473153E-18
3.275458E+03	7.500708E-18	6.420490E-18
3.275858E+03	7.475003E-18	6.402309E-18
3.276057E+03	7.341465E-18	6.222566E-18
3.276258E+03	7.233631E-18	6.135797E-18
3.276457E+03	7.179715E-18	6.139120E-18
3.276657E+03	7.208554E-18	6.150781E-18
3.277257E+03	7.222973E-18	6.263693E-18
3.277457E+03	7.200404E-18	6.254978E-18
3.277657E+03	7.157772E-18	6.275667E-18
3.277857E+03	7.046176E-18	6.274413E-18
3.278057E+03	6.984109E-18	6.282564E-18
3.278457E+03	6.865618E-18	6.286325E-18
3.281058E+03	6.866245E-18	6.297610E-18
3.281658E+03	6.873141E-18	6.305760E-18
3.282058E+03	6.848690E-18	6.311403E-18
3.282458E+03	6.800416E-18	6.364693E-18
3.282658E+03	6.791012E-18	6.337107E-18
3.283058E+03	6.817970E-18	6.311403E-18
3.284658E+03	6.816089E-18	6.278175E-18
3.285458E+03	6.825494E-18	6.233662E-18
3.286059E+03	6.803551E-18	6.187770E-18
3.286459E+03	6.736468E-18	6.133854E-18
3.287059E+03	6.782862E-18	6.223819E-18
3.287259E+03	6.833017E-18	6.159433E-18
3.288059E+03	6.857467E-18	6.098745E-18
3.289059E+03	6.887561E-18	6.212723E-18
3.290258E+03	6.900099E-18	6.154731E-18
3.291059E+03	6.947747E-18	6.096613E-18
3.292259E+03	6.948374E-18	6.030597E-18
3.292459E+03	6.977213E-18	5.984642E-18
3.293059E+03	6.933954E-18	5.855680E-18
3.293259E+03	6.966555E-18	5.857687E-18
3.293659E+03	7.017337E-18	5.869348E-18
3.294059E+03	6.926431E-18	5.870852E-18
3.294859E+03	6.964047E-18	5.785714E-18
3.295059E+03	7.002291E-18	5.722393E-18
3.295659E+03	6.911384E-18	5.641706E-18
3.296460E+03	6.849317E-18	5.576253E-18
3.297260E+03	6.881291E-18	5.540079E-18
3.297460E+03	6.906369E-18	5.538762E-18
3.297860E+03	6.839286E-18	5.532054E-18
