#wls	flux	fluxerr
1.600000E+03	5.288697E-17	3.492229E-17
1.640000E+03	5.316324E-17	3.450937E-17
1.680000E+03	5.339242E-17	3.405215E-17
1.720000E+03	5.356985E-17	3.354930E-17
1.760000E+03	5.369578E-17	3.300280E-17
1.800000E+03	5.376435E-17	3.241099E-17
1.840000E+03	5.377441E-17	3.177531E-17
1.880000E+03	5.372395E-17	3.109688E-17
1.920000E+03	5.360560E-17	3.037390E-17
1.960000E+03	5.341647E-17	2.960752E-17
2.000000E+03	5.315317E-17	2.879884E-17
2.040000E+03	5.281193E-17	2.794899E-17
2.080000E+03	5.238491E-17	2.705728E-17
2.120000E+03	5.186869E-17	2.612572E-17
2.160000E+03	5.125304E-17	2.515324E-17
2.200000E+03	5.052961E-17	2.414028E-17
2.240000E+03	4.967966E-17	2.308295E-17
2.280000E+03	4.868965E-17	2.198080E-17
2.320000E+03	4.758125E-17	2.084958E-17
2.360000E+03	4.638333E-17	1.970701E-17
2.400000E+03	4.511439E-17	1.856505E-17
2.440000E+03	4.378476E-17	1.743143E-17
2.480000E+03	4.240078E-17	1.631178E-17
2.520000E+03	4.096971E-17	1.521175E-17
2.560000E+03	3.949411E-17	1.413486E-17
2.600000E+03	3.798000E-17	1.308569E-17
2.640000E+03	3.642992E-17	1.206725E-17
2.680000E+03	3.484458E-17	1.108178E-17
2.720000E+03	3.322887E-17	1.013267E-17
2.760000E+03	3.158535E-17	9.222294E-18
2.800000E+03	2.991777E-17	8.353060E-18
2.840000E+03	2.823044E-17	7.527202E-18
2.880000E+03	2.653023E-17	6.747219E-18
2.920000E+03	2.483001E-17	6.016519E-18
2.960000E+03	2.314860E-17	5.339060E-18
3.000000E+03	2.150313E-17	4.717338E-18
3.010000E+03	2.109883E-17	4.570698E-18
3.020000E+03	2.069856E-17	4.427750E-18
3.030000E+03	2.030133E-17	4.288238E-18
3.040000E+03	1.990765E-17	4.152226E-18
3.050000E+03	1.951842E-17	4.019851E-18
3.060000E+03	1.913274E-17	3.890874E-18
3.070000E+03	1.875147E-17	3.765419E-18
3.080000E+03	1.837459E-17	3.643424E-18
3.090000E+03	1.800208E-17	3.524828E-18
3.100000E+03	1.763394E-17	3.409576E-18
3.110000E+03	1.727100E-17	3.297758E-18
3.120000E+03	1.691296E-17	3.189247E-18
3.130000E+03	1.656022E-17	3.084051E-18
3.140000E+03	1.621288E-17	2.982112E-18
3.150000E+03	1.587100E-17	2.883371E-18
3.160000E+03	1.553496E-17	2.787820E-18
3.170000E+03	1.520507E-17	2.695442E-18
3.180000E+03	1.488079E-17	2.606066E-18
3.190000E+03	1.456296E-17	2.519768E-18
3.200000E+03	1.425129E-17	2.436425E-18
3.210000E+03	1.394601E-17	2.356004E-18
3.220000E+03	1.364709E-17	2.278428E-18
3.230000E+03	1.335427E-17	2.203584E-18
3.240000E+03	1.306819E-17	2.131508E-18
3.250000E+03	1.278814E-17	2.062015E-18
3.260000E+03	1.251471E-17	1.995135E-18
3.270000E+03	1.224782E-17	1.930788E-18
3.280000E+03	1.198700E-17	1.868835E-18
3.290000E+03	1.173277E-17	1.809291E-18
3.300000E+03	1.148466E-17	1.752023E-18
3.310000E+03	1.124278E-17	1.696985E-18
3.320000E+03	1.100704E-17	1.644105E-18
3.330000E+03	1.077752E-17	1.593332E-18
3.340000E+03	1.055395E-17	1.544571E-18
3.350000E+03	1.033624E-17	1.497753E-18
3.360000E+03	1.012431E-17	1.452809E-18
3.370000E+03	9.918212E-18	1.409693E-18
3.380000E+03	9.717703E-18	1.368318E-18
3.390000E+03	9.522697E-18	1.328623E-18
3.400000E+03	9.333108E-18	1.290547E-18
3.410000E+03	9.148730E-18	1.254013E-18
3.420000E+03	8.969487E-18	1.218967E-18
3.430000E+03	8.795305E-18	1.185356E-18
3.440000E+03	8.626000E-18	1.153111E-18
3.450000E+03	8.461505E-18	1.122184E-18
3.460000E+03	8.301656E-18	1.092513E-18
3.470000E+03	8.146298E-18	1.064042E-18
3.480000E+03	7.995290E-18	1.036716E-18
3.490000E+03	7.848414E-18	1.010474E-18
3.500000E+03	7.705641E-18	9.852787E-19
3.510000E+03	7.566776E-18	9.610752E-19
3.520000E+03	7.431561E-18	9.378019E-19
3.530000E+03	7.299688E-18	9.153922E-19
3.540000E+03	7.171107E-18	8.938143E-19
3.550000E+03	7.045553E-18	8.730107E-19
3.560000E+03	6.922648E-18	8.529115E-19
3.570000E+03	6.802258E-18	8.334790E-19
3.580000E+03	6.684200E-18	8.146704E-19
3.590000E+03	6.568240E-18	7.964379E-19
3.600000E+03	6.454109E-18	7.787306E-19
3.610000E+03	6.341807E-18	7.615316E-19
3.620000E+03	6.231212E-18	7.448102E-19
3.630000E+03	6.122216E-18	7.285381E-19
3.640000E+03	6.014993E-18	7.127217E-19
3.650000E+03	5.909532E-18	6.973453E-19
3.660000E+03	5.805870E-18	6.823998E-19
3.670000E+03	5.704088E-18	6.678816E-19
3.680000E+03	5.604248E-18	6.537853E-19
3.690000E+03	5.506355E-18	6.400991E-19
3.700000E+03	5.410547E-18	6.268275E-19
3.710000E+03	5.316756E-18	6.139509E-19
3.720000E+03	5.225046E-18	6.014657E-19
3.730000E+03	5.135516E-18	5.893727E-19
3.740000E+03	5.048033E-18	5.776469E-19
3.750000E+03	4.962763E-18	5.662977E-19
3.760000E+03	4.879567E-18	5.553008E-19
3.770000E+03	4.798547E-18	5.446594E-19
3.780000E+03	4.719678E-18	5.343627E-19
3.790000E+03	4.642930E-18	5.244001E-19
3.800000E+03	4.568307E-18	5.147649E-19
3.810000E+03	4.495771E-18	5.054462E-19
3.820000E+03	4.425320E-18	4.964374E-19
3.830000E+03	4.356944E-18	4.877317E-19
3.840000E+03	4.290601E-18	4.793188E-19
3.850000E+03	4.226278E-18	4.711922E-19
3.860000E+03	4.163959E-18	4.633454E-19
3.870000E+03	4.103597E-18	4.557685E-19
3.880000E+03	4.045175E-18	4.484556E-19
3.890000E+03	3.988673E-18	4.414006E-19
3.900000E+03	3.934040E-18	4.345943E-19
3.910000E+03	3.881257E-18	4.280312E-19
3.920000E+03	3.830270E-18	4.217022E-19
3.930000E+03	3.781088E-18	4.156052E-19
3.940000E+03	3.733656E-18	4.097316E-19
3.950000E+03	3.687951E-18	4.040759E-19
3.960000E+03	3.643890E-18	3.986271E-19
3.970000E+03	3.601507E-18	3.933864E-19
3.980000E+03	3.560721E-18	3.883428E-19
3.990000E+03	3.521505E-18	3.834918E-19
4.000000E+03	3.483810E-18	3.788259E-19
4.010000E+03	3.447638E-18	3.743437E-19
4.020000E+03	3.412912E-18	3.700352E-19
4.030000E+03	3.379635E-18	3.658993E-19
4.040000E+03	3.347733E-18	3.619265E-19
4.050000E+03	3.317210E-18	3.581156E-19
4.060000E+03	3.287994E-18	3.544578E-19
4.070000E+03	3.260065E-18	3.509498E-19
4.080000E+03	3.233405E-18	3.475883E-19
4.090000E+03	3.207994E-18	3.443704E-19
4.100000E+03	3.183767E-18	3.412880E-19
4.110000E+03	3.160706E-18	3.383386E-19
4.120000E+03	3.138774E-18	3.355172E-19
4.130000E+03	3.117955E-18	3.328214E-19
4.140000E+03	3.098236E-18	3.302493E-19
4.150000E+03	3.079558E-18	3.277940E-19
4.160000E+03	3.061932E-18	3.254561E-19
4.170000E+03	3.045302E-18	3.232293E-19
4.180000E+03	3.029658E-18	3.211121E-19
4.190000E+03	3.014992E-18	3.191033E-19
4.200000E+03	3.001250E-18	3.171968E-19
4.210000E+03	2.988425E-18	3.153917E-19
4.220000E+03	2.976489E-18	3.136845E-19
4.230000E+03	2.965459E-18	3.120770E-19
4.240000E+03	2.955263E-18	3.105612E-19
4.250000E+03	2.945921E-18	3.091389E-19
4.260000E+03	2.937385E-18	3.078048E-19
4.270000E+03	2.929676E-18	3.065611E-19
4.280000E+03	2.922725E-18	3.054001E-19
4.290000E+03	2.916531E-18	3.043217E-19
4.300000E+03	2.911095E-18	3.033258E-19
4.310000E+03	2.906351E-18	3.024052E-19
4.320000E+03	2.902321E-18	3.015622E-19
4.330000E+03	2.898918E-18	3.007875E-19
4.340000E+03	2.896166E-18	3.000835E-19
4.350000E+03	2.893954E-18	2.994387E-19
4.360000E+03	2.892285E-18	2.988534E-19
4.370000E+03	2.891228E-18	2.983349E-19
4.380000E+03	2.890788E-18	2.978834E-19
4.390000E+03	2.890991E-18	2.975020E-19
4.400000E+03	2.891843E-18	2.971909E-19
4.410000E+03	2.893303E-18	2.969456E-19
4.420000E+03	2.895422E-18	2.967713E-19
4.430000E+03	2.898160E-18	2.966637E-19
4.440000E+03	2.901526E-18	2.966233E-19
4.450000E+03	2.905504E-18	2.966484E-19
4.460000E+03	2.910102E-18	2.967397E-19
4.470000E+03	2.915282E-18	2.968930E-19
4.480000E+03	2.921076E-18	2.971115E-19
4.490000E+03	2.927448E-18	2.973912E-19
4.500000E+03	2.934385E-18	2.977304E-19
4.510000E+03	2.941920E-18	2.981324E-19
4.520000E+03	2.949995E-18	2.985908E-19
4.530000E+03	2.958622E-18	2.991064E-19
4.540000E+03	2.967815E-18	2.996802E-19
4.550000E+03	2.977540E-18	3.003079E-19
4.560000E+03	2.987813E-18	3.009905E-19
4.570000E+03	2.998602E-18	3.017239E-19
4.580000E+03	3.009925E-18	3.025089E-19
4.590000E+03	3.021774E-18	3.033441E-19
4.600000E+03	3.034145E-18	3.042281E-19
4.610000E+03	3.047004E-18	3.051568E-19
4.620000E+03	3.060398E-18	3.061342E-19
4.630000E+03	3.074268E-18	3.071539E-19
4.640000E+03	3.088636E-18	3.082171E-19
4.650000E+03	3.103495E-18	3.093228E-19
4.660000E+03	3.118812E-18	3.104674E-19
4.670000E+03	3.134636E-18	3.116551E-19
4.680000E+03	3.150907E-18	3.128798E-19
4.690000E+03	3.167648E-18	3.141433E-19
4.700000E+03	3.184906E-18	3.154499E-19
4.710000E+03	3.202652E-18	3.167959E-19
4.720000E+03	3.220907E-18	3.181832E-19
4.730000E+03	3.239698E-18	3.196135E-19
4.740000E+03	3.259020E-18	3.210858E-19
4.750000E+03	3.278871E-18	3.225995E-19
4.760000E+03	3.299307E-18	3.241593E-19
4.770000E+03	3.320267E-18	3.257587E-19
4.780000E+03	3.341808E-18	3.274030E-19
4.790000E+03	3.363930E-18	3.290914E-19
4.800000E+03	3.386600E-18	3.308207E-19
4.810000E+03	3.409879E-18	3.325963E-19
4.820000E+03	3.433736E-18	3.344149E-19
4.830000E+03	3.458171E-18	3.362764E-19
4.840000E+03	3.483185E-18	3.381807E-19
4.850000E+03	3.508779E-18	3.401279E-19
4.860000E+03	3.535020E-18	3.421243E-19
4.870000E+03	3.561814E-18	3.441611E-19
4.880000E+03	3.589227E-18	3.462446E-19
4.890000E+03	3.617230E-18	3.483723E-19
4.900000E+03	3.645859E-18	3.505479E-19
4.910000E+03	3.675084E-18	3.527686E-19
4.920000E+03	3.704908E-18	3.550348E-19
4.930000E+03	3.735368E-18	3.573506E-19
4.940000E+03	3.766398E-18	3.597097E-19
4.950000E+03	3.798035E-18	3.621159E-19
4.960000E+03	3.830281E-18	3.645700E-19
4.970000E+03	3.863138E-18	3.670722E-19
4.980000E+03	3.896573E-18	3.696199E-19
4.990000E+03	3.930585E-18	3.722135E-19
5.000000E+03	3.965213E-18	3.748572E-19
5.010000E+03	4.000383E-18	3.775447E-19
5.020000E+03	4.036170E-18	3.802839E-19
5.030000E+03	4.072498E-18	3.830683E-19
5.040000E+03	4.109365E-18	3.858985E-19
5.050000E+03	4.146811E-18	3.887791E-19
5.060000E+03	4.184794E-18	3.917072E-19
5.070000E+03	4.223311E-18	3.946837E-19
5.080000E+03	4.262321E-18	3.977060E-19
5.090000E+03	4.301861E-18	4.007787E-19
5.100000E+03	4.341927E-18	4.039031E-19
5.110000E+03	4.382433E-18	4.070727E-19
5.120000E+03	4.423415E-18	4.102925E-19
5.130000E+03	4.464868E-18	4.135637E-19
5.140000E+03	4.506787E-18	4.168878E-19
5.150000E+03	4.549124E-18	4.202622E-19
5.160000E+03	4.591871E-18	4.236883E-19
5.170000E+03	4.634980E-18	4.271640E-19
5.180000E+03	4.678534E-18	4.306992E-19
5.190000E+03	4.722439E-18	4.342878E-19
5.200000E+03	4.766690E-18	4.379321E-19
5.210000E+03	4.811283E-18	4.416342E-19
5.220000E+03	4.856260E-18	4.454010E-19
5.230000E+03	4.901522E-18	4.492268E-19
5.240000E+03	4.947063E-18	4.531140E-19
5.250000E+03	4.992974E-18	4.570743E-19
5.260000E+03	5.039104E-18	4.610977E-19
5.270000E+03	5.085544E-18	4.651958E-19
5.280000E+03	5.132235E-18	4.693667E-19
5.290000E+03	5.179172E-18	4.736137E-19
5.300000E+03	5.226396E-18	4.779441E-19
5.310000E+03	5.273797E-18	4.823515E-19
5.320000E+03	5.321417E-18	4.868437E-19
5.330000E+03	5.369248E-18	4.914228E-19
5.337418E+03	3.570919E-18	1.265177E-17
5.337619E+03	3.579000E-18	1.263357E-17
5.339219E+03	3.575476E-18	1.227360E-17
5.339619E+03	3.581712E-18	1.220497E-17
5.339819E+03	3.589585E-18	1.218478E-17
5.340019E+03	3.597075E-18	1.216309E-17
5.340819E+03	3.599820E-18	1.199414E-17
5.342019E+03	3.599216E-18	1.172600E-17
5.342419E+03	3.604605E-18	1.165230E-17
5.342619E+03	3.612169E-18	1.162898E-17
5.342820E+03	3.619717E-18	1.160517E-17
5.343220E+03	3.624743E-18	1.152937E-17
5.343620E+03	3.630440E-18	1.145505E-17
5.344020E+03	3.635700E-18	1.137909E-17
5.344220E+03	3.641826E-18	1.135046E-17
5.345220E+03	3.641760E-18	1.112345E-17
5.345620E+03	3.646368E-18	1.104467E-17
5.346620E+03	3.647249E-18	1.081923E-17
5.346820E+03	3.653234E-18	1.078882E-17
5.347020E+03	3.659064E-18	1.075787E-17
5.347220E+03	3.664659E-18	1.072613E-17
5.347420E+03	3.670148E-18	1.069398E-17
5.347820E+03	3.674311E-18	1.061239E-17
5.348020E+03	3.679410E-18	1.057890E-17
5.348421E+03	3.682945E-18	1.049511E-17
5.348620E+03	3.688013E-18	1.046123E-17
5.349020E+03	3.691276E-18	1.037666E-17
5.349820E+03	3.691754E-18	1.019289E-17
5.350420E+03	3.693944E-18	1.005919E-17
5.350620E+03	3.698681E-18	1.002380E-17
5.352020E+03	3.694905E-18	9.692116E-18
5.352220E+03	3.698946E-18	9.654697E-18
5.352620E+03	3.701700E-18	9.568196E-18
5.353420E+03	3.701807E-18	9.384560E-18
5.353821E+03	3.704130E-18	9.297218E-18
5.354821E+03	3.702948E-18	9.065397E-18
5.355621E+03	3.702573E-18	8.881516E-18
5.356421E+03	3.702704E-18	8.700303E-18
5.356821E+03	3.705259E-18	8.614430E-18
5.357421E+03	3.706032E-18	8.480093E-18
5.357621E+03	3.708790E-18	8.439785E-18
5.358021E+03	3.711240E-18	8.354401E-18
5.358221E+03	3.713985E-18	8.314324E-18
5.358822E+03	3.714635E-18	8.180883E-18
5.359222E+03	3.716626E-18	8.094851E-18
5.359622E+03	3.718384E-18	8.009428E-18
5.359822E+03	3.720373E-18	7.968536E-18
5.360622E+03	3.719802E-18	7.791715E-18
5.361422E+03	3.719001E-18	7.615494E-18
5.361821E+03	3.720353E-18	7.531435E-18
5.362221E+03	3.721258E-18	7.446897E-18
5.362421E+03	3.722855E-18	7.406334E-18
5.362621E+03	3.724154E-18	7.365379E-18
5.362821E+03	3.725288E-18	7.324825E-18
5.363221E+03	3.725710E-18	7.241346E-18
5.364021E+03	3.724629E-18	7.072694E-18
5.364422E+03	3.724968E-18	6.989846E-18
5.364622E+03	3.726114E-18	6.951141E-18
5.364822E+03	3.726596E-18	6.911663E-18
5.365822E+03	3.723924E-18	6.709464E-18
5.367422E+03	3.719306E-18	6.391606E-18
5.368022E+03	3.718407E-18	6.281308E-18
5.368222E+03	3.718620E-18	6.245297E-18
5.369222E+03	3.715944E-18	6.063444E-18
5.369823E+03	3.715258E-18	5.956685E-18
5.370023E+03	3.715420E-18	5.924434E-18
5.372023E+03	3.709853E-18	5.603278E-18
5.372223E+03	3.709281E-18	5.571985E-18
5.372423E+03	3.708930E-18	5.541018E-18
5.372623E+03	3.708797E-18	5.512988E-18
5.373023E+03	3.707509E-18	5.456616E-18
5.373222E+03	3.706938E-18	5.428695E-18
5.373623E+03	3.705284E-18	5.372957E-18
5.373823E+03	3.704129E-18	5.348659E-18
5.374022E+03	3.703340E-18	5.324744E-18
5.375623E+03	3.699143E-18	5.139088E-18
5.376223E+03	3.697069E-18	5.071376E-18
5.376423E+03	3.695697E-18	5.052974E-18
5.377023E+03	3.693480E-18	4.999364E-18
5.377223E+03	3.691818E-18	4.981212E-18
5.377423E+03	3.690009E-18	4.963099E-18
5.377623E+03	3.688094E-18	4.947707E-18
5.377823E+03	3.685961E-18	4.932302E-18
5.378023E+03	3.683682E-18	4.916908E-18
5.378223E+03	3.681330E-18	4.901573E-18
5.378423E+03	3.678799E-18	4.889193E-18
5.378623E+03	3.676122E-18	4.876810E-18
5.379223E+03	3.672686E-18	4.842175E-18
5.379423E+03	3.669719E-18	4.829907E-18
5.380424E+03	3.665763E-18	4.799755E-18
5.380624E+03	3.662568E-18	4.792722E-18
5.381224E+03	3.658739E-18	4.774265E-18
5.381424E+03	3.655181E-18	4.767175E-18
5.382424E+03	3.651153E-18	4.781854E-18
5.382624E+03	3.647478E-18	4.783545E-18
5.383824E+03	3.643053E-18	4.801419E-18
5.384624E+03	3.638697E-18	4.812759E-18
5.384824E+03	3.634668E-18	4.821162E-18
5.385024E+03	3.630420E-18	4.829465E-18
5.385224E+03	3.626100E-18	4.837742E-18
5.385624E+03	3.621609E-18	4.856319E-18
5.385824E+03	3.617117E-18	4.867969E-18
5.386225E+03	3.612499E-18	4.893461E-18
5.386824E+03	3.607757E-18	4.933108E-18
5.387024E+03	3.602901E-18	4.944731E-18
5.387224E+03	3.598058E-18	4.961730E-18
5.389024E+03	3.593863E-18	5.139975E-18
5.389824E+03	3.589052E-18	5.220020E-18
5.390224E+03	3.583878E-18	5.258715E-18
5.390424E+03	3.578636E-18	5.281658E-18
5.391425E+03	3.573984E-18	5.412583E-18
5.391825E+03	3.568522E-18	5.463075E-18
5.393025E+03	3.564010E-18	5.625943E-18
5.393225E+03	3.558403E-18	5.652083E-18
5.393825E+03	3.553244E-18	5.740590E-18
5.394025E+03	3.547269E-18	5.766556E-18
5.394425E+03	3.541443E-18	5.823965E-18
5.395625E+03	3.536956E-18	6.019585E-18
5.395825E+03	3.530453E-18	6.046855E-18
5.396226E+03	3.524526E-18	6.103996E-18
5.396426E+03	3.517655E-18	6.111798E-18
5.396626E+03	3.510986E-18	6.142550E-18
5.397026E+03	3.504511E-18	6.201952E-18
5.397226E+03	3.497838E-18	6.231576E-18
5.397626E+03	3.491502E-18	6.296996E-18
5.398825E+03	3.486648E-18	6.513991E-18
5.399025E+03	3.479170E-18	6.540663E-18
5.400625E+03	3.475205E-18	6.767919E-18
5.401025E+03	3.468205E-18	6.816492E-18
5.401225E+03	3.460720E-18	6.843289E-18
5.401626E+03	3.453659E-18	6.835181E-18
5.401826E+03	3.445654E-18	6.863133E-18
5.402226E+03	3.438215E-18	6.933269E-18
5.402826E+03	3.431369E-18	7.042104E-18
5.404026E+03	3.426315E-18	7.278681E-18
5.404226E+03	3.418126E-18	7.300678E-18
5.404426E+03	3.409933E-18	7.328718E-18
5.404626E+03	3.401293E-18	7.339198E-18
5.405226E+03	3.394098E-18	7.414920E-18
5.405626E+03	3.385838E-18	7.464900E-18
5.406226E+03	3.378328E-18	7.548905E-18
5.406426E+03	3.369199E-18	7.574750E-18
5.406626E+03	3.359919E-18	7.562083E-18
5.407227E+03	3.352170E-18	7.665448E-18
5.407427E+03	3.342804E-18	7.690086E-18
5.407827E+03	3.333964E-18	7.757655E-18
5.408227E+03	3.324894E-18	7.814577E-18
5.409027E+03	3.317356E-18	7.964405E-18
5.409227E+03	3.307492E-18	7.979204E-18
5.410026E+03	3.300089E-18	8.130989E-18
5.410627E+03	3.291471E-18	8.237380E-18
5.410827E+03	3.281121E-18	8.246891E-18
5.411026E+03	3.270839E-18	8.248191E-18
5.412026E+03	3.263846E-18	8.420042E-18
5.412227E+03	3.253240E-18	8.436951E-18
5.412827E+03	3.244299E-18	8.538006E-18
5.413227E+03	3.234245E-18	8.584725E-18
5.413427E+03	3.223436E-18	8.575481E-18
5.413627E+03	3.212694E-18	8.571401E-18
5.413827E+03	3.201649E-18	8.568118E-18
5.414227E+03	3.191210E-18	8.610123E-18
5.414827E+03	3.182133E-18	8.697361E-18
5.416027E+03	3.175766E-18	8.917645E-18
5.416627E+03	3.165964E-18	9.007853E-18
5.416827E+03	3.154083E-18	9.012580E-18
5.417027E+03	3.142257E-18	9.017821E-18
5.417828E+03	3.133300E-18	9.154218E-18
5.418028E+03	3.121371E-18	9.162269E-18
5.418228E+03	3.109209E-18	9.169703E-18
5.418628E+03	3.097918E-18	9.215706E-18
5.418828E+03	3.085565E-18	9.221666E-18
5.420028E+03	3.078406E-18	9.438355E-18
5.420428E+03	3.067048E-18	9.483348E-18
5.420628E+03	3.054325E-18	9.486140E-18
5.421228E+03	3.043690E-18	9.551598E-18
5.421628E+03	3.032244E-18	9.592850E-18
5.422227E+03	3.021404E-18	9.663756E-18
5.423029E+03	3.011785E-18	9.787570E-18
5.423428E+03	2.999784E-18	9.826677E-18
5.423628E+03	2.986337E-18	9.822946E-18
5.424628E+03	2.977273E-18	9.982189E-18
5.424828E+03	2.963752E-18	9.976470E-18
5.425028E+03	2.949993E-18	9.969357E-18
5.425228E+03	2.936222E-18	9.961655E-18
5.425428E+03	2.922363E-18	9.953205E-18
5.425628E+03	2.908678E-18	9.943967E-18
5.425828E+03	2.894602E-18	9.933052E-18
5.426028E+03	2.880514E-18	9.921603E-18
5.427028E+03	2.870863E-18	1.006669E-17
5.427428E+03	2.857660E-18	1.009148E-17
5.428229E+03	2.846882E-18	1.019380E-17
5.428629E+03	2.833690E-18	1.021714E-17
5.428829E+03	2.818995E-18	1.020208E-17
5.429029E+03	2.804248E-18	1.018311E-17
5.429429E+03	2.790530E-18	1.020010E-17
5.429629E+03	2.775597E-18	1.017155E-17
5.429829E+03	2.760649E-18	1.013319E-17
5.430029E+03	2.745487E-18	1.011404E-17
5.430229E+03	2.730464E-18	1.007179E-17
5.430429E+03	2.715120E-18	1.004839E-17
5.431029E+03	2.702049E-18	1.007709E-17
5.431429E+03	2.687908E-18	1.009201E-17
5.431629E+03	2.672381E-18	1.005696E-17
5.432229E+03	2.659153E-18	1.010422E-17
5.432629E+03	2.644691E-18	1.011533E-17
5.432829E+03	2.628753E-18	1.008301E-17
5.433630E+03	2.616450E-18	1.015854E-17
5.434230E+03	2.602792E-18	1.020052E-17
5.434430E+03	2.586689E-18	1.016766E-17
5.434829E+03	2.571829E-18	1.017139E-17
5.435029E+03	2.555487E-18	1.013829E-17
5.435230E+03	2.539128E-18	1.010114E-17
5.435430E+03	2.522830E-18	1.006734E-17
5.435829E+03	2.507544E-18	1.006571E-17
5.436029E+03	2.491006E-18	1.003127E-17
5.437229E+03	2.480341E-18	1.016258E-17
5.437429E+03	2.463413E-18	1.012263E-17
5.437629E+03	2.446500E-18	1.008131E-17
5.437829E+03	2.429490E-18	1.003822E-17
5.438029E+03	2.412384E-18	9.991848E-18
5.438229E+03	2.395416E-18	9.944060E-18
5.439030E+03	2.381800E-18	9.987808E-18
5.439230E+03	2.364561E-18	9.927642E-18
5.439430E+03	2.347304E-18	9.864381E-18
5.440030E+03	2.332246E-18	9.860354E-18
5.440230E+03	2.314646E-18	9.814042E-18
5.440430E+03	2.297262E-18	9.763716E-18
5.440630E+03	2.279466E-18	9.715486E-18
5.440830E+03	2.261493E-18	9.662446E-18
5.441630E+03	2.247177E-18	9.700427E-18
5.441830E+03	2.229158E-18	9.648697E-18
5.442230E+03	2.212211E-18	9.625670E-18
5.442430E+03	2.194063E-18	9.573296E-18
5.443030E+03	2.178277E-18	9.578879E-18
5.443230E+03	2.160016E-18	9.521376E-18
5.443430E+03	2.141812E-18	9.465204E-18
5.443630E+03	2.123430E-18	9.376629E-18
5.443830E+03	2.105053E-18	9.320254E-18
5.444631E+03	2.090115E-18	9.347149E-18
5.445031E+03	2.072804E-18	9.316716E-18
5.445231E+03	2.054160E-18	9.257166E-18
5.445431E+03	2.035684E-18	9.195362E-18
5.446231E+03	2.020287E-18	9.210614E-18
