#wls	flux	fluxerr
1.600000E+03	1.133342E-16	1.181438E-16
1.640000E+03	1.173908E-16	1.206807E-16
1.680000E+03	1.213925E-16	1.230038E-16
1.720000E+03	1.253215E-16	1.250937E-16
1.760000E+03	1.291308E-16	1.269034E-16
1.800000E+03	1.328215E-16	1.284356E-16
1.840000E+03	1.363263E-16	1.296283E-16
1.880000E+03	1.396263E-16	1.304695E-16
1.920000E+03	1.426734E-16	1.309223E-16
1.960000E+03	1.454296E-16	1.309629E-16
2.000000E+03	1.478423E-16	1.305575E-16
2.040000E+03	1.498697E-16	1.296869E-16
2.080000E+03	1.514580E-16	1.283249E-16
2.120000E+03	1.525659E-16	1.264614E-16
2.160000E+03	1.531319E-16	1.240737E-16
2.200000E+03	1.531219E-16	1.211666E-16
2.240000E+03	1.524961E-16	1.177446E-16
2.280000E+03	1.512510E-16	1.138438E-16
2.320000E+03	1.493955E-16	1.095106E-16
2.360000E+03	1.469318E-16	1.047876E-16
2.400000E+03	1.438911E-16	9.973796E-17
2.440000E+03	1.402968E-16	9.441787E-17
2.480000E+03	1.361746E-16	8.888405E-17
2.520000E+03	1.315541E-16	8.319380E-17
2.560000E+03	1.264640E-16	7.740154E-17
2.600000E+03	1.209507E-16	7.156983E-17
2.640000E+03	1.150556E-16	6.575406E-17
2.680000E+03	1.088245E-16	6.000789E-17
2.720000E+03	1.023171E-16	5.438758E-17
2.760000E+03	9.559095E-17	4.894198E-17
2.800000E+03	8.871202E-17	4.371775E-17
2.840000E+03	8.175153E-17	3.875685E-17
2.880000E+03	7.478836E-17	3.409699E-17
2.920000E+03	6.792491E-17	2.977796E-17
2.960000E+03	6.126847E-17	2.583209E-17
3.000000E+03	5.491942E-17	2.227971E-17
3.010000E+03	5.338949E-17	2.145373E-17
3.020000E+03	5.188603E-17	2.065307E-17
3.030000E+03	5.040697E-17	1.987642E-17
3.040000E+03	4.895630E-17	1.912483E-17
3.050000E+03	4.753305E-17	1.839741E-17
3.060000E+03	4.613752E-17	1.769375E-17
3.070000E+03	4.477095E-17	1.701380E-17
3.080000E+03	4.343443E-17	1.635746E-17
3.090000E+03	4.212702E-17	1.572383E-17
3.100000E+03	4.085058E-17	1.511307E-17
3.110000E+03	3.960413E-17	1.452430E-17
3.120000E+03	3.838844E-17	1.395728E-17
3.130000E+03	3.720409E-17	1.341169E-17
3.140000E+03	3.605082E-17	1.288694E-17
3.150000E+03	3.492769E-17	1.238216E-17
3.160000E+03	3.383646E-17	1.189751E-17
3.170000E+03	3.277542E-17	1.143189E-17
3.180000E+03	3.174546E-17	1.098513E-17
3.190000E+03	3.074610E-17	1.055661E-17
3.200000E+03	2.977687E-17	1.014571E-17
3.210000E+03	2.883728E-17	9.751822E-18
3.220000E+03	2.792782E-17	9.374694E-18
3.230000E+03	2.704740E-17	9.013542E-18
3.240000E+03	2.619544E-17	8.667781E-18
3.250000E+03	2.537182E-17	8.336985E-18
3.260000E+03	2.457629E-17	8.020710E-18
3.270000E+03	2.380781E-17	7.718253E-18
3.280000E+03	2.306610E-17	7.429194E-18
3.290000E+03	2.235049E-17	7.152990E-18
3.300000E+03	2.166065E-17	6.889225E-18
3.310000E+03	2.099556E-17	6.637276E-18
3.320000E+03	2.035455E-17	6.396657E-18
3.330000E+03	1.973756E-17	6.167078E-18
3.340000E+03	1.914331E-17	5.947886E-18
3.350000E+03	1.857143E-17	5.738725E-18
3.360000E+03	1.802152E-17	5.539242E-18
3.370000E+03	1.749240E-17	5.348861E-18
3.380000E+03	1.698393E-17	5.167333E-18
3.390000E+03	1.649501E-17	4.994132E-18
3.400000E+03	1.602506E-17	4.828899E-18
3.410000E+03	1.557369E-17	4.671351E-18
3.420000E+03	1.514012E-17	4.521090E-18
3.430000E+03	1.472379E-17	4.377798E-18
3.440000E+03	1.432381E-17	4.241069E-18
3.450000E+03	1.393985E-17	4.110673E-18
3.460000E+03	1.357124E-17	3.986290E-18
3.470000E+03	1.321721E-17	3.867574E-18
3.480000E+03	1.287733E-17	3.754290E-18
3.490000E+03	1.255087E-17	3.646131E-18
3.500000E+03	1.223734E-17	3.542850E-18
3.510000E+03	1.193623E-17	3.444218E-18
3.520000E+03	1.164681E-17	3.349941E-18
3.530000E+03	1.136844E-17	3.259756E-18
3.540000E+03	1.110038E-17	3.173383E-18
3.550000E+03	1.084186E-17	3.090538E-18
3.560000E+03	1.059221E-17	3.010964E-18
3.570000E+03	1.035078E-17	2.934426E-18
3.580000E+03	1.011691E-17	2.860686E-18
3.590000E+03	9.889999E-18	2.789525E-18
3.600000E+03	9.669682E-18	2.720798E-18
3.610000E+03	9.455355E-18	2.654294E-18
3.620000E+03	9.246726E-18	2.589894E-18
3.630000E+03	9.043853E-18	2.527579E-18
3.640000E+03	8.846600E-18	2.467278E-18
3.650000E+03	8.654983E-18	2.408964E-18
3.660000E+03	8.468989E-18	2.352604E-18
3.670000E+03	8.288661E-18	2.298183E-18
3.680000E+03	8.113941E-18	2.245656E-18
3.690000E+03	7.944687E-18	2.194961E-18
3.700000E+03	7.781020E-18	2.146106E-18
3.710000E+03	7.622702E-18	2.099005E-18
3.720000E+03	7.469752E-18	2.053640E-18
3.730000E+03	7.322046E-18	2.009960E-18
3.740000E+03	7.179514E-18	1.967926E-18
3.750000E+03	7.042020E-18	1.927483E-18
3.760000E+03	6.909422E-18	1.888576E-18
3.770000E+03	6.781690E-18	1.851183E-18
3.780000E+03	6.658672E-18	1.815247E-18
3.790000E+03	6.540270E-18	1.780728E-18
3.800000E+03	6.426283E-18	1.747560E-18
3.810000E+03	6.316712E-18	1.715730E-18
3.820000E+03	6.211353E-18	1.685173E-18
3.830000E+03	6.110155E-18	1.655864E-18
3.840000E+03	6.012918E-18	1.627741E-18
3.850000E+03	5.919636E-18	1.600791E-18
3.860000E+03	5.830070E-18	1.574943E-18
3.870000E+03	5.744212E-18	1.550186E-18
3.880000E+03	5.661920E-18	1.526475E-18
3.890000E+03	5.583054E-18	1.503765E-18
3.900000E+03	5.507523E-18	1.482026E-18
3.910000E+03	5.435237E-18	1.461226E-18
3.920000E+03	5.366106E-18	1.441338E-18
3.930000E+03	5.300004E-18	1.422321E-18
3.940000E+03	5.236809E-18	1.404137E-18
3.950000E+03	5.176480E-18	1.386772E-18
3.960000E+03	5.118941E-18	1.370201E-18
3.970000E+03	5.063999E-18	1.354367E-18
3.980000E+03	5.011661E-18	1.339270E-18
3.990000E+03	4.961821E-18	1.324877E-18
4.000000E+03	4.914411E-18	1.311167E-18
4.010000E+03	4.869295E-18	1.298100E-18
4.020000E+03	4.826412E-18	1.285658E-18
4.030000E+03	4.785742E-18	1.273832E-18
4.040000E+03	4.747158E-18	1.262586E-18
4.050000E+03	4.710606E-18	1.251904E-18
4.060000E+03	4.676003E-18	1.241760E-18
4.070000E+03	4.643300E-18	1.232139E-18
4.080000E+03	4.612418E-18	1.223020E-18
4.090000E+03	4.583315E-18	1.214389E-18
4.100000E+03	4.555916E-18	1.206224E-18
4.110000E+03	4.530148E-18	1.198504E-18
4.120000E+03	4.505977E-18	1.191219E-18
4.130000E+03	4.483368E-18	1.184358E-18
4.140000E+03	4.462223E-18	1.177894E-18
4.150000E+03	4.442545E-18	1.171826E-18
4.160000E+03	4.424239E-18	1.166128E-18
4.170000E+03	4.407281E-18	1.160793E-18
4.180000E+03	4.391646E-18	1.155813E-18
4.190000E+03	4.377278E-18	1.151172E-18
4.200000E+03	4.364124E-18	1.146855E-18
4.210000E+03	4.352164E-18	1.142857E-18
4.220000E+03	4.341350E-18	1.139164E-18
4.230000E+03	4.331665E-18	1.135770E-18
4.240000E+03	4.323095E-18	1.132671E-18
4.250000E+03	4.315595E-18	1.129855E-18
4.260000E+03	4.309087E-18	1.127301E-18
4.270000E+03	4.303629E-18	1.125023E-18
4.280000E+03	4.299145E-18	1.123001E-18
4.290000E+03	4.295631E-18	1.121232E-18
4.300000E+03	4.293012E-18	1.119698E-18
4.310000E+03	4.291320E-18	1.118405E-18
4.320000E+03	4.290519E-18	1.117344E-18
4.330000E+03	4.290573E-18	1.116505E-18
4.340000E+03	4.291483E-18	1.115888E-18
4.350000E+03	4.293217E-18	1.115483E-18
4.360000E+03	4.295846E-18	1.115310E-18
4.370000E+03	4.299306E-18	1.115350E-18
4.380000E+03	4.303603E-18	1.115605E-18
4.390000E+03	4.308745E-18	1.116077E-18
4.400000E+03	4.314673E-18	1.116748E-18
4.410000E+03	4.321396E-18	1.117622E-18
4.420000E+03	4.328891E-18	1.118692E-18
4.430000E+03	4.337102E-18	1.119942E-18
4.440000E+03	4.346076E-18	1.121384E-18
4.450000E+03	4.355759E-18	1.123004E-18
4.460000E+03	4.366132E-18	1.124796E-18
4.470000E+03	4.377141E-18	1.126745E-18
4.480000E+03	4.388840E-18	1.128865E-18
4.490000E+03	4.401213E-18	1.131151E-18
4.500000E+03	4.414173E-18	1.133579E-18
4.510000E+03	4.427778E-18	1.136163E-18
4.520000E+03	4.441979E-18	1.138891E-18
4.530000E+03	4.456762E-18	1.141757E-18
4.540000E+03	4.472154E-18	1.144767E-18
4.550000E+03	4.488143E-18	1.147918E-18
4.560000E+03	4.504683E-18	1.151196E-18
4.570000E+03	4.521764E-18	1.154598E-18
4.580000E+03	4.539416E-18	1.158131E-18
4.590000E+03	4.557633E-18	1.161791E-18
4.600000E+03	4.576330E-18	1.165555E-18
4.610000E+03	4.595578E-18	1.169442E-18
4.620000E+03	4.615373E-18	1.173447E-18
4.630000E+03	4.635630E-18	1.177548E-18
4.640000E+03	4.656386E-18	1.181754E-18
4.650000E+03	4.677635E-18	1.186061E-18
4.660000E+03	4.699335E-18	1.190457E-18
4.670000E+03	4.721562E-18	1.194960E-18
4.680000E+03	4.744274E-18	1.199558E-18
4.690000E+03	4.767512E-18	1.204260E-18
4.700000E+03	4.791273E-18	1.209064E-18
4.710000E+03	4.815600E-18	1.213978E-18
4.720000E+03	4.840452E-18	1.218991E-18
4.730000E+03	4.865915E-18	1.224123E-18
4.740000E+03	4.891949E-18	1.229362E-18
4.750000E+03	4.918686E-18	1.234739E-18
4.760000E+03	4.946046E-18	1.240234E-18
4.770000E+03	4.974076E-18	1.245855E-18
4.780000E+03	5.002872E-18	1.251626E-18
4.790000E+03	5.032396E-18	1.257534E-18
4.800000E+03	5.062746E-18	1.263603E-18
4.810000E+03	5.093843E-18	1.269810E-18
4.820000E+03	5.125786E-18	1.276179E-18
4.830000E+03	5.158586E-18	1.282710E-18
4.840000E+03	5.192207E-18	1.289392E-18
4.850000E+03	5.226709E-18	1.296239E-18
4.860000E+03	5.262149E-18	1.303261E-18
4.870000E+03	5.298446E-18	1.310438E-18
4.880000E+03	5.335658E-18	1.317780E-18
4.890000E+03	5.373849E-18	1.325303E-18
4.900000E+03	5.412933E-18	1.332981E-18
4.910000E+03	5.452971E-18	1.340828E-18
4.920000E+03	5.493976E-18	1.348846E-18
4.930000E+03	5.535962E-18	1.357034E-18
4.940000E+03	5.578942E-18	1.365393E-18
4.950000E+03	5.622877E-18	1.373912E-18
4.960000E+03	5.667831E-18	1.382603E-18
4.970000E+03	5.713764E-18	1.391454E-18
4.980000E+03	5.760687E-18	1.400466E-18
4.990000E+03	5.808611E-18	1.409638E-18
5.000000E+03	5.857548E-18	1.418969E-18
5.010000E+03	5.907508E-18	1.428461E-18
5.020000E+03	5.958501E-18	1.438111E-18
5.030000E+03	6.010481E-18	1.447907E-18
5.040000E+03	6.063456E-18	1.457847E-18
5.050000E+03	6.117433E-18	1.467930E-18
5.060000E+03	6.172419E-18	1.478155E-18
5.070000E+03	6.228421E-18	1.488519E-18
5.080000E+03	6.285445E-18	1.499021E-18
5.090000E+03	6.343375E-18	1.509630E-18
5.100000E+03	6.402335E-18	1.520373E-18
5.110000E+03	6.462327E-18	1.531247E-18
5.120000E+03	6.523231E-18	1.542219E-18
5.130000E+03	6.585046E-18	1.553287E-18
5.140000E+03	6.647832E-18	1.564461E-18
5.150000E+03	6.711588E-18	1.575737E-18
5.160000E+03	6.776182E-18	1.587080E-18
5.170000E+03	6.841671E-18	1.598502E-18
5.180000E+03	6.908116E-18	1.610012E-18
5.190000E+03	6.975376E-18	1.621574E-18
5.200000E+03	7.043440E-18	1.633182E-18
5.210000E+03	7.112295E-18	1.644829E-18
5.220000E+03	7.181995E-18	1.656525E-18
5.230000E+03	7.252458E-18	1.668246E-18
5.240000E+03	7.323665E-18	1.679984E-18
5.250000E+03	7.395524E-18	1.691715E-18
5.260000E+03	7.468086E-18	1.703447E-18
5.270000E+03	7.541326E-18	1.715170E-18
5.280000E+03	7.615144E-18	1.726857E-18
5.290000E+03	7.689586E-18	1.738515E-18
5.300000E+03	7.764546E-18	1.750116E-18
5.310000E+03	7.839988E-18	1.761649E-18
5.320000E+03	7.915954E-18	1.773117E-18
5.330000E+03	7.992326E-18	1.784491E-18
5.340000E+03	8.069062E-18	1.795758E-18
5.350000E+03	8.146117E-18	1.806903E-18
5.360000E+03	8.223441E-18	1.817911E-18
5.370000E+03	8.300984E-18	1.828767E-18
5.380000E+03	8.378691E-18	1.839453E-18
5.390000E+03	8.456505E-18	1.849955E-18
5.400000E+03	8.534280E-18	1.860235E-18
5.410000E+03	8.611950E-18	1.870275E-18
5.420000E+03	8.689533E-18	1.880075E-18
5.430000E+03	8.766870E-18	1.889598E-18
5.440000E+03	8.843888E-18	1.898822E-18
5.450000E+03	8.920417E-18	1.907709E-18
5.460000E+03	8.996465E-18	1.916257E-18
5.470000E+03	9.071765E-18	1.924406E-18
5.480000E+03	9.146410E-18	1.932173E-18
5.490000E+03	9.220032E-18	1.939479E-18
5.500000E+03	9.292626E-18	1.946320E-18
5.510000E+03	9.364094E-18	1.952676E-18
5.520000E+03	9.434241E-18	1.958504E-18
5.530000E+03	9.502963E-18	1.963784E-18
5.540000E+03	9.570058E-18	1.968474E-18
5.550000E+03	9.635420E-18	1.972555E-18
5.560000E+03	9.698940E-18	1.976005E-18
5.570000E+03	9.760511E-18	1.978807E-18
5.580000E+03	9.819925E-18	1.980923E-18
5.590000E+03	9.877076E-18	1.982337E-18
5.600000E+03	9.931858E-18	1.983032E-18
5.610000E+03	9.984166E-18	1.982996E-18
5.620000E+03	1.003380E-17	1.982197E-18
5.630000E+03	1.008065E-17	1.980624E-18
5.640000E+03	1.012474E-17	1.978290E-18
5.650000E+03	1.016587E-17	1.975169E-18
5.660000E+03	1.020384E-17	1.971236E-18
5.670000E+03	1.023879E-17	1.966531E-18
5.680000E+03	1.027064E-17	1.961056E-18
5.690000E+03	1.029912E-17	1.954771E-18
5.700000E+03	1.032427E-17	1.947705E-18
5.710000E+03	1.034614E-17	1.939886E-18
5.720000E+03	1.036459E-17	1.931304E-18
5.730000E+03	1.037956E-17	1.921974E-18
5.740000E+03	1.039115E-17	1.911931E-18
5.750000E+03	1.039921E-17	1.901174E-18
5.760000E+03	1.040397E-17	1.889765E-18
5.770000E+03	1.040518E-17	1.877685E-18
5.780000E+03	1.040298E-17	1.864981E-18
5.790000E+03	1.039737E-17	1.851680E-18
5.800000E+03	1.038849E-17	1.837831E-18
5.810000E+03	1.037624E-17	1.823445E-18
5.820000E+03	1.036079E-17	1.808575E-18
5.830000E+03	1.034218E-17	1.793256E-18
5.840000E+03	1.032036E-17	1.777501E-18
5.850000E+03	1.029559E-17	1.761388E-18
5.860000E+03	1.026785E-17	1.744933E-18
5.870000E+03	1.023732E-17	1.728193E-18
5.880000E+03	1.020396E-17	1.711188E-18
5.890000E+03	1.016797E-17	1.693975E-18
5.900000E+03	1.012945E-17	1.676591E-18
5.910000E+03	1.008848E-17	1.659074E-18
5.920000E+03	1.004528E-17	1.641480E-18
5.930000E+03	9.999720E-18	1.623808E-18
5.940000E+03	9.952132E-18	1.606130E-18
5.950000E+03	9.902622E-18	1.588481E-18
5.960000E+03	9.851297E-18	1.570893E-18
5.970000E+03	9.798149E-18	1.553377E-18
5.980000E+03	9.743401E-18	1.535983E-18
5.990000E+03	9.687276E-18	1.518753E-18
6.000000E+03	9.629653E-18	1.501678E-18
6.010000E+03	9.570867E-18	1.484815E-18
6.020000E+03	9.510908E-18	1.468167E-18
6.030000E+03	9.449994E-18	1.451768E-18
6.040000E+03	9.387997E-18	1.435598E-18
6.050000E+03	9.325245E-18	1.419706E-18
6.060000E+03	9.261831E-18	1.404100E-18
6.070000E+03	9.197737E-18	1.388772E-18
6.080000E+03	9.133051E-18	1.373726E-18
6.090000E+03	9.067971E-18	1.358983E-18
6.100000E+03	9.002469E-18	1.344526E-18
6.110000E+03	8.936734E-18	1.330371E-18
6.120000E+03	8.870730E-18	1.316498E-18
6.130000E+03	8.804640E-18	1.302919E-18
6.140000E+03	8.738642E-18	1.289644E-18
6.150000E+03	8.672688E-18	1.276650E-18
6.160000E+03	8.606948E-18	1.263944E-18
6.170000E+03	8.541701E-18	1.251550E-18
6.180000E+03	8.476996E-18	1.239457E-18
6.190000E+03	8.412991E-18	1.227670E-18
6.200000E+03	8.349620E-18	1.216162E-18
6.210000E+03	8.286922E-18	1.204921E-18
6.220000E+03	8.224827E-18	1.193920E-18
6.230000E+03	8.163368E-18	1.183148E-18
6.240000E+03	8.102690E-18	1.172611E-18
6.250000E+03	8.042711E-18	1.162281E-18
6.260000E+03	7.983461E-18	1.152149E-18
6.270000E+03	7.925073E-18	1.142221E-18
6.280000E+03	7.867682E-18	1.132503E-18
6.290000E+03	7.811308E-18	1.122986E-18
6.300000E+03	7.755970E-18	1.113662E-18
6.310000E+03	7.702014E-18	1.104570E-18
6.320000E+03	7.649236E-18	1.095672E-18
6.330000E+03	7.598088E-18	1.087024E-18
6.340000E+03	7.548473E-18	1.078602E-18
6.350000E+03	7.500514E-18	1.070419E-18
6.360000E+03	7.454546E-18	1.062514E-18
6.370000E+03	7.410583E-18	1.054883E-18
6.380000E+03	7.368742E-18	1.047537E-18
6.390000E+03	7.329143E-18	1.040488E-18
6.400000E+03	7.292014E-18	1.033764E-18
6.410000E+03	7.257257E-18	1.027346E-18
6.420000E+03	7.224668E-18	1.021202E-18
6.430000E+03	7.194147E-18	1.015313E-18
6.440000E+03	7.165600E-18	1.009664E-18
6.450000E+03	7.138927E-18	1.004238E-18
6.460000E+03	7.113924E-18	9.990038E-19
6.470000E+03	7.090492E-18	9.939458E-19
6.480000E+03	7.068533E-18	9.890485E-19
6.490000E+03	7.048058E-18	9.843122E-19
6.500000E+03	7.028968E-18	9.797219E-19
6.510000E+03	7.011162E-18	9.752625E-19
6.520000E+03	6.994762E-18	9.709501E-19
6.530000E+03	6.979554E-18	9.667545E-19
6.540000E+03	6.965657E-18	9.626916E-19
6.550000E+03	6.952968E-18	9.587469E-19
6.560000E+03	6.941606E-18	9.549363E-19
6.570000E+03	6.931466E-18	9.512451E-19
6.580000E+03	6.922553E-18	9.476740E-19
6.590000E+03	6.914872E-18	9.442237E-19
6.600000E+03	6.908540E-18	9.409101E-19
6.610000E+03	6.903336E-18	9.377031E-19
6.620000E+03	6.899488E-18	9.346340E-19
6.630000E+03	6.896886E-18	9.316881E-19
6.640000E+03	6.895531E-18	9.288660E-19
6.650000E+03	6.895539E-18	9.261834E-19
6.660000E+03	6.896681E-18	9.236102E-19
6.670000E+03	6.899186E-18	9.211776E-19
6.680000E+03	6.902938E-18	9.188706E-19
6.690000E+03	6.907936E-18	9.166895E-19
6.700000E+03	6.914293E-18	9.146503E-19
6.710000E+03	6.921891E-18	9.127376E-19
6.720000E+03	6.930725E-18	9.109515E-19
6.730000E+03	6.940789E-18	9.092920E-19
6.740000E+03	6.952200E-18	9.077747E-19
6.750000E+03	6.964831E-18	9.063837E-19
6.760000E+03	6.978676E-18	9.051185E-19
6.770000E+03	6.993850E-18	9.039944E-19
6.780000E+03	7.010222E-18	9.029949E-19
6.790000E+03	7.027784E-18	9.021191E-19
6.800000E+03	7.046650E-18	9.013818E-19
6.810000E+03	7.066561E-18	9.007498E-19
6.820000E+03	7.087755E-18	9.002537E-19
6.830000E+03	7.110225E-18	8.998920E-19
6.840000E+03	7.133701E-18	8.996307E-19
6.850000E+03	7.158426E-18	8.995005E-19
6.860000E+03	7.184260E-18	8.994830E-19
6.870000E+03	7.211186E-18	8.995764E-19
6.880000E+03	7.239190E-18	8.997786E-19
6.890000E+03	7.268256E-18	9.000874E-19
6.900000E+03	7.298504E-18	9.005175E-19
6.910000E+03	7.329648E-18	9.010336E-19
6.920000E+03	7.361943E-18	9.016673E-19
6.930000E+03	7.395100E-18	9.023829E-19
6.940000E+03	7.429378E-18	9.032125E-19
6.950000E+03	7.464484E-18	9.041207E-19
6.960000E+03	7.500682E-18	9.051400E-19
6.970000E+03	7.537675E-18	9.062349E-19
6.980000E+03	7.575589E-18	9.074213E-19
6.990000E+03	7.614409E-18	9.086984E-19
7.000000E+03	7.653976E-18	9.100477E-19
7.010000E+03	7.694571E-18	9.115040E-19
7.020000E+03	7.735886E-18	9.130313E-19
7.030000E+03	7.777906E-18	9.146293E-19
7.040000E+03	7.820770E-18	9.163155E-19
7.050000E+03	7.864470E-18	9.180901E-19
7.060000E+03	7.908842E-18	9.199349E-19
7.070000E+03	7.953874E-18	9.218499E-19
7.080000E+03	7.999715E-18	9.238537E-19
7.090000E+03	8.046200E-18	9.259281E-19
7.100000E+03	8.093320E-18	9.280732E-19
7.110000E+03	8.141066E-18	9.302891E-19
7.120000E+03	8.189598E-18	9.325949E-19
7.130000E+03	8.238578E-18	9.349529E-19
7.140000E+03	8.288334E-18	9.374014E-19
7.150000E+03	8.338523E-18	9.399020E-19
7.160000E+03	8.389307E-18	9.424740E-19
7.170000E+03	8.440682E-18	9.451174E-19
7.180000E+03	8.492643E-18	9.478322E-19
7.190000E+03	8.545006E-18	9.505987E-19
7.200000E+03	8.597942E-18	9.534365E-19
7.210000E+03	8.651447E-18	9.563459E-19
7.220000E+03	8.705331E-18	9.593067E-19
7.230000E+03	8.759584E-18	9.623188E-19
7.240000E+03	8.814384E-18	9.654031E-19
7.250000E+03	8.869533E-18	9.685392E-19
7.260000E+03	8.925021E-18	9.717275E-19
7.270000E+03	8.981029E-18	9.749897E-19
7.280000E+03	9.037354E-18	9.783055E-19
7.290000E+03	9.093982E-18	9.816755E-19
7.300000E+03	9.151301E-18	9.851443E-19
7.310000E+03	9.208695E-18	9.886477E-19
7.320000E+03	9.266762E-18	9.922527E-19
7.330000E+03	9.325077E-18	9.959163E-19
7.340000E+03	9.384045E-18	9.996844E-19
7.350000E+03	9.443445E-18	1.003536E-18
7.360000E+03	9.503477E-18	1.007494E-18
7.370000E+03	9.564352E-18	1.011583E-18
7.380000E+03	9.625845E-18	1.015781E-18
7.390000E+03	9.688615E-18	1.020159E-18
7.400000E+03	9.752445E-18	1.024693E-18
7.410000E+03	9.817335E-18	1.029383E-18
7.420000E+03	9.884213E-18	1.034327E-18
7.430000E+03	9.952402E-18	1.039451E-18
7.440000E+03	1.002262E-17	1.044828E-18
7.450000E+03	1.009490E-17	1.050457E-18
7.460000E+03	1.016877E-17	1.056287E-18
7.470000E+03	1.024400E-17	1.062289E-18
7.480000E+03	1.032059E-17	1.068457E-18
7.490000E+03	1.039829E-17	1.074760E-18
7.500000E+03	1.047707E-17	1.081191E-18
7.510000E+03	1.055667E-17	1.087715E-18
7.520000E+03	1.063680E-17	1.094297E-18
7.530000E+03	1.071742E-17	1.100926E-18
7.540000E+03	1.079849E-17	1.107592E-18
7.550000E+03	1.087971E-17	1.114256E-18
7.560000E+03	1.096128E-17	1.120935E-18
7.570000E+03	1.104261E-17	1.127561E-18
7.580000E+03	1.112420E-17	1.134181E-18
7.590000E+03	1.120570E-17	1.140754E-18
7.600000E+03	1.128677E-17	1.147243E-18
7.610000E+03	1.136762E-17	1.153666E-18
7.620000E+03	1.144790E-17	1.159984E-18
7.630000E+03	1.152782E-17	1.166219E-18
7.640000E+03	1.160731E-17	1.172363E-18
7.650000E+03	1.168600E-17	1.178379E-18
7.660000E+03	1.176410E-17	1.184292E-18
7.670000E+03	1.184123E-17	1.190066E-18
7.680000E+03	1.191762E-17	1.195727E-18
7.690000E+03	1.199318E-17	1.201271E-18
7.700000E+03	1.206751E-17	1.206663E-18
7.710000E+03	1.214085E-17	1.211931E-18
7.720000E+03	1.221310E-17	1.217073E-18
7.730000E+03	1.228418E-17	1.222086E-18
7.740000E+03	1.235401E-17	1.226968E-18
7.750000E+03	1.242249E-17	1.231714E-18
7.760000E+03	1.248953E-17	1.236321E-18
