#wls	flux	fluxerr
1.600000E+03	1.221935E-16	1.263231E-16
1.640000E+03	1.266859E-16	1.290996E-16
1.680000E+03	1.311346E-16	1.316534E-16
1.720000E+03	1.355042E-16	1.339467E-16
1.760000E+03	1.397685E-16	1.359530E-16
1.800000E+03	1.438835E-16	1.376305E-16
1.840000E+03	1.478147E-16	1.389497E-16
1.880000E+03	1.515232E-16	1.398797E-16
1.920000E+03	1.549529E-16	1.403775E-16
1.960000E+03	1.580580E-16	1.404134E-16
2.000000E+03	1.607898E-16	1.399598E-16
2.040000E+03	1.630977E-16	1.389916E-16
2.080000E+03	1.649181E-16	1.374778E-16
2.120000E+03	1.662009E-16	1.354043E-16
2.160000E+03	1.668754E-16	1.327459E-16
2.200000E+03	1.668785E-16	1.294899E-16
2.240000E+03	1.661148E-16	1.256060E-16
2.280000E+03	1.645097E-16	1.210882E-16
2.320000E+03	1.621140E-16	1.160280E-16
2.360000E+03	1.590136E-16	1.105386E-16
2.400000E+03	1.552693E-16	1.047107E-16
2.440000E+03	1.509223E-16	9.861794E-17
2.480000E+03	1.460078E-16	9.232760E-17
2.520000E+03	1.405714E-16	8.591098E-17
2.560000E+03	1.346499E-16	7.943045E-17
2.600000E+03	1.282987E-16	7.295581E-17
2.640000E+03	1.215678E-16	6.654878E-17
2.680000E+03	1.145072E-16	6.026611E-17
2.720000E+03	1.071863E-16	5.416910E-17
2.760000E+03	9.967160E-17	4.831020E-17
2.800000E+03	9.203704E-17	4.273807E-17
2.840000E+03	8.436104E-17	3.749506E-17
2.880000E+03	7.673083E-17	3.261854E-17
2.920000E+03	6.924934E-17	2.814282E-17
2.960000E+03	6.203039E-17	2.409609E-17
3.000000E+03	5.517339E-17	2.049066E-17
3.010000E+03	5.352486E-17	1.965796E-17
3.020000E+03	5.190682E-17	1.885315E-17
3.030000E+03	5.031726E-17	1.807491E-17
3.040000E+03	4.875793E-17	1.732328E-17
3.050000E+03	4.723137E-17	1.659856E-17
3.060000E+03	4.573575E-17	1.589946E-17
3.070000E+03	4.427340E-17	1.522620E-17
3.080000E+03	4.284446E-17	1.457818E-17
3.090000E+03	4.144906E-17	1.395482E-17
3.100000E+03	4.008731E-17	1.335554E-17
3.110000E+03	3.876087E-17	1.278026E-17
3.120000E+03	3.746884E-17	1.222806E-17
3.130000E+03	3.621186E-17	1.169853E-17
3.140000E+03	3.498973E-17	1.119100E-17
3.150000E+03	3.380224E-17	1.070481E-17
3.160000E+03	3.264976E-17	1.023949E-17
3.170000E+03	3.153252E-17	9.794541E-18
3.180000E+03	3.044892E-17	9.368897E-18
3.190000E+03	2.940027E-17	8.962415E-18
3.200000E+03	2.838544E-17	8.574225E-18
3.210000E+03	2.740441E-17	8.203801E-18
3.220000E+03	2.645655E-17	7.850459E-18
3.230000E+03	2.554080E-17	7.513404E-18
3.240000E+03	2.465782E-17	7.192369E-18
3.250000E+03	2.380563E-17	6.886336E-18
3.260000E+03	2.298476E-17	6.595029E-18
3.270000E+03	2.219441E-17	6.317809E-18
3.280000E+03	2.143309E-17	6.053869E-18
3.290000E+03	2.070108E-17	5.802914E-18
3.300000E+03	1.999692E-17	5.564181E-18
3.310000E+03	1.932013E-17	5.337207E-18
3.320000E+03	1.866993E-17	5.121455E-18
3.330000E+03	1.804579E-17	4.916477E-18
3.340000E+03	1.744662E-17	4.721696E-18
3.350000E+03	1.687166E-17	4.536633E-18
3.360000E+03	1.632012E-17	4.360828E-18
3.370000E+03	1.579147E-17	4.193896E-18
3.380000E+03	1.528472E-17	4.035352E-18
3.390000E+03	1.479914E-17	3.884791E-18
3.400000E+03	1.433399E-17	3.741824E-18
3.410000E+03	1.388840E-17	3.606036E-18
3.420000E+03	1.346169E-17	3.477079E-18
3.430000E+03	1.305319E-17	3.354622E-18
3.440000E+03	1.266213E-17	3.238308E-18
3.450000E+03	1.228788E-17	3.127841E-18
3.460000E+03	1.192970E-17	3.022902E-18
3.470000E+03	1.158691E-17	2.923192E-18
3.480000E+03	1.125883E-17	2.828431E-18
3.490000E+03	1.094471E-17	2.738324E-18
3.500000E+03	1.064410E-17	2.652657E-18
3.510000E+03	1.035630E-17	2.571170E-18
3.520000E+03	1.008058E-17	2.493594E-18
3.530000E+03	9.816133E-18	2.419657E-18
3.540000E+03	9.562551E-18	2.349183E-18
3.550000E+03	9.319136E-18	2.281938E-18
3.560000E+03	9.085072E-18	2.217659E-18
3.570000E+03	8.859886E-18	2.156177E-18
3.580000E+03	8.643051E-18	2.097312E-18
3.590000E+03	8.433997E-18	2.040879E-18
3.600000E+03	8.232126E-18	1.986690E-18
3.610000E+03	8.037193E-18	1.934646E-18
3.620000E+03	7.848812E-18	1.884617E-18
3.630000E+03	7.666621E-18	1.836481E-18
3.640000E+03	7.490620E-18	1.790208E-18
3.650000E+03	7.320584E-18	1.745714E-18
3.660000E+03	7.156356E-18	1.702933E-18
3.670000E+03	6.997835E-18	1.661815E-18
3.680000E+03	6.844908E-18	1.622309E-18
3.690000E+03	6.697397E-18	1.584351E-18
3.700000E+03	6.555290E-18	1.547915E-18
3.710000E+03	6.418338E-18	1.512925E-18
3.720000E+03	6.286458E-18	1.479341E-18
3.730000E+03	6.159612E-18	1.447138E-18
3.740000E+03	6.037494E-18	1.416228E-18
3.750000E+03	5.920159E-18	1.386608E-18
3.760000E+03	5.807305E-18	1.358194E-18
3.770000E+03	5.698928E-18	1.330972E-18
3.780000E+03	5.594871E-18	1.304894E-18
3.790000E+03	5.494982E-18	1.279912E-18
3.800000E+03	5.399155E-18	1.255991E-18
3.810000E+03	5.307240E-18	1.233088E-18
3.820000E+03	5.219134E-18	1.211168E-18
3.830000E+03	5.134732E-18	1.190200E-18
3.840000E+03	5.053890E-18	1.170141E-18
3.850000E+03	4.976508E-18	1.150962E-18
3.860000E+03	4.902489E-18	1.132633E-18
3.870000E+03	4.831698E-18	1.115117E-18
3.880000E+03	4.764042E-18	1.098387E-18
3.890000E+03	4.699430E-18	1.082415E-18
3.900000E+03	4.637738E-18	1.067169E-18
3.910000E+03	4.578881E-18	1.052624E-18
3.920000E+03	4.522741E-18	1.038748E-18
3.930000E+03	4.469275E-18	1.025528E-18
3.940000E+03	4.418371E-18	1.012934E-18
3.950000E+03	4.369955E-18	1.000946E-18
3.960000E+03	4.323890E-18	9.895284E-19
3.970000E+03	4.280174E-18	9.786780E-19
3.980000E+03	4.238676E-18	9.683618E-19
3.990000E+03	4.199333E-18	9.585631E-19
4.000000E+03	4.162055E-18	9.492584E-19
4.010000E+03	4.126816E-18	9.404394E-19
4.020000E+03	4.093498E-18	9.320772E-19
4.030000E+03	4.062081E-18	9.241649E-19
4.040000E+03	4.032453E-18	9.166752E-19
4.050000E+03	4.004597E-18	9.096026E-19
4.060000E+03	3.978409E-18	9.029215E-19
4.070000E+03	3.953846E-18	8.966205E-19
4.080000E+03	3.930867E-18	8.906891E-19
4.090000E+03	3.909435E-18	8.851172E-19
4.100000E+03	3.889454E-18	8.798820E-19
4.110000E+03	3.870890E-18	8.749745E-19
4.120000E+03	3.853683E-18	8.703799E-19
4.130000E+03	3.837802E-18	8.660903E-19
4.140000E+03	3.823219E-18	8.620985E-19
4.150000E+03	3.809850E-18	8.583844E-19
4.160000E+03	3.797700E-18	8.549484E-19
4.170000E+03	3.786688E-18	8.517715E-19
4.180000E+03	3.776792E-18	8.488483E-19
4.190000E+03	3.767994E-18	8.461738E-19
4.200000E+03	3.760219E-18	8.437304E-19
4.210000E+03	3.753449E-18	8.415140E-19
4.220000E+03	3.747642E-18	8.395143E-19
4.230000E+03	3.742813E-18	8.377342E-19
4.240000E+03	3.738863E-18	8.361515E-19
4.250000E+03	3.735811E-18	8.347697E-19
4.260000E+03	3.733590E-18	8.335736E-19
4.270000E+03	3.732220E-18	8.325674E-19
4.280000E+03	3.731609E-18	8.317301E-19
4.290000E+03	3.731749E-18	8.310601E-19
4.300000E+03	3.732637E-18	8.305561E-19
4.310000E+03	3.734181E-18	8.301977E-19
4.320000E+03	3.736408E-18	8.299906E-19
4.330000E+03	3.739199E-18	8.299083E-19
4.340000E+03	3.742582E-18	8.299569E-19
4.350000E+03	3.746409E-18	8.301037E-19
4.360000E+03	3.750681E-18	8.303485E-19
4.370000E+03	3.755486E-18	8.307110E-19
4.380000E+03	3.760826E-18	8.311916E-19
4.390000E+03	3.766735E-18	8.317976E-19
4.400000E+03	3.773219E-18	8.325301E-19
4.410000E+03	3.780223E-18	8.333770E-19
4.420000E+03	3.787815E-18	8.343531E-19
4.430000E+03	3.795945E-18	8.354468E-19
4.440000E+03	3.804622E-18	8.366602E-19
4.450000E+03	3.813826E-18	8.379886E-19
4.460000E+03	3.823571E-18	8.394344E-19
4.470000E+03	3.833808E-18	8.409869E-19
4.480000E+03	3.844583E-18	8.426555E-19
4.490000E+03	3.855850E-18	8.444297E-19
4.500000E+03	3.867595E-18	8.463058E-19
4.510000E+03	3.879869E-18	8.482943E-19
4.520000E+03	3.892596E-18	8.503780E-19
4.530000E+03	3.905797E-18	8.525608E-19
4.540000E+03	3.919494E-18	8.548467E-19
4.550000E+03	3.933647E-18	8.572259E-19
4.560000E+03	3.948280E-18	8.597029E-19
4.570000E+03	3.963354E-18	8.622681E-19
4.580000E+03	3.978896E-18	8.649264E-19
4.590000E+03	3.994901E-18	8.676756E-19
4.600000E+03	4.011364E-18	8.705137E-19
4.610000E+03	4.028250E-18	8.734313E-19
4.620000E+03	4.045623E-18	8.764417E-19
4.630000E+03	4.063412E-18	8.795281E-19
4.640000E+03	4.081652E-18	8.826966E-19
4.650000E+03	4.100341E-18	8.859456E-19
4.660000E+03	4.119444E-18	8.892663E-19
4.670000E+03	4.139033E-18	8.926727E-19
4.680000E+03	4.159037E-18	8.961484E-19
4.690000E+03	4.179493E-18	8.996999E-19
4.700000E+03	4.200477E-18	9.033421E-19
4.710000E+03	4.221956E-18	9.070666E-19
4.720000E+03	4.243971E-18	9.108809E-19
4.730000E+03	4.266565E-18	9.147926E-19
4.740000E+03	4.289744E-18	9.188018E-19
4.750000E+03	4.313515E-18	9.229085E-19
4.760000E+03	4.337963E-18	9.271293E-19
4.770000E+03	4.363018E-18	9.314482E-19
4.780000E+03	4.388769E-18	9.358824E-19
4.790000E+03	4.415225E-18	9.404325E-19
4.800000E+03	4.442357E-18	9.450911E-19
4.810000E+03	4.470257E-18	9.498759E-19
4.820000E+03	4.498895E-18	9.547797E-19
4.830000E+03	4.528285E-18	9.598035E-19
4.840000E+03	4.558438E-18	9.649487E-19
4.850000E+03	4.589368E-18	9.702163E-19
4.860000E+03	4.621171E-18	9.756256E-19
4.870000E+03	4.653735E-18	9.811515E-19
4.880000E+03	4.687159E-18	9.868132E-19
4.890000E+03	4.721413E-18	9.926033E-19
4.900000E+03	4.756557E-18	9.985325E-19
4.910000E+03	4.792560E-18	1.004593E-18
4.920000E+03	4.829437E-18	1.010787E-18
4.930000E+03	4.867247E-18	1.017124E-18
4.940000E+03	4.905915E-18	1.023588E-18
4.950000E+03	4.945499E-18	1.030189E-18
4.960000E+03	4.986014E-18	1.036929E-18
4.970000E+03	5.027473E-18	1.043809E-18
4.980000E+03	5.069843E-18	1.050820E-18
4.990000E+03	5.113137E-18	1.057963E-18
5.000000E+03	5.157415E-18	1.065250E-18
5.010000E+03	5.202592E-18	1.072660E-18
5.020000E+03	5.248777E-18	1.080216E-18
5.030000E+03	5.295884E-18	1.087896E-18
5.040000E+03	5.343920E-18	1.095702E-18
5.050000E+03	5.392947E-18	1.103643E-18
5.060000E+03	5.442923E-18	1.111710E-18
5.070000E+03	5.493855E-18	1.119903E-18
5.080000E+03	5.545698E-18	1.128211E-18
5.090000E+03	5.598512E-18	1.136644E-18
5.100000E+03	5.652302E-18	1.145202E-18
5.110000E+03	5.706964E-18	1.153862E-18
5.120000E+03	5.762557E-18	1.162635E-18
5.130000E+03	5.819082E-18	1.171519E-18
5.140000E+03	5.876543E-18	1.180513E-18
5.150000E+03	5.934883E-18	1.189606E-18
5.160000E+03	5.994101E-18	1.198795E-18
5.170000E+03	6.054137E-18	1.208067E-18
5.180000E+03	6.115103E-18	1.217444E-18
5.190000E+03	6.176879E-18	1.226901E-18
5.200000E+03	6.239457E-18	1.236435E-18
5.210000E+03	6.302830E-18	1.246044E-18
5.220000E+03	6.367049E-18	1.255737E-18
5.230000E+03	6.431981E-18	1.265487E-18
5.240000E+03	6.497611E-18	1.275292E-18
5.250000E+03	6.564051E-18	1.285171E-18
5.260000E+03	6.631094E-18	1.295084E-18
5.270000E+03	6.698849E-18	1.305052E-18
5.280000E+03	6.767230E-18	1.315058E-18
5.290000E+03	6.836213E-18	1.325096E-18
5.300000E+03	6.905839E-18	1.335174E-18
5.310000E+03	6.975946E-18	1.345260E-18
5.320000E+03	7.046570E-18	1.355361E-18
5.330000E+03	7.117675E-18	1.365470E-18
5.340000E+03	7.189226E-18	1.375579E-18
5.350000E+03	7.261255E-18	1.385693E-18
5.360000E+03	7.333575E-18	1.395777E-18
5.370000E+03	7.406213E-18	1.405835E-18
5.380000E+03	7.479117E-18	1.415857E-18
5.390000E+03	7.552161E-18	1.425818E-18
5.400000E+03	7.625437E-18	1.435734E-18
5.410000E+03	7.698810E-18	1.445580E-18
5.420000E+03	7.772141E-18	1.455328E-18
5.430000E+03	7.845357E-18	1.464964E-18
5.440000E+03	7.918467E-18	1.474490E-18
5.450000E+03	7.991233E-18	1.483859E-18
5.460000E+03	8.063655E-18	1.493072E-18
5.470000E+03	8.135648E-18	1.502112E-18
5.480000E+03	8.206958E-18	1.510932E-18
5.490000E+03	8.277491E-18	1.519514E-18
5.500000E+03	8.347230E-18	1.527857E-18
5.510000E+03	8.415993E-18	1.535926E-18
5.520000E+03	8.483587E-18	1.543687E-18
5.530000E+03	8.549818E-18	1.551106E-18
5.540000E+03	8.614747E-18	1.558197E-18
5.550000E+03	8.678000E-18	1.564892E-18
5.560000E+03	8.739547E-18	1.571189E-18
5.570000E+03	8.799182E-18	1.577056E-18
5.580000E+03	8.856788E-18	1.582473E-18
5.590000E+03	8.912245E-18	1.587424E-18
5.600000E+03	8.965347E-18	1.591879E-18
5.610000E+03	9.016068E-18	1.595837E-18
5.620000E+03	9.064204E-18	1.599269E-18
5.630000E+03	9.109551E-18	1.602147E-18
5.640000E+03	9.152188E-18	1.604492E-18
5.650000E+03	9.191920E-18	1.606279E-18
5.660000E+03	9.228555E-18	1.607484E-18
5.670000E+03	9.262097E-18	1.608117E-18
5.680000E+03	9.292558E-18	1.608191E-18
5.690000E+03	9.319669E-18	1.607671E-18
5.700000E+03	9.343456E-18	1.606574E-18
5.710000E+03	9.363956E-18	1.604917E-18
5.720000E+03	9.381020E-18	1.602689E-18
5.730000E+03	9.394702E-18	1.599910E-18
5.740000E+03	9.404871E-18	1.596572E-18
5.750000E+03	9.411601E-18	1.592702E-18
5.760000E+03	9.414877E-18	1.588309E-18
5.770000E+03	9.414796E-18	1.583423E-18
5.780000E+03	9.411162E-18	1.578025E-18
5.790000E+03	9.404293E-18	1.572181E-18
5.800000E+03	9.394011E-18	1.565872E-18
5.810000E+03	9.380452E-18	1.559135E-18
5.820000E+03	9.363658E-18	1.551987E-18
5.830000E+03	9.343684E-18	1.544447E-18
5.840000E+03	9.320690E-18	1.536554E-18
5.850000E+03	9.294748E-18	1.528327E-18
5.860000E+03	9.265932E-18	1.519787E-18
5.870000E+03	9.234225E-18	1.510939E-18
5.880000E+03	9.199921E-18	1.501837E-18
5.890000E+03	9.163014E-18	1.492486E-18
5.900000E+03	9.123707E-18	1.482923E-18
5.910000E+03	9.082003E-18	1.473152E-18
5.920000E+03	9.038115E-18	1.463211E-18
5.930000E+03	8.992155E-18	1.453118E-18
5.940000E+03	8.944237E-18	1.442892E-18
5.950000E+03	8.894480E-18	1.432552E-18
5.960000E+03	8.843001E-18	1.422115E-18
5.970000E+03	8.790021E-18	1.411613E-18
5.980000E+03	8.735454E-18	1.401030E-18
5.990000E+03	8.679623E-18	1.390414E-18
6.000000E+03	8.622542E-18	1.379760E-18
6.010000E+03	8.564328E-18	1.369082E-18
6.020000E+03	8.505193E-18	1.358407E-18
6.030000E+03	8.445048E-18	1.347714E-18
6.040000E+03	8.384202E-18	1.337043E-18
6.050000E+03	8.322560E-18	1.326372E-18
6.060000E+03	8.260323E-18	1.315724E-18
6.070000E+03	8.197590E-18	1.305105E-18
6.080000E+03	8.134356E-18	1.294505E-18
6.090000E+03	8.070712E-18	1.283929E-18
6.100000E+03	8.006747E-18	1.273381E-18
6.110000E+03	7.942542E-18	1.262864E-18
6.120000E+03	7.878177E-18	1.252381E-18
6.130000E+03	7.813727E-18	1.241933E-18
6.140000E+03	7.749262E-18	1.231523E-18
6.150000E+03	7.684850E-18	1.221151E-18
6.160000E+03	7.620649E-18	1.210833E-18
6.170000E+03	7.556815E-18	1.200586E-18
6.180000E+03	7.493496E-18	1.190423E-18
6.190000E+03	7.430742E-18	1.180346E-18
6.200000E+03	7.368597E-18	1.170352E-18
6.210000E+03	7.307007E-18	1.160426E-18
6.220000E+03	7.246010E-18	1.150567E-18
6.230000E+03	7.185642E-18	1.140775E-18
6.240000E+03	7.125840E-18	1.131034E-18
6.250000E+03	7.066729E-18	1.121358E-18
6.260000E+03	7.008526E-18	1.111777E-18
6.270000E+03	6.951158E-18	1.102275E-18
6.280000E+03	6.894742E-18	1.092867E-18
6.290000E+03	6.839484E-18	1.083582E-18
6.300000E+03	6.785305E-18	1.074405E-18
6.310000E+03	6.732502E-18	1.065380E-18
6.320000E+03	6.681179E-18	1.056523E-18
6.330000E+03	6.631251E-18	1.047816E-18
6.340000E+03	6.583010E-18	1.039306E-18
6.350000E+03	6.536553E-18	1.031007E-18
6.360000E+03	6.491887E-18	1.022918E-18
6.370000E+03	6.449111E-18	1.015055E-18
6.380000E+03	6.408509E-18	1.007461E-18
6.390000E+03	6.369990E-18	1.000122E-18
6.400000E+03	6.333654E-18	9.930537E-19
6.410000E+03	6.299691E-18	9.862848E-19
6.420000E+03	6.267824E-18	9.797720E-19
6.430000E+03	6.237871E-18	9.734869E-19
6.440000E+03	6.209742E-18	9.674156E-19
6.450000E+03	6.183351E-18	9.615447E-19
6.460000E+03	6.158512E-18	9.558461E-19
6.470000E+03	6.135230E-18	9.503210E-19
6.480000E+03	6.113416E-18	9.449561E-19
6.490000E+03	6.093073E-18	9.397527E-19
6.500000E+03	6.074110E-18	9.346975E-19
6.510000E+03	6.056531E-18	9.297918E-19
6.520000E+03	6.040338E-18	9.250367E-19
6.530000E+03	6.025440E-18	9.204190E-19
6.540000E+03	6.011933E-18	9.159543E-19
6.550000E+03	5.999820E-18	9.116437E-19
6.560000E+03	5.989008E-18	9.074736E-19
6.570000E+03	5.979595E-18	9.034595E-19
6.580000E+03	5.971485E-18	8.995878E-19
6.590000E+03	5.964680E-18	8.958592E-19
6.600000E+03	5.959278E-18	8.922890E-19
6.610000E+03	5.955085E-18	8.888489E-19
6.620000E+03	5.952394E-18	8.855829E-19
6.630000E+03	5.950913E-18	8.824480E-19
6.640000E+03	5.950838E-18	8.794736E-19
6.650000E+03	5.952070E-18	8.766456E-19
6.660000E+03	5.954609E-18	8.739642E-19
6.670000E+03	5.958554E-18	8.714443E-19
6.680000E+03	5.963804E-18	8.690712E-19
6.690000E+03	5.970359E-18	8.668450E-19
6.700000E+03	5.978216E-18	8.647657E-19
6.710000E+03	5.987477E-18	8.628478E-19
6.720000E+03	5.997934E-18	8.610616E-19
6.730000E+03	6.009790E-18	8.594362E-19
6.740000E+03	6.022941E-18	8.579566E-19
6.750000E+03	6.037383E-18	8.566221E-19
6.760000E+03	6.053113E-18	8.554322E-19
6.770000E+03	6.070127E-18	8.543860E-19
6.780000E+03	6.088529E-18	8.534979E-19
6.790000E+03	6.108100E-18	8.527369E-19
6.800000E+03	6.128943E-18	8.521170E-19
6.810000E+03	6.151052E-18	8.516371E-19
6.820000E+03	6.174423E-18	8.512961E-19
6.830000E+03	6.199050E-18	8.510927E-19
6.840000E+03	6.224928E-18	8.510258E-19
6.850000E+03	6.252051E-18	8.510939E-19
6.860000E+03	6.280298E-18	8.512802E-19
6.870000E+03	6.309776E-18	8.515987E-19
6.880000E+03	6.340478E-18	8.520480E-19
6.890000E+03	6.372281E-18	8.526110E-19
6.900000E+03	6.405292E-18	8.533018E-19
6.910000E+03	6.439507E-18	8.541192E-19
6.920000E+03	6.474797E-18	8.550458E-19
6.930000E+03	6.511152E-18	8.560801E-19
6.940000E+03	6.548686E-18	8.572369E-19
6.950000E+03	6.587269E-18	8.584988E-19
6.960000E+03	6.626890E-18	8.598645E-19
6.970000E+03	6.667669E-18	8.613493E-19
6.980000E+03	6.709471E-18	8.629358E-19
6.990000E+03	6.752287E-18	8.646230E-19
7.000000E+03	6.795978E-18	8.663932E-19
7.010000E+03	6.840798E-18	8.682792E-19
7.020000E+03	6.886609E-18	8.702636E-19
7.030000E+03	6.933404E-18	8.723459E-19
7.040000E+03	6.981040E-18	8.745083E-19
7.050000E+03	7.029644E-18	8.767676E-19
7.060000E+03	7.079072E-18	8.791060E-19
7.070000E+03	7.129597E-18	8.815582E-19
7.080000E+03	7.180790E-18	8.840714E-19
7.090000E+03	7.232928E-18	8.866805E-19
7.100000E+03	7.285860E-18	8.893678E-19
7.110000E+03	7.339729E-18	8.921511E-19
7.120000E+03	7.394229E-18	8.949942E-19
7.130000E+03	7.449655E-18	8.979334E-19
7.140000E+03	7.505697E-18	9.009321E-19
7.150000E+03	7.562499E-18	9.040086E-19
7.160000E+03	7.620054E-18	9.071630E-19
7.170000E+03	7.678358E-18	9.103955E-19
7.180000E+03	7.737243E-18	9.136874E-19
7.190000E+03	7.796697E-18	9.170384E-19
7.200000E+03	7.856875E-18	9.204681E-19
7.210000E+03	7.917603E-18	9.239572E-19
7.220000E+03	7.979039E-18	9.275258E-19
7.230000E+03	8.040833E-18	9.311346E-19
7.240000E+03	8.103314E-18	9.348237E-19
7.250000E+03	8.166299E-18	9.385737E-19
7.260000E+03	8.229775E-18	9.423849E-19
7.270000E+03	8.293726E-18	9.462580E-19
7.280000E+03	8.358139E-18	9.501934E-19
7.290000E+03	8.422996E-18	9.541918E-19
7.300000E+03	8.488468E-18	9.582749E-19
7.310000E+03	8.554166E-18	9.624011E-19
7.320000E+03	8.620639E-18	9.666349E-19
7.330000E+03	8.687686E-18	9.709561E-19
7.340000E+03	8.755098E-18	9.753436E-19
7.350000E+03	8.823451E-18	9.798638E-19
7.360000E+03	8.892338E-18	9.844737E-19
7.370000E+03	8.962357E-18	9.892410E-19
7.380000E+03	9.033305E-18	9.941447E-19
7.390000E+03	9.105388E-18	9.992085E-19
7.400000E+03	9.178822E-18	1.004457E-18
7.410000E+03	9.253617E-18	1.009890E-18
7.420000E+03	9.330219E-18	1.015557E-18
7.430000E+03	9.408875E-18	1.021484E-18
7.440000E+03	9.489395E-18	1.027647E-18
7.450000E+03	9.571802E-18	1.034048E-18
7.460000E+03	9.656121E-18	1.040686E-18
7.470000E+03	9.742142E-18	1.047536E-18
7.480000E+03	9.829644E-18	1.054571E-18
7.490000E+03	9.918391E-18	1.061763E-18
7.500000E+03	1.000838E-17	1.069106E-18
7.510000E+03	1.009934E-17	1.076569E-18
7.520000E+03	1.019103E-17	1.084119E-18
7.530000E+03	1.028365E-17	1.091776E-18
7.540000E+03	1.037668E-17	1.099478E-18
7.550000E+03	1.047006E-17	1.107216E-18
7.560000E+03	1.056376E-17	1.114981E-18
7.570000E+03	1.065772E-17	1.122762E-18
7.580000E+03	1.075189E-17	1.130551E-18
7.590000E+03	1.084594E-17	1.138308E-18
7.600000E+03	1.093981E-17	1.146024E-18
7.610000E+03	1.103370E-17	1.153718E-18
7.620000E+03	1.112727E-17	1.161350E-18
7.630000E+03	1.122072E-17	1.168941E-18
7.640000E+03	1.131342E-17	1.176423E-18
7.650000E+03	1.140585E-17	1.183846E-18
7.660000E+03	1.149765E-17	1.191171E-18
7.670000E+03	1.158872E-17	1.198390E-18
7.680000E+03	1.167897E-17	1.205496E-18
7.690000E+03	1.176863E-17	1.212512E-18
7.700000E+03	1.185729E-17	1.219399E-18
7.710000E+03	1.194486E-17	1.226150E-18
7.720000E+03	1.203155E-17	1.232790E-18
7.730000E+03	1.211728E-17	1.239313E-18
7.740000E+03	1.220162E-17	1.245679E-18
7.750000E+03	1.228479E-17	1.251914E-18
7.760000E+03	1.236671E-17	1.258010E-18
