#wls	flux	fluxerr
1.600000E+03	1.081051E-16	1.134755E-16
1.640000E+03	1.119727E-16	1.159532E-16
1.680000E+03	1.157934E-16	1.182358E-16
1.720000E+03	1.195512E-16	1.203054E-16
1.760000E+03	1.232021E-16	1.221175E-16
1.800000E+03	1.267480E-16	1.236754E-16
1.840000E+03	1.301257E-16	1.249199E-16
1.880000E+03	1.333177E-16	1.258398E-16
1.920000E+03	1.362792E-16	1.263996E-16
1.960000E+03	1.389746E-16	1.265762E-16
2.000000E+03	1.413539E-16	1.263366E-16
2.040000E+03	1.433779E-16	1.256614E-16
2.080000E+03	1.449950E-16	1.245243E-16
2.120000E+03	1.461659E-16	1.229138E-16
2.160000E+03	1.468314E-16	1.208061E-16
2.200000E+03	1.469579E-16	1.182034E-16
2.240000E+03	1.465064E-16	1.151070E-16
2.280000E+03	1.454722E-16	1.115490E-16
2.320000E+03	1.438620E-16	1.075711E-16
2.360000E+03	1.416763E-16	1.032112E-16
2.400000E+03	1.389429E-16	9.852735E-17
2.440000E+03	1.356818E-16	9.357066E-17
2.480000E+03	1.319155E-16	8.839297E-17
2.520000E+03	1.276701E-16	8.304675E-17
2.560000E+03	1.229701E-16	7.758183E-17
2.600000E+03	1.178580E-16	7.205647E-17
2.640000E+03	1.123709E-16	6.652213E-17
2.680000E+03	1.065504E-16	6.102899E-17
2.720000E+03	1.004520E-16	5.563046E-17
2.760000E+03	9.412878E-17	5.037309E-17
2.800000E+03	8.764249E-17	4.530195E-17
2.840000E+03	8.106003E-17	4.045819E-17
2.880000E+03	7.445584E-17	3.587953E-17
2.920000E+03	6.792788E-17	3.160726E-17
2.960000E+03	6.157935E-17	2.767633E-17
3.000000E+03	5.550716E-17	2.411072E-17
3.010000E+03	5.404124E-17	2.327750E-17
3.020000E+03	5.259965E-17	2.246820E-17
3.030000E+03	5.118023E-17	2.168147E-17
3.040000E+03	4.978698E-17	2.091854E-17
3.050000E+03	4.841890E-17	2.017854E-17
3.060000E+03	4.707624E-17	1.946110E-17
3.070000E+03	4.576022E-17	1.876627E-17
3.080000E+03	4.447193E-17	1.809402E-17
3.090000E+03	4.321040E-17	1.744349E-17
3.100000E+03	4.197749E-17	1.681495E-17
3.110000E+03	4.077219E-17	1.620754E-17
3.120000E+03	3.959528E-17	1.562110E-17
3.130000E+03	3.844737E-17	1.505542E-17
3.140000E+03	3.732819E-17	1.450992E-17
3.150000E+03	3.623679E-17	1.398379E-17
3.160000E+03	3.517501E-17	1.347731E-17
3.170000E+03	3.414110E-17	1.298936E-17
3.180000E+03	3.313604E-17	1.251991E-17
3.190000E+03	3.215937E-17	1.206836E-17
3.200000E+03	3.121066E-17	1.163414E-17
3.210000E+03	3.028945E-17	1.121669E-17
3.220000E+03	2.939633E-17	1.081587E-17
3.230000E+03	2.853024E-17	1.043088E-17
3.240000E+03	2.769066E-17	1.006121E-17
3.250000E+03	2.687752E-17	9.706473E-18
3.260000E+03	2.609071E-17	9.366297E-18
3.270000E+03	2.532918E-17	9.039989E-18
3.280000E+03	2.459278E-17	8.727185E-18
3.290000E+03	2.388089E-17	8.427376E-18
3.300000E+03	2.319329E-17	8.140195E-18
3.310000E+03	2.252900E-17	7.865028E-18
3.320000E+03	2.188743E-17	7.601416E-18
3.330000E+03	2.126864E-17	7.349132E-18
3.340000E+03	2.067138E-17	7.107509E-18
3.350000E+03	2.009538E-17	6.876233E-18
3.360000E+03	1.954034E-17	6.654983E-18
3.370000E+03	1.900511E-17	6.443172E-18
3.380000E+03	1.848966E-17	6.240598E-18
3.390000E+03	1.799293E-17	6.046721E-18
3.400000E+03	1.751440E-17	5.861196E-18
3.410000E+03	1.705378E-17	5.683766E-18
3.420000E+03	1.661034E-17	5.514032E-18
3.430000E+03	1.618357E-17	5.351687E-18
3.440000E+03	1.577262E-17	5.196308E-18
3.450000E+03	1.537725E-17	5.047688E-18
3.460000E+03	1.499681E-17	4.905502E-18
3.470000E+03	1.463057E-17	4.769389E-18
3.480000E+03	1.427815E-17	4.639123E-18
3.490000E+03	1.393885E-17	4.514383E-18
3.500000E+03	1.361221E-17	4.394919E-18
3.510000E+03	1.329777E-17	4.280498E-18
3.520000E+03	1.299480E-17	4.170807E-18
3.530000E+03	1.270266E-17	4.065562E-18
3.540000E+03	1.242062E-17	3.964460E-18
3.550000E+03	1.214789E-17	3.867186E-18
3.560000E+03	1.188378E-17	3.773456E-18
3.570000E+03	1.162764E-17	3.683013E-18
3.580000E+03	1.137880E-17	3.595587E-18
3.590000E+03	1.113663E-17	3.510938E-18
3.600000E+03	1.090078E-17	3.428909E-18
3.610000E+03	1.067062E-17	3.349263E-18
3.620000E+03	1.044589E-17	3.271877E-18
3.630000E+03	1.022670E-17	3.196750E-18
3.640000E+03	1.001293E-17	3.123816E-18
3.650000E+03	9.804673E-18	3.053063E-18
3.660000E+03	9.601950E-18	2.984473E-18
3.670000E+03	9.404857E-18	2.918043E-18
3.680000E+03	9.213375E-18	2.853742E-18
3.690000E+03	9.027390E-18	2.791505E-18
3.700000E+03	8.847080E-18	2.731363E-18
3.710000E+03	8.672215E-18	2.673223E-18
3.720000E+03	8.502859E-18	2.617079E-18
3.730000E+03	8.338909E-18	2.562880E-18
3.740000E+03	8.180322E-18	2.510593E-18
3.750000E+03	8.026976E-18	2.460160E-18
3.760000E+03	7.878744E-18	2.411524E-18
3.770000E+03	7.735622E-18	2.364669E-18
3.780000E+03	7.597468E-18	2.319534E-18
3.790000E+03	7.464198E-18	2.276080E-18
3.800000E+03	7.335608E-18	2.234229E-18
3.810000E+03	7.211726E-18	2.193977E-18
3.820000E+03	7.092342E-18	2.155249E-18
3.830000E+03	6.977418E-18	2.118020E-18
3.840000E+03	6.866750E-18	2.082218E-18
3.850000E+03	6.760347E-18	2.047837E-18
3.860000E+03	6.657956E-18	2.014788E-18
3.870000E+03	6.559585E-18	1.983065E-18
3.880000E+03	6.465086E-18	1.952617E-18
3.890000E+03	6.374316E-18	1.923391E-18
3.900000E+03	6.287183E-18	1.895352E-18
3.910000E+03	6.203597E-18	1.868466E-18
3.920000E+03	6.123468E-18	1.842700E-18
3.930000E+03	6.046662E-18	1.818007E-18
3.940000E+03	5.973050E-18	1.794342E-18
3.950000E+03	5.902597E-18	1.771690E-18
3.960000E+03	5.835221E-18	1.750021E-18
3.970000E+03	5.770713E-18	1.729267E-18
3.980000E+03	5.709089E-18	1.709428E-18
3.990000E+03	5.650232E-18	1.690466E-18
4.000000E+03	5.594074E-18	1.672357E-18
4.010000E+03	5.540464E-18	1.655050E-18
4.020000E+03	5.489340E-18	1.638525E-18
4.030000E+03	5.440684E-18	1.622772E-18
4.040000E+03	5.394354E-18	1.607746E-18
4.050000E+03	5.350296E-18	1.593428E-18
4.060000E+03	5.308418E-18	1.579789E-18
4.070000E+03	5.268669E-18	1.566809E-18
4.080000E+03	5.230963E-18	1.554461E-18
4.090000E+03	5.195255E-18	1.542730E-18
4.100000E+03	5.161464E-18	1.531589E-18
4.110000E+03	5.129509E-18	1.521012E-18
4.120000E+03	5.099354E-18	1.510986E-18
4.130000E+03	5.070963E-18	1.501499E-18
4.140000E+03	5.044226E-18	1.492517E-18
4.150000E+03	5.019149E-18	1.484040E-18
4.160000E+03	4.995628E-18	1.476035E-18
4.170000E+03	4.973634E-18	1.468493E-18
4.180000E+03	4.953143E-18	1.461404E-18
4.190000E+03	4.934094E-18	1.454750E-18
4.200000E+03	4.916427E-18	1.448512E-18
4.210000E+03	4.900122E-18	1.442682E-18
4.220000E+03	4.885124E-18	1.437244E-18
4.230000E+03	4.871416E-18	1.432191E-18
4.240000E+03	4.858984E-18	1.427518E-18
4.250000E+03	4.847778E-18	1.423209E-18
4.260000E+03	4.837711E-18	1.419237E-18
4.270000E+03	4.828848E-18	1.415622E-18
4.280000E+03	4.821106E-18	1.412338E-18
4.290000E+03	4.814480E-18	1.409381E-18
4.300000E+03	4.808888E-18	1.406728E-18
4.310000E+03	4.804364E-18	1.404388E-18
4.320000E+03	4.800870E-18	1.402349E-18
4.330000E+03	4.798367E-18	1.400597E-18
4.340000E+03	4.796855E-18	1.399134E-18
4.350000E+03	4.796299E-18	1.397947E-18
4.360000E+03	4.796779E-18	1.397060E-18
4.370000E+03	4.798224E-18	1.396450E-18
4.380000E+03	4.800642E-18	1.396120E-18
4.390000E+03	4.804042E-18	1.396070E-18
4.400000E+03	4.808356E-18	1.396281E-18
4.410000E+03	4.813597E-18	1.396755E-18
4.420000E+03	4.819738E-18	1.397484E-18
4.430000E+03	4.826718E-18	1.398448E-18
4.440000E+03	4.834589E-18	1.399664E-18
4.450000E+03	4.843291E-18	1.401111E-18
4.460000E+03	4.852804E-18	1.402782E-18
4.470000E+03	4.863067E-18	1.404661E-18
4.480000E+03	4.874140E-18	1.406763E-18
4.490000E+03	4.886005E-18	1.409081E-18
4.500000E+03	4.898566E-18	1.411587E-18
4.510000E+03	4.911887E-18	1.414299E-18
4.520000E+03	4.925912E-18	1.417198E-18
4.530000E+03	4.940627E-18	1.420280E-18
4.540000E+03	4.956060E-18	1.423552E-18
4.550000E+03	4.972198E-18	1.427009E-18
4.560000E+03	4.988988E-18	1.430634E-18
4.570000E+03	5.006420E-18	1.434423E-18
4.580000E+03	5.024525E-18	1.438383E-18
4.590000E+03	5.043295E-18	1.442512E-18
4.600000E+03	5.062636E-18	1.446779E-18
4.610000E+03	5.082625E-18	1.451207E-18
4.620000E+03	5.103255E-18	1.455792E-18
4.630000E+03	5.124433E-18	1.460505E-18
4.640000E+03	5.146197E-18	1.465356E-18
4.650000E+03	5.168540E-18	1.470340E-18
4.660000E+03	5.191412E-18	1.475444E-18
4.670000E+03	5.214897E-18	1.480688E-18
4.680000E+03	5.238948E-18	1.486057E-18
4.690000E+03	5.263606E-18	1.491561E-18
4.700000E+03	5.288868E-18	1.497199E-18
4.710000E+03	5.314779E-18	1.502980E-18
4.720000E+03	5.341292E-18	1.508890E-18
4.730000E+03	5.368501E-18	1.514952E-18
4.740000E+03	5.396358E-18	1.521152E-18
4.750000E+03	5.425008E-18	1.527529E-18
4.760000E+03	5.454360E-18	1.534054E-18
4.770000E+03	5.484466E-18	1.540741E-18
4.780000E+03	5.515426E-18	1.547614E-18
4.790000E+03	5.547200E-18	1.554661E-18
4.800000E+03	5.579892E-18	1.561909E-18
4.810000E+03	5.613413E-18	1.569329E-18
4.820000E+03	5.647870E-18	1.576949E-18
4.830000E+03	5.683273E-18	1.584771E-18
4.840000E+03	5.719582E-18	1.592779E-18
4.850000E+03	5.756857E-18	1.600988E-18
4.860000E+03	5.795161E-18	1.609413E-18
4.870000E+03	5.834403E-18	1.618025E-18
4.880000E+03	5.874644E-18	1.626839E-18
4.890000E+03	5.915952E-18	1.635870E-18
4.900000E+03	5.958229E-18	1.645088E-18
4.910000E+03	6.001542E-18	1.654510E-18
4.920000E+03	6.045903E-18	1.664134E-18
4.930000E+03	6.091323E-18	1.673960E-18
4.940000E+03	6.137816E-18	1.683990E-18
4.950000E+03	6.185336E-18	1.694206E-18
4.960000E+03	6.233950E-18	1.704625E-18
4.970000E+03	6.283614E-18	1.715229E-18
4.980000E+03	6.334337E-18	1.726018E-18
4.990000E+03	6.386129E-18	1.736991E-18
5.000000E+03	6.439000E-18	1.748147E-18
5.010000E+03	6.492960E-18	1.759484E-18
5.020000E+03	6.548017E-18	1.771000E-18
5.030000E+03	6.604120E-18	1.782678E-18
5.040000E+03	6.661273E-18	1.794514E-18
5.050000E+03	6.719484E-18	1.806506E-18
5.060000E+03	6.778758E-18	1.818652E-18
5.070000E+03	6.839100E-18	1.830946E-18
5.080000E+03	6.900515E-18	1.843388E-18
5.090000E+03	6.962873E-18	1.855936E-18
5.100000E+03	7.026308E-18	1.868622E-18
5.110000E+03	7.090822E-18	1.881442E-18
5.120000E+03	7.156280E-18	1.894354E-18
5.130000E+03	7.222678E-18	1.907353E-18
5.140000E+03	7.290080E-18	1.920450E-18
5.150000E+03	7.358484E-18	1.933639E-18
5.160000E+03	7.427742E-18	1.946875E-18
5.170000E+03	7.497916E-18	1.960171E-18
5.180000E+03	7.569068E-18	1.973536E-18
5.190000E+03	7.641044E-18	1.986924E-18
5.200000E+03	7.713828E-18	2.000326E-18
5.210000E+03	7.787404E-18	2.013732E-18
5.220000E+03	7.861832E-18	2.027150E-18
5.230000E+03	7.937016E-18	2.040551E-18
5.240000E+03	8.012935E-18	2.053923E-18
5.250000E+03	8.089488E-18	2.067233E-18
5.260000E+03	8.166727E-18	2.080489E-18
5.270000E+03	8.244624E-18	2.093677E-18
5.280000E+03	8.323070E-18	2.106762E-18
5.290000E+03	8.402112E-18	2.119751E-18
5.300000E+03	8.481634E-18	2.132607E-18
5.310000E+03	8.561596E-18	2.145314E-18
5.320000E+03	8.642044E-18	2.157876E-18
5.330000E+03	8.722850E-18	2.170254E-18
5.340000E+03	8.803969E-18	2.182430E-18
5.350000E+03	8.885351E-18	2.194385E-18
5.360000E+03	8.966945E-18	2.206099E-18
5.370000E+03	9.048698E-18	2.217553E-18
5.380000E+03	9.130552E-18	2.228724E-18
5.390000E+03	9.212449E-18	2.239592E-18
5.400000E+03	9.294234E-18	2.250113E-18
5.410000E+03	9.375839E-18	2.260263E-18
5.420000E+03	9.457289E-18	2.270042E-18
5.430000E+03	9.538419E-18	2.279403E-18
5.440000E+03	9.619152E-18	2.288323E-18
5.450000E+03	9.699315E-18	2.296754E-18
5.460000E+03	9.778923E-18	2.304693E-18
5.470000E+03	9.857696E-18	2.312071E-18
5.480000E+03	9.935744E-18	2.318908E-18
5.490000E+03	1.001268E-17	2.325110E-18
5.500000E+03	1.008851E-17	2.330674E-18
5.510000E+03	1.016313E-17	2.335576E-18
5.520000E+03	1.023636E-17	2.339768E-18
5.530000E+03	1.030808E-17	2.343227E-18
5.540000E+03	1.037811E-17	2.345905E-18
5.550000E+03	1.044632E-17	2.347781E-18
5.560000E+03	1.051264E-17	2.348832E-18
5.570000E+03	1.057694E-17	2.349040E-18
5.580000E+03	1.063902E-17	2.348361E-18
5.590000E+03	1.069880E-17	2.346779E-18
5.600000E+03	1.075615E-17	2.344278E-18
5.610000E+03	1.081099E-17	2.340845E-18
5.620000E+03	1.086312E-17	2.336444E-18
5.630000E+03	1.091244E-17	2.331066E-18
5.640000E+03	1.095898E-17	2.324727E-18
5.650000E+03	1.100253E-17	2.317400E-18
5.660000E+03	1.104292E-17	2.309059E-18
5.670000E+03	1.108029E-17	2.299751E-18
5.680000E+03	1.111457E-17	2.289482E-18
5.690000E+03	1.114547E-17	2.278208E-18
5.700000E+03	1.117306E-17	2.265963E-18
5.710000E+03	1.119740E-17	2.252783E-18
5.720000E+03	1.121832E-17	2.238660E-18
5.730000E+03	1.123580E-17	2.223611E-18
5.740000E+03	1.124992E-17	2.207680E-18
5.750000E+03	1.126055E-17	2.190870E-18
5.760000E+03	1.126791E-17	2.173252E-18
5.770000E+03	1.127176E-17	2.154810E-18
5.780000E+03	1.127222E-17	2.135599E-18
5.790000E+03	1.126931E-17	2.115654E-18
5.800000E+03	1.126315E-17	2.095036E-18
5.810000E+03	1.125366E-17	2.073762E-18
5.820000E+03	1.124099E-17	2.051895E-18
5.830000E+03	1.122518E-17	2.029481E-18
5.840000E+03	1.120615E-17	2.006542E-18
5.850000E+03	1.118421E-17	1.983171E-18
5.860000E+03	1.115929E-17	1.959395E-18
5.870000E+03	1.113158E-17	1.935285E-18
5.880000E+03	1.110103E-17	1.910873E-18
5.890000E+03	1.106784E-17	1.886231E-18
5.900000E+03	1.103208E-17	1.861412E-18
5.910000E+03	1.099384E-17	1.836469E-18
5.920000E+03	1.095334E-17	1.811476E-18
5.930000E+03	1.091042E-17	1.786444E-18
5.940000E+03	1.086542E-17	1.761466E-18
5.950000E+03	1.081843E-17	1.736593E-18
5.960000E+03	1.076956E-17	1.711874E-18
5.970000E+03	1.071878E-17	1.687338E-18
5.980000E+03	1.066632E-17	1.663050E-18
5.990000E+03	1.061239E-17	1.639072E-18
6.000000E+03	1.055685E-17	1.615407E-18
6.010000E+03	1.050005E-17	1.592131E-18
6.020000E+03	1.044196E-17	1.569258E-18
6.030000E+03	1.038280E-17	1.546838E-18
6.040000E+03	1.032241E-17	1.524861E-18
6.050000E+03	1.026115E-17	1.503387E-18
6.060000E+03	1.019910E-17	1.482433E-18
6.070000E+03	1.013622E-17	1.461997E-18
6.080000E+03	1.007259E-17	1.442089E-18
6.090000E+03	1.000843E-17	1.422733E-18
6.100000E+03	9.943683E-18	1.403913E-18
6.110000E+03	9.878550E-18	1.385648E-18
6.120000E+03	9.812977E-18	1.367914E-18
6.130000E+03	9.747155E-18	1.350721E-18
6.140000E+03	9.681272E-18	1.334076E-18
6.150000E+03	9.615262E-18	1.317948E-18
6.160000E+03	9.549306E-18	1.302339E-18
6.170000E+03	9.483700E-18	1.287266E-18
6.180000E+03	9.418494E-18	1.272709E-18
6.190000E+03	9.353854E-18	1.258665E-18
6.200000E+03	9.289699E-18	1.245096E-18
6.210000E+03	9.226067E-18	1.231980E-18
6.220000E+03	9.162872E-18	1.219280E-18
6.230000E+03	9.100147E-18	1.206975E-18
6.240000E+03	9.038047E-18	1.195059E-18
6.250000E+03	8.976478E-18	1.183496E-18
6.260000E+03	8.915468E-18	1.172266E-18
6.270000E+03	8.855166E-18	1.161365E-18
6.280000E+03	8.795716E-18	1.150789E-18
6.290000E+03	8.737143E-18	1.140522E-18
6.300000E+03	8.679467E-18	1.130546E-18
6.310000E+03	8.623074E-18	1.120891E-18
6.320000E+03	8.567739E-18	1.111511E-18
6.330000E+03	8.513966E-18	1.102455E-18
6.340000E+03	8.461652E-18	1.093693E-18
6.350000E+03	8.410933E-18	1.085228E-18
6.360000E+03	8.362192E-18	1.077096E-18
6.370000E+03	8.315444E-18	1.069286E-18
6.380000E+03	8.270826E-18	1.061803E-18
6.390000E+03	8.228476E-18	1.054655E-18
6.400000E+03	8.188654E-18	1.047864E-18
6.410000E+03	8.151253E-18	1.041408E-18
6.420000E+03	8.116048E-18	1.035249E-18
6.430000E+03	8.082932E-18	1.029366E-18
6.440000E+03	8.051800E-18	1.023739E-18
6.450000E+03	8.022548E-18	1.018349E-18
6.460000E+03	7.994948E-18	1.013161E-18
6.470000E+03	7.968893E-18	1.008156E-18
6.480000E+03	7.944279E-18	1.003318E-18
6.490000E+03	7.921122E-18	9.986430E-19
6.500000E+03	7.899314E-18	9.941150E-19
6.510000E+03	7.878748E-18	9.897170E-19
6.520000E+03	7.859564E-18	9.854632E-19
6.530000E+03	7.841528E-18	9.813217E-19
6.540000E+03	7.824778E-18	9.773072E-19
6.550000E+03	7.809202E-18	9.734034E-19
6.560000E+03	7.794938E-18	9.696253E-19
6.570000E+03	7.781872E-18	9.659568E-19
6.580000E+03	7.770013E-18	9.623974E-19
6.590000E+03	7.759372E-18	9.589469E-19
6.600000E+03	7.750083E-18	9.556204E-19
6.610000E+03	7.741898E-18	9.523866E-19
6.620000E+03	7.735079E-18	9.492767E-19
6.630000E+03	7.729502E-18	9.462751E-19
6.640000E+03	7.725171E-18	9.433820E-19
6.650000E+03	7.722217E-18	9.406133E-19
6.660000E+03	7.720384E-18	9.379382E-19
6.670000E+03	7.719931E-18	9.353884E-19
6.680000E+03	7.720729E-18	9.329489E-19
6.690000E+03	7.722775E-18	9.306204E-19
6.700000E+03	7.726198E-18	9.284193E-19
6.710000E+03	7.730865E-18	9.263307E-19
6.720000E+03	7.736772E-18	9.243552E-19
6.730000E+03	7.743913E-18	9.224934E-19
6.740000E+03	7.752416E-18	9.207616E-19
6.750000E+03	7.762141E-18	9.191442E-19
6.760000E+03	7.773081E-18	9.176412E-19
6.770000E+03	7.785362E-18	9.162685E-19
6.780000E+03	7.798839E-18	9.150095E-19
6.790000E+03	7.813501E-18	9.138634E-19
6.800000E+03	7.829474E-18	9.128452E-19
6.810000E+03	7.846467E-18	9.119211E-19
6.820000E+03	7.864744E-18	9.111217E-19
6.830000E+03	7.884291E-18	9.104451E-19
6.840000E+03	7.904810E-18	9.098564E-19
6.850000E+03	7.926565E-18	9.093857E-19
6.860000E+03	7.949396E-18	9.090141E-19
6.870000E+03	7.973282E-18	9.087388E-19
6.880000E+03	7.998202E-18	9.085570E-19
6.890000E+03	8.024135E-18	9.084658E-19
6.900000E+03	8.051207E-18	9.084792E-19
6.910000E+03	8.079098E-18	9.085611E-19
6.920000E+03	8.108086E-18	9.087426E-19
6.930000E+03	8.137846E-18	9.089874E-19
6.940000E+03	8.168659E-18	9.093277E-19
6.950000E+03	8.200197E-18	9.097271E-19
6.960000E+03	8.232748E-18	9.102187E-19
6.970000E+03	8.265980E-18	9.107666E-19
6.980000E+03	8.300028E-18	9.113872E-19
6.990000E+03	8.334873E-18	9.120797E-19
7.000000E+03	8.370338E-18	9.128262E-19
7.010000E+03	8.406729E-18	9.136620E-19
7.020000E+03	8.443705E-18	9.145520E-19
7.030000E+03	8.481250E-18	9.154965E-19
7.040000E+03	8.519517E-18	9.165140E-19
7.050000E+03	8.558495E-18	9.176055E-19
7.060000E+03	8.598006E-18	9.187539E-19
7.070000E+03	8.638039E-18	9.199602E-19
7.080000E+03	8.678758E-18	9.212438E-19
7.090000E+03	8.719984E-18	9.225875E-19
7.100000E+03	8.761710E-18	9.239921E-19
7.110000E+03	8.803929E-18	9.254586E-19
7.120000E+03	8.846817E-18	9.270065E-19
7.130000E+03	8.890011E-18	9.285987E-19
7.140000E+03	8.933869E-18	9.302733E-19
7.150000E+03	8.978022E-18	9.319926E-19
7.160000E+03	9.022652E-18	9.337752E-19
7.170000E+03	9.067754E-18	9.356211E-19
7.180000E+03	9.113328E-18	9.375297E-19
7.190000E+03	9.159178E-18	9.394809E-19
7.200000E+03	9.205493E-18	9.414936E-19
7.210000E+03	9.252270E-18	9.435672E-19
7.220000E+03	9.299309E-18	9.456811E-19
7.230000E+03	9.346603E-18	9.478346E-19
7.240000E+03	9.394345E-18	9.500478E-19
7.250000E+03	9.442328E-18	9.523002E-19
7.260000E+03	9.490544E-18	9.545920E-19
7.270000E+03	9.539190E-18	9.569448E-19
7.280000E+03	9.588053E-18	9.593390E-19
7.290000E+03	9.637120E-18	9.617759E-19
7.300000E+03	9.686809E-18	9.643001E-19
7.310000E+03	9.736470E-18	9.668503E-19
7.320000E+03	9.786738E-18	9.694932E-19
7.330000E+03	9.837168E-18	9.721888E-19
7.340000E+03	9.888191E-18	9.749837E-19
7.350000E+03	9.939576E-18	9.778590E-19
7.360000E+03	9.991537E-18	9.808399E-19
7.370000E+03	1.004430E-17	9.839515E-19
7.380000E+03	1.009762E-17	9.871738E-19
7.390000E+03	1.015220E-17	9.905766E-19
7.400000E+03	1.020780E-17	9.941389E-19
7.410000E+03	1.026444E-17	9.978610E-19
7.420000E+03	1.032306E-17	1.001836E-18
7.430000E+03	1.038297E-17	1.005993E-18
7.440000E+03	1.044491E-17	1.010401E-18
7.450000E+03	1.050890E-17	1.015058E-18
7.460000E+03	1.057446E-17	1.019910E-18
7.470000E+03	1.064134E-17	1.024928E-18
7.480000E+03	1.070952E-17	1.030104E-18
7.490000E+03	1.077875E-17	1.035401E-18
7.500000E+03	1.084900E-17	1.040811E-18
7.510000E+03	1.091998E-17	1.046295E-18
7.520000E+03	1.099140E-17	1.051815E-18
7.530000E+03	1.106321E-17	1.057356E-18
7.540000E+03	1.113537E-17	1.062903E-18
7.550000E+03	1.120755E-17	1.068417E-18
7.560000E+03	1.127998E-17	1.073908E-18
7.570000E+03	1.135203E-17	1.079309E-18
7.580000E+03	1.142421E-17	1.084659E-18
7.590000E+03	1.149617E-17	1.089920E-18
7.600000E+03	1.156756E-17	1.095052E-18
7.610000E+03	1.163860E-17	1.100071E-18
7.620000E+03	1.170891E-17	1.104942E-18
7.630000E+03	1.177873E-17	1.109684E-18
7.640000E+03	1.184797E-17	1.114292E-18
7.650000E+03	1.191627E-17	1.118733E-18
7.660000E+03	1.198384E-17	1.123033E-18
7.670000E+03	1.205031E-17	1.127163E-18
7.680000E+03	1.211591E-17	1.131152E-18
7.690000E+03	1.218055E-17	1.135001E-18
7.700000E+03	1.224384E-17	1.138684E-18
7.710000E+03	1.230603E-17	1.142234E-18
7.720000E+03	1.236702E-17	1.145653E-18
7.730000E+03	1.242675E-17	1.148946E-18
7.740000E+03	1.248513E-17	1.152115E-18
7.750000E+03	1.254207E-17	1.155163E-18
7.760000E+03	1.259750E-17	1.158093E-18
