#wls	flux	fluxerr
1.600000E+03	9.911563E-17	1.053449E-16
1.640000E+03	1.026428E-16	1.076976E-16
1.680000E+03	1.061341E-16	1.098845E-16
1.720000E+03	1.095760E-16	1.118906E-16
1.760000E+03	1.129296E-16	1.136756E-16
1.800000E+03	1.161980E-16	1.152437E-16
1.840000E+03	1.193247E-16	1.165408E-16
1.880000E+03	1.222952E-16	1.175571E-16
1.920000E+03	1.250695E-16	1.182602E-16
1.960000E+03	1.276162E-16	1.186283E-16
2.000000E+03	1.298908E-16	1.186306E-16
2.040000E+03	1.318580E-16	1.182479E-16
2.080000E+03	1.334711E-16	1.174545E-16
2.120000E+03	1.346943E-16	1.162374E-16
2.160000E+03	1.354732E-16	1.145718E-16
2.200000E+03	1.357764E-16	1.124562E-16
2.240000E+03	1.355669E-16	1.098881E-16
2.280000E+03	1.348393E-16	1.068930E-16
2.320000E+03	1.335979E-16	1.035059E-16
2.360000E+03	1.318411E-16	9.975715E-17
2.400000E+03	1.295923E-16	9.569658E-17
2.440000E+03	1.268673E-16	9.136737E-17
2.480000E+03	1.236840E-16	8.681318E-17
2.520000E+03	1.200631E-16	8.207846E-17
2.560000E+03	1.160243E-16	7.720511E-17
2.600000E+03	1.116030E-16	7.224370E-17
2.640000E+03	1.068300E-16	6.723848E-17
2.680000E+03	1.017399E-16	6.223291E-17
2.720000E+03	9.638020E-17	5.727446E-17
2.760000E+03	9.079597E-17	5.240452E-17
2.800000E+03	8.504013E-17	4.766404E-17
2.840000E+03	7.917029E-17	4.309117E-17
2.880000E+03	7.325109E-17	3.872210E-17
2.920000E+03	6.737022E-17	3.459891E-17
2.960000E+03	6.162142E-17	3.075970E-17
3.000000E+03	5.609363E-17	2.723353E-17
3.010000E+03	5.475442E-17	2.640267E-17
3.020000E+03	5.343563E-17	2.559304E-17
3.030000E+03	5.213501E-17	2.480319E-17
3.040000E+03	5.085654E-17	2.403467E-17
3.050000E+03	4.959914E-17	2.328660E-17
3.060000E+03	4.836300E-17	2.255869E-17
3.070000E+03	4.714934E-17	2.185116E-17
3.080000E+03	4.595922E-17	2.116412E-17
3.090000E+03	4.479162E-17	2.049672E-17
3.100000E+03	4.364844E-17	1.984948E-17
3.110000E+03	4.252863E-17	1.922152E-17
3.120000E+03	4.143300E-17	1.861285E-17
3.130000E+03	4.036219E-17	1.802340E-17
3.140000E+03	3.931596E-17	1.745269E-17
3.150000E+03	3.829331E-17	1.689992E-17
3.160000E+03	3.729626E-17	1.636563E-17
3.170000E+03	3.632301E-17	1.584868E-17
3.180000E+03	3.537466E-17	1.534922E-17
3.190000E+03	3.445081E-17	1.486673E-17
3.200000E+03	3.355107E-17	1.440072E-17
3.210000E+03	3.267507E-17	1.395072E-17
3.220000E+03	3.182356E-17	1.351673E-17
3.230000E+03	3.099550E-17	1.309802E-17
3.240000E+03	3.019047E-17	1.269411E-17
3.250000E+03	2.940855E-17	1.230476E-17
3.260000E+03	2.864974E-17	1.192969E-17
3.270000E+03	2.791306E-17	1.156823E-17
3.280000E+03	2.719851E-17	1.122012E-17
3.290000E+03	2.650558E-17	1.088492E-17
3.300000E+03	2.583420E-17	1.056234E-17
3.310000E+03	2.518345E-17	1.025179E-17
3.320000E+03	2.455288E-17	9.952865E-18
3.330000E+03	2.394273E-17	9.665457E-18
3.340000E+03	2.335180E-17	9.388875E-18
3.350000E+03	2.277997E-17	9.122884E-18
3.360000E+03	2.222708E-17	8.867236E-18
3.370000E+03	2.169205E-17	8.621319E-18
3.380000E+03	2.117502E-17	8.385031E-18
3.390000E+03	2.067497E-17	8.157806E-18
3.400000E+03	2.019151E-17	7.939336E-18
3.410000E+03	1.972449E-17	7.729421E-18
3.420000E+03	1.927325E-17	7.527665E-18
3.430000E+03	1.883741E-17	7.333789E-18
3.440000E+03	1.841613E-17	7.147347E-18
3.450000E+03	1.800932E-17	6.968184E-18
3.460000E+03	1.761642E-17	6.795974E-18
3.470000E+03	1.723671E-17	6.630337E-18
3.480000E+03	1.686991E-17	6.471069E-18
3.490000E+03	1.651539E-17	6.317832E-18
3.500000E+03	1.617274E-17	6.170379E-18
3.510000E+03	1.584155E-17	6.028479E-18
3.520000E+03	1.552113E-17	5.891787E-18
3.530000E+03	1.521083E-17	5.759987E-18
3.540000E+03	1.490992E-17	5.632734E-18
3.550000E+03	1.461759E-17	5.509657E-18
3.560000E+03	1.433311E-17	5.390426E-18
3.570000E+03	1.405583E-17	5.274740E-18
3.580000E+03	1.378503E-17	5.162279E-18
3.590000E+03	1.352005E-17	5.052754E-18
3.600000E+03	1.326058E-17	4.946002E-18
3.610000E+03	1.300595E-17	4.841732E-18
3.620000E+03	1.275590E-17	4.739815E-18
3.630000E+03	1.251068E-17	4.640302E-18
3.640000E+03	1.227024E-17	4.543145E-18
3.650000E+03	1.203476E-17	4.448372E-18
3.660000E+03	1.180436E-17	4.356000E-18
3.670000E+03	1.157924E-17	4.266073E-18
3.680000E+03	1.135947E-17	4.178583E-18
3.690000E+03	1.114499E-17	4.093480E-18
3.700000E+03	1.093610E-17	4.010847E-18
3.710000E+03	1.073259E-17	3.930585E-18
3.720000E+03	1.053462E-17	3.852722E-18
3.730000E+03	1.034213E-17	3.777218E-18
3.740000E+03	1.015514E-17	3.704054E-18
3.750000E+03	9.973577E-18	3.633180E-18
3.760000E+03	9.797338E-18	3.564542E-18
3.770000E+03	9.626485E-18	3.498141E-18
3.780000E+03	9.460901E-18	3.433917E-18
3.790000E+03	9.300540E-18	3.371835E-18
3.800000E+03	9.145200E-18	3.311805E-18
3.810000E+03	8.994969E-18	3.253844E-18
3.820000E+03	8.849636E-18	3.197861E-18
3.830000E+03	8.709200E-18	3.143840E-18
3.840000E+03	8.573448E-18	3.091693E-18
3.850000E+03	8.442436E-18	3.041426E-18
3.860000E+03	8.315885E-18	2.992927E-18
3.870000E+03	8.193844E-18	2.946202E-18
3.880000E+03	8.076162E-18	2.901188E-18
3.890000E+03	7.962693E-18	2.857820E-18
3.900000E+03	7.853353E-18	2.816060E-18
3.910000E+03	7.748058E-18	2.775869E-18
3.920000E+03	7.646724E-18	2.737208E-18
3.930000E+03	7.549209E-18	2.700018E-18
3.940000E+03	7.455374E-18	2.664242E-18
3.950000E+03	7.365197E-18	2.629866E-18
3.960000E+03	7.278599E-18	2.596853E-18
3.970000E+03	7.195337E-18	2.565112E-18
3.980000E+03	7.115447E-18	2.534649E-18
3.990000E+03	7.038803E-18	2.505413E-18
4.000000E+03	6.965334E-18	2.477374E-18
4.010000E+03	6.894867E-18	2.450466E-18
4.020000E+03	6.827340E-18	2.424661E-18
4.030000E+03	6.762739E-18	2.399950E-18
4.040000E+03	6.700904E-18	2.376272E-18
4.050000E+03	6.641776E-18	2.353602E-18
4.060000E+03	6.585251E-18	2.331899E-18
4.070000E+03	6.531277E-18	2.311142E-18
4.080000E+03	6.479754E-18	2.291291E-18
4.090000E+03	6.430636E-18	2.272326E-18
4.100000E+03	6.383827E-18	2.254212E-18
4.110000E+03	6.339239E-18	2.236913E-18
4.120000E+03	6.296831E-18	2.220413E-18
4.130000E+03	6.256564E-18	2.204695E-18
4.140000E+03	6.218309E-18	2.189711E-18
4.150000E+03	6.182079E-18	2.175463E-18
4.160000E+03	6.147750E-18	2.161906E-18
4.170000E+03	6.115292E-18	2.149026E-18
4.180000E+03	6.084677E-18	2.136811E-18
4.190000E+03	6.055836E-18	2.125236E-18
4.200000E+03	6.028698E-18	2.114273E-18
4.210000E+03	6.003243E-18	2.103914E-18
4.220000E+03	5.979405E-18	2.094133E-18
4.230000E+03	5.957168E-18	2.084923E-18
4.240000E+03	5.936516E-18	2.076278E-18
4.250000E+03	5.917389E-18	2.068173E-18
4.260000E+03	5.899686E-18	2.060573E-18
4.270000E+03	5.883487E-18	2.053503E-18
4.280000E+03	5.868692E-18	2.046928E-18
4.290000E+03	5.855296E-18	2.040844E-18
4.300000E+03	5.843203E-18	2.035216E-18
4.310000E+03	5.832455E-18	2.030058E-18
4.320000E+03	5.823006E-18	2.025351E-18
4.330000E+03	5.814810E-18	2.021079E-18
4.340000E+03	5.807870E-18	2.017241E-18
4.350000E+03	5.802144E-18	2.013822E-18
4.360000E+03	5.797728E-18	2.010852E-18
4.370000E+03	5.794538E-18	2.008303E-18
4.380000E+03	5.792584E-18	2.006175E-18
4.390000E+03	5.791876E-18	2.004470E-18
4.400000E+03	5.792334E-18	2.003161E-18
4.410000E+03	5.793973E-18	2.002249E-18
4.420000E+03	5.796762E-18	2.001724E-18
4.430000E+03	5.800625E-18	2.001557E-18
4.440000E+03	5.805628E-18	2.001770E-18
4.450000E+03	5.811696E-18	2.002336E-18
4.460000E+03	5.818804E-18	2.003244E-18
4.470000E+03	5.826881E-18	2.004468E-18
4.480000E+03	5.835998E-18	2.006032E-18
4.490000E+03	5.846132E-18	2.007925E-18
4.500000E+03	5.857169E-18	2.010108E-18
4.510000E+03	5.869182E-18	2.012603E-18
4.520000E+03	5.882106E-18	2.015386E-18
4.530000E+03	5.895922E-18	2.018450E-18
4.540000E+03	5.910661E-18	2.021803E-18
4.550000E+03	5.926308E-18	2.025438E-18
4.560000E+03	5.942799E-18	2.029332E-18
4.570000E+03	5.960119E-18	2.033478E-18
4.580000E+03	5.978304E-18	2.037886E-18
4.590000E+03	5.997341E-18	2.042549E-18
4.600000E+03	6.017117E-18	2.047429E-18
4.610000E+03	6.037723E-18	2.052552E-18
4.620000E+03	6.059147E-18	2.057913E-18
4.630000E+03	6.081277E-18	2.063473E-18
4.640000E+03	6.104155E-18	2.069243E-18
4.650000E+03	6.127769E-18	2.075217E-18
4.660000E+03	6.152060E-18	2.081373E-18
4.670000E+03	6.177124E-18	2.087742E-18
4.680000E+03	6.202901E-18	2.094299E-18
4.690000E+03	6.229436E-18	2.101060E-18
4.700000E+03	6.256725E-18	2.108019E-18
4.710000E+03	6.284817E-18	2.115190E-18
4.720000E+03	6.313653E-18	2.122552E-18
4.730000E+03	6.343339E-18	2.130137E-18
4.740000E+03	6.373817E-18	2.137924E-18
4.750000E+03	6.405256E-18	2.145965E-18
4.760000E+03	6.437541E-18	2.154219E-18
4.770000E+03	6.470732E-18	2.162704E-18
4.780000E+03	6.504944E-18	2.171455E-18
4.790000E+03	6.540124E-18	2.180450E-18
4.800000E+03	6.576392E-18	2.189727E-18
4.810000E+03	6.613638E-18	2.199245E-18
4.820000E+03	6.651985E-18	2.209042E-18
4.830000E+03	6.691440E-18	2.219115E-18
4.840000E+03	6.731951E-18	2.229445E-18
4.850000E+03	6.773586E-18	2.240049E-18
4.860000E+03	6.816416E-18	2.250947E-18
4.870000E+03	6.860326E-18	2.262097E-18
4.880000E+03	6.905387E-18	2.273518E-18
4.890000E+03	6.951671E-18	2.285229E-18
4.900000E+03	6.999062E-18	2.297187E-18
4.910000E+03	7.047633E-18	2.309412E-18
4.920000E+03	7.097393E-18	2.321901E-18
4.930000E+03	7.148353E-18	2.334654E-18
4.940000E+03	7.200521E-18	2.347668E-18
4.950000E+03	7.253842E-18	2.360919E-18
4.960000E+03	7.308390E-18	2.374426E-18
4.970000E+03	7.364108E-18	2.388165E-18
4.980000E+03	7.421002E-18	2.402133E-18
4.990000E+03	7.479081E-18	2.416326E-18
5.000000E+03	7.538352E-18	2.430741E-18
5.010000E+03	7.598822E-18	2.445373E-18
5.020000E+03	7.660497E-18	2.460218E-18
5.030000E+03	7.723311E-18	2.475249E-18
5.040000E+03	7.787268E-18	2.490460E-18
5.050000E+03	7.852370E-18	2.505846E-18
5.060000E+03	7.918622E-18	2.521399E-18
5.070000E+03	7.986023E-18	2.537114E-18
5.080000E+03	8.054577E-18	2.552983E-18
5.090000E+03	8.124128E-18	2.568950E-18
5.100000E+03	8.194829E-18	2.585055E-18
5.110000E+03	8.266677E-18	2.601291E-18
5.120000E+03	8.339511E-18	2.617597E-18
5.130000E+03	8.413325E-18	2.633964E-18
5.140000E+03	8.488189E-18	2.650406E-18
5.150000E+03	8.564097E-18	2.666911E-18
5.160000E+03	8.640874E-18	2.683417E-18
5.170000E+03	8.718588E-18	2.699936E-18
5.180000E+03	8.797310E-18	2.716480E-18
5.190000E+03	8.876856E-18	2.732984E-18
5.200000E+03	8.957207E-18	2.749432E-18
5.210000E+03	9.038341E-18	2.765808E-18
5.220000E+03	9.120325E-18	2.782123E-18
5.230000E+03	9.203046E-18	2.798332E-18
5.240000E+03	9.286480E-18	2.814418E-18
5.250000E+03	9.370507E-18	2.830334E-18
5.260000E+03	9.455187E-18	2.846088E-18
5.270000E+03	9.540487E-18	2.861659E-18
5.280000E+03	9.626281E-18	2.877000E-18
5.290000E+03	9.712624E-18	2.892115E-18
5.300000E+03	9.799383E-18	2.906955E-18
5.310000E+03	9.886515E-18	2.921495E-18
5.320000E+03	9.974073E-18	2.935741E-18
5.330000E+03	1.006191E-17	2.949639E-18
5.340000E+03	1.014999E-17	2.963162E-18
5.350000E+03	1.023825E-17	2.976286E-18
5.360000E+03	1.032664E-17	2.988984E-18
5.370000E+03	1.041510E-17	3.001227E-18
5.380000E+03	1.050357E-17	3.012989E-18
5.390000E+03	1.059201E-17	3.024240E-18
5.400000E+03	1.068023E-17	3.034923E-18
5.410000E+03	1.076817E-17	3.045007E-18
5.420000E+03	1.085587E-17	3.054493E-18
5.430000E+03	1.094315E-17	3.063320E-18
5.440000E+03	1.102995E-17	3.071459E-18
5.450000E+03	1.111607E-17	3.078849E-18
5.460000E+03	1.120155E-17	3.085489E-18
5.470000E+03	1.128608E-17	3.091288E-18
5.480000E+03	1.136981E-17	3.096278E-18
5.490000E+03	1.145232E-17	3.100335E-18
5.500000E+03	1.153363E-17	3.103460E-18
5.510000E+03	1.161365E-17	3.105626E-18
5.520000E+03	1.169218E-17	3.106772E-18
5.530000E+03	1.176913E-17	3.106872E-18
5.540000E+03	1.184429E-17	3.105867E-18
5.550000E+03	1.191757E-17	3.103733E-18
5.560000E+03	1.198887E-17	3.100445E-18
5.570000E+03	1.205811E-17	3.095982E-18
5.580000E+03	1.212507E-17	3.090293E-18
5.590000E+03	1.218967E-17	3.083358E-18
5.600000E+03	1.225181E-17	3.075161E-18
5.610000E+03	1.231141E-17	3.065688E-18
5.620000E+03	1.236827E-17	3.054896E-18
5.630000E+03	1.242230E-17	3.042776E-18
5.640000E+03	1.247354E-17	3.029353E-18
5.650000E+03	1.252181E-17	3.014592E-18
5.660000E+03	1.256690E-17	2.998460E-18
5.670000E+03	1.260900E-17	2.981022E-18
5.680000E+03	1.264806E-17	2.962284E-18
5.690000E+03	1.268376E-17	2.942192E-18
5.700000E+03	1.271618E-17	2.920789E-18
5.710000E+03	1.274540E-17	2.898120E-18
5.720000E+03	1.277126E-17	2.874174E-18
5.730000E+03	1.279373E-17	2.848972E-18
5.740000E+03	1.281291E-17	2.822569E-18
5.750000E+03	1.282865E-17	2.794965E-18
5.760000E+03	1.284120E-17	2.766250E-18
5.770000E+03	1.285030E-17	2.736400E-18
5.780000E+03	1.285606E-17	2.705484E-18
5.790000E+03	1.285850E-17	2.673543E-18
5.800000E+03	1.285778E-17	2.640650E-18
5.810000E+03	1.285376E-17	2.606826E-18
5.820000E+03	1.284662E-17	2.572149E-18
5.830000E+03	1.283638E-17	2.536674E-18
5.840000E+03	1.282295E-17	2.500429E-18
5.850000E+03	1.280664E-17	2.463529E-18
5.860000E+03	1.278735E-17	2.426009E-18
5.870000E+03	1.276530E-17	2.387962E-18
5.880000E+03	1.274038E-17	2.349426E-18
5.890000E+03	1.271281E-17	2.310499E-18
5.900000E+03	1.268264E-17	2.271251E-18
5.910000E+03	1.264996E-17	2.231757E-18
5.920000E+03	1.261498E-17	2.192117E-18
5.930000E+03	1.257748E-17	2.152357E-18
5.940000E+03	1.253783E-17	2.112607E-18
5.950000E+03	1.249612E-17	2.072946E-18
5.960000E+03	1.245243E-17	2.033453E-18
5.970000E+03	1.240670E-17	1.994186E-18
5.980000E+03	1.235916E-17	1.955250E-18
5.990000E+03	1.231004E-17	1.916748E-18
6.000000E+03	1.225914E-17	1.878713E-18
6.010000E+03	1.220684E-17	1.841267E-18
6.020000E+03	1.215308E-17	1.804461E-18
6.030000E+03	1.209810E-17	1.768386E-18
6.040000E+03	1.204167E-17	1.733062E-18
6.050000E+03	1.198419E-17	1.698589E-18
6.060000E+03	1.192573E-17	1.665015E-18
6.070000E+03	1.186621E-17	1.632362E-18
6.080000E+03	1.180572E-17	1.600664E-18
6.090000E+03	1.174447E-17	1.569966E-18
6.100000E+03	1.168239E-17	1.540266E-18
6.110000E+03	1.161969E-17	1.511594E-18
6.120000E+03	1.155627E-17	1.483933E-18
6.130000E+03	1.149235E-17	1.457300E-18
6.140000E+03	1.142812E-17	1.431704E-18
6.150000E+03	1.136348E-17	1.407110E-18
6.160000E+03	1.129863E-17	1.383518E-18
6.170000E+03	1.123389E-17	1.360938E-18
6.180000E+03	1.116929E-17	1.339343E-18
6.190000E+03	1.110502E-17	1.318717E-18
6.200000E+03	1.104096E-17	1.299011E-18
6.210000E+03	1.097713E-17	1.280188E-18
6.220000E+03	1.091341E-17	1.262197E-18
6.230000E+03	1.084982E-17	1.245000E-18
6.240000E+03	1.078653E-17	1.228578E-18
6.250000E+03	1.072342E-17	1.212877E-18
6.260000E+03	1.066051E-17	1.197860E-18
6.270000E+03	1.059797E-17	1.183505E-18
6.280000E+03	1.053596E-17	1.169795E-18
6.290000E+03	1.047452E-17	1.156692E-18
6.300000E+03	1.041366E-17	1.144161E-18
6.310000E+03	1.035384E-17	1.132217E-18
6.320000E+03	1.029479E-17	1.120795E-18
6.330000E+03	1.023713E-17	1.109925E-18
6.340000E+03	1.018073E-17	1.099560E-18
6.350000E+03	1.012576E-17	1.089688E-18
6.360000E+03	1.007267E-17	1.080327E-18
6.370000E+03	1.002150E-17	1.071450E-18
6.380000E+03	9.972412E-18	1.063048E-18
6.390000E+03	9.925576E-18	1.055113E-18
6.400000E+03	9.881309E-18	1.047654E-18
6.410000E+03	9.839489E-18	1.040636E-18
6.420000E+03	9.799846E-18	1.034009E-18
6.430000E+03	9.762255E-18	1.027743E-18
6.440000E+03	9.726595E-18	1.021807E-18
6.450000E+03	9.692744E-18	1.016172E-18
6.460000E+03	9.660433E-18	1.010797E-18
6.470000E+03	9.629541E-18	1.005655E-18
6.480000E+03	9.599950E-18	1.000723E-18
6.490000E+03	9.571688E-18	9.959913E-19
6.500000E+03	9.544637E-18	9.914375E-19
6.510000E+03	9.518679E-18	9.870386E-19
6.520000E+03	9.493992E-18	9.828030E-19
6.530000E+03	9.470309E-18	9.786929E-19
6.540000E+03	9.447807E-18	9.747171E-19
6.550000E+03	9.426363E-18	9.708536E-19
6.560000E+03	9.406155E-18	9.671113E-19
6.570000E+03	9.387056E-18	9.634685E-19
6.580000E+03	9.369086E-18	9.599191E-19
6.590000E+03	9.352267E-18	9.564576E-19
6.600000E+03	9.336764E-18	9.530940E-19
6.610000E+03	9.322288E-18	9.497926E-19
6.620000E+03	9.309154E-18	9.465802E-19
6.630000E+03	9.297217E-18	9.434379E-19
6.640000E+03	9.286482E-18	9.403629E-19
6.650000E+03	9.277106E-18	9.373689E-19
6.660000E+03	9.268782E-18	9.344238E-19
6.670000E+03	9.261818E-18	9.315586E-19
6.680000E+03	9.256058E-18	9.287586E-19
6.690000E+03	9.251500E-18	9.260253E-19
6.700000E+03	9.248300E-18	9.233768E-19
6.710000E+03	9.246297E-18	9.208005E-19
6.720000E+03	9.245489E-18	9.182997E-19
6.730000E+03	9.245873E-18	9.158781E-19
6.740000E+03	9.247605E-18	9.135552E-19
6.750000E+03	9.250521E-18	9.113183E-19
6.760000E+03	9.254614E-18	9.091700E-19
6.770000E+03	9.260040E-18	9.071279E-19
6.780000E+03	9.266628E-18	9.051768E-19
6.790000E+03	9.274366E-18	9.033161E-19
6.800000E+03	9.283405E-18	9.015601E-19
6.810000E+03	9.293400E-18	8.998740E-19
6.820000E+03	9.304662E-18	8.982861E-19
6.830000E+03	9.317172E-18	8.967919E-19
6.840000E+03	9.330571E-18	8.953540E-19
6.850000E+03	9.345168E-18	8.939992E-19
6.860000E+03	9.360764E-18	8.927059E-19
6.870000E+03	9.377327E-18	8.914682E-19
6.880000E+03	9.394823E-18	8.902807E-19
6.890000E+03	9.413216E-18	8.891380E-19
6.900000E+03	9.432644E-18	8.880517E-19
6.910000E+03	9.452719E-18	8.869843E-19
6.920000E+03	9.473756E-18	8.859648E-19
6.930000E+03	9.495363E-18	8.849567E-19
6.940000E+03	9.517859E-18	8.839904E-19
6.950000E+03	9.540849E-18	8.830306E-19
6.960000E+03	9.564661E-18	8.821092E-19
6.970000E+03	9.588898E-18	8.811922E-19
6.980000E+03	9.613712E-18	8.802966E-19
6.990000E+03	9.639073E-18	8.794233E-19
7.000000E+03	9.664771E-18	8.785571E-19
7.010000E+03	9.691156E-18	8.777342E-19
7.020000E+03	9.717835E-18	8.769236E-19
7.030000E+03	9.744789E-18	8.761290E-19
7.040000E+03	9.772196E-18	8.753714E-19
7.050000E+03	9.800049E-18	8.746555E-19
7.060000E+03	9.828147E-18	8.739691E-19
7.070000E+03	9.856485E-18	8.733171E-19
7.080000E+03	9.885258E-18	8.727221E-19
7.090000E+03	9.914271E-18	8.721716E-19
7.100000E+03	9.943524E-18	8.716704E-19
7.110000E+03	9.973020E-18	8.712225E-19
7.120000E+03	1.000297E-17	8.708489E-19
7.130000E+03	1.003296E-17	8.705167E-19
7.140000E+03	1.006342E-17	8.702629E-19
7.150000E+03	1.009394E-17	8.700523E-19
7.160000E+03	1.012472E-17	8.699018E-19
7.170000E+03	1.015578E-17	8.698096E-19
7.180000E+03	1.018711E-17	8.697726E-19
7.190000E+03	1.021851E-17	8.697687E-19
7.200000E+03	1.025020E-17	8.698113E-19
7.210000E+03	1.028216E-17	8.698952E-19
7.220000E+03	1.031420E-17	8.699969E-19
7.230000E+03	1.034629E-17	8.701112E-19
7.240000E+03	1.037867E-17	8.702522E-19
7.250000E+03	1.041110E-17	8.703979E-19
7.260000E+03	1.044358E-17	8.705459E-19
7.270000E+03	1.047633E-17	8.707147E-19
7.280000E+03	1.050912E-17	8.708867E-19
7.290000E+03	1.054196E-17	8.710649E-19
7.300000E+03	1.057529E-17	8.712931E-19
7.310000E+03	1.060843E-17	8.715208E-19
7.320000E+03	1.064206E-17	8.718152E-19
7.330000E+03	1.067573E-17	8.721480E-19
7.340000E+03	1.070989E-17	8.725701E-19
7.350000E+03	1.074432E-17	8.730745E-19
7.360000E+03	1.077924E-17	8.736936E-19
7.370000E+03	1.081491E-17	8.744594E-19
7.380000E+03	1.085106E-17	8.753634E-19
7.390000E+03	1.088846E-17	8.764756E-19
7.400000E+03	1.092684E-17	8.777835E-19
7.410000E+03	1.096622E-17	8.792921E-19
7.420000E+03	1.100761E-17	8.810857E-19
7.430000E+03	1.105026E-17	8.831014E-19
7.440000E+03	1.109495E-17	8.853967E-19
7.450000E+03	1.114169E-17	8.879638E-19
7.460000E+03	1.118996E-17	8.907486E-19
7.470000E+03	1.123950E-17	8.937139E-19
7.480000E+03	1.129028E-17	8.968404E-19
7.490000E+03	1.134202E-17	9.000848E-19
7.500000E+03	1.139469E-17	9.034235E-19
7.510000E+03	1.144798E-17	9.068097E-19
7.520000E+03	1.150157E-17	9.101952E-19
7.530000E+03	1.155541E-17	9.135533E-19
7.540000E+03	1.160945E-17	9.168578E-19
7.550000E+03	1.166333E-17	9.200594E-19
7.560000E+03	1.171728E-17	9.231551E-19
7.570000E+03	1.177065E-17	9.260734E-19
7.580000E+03	1.182396E-17	9.288363E-19
7.590000E+03	1.187684E-17	9.313982E-19
7.600000E+03	1.192893E-17	9.337158E-19
7.610000E+03	1.198044E-17	9.357961E-19
7.620000E+03	1.203100E-17	9.376034E-19
7.630000E+03	1.208086E-17	9.391545E-19
7.640000E+03	1.212993E-17	9.404480E-19
7.650000E+03	1.217784E-17	9.414636E-19
7.660000E+03	1.222484E-17	9.422345E-19
7.670000E+03	1.227055E-17	9.427502E-19
7.680000E+03	1.231522E-17	9.430526E-19
7.690000E+03	1.235879E-17	9.431623E-19
7.700000E+03	1.240089E-17	9.430775E-19
7.710000E+03	1.244176E-17	9.428465E-19
7.720000E+03	1.248137E-17	9.424940E-19
7.730000E+03	1.251964E-17	9.420442E-19
7.740000E+03	1.255652E-17	9.415204E-19
7.750000E+03	1.259195E-17	9.409442E-19
7.760000E+03	1.262585E-17	9.403351E-19
