#wls	flux	fluxerr
1.584409E+03	5.367242E-04	2.188172E-04
1.624020E+03	5.445273E-04	2.212237E-04
1.663630E+03	5.526983E-04	2.237286E-04
1.703240E+03	5.612140E-04	2.263188E-04
1.742850E+03	5.700962E-04	2.289995E-04
1.782461E+03	5.794089E-04	2.317922E-04
1.822071E+03	5.890130E-04	2.346372E-04
1.861681E+03	5.990093E-04	2.375703E-04
1.901291E+03	6.093449E-04	2.405662E-04
1.940902E+03	6.199666E-04	2.435994E-04
1.980512E+03	6.307756E-04	2.466267E-04
2.020122E+03	6.417190E-04	2.496237E-04
2.059732E+03	6.526603E-04	2.525337E-04
2.099342E+03	6.633925E-04	2.552739E-04
2.138953E+03	6.738439E-04	2.578153E-04
2.178563E+03	6.837954E-04	2.600732E-04
2.218173E+03	6.930907E-04	2.619889E-04
2.257783E+03	7.016613E-04	2.635384E-04
2.297394E+03	7.095209E-04	2.647293E-04
2.337004E+03	7.167865E-04	2.656075E-04
2.376614E+03	7.235958E-04	2.662257E-04
2.416224E+03	7.300736E-04	2.666306E-04
2.455835E+03	7.364220E-04	2.668957E-04
2.495445E+03	7.427296E-04	2.670518E-04
2.535055E+03	7.491306E-04	2.671446E-04
2.574665E+03	7.556564E-04	2.671821E-04
2.614276E+03	7.623599E-04	2.671795E-04
2.653886E+03	7.692330E-04	2.671299E-04
2.693496E+03	7.762680E-04	2.670267E-04
2.733106E+03	7.834547E-04	2.668627E-04
2.772716E+03	7.907620E-04	2.666236E-04
2.812327E+03	7.981613E-04	2.662964E-04
2.851937E+03	8.056716E-04	2.658844E-04
2.891547E+03	8.132681E-04	2.653763E-04
2.931157E+03	8.210290E-04	2.647944E-04
2.970768E+03	8.289660E-04	2.641391E-04
2.980670E+03	8.310070E-04	2.639727E-04
2.990573E+03	8.330507E-04	2.637987E-04
3.000475E+03	8.350967E-04	2.636170E-04
3.010378E+03	8.371812E-04	2.634389E-04
3.020280E+03	8.392840E-04	2.632580E-04
3.030183E+03	8.414043E-04	2.630739E-04
3.040086E+03	8.435584E-04	2.628917E-04
3.049988E+03	8.457275E-04	2.627055E-04
3.059891E+03	8.479098E-04	2.625145E-04
3.069793E+03	8.501399E-04	2.623293E-04
3.079696E+03	8.523810E-04	2.621387E-04
3.089598E+03	8.546492E-04	2.619473E-04
3.099501E+03	8.569263E-04	2.617496E-04
3.109403E+03	8.592621E-04	2.615606E-04
3.119306E+03	8.616043E-04	2.613644E-04
3.129209E+03	8.639685E-04	2.611655E-04
3.139111E+03	8.663700E-04	2.609686E-04
3.149014E+03	8.688075E-04	2.607730E-04
3.158916E+03	8.712468E-04	2.605686E-04
3.168819E+03	8.737353E-04	2.603692E-04
3.178721E+03	8.762400E-04	2.601651E-04
3.188624E+03	8.787747E-04	2.599603E-04
3.198526E+03	8.813230E-04	2.597498E-04
3.208429E+03	8.838996E-04	2.595378E-04
3.218332E+03	8.865031E-04	2.593239E-04
3.228234E+03	8.891324E-04	2.591076E-04
3.238137E+03	8.917708E-04	2.588841E-04
3.248039E+03	8.944329E-04	2.586576E-04
3.257942E+03	8.971174E-04	2.584276E-04
3.267844E+03	8.998088E-04	2.581895E-04
3.277747E+03	9.025209E-04	2.579474E-04
3.287650E+03	9.052384E-04	2.576967E-04
3.297552E+03	9.079746E-04	2.574414E-04
3.307455E+03	9.107148E-04	2.571772E-04
3.317357E+03	9.134587E-04	2.569040E-04
3.327260E+03	9.162052E-04	2.566215E-04
3.337162E+03	9.189542E-04	2.563297E-04
3.347065E+03	9.217054E-04	2.560286E-04
3.356967E+03	9.244447E-04	2.557143E-04
3.366870E+03	9.271856E-04	2.553905E-04
3.376773E+03	9.299008E-04	2.550499E-04
3.386675E+03	9.326173E-04	2.547000E-04
3.396578E+03	9.353087E-04	2.543335E-04
3.406480E+03	9.379753E-04	2.539508E-04
3.416383E+03	9.406172E-04	2.535520E-04
3.426285E+03	9.432222E-04	2.531340E-04
3.436188E+03	9.458039E-04	2.527005E-04
3.446090E+03	9.483498E-04	2.522485E-04
3.455993E+03	9.508482E-04	2.517751E-04
3.465896E+03	9.533003E-04	2.512808E-04
3.475798E+03	9.556950E-04	2.507628E-04
3.485701E+03	9.580456E-04	2.502251E-04
3.495603E+03	9.603167E-04	2.496587E-04
3.505506E+03	9.625227E-04	2.490676E-04
3.515408E+03	9.646529E-04	2.484494E-04
3.525311E+03	9.667090E-04	2.478050E-04
3.535213E+03	9.686701E-04	2.471294E-04
3.545116E+03	9.705265E-04	2.464207E-04
3.555019E+03	9.722925E-04	2.456828E-04
3.564921E+03	9.739362E-04	2.449083E-04
3.574824E+03	9.754722E-04	2.441013E-04
3.584726E+03	9.768912E-04	2.432602E-04
3.594629E+03	9.781748E-04	2.423809E-04
3.604531E+03	9.793155E-04	2.414622E-04
3.614434E+03	9.803163E-04	2.405055E-04
3.624337E+03	9.811592E-04	2.395071E-04
3.634239E+03	9.818591E-04	2.384714E-04
3.644142E+03	9.823878E-04	2.373922E-04
3.654044E+03	9.827492E-04	2.362713E-04
3.663947E+03	9.829373E-04	2.351080E-04
3.673849E+03	9.829561E-04	2.339041E-04
3.683752E+03	9.827896E-04	2.326567E-04
3.693654E+03	9.824419E-04	2.313675E-04
3.703557E+03	9.819076E-04	2.300362E-04
3.713460E+03	9.811912E-04	2.286647E-04
3.723362E+03	9.802870E-04	2.272525E-04
3.733265E+03	9.791995E-04	2.258016E-04
3.743167E+03	9.779237E-04	2.243117E-04
3.753070E+03	9.764542E-04	2.227824E-04
3.762972E+03	9.748143E-04	2.212201E-04
3.772875E+03	9.729802E-04	2.196201E-04
3.782777E+03	9.709655E-04	2.179864E-04
3.792680E+03	9.687836E-04	2.163230E-04
3.802583E+03	9.664199E-04	2.146273E-04
3.812485E+03	9.638788E-04	2.129012E-04
3.822388E+03	9.611733E-04	2.111485E-04
3.832290E+03	9.583068E-04	2.093707E-04
3.842193E+03	9.552833E-04	2.075695E-04
3.852095E+03	9.520974E-04	2.057444E-04
3.861998E+03	9.487610E-04	2.038989E-04
3.871900E+03	9.452779E-04	2.020346E-04
3.881803E+03	9.416506E-04	2.001526E-04
3.891706E+03	9.378829E-04	1.982545E-04
3.901608E+03	9.339773E-04	1.963416E-04
3.911511E+03	9.299449E-04	1.944169E-04
3.921413E+03	9.257886E-04	1.924816E-04
3.931316E+03	9.215021E-04	1.905350E-04
3.941218E+03	9.171050E-04	1.885818E-04
3.951121E+03	9.125908E-04	1.866214E-04
3.961024E+03	9.079699E-04	1.846563E-04
3.970926E+03	9.032443E-04	1.826876E-04
3.980829E+03	8.984074E-04	1.807144E-04
3.990731E+03	8.934774E-04	1.787409E-04
4.000634E+03	8.884476E-04	1.767664E-04
4.010536E+03	8.833276E-04	1.747931E-04
4.020439E+03	8.781184E-04	1.728218E-04
4.030341E+03	8.728217E-04	1.708532E-04
4.040244E+03	8.674382E-04	1.688878E-04
4.050147E+03	8.619765E-04	1.669278E-04
4.060049E+03	8.564304E-04	1.649723E-04
4.069952E+03	8.508003E-04	1.630218E-04
4.079854E+03	8.451023E-04	1.610797E-04
4.089757E+03	8.393221E-04	1.591437E-04
4.099659E+03	8.334675E-04	1.572154E-04
4.109562E+03	8.275392E-04	1.552954E-04
4.119464E+03	8.215376E-04	1.533841E-04
4.129367E+03	8.154631E-04	1.514817E-04
4.139270E+03	8.093159E-04	1.495885E-04
4.149172E+03	8.030968E-04	1.477049E-04
4.159075E+03	7.968057E-04	1.458312E-04
4.168977E+03	7.904428E-04	1.439674E-04
4.178880E+03	7.840084E-04	1.421140E-04
4.188782E+03	7.774957E-04	1.402698E-04
4.198685E+03	7.709050E-04	1.384350E-04
4.208587E+03	7.642435E-04	1.366110E-04
4.218490E+03	7.575109E-04	1.347979E-04
4.228393E+03	7.506939E-04	1.329932E-04
4.238295E+03	7.437990E-04	1.311975E-04
4.248198E+03	7.368248E-04	1.294104E-04
4.258100E+03	7.297707E-04	1.276313E-04
4.268003E+03	7.226363E-04	1.258598E-04
4.277905E+03	7.154143E-04	1.240942E-04
4.287808E+03	7.081169E-04	1.223363E-04
4.297711E+03	7.007314E-04	1.205835E-04
4.307613E+03	6.932694E-04	1.188375E-04
4.317516E+03	6.857309E-04	1.170977E-04
4.327418E+03	6.781216E-04	1.153649E-04
4.337321E+03	6.704409E-04	1.136385E-04
4.347223E+03	6.626946E-04	1.119190E-04
4.357126E+03	6.548804E-04	1.102057E-04
4.367028E+03	6.470064E-04	1.084996E-04
4.376931E+03	6.390685E-04	1.067996E-04
4.386834E+03	6.310641E-04	1.051048E-04
4.396736E+03	6.230005E-04	1.034161E-04
4.406639E+03	6.148754E-04	1.017327E-04
4.416541E+03	6.066915E-04	1.000547E-04
4.426444E+03	5.984573E-04	9.838303E-05
4.436346E+03	5.901647E-04	9.671611E-05
4.446249E+03	5.818230E-04	9.505509E-05
4.456151E+03	5.734356E-04	9.340007E-05
4.466054E+03	5.650015E-04	9.175050E-05
4.475957E+03	5.565258E-04	9.010677E-05
4.485859E+03	5.480134E-04	8.846929E-05
4.495762E+03	5.394695E-04	8.683850E-05
4.505664E+03	5.308997E-04	8.521490E-05
4.515567E+03	5.223049E-04	8.359828E-05
4.525469E+03	5.136856E-04	8.198838E-05
4.535372E+03	5.050581E-04	8.038743E-05
4.545274E+03	4.964188E-04	7.879454E-05
4.555177E+03	4.877691E-04	7.720960E-05
4.565080E+03	4.791203E-04	7.563412E-05
4.574982E+03	4.704786E-04	7.406876E-05
4.584885E+03	4.618371E-04	7.251214E-05
4.594787E+03	4.532155E-04	7.096713E-05
4.604690E+03	4.446029E-04	6.943174E-05
4.614592E+03	4.360148E-04	6.790814E-05
4.624495E+03	4.274536E-04	6.639648E-05
4.634398E+03	4.189214E-04	6.489687E-05
4.644300E+03	4.104211E-04	6.340955E-05
4.654203E+03	4.019555E-04	6.193474E-05
4.664105E+03	3.935352E-04	6.047392E-05
4.674008E+03	3.851592E-04	5.902675E-05
4.683910E+03	3.768328E-04	5.759384E-05
4.693813E+03	3.685685E-04	5.617699E-05
4.703715E+03	3.603686E-04	5.477638E-05
4.713618E+03	3.522524E-04	5.339477E-05
4.723521E+03	3.442176E-04	5.203167E-05
4.733423E+03	3.362785E-04	5.068910E-05
4.743326E+03	3.284425E-04	4.936800E-05
4.753228E+03	3.207092E-04	4.806818E-05
4.763131E+03	3.130884E-04	4.679095E-05
4.773033E+03	3.055887E-04	4.553746E-05
4.782936E+03	2.982093E-04	4.430744E-05
4.792838E+03	2.909576E-04	4.310186E-05
4.802741E+03	2.838381E-04	4.192123E-05
4.812644E+03	2.768518E-04	4.076555E-05
4.822546E+03	2.700020E-04	3.963517E-05
4.832449E+03	2.632945E-04	3.853080E-05
4.842351E+03	2.567293E-04	3.745230E-05
4.852254E+03	2.503110E-04	3.640020E-05
4.862156E+03	2.440363E-04	3.537389E-05
4.872059E+03	2.379095E-04	3.437384E-05
4.881961E+03	2.319316E-04	3.340004E-05
4.891864E+03	2.261010E-04	3.245215E-05
4.901767E+03	2.204209E-04	3.153045E-05
4.911669E+03	2.148890E-04	3.063450E-05
4.921572E+03	2.095077E-04	2.976449E-05
4.931474E+03	2.042745E-04	2.891991E-05
4.941377E+03	1.991889E-04	2.810055E-05
4.951279E+03	1.942484E-04	2.730592E-05
4.961182E+03	1.894560E-04	2.653630E-05
4.971085E+03	1.848069E-04	2.579086E-05
4.980987E+03	1.802998E-04	2.506927E-05
4.990890E+03	1.759352E-04	2.437147E-05
5.000792E+03	1.717099E-04	2.369689E-05
5.010695E+03	1.676224E-04	2.304514E-05
5.020597E+03	1.636708E-04	2.241583E-05
5.030500E+03	1.598536E-04	2.180861E-05
5.040402E+03	1.561672E-04	2.122285E-05
5.050305E+03	1.526096E-04	2.065814E-05
5.060208E+03	1.491808E-04	2.011434E-05
5.070110E+03	1.458754E-04	1.959058E-05
5.080013E+03	1.426946E-04	1.908687E-05
5.089915E+03	1.396320E-04	1.860223E-05
5.099818E+03	1.366885E-04	1.813665E-05
5.109720E+03	1.338608E-04	1.768954E-05
5.119623E+03	1.311467E-04	1.726050E-05
5.129525E+03	1.285444E-04	1.684914E-05
5.139428E+03	1.260505E-04	1.645492E-05
5.149331E+03	1.236632E-04	1.607746E-05
5.159233E+03	1.213796E-04	1.571625E-05
5.169136E+03	1.192002E-04	1.537125E-05
5.179038E+03	1.171196E-04	1.504167E-05
5.188941E+03	1.151375E-04	1.472732E-05
5.198843E+03	1.132523E-04	1.442790E-05
5.208746E+03	1.114623E-04	1.414309E-05
5.218648E+03	1.097638E-04	1.387233E-05
5.228551E+03	1.081567E-04	1.361550E-05
5.238454E+03	1.066386E-04	1.337218E-05
5.248356E+03	1.052082E-04	1.314215E-05
5.258259E+03	1.038635E-04	1.292506E-05
5.268161E+03	1.026044E-04	1.272082E-05
5.278064E+03	1.014279E-04	1.252898E-05
5.287966E+03	1.003333E-04	1.234939E-05
5.297869E+03	9.931886E-05	1.218175E-05
5.307772E+03	9.838499E-05	1.202607E-05
5.317674E+03	9.752823E-05	1.188185E-05
5.327577E+03	9.674921E-05	1.174914E-05
5.337479E+03	9.604669E-05	1.162774E-05
5.347382E+03	9.541956E-05	1.151747E-05
5.357284E+03	9.486495E-05	1.141796E-05
5.367187E+03	9.438204E-05	1.132910E-05
5.377089E+03	9.397011E-05	1.125077E-05
5.386992E+03	9.362482E-05	1.118245E-05
5.396895E+03	9.334571E-05	1.112409E-05
5.406797E+03	9.312962E-05	1.107533E-05
5.416700E+03	9.297535E-05	1.103604E-05
5.426602E+03	9.288646E-05	1.100668E-05
5.436505E+03	9.286281E-05	1.098724E-05
5.446407E+03	9.290779E-05	1.097819E-05
5.456310E+03	9.302209E-05	1.097963E-05
5.466212E+03	9.320918E-05	1.099205E-05
5.476115E+03	9.346794E-05	1.101537E-05
5.486018E+03	9.380024E-05	1.104988E-05
5.495920E+03	9.420618E-05	1.109568E-05
5.505823E+03	9.468883E-05	1.115323E-05
5.515725E+03	9.524760E-05	1.122256E-05
5.525628E+03	9.588367E-05	1.130392E-05
5.535530E+03	9.659712E-05	1.139737E-05
5.545433E+03	9.739015E-05	1.150319E-05
5.555335E+03	9.826211E-05	1.162131E-05
5.565238E+03	9.921440E-05	1.175195E-05
5.575141E+03	1.002486E-04	1.189533E-05
5.585043E+03	1.013655E-04	1.205157E-05
5.594946E+03	1.025668E-04	1.222097E-05
5.604848E+03	1.038524E-04	1.240355E-05
5.614751E+03	1.052243E-04	1.259964E-05
5.624653E+03	1.066848E-04	1.280958E-05
5.634556E+03	1.082349E-04	1.303360E-05
5.644459E+03	1.098760E-04	1.327195E-05
5.654361E+03	1.116094E-04	1.352489E-05
5.664264E+03	1.134390E-04	1.379299E-05
5.674166E+03	1.153638E-04	1.407627E-05
5.684069E+03	1.173880E-04	1.437533E-05
5.693971E+03	1.195131E-04	1.469052E-05
5.703874E+03	1.217397E-04	1.502200E-05
5.713776E+03	1.240708E-04	1.537032E-05
5.723679E+03	1.265096E-04	1.573602E-05
5.733582E+03	1.290566E-04	1.611928E-05
5.743484E+03	1.317138E-04	1.652052E-05
5.753387E+03	1.344858E-04	1.694048E-05
5.763289E+03	1.373719E-04	1.737923E-05
5.773192E+03	1.403754E-04	1.783735E-05
5.783094E+03	1.434981E-04	1.831525E-05
5.792997E+03	1.467420E-04	1.881335E-05
5.802899E+03	1.501107E-04	1.933227E-05
5.812802E+03	1.536027E-04	1.987201E-05
5.822705E+03	1.572229E-04	2.043339E-05
5.832607E+03	1.609716E-04	2.101659E-05
5.842510E+03	1.648500E-04	2.162198E-05
5.852412E+03	1.688599E-04	2.224995E-05
5.862315E+03	1.730022E-04	2.290080E-05
5.872217E+03	1.772803E-04	2.357514E-05
5.882120E+03	1.816909E-04	2.427273E-05
5.892022E+03	1.862349E-04	2.499383E-05
5.901925E+03	1.909147E-04	2.573891E-05
5.911828E+03	1.957306E-04	2.650819E-05
5.921730E+03	2.006779E-04	2.730118E-05
5.931633E+03	2.057608E-04	2.811858E-05
5.941535E+03	2.109714E-04	2.895944E-05
5.951438E+03	2.163157E-04	2.982472E-05
5.961340E+03	2.217847E-04	3.071328E-05
5.971243E+03	2.273761E-04	3.162490E-05
5.981146E+03	2.330899E-04	3.255966E-05
5.991048E+03	2.389204E-04	3.351685E-05
6.000951E+03	2.448639E-04	3.449600E-05
6.010853E+03	2.509103E-04	3.549573E-05
6.020756E+03	2.570604E-04	3.651618E-05
6.030658E+03	2.632997E-04	3.755530E-05
6.040561E+03	2.696282E-04	3.861307E-05
6.050463E+03	2.760355E-04	3.968799E-05
6.060366E+03	2.825113E-04	4.077850E-05
6.070269E+03	2.890465E-04	4.188325E-05
6.080171E+03	2.956362E-04	4.300142E-05
6.090074E+03	3.022671E-04	4.413097E-05
6.099976E+03	3.089287E-04	4.527025E-05
6.109879E+03	3.156182E-04	4.641869E-05
6.119781E+03	3.223162E-04	4.757328E-05
6.129684E+03	3.290147E-04	4.873265E-05
6.139586E+03	3.357074E-04	4.989566E-05
6.149489E+03	3.423904E-04	5.106154E-05
6.159392E+03	3.490521E-04	5.222832E-05
6.169294E+03	3.556844E-04	5.339456E-05
6.179197E+03	3.622836E-04	5.455948E-05
6.189099E+03	3.688371E-04	5.572090E-05
6.199002E+03	3.753413E-04	5.687803E-05
6.208904E+03	3.817880E-04	5.802938E-05
6.218807E+03	3.881742E-04	5.917421E-05
6.228709E+03	3.944916E-04	6.031098E-05
6.238612E+03	4.007325E-04	6.143823E-05
6.248515E+03	4.068938E-04	6.255523E-05
6.258417E+03	4.129737E-04	6.366139E-05
6.268320E+03	4.189589E-04	6.475441E-05
6.278222E+03	4.248477E-04	6.583374E-05
6.288125E+03	4.306393E-04	6.689897E-05
6.298027E+03	4.363212E-04	6.794788E-05
6.307930E+03	4.418999E-04	6.898118E-05
6.317833E+03	4.473704E-04	6.999776E-05
6.327735E+03	4.527278E-04	7.099653E-05
6.337638E+03	4.579673E-04	7.197643E-05
6.347540E+03	4.630978E-04	7.293852E-05
6.357443E+03	4.681087E-04	7.388084E-05
6.367345E+03	4.730102E-04	7.480468E-05
6.377248E+03	4.777991E-04	7.570927E-05
6.387150E+03	4.824728E-04	7.659388E-05
6.397053E+03	4.870357E-04	7.745897E-05
6.406956E+03	4.914860E-04	7.830394E-05
6.416858E+03	4.958293E-04	7.912946E-05
6.426761E+03	5.000489E-04	7.993258E-05
6.436663E+03	5.041584E-04	8.071524E-05
6.446566E+03	5.081567E-04	8.147703E-05
6.456468E+03	5.120354E-04	8.221636E-05
6.466371E+03	5.158011E-04	8.293408E-05
6.476273E+03	5.194536E-04	8.362995E-05
6.486176E+03	5.229928E-04	8.430374E-05
6.496079E+03	5.264181E-04	8.495516E-05
6.505981E+03	5.297387E-04	8.558551E-05
6.515884E+03	5.329459E-04	8.619323E-05
6.525786E+03	5.360403E-04	8.677825E-05
6.535689E+03	5.390313E-04	8.734193E-05
6.545591E+03	5.419200E-04	8.788430E-05
6.555494E+03	5.446983E-04	8.840392E-05
6.565396E+03	5.473762E-04	8.890231E-05
6.575299E+03	5.499461E-04	8.937809E-05
6.585202E+03	5.524278E-04	8.983440E-05
6.595104E+03	5.548043E-04	9.026837E-05
6.605007E+03	5.570769E-04	9.068014E-05
6.614909E+03	5.592570E-04	9.107148E-05
6.624812E+03	5.613466E-04	9.144265E-05
6.634714E+03	5.633380E-04	9.179234E-05
6.644617E+03	5.652326E-04	9.212075E-05
6.654520E+03	5.670428E-04	9.242986E-05
6.664422E+03	5.687608E-04	9.271836E-05
6.674325E+03	5.703987E-04	9.298821E-05
6.684227E+03	5.719386E-04	9.323650E-05
6.694130E+03	5.734031E-04	9.346689E-05
6.704032E+03	5.747741E-04	9.367644E-05
6.713935E+03	5.760748E-04	9.386897E-05
6.723837E+03	5.772865E-04	9.404144E-05
6.733740E+03	5.784224E-04	9.419605E-05
6.743643E+03	5.794849E-04	9.433324E-05
6.753545E+03	5.804659E-04	9.445172E-05
6.763448E+03	5.813787E-04	9.455372E-05
6.773350E+03	5.822152E-04	9.463800E-05
6.783253E+03	5.829887E-04	9.470677E-05
6.793155E+03	5.836801E-04	9.475704E-05
6.803058E+03	5.843138E-04	9.479285E-05
6.812960E+03	5.848817E-04	9.481299E-05
6.822863E+03	5.853861E-04	9.481791E-05
6.832766E+03	5.858188E-04	9.480642E-05
6.842668E+03	5.862047E-04	9.478266E-05
6.852571E+03	5.865128E-04	9.474173E-05
6.862473E+03	5.867792E-04	9.468961E-05
6.872376E+03	5.869846E-04	9.462330E-05
6.882278E+03	5.871310E-04	9.454328E-05
6.892181E+03	5.872327E-04	9.445201E-05
6.902083E+03	5.872809E-04	9.434820E-05
6.911986E+03	5.872782E-04	9.423244E-05
6.921889E+03	5.872272E-04	9.410533E-05
6.931791E+03	5.871304E-04	9.396741E-05
6.941694E+03	5.869906E-04	9.381932E-05
6.951596E+03	5.867983E-04	9.365973E-05
6.961499E+03	5.865798E-04	9.349300E-05
6.971401E+03	5.863022E-04	9.331410E-05
6.981304E+03	5.860035E-04	9.312924E-05
6.991207E+03	5.856507E-04	9.293342E-05
7.001109E+03	5.852697E-04	9.273093E-05
7.011012E+03	5.848514E-04	9.252052E-05
7.020914E+03	5.843981E-04	9.230279E-05
7.030817E+03	5.839238E-04	9.208014E-05
7.040719E+03	5.834076E-04	9.184951E-05
7.050622E+03	5.828637E-04	9.161335E-05
7.060524E+03	5.822822E-04	9.137034E-05
7.070427E+03	5.816774E-04	9.112295E-05
7.080330E+03	5.810515E-04	9.087176E-05
7.090232E+03	5.803948E-04	9.061549E-05
7.100135E+03	5.797217E-04	9.035660E-05
7.110037E+03	5.790103E-04	9.009194E-05
7.119940E+03	5.782866E-04	8.982581E-05
7.129842E+03	5.775409E-04	8.955691E-05
7.139745E+03	5.767635E-04	8.928402E-05
7.149647E+03	5.759682E-04	8.900950E-05
7.159550E+03	5.751569E-04	8.873393E-05
7.169453E+03	5.743199E-04	8.845604E-05
7.179355E+03	5.734589E-04	8.817637E-05
7.189258E+03	5.725764E-04	8.789553E-05
7.199160E+03	5.716738E-04	8.761404E-05
7.209063E+03	5.707531E-04	8.733243E-05
7.218965E+03	5.697923E-04	8.704762E-05
7.228868E+03	5.688174E-04	8.676383E-05
7.238770E+03	5.678179E-04	8.647974E-05
7.248673E+03	5.667837E-04	8.619406E-05
7.258576E+03	5.657286E-04	8.590917E-05
7.268478E+03	5.646305E-04	8.562196E-05
7.278381E+03	5.634911E-04	8.533298E-05
7.288283E+03	5.623119E-04	8.504271E-05
7.298186E+03	5.610831E-04	8.474993E-05
7.308088E+03	5.598175E-04	8.445685E-05
7.317991E+03	5.584818E-04	8.415869E-05
7.327894E+03	5.571007E-04	8.385945E-05
7.337796E+03	5.556523E-04	8.355607E-05
7.347699E+03	5.541500E-04	8.325082E-05
7.357601E+03	5.525832E-04	8.294232E-05
7.367504E+03	5.509534E-04	8.263105E-05
7.377406E+03	5.492736E-04	8.231917E-05
7.387309E+03	5.475336E-04	8.200536E-05
7.397211E+03	5.457697E-04	8.169524E-05
7.407114E+03	5.439597E-04	8.138569E-05
7.417017E+03	5.421285E-04	8.108046E-05
7.426919E+03	5.402651E-04	8.077769E-05
7.436822E+03	5.384058E-04	8.048252E-05
7.446724E+03	5.365399E-04	8.019307E-05
7.456627E+03	5.346681E-04	7.990915E-05
7.466529E+03	5.328034E-04	7.963242E-05
7.476432E+03	5.309462E-04	7.936265E-05
7.486334E+03	5.291212E-04	7.910323E-05
7.496237E+03	5.273053E-04	7.885045E-05
7.506140E+03	5.255111E-04	7.860590E-05
7.516042E+03	5.237508E-04	7.837111E-05
7.525945E+03	5.220134E-04	7.814419E-05
7.535847E+03	5.203115E-04	7.792672E-05
7.545750E+03	5.186335E-04	7.771674E-05
7.555652E+03	5.170034E-04	7.751755E-05
7.565555E+03	5.153985E-04	7.732552E-05
7.575457E+03	5.138424E-04	7.714391E-05
7.585360E+03	5.123122E-04	7.696908E-05
7.595263E+03	5.108320E-04	7.680437E-05
7.605165E+03	5.093782E-04	7.664604E-05
7.615068E+03	5.079751E-04	7.649748E-05
7.624970E+03	5.066110E-04	7.635674E-05
7.634873E+03	5.052864E-04	7.622367E-05
7.644775E+03	5.040015E-04	7.609810E-05
7.654678E+03	5.027566E-04	7.597985E-05
7.664581E+03	5.015520E-04	7.586880E-05
7.674483E+03	5.003764E-04	7.576303E-05
7.684386E+03	4.992530E-04	7.566587E-05
