#wls	flux	fluxerr
1.584409E+03	2.938646E-03	5.539688E-04
1.624020E+03	3.029012E-03	5.710006E-04
1.663630E+03	3.114837E-03	5.871761E-04
1.703240E+03	3.195592E-03	6.023954E-04
1.742850E+03	3.269439E-03	6.163118E-04
1.782461E+03	3.336329E-03	6.289164E-04
1.822071E+03	3.394324E-03	6.398437E-04
1.861681E+03	3.442978E-03	6.490096E-04
1.901291E+03	3.481216E-03	6.562115E-04
1.940902E+03	3.507428E-03	6.611461E-04
1.980512E+03	3.521202E-03	6.637355E-04
2.020122E+03	3.521367E-03	6.637592E-04
2.059732E+03	3.506926E-03	6.610296E-04
2.099342E+03	3.477108E-03	6.554009E-04
2.138953E+03	3.430959E-03	6.466937E-04
2.178563E+03	3.367116E-03	6.346513E-04
2.218173E+03	3.284290E-03	6.190307E-04
2.257783E+03	3.182572E-03	5.998495E-04
2.297394E+03	3.064038E-03	5.774988E-04
2.337004E+03	2.932607E-03	5.527177E-04
2.376614E+03	2.791348E-03	5.260847E-04
2.416224E+03	2.643026E-03	4.981211E-04
2.455835E+03	2.489548E-03	4.691863E-04
2.495445E+03	2.332958E-03	4.396658E-04
2.535055E+03	2.174871E-03	4.098640E-04
2.574665E+03	2.017014E-03	3.801064E-04
2.614276E+03	1.860766E-03	3.506531E-04
2.653886E+03	1.707463E-03	3.217557E-04
2.693496E+03	1.558360E-03	2.936510E-04
2.733106E+03	1.414474E-03	2.665304E-04
2.772716E+03	1.276763E-03	2.405745E-04
2.812327E+03	1.146056E-03	2.159396E-04
2.851937E+03	1.023125E-03	1.927710E-04
2.891547E+03	9.086596E-04	1.711985E-04
2.931157E+03	8.031830E-04	1.513208E-04
2.970768E+03	7.070451E-04	1.332036E-04
2.980670E+03	6.844875E-04	1.289527E-04
2.990573E+03	6.625076E-04	1.248107E-04
3.000475E+03	6.411295E-04	1.207822E-04
3.010378E+03	6.203172E-04	1.168603E-04
3.020280E+03	6.000915E-04	1.130489E-04
3.030183E+03	5.804434E-04	1.093465E-04
3.040086E+03	5.613764E-04	1.057535E-04
3.049988E+03	5.428577E-04	1.022639E-04
3.059891E+03	5.249120E-04	9.888235E-05
3.069793E+03	5.075075E-04	9.560278E-05
3.079696E+03	4.906555E-04	9.242732E-05
3.089598E+03	4.743441E-04	8.935376E-05
3.099501E+03	4.585537E-04	8.637840E-05
3.109403E+03	4.432914E-04	8.350257E-05
3.119306E+03	4.285372E-04	8.072249E-05
3.129209E+03	4.142880E-04	7.803759E-05
3.139111E+03	4.005324E-04	7.544571E-05
3.149014E+03	3.872586E-04	7.294465E-05
3.158916E+03	3.744624E-04	7.053358E-05
3.168819E+03	3.621314E-04	6.821018E-05
3.178721E+03	3.502477E-04	6.597106E-05
3.188624E+03	3.388119E-04	6.381637E-05
3.198526E+03	3.278062E-04	6.174272E-05
3.208429E+03	3.172246E-04	5.974899E-05
3.218332E+03	3.070551E-04	5.783291E-05
3.228234E+03	2.972809E-04	5.599133E-05
3.238137E+03	2.879006E-04	5.422398E-05
3.248039E+03	2.788930E-04	5.252684E-05
3.257942E+03	2.702561E-04	5.089957E-05
3.267844E+03	2.619782E-04	4.933994E-05
3.277747E+03	2.540403E-04	4.784436E-05
3.287650E+03	2.464393E-04	4.641227E-05
3.297552E+03	2.391642E-04	4.504159E-05
3.307455E+03	2.322012E-04	4.372972E-05
3.317357E+03	2.255397E-04	4.247465E-05
3.327260E+03	2.191701E-04	4.127458E-05
3.337162E+03	2.130825E-04	4.012765E-05
3.347065E+03	2.072674E-04	3.903205E-05
3.356967E+03	2.017154E-04	3.798601E-05
3.366870E+03	1.964149E-04	3.698736E-05
3.376773E+03	1.913549E-04	3.603403E-05
3.386675E+03	1.865318E-04	3.512534E-05
3.396578E+03	1.819307E-04	3.425845E-05
3.406480E+03	1.775461E-04	3.343235E-05
3.416383E+03	1.733684E-04	3.264525E-05
3.426285E+03	1.693908E-04	3.189582E-05
3.436188E+03	1.656023E-04	3.118203E-05
3.446090E+03	1.619950E-04	3.050236E-05
3.455993E+03	1.585629E-04	2.985570E-05
3.465896E+03	1.552968E-04	2.924032E-05
3.475798E+03	1.521916E-04	2.865524E-05
3.485701E+03	1.492356E-04	2.809827E-05
3.495603E+03	1.464246E-04	2.756860E-05
3.505506E+03	1.437497E-04	2.706458E-05
3.515408E+03	1.412044E-04	2.658496E-05
3.525311E+03	1.387823E-04	2.612856E-05
3.535213E+03	1.364749E-04	2.569376E-05
3.545116E+03	1.342796E-04	2.528007E-05
3.555019E+03	1.321899E-04	2.488627E-05
3.564921E+03	1.301998E-04	2.451122E-05
3.574824E+03	1.283072E-04	2.415456E-05
3.584726E+03	1.265055E-04	2.381499E-05
3.594629E+03	1.247905E-04	2.349176E-05
3.604531E+03	1.231586E-04	2.318418E-05
3.614434E+03	1.216060E-04	2.289154E-05
3.624337E+03	1.201294E-04	2.261321E-05
3.634239E+03	1.187253E-04	2.234854E-05
3.644142E+03	1.173917E-04	2.209714E-05
3.654044E+03	1.161265E-04	2.185861E-05
3.663947E+03	1.149265E-04	2.163238E-05
3.673849E+03	1.137928E-04	2.141862E-05
3.683752E+03	1.127213E-04	2.121656E-05
3.693654E+03	1.117119E-04	2.102621E-05
3.703557E+03	1.107626E-04	2.084716E-05
3.713460E+03	1.098722E-04	2.067922E-05
3.723362E+03	1.090416E-04	2.052253E-05
3.733265E+03	1.082668E-04	2.037633E-05
3.743167E+03	1.075485E-04	2.024078E-05
3.753070E+03	1.068864E-04	2.011580E-05
3.762972E+03	1.062775E-04	2.000085E-05
3.772875E+03	1.057226E-04	1.989604E-05
3.782777E+03	1.052211E-04	1.980130E-05
3.792680E+03	1.047711E-04	1.971625E-05
3.802583E+03	1.043714E-04	1.964066E-05
3.812485E+03	1.040234E-04	1.957479E-05
3.822388E+03	1.037241E-04	1.951809E-05
3.832290E+03	1.034741E-04	1.947067E-05
3.842193E+03	1.032722E-04	1.943229E-05
3.852095E+03	1.031180E-04	1.940291E-05
3.861998E+03	1.030113E-04	1.938244E-05
3.871900E+03	1.029501E-04	1.937054E-05
3.881803E+03	1.029341E-04	1.936713E-05
3.891706E+03	1.029638E-04	1.937232E-05
3.901608E+03	1.030381E-04	1.938590E-05
3.911511E+03	1.031559E-04	1.940766E-05
3.921413E+03	1.033170E-04	1.943756E-05
3.931316E+03	1.035203E-04	1.947541E-05
3.941218E+03	1.037657E-04	1.952115E-05
3.951121E+03	1.040528E-04	1.957475E-05
3.961024E+03	1.043816E-04	1.963618E-05
3.970926E+03	1.047502E-04	1.970509E-05
3.980829E+03	1.051585E-04	1.978146E-05
3.990731E+03	1.056063E-04	1.986526E-05
4.000634E+03	1.060936E-04	1.995647E-05
4.010536E+03	1.066193E-04	2.005491E-05
4.020439E+03	1.071826E-04	2.016042E-05
4.030341E+03	1.077835E-04	2.027297E-05
4.040244E+03	1.084210E-04	2.039241E-05
4.050147E+03	1.090950E-04	2.051872E-05
4.060049E+03	1.098049E-04	2.065174E-05
4.069952E+03	1.105504E-04	2.079147E-05
4.079854E+03	1.113308E-04	2.093775E-05
4.089757E+03	1.121453E-04	2.109042E-05
4.099659E+03	1.129938E-04	2.124948E-05
4.109562E+03	1.138755E-04	2.141478E-05
4.119464E+03	1.147905E-04	2.158633E-05
4.129367E+03	1.157372E-04	2.176380E-05
4.139270E+03	1.167154E-04	2.194721E-05
4.149172E+03	1.177235E-04	2.213623E-05
4.159075E+03	1.187625E-04	2.233103E-05
4.168977E+03	1.198306E-04	2.253129E-05
4.178880E+03	1.209279E-04	2.273703E-05
4.188782E+03	1.220516E-04	2.294772E-05
4.198685E+03	1.232027E-04	2.316355E-05
4.208587E+03	1.243784E-04	2.338398E-05
4.218490E+03	1.255798E-04	2.360922E-05
4.228393E+03	1.268038E-04	2.383870E-05
4.238295E+03	1.280485E-04	2.407206E-05
4.248198E+03	1.293148E-04	2.430947E-05
4.258100E+03	1.305987E-04	2.455015E-05
4.268003E+03	1.319010E-04	2.479429E-05
4.277905E+03	1.332176E-04	2.504107E-05
4.287808E+03	1.345491E-04	2.529066E-05
4.297711E+03	1.358934E-04	2.554262E-05
4.307613E+03	1.372480E-04	2.579651E-05
4.317516E+03	1.386127E-04	2.605227E-05
4.327418E+03	1.399861E-04	2.630965E-05
4.337321E+03	1.413690E-04	2.656880E-05
4.347223E+03	1.427590E-04	2.682926E-05
4.357126E+03	1.441581E-04	2.709141E-05
4.367028E+03	1.455662E-04	2.735522E-05
4.376931E+03	1.469831E-04	2.762067E-05
4.386834E+03	1.484088E-04	2.788775E-05
4.396736E+03	1.498444E-04	2.815667E-05
4.406639E+03	1.512888E-04	2.842721E-05
4.416541E+03	1.527431E-04	2.869961E-05
4.426444E+03	1.542076E-04	2.897389E-05
4.436346E+03	1.556824E-04	2.925008E-05
4.446249E+03	1.571663E-04	2.952796E-05
4.456151E+03	1.586596E-04	2.980758E-05
4.466054E+03	1.601612E-04	3.008873E-05
4.475957E+03	1.616727E-04	3.037171E-05
4.485859E+03	1.631916E-04	3.065607E-05
4.495762E+03	1.647183E-04	3.094187E-05
4.505664E+03	1.662532E-04	3.122917E-05
4.515567E+03	1.677938E-04	3.151752E-05
4.525469E+03	1.693420E-04	3.180728E-05
4.535372E+03	1.708953E-04	3.209797E-05
4.545274E+03	1.724544E-04	3.238971E-05
4.555177E+03	1.740166E-04	3.268203E-05
4.565080E+03	1.755842E-04	3.297532E-05
4.574982E+03	1.771563E-04	3.326941E-05
4.584885E+03	1.787304E-04	3.356386E-05
4.594787E+03	1.803073E-04	3.385881E-05
4.604690E+03	1.818878E-04	3.415440E-05
4.614592E+03	1.834711E-04	3.445050E-05
4.624495E+03	1.850550E-04	3.474668E-05
4.634398E+03	1.866437E-04	3.504373E-05
4.644300E+03	1.882384E-04	3.534186E-05
4.654203E+03	1.898370E-04	3.564069E-05
4.664105E+03	1.914405E-04	3.594044E-05
4.674008E+03	1.930508E-04	3.624141E-05
4.683910E+03	1.946636E-04	3.654282E-05
4.693813E+03	1.962806E-04	3.684499E-05
4.703715E+03	1.978996E-04	3.714749E-05
4.713618E+03	1.995222E-04	3.745064E-05
4.723521E+03	2.011481E-04	3.775438E-05
4.733423E+03	2.027751E-04	3.805829E-05
4.743326E+03	2.044050E-04	3.836272E-05
4.753228E+03	2.060359E-04	3.866729E-05
4.763131E+03	2.076692E-04	3.897226E-05
4.773033E+03	2.093028E-04	3.927727E-05
4.782936E+03	2.109364E-04	3.958225E-05
4.792838E+03	2.125700E-04	3.988719E-05
4.802741E+03	2.142052E-04	4.019239E-05
4.812644E+03	2.158397E-04	4.049741E-05
4.822546E+03	2.174732E-04	4.080221E-05
4.832449E+03	2.191034E-04	4.110637E-05
4.842351E+03	2.207341E-04	4.141057E-05
4.852254E+03	2.223629E-04	4.171438E-05
4.862156E+03	2.239890E-04	4.201765E-05
4.872059E+03	2.256103E-04	4.231995E-05
4.881961E+03	2.272277E-04	4.262151E-05
4.891864E+03	2.288390E-04	4.292189E-05
4.901767E+03	2.304432E-04	4.322088E-05
4.911669E+03	2.320417E-04	4.351876E-05
4.921572E+03	2.336316E-04	4.381500E-05
4.931474E+03	2.352119E-04	4.410939E-05
4.941377E+03	2.367795E-04	4.440136E-05
4.951279E+03	2.383354E-04	4.469109E-05
4.961182E+03	2.398786E-04	4.497840E-05
4.971085E+03	2.414054E-04	4.526258E-05
4.980987E+03	2.429145E-04	4.554343E-05
4.990890E+03	2.444046E-04	4.582064E-05
5.000792E+03	2.458715E-04	4.609350E-05
5.010695E+03	2.473166E-04	4.636220E-05
5.020597E+03	2.487381E-04	4.662643E-05
5.030500E+03	2.501291E-04	4.688492E-05
5.040402E+03	2.514905E-04	4.713781E-05
5.050305E+03	2.528203E-04	4.738475E-05
5.060208E+03	2.541145E-04	4.762496E-05
5.070110E+03	2.553708E-04	4.785803E-05
5.080013E+03	2.565872E-04	4.808359E-05
5.089915E+03	2.577618E-04	4.830128E-05
5.099818E+03	2.588899E-04	4.851019E-05
5.109720E+03	2.599715E-04	4.871038E-05
5.119623E+03	2.609999E-04	4.890054E-05
5.129525E+03	2.619751E-04	4.908071E-05
5.139428E+03	2.628924E-04	4.924998E-05
5.149331E+03	2.637496E-04	4.940796E-05
5.159233E+03	2.645443E-04	4.955421E-05
5.169136E+03	2.652745E-04	4.968833E-05
5.179038E+03	2.659328E-04	4.980896E-05
5.188941E+03	2.665224E-04	4.991667E-05
5.198843E+03	2.670384E-04	5.001059E-05
5.208746E+03	2.674793E-04	5.009041E-05
5.218648E+03	2.678406E-04	5.015529E-05
5.228551E+03	2.681204E-04	5.020488E-05
5.238454E+03	2.683176E-04	5.023898E-05
5.248356E+03	2.684309E-04	5.025735E-05
5.258259E+03	2.684591E-04	5.025977E-05
5.268161E+03	2.683992E-04	5.024567E-05
5.278064E+03	2.682558E-04	5.021591E-05
5.287966E+03	2.680233E-04	5.016948E-05
5.297869E+03	2.677020E-04	5.010639E-05
5.307772E+03	2.672978E-04	5.002778E-05
5.317674E+03	2.668061E-04	4.993277E-05
5.327577E+03	2.662333E-04	4.982258E-05
5.337479E+03	2.655783E-04	4.969701E-05
5.347382E+03	2.648459E-04	4.955695E-05
5.357284E+03	2.640353E-04	4.940226E-05
5.367187E+03	2.631546E-04	4.923444E-05
5.377089E+03	2.622041E-04	4.905356E-05
5.386992E+03	2.611896E-04	4.886072E-05
5.396895E+03	2.601096E-04	4.865562E-05
5.406797E+03	2.589703E-04	4.843942E-05
5.416700E+03	2.577733E-04	4.821246E-05
5.426602E+03	2.565206E-04	4.797508E-05
5.436505E+03	2.552194E-04	4.772863E-05
5.446407E+03	2.538693E-04	4.747305E-05
5.456310E+03	2.524725E-04	4.720877E-05
5.466212E+03	2.510349E-04	4.693685E-05
5.476115E+03	2.495561E-04	4.665725E-05
5.486018E+03	2.480443E-04	4.637150E-05
5.495920E+03	2.464974E-04	4.607921E-05
5.505823E+03	2.449258E-04	4.578231E-05
5.515725E+03	2.433325E-04	4.548138E-05
5.525628E+03	2.417205E-04	4.517697E-05
5.535530E+03	2.400947E-04	4.487001E-05
5.545433E+03	2.384605E-04	4.456150E-05
5.555335E+03	2.368205E-04	4.425191E-05
5.565238E+03	2.351843E-04	4.394306E-05
5.575141E+03	2.335517E-04	4.363492E-05
5.585043E+03	2.319318E-04	4.332917E-05
5.594946E+03	2.303241E-04	4.302573E-05
5.604848E+03	2.287372E-04	4.272618E-05
5.614751E+03	2.271749E-04	4.243125E-05
5.624653E+03	2.256383E-04	4.214115E-05
5.634556E+03	2.241329E-04	4.185689E-05
5.644459E+03	2.226614E-04	4.157900E-05
5.654361E+03	2.212293E-04	4.130847E-05
5.664264E+03	2.198386E-04	4.104570E-05
5.674166E+03	2.184894E-04	4.079070E-05
5.684069E+03	2.171886E-04	4.054474E-05
5.693971E+03	2.159378E-04	4.030815E-05
5.703874E+03	2.147363E-04	4.008076E-05
5.713776E+03	2.135880E-04	3.986332E-05
5.723679E+03	2.124963E-04	3.965646E-05
5.733582E+03	2.114625E-04	3.946042E-05
5.743484E+03	2.104852E-04	3.927493E-05
5.753387E+03	2.095677E-04	3.910059E-05
5.763289E+03	2.087125E-04	3.893791E-05
5.773192E+03	2.079210E-04	3.878710E-05
5.783094E+03	2.071907E-04	3.864772E-05
5.792997E+03	2.065246E-04	3.852032E-05
5.802899E+03	2.059230E-04	3.840493E-05
5.812802E+03	2.053881E-04	3.830199E-05
5.822705E+03	2.049203E-04	3.821156E-05
5.832607E+03	2.045174E-04	3.813322E-05
5.842510E+03	2.041813E-04	3.806734E-05
5.852412E+03	2.039096E-04	3.801346E-05
5.862315E+03	2.037091E-04	3.797281E-05
5.872217E+03	2.035722E-04	3.794404E-05
5.882120E+03	2.035012E-04	3.792751E-05
5.892022E+03	2.034978E-04	3.792356E-05
5.901925E+03	2.035588E-04	3.793160E-05
5.911828E+03	2.036837E-04	3.795154E-05
5.921730E+03	2.038742E-04	3.798365E-05
5.931633E+03	2.041267E-04	3.802730E-05
5.941535E+03	2.044429E-04	3.808279E-05
5.951438E+03	2.048168E-04	3.814899E-05
5.961340E+03	2.052522E-04	3.822660E-05
5.971243E+03	2.057429E-04	3.831450E-05
5.981146E+03	2.062926E-04	3.841333E-05
5.991048E+03	2.068925E-04	3.852146E-05
6.000951E+03	2.075459E-04	3.863954E-05
6.010853E+03	2.082490E-04	3.876679E-05
6.020756E+03	2.090000E-04	3.890293E-05
6.030658E+03	2.097923E-04	3.904672E-05
6.040561E+03	2.106289E-04	3.919869E-05
6.050463E+03	2.115008E-04	3.935718E-05
6.060366E+03	2.124105E-04	3.952266E-05
6.070269E+03	2.133490E-04	3.969344E-05
6.080171E+03	2.143137E-04	3.986903E-05
6.090074E+03	2.153000E-04	4.004859E-05
6.099976E+03	2.163056E-04	4.023168E-05
6.109879E+03	2.173202E-04	4.041638E-05
6.119781E+03	2.183412E-04	4.060222E-05
6.129684E+03	2.193634E-04	4.078823E-05
6.139586E+03	2.203845E-04	4.097395E-05
6.149489E+03	2.214015E-04	4.115887E-05
6.159392E+03	2.224179E-04	4.134362E-05
6.169294E+03	2.234399E-04	4.152932E-05
6.179197E+03	2.244684E-04	4.171618E-05
6.189099E+03	2.255075E-04	4.190497E-05
6.199002E+03	2.265614E-04	4.209643E-05
6.208904E+03	2.276321E-04	4.229094E-05
6.218807E+03	2.287242E-04	4.248936E-05
6.228709E+03	2.298398E-04	4.269210E-05
6.238612E+03	2.309816E-04	4.289963E-05
6.248515E+03	2.321552E-04	4.311299E-05
6.258417E+03	2.333606E-04	4.333219E-05
6.268320E+03	2.346038E-04	4.355833E-05
6.278222E+03	2.358820E-04	4.379090E-05
6.288125E+03	2.371985E-04	4.403050E-05
6.298027E+03	2.385538E-04	4.427723E-05
6.307930E+03	2.399515E-04	4.453173E-05
6.317833E+03	2.413888E-04	4.479352E-05
6.327735E+03	2.428662E-04	4.506266E-05
6.337638E+03	2.443812E-04	4.533869E-05
6.347540E+03	2.459268E-04	4.562031E-05
6.357443E+03	2.474998E-04	4.590693E-05
6.367345E+03	2.491004E-04	4.619857E-05
6.377248E+03	2.507292E-04	4.649533E-05
6.387150E+03	2.523860E-04	4.679721E-05
6.397053E+03	2.540752E-04	4.710500E-05
6.406956E+03	2.558012E-04	4.741950E-05
6.416858E+03	2.575644E-04	4.774081E-05
6.426761E+03	2.593618E-04	4.806834E-05
6.436663E+03	2.612016E-04	4.840363E-05
6.446566E+03	2.630848E-04	4.874686E-05
6.456468E+03	2.650084E-04	4.909747E-05
6.466371E+03	2.669769E-04	4.945628E-05
6.476273E+03	2.689916E-04	4.982353E-05
6.486176E+03	2.710489E-04	5.019856E-05
6.496079E+03	2.731498E-04	5.058153E-05
6.505981E+03	2.753034E-04	5.097415E-05
6.515884E+03	2.774980E-04	5.137426E-05
6.525786E+03	2.797430E-04	5.178354E-05
6.535689E+03	2.820393E-04	5.220220E-05
6.545591E+03	2.843787E-04	5.262869E-05
6.555494E+03	2.867712E-04	5.306488E-05
6.565396E+03	2.892083E-04	5.350919E-05
6.575299E+03	2.917001E-04	5.396348E-05
6.585202E+03	2.942380E-04	5.442615E-05
6.595104E+03	2.968273E-04	5.489817E-05
6.605007E+03	2.994692E-04	5.537978E-05
6.614909E+03	3.021589E-04	5.587007E-05
6.624812E+03	3.048973E-04	5.636921E-05
6.634714E+03	3.076901E-04	5.687824E-05
6.644617E+03	3.105327E-04	5.739634E-05
6.654520E+03	3.134259E-04	5.792359E-05
6.664422E+03	3.163698E-04	5.846007E-05
6.674325E+03	3.193654E-04	5.900591E-05
6.684227E+03	3.224128E-04	5.956116E-05
6.694130E+03	3.255129E-04	6.012597E-05
6.704032E+03	3.286600E-04	6.069928E-05
6.713935E+03	3.318607E-04	6.128230E-05
6.723837E+03	3.351151E-04	6.187505E-05
6.733740E+03	3.384178E-04	6.247651E-05
6.743643E+03	3.417751E-04	6.308788E-05
6.753545E+03	3.451810E-04	6.370801E-05
6.763448E+03	3.486361E-04	6.433703E-05
6.773350E+03	3.521402E-04	6.497488E-05
6.783253E+03	3.556934E-04	6.562159E-05
6.793155E+03	3.593024E-04	6.627837E-05
6.803058E+03	3.629544E-04	6.694288E-05
6.812960E+03	3.666557E-04	6.761626E-05
6.822863E+03	3.704065E-04	6.829856E-05
6.832766E+03	3.741996E-04	6.898843E-05
6.842668E+03	3.780419E-04	6.968715E-05
6.852571E+03	3.819333E-04	7.039469E-05
6.862473E+03	3.858665E-04	7.110970E-05
6.872376E+03	3.898412E-04	7.183212E-05
6.882278E+03	3.938642E-04	7.256320E-05
6.892181E+03	3.979278E-04	7.330153E-05
6.902083E+03	4.020317E-04	7.404703E-05
6.911986E+03	4.061752E-04	7.479960E-05
6.921889E+03	4.103581E-04	7.555915E-05
6.931791E+03	4.145716E-04	7.632411E-05
6.941694E+03	4.188312E-04	7.709728E-05
6.951596E+03	4.231200E-04	7.787557E-05
6.961499E+03	4.274458E-04	7.866042E-05
6.971401E+03	4.317993E-04	7.945011E-05
6.981304E+03	4.361796E-04	8.024447E-05
6.991207E+03	4.405945E-04	8.104493E-05
7.001109E+03	4.450347E-04	8.184977E-05
7.011012E+03	4.494901E-04	8.265716E-05
7.020914E+03	4.539778E-04	8.347020E-05
7.030817E+03	4.584878E-04	8.428707E-05
7.040719E+03	4.630100E-04	8.510591E-05
7.050622E+03	4.675523E-04	8.592817E-05
7.060524E+03	4.721046E-04	8.675199E-05
7.070427E+03	4.766748E-04	8.757883E-05
7.080330E+03	4.812526E-04	8.840679E-05
7.090232E+03	4.858464E-04	8.923740E-05
7.100135E+03	4.904348E-04	9.006675E-05
7.110037E+03	4.950268E-04	9.089648E-05
7.119940E+03	4.996311E-04	9.172819E-05
7.129842E+03	5.042259E-04	9.255787E-05
7.139745E+03	5.088092E-04	9.338517E-05
7.149647E+03	5.133903E-04	9.421178E-05
7.159550E+03	5.179677E-04	9.503744E-05
7.169453E+03	5.225291E-04	9.585989E-05
7.179355E+03	5.270836E-04	9.668079E-05
7.189258E+03	5.316189E-04	9.749789E-05
7.199160E+03	5.361327E-04	9.831078E-05
7.209063E+03	5.406353E-04	9.912134E-05
7.218965E+03	5.451133E-04	9.992712E-05
7.228868E+03	5.495769E-04	1.007300E-04
7.238770E+03	5.540127E-04	1.015275E-04
7.248673E+03	5.584189E-04	1.023193E-04
7.258576E+03	5.628189E-04	1.031097E-04
7.268478E+03	5.671865E-04	1.038939E-04
7.278381E+03	5.715454E-04	1.046762E-04
7.288283E+03	5.758826E-04	1.054543E-04
7.298186E+03	5.802095E-04	1.062303E-04
7.308088E+03	5.845391E-04	1.070065E-04
7.317991E+03	5.888582E-04	1.077805E-04
7.327894E+03	5.931931E-04	1.085572E-04
7.337796E+03	5.975445E-04	1.093366E-04
7.347699E+03	6.019273E-04	1.101215E-04
7.357601E+03	6.063425E-04	1.109121E-04
7.367504E+03	6.107917E-04	1.117086E-04
7.377406E+03	6.152906E-04	1.125140E-04
7.387309E+03	6.198123E-04	1.133233E-04
7.397211E+03	6.243586E-04	1.141368E-04
7.407114E+03	6.289156E-04	1.149520E-04
7.417017E+03	6.334990E-04	1.157718E-04
7.426919E+03	6.380952E-04	1.165936E-04
7.436822E+03	6.426898E-04	1.174149E-04
7.446724E+03	6.472833E-04	1.182357E-04
7.456627E+03	6.518756E-04	1.190561E-04
7.466529E+03	6.564512E-04	1.198731E-04
7.476432E+03	6.610254E-04	1.206896E-04
7.486334E+03	6.655661E-04	1.214998E-04
7.496237E+03	6.701044E-04	1.223093E-04
7.506140E+03	6.746235E-04	1.231150E-04
7.516042E+03	6.791222E-04	1.239168E-04
7.525945E+03	6.835826E-04	1.247113E-04
7.535847E+03	6.880194E-04	1.255013E-04
7.545750E+03	6.924311E-04	1.262865E-04
7.555652E+03	6.968153E-04	1.270664E-04
7.565555E+03	7.011526E-04	1.278376E-04
7.575457E+03	7.054572E-04	1.286025E-04
7.585360E+03	7.097087E-04	1.293576E-04
7.595263E+03	7.139389E-04	1.301085E-04
7.605165E+03	7.180909E-04	1.308450E-04
7.615068E+03	7.222143E-04	1.315761E-04
7.624970E+03	7.262871E-04	1.322978E-04
7.634873E+03	7.302866E-04	1.330059E-04
7.644775E+03	7.342262E-04	1.337029E-04
7.654678E+03	7.381011E-04	1.343880E-04
7.664581E+03	7.419061E-04	1.350601E-04
7.674483E+03	7.456357E-04	1.357184E-04
7.684386E+03	7.493039E-04	1.363653E-04
