#wls	flux	fluxerr
1.584409E+03	2.579819E-03	3.720836E-04
1.624020E+03	2.663388E-03	3.841324E-04
1.663630E+03	2.743829E-03	3.957298E-04
1.703240E+03	2.819867E-03	4.066917E-04
1.742850E+03	2.891217E-03	4.169772E-04
1.782461E+03	2.956467E-03	4.263824E-04
1.822071E+03	3.014681E-03	4.347726E-04
1.861681E+03	3.065398E-03	4.420813E-04
1.901291E+03	3.107107E-03	4.480904E-04
1.940902E+03	3.139063E-03	4.526927E-04
1.980512E+03	3.160070E-03	4.557158E-04
2.020122E+03	3.169475E-03	4.570654E-04
2.059732E+03	3.165838E-03	4.565341E-04
2.099342E+03	3.148182E-03	4.539809E-04
2.138953E+03	3.115607E-03	4.492763E-04
2.178563E+03	3.066651E-03	4.422094E-04
2.218173E+03	3.000291E-03	4.326331E-04
2.257783E+03	2.916830E-03	4.205909E-04
2.297394E+03	2.817642E-03	4.062813E-04
2.337004E+03	2.705877E-03	3.901585E-04
2.376614E+03	2.584156E-03	3.726006E-04
2.416224E+03	2.454791E-03	3.539410E-04
2.455835E+03	2.320125E-03	3.345176E-04
2.495445E+03	2.181690E-03	3.145515E-04
2.535055E+03	2.041158E-03	2.942838E-04
2.574665E+03	1.899950E-03	2.739191E-04
2.614276E+03	1.759496E-03	2.536639E-04
2.653886E+03	1.620952E-03	2.336849E-04
2.693496E+03	1.485441E-03	2.141440E-04
2.733106E+03	1.353981E-03	1.951877E-04
2.772716E+03	1.227482E-03	1.769474E-04
2.812327E+03	1.106773E-03	1.595425E-04
2.851937E+03	9.926277E-04	1.430847E-04
2.891547E+03	8.857026E-04	1.276683E-04
2.931157E+03	7.865363E-04	1.133710E-04
2.970768E+03	6.954892E-04	1.002447E-04
2.980670E+03	6.740378E-04	9.715213E-05
2.990573E+03	6.530899E-04	9.413213E-05
3.000475E+03	6.326719E-04	9.118857E-05
3.010378E+03	6.127653E-04	8.831874E-05
3.020280E+03	5.933794E-04	8.552400E-05
3.030183E+03	5.745210E-04	8.280532E-05
3.040086E+03	5.561596E-04	8.015831E-05
3.049988E+03	5.383249E-04	7.758725E-05
3.059891E+03	5.209871E-04	7.508784E-05
3.069793E+03	5.041611E-04	7.266223E-05
3.079696E+03	4.878288E-04	7.030781E-05
3.089598E+03	4.719835E-04	6.802360E-05
3.099501E+03	4.566359E-04	6.581115E-05
3.109403E+03	4.417596E-04	6.366666E-05
3.119306E+03	4.273718E-04	6.159261E-05
3.129209E+03	4.134394E-04	5.958422E-05
3.139111E+03	3.999773E-04	5.764362E-05
3.149014E+03	3.869612E-04	5.576734E-05
3.158916E+03	3.743965E-04	5.395614E-05
3.168819E+03	3.622669E-04	5.220766E-05
3.178721E+03	3.505692E-04	5.052147E-05
3.188624E+03	3.392939E-04	4.889615E-05
3.198526E+03	3.284308E-04	4.733027E-05
3.208429E+03	3.179647E-04	4.582162E-05
3.218332E+03	3.078968E-04	4.437039E-05
3.228234E+03	2.982119E-04	4.297436E-05
3.238137E+03	2.889047E-04	4.163278E-05
3.248039E+03	2.799603E-04	4.034351E-05
3.257942E+03	2.713692E-04	3.910517E-05
3.267844E+03	2.631258E-04	3.791694E-05
3.277747E+03	2.552159E-04	3.677679E-05
3.287650E+03	2.476337E-04	3.568389E-05
3.297552E+03	2.403693E-04	3.463680E-05
3.307455E+03	2.334059E-04	3.363310E-05
3.317357E+03	2.267416E-04	3.267250E-05
3.327260E+03	2.203631E-04	3.175312E-05
3.337162E+03	2.142617E-04	3.087366E-05
3.347065E+03	2.084284E-04	3.003286E-05
3.356967E+03	2.028490E-04	2.922865E-05
3.366870E+03	1.975208E-04	2.846065E-05
3.376773E+03	1.924328E-04	2.772727E-05
3.386675E+03	1.875744E-04	2.702700E-05
3.396578E+03	1.829383E-04	2.635876E-05
3.406480E+03	1.785172E-04	2.572151E-05
3.416383E+03	1.742996E-04	2.511358E-05
3.426285E+03	1.702808E-04	2.453432E-05
3.436188E+03	1.664504E-04	2.398220E-05
3.446090E+03	1.628023E-04	2.345636E-05
3.455993E+03	1.593287E-04	2.295568E-05
3.465896E+03	1.560224E-04	2.247910E-05
3.475798E+03	1.528763E-04	2.202562E-05
3.485701E+03	1.498840E-04	2.159430E-05
3.495603E+03	1.470376E-04	2.118400E-05
3.505506E+03	1.443297E-04	2.079366E-05
3.515408E+03	1.417549E-04	2.042252E-05
3.525311E+03	1.393068E-04	2.006963E-05
3.535213E+03	1.369806E-04	1.973430E-05
3.545116E+03	1.347690E-04	1.941549E-05
3.555019E+03	1.326680E-04	1.911262E-05
3.564921E+03	1.306723E-04	1.882494E-05
3.574824E+03	1.287797E-04	1.855209E-05
3.584726E+03	1.269841E-04	1.829323E-05
3.594629E+03	1.252821E-04	1.804787E-05
3.604531E+03	1.236672E-04	1.781504E-05
3.614434E+03	1.221366E-04	1.759437E-05
3.624337E+03	1.206864E-04	1.738528E-05
3.634239E+03	1.193131E-04	1.718727E-05
3.644142E+03	1.180142E-04	1.699999E-05
3.654044E+03	1.167875E-04	1.682310E-05
3.663947E+03	1.156296E-04	1.665613E-05
3.673849E+03	1.145394E-04	1.649893E-05
3.683752E+03	1.135138E-04	1.635102E-05
3.693654E+03	1.125527E-04	1.621241E-05
3.703557E+03	1.116541E-04	1.608280E-05
3.713460E+03	1.108158E-04	1.596188E-05
3.723362E+03	1.100368E-04	1.584950E-05
3.733265E+03	1.093170E-04	1.574565E-05
3.743167E+03	1.086544E-04	1.565004E-05
3.753070E+03	1.080487E-04	1.556263E-05
3.762972E+03	1.074981E-04	1.548316E-05
3.772875E+03	1.070015E-04	1.541145E-05
3.782777E+03	1.065586E-04	1.534749E-05
3.792680E+03	1.061693E-04	1.529125E-05
3.802583E+03	1.058316E-04	1.524245E-05
3.812485E+03	1.055463E-04	1.520118E-05
3.822388E+03	1.053105E-04	1.516705E-05
3.832290E+03	1.051259E-04	1.514029E-05
3.842193E+03	1.049895E-04	1.512048E-05
3.852095E+03	1.049031E-04	1.510785E-05
3.861998E+03	1.048646E-04	1.510213E-05
3.871900E+03	1.048740E-04	1.510331E-05
3.881803E+03	1.049302E-04	1.511123E-05
3.891706E+03	1.050331E-04	1.512587E-05
3.901608E+03	1.051817E-04	1.514709E-05
3.911511E+03	1.053767E-04	1.517500E-05
3.921413E+03	1.056164E-04	1.520934E-05
3.931316E+03	1.059006E-04	1.525008E-05
3.941218E+03	1.062285E-04	1.529711E-05
3.951121E+03	1.066007E-04	1.535052E-05
3.961024E+03	1.070163E-04	1.541019E-05
3.970926E+03	1.074746E-04	1.547599E-05
3.980829E+03	1.079745E-04	1.554778E-05
3.990731E+03	1.085169E-04	1.562569E-05
4.000634E+03	1.091001E-04	1.570948E-05
4.010536E+03	1.097250E-04	1.579926E-05
4.020439E+03	1.103898E-04	1.589479E-05
4.030341E+03	1.110946E-04	1.599607E-05
4.040244E+03	1.118395E-04	1.610312E-05
4.050147E+03	1.126236E-04	1.621582E-05
4.060049E+03	1.134461E-04	1.633404E-05
4.069952E+03	1.143063E-04	1.645768E-05
4.079854E+03	1.152050E-04	1.658687E-05
4.089757E+03	1.161408E-04	1.672137E-05
4.099659E+03	1.171135E-04	1.686121E-05
4.109562E+03	1.181217E-04	1.700614E-05
4.119464E+03	1.191653E-04	1.715617E-05
4.129367E+03	1.202446E-04	1.731133E-05
4.139270E+03	1.213578E-04	1.747136E-05
4.149172E+03	1.225050E-04	1.763629E-05
4.159075E+03	1.236845E-04	1.780586E-05
4.168977E+03	1.248965E-04	1.798010E-05
4.178880E+03	1.261390E-04	1.815872E-05
4.188782E+03	1.274122E-04	1.834177E-05
4.198685E+03	1.287142E-04	1.852895E-05
4.208587E+03	1.300440E-04	1.872013E-05
4.218490E+03	1.313998E-04	1.891504E-05
4.228393E+03	1.327814E-04	1.911366E-05
4.238295E+03	1.341867E-04	1.931569E-05
4.248198E+03	1.356147E-04	1.952098E-05
4.258100E+03	1.370632E-04	1.972920E-05
4.268003E+03	1.385297E-04	1.994002E-05
4.277905E+03	1.400129E-04	2.015323E-05
4.287808E+03	1.415115E-04	2.036865E-05
4.297711E+03	1.430229E-04	2.058591E-05
4.307613E+03	1.445455E-04	2.080478E-05
4.317516E+03	1.460767E-04	2.102486E-05
4.327418E+03	1.476158E-04	2.124609E-05
4.337321E+03	1.491613E-04	2.146823E-05
4.347223E+03	1.507151E-04	2.169154E-05
4.357126E+03	1.522754E-04	2.191580E-05
4.367028E+03	1.538432E-04	2.214112E-05
4.376931E+03	1.554181E-04	2.236745E-05
4.386834E+03	1.570024E-04	2.259513E-05
4.396736E+03	1.585945E-04	2.282393E-05
4.406639E+03	1.601943E-04	2.305383E-05
4.416541E+03	1.618030E-04	2.328499E-05
4.426444E+03	1.634205E-04	2.351741E-05
4.436346E+03	1.650467E-04	2.375108E-05
4.446249E+03	1.666803E-04	2.398582E-05
4.456151E+03	1.683228E-04	2.422181E-05
4.466054E+03	1.699729E-04	2.445889E-05
4.475957E+03	1.716306E-04	2.469707E-05
4.485859E+03	1.732963E-04	2.493638E-05
4.495762E+03	1.749672E-04	2.517643E-05
4.505664E+03	1.766452E-04	2.541749E-05
4.515567E+03	1.783288E-04	2.565935E-05
4.525469E+03	1.800188E-04	2.590212E-05
4.535372E+03	1.817125E-04	2.614542E-05
4.545274E+03	1.834119E-04	2.638952E-05
4.555177E+03	1.851143E-04	2.663404E-05
4.565080E+03	1.868220E-04	2.687932E-05
4.574982E+03	1.885327E-04	2.712503E-05
4.584885E+03	1.902469E-04	2.737123E-05
4.594787E+03	1.919640E-04	2.761783E-05
4.604690E+03	1.936864E-04	2.786519E-05
4.614592E+03	1.954121E-04	2.811302E-05
4.624495E+03	1.971437E-04	2.836167E-05
4.634398E+03	1.988810E-04	2.861113E-05
4.644300E+03	2.006233E-04	2.886132E-05
4.654203E+03	2.023741E-04	2.911271E-05
4.664105E+03	2.041313E-04	2.936501E-05
4.674008E+03	2.058964E-04	2.961844E-05
4.683910E+03	2.076675E-04	2.987272E-05
4.693813E+03	2.094462E-04	3.012808E-05
4.703715E+03	2.112288E-04	3.038399E-05
4.713618E+03	2.130169E-04	3.064067E-05
4.723521E+03	2.148084E-04	3.089785E-05
4.733423E+03	2.166053E-04	3.115578E-05
4.743326E+03	2.184055E-04	3.141417E-05
4.753228E+03	2.202088E-04	3.167301E-05
4.763131E+03	2.220154E-04	3.193229E-05
4.773033E+03	2.238249E-04	3.219199E-05
4.782936E+03	2.256374E-04	3.245211E-05
4.792838E+03	2.274506E-04	3.271231E-05
4.802741E+03	2.292666E-04	3.297291E-05
4.812644E+03	2.310850E-04	3.323384E-05
4.822546E+03	2.329038E-04	3.349481E-05
4.832449E+03	2.347226E-04	3.375577E-05
4.842351E+03	2.365431E-04	3.401696E-05
4.852254E+03	2.383609E-04	3.427776E-05
4.862156E+03	2.401800E-04	3.453871E-05
4.872059E+03	2.419976E-04	3.479945E-05
4.881961E+03	2.438108E-04	3.505954E-05
4.891864E+03	2.456214E-04	3.531923E-05
4.901767E+03	2.474287E-04	3.557845E-05
4.911669E+03	2.492295E-04	3.583672E-05
4.921572E+03	2.510252E-04	3.609423E-05
4.931474E+03	2.528100E-04	3.635018E-05
4.941377E+03	2.545879E-04	3.660509E-05
4.951279E+03	2.563547E-04	3.685842E-05
4.961182E+03	2.581069E-04	3.710963E-05
4.971085E+03	2.598454E-04	3.735884E-05
4.980987E+03	2.615662E-04	3.760550E-05
4.990890E+03	2.632674E-04	3.784933E-05
5.000792E+03	2.649471E-04	3.809006E-05
5.010695E+03	2.666033E-04	3.832740E-05
5.020597E+03	2.682315E-04	3.856069E-05
5.030500E+03	2.698320E-04	3.878999E-05
5.040402E+03	2.713998E-04	3.901456E-05
5.050305E+03	2.729324E-04	3.923408E-05
5.060208E+03	2.744247E-04	3.944778E-05
5.070110E+03	2.758769E-04	3.965570E-05
5.080013E+03	2.772804E-04	3.985661E-05
5.089915E+03	2.786383E-04	4.005095E-05
5.099818E+03	2.799420E-04	4.023748E-05
5.109720E+03	2.811912E-04	4.041617E-05
5.119623E+03	2.823806E-04	4.058625E-05
5.129525E+03	2.835041E-04	4.074685E-05
5.139428E+03	2.845615E-04	4.089792E-05
5.149331E+03	2.855468E-04	4.103864E-05
5.159233E+03	2.864572E-04	4.116857E-05
5.169136E+03	2.872898E-04	4.128730E-05
5.179038E+03	2.880384E-04	4.139397E-05
5.188941E+03	2.887003E-04	4.148815E-05
5.198843E+03	2.892702E-04	4.156911E-05
5.208746E+03	2.897478E-04	4.163679E-05
5.218648E+03	2.901281E-04	4.169048E-05
5.228551E+03	2.904086E-04	4.172983E-05
5.238454E+03	2.905874E-04	4.175454E-05
5.248356E+03	2.906598E-04	4.176397E-05
5.258259E+03	2.906242E-04	4.175787E-05
5.268161E+03	2.904793E-04	4.173607E-05
5.278064E+03	2.902246E-04	4.169847E-05
5.287966E+03	2.898565E-04	4.164459E-05
5.297869E+03	2.893783E-04	4.157487E-05
5.307772E+03	2.887901E-04	4.148935E-05
5.317674E+03	2.880931E-04	4.138821E-05
5.327577E+03	2.872861E-04	4.127125E-05
5.337479E+03	2.863767E-04	4.113959E-05
5.347382E+03	2.853646E-04	4.099317E-05
5.357284E+03	2.842586E-04	4.083327E-05
5.367187E+03	2.830597E-04	4.066002E-05
5.377089E+03	2.817746E-04	4.047439E-05
5.386992E+03	2.804084E-04	4.027712E-05
5.396895E+03	2.789716E-04	4.006970E-05
5.406797E+03	2.774670E-04	3.985256E-05
5.416700E+03	2.758981E-04	3.962619E-05
5.426602E+03	2.742657E-04	3.939070E-05
5.436505E+03	2.725769E-04	3.914711E-05
5.446407E+03	2.708334E-04	3.889568E-05
5.456310E+03	2.690402E-04	3.863712E-05
5.466212E+03	2.672023E-04	3.837214E-05
5.476115E+03	2.653251E-04	3.810152E-05
5.486018E+03	2.634140E-04	3.782606E-05
5.495920E+03	2.614775E-04	3.754694E-05
5.505823E+03	2.595207E-04	3.726493E-05
5.515725E+03	2.575546E-04	3.698159E-05
5.525628E+03	2.555817E-04	3.669727E-05
5.535530E+03	2.536151E-04	3.641388E-05
5.545433E+03	2.516568E-04	3.613168E-05
5.555335E+03	2.497165E-04	3.585209E-05
5.565238E+03	2.478036E-04	3.557642E-05
5.575141E+03	2.459192E-04	3.530487E-05
5.585043E+03	2.440769E-04	3.503936E-05
5.594946E+03	2.422795E-04	3.478031E-05
5.604848E+03	2.405297E-04	3.452811E-05
5.614751E+03	2.388395E-04	3.428447E-05
5.624653E+03	2.372079E-04	3.404925E-05
5.634556E+03	2.356415E-04	3.382339E-05
5.644459E+03	2.341459E-04	3.360769E-05
5.654361E+03	2.327239E-04	3.340259E-05
5.664264E+03	2.313784E-04	3.320845E-05
5.674166E+03	2.301114E-04	3.302560E-05
5.684069E+03	2.289275E-04	3.285467E-05
5.693971E+03	2.278304E-04	3.269620E-05
5.703874E+03	2.268172E-04	3.254978E-05
5.713776E+03	2.258959E-04	3.241655E-05
5.723679E+03	2.250630E-04	3.229600E-05
5.733582E+03	2.243239E-04	3.218893E-05
5.743484E+03	2.236769E-04	3.209506E-05
5.753387E+03	2.231252E-04	3.201487E-05
5.763289E+03	2.226690E-04	3.194837E-05
5.773192E+03	2.223108E-04	3.189594E-05
5.783094E+03	2.220489E-04	3.185732E-05
5.792997E+03	2.218830E-04	3.183247E-05
5.802899E+03	2.218155E-04	3.182174E-05
5.812802E+03	2.218491E-04	3.182550E-05
5.822705E+03	2.219783E-04	3.184297E-05
5.832607E+03	2.222081E-04	3.187485E-05
5.842510E+03	2.225353E-04	3.192071E-05
5.852412E+03	2.229620E-04	3.198082E-05
5.862315E+03	2.234877E-04	3.205513E-05
5.872217E+03	2.241090E-04	3.214313E-05
5.882120E+03	2.248275E-04	3.224507E-05
5.892022E+03	2.256422E-04	3.236080E-05
5.901925E+03	2.265495E-04	3.248977E-05
5.911828E+03	2.275529E-04	3.263252E-05
5.921730E+03	2.286459E-04	3.278811E-05
5.931633E+03	2.298295E-04	3.295667E-05
5.941535E+03	2.311017E-04	3.313791E-05
5.951438E+03	2.324577E-04	3.333115E-05
5.961340E+03	2.338981E-04	3.353646E-05
5.971243E+03	2.354149E-04	3.375271E-05
5.981146E+03	2.370107E-04	3.398027E-05
5.991048E+03	2.386773E-04	3.421796E-05
6.000951E+03	2.404146E-04	3.446574E-05
6.010853E+03	2.422160E-04	3.472270E-05
6.020756E+03	2.440785E-04	3.498839E-05
6.030658E+03	2.459952E-04	3.526183E-05
6.040561E+03	2.479595E-04	3.554204E-05
6.050463E+03	2.499704E-04	3.582892E-05
6.060366E+03	2.520147E-04	3.612057E-05
6.070269E+03	2.540912E-04	3.641679E-05
6.080171E+03	2.561893E-04	3.671608E-05
6.090074E+03	2.583042E-04	3.701774E-05
6.099976E+03	2.604190E-04	3.731936E-05
6.109879E+03	2.625318E-04	3.762066E-05
6.119781E+03	2.646278E-04	3.791953E-05
6.129684E+03	2.666987E-04	3.821476E-05
6.139586E+03	2.687329E-04	3.850471E-05
6.149489E+03	2.707320E-04	3.878960E-05
6.159392E+03	2.727016E-04	3.907023E-05
6.169294E+03	2.746482E-04	3.934753E-05
6.179197E+03	2.765786E-04	3.962249E-05
6.189099E+03	2.784904E-04	3.989474E-05
6.199002E+03	2.803988E-04	4.016648E-05
6.208904E+03	2.822984E-04	4.043693E-05
6.218807E+03	2.841989E-04	4.070749E-05
6.228709E+03	2.861068E-04	4.097906E-05
6.238612E+03	2.880175E-04	4.125102E-05
6.248515E+03	2.899387E-04	4.152444E-05
6.258417E+03	2.918740E-04	4.179985E-05
6.268320E+03	2.938278E-04	4.207788E-05
6.278222E+03	2.957966E-04	4.235803E-05
6.288125E+03	2.977851E-04	4.264096E-05
6.298027E+03	2.997940E-04	4.292678E-05
6.307930E+03	3.018243E-04	4.321564E-05
6.317833E+03	3.038727E-04	4.350706E-05
6.327735E+03	3.059361E-04	4.380058E-05
6.337638E+03	3.080105E-04	4.409565E-05
6.347540E+03	3.100970E-04	4.439241E-05
6.357443E+03	3.121915E-04	4.469029E-05
6.367345E+03	3.142810E-04	4.498741E-05
6.377248E+03	3.163797E-04	4.528582E-05
6.387150E+03	3.184881E-04	4.558558E-05
6.397053E+03	3.206114E-04	4.588745E-05
6.406956E+03	3.227604E-04	4.619294E-05
6.416858E+03	3.249313E-04	4.650154E-05
6.426761E+03	3.271350E-04	4.681480E-05
6.436663E+03	3.293728E-04	4.713291E-05
6.446566E+03	3.316515E-04	4.745682E-05
6.456468E+03	3.339623E-04	4.778528E-05
6.466371E+03	3.363217E-04	4.812067E-05
6.476273E+03	3.387213E-04	4.846178E-05
6.486176E+03	3.411677E-04	4.880953E-05
6.496079E+03	3.436626E-04	4.916417E-05
6.505981E+03	3.462019E-04	4.952514E-05
6.515884E+03	3.487925E-04	4.989338E-05
6.525786E+03	3.514360E-04	5.026917E-05
6.535689E+03	3.541282E-04	5.065186E-05
6.545591E+03	3.568703E-04	5.104166E-05
6.555494E+03	3.596639E-04	5.143877E-05
6.565396E+03	3.625158E-04	5.184417E-05
6.575299E+03	3.654154E-04	5.225635E-05
6.585202E+03	3.683702E-04	5.267637E-05
6.595104E+03	3.713811E-04	5.310437E-05
6.605007E+03	3.744430E-04	5.353960E-05
6.614909E+03	3.775632E-04	5.398312E-05
6.624812E+03	3.807366E-04	5.443421E-05
6.634714E+03	3.839703E-04	5.489385E-05
6.644617E+03	3.872524E-04	5.536037E-05
6.654520E+03	3.905901E-04	5.583477E-05
6.664422E+03	3.939911E-04	5.631816E-05
6.674325E+03	3.974427E-04	5.680873E-05
6.684227E+03	4.009522E-04	5.730752E-05
6.694130E+03	4.045137E-04	5.781368E-05
6.704032E+03	4.081344E-04	5.832825E-05
6.713935E+03	4.118080E-04	5.885031E-05
6.723837E+03	4.155349E-04	5.937993E-05
6.733740E+03	4.193229E-04	5.991823E-05
6.743643E+03	4.231575E-04	6.046312E-05
6.753545E+03	4.270541E-04	6.101680E-05
6.763448E+03	4.309977E-04	6.157713E-05
6.773350E+03	4.350039E-04	6.214633E-05
6.783253E+03	4.390572E-04	6.272221E-05
6.793155E+03	4.431575E-04	6.330473E-05
6.803058E+03	4.473126E-04	6.389501E-05
6.812960E+03	4.515228E-04	6.449309E-05
6.822863E+03	4.557706E-04	6.509648E-05
6.832766E+03	4.600728E-04	6.570755E-05
6.842668E+03	4.644205E-04	6.632506E-05
6.852571E+03	4.688216E-04	6.695012E-05
6.862473E+03	4.732583E-04	6.758019E-05
6.872376E+03	4.777385E-04	6.821640E-05
6.882278E+03	4.822616E-04	6.885866E-05
6.892181E+03	4.868173E-04	6.950550E-05
6.902083E+03	4.914140E-04	7.015811E-05
6.911986E+03	4.960509E-04	7.081641E-05
6.921889E+03	5.007175E-04	7.147885E-05
6.931791E+03	5.054126E-04	7.214528E-05
6.941694E+03	5.101348E-04	7.281552E-05
6.951596E+03	5.148935E-04	7.349087E-05
6.961499E+03	5.196670E-04	7.416826E-05
6.971401E+03	5.244746E-04	7.485045E-05
6.981304E+03	5.292948E-04	7.553435E-05
6.991207E+03	5.341364E-04	7.622124E-05
7.001109E+03	5.389882E-04	7.690948E-05
7.011012E+03	5.438594E-04	7.760043E-05
7.020914E+03	5.487492E-04	7.829393E-05
7.030817E+03	5.536455E-04	7.898830E-05
7.040719E+03	5.585359E-04	7.968175E-05
7.050622E+03	5.634419E-04	8.037733E-05
7.060524E+03	5.683509E-04	8.107328E-05
7.070427E+03	5.732625E-04	8.176949E-05
7.080330E+03	5.781754E-04	8.246583E-05
7.090232E+03	5.830767E-04	8.316043E-05
7.100135E+03	5.879773E-04	8.385485E-05
7.110037E+03	5.928643E-04	8.454726E-05
7.119940E+03	5.977363E-04	8.523743E-05
7.129842E+03	6.026047E-04	8.592704E-05
7.139745E+03	6.074562E-04	8.661414E-05
7.149647E+03	6.123022E-04	8.730040E-05
7.159550E+03	6.171163E-04	8.798202E-05
7.169453E+03	6.219098E-04	8.866062E-05
7.179355E+03	6.266815E-04	8.933605E-05
7.189258E+03	6.314303E-04	9.000814E-05
7.199160E+03	6.361548E-04	9.067669E-05
7.209063E+03	6.408540E-04	9.134156E-05
7.218965E+03	6.455127E-04	9.200058E-05
7.228868E+03	6.501431E-04	9.265551E-05
7.238770E+03	6.547441E-04	9.330616E-05
7.248673E+03	6.593145E-04	9.395240E-05
7.258576E+03	6.638386E-04	9.459196E-05
7.268478E+03	6.683295E-04	9.522674E-05
7.278381E+03	6.728008E-04	9.585864E-05
7.288283E+03	6.772222E-04	9.648338E-05
7.298186E+03	6.816073E-04	9.710287E-05
7.308088E+03	6.859555E-04	9.771705E-05
7.317991E+03	6.902814E-04	9.832798E-05
7.327894E+03	6.945692E-04	9.893343E-05
7.337796E+03	6.988342E-04	9.953558E-05
7.347699E+03	7.030926E-04	1.001367E-04
7.357601E+03	7.073291E-04	1.007347E-04
7.367504E+03	7.115763E-04	1.013341E-04
7.377406E+03	7.158029E-04	1.019306E-04
7.387309E+03	7.200263E-04	1.025265E-04
7.397211E+03	7.242311E-04	1.031197E-04
7.407114E+03	7.284346E-04	1.037127E-04
7.417017E+03	7.326046E-04	1.043008E-04
7.426919E+03	7.367581E-04	1.048866E-04
7.436822E+03	7.408962E-04	1.054701E-04
7.446724E+03	7.450020E-04	1.060490E-04
7.456627E+03	7.491107E-04	1.066282E-04
7.466529E+03	7.531879E-04	1.072029E-04
7.476432E+03	7.572509E-04	1.077755E-04
7.486334E+03	7.612821E-04	1.083436E-04
7.496237E+03	7.652991E-04	1.089096E-04
7.506140E+03	7.692834E-04	1.094708E-04
7.516042E+03	7.732525E-04	1.100299E-04
7.525945E+03	7.771869E-04	1.105840E-04
7.535847E+03	7.810859E-04	1.111330E-04
7.545750E+03	7.849664E-04	1.116794E-04
7.555652E+03	7.888084E-04	1.122202E-04
7.565555E+03	7.926095E-04	1.127552E-04
7.575457E+03	7.963871E-04	1.132868E-04
7.585360E+03	8.001194E-04	1.138119E-04
7.595263E+03	8.038232E-04	1.143329E-04
7.605165E+03	8.074564E-04	1.148439E-04
7.615068E+03	8.110550E-04	1.153499E-04
7.624970E+03	8.146159E-04	1.158505E-04
7.634873E+03	8.181153E-04	1.163423E-04
7.644775E+03	8.215695E-04	1.168277E-04
7.654678E+03	8.249540E-04	1.173031E-04
7.664581E+03	8.282641E-04	1.177679E-04
7.674483E+03	8.315157E-04	1.182244E-04
7.684386E+03	8.347047E-04	1.186719E-04
