#wls	flux	fluxerr
1.584409E+03	3.774463E-03	6.914657E-04
1.624020E+03	3.901873E-03	7.147964E-04
1.663630E+03	4.025129E-03	7.373653E-04
1.703240E+03	4.142854E-03	7.589200E-04
1.742850E+03	4.253973E-03	7.792636E-04
1.782461E+03	4.356884E-03	7.981027E-04
1.822071E+03	4.450290E-03	8.151998E-04
1.861681E+03	4.532817E-03	8.303033E-04
1.901291E+03	4.602620E-03	8.430749E-04
1.940902E+03	4.658232E-03	8.532466E-04
1.980512E+03	4.698187E-03	8.605497E-04
2.020122E+03	4.721062E-03	8.647234E-04
2.059732E+03	4.725168E-03	8.654592E-04
2.099342E+03	4.709356E-03	8.625461E-04
2.138953E+03	4.672037E-03	8.556938E-04
2.178563E+03	4.612018E-03	8.446838E-04
2.218173E+03	4.527437E-03	8.291754E-04
2.257783E+03	4.417235E-03	8.089750E-04
2.297394E+03	4.283932E-03	7.845444E-04
2.337004E+03	4.130990E-03	7.565177E-04
2.376614E+03	3.961190E-03	7.254049E-04
2.416224E+03	3.776809E-03	6.916229E-04
2.455835E+03	3.579980E-03	6.555626E-04
2.495445E+03	3.373088E-03	6.176611E-04
2.535055E+03	3.158274E-03	5.783105E-04
2.574665E+03	2.938061E-03	5.379730E-04
2.614276E+03	2.714756E-03	4.970712E-04
2.653886E+03	2.490559E-03	4.560080E-04
2.693496E+03	2.267955E-03	4.152383E-04
2.733106E+03	2.049171E-03	3.751701E-04
2.772716E+03	1.836385E-03	3.362023E-04
2.812327E+03	1.631627E-03	2.987062E-04
2.851937E+03	1.436836E-03	2.630369E-04
2.891547E+03	1.253962E-03	2.295512E-04
2.931157E+03	1.084837E-03	1.985842E-04
2.970768E+03	9.307339E-04	1.703691E-04
2.980670E+03	8.946392E-04	1.637606E-04
2.990573E+03	8.595645E-04	1.573389E-04
3.000475E+03	8.254639E-04	1.510956E-04
3.010378E+03	7.923545E-04	1.450339E-04
3.020280E+03	7.602646E-04	1.391588E-04
3.030183E+03	7.291516E-04	1.334627E-04
3.040086E+03	6.990394E-04	1.279499E-04
3.049988E+03	6.699168E-04	1.226182E-04
3.059891E+03	6.417722E-04	1.174657E-04
3.069793E+03	6.145934E-04	1.124900E-04
3.079696E+03	5.883918E-04	1.076933E-04
3.089598E+03	5.631390E-04	1.030703E-04
3.099501E+03	5.388299E-04	9.862011E-05
3.109403E+03	5.154470E-04	9.433951E-05
3.119306E+03	4.929714E-04	9.022506E-05
3.129209E+03	4.713936E-04	8.627498E-05
3.139111E+03	4.507008E-04	8.248696E-05
3.149014E+03	4.308545E-04	7.885394E-05
3.158916E+03	4.118568E-04	7.537627E-05
3.168819E+03	3.936761E-04	7.204821E-05
3.178721E+03	3.762950E-04	6.886655E-05
3.188624E+03	3.596889E-04	6.582676E-05
3.198526E+03	3.438268E-04	6.292320E-05
3.208429E+03	3.287013E-04	6.015448E-05
3.218332E+03	3.142700E-04	5.751287E-05
3.228234E+03	3.005236E-04	5.499664E-05
3.238137E+03	2.874357E-04	5.260098E-05
3.248039E+03	2.749720E-04	5.031958E-05
3.257942E+03	2.631202E-04	4.815022E-05
3.267844E+03	2.518474E-04	4.608683E-05
3.277747E+03	2.411333E-04	4.412574E-05
3.287650E+03	2.309539E-04	4.226252E-05
3.297552E+03	2.212890E-04	4.049351E-05
3.307455E+03	2.121126E-04	3.881390E-05
3.317357E+03	2.034026E-04	3.721967E-05
3.327260E+03	1.951378E-04	3.570693E-05
3.337162E+03	1.873000E-04	3.427237E-05
3.347065E+03	1.798666E-04	3.291184E-05
3.356967E+03	1.728185E-04	3.162183E-05
3.366870E+03	1.661373E-04	3.039898E-05
3.376773E+03	1.598032E-04	2.923967E-05
3.386675E+03	1.537997E-04	2.814086E-05
3.396578E+03	1.481106E-04	2.709962E-05
3.406480E+03	1.427191E-04	2.611284E-05
3.416383E+03	1.376107E-04	2.517788E-05
3.426285E+03	1.327702E-04	2.429194E-05
3.436188E+03	1.281830E-04	2.345238E-05
3.446090E+03	1.238356E-04	2.265673E-05
3.455993E+03	1.197141E-04	2.190239E-05
3.465896E+03	1.158078E-04	2.118745E-05
3.475798E+03	1.121041E-04	2.050961E-05
3.485701E+03	1.085903E-04	1.986652E-05
3.495603E+03	1.052535E-04	1.925582E-05
3.505506E+03	1.020851E-04	1.867593E-05
3.515408E+03	9.907374E-05	1.812479E-05
3.525311E+03	9.620729E-05	1.760018E-05
3.535213E+03	9.347740E-05	1.710056E-05
3.545116E+03	9.087549E-05	1.662436E-05
3.555019E+03	8.839265E-05	1.616995E-05
3.564921E+03	8.602001E-05	1.573572E-05
3.574824E+03	8.375246E-05	1.532072E-05
3.584726E+03	8.158368E-05	1.492379E-05
3.594629E+03	7.950772E-05	1.454385E-05
3.604531E+03	7.752247E-05	1.418052E-05
3.614434E+03	7.562368E-05	1.383301E-05
3.624337E+03	7.380791E-05	1.350069E-05
3.634239E+03	7.207233E-05	1.318305E-05
3.644142E+03	7.041421E-05	1.287958E-05
3.654044E+03	6.883014E-05	1.258966E-05
3.663947E+03	6.731857E-05	1.231302E-05
3.673849E+03	6.587560E-05	1.204892E-05
3.683752E+03	6.449913E-05	1.179700E-05
3.693654E+03	6.318760E-05	1.155696E-05
3.703557E+03	6.193678E-05	1.132802E-05
3.713460E+03	6.074622E-05	1.111012E-05
3.723362E+03	5.961189E-05	1.090250E-05
3.733265E+03	5.853286E-05	1.070501E-05
3.743167E+03	5.750681E-05	1.051720E-05
3.753070E+03	5.653136E-05	1.033866E-05
3.762972E+03	5.560480E-05	1.016906E-05
3.772875E+03	5.472497E-05	1.000801E-05
3.782777E+03	5.389026E-05	9.855211E-06
3.792680E+03	5.309906E-05	9.710376E-06
3.802583E+03	5.234949E-05	9.573158E-06
3.812485E+03	5.164004E-05	9.443280E-06
3.822388E+03	5.096940E-05	9.320501E-06
3.832290E+03	5.033578E-05	9.204496E-06
3.842193E+03	4.973794E-05	9.095036E-06
3.852095E+03	4.917472E-05	8.991907E-06
3.861998E+03	4.864452E-05	8.894820E-06
3.871900E+03	4.814628E-05	8.803579E-06
3.881803E+03	4.767855E-05	8.717919E-06
3.891706E+03	4.724076E-05	8.637733E-06
3.901608E+03	4.683156E-05	8.562778E-06
3.911511E+03	4.645002E-05	8.492882E-06
3.921413E+03	4.609456E-05	8.427755E-06
3.931316E+03	4.576508E-05	8.367381E-06
3.941218E+03	4.546010E-05	8.311486E-06
3.951121E+03	4.517884E-05	8.259927E-06
3.961024E+03	4.492027E-05	8.212519E-06
3.970926E+03	4.468400E-05	8.169188E-06
3.980829E+03	4.446873E-05	8.129699E-06
3.990731E+03	4.427416E-05	8.093993E-06
4.000634E+03	4.409904E-05	8.061843E-06
4.010536E+03	4.394313E-05	8.033204E-06
4.020439E+03	4.380525E-05	8.007862E-06
4.030341E+03	4.368487E-05	7.985719E-06
4.040244E+03	4.358150E-05	7.966686E-06
4.050147E+03	4.349467E-05	7.950677E-06
4.060049E+03	4.342335E-05	7.937501E-06
4.069952E+03	4.336706E-05	7.927073E-06
4.079854E+03	4.332513E-05	7.919269E-06
4.089757E+03	4.329716E-05	7.914016E-06
4.099659E+03	4.328283E-05	7.911256E-06
4.109562E+03	4.328116E-05	7.910808E-06
4.119464E+03	4.329218E-05	7.912679E-06
4.129367E+03	4.331491E-05	7.916691E-06
4.139270E+03	4.334913E-05	7.922800E-06
4.149172E+03	4.339460E-05	7.930965E-06
4.159075E+03	4.345038E-05	7.941012E-06
4.168977E+03	4.351629E-05	7.952910E-06
4.178880E+03	4.359180E-05	7.966561E-06
4.188782E+03	4.367708E-05	7.981996E-06
4.198685E+03	4.377093E-05	7.998996E-06
4.208587E+03	4.387353E-05	8.017593E-06
4.218490E+03	4.398412E-05	8.037648E-06
4.228393E+03	4.410287E-05	8.059192E-06
4.238295E+03	4.422865E-05	8.082021E-06
4.248198E+03	4.436135E-05	8.106112E-06
4.258100E+03	4.450090E-05	8.131450E-06
4.268003E+03	4.464616E-05	8.157833E-06
4.277905E+03	4.479739E-05	8.185302E-06
4.287808E+03	4.495314E-05	8.213597E-06
4.297711E+03	4.511366E-05	8.242760E-06
4.307613E+03	4.527711E-05	8.272458E-06
4.317516E+03	4.544343E-05	8.302677E-06
4.327418E+03	4.561362E-05	8.333600E-06
4.337321E+03	4.578762E-05	8.365218E-06
4.347223E+03	4.596581E-05	8.397598E-06
4.357126E+03	4.614815E-05	8.430735E-06
4.367028E+03	4.633395E-05	8.464501E-06
4.376931E+03	4.652395E-05	8.499032E-06
4.386834E+03	4.671746E-05	8.534201E-06
4.396736E+03	4.691451E-05	8.570015E-06
4.406639E+03	4.711485E-05	8.606426E-06
4.416541E+03	4.731851E-05	8.643443E-06
4.426444E+03	4.752489E-05	8.680953E-06
4.436346E+03	4.773444E-05	8.719038E-06
4.446249E+03	4.794658E-05	8.757595E-06
4.456151E+03	4.816107E-05	8.796579E-06
4.466054E+03	4.837849E-05	8.836092E-06
4.475957E+03	4.859783E-05	8.875957E-06
4.485859E+03	4.881937E-05	8.916217E-06
4.495762E+03	4.904333E-05	8.956917E-06
4.505664E+03	4.926918E-05	8.997960E-06
4.515567E+03	4.949726E-05	9.039407E-06
4.525469E+03	4.972704E-05	9.081161E-06
4.535372E+03	4.995885E-05	9.123284E-06
4.545274E+03	5.019268E-05	9.165771E-06
4.555177E+03	5.042848E-05	9.208613E-06
4.565080E+03	5.066579E-05	9.251731E-06
4.574982E+03	5.090549E-05	9.295279E-06
4.584885E+03	5.114674E-05	9.339108E-06
4.594787E+03	5.138995E-05	9.383291E-06
4.604690E+03	5.163515E-05	9.427835E-06
4.614592E+03	5.188200E-05	9.472675E-06
4.624495E+03	5.213140E-05	9.517978E-06
4.634398E+03	5.238252E-05	9.563592E-06
4.644300E+03	5.263588E-05	9.609609E-06
4.654203E+03	5.289247E-05	9.656214E-06
4.664105E+03	5.315195E-05	9.703344E-06
4.674008E+03	5.341490E-05	9.751100E-06
4.683910E+03	5.368188E-05	9.799591E-06
4.693813E+03	5.395306E-05	9.848843E-06
4.703715E+03	5.422857E-05	9.898882E-06
4.713618E+03	5.450957E-05	9.949918E-06
4.723521E+03	5.479520E-05	1.000180E-05
4.733423E+03	5.508668E-05	1.005474E-05
4.743326E+03	5.538419E-05	1.010877E-05
4.753228E+03	5.568740E-05	1.016385E-05
4.763131E+03	5.599757E-05	1.022019E-05
4.773033E+03	5.631442E-05	1.027774E-05
4.782936E+03	5.663815E-05	1.033655E-05
4.792838E+03	5.696903E-05	1.039665E-05
4.802741E+03	5.730729E-05	1.045810E-05
4.812644E+03	5.765423E-05	1.052112E-05
4.822546E+03	5.800857E-05	1.058549E-05
4.832449E+03	5.837163E-05	1.065145E-05
4.842351E+03	5.874311E-05	1.071894E-05
4.852254E+03	5.912390E-05	1.078812E-05
4.862156E+03	5.951367E-05	1.085893E-05
4.872059E+03	5.991274E-05	1.093143E-05
4.881961E+03	6.032196E-05	1.100578E-05
4.891864E+03	6.074045E-05	1.108182E-05
4.901767E+03	6.116911E-05	1.115970E-05
4.911669E+03	6.160817E-05	1.123948E-05
4.921572E+03	6.205794E-05	1.132120E-05
4.931474E+03	6.251807E-05	1.140481E-05
4.941377E+03	6.298882E-05	1.149034E-05
4.951279E+03	6.347106E-05	1.157797E-05
4.961182E+03	6.396384E-05	1.166751E-05
4.971085E+03	6.446857E-05	1.175922E-05
4.980987E+03	6.498424E-05	1.185292E-05
4.990890E+03	6.551111E-05	1.194866E-05
5.000792E+03	6.604999E-05	1.204657E-05
5.010695E+03	6.660040E-05	1.214659E-05
5.020597E+03	6.716257E-05	1.224873E-05
5.030500E+03	6.773599E-05	1.235293E-05
5.040402E+03	6.832149E-05	1.245931E-05
5.050305E+03	6.891922E-05	1.256792E-05
5.060208E+03	6.952797E-05	1.267852E-05
5.070110E+03	7.014851E-05	1.279127E-05
5.080013E+03	7.078099E-05	1.290619E-05
5.089915E+03	7.142550E-05	1.302329E-05
5.099818E+03	7.208146E-05	1.314246E-05
5.109720E+03	7.274895E-05	1.326373E-05
5.119623E+03	7.342729E-05	1.338697E-05
5.129525E+03	7.411799E-05	1.351244E-05
5.139428E+03	7.481968E-05	1.363992E-05
5.149331E+03	7.553235E-05	1.376938E-05
5.159233E+03	7.625606E-05	1.390084E-05
5.169136E+03	7.699152E-05	1.403443E-05
5.179038E+03	7.773723E-05	1.416988E-05
5.188941E+03	7.849315E-05	1.430718E-05
5.198843E+03	7.926075E-05	1.444659E-05
5.208746E+03	8.003763E-05	1.458769E-05
5.218648E+03	8.082520E-05	1.473072E-05
5.228551E+03	8.162260E-05	1.487552E-05
5.238454E+03	8.242959E-05	1.502207E-05
5.248356E+03	8.324683E-05	1.517046E-05
5.258259E+03	8.407244E-05	1.532037E-05
5.268161E+03	8.490689E-05	1.547188E-05
5.278064E+03	8.574992E-05	1.562493E-05
5.287966E+03	8.660113E-05	1.577946E-05
5.297869E+03	8.746097E-05	1.593555E-05
5.307772E+03	8.832726E-05	1.609280E-05
5.317674E+03	8.920032E-05	1.625127E-05
5.327577E+03	9.007958E-05	1.641085E-05
5.337479E+03	9.096350E-05	1.657126E-05
5.347382E+03	9.185317E-05	1.673271E-05
5.357284E+03	9.274694E-05	1.689489E-05
5.367187E+03	9.364305E-05	1.705748E-05
5.377089E+03	9.454058E-05	1.722031E-05
5.386992E+03	9.543949E-05	1.738337E-05
5.396895E+03	9.633683E-05	1.754614E-05
5.406797E+03	9.723243E-05	1.770857E-05
5.416700E+03	9.812506E-05	1.787044E-05
5.426602E+03	9.901149E-05	1.803117E-05
5.436505E+03	9.989033E-05	1.819050E-05
5.446407E+03	1.007611E-04	1.834835E-05
5.456310E+03	1.016214E-04	1.850426E-05
5.466212E+03	1.024685E-04	1.865776E-05
5.476115E+03	1.032997E-04	1.880834E-05
5.486018E+03	1.041153E-04	1.895609E-05
5.495920E+03	1.049105E-04	1.910008E-05
5.505823E+03	1.056845E-04	1.924020E-05
5.515725E+03	1.064342E-04	1.937588E-05
5.525628E+03	1.071578E-04	1.950680E-05
5.535530E+03	1.078533E-04	1.963259E-05
5.545433E+03	1.085177E-04	1.975270E-05
5.555335E+03	1.091501E-04	1.986699E-05
5.565238E+03	1.097477E-04	1.997490E-05
5.575141E+03	1.103073E-04	2.007589E-05
5.585043E+03	1.108293E-04	2.017005E-05
5.594946E+03	1.113110E-04	2.025684E-05
5.604848E+03	1.117496E-04	2.033576E-05
5.614751E+03	1.121445E-04	2.040673E-05
5.624653E+03	1.124955E-04	2.046972E-05
5.634556E+03	1.127991E-04	2.052405E-05
5.644459E+03	1.130551E-04	2.056971E-05
5.654361E+03	1.132637E-04	2.060675E-05
5.664264E+03	1.134228E-04	2.063478E-05
5.674166E+03	1.135330E-04	2.065389E-05
5.684069E+03	1.135924E-04	2.066377E-05
5.693971E+03	1.136019E-04	2.066456E-05
5.703874E+03	1.135613E-04	2.065622E-05
5.713776E+03	1.134717E-04	2.063898E-05
5.723679E+03	1.133308E-04	2.061240E-05
5.733582E+03	1.131427E-04	2.057722E-05
5.743484E+03	1.129052E-04	2.053308E-05
5.753387E+03	1.126204E-04	2.048031E-05
5.763289E+03	1.122889E-04	2.041907E-05
5.773192E+03	1.119117E-04	2.034952E-05
5.783094E+03	1.114913E-04	2.027210E-05
5.792997E+03	1.110287E-04	2.018703E-05
5.802899E+03	1.105255E-04	2.009457E-05
5.812802E+03	1.099820E-04	1.999478E-05
5.822705E+03	1.094022E-04	1.988839E-05
5.832607E+03	1.087866E-04	1.977552E-05
5.842510E+03	1.081382E-04	1.965669E-05
5.852412E+03	1.074579E-04	1.953206E-05
5.862315E+03	1.067486E-04	1.940218E-05
5.872217E+03	1.060126E-04	1.926743E-05
5.882120E+03	1.052517E-04	1.912819E-05
5.892022E+03	1.044681E-04	1.898482E-05
5.901925E+03	1.036638E-04	1.883770E-05
5.911828E+03	1.028420E-04	1.868741E-05
5.921730E+03	1.020024E-04	1.853390E-05
5.931633E+03	1.011494E-04	1.837795E-05
5.941535E+03	1.002836E-04	1.821971E-05
5.951438E+03	9.940714E-05	1.805953E-05
5.961340E+03	9.852288E-05	1.789795E-05
5.971243E+03	9.763030E-05	1.773487E-05
5.981146E+03	9.673346E-05	1.757103E-05
5.991048E+03	9.583169E-05	1.740630E-05
6.000951E+03	9.492777E-05	1.724120E-05
6.010853E+03	9.402315E-05	1.707599E-05
6.020756E+03	9.311817E-05	1.691072E-05
6.030658E+03	9.221421E-05	1.674565E-05
6.040561E+03	9.131251E-05	1.658101E-05
6.050463E+03	9.041435E-05	1.641702E-05
6.060366E+03	8.952086E-05	1.625389E-05
6.070269E+03	8.863306E-05	1.609181E-05
6.080171E+03	8.775201E-05	1.593097E-05
6.090074E+03	8.687861E-05	1.577153E-05
6.099976E+03	8.601481E-05	1.561384E-05
6.109879E+03	8.516249E-05	1.545826E-05
6.119781E+03	8.432339E-05	1.530508E-05
6.129684E+03	8.349817E-05	1.515444E-05
6.139586E+03	8.268738E-05	1.500643E-05
6.149489E+03	8.189045E-05	1.486095E-05
6.159392E+03	8.110782E-05	1.471808E-05
6.169294E+03	8.033993E-05	1.457789E-05
6.179197E+03	7.958606E-05	1.444026E-05
6.189099E+03	7.884759E-05	1.430544E-05
6.199002E+03	7.812694E-05	1.417386E-05
6.208904E+03	7.742325E-05	1.404537E-05
6.218807E+03	7.673773E-05	1.392019E-05
6.228709E+03	7.607266E-05	1.379872E-05
6.238612E+03	7.542704E-05	1.368080E-05
6.248515E+03	7.480413E-05	1.356700E-05
6.258417E+03	7.420496E-05	1.345753E-05
6.268320E+03	7.362850E-05	1.335217E-05
6.278222E+03	7.307788E-05	1.325152E-05
6.288125E+03	7.255410E-05	1.315574E-05
6.298027E+03	7.205713E-05	1.306482E-05
6.307930E+03	7.158794E-05	1.297895E-05
6.317833E+03	7.114960E-05	1.289869E-05
6.327735E+03	7.074101E-05	1.282382E-05
6.337638E+03	7.036318E-05	1.275453E-05
6.347540E+03	7.001812E-05	1.269119E-05
6.357443E+03	6.970269E-05	1.263322E-05
6.367345E+03	6.941479E-05	1.258025E-05
6.377248E+03	6.915336E-05	1.253207E-05
6.387150E+03	6.891733E-05	1.248850E-05
6.397053E+03	6.870457E-05	1.244915E-05
6.406956E+03	6.851510E-05	1.241402E-05
6.416858E+03	6.834781E-05	1.238292E-05
6.426761E+03	6.820270E-05	1.235583E-05
6.436663E+03	6.807870E-05	1.233256E-05
6.446566E+03	6.797577E-05	1.231311E-05
6.456468E+03	6.789390E-05	1.229747E-05
6.466371E+03	6.783200E-05	1.228545E-05
6.476273E+03	6.779113E-05	1.227724E-05
6.486176E+03	6.777125E-05	1.227283E-05
6.496079E+03	6.777132E-05	1.227202E-05
6.505981E+03	6.779237E-05	1.227501E-05
6.515884E+03	6.783334E-05	1.228161E-05
6.525786E+03	6.789421E-05	1.229180E-05
6.535689E+03	6.797610E-05	1.230579E-05
6.545591E+03	6.807678E-05	1.232318E-05
6.555494E+03	6.819963E-05	1.234458E-05
6.565396E+03	6.834130E-05	1.236938E-05
6.575299E+03	6.850407E-05	1.239799E-05
6.585202E+03	6.868684E-05	1.243021E-05
6.595104E+03	6.888960E-05	1.246604E-05
6.605007E+03	6.911360E-05	1.250570E-05
6.614909E+03	6.935771E-05	1.254900E-05
6.624812E+03	6.962199E-05	1.259593E-05
6.634714E+03	6.990643E-05	1.264651E-05
6.644617E+03	7.021236E-05	1.270096E-05
6.654520E+03	7.053738E-05	1.275885E-05
6.664422E+03	7.088402E-05	1.282064E-05
6.674325E+03	7.125110E-05	1.288611E-05
6.684227E+03	7.163872E-05	1.295529E-05
6.694130E+03	7.204694E-05	1.302818E-05
6.704032E+03	7.247584E-05	1.310479E-05
6.713935E+03	7.292682E-05	1.318539E-05
6.723837E+03	7.339736E-05	1.326950E-05
6.733740E+03	7.388887E-05	1.335739E-05
6.743643E+03	7.440139E-05	1.344906E-05
6.753545E+03	7.493506E-05	1.354453E-05
6.763448E+03	7.548995E-05	1.364383E-05
6.773350E+03	7.606618E-05	1.374696E-05
6.783253E+03	7.666385E-05	1.385395E-05
6.793155E+03	7.728161E-05	1.396455E-05
6.803058E+03	7.792100E-05	1.407904E-05
6.812960E+03	7.858210E-05	1.419743E-05
6.822863E+03	7.926354E-05	1.431947E-05
6.832766E+03	7.996686E-05	1.444545E-05
6.842668E+03	8.069216E-05	1.457537E-05
6.852571E+03	8.143804E-05	1.470898E-05
6.862473E+03	8.220451E-05	1.484630E-05
6.872376E+03	8.299320E-05	1.498760E-05
6.882278E+03	8.380265E-05	1.513262E-05
6.892181E+03	8.463284E-05	1.528136E-05
6.902083E+03	8.548550E-05	1.543413E-05
6.911986E+03	8.635903E-05	1.559065E-05
6.921889E+03	8.725352E-05	1.575092E-05
6.931791E+03	8.816724E-05	1.591463E-05
6.941694E+03	8.910364E-05	1.608241E-05
6.951596E+03	9.006106E-05	1.625395E-05
6.961499E+03	9.103952E-05	1.642926E-05
6.971401E+03	9.203726E-05	1.660802E-05
6.981304E+03	9.305602E-05	1.679053E-05
6.991207E+03	9.409397E-05	1.697648E-05
7.001109E+03	9.515488E-05	1.716654E-05
7.011012E+03	9.623299E-05	1.735967E-05
7.020914E+03	9.733212E-05	1.755655E-05
7.030817E+03	9.845024E-05	1.775682E-05
7.040719E+03	9.958932E-05	1.796084E-05
7.050622E+03	1.007452E-04	1.816786E-05
7.060524E+03	1.019220E-04	1.837860E-05
7.070427E+03	1.031153E-04	1.859229E-05
7.080330E+03	1.043271E-04	1.880927E-05
7.090232E+03	1.055573E-04	1.902954E-05
7.100135E+03	1.068058E-04	1.925306E-05
7.110037E+03	1.080701E-04	1.947940E-05
7.119940E+03	1.093501E-04	1.970851E-05
7.129842E+03	1.106477E-04	1.994077E-05
7.139745E+03	1.119605E-04	2.017572E-05
7.149647E+03	1.132906E-04	2.041373E-05
7.159550E+03	1.146328E-04	2.065390E-05
7.169453E+03	1.159918E-04	2.089704E-05
7.179355E+03	1.173647E-04	2.114265E-05
7.189258E+03	1.187512E-04	2.139067E-05
7.199160E+03	1.201510E-04	2.164104E-05
7.209063E+03	1.215637E-04	2.189368E-05
7.218965E+03	1.229888E-04	2.214852E-05
7.228868E+03	1.244287E-04	2.240597E-05
7.238770E+03	1.258776E-04	2.266498E-05
7.248673E+03	1.273432E-04	2.292697E-05
7.258576E+03	1.288225E-04	2.319138E-05
7.268478E+03	1.303122E-04	2.345762E-05
7.278381E+03	1.318208E-04	2.372720E-05
7.288283E+03	1.333420E-04	2.399902E-05
7.298186E+03	1.348847E-04	2.427465E-05
7.308088E+03	1.364458E-04	2.455354E-05
7.317991E+03	1.380284E-04	2.483623E-05
7.327894E+03	1.396355E-04	2.512332E-05
7.337796E+03	1.412675E-04	2.541481E-05
7.347699E+03	1.429312E-04	2.571196E-05
7.357601E+03	1.446305E-04	2.601545E-05
7.367504E+03	1.463625E-04	2.632477E-05
7.377406E+03	1.481277E-04	2.664003E-05
7.387309E+03	1.499268E-04	2.696130E-05
7.397211E+03	1.517565E-04	2.728804E-05
7.407114E+03	1.536136E-04	2.761963E-05
7.417017E+03	1.554944E-04	2.795545E-05
7.426919E+03	1.573990E-04	2.829547E-05
7.436822E+03	1.593236E-04	2.863902E-05
7.446724E+03	1.612639E-04	2.898534E-05
7.456627E+03	1.632235E-04	2.933508E-05
7.466529E+03	1.651942E-04	2.968674E-05
7.476432E+03	1.671753E-04	3.004020E-05
7.486334E+03	1.691661E-04	3.039536E-05
7.496237E+03	1.711659E-04	3.075208E-05
7.506140E+03	1.731741E-04	3.111023E-05
7.516042E+03	1.751855E-04	3.146890E-05
7.525945E+03	1.771991E-04	3.182790E-05
7.535847E+03	1.792184E-04	3.218787E-05
7.545750E+03	1.812379E-04	3.254781E-05
7.555652E+03	1.832612E-04	3.290837E-05
7.565555E+03	1.852778E-04	3.326768E-05
7.575457E+03	1.872960E-04	3.362720E-05
7.585360E+03	1.893097E-04	3.398586E-05
7.595263E+03	1.913176E-04	3.434343E-05
7.605165E+03	1.933184E-04	3.469965E-05
7.615068E+03	1.953157E-04	3.505519E-05
7.624970E+03	1.973030E-04	3.540887E-05
7.634873E+03	1.992787E-04	3.576042E-05
7.644775E+03	2.012466E-04	3.611051E-05
7.654678E+03	2.032052E-04	3.645887E-05
7.664581E+03	2.051476E-04	3.680426E-05
7.674483E+03	2.070775E-04	3.714736E-05
7.684386E+03	2.089933E-04	3.748788E-05
