#wls	flux	fluxerr
1.584409E+03	7.115362E-04	1.633581E-04
1.624020E+03	7.174117E-04	1.641078E-04
1.663630E+03	7.226621E-04	1.647060E-04
1.703240E+03	7.272419E-04	1.651040E-04
1.742850E+03	7.311493E-04	1.653427E-04
1.782461E+03	7.343264E-04	1.653682E-04
1.822071E+03	7.366112E-04	1.651885E-04
1.861681E+03	7.381960E-04	1.648039E-04
1.901291E+03	7.387672E-04	1.641919E-04
1.940902E+03	7.384423E-04	1.633338E-04
1.980512E+03	7.369662E-04	1.622241E-04
2.020122E+03	7.344503E-04	1.608409E-04
2.059732E+03	7.305445E-04	1.591618E-04
2.099342E+03	7.252378E-04	1.571370E-04
2.138953E+03	7.182425E-04	1.547625E-04
2.178563E+03	7.093594E-04	1.519479E-04
2.218173E+03	6.981787E-04	1.486680E-04
2.257783E+03	6.847964E-04	1.448976E-04
2.297394E+03	6.692468E-04	1.407089E-04
2.337004E+03	6.521948E-04	1.361953E-04
2.376614E+03	6.339077E-04	1.314756E-04
2.416224E+03	6.148104E-04	1.265887E-04
2.455835E+03	5.950887E-04	1.216334E-04
2.495445E+03	5.749608E-04	1.166039E-04
2.535055E+03	5.544521E-04	1.115634E-04
2.574665E+03	5.337522E-04	1.065005E-04
2.614276E+03	5.128502E-04	1.014689E-04
2.653886E+03	4.918883E-04	9.644809E-05
2.693496E+03	4.708174E-04	9.148220E-05
2.733106E+03	4.497834E-04	8.655282E-05
2.772716E+03	4.287451E-04	8.170302E-05
2.812327E+03	4.078597E-04	7.691804E-05
2.851937E+03	3.871431E-04	7.224860E-05
2.891547E+03	3.667966E-04	6.768932E-05
2.931157E+03	3.468854E-04	6.329557E-05
2.960437E+03	4.296266E-03	7.771070E-04
2.960635E+03	4.304075E-03	7.784732E-04
2.962617E+03	4.313920E-03	7.797854E-04
2.962815E+03	4.321045E-03	7.810265E-04
2.964201E+03	4.328612E-03	7.820649E-04
2.964399E+03	4.335512E-03	7.832643E-04
2.965786E+03	4.342398E-03	7.841777E-04
2.966578E+03	4.348833E-03	7.851506E-04
2.967370E+03	4.355273E-03	7.861235E-04
2.967568E+03	4.360798E-03	7.870732E-04
2.967965E+03	4.365861E-03	7.878918E-04
2.968163E+03	4.371157E-03	7.887999E-04
2.969549E+03	4.377374E-03	7.895862E-04
2.983413E+03	4.397922E-03	7.899214E-04
2.983809E+03	4.402318E-03	7.906141E-04
2.984602E+03	4.406948E-03	7.912515E-04
2.985394E+03	4.411349E-03	7.918471E-04
2.986385E+03	4.415985E-03	7.924358E-04
2.986979E+03	4.420388E-03	7.930797E-04
2.987573E+03	4.424559E-03	7.936817E-04
2.988365E+03	4.429199E-03	7.943183E-04
2.989752E+03	4.433847E-03	7.948094E-04
2.989950E+03	4.436862E-03	7.953008E-04
2.990148E+03	4.439413E-03	7.957089E-04
2.990940E+03	4.442436E-03	7.960543E-04
2.991931E+03	4.445466E-03	7.963513E-04
2.992723E+03	4.448259E-03	7.966550E-04
2.993516E+03	4.450360E-03	7.968340E-04
2.993911E+03	4.452221E-03	7.970688E-04
2.994109E+03	4.453385E-03	7.972278E-04
2.994307E+03	4.454316E-03	7.973452E-04
2.995495E+03	4.456426E-03	7.974265E-04
2.995693E+03	4.457126E-03	7.975023E-04
2.996288E+03	4.458298E-03	7.975637E-04
2.996486E+03	4.458534E-03	7.975564E-04
2.998269E+03	4.460428E-03	7.974495E-04
2.998467E+03	4.460199E-03	7.973590E-04
2.999457E+03	4.460917E-03	7.972395E-04
3.002428E+03	4.463768E-03	7.970039E-04
3.002626E+03	4.463074E-03	7.968305E-04
3.002824E+03	4.462382E-03	7.966572E-04
3.004212E+03	4.462645E-03	7.963559E-04
3.004410E+03	4.461486E-03	7.960992E-04
3.004805E+03	4.460331E-03	7.957939E-04
3.005004E+03	4.458940E-03	7.954958E-04
3.005202E+03	4.457083E-03	7.951148E-04
3.005795E+03	4.455700E-03	7.947190E-04
3.006587E+03	4.454784E-03	7.943569E-04
3.007181E+03	4.452702E-03	7.938364E-04
3.007379E+03	4.449913E-03	7.932895E-04
3.007775E+03	4.447127E-03	7.926935E-04
3.008568E+03	4.444812E-03	7.920822E-04
3.008766E+03	4.442256E-03	7.915770E-04
3.008964E+03	4.438765E-03	7.909054E-04
3.009162E+03	4.435742E-03	7.903171E-04
3.009360E+03	4.432253E-03	7.896458E-04
3.010747E+03	4.429944E-03	7.888872E-04
3.011341E+03	4.426457E-03	7.881176E-04
3.011539E+03	4.422265E-03	7.873217E-04
3.012926E+03	4.419017E-03	7.863969E-04
3.013124E+03	4.414590E-03	7.855597E-04
3.013520E+03	4.409699E-03	7.845903E-04
3.014510E+03	4.406209E-03	7.837223E-04
3.014708E+03	4.401080E-03	7.827607E-04
3.015104E+03	4.395486E-03	7.816671E-04
3.015500E+03	4.389657E-03	7.805319E-04
3.015699E+03	4.383593E-03	7.794045E-04
3.015898E+03	4.377064E-03	7.781941E-04
3.016492E+03	4.371465E-03	7.770513E-04
3.017877E+03	4.366325E-03	7.757945E-04
3.018867E+03	4.361185E-03	7.746360E-04
3.019263E+03	4.354647E-03	7.733767E-04
3.019461E+03	4.347174E-03	7.720006E-04
3.020650E+03	4.341090E-03	7.706270E-04
3.020848E+03	4.333849E-03	7.692926E-04
3.022829E+03	4.327982E-03	7.677632E-04
3.023027E+03	4.319800E-03	7.662630E-04
3.023225E+03	4.311149E-03	7.646799E-04
3.025800E+03	4.305957E-03	7.631262E-04
3.028772E+03	4.300981E-03	7.615151E-04
3.030157E+03	4.293223E-03	7.598014E-04
3.031346E+03	4.285700E-03	7.581786E-04
3.031544E+03	4.276325E-03	7.564716E-04
3.031940E+03	4.266945E-03	7.547155E-04
3.032336E+03	4.257795E-03	7.530004E-04
3.035308E+03	4.251132E-03	7.510977E-04
3.036892E+03	4.242867E-03	7.492511E-04
3.039467E+03	4.235728E-03	7.473638E-04
3.041448E+03	4.227901E-03	7.455004E-04
3.041645E+03	4.217558E-03	7.436288E-04
3.043032E+03	4.207627E-03	7.415415E-04
3.043626E+03	4.197025E-03	7.395293E-04
3.045210E+03	4.187306E-03	7.374338E-04
3.045804E+03	4.176459E-03	7.353802E-04
3.046597E+03	4.165363E-03	7.332356E-04
3.047786E+03	4.154707E-03	7.310744E-04
3.049964E+03	4.144922E-03	7.288298E-04
3.051549E+03	4.134457E-03	7.266104E-04
3.051747E+03	4.121963E-03	7.243672E-04
3.051946E+03	4.109467E-03	7.221237E-04
3.052144E+03	4.096732E-03	7.198390E-04
3.054123E+03	4.085975E-03	7.174795E-04
3.054718E+03	4.073434E-03	7.151368E-04
3.055708E+03	4.061091E-03	7.127363E-04
3.056302E+03	4.047835E-03	7.102698E-04
3.057094E+03	4.035027E-03	7.078367E-04
3.058482E+03	4.022157E-03	7.052540E-04
3.059472E+03	4.009551E-03	7.028126E-04
3.059670E+03	3.995370E-03	7.002807E-04
3.062839E+03	3.984171E-03	6.975816E-04
3.064028E+03	3.970575E-03	6.949254E-04
3.064622E+03	3.955856E-03	6.922119E-04
3.066206E+03	3.942667E-03	6.895390E-04
3.066404E+03	3.927273E-03	6.868014E-04
3.066998E+03	3.912065E-03	6.840056E-04
3.068384E+03	3.897928E-03	6.812176E-04
3.068582E+03	3.882050E-03	6.783976E-04
3.068780E+03	3.866408E-03	6.756193E-04
3.068978E+03	3.850054E-03	6.727168E-04
3.069770E+03	3.834554E-03	6.698306E-04
3.069970E+03	3.818195E-03	6.669283E-04
3.070168E+03	3.801595E-03	6.639846E-04
3.070564E+03	3.784963E-03	6.609917E-04
3.071950E+03	3.769107E-03	6.579162E-04
3.072346E+03	3.751988E-03	6.548408E-04
3.072544E+03	3.735375E-03	6.518977E-04
3.073138E+03	3.718214E-03	6.487730E-04
3.073336E+03	3.701122E-03	6.457476E-04
3.074723E+03	3.684749E-03	6.425908E-04
3.075317E+03	3.667333E-03	6.394254E-04
3.075912E+03	3.649675E-03	6.362187E-04
3.076901E+03	3.632165E-03	6.329550E-04
3.077298E+03	3.614060E-03	6.297154E-04
3.078684E+03	3.596687E-03	6.263947E-04
3.078882E+03	3.578138E-03	6.231225E-04
3.079674E+03	3.559691E-03	6.197438E-04
3.079872E+03	3.540661E-03	6.163892E-04
3.080268E+03	3.521581E-03	6.129853E-04
3.080466E+03	3.502308E-03	6.095896E-04
3.080862E+03	3.482984E-03	6.061448E-04
3.081060E+03	3.463231E-03	6.026667E-04
3.081655E+03	3.443375E-03	5.990906E-04
3.082052E+03	3.423802E-03	5.956048E-04
3.083042E+03	3.404065E-03	5.919723E-04
3.083834E+03	3.384372E-03	5.883890E-04
3.084428E+03	3.364011E-03	5.847311E-04
3.085022E+03	3.344357E-03	5.811972E-04
3.085220E+03	3.323385E-03	5.775137E-04
3.085617E+03	3.302828E-03	5.738640E-04
3.086409E+03	3.282147E-03	5.701168E-04
3.087796E+03	3.262228E-03	5.663886E-04
3.087994E+03	3.240998E-03	5.626646E-04
3.088984E+03	3.219989E-03	5.588282E-04
3.089380E+03	3.198687E-03	5.550561E-04
3.089578E+03	3.176730E-03	5.512088E-04
3.089776E+03	3.154771E-03	5.473615E-04
3.089974E+03	3.132572E-03	5.434730E-04
3.090568E+03	3.111185E-03	5.396529E-04
3.090766E+03	3.088979E-03	5.357648E-04
3.090964E+03	3.067008E-03	5.319180E-04
3.091162E+03	3.044321E-03	5.279476E-04
3.091360E+03	3.021869E-03	5.240184E-04
3.091558E+03	2.999176E-03	5.200479E-04
3.092152E+03	2.976330E-03	5.159814E-04
3.092350E+03	2.953869E-03	5.120527E-04
3.092548E+03	2.930690E-03	5.080001E-04
3.092944E+03	2.907667E-03	5.039409E-04
3.093341E+03	2.884877E-03	4.999232E-04
3.093539E+03	2.861927E-03	4.959124E-04
3.093936E+03	2.838416E-03	4.917714E-04
3.094530E+03	2.815051E-03	4.876237E-04
3.095322E+03	2.792068E-03	4.835110E-04
3.095520E+03	2.768147E-03	4.793358E-04
3.095718E+03	2.744223E-03	4.751607E-04
3.096312E+03	2.720593E-03	4.709729E-04
3.096708E+03	2.697047E-03	4.668332E-04
3.096906E+03	2.672634E-03	4.625759E-04
3.097303E+03	2.648602E-03	4.583539E-04
3.097501E+03	2.624184E-03	4.540973E-04
3.098689E+03	2.599993E-03	4.497269E-04
3.098887E+03	2.575323E-03	4.454293E-04
3.099085E+03	2.550890E-03	4.411731E-04
3.099680E+03	2.526730E-03	4.369049E-04
3.099878E+03	2.502288E-03	4.326490E-04
3.100076E+03	2.477366E-03	4.283107E-04
3.100472E+03	2.452577E-03	4.239668E-04
3.100669E+03	2.427170E-03	4.195463E-04
3.101660E+03	2.402286E-03	4.151028E-04
3.101858E+03	2.377370E-03	4.107693E-04
3.102056E+03	2.352691E-03	4.064774E-04
3.102254E+03	2.327317E-03	4.020659E-04
3.102848E+03	2.301928E-03	3.975979E-04
3.103046E+03	2.276139E-03	3.931166E-04
3.103244E+03	2.250324E-03	3.886313E-04
3.103442E+03	2.224482E-03	3.841420E-04
3.103838E+03	2.198995E-03	3.796887E-04
3.104036E+03	2.173100E-03	3.751916E-04
3.104234E+03	2.147103E-03	3.706779E-04
3.104630E+03	2.121246E-03	3.661635E-04
3.105027E+03	2.095405E-03	3.616532E-04
3.105225E+03	2.069255E-03	3.571154E-04
3.105820E+03	2.043350E-03	3.525718E-04
3.106018E+03	2.017383E-03	3.480673E-04
3.106612E+03	1.991678E-03	3.435614E-04
3.107008E+03	1.965618E-03	3.390194E-04
3.107206E+03	1.940235E-03	3.346185E-04
3.107404E+03	1.914396E-03	3.301394E-04
3.108196E+03	1.888457E-03	3.255763E-04
3.108394E+03	1.862297E-03	3.210441E-04
3.108989E+03	1.836646E-03	3.165566E-04
3.110375E+03	1.811262E-03	3.120307E-04
3.110573E+03	1.785106E-03	3.075035E-04
3.110969E+03	1.758923E-03	3.029514E-04
3.111167E+03	1.732784E-03	2.984286E-04
3.111365E+03	1.706162E-03	2.938233E-04
3.111960E+03	1.680177E-03	2.892882E-04
3.112158E+03	1.654002E-03	2.847619E-04
3.112554E+03	1.627315E-03	2.801285E-04
3.112752E+03	1.600678E-03	2.755241E-04
3.113940E+03	1.574325E-03	2.708754E-04
3.114138E+03	1.547698E-03	2.662755E-04
3.114336E+03	1.521332E-03	2.617213E-04
3.114534E+03	1.495061E-03	2.571838E-04
3.114732E+03	1.468857E-03	2.526586E-04
3.114930E+03	1.442027E-03	2.480264E-04
3.115326E+03	1.415751E-03	2.434732E-04
3.115524E+03	1.389803E-03	2.389941E-04
3.115722E+03	1.363178E-03	2.343994E-04
3.115920E+03	1.336671E-03	2.298256E-04
3.116118E+03	1.310018E-03	2.252272E-04
3.116514E+03	1.283407E-03	2.206215E-04
3.116713E+03	1.257130E-03	2.160893E-04
3.117307E+03	1.230889E-03	2.115345E-04
3.117506E+03	1.205059E-03	2.070810E-04
3.117704E+03	1.178674E-03	2.025329E-04
3.118100E+03	1.152589E-03	1.980232E-04
3.118298E+03	1.126773E-03	1.935742E-04
3.118694E+03	1.100414E-03	1.890196E-04
3.118892E+03	1.074087E-03	1.844845E-04
3.119288E+03	1.047718E-03	1.799304E-04
3.120278E+03	1.022088E-03	1.754675E-04
3.120477E+03	9.961046E-04	1.709949E-04
3.120675E+03	9.701668E-04	1.665308E-04
3.120873E+03	9.440820E-04	1.620420E-04
3.121269E+03	9.188130E-04	1.576828E-04
3.121467E+03	8.934173E-04	1.533138E-04
3.121863E+03	8.673462E-04	1.488191E-04
3.122061E+03	8.415834E-04	1.443886E-04
3.122259E+03	8.161780E-04	1.400201E-04
3.122655E+03	7.909091E-04	1.356661E-04
3.122853E+03	7.651605E-04	1.312402E-04
3.123448E+03	7.396344E-04	1.268353E-04
3.123646E+03	7.149343E-04	1.225911E-04
3.124042E+03	6.902453E-04	1.183410E-04
3.124438E+03	6.650701E-04	1.140089E-04
3.124637E+03	6.397345E-04	1.096580E-04
3.124834E+03	6.150927E-04	1.054268E-04
3.125032E+03	5.902080E-04	1.011545E-04
3.125428E+03	5.654477E-04	9.689728E-05
3.126418E+03	5.411796E-04	9.270610E-05
3.126616E+03	5.167367E-04	8.851272E-05
3.127012E+03	4.926788E-04	8.437996E-05
3.127408E+03	4.681588E-04	8.016921E-05
3.127606E+03	4.435369E-04	7.594753E-05
3.128002E+03	4.195363E-04	7.182779E-05
3.128201E+03	3.952444E-04	6.766408E-05
3.128399E+03	3.714789E-04	6.359106E-05
3.128597E+03	3.481679E-04	5.959640E-05
3.128795E+03	3.244453E-04	5.553187E-05
3.128993E+03	3.008645E-04	5.149218E-05
3.129191E+03	2.778585E-04	4.755141E-05
3.129390E+03	2.542966E-04	4.351607E-05
3.129588E+03	2.309631E-04	3.952037E-05
3.130182E+03	2.086990E-04	3.570320E-05
3.130776E+03	1.861532E-04	3.183944E-05
3.130974E+03	1.639260E-04	2.803576E-05
3.131370E+03	1.414372E-04	2.418616E-05
3.131568E+03	1.188357E-04	2.031981E-05
3.131964E+03	9.689912E-05	1.656652E-05
3.132163E+03	7.456837E-05	1.274780E-05
3.132361E+03	5.274802E-05	9.016878E-06
3.132559E+03	3.064355E-05	5.237916E-06
3.132955E+03	8.834046E-06	1.509794E-06
3.133153E+03	-1.278398E-05	-2.184708E-06
3.133549E+03	-3.362660E-05	-5.745780E-06
3.133747E+03	-5.466639E-05	-9.340192E-06
3.133945E+03	-7.574705E-05	-1.294108E-05
3.134143E+03	-9.619163E-05	-1.643279E-05
3.134341E+03	-1.169709E-04	-1.998119E-05
3.134539E+03	-1.368418E-04	-2.337391E-05
3.134737E+03	-1.568980E-04	-2.679781E-05
3.135332E+03	-1.769902E-04	-3.022309E-05
3.135530E+03	-1.963951E-04	-3.353432E-05
3.135728E+03	-2.159564E-04	-3.687179E-05
3.135926E+03	-2.351270E-04	-4.014208E-05
3.136323E+03	-2.533880E-04	-4.325357E-05
3.136520E+03	-2.715777E-04	-4.635531E-05
3.136719E+03	-2.895768E-04	-4.942403E-05
3.136917E+03	-3.074331E-04	-5.246796E-05
3.137510E+03	-3.251101E-04	-5.547302E-05
3.138104E+03	-3.426483E-04	-5.845309E-05
3.138302E+03	-3.599837E-04	-6.140603E-05
3.138698E+03	-3.771248E-04	-6.432082E-05
3.138896E+03	-3.941756E-04	-6.722416E-05
3.139094E+03	-4.110112E-04	-7.009040E-05
3.139292E+03	-4.276073E-04	-7.291538E-05
3.139490E+03	-4.440847E-04	-7.571971E-05
3.139688E+03	-4.602744E-04	-7.847460E-05
3.139887E+03	-4.761763E-04	-8.118003E-05
3.140085E+03	-4.917421E-04	-8.382778E-05
3.140481E+03	-5.070479E-04	-8.642469E-05
3.140679E+03	-5.220146E-04	-8.896939E-05
3.140877E+03	-5.366694E-04	-9.146055E-05
3.141075E+03	-5.509877E-04	-9.389405E-05
3.141274E+03	-5.650182E-04	-9.627809E-05
3.141472E+03	-5.787119E-04	-9.860447E-05
3.141670E+03	-5.920935E-04	-1.008773E-04
3.142264E+03	-6.052052E-04	-1.030892E-04
3.142462E+03	-6.175770E-04	-1.051891E-04
3.142660E+03	-6.294190E-04	-1.071984E-04
3.142858E+03	-6.416486E-04	-1.092735E-04
3.143056E+03	-6.540245E-04	-1.113732E-04
3.143254E+03	-6.657737E-04	-1.133659E-04
3.143452E+03	-6.775002E-04	-1.153544E-04
3.143650E+03	-6.878029E-04	-1.171002E-04
3.143849E+03	-6.986865E-04	-1.189447E-04
3.144047E+03	-7.091123E-04	-1.207110E-04
3.144245E+03	-7.194425E-04	-1.224608E-04
3.144443E+03	-7.289525E-04	-1.240707E-04
3.144641E+03	-7.376179E-04	-1.255366E-04
3.144839E+03	-7.464051E-04	-1.270230E-04
3.145037E+03	-7.549517E-04	-1.284683E-04
3.145235E+03	-7.628951E-04	-1.298107E-04
3.145433E+03	-7.710568E-04	-1.311901E-04
3.145631E+03	-7.785186E-04	-1.324502E-04
3.145829E+03	-7.852320E-04	-1.335828E-04
3.146027E+03	-7.921395E-04	-1.347483E-04
3.146423E+03	-7.987050E-04	-1.358457E-04
3.146621E+03	-8.038980E-04	-1.367192E-04
3.146819E+03	-8.097927E-04	-1.377118E-04
3.147017E+03	-8.147935E-04	-1.385523E-04
3.147216E+03	-8.197709E-04	-1.393887E-04
3.147414E+03	-8.233221E-04	-1.399825E-04
3.147612E+03	-8.275507E-04	-1.406914E-04
3.147811E+03	-8.305465E-04	-1.411906E-04
3.148207E+03	-8.334435E-04	-1.416628E-04
3.148405E+03	-8.364644E-04	-1.421661E-04
3.148801E+03	-8.390963E-04	-1.425930E-04
3.149196E+03	-8.413418E-04	-1.429541E-04
3.149395E+03	-8.427431E-04	-1.431819E-04
3.149592E+03	-8.435636E-04	-1.433111E-04
3.149790E+03	-8.440942E-04	-1.433909E-04
3.149988E+03	-8.444068E-04	-1.434337E-04
3.150186E+03	-8.435340E-04	-1.432752E-04
3.150582E+03	-8.429736E-04	-1.431594E-04
3.150780E+03	-8.418826E-04	-1.429639E-04
3.150978E+03	-8.397751E-04	-1.425958E-04
3.151176E+03	-8.371589E-04	-1.421413E-04
3.151374E+03	-8.345183E-04	-1.416828E-04
3.151573E+03	-8.312480E-04	-1.411174E-04
3.151771E+03	-8.275899E-04	-1.404863E-04
3.151969E+03	-8.230842E-04	-1.397114E-04
3.152167E+03	-8.183358E-04	-1.388954E-04
3.152365E+03	-8.129816E-04	-1.379767E-04
3.152563E+03	-8.071667E-04	-1.369800E-04
3.152761E+03	-8.012060E-04	-1.359586E-04
3.152959E+03	-7.946149E-04	-1.348305E-04
3.153158E+03	-7.868366E-04	-1.335010E-04
3.153356E+03	-7.783549E-04	-1.320524E-04
3.153554E+03	-7.700903E-04	-1.306409E-04
3.153752E+03	-7.613887E-04	-1.291554E-04
3.154148E+03	-7.520253E-04	-1.275487E-04
3.154346E+03	-7.417951E-04	-1.258045E-04
3.154544E+03	-7.308370E-04	-1.239372E-04
3.154742E+03	-7.197807E-04	-1.220534E-04
3.154940E+03	-7.080690E-04	-1.200588E-04
3.155336E+03	-6.960793E-04	-1.180088E-04
3.155535E+03	-6.834920E-04	-1.158665E-04
3.155733E+03	-6.700549E-04	-1.135804E-04
3.155931E+03	-6.560833E-04	-1.112041E-04
3.156129E+03	-6.411890E-04	-1.086717E-04
3.156327E+03	-6.259053E-04	-1.060737E-04
3.156525E+03	-6.094806E-04	-1.032827E-04
3.156723E+03	-5.934661E-04	-1.005616E-04
3.156921E+03	-5.760922E-04	-9.761059E-05
3.157317E+03	-5.584079E-04	-9.460056E-05
3.157515E+03	-5.401564E-04	-9.150193E-05
3.157713E+03	-5.208843E-04	-8.823088E-05
3.158109E+03	-5.014196E-04	-8.492154E-05
3.158307E+03	-4.811964E-04	-8.149061E-05
3.158505E+03	-4.603889E-04	-7.796121E-05
3.158703E+03	-4.389968E-04	-7.433335E-05
3.159299E+03	-4.170424E-04	-7.060054E-05
3.159497E+03	-3.944301E-04	-6.676771E-05
3.159695E+03	-3.712333E-04	-6.283648E-05
3.160091E+03	-3.473978E-04	-5.879346E-05
3.160288E+03	-3.229325E-04	-5.464903E-05
3.160487E+03	-2.978095E-04	-5.039386E-05
3.160684E+03	-2.720524E-04	-4.603205E-05
3.160882E+03	-2.456132E-04	-4.155545E-05
3.161278E+03	-2.187121E-04	-3.699867E-05
3.161476E+03	-1.910978E-04	-3.232493E-05
3.161674E+03	-1.625387E-04	-2.749205E-05
3.161872E+03	-1.334349E-04	-2.256775E-05
3.162070E+03	-1.037016E-04	-1.753770E-05
3.162466E+03	-7.300271E-05	-1.234420E-05
3.162664E+03	-4.149822E-05	-7.016525E-06
3.162862E+03	-9.395532E-06	-1.588482E-06
3.163060E+03	2.326052E-05	3.932320E-06
3.163259E+03	5.666941E-05	9.579583E-06
3.163457E+03	9.084269E-05	1.535523E-05
3.163655E+03	1.257800E-04	2.125917E-05
3.163853E+03	1.614862E-04	2.729221E-05
3.164051E+03	1.979667E-04	3.345521E-05
3.164249E+03	2.352234E-04	3.974849E-05
3.164447E+03	2.732618E-04	4.617292E-05
3.164645E+03	3.120771E-04	5.272769E-05
3.165042E+03	3.517180E-04	5.941663E-05
3.165240E+03	3.921236E-04	6.623762E-05
3.165438E+03	4.333112E-04	7.318971E-05
3.165636E+03	4.753539E-04	8.028522E-05
3.166032E+03	5.182078E-04	8.751029E-05
3.166230E+03	5.618664E-04	9.487606E-05
3.167022E+03	6.064329E-04	1.023716E-04
3.167617E+03	6.518097E-04	1.100076E-04
3.167815E+03	6.979269E-04	1.177823E-04
3.168013E+03	7.449003E-04	1.257004E-04
3.168409E+03	7.927498E-04	1.337553E-04
3.168607E+03	8.414145E-04	1.419558E-04
3.168805E+03	8.909116E-04	1.502956E-04
3.169003E+03	9.413387E-04	1.587909E-04
3.169201E+03	9.740371E-04	1.642947E-04
3.169597E+03	1.010688E-03	1.704518E-04
3.169795E+03	1.056218E-03	1.781173E-04
3.169993E+03	1.101583E-03	1.857539E-04
3.170587E+03	1.150925E-03	1.940316E-04
3.170786E+03	1.201586E-03	2.025577E-04
3.171183E+03	1.243025E-03	2.095125E-04
3.171381E+03	1.276709E-03	2.151742E-04
3.171975E+03	1.331553E-03	2.243682E-04
3.172173E+03	1.372432E-03	2.312394E-04
3.172569E+03	1.424133E-03	2.399152E-04
3.173163E+03	1.408175E-03	2.371746E-04
3.173558E+03	1.422725E-03	2.395903E-04
3.174152E+03	1.477603E-03	2.487770E-04
3.174350E+03	1.292316E-03	2.175651E-04
3.174548E+03	1.292096E-03	2.175120E-04
3.174945E+03	1.181984E-03	1.989465E-04
3.175935E+03	1.207708E-03	2.032016E-04
3.176529E+03	1.238307E-03	2.083040E-04
3.177322E+03	1.222076E-03	2.055130E-04
3.177520E+03	1.259816E-03	2.118441E-04
3.177718E+03	1.290294E-03	2.169531E-04
3.178114E+03	1.307143E-03	2.197536E-04
3.178510E+03	1.306776E-03	2.196596E-04
3.178709E+03	1.292116E-03	2.171793E-04
3.179105E+03	1.262694E-03	2.122027E-04
3.179699E+03	1.224843E-03	2.057961E-04
3.180689E+03	1.182499E-03	1.986082E-04
3.181283E+03	1.134562E-03	1.905145E-04
3.181481E+03	1.062955E-03	1.784773E-04
3.181877E+03	9.850246E-04	1.653677E-04
3.182075E+03	8.937200E-04	1.500282E-04
3.182471E+03	7.957840E-04	1.335680E-04
3.183067E+03	7.953066E-04	1.334581E-04
3.183661E+03	7.181083E-04	1.204769E-04
3.184651E+03	6.407113E-04	1.074522E-04
3.184849E+03	6.204671E-04	1.040494E-04
3.185245E+03	5.795076E-04	9.716621E-05
3.185442E+03	5.719884E-04	9.589839E-05
