#wls	flux	fluxerr
1.584409E+03	1.672011E-03	8.504179E-04
1.624020E+03	1.616968E-03	8.202527E-04
1.663630E+03	1.561988E-03	7.901672E-04
1.703240E+03	1.507017E-03	7.601415E-04
1.742850E+03	1.452144E-03	7.302280E-04
1.782461E+03	1.397319E-03	7.004092E-04
1.822071E+03	1.342732E-03	6.707885E-04
1.861681E+03	1.288427E-03	6.413957E-04
1.901291E+03	1.234351E-03	6.122121E-04
1.940902E+03	1.180481E-03	5.832350E-04
1.980512E+03	1.126826E-03	5.544770E-04
2.020122E+03	1.073493E-03	5.260009E-04
2.059732E+03	1.020267E-03	4.977102E-04
2.099342E+03	9.672339E-04	4.696571E-04
2.138953E+03	9.144076E-04	4.418590E-04
2.178563E+03	8.616804E-04	4.142751E-04
2.218173E+03	8.092964E-04	3.870341E-04
2.257783E+03	7.574357E-04	3.602322E-04
2.297394E+03	7.064917E-04	3.340651E-04
2.337004E+03	6.568666E-04	3.087280E-04
2.376614E+03	6.089398E-04	2.844009E-04
2.416224E+03	5.630700E-04	2.612492E-04
2.455835E+03	5.194139E-04	2.393400E-04
2.495445E+03	4.781335E-04	2.187397E-04
2.535055E+03	4.393022E-04	1.994715E-04
2.574665E+03	4.029000E-04	1.815141E-04
2.614276E+03	3.689041E-04	1.648436E-04
2.653886E+03	3.372487E-04	1.494165E-04
2.693496E+03	3.078737E-04	1.351909E-04
2.733106E+03	2.806931E-04	1.221134E-04
2.772716E+03	2.556221E-04	1.101309E-04
2.812327E+03	2.325704E-04	9.918804E-05
2.851937E+03	2.114736E-04	8.924037E-05
2.891547E+03	1.922531E-04	8.023739E-05
2.931157E+03	1.748272E-04	7.212718E-05
2.970768E+03	1.591315E-04	6.486514E-05
2.980670E+03	1.554703E-04	6.317687E-05
2.990573E+03	1.519102E-04	6.153729E-05
3.000475E+03	1.484495E-04	5.994547E-05
3.010378E+03	1.450901E-04	5.840182E-05
3.020280E+03	1.418301E-04	5.690534E-05
3.030183E+03	1.386678E-04	5.545504E-05
3.040086E+03	1.356018E-04	5.405003E-05
3.049988E+03	1.326303E-04	5.268933E-05
3.059891E+03	1.297519E-04	5.137207E-05
3.069793E+03	1.269676E-04	5.009841E-05
3.079696E+03	1.242759E-04	4.886738E-05
3.089598E+03	1.216726E-04	4.767710E-05
3.099501E+03	1.191612E-04	4.652860E-05
3.109403E+03	1.167354E-04	4.541914E-05
3.119306E+03	1.143962E-04	4.434883E-05
3.129209E+03	1.121443E-04	4.331763E-05
3.139111E+03	1.099761E-04	4.232387E-05
3.149014E+03	1.078923E-04	4.136754E-05
3.158916E+03	1.058896E-04	4.044701E-05
3.168819E+03	1.039688E-04	3.956233E-05
3.178721E+03	1.021283E-04	3.871264E-05
3.188624E+03	1.003654E-04	3.789655E-05
3.198526E+03	9.868066E-05	3.711401E-05
3.208429E+03	9.707290E-05	3.636429E-05
3.218332E+03	9.554116E-05	3.564673E-05
3.228234E+03	9.408442E-05	3.496064E-05
3.238137E+03	9.270163E-05	3.430535E-05
3.248039E+03	9.139203E-05	3.368027E-05
3.257942E+03	9.015327E-05	3.308425E-05
3.267844E+03	8.898751E-05	3.251779E-05
3.277747E+03	8.789120E-05	3.197929E-05
3.287650E+03	8.686514E-05	3.146873E-05
3.297552E+03	8.590748E-05	3.098516E-05
3.307455E+03	8.501896E-05	3.052855E-05
3.317357E+03	8.419922E-05	3.009845E-05
3.327260E+03	8.344532E-05	2.969351E-05
3.337162E+03	8.275958E-05	2.931427E-05
3.347065E+03	8.213927E-05	2.895944E-05
3.356967E+03	8.158558E-05	2.862913E-05
3.366870E+03	8.109836E-05	2.832299E-05
3.376773E+03	8.067533E-05	2.803989E-05
3.386675E+03	8.031892E-05	2.778038E-05
3.396578E+03	8.002701E-05	2.754338E-05
3.406480E+03	7.979986E-05	2.732868E-05
3.416383E+03	7.963780E-05	2.713606E-05
3.426285E+03	7.954012E-05	2.696494E-05
3.436188E+03	7.950834E-05	2.681552E-05
3.446090E+03	7.954089E-05	2.668690E-05
3.455993E+03	7.963836E-05	2.657896E-05
3.465896E+03	7.980031E-05	2.649120E-05
3.475798E+03	8.002843E-05	2.642382E-05
3.485701E+03	8.032150E-05	2.637606E-05
3.495603E+03	8.067930E-05	2.634750E-05
3.505506E+03	8.110361E-05	2.633834E-05
3.515408E+03	8.159228E-05	2.634751E-05
3.525311E+03	8.214629E-05	2.637497E-05
3.535213E+03	8.276644E-05	2.642057E-05
3.545116E+03	8.345164E-05	2.648360E-05
3.555019E+03	8.420279E-05	2.656394E-05
3.564921E+03	8.501882E-05	2.666087E-05
3.574824E+03	8.589954E-05	2.677393E-05
3.584726E+03	8.684568E-05	2.690296E-05
3.594629E+03	8.785511E-05	2.704688E-05
3.604531E+03	8.892935E-05	2.720578E-05
3.614434E+03	9.006703E-05	2.737882E-05
3.624337E+03	9.126755E-05	2.756542E-05
3.634239E+03	9.252934E-05	2.776469E-05
3.644142E+03	9.385252E-05	2.797628E-05
3.654044E+03	9.523615E-05	2.819950E-05
3.663947E+03	9.667815E-05	2.843334E-05
3.673849E+03	9.817822E-05	2.867731E-05
3.683752E+03	9.973489E-05	2.893060E-05
3.693654E+03	1.013456E-04	2.919208E-05
3.703557E+03	1.030116E-04	2.946169E-05
3.713460E+03	1.047288E-04	2.973793E-05
3.723362E+03	1.064961E-04	3.002013E-05
3.733265E+03	1.083134E-04	3.030785E-05
3.743167E+03	1.101760E-04	3.059947E-05
3.753070E+03	1.120846E-04	3.089482E-05
3.762972E+03	1.140355E-04	3.119251E-05
3.772875E+03	1.160279E-04	3.149206E-05
3.782777E+03	1.180600E-04	3.179266E-05
3.792680E+03	1.201291E-04	3.209323E-05
3.802583E+03	1.222332E-04	3.239301E-05
3.812485E+03	1.243718E-04	3.269151E-05
3.822388E+03	1.265418E-04	3.298772E-05
3.832290E+03	1.287429E-04	3.328125E-05
3.842193E+03	1.309724E-04	3.357116E-05
3.852095E+03	1.332302E-04	3.385716E-05
3.861998E+03	1.355152E-04	3.413875E-05
3.871900E+03	1.378264E-04	3.441546E-05
3.881803E+03	1.401647E-04	3.468726E-05
3.891706E+03	1.425286E-04	3.495353E-05
3.901608E+03	1.449195E-04	3.521442E-05
3.911511E+03	1.473393E-04	3.547012E-05
3.921413E+03	1.497865E-04	3.572003E-05
3.931316E+03	1.522665E-04	3.596520E-05
3.941218E+03	1.547803E-04	3.620556E-05
3.951121E+03	1.573304E-04	3.644142E-05
3.961024E+03	1.599216E-04	3.667356E-05
3.970926E+03	1.625562E-04	3.690219E-05
3.980829E+03	1.652418E-04	3.712866E-05
3.990731E+03	1.679835E-04	3.735370E-05
4.000634E+03	1.707875E-04	3.757824E-05
4.010536E+03	1.736593E-04	3.780295E-05
4.020439E+03	1.766092E-04	3.802956E-05
4.030341E+03	1.796458E-04	3.825931E-05
4.040244E+03	1.827786E-04	3.849353E-05
4.050147E+03	1.860181E-04	3.873363E-05
4.060049E+03	1.893755E-04	3.898118E-05
4.069952E+03	1.928652E-04	3.923815E-05
4.079854E+03	1.964991E-04	3.950597E-05
4.089757E+03	2.002938E-04	3.978687E-05
4.099659E+03	2.042658E-04	4.008285E-05
4.109562E+03	2.084329E-04	4.039605E-05
4.119464E+03	2.128146E-04	4.072873E-05
4.129367E+03	2.174324E-04	4.108331E-05
4.139270E+03	2.223110E-04	4.146270E-05
4.149172E+03	2.274724E-04	4.186892E-05
4.159075E+03	2.329459E-04	4.230521E-05
4.168977E+03	2.387638E-04	4.277503E-05
4.178880E+03	2.449554E-04	4.328094E-05
4.188782E+03	2.515588E-04	4.382680E-05
4.198685E+03	2.586119E-04	4.441602E-05
4.208587E+03	2.661606E-04	4.505298E-05
4.218490E+03	2.742508E-04	4.574163E-05
4.228393E+03	2.829332E-04	4.648626E-05
4.238295E+03	2.922715E-04	4.729268E-05
4.248198E+03	3.023232E-04	4.816518E-05
4.258100E+03	3.131659E-04	4.911055E-05
4.268003E+03	3.248778E-04	5.013493E-05
4.277905E+03	3.375493E-04	5.124553E-05
4.287808E+03	3.512788E-04	5.244986E-05
4.297711E+03	3.661826E-04	5.375706E-05
4.307613E+03	3.823876E-04	5.517668E-05
4.317516E+03	4.000310E-04	5.671846E-05
4.327418E+03	4.192771E-04	5.839453E-05
4.337321E+03	4.402877E-04	6.021510E-05
4.347223E+03	4.632431E-04	6.219125E-05
4.357126E+03	4.883208E-04	6.433195E-05
4.367028E+03	5.157091E-04	6.664582E-05
4.376931E+03	5.455862E-04	6.913841E-05
4.386834E+03	5.781543E-04	7.181656E-05
4.396736E+03	6.136107E-04	7.468456E-05
4.406639E+03	6.521621E-04	7.774605E-05
4.416541E+03	6.940448E-04	8.100617E-05
4.426444E+03	7.394916E-04	8.446753E-05
4.436346E+03	7.887541E-04	8.813275E-05
4.446249E+03	8.420968E-04	9.200363E-05
4.456151E+03	8.997949E-04	9.608086E-05
4.466054E+03	9.621256E-04	1.003629E-04
4.475957E+03	1.029392E-03	1.048489E-04
4.485859E+03	1.101893E-03	1.095345E-04
4.495762E+03	1.179919E-03	1.144131E-04
4.505664E+03	1.263760E-03	1.194752E-04
4.515567E+03	1.353715E-03	1.247106E-04
4.525469E+03	1.450069E-03	1.301057E-04
4.535372E+03	1.553055E-03	1.356412E-04
4.545274E+03	1.662941E-03	1.412995E-04
4.555177E+03	1.779890E-03	1.470533E-04
4.565080E+03	1.904079E-03	1.528770E-04
4.574982E+03	2.035631E-03	1.587410E-04
4.584885E+03	2.174593E-03	1.646111E-04
4.594787E+03	2.320971E-03	1.704523E-04
4.604690E+03	2.474652E-03	1.762244E-04
4.614592E+03	2.635547E-03	1.818927E-04
4.624495E+03	2.803371E-03	1.874145E-04
4.634398E+03	2.977860E-03	1.927552E-04
4.644300E+03	3.158627E-03	1.978795E-04
4.654203E+03	3.345256E-03	2.027589E-04
4.664105E+03	3.537212E-03	2.073673E-04
4.674008E+03	3.733989E-03	2.116913E-04
4.683910E+03	3.934981E-03	2.157229E-04
4.693813E+03	4.139677E-03	2.194715E-04
4.703715E+03	4.347424E-03	2.229512E-04
4.713618E+03	4.557705E-03	2.261965E-04
4.723521E+03	4.769990E-03	2.292538E-04
4.733423E+03	4.983739E-03	2.321816E-04
4.743326E+03	5.198533E-03	2.350567E-04
4.753228E+03	5.413896E-03	2.379644E-04
4.763131E+03	5.629432E-03	2.410040E-04
4.773033E+03	5.844782E-03	2.442847E-04
4.782936E+03	6.059604E-03	2.479221E-04
4.792838E+03	6.273511E-03	2.520335E-04
4.802741E+03	6.486309E-03	2.567432E-04
4.812644E+03	6.697493E-03	2.621590E-04
4.822546E+03	6.906856E-03	2.683871E-04
4.832449E+03	7.113976E-03	2.754851E-04
4.842351E+03	7.318576E-03	2.834899E-04
4.852254E+03	7.520161E-03	2.924112E-04
4.862156E+03	7.718461E-03	3.022491E-04
4.872059E+03	7.913137E-03	3.129842E-04
4.881961E+03	8.103769E-03	3.245785E-04
4.891864E+03	8.290111E-03	3.369882E-04
4.901767E+03	8.471775E-03	3.501532E-04
4.911669E+03	8.648558E-03	3.640129E-04
4.921572E+03	8.820011E-03	3.784901E-04
4.931474E+03	8.986037E-03	3.935183E-04
4.941377E+03	9.146206E-03	4.090138E-04
4.951279E+03	9.300358E-03	4.249035E-04
4.961182E+03	9.448188E-03	4.411071E-04
4.971085E+03	9.589618E-03	4.575553E-04
4.980987E+03	9.724544E-03	4.741790E-04
4.990890E+03	9.852749E-03	4.909045E-04
5.000792E+03	9.974384E-03	5.076764E-04
5.010695E+03	1.008953E-02	5.244381E-04
5.020597E+03	1.019830E-02	5.411373E-04
5.030500E+03	1.030060E-02	5.577142E-04
5.040402E+03	1.039678E-02	5.741350E-04
5.050305E+03	1.048699E-02	5.903592E-04
5.060208E+03	1.057109E-02	6.063316E-04
5.070110E+03	1.064955E-02	6.220361E-04
5.080013E+03	1.072235E-02	6.374298E-04
5.089915E+03	1.078964E-02	6.524844E-04
5.099818E+03	1.085161E-02	6.671746E-04
5.109720E+03	1.090830E-02	6.814697E-04
5.119623E+03	1.095998E-02	6.953556E-04
5.129525E+03	1.100667E-02	7.088050E-04
5.139428E+03	1.104852E-02	7.217993E-04
5.149331E+03	1.108562E-02	7.343209E-04
5.159233E+03	1.111785E-02	7.463376E-04
5.169136E+03	1.114551E-02	7.578478E-04
5.179038E+03	1.116854E-02	7.688278E-04
5.188941E+03	1.118686E-02	7.792537E-04
5.198843E+03	1.120050E-02	7.891095E-04
5.208746E+03	1.120948E-02	7.983801E-04
5.218648E+03	1.121365E-02	8.070415E-04
5.228551E+03	1.121313E-02	8.150872E-04
5.238454E+03	1.120766E-02	8.224865E-04
5.248356E+03	1.119734E-02	8.292339E-04
5.258259E+03	1.118192E-02	8.353005E-04
5.268161E+03	1.116149E-02	8.406841E-04
5.278064E+03	1.113594E-02	8.453673E-04
5.287966E+03	1.110528E-02	8.493431E-04
5.297869E+03	1.106954E-02	8.526081E-04
5.307772E+03	1.102858E-02	8.551444E-04
5.317674E+03	1.098258E-02	8.569628E-04
5.327577E+03	1.093157E-02	8.580619E-04
5.337479E+03	1.087571E-02	8.584527E-04
5.347382E+03	1.081501E-02	8.581336E-04
5.357284E+03	1.074992E-02	8.571417E-04
5.367187E+03	1.068044E-02	8.554770E-04
5.377089E+03	1.060691E-02	8.531699E-04
5.386992E+03	1.052975E-02	8.502560E-04
5.396895E+03	1.044887E-02	8.467334E-04
5.406797E+03	1.036425E-02	8.426048E-04
5.416700E+03	1.027593E-02	8.378790E-04
5.426602E+03	1.018491E-02	8.326431E-04
5.436505E+03	1.009209E-02	8.269783E-04
5.446407E+03	9.998187E-03	8.209474E-04
5.456310E+03	9.903906E-03	8.146143E-04
5.466212E+03	9.809949E-03	8.080422E-04
5.476115E+03	9.716816E-03	8.012783E-04
5.486018E+03	9.625389E-03	7.944014E-04
5.495920E+03	9.536132E-03	7.874564E-04
5.505823E+03	9.449597E-03	7.804951E-04
5.515725E+03	9.366481E-03	7.735810E-04
5.525628E+03	9.287173E-03	7.667524E-04
5.535530E+03	9.212200E-03	7.600580E-04
5.545433E+03	9.142043E-03	7.535424E-04
5.555335E+03	9.077047E-03	7.472381E-04
5.565238E+03	9.017580E-03	7.411793E-04
5.575141E+03	8.963872E-03	7.353874E-04
5.585043E+03	8.916095E-03	7.298787E-04
5.594946E+03	8.874456E-03	7.246714E-04
5.604848E+03	8.838913E-03	7.197626E-04
5.614751E+03	8.809747E-03	7.151750E-04
5.624653E+03	8.786717E-03	7.108881E-04
5.634556E+03	8.769906E-03	7.069070E-04
5.644459E+03	8.759160E-03	7.032172E-04
5.654361E+03	8.754198E-03	6.997935E-04
5.664264E+03	8.754967E-03	6.966289E-04
5.674166E+03	8.761114E-03	6.936921E-04
5.684069E+03	8.772438E-03	6.909641E-04
5.693971E+03	8.788629E-03	6.884170E-04
5.703874E+03	8.809441E-03	6.860287E-04
5.713776E+03	8.834447E-03	6.837629E-04
5.723679E+03	8.863486E-03	6.816050E-04
5.733582E+03	8.896019E-03	6.795113E-04
5.743484E+03	8.931795E-03	6.774619E-04
5.753387E+03	8.970583E-03	6.754385E-04
5.763289E+03	9.012056E-03	6.734169E-04
5.773192E+03	9.055808E-03	6.713682E-04
5.783094E+03	9.101649E-03	6.692808E-04
5.792997E+03	9.149405E-03	6.671454E-04
5.802899E+03	9.198623E-03	6.649338E-04
5.812802E+03	9.249169E-03	6.626426E-04
5.822705E+03	9.300934E-03	6.602716E-04
5.832607E+03	9.353511E-03	6.578009E-04
5.842510E+03	9.406924E-03	6.552428E-04
5.852412E+03	9.461007E-03	6.525981E-04
5.862315E+03	9.515390E-03	6.498551E-04
5.872217E+03	9.570031E-03	6.470270E-04
5.882120E+03	9.624892E-03	6.441290E-04
5.892022E+03	9.679608E-03	6.411564E-04
5.901925E+03	9.734151E-03	6.381292E-04
5.911828E+03	9.788364E-03	6.350613E-04
5.921730E+03	9.841980E-03	6.319616E-04
5.931633E+03	9.894838E-03	6.288487E-04
5.941535E+03	9.946754E-03	6.257418E-04
5.951438E+03	9.997415E-03	6.226548E-04
5.961340E+03	1.004673E-02	6.196183E-04
5.971243E+03	1.009436E-02	6.166490E-04
5.981146E+03	1.014005E-02	6.137726E-04
5.991048E+03	1.018330E-02	6.110012E-04
6.000951E+03	1.022408E-02	6.083775E-04
6.010853E+03	1.026173E-02	6.059083E-04
6.020756E+03	1.029619E-02	6.036377E-04
6.030658E+03	1.032680E-02	6.015744E-04
6.040561E+03	1.035350E-02	5.997635E-04
6.050463E+03	1.037562E-02	5.982141E-04
6.060366E+03	1.039305E-02	5.969650E-04
6.070269E+03	1.040554E-02	5.960471E-04
6.080171E+03	1.041280E-02	5.954845E-04
6.090074E+03	1.041458E-02	5.953007E-04
6.099976E+03	1.041095E-02	5.955324E-04
6.109879E+03	1.040190E-02	5.962074E-04
6.119781E+03	1.038747E-02	5.973470E-04
6.129684E+03	1.036770E-02	5.989418E-04
6.139586E+03	1.034288E-02	6.009793E-04
6.149489E+03	1.031316E-02	6.034330E-04
6.159392E+03	1.027830E-02	6.062500E-04
6.169294E+03	1.023861E-02	6.094050E-04
6.179197E+03	1.019405E-02	6.128505E-04
6.189099E+03	1.014477E-02	6.165467E-04
6.199002E+03	1.009126E-02	6.204727E-04
6.208904E+03	1.003377E-02	6.245938E-04
6.218807E+03	9.972736E-03	6.288862E-04
6.228709E+03	9.908477E-03	6.333207E-04
6.238612E+03	9.841325E-03	6.378697E-04
6.248515E+03	9.772029E-03	6.425351E-04
6.258417E+03	9.700651E-03	6.472767E-04
6.268320E+03	9.627785E-03	6.520920E-04
6.278222E+03	9.553606E-03	6.569535E-04
6.288125E+03	9.478663E-03	6.618623E-04
6.298027E+03	9.403095E-03	6.667944E-04
6.307930E+03	9.327271E-03	6.717449E-04
6.317833E+03	9.251545E-03	6.767112E-04
6.327735E+03	9.175846E-03	6.816627E-04
6.337638E+03	9.100613E-03	6.866087E-04
6.347540E+03	9.025985E-03	6.915392E-04
6.357443E+03	8.952100E-03	6.964465E-04
6.367345E+03	8.879187E-03	7.013325E-04
6.377248E+03	8.807470E-03	7.062010E-04
6.387150E+03	8.737153E-03	7.110572E-04
6.397053E+03	8.668285E-03	7.158952E-04
6.406956E+03	8.600919E-03	7.207115E-04
6.416858E+03	8.535208E-03	7.255123E-04
6.426761E+03	8.470917E-03	7.302719E-04
6.436663E+03	8.408320E-03	7.350095E-04
6.446566E+03	8.347419E-03	7.397221E-04
6.456468E+03	8.288213E-03	7.444074E-04
6.466371E+03	8.230696E-03	7.490632E-04
6.476273E+03	8.174854E-03	7.536875E-04
6.486176E+03	8.120796E-03	7.582903E-04
6.496079E+03	8.068383E-03	7.628592E-04
6.505981E+03	8.017718E-03	7.674047E-04
6.515884E+03	7.968780E-03	7.719266E-04
6.525786E+03	7.921414E-03	7.764116E-04
6.535689E+03	7.875717E-03	7.808711E-04
6.545591E+03	7.831669E-03	7.853058E-04
6.555494E+03	7.789240E-03	7.897151E-04
6.565396E+03	7.748396E-03	7.940989E-04
6.575299E+03	7.709108E-03	7.984568E-04
6.585202E+03	7.671342E-03	8.027889E-04
6.595104E+03	7.634943E-03	8.070819E-04
6.605007E+03	7.599996E-03	8.113479E-04
6.614909E+03	7.566342E-03	8.155730E-04
6.624812E+03	7.534071E-03	8.197705E-04
6.634714E+03	7.503146E-03	8.239395E-04
6.644617E+03	7.473398E-03	8.280649E-04
6.654520E+03	7.444786E-03	8.321451E-04
6.664422E+03	7.417396E-03	8.361930E-04
6.674325E+03	7.390932E-03	8.401783E-04
6.684227E+03	7.365608E-03	8.441282E-04
6.694130E+03	7.341248E-03	8.480257E-04
6.704032E+03	7.317682E-03	8.518538E-04
6.713935E+03	7.294998E-03	8.556255E-04
6.723837E+03	7.273154E-03	8.593386E-04
6.733740E+03	7.251974E-03	8.629749E-04
6.743643E+03	7.231550E-03	8.665479E-04
6.753545E+03	7.211715E-03	8.700400E-04
6.763448E+03	7.192556E-03	8.734642E-04
6.773350E+03	7.173777E-03	8.767870E-04
6.783253E+03	7.155609E-03	8.800385E-04
6.793155E+03	7.137750E-03	8.831842E-04
6.803058E+03	7.120443E-03	8.862561E-04
6.812960E+03	7.103389E-03	8.892193E-04
6.822863E+03	7.086700E-03	8.920898E-04
6.832766E+03	7.070218E-03	8.948501E-04
6.842668E+03	7.054056E-03	8.975164E-04
6.852571E+03	7.038062E-03	9.000713E-04
6.862473E+03	7.022349E-03	9.025318E-04
6.872376E+03	7.006640E-03	9.048641E-04
6.882278E+03	6.991191E-03	9.071036E-04
6.892181E+03	6.975853E-03	9.092329E-04
6.902083E+03	6.960486E-03	9.112360E-04
6.911986E+03	6.945351E-03	9.131493E-04
6.921889E+03	6.930171E-03	9.149387E-04
6.931791E+03	6.915076E-03	9.166236E-04
6.941694E+03	6.899932E-03	9.181884E-04
6.951596E+03	6.884868E-03	9.196528E-04
6.961499E+03	6.869744E-03	9.210002E-04
6.971401E+03	6.854705E-03	9.222526E-04
6.981304E+03	6.839479E-03	9.233760E-04
6.991207E+03	6.824333E-03	9.244087E-04
7.001109E+03	6.809003E-03	9.253174E-04
7.011012E+03	6.793767E-03	9.261426E-04
7.020914E+03	6.778355E-03	9.268501E-04
7.030817E+03	6.762906E-03	9.274615E-04
7.040719E+03	6.747293E-03	9.279619E-04
7.050622E+03	6.731659E-03	9.283737E-04
7.060524E+03	6.716007E-03	9.287004E-04
7.070427E+03	6.700073E-03	9.289079E-04
7.080330E+03	6.684130E-03	9.290369E-04
7.090232E+03	6.668185E-03	9.290914E-04
7.100135E+03	6.651968E-03	9.290364E-04
7.110037E+03	6.635614E-03	9.288936E-04
7.119940E+03	6.619126E-03	9.286666E-04
7.129842E+03	6.602362E-03	9.283380E-04
7.139745E+03	6.585581E-03	9.279472E-04
7.149647E+03	6.568512E-03	9.274588E-04
7.159550E+03	6.551137E-03	9.268734E-04
7.169453E+03	6.533572E-03	9.262100E-04
7.179355E+03	6.515525E-03	9.254303E-04
7.189258E+03	6.497241E-03	9.245717E-04
7.199160E+03	6.478554E-03	9.236132E-04
7.209063E+03	6.459426E-03	9.225524E-04
7.218965E+03	6.439690E-03	9.213680E-04
7.228868E+03	6.419295E-03	9.200554E-04
7.238770E+03	6.398328E-03	9.186296E-04
7.248673E+03	6.376607E-03	9.170667E-04
7.258576E+03	6.353942E-03	9.153420E-04
7.268478E+03	6.330279E-03	9.134498E-04
7.278381E+03	6.305559E-03	9.113838E-04
7.288283E+03	6.279730E-03	9.091386E-04
7.298186E+03	6.252596E-03	9.066876E-04
7.308088E+03	6.223974E-03	9.040061E-04
7.317991E+03	6.193814E-03	9.010884E-04
7.327894E+03	6.161810E-03	8.978912E-04
7.337796E+03	6.128178E-03	8.944467E-04
7.347699E+03	6.092504E-03	8.906914E-04
7.357601E+03	6.054766E-03	8.866178E-04
7.367504E+03	6.015083E-03	8.822392E-04
7.377406E+03	5.973589E-03	8.775715E-04
7.387309E+03	5.930163E-03	8.725926E-04
7.397211E+03	5.885095E-03	8.673415E-04
7.407114E+03	5.838412E-03	8.618183E-04
7.417017E+03	5.790412E-03	8.560639E-04
7.426919E+03	5.741026E-03	8.500647E-04
7.436822E+03	5.690550E-03	8.438614E-04
7.446724E+03	5.639044E-03	8.374602E-04
7.456627E+03	5.586561E-03	8.308662E-04
7.466529E+03	5.533280E-03	8.241035E-04
7.476432E+03	5.479141E-03	8.171611E-04
7.486334E+03	5.424456E-03	8.100832E-04
7.496237E+03	5.369171E-03	8.028601E-04
7.506140E+03	5.313362E-03	7.955013E-04
7.516042E+03	5.257233E-03	7.880359E-04
7.525945E+03	5.200862E-03	7.804743E-04
7.535847E+03	5.144335E-03	7.728283E-04
7.545750E+03	5.087613E-03	7.650912E-04
7.555652E+03	5.031011E-03	7.573093E-04
7.565555E+03	4.974374E-03	7.494588E-04
7.575457E+03	4.918000E-03	7.415841E-04
7.585360E+03	4.861734E-03	7.336615E-04
7.595263E+03	4.805857E-03	7.257334E-04
7.605165E+03	4.750199E-03	7.177737E-04
7.615068E+03	4.695034E-03	7.098241E-04
7.624970E+03	4.640295E-03	7.018744E-04
7.634873E+03	4.586013E-03	6.939298E-04
7.644775E+03	4.532117E-03	6.859796E-04
7.654678E+03	4.478846E-03	6.780604E-04
7.664581E+03	4.426106E-03	6.701586E-04
7.674483E+03	4.373922E-03	6.622784E-04
7.684386E+03	4.322194E-03	6.544052E-04
