#wls	flux	fluxerr
1.584409E+03	2.875813E-06	2.605889E-03
1.624020E+03	-2.017617E-05	2.622831E-03
1.663630E+03	-4.594765E-05	2.627539E-03
1.703240E+03	-7.453977E-05	2.619116E-03
1.742850E+03	-1.060107E-04	2.595903E-03
1.782461E+03	-1.258950E-04	2.537251E-03
1.822071E+03	-1.470828E-04	2.462037E-03
1.861681E+03	-1.695199E-04	2.369750E-03
1.901291E+03	-1.931110E-04	2.259805E-03
1.940902E+03	-1.980620E-04	2.113002E-03
1.980512E+03	-2.025447E-04	1.949436E-03
2.020122E+03	-2.064792E-04	1.769725E-03
2.059732E+03	-2.097701E-04	1.574737E-03
2.099342E+03	-1.881435E-04	1.351210E-03
2.138953E+03	-1.653545E-04	1.118253E-03
2.178563E+03	-1.416096E-04	8.783052E-04
2.218173E+03	-1.171855E-04	6.344781E-04
2.257783E+03	-6.640915E-05	5.485598E-04
2.297394E+03	-1.729804E-05	4.627622E-04
2.337004E+03	2.937429E-05	3.785848E-04
2.376614E+03	7.296492E-05	2.972919E-04
2.416224E+03	1.348761E-04	4.704102E-04
2.455835E+03	1.897083E-04	6.230343E-04
2.495445E+03	2.371216E-04	7.542434E-04
2.535055E+03	2.769133E-04	8.635031E-04
2.574665E+03	3.220688E-04	9.209697E-04
2.614276E+03	3.564055E-04	9.585637E-04
2.653886E+03	3.804683E-04	9.775361E-04
2.693496E+03	3.949227E-04	9.793179E-04
2.733106E+03	4.055278E-04	9.398917E-04
2.772716E+03	4.059102E-04	8.906334E-04
2.812327E+03	3.976446E-04	8.338123E-04
2.851937E+03	3.823558E-04	7.717015E-04
2.891547E+03	3.612948E-04	6.893659E-04
2.931157E+03	3.354015E-04	6.096799E-04
2.970768E+03	3.065285E-04	5.341160E-04
2.980670E+03	2.990353E-04	5.160026E-04
2.990573E+03	2.911803E-04	4.963213E-04
3.000475E+03	2.832632E-04	4.771151E-04
3.010378E+03	2.753184E-04	4.584092E-04
3.020280E+03	2.673599E-04	4.401954E-04
3.030183E+03	2.592295E-04	4.216691E-04
3.040086E+03	2.511197E-04	4.036959E-04
3.049988E+03	2.430589E-04	3.862895E-04
3.059891E+03	2.350531E-04	3.694287E-04
3.069793E+03	2.269336E-04	3.524175E-04
3.079696E+03	2.189031E-04	3.360018E-04
3.089598E+03	2.109793E-04	3.201786E-04
3.099501E+03	2.031745E-04	3.049370E-04
3.109403E+03	1.952978E-04	2.896532E-04
3.119306E+03	1.875650E-04	2.749794E-04
3.129209E+03	1.799894E-04	2.609066E-04
3.139111E+03	1.725759E-04	2.474148E-04
3.149014E+03	1.651300E-04	2.339635E-04
3.158916E+03	1.578670E-04	2.211102E-04
3.168819E+03	1.507920E-04	2.088361E-04
3.178721E+03	1.439115E-04	1.971254E-04
3.188624E+03	1.370198E-04	1.854962E-04
3.198526E+03	1.303353E-04	1.744333E-04
3.208429E+03	1.238521E-04	1.639054E-04
3.218332E+03	1.175768E-04	1.538996E-04
3.228234E+03	1.113060E-04	1.439988E-04
3.238137E+03	1.052453E-04	1.346082E-04
3.248039E+03	9.939250E-05	1.257045E-04
3.257942E+03	9.374293E-05	1.172632E-04
3.267844E+03	8.810487E-05	1.089330E-04
3.277747E+03	8.266980E-05	1.010509E-04
3.287650E+03	7.743327E-05	9.359425E-05
3.297552E+03	7.239250E-05	8.654357E-05
3.307455E+03	6.735723E-05	7.959140E-05
3.317357E+03	6.251184E-05	7.302584E-05
3.327260E+03	5.785039E-05	6.682543E-05
3.337162E+03	5.336739E-05	6.097036E-05
3.347065E+03	4.888135E-05	5.519805E-05
3.356967E+03	4.456658E-05	4.975238E-05
3.366870E+03	4.041688E-05	4.461440E-05
3.376773E+03	3.642460E-05	3.976456E-05
3.386675E+03	3.241889E-05	3.498058E-05
3.396578E+03	2.856304E-05	3.046788E-05
3.406480E+03	2.485045E-05	2.620958E-05
3.416383E+03	2.127410E-05	2.218919E-05
3.426285E+03	1.767224E-05	1.821765E-05
3.436188E+03	1.419947E-05	1.446972E-05
3.446090E+03	1.084889E-05	1.093037E-05
3.455993E+03	7.614072E-06	7.585789E-06
3.465896E+03	4.343533E-06	4.276745E-06
3.475798E+03	1.182502E-06	1.150882E-06
3.485701E+03	-1.875346E-06	-1.804427E-06
3.495603E+03	-4.836013E-06	-4.600900E-06
3.505506E+03	-7.834961E-06	-7.366272E-06
3.515408E+03	-1.074169E-05	-9.981754E-06
3.525311E+03	-1.356177E-05	-1.245778E-05
3.535213E+03	-1.630016E-05	-1.480372E-05
3.545116E+03	-1.907028E-05	-1.711408E-05
3.555019E+03	-2.176268E-05	-1.930147E-05
3.564921E+03	-2.438184E-05	-2.137415E-05
3.574824E+03	-2.693215E-05	-2.333988E-05
3.584726E+03	-2.950539E-05	-2.526396E-05
3.594629E+03	-3.201165E-05	-2.708577E-05
3.604531E+03	-3.445469E-05	-2.881199E-05
3.614434E+03	-3.683733E-05	-3.044826E-05
3.624337E+03	-3.923102E-05	-3.203498E-05
3.634239E+03	-4.156471E-05	-3.353488E-05
3.644142E+03	-4.384128E-05	-3.495328E-05
3.654044E+03	-4.606388E-05	-3.629544E-05
3.663947E+03	-4.828217E-05	-3.757851E-05
3.673849E+03	-5.044479E-05	-3.878676E-05
3.683752E+03	-5.255482E-05	-3.992510E-05
3.693654E+03	-5.461378E-05	-4.099708E-05
3.703557E+03	-5.665125E-05	-4.200051E-05
3.713460E+03	-5.863591E-05	-4.293910E-05
3.723362E+03	-6.056842E-05	-4.381555E-05
3.733265E+03	-6.245020E-05	-4.463301E-05
3.743167E+03	-6.429047E-05	-4.537211E-05
3.753070E+03	-6.607603E-05	-4.605244E-05
3.762972E+03	-6.780753E-05	-4.667650E-05
3.772875E+03	-6.948552E-05	-4.724660E-05
3.782777E+03	-7.109622E-05	-4.772660E-05
3.792680E+03	-7.264741E-05	-4.815203E-05
3.802583E+03	-7.413829E-05	-4.852434E-05
3.812485E+03	-7.556882E-05	-4.884536E-05
3.822388E+03	-7.690252E-05	-4.906461E-05
3.832290E+03	-7.816657E-05	-4.923064E-05
3.842193E+03	-7.935963E-05	-4.934456E-05
3.852095E+03	-8.048123E-05	-4.940799E-05
3.861998E+03	-8.146877E-05	-4.935621E-05
3.871900E+03	-8.237156E-05	-4.925066E-05
3.881803E+03	-8.318799E-05	-4.909244E-05
3.891706E+03	-8.391557E-05	-4.888214E-05
3.901608E+03	-8.446301E-05	-4.854162E-05
3.911511E+03	-8.490471E-05	-4.814509E-05
3.921413E+03	-8.523688E-05	-4.769271E-05
3.931316E+03	-8.545464E-05	-4.718406E-05
3.941218E+03	-8.543744E-05	-4.652974E-05
3.951121E+03	-8.528568E-05	-4.581525E-05
3.961024E+03	-8.499233E-05	-4.503948E-05
3.970926E+03	-8.455053E-05	-4.420150E-05
3.980829E+03	-8.380996E-05	-4.320281E-05
3.990731E+03	-8.289562E-05	-4.213749E-05
4.000634E+03	-8.180079E-05	-4.100527E-05
4.010536E+03	-8.051581E-05	-3.980449E-05
4.020439E+03	-7.885679E-05	-3.842807E-05
4.030341E+03	-7.697902E-05	-3.697953E-05
4.040244E+03	-7.487313E-05	-3.545806E-05
4.050147E+03	-7.253091E-05	-3.386350E-05
4.060049E+03	-6.972937E-05	-3.208006E-05
4.069952E+03	-6.665910E-05	-3.022084E-05
4.079854E+03	-6.330889E-05	-2.828497E-05
4.089757E+03	-5.966914E-05	-2.627242E-05
4.099659E+03	-5.548085E-05	-2.406276E-05
4.109562E+03	-5.096812E-05	-2.177537E-05
4.119464E+03	-4.612110E-05	-1.941077E-05
4.129367E+03	-4.092953E-05	-1.696943E-05
4.139270E+03	-3.509495E-05	-1.432705E-05
4.149172E+03	-2.888088E-05	-1.160947E-05
4.159075E+03	-2.227689E-05	-8.817663E-06
4.168977E+03	-1.527379E-05	-5.953176E-06
4.178880E+03	-7.534280E-06	-2.890307E-06
4.188782E+03	6.382299E-07	2.409808E-07
4.198685E+03	9.252364E-06	3.438453E-06
4.208587E+03	1.831594E-05	6.699551E-06
4.218490E+03	2.820374E-05	1.014917E-05
4.228393E+03	3.857035E-05	1.365469E-05
4.238295E+03	4.942127E-05	1.721248E-05
4.248198E+03	6.076082E-05	2.081851E-05
4.258100E+03	7.299870E-05	2.459485E-05
4.268003E+03	8.574678E-05	2.840804E-05
4.277905E+03	9.900435E-05	3.225246E-05
4.287808E+03	1.127731E-04	3.612340E-05
4.297711E+03	1.274898E-04	4.013716E-05
4.307613E+03	1.427255E-04	4.416178E-05
4.317516E+03	1.584740E-04	4.819041E-05
4.327418E+03	1.747304E-04	5.221699E-05
4.337321E+03	1.919600E-04	5.635325E-05
4.347223E+03	2.096957E-04	6.047015E-05
4.357126E+03	2.279301E-04	6.456154E-05
4.367028E+03	2.466583E-04	6.862218E-05
4.376931E+03	2.663707E-04	7.275961E-05
4.386834E+03	2.865727E-04	7.685024E-05
4.396736E+03	3.072596E-04	8.088956E-05
4.406639E+03	3.284216E-04	8.487188E-05
4.416541E+03	3.505504E-04	8.889678E-05
4.426444E+03	3.731443E-04	9.284955E-05
4.436346E+03	3.961951E-04	9.672575E-05
4.446249E+03	4.196938E-04	1.005208E-04
4.456151E+03	4.440409E-04	1.043093E-04
4.466054E+03	4.688120E-04	1.080020E-04
4.475957E+03	4.939965E-04	1.115949E-04
4.485859E+03	5.195745E-04	1.150822E-04
4.495762E+03	5.458337E-04	1.185182E-04
4.505664E+03	5.724489E-04	1.218357E-04
4.515567E+03	5.994066E-04	1.250315E-04
4.525469E+03	6.266877E-04	1.281013E-04
4.535372E+03	6.544305E-04	1.310832E-04
4.545274E+03	6.824454E-04	1.339290E-04
4.555177E+03	7.107026E-04	1.366335E-04
4.565080E+03	7.391962E-04	1.391967E-04
4.574982E+03	7.678834E-04	1.416488E-04
4.584885E+03	7.967185E-04	1.439484E-04
4.594787E+03	8.256854E-04	1.460949E-04
4.604690E+03	8.547614E-04	1.480862E-04
4.614592E+03	8.837546E-04	1.499671E-04
4.624495E+03	9.127676E-04	1.516882E-04
4.634398E+03	9.417653E-04	1.532470E-04
4.644300E+03	9.707106E-04	1.546407E-04
4.654203E+03	9.993141E-04	1.559535E-04
4.664105E+03	1.027764E-03	1.571008E-04
4.674008E+03	1.056028E-03	1.580819E-04
4.683910E+03	1.084043E-03	1.588921E-04
4.693813E+03	1.111420E-03	1.596704E-04
4.703715E+03	1.138471E-03	1.602861E-04
4.713618E+03	1.165125E-03	1.607345E-04
4.723521E+03	1.191364E-03	1.610188E-04
4.733423E+03	1.216696E-03	1.613457E-04
4.743326E+03	1.241484E-03	1.615132E-04
4.753228E+03	1.265709E-03	1.615243E-04
4.763131E+03	1.289285E-03	1.613744E-04
4.773033E+03	1.311712E-03	1.613599E-04
4.782936E+03	1.333376E-03	1.611927E-04
4.792838E+03	1.354248E-03	1.608753E-04
4.802741E+03	1.374247E-03	1.604041E-04
4.812644E+03	1.392830E-03	1.601439E-04
4.822546E+03	1.410425E-03	1.597372E-04
4.832449E+03	1.426984E-03	1.591845E-04
4.842351E+03	1.442449E-03	1.584853E-04
4.852254E+03	1.456231E-03	1.580217E-04
4.862156E+03	1.468801E-03	1.574148E-04
4.872059E+03	1.480096E-03	1.566632E-04
4.881961E+03	1.490070E-03	1.557671E-04
4.891864E+03	1.498179E-03	1.551127E-04
4.901767E+03	1.504885E-03	1.543158E-04
4.911669E+03	1.510099E-03	1.533716E-04
4.921572E+03	1.513776E-03	1.522799E-04
4.931474E+03	1.515535E-03	1.514258E-04
4.941377E+03	1.515692E-03	1.504219E-04
4.951279E+03	1.514185E-03	1.492654E-04
4.961182E+03	1.510970E-03	1.479550E-04
4.971085E+03	1.505870E-03	1.468670E-04
4.980987E+03	1.499014E-03	1.456188E-04
4.990890E+03	1.490325E-03	1.442049E-04
5.000792E+03	1.479756E-03	1.426226E-04
5.010695E+03	1.467470E-03	1.412454E-04
5.020597E+03	1.453278E-03	1.396902E-04
5.030500E+03	1.437138E-03	1.379537E-04
5.040402E+03	1.418996E-03	1.360313E-04
5.050305E+03	1.399442E-03	1.342988E-04
5.060208E+03	1.377909E-03	1.323707E-04
5.070110E+03	1.354375E-03	1.302445E-04
5.080013E+03	1.328769E-03	1.279129E-04
5.089915E+03	1.302230E-03	1.257651E-04
5.099818E+03	1.273725E-03	1.234066E-04
5.109720E+03	1.243230E-03	1.208333E-04
5.119623E+03	1.210708E-03	1.180402E-04
5.129525E+03	1.177952E-03	1.154430E-04
5.139428E+03	1.143343E-03	1.126248E-04
5.149331E+03	1.106894E-03	1.095849E-04
5.159233E+03	1.068591E-03	1.063196E-04
5.169136E+03	1.030980E-03	1.032836E-04
5.179038E+03	9.917628E-04	1.000285E-04
5.188941E+03	9.509702E-04	9.655479E-05
5.198843E+03	9.086113E-04	9.286105E-05
5.208746E+03	8.680340E-04	8.943619E-05
5.218648E+03	8.261767E-04	8.580562E-05
5.228551E+03	7.830658E-04	8.196976E-05
5.238454E+03	7.387517E-04	7.793173E-05
5.248356E+03	6.973907E-04	7.422294E-05
5.258259E+03	6.551230E-04	7.033482E-05
5.268161E+03	6.120065E-04	6.627201E-05
5.278064E+03	5.681122E-04	6.204078E-05
5.285209E+03	-1.133973E-04	-1.246347E-05
5.285407E+03	-1.090584E-04	-1.198871E-05
5.285605E+03	-1.047424E-04	-1.151629E-05
5.285803E+03	-1.004497E-04	-1.104628E-05
5.286001E+03	-9.618279E-05	-1.057894E-05
5.286199E+03	-9.194133E-05	-1.011424E-05
5.286397E+03	-8.772589E-05	-9.652238E-06
5.286595E+03	-8.353307E-05	-9.192557E-06
5.286992E+03	-7.538127E-05	-8.298457E-06
5.287190E+03	-7.125842E-05	-7.845993E-06
5.287586E+03	-6.323333E-05	-6.964876E-06
5.288576E+03	-4.365438E-05	-4.812642E-06
5.288774E+03	-3.971505E-05	-4.379139E-06
5.288973E+03	-3.579374E-05	-3.947467E-06
5.289369E+03	-2.809680E-05	-3.099731E-06
5.289567E+03	-2.425337E-05	-2.676191E-06
5.289765E+03	-2.043494E-05	-2.255258E-06
5.290755E+03	-1.748697E-06	-1.931644E-07
5.290953E+03	1.940781E-06	2.144208E-07
5.291349E+03	9.253525E-06	1.022712E-06
5.291943E+03	2.009997E-05	2.222675E-06
5.292340E+03	2.726886E-05	3.016506E-06
5.293331E+03	4.495590E-05	4.977530E-06
5.294123E+03	5.881217E-05	6.516374E-06
5.294321E+03	6.212129E-05	6.884262E-06
5.294519E+03	6.541383E-05	7.250444E-06
5.294717E+03	6.867708E-05	7.613511E-06
5.294915E+03	7.190460E-05	7.972745E-06
5.295311E+03	7.847734E-05	8.704662E-06
5.295707E+03	8.498381E-05	9.429748E-06
5.295905E+03	8.809467E-05	9.776686E-06
5.296103E+03	9.117547E-05	1.012041E-05
5.296697E+03	1.007730E-04	1.119178E-05
5.297094E+03	1.070121E-04	1.188897E-05
5.297490E+03	1.131830E-04	1.257909E-05
5.298282E+03	1.256013E-04	1.396930E-05
5.298678E+03	1.315333E-04	1.463434E-05
5.299272E+03	1.405171E-04	1.564234E-05
5.300064E+03	1.523971E-04	1.697705E-05
5.300460E+03	1.580295E-04	1.761085E-05
5.300659E+03	1.605915E-04	1.789959E-05
5.301055E+03	1.661034E-04	1.852063E-05
5.301253E+03	1.685875E-04	1.880100E-05
5.301451E+03	1.710524E-04	1.907933E-05
5.301649E+03	1.734792E-04	1.935351E-05
5.302045E+03	1.787762E-04	1.995166E-05
5.302441E+03	1.840037E-04	2.054247E-05
5.302640E+03	1.863324E-04	2.080622E-05
5.302838E+03	1.886078E-04	2.106411E-05
5.303036E+03	1.908623E-04	2.131975E-05
5.303234E+03	1.930695E-04	2.157018E-05
5.303828E+03	2.007897E-04	2.244486E-05
5.304224E+03	2.056528E-04	2.299678E-05
5.304422E+03	2.077154E-04	2.323163E-05
5.304621E+03	2.097560E-04	2.346410E-05
5.304819E+03	2.117854E-04	2.369539E-05
5.305017E+03	2.137703E-04	2.392180E-05
5.305611E+03	2.209916E-04	2.474332E-05
5.305809E+03	2.228840E-04	2.495971E-05
5.306007E+03	2.247429E-04	2.517242E-05
5.306403E+03	2.291304E-04	2.567313E-05
5.306601E+03	2.309227E-04	2.587864E-05
5.306799E+03	2.326755E-04	2.607977E-05
5.306997E+03	2.343870E-04	2.627636E-05
5.307195E+03	2.360748E-04	2.647038E-05
5.308186E+03	2.476194E-04	2.779001E-05
5.308583E+03	2.516087E-04	2.824794E-05
5.309176E+03	2.579054E-04	2.897055E-05
5.309374E+03	2.593578E-04	2.913897E-05
5.311156E+03	2.793134E-04	3.143219E-05
5.311354E+03	2.805737E-04	3.157973E-05
5.311552E+03	2.817977E-04	3.172323E-05
5.311750E+03	2.829985E-04	3.186419E-05
5.311948E+03	2.841689E-04	3.200176E-05
5.312146E+03	2.853091E-04	3.213599E-05
5.312345E+03	2.864234E-04	3.226735E-05
5.312741E+03	2.896628E-04	3.264412E-05
5.313534E+03	2.971006E-04	3.350666E-05
5.314128E+03	3.022338E-04	3.410409E-05
5.314326E+03	3.031301E-04	3.421143E-05
5.314524E+03	3.040005E-04	3.431589E-05
5.314920E+03	3.068876E-04	3.465436E-05
5.315316E+03	3.096997E-04	3.498460E-05
5.316307E+03	3.183289E-04	3.599196E-05
5.316703E+03	3.209282E-04	3.629904E-05
5.317891E+03	3.310413E-04	3.748367E-05
5.318287E+03	3.334125E-04	3.776584E-05
5.318485E+03	3.338921E-04	3.782702E-05
5.318684E+03	3.343565E-04	3.788655E-05
5.319674E+03	3.420107E-04	3.878908E-05
5.321456E+03	3.562037E-04	4.046471E-05
5.321654E+03	3.563895E-04	4.049314E-05
5.321852E+03	3.565606E-04	4.051995E-05
5.322446E+03	3.600638E-04	4.094037E-05
5.324032E+03	3.713605E-04	4.228620E-05
5.324230E+03	3.713348E-04	4.229093E-05
5.324428E+03	3.713231E-04	4.229729E-05
5.324824E+03	3.728148E-04	4.248264E-05
5.325814E+03	3.786659E-04	4.318854E-05
5.326012E+03	3.784759E-04	4.317470E-05
5.326210E+03	3.783075E-04	4.316332E-05
5.326408E+03	3.780686E-04	4.314390E-05
5.326606E+03	3.778153E-04	4.312282E-05
5.326804E+03	3.775420E-04	4.309944E-05
5.327795E+03	3.827855E-04	4.373776E-05
5.327993E+03	3.824546E-04	4.370788E-05
5.328587E+03	3.847744E-04	4.399693E-05
5.329380E+03	3.882372E-04	4.442513E-05
5.329578E+03	3.877268E-04	4.437479E-05
5.331955E+03	4.008032E-04	4.597145E-05
5.332153E+03	4.001005E-04	4.589917E-05
5.333142E+03	4.039766E-04	4.638577E-05
5.333340E+03	4.032072E-04	4.630583E-05
5.333538E+03	4.023731E-04	4.621843E-05
5.333737E+03	4.015161E-04	4.612841E-05
5.333934E+03	4.006566E-04	4.603796E-05
5.334727E+03	4.029948E-04	4.634033E-05
5.335321E+03	4.041745E-04	4.650127E-05
5.335519E+03	4.031996E-04	4.639753E-05
5.335718E+03	4.021797E-04	4.628854E-05
5.335916E+03	4.011297E-04	4.617608E-05
5.336114E+03	4.000835E-04	4.606401E-05
5.337302E+03	4.038528E-04	4.654862E-05
5.337500E+03	4.027550E-04	4.643049E-05
5.337698E+03	4.016023E-04	4.630602E-05
5.337896E+03	4.004372E-04	4.618006E-05
5.339878E+03	4.071628E-04	4.704094E-05
5.340076E+03	4.058289E-04	4.689531E-05
5.340274E+03	4.044768E-04	4.674755E-05
5.340472E+03	4.031131E-04	4.659839E-05
5.340868E+03	4.025423E-04	4.654929E-05
5.341660E+03	4.034657E-04	4.668989E-05
5.342452E+03	4.042878E-04	4.681897E-05
5.342650E+03	4.028504E-04	4.666097E-05
5.343244E+03	4.028022E-04	4.668073E-05
5.343443E+03	4.012346E-04	4.650748E-05
5.343641E+03	3.996868E-04	4.633647E-05
5.344235E+03	3.994839E-04	4.633812E-05
5.344433E+03	3.978885E-04	4.616143E-05
5.344631E+03	3.962490E-04	4.597953E-05
5.344829E+03	3.946488E-04	4.580216E-05
5.345424E+03	3.942703E-04	4.578313E-05
5.345621E+03	3.925786E-04	4.559490E-05
5.345819E+03	3.908486E-04	4.540219E-05
5.346017E+03	3.891389E-04	4.521177E-05
5.346215E+03	3.874386E-04	4.502238E-05
5.346611E+03	3.863067E-04	4.490710E-05
5.347007E+03	3.851561E-04	4.478955E-05
5.347800E+03	3.850298E-04	4.480730E-05
5.347998E+03	3.832365E-04	4.460669E-05
5.348196E+03	3.813794E-04	4.439856E-05
5.348790E+03	3.805657E-04	4.432787E-05
5.348988E+03	3.787214E-04	4.412103E-05
5.349186E+03	3.768558E-04	4.391162E-05
5.349384E+03	3.749574E-04	4.369833E-05
5.349582E+03	3.730367E-04	4.348234E-05
5.349780E+03	3.711078E-04	4.326533E-05
5.350573E+03	3.705143E-04	4.322744E-05
5.350771E+03	3.685167E-04	4.300216E-05
5.351168E+03	3.669921E-04	4.283972E-05
5.351366E+03	3.649999E-04	4.261488E-05
5.351960E+03	3.637741E-04	4.249480E-05
5.352158E+03	3.617335E-04	4.226406E-05
5.352356E+03	3.596721E-04	4.203080E-05
5.352554E+03	3.576485E-04	4.180188E-05
5.352752E+03	3.555949E-04	4.156938E-05
5.354336E+03	3.559595E-04	4.167215E-05
5.354534E+03	3.538620E-04	4.143408E-05
5.355129E+03	3.523481E-04	4.127916E-05
5.355327E+03	3.502037E-04	4.103535E-05
5.355525E+03	3.480819E-04	4.079408E-05
5.355724E+03	3.458982E-04	4.054551E-05
5.356516E+03	3.445670E-04	4.041864E-05
5.356714E+03	3.423699E-04	4.016815E-05
5.356911E+03	3.401458E-04	3.991438E-05
5.357110E+03	3.378840E-04	3.965615E-05
5.357308E+03	3.356447E-04	3.940044E-05
5.357506E+03	3.334298E-04	3.914750E-05
5.358495E+03	3.321311E-04	3.903016E-05
5.358693E+03	3.298733E-04	3.877181E-05
5.358892E+03	3.275584E-04	3.850667E-05
5.359090E+03	3.252578E-04	3.824312E-05
5.359486E+03	3.232314E-04	3.801855E-05
5.359684E+03	3.209742E-04	3.775985E-05
5.359882E+03	3.186590E-04	3.749425E-05
5.360278E+03	3.165039E-04	3.725409E-05
5.360476E+03	3.142012E-04	3.698972E-05
5.360674E+03	3.118800E-04	3.672307E-05
5.362061E+03	3.105004E-04	3.660678E-05
5.362655E+03	3.084197E-04	3.638110E-05
5.362854E+03	3.060197E-04	3.610448E-05
5.363250E+03	3.037686E-04	3.585179E-05
5.363448E+03	3.013704E-04	3.557514E-05
5.364636E+03	2.995019E-04	3.539275E-05
5.364834E+03	2.971222E-04	3.511784E-05
5.365230E+03	2.948461E-04	3.486133E-05
5.365428E+03	2.924687E-04	3.458646E-05
5.365626E+03	2.900643E-04	3.430829E-05
5.366221E+03	2.877942E-04	3.405817E-05
5.367014E+03	2.855413E-04	3.381582E-05
5.367212E+03	2.830718E-04	3.352939E-05
5.367410E+03	2.806200E-04	3.324495E-05
5.367608E+03	2.782296E-04	3.296768E-05
5.367806E+03	2.758128E-04	3.268717E-05
5.368004E+03	2.733616E-04	3.240248E-05
5.368202E+03	2.709066E-04	3.211725E-05
5.368598E+03	2.685133E-04	3.184494E-05
5.368796E+03	2.661232E-04	3.156714E-05
5.368994E+03	2.636572E-04	3.128024E-05
5.369588E+03	2.612632E-04	3.101290E-05
5.369983E+03	2.588317E-04	3.073526E-05
5.370578E+03	2.563517E-04	3.045713E-05
5.370776E+03	2.538815E-04	3.016906E-05
5.371569E+03	2.514472E-04	2.990123E-05
5.371767E+03	2.490383E-04	2.962008E-05
5.371965E+03	2.466376E-04	2.933979E-05
5.372163E+03	2.442385E-04	2.905960E-05
5.372361E+03	2.418369E-04	2.877900E-05
5.372955E+03	2.393845E-04	2.850246E-05
5.373153E+03	2.369830E-04	2.822158E-05
5.373549E+03	2.345642E-04	2.794353E-05
5.373747E+03	2.321816E-04	2.766464E-05
5.373945E+03	2.298077E-04	2.738669E-05
5.374341E+03	2.273799E-04	2.710704E-05
5.375134E+03	2.248488E-04	2.682448E-05
5.375332E+03	2.224749E-04	2.654602E-05
5.375530E+03	2.201216E-04	2.626992E-05
5.375926E+03	2.176660E-04	2.598613E-05
5.376124E+03	2.152896E-04	2.570701E-05
5.376322E+03	2.129118E-04	2.542763E-05
5.376520E+03	2.105435E-04	2.514928E-05
5.376718E+03	2.081632E-04	2.486940E-05
5.376917E+03	2.057844E-04	2.458961E-05
5.377313E+03	2.033401E-04	2.430621E-05
5.377511E+03	2.009688E-04	2.402705E-05
5.377709E+03	1.985856E-04	2.374635E-05
5.377907E+03	1.962175E-04	2.346738E-05
5.378105E+03	1.938489E-04	2.318823E-05
