#wls	flux	fluxerr
1.584409E+03	4.329133E-03	2.749227E-04
1.624020E+03	4.381237E-03	2.774089E-04
1.663630E+03	4.431042E-03	2.797103E-04
1.703240E+03	4.477903E-03	2.817866E-04
1.742850E+03	4.521529E-03	2.836205E-04
1.782461E+03	4.561163E-03	2.851656E-04
1.822071E+03	4.596779E-03	2.864219E-04
1.861681E+03	4.627873E-03	2.873597E-04
1.901291E+03	4.653541E-03	2.879255E-04
1.940902E+03	4.672885E-03	2.880666E-04
1.980512E+03	4.685032E-03	2.877334E-04
2.020122E+03	4.689473E-03	2.868991E-04
2.059732E+03	4.684203E-03	2.854466E-04
2.099342E+03	4.668376E-03	2.833316E-04
2.138953E+03	4.640758E-03	2.804873E-04
2.178563E+03	4.599356E-03	2.768028E-04
2.218173E+03	4.543916E-03	2.722741E-04
2.257783E+03	4.473955E-03	2.668841E-04
2.297394E+03	4.390424E-03	2.607019E-04
2.337004E+03	4.294741E-03	2.538238E-04
2.376614E+03	4.188662E-03	2.463647E-04
2.416224E+03	4.074324E-03	2.384602E-04
2.455835E+03	3.952916E-03	2.301885E-04
2.495445E+03	3.826007E-03	2.216489E-04
2.535055E+03	3.694822E-03	2.129188E-04
2.574665E+03	3.560048E-03	2.040441E-04
2.614276E+03	3.422511E-03	1.950772E-04
2.653886E+03	3.282785E-03	1.860558E-04
2.693496E+03	3.141608E-03	1.770259E-04
2.733106E+03	2.999556E-03	1.680237E-04
2.772716E+03	2.857291E-03	1.590894E-04
2.812327E+03	2.715483E-03	1.502627E-04
2.851937E+03	2.575171E-03	1.416027E-04
2.891547E+03	2.437311E-03	1.331625E-04
2.931157E+03	2.302877E-03	1.249946E-04
2.970768E+03	2.173137E-03	1.171660E-04
2.980670E+03	2.141594E-03	1.152700E-04
2.990573E+03	2.110424E-03	1.133993E-04
3.000475E+03	2.079642E-03	1.115545E-04
3.010378E+03	2.049311E-03	1.097390E-04
3.020280E+03	2.019443E-03	1.079533E-04
3.030183E+03	1.990053E-03	1.061981E-04
3.040086E+03	1.961158E-03	1.044742E-04
3.049988E+03	1.932774E-03	1.027824E-04
3.059891E+03	1.904918E-03	1.011233E-04
3.069793E+03	1.877647E-03	9.950007E-05
3.079696E+03	1.850976E-03	9.791318E-05
3.089598E+03	1.824886E-03	9.636153E-05
3.099501E+03	1.799465E-03	9.484964E-05
3.109403E+03	1.774660E-03	9.337454E-05
3.119306E+03	1.750523E-03	9.193884E-05
3.129209E+03	1.727106E-03	9.054504E-05
3.139111E+03	1.704389E-03	8.919196E-05
3.149014E+03	1.682423E-03	8.788207E-05
3.158916E+03	1.661191E-03	8.661431E-05
3.168819E+03	1.640741E-03	8.539095E-05
3.178721E+03	1.621087E-03	8.421257E-05
3.188624E+03	1.602217E-03	8.307828E-05
3.198526E+03	1.584176E-03	8.199021E-05
3.208429E+03	1.566979E-03	8.094893E-05
3.218332E+03	1.550642E-03	7.995503E-05
3.228234E+03	1.535181E-03	7.900912E-05
3.238137E+03	1.520612E-03	7.811180E-05
3.248039E+03	1.506954E-03	7.726372E-05
3.257942E+03	1.494199E-03	7.646432E-05
3.267844E+03	1.482416E-03	7.571677E-05
3.277747E+03	1.471575E-03	7.501935E-05
3.287650E+03	1.461721E-03	7.437407E-05
3.297552E+03	1.452852E-03	7.378058E-05
3.307455E+03	1.445015E-03	7.324088E-05
3.317357E+03	1.438231E-03	7.275585E-05
3.327260E+03	1.432482E-03	7.232425E-05
3.337162E+03	1.427837E-03	7.194923E-05
3.347065E+03	1.424280E-03	7.162971E-05
3.356967E+03	1.421860E-03	7.136784E-05
3.366870E+03	1.420605E-03	7.116469E-05
3.376773E+03	1.420507E-03	7.101949E-05
3.386675E+03	1.421636E-03	7.093546E-05
3.396578E+03	1.423987E-03	7.091193E-05
3.406480E+03	1.427593E-03	7.095028E-05
3.416383E+03	1.432492E-03	7.105196E-05
3.426285E+03	1.438704E-03	7.121756E-05
3.436188E+03	1.446285E-03	7.144957E-05
3.446090E+03	1.455242E-03	7.174783E-05
3.455993E+03	1.465617E-03	7.211409E-05
3.465896E+03	1.477437E-03	7.254925E-05
3.475798E+03	1.490768E-03	7.305610E-05
3.485701E+03	1.505623E-03	7.363483E-05
3.495603E+03	1.522032E-03	7.428654E-05
3.505506E+03	1.540067E-03	7.501420E-05
3.515408E+03	1.559726E-03	7.581729E-05
3.525311E+03	1.581062E-03	7.669793E-05
3.535213E+03	1.604131E-03	7.765832E-05
3.545116E+03	1.628951E-03	7.869883E-05
3.555019E+03	1.655576E-03	7.982162E-05
3.564921E+03	1.684025E-03	8.102702E-05
3.574824E+03	1.714331E-03	8.231617E-05
3.584726E+03	1.746547E-03	8.369105E-05
3.594629E+03	1.780665E-03	8.515070E-05
3.604531E+03	1.816751E-03	8.669782E-05
3.614434E+03	1.854809E-03	8.833203E-05
3.624337E+03	1.894858E-03	9.005361E-05
3.634239E+03	1.936889E-03	9.186171E-05
3.644142E+03	1.980931E-03	9.375714E-05
3.654044E+03	2.026980E-03	9.573907E-05
3.663947E+03	2.075006E-03	9.780567E-05
3.673849E+03	2.125011E-03	9.995646E-05
3.683752E+03	2.176963E-03	1.021894E-04
3.693654E+03	2.230800E-03	1.045011E-04
3.703557E+03	2.286533E-03	1.068916E-04
3.713460E+03	2.344054E-03	1.093554E-04
3.723362E+03	2.403303E-03	1.118892E-04
3.733265E+03	2.464237E-03	1.144906E-04
3.743167E+03	2.526701E-03	1.171522E-04
3.753070E+03	2.590647E-03	1.198712E-04
3.762972E+03	2.655917E-03	1.226400E-04
3.772875E+03	2.722413E-03	1.254540E-04
3.782777E+03	2.790003E-03	1.283067E-04
3.792680E+03	2.858512E-03	1.311899E-04
3.802583E+03	2.927782E-03	1.340963E-04
3.812485E+03	2.997673E-03	1.370194E-04
3.822388E+03	3.067976E-03	1.399495E-04
3.832290E+03	3.138537E-03	1.428798E-04
3.842193E+03	3.209132E-03	1.458000E-04
3.852095E+03	3.279591E-03	1.487027E-04
3.861998E+03	3.349715E-03	1.515790E-04
3.871900E+03	3.419300E-03	1.544199E-04
3.881803E+03	3.488171E-03	1.572179E-04
3.891706E+03	3.556101E-03	1.599630E-04
3.901608E+03	3.622920E-03	1.626481E-04
3.911511E+03	3.688470E-03	1.652666E-04
3.921413E+03	3.752502E-03	1.678079E-04
3.931316E+03	3.814943E-03	1.702691E-04
3.941218E+03	3.875591E-03	1.726421E-04
3.951121E+03	3.934293E-03	1.749205E-04
3.961024E+03	3.990940E-03	1.771002E-04
3.970926E+03	4.045368E-03	1.791747E-04
3.980829E+03	4.097522E-03	1.811422E-04
3.990731E+03	4.147293E-03	1.829988E-04
4.000634E+03	4.194583E-03	1.847408E-04
4.010536E+03	4.239263E-03	1.863634E-04
4.020439E+03	4.281321E-03	1.878669E-04
4.030341E+03	4.320682E-03	1.892487E-04
4.040244E+03	4.357276E-03	1.905068E-04
4.050147E+03	4.391038E-03	1.916390E-04
4.060049E+03	4.421912E-03	1.926436E-04
4.069952E+03	4.449879E-03	1.935209E-04
4.079854E+03	4.474864E-03	1.942682E-04
4.089757E+03	4.496862E-03	1.948863E-04
4.099659E+03	4.515850E-03	1.953748E-04
4.109562E+03	4.531811E-03	1.957340E-04
4.119464E+03	4.544744E-03	1.959646E-04
4.129367E+03	4.554663E-03	1.960679E-04
4.139270E+03	4.561635E-03	1.960477E-04
4.149172E+03	4.565635E-03	1.959035E-04
4.159075E+03	4.566774E-03	1.956407E-04
4.168977E+03	4.565181E-03	1.952658E-04
4.178880E+03	4.560896E-03	1.947809E-04
4.188782E+03	4.554098E-03	1.941942E-04
4.198685E+03	4.544910E-03	1.935117E-04
4.208587E+03	4.533560E-03	1.927436E-04
4.218490E+03	4.520218E-03	1.918974E-04
4.228393E+03	4.505074E-03	1.909817E-04
4.238295E+03	4.488462E-03	1.900110E-04
4.248198E+03	4.470535E-03	1.889919E-04
4.258100E+03	4.451665E-03	1.879407E-04
4.268003E+03	4.432120E-03	1.868685E-04
4.277905E+03	4.412223E-03	1.857893E-04
4.287808E+03	4.392274E-03	1.847156E-04
4.297711E+03	4.372649E-03	1.836633E-04
4.307613E+03	4.353692E-03	1.826469E-04
4.317516E+03	4.335706E-03	1.816788E-04
4.327418E+03	4.319122E-03	1.807771E-04
4.337321E+03	4.304201E-03	1.799523E-04
4.347223E+03	4.291266E-03	1.792179E-04
4.357126E+03	4.280300E-03	1.785728E-04
4.367028E+03	4.271105E-03	1.780086E-04
4.376931E+03	4.263348E-03	1.775111E-04
4.386834E+03	4.256830E-03	1.770717E-04
4.396736E+03	4.251252E-03	1.766777E-04
4.406639E+03	4.246327E-03	1.763172E-04
4.416541E+03	4.241908E-03	1.759836E-04
4.426444E+03	4.237770E-03	1.756677E-04
4.436346E+03	4.233763E-03	1.753630E-04
4.446249E+03	4.229775E-03	1.750649E-04
4.456151E+03	4.225731E-03	1.747701E-04
4.466054E+03	4.221555E-03	1.744753E-04
4.475957E+03	4.217281E-03	1.741820E-04
4.485859E+03	4.212931E-03	1.738909E-04
4.495762E+03	4.208511E-03	1.736023E-04
4.505664E+03	4.204046E-03	1.733169E-04
4.515567E+03	4.199644E-03	1.730393E-04
4.525469E+03	4.195390E-03	1.727728E-04
4.535372E+03	4.191283E-03	1.725173E-04
4.545274E+03	4.187482E-03	1.722792E-04
4.555177E+03	4.183937E-03	1.720563E-04
4.565080E+03	4.180749E-03	1.718527E-04
4.574982E+03	4.177959E-03	1.716699E-04
4.584885E+03	4.175558E-03	1.715076E-04
4.594787E+03	4.173556E-03	1.713660E-04
4.604690E+03	4.171869E-03	1.712415E-04
4.614592E+03	4.170553E-03	1.711364E-04
4.624495E+03	4.169458E-03	1.710444E-04
4.634398E+03	4.168590E-03	1.709656E-04
4.644300E+03	4.167872E-03	1.708970E-04
4.654203E+03	4.167280E-03	1.708372E-04
4.664105E+03	4.166727E-03	1.707828E-04
4.674008E+03	4.166228E-03	1.707343E-04
4.683910E+03	4.165755E-03	1.706904E-04
4.693813E+03	4.165451E-03	1.706569E-04
4.703715E+03	4.165330E-03	1.706343E-04
4.713618E+03	4.165548E-03	1.706289E-04
4.723521E+03	4.166234E-03	1.706460E-04
4.733423E+03	4.167485E-03	1.706894E-04
4.743326E+03	4.169480E-03	1.707663E-04
4.753228E+03	4.172312E-03	1.708805E-04
4.763131E+03	4.176098E-03	1.710367E-04
4.773033E+03	4.180943E-03	1.712392E-04
4.782936E+03	4.186927E-03	1.714911E-04
4.792838E+03	4.194067E-03	1.717931E-04
4.802741E+03	4.202482E-03	1.721500E-04
4.812644E+03	4.212057E-03	1.725571E-04
4.822546E+03	4.222861E-03	1.730171E-04
4.832449E+03	4.234819E-03	1.735269E-04
4.842351E+03	4.247917E-03	1.740859E-04
4.852254E+03	4.261995E-03	1.746875E-04
4.862156E+03	4.277003E-03	1.753297E-04
4.872059E+03	4.292842E-03	1.760083E-04
4.881961E+03	4.309356E-03	1.767169E-04
4.891864E+03	4.326468E-03	1.774523E-04
4.901767E+03	4.344015E-03	1.782079E-04
4.911669E+03	4.361919E-03	1.789804E-04
4.921572E+03	4.379977E-03	1.797613E-04
4.931474E+03	4.398165E-03	1.805497E-04
4.941377E+03	4.416292E-03	1.813377E-04
4.951279E+03	4.434312E-03	1.821234E-04
4.961182E+03	4.452104E-03	1.829017E-04
4.971085E+03	4.469647E-03	1.836718E-04
4.980987E+03	4.486896E-03	1.844316E-04
4.990890E+03	4.503729E-03	1.851763E-04
5.000792E+03	4.520174E-03	1.859068E-04
5.010695E+03	4.536233E-03	1.866231E-04
5.020597E+03	4.551923E-03	1.873259E-04
5.030500E+03	4.567183E-03	1.880126E-04
5.040402E+03	4.582145E-03	1.886888E-04
5.050305E+03	4.596861E-03	1.893562E-04
5.060208E+03	4.611252E-03	1.900117E-04
5.070110E+03	4.625517E-03	1.906635E-04
5.080013E+03	4.639627E-03	1.913102E-04
5.089915E+03	4.653645E-03	1.919545E-04
5.099818E+03	4.667622E-03	1.925983E-04
5.109720E+03	4.681554E-03	1.932415E-04
5.119623E+03	4.695521E-03	1.938873E-04
5.129525E+03	4.709491E-03	1.945344E-04
5.139428E+03	4.723459E-03	1.951825E-04
5.149331E+03	4.737403E-03	1.958306E-04
5.159233E+03	4.751178E-03	1.964728E-04
5.169136E+03	4.764808E-03	1.971099E-04
5.179038E+03	4.778151E-03	1.977361E-04
5.188941E+03	4.791034E-03	1.983441E-04
5.198843E+03	4.803314E-03	1.989280E-04
5.208746E+03	4.814820E-03	1.994805E-04
5.218648E+03	4.825313E-03	1.999918E-04
5.228551E+03	4.834631E-03	2.004550E-04
5.238454E+03	4.842455E-03	2.008567E-04
5.248356E+03	4.848596E-03	2.011891E-04
5.258259E+03	4.852712E-03	2.014378E-04
5.268161E+03	4.854608E-03	2.015946E-04
5.278064E+03	4.853994E-03	2.016473E-04
5.287966E+03	4.850637E-03	2.015861E-04
5.297869E+03	4.844323E-03	2.014019E-04
5.307772E+03	4.834763E-03	2.010825E-04
5.317674E+03	4.821839E-03	2.006229E-04
5.327577E+03	4.805379E-03	2.000155E-04
5.337479E+03	4.785295E-03	1.992568E-04
5.347382E+03	4.761458E-03	1.983409E-04
5.357284E+03	4.733980E-03	1.972724E-04
5.367187E+03	4.702789E-03	1.960481E-04
5.377089E+03	4.668021E-03	1.946735E-04
5.386992E+03	4.629868E-03	1.931564E-04
5.396895E+03	4.588355E-03	1.914976E-04
5.406797E+03	4.543571E-03	1.897008E-04
5.416700E+03	4.495664E-03	1.877718E-04
5.426602E+03	4.445244E-03	1.857361E-04
5.436505E+03	4.392907E-03	1.836184E-04
5.446407E+03	4.339178E-03	1.814406E-04
5.456310E+03	4.284576E-03	1.792243E-04
5.466212E+03	4.229633E-03	1.769917E-04
5.476115E+03	4.174805E-03	1.747618E-04
5.486018E+03	4.120723E-03	1.725612E-04
5.495920E+03	4.067844E-03	1.704089E-04
5.505823E+03	4.016662E-03	1.683257E-04
5.515725E+03	3.967734E-03	1.663350E-04
5.525628E+03	3.921473E-03	1.644542E-04
5.535530E+03	3.878337E-03	1.627028E-04
5.545433E+03	3.838745E-03	1.610983E-04
5.555335E+03	3.803031E-03	1.596551E-04
5.565238E+03	3.771512E-03	1.583864E-04
5.575141E+03	3.744405E-03	1.573018E-04
5.585043E+03	3.721866E-03	1.564078E-04
5.594946E+03	3.704019E-03	1.557099E-04
5.604848E+03	3.690842E-03	1.552074E-04
5.614751E+03	3.682400E-03	1.549032E-04
5.624653E+03	3.678500E-03	1.547893E-04
5.634556E+03	3.679034E-03	1.548614E-04
5.644459E+03	3.683764E-03	1.551097E-04
5.654361E+03	3.692351E-03	1.555199E-04
5.664264E+03	3.704533E-03	1.560814E-04
5.674166E+03	3.719888E-03	1.567762E-04
5.684069E+03	3.738039E-03	1.575887E-04
5.693971E+03	3.758552E-03	1.585008E-04
5.703874E+03	3.781022E-03	1.594952E-04
5.713776E+03	3.804961E-03	1.605516E-04
5.723679E+03	3.830018E-03	1.616552E-04
5.733582E+03	3.855696E-03	1.627849E-04
5.743484E+03	3.881654E-03	1.639265E-04
5.753387E+03	3.907581E-03	1.650667E-04
5.763289E+03	3.933175E-03	1.661928E-04
5.773192E+03	3.958131E-03	1.672918E-04
5.783094E+03	3.982273E-03	1.683564E-04
5.792997E+03	4.005474E-03	1.693811E-04
5.802899E+03	4.027516E-03	1.703566E-04
5.812802E+03	4.048351E-03	1.712808E-04
5.822705E+03	4.067964E-03	1.721531E-04
5.832607E+03	4.086237E-03	1.729685E-04
5.842510E+03	4.103253E-03	1.737303E-04
5.852412E+03	4.119027E-03	1.744393E-04
5.862315E+03	4.133497E-03	1.750926E-04
5.872217E+03	4.146748E-03	1.756940E-04
5.882120E+03	4.158876E-03	1.762474E-04
5.892022E+03	4.169844E-03	1.767513E-04
5.901925E+03	4.179756E-03	1.772100E-04
5.911828E+03	4.188680E-03	1.776263E-04
5.921730E+03	4.196634E-03	1.780011E-04
5.931633E+03	4.203692E-03	1.783374E-04
5.941535E+03	4.209930E-03	1.786385E-04
5.951438E+03	4.215380E-03	1.789057E-04
5.961340E+03	4.220183E-03	1.791450E-04
5.971243E+03	4.224386E-03	1.793583E-04
5.981146E+03	4.228095E-03	1.795502E-04
5.991048E+03	4.231324E-03	1.797213E-04
6.000951E+03	4.234304E-03	1.798813E-04
6.010853E+03	4.237019E-03	1.800297E-04
6.020756E+03	4.239718E-03	1.801770E-04
6.030658E+03	4.242413E-03	1.803237E-04
6.040561E+03	4.245378E-03	1.804815E-04
6.050463E+03	4.248642E-03	1.806517E-04
6.060366E+03	4.252447E-03	1.808445E-04
6.070269E+03	4.256989E-03	1.810684E-04
6.080171E+03	4.262415E-03	1.813296E-04
6.090074E+03	4.268868E-03	1.816343E-04
6.099976E+03	4.276583E-03	1.819924E-04
6.109879E+03	4.285731E-03	1.824114E-04
6.119781E+03	4.296454E-03	1.828973E-04
6.129684E+03	4.308858E-03	1.834546E-04
6.139586E+03	4.323068E-03	1.840889E-04
6.149489E+03	4.339030E-03	1.847977E-04
6.159392E+03	4.356475E-03	1.855698E-04
6.169294E+03	4.375333E-03	1.864021E-04
6.179197E+03	4.395345E-03	1.872836E-04
6.189099E+03	4.416299E-03	1.882054E-04
6.199002E+03	4.438095E-03	1.891631E-04
6.208904E+03	4.460520E-03	1.901476E-04
6.218807E+03	4.483433E-03	1.911529E-04
6.228709E+03	4.506641E-03	1.921707E-04
6.238612E+03	4.529960E-03	1.931932E-04
6.248515E+03	4.553408E-03	1.942211E-04
6.258417E+03	4.576705E-03	1.952424E-04
6.268320E+03	4.599837E-03	1.962565E-04
6.278222E+03	4.622612E-03	1.972551E-04
6.288125E+03	4.645038E-03	1.982387E-04
6.298027E+03	4.666948E-03	1.991999E-04
6.307930E+03	4.688309E-03	2.001374E-04
6.317833E+03	4.709103E-03	2.010503E-04
6.327735E+03	4.729115E-03	2.019294E-04
6.337638E+03	4.748408E-03	2.027774E-04
6.347540E+03	4.766914E-03	2.035913E-04
6.357443E+03	4.784570E-03	2.043684E-04
6.367345E+03	4.801390E-03	2.051092E-04
6.377248E+03	4.817392E-03	2.058145E-04
6.387150E+03	4.832599E-03	2.064852E-04
6.397053E+03	4.846969E-03	2.071196E-04
6.406956E+03	4.860461E-03	2.077157E-04
6.416858E+03	4.873116E-03	2.082753E-04
6.426761E+03	4.884754E-03	2.087907E-04
6.436663E+03	4.895497E-03	2.092670E-04
6.446566E+03	4.905323E-03	2.097033E-04
6.456468E+03	4.914216E-03	2.100989E-04
6.466371E+03	4.922168E-03	2.104535E-04
6.476273E+03	4.929174E-03	2.107666E-04
6.486176E+03	4.935312E-03	2.110418E-04
6.496079E+03	4.940511E-03	2.112758E-04
6.505981E+03	4.944865E-03	2.114728E-04
6.515884E+03	4.948391E-03	2.116334E-04
6.525786E+03	4.951034E-03	2.117552E-04
6.535689E+03	4.952899E-03	2.118428E-04
6.545591E+03	4.954019E-03	2.118974E-04
6.555494E+03	4.954426E-03	2.119206E-04
6.565396E+03	4.954156E-03	2.119137E-04
6.575299E+03	4.953245E-03	2.118784E-04
6.585202E+03	4.951727E-03	2.118161E-04
6.595104E+03	4.949553E-03	2.117246E-04
6.605007E+03	4.946835E-03	2.116089E-04
6.614909E+03	4.943516E-03	2.114663E-04
6.624812E+03	4.939705E-03	2.113016E-04
6.634714E+03	4.935421E-03	2.111156E-04
6.644617E+03	4.930588E-03	2.109051E-04
6.654520E+03	4.925217E-03	2.106705E-04
6.664422E+03	4.919398E-03	2.104157E-04
6.674325E+03	4.912956E-03	2.101332E-04
6.684227E+03	4.906060E-03	2.098302E-04
6.694130E+03	4.898612E-03	2.095027E-04
6.704032E+03	4.890515E-03	2.091463E-04
6.713935E+03	4.881845E-03	2.087644E-04
6.723837E+03	4.872586E-03	2.083563E-04
6.733740E+03	4.862638E-03	2.079178E-04
6.743643E+03	4.852076E-03	2.074520E-04
6.753545E+03	4.840802E-03	2.069549E-04
6.763448E+03	4.828895E-03	2.064298E-04
6.773350E+03	4.816172E-03	2.058688E-04
6.783253E+03	4.802811E-03	2.052798E-04
6.793155E+03	4.788635E-03	2.046550E-04
6.803058E+03	4.773828E-03	2.040025E-04
6.812960E+03	4.758222E-03	2.033149E-04
6.822863E+03	4.741920E-03	2.025969E-04
6.832766E+03	4.724851E-03	2.018454E-04
6.842668E+03	4.707121E-03	2.010648E-04
6.852571E+03	4.688668E-03	2.002528E-04
6.862473E+03	4.669601E-03	1.994138E-04
6.872376E+03	4.649768E-03	1.985415E-04
6.882278E+03	4.629375E-03	1.976448E-04
6.892181E+03	4.608359E-03	1.967208E-04
6.902083E+03	4.586658E-03	1.957671E-04
6.911986E+03	4.564473E-03	1.947924E-04
6.921889E+03	4.541655E-03	1.937901E-04
6.931791E+03	4.518317E-03	1.927653E-04
6.941694E+03	4.494399E-03	1.917153E-04
6.951596E+03	4.470009E-03	1.906449E-04
6.961499E+03	4.445089E-03	1.895516E-04
6.971401E+03	4.419750E-03	1.884402E-04
6.981304E+03	4.393846E-03	1.873045E-04
6.991207E+03	4.367577E-03	1.861531E-04
7.001109E+03	4.340800E-03	1.849799E-04
7.011012E+03	4.313717E-03	1.837937E-04
7.020914E+03	4.286189E-03	1.825883E-04
7.030817E+03	4.258335E-03	1.813692E-04
7.040719E+03	4.230103E-03	1.801340E-04
7.050622E+03	4.201621E-03	1.788882E-04
7.060524E+03	4.172927E-03	1.776335E-04
7.070427E+03	4.143894E-03	1.763645E-04
7.080330E+03	4.114736E-03	1.750904E-04
7.090232E+03	4.085497E-03	1.738132E-04
7.100135E+03	4.056060E-03	1.725277E-04
7.110037E+03	4.026556E-03	1.712398E-04
7.119940E+03	3.997033E-03	1.699513E-04
7.129842E+03	3.967457E-03	1.686610E-04
7.139745E+03	3.938042E-03	1.673779E-04
7.149647E+03	3.908668E-03	1.660971E-04
7.159550E+03	3.879380E-03	1.648203E-04
7.169453E+03	3.850297E-03	1.635529E-04
7.179355E+03	3.821297E-03	1.622894E-04
7.189258E+03	3.792568E-03	1.610380E-04
7.199160E+03	3.764061E-03	1.597966E-04
7.209063E+03	3.735797E-03	1.585662E-04
7.218965E+03	3.707718E-03	1.573443E-04
7.228868E+03	3.679839E-03	1.561315E-04
7.238770E+03	3.652252E-03	1.549318E-04
7.248673E+03	3.624894E-03	1.537425E-04
7.258576E+03	3.597701E-03	1.525610E-04
7.268478E+03	3.570690E-03	1.513880E-04
7.278381E+03	3.543880E-03	1.502243E-04
7.288283E+03	3.517294E-03	1.490708E-04
7.298186E+03	3.490887E-03	1.479259E-04
7.308088E+03	3.464621E-03	1.467877E-04
7.317991E+03	3.438542E-03	1.456583E-04
7.327894E+03	3.412555E-03	1.445338E-04
7.337796E+03	3.386871E-03	1.434230E-04
7.347699E+03	3.361343E-03	1.423197E-04
7.357601E+03	3.336055E-03	1.412276E-04
7.367504E+03	3.311168E-03	1.401534E-04
7.377406E+03	3.286857E-03	1.391046E-04
7.387309E+03	3.263152E-03	1.380824E-04
7.397211E+03	3.240312E-03	1.370978E-04
7.407114E+03	3.218448E-03	1.361555E-04
7.417017E+03	3.197820E-03	1.352663E-04
7.426919E+03	3.178463E-03	1.344317E-04
7.436822E+03	3.160617E-03	1.336618E-04
7.446724E+03	3.144298E-03	1.329572E-04
7.456627E+03	3.129415E-03	1.323141E-04
7.466529E+03	3.115940E-03	1.317312E-04
7.476432E+03	3.103698E-03	1.312011E-04
7.486334E+03	3.092733E-03	1.307255E-04
7.496237E+03	3.082882E-03	1.302977E-04
7.506140E+03	3.074064E-03	1.299141E-04
7.516042E+03	3.066277E-03	1.295745E-04
7.525945E+03	3.059456E-03	1.292763E-04
7.535847E+03	3.053548E-03	1.290172E-04
7.545750E+03	3.048437E-03	1.287922E-04
7.555652E+03	3.044217E-03	1.286053E-04
7.565555E+03	3.040709E-03	1.284490E-04
7.575457E+03	3.038021E-03	1.283276E-04
7.585360E+03	3.035976E-03	1.282338E-04
7.595263E+03	3.034680E-03	1.281721E-04
7.605165E+03	3.033962E-03	1.281351E-04
7.615068E+03	3.033927E-03	1.281274E-04
7.624970E+03	3.034470E-03	1.281443E-04
7.634873E+03	3.035557E-03	1.281846E-04
7.644775E+03	3.037078E-03	1.282436E-04
7.654678E+03	3.039139E-03	1.283256E-04
7.664581E+03	3.041631E-03	1.284262E-04
7.674483E+03	3.044512E-03	1.285435E-04
7.684386E+03	3.047672E-03	1.286729E-04
