#wls	flux	fluxerr
1.584409E+03	2.512646E-03	2.458156E-04
1.624020E+03	2.595034E-03	2.538717E-04
1.663630E+03	2.674578E-03	2.616492E-04
1.703240E+03	2.750049E-03	2.690278E-04
1.742850E+03	2.821185E-03	2.759820E-04
1.782461E+03	2.886614E-03	2.823775E-04
1.822071E+03	2.945434E-03	2.881262E-04
1.861681E+03	2.997200E-03	2.931845E-04
1.901291E+03	3.040425E-03	2.974070E-04
1.940902E+03	3.074381E-03	3.007226E-04
1.980512E+03	3.097881E-03	3.030150E-04
2.020122E+03	3.110265E-03	3.042201E-04
2.059732E+03	3.110094E-03	3.041969E-04
2.099342E+03	3.096366E-03	3.028476E-04
2.138953E+03	3.068148E-03	3.000810E-04
2.178563E+03	3.023943E-03	2.957507E-04
2.218173E+03	2.962666E-03	2.897509E-04
2.257783E+03	2.884530E-03	2.821024E-04
2.297394E+03	2.790807E-03	2.729297E-04
2.337004E+03	2.684519E-03	2.625286E-04
2.376614E+03	2.568188E-03	2.511457E-04
2.416224E+03	2.444033E-03	2.389982E-04
2.455835E+03	2.314314E-03	2.263072E-04
2.495445E+03	2.180499E-03	2.132161E-04
2.535055E+03	2.044208E-03	1.998835E-04
2.574665E+03	1.906815E-03	1.864438E-04
2.614276E+03	1.769719E-03	1.730338E-04
2.653886E+03	1.634055E-03	1.597645E-04
2.693496E+03	1.500936E-03	1.467447E-04
2.733106E+03	1.371379E-03	1.340739E-04
2.772716E+03	1.246305E-03	1.218420E-04
2.812327E+03	1.126561E-03	1.101320E-04
2.851937E+03	1.012948E-03	9.902187E-05
2.891547E+03	9.061525E-04	8.857899E-05
2.931157E+03	8.067518E-04	7.885956E-05
2.970768E+03	7.151459E-04	6.990266E-05
2.980670E+03	6.935097E-04	6.778720E-05
2.990573E+03	6.723596E-04	6.571928E-05
3.000475E+03	6.517235E-04	6.370165E-05
3.010378E+03	6.315836E-04	6.173254E-05
3.020280E+03	6.119497E-04	5.981293E-05
3.030183E+03	5.928298E-04	5.794360E-05
3.040086E+03	5.741939E-04	5.612159E-05
3.049988E+03	5.560733E-04	5.434999E-05
3.059891E+03	5.384384E-04	5.262588E-05
3.069793E+03	5.213058E-04	5.095090E-05
3.079696E+03	5.046582E-04	4.932334E-05
3.089598E+03	4.884894E-04	4.774262E-05
3.099501E+03	4.728124E-04	4.620999E-05
3.109403E+03	4.576012E-04	4.472291E-05
3.119306E+03	4.428748E-04	4.328323E-05
3.129209E+03	4.286007E-04	4.188778E-05
3.139111E+03	4.147953E-04	4.053817E-05
3.149014E+03	4.014353E-04	3.923211E-05
3.158916E+03	3.885277E-04	3.797028E-05
3.168819E+03	3.760567E-04	3.675115E-05
3.178721E+03	3.640209E-04	3.557457E-05
3.188624E+03	3.524109E-04	3.443963E-05
3.198526E+03	3.412182E-04	3.334548E-05
3.208429E+03	3.304280E-04	3.229068E-05
3.218332E+03	3.200425E-04	3.127546E-05
3.228234E+03	3.100470E-04	3.029837E-05
3.238137E+03	3.004368E-04	2.935894E-05
3.248039E+03	2.911976E-04	2.845579E-05
3.257942E+03	2.823202E-04	2.758801E-05
3.267844E+03	2.737991E-04	2.675507E-05
3.277747E+03	2.656208E-04	2.595563E-05
3.287650E+03	2.577795E-04	2.518914E-05
3.297552E+03	2.502651E-04	2.445462E-05
3.307455E+03	2.430611E-04	2.375043E-05
3.317357E+03	2.361653E-04	2.307638E-05
3.327260E+03	2.295647E-04	2.243117E-05
3.337162E+03	2.232503E-04	2.181395E-05
3.347065E+03	2.172126E-04	2.122378E-05
3.356967E+03	2.114375E-04	2.065928E-05
3.366870E+03	2.059220E-04	2.012015E-05
3.376773E+03	2.006549E-04	1.960531E-05
3.386675E+03	1.956257E-04	1.911371E-05
3.396578E+03	1.908263E-04	1.864459E-05
3.406480E+03	1.862493E-04	1.819719E-05
3.416383E+03	1.818828E-04	1.777038E-05
3.426285E+03	1.777222E-04	1.736368E-05
3.436188E+03	1.737565E-04	1.697604E-05
3.446090E+03	1.699795E-04	1.660685E-05
3.455993E+03	1.663833E-04	1.625532E-05
3.465896E+03	1.629601E-04	1.592071E-05
3.475798E+03	1.597030E-04	1.560232E-05
3.485701E+03	1.566051E-04	1.529949E-05
3.495603E+03	1.536582E-04	1.501143E-05
3.505506E+03	1.508548E-04	1.473739E-05
3.515408E+03	1.481894E-04	1.447683E-05
3.525311E+03	1.456551E-04	1.422909E-05
3.535213E+03	1.432472E-04	1.399371E-05
3.545116E+03	1.409582E-04	1.376993E-05
3.555019E+03	1.387837E-04	1.355736E-05
3.564921E+03	1.367186E-04	1.335547E-05
3.574824E+03	1.347604E-04	1.316402E-05
3.584726E+03	1.329028E-04	1.298241E-05
3.594629E+03	1.311425E-04	1.281031E-05
3.604531E+03	1.294726E-04	1.264704E-05
3.614434E+03	1.278902E-04	1.249232E-05
3.624337E+03	1.263914E-04	1.234578E-05
3.634239E+03	1.249726E-04	1.220704E-05
3.644142E+03	1.236312E-04	1.207587E-05
3.654044E+03	1.223649E-04	1.195204E-05
3.663947E+03	1.211703E-04	1.183522E-05
3.673849E+03	1.200462E-04	1.172528E-05
3.683752E+03	1.189895E-04	1.162193E-05
3.693654E+03	1.180001E-04	1.152515E-05
3.703557E+03	1.170758E-04	1.143473E-05
3.713460E+03	1.162145E-04	1.135047E-05
3.723362E+03	1.154152E-04	1.127227E-05
3.733265E+03	1.146778E-04	1.120011E-05
3.743167E+03	1.140002E-04	1.113380E-05
3.753070E+03	1.133824E-04	1.107332E-05
3.762972E+03	1.128221E-04	1.101847E-05
3.772875E+03	1.123185E-04	1.096914E-05
3.782777E+03	1.118713E-04	1.092533E-05
3.792680E+03	1.114804E-04	1.088702E-05
3.802583E+03	1.111438E-04	1.085401E-05
3.812485E+03	1.108623E-04	1.082638E-05
3.822388E+03	1.106330E-04	1.080385E-05
3.832290E+03	1.104575E-04	1.078658E-05
3.842193E+03	1.103331E-04	1.077429E-05
3.852095E+03	1.102614E-04	1.076715E-05
3.861998E+03	1.102404E-04	1.076496E-05
3.871900E+03	1.102700E-04	1.076772E-05
3.881803E+03	1.103493E-04	1.077532E-05
3.891706E+03	1.104780E-04	1.078775E-05
3.901608E+03	1.106552E-04	1.080491E-05
3.911511E+03	1.108817E-04	1.082688E-05
3.921413E+03	1.111556E-04	1.085348E-05
3.931316E+03	1.114767E-04	1.088470E-05
3.941218E+03	1.118443E-04	1.092044E-05
3.951121E+03	1.122589E-04	1.096078E-05
3.961024E+03	1.127198E-04	1.100564E-05
3.970926E+03	1.132259E-04	1.105491E-05
3.980829E+03	1.137764E-04	1.110851E-05
3.990731E+03	1.143722E-04	1.116652E-05
4.000634E+03	1.150113E-04	1.122877E-05
4.010536E+03	1.156947E-04	1.129534E-05
4.020439E+03	1.164207E-04	1.136607E-05
4.030341E+03	1.171893E-04	1.144095E-05
4.040244E+03	1.180005E-04	1.151999E-05
4.050147E+03	1.188535E-04	1.160311E-05
4.060049E+03	1.197474E-04	1.169022E-05
4.069952E+03	1.206815E-04	1.178124E-05
4.079854E+03	1.216567E-04	1.187628E-05
4.089757E+03	1.226713E-04	1.197517E-05
4.099659E+03	1.237255E-04	1.207791E-05
4.109562E+03	1.248174E-04	1.218434E-05
4.119464E+03	1.259473E-04	1.229446E-05
4.129367E+03	1.271153E-04	1.240830E-05
4.139270E+03	1.283195E-04	1.252568E-05
4.149172E+03	1.295602E-04	1.264661E-05
4.159075E+03	1.308356E-04	1.277092E-05
4.168977E+03	1.321457E-04	1.289862E-05
4.178880E+03	1.334887E-04	1.302953E-05
4.188782E+03	1.348648E-04	1.316366E-05
4.198685E+03	1.362719E-04	1.330082E-05
4.208587E+03	1.377091E-04	1.344091E-05
4.218490E+03	1.391744E-04	1.358373E-05
4.228393E+03	1.406676E-04	1.372928E-05
4.238295E+03	1.421868E-04	1.387736E-05
4.248198E+03	1.437306E-04	1.402784E-05
4.258100E+03	1.452969E-04	1.418049E-05
4.268003E+03	1.468829E-04	1.433508E-05
4.277905E+03	1.484875E-04	1.449148E-05
4.287808E+03	1.501092E-04	1.464953E-05
4.297711E+03	1.517451E-04	1.480897E-05
4.307613E+03	1.533937E-04	1.496964E-05
4.317516E+03	1.550519E-04	1.513125E-05
4.327418E+03	1.567194E-04	1.529375E-05
4.337321E+03	1.583942E-04	1.545697E-05
4.347223E+03	1.600783E-04	1.562109E-05
4.357126E+03	1.617699E-04	1.578593E-05
4.367028E+03	1.634699E-04	1.595159E-05
4.376931E+03	1.651779E-04	1.611802E-05
4.386834E+03	1.668962E-04	1.628545E-05
4.396736E+03	1.686231E-04	1.645372E-05
4.406639E+03	1.703584E-04	1.662281E-05
4.416541E+03	1.721032E-04	1.679281E-05
4.426444E+03	1.738575E-04	1.696373E-05
4.436346E+03	1.756211E-04	1.713556E-05
4.446249E+03	1.773924E-04	1.730813E-05
4.456151E+03	1.791729E-04	1.748160E-05
4.466054E+03	1.809613E-04	1.765583E-05
4.475957E+03	1.827575E-04	1.783081E-05
4.485859E+03	1.845616E-04	1.800657E-05
4.495762E+03	1.863708E-04	1.818281E-05
4.505664E+03	1.881868E-04	1.835971E-05
4.515567E+03	1.900082E-04	1.853713E-05
4.525469E+03	1.918356E-04	1.871513E-05
4.535372E+03	1.936658E-04	1.889340E-05
4.545274E+03	1.955010E-04	1.907216E-05
4.555177E+03	1.973388E-04	1.925115E-05
4.565080E+03	1.991809E-04	1.943056E-05
4.574982E+03	2.010249E-04	1.961016E-05
4.584885E+03	2.028717E-04	1.979002E-05
4.594787E+03	2.047202E-04	1.997004E-05
4.604690E+03	2.065733E-04	2.015050E-05
4.614592E+03	2.084282E-04	2.033113E-05
4.624495E+03	2.102887E-04	2.051230E-05
4.634398E+03	2.121536E-04	2.069390E-05
4.644300E+03	2.140228E-04	2.087591E-05
4.654203E+03	2.158998E-04	2.105867E-05
4.664105E+03	2.177824E-04	2.124197E-05
4.674008E+03	2.196726E-04	2.142601E-05
4.683910E+03	2.215679E-04	2.161054E-05
4.693813E+03	2.234706E-04	2.179578E-05
4.703715E+03	2.253764E-04	2.198132E-05
4.713618E+03	2.272873E-04	2.216736E-05
4.723521E+03	2.292012E-04	2.235367E-05
4.733423E+03	2.311204E-04	2.254050E-05
4.743326E+03	2.330425E-04	2.272760E-05
4.753228E+03	2.349677E-04	2.291500E-05
4.763131E+03	2.368961E-04	2.310271E-05
4.773033E+03	2.388274E-04	2.329069E-05
4.782936E+03	2.407621E-04	2.347899E-05
4.792838E+03	2.426975E-04	2.366736E-05
4.802741E+03	2.446361E-04	2.385603E-05
4.812644E+03	2.465780E-04	2.404502E-05
4.822546E+03	2.485203E-04	2.423404E-05
4.832449E+03	2.504635E-04	2.442314E-05
4.842351E+03	2.524096E-04	2.461252E-05
4.852254E+03	2.543533E-04	2.480165E-05
4.862156E+03	2.562994E-04	2.499102E-05
4.872059E+03	2.582452E-04	2.518035E-05
4.881961E+03	2.601876E-04	2.536934E-05
4.891864E+03	2.621285E-04	2.555817E-05
4.901767E+03	2.640674E-04	2.574680E-05
4.911669E+03	2.660008E-04	2.593489E-05
4.921572E+03	2.679306E-04	2.612262E-05
4.931474E+03	2.698503E-04	2.630936E-05
4.941377E+03	2.717640E-04	2.649551E-05
4.951279E+03	2.736679E-04	2.668070E-05
4.961182E+03	2.755578E-04	2.686451E-05
4.971085E+03	2.774347E-04	2.704704E-05
4.980987E+03	2.792941E-04	2.722787E-05
4.990890E+03	2.811341E-04	2.740680E-05
5.000792E+03	2.829524E-04	2.758361E-05
5.010695E+03	2.847470E-04	2.775809E-05
5.020597E+03	2.865125E-04	2.792973E-05
5.030500E+03	2.882494E-04	2.809858E-05
5.040402E+03	2.899520E-04	2.826408E-05
5.050305E+03	2.916177E-04	2.842598E-05
5.060208E+03	2.932405E-04	2.858369E-05
5.070110E+03	2.948204E-04	2.873721E-05
5.080013E+03	2.963486E-04	2.888568E-05
5.089915E+03	2.978275E-04	2.902934E-05
5.099818E+03	2.992481E-04	2.916732E-05
5.109720E+03	3.006101E-04	2.929957E-05
5.119623E+03	3.019069E-04	2.942547E-05
5.129525E+03	3.031324E-04	2.954440E-05
5.139428E+03	3.042858E-04	2.965632E-05
5.149331E+03	3.053607E-04	2.976057E-05
5.159233E+03	3.063537E-04	2.985683E-05
5.169136E+03	3.072611E-04	2.994475E-05
5.179038E+03	3.080764E-04	3.002370E-05
5.188941E+03	3.087963E-04	3.009333E-05
5.198843E+03	3.094143E-04	3.015303E-05
5.208746E+03	3.099298E-04	3.020275E-05
5.218648E+03	3.103371E-04	3.024192E-05
5.228551E+03	3.106330E-04	3.027022E-05
5.238454E+03	3.108145E-04	3.028738E-05
5.248356E+03	3.108761E-04	3.029286E-05
5.258259E+03	3.108155E-04	3.028642E-05
5.268161E+03	3.106310E-04	3.026790E-05
5.278064E+03	3.103207E-04	3.023714E-05
5.287966E+03	3.098808E-04	3.019374E-05
5.297869E+03	3.093135E-04	3.013793E-05
5.307772E+03	3.086190E-04	3.006973E-05
5.317674E+03	3.077979E-04	2.998920E-05
5.327577E+03	3.068484E-04	2.989615E-05
5.337479E+03	3.057785E-04	2.979138E-05
5.347382E+03	3.045878E-04	2.967484E-05
5.357284E+03	3.032858E-04	2.954746E-05
5.367187E+03	3.018734E-04	2.940933E-05
5.377089E+03	3.003587E-04	2.926124E-05
5.386992E+03	2.987471E-04	2.910371E-05
5.396895E+03	2.970508E-04	2.893794E-05
5.406797E+03	2.952738E-04	2.876430E-05
5.416700E+03	2.934207E-04	2.858326E-05
5.426602E+03	2.914935E-04	2.839502E-05
5.436505E+03	2.895015E-04	2.820046E-05
5.446407E+03	2.874478E-04	2.799990E-05
5.456310E+03	2.853394E-04	2.779401E-05
5.466212E+03	2.831837E-04	2.758352E-05
5.476115E+03	2.809879E-04	2.736914E-05
5.486018E+03	2.787599E-04	2.715163E-05
5.495920E+03	2.765101E-04	2.693200E-05
5.505823E+03	2.742465E-04	2.671103E-05
5.515725E+03	2.719819E-04	2.648997E-05
5.525628E+03	2.697213E-04	2.626932E-05
5.535530E+03	2.674794E-04	2.605049E-05
5.545433E+03	2.652606E-04	2.583391E-05
5.555335E+03	2.630762E-04	2.562069E-05
5.565238E+03	2.609372E-04	2.541191E-05
5.575141E+03	2.588459E-04	2.520778E-05
5.585043E+03	2.568174E-04	2.500976E-05
5.594946E+03	2.548552E-04	2.481822E-05
5.604848E+03	2.529627E-04	2.463346E-05
5.614751E+03	2.511528E-04	2.445675E-05
5.624653E+03	2.494247E-04	2.428802E-05
5.634556E+03	2.477851E-04	2.412791E-05
5.644459E+03	2.462396E-04	2.397697E-05
5.654361E+03	2.447911E-04	2.383548E-05
5.664264E+03	2.434423E-04	2.370370E-05
5.674166E+03	2.421947E-04	2.358178E-05
5.684069E+03	2.410526E-04	2.347013E-05
5.693971E+03	2.400199E-04	2.336914E-05
5.703874E+03	2.390925E-04	2.327841E-05
5.713776E+03	2.382790E-04	2.319876E-05
5.723679E+03	2.375748E-04	2.312977E-05
5.733582E+03	2.369855E-04	2.307196E-05
5.743484E+03	2.365092E-04	2.302515E-05
5.753387E+03	2.361486E-04	2.298961E-05
5.763289E+03	2.359043E-04	2.296539E-05
5.773192E+03	2.357787E-04	2.295273E-05
5.783094E+03	2.357697E-04	2.295142E-05
5.792997E+03	2.358774E-04	2.296147E-05
5.802899E+03	2.361046E-04	2.298314E-05
5.812802E+03	2.364535E-04	2.301667E-05
5.822705E+03	2.369192E-04	2.306157E-05
5.832607E+03	2.375069E-04	2.311833E-05
5.842510E+03	2.382134E-04	2.318666E-05
5.852412E+03	2.390411E-04	2.326679E-05
5.862315E+03	2.399897E-04	2.335867E-05
5.872217E+03	2.410555E-04	2.346196E-05
5.882120E+03	2.422405E-04	2.357685E-05
5.892022E+03	2.435438E-04	2.370326E-05
5.901925E+03	2.449612E-04	2.384075E-05
5.911828E+03	2.464967E-04	2.398974E-05
5.921730E+03	2.481431E-04	2.414951E-05
5.931633E+03	2.499009E-04	2.432012E-05
5.941535E+03	2.517680E-04	2.450136E-05
5.951438E+03	2.537385E-04	2.469266E-05
5.961340E+03	2.558128E-04	2.489405E-05
5.971243E+03	2.579813E-04	2.510460E-05
5.981146E+03	2.602465E-04	2.532456E-05
5.991048E+03	2.625982E-04	2.555291E-05
6.000951E+03	2.650350E-04	2.578955E-05
6.010853E+03	2.675492E-04	2.603370E-05
6.020756E+03	2.701355E-04	2.628487E-05
6.030658E+03	2.727859E-04	2.654226E-05
6.040561E+03	2.754908E-04	2.680495E-05
6.050463E+03	2.782477E-04	2.707268E-05
6.060366E+03	2.810404E-04	2.734390E-05
6.070269E+03	2.838659E-04	2.761828E-05
6.080171E+03	2.867104E-04	2.789451E-05
6.090074E+03	2.895671E-04	2.817193E-05
6.099976E+03	2.924150E-04	2.844847E-05
6.109879E+03	2.952506E-04	2.872381E-05
6.119781E+03	2.980557E-04	2.899617E-05
6.129684E+03	3.008196E-04	2.926451E-05
6.139586E+03	3.035276E-04	2.952741E-05
6.149489E+03	3.061804E-04	2.978493E-05
6.159392E+03	3.087838E-04	3.003763E-05
6.169294E+03	3.113443E-04	3.028616E-05
6.179197E+03	3.138695E-04	3.053124E-05
6.189099E+03	3.163564E-04	3.077259E-05
6.199002E+03	3.188222E-04	3.101188E-05
6.208904E+03	3.212608E-04	3.124851E-05
6.218807E+03	3.236836E-04	3.148361E-05
6.228709E+03	3.260982E-04	3.171790E-05
6.238612E+03	3.285003E-04	3.195097E-05
6.248515E+03	3.308982E-04	3.218362E-05
6.258417E+03	3.332971E-04	3.241636E-05
6.268320E+03	3.357025E-04	3.264972E-05
6.278222E+03	3.381107E-04	3.288336E-05
6.288125E+03	3.405277E-04	3.311784E-05
6.298027E+03	3.429548E-04	3.335329E-05
6.307930E+03	3.453936E-04	3.358988E-05
6.317833E+03	3.478410E-04	3.382730E-05
6.327735E+03	3.502934E-04	3.406519E-05
6.337638E+03	3.527471E-04	3.430321E-05
6.347540E+03	3.552034E-04	3.454147E-05
6.357443E+03	3.576584E-04	3.477959E-05
6.367345E+03	3.600973E-04	3.501615E-05
6.377248E+03	3.625367E-04	3.525275E-05
6.387150E+03	3.649777E-04	3.548949E-05
6.397053E+03	3.674265E-04	3.572699E-05
6.406956E+03	3.698958E-04	3.596647E-05
6.416858E+03	3.723814E-04	3.620753E-05
6.426761E+03	3.748963E-04	3.645143E-05
6.436663E+03	3.774421E-04	3.669833E-05
6.446566E+03	3.800269E-04	3.694901E-05
6.456468E+03	3.826403E-04	3.720247E-05
6.466371E+03	3.853023E-04	3.746064E-05
6.476273E+03	3.880028E-04	3.772255E-05
6.486176E+03	3.907494E-04	3.798894E-05
6.496079E+03	3.935445E-04	3.826003E-05
6.505981E+03	3.963835E-04	3.853537E-05
6.515884E+03	3.992743E-04	3.881575E-05
6.525786E+03	4.022186E-04	3.910132E-05
6.535689E+03	4.052121E-04	3.939167E-05
6.545591E+03	4.082559E-04	3.968688E-05
6.555494E+03	4.113516E-04	3.998715E-05
6.565396E+03	4.145073E-04	4.029323E-05
6.575299E+03	4.177112E-04	4.060399E-05
6.585202E+03	4.209710E-04	4.092017E-05
6.595104E+03	4.242883E-04	4.124193E-05
6.605007E+03	4.276572E-04	4.156870E-05
6.614909E+03	4.310858E-04	4.190127E-05
6.624812E+03	4.345682E-04	4.223905E-05
6.634714E+03	4.381124E-04	4.258283E-05
6.644617E+03	4.417049E-04	4.293129E-05
6.654520E+03	4.453538E-04	4.328521E-05
6.664422E+03	4.490677E-04	4.364545E-05
6.674325E+03	4.528319E-04	4.401058E-05
6.684227E+03	4.566552E-04	4.438142E-05
6.694130E+03	4.605301E-04	4.475727E-05
6.704032E+03	4.644654E-04	4.513898E-05
6.713935E+03	4.684534E-04	4.552581E-05
6.723837E+03	4.724947E-04	4.591779E-05
6.733740E+03	4.765981E-04	4.631580E-05
6.743643E+03	4.807472E-04	4.671824E-05
6.753545E+03	4.849594E-04	4.712680E-05
6.763448E+03	4.892175E-04	4.753981E-05
6.773350E+03	4.935393E-04	4.795899E-05
6.783253E+03	4.979070E-04	4.838263E-05
6.793155E+03	5.023204E-04	4.881068E-05
6.803058E+03	5.067881E-04	4.924401E-05
6.812960E+03	5.113102E-04	4.968260E-05
6.822863E+03	5.158671E-04	5.012457E-05
6.832766E+03	5.204770E-04	5.057167E-05
6.842668E+03	5.251297E-04	5.102291E-05
6.852571E+03	5.298341E-04	5.147917E-05
6.862473E+03	5.345694E-04	5.193841E-05
6.872376E+03	5.393439E-04	5.240146E-05
6.882278E+03	5.441567E-04	5.286820E-05
6.892181E+03	5.489960E-04	5.333751E-05
6.902083E+03	5.538705E-04	5.381022E-05
6.911986E+03	5.587789E-04	5.428621E-05
6.921889E+03	5.637088E-04	5.476428E-05
6.931791E+03	5.686587E-04	5.524428E-05
6.941694E+03	5.736263E-04	5.572599E-05
6.951596E+03	5.786218E-04	5.621038E-05
6.961499E+03	5.836206E-04	5.669509E-05
6.971401E+03	5.886440E-04	5.718217E-05
6.981304E+03	5.936675E-04	5.766925E-05
6.991207E+03	5.987011E-04	5.815730E-05
7.001109E+03	6.037313E-04	5.864500E-05
7.011012E+03	6.087691E-04	5.913342E-05
7.020914E+03	6.138129E-04	5.962242E-05
7.030817E+03	6.188496E-04	6.011071E-05
7.040719E+03	6.238654E-04	6.059696E-05
7.050622E+03	6.288842E-04	6.108348E-05
7.060524E+03	6.338926E-04	6.156899E-05
7.070427E+03	6.388895E-04	6.205337E-05
7.080330E+03	6.438746E-04	6.253658E-05
7.090232E+03	6.488336E-04	6.301726E-05
7.100135E+03	6.537792E-04	6.349661E-05
7.110037E+03	6.586970E-04	6.397326E-05
7.119940E+03	6.635861E-04	6.444710E-05
7.129842E+03	6.684598E-04	6.491944E-05
7.139745E+03	6.733036E-04	6.538886E-05
7.149647E+03	6.781306E-04	6.585664E-05
7.159550E+03	6.829119E-04	6.631997E-05
7.169453E+03	6.876603E-04	6.678010E-05
7.179355E+03	6.923753E-04	6.723696E-05
7.189258E+03	6.970552E-04	6.769042E-05
7.199160E+03	7.016992E-04	6.814038E-05
7.209063E+03	7.063060E-04	6.858671E-05
7.218965E+03	7.108590E-04	6.902781E-05
7.228868E+03	7.153718E-04	6.946500E-05
7.238770E+03	7.198430E-04	6.989814E-05
7.248673E+03	7.242711E-04	7.032709E-05
7.258576E+03	7.286387E-04	7.075015E-05
7.268478E+03	7.329600E-04	7.116871E-05
7.278381E+03	7.372496E-04	7.158418E-05
7.288283E+03	7.414743E-04	7.199336E-05
7.298186E+03	7.456488E-04	7.239765E-05
7.308088E+03	7.497720E-04	7.279694E-05
7.317991E+03	7.538601E-04	7.319283E-05
7.327894E+03	7.578956E-04	7.358361E-05
7.337796E+03	7.618954E-04	7.397091E-05
7.347699E+03	7.658772E-04	7.435645E-05
7.357601E+03	7.698241E-04	7.473861E-05
7.367504E+03	7.737721E-04	7.512087E-05
7.377406E+03	7.776878E-04	7.549999E-05
7.387309E+03	7.815900E-04	7.587780E-05
7.397211E+03	7.854625E-04	7.625272E-05
7.407114E+03	7.893249E-04	7.662665E-05
7.417017E+03	7.931425E-04	7.699623E-05
7.426919E+03	7.969350E-04	7.736337E-05
7.436822E+03	8.007038E-04	7.772822E-05
7.446724E+03	8.044315E-04	7.808906E-05
7.456627E+03	8.081567E-04	7.844968E-05
7.466529E+03	8.118426E-04	7.880646E-05
7.476432E+03	8.155087E-04	7.916133E-05
7.486334E+03	8.191363E-04	7.951246E-05
7.496237E+03	8.227451E-04	7.986176E-05
7.506140E+03	8.263157E-04	8.020736E-05
7.516042E+03	8.298675E-04	8.055114E-05
7.525945E+03	8.333802E-04	8.089112E-05
7.535847E+03	8.368535E-04	8.122727E-05
7.545750E+03	8.403063E-04	8.156143E-05
7.555652E+03	8.437172E-04	8.189154E-05
7.565555E+03	8.470849E-04	8.221745E-05
7.575457E+03	8.504282E-04	8.254099E-05
7.585360E+03	8.537244E-04	8.285997E-05
7.595263E+03	8.569920E-04	8.317616E-05
7.605165E+03	8.601862E-04	8.348525E-05
7.615068E+03	8.633463E-04	8.379101E-05
7.624970E+03	8.664693E-04	8.409319E-05
7.634873E+03	8.695302E-04	8.438933E-05
7.644775E+03	8.725470E-04	8.468120E-05
7.654678E+03	8.754938E-04	8.496629E-05
7.664581E+03	8.783662E-04	8.524415E-05
7.674483E+03	8.811815E-04	8.551648E-05
7.684386E+03	8.839353E-04	8.578284E-05
