#wls	flux	fluxerr
1.584409E+03	2.511997E-03	2.455908E-04
1.624020E+03	2.594367E-03	2.536398E-04
1.663630E+03	2.673896E-03	2.614106E-04
1.703240E+03	2.749349E-03	2.687827E-04
1.742850E+03	2.820472E-03	2.757311E-04
1.782461E+03	2.885891E-03	2.821214E-04
1.822071E+03	2.944702E-03	2.878654E-04
1.861681E+03	2.996460E-03	2.929196E-04
1.901291E+03	3.039682E-03	2.971391E-04
1.940902E+03	3.073640E-03	3.004527E-04
1.980512E+03	3.097141E-03	3.027438E-04
2.020122E+03	3.109533E-03	3.039488E-04
2.059732E+03	3.109371E-03	3.039265E-04
2.099342E+03	3.095658E-03	3.025796E-04
2.138953E+03	3.067458E-03	2.998166E-04
2.178563E+03	3.023274E-03	2.954912E-04
2.218173E+03	2.962025E-03	2.894981E-04
2.257783E+03	2.883917E-03	2.818573E-04
2.297394E+03	2.790227E-03	2.726939E-04
2.337004E+03	2.683976E-03	2.623032E-04
2.376614E+03	2.567681E-03	2.509313E-04
2.416224E+03	2.443562E-03	2.387954E-04
2.455835E+03	2.313882E-03	2.261164E-04
2.495445E+03	2.180104E-03	2.130376E-04
2.535055E+03	2.043850E-03	1.997174E-04
2.574665E+03	1.906493E-03	1.862900E-04
2.614276E+03	1.769432E-03	1.728922E-04
2.653886E+03	1.633800E-03	1.596348E-04
2.693496E+03	1.500712E-03	1.466266E-04
2.733106E+03	1.371185E-03	1.339669E-04
2.772716E+03	1.246137E-03	1.217457E-04
2.812327E+03	1.126417E-03	1.100457E-04
2.851937E+03	1.012826E-03	9.894502E-05
2.891547E+03	9.060501E-04	8.851089E-05
2.931157E+03	8.066667E-04	7.879952E-05
2.970768E+03	7.150756E-04	6.984995E-05
2.980670E+03	6.934428E-04	6.773620E-05
2.990573E+03	6.722957E-04	6.566995E-05
3.000475E+03	6.516629E-04	6.365396E-05
3.010378E+03	6.315257E-04	6.168641E-05
3.020280E+03	6.118947E-04	5.976834E-05
3.030183E+03	5.927775E-04	5.790049E-05
3.040086E+03	5.741441E-04	5.607993E-05
3.049988E+03	5.560260E-04	5.430973E-05
3.059891E+03	5.383933E-04	5.258697E-05
3.069793E+03	5.212630E-04	5.091331E-05
3.079696E+03	5.046172E-04	4.928700E-05
3.089598E+03	4.884506E-04	4.770753E-05
3.099501E+03	4.727753E-04	4.617607E-05
3.109403E+03	4.575658E-04	4.469012E-05
3.119306E+03	4.428411E-04	4.325156E-05
3.129209E+03	4.285683E-04	4.185716E-05
3.139111E+03	4.147643E-04	4.050857E-05
3.149014E+03	4.014058E-04	3.920351E-05
3.158916E+03	3.884994E-04	3.794263E-05
3.168819E+03	3.760297E-04	3.672442E-05
3.178721E+03	3.639948E-04	3.554871E-05
3.188624E+03	3.523860E-04	3.441461E-05
3.198526E+03	3.411943E-04	3.332128E-05
3.208429E+03	3.304050E-04	3.226727E-05
3.218332E+03	3.200204E-04	3.125280E-05
3.228234E+03	3.100256E-04	3.027641E-05
3.238137E+03	3.004163E-04	2.933770E-05
3.248039E+03	2.911779E-04	2.843521E-05
3.257942E+03	2.823011E-04	2.756807E-05
3.267844E+03	2.737809E-04	2.673575E-05
3.277747E+03	2.656030E-04	2.593688E-05
3.287650E+03	2.577624E-04	2.517097E-05
3.297552E+03	2.502487E-04	2.443699E-05
3.307455E+03	2.430453E-04	2.373332E-05
3.317357E+03	2.361500E-04	2.305976E-05
3.327260E+03	2.295498E-04	2.241502E-05
3.337162E+03	2.232359E-04	2.179825E-05
3.347065E+03	2.171988E-04	2.120853E-05
3.356967E+03	2.114241E-04	2.064443E-05
3.366870E+03	2.059091E-04	2.010570E-05
3.376773E+03	2.006425E-04	1.959124E-05
3.386675E+03	1.956135E-04	1.909999E-05
3.396578E+03	1.908145E-04	1.863121E-05
3.406480E+03	1.862378E-04	1.818415E-05
3.416383E+03	1.818717E-04	1.775764E-05
3.426285E+03	1.777115E-04	1.735126E-05
3.436188E+03	1.737461E-04	1.696390E-05
3.446090E+03	1.699694E-04	1.659498E-05
3.455993E+03	1.663735E-04	1.624371E-05
3.465896E+03	1.629506E-04	1.590935E-05
3.475798E+03	1.596938E-04	1.559120E-05
3.485701E+03	1.565961E-04	1.528859E-05
3.495603E+03	1.536495E-04	1.500074E-05
3.505506E+03	1.508463E-04	1.472690E-05
3.515408E+03	1.481811E-04	1.446653E-05
3.525311E+03	1.456470E-04	1.421898E-05
3.535213E+03	1.432393E-04	1.398377E-05
3.545116E+03	1.409505E-04	1.376016E-05
3.555019E+03	1.387762E-04	1.354774E-05
3.564921E+03	1.367112E-04	1.334600E-05
3.574824E+03	1.347532E-04	1.315470E-05
3.584726E+03	1.328958E-04	1.297322E-05
3.594629E+03	1.311356E-04	1.280125E-05
3.604531E+03	1.294658E-04	1.263810E-05
3.614434E+03	1.278836E-04	1.248350E-05
3.624337E+03	1.263850E-04	1.233707E-05
3.634239E+03	1.249663E-04	1.219843E-05
3.644142E+03	1.236250E-04	1.206736E-05
3.654044E+03	1.223588E-04	1.194362E-05
3.663947E+03	1.211643E-04	1.182688E-05
3.673849E+03	1.200404E-04	1.171703E-05
3.683752E+03	1.189837E-04	1.161375E-05
3.693654E+03	1.179944E-04	1.151705E-05
3.703557E+03	1.170702E-04	1.142670E-05
3.713460E+03	1.162090E-04	1.134250E-05
3.723362E+03	1.154098E-04	1.126436E-05
3.733265E+03	1.146725E-04	1.119226E-05
3.743167E+03	1.139950E-04	1.112600E-05
3.753070E+03	1.133772E-04	1.106556E-05
3.762972E+03	1.128170E-04	1.101075E-05
3.772875E+03	1.123134E-04	1.096147E-05
3.782777E+03	1.118663E-04	1.091769E-05
3.792680E+03	1.114755E-04	1.087941E-05
3.802583E+03	1.111390E-04	1.084643E-05
3.812485E+03	1.108575E-04	1.081883E-05
3.822388E+03	1.106283E-04	1.079632E-05
3.832290E+03	1.104529E-04	1.077907E-05
3.842193E+03	1.103285E-04	1.076679E-05
3.852095E+03	1.102569E-04	1.075966E-05
3.861998E+03	1.102359E-04	1.075748E-05
3.871900E+03	1.102656E-04	1.076024E-05
3.881803E+03	1.103449E-04	1.076784E-05
3.891706E+03	1.104737E-04	1.078026E-05
3.901608E+03	1.106510E-04	1.079742E-05
3.911511E+03	1.108775E-04	1.081939E-05
3.921413E+03	1.111514E-04	1.084597E-05
3.931316E+03	1.114726E-04	1.087717E-05
3.941218E+03	1.118402E-04	1.091290E-05
3.951121E+03	1.122549E-04	1.095322E-05
3.961024E+03	1.127159E-04	1.099805E-05
3.970926E+03	1.132221E-04	1.104729E-05
3.980829E+03	1.137726E-04	1.110086E-05
3.990731E+03	1.143683E-04	1.115884E-05
4.000634E+03	1.150075E-04	1.122105E-05
4.010536E+03	1.156910E-04	1.128759E-05
4.020439E+03	1.164171E-04	1.135827E-05
4.030341E+03	1.171857E-04	1.143311E-05
4.040244E+03	1.179969E-04	1.151210E-05
4.050147E+03	1.188500E-04	1.159517E-05
4.060049E+03	1.197440E-04	1.168223E-05
4.069952E+03	1.206780E-04	1.177320E-05
4.079854E+03	1.216533E-04	1.186818E-05
4.089757E+03	1.226680E-04	1.196701E-05
4.099659E+03	1.237222E-04	1.206969E-05
4.109562E+03	1.248142E-04	1.217605E-05
4.119464E+03	1.259441E-04	1.228610E-05
4.129367E+03	1.271121E-04	1.239987E-05
4.139270E+03	1.283164E-04	1.251718E-05
4.149172E+03	1.295571E-04	1.263804E-05
4.159075E+03	1.308325E-04	1.276227E-05
4.168977E+03	1.321427E-04	1.288989E-05
4.178880E+03	1.334857E-04	1.302072E-05
4.188782E+03	1.348618E-04	1.315476E-05
4.198685E+03	1.362690E-04	1.329184E-05
4.208587E+03	1.377063E-04	1.343184E-05
4.218490E+03	1.391715E-04	1.357457E-05
4.228393E+03	1.406649E-04	1.372003E-05
4.238295E+03	1.421841E-04	1.386801E-05
4.248198E+03	1.437280E-04	1.401840E-05
4.258100E+03	1.452943E-04	1.417096E-05
4.268003E+03	1.468804E-04	1.432546E-05
4.277905E+03	1.484850E-04	1.448176E-05
4.287808E+03	1.501067E-04	1.463971E-05
4.297711E+03	1.517427E-04	1.479905E-05
4.307613E+03	1.533913E-04	1.495962E-05
4.317516E+03	1.550497E-04	1.512114E-05
4.327418E+03	1.567172E-04	1.528354E-05
4.337321E+03	1.583920E-04	1.544665E-05
4.347223E+03	1.600762E-04	1.561067E-05
4.357126E+03	1.617679E-04	1.577542E-05
4.367028E+03	1.634680E-04	1.594097E-05
4.376931E+03	1.651760E-04	1.610730E-05
4.386834E+03	1.668944E-04	1.627463E-05
4.396736E+03	1.686214E-04	1.644280E-05
4.406639E+03	1.703567E-04	1.661178E-05
4.416541E+03	1.721016E-04	1.678168E-05
4.426444E+03	1.738560E-04	1.695250E-05
4.436346E+03	1.756196E-04	1.712422E-05
4.446249E+03	1.773910E-04	1.729669E-05
4.456151E+03	1.791717E-04	1.747006E-05
4.466054E+03	1.809602E-04	1.764418E-05
4.475957E+03	1.827564E-04	1.781906E-05
4.485859E+03	1.845606E-04	1.799470E-05
4.495762E+03	1.863698E-04	1.817082E-05
4.505664E+03	1.881858E-04	1.834761E-05
4.515567E+03	1.900073E-04	1.852493E-05
4.525469E+03	1.918348E-04	1.870282E-05
4.535372E+03	1.936650E-04	1.888098E-05
4.545274E+03	1.955004E-04	1.905963E-05
4.555177E+03	1.973380E-04	1.923850E-05
4.565080E+03	1.991802E-04	1.941780E-05
4.574982E+03	2.010243E-04	1.959729E-05
4.584885E+03	2.028712E-04	1.977704E-05
4.594787E+03	2.047196E-04	1.995693E-05
4.604690E+03	2.065728E-04	2.013728E-05
4.614592E+03	2.084278E-04	2.031781E-05
4.624495E+03	2.102881E-04	2.049885E-05
4.634398E+03	2.121532E-04	2.068034E-05
4.644300E+03	2.140225E-04	2.086224E-05
4.654203E+03	2.158994E-04	2.104487E-05
4.664105E+03	2.177820E-04	2.122806E-05
4.674008E+03	2.196721E-04	2.141196E-05
4.683910E+03	2.215675E-04	2.159638E-05
4.693813E+03	2.234703E-04	2.178151E-05
4.703715E+03	2.253760E-04	2.196692E-05
4.713618E+03	2.272868E-04	2.215283E-05
4.723521E+03	2.292008E-04	2.233903E-05
4.733423E+03	2.311200E-04	2.252574E-05
4.743326E+03	2.330420E-04	2.271271E-05
4.753228E+03	2.349673E-04	2.290000E-05
4.763131E+03	2.368956E-04	2.308757E-05
4.773033E+03	2.388270E-04	2.327544E-05
4.782936E+03	2.407615E-04	2.346360E-05
4.792838E+03	2.426970E-04	2.365186E-05
4.802741E+03	2.446355E-04	2.384040E-05
4.812644E+03	2.465773E-04	2.402925E-05
4.822546E+03	2.485197E-04	2.421816E-05
4.832449E+03	2.504629E-04	2.440714E-05
4.842351E+03	2.524089E-04	2.459638E-05
4.852254E+03	2.543527E-04	2.478540E-05
4.862156E+03	2.562987E-04	2.497463E-05
4.872059E+03	2.582445E-04	2.516383E-05
4.881961E+03	2.601869E-04	2.535270E-05
4.891864E+03	2.621279E-04	2.554142E-05
4.901767E+03	2.640668E-04	2.572993E-05
4.911669E+03	2.660003E-04	2.591791E-05
4.921572E+03	2.679300E-04	2.610551E-05
4.931474E+03	2.698498E-04	2.629214E-05
4.941377E+03	2.717636E-04	2.647818E-05
4.951279E+03	2.736676E-04	2.666325E-05
4.961182E+03	2.755574E-04	2.684693E-05
4.971085E+03	2.774345E-04	2.702937E-05
4.980987E+03	2.792938E-04	2.721007E-05
4.990890E+03	2.811339E-04	2.738889E-05
5.000792E+03	2.829523E-04	2.756559E-05
5.010695E+03	2.847468E-04	2.773996E-05
5.020597E+03	2.865126E-04	2.791151E-05
5.030500E+03	2.882494E-04	2.808025E-05
5.040402E+03	2.899521E-04	2.824565E-05
5.050305E+03	2.916179E-04	2.840745E-05
5.060208E+03	2.932409E-04	2.856507E-05
5.070110E+03	2.948209E-04	2.871850E-05
5.080013E+03	2.963492E-04	2.886689E-05
5.089915E+03	2.978281E-04	2.901046E-05
5.099818E+03	2.992489E-04	2.914836E-05
5.109720E+03	3.006109E-04	2.928053E-05
5.119623E+03	3.019078E-04	2.940636E-05
5.129525E+03	3.031333E-04	2.952522E-05
5.139428E+03	3.042868E-04	2.963706E-05
5.149331E+03	3.053619E-04	2.974127E-05
5.159233E+03	3.063549E-04	2.983747E-05
5.169136E+03	3.072624E-04	2.992534E-05
5.179038E+03	3.080780E-04	3.000426E-05
5.188941E+03	3.087979E-04	3.007386E-05
5.198843E+03	3.094158E-04	3.013351E-05
5.208746E+03	3.099315E-04	3.018321E-05
5.218648E+03	3.103389E-04	3.022236E-05
5.228551E+03	3.106347E-04	3.025064E-05
5.238454E+03	3.108162E-04	3.026779E-05
5.248356E+03	3.108779E-04	3.027327E-05
5.258259E+03	3.108173E-04	3.026683E-05
5.268161E+03	3.106326E-04	3.024832E-05
5.278064E+03	3.103222E-04	3.021757E-05
5.287966E+03	3.098821E-04	3.017418E-05
5.297869E+03	3.093148E-04	3.011841E-05
5.307772E+03	3.086202E-04	3.005024E-05
5.317674E+03	3.077989E-04	2.996974E-05
5.327577E+03	3.068492E-04	2.987673E-05
5.337479E+03	3.057790E-04	2.977200E-05
5.347382E+03	3.045879E-04	2.965551E-05
5.357284E+03	3.032857E-04	2.952819E-05
5.367187E+03	3.018729E-04	2.939011E-05
5.377089E+03	3.003577E-04	2.924207E-05
5.386992E+03	2.987457E-04	2.908460E-05
5.396895E+03	2.970489E-04	2.891889E-05
5.406797E+03	2.952715E-04	2.874533E-05
5.416700E+03	2.934177E-04	2.856434E-05
5.426602E+03	2.914900E-04	2.837617E-05
5.436505E+03	2.894973E-04	2.818166E-05
5.446407E+03	2.874430E-04	2.798117E-05
5.456310E+03	2.853340E-04	2.777537E-05
5.466212E+03	2.831776E-04	2.756495E-05
5.476115E+03	2.809812E-04	2.735065E-05
5.486018E+03	2.787525E-04	2.713321E-05
5.495920E+03	2.765021E-04	2.691367E-05
5.505823E+03	2.742380E-04	2.669280E-05
5.515725E+03	2.719730E-04	2.647185E-05
5.525628E+03	2.697117E-04	2.625126E-05
5.535530E+03	2.674695E-04	2.603255E-05
5.545433E+03	2.652503E-04	2.581608E-05
5.555335E+03	2.630655E-04	2.560296E-05
5.565238E+03	2.609261E-04	2.539427E-05
5.575141E+03	2.588345E-04	2.519024E-05
5.585043E+03	2.568057E-04	2.499233E-05
5.594946E+03	2.548435E-04	2.480091E-05
5.604848E+03	2.529509E-04	2.461626E-05
5.614751E+03	2.511410E-04	2.443968E-05
5.624653E+03	2.494129E-04	2.427105E-05
5.634556E+03	2.477734E-04	2.411105E-05
5.644459E+03	2.462281E-04	2.396024E-05
5.654361E+03	2.447799E-04	2.381886E-05
5.664264E+03	2.434313E-04	2.368718E-05
5.674166E+03	2.421840E-04	2.356538E-05
5.684069E+03	2.410423E-04	2.345384E-05
5.693971E+03	2.400101E-04	2.335297E-05
5.703874E+03	2.390832E-04	2.326235E-05
5.713776E+03	2.382702E-04	2.318280E-05
5.723679E+03	2.375665E-04	2.311389E-05
5.733582E+03	2.369778E-04	2.305619E-05
5.743484E+03	2.365023E-04	2.300948E-05
5.753387E+03	2.361424E-04	2.297404E-05
5.763289E+03	2.358987E-04	2.294990E-05
5.773192E+03	2.357739E-04	2.293732E-05
5.783094E+03	2.357658E-04	2.293609E-05
5.792997E+03	2.358744E-04	2.294622E-05
5.802899E+03	2.361024E-04	2.296797E-05
5.812802E+03	2.364524E-04	2.300158E-05
5.822705E+03	2.369191E-04	2.304655E-05
5.832607E+03	2.375077E-04	2.310337E-05
5.842510E+03	2.382154E-04	2.317177E-05
5.852412E+03	2.390443E-04	2.325195E-05
5.862315E+03	2.399939E-04	2.334389E-05
5.872217E+03	2.410610E-04	2.344724E-05
5.882120E+03	2.422475E-04	2.356219E-05
5.892022E+03	2.435521E-04	2.368863E-05
5.901925E+03	2.449707E-04	2.382616E-05
5.911828E+03	2.465078E-04	2.397521E-05
5.921730E+03	2.481555E-04	2.413500E-05
5.931633E+03	2.499150E-04	2.430567E-05
5.941535E+03	2.517836E-04	2.448694E-05
5.951438E+03	2.537559E-04	2.467828E-05
5.961340E+03	2.558320E-04	2.487972E-05
5.971243E+03	2.580021E-04	2.509029E-05
5.981146E+03	2.602692E-04	2.531028E-05
5.991048E+03	2.626227E-04	2.553867E-05
6.000951E+03	2.650613E-04	2.577533E-05
6.010853E+03	2.675774E-04	2.601951E-05
6.020756E+03	2.701657E-04	2.627071E-05
6.030658E+03	2.728178E-04	2.652810E-05
6.040561E+03	2.755249E-04	2.679083E-05
6.050463E+03	2.782836E-04	2.705857E-05
6.060366E+03	2.810785E-04	2.732981E-05
6.070269E+03	2.839057E-04	2.760419E-05
6.080171E+03	2.867521E-04	2.788043E-05
6.090074E+03	2.896109E-04	2.815787E-05
6.099976E+03	2.924607E-04	2.843442E-05
6.109879E+03	2.952981E-04	2.870975E-05
6.119781E+03	2.981051E-04	2.898212E-05
6.129684E+03	3.008708E-04	2.925046E-05
6.139586E+03	3.035805E-04	2.951335E-05
6.149489E+03	3.062349E-04	2.977087E-05
6.159392E+03	3.088399E-04	3.002356E-05
6.169294E+03	3.114018E-04	3.027206E-05
6.179197E+03	3.139287E-04	3.051714E-05
6.189099E+03	3.164168E-04	3.075846E-05
6.199002E+03	3.188838E-04	3.099771E-05
6.208904E+03	3.213238E-04	3.123433E-05
6.218807E+03	3.237479E-04	3.146940E-05
6.228709E+03	3.261637E-04	3.170365E-05
6.238612E+03	3.285667E-04	3.193665E-05
6.248515E+03	3.309658E-04	3.216927E-05
6.258417E+03	3.333657E-04	3.240196E-05
6.268320E+03	3.357720E-04	3.263526E-05
6.278222E+03	3.381811E-04	3.286883E-05
6.288125E+03	3.405990E-04	3.310325E-05
6.298027E+03	3.430270E-04	3.333864E-05
6.307930E+03	3.454666E-04	3.357515E-05
6.317833E+03	3.479147E-04	3.381248E-05
6.327735E+03	3.503679E-04	3.405030E-05
6.337638E+03	3.528222E-04	3.428822E-05
6.347540E+03	3.552791E-04	3.452639E-05
6.357443E+03	3.577348E-04	3.476443E-05
6.367345E+03	3.601744E-04	3.500089E-05
6.377248E+03	3.626145E-04	3.523740E-05
6.387150E+03	3.650559E-04	3.547403E-05
6.397053E+03	3.675052E-04	3.571143E-05
6.406956E+03	3.699750E-04	3.595081E-05
6.416858E+03	3.724612E-04	3.619177E-05
6.426761E+03	3.749765E-04	3.643555E-05
6.436663E+03	3.775229E-04	3.668235E-05
6.446566E+03	3.801078E-04	3.693288E-05
6.456468E+03	3.827218E-04	3.718623E-05
6.466371E+03	3.853842E-04	3.744427E-05
6.476273E+03	3.880850E-04	3.770604E-05
6.486176E+03	3.908322E-04	3.797231E-05
6.496079E+03	3.936276E-04	3.824325E-05
6.505981E+03	3.964669E-04	3.851845E-05
6.515884E+03	3.993580E-04	3.879868E-05
6.525786E+03	4.023027E-04	3.908410E-05
6.535689E+03	4.052965E-04	3.937429E-05
6.545591E+03	4.083405E-04	3.966934E-05
6.555494E+03	4.114365E-04	3.996944E-05
6.565396E+03	4.145927E-04	4.027537E-05
6.575299E+03	4.177967E-04	4.058594E-05
6.585202E+03	4.210568E-04	4.090195E-05
6.595104E+03	4.243745E-04	4.122354E-05
6.605007E+03	4.277435E-04	4.155011E-05
6.614909E+03	4.311724E-04	4.188248E-05
6.624812E+03	4.346550E-04	4.222007E-05
6.634714E+03	4.381997E-04	4.256367E-05
6.644617E+03	4.417922E-04	4.291191E-05
6.654520E+03	4.454413E-04	4.326563E-05
6.664422E+03	4.491555E-04	4.362566E-05
6.674325E+03	4.529199E-04	4.399056E-05
6.684227E+03	4.567434E-04	4.436119E-05
6.694130E+03	4.606184E-04	4.473681E-05
6.704032E+03	4.645537E-04	4.511827E-05
6.713935E+03	4.685418E-04	4.550485E-05
6.723837E+03	4.725834E-04	4.589662E-05
6.733740E+03	4.766870E-04	4.629439E-05
6.743643E+03	4.808361E-04	4.669657E-05
6.753545E+03	4.850483E-04	4.710486E-05
6.763448E+03	4.893065E-04	4.751761E-05
6.773350E+03	4.936285E-04	4.793654E-05
6.783253E+03	4.979961E-04	4.835990E-05
6.793155E+03	5.024096E-04	4.878769E-05
6.803058E+03	5.068773E-04	4.922073E-05
6.812960E+03	5.113995E-04	4.965905E-05
6.822863E+03	5.159564E-04	5.010073E-05
6.832766E+03	5.205663E-04	5.054755E-05
6.842668E+03	5.252189E-04	5.099849E-05
6.852571E+03	5.299232E-04	5.145444E-05
6.862473E+03	5.346585E-04	5.191338E-05
6.872376E+03	5.394329E-04	5.237612E-05
6.882278E+03	5.442456E-04	5.284255E-05
6.892181E+03	5.490846E-04	5.331153E-05
6.902083E+03	5.539590E-04	5.378392E-05
6.911986E+03	5.588673E-04	5.425960E-05
6.921889E+03	5.637969E-04	5.473733E-05
6.931791E+03	5.687465E-04	5.521699E-05
6.941694E+03	5.737139E-04	5.569836E-05
6.951596E+03	5.787090E-04	5.618241E-05
6.961499E+03	5.837074E-04	5.666676E-05
6.971401E+03	5.887303E-04	5.715348E-05
6.981304E+03	5.937533E-04	5.764020E-05
6.991207E+03	5.987863E-04	5.812787E-05
7.001109E+03	6.038162E-04	5.861523E-05
7.011012E+03	6.088531E-04	5.910325E-05
7.020914E+03	6.138963E-04	5.959187E-05
7.030817E+03	6.189323E-04	6.007978E-05
7.040719E+03	6.239475E-04	6.056566E-05
7.050622E+03	6.289654E-04	6.105179E-05
7.060524E+03	6.339730E-04	6.153690E-05
7.070427E+03	6.389692E-04	6.202089E-05
7.080330E+03	6.439532E-04	6.250370E-05
7.090232E+03	6.489113E-04	6.298397E-05
7.100135E+03	6.538557E-04	6.346289E-05
7.110037E+03	6.587725E-04	6.393914E-05
7.119940E+03	6.636606E-04	6.441258E-05
7.129842E+03	6.685332E-04	6.488450E-05
7.139745E+03	6.733758E-04	6.535351E-05
7.149647E+03	6.782017E-04	6.582088E-05
7.159550E+03	6.829817E-04	6.628378E-05
7.169453E+03	6.877288E-04	6.674349E-05
7.179355E+03	6.924424E-04	6.719993E-05
7.189258E+03	6.971211E-04	6.765297E-05
7.199160E+03	7.017638E-04	6.810251E-05
7.209063E+03	7.063693E-04	6.854843E-05
7.218965E+03	7.109209E-04	6.898911E-05
7.228868E+03	7.154322E-04	6.942588E-05
7.238770E+03	7.199020E-04	6.985860E-05
7.248673E+03	7.243285E-04	7.028711E-05
7.258576E+03	7.286946E-04	7.070976E-05
7.268478E+03	7.330143E-04	7.112790E-05
7.278381E+03	7.373025E-04	7.154297E-05
7.288283E+03	7.415255E-04	7.195171E-05
7.298186E+03	7.456982E-04	7.235557E-05
7.308088E+03	7.498198E-04	7.275445E-05
7.317991E+03	7.539062E-04	7.314992E-05
7.327894E+03	7.579400E-04	7.354027E-05
7.337796E+03	7.619381E-04	7.392716E-05
7.347699E+03	7.659178E-04	7.431225E-05
7.357601E+03	7.698629E-04	7.469400E-05
7.367504E+03	7.738091E-04	7.507583E-05
7.377406E+03	7.777226E-04	7.545450E-05
7.387309E+03	7.816230E-04	7.583188E-05
7.397211E+03	7.854935E-04	7.620637E-05
7.407114E+03	7.893537E-04	7.657985E-05
7.417017E+03	7.931695E-04	7.694902E-05
7.426919E+03	7.969597E-04	7.731571E-05
7.436822E+03	8.007265E-04	7.768012E-05
7.446724E+03	8.044522E-04	7.804054E-05
7.456627E+03	8.081750E-04	7.840069E-05
7.466529E+03	8.118589E-04	7.875705E-05
7.476432E+03	8.155228E-04	7.911148E-05
7.486334E+03	8.191482E-04	7.946217E-05
7.496237E+03	8.227548E-04	7.981103E-05
7.506140E+03	8.263232E-04	8.015620E-05
7.516042E+03	8.298728E-04	8.049954E-05
7.525945E+03	8.333834E-04	8.083909E-05
7.535847E+03	8.368544E-04	8.117481E-05
7.545750E+03	8.403050E-04	8.150855E-05
7.555652E+03	8.437138E-04	8.183824E-05
7.565555E+03	8.470794E-04	8.216373E-05
7.575457E+03	8.504204E-04	8.248685E-05
7.585360E+03	8.537144E-04	8.280540E-05
7.595263E+03	8.569798E-04	8.312118E-05
7.605165E+03	8.601719E-04	8.342986E-05
7.615068E+03	8.633298E-04	8.373522E-05
7.624970E+03	8.664507E-04	8.403700E-05
7.634873E+03	8.695097E-04	8.433276E-05
7.644775E+03	8.725243E-04	8.462424E-05
7.654678E+03	8.754689E-04	8.490893E-05
7.664581E+03	8.783394E-04	8.518642E-05
7.674483E+03	8.811526E-04	8.545838E-05
7.684386E+03	8.839045E-04	8.572438E-05
