#wls	flux	fluxerr
1.584409E+03	2.165017E-03	7.400927E-04
1.624020E+03	2.239226E-03	7.649791E-04
1.663630E+03	2.311703E-03	7.892296E-04
1.703240E+03	2.381437E-03	8.124986E-04
1.742850E+03	2.448249E-03	8.347256E-04
1.782461E+03	2.510979E-03	8.555163E-04
1.822071E+03	2.568867E-03	8.746128E-04
1.861681E+03	2.621531E-03	8.918879E-04
1.901291E+03	2.667667E-03	9.069006E-04
1.940902E+03	2.706600E-03	9.194259E-04
1.980512E+03	2.737231E-03	9.290949E-04
2.020122E+03	2.758899E-03	9.356896E-04
2.059732E+03	2.770215E-03	9.387456E-04
2.099342E+03	2.770140E-03	9.379199E-04
2.138953E+03	2.757660E-03	9.328782E-04
2.178563E+03	2.731203E-03	9.231011E-04
2.218173E+03	2.689531E-03	9.081831E-04
2.257783E+03	2.632532E-03	8.881008E-04
2.297394E+03	2.561050E-03	8.631549E-04
2.337004E+03	2.477549E-03	8.341900E-04
2.376614E+03	2.384073E-03	8.019074E-04
2.416224E+03	2.282424E-03	7.669247E-04
2.455835E+03	2.174499E-03	7.298887E-04
2.495445E+03	2.061486E-03	6.912075E-04
2.535055E+03	1.944762E-03	6.513499E-04
2.574665E+03	1.825519E-03	6.107213E-04
2.614276E+03	1.705011E-03	5.697464E-04
2.653886E+03	1.584287E-03	5.287798E-04
2.693496E+03	1.464417E-03	4.881811E-04
2.733106E+03	1.346417E-03	4.482905E-04
2.772716E+03	1.231244E-03	4.094266E-04
2.812327E+03	1.119815E-03	3.718934E-04
2.851937E+03	1.013024E-03	3.359855E-04
2.891547E+03	9.116734E-04	3.019648E-04
2.931157E+03	8.164594E-04	2.700573E-04
2.970768E+03	7.279013E-04	2.404285E-04
2.980670E+03	7.068628E-04	2.333967E-04
2.990573E+03	6.862473E-04	2.265090E-04
3.000475E+03	6.660857E-04	2.197756E-04
3.010378E+03	6.463604E-04	2.131905E-04
3.020280E+03	6.270837E-04	2.067577E-04
3.030183E+03	6.082655E-04	2.004803E-04
3.040086E+03	5.898759E-04	1.943482E-04
3.049988E+03	5.719493E-04	1.883728E-04
3.059891E+03	5.544567E-04	1.825442E-04
3.069793E+03	5.374168E-04	1.768686E-04
3.079696E+03	5.208143E-04	1.713408E-04
3.089598E+03	5.046451E-04	1.659592E-04
3.099501E+03	4.889257E-04	1.607293E-04
3.109403E+03	4.736330E-04	1.556432E-04
3.119306E+03	4.587907E-04	1.507086E-04
3.129209E+03	4.443689E-04	1.459155E-04
3.139111E+03	4.303889E-04	1.412708E-04
3.149014E+03	4.168304E-04	1.367677E-04
3.158916E+03	4.037045E-04	1.324097E-04
3.168819E+03	3.909981E-04	1.281923E-04
3.178721E+03	3.787133E-04	1.241162E-04
3.188624E+03	3.668443E-04	1.201792E-04
3.198526E+03	3.553853E-04	1.163793E-04
3.208429E+03	3.443245E-04	1.127126E-04
3.218332E+03	3.336674E-04	1.091806E-04
3.228234E+03	3.234017E-04	1.057793E-04
3.238137E+03	3.135254E-04	1.025077E-04
3.248039E+03	3.040256E-04	9.936166E-05
3.257942E+03	2.948947E-04	9.633846E-05
3.267844E+03	2.861286E-04	9.343668E-05
3.277747E+03	2.777141E-04	9.065181E-05
3.287650E+03	2.696465E-04	8.798226E-05
3.297552E+03	2.619162E-04	8.542471E-05
3.307455E+03	2.545065E-04	8.297363E-05
3.317357E+03	2.474151E-04	8.062817E-05
3.327260E+03	2.406295E-04	7.838409E-05
3.337162E+03	2.341403E-04	7.623824E-05
3.347065E+03	2.279378E-04	7.418739E-05
3.356967E+03	2.220076E-04	7.222666E-05
3.366870E+03	2.163465E-04	7.035499E-05
3.376773E+03	2.109432E-04	6.856857E-05
3.386675E+03	2.057861E-04	6.686353E-05
3.396578E+03	2.008670E-04	6.523714E-05
3.406480E+03	1.961785E-04	6.368686E-05
3.416383E+03	1.917078E-04	6.220847E-05
3.426285E+03	1.874499E-04	6.080027E-05
3.436188E+03	1.833935E-04	5.945851E-05
3.446090E+03	1.795321E-04	5.818100E-05
3.455993E+03	1.758574E-04	5.696497E-05
3.465896E+03	1.723616E-04	5.580781E-05
3.475798E+03	1.690372E-04	5.470707E-05
3.485701E+03	1.658775E-04	5.366044E-05
3.495603E+03	1.628739E-04	5.266514E-05
3.505506E+03	1.600187E-04	5.171861E-05
3.515408E+03	1.573064E-04	5.081899E-05
3.525311E+03	1.547301E-04	4.996397E-05
3.535213E+03	1.522848E-04	4.915193E-05
3.545116E+03	1.499627E-04	4.838030E-05
3.555019E+03	1.477598E-04	4.764767E-05
3.564921E+03	1.456703E-04	4.695221E-05
3.574824E+03	1.436921E-04	4.629314E-05
3.584726E+03	1.418186E-04	4.566831E-05
3.594629E+03	1.400465E-04	4.507659E-05
3.604531E+03	1.383685E-04	4.451564E-05
3.614434E+03	1.367819E-04	4.398450E-05
3.624337E+03	1.352827E-04	4.348187E-05
3.634239E+03	1.338671E-04	4.300648E-05
3.644142E+03	1.325327E-04	4.255753E-05
3.654044E+03	1.312772E-04	4.213425E-05
3.663947E+03	1.300971E-04	4.173549E-05
3.673849E+03	1.289915E-04	4.136090E-05
3.683752E+03	1.279569E-04	4.100936E-05
3.693654E+03	1.269936E-04	4.068091E-05
3.703557E+03	1.260994E-04	4.037481E-05
3.713460E+03	1.252720E-04	4.009033E-05
3.723362E+03	1.245105E-04	3.982712E-05
3.733265E+03	1.238148E-04	3.958515E-05
3.743167E+03	1.231829E-04	3.936371E-05
3.753070E+03	1.226147E-04	3.916276E-05
3.762972E+03	1.221082E-04	3.898160E-05
3.772875E+03	1.216622E-04	3.881990E-05
3.782777E+03	1.212770E-04	3.867763E-05
3.792680E+03	1.209524E-04	3.855477E-05
3.802583E+03	1.206865E-04	3.845068E-05
3.812485E+03	1.204804E-04	3.836565E-05
3.822388E+03	1.203312E-04	3.829873E-05
3.832290E+03	1.202409E-04	3.825055E-05
3.842193E+03	1.202065E-04	3.822014E-05
3.852095E+03	1.202301E-04	3.820811E-05
3.861998E+03	1.203098E-04	3.821383E-05
3.871900E+03	1.204455E-04	3.823727E-05
3.881803E+03	1.206363E-04	3.827807E-05
3.891706E+03	1.208821E-04	3.833622E-05
3.901608E+03	1.211819E-04	3.841136E-05
3.911511E+03	1.215367E-04	3.850376E-05
3.921413E+03	1.219444E-04	3.861276E-05
3.931316E+03	1.224051E-04	3.873832E-05
3.941218E+03	1.229176E-04	3.888010E-05
3.951121E+03	1.234829E-04	3.903835E-05
3.961024E+03	1.241000E-04	3.921271E-05
3.970926E+03	1.247678E-04	3.940284E-05
3.980829E+03	1.254853E-04	3.960839E-05
3.990731E+03	1.262534E-04	3.982962E-05
4.000634E+03	1.270701E-04	4.006587E-05
4.010536E+03	1.279364E-04	4.031744E-05
4.020439E+03	1.288504E-04	4.058368E-05
4.030341E+03	1.298121E-04	4.086458E-05
4.040244E+03	1.308216E-04	4.116014E-05
4.050147E+03	1.318780E-04	4.147007E-05
4.060049E+03	1.329804E-04	4.179406E-05
4.069952E+03	1.341280E-04	4.213181E-05
4.079854E+03	1.353220E-04	4.248370E-05
4.089757E+03	1.365604E-04	4.284910E-05
4.099659E+03	1.378437E-04	4.322806E-05
4.109562E+03	1.391697E-04	4.361997E-05
4.119464E+03	1.405389E-04	4.402488E-05
4.129367E+03	1.419514E-04	4.444285E-05
4.139270E+03	1.434054E-04	4.487327E-05
4.149172E+03	1.449012E-04	4.531620E-05
4.159075E+03	1.464368E-04	4.577103E-05
4.168977E+03	1.480125E-04	4.623783E-05
4.178880E+03	1.496265E-04	4.671598E-05
4.188782E+03	1.512791E-04	4.720556E-05
4.198685E+03	1.529682E-04	4.770594E-05
4.208587E+03	1.546931E-04	4.821683E-05
4.218490E+03	1.564517E-04	4.873756E-05
4.228393E+03	1.582442E-04	4.926822E-05
4.238295E+03	1.600685E-04	4.980811E-05
4.248198E+03	1.619236E-04	5.035689E-05
4.258100E+03	1.638071E-04	5.091383E-05
4.268003E+03	1.657166E-04	5.147813E-05
4.277905E+03	1.676507E-04	5.204937E-05
4.287808E+03	1.696081E-04	5.262711E-05
4.297711E+03	1.715858E-04	5.321043E-05
4.307613E+03	1.735822E-04	5.379884E-05
4.317516E+03	1.755943E-04	5.439133E-05
4.327418E+03	1.776214E-04	5.498776E-05
4.337321E+03	1.796617E-04	5.558750E-05
4.347223E+03	1.817175E-04	5.619128E-05
4.357126E+03	1.837867E-04	5.679847E-05
4.367028E+03	1.858704E-04	5.740936E-05
4.376931E+03	1.879679E-04	5.802376E-05
4.386834E+03	1.900820E-04	5.864249E-05
4.396736E+03	1.922107E-04	5.926497E-05
4.406639E+03	1.943536E-04	5.989103E-05
4.416541E+03	1.965120E-04	6.052106E-05
4.426444E+03	1.986860E-04	6.115513E-05
4.436346E+03	2.008753E-04	6.179308E-05
4.446249E+03	2.030782E-04	6.243444E-05
4.456151E+03	2.052960E-04	6.307959E-05
4.466054E+03	2.075275E-04	6.372811E-05
4.475957E+03	2.097722E-04	6.437989E-05
4.485859E+03	2.120304E-04	6.503500E-05
4.495762E+03	2.142982E-04	6.569220E-05
4.505664E+03	2.165777E-04	6.635221E-05
4.515567E+03	2.188671E-04	6.701436E-05
4.525469E+03	2.211665E-04	6.767879E-05
4.535372E+03	2.234724E-04	6.834431E-05
4.545274E+03	2.257870E-04	6.901169E-05
4.555177E+03	2.281071E-04	6.967987E-05
4.565080E+03	2.304348E-04	7.034956E-05
4.574982E+03	2.327671E-04	7.101975E-05
4.584885E+03	2.351047E-04	7.169075E-05
4.594787E+03	2.374465E-04	7.236213E-05
4.604690E+03	2.397958E-04	7.303495E-05
4.614592E+03	2.421497E-04	7.370828E-05
4.624495E+03	2.445117E-04	7.438322E-05
4.634398E+03	2.468814E-04	7.505961E-05
4.644300E+03	2.492583E-04	7.573733E-05
4.654203E+03	2.516467E-04	7.641766E-05
4.664105E+03	2.540440E-04	7.709978E-05
4.674008E+03	2.564524E-04	7.778440E-05
4.683910E+03	2.588701E-04	7.847092E-05
4.693813E+03	2.612991E-04	7.915999E-05
4.703715E+03	2.637353E-04	7.985032E-05
4.713618E+03	2.661814E-04	8.054272E-05
4.723521E+03	2.686352E-04	8.123654E-05
4.733423E+03	2.710996E-04	8.193266E-05
4.743326E+03	2.735724E-04	8.263038E-05
4.753228E+03	2.760541E-04	8.332986E-05
4.763131E+03	2.785445E-04	8.403105E-05
4.773033E+03	2.810445E-04	8.473417E-05
4.782936E+03	2.835536E-04	8.543911E-05
4.792838E+03	2.860699E-04	8.614526E-05
4.802741E+03	2.885960E-04	8.685340E-05
4.812644E+03	2.911320E-04	8.756357E-05
4.822546E+03	2.936756E-04	8.827507E-05
4.832449E+03	2.962267E-04	8.898789E-05
4.842351E+03	2.987885E-04	8.970290E-05
4.852254E+03	3.013556E-04	9.041858E-05
4.862156E+03	3.039338E-04	9.113657E-05
4.872059E+03	3.065199E-04	9.185597E-05
4.881961E+03	3.091113E-04	9.257596E-05
4.891864E+03	3.117104E-04	9.329729E-05
4.901767E+03	3.143166E-04	9.401973E-05
4.911669E+03	3.169262E-04	9.474220E-05
4.921572E+03	3.195413E-04	9.546529E-05
4.931474E+03	3.221544E-04	9.618681E-05
4.941377E+03	3.247703E-04	9.690816E-05
4.951279E+03	3.273841E-04	9.762787E-05
4.961182E+03	3.299907E-04	9.834444E-05
4.971085E+03	3.325908E-04	9.905805E-05
4.980987E+03	3.351784E-04	9.976698E-05
4.990890E+03	3.377512E-04	1.004705E-04
5.000792E+03	3.403056E-04	1.011675E-04
5.010695E+03	3.428381E-04	1.018571E-04
5.020597E+03	3.453418E-04	1.025371E-04
5.030500E+03	3.478158E-04	1.032074E-04
5.040402E+03	3.502524E-04	1.038656E-04
5.050305E+03	3.526469E-04	1.045104E-04
5.060208E+03	3.549914E-04	1.051394E-04
5.070110E+03	3.572845E-04	1.057523E-04
5.080013E+03	3.595145E-04	1.063457E-04
5.089915E+03	3.616837E-04	1.069202E-04
5.099818E+03	3.637806E-04	1.074725E-04
5.109720E+03	3.658039E-04	1.080023E-04
5.119623E+03	3.677457E-04	1.085072E-04
5.129525E+03	3.695979E-04	1.089850E-04
5.139428E+03	3.713593E-04	1.094353E-04
5.149331E+03	3.730216E-04	1.098557E-04
5.159233E+03	3.745804E-04	1.102450E-04
5.169136E+03	3.760308E-04	1.106018E-04
5.179038E+03	3.773642E-04	1.109236E-04
5.188941E+03	3.785755E-04	1.112090E-04
5.198843E+03	3.796560E-04	1.114556E-04
5.208746E+03	3.806045E-04	1.116630E-04
5.218648E+03	3.814117E-04	1.118286E-04
5.228551E+03	3.820728E-04	1.119511E-04
5.238454E+03	3.825819E-04	1.120288E-04
5.248356E+03	3.829306E-04	1.120593E-04
5.258259E+03	3.831135E-04	1.120413E-04
5.268161E+03	3.831262E-04	1.119733E-04
5.278064E+03	3.829638E-04	1.118543E-04
5.287966E+03	3.826188E-04	1.116820E-04
5.297869E+03	3.820914E-04	1.114566E-04
5.307772E+03	3.813790E-04	1.111774E-04
5.317674E+03	3.804798E-04	1.108441E-04
5.327577E+03	3.793890E-04	1.104554E-04
5.337479E+03	3.781148E-04	1.100137E-04
5.347382E+03	3.766551E-04	1.095186E-04
5.357284E+03	3.750207E-04	1.089732E-04
5.367187E+03	3.732124E-04	1.083780E-04
5.377089E+03	3.712409E-04	1.077361E-04
5.386992E+03	3.691137E-04	1.070498E-04
5.396895E+03	3.668477E-04	1.063241E-04
5.406797E+03	3.644505E-04	1.055613E-04
5.416700E+03	3.619309E-04	1.047640E-04
5.426602E+03	3.592958E-04	1.039342E-04
5.436505E+03	3.565608E-04	1.030765E-04
5.446407E+03	3.537352E-04	1.021938E-04
5.456310E+03	3.508333E-04	1.012901E-04
5.466212E+03	3.478702E-04	1.003699E-04
5.476115E+03	3.448615E-04	9.943763E-05
5.486018E+03	3.418231E-04	9.849802E-05
5.495920E+03	3.387751E-04	9.755680E-05
5.505823E+03	3.357333E-04	9.661858E-05
5.515725E+03	3.327210E-04	9.569001E-05
5.525628E+03	3.297500E-04	9.477447E-05
5.535530E+03	3.268456E-04	9.387927E-05
5.545433E+03	3.240183E-04	9.300730E-05
5.555335E+03	3.212879E-04	9.216426E-05
5.565238E+03	3.186723E-04	9.135520E-05
5.575141E+03	3.161782E-04	9.058200E-05
5.585043E+03	3.138270E-04	8.985072E-05
5.594946E+03	3.116257E-04	8.916325E-05
5.604848E+03	3.095794E-04	8.852101E-05
5.614751E+03	3.077043E-04	8.792851E-05
5.624653E+03	3.059993E-04	8.738537E-05
5.634556E+03	3.044714E-04	8.689350E-05
5.644459E+03	3.031259E-04	8.645431E-05
5.654361E+03	3.019648E-04	8.606826E-05
5.664264E+03	3.009880E-04	8.573523E-05
5.674166E+03	3.001953E-04	8.545508E-05
5.684069E+03	2.995889E-04	8.522833E-05
5.693971E+03	2.991712E-04	8.505557E-05
5.703874E+03	2.989348E-04	8.493459E-05
5.713776E+03	2.988881E-04	8.486767E-05
5.723679E+03	2.990248E-04	8.485298E-05
5.733582E+03	2.993514E-04	8.489220E-05
5.743484E+03	2.998652E-04	8.498448E-05
5.753387E+03	3.005707E-04	8.513105E-05
5.763289E+03	3.014698E-04	8.533230E-05
5.773192E+03	3.025670E-04	8.558944E-05
5.783094E+03	3.038616E-04	8.590216E-05
5.792997E+03	3.053557E-04	8.627094E-05
5.802899E+03	3.070545E-04	8.669719E-05
5.812802E+03	3.089638E-04	8.718241E-05
5.822705E+03	3.110792E-04	8.772527E-05
5.832607E+03	3.134090E-04	8.832802E-05
5.842510E+03	3.159524E-04	8.899034E-05
5.852412E+03	3.187143E-04	8.971348E-05
5.862315E+03	3.216968E-04	9.049794E-05
5.872217E+03	3.248973E-04	9.134290E-05
5.882120E+03	3.283204E-04	9.224955E-05
5.892022E+03	3.319663E-04	9.321784E-05
5.901925E+03	3.358314E-04	9.424666E-05
5.911828E+03	3.399217E-04	9.533761E-05
5.921730E+03	3.442287E-04	9.648821E-05
5.931633E+03	3.487536E-04	9.769870E-05
5.941535E+03	3.534934E-04	9.896813E-05
5.951438E+03	3.584401E-04	1.002942E-04
5.961340E+03	3.635927E-04	1.016765E-04
5.971243E+03	3.689368E-04	1.031110E-04
5.981146E+03	3.744738E-04	1.045980E-04
5.991048E+03	3.801868E-04	1.061328E-04
6.000951E+03	3.860705E-04	1.077136E-04
6.010853E+03	3.921092E-04	1.093362E-04
6.020756E+03	3.982908E-04	1.109971E-04
6.030658E+03	4.045966E-04	1.126911E-04
6.040561E+03	4.110059E-04	1.144123E-04
6.050463E+03	4.175068E-04	1.161575E-04
6.060366E+03	4.240651E-04	1.179171E-04
6.070269E+03	4.306657E-04	1.196869E-04
6.080171E+03	4.372762E-04	1.214579E-04
6.090074E+03	4.438734E-04	1.232238E-04
6.099976E+03	4.504118E-04	1.249719E-04
6.109879E+03	4.568720E-04	1.266970E-04
6.119781E+03	4.632130E-04	1.283877E-04
6.129684E+03	4.694063E-04	1.300362E-04
6.139586E+03	4.754208E-04	1.316340E-04
6.149489E+03	4.812533E-04	1.331804E-04
6.159392E+03	4.869113E-04	1.346775E-04
6.169294E+03	4.924055E-04	1.361284E-04
6.179197E+03	4.977507E-04	1.375373E-04
6.189099E+03	5.029444E-04	1.389036E-04
6.199002E+03	5.080177E-04	1.402360E-04
6.208904E+03	5.129648E-04	1.415329E-04
6.218807E+03	5.178067E-04	1.428003E-04
6.228709E+03	5.225591E-04	1.440425E-04
6.238612E+03	5.272176E-04	1.452584E-04
6.248515E+03	5.317988E-04	1.464527E-04
6.258417E+03	5.363131E-04	1.476282E-04
6.268320E+03	5.407709E-04	1.487878E-04
6.278222E+03	5.451685E-04	1.499306E-04
6.288125E+03	5.495168E-04	1.510595E-04
6.298027E+03	5.538198E-04	1.521757E-04
6.307930E+03	5.580808E-04	1.532803E-04
6.317833E+03	5.622966E-04	1.543721E-04
6.327735E+03	5.664623E-04	1.554501E-04
6.337638E+03	5.705735E-04	1.565129E-04
6.347540E+03	5.746336E-04	1.575617E-04
6.357443E+03	5.786375E-04	1.585949E-04
6.367345E+03	5.825629E-04	1.596065E-04
6.377248E+03	5.864373E-04	1.606041E-04
6.387150E+03	5.902642E-04	1.615886E-04
6.397053E+03	5.940547E-04	1.625632E-04
6.406956E+03	5.978305E-04	1.635338E-04
6.416858E+03	6.015858E-04	1.644988E-04
6.426761E+03	6.053426E-04	1.654642E-04
6.436663E+03	6.091048E-04	1.664312E-04
6.446566E+03	6.128853E-04	1.674032E-04
6.456468E+03	6.166691E-04	1.683761E-04
6.466371E+03	6.204881E-04	1.693588E-04
6.476273E+03	6.243268E-04	1.703469E-04
6.486176E+03	6.281979E-04	1.713439E-04
6.496079E+03	6.321047E-04	1.723507E-04
6.505981E+03	6.360406E-04	1.733656E-04
6.515884E+03	6.400184E-04	1.743920E-04
6.525786E+03	6.440410E-04	1.754307E-04
6.535689E+03	6.481011E-04	1.764796E-04
6.545591E+03	6.522014E-04	1.775397E-04
6.555494E+03	6.563443E-04	1.786115E-04
6.565396E+03	6.605433E-04	1.796986E-04
6.575299E+03	6.647784E-04	1.807958E-04
6.585202E+03	6.690629E-04	1.819064E-04
6.595104E+03	6.733982E-04	1.830311E-04
6.605007E+03	6.777745E-04	1.841670E-04
6.614909E+03	6.822041E-04	1.853176E-04
6.624812E+03	6.866763E-04	1.864798E-04
6.634714E+03	6.912032E-04	1.876572E-04
6.644617E+03	6.957621E-04	1.888434E-04
6.654520E+03	7.003651E-04	1.900417E-04
6.664422E+03	7.050242E-04	1.912555E-04
6.674325E+03	7.097161E-04	1.924784E-04
6.684227E+03	7.144532E-04	1.937138E-04
6.694130E+03	7.192235E-04	1.949584E-04
6.704032E+03	7.240398E-04	1.962158E-04
6.713935E+03	7.288902E-04	1.974826E-04
6.723837E+03	7.337753E-04	1.987592E-04
6.733740E+03	7.387089E-04	2.000492E-04
6.743643E+03	7.436654E-04	2.013457E-04
6.753545E+03	7.486718E-04	2.026560E-04
6.763448E+03	7.537019E-04	2.039731E-04
6.773350E+03	7.587830E-04	2.053044E-04
6.783253E+03	7.638880E-04	2.066425E-04
6.793155E+03	7.690154E-04	2.079870E-04
6.803058E+03	7.741790E-04	2.093418E-04
6.812960E+03	7.793775E-04	2.107065E-04
6.822863E+03	7.845798E-04	2.120727E-04
6.832766E+03	7.898128E-04	2.134477E-04
6.842668E+03	7.950591E-04	2.148267E-04
6.852571E+03	8.003304E-04	2.162131E-04
6.862473E+03	8.055932E-04	2.175978E-04
6.872376E+03	8.108589E-04	2.189837E-04
6.882278E+03	8.161229E-04	2.203699E-04
6.892181E+03	8.213657E-04	2.217510E-04
6.902083E+03	8.265983E-04	2.231301E-04
6.911986E+03	8.318162E-04	2.245058E-04
6.921889E+03	8.369993E-04	2.258729E-04
6.931791E+03	8.421431E-04	2.272302E-04
6.941694E+03	8.472431E-04	2.285765E-04
6.951596E+03	8.523122E-04	2.299153E-04
6.961499E+03	8.573136E-04	2.312366E-04
6.971401E+03	8.622777E-04	2.325489E-04
6.981304E+03	8.671673E-04	2.338420E-04
6.991207E+03	8.719973E-04	2.351199E-04
7.001109E+03	8.767481E-04	2.363776E-04
7.011012E+03	8.814351E-04	2.376190E-04
7.020914E+03	8.860573E-04	2.388442E-04
7.030817E+03	8.905964E-04	2.400480E-04
7.040719E+03	8.950334E-04	2.412254E-04
7.050622E+03	8.994043E-04	2.423863E-04
7.060524E+03	9.036916E-04	2.435258E-04
7.070427E+03	9.078957E-04	2.446442E-04
7.080330E+03	9.120177E-04	2.457418E-04
7.090232E+03	9.160401E-04	2.468138E-04
7.100135E+03	9.199833E-04	2.478660E-04
7.110037E+03	9.238300E-04	2.488935E-04
7.119940E+03	9.275825E-04	2.498970E-04
7.129842E+03	9.312617E-04	2.508824E-04
7.139745E+03	9.348516E-04	2.518451E-04
7.149647E+03	9.383738E-04	2.527912E-04
7.159550E+03	9.417917E-04	2.537108E-04
7.169453E+03	9.451264E-04	2.546096E-04
7.179355E+03	9.483797E-04	2.554881E-04
7.189258E+03	9.515525E-04	2.563466E-04
7.199160E+03	9.546450E-04	2.571852E-04
7.209063E+03	9.576568E-04	2.580038E-04
7.218965E+03	9.605659E-04	2.587965E-04
7.228868E+03	9.633912E-04	2.595685E-04
7.238770E+03	9.661302E-04	2.603191E-04
7.248673E+03	9.687803E-04	2.610476E-04
7.258576E+03	9.713175E-04	2.617476E-04
7.268478E+03	9.737598E-04	2.624241E-04
7.278381E+03	9.761257E-04	2.630818E-04
7.288283E+03	9.783701E-04	2.637089E-04
7.298186E+03	9.805117E-04	2.643103E-04
7.308088E+03	9.825488E-04	2.648856E-04
7.317991E+03	9.845012E-04	2.654401E-04
7.327894E+03	9.863469E-04	2.659680E-04
7.337796E+03	9.881074E-04	2.664751E-04
7.347699E+03	9.898054E-04	2.669675E-04
7.357601E+03	9.914211E-04	2.674399E-04
7.367504E+03	9.930015E-04	2.679050E-04
7.377406E+03	9.945056E-04	2.683519E-04
7.387309E+03	9.959606E-04	2.687877E-04
7.397211E+03	9.973486E-04	2.692078E-04
7.407114E+03	9.986982E-04	2.696198E-04
7.417017E+03	9.999694E-04	2.700131E-04
7.426919E+03	1.001191E-03	2.703953E-04
7.436822E+03	1.002367E-03	2.707678E-04
7.446724E+03	1.003480E-03	2.711255E-04
7.456627E+03	1.004579E-03	2.714821E-04
7.466529E+03	1.005621E-03	2.718258E-04
7.476432E+03	1.006633E-03	2.721635E-04
7.486334E+03	1.007592E-03	2.724896E-04
7.496237E+03	1.008525E-03	2.728112E-04
7.506140E+03	1.009412E-03	2.731225E-04
7.516042E+03	1.010279E-03	2.734307E-04
7.525945E+03	1.011104E-03	2.737300E-04
7.535847E+03	1.011889E-03	2.740208E-04
7.545750E+03	1.012661E-03	2.743104E-04
7.555652E+03	1.013397E-03	2.745922E-04
7.565555E+03	1.014096E-03	2.748664E-04
7.575457E+03	1.014783E-03	2.751395E-04
7.585360E+03	1.015433E-03	2.754046E-04
7.595263E+03	1.016068E-03	2.756679E-04
7.605165E+03	1.016637E-03	2.759154E-04
7.615068E+03	1.017188E-03	2.761598E-04
7.624970E+03	1.017717E-03	2.764004E-04
7.634873E+03	1.018195E-03	2.766294E-04
7.644775E+03	1.018646E-03	2.768528E-04
7.654678E+03	1.019041E-03	2.770628E-04
7.664581E+03	1.019375E-03	2.772583E-04
7.674483E+03	1.019670E-03	2.774451E-04
7.684386E+03	1.019923E-03	2.776222E-04
