#wls	flux	fluxerr
1.584409E+03	2.188789E-03	8.260937E-05
1.624020E+03	2.262138E-03	8.537553E-05
1.663630E+03	2.333366E-03	8.806141E-05
1.703240E+03	2.401422E-03	9.062745E-05
1.742850E+03	2.466103E-03	9.306590E-05
1.782461E+03	2.526227E-03	9.533219E-05
1.822071E+03	2.581016E-03	9.739699E-05
1.861681E+03	2.630085E-03	9.924574E-05
1.901291E+03	2.672129E-03	1.008293E-04
1.940902E+03	2.706492E-03	1.021228E-04
1.980512E+03	2.732104E-03	1.030861E-04
2.020122E+03	2.748349E-03	1.036957E-04
2.059732E+03	2.753897E-03	1.039017E-04
2.099342E+03	2.747795E-03	1.036681E-04
2.138953E+03	2.729129E-03	1.029604E-04
2.178563E+03	2.696456E-03	1.017243E-04
2.218173E+03	2.648686E-03	9.991867E-05
2.257783E+03	2.585857E-03	9.754507E-05
2.297394E+03	2.508956E-03	9.464077E-05
2.337004E+03	2.420547E-03	9.130254E-05
2.376614E+03	2.322764E-03	8.761092E-05
2.416224E+03	2.217483E-03	8.363673E-05
2.455835E+03	2.106650E-03	7.945336E-05
2.495445E+03	1.991503E-03	7.510758E-05
2.535055E+03	1.873440E-03	7.065215E-05
2.574665E+03	1.753659E-03	6.613224E-05
2.614276E+03	1.633397E-03	6.159451E-05
2.653886E+03	1.513673E-03	5.707739E-05
2.693496E+03	1.395503E-03	5.261923E-05
2.733106E+03	1.279834E-03	4.825572E-05
2.772716E+03	1.167539E-03	4.401974E-05
2.812327E+03	1.059437E-03	3.994225E-05
2.851937E+03	9.563173E-04	3.605287E-05
2.891547E+03	8.588668E-04	3.237755E-05
2.931157E+03	7.676710E-04	2.893833E-05
2.970768E+03	6.831463E-04	2.575088E-05
2.980670E+03	6.631062E-04	2.499519E-05
2.990573E+03	6.434846E-04	2.425528E-05
3.000475E+03	6.243086E-04	2.353220E-05
3.010378E+03	6.055611E-04	2.282528E-05
3.020280E+03	5.872528E-04	2.213492E-05
3.030183E+03	5.693915E-04	2.146144E-05
3.040086E+03	5.519488E-04	2.080374E-05
3.049988E+03	5.349556E-04	2.016301E-05
3.059891E+03	5.183840E-04	1.953818E-05
3.069793E+03	5.022508E-04	1.892988E-05
3.079696E+03	4.865405E-04	1.833754E-05
3.089598E+03	4.712490E-04	1.776100E-05
3.099501E+03	4.563905E-04	1.720079E-05
3.109403E+03	4.419427E-04	1.665607E-05
3.119306E+03	4.279274E-04	1.612766E-05
3.129209E+03	4.143155E-04	1.561447E-05
3.139111E+03	4.011265E-04	1.511723E-05
3.149014E+03	3.883409E-04	1.463520E-05
3.158916E+03	3.759681E-04	1.416874E-05
3.168819E+03	3.639956E-04	1.371738E-05
3.178721E+03	3.524249E-04	1.328117E-05
3.188624E+03	3.412495E-04	1.285987E-05
3.198526E+03	3.304638E-04	1.245326E-05
3.208429E+03	3.200564E-04	1.206092E-05
3.218332E+03	3.100320E-04	1.168302E-05
3.228234E+03	3.003782E-04	1.131909E-05
3.238137E+03	2.910932E-04	1.096907E-05
3.248039E+03	2.821644E-04	1.063248E-05
3.257942E+03	2.735841E-04	1.030903E-05
3.267844E+03	2.653484E-04	9.998577E-06
3.277747E+03	2.574447E-04	9.700636E-06
3.287650E+03	2.498679E-04	9.415022E-06
3.297552E+03	2.426088E-04	9.141389E-06
3.307455E+03	2.356519E-04	8.879143E-06
3.317357E+03	2.289944E-04	8.628189E-06
3.327260E+03	2.226247E-04	8.388081E-06
3.337162E+03	2.165333E-04	8.158470E-06
3.347065E+03	2.107116E-04	7.939022E-06
3.356967E+03	2.051453E-04	7.729202E-06
3.366870E+03	1.998317E-04	7.528908E-06
3.376773E+03	1.947598E-04	7.337724E-06
3.386675E+03	1.899186E-04	7.155241E-06
3.396578E+03	1.853006E-04	6.981167E-06
3.406480E+03	1.808983E-04	6.815226E-06
3.416383E+03	1.766997E-04	6.656964E-06
3.426285E+03	1.727004E-04	6.506210E-06
3.436188E+03	1.688895E-04	6.362560E-06
3.446090E+03	1.652606E-04	6.225772E-06
3.455993E+03	1.618061E-04	6.095556E-06
3.465896E+03	1.585185E-04	5.971631E-06
3.475798E+03	1.553909E-04	5.853735E-06
3.485701E+03	1.524167E-04	5.741621E-06
3.495603E+03	1.495881E-04	5.634993E-06
3.505506E+03	1.468977E-04	5.533575E-06
3.515408E+03	1.443403E-04	5.437169E-06
3.525311E+03	1.419093E-04	5.345530E-06
3.535213E+03	1.396002E-04	5.258481E-06
3.545116E+03	1.374056E-04	5.175750E-06
3.555019E+03	1.353216E-04	5.097185E-06
3.564921E+03	1.333429E-04	5.022592E-06
3.574824E+03	1.314675E-04	4.951885E-06
3.584726E+03	1.296890E-04	4.884835E-06
3.594629E+03	1.280044E-04	4.821323E-06
3.604531E+03	1.264071E-04	4.761098E-06
3.614434E+03	1.248942E-04	4.704057E-06
3.624337E+03	1.234621E-04	4.650059E-06
3.634239E+03	1.221072E-04	4.598972E-06
3.644142E+03	1.208274E-04	4.550709E-06
3.654044E+03	1.196202E-04	4.505188E-06
3.663947E+03	1.184826E-04	4.462285E-06
3.673849E+03	1.174135E-04	4.421964E-06
3.683752E+03	1.164097E-04	4.384106E-06
3.693654E+03	1.154714E-04	4.348714E-06
3.703557E+03	1.145965E-04	4.315710E-06
3.713460E+03	1.137829E-04	4.285016E-06
3.723362E+03	1.130297E-04	4.256596E-06
3.733265E+03	1.123367E-04	4.230444E-06
3.743167E+03	1.117019E-04	4.206487E-06
3.753070E+03	1.111253E-04	4.184720E-06
3.762972E+03	1.106049E-04	4.165070E-06
3.772875E+03	1.101397E-04	4.147499E-06
3.782777E+03	1.097296E-04	4.132007E-06
3.792680E+03	1.093747E-04	4.118592E-06
3.802583E+03	1.090731E-04	4.107183E-06
3.812485E+03	1.088257E-04	4.097815E-06
3.822388E+03	1.086297E-04	4.090385E-06
3.832290E+03	1.084870E-04	4.084960E-06
3.842193E+03	1.083948E-04	4.081440E-06
3.852095E+03	1.083550E-04	4.079888E-06
3.861998E+03	1.083656E-04	4.080238E-06
3.871900E+03	1.084266E-04	4.082486E-06
3.881803E+03	1.085372E-04	4.086597E-06
3.891706E+03	1.086971E-04	4.092568E-06
3.901608E+03	1.089054E-04	4.100362E-06
3.911511E+03	1.091629E-04	4.110009E-06
3.921413E+03	1.094678E-04	4.121439E-06
3.931316E+03	1.098200E-04	4.134648E-06
3.941218E+03	1.102185E-04	4.149600E-06
3.951121E+03	1.106640E-04	4.166322E-06
3.961024E+03	1.111556E-04	4.184780E-06
3.970926E+03	1.116923E-04	4.204934E-06
3.980829E+03	1.122730E-04	4.226748E-06
3.990731E+03	1.128987E-04	4.250253E-06
4.000634E+03	1.135675E-04	4.275378E-06
4.010536E+03	1.142801E-04	4.302155E-06
4.020439E+03	1.150348E-04	4.330516E-06
4.030341E+03	1.158316E-04	4.360460E-06
4.040244E+03	1.166705E-04	4.391990E-06
4.050147E+03	1.175507E-04	4.425072E-06
4.060049E+03	1.184713E-04	4.459675E-06
4.069952E+03	1.194315E-04	4.495769E-06
4.079854E+03	1.204323E-04	4.533392E-06
4.089757E+03	1.214721E-04	4.572480E-06
4.099659E+03	1.225510E-04	4.613038E-06
4.109562E+03	1.236671E-04	4.654998E-06
4.119464E+03	1.248207E-04	4.698368E-06
4.129367E+03	1.260119E-04	4.743154E-06
4.139270E+03	1.272390E-04	4.789290E-06
4.149172E+03	1.285022E-04	4.836782E-06
4.159075E+03	1.297997E-04	4.885565E-06
4.168977E+03	1.311316E-04	4.935645E-06
4.178880E+03	1.324963E-04	4.986955E-06
4.188782E+03	1.338939E-04	5.039503E-06
4.198685E+03	1.353225E-04	5.093219E-06
4.208587E+03	1.367813E-04	5.148071E-06
4.218490E+03	1.382684E-04	5.203987E-06
4.228393E+03	1.397840E-04	5.260972E-06
4.238295E+03	1.413260E-04	5.318950E-06
4.248198E+03	1.428933E-04	5.377884E-06
4.258100E+03	1.444839E-04	5.437690E-06
4.268003E+03	1.460954E-04	5.498281E-06
4.277905E+03	1.477264E-04	5.559610E-06
4.287808E+03	1.493758E-04	5.621625E-06
4.297711E+03	1.510407E-04	5.684226E-06
4.307613E+03	1.527196E-04	5.747353E-06
4.317516E+03	1.544096E-04	5.810897E-06
4.327418E+03	1.561102E-04	5.874836E-06
4.337321E+03	1.578194E-04	5.939101E-06
4.347223E+03	1.595392E-04	6.003764E-06
4.357126E+03	1.612678E-04	6.068756E-06
4.367028E+03	1.630058E-04	6.134103E-06
4.376931E+03	1.647527E-04	6.199785E-06
4.386834E+03	1.665108E-04	6.265884E-06
4.396736E+03	1.682783E-04	6.332337E-06
4.406639E+03	1.700547E-04	6.399127E-06
4.416541E+03	1.718413E-04	6.466300E-06
4.426444E+03	1.736377E-04	6.533838E-06
4.436346E+03	1.754439E-04	6.601747E-06
4.446249E+03	1.772582E-04	6.669958E-06
4.456151E+03	1.790818E-04	6.738521E-06
4.466054E+03	1.809133E-04	6.807381E-06
4.475957E+03	1.827525E-04	6.876529E-06
4.485859E+03	1.845994E-04	6.945967E-06
4.495762E+03	1.864507E-04	7.015568E-06
4.505664E+03	1.883082E-04	7.085402E-06
4.515567E+03	1.901700E-04	7.155400E-06
4.525469E+03	1.920363E-04	7.225567E-06
4.535372E+03	1.939042E-04	7.295791E-06
4.545274E+03	1.957754E-04	7.366141E-06
4.555177E+03	1.976470E-04	7.436504E-06
4.565080E+03	1.995210E-04	7.506960E-06
4.574982E+03	2.013948E-04	7.577404E-06
4.584885E+03	2.032687E-04	7.647855E-06
4.594787E+03	2.051420E-04	7.718280E-06
4.604690E+03	2.070174E-04	7.788787E-06
4.614592E+03	2.088924E-04	7.859275E-06
4.624495E+03	2.107700E-04	7.929864E-06
4.634398E+03	2.126499E-04	8.000534E-06
4.644300E+03	2.145315E-04	8.071274E-06
4.654203E+03	2.164186E-04	8.142215E-06
4.664105E+03	2.183090E-04	8.213283E-06
4.674008E+03	2.202047E-04	8.284551E-06
4.683910E+03	2.221036E-04	8.355939E-06
4.693813E+03	2.240081E-04	8.427535E-06
4.703715E+03	2.259141E-04	8.499188E-06
4.713618E+03	2.278241E-04	8.570991E-06
4.723521E+03	2.297361E-04	8.642870E-06
4.733423E+03	2.316527E-04	8.714920E-06
4.743326E+03	2.335719E-04	8.787069E-06
4.753228E+03	2.354938E-04	8.859320E-06
4.763131E+03	2.374189E-04	8.931690E-06
4.773033E+03	2.393472E-04	9.004180E-06
4.782936E+03	2.412791E-04	9.076803E-06
4.792838E+03	2.432119E-04	9.149463E-06
4.802741E+03	2.451486E-04	9.222267E-06
4.812644E+03	2.470891E-04	9.295217E-06
4.822546E+03	2.490314E-04	9.368230E-06
4.832449E+03	2.509756E-04	9.441318E-06
4.842351E+03	2.529244E-04	9.514576E-06
4.852254E+03	2.548729E-04	9.587822E-06
4.862156E+03	2.568263E-04	9.661256E-06
4.872059E+03	2.587823E-04	9.734785E-06
4.881961E+03	2.607382E-04	9.808308E-06
4.891864E+03	2.626964E-04	9.881919E-06
4.901767E+03	2.646564E-04	9.955599E-06
4.911669E+03	2.666151E-04	1.002923E-05
4.921572E+03	2.685747E-04	1.010289E-05
4.931474E+03	2.705288E-04	1.017634E-05
4.941377E+03	2.724813E-04	1.024974E-05
4.951279E+03	2.744287E-04	1.032294E-05
4.961182E+03	2.763667E-04	1.039579E-05
4.971085E+03	2.782961E-04	1.046832E-05
4.980987E+03	2.802124E-04	1.054035E-05
4.990890E+03	2.821133E-04	1.061180E-05
5.000792E+03	2.839965E-04	1.068259E-05
5.010695E+03	2.858593E-04	1.075261E-05
5.020597E+03	2.876960E-04	1.082165E-05
5.030500E+03	2.895065E-04	1.088969E-05
5.040402E+03	2.912845E-04	1.095652E-05
5.050305E+03	2.930267E-04	1.102201E-05
5.060208E+03	2.947266E-04	1.108590E-05
5.070110E+03	2.963835E-04	1.114817E-05
5.080013E+03	2.979882E-04	1.120848E-05
5.089915E+03	2.995431E-04	1.126691E-05
5.099818E+03	3.010389E-04	1.132313E-05
5.109720E+03	3.024752E-04	1.137710E-05
5.119623E+03	3.038458E-04	1.142860E-05
5.129525E+03	3.051442E-04	1.147739E-05
5.139428E+03	3.063701E-04	1.152344E-05
5.149331E+03	3.075171E-04	1.156654E-05
5.159233E+03	3.085820E-04	1.160654E-05
5.169136E+03	3.095608E-04	1.164331E-05
5.179038E+03	3.104472E-04	1.167660E-05
5.188941E+03	3.112375E-04	1.170627E-05
5.198843E+03	3.119245E-04	1.173206E-05
5.208746E+03	3.125076E-04	1.175394E-05
5.218648E+03	3.129796E-04	1.177164E-05
5.228551E+03	3.133366E-04	1.178502E-05
5.238454E+03	3.135742E-04	1.179391E-05
5.248356E+03	3.136854E-04	1.179804E-05
5.258259E+03	3.136662E-04	1.179727E-05
5.268161E+03	3.135126E-04	1.179144E-05
5.278064E+03	3.132210E-04	1.178043E-05
5.287966E+03	3.127851E-04	1.176398E-05
5.297869E+03	3.122050E-04	1.174212E-05
5.307772E+03	3.114783E-04	1.171474E-05
5.317674E+03	3.106032E-04	1.168178E-05
5.327577E+03	3.095758E-04	1.164309E-05
5.337479E+03	3.084024E-04	1.159891E-05
5.347382E+03	3.070809E-04	1.154916E-05
5.357284E+03	3.056196E-04	1.149415E-05
5.367187E+03	3.040190E-04	1.143391E-05
5.377089E+03	3.022868E-04	1.136872E-05
5.386992E+03	3.004289E-04	1.129880E-05
5.396895E+03	2.984585E-04	1.122465E-05
5.406797E+03	2.963811E-04	1.114647E-05
5.416700E+03	2.942033E-04	1.106452E-05
5.426602E+03	2.919301E-04	1.097899E-05
5.436505E+03	2.895732E-04	1.089031E-05
5.446407E+03	2.871402E-04	1.079876E-05
5.456310E+03	2.846416E-04	1.070475E-05
5.466212E+03	2.820893E-04	1.060872E-05
5.476115E+03	2.794953E-04	1.051112E-05
5.486018E+03	2.768720E-04	1.041243E-05
5.495920E+03	2.742351E-04	1.031322E-05
5.505823E+03	2.715971E-04	1.021397E-05
5.515725E+03	2.689758E-04	1.011535E-05
5.525628E+03	2.663809E-04	1.001772E-05
5.535530E+03	2.638320E-04	9.921827E-06
5.545433E+03	2.613373E-04	9.827970E-06
5.555335E+03	2.589122E-04	9.736732E-06
5.565238E+03	2.565708E-04	9.648640E-06
5.575141E+03	2.543180E-04	9.563883E-06
5.585043E+03	2.521710E-04	9.483103E-06
5.594946E+03	2.501342E-04	9.406470E-06
5.604848E+03	2.482117E-04	9.334135E-06
5.614751E+03	2.464162E-04	9.266576E-06
5.624653E+03	2.447461E-04	9.203736E-06
5.634556E+03	2.432067E-04	9.145811E-06
5.644459E+03	2.418021E-04	9.092951E-06
5.654361E+03	2.405327E-04	9.045182E-06
5.664264E+03	2.393988E-04	9.002503E-06
5.674166E+03	2.383994E-04	8.964883E-06
5.684069E+03	2.375360E-04	8.932379E-06
5.693971E+03	2.368096E-04	8.905029E-06
5.703874E+03	2.362144E-04	8.882611E-06
5.713776E+03	2.357566E-04	8.865360E-06
5.723679E+03	2.354305E-04	8.853060E-06
5.733582E+03	2.352409E-04	8.845895E-06
5.743484E+03	2.351855E-04	8.843776E-06
5.753387E+03	2.352671E-04	8.846811E-06
5.763289E+03	2.354867E-04	8.855030E-06
5.773192E+03	2.358476E-04	8.868566E-06
5.783094E+03	2.363486E-04	8.887369E-06
5.792997E+03	2.369908E-04	8.911482E-06
5.802899E+03	2.377781E-04	8.941050E-06
5.812802E+03	2.387142E-04	8.976212E-06
5.822705E+03	2.397948E-04	9.016811E-06
5.832607E+03	2.410268E-04	9.063097E-06
5.842510E+03	2.424081E-04	9.115002E-06
5.852412E+03	2.439424E-04	9.172658E-06
5.862315E+03	2.456309E-04	9.236109E-06
5.872217E+03	2.474708E-04	9.305254E-06
5.882120E+03	2.494653E-04	9.380213E-06
5.892022E+03	2.516143E-04	9.460979E-06
5.901925E+03	2.539140E-04	9.547414E-06
5.911828E+03	2.563696E-04	9.639707E-06
5.921730E+03	2.589738E-04	9.737587E-06
5.931633E+03	2.617271E-04	9.841074E-06
5.941535E+03	2.646275E-04	9.950090E-06
5.951438E+03	2.676687E-04	1.006440E-05
5.961340E+03	2.708499E-04	1.018397E-05
5.971243E+03	2.741609E-04	1.030842E-05
5.981146E+03	2.776027E-04	1.043779E-05
5.991048E+03	2.811632E-04	1.057163E-05
6.000951E+03	2.848390E-04	1.070979E-05
6.010853E+03	2.886198E-04	1.085190E-05
6.020756E+03	2.924970E-04	1.099764E-05
6.030658E+03	2.964582E-04	1.114654E-05
6.040561E+03	3.004899E-04	1.129808E-05
6.050463E+03	3.045847E-04	1.145199E-05
6.060366E+03	3.087199E-04	1.160742E-05
6.070269E+03	3.128863E-04	1.176403E-05
6.080171E+03	3.170636E-04	1.192104E-05
6.090074E+03	3.212372E-04	1.207792E-05
6.099976E+03	3.253771E-04	1.223352E-05
6.109879E+03	3.294726E-04	1.238746E-05
6.119781E+03	3.334977E-04	1.253874E-05
6.129684E+03	3.374347E-04	1.268672E-05
6.139586E+03	3.412639E-04	1.283064E-05
6.149489E+03	3.449838E-04	1.297045E-05
6.159392E+03	3.486005E-04	1.310637E-05
6.169294E+03	3.521221E-04	1.323873E-05
6.179197E+03	3.555590E-04	1.336789E-05
6.189099E+03	3.589093E-04	1.349381E-05
6.199002E+03	3.621957E-04	1.361731E-05
6.208904E+03	3.654134E-04	1.373824E-05
6.218807E+03	3.685774E-04	1.385714E-05
6.228709E+03	3.716987E-04	1.397444E-05
6.238612E+03	3.747742E-04	1.409002E-05
6.248515E+03	3.778153E-04	1.420430E-05
6.258417E+03	3.808291E-04	1.431755E-05
6.268320E+03	3.838230E-04	1.443006E-05
6.278222E+03	3.867941E-04	1.454171E-05
6.288125E+03	3.897499E-04	1.465278E-05
6.298027E+03	3.926930E-04	1.476338E-05
6.307930E+03	3.956259E-04	1.487359E-05
6.317833E+03	3.985456E-04	1.498331E-05
6.327735E+03	4.014489E-04	1.509241E-05
6.337638E+03	4.043324E-04	1.520076E-05
6.347540E+03	4.071981E-04	1.530844E-05
6.357443E+03	4.100426E-04	1.541533E-05
6.367345E+03	4.128494E-04	1.552080E-05
6.377248E+03	4.156382E-04	1.562559E-05
6.387150E+03	4.184108E-04	1.572977E-05
6.397053E+03	4.211755E-04	1.583366E-05
6.406956E+03	4.239468E-04	1.593779E-05
6.416858E+03	4.267209E-04	1.604203E-05
6.426761E+03	4.295128E-04	1.614694E-05
6.436663E+03	4.323253E-04	1.625262E-05
6.446566E+03	4.351675E-04	1.635941E-05
6.456468E+03	4.380281E-04	1.646690E-05
6.466371E+03	4.409300E-04	1.657595E-05
6.476273E+03	4.438619E-04	1.668612E-05
6.486176E+03	4.468327E-04	1.679775E-05
6.496079E+03	4.498448E-04	1.691093E-05
6.505981E+03	4.528931E-04	1.702547E-05
6.515884E+03	4.559868E-04	1.714172E-05
6.525786E+03	4.591280E-04	1.725976E-05
6.535689E+03	4.623115E-04	1.737939E-05
6.545591E+03	4.655389E-04	1.750066E-05
6.555494E+03	4.688123E-04	1.762367E-05
6.565396E+03	4.721409E-04	1.774875E-05
6.575299E+03	4.755112E-04	1.787540E-05
6.585202E+03	4.789319E-04	1.800394E-05
6.595104E+03	4.824048E-04	1.813444E-05
6.605007E+03	4.859227E-04	1.826664E-05
6.614909E+03	4.894944E-04	1.840086E-05
6.624812E+03	4.931127E-04	1.853683E-05
6.634714E+03	4.967866E-04	1.867489E-05
6.644617E+03	5.004995E-04	1.881441E-05
6.654520E+03	5.042604E-04	1.895575E-05
6.664422E+03	5.080788E-04	1.909924E-05
6.674325E+03	5.119374E-04	1.924424E-05
6.684227E+03	5.158457E-04	1.939111E-05
6.694130E+03	5.197953E-04	1.953953E-05
6.704032E+03	5.237960E-04	1.968988E-05
6.713935E+03	5.278393E-04	1.984183E-05
6.723837E+03	5.319260E-04	1.999540E-05
6.733740E+03	5.360662E-04	2.015100E-05
6.743643E+03	5.402422E-04	2.030793E-05
6.753545E+03	5.444735E-04	2.046694E-05
6.763448E+03	5.487417E-04	2.062735E-05
6.773350E+03	5.530672E-04	2.078990E-05
6.783253E+03	5.574302E-04	2.095387E-05
6.793155E+03	5.618305E-04	2.111924E-05
6.803058E+03	5.662781E-04	2.128638E-05
6.812960E+03	5.707725E-04	2.145529E-05
6.822863E+03	5.752916E-04	2.162512E-05
6.832766E+03	5.798554E-04	2.179664E-05
6.842668E+03	5.844513E-04	2.196936E-05
6.852571E+03	5.890885E-04	2.214364E-05
6.862473E+03	5.937426E-04	2.231855E-05
6.872376E+03	5.984219E-04	2.249441E-05
6.882278E+03	6.031239E-04	2.267113E-05
6.892181E+03	6.078341E-04	2.284815E-05
6.902083E+03	6.125606E-04	2.302579E-05
6.911986E+03	6.173008E-04	2.320394E-05
6.921889E+03	6.220394E-04	2.338203E-05
6.931791E+03	6.267733E-04	2.355995E-05
6.941694E+03	6.314993E-04	2.373757E-05
6.951596E+03	6.362271E-04	2.391526E-05
6.961499E+03	6.409289E-04	2.409198E-05
6.971401E+03	6.456272E-04	2.426856E-05
6.981304E+03	6.502946E-04	2.444398E-05
6.991207E+03	6.549415E-04	2.461864E-05
7.001109E+03	6.595533E-04	2.479198E-05
7.011012E+03	6.641412E-04	2.496442E-05
7.020914E+03	6.687043E-04	2.513593E-05
7.030817E+03	6.732281E-04	2.530596E-05
7.040719E+03	6.776981E-04	2.547397E-05
7.050622E+03	6.821410E-04	2.564097E-05
7.060524E+03	6.865432E-04	2.580644E-05
7.070427E+03	6.909041E-04	2.597036E-05
7.080330E+03	6.952246E-04	2.613276E-05
7.090232E+03	6.994903E-04	2.629310E-05
7.100135E+03	7.037164E-04	2.645196E-05
7.110037E+03	7.078891E-04	2.660881E-05
7.119940E+03	7.120092E-04	2.676369E-05
7.129842E+03	7.160925E-04	2.691718E-05
7.139745E+03	7.201255E-04	2.706879E-05
7.149647E+03	7.241246E-04	2.721913E-05
7.159550E+03	7.280605E-04	2.736709E-05
7.169453E+03	7.319491E-04	2.751328E-05
7.179355E+03	7.357908E-04	2.765771E-05
7.189258E+03	7.395857E-04	2.780038E-05
7.199160E+03	7.433331E-04	2.794127E-05
7.209063E+03	7.470321E-04	2.808034E-05
7.218965E+03	7.506647E-04	2.821692E-05
7.228868E+03	7.542446E-04	2.835153E-05
7.238770E+03	7.577693E-04	2.848406E-05
7.248673E+03	7.612358E-04	2.861440E-05
7.258576E+03	7.646245E-04	2.874183E-05
7.268478E+03	7.679488E-04	2.886684E-05
7.278381E+03	7.712223E-04	2.898994E-05
7.288283E+03	7.744086E-04	2.910977E-05
7.298186E+03	7.775219E-04	2.922685E-05
7.308088E+03	7.805596E-04	2.934111E-05
7.317991E+03	7.835371E-04	2.945310E-05
7.327894E+03	7.864357E-04	2.956213E-05
7.337796E+03	7.892722E-04	2.966883E-05
7.347699E+03	7.920644E-04	2.977386E-05
7.357601E+03	7.947952E-04	2.987660E-05
7.367504E+03	7.975026E-04	2.997846E-05
7.377406E+03	8.001530E-04	3.007818E-05
7.387309E+03	8.027678E-04	3.017656E-05
7.397211E+03	8.053328E-04	3.027308E-05
7.407114E+03	8.078705E-04	3.036858E-05
7.417017E+03	8.103487E-04	3.046185E-05
7.426919E+03	8.127905E-04	3.055375E-05
7.436822E+03	8.151995E-04	3.064442E-05
7.446724E+03	8.175604E-04	3.073329E-05
7.456627E+03	8.199131E-04	3.082186E-05
7.466529E+03	8.222212E-04	3.090876E-05
7.476432E+03	8.245049E-04	3.099474E-05
7.486334E+03	8.267464E-04	3.107915E-05
7.496237E+03	8.289663E-04	3.116274E-05
7.506140E+03	8.311468E-04	3.124486E-05
7.516042E+03	8.333091E-04	3.132630E-05
7.525945E+03	8.354350E-04	3.140638E-05
7.535847E+03	8.375254E-04	3.148513E-05
7.545750E+03	8.396015E-04	3.156335E-05
7.555652E+03	8.416437E-04	3.164030E-05
7.565555E+03	8.436517E-04	3.171596E-05
7.575457E+03	8.456453E-04	3.179109E-05
7.585360E+03	8.476028E-04	3.186487E-05
7.595263E+03	8.495435E-04	3.193802E-05
7.605165E+03	8.514232E-04	3.200889E-05
7.615068E+03	8.532812E-04	3.207894E-05
7.624970E+03	8.551147E-04	3.214807E-05
7.634873E+03	8.568997E-04	3.221539E-05
7.644775E+03	8.586544E-04	3.228157E-05
7.654678E+03	8.603541E-04	3.234569E-05
7.664581E+03	8.619949E-04	3.240760E-05
7.674483E+03	8.635950E-04	3.246799E-05
7.684386E+03	8.651506E-04	3.252670E-05
