#wls	flux	fluxerr
1.584409E+03	4.265369E-03	7.540289E-04
1.624020E+03	4.390495E-03	7.761228E-04
1.663630E+03	4.508041E-03	7.968736E-04
1.703240E+03	4.617172E-03	8.161341E-04
1.742850E+03	4.715178E-03	8.334248E-04
1.782461E+03	4.801942E-03	8.487253E-04
1.822071E+03	4.874639E-03	8.615363E-04
1.861681E+03	4.932609E-03	8.717416E-04
1.901291E+03	4.974319E-03	8.790700E-04
1.940902E+03	4.997497E-03	8.831208E-04
1.980512E+03	5.001614E-03	8.838006E-04
2.020122E+03	4.985104E-03	8.808331E-04
2.059732E+03	4.946687E-03	8.739931E-04
2.099342E+03	4.885456E-03	8.631206E-04
2.138953E+03	4.800303E-03	8.480207E-04
2.178563E+03	4.689616E-03	8.284097E-04
2.218173E+03	4.551969E-03	8.040367E-04
2.257783E+03	4.387935E-03	7.750041E-04
2.297394E+03	4.200862E-03	7.419042E-04
2.337004E+03	3.996620E-03	7.057751E-04
2.376614E+03	3.779844E-03	6.674362E-04
2.416224E+03	3.554710E-03	6.276258E-04
2.455835E+03	3.324172E-03	5.868662E-04
2.495445E+03	3.091334E-03	5.457060E-04
2.535055E+03	2.858672E-03	5.045828E-04
2.574665E+03	2.628756E-03	4.639504E-04
2.614276E+03	2.403635E-03	4.241711E-04
2.653886E+03	2.185231E-03	3.855842E-04
2.693496E+03	1.975295E-03	3.484985E-04
2.733106E+03	1.775188E-03	3.131541E-04
2.772716E+03	1.586121E-03	2.797646E-04
2.812327E+03	1.409059E-03	2.484997E-04
2.851937E+03	1.244809E-03	2.195014E-04
2.891547E+03	1.093992E-03	1.928784E-04
2.931157E+03	9.569427E-04	1.686895E-04
2.970768E+03	8.337222E-04	1.469446E-04
2.980670E+03	8.050518E-04	1.418855E-04
2.990573E+03	7.772073E-04	1.369724E-04
3.000475E+03	7.502104E-04	1.322090E-04
3.010378E+03	7.240118E-04	1.275866E-04
3.020280E+03	6.986300E-04	1.231085E-04
3.030183E+03	6.740482E-04	1.187716E-04
3.040086E+03	6.502629E-04	1.145755E-04
3.049988E+03	6.272302E-04	1.105123E-04
3.059891E+03	6.049726E-04	1.065859E-04
3.069793E+03	5.834470E-04	1.027889E-04
3.079696E+03	5.626598E-04	9.912216E-05
3.089598E+03	5.425927E-04	9.558260E-05
3.099501E+03	5.232171E-04	9.216514E-05
3.109403E+03	5.045358E-04	8.887025E-05
3.119306E+03	4.865208E-04	8.569299E-05
3.129209E+03	4.691637E-04	8.263186E-05
3.139111E+03	4.524466E-04	7.968372E-05
3.149014E+03	4.363518E-04	7.684539E-05
3.158916E+03	4.208698E-04	7.411525E-05
3.168819E+03	4.059824E-04	7.149002E-05
3.178721E+03	3.916662E-04	6.896561E-05
3.188624E+03	3.779186E-04	6.654155E-05
3.198526E+03	3.647171E-04	6.421383E-05
3.208429E+03	3.520525E-04	6.198086E-05
3.218332E+03	3.399093E-04	5.983986E-05
3.228234E+03	3.282674E-04	5.778732E-05
3.238137E+03	3.171221E-04	5.582238E-05
3.248039E+03	3.064484E-04	5.394063E-05
3.257942E+03	2.962412E-04	5.214115E-05
3.267844E+03	2.864843E-04	5.042111E-05
3.277747E+03	2.771544E-04	4.877638E-05
3.287650E+03	2.682451E-04	4.720581E-05
3.297552E+03	2.597414E-04	4.570677E-05
3.307455E+03	2.516249E-04	4.427601E-05
3.317357E+03	2.438815E-04	4.291102E-05
3.327260E+03	2.364973E-04	4.160939E-05
3.337162E+03	2.294592E-04	4.036875E-05
3.347065E+03	2.227537E-04	3.918677E-05
3.356967E+03	2.163683E-04	3.806119E-05
3.366870E+03	2.102875E-04	3.698933E-05
3.376773E+03	2.044971E-04	3.596863E-05
3.386675E+03	1.989908E-04	3.499801E-05
3.396578E+03	1.937499E-04	3.407418E-05
3.406480E+03	1.887666E-04	3.319571E-05
3.416383E+03	1.840282E-04	3.236043E-05
3.426285E+03	1.795253E-04	3.156662E-05
3.436188E+03	1.752443E-04	3.081192E-05
3.446090E+03	1.711748E-04	3.009448E-05
3.455993E+03	1.673088E-04	2.941288E-05
3.465896E+03	1.636348E-04	2.876512E-05
3.475798E+03	1.601457E-04	2.814993E-05
3.485701E+03	1.568281E-04	2.756493E-05
3.495603E+03	1.536758E-04	2.700906E-05
3.505506E+03	1.506786E-04	2.648050E-05
3.515408E+03	1.478283E-04	2.597781E-05
3.525311E+03	1.451173E-04	2.549965E-05
3.535213E+03	1.425356E-04	2.504426E-05
3.545116E+03	1.400796E-04	2.461100E-05
3.555019E+03	1.377417E-04	2.419853E-05
3.564921E+03	1.355147E-04	2.380559E-05
3.574824E+03	1.333959E-04	2.343169E-05
3.584726E+03	1.313775E-04	2.307548E-05
3.594629E+03	1.294547E-04	2.273609E-05
3.604531E+03	1.276231E-04	2.241275E-05
3.614434E+03	1.258784E-04	2.210471E-05
3.624337E+03	1.242166E-04	2.181124E-05
3.634239E+03	1.226339E-04	2.153170E-05
3.644142E+03	1.211278E-04	2.126563E-05
3.654044E+03	1.196957E-04	2.101259E-05
3.663947E+03	1.183344E-04	2.077199E-05
3.673849E+03	1.170445E-04	2.054396E-05
3.683752E+03	1.158218E-04	2.032772E-05
3.693654E+03	1.146658E-04	2.012324E-05
3.703557E+03	1.135744E-04	1.993010E-05
3.713460E+03	1.125463E-04	1.974807E-05
3.723362E+03	1.115819E-04	1.957724E-05
3.733265E+03	1.106770E-04	1.941686E-05
3.743167E+03	1.098320E-04	1.926702E-05
3.753070E+03	1.090466E-04	1.912762E-05
3.762972E+03	1.083173E-04	1.899809E-05
3.772875E+03	1.076446E-04	1.887849E-05
3.782777E+03	1.070279E-04	1.876871E-05
3.792680E+03	1.064649E-04	1.866834E-05
3.802583E+03	1.059540E-04	1.857713E-05
3.812485E+03	1.054965E-04	1.849528E-05
3.822388E+03	1.050892E-04	1.842222E-05
3.832290E+03	1.047324E-04	1.835801E-05
3.842193E+03	1.044246E-04	1.830240E-05
3.852095E+03	1.041653E-04	1.825528E-05
3.861998E+03	1.039540E-04	1.821656E-05
3.871900E+03	1.037884E-04	1.818584E-05
3.881803E+03	1.036680E-04	1.816304E-05
3.891706E+03	1.035932E-04	1.814820E-05
3.901608E+03	1.035625E-04	1.814110E-05
3.911511E+03	1.035748E-04	1.814150E-05
3.921413E+03	1.036296E-04	1.814932E-05
3.931316E+03	1.037255E-04	1.816433E-05
3.941218E+03	1.038621E-04	1.818646E-05
3.951121E+03	1.040391E-04	1.821562E-05
3.961024E+03	1.042559E-04	1.825175E-05
3.970926E+03	1.045106E-04	1.829449E-05
3.980829E+03	1.048030E-04	1.834378E-05
3.990731E+03	1.051325E-04	1.839957E-05
4.000634E+03	1.054990E-04	1.846179E-05
4.010536E+03	1.059015E-04	1.853027E-05
4.020439E+03	1.063388E-04	1.860481E-05
4.030341E+03	1.068107E-04	1.868539E-05
4.040244E+03	1.073163E-04	1.877182E-05
4.050147E+03	1.078555E-04	1.886408E-05
4.060049E+03	1.084271E-04	1.896198E-05
4.069952E+03	1.090311E-04	1.906551E-05
4.079854E+03	1.096666E-04	1.917450E-05
4.089757E+03	1.103325E-04	1.928876E-05
4.099659E+03	1.110287E-04	1.940829E-05
4.109562E+03	1.117543E-04	1.953290E-05
4.119464E+03	1.125093E-04	1.966259E-05
4.129367E+03	1.132918E-04	1.979705E-05
4.139270E+03	1.141018E-04	1.993626E-05
4.149172E+03	1.149375E-04	2.007991E-05
4.159075E+03	1.157997E-04	2.022815E-05
4.168977E+03	1.166869E-04	2.038067E-05
4.178880E+03	1.175988E-04	2.053748E-05
4.188782E+03	1.185329E-04	2.069808E-05
4.198685E+03	1.194900E-04	2.086265E-05
4.208587E+03	1.204673E-04	2.103069E-05
4.218490E+03	1.214658E-04	2.120235E-05
4.228393E+03	1.224825E-04	2.137713E-05
4.238295E+03	1.235155E-04	2.155469E-05
4.248198E+03	1.245657E-04	2.173519E-05
4.258100E+03	1.256292E-04	2.191792E-05
4.268003E+03	1.267069E-04	2.210307E-05
4.277905E+03	1.277947E-04	2.228991E-05
4.287808E+03	1.288937E-04	2.247863E-05
4.297711E+03	1.300017E-04	2.266885E-05
4.307613E+03	1.311167E-04	2.286022E-05
4.317516E+03	1.322387E-04	2.305271E-05
4.327418E+03	1.333665E-04	2.324614E-05
4.337321E+03	1.345011E-04	2.344070E-05
4.347223E+03	1.356405E-04	2.363599E-05
4.357126E+03	1.367868E-04	2.383241E-05
4.367028E+03	1.379399E-04	2.402994E-05
4.376931E+03	1.391001E-04	2.422861E-05
4.386834E+03	1.402673E-04	2.442843E-05
4.396736E+03	1.414430E-04	2.462963E-05
4.406639E+03	1.426261E-04	2.483204E-05
4.416541E+03	1.438181E-04	2.503590E-05
4.426444E+03	1.450191E-04	2.524126E-05
4.436346E+03	1.462297E-04	2.544818E-05
4.446249E+03	1.474488E-04	2.565650E-05
4.456151E+03	1.486768E-04	2.586627E-05
4.466054E+03	1.499128E-04	2.607732E-05
4.475957E+03	1.511582E-04	2.628993E-05
4.485859E+03	1.524109E-04	2.650369E-05
4.495762E+03	1.536710E-04	2.671867E-05
4.505664E+03	1.549389E-04	2.693489E-05
4.515567E+03	1.562122E-04	2.715194E-05
4.525469E+03	1.574925E-04	2.737010E-05
4.535372E+03	1.587774E-04	2.758896E-05
4.545274E+03	1.600672E-04	2.780856E-05
4.555177E+03	1.613596E-04	2.802851E-05
4.565080E+03	1.626562E-04	2.824909E-05
4.574982E+03	1.639564E-04	2.847017E-05
4.584885E+03	1.652577E-04	2.869134E-05
4.594787E+03	1.665609E-04	2.891271E-05
4.604690E+03	1.678664E-04	2.913439E-05
4.614592E+03	1.691737E-04	2.935625E-05
4.624495E+03	1.704806E-04	2.957793E-05
4.634398E+03	1.717909E-04	2.980008E-05
4.644300E+03	1.731057E-04	3.002290E-05
4.654203E+03	1.744230E-04	3.024602E-05
4.664105E+03	1.757440E-04	3.046966E-05
4.674008E+03	1.770698E-04	3.069403E-05
4.683910E+03	1.783972E-04	3.091853E-05
4.693813E+03	1.797273E-04	3.114338E-05
4.703715E+03	1.810583E-04	3.136827E-05
4.713618E+03	1.823917E-04	3.159344E-05
4.723521E+03	1.837273E-04	3.181886E-05
4.733423E+03	1.850633E-04	3.204422E-05
4.743326E+03	1.864015E-04	3.226982E-05
4.753228E+03	1.877399E-04	3.249532E-05
4.763131E+03	1.890803E-04	3.272105E-05
4.773033E+03	1.904210E-04	3.294669E-05
4.782936E+03	1.917620E-04	3.317224E-05
4.792838E+03	1.931033E-04	3.339770E-05
4.802741E+03	1.944468E-04	3.362340E-05
4.812644E+03	1.957907E-04	3.384902E-05
4.822546E+03	1.971349E-04	3.407456E-05
4.832449E+03	1.984776E-04	3.429969E-05
4.842351E+03	1.998223E-04	3.452504E-05
4.852254E+03	2.011671E-04	3.475024E-05
4.862156E+03	2.025118E-04	3.497527E-05
4.872059E+03	2.038541E-04	3.519975E-05
4.881961E+03	2.051957E-04	3.542394E-05
4.891864E+03	2.065340E-04	3.564743E-05
4.901767E+03	2.078687E-04	3.587014E-05
4.911669E+03	2.092012E-04	3.609231E-05
4.921572E+03	2.105290E-04	3.631350E-05
4.931474E+03	2.118513E-04	3.653361E-05
4.941377E+03	2.131657E-04	3.675217E-05
4.951279E+03	2.144732E-04	3.696942E-05
4.961182E+03	2.157733E-04	3.718520E-05
4.971085E+03	2.170628E-04	3.739902E-05
4.980987E+03	2.183410E-04	3.761071E-05
4.990890E+03	2.196067E-04	3.782009E-05
5.000792E+03	2.208567E-04	3.802662E-05
5.010695E+03	2.220921E-04	3.823045E-05
5.020597E+03	2.233116E-04	3.843141E-05
5.030500E+03	2.245099E-04	3.862854E-05
5.040402E+03	2.256880E-04	3.882204E-05
5.050305E+03	2.268448E-04	3.901171E-05
5.060208E+03	2.279772E-04	3.919701E-05
5.070110E+03	2.290841E-04	3.937778E-05
5.080013E+03	2.301647E-04	3.955387E-05
5.089915E+03	2.312182E-04	3.972515E-05
5.099818E+03	2.322417E-04	3.989110E-05
5.109720E+03	2.332365E-04	4.005197E-05
5.119623E+03	2.341973E-04	4.020686E-05
5.129525E+03	2.351256E-04	4.035600E-05
5.139428E+03	2.360180E-04	4.049885E-05
5.149331E+03	2.368735E-04	4.063520E-05
5.159233E+03	2.376907E-04	4.076483E-05
5.169136E+03	2.384684E-04	4.088755E-05
5.179038E+03	2.392004E-04	4.100228E-05
5.188941E+03	2.398895E-04	4.110953E-05
5.198843E+03	2.405314E-04	4.120855E-05
5.208746E+03	2.411243E-04	4.129903E-05
5.218648E+03	2.416632E-04	4.138015E-05
5.228551E+03	2.421460E-04	4.145153E-05
5.238454E+03	2.425707E-04	4.151284E-05
5.248356E+03	2.429345E-04	4.156361E-05
5.258259E+03	2.432356E-04	4.160355E-05
5.268161E+03	2.434698E-04	4.163194E-05
5.278064E+03	2.436403E-04	4.164934E-05
5.287966E+03	2.437411E-04	4.165473E-05
5.297869E+03	2.437711E-04	4.164792E-05
5.307772E+03	2.437345E-04	4.162966E-05
5.317674E+03	2.436259E-04	4.159904E-05
5.327577E+03	2.434506E-04	4.155695E-05
5.337479E+03	2.432062E-04	4.150299E-05
5.347382E+03	2.428954E-04	4.143766E-05
5.357284E+03	2.425167E-04	4.136069E-05
5.367187E+03	2.420759E-04	4.127309E-05
5.377089E+03	2.415719E-04	4.117469E-05
5.386992E+03	2.410089E-04	4.106619E-05
5.396895E+03	2.403837E-04	4.094708E-05
5.406797E+03	2.397006E-04	4.081808E-05
5.416700E+03	2.389602E-04	4.067931E-05
5.426602E+03	2.381626E-04	4.053080E-05
5.436505E+03	2.373126E-04	4.037339E-05
5.446407E+03	2.364092E-04	4.020689E-05
5.456310E+03	2.354527E-04	4.003139E-05
5.466212E+03	2.344473E-04	3.984759E-05
5.476115E+03	2.333915E-04	3.965524E-05
5.486018E+03	2.322912E-04	3.945538E-05
5.495920E+03	2.311437E-04	3.924753E-05
5.505823E+03	2.299570E-04	3.903308E-05
5.515725E+03	2.287328E-04	3.881230E-05
5.525628E+03	2.274724E-04	3.858545E-05
5.535530E+03	2.261796E-04	3.835315E-05
5.545433E+03	2.248579E-04	3.811603E-05
5.555335E+03	2.235085E-04	3.787428E-05
5.565238E+03	2.221393E-04	3.762925E-05
5.575141E+03	2.207489E-04	3.738069E-05
5.585043E+03	2.193447E-04	3.712989E-05
5.594946E+03	2.179250E-04	3.687654E-05
5.604848E+03	2.164969E-04	3.662186E-05
5.614751E+03	2.150628E-04	3.636627E-05
5.624653E+03	2.136229E-04	3.610976E-05
5.634556E+03	2.121813E-04	3.585307E-05
5.644459E+03	2.107401E-04	3.559655E-05
5.654361E+03	2.093034E-04	3.534087E-05
5.664264E+03	2.078727E-04	3.508631E-05
5.674166E+03	2.064476E-04	3.483278E-05
5.684069E+03	2.050339E-04	3.458127E-05
5.693971E+03	2.036329E-04	3.433201E-05
5.703874E+03	2.022439E-04	3.408486E-05
5.713776E+03	2.008704E-04	3.384042E-05
5.723679E+03	1.995157E-04	3.359925E-05
5.733582E+03	1.981811E-04	3.336155E-05
5.743484E+03	1.968657E-04	3.312717E-05
5.753387E+03	1.955729E-04	3.289667E-05
5.763289E+03	1.943059E-04	3.267062E-05
5.773192E+03	1.930659E-04	3.244920E-05
5.783094E+03	1.918522E-04	3.223229E-05
5.792997E+03	1.906682E-04	3.202042E-05
5.802899E+03	1.895150E-04	3.181383E-05
5.812802E+03	1.883961E-04	3.161306E-05
5.822705E+03	1.873128E-04	3.141834E-05
5.832607E+03	1.862643E-04	3.122953E-05
5.842510E+03	1.852540E-04	3.104719E-05
5.852412E+03	1.842810E-04	3.087115E-05
5.862315E+03	1.833526E-04	3.070264E-05
5.872217E+03	1.824636E-04	3.054078E-05
5.882120E+03	1.816170E-04	3.038605E-05
5.892022E+03	1.808154E-04	3.023891E-05
5.901925E+03	1.800575E-04	3.009909E-05
5.911828E+03	1.793436E-04	2.996668E-05
5.921730E+03	1.786763E-04	2.984206E-05
5.931633E+03	1.780536E-04	2.972491E-05
5.941535E+03	1.774778E-04	2.961560E-05
5.951438E+03	1.769448E-04	2.951343E-05
5.961340E+03	1.764586E-04	2.941907E-05
5.971243E+03	1.760150E-04	2.933179E-05
5.981146E+03	1.756178E-04	2.925224E-05
5.991048E+03	1.752606E-04	2.917933E-05
6.000951E+03	1.749471E-04	2.911368E-05
6.010853E+03	1.746749E-04	2.905485E-05
6.020756E+03	1.744435E-04	2.900278E-05
6.030658E+03	1.742481E-04	2.895665E-05
6.040561E+03	1.740924E-04	2.891706E-05
6.050463E+03	1.739695E-04	2.888285E-05
6.060366E+03	1.738828E-04	2.885459E-05
6.070269E+03	1.738252E-04	2.883111E-05
6.080171E+03	1.737960E-04	2.881225E-05
6.090074E+03	1.737921E-04	2.879751E-05
6.099976E+03	1.738126E-04	2.878673E-05
6.109879E+03	1.738500E-04	2.877867E-05
6.119781E+03	1.739033E-04	2.877314E-05
6.129684E+03	1.739690E-04	2.876959E-05
6.139586E+03	1.740460E-04	2.876781E-05
6.149489E+03	1.741331E-04	2.876759E-05
6.159392E+03	1.742334E-04	2.876946E-05
6.169294E+03	1.743523E-04	2.877431E-05
6.179197E+03	1.744912E-04	2.878235E-05
6.189099E+03	1.746535E-04	2.879413E-05
6.199002E+03	1.748428E-04	2.881026E-05
6.208904E+03	1.750606E-04	2.883096E-05
6.218807E+03	1.753107E-04	2.885687E-05
6.228709E+03	1.755949E-04	2.888826E-05
6.238612E+03	1.759150E-04	2.892541E-05
6.248515E+03	1.762753E-04	2.896903E-05
6.258417E+03	1.766754E-04	2.901904E-05
6.268320E+03	1.771200E-04	2.907619E-05
6.278222E+03	1.776064E-04	2.914003E-05
6.288125E+03	1.781369E-04	2.921095E-05
6.298027E+03	1.787116E-04	2.928891E-05
6.307930E+03	1.793329E-04	2.937432E-05
6.317833E+03	1.799984E-04	2.946676E-05
6.327735E+03	1.807081E-04	2.956623E-05
6.337638E+03	1.814596E-04	2.967231E-05
6.347540E+03	1.822477E-04	2.978414E-05
6.357443E+03	1.830696E-04	2.990125E-05
6.367345E+03	1.839251E-04	3.002362E-05
6.377248E+03	1.848143E-04	3.015121E-05
6.387150E+03	1.857369E-04	3.028401E-05
6.397053E+03	1.866958E-04	3.042245E-05
6.406956E+03	1.876939E-04	3.056698E-05
6.416858E+03	1.887312E-04	3.071762E-05
6.426761E+03	1.898051E-04	3.087392E-05
6.436663E+03	1.909215E-04	3.103683E-05
6.446566E+03	1.920809E-04	3.120640E-05
6.456468E+03	1.932805E-04	3.138219E-05
6.466371E+03	1.945237E-04	3.156471E-05
6.476273E+03	1.958109E-04	3.175403E-05
6.486176E+03	1.971394E-04	3.194968E-05
6.496079E+03	1.985096E-04	3.215172E-05
6.505981E+03	1.999281E-04	3.236121E-05
6.515884E+03	2.013860E-04	3.257667E-05
6.525786E+03	2.028899E-04	3.279919E-05
6.535689E+03	2.044405E-04	3.302883E-05
6.545591E+03	2.060316E-04	3.326459E-05
6.555494E+03	2.076702E-04	3.350759E-05
6.565396E+03	2.093500E-04	3.375679E-05
6.575299E+03	2.110783E-04	3.401336E-05
6.585202E+03	2.128487E-04	3.427623E-05
6.595104E+03	2.146649E-04	3.454599E-05
6.605007E+03	2.165277E-04	3.482275E-05
6.614909E+03	2.184334E-04	3.510592E-05
6.624812E+03	2.203828E-04	3.539557E-05
6.634714E+03	2.223799E-04	3.569236E-05
6.644617E+03	2.244212E-04	3.599570E-05
6.654520E+03	2.265071E-04	3.630563E-05
6.664422E+03	2.286383E-04	3.662226E-05
6.674325E+03	2.308149E-04	3.694557E-05
6.684227E+03	2.330375E-04	3.727565E-05
6.694130E+03	2.353064E-04	3.761252E-05
6.704032E+03	2.376178E-04	3.795557E-05
6.713935E+03	2.399766E-04	3.830556E-05
6.723837E+03	2.423829E-04	3.866246E-05
6.733740E+03	2.448329E-04	3.902569E-05
6.743643E+03	2.473315E-04	3.939598E-05
6.753545E+03	2.498744E-04	3.977264E-05
6.763448E+03	2.524621E-04	4.015573E-05
6.773350E+03	2.550949E-04	4.054526E-05
6.783253E+03	2.577728E-04	4.094124E-05
6.793155E+03	2.605013E-04	4.134451E-05
6.803058E+03	2.632709E-04	4.175354E-05
6.812960E+03	2.660869E-04	4.216916E-05
6.822863E+03	2.689494E-04	4.259135E-05
6.832766E+03	2.718538E-04	4.301938E-05
6.842668E+03	2.748053E-04	4.345404E-05
6.852571E+03	2.778042E-04	4.389537E-05
6.862473E+03	2.808454E-04	4.434254E-05
6.872376E+03	2.839292E-04	4.479558E-05
6.882278E+03	2.870610E-04	4.525531E-05
6.892181E+03	2.902354E-04	4.572088E-05
6.902083E+03	2.934526E-04	4.619228E-05
6.911986E+03	2.967126E-04	4.666951E-05
6.921889E+03	3.000152E-04	4.715251E-05
6.931791E+03	3.033545E-04	4.764032E-05
6.941694E+03	3.067424E-04	4.813482E-05
6.951596E+03	3.101666E-04	4.863403E-05
6.961499E+03	3.136330E-04	4.913888E-05
6.971401E+03	3.171353E-04	4.964836E-05
6.981304E+03	3.206733E-04	5.016241E-05
6.991207E+03	3.242528E-04	5.068193E-05
7.001109E+03	3.278672E-04	5.120586E-05
7.011012E+03	3.315093E-04	5.173307E-05
7.020914E+03	3.351921E-04	5.226558E-05
7.030817E+03	3.389083E-04	5.280222E-05
7.040719E+03	3.426507E-04	5.334185E-05
7.050622E+03	3.464255E-04	5.388543E-05
7.060524E+03	3.502248E-04	5.443172E-05
7.070427E+03	3.540550E-04	5.498170E-05
7.080330E+03	3.579085E-04	5.553415E-05
7.090232E+03	3.617915E-04	5.609006E-05
7.100135E+03	3.656886E-04	5.664699E-05
7.110037E+03	3.696059E-04	5.720591E-05
7.119940E+03	3.735505E-04	5.776787E-05
7.129842E+03	3.775057E-04	5.833031E-05
7.139745E+03	3.814703E-04	5.889304E-05
7.149647E+03	3.854512E-04	5.945709E-05
7.159550E+03	3.894472E-04	6.002229E-05
7.169453E+03	3.934490E-04	6.058717E-05
7.179355E+03	3.974635E-04	6.115282E-05
7.189258E+03	4.014808E-04	6.171770E-05
7.199160E+03	4.054994E-04	6.228156E-05
7.209063E+03	4.095264E-04	6.284550E-05
7.218965E+03	4.135514E-04	6.340792E-05
7.228868E+03	4.175813E-04	6.396989E-05
7.238770E+03	4.216055E-04	6.452975E-05
7.248673E+03	4.256217E-04	6.508718E-05
7.258576E+03	4.296467E-04	6.564473E-05
7.268478E+03	4.336598E-04	6.619925E-05
7.278381E+03	4.376784E-04	6.675338E-05
7.288283E+03	4.416911E-04	6.730540E-05
7.298186E+03	4.457063E-04	6.785657E-05
7.308088E+03	4.497331E-04	6.840829E-05
7.317991E+03	4.537605E-04	6.895887E-05
7.327894E+03	4.578084E-04	6.951134E-05
7.337796E+03	4.618767E-04	7.006567E-05
7.347699E+03	4.659765E-04	7.062354E-05
7.357601E+03	4.701085E-04	7.118503E-05
7.367504E+03	4.742734E-04	7.175026E-05
7.377406E+03	4.784834E-04	7.232102E-05
7.387309E+03	4.827176E-04	7.289417E-05
7.397211E+03	4.869769E-04	7.346983E-05
7.407114E+03	4.912506E-04	7.404637E-05
7.417017E+03	4.955512E-04	7.462567E-05
7.426919E+03	4.998680E-04	7.520610E-05
7.436822E+03	5.041901E-04	7.578604E-05
7.446724E+03	5.085180E-04	7.636555E-05
7.456627E+03	5.128525E-04	7.694475E-05
7.466529E+03	5.171819E-04	7.752189E-05
7.476432E+03	5.215195E-04	7.809896E-05
7.486334E+03	5.258408E-04	7.867231E-05
7.496237E+03	5.301722E-04	7.924586E-05
7.506140E+03	5.345015E-04	7.981783E-05
7.516042E+03	5.388299E-04	8.038837E-05
7.525945E+03	5.431443E-04	8.095556E-05
7.535847E+03	5.474579E-04	8.152135E-05
7.545750E+03	5.517703E-04	8.208570E-05
7.555652E+03	5.560810E-04	8.264853E-05
7.565555E+03	5.603748E-04	8.320760E-05
7.575457E+03	5.646628E-04	8.376456E-05
7.585360E+03	5.689290E-04	8.431703E-05
7.595263E+03	5.731979E-04	8.486870E-05
7.605165E+03	5.774231E-04	8.541265E-05
7.615068E+03	5.816435E-04	8.595470E-05
7.624970E+03	5.858403E-04	8.649205E-05
7.634873E+03	5.899938E-04	8.702183E-05
7.644775E+03	5.941132E-04	8.754541E-05
7.654678E+03	5.981931E-04	8.806201E-05
7.664581E+03	6.022276E-04	8.857081E-05
7.674483E+03	6.062108E-04	8.907094E-05
7.684386E+03	6.101519E-04	8.956379E-05
