#wls	flux	fluxerr
1.584409E+03	6.652968E-03	2.229135E-03
1.624020E+03	6.849471E-03	2.294937E-03
1.663630E+03	7.033476E-03	2.356549E-03
1.703240E+03	7.202882E-03	2.413266E-03
1.742850E+03	7.354717E-03	2.464093E-03
1.782461E+03	7.486578E-03	2.508225E-03
1.822071E+03	7.595295E-03	2.544600E-03
1.861681E+03	7.679036E-03	2.572605E-03
1.901291E+03	7.735283E-03	2.591397E-03
1.940902E+03	7.760985E-03	2.599954E-03
1.980512E+03	7.754568E-03	2.597750E-03
2.020122E+03	7.713494E-03	2.583934E-03
2.059732E+03	7.635717E-03	2.557822E-03
2.099342E+03	7.520847E-03	2.519285E-03
2.138953E+03	7.366547E-03	2.467540E-03
2.178563E+03	7.171678E-03	2.402207E-03
2.218173E+03	6.935137E-03	2.322918E-03
2.257783E+03	6.654859E-03	2.228982E-03
2.297394E+03	6.339493E-03	2.123297E-03
2.337004E+03	5.997773E-03	2.008789E-03
2.376614E+03	5.636692E-03	1.887802E-03
2.416224E+03	5.262215E-03	1.762334E-03
2.455835E+03	4.879987E-03	1.634277E-03
2.495445E+03	4.495102E-03	1.505336E-03
2.535055E+03	4.112030E-03	1.377008E-03
2.574665E+03	3.735239E-03	1.250791E-03
2.614276E+03	3.368731E-03	1.128024E-03
2.653886E+03	3.016068E-03	1.009900E-03
2.693496E+03	2.680352E-03	8.974577E-04
2.733106E+03	2.364357E-03	7.916254E-04
2.772716E+03	2.069975E-03	6.930360E-04
2.812327E+03	1.798705E-03	6.021910E-04
2.851937E+03	1.551675E-03	5.194672E-04
2.891547E+03	1.329461E-03	4.450571E-04
2.931157E+03	1.132160E-03	3.789921E-04
2.970768E+03	9.591963E-04	3.210787E-04
2.980670E+03	9.196197E-04	3.078277E-04
2.990573E+03	8.814627E-04	2.950521E-04
3.000475E+03	8.447139E-04	2.827481E-04
3.010378E+03	8.093374E-04	2.709037E-04
3.020280E+03	7.752994E-04	2.595075E-04
3.030183E+03	7.425808E-04	2.485532E-04
3.040086E+03	7.111294E-04	2.380233E-04
3.049988E+03	6.809402E-04	2.279161E-04
3.059891E+03	6.519608E-04	2.182140E-04
3.069793E+03	6.241684E-04	2.089094E-04
3.079696E+03	5.975262E-04	1.999899E-04
3.089598E+03	5.720089E-04	1.914472E-04
3.099501E+03	5.475782E-04	1.832683E-04
3.109403E+03	5.241985E-04	1.754413E-04
3.119306E+03	5.018429E-04	1.679573E-04
3.129209E+03	4.804655E-04	1.608007E-04
3.139111E+03	4.600494E-04	1.539661E-04
3.149014E+03	4.405500E-04	1.474384E-04
3.158916E+03	4.219417E-04	1.412091E-04
3.168819E+03	4.041892E-04	1.352663E-04
3.178721E+03	3.872600E-04	1.295992E-04
3.188624E+03	3.711276E-04	1.241988E-04
3.198526E+03	3.557596E-04	1.190544E-04
3.208429E+03	3.411187E-04	1.141534E-04
3.218332E+03	3.271912E-04	1.094913E-04
3.228234E+03	3.139306E-04	1.050525E-04
3.238137E+03	3.013233E-04	1.008323E-04
3.248039E+03	2.893309E-04	9.681805E-05
3.257942E+03	2.779309E-04	9.300209E-05
3.267844E+03	2.671007E-04	8.937688E-05
3.277747E+03	2.568062E-04	8.593105E-05
3.287650E+03	2.470308E-04	8.265897E-05
3.297552E+03	2.377500E-04	7.955246E-05
3.307455E+03	2.289372E-04	7.660263E-05
3.317357E+03	2.205706E-04	7.380216E-05
3.327260E+03	2.126290E-04	7.114399E-05
3.337162E+03	2.050953E-04	6.862232E-05
3.347065E+03	1.979443E-04	6.622877E-05
3.356967E+03	1.911630E-04	6.395899E-05
3.366870E+03	1.847287E-04	6.180536E-05
3.376773E+03	1.786248E-04	5.976233E-05
3.386675E+03	1.728378E-04	5.782537E-05
3.396578E+03	1.673461E-04	5.598725E-05
3.406480E+03	1.621399E-04	5.424469E-05
3.416383E+03	1.572036E-04	5.259246E-05
3.426285E+03	1.525189E-04	5.102447E-05
3.436188E+03	1.480779E-04	4.953804E-05
3.446090E+03	1.438642E-04	4.812768E-05
3.455993E+03	1.398676E-04	4.678999E-05
3.465896E+03	1.360767E-04	4.552114E-05
3.475798E+03	1.324766E-04	4.431615E-05
3.485701E+03	1.290592E-04	4.317232E-05
3.495603E+03	1.258128E-04	4.208572E-05
3.505506E+03	1.227266E-04	4.105272E-05
3.515408E+03	1.197919E-04	4.007043E-05
3.525311E+03	1.169980E-04	3.913528E-05
3.535213E+03	1.143366E-04	3.824445E-05
3.545116E+03	1.117986E-04	3.739492E-05
3.555019E+03	1.093778E-04	3.658462E-05
3.564921E+03	1.070673E-04	3.581127E-05
3.574824E+03	1.048599E-04	3.507237E-05
3.584726E+03	1.027505E-04	3.436629E-05
3.594629E+03	1.007344E-04	3.369143E-05
3.604531E+03	9.880532E-05	3.304572E-05
3.614434E+03	9.696186E-05	3.242864E-05
3.624337E+03	9.519810E-05	3.183823E-05
3.634239E+03	9.351186E-05	3.127376E-05
3.644142E+03	9.190010E-05	3.073422E-05
3.654044E+03	9.035986E-05	3.021861E-05
3.663947E+03	8.888908E-05	2.972624E-05
3.673849E+03	8.748637E-05	2.925665E-05
3.683752E+03	8.614731E-05	2.880836E-05
3.693654E+03	8.487216E-05	2.838145E-05
3.703557E+03	8.365723E-05	2.797469E-05
3.713460E+03	8.250134E-05	2.758769E-05
3.723362E+03	8.140303E-05	2.721995E-05
3.733265E+03	8.035901E-05	2.687037E-05
3.743167E+03	7.936930E-05	2.653896E-05
3.753070E+03	7.843123E-05	2.622483E-05
3.762972E+03	7.754363E-05	2.592757E-05
3.772875E+03	7.670458E-05	2.564657E-05
3.782777E+03	7.591288E-05	2.538140E-05
3.792680E+03	7.516675E-05	2.513147E-05
3.802583E+03	7.446512E-05	2.489642E-05
3.812485E+03	7.380629E-05	2.467570E-05
3.822388E+03	7.318976E-05	2.446911E-05
3.832290E+03	7.261400E-05	2.427617E-05
3.842193E+03	7.207737E-05	2.409631E-05
3.852095E+03	7.157899E-05	2.392924E-05
3.861998E+03	7.111741E-05	2.377447E-05
3.871900E+03	7.069233E-05	2.363191E-05
3.881803E+03	7.030229E-05	2.350107E-05
3.891706E+03	6.994657E-05	2.338170E-05
3.901608E+03	6.962375E-05	2.327333E-05
3.911511E+03	6.933260E-05	2.317555E-05
3.921413E+03	6.907347E-05	2.308847E-05
3.931316E+03	6.884405E-05	2.301133E-05
3.941218E+03	6.864424E-05	2.294408E-05
3.951121E+03	6.847282E-05	2.288632E-05
3.961024E+03	6.832921E-05	2.283785E-05
3.970926E+03	6.821279E-05	2.279847E-05
3.980829E+03	6.812200E-05	2.276766E-05
3.990731E+03	6.805680E-05	2.274540E-05
4.000634E+03	6.801615E-05	2.273133E-05
4.010536E+03	6.799952E-05	2.272530E-05
4.020439E+03	6.800604E-05	2.272700E-05
4.030341E+03	6.803464E-05	2.273607E-05
4.040244E+03	6.808549E-05	2.275258E-05
4.050147E+03	6.815718E-05	2.277604E-05
4.060049E+03	6.824933E-05	2.280634E-05
4.069952E+03	6.836158E-05	2.284335E-05
4.079854E+03	6.849256E-05	2.288661E-05
4.089757E+03	6.864260E-05	2.293624E-05
4.099659E+03	6.881029E-05	2.299176E-05
4.109562E+03	6.899539E-05	2.305309E-05
4.119464E+03	6.919772E-05	2.312018E-05
4.129367E+03	6.941598E-05	2.319258E-05
4.139270E+03	6.965049E-05	2.327040E-05
4.149172E+03	6.989950E-05	2.335305E-05
4.159075E+03	7.016390E-05	2.344085E-05
4.168977E+03	7.044194E-05	2.353319E-05
4.178880E+03	7.073346E-05	2.363003E-05
4.188782E+03	7.103784E-05	2.373116E-05
4.198685E+03	7.135493E-05	2.383652E-05
4.208587E+03	7.168301E-05	2.394554E-05
4.218490E+03	7.202259E-05	2.405840E-05
4.228393E+03	7.237241E-05	2.417468E-05
4.238295E+03	7.273136E-05	2.429399E-05
4.248198E+03	7.309936E-05	2.441631E-05
4.258100E+03	7.347577E-05	2.454143E-05
4.268003E+03	7.385885E-05	2.466877E-05
4.277905E+03	7.424790E-05	2.479810E-05
4.287808E+03	7.464229E-05	2.492920E-05
4.297711E+03	7.504136E-05	2.506185E-05
4.307613E+03	7.544437E-05	2.519581E-05
4.317516E+03	7.585128E-05	2.533106E-05
4.327418E+03	7.626140E-05	2.546736E-05
4.337321E+03	7.667397E-05	2.560448E-05
4.347223E+03	7.709010E-05	2.574277E-05
4.357126E+03	7.750907E-05	2.588201E-05
4.367028E+03	7.793086E-05	2.602217E-05
4.376931E+03	7.835596E-05	2.616342E-05
4.386834E+03	7.878434E-05	2.630576E-05
4.396736E+03	7.921534E-05	2.644896E-05
4.406639E+03	7.964954E-05	2.659322E-05
4.416541E+03	8.008632E-05	2.673832E-05
4.426444E+03	8.052567E-05	2.688428E-05
4.436346E+03	8.096768E-05	2.703111E-05
4.446249E+03	8.141110E-05	2.717839E-05
4.456151E+03	8.185667E-05	2.732638E-05
4.466054E+03	8.230384E-05	2.747490E-05
4.475957E+03	8.275218E-05	2.762379E-05
4.485859E+03	8.320182E-05	2.777310E-05
4.495762E+03	8.365170E-05	2.792248E-05
4.505664E+03	8.410201E-05	2.807199E-05
4.515567E+03	8.455311E-05	2.822174E-05
4.525469E+03	8.500465E-05	2.837163E-05
4.535372E+03	8.545556E-05	2.852130E-05
4.545274E+03	8.590629E-05	2.867089E-05
4.555177E+03	8.635652E-05	2.882031E-05
4.565080E+03	8.680609E-05	2.896949E-05
4.574982E+03	8.725548E-05	2.911859E-05
4.584885E+03	8.770374E-05	2.926730E-05
4.594787E+03	8.815150E-05	2.941583E-05
4.604690E+03	8.859864E-05	2.956414E-05
4.614592E+03	8.904502E-05	2.971218E-05
4.624495E+03	8.949057E-05	2.985993E-05
4.634398E+03	8.993524E-05	3.000737E-05
4.644300E+03	9.037899E-05	3.015449E-05
4.654203E+03	9.082332E-05	3.030179E-05
4.664105E+03	9.126836E-05	3.044931E-05
4.674008E+03	9.171407E-05	3.059704E-05
4.683910E+03	9.216221E-05	3.074556E-05
4.693813E+03	9.261202E-05	3.089463E-05
4.703715E+03	9.306368E-05	3.104429E-05
4.713618E+03	9.351815E-05	3.119488E-05
4.723521E+03	9.397551E-05	3.134641E-05
4.733423E+03	9.443521E-05	3.149871E-05
4.743326E+03	9.489824E-05	3.165211E-05
4.753228E+03	9.536486E-05	3.180668E-05
4.763131E+03	9.583437E-05	3.196220E-05
4.773033E+03	9.630794E-05	3.211906E-05
4.782936E+03	9.678581E-05	3.227733E-05
4.792838E+03	9.726832E-05	3.243714E-05
4.802741E+03	9.775572E-05	3.259855E-05
4.812644E+03	9.824745E-05	3.276139E-05
4.822546E+03	9.874561E-05	3.292636E-05
4.832449E+03	9.924882E-05	3.309300E-05
4.842351E+03	9.975729E-05	3.326137E-05
4.852254E+03	1.002724E-04	3.343193E-05
4.862156E+03	1.007945E-04	3.360479E-05
4.872059E+03	1.013239E-04	3.378009E-05
4.881961E+03	1.018592E-04	3.395732E-05
4.891864E+03	1.024025E-04	3.413721E-05
4.901767E+03	1.029534E-04	3.431959E-05
4.911669E+03	1.035121E-04	3.450456E-05
4.921572E+03	1.040790E-04	3.469224E-05
4.931474E+03	1.046544E-04	3.488274E-05
4.941377E+03	1.052376E-04	3.507582E-05
4.951279E+03	1.058289E-04	3.527158E-05
4.961182E+03	1.064296E-04	3.547043E-05
4.971085E+03	1.070388E-04	3.567212E-05
4.980987E+03	1.076558E-04	3.587637E-05
4.990890E+03	1.082828E-04	3.608389E-05
5.000792E+03	1.089167E-04	3.629374E-05
5.010695E+03	1.095598E-04	3.650661E-05
5.020597E+03	1.102122E-04	3.672254E-05
5.030500E+03	1.108708E-04	3.694050E-05
5.040402E+03	1.115386E-04	3.716155E-05
5.050305E+03	1.122138E-04	3.738499E-05
5.060208E+03	1.128961E-04	3.761079E-05
5.070110E+03	1.135866E-04	3.783931E-05
5.080013E+03	1.142832E-04	3.806981E-05
5.089915E+03	1.149857E-04	3.830225E-05
5.099818E+03	1.156951E-04	3.853695E-05
5.109720E+03	1.164101E-04	3.877351E-05
5.119623E+03	1.171307E-04	3.901187E-05
5.129525E+03	1.178554E-04	3.925159E-05
5.139428E+03	1.185852E-04	3.949299E-05
5.149331E+03	1.193176E-04	3.973521E-05
5.159233E+03	1.200547E-04	3.997895E-05
5.169136E+03	1.207949E-04	4.022372E-05
5.179038E+03	1.215368E-04	4.046901E-05
5.188941E+03	1.222800E-04	4.071471E-05
5.198843E+03	1.230254E-04	4.096108E-05
5.208746E+03	1.237700E-04	4.120718E-05
5.218648E+03	1.245146E-04	4.145324E-05
5.228551E+03	1.252600E-04	4.169953E-05
5.238454E+03	1.260018E-04	4.194460E-05
5.248356E+03	1.267433E-04	4.218951E-05
5.258259E+03	1.274799E-04	4.243280E-05
5.268161E+03	1.282149E-04	4.267550E-05
5.278064E+03	1.289439E-04	4.291615E-05
5.287966E+03	1.296685E-04	4.315532E-05
5.297869E+03	1.303881E-04	4.339280E-05
5.307772E+03	1.311007E-04	4.362791E-05
5.317674E+03	1.318083E-04	4.386129E-05
5.327577E+03	1.325060E-04	4.409139E-05
5.337479E+03	1.331972E-04	4.431928E-05
5.347382E+03	1.338799E-04	4.454430E-05
5.357284E+03	1.345535E-04	4.476623E-05
5.367187E+03	1.352172E-04	4.498486E-05
5.377089E+03	1.358703E-04	4.519996E-05
5.386992E+03	1.365110E-04	4.541086E-05
5.396895E+03	1.371386E-04	4.561737E-05
5.406797E+03	1.377524E-04	4.581927E-05
5.416700E+03	1.383518E-04	4.601633E-05
5.426602E+03	1.389347E-04	4.620790E-05
5.436505E+03	1.394991E-04	4.639327E-05
5.446407E+03	1.400457E-04	4.657268E-05
5.456310E+03	1.405724E-04	4.674544E-05
5.466212E+03	1.410771E-04	4.691085E-05
5.476115E+03	1.415576E-04	4.706818E-05
5.486018E+03	1.420146E-04	4.721767E-05
5.495920E+03	1.424443E-04	4.735808E-05
5.505823E+03	1.428477E-04	4.748968E-05
5.515725E+03	1.432209E-04	4.761123E-05
5.525628E+03	1.435632E-04	4.772248E-05
5.535530E+03	1.438753E-04	4.782367E-05
5.545433E+03	1.441535E-04	4.791357E-05
5.555335E+03	1.443987E-04	4.799247E-05
5.565238E+03	1.446101E-04	4.806009E-05
5.575141E+03	1.447855E-04	4.811577E-05
5.585043E+03	1.449245E-04	4.815929E-05
5.594946E+03	1.450278E-04	4.819097E-05
5.604848E+03	1.450952E-04	4.821067E-05
5.614751E+03	1.451245E-04	4.821771E-05
5.624653E+03	1.451171E-04	4.821251E-05
5.634556E+03	1.450740E-04	4.819549E-05
5.644459E+03	1.449923E-04	4.816558E-05
5.654361E+03	1.448732E-04	4.812327E-05
5.664264E+03	1.447183E-04	4.806903E-05
5.674166E+03	1.445276E-04	4.800292E-05
5.684069E+03	1.443014E-04	4.792499E-05
5.693971E+03	1.440399E-04	4.783533E-05
5.703874E+03	1.437433E-04	4.773404E-05
5.713776E+03	1.434137E-04	4.762178E-05
5.723679E+03	1.430501E-04	4.749821E-05
5.733582E+03	1.426560E-04	4.736450E-05
5.743484E+03	1.422306E-04	4.722042E-05
5.753387E+03	1.417745E-04	4.706615E-05
5.763289E+03	1.412917E-04	4.690302E-05
5.773192E+03	1.407801E-04	4.673031E-05
5.783094E+03	1.402419E-04	4.654883E-05
5.792997E+03	1.396801E-04	4.635947E-05
5.802899E+03	1.390940E-04	4.616210E-05
5.812802E+03	1.384866E-04	4.595764E-05
5.822705E+03	1.378576E-04	4.574602E-05
5.832607E+03	1.372115E-04	4.552873E-05
5.842510E+03	1.365481E-04	4.530576E-05
5.852412E+03	1.358691E-04	4.507759E-05
5.862315E+03	1.351776E-04	4.484526E-05
5.872217E+03	1.344735E-04	4.460881E-05
5.882120E+03	1.337600E-04	4.436926E-05
5.892022E+03	1.330373E-04	4.412664E-05
5.901925E+03	1.323084E-04	4.388200E-05
5.911828E+03	1.315749E-04	4.363586E-05
5.921730E+03	1.308383E-04	4.338869E-05
5.931633E+03	1.300986E-04	4.314053E-05
5.941535E+03	1.293589E-04	4.289236E-05
5.951438E+03	1.286204E-04	4.264462E-05
5.961340E+03	1.278831E-04	4.239729E-05
5.971243E+03	1.271496E-04	4.215128E-05
5.981146E+03	1.264199E-04	4.190651E-05
5.991048E+03	1.256935E-04	4.166286E-05
6.000951E+03	1.249746E-04	4.142172E-05
6.010853E+03	1.242613E-04	4.118244E-05
6.020756E+03	1.235560E-04	4.094583E-05
6.030658E+03	1.228567E-04	4.071125E-05
6.040561E+03	1.221658E-04	4.047945E-05
6.050463E+03	1.214826E-04	4.025024E-05
6.060366E+03	1.208079E-04	4.002385E-05
6.070269E+03	1.201424E-04	3.980051E-05
6.080171E+03	1.194852E-04	3.957996E-05
6.090074E+03	1.188370E-04	3.936239E-05
6.099976E+03	1.181983E-04	3.914798E-05
6.109879E+03	1.175695E-04	3.893689E-05
6.119781E+03	1.169511E-04	3.872926E-05
6.129684E+03	1.163420E-04	3.852473E-05
6.139586E+03	1.157440E-04	3.832389E-05
6.149489E+03	1.151574E-04	3.812683E-05
6.159392E+03	1.145825E-04	3.793365E-05
6.169294E+03	1.140208E-04	3.774487E-05
6.179197E+03	1.134741E-04	3.756106E-05
6.189099E+03	1.129440E-04	3.738277E-05
6.199002E+03	1.124321E-04	3.721050E-05
6.208904E+03	1.119399E-04	3.704477E-05
6.218807E+03	1.114705E-04	3.688659E-05
6.228709E+03	1.110224E-04	3.673548E-05
6.238612E+03	1.106018E-04	3.659347E-05
6.248515E+03	1.102070E-04	3.646001E-05
6.258417E+03	1.098412E-04	3.633616E-05
6.268320E+03	1.095060E-04	3.622242E-05
6.278222E+03	1.092029E-04	3.611931E-05
6.288125E+03	1.089319E-04	3.602683E-05
6.298027E+03	1.086947E-04	3.594552E-05
6.307930E+03	1.084929E-04	3.587591E-05
6.317833E+03	1.083265E-04	3.581802E-05
6.327735E+03	1.081958E-04	3.577191E-05
6.337638E+03	1.081023E-04	3.573812E-05
6.347540E+03	1.080432E-04	3.571565E-05
6.357443E+03	1.080184E-04	3.570453E-05
6.367345E+03	1.080266E-04	3.570431E-05
6.377248E+03	1.080645E-04	3.571391E-05
6.387150E+03	1.081340E-04	3.573390E-05
6.397053E+03	1.082318E-04	3.576325E-05
6.406956E+03	1.083597E-04	3.580252E-05
6.416858E+03	1.085177E-04	3.585172E-05
6.426761E+03	1.087042E-04	3.591032E-05
6.436663E+03	1.089194E-04	3.597837E-05
6.446566E+03	1.091634E-04	3.605589E-05
6.456468E+03	1.094361E-04	3.614287E-05
6.466371E+03	1.097377E-04	3.623939E-05
6.476273E+03	1.100701E-04	3.634601E-05
6.486176E+03	1.104315E-04	3.646222E-05
6.496079E+03	1.108205E-04	3.658748E-05
6.505981E+03	1.112406E-04	3.672297E-05
6.515884E+03	1.116883E-04	3.686756E-05
6.525786E+03	1.121657E-04	3.702188E-05
6.535689E+03	1.126728E-04	3.718598E-05
6.545591E+03	1.132098E-04	3.735990E-05
6.555494E+03	1.137768E-04	3.754370E-05
6.565396E+03	1.143722E-04	3.773679E-05
6.575299E+03	1.149980E-04	3.793985E-05
6.585202E+03	1.156523E-04	3.815229E-05
6.595104E+03	1.163373E-04	3.837480E-05
6.605007E+03	1.170512E-04	3.860679E-05
6.614909E+03	1.177941E-04	3.884831E-05
6.624812E+03	1.185683E-04	3.910008E-05
6.634714E+03	1.193740E-04	3.936216E-05
6.644617E+03	1.202072E-04	3.963325E-05
6.654520E+03	1.210723E-04	3.991479E-05
6.664422E+03	1.219652E-04	4.020544E-05
6.674325E+03	1.228904E-04	4.050666E-05
6.684227E+03	1.238460E-04	4.081785E-05
6.694130E+03	1.248301E-04	4.113831E-05
6.704032E+03	1.258470E-04	4.146956E-05
6.713935E+03	1.268928E-04	4.181023E-05
6.723837E+03	1.279698E-04	4.216111E-05
6.733740E+03	1.290783E-04	4.252227E-05
6.743643E+03	1.302184E-04	4.289378E-05
6.753545E+03	1.313882E-04	4.327495E-05
6.763448E+03	1.325900E-04	4.366660E-05
6.773350E+03	1.338218E-04	4.406803E-05
6.783253E+03	1.350862E-04	4.448010E-05
6.793155E+03	1.363809E-04	4.490207E-05
6.803058E+03	1.377061E-04	4.533397E-05
6.812960E+03	1.390645E-04	4.577671E-05
6.822863E+03	1.404511E-04	4.622863E-05
6.832766E+03	1.418714E-04	4.669152E-05
6.842668E+03	1.433228E-04	4.716456E-05
6.852571E+03	1.448055E-04	4.764777E-05
6.862473E+03	1.463197E-04	4.814124E-05
6.872376E+03	1.478654E-04	4.864498E-05
6.882278E+03	1.494400E-04	4.915809E-05
6.892181E+03	1.510463E-04	4.968152E-05
6.902083E+03	1.526845E-04	5.021531E-05
6.911986E+03	1.543547E-04	5.075950E-05
6.921889E+03	1.560509E-04	5.131213E-05
6.931791E+03	1.577822E-04	5.187616E-05
6.941694E+03	1.595394E-04	5.244859E-05
6.951596E+03	1.613288E-04	5.303143E-05
6.961499E+03	1.631471E-04	5.362367E-05
6.971401E+03	1.649942E-04	5.422526E-05
6.981304E+03	1.668702E-04	5.483618E-05
6.991207E+03	1.687748E-04	5.545637E-05
7.001109E+03	1.707047E-04	5.608471E-05
7.011012E+03	1.726629E-04	5.672220E-05
7.020914E+03	1.746493E-04	5.736882E-05
7.030817E+03	1.766602E-04	5.802333E-05
7.040719E+03	1.786989E-04	5.868683E-05
7.050622E+03	1.807615E-04	5.935802E-05
7.060524E+03	1.828476E-04	6.003678E-05
7.070427E+03	1.849570E-04	6.072301E-05
7.080330E+03	1.870929E-04	6.141781E-05
7.090232E+03	1.892474E-04	6.211852E-05
7.100135E+03	1.914198E-04	6.282496E-05
7.110037E+03	1.936175E-04	6.353953E-05
7.119940E+03	1.958320E-04	6.425945E-05
7.129842E+03	1.980626E-04	6.498448E-05
7.139745E+03	2.003127E-04	6.571577E-05
7.149647E+03	2.025777E-04	6.645173E-05
7.159550E+03	2.048565E-04	6.719208E-05
7.169453E+03	2.071485E-04	6.793655E-05
7.179355E+03	2.094527E-04	6.868487E-05
7.189258E+03	2.117728E-04	6.943823E-05
7.199160E+03	2.140989E-04	7.019338E-05
7.209063E+03	2.164391E-04	7.095300E-05
7.218965E+03	2.187881E-04	7.171529E-05
7.228868E+03	2.211447E-04	7.247991E-05
7.238770E+03	2.235129E-04	7.324813E-05
7.248673E+03	2.258868E-04	7.401805E-05
7.258576E+03	2.282703E-04	7.479095E-05
7.268478E+03	2.306627E-04	7.556655E-05
7.278381E+03	2.330681E-04	7.634625E-05
7.288283E+03	2.354859E-04	7.712983E-05
7.298186E+03	2.379207E-04	7.791880E-05
7.308088E+03	2.403665E-04	7.871119E-05
7.317991E+03	2.428393E-04	7.951222E-05
7.327894E+03	2.453390E-04	8.032187E-05
7.337796E+03	2.478598E-04	8.113823E-05
7.347699E+03	2.504188E-04	8.196691E-05
7.357601E+03	2.530104E-04	8.280611E-05
7.367504E+03	2.556411E-04	8.365785E-05
7.377406E+03	2.583049E-04	8.452027E-05
7.387309E+03	2.610084E-04	8.539544E-05
7.397211E+03	2.637332E-04	8.627739E-05
7.407114E+03	2.664915E-04	8.717012E-05
7.417017E+03	2.692644E-04	8.806741E-05
7.426919E+03	2.720577E-04	8.897114E-05
7.436822E+03	2.748643E-04	8.987901E-05
7.446724E+03	2.776768E-04	9.078863E-05
7.456627E+03	2.805011E-04	9.170189E-05
7.466529E+03	2.833158E-04	9.261180E-05
7.476432E+03	2.861332E-04	9.352239E-05
7.486334E+03	2.889451E-04	9.443100E-05
7.496237E+03	2.917503E-04	9.533718E-05
7.506140E+03	2.945400E-04	9.623810E-05
7.516042E+03	2.973198E-04	9.713561E-05
7.525945E+03	3.000809E-04	9.802678E-05
7.535847E+03	3.028215E-04	9.891107E-05
7.545750E+03	3.055474E-04	9.979034E-05
7.555652E+03	3.082493E-04	1.006616E-04
7.565555E+03	3.109331E-04	1.015268E-04
7.575457E+03	3.135815E-04	1.023802E-04
7.585360E+03	3.162083E-04	1.032263E-04
7.595263E+03	3.188037E-04	1.040621E-04
7.605165E+03	3.213740E-04	1.048894E-04
7.615068E+03	3.239092E-04	1.057052E-04
7.624970E+03	3.264073E-04	1.065086E-04
7.634873E+03	3.288664E-04	1.072992E-04
7.644775E+03	3.313017E-04	1.080818E-04
7.654678E+03	3.336856E-04	1.088475E-04
7.664581E+03	3.360423E-04	1.096042E-04
7.674483E+03	3.383527E-04	1.103456E-04
7.684386E+03	3.406236E-04	1.110740E-04
