#wls	flux	fluxerr
1.584409E+03	2.157112E-03	1.026492E-03
1.624020E+03	2.230466E-03	1.061183E-03
1.663630E+03	2.302399E-03	1.095175E-03
1.703240E+03	2.371940E-03	1.128006E-03
1.742850E+03	2.438948E-03	1.159608E-03
1.782461E+03	2.502303E-03	1.189450E-03
1.822071E+03	2.561270E-03	1.217181E-03
1.861681E+03	2.615489E-03	1.242633E-03
1.901291E+03	2.663667E-03	1.265189E-03
1.940902E+03	2.705128E-03	1.284533E-03
1.980512E+03	2.738757E-03	1.300135E-03
2.020122E+03	2.763860E-03	1.311669E-03
2.059732E+03	2.778992E-03	1.318453E-03
2.099342E+03	2.783050E-03	1.319967E-03
2.138953E+03	2.774922E-03	1.315687E-03
2.178563E+03	2.752921E-03	1.304821E-03
2.218173E+03	2.715668E-03	1.286722E-03
2.257783E+03	2.662903E-03	1.261273E-03
2.297394E+03	2.595330E-03	1.228816E-03
2.337004E+03	2.515293E-03	1.190470E-03
2.376614E+03	2.424728E-03	1.147159E-03
2.416224E+03	2.325352E-03	1.099700E-03
2.455835E+03	2.218990E-03	1.048965E-03
2.495445E+03	2.106776E-03	9.954929E-04
2.535055E+03	1.990062E-03	9.399290E-04
2.574665E+03	1.870030E-03	8.828363E-04
2.614276E+03	1.747964E-03	8.248240E-04
2.653886E+03	1.624961E-03	7.664132E-04
2.693496E+03	1.502168E-03	7.081477E-04
2.733106E+03	1.380703E-03	6.505562E-04
2.772716E+03	1.261648E-03	5.941492E-04
2.812327E+03	1.146063E-03	5.394266E-04
2.851937E+03	1.035001E-03	4.868834E-04
2.891547E+03	9.294304E-04	4.369731E-04
2.931157E+03	8.302181E-04	3.901011E-04
2.970768E+03	7.380495E-04	3.465858E-04
2.980670E+03	7.161874E-04	3.362683E-04
2.990573E+03	6.947841E-04	3.261690E-04
3.000475E+03	6.738721E-04	3.163032E-04
3.010378E+03	6.534361E-04	3.066634E-04
3.020280E+03	6.334902E-04	2.972563E-04
3.030183E+03	6.140452E-04	2.880868E-04
3.040086E+03	5.950728E-04	2.791416E-04
3.049988E+03	5.766085E-04	2.704372E-04
3.059891E+03	5.586238E-04	2.619603E-04
3.069793E+03	5.411382E-04	2.537198E-04
3.079696E+03	5.241360E-04	2.457083E-04
3.089598E+03	5.076124E-04	2.379234E-04
3.099501E+03	4.915823E-04	2.303722E-04
3.109403E+03	4.760206E-04	2.230427E-04
3.119306E+03	4.609483E-04	2.159446E-04
3.129209E+03	4.463324E-04	2.090624E-04
3.139111E+03	4.321913E-04	2.024047E-04
3.149014E+03	4.185013E-04	1.959603E-04
3.158916E+03	4.052707E-04	1.897328E-04
3.168819E+03	3.924834E-04	1.837148E-04
3.178721E+03	3.801386E-04	1.779058E-04
3.188624E+03	3.682274E-04	1.723015E-04
3.198526E+03	3.567406E-04	1.668975E-04
3.208429E+03	3.456639E-04	1.616870E-04
3.218332E+03	3.349996E-04	1.566711E-04
3.228234E+03	3.247328E-04	1.518426E-04
3.238137E+03	3.148592E-04	1.471995E-04
3.248039E+03	3.053640E-04	1.427348E-04
3.257942E+03	2.962377E-04	1.384439E-04
3.267844E+03	2.874758E-04	1.343247E-04
3.277747E+03	2.790636E-04	1.303702E-04
3.287650E+03	2.709960E-04	1.265780E-04
3.297552E+03	2.632630E-04	1.229433E-04
3.307455E+03	2.558475E-04	1.194580E-04
3.317357E+03	2.487475E-04	1.161213E-04
3.327260E+03	2.419502E-04	1.129269E-04
3.337162E+03	2.354464E-04	1.098705E-04
3.347065E+03	2.292270E-04	1.069479E-04
3.356967E+03	2.232771E-04	1.041520E-04
3.366870E+03	2.175945E-04	1.014817E-04
3.376773E+03	2.121677E-04	9.893156E-05
3.386675E+03	2.069860E-04	9.649659E-05
3.396578E+03	2.020416E-04	9.417310E-05
3.406480E+03	1.973270E-04	9.195747E-05
3.416383E+03	1.928301E-04	8.984404E-05
3.426285E+03	1.885464E-04	8.783070E-05
3.436188E+03	1.844648E-04	8.591217E-05
3.446090E+03	1.805791E-04	8.408552E-05
3.455993E+03	1.768812E-04	8.234695E-05
3.465896E+03	1.733635E-04	8.069283E-05
3.475798E+03	1.700186E-04	7.911976E-05
3.485701E+03	1.668397E-04	7.762447E-05
3.495603E+03	1.638185E-04	7.620306E-05
3.505506E+03	1.609473E-04	7.485186E-05
3.515408E+03	1.582203E-04	7.356824E-05
3.525311E+03	1.556306E-04	7.234891E-05
3.535213E+03	1.531735E-04	7.119159E-05
3.545116E+03	1.508410E-04	7.009259E-05
3.555019E+03	1.486288E-04	6.904991E-05
3.564921E+03	1.465316E-04	6.806095E-05
3.574824E+03	1.445469E-04	6.712461E-05
3.584726E+03	1.426682E-04	6.623780E-05
3.594629E+03	1.408921E-04	6.539895E-05
3.604531E+03	1.392114E-04	6.460463E-05
3.614434E+03	1.376231E-04	6.385349E-05
3.624337E+03	1.361233E-04	6.314362E-05
3.634239E+03	1.347080E-04	6.247318E-05
3.644142E+03	1.333747E-04	6.184100E-05
3.654044E+03	1.321210E-04	6.124594E-05
3.663947E+03	1.309434E-04	6.068632E-05
3.673849E+03	1.298407E-04	6.016161E-05
3.683752E+03	1.288096E-04	5.967022E-05
3.693654E+03	1.278501E-04	5.921214E-05
3.703557E+03	1.269600E-04	5.878634E-05
3.713460E+03	1.261370E-04	5.839176E-05
3.723362E+03	1.253803E-04	5.802792E-05
3.733265E+03	1.246896E-04	5.769476E-05
3.743167E+03	1.240629E-04	5.739128E-05
3.753070E+03	1.235000E-04	5.711741E-05
3.762972E+03	1.229989E-04	5.687215E-05
3.772875E+03	1.225584E-04	5.665495E-05
3.782777E+03	1.221784E-04	5.646576E-05
3.792680E+03	1.218589E-04	5.630450E-05
3.802583E+03	1.215976E-04	5.617017E-05
3.812485E+03	1.213954E-04	5.606316E-05
3.822388E+03	1.212493E-04	5.598199E-05
3.832290E+03	1.211610E-04	5.592751E-05
3.842193E+03	1.211275E-04	5.589827E-05
3.852095E+03	1.211506E-04	5.589508E-05
3.861998E+03	1.212282E-04	5.591697E-05
3.871900E+03	1.213602E-04	5.596385E-05
3.881803E+03	1.215454E-04	5.603517E-05
3.891706E+03	1.217837E-04	5.613087E-05
3.901608E+03	1.220740E-04	5.625042E-05
3.911511E+03	1.224171E-04	5.639418E-05
3.921413E+03	1.228110E-04	5.656117E-05
3.931316E+03	1.232556E-04	5.675135E-05
3.941218E+03	1.237497E-04	5.696416E-05
3.951121E+03	1.242943E-04	5.720001E-05
3.961024E+03	1.248882E-04	5.745837E-05
3.970926E+03	1.255304E-04	5.773875E-05
3.980829E+03	1.262199E-04	5.804063E-05
3.990731E+03	1.269575E-04	5.836443E-05
4.000634E+03	1.277412E-04	5.870917E-05
4.010536E+03	1.285720E-04	5.907530E-05
4.020439E+03	1.294479E-04	5.946186E-05
4.030341E+03	1.303687E-04	5.986882E-05
4.040244E+03	1.313347E-04	6.029617E-05
4.050147E+03	1.323447E-04	6.074346E-05
4.060049E+03	1.333978E-04	6.121019E-05
4.069952E+03	1.344930E-04	6.169590E-05
4.079854E+03	1.356314E-04	6.220110E-05
4.089757E+03	1.368110E-04	6.272485E-05
4.099659E+03	1.380320E-04	6.326719E-05
4.109562E+03	1.392924E-04	6.382719E-05
4.119464E+03	1.405922E-04	6.440488E-05
4.129367E+03	1.419317E-04	6.500035E-05
4.139270E+03	1.433088E-04	6.561265E-05
4.149172E+03	1.447239E-04	6.624187E-05
4.159075E+03	1.461747E-04	6.688705E-05
4.168977E+03	1.476616E-04	6.754829E-05
4.178880E+03	1.491826E-04	6.822463E-05
4.188782E+03	1.507378E-04	6.891616E-05
4.198685E+03	1.523251E-04	6.962191E-05
4.208587E+03	1.539436E-04	7.034141E-05
4.218490E+03	1.555911E-04	7.107366E-05
4.228393E+03	1.572678E-04	7.181873E-05
4.238295E+03	1.589714E-04	7.257557E-05
4.248198E+03	1.607009E-04	7.334369E-05
4.258100E+03	1.624537E-04	7.412196E-05
4.268003E+03	1.642275E-04	7.490924E-05
4.277905E+03	1.660210E-04	7.570493E-05
4.287808E+03	1.678328E-04	7.650843E-05
4.297711E+03	1.696602E-04	7.731848E-05
4.307613E+03	1.715018E-04	7.813439E-05
4.317516E+03	1.733546E-04	7.895483E-05
4.327418E+03	1.752183E-04	7.977967E-05
4.337321E+03	1.770913E-04	8.060817E-05
4.347223E+03	1.789762E-04	8.144149E-05
4.357126E+03	1.808714E-04	8.227888E-05
4.367028E+03	1.827781E-04	8.312092E-05
4.376931E+03	1.846961E-04	8.396751E-05
4.386834E+03	1.866285E-04	8.481998E-05
4.396736E+03	1.885736E-04	8.567762E-05
4.406639E+03	1.905314E-04	8.654041E-05
4.416541E+03	1.925035E-04	8.740908E-05
4.426444E+03	1.944901E-04	8.828367E-05
4.436346E+03	1.964913E-04	8.916426E-05
4.446249E+03	1.985056E-04	9.005017E-05
4.456151E+03	2.005351E-04	9.094227E-05
4.466054E+03	2.025782E-04	9.183991E-05
4.475957E+03	2.046354E-04	9.274328E-05
4.485859E+03	2.067071E-04	9.365251E-05
4.495762E+03	2.087901E-04	9.456622E-05
4.505664E+03	2.108868E-04	9.548543E-05
4.515567E+03	2.129958E-04	9.640949E-05
4.525469E+03	2.151178E-04	9.733879E-05
4.535372E+03	2.172500E-04	9.827194E-05
4.545274E+03	2.193945E-04	9.920996E-05
4.555177E+03	2.215487E-04	1.001517E-04
4.565080E+03	2.237151E-04	1.010981E-04
4.574982E+03	2.258911E-04	1.020482E-04
4.584885E+03	2.280775E-04	1.030023E-04
4.594787E+03	2.302738E-04	1.039600E-04
4.604690E+03	2.324827E-04	1.049227E-04
4.614592E+03	2.347019E-04	1.058893E-04
4.624495E+03	2.369349E-04	1.068614E-04
4.634398E+03	2.391810E-04	1.078386E-04
4.644300E+03	2.414402E-04	1.088208E-04
4.654203E+03	2.437162E-04	1.098099E-04
4.664105E+03	2.460069E-04	1.108049E-04
4.674008E+03	2.483141E-04	1.118064E-04
4.683910E+03	2.506355E-04	1.128135E-04
4.693813E+03	2.529736E-04	1.138274E-04
4.703715E+03	2.553235E-04	1.148456E-04
4.713618E+03	2.576875E-04	1.158695E-04
4.723521E+03	2.600634E-04	1.168978E-04
4.733423E+03	2.624535E-04	1.179316E-04
4.743326E+03	2.648554E-04	1.189699E-04
4.753228E+03	2.672694E-04	1.200128E-04
4.763131E+03	2.696953E-04	1.210601E-04
4.773033E+03	2.721331E-04	1.221118E-04
4.782936E+03	2.745828E-04	1.231681E-04
4.792838E+03	2.770420E-04	1.242277E-04
4.802741E+03	2.795130E-04	1.252916E-04
4.812644E+03	2.819955E-04	1.263599E-04
4.822546E+03	2.844873E-04	1.274313E-04
4.832449E+03	2.869876E-04	1.285057E-04
4.842351E+03	2.894989E-04	1.295840E-04
4.852254E+03	2.920154E-04	1.306637E-04
4.862156E+03	2.945421E-04	1.317471E-04
4.872059E+03	2.970753E-04	1.328324E-04
4.881961E+03	2.996115E-04	1.339181E-04
4.891864E+03	3.021528E-04	1.350051E-04
4.901767E+03	3.046981E-04	1.360929E-04
4.911669E+03	3.072428E-04	1.371795E-04
4.921572E+03	3.097885E-04	1.382655E-04
4.931474E+03	3.123280E-04	1.393478E-04
4.941377E+03	3.148651E-04	1.404281E-04
4.951279E+03	3.173946E-04	1.415039E-04
4.961182E+03	3.199114E-04	1.425732E-04
4.971085E+03	3.224159E-04	1.436359E-04
4.980987E+03	3.249022E-04	1.446896E-04
4.990890E+03	3.273673E-04	1.457328E-04
5.000792E+03	3.298078E-04	1.467641E-04
5.010695E+03	3.322204E-04	1.477820E-04
5.020597E+03	3.345978E-04	1.487834E-04
5.030500E+03	3.369398E-04	1.497679E-04
5.040402E+03	3.392386E-04	1.507324E-04
5.050305E+03	3.414899E-04	1.516748E-04
5.060208E+03	3.436857E-04	1.525916E-04
5.070110E+03	3.458247E-04	1.534823E-04
5.080013E+03	3.478948E-04	1.543416E-04
5.089915E+03	3.498980E-04	1.551703E-04
5.099818E+03	3.518221E-04	1.559631E-04
5.109720E+03	3.536651E-04	1.567191E-04
5.119623E+03	3.554185E-04	1.574346E-04
5.129525E+03	3.570727E-04	1.581054E-04
5.139428E+03	3.586262E-04	1.587309E-04
5.149331E+03	3.600698E-04	1.593070E-04
5.159233E+03	3.613979E-04	1.598314E-04
5.169136E+03	3.626056E-04	1.603020E-04
5.179038E+03	3.636836E-04	1.607146E-04
5.188941E+03	3.646277E-04	1.610675E-04
5.198843E+03	3.654288E-04	1.613568E-04
5.208746E+03	3.660866E-04	1.615823E-04
5.218648E+03	3.665934E-04	1.617409E-04
5.228551E+03	3.669455E-04	1.618308E-04
5.238454E+03	3.671398E-04	1.618510E-04
5.248356E+03	3.671707E-04	1.617988E-04
5.258259E+03	3.670358E-04	1.616734E-04
5.268161E+03	3.667343E-04	1.614746E-04
5.278064E+03	3.662658E-04	1.612022E-04
5.287966E+03	3.656268E-04	1.608548E-04
5.297869E+03	3.648230E-04	1.604350E-04
5.307772E+03	3.638560E-04	1.599436E-04
5.317674E+03	3.627295E-04	1.593823E-04
5.327577E+03	3.614440E-04	1.587514E-04
5.337479E+03	3.600119E-04	1.580564E-04
5.347382E+03	3.584356E-04	1.572986E-04
5.357284E+03	3.567297E-04	1.564843E-04
5.367187E+03	3.548988E-04	1.556157E-04
5.377089E+03	3.529550E-04	1.546981E-04
5.386992E+03	3.509087E-04	1.537361E-04
5.396895E+03	3.487774E-04	1.527376E-04
5.406797E+03	3.465686E-04	1.517058E-04
5.416700E+03	3.442913E-04	1.506447E-04
5.426602E+03	3.419509E-04	1.495567E-04
5.436505E+03	3.395609E-04	1.484478E-04
5.446407E+03	3.371280E-04	1.473209E-04
5.456310E+03	3.346627E-04	1.461806E-04
5.466212E+03	3.321762E-04	1.450319E-04
5.476115E+03	3.296791E-04	1.438793E-04
5.486018E+03	3.271826E-04	1.427278E-04
5.495920E+03	3.247008E-04	1.415836E-04
5.505823E+03	3.222445E-04	1.404513E-04
5.515725E+03	3.198303E-04	1.393381E-04
5.525628E+03	3.174650E-04	1.382471E-04
5.535530E+03	3.151675E-04	1.371863E-04
5.545433E+03	3.129434E-04	1.361583E-04
5.555335E+03	3.108072E-04	1.351693E-04
5.565238E+03	3.087728E-04	1.342251E-04
5.575141E+03	3.068433E-04	1.333273E-04
5.585043E+03	3.050376E-04	1.324839E-04
5.594946E+03	3.033608E-04	1.316970E-04
5.604848E+03	3.018173E-04	1.309685E-04
5.614751E+03	3.004230E-04	1.303052E-04
5.624653E+03	2.991781E-04	1.297072E-04
5.634556E+03	2.980913E-04	1.291781E-04
5.644459E+03	2.971699E-04	1.287209E-04
5.654361E+03	2.964186E-04	1.283377E-04
5.664264E+03	2.958411E-04	1.280299E-04
5.674166E+03	2.954402E-04	1.277986E-04
5.684069E+03	2.952223E-04	1.276465E-04
5.693971E+03	2.951925E-04	1.275758E-04
5.703874E+03	2.953468E-04	1.275845E-04
5.713776E+03	2.956966E-04	1.276774E-04
5.723679E+03	2.962368E-04	1.278524E-04
5.733582E+03	2.969756E-04	1.281127E-04
5.743484E+03	2.979107E-04	1.284574E-04
5.753387E+03	2.990464E-04	1.288880E-04
5.763289E+03	3.003840E-04	1.294051E-04
5.773192E+03	3.019274E-04	1.300103E-04
5.783094E+03	3.036742E-04	1.307023E-04
5.792997E+03	3.056251E-04	1.314814E-04
5.802899E+03	3.077838E-04	1.323490E-04
5.812802E+03	3.101547E-04	1.333069E-04
5.822705E+03	3.127309E-04	1.343520E-04
5.832607E+03	3.155199E-04	1.354875E-04
5.842510E+03	3.185180E-04	1.367115E-04
5.852412E+03	3.217286E-04	1.380255E-04
5.862315E+03	3.251516E-04	1.394292E-04
5.872217E+03	3.287822E-04	1.409205E-04
5.882120E+03	3.326235E-04	1.425006E-04
5.892022E+03	3.366740E-04	1.441687E-04
5.901925E+03	3.409281E-04	1.459223E-04
5.911828E+03	3.453911E-04	1.477635E-04
5.921730E+03	3.500527E-04	1.496879E-04
5.931633E+03	3.549132E-04	1.516955E-04
5.941535E+03	3.599687E-04	1.537844E-04
5.951438E+03	3.652107E-04	1.559509E-04
5.961340E+03	3.706381E-04	1.581944E-04
5.971243E+03	3.762358E-04	1.605084E-04
5.981146E+03	3.820059E-04	1.628937E-04
5.991048E+03	3.879316E-04	1.653430E-04
6.000951E+03	3.940092E-04	1.678547E-04
6.010853E+03	4.002244E-04	1.704225E-04
6.020756E+03	4.065671E-04	1.730422E-04
6.030658E+03	4.130216E-04	1.757069E-04
6.040561E+03	4.195705E-04	1.784093E-04
6.050463E+03	4.262060E-04	1.811458E-04
6.060366E+03	4.328996E-04	1.839045E-04
6.070269E+03	4.396417E-04	1.866811E-04
6.080171E+03	4.464070E-04	1.894650E-04
6.090074E+03	4.531796E-04	1.922493E-04
6.099976E+03	4.599216E-04	1.950180E-04
6.109879E+03	4.666215E-04	1.977663E-04
6.119781E+03	4.732457E-04	2.004800E-04
6.129684E+03	4.797712E-04	2.031493E-04
6.139586E+03	4.861693E-04	2.057622E-04
6.149489E+03	4.924363E-04	2.083173E-04
6.159392E+03	4.985771E-04	2.108166E-04
6.169294E+03	5.045978E-04	2.132630E-04
6.179197E+03	5.105079E-04	2.156603E-04
6.189099E+03	5.162990E-04	2.180052E-04
6.199002E+03	5.219964E-04	2.203085E-04
6.208904E+03	5.275887E-04	2.225653E-04
6.218807E+03	5.330917E-04	2.247825E-04
6.228709E+03	5.385170E-04	2.269649E-04
6.238612E+03	5.438554E-04	2.291089E-04
6.248515E+03	5.491206E-04	2.312201E-04
6.258417E+03	5.543199E-04	2.333018E-04
6.268320E+03	5.594617E-04	2.353574E-04
6.278222E+03	5.645403E-04	2.373847E-04
6.288125E+03	5.695651E-04	2.393876E-04
6.298027E+03	5.745384E-04	2.413671E-04
6.307930E+03	5.794636E-04	2.433247E-04
6.317833E+03	5.843354E-04	2.452582E-04
6.327735E+03	5.891484E-04	2.471653E-04
6.337638E+03	5.938974E-04	2.490440E-04
6.347540E+03	5.985848E-04	2.508951E-04
6.357443E+03	6.032048E-04	2.527165E-04
6.367345E+03	6.077338E-04	2.544981E-04
6.377248E+03	6.122004E-04	2.562521E-04
6.387150E+03	6.166074E-04	2.579797E-04
6.397053E+03	6.209667E-04	2.596858E-04
6.406956E+03	6.253007E-04	2.613799E-04
6.416858E+03	6.296036E-04	2.630595E-04
6.426761E+03	6.338982E-04	2.647342E-04
6.436663E+03	6.381891E-04	2.664059E-04
6.446566E+03	6.424900E-04	2.680804E-04
6.456468E+03	6.467858E-04	2.697513E-04
6.466371E+03	6.511106E-04	2.714329E-04
6.476273E+03	6.554483E-04	2.731183E-04
6.486176E+03	6.598134E-04	2.748138E-04
6.496079E+03	6.642098E-04	2.765208E-04
6.505981E+03	6.686311E-04	2.782368E-04
6.515884E+03	6.730912E-04	2.799674E-04
6.525786E+03	6.775942E-04	2.817143E-04
6.535689E+03	6.821318E-04	2.834742E-04
6.545591E+03	6.867078E-04	2.852485E-04
6.555494E+03	6.913243E-04	2.870381E-04
6.565396E+03	6.959954E-04	2.888489E-04
6.575299E+03	7.007011E-04	2.906724E-04
6.585202E+03	7.054543E-04	2.925142E-04
6.595104E+03	7.102577E-04	2.943751E-04
6.605007E+03	7.151007E-04	2.962509E-04
6.614909E+03	7.199965E-04	2.981470E-04
6.624812E+03	7.249345E-04	3.000590E-04
6.634714E+03	7.299279E-04	3.019923E-04
6.644617E+03	7.349526E-04	3.039369E-04
6.654520E+03	7.400212E-04	3.058980E-04
6.664422E+03	7.451471E-04	3.078812E-04
6.674325E+03	7.503045E-04	3.098757E-04
6.684227E+03	7.555064E-04	3.118869E-04
6.694130E+03	7.607391E-04	3.139092E-04
6.704032E+03	7.660153E-04	3.159478E-04
6.713935E+03	7.713205E-04	3.179966E-04
6.723837E+03	7.766538E-04	3.200554E-04
6.733740E+03	7.820280E-04	3.221293E-04
6.743643E+03	7.874134E-04	3.242062E-04
6.753545E+03	7.928371E-04	3.262971E-04
6.763448E+03	7.982682E-04	3.283894E-04
6.773350E+03	8.037340E-04	3.304943E-04
6.783253E+03	8.092035E-04	3.325990E-04
6.793155E+03	8.146736E-04	3.347023E-04
6.803058E+03	8.201570E-04	3.368094E-04
6.812960E+03	8.256513E-04	3.389193E-04
6.822863E+03	8.311228E-04	3.410183E-04
6.832766E+03	8.365995E-04	3.431177E-04
6.842668E+03	8.420627E-04	3.452101E-04
6.852571E+03	8.475255E-04	3.473006E-04
6.862473E+03	8.529528E-04	3.493750E-04
6.872376E+03	8.583573E-04	3.514386E-04
6.882278E+03	8.637356E-04	3.534898E-04
6.892181E+03	8.690679E-04	3.555208E-04
6.902083E+03	8.743679E-04	3.575371E-04
6.911986E+03	8.796322E-04	3.595373E-04
6.921889E+03	8.848411E-04	3.615134E-04
6.931791E+03	8.899913E-04	3.634642E-04
6.941694E+03	8.950801E-04	3.653887E-04
6.951596E+03	9.001222E-04	3.672927E-04
6.961499E+03	9.050802E-04	3.691611E-04
6.971401E+03	9.099872E-04	3.710075E-04
6.981304E+03	9.148057E-04	3.728167E-04
6.991207E+03	9.195514E-04	3.745950E-04
7.001109E+03	9.242050E-04	3.763347E-04
7.011012E+03	9.287833E-04	3.780428E-04
7.020914E+03	9.332858E-04	3.797190E-04
7.030817E+03	9.376930E-04	3.813554E-04
7.040719E+03	9.419854E-04	3.829443E-04
7.050622E+03	9.462009E-04	3.845010E-04
7.060524E+03	9.503203E-04	3.860180E-04
7.070427E+03	9.543440E-04	3.874953E-04
7.080330E+03	9.582726E-04	3.889333E-04
7.090232E+03	9.620871E-04	3.903243E-04
7.100135E+03	9.658081E-04	3.916769E-04
7.110037E+03	9.694164E-04	3.929833E-04
7.119940E+03	9.729129E-04	3.942438E-04
7.129842E+03	9.763193E-04	3.954674E-04
7.139745E+03	9.796162E-04	3.966464E-04
7.149647E+03	9.828254E-04	3.977895E-04
7.159550E+03	9.859070E-04	3.988808E-04
7.169453E+03	9.888829E-04	3.999291E-04
7.179355E+03	9.917540E-04	4.009349E-04
7.189258E+03	9.945216E-04	4.018988E-04
7.199160E+03	9.971867E-04	4.028212E-04
7.209063E+03	9.997504E-04	4.037028E-04
7.218965E+03	1.002192E-03	4.045354E-04
7.228868E+03	1.004535E-03	4.053279E-04
7.238770E+03	1.006779E-03	4.060810E-04
7.248673E+03	1.008926E-03	4.067951E-04
7.258576E+03	1.010955E-03	4.074619E-04
7.268478E+03	1.012888E-03	4.080907E-04
7.278381E+03	1.014749E-03	4.086910E-04
7.288283E+03	1.016496E-03	4.092455E-04
7.298186E+03	1.018151E-03	4.097639E-04
7.308088E+03	1.019717E-03	4.102468E-04
7.317991E+03	1.021218E-03	4.107041E-04
7.327894E+03	1.022633E-03	4.111277E-04
7.337796E+03	1.023987E-03	4.115277E-04
7.347699E+03	1.025306E-03	4.119144E-04
7.357601E+03	1.026571E-03	4.122798E-04
7.367504E+03	1.027829E-03	4.126438E-04
7.377406E+03	1.029039E-03	4.129892E-04
7.387309E+03	1.030227E-03	4.133266E-04
7.397211E+03	1.031372E-03	4.136478E-04
7.407114E+03	1.032501E-03	4.139638E-04
7.417017E+03	1.033570E-03	4.142566E-04
7.426919E+03	1.034605E-03	4.145369E-04
7.436822E+03	1.035609E-03	4.148056E-04
7.446724E+03	1.036558E-03	4.150540E-04
7.456627E+03	1.037505E-03	4.153025E-04
7.466529E+03	1.038403E-03	4.155325E-04
7.476432E+03	1.039277E-03	4.157545E-04
7.486334E+03	1.040105E-03	4.159591E-04
7.496237E+03	1.040913E-03	4.161567E-04
7.506140E+03	1.041675E-03	4.163374E-04
7.516042E+03	1.042418E-03	4.165116E-04
7.525945E+03	1.043116E-03	4.166692E-04
7.535847E+03	1.043769E-03	4.168102E-04
7.545750E+03	1.044403E-03	4.169445E-04
7.555652E+03	1.044991E-03	4.170618E-04
7.565555E+03	1.045532E-03	4.171617E-04
7.575457E+03	1.046051E-03	4.172537E-04
7.585360E+03	1.046520E-03	4.173274E-04
7.595263E+03	1.046964E-03	4.173923E-04
7.605165E+03	1.047329E-03	4.174271E-04
7.615068E+03	1.047666E-03	4.174514E-04
7.624970E+03	1.047970E-03	4.174645E-04
7.634873E+03	1.048216E-03	4.174551E-04
7.644775E+03	1.048424E-03	4.174324E-04
7.654678E+03	1.048567E-03	4.173850E-04
7.664581E+03	1.048641E-03	4.173113E-04
7.674483E+03	1.048670E-03	4.172208E-04
7.684386E+03	1.048649E-03	4.171121E-04
