#wls	flux	fluxerr
1.584409E+03	4.308706E-03	1.027106E-03
1.624020E+03	4.451335E-03	1.061093E-03
1.663630E+03	4.588696E-03	1.093822E-03
1.703240E+03	4.719181E-03	1.124912E-03
1.742850E+03	4.841528E-03	1.154060E-03
1.782461E+03	4.953871E-03	1.180823E-03
1.822071E+03	5.054720E-03	1.204844E-03
1.861681E+03	5.142484E-03	1.225746E-03
1.901291E+03	5.215060E-03	1.243026E-03
1.940902E+03	5.270794E-03	1.256291E-03
1.980512E+03	5.308041E-03	1.265149E-03
2.020122E+03	5.325232E-03	1.269226E-03
2.059732E+03	5.320517E-03	1.268081E-03
2.099342E+03	5.292683E-03	1.261426E-03
2.138953E+03	5.240054E-03	1.248860E-03
2.178563E+03	5.161427E-03	1.230099E-03
2.218173E+03	5.054893E-03	1.204687E-03
2.257783E+03	4.919483E-03	1.172394E-03
2.297394E+03	4.758238E-03	1.133945E-03
2.337004E+03	4.575258E-03	1.090317E-03
2.376614E+03	4.373864E-03	1.042302E-03
2.416224E+03	4.156816E-03	9.905577E-04
2.455835E+03	3.926708E-03	9.357035E-04
2.495445E+03	3.686402E-03	8.784211E-04
2.535055E+03	3.438476E-03	8.193249E-04
2.574665E+03	3.185899E-03	7.591229E-04
2.614276E+03	2.931387E-03	6.984621E-04
2.653886E+03	2.677495E-03	6.379517E-04
2.693496E+03	2.427059E-03	5.782670E-04
2.733106E+03	2.182586E-03	5.200060E-04
2.772716E+03	1.946488E-03	4.637427E-04
2.812327E+03	1.720959E-03	4.100003E-04
2.851937E+03	1.508049E-03	3.592667E-04
2.891547E+03	1.309751E-03	3.120168E-04
2.931157E+03	1.127868E-03	2.686795E-04
2.970768E+03	9.635437E-04	2.295276E-04
2.980670E+03	9.252650E-04	2.204074E-04
2.990573E+03	8.881475E-04	2.115640E-04
3.000475E+03	8.521394E-04	2.029850E-04
3.010378E+03	8.172525E-04	1.946733E-04
3.020280E+03	7.835110E-04	1.866344E-04
3.030183E+03	7.508652E-04	1.788567E-04
3.040086E+03	7.193342E-04	1.713446E-04
3.049988E+03	6.889003E-04	1.640940E-04
3.059891E+03	6.595455E-04	1.571005E-04
3.069793E+03	6.312516E-04	1.503598E-04
3.079696E+03	6.040243E-04	1.438733E-04
3.089598E+03	5.778282E-04	1.376325E-04
3.099501E+03	5.526526E-04	1.316348E-04
3.109403E+03	5.284735E-04	1.258746E-04
3.119306E+03	5.052667E-04	1.203461E-04
3.129209E+03	4.830172E-04	1.150457E-04
3.139111E+03	4.617075E-04	1.099692E-04
3.149014E+03	4.412934E-04	1.051061E-04
3.158916E+03	4.217734E-04	1.004560E-04
3.168819E+03	4.031108E-04	9.601019E-05
3.178721E+03	3.852852E-04	9.176382E-05
3.188624E+03	3.682679E-04	8.771004E-05
3.198526E+03	3.520250E-04	8.384073E-05
3.208429E+03	3.365464E-04	8.015354E-05
3.218332E+03	3.217867E-04	7.663762E-05
3.228234E+03	3.077347E-04	7.329031E-05
3.238137E+03	2.943621E-04	7.010483E-05
3.248039E+03	2.816319E-04	6.707242E-05
3.257942E+03	2.695313E-04	6.419000E-05
3.267844E+03	2.580251E-04	6.144919E-05
3.277747E+03	2.470919E-04	5.884489E-05
3.287650E+03	2.367066E-04	5.637112E-05
3.297552E+03	2.268483E-04	5.402288E-05
3.307455E+03	2.174897E-04	5.179367E-05
3.317357E+03	2.086079E-04	4.967808E-05
3.327260E+03	2.001811E-04	4.767085E-05
3.337162E+03	1.921906E-04	4.576756E-05
3.347065E+03	1.846130E-04	4.396263E-05
3.356967E+03	1.774287E-04	4.225140E-05
3.366870E+03	1.706188E-04	4.062936E-05
3.376773E+03	1.641631E-04	3.909169E-05
3.386675E+03	1.580447E-04	3.763435E-05
3.396578E+03	1.522471E-04	3.625343E-05
3.406480E+03	1.467529E-04	3.494479E-05
3.416383E+03	1.415474E-04	3.370493E-05
3.426285E+03	1.366151E-04	3.253012E-05
3.436188E+03	1.319411E-04	3.141685E-05
3.446090E+03	1.275116E-04	3.036182E-05
3.455993E+03	1.233122E-04	2.936160E-05
3.465896E+03	1.193322E-04	2.841363E-05
3.475798E+03	1.155587E-04	2.751486E-05
3.485701E+03	1.119787E-04	2.666216E-05
3.495603E+03	1.085788E-04	2.585239E-05
3.505506E+03	1.053505E-04	2.508345E-05
3.515408E+03	1.022820E-04	2.435260E-05
3.525311E+03	9.936087E-05	2.365685E-05
3.535213E+03	9.657870E-05	2.299419E-05
3.545116E+03	9.392657E-05	2.236251E-05
3.555019E+03	9.139548E-05	2.175965E-05
3.564921E+03	8.897625E-05	2.118345E-05
3.574824E+03	8.666377E-05	2.063266E-05
3.584726E+03	8.445152E-05	2.010575E-05
3.594629E+03	8.233347E-05	1.960128E-05
3.604531E+03	8.030751E-05	1.911874E-05
3.614434E+03	7.836938E-05	1.865712E-05
3.624337E+03	7.651553E-05	1.821557E-05
3.634239E+03	7.474320E-05	1.779343E-05
3.644142E+03	7.304964E-05	1.739006E-05
3.654044E+03	7.143141E-05	1.700463E-05
3.663947E+03	6.988704E-05	1.663679E-05
3.673849E+03	6.841253E-05	1.628559E-05
3.683752E+03	6.700582E-05	1.595053E-05
3.693654E+03	6.566541E-05	1.563126E-05
3.703557E+03	6.438697E-05	1.532675E-05
3.713460E+03	6.317017E-05	1.503692E-05
3.723362E+03	6.201090E-05	1.476079E-05
3.733265E+03	6.090823E-05	1.449814E-05
3.743167E+03	5.985985E-05	1.424841E-05
3.753070E+03	5.886338E-05	1.401105E-05
3.762972E+03	5.791707E-05	1.378563E-05
3.772875E+03	5.701877E-05	1.357165E-05
3.782777E+03	5.616682E-05	1.336869E-05
3.792680E+03	5.535962E-05	1.317640E-05
3.802583E+03	5.459521E-05	1.299429E-05
3.812485E+03	5.387213E-05	1.282203E-05
3.822388E+03	5.318898E-05	1.265926E-05
3.832290E+03	5.254397E-05	1.250559E-05
3.842193E+03	5.193584E-05	1.236069E-05
3.852095E+03	5.136332E-05	1.222427E-05
3.861998E+03	5.082487E-05	1.209596E-05
3.871900E+03	5.031932E-05	1.197548E-05
3.881803E+03	4.984524E-05	1.186250E-05
3.891706E+03	4.940197E-05	1.175685E-05
3.901608E+03	4.898815E-05	1.165820E-05
3.911511E+03	4.860287E-05	1.156636E-05
3.921413E+03	4.824447E-05	1.148091E-05
3.931316E+03	4.791284E-05	1.140183E-05
3.941218E+03	4.760645E-05	1.132876E-05
3.951121E+03	4.732457E-05	1.126153E-05
3.961024E+03	4.706605E-05	1.119985E-05
3.970926E+03	4.683055E-05	1.114365E-05
3.980829E+03	4.661675E-05	1.109262E-05
3.990731E+03	4.642435E-05	1.104668E-05
4.000634E+03	4.625202E-05	1.100551E-05
4.010536E+03	4.609959E-05	1.096908E-05
4.020439E+03	4.596576E-05	1.093708E-05
4.030341E+03	4.585008E-05	1.090939E-05
4.040244E+03	4.575202E-05	1.088590E-05
4.050147E+03	4.567115E-05	1.086650E-05
4.060049E+03	4.560632E-05	1.085091E-05
4.069952E+03	4.555713E-05	1.083904E-05
4.079854E+03	4.552285E-05	1.083072E-05
4.089757E+03	4.550309E-05	1.082586E-05
4.099659E+03	4.549752E-05	1.082437E-05
4.109562E+03	4.550512E-05	1.082601E-05
4.119464E+03	4.552594E-05	1.083079E-05
4.129367E+03	4.555897E-05	1.083848E-05
4.139270E+03	4.560396E-05	1.084901E-05
4.149172E+03	4.566065E-05	1.086233E-05
4.159075E+03	4.572812E-05	1.087821E-05
4.168977E+03	4.580614E-05	1.089659E-05
4.178880E+03	4.589417E-05	1.091736E-05
4.188782E+03	4.599234E-05	1.094054E-05
4.198685E+03	4.609943E-05	1.096583E-05
4.208587E+03	4.621565E-05	1.099330E-05
4.218490E+03	4.634010E-05	1.102272E-05
4.228393E+03	4.647306E-05	1.105416E-05
4.238295E+03	4.661327E-05	1.108733E-05
4.248198E+03	4.676064E-05	1.112220E-05
4.258100E+03	4.691505E-05	1.115873E-05
4.268003E+03	4.707531E-05	1.119666E-05
4.277905E+03	4.724170E-05	1.123605E-05
4.287808E+03	4.741266E-05	1.127651E-05
4.297711E+03	4.758846E-05	1.131813E-05
4.307613E+03	4.776717E-05	1.136044E-05
4.317516E+03	4.794871E-05	1.140341E-05
4.327418E+03	4.813410E-05	1.144730E-05
4.337321E+03	4.832335E-05	1.149211E-05
4.347223E+03	4.851680E-05	1.153791E-05
4.357126E+03	4.871440E-05	1.158469E-05
4.367028E+03	4.891546E-05	1.163230E-05
4.376931E+03	4.912076E-05	1.168091E-05
4.386834E+03	4.932957E-05	1.173035E-05
4.396736E+03	4.954191E-05	1.178063E-05
4.406639E+03	4.975754E-05	1.183169E-05
4.416541E+03	4.997649E-05	1.188353E-05
4.426444E+03	5.019813E-05	1.193601E-05
4.436346E+03	5.042291E-05	1.198923E-05
4.446249E+03	5.065025E-05	1.204306E-05
4.456151E+03	5.087989E-05	1.209743E-05
4.466054E+03	5.111241E-05	1.215249E-05
4.475957E+03	5.134677E-05	1.220797E-05
4.485859E+03	5.158322E-05	1.226395E-05
4.495762E+03	5.182200E-05	1.232049E-05
4.505664E+03	5.206254E-05	1.237743E-05
4.515567E+03	5.230514E-05	1.243486E-05
4.525469E+03	5.254925E-05	1.249265E-05
4.535372E+03	5.279520E-05	1.255087E-05
4.545274E+03	5.304291E-05	1.260951E-05
4.555177E+03	5.329232E-05	1.266854E-05
4.565080E+03	5.354292E-05	1.272786E-05
4.574982E+03	5.379561E-05	1.278767E-05
4.584885E+03	5.404945E-05	1.284774E-05
4.594787E+03	5.430487E-05	1.290819E-05
4.604690E+03	5.456190E-05	1.296902E-05
4.614592E+03	5.482009E-05	1.303012E-05
4.624495E+03	5.508040E-05	1.309172E-05
4.634398E+03	5.534195E-05	1.315361E-05
4.644300E+03	5.560529E-05	1.321592E-05
4.654203E+03	5.587139E-05	1.327888E-05
4.664105E+03	5.613995E-05	1.334242E-05
4.674008E+03	5.641149E-05	1.340667E-05
4.683910E+03	5.668668E-05	1.347178E-05
4.693813E+03	5.696566E-05	1.353778E-05
4.703715E+03	5.724858E-05	1.360472E-05
4.713618E+03	5.753661E-05	1.367286E-05
4.723521E+03	5.782891E-05	1.374202E-05
4.733423E+03	5.812669E-05	1.381247E-05
4.743326E+03	5.843023E-05	1.388429E-05
4.753228E+03	5.873914E-05	1.395738E-05
4.763131E+03	5.905473E-05	1.403205E-05
4.773033E+03	5.937674E-05	1.410824E-05
4.782936E+03	5.970541E-05	1.418601E-05
4.792838E+03	6.004096E-05	1.426541E-05
4.802741E+03	6.038366E-05	1.434649E-05
4.812644E+03	6.073488E-05	1.442960E-05
4.822546E+03	6.109326E-05	1.451440E-05
4.832449E+03	6.146018E-05	1.460123E-05
4.842351E+03	6.183538E-05	1.469002E-05
4.852254E+03	6.221968E-05	1.478096E-05
4.862156E+03	6.261285E-05	1.487400E-05
4.872059E+03	6.301513E-05	1.496920E-05
4.881961E+03	6.342743E-05	1.506678E-05
4.891864E+03	6.384888E-05	1.516652E-05
4.901767E+03	6.428031E-05	1.526862E-05
4.911669E+03	6.472208E-05	1.537317E-05
4.921572E+03	6.517442E-05	1.548023E-05
4.931474E+03	6.563701E-05	1.558971E-05
4.941377E+03	6.611012E-05	1.570168E-05
4.951279E+03	6.659466E-05	1.581636E-05
4.961182E+03	6.708962E-05	1.593351E-05
4.971085E+03	6.759653E-05	1.605348E-05
4.980987E+03	6.811435E-05	1.617604E-05
4.990890E+03	6.864329E-05	1.630123E-05
5.000792E+03	6.918425E-05	1.642927E-05
5.010695E+03	6.973679E-05	1.656004E-05
5.020597E+03	7.030107E-05	1.669360E-05
5.030500E+03	7.087668E-05	1.682983E-05
5.040402E+03	7.146440E-05	1.696893E-05
5.050305E+03	7.206446E-05	1.711095E-05
5.060208E+03	7.267563E-05	1.725560E-05
5.070110E+03	7.329869E-05	1.740306E-05
5.080013E+03	7.393383E-05	1.755338E-05
5.089915E+03	7.458111E-05	1.770657E-05
5.099818E+03	7.523999E-05	1.786250E-05
5.109720E+03	7.591048E-05	1.802117E-05
5.119623E+03	7.659196E-05	1.818244E-05
5.129525E+03	7.728593E-05	1.834667E-05
5.139428E+03	7.799097E-05	1.851351E-05
5.149331E+03	7.870705E-05	1.868296E-05
5.159233E+03	7.943419E-05	1.885502E-05
5.169136E+03	8.017313E-05	1.902987E-05
5.179038E+03	8.092227E-05	1.920713E-05
5.188941E+03	8.168152E-05	1.938677E-05
5.198843E+03	8.245238E-05	1.956915E-05
5.208746E+03	8.323230E-05	1.975367E-05
5.218648E+03	8.402273E-05	1.994067E-05
5.228551E+03	8.482267E-05	2.012992E-05
5.238454E+03	8.563192E-05	2.032135E-05
5.248356E+03	8.645100E-05	2.051511E-05
5.258259E+03	8.727796E-05	2.071072E-05
5.268161E+03	8.811329E-05	2.090830E-05
5.278064E+03	8.895658E-05	2.110775E-05
5.287966E+03	8.980747E-05	2.130899E-05
5.297869E+03	9.066630E-05	2.151210E-05
5.307772E+03	9.153080E-05	2.171653E-05
5.317674E+03	9.240131E-05	2.192238E-05
5.327577E+03	9.327716E-05	2.212947E-05
5.337479E+03	9.415674E-05	2.233744E-05
5.347382E+03	9.504121E-05	2.254654E-05
5.357284E+03	9.592883E-05	2.275638E-05
5.367187E+03	9.681774E-05	2.296650E-05
5.377089E+03	9.770708E-05	2.317671E-05
5.386992E+03	9.859675E-05	2.338697E-05
5.396895E+03	9.948377E-05	2.359660E-05
5.406797E+03	1.003680E-04	2.380553E-05
5.416700E+03	1.012482E-04	2.401350E-05
5.426602E+03	1.021211E-04	2.421972E-05
5.436505E+03	1.029853E-04	2.442387E-05
5.446407E+03	1.038406E-04	2.462585E-05
5.456310E+03	1.046842E-04	2.482508E-05
5.466212E+03	1.055138E-04	2.502094E-05
5.476115E+03	1.063265E-04	2.521281E-05
5.486018E+03	1.071230E-04	2.540079E-05
5.495920E+03	1.078983E-04	2.558373E-05
5.505823E+03	1.086517E-04	2.576146E-05
5.515725E+03	1.093804E-04	2.593333E-05
5.525628E+03	1.100826E-04	2.609888E-05
5.535530E+03	1.107565E-04	2.625773E-05
5.545433E+03	1.113992E-04	2.640916E-05
5.555335E+03	1.120102E-04	2.655304E-05
5.565238E+03	1.125865E-04	2.668868E-05
5.575141E+03	1.131252E-04	2.681541E-05
5.585043E+03	1.136271E-04	2.693339E-05
5.594946E+03	1.140893E-04	2.704197E-05
5.604848E+03	1.145094E-04	2.714052E-05
5.614751E+03	1.148869E-04	2.722898E-05
5.624653E+03	1.152218E-04	2.730734E-05
5.634556E+03	1.155105E-04	2.737473E-05
5.644459E+03	1.157532E-04	2.743120E-05
5.654361E+03	1.159501E-04	2.747682E-05
5.664264E+03	1.160992E-04	2.751109E-05
5.674166E+03	1.162010E-04	2.753417E-05
5.684069E+03	1.162539E-04	2.754563E-05
5.693971E+03	1.162587E-04	2.754569E-05
5.703874E+03	1.162151E-04	2.753431E-05
5.713776E+03	1.161246E-04	2.751177E-05
5.723679E+03	1.159846E-04	2.747751E-05
5.733582E+03	1.157991E-04	2.743249E-05
5.743484E+03	1.155662E-04	2.737622E-05
5.753387E+03	1.152877E-04	2.730915E-05
5.763289E+03	1.149642E-04	2.723144E-05
5.773192E+03	1.145968E-04	2.714331E-05
5.783094E+03	1.141877E-04	2.704530E-05
5.792997E+03	1.137380E-04	2.693768E-05
5.802899E+03	1.132490E-04	2.682078E-05
5.812802E+03	1.127210E-04	2.669461E-05
5.822705E+03	1.121577E-04	2.656012E-05
5.832607E+03	1.115597E-04	2.641740E-05
5.842510E+03	1.109299E-04	2.626715E-05
5.852412E+03	1.102687E-04	2.610948E-05
5.862315E+03	1.095792E-04	2.594511E-05
5.872217E+03	1.088632E-04	2.577449E-05
5.882120E+03	1.081226E-04	2.559806E-05
5.892022E+03	1.073594E-04	2.541626E-05
5.901925E+03	1.065754E-04	2.522957E-05
5.911828E+03	1.057738E-04	2.503871E-05
5.921730E+03	1.049540E-04	2.484357E-05
5.931633E+03	1.041204E-04	2.464517E-05
5.941535E+03	1.032736E-04	2.444366E-05
5.951438E+03	1.024155E-04	2.423947E-05
5.961340E+03	1.015490E-04	2.403332E-05
5.971243E+03	1.006735E-04	2.382504E-05
5.981146E+03	9.979302E-05	2.361561E-05
5.991048E+03	9.890686E-05	2.340484E-05
6.000951E+03	9.801773E-05	2.319339E-05
6.010853E+03	9.712718E-05	2.298161E-05
6.020756E+03	9.623541E-05	2.276956E-05
6.030658E+03	9.534386E-05	2.255758E-05
6.040561E+03	9.445384E-05	2.234597E-05
6.050463E+03	9.356653E-05	2.213501E-05
6.060366E+03	9.268316E-05	2.192501E-05
6.070269E+03	9.180478E-05	2.171620E-05
6.080171E+03	9.093245E-05	2.150883E-05
6.090074E+03	9.006711E-05	2.130314E-05
6.099976E+03	8.921082E-05	2.109959E-05
6.109879E+03	8.836546E-05	2.089865E-05
6.119781E+03	8.753293E-05	2.070076E-05
6.129684E+03	8.671386E-05	2.050606E-05
6.139586E+03	8.590891E-05	2.031472E-05
6.149489E+03	8.511742E-05	2.012657E-05
6.159392E+03	8.433998E-05	1.994176E-05
6.169294E+03	8.357698E-05	1.976038E-05
6.179197E+03	8.282769E-05	1.958226E-05
6.189099E+03	8.209363E-05	1.940774E-05
6.199002E+03	8.137728E-05	1.923743E-05
6.208904E+03	8.067778E-05	1.907111E-05
6.218807E+03	7.999643E-05	1.890909E-05
6.228709E+03	7.933563E-05	1.875195E-05
6.238612E+03	7.869436E-05	1.859943E-05
6.248515E+03	7.807606E-05	1.845235E-05
6.258417E+03	7.748181E-05	1.831096E-05
6.268320E+03	7.691058E-05	1.817503E-05
6.278222E+03	7.636567E-05	1.804532E-05
6.288125E+03	7.584814E-05	1.792210E-05
6.298027E+03	7.535802E-05	1.780536E-05
6.307930E+03	7.489634E-05	1.769534E-05
6.317833E+03	7.446632E-05	1.759282E-05
6.327735E+03	7.406691E-05	1.749753E-05
6.337638E+03	7.369914E-05	1.740972E-05
6.347540E+03	7.336516E-05	1.732990E-05
6.357443E+03	7.306176E-05	1.725730E-05
6.367345E+03	7.278669E-05	1.719140E-05
6.377248E+03	7.253894E-05	1.713196E-05
6.387150E+03	7.231735E-05	1.707870E-05
6.397053E+03	7.211977E-05	1.703111E-05
6.406956E+03	7.194617E-05	1.698918E-05
6.416858E+03	7.179547E-05	1.695266E-05
6.426761E+03	7.166766E-05	1.692155E-05
6.436663E+03	7.156160E-05	1.689557E-05
6.446566E+03	7.147730E-05	1.687473E-05
6.456468E+03	7.141476E-05	1.685902E-05
6.466371E+03	7.137286E-05	1.684818E-05
6.476273E+03	7.135267E-05	1.684247E-05
6.486176E+03	7.135425E-05	1.684189E-05
6.496079E+03	7.137643E-05	1.684617E-05
6.505981E+03	7.142036E-05	1.685557E-05
6.515884E+03	7.148491E-05	1.686984E-05
6.525786E+03	7.157007E-05	1.688897E-05
6.535689E+03	7.167703E-05	1.691323E-05
6.545591E+03	7.180347E-05	1.694208E-05
6.555494E+03	7.195293E-05	1.697636E-05
6.565396E+03	7.212190E-05	1.701523E-05
6.575299E+03	7.231278E-05	1.705927E-05
6.585202E+03	7.252443E-05	1.710819E-05
6.595104E+03	7.275690E-05	1.716202E-05
6.605007E+03	7.301139E-05	1.722103E-05
6.614909E+03	7.328682E-05	1.728496E-05
6.624812E+03	7.358318E-05	1.735382E-05
6.634714E+03	7.390057E-05	1.742763E-05
6.644617E+03	7.424029E-05	1.750669E-05
6.654520E+03	7.459990E-05	1.759043E-05
6.664422E+03	7.498199E-05	1.767946E-05
6.674325E+03	7.538535E-05	1.777348E-05
6.684227E+03	7.581013E-05	1.787254E-05
6.694130E+03	7.625634E-05	1.797664E-05
6.704032E+03	7.672410E-05	1.808580E-05
6.713935E+03	7.721487E-05	1.820036E-05
6.723837E+03	7.772601E-05	1.831971E-05
6.733740E+03	7.825898E-05	1.844419E-05
6.743643E+03	7.881387E-05	1.857381E-05
6.753545E+03	7.939078E-05	1.870860E-05
6.763448E+03	7.998982E-05	1.884858E-05
6.773350E+03	8.061109E-05	1.899378E-05
6.783253E+03	8.125471E-05	1.914423E-05
6.793155E+03	8.191930E-05	1.929959E-05
6.803058E+03	8.260638E-05	1.946022E-05
6.812960E+03	8.331613E-05	1.962617E-05
6.822863E+03	8.404710E-05	1.979710E-05
6.832766E+03	8.480086E-05	1.997337E-05
6.842668E+03	8.557758E-05	2.015501E-05
6.852571E+03	8.637575E-05	2.034169E-05
6.862473E+03	8.719540E-05	2.053339E-05
6.872376E+03	8.803827E-05	2.073053E-05
6.882278E+03	8.890277E-05	2.093273E-05
6.892181E+03	8.978890E-05	2.114000E-05
6.902083E+03	9.069852E-05	2.135276E-05
6.911986E+03	9.162996E-05	2.157063E-05
6.921889E+03	9.258321E-05	2.179360E-05
6.931791E+03	9.355653E-05	2.202127E-05
6.941694E+03	9.455356E-05	2.225447E-05
6.951596E+03	9.557250E-05	2.249281E-05
6.961499E+03	9.661342E-05	2.273627E-05
6.971401E+03	9.767442E-05	2.298443E-05
6.981304E+03	9.875735E-05	2.323771E-05
6.991207E+03	9.986025E-05	2.349565E-05
7.001109E+03	1.009871E-04	2.375918E-05
7.011012E+03	1.021318E-04	2.402688E-05
7.020914E+03	1.032984E-04	2.429969E-05
7.030817E+03	1.044848E-04	2.457710E-05
7.040719E+03	1.056929E-04	2.485959E-05
7.050622E+03	1.069184E-04	2.514613E-05
7.060524E+03	1.081656E-04	2.543772E-05
7.070427E+03	1.094299E-04	2.573328E-05
7.080330E+03	1.107133E-04	2.603330E-05
7.090232E+03	1.120157E-04	2.633774E-05
7.100135E+03	1.133369E-04	2.664656E-05
7.110037E+03	1.146743E-04	2.695915E-05
7.119940E+03	1.160278E-04	2.727545E-05
7.129842E+03	1.173993E-04	2.759597E-05
7.139745E+03	1.187863E-04	2.792005E-05
7.149647E+03	1.201909E-04	2.824823E-05
7.159550E+03	1.216077E-04	2.857923E-05
7.169453E+03	1.230415E-04	2.891417E-05
7.179355E+03	1.244893E-04	2.925236E-05
7.189258E+03	1.259507E-04	2.959369E-05
7.199160E+03	1.274254E-04	2.993808E-05
7.209063E+03	1.289128E-04	3.028541E-05
7.218965E+03	1.304124E-04	3.063557E-05
7.228868E+03	1.319268E-04	3.098914E-05
7.238770E+03	1.334496E-04	3.134462E-05
7.248673E+03	1.349892E-04	3.170400E-05
7.258576E+03	1.365423E-04	3.206649E-05
7.268478E+03	1.381052E-04	3.243125E-05
7.278381E+03	1.396870E-04	3.280037E-05
7.288283E+03	1.412810E-04	3.317230E-05
7.298186E+03	1.428966E-04	3.354925E-05
7.308088E+03	1.445304E-04	3.393042E-05
7.317991E+03	1.461856E-04	3.431655E-05
7.327894E+03	1.478657E-04	3.470845E-05
7.337796E+03	1.495706E-04	3.510615E-05
7.347699E+03	1.513077E-04	3.551132E-05
7.357601E+03	1.530810E-04	3.592493E-05
7.367504E+03	1.548875E-04	3.634628E-05
7.377406E+03	1.567277E-04	3.677546E-05
7.387309E+03	1.586021E-04	3.721260E-05
7.397211E+03	1.605073E-04	3.765691E-05
7.407114E+03	1.624398E-04	3.810756E-05
7.417017E+03	1.643957E-04	3.856362E-05
7.426919E+03	1.663749E-04	3.902510E-05
7.436822E+03	1.683734E-04	3.949102E-05
7.446724E+03	1.703867E-04	3.996033E-05
7.456627E+03	1.724184E-04	4.043392E-05
7.466529E+03	1.744598E-04	4.090970E-05
7.476432E+03	1.765101E-04	4.138748E-05
7.486334E+03	1.785685E-04	4.186711E-05
7.496237E+03	1.806342E-04	4.234838E-05
7.506140E+03	1.827065E-04	4.283111E-05
7.516042E+03	1.847797E-04	4.331401E-05
7.525945E+03	1.868530E-04	4.379682E-05
7.535847E+03	1.889297E-04	4.428039E-05
7.545750E+03	1.910041E-04	4.476335E-05
7.555652E+03	1.930800E-04	4.524657E-05
7.565555E+03	1.951462E-04	4.572747E-05
7.575457E+03	1.972113E-04	4.620805E-05
7.585360E+03	1.992691E-04	4.668684E-05
7.595263E+03	2.013183E-04	4.716353E-05
7.605165E+03	2.033572E-04	4.763776E-05
7.615068E+03	2.053897E-04	4.811044E-05
7.624970E+03	2.074092E-04	4.857998E-05
7.634873E+03	2.094140E-04	4.904602E-05
7.644775E+03	2.114081E-04	4.950949E-05
7.654678E+03	2.133900E-04	4.997004E-05
7.664581E+03	2.153525E-04	5.042599E-05
7.674483E+03	2.172998E-04	5.087830E-05
7.684386E+03	2.192302E-04	5.132662E-05
