#wls	flux	fluxerr
1.584409E+03	2.763067E-03	4.877251E-04
1.624020E+03	2.851408E-03	5.033144E-04
1.663630E+03	2.936176E-03	5.182726E-04
1.703240E+03	3.015983E-03	5.323545E-04
1.742850E+03	3.090521E-03	5.455058E-04
1.782461E+03	3.158257E-03	5.574561E-04
1.822071E+03	3.218193E-03	5.680290E-04
1.861681E+03	3.269829E-03	5.771365E-04
1.901291E+03	3.311548E-03	5.844932E-04
1.940902E+03	3.342571E-03	5.899616E-04
1.980512E+03	3.361632E-03	5.933182E-04
2.020122E+03	3.368062E-03	5.944449E-04
2.059732E+03	3.360359E-03	5.930772E-04
2.099342E+03	3.337529E-03	5.890393E-04
2.138953E+03	3.298669E-03	5.821720E-04
2.178563E+03	3.242297E-03	5.722141E-04
2.218173E+03	3.167417E-03	5.589897E-04
2.257783E+03	3.074441E-03	5.425720E-04
2.297394E+03	2.964923E-03	5.232351E-04
2.337004E+03	2.842278E-03	5.015821E-04
2.376614E+03	2.709358E-03	4.781163E-04
2.416224E+03	2.568674E-03	4.532810E-04
2.455835E+03	2.422759E-03	4.275233E-04
2.495445E+03	2.273283E-03	4.011379E-04
2.535055E+03	2.122060E-03	3.744452E-04
2.574665E+03	1.970617E-03	3.477146E-04
2.614276E+03	1.820488E-03	3.212166E-04
2.653886E+03	1.672901E-03	2.951684E-04
2.693496E+03	1.529046E-03	2.697795E-04
2.733106E+03	1.389983E-03	2.452373E-04
2.772716E+03	1.256652E-03	2.217074E-04
2.812327E+03	1.129897E-03	1.993387E-04
2.851937E+03	1.010490E-03	1.782674E-04
2.891547E+03	8.990713E-04	1.586065E-04
2.931157E+03	7.961496E-04	1.404456E-04
2.970768E+03	7.020398E-04	1.238400E-04
2.980670E+03	6.799246E-04	1.199379E-04
2.990573E+03	6.583515E-04	1.161315E-04
3.000475E+03	6.373459E-04	1.124252E-04
3.010378E+03	6.168881E-04	1.088156E-04
3.020280E+03	5.969861E-04	1.053041E-04
3.030183E+03	5.776458E-04	1.018918E-04
3.040086E+03	5.588352E-04	9.857287E-05
3.049988E+03	5.405828E-04	9.535251E-05
3.059891E+03	5.228576E-04	9.222519E-05
3.069793E+03	5.056730E-04	8.919326E-05
3.079696E+03	4.890097E-04	8.625332E-05
3.089598E+03	4.728595E-04	8.340395E-05
3.099501E+03	4.572315E-04	8.064672E-05
3.109403E+03	4.420984E-04	7.797682E-05
3.119306E+03	4.274759E-04	7.539703E-05
3.129209E+03	4.133293E-04	7.290120E-05
3.139111E+03	3.996723E-04	7.049179E-05
3.149014E+03	3.864794E-04	6.816426E-05
3.158916E+03	3.737548E-04	6.591936E-05
3.168819E+03	3.614805E-04	6.375393E-05
3.178721E+03	3.496528E-04	6.166729E-05
3.188624E+03	3.382602E-04	5.965744E-05
3.198526E+03	3.272921E-04	5.772247E-05
3.208429E+03	3.167325E-04	5.585959E-05
3.218332E+03	3.065810E-04	5.406871E-05
3.228234E+03	2.968215E-04	5.234700E-05
3.238137E+03	2.874483E-04	5.069346E-05
3.248039E+03	2.784456E-04	4.910526E-05
3.257942E+03	2.698030E-04	4.758060E-05
3.267844E+03	2.615143E-04	4.611839E-05
3.277747E+03	2.535648E-04	4.471602E-05
3.287650E+03	2.459480E-04	4.337234E-05
3.297552E+03	2.386534E-04	4.208551E-05
3.307455E+03	2.316642E-04	4.085256E-05
3.317357E+03	2.249774E-04	3.967297E-05
3.327260E+03	2.185800E-04	3.854441E-05
3.337162E+03	2.124626E-04	3.746527E-05
3.347065E+03	2.066157E-04	3.643384E-05
3.356967E+03	2.010252E-04	3.544763E-05
3.366870E+03	1.956879E-04	3.450610E-05
3.376773E+03	1.905925E-04	3.360725E-05
3.386675E+03	1.857285E-04	3.274921E-05
3.396578E+03	1.810884E-04	3.193065E-05
3.406480E+03	1.766643E-04	3.115021E-05
3.416383E+03	1.724447E-04	3.040585E-05
3.426285E+03	1.684250E-04	2.969674E-05
3.436188E+03	1.645945E-04	2.902099E-05
3.446090E+03	1.609468E-04	2.837752E-05
3.455993E+03	1.574744E-04	2.776493E-05
3.465896E+03	1.541696E-04	2.718193E-05
3.475798E+03	1.510254E-04	2.662725E-05
3.485701E+03	1.480352E-04	2.609974E-05
3.495603E+03	1.451911E-04	2.559798E-05
3.505506E+03	1.424856E-04	2.512068E-05
3.515408E+03	1.399133E-04	2.466687E-05
3.525311E+03	1.374676E-04	2.423539E-05
3.535213E+03	1.351438E-04	2.382540E-05
3.545116E+03	1.329344E-04	2.343559E-05
3.555019E+03	1.308354E-04	2.306526E-05
3.564921E+03	1.288416E-04	2.271347E-05
3.574824E+03	1.269505E-04	2.237980E-05
3.584726E+03	1.251560E-04	2.206316E-05
3.594629E+03	1.234548E-04	2.176299E-05
3.604531E+03	1.218404E-04	2.147810E-05
3.614434E+03	1.203097E-04	2.120800E-05
3.624337E+03	1.188591E-04	2.095201E-05
3.634239E+03	1.174849E-04	2.070948E-05
3.644142E+03	1.161847E-04	2.048000E-05
3.654044E+03	1.149560E-04	2.026315E-05
3.663947E+03	1.137957E-04	2.005835E-05
3.673849E+03	1.127025E-04	1.986538E-05
3.683752E+03	1.116733E-04	1.968370E-05
3.693654E+03	1.107080E-04	1.951328E-05
3.703557E+03	1.098045E-04	1.935374E-05
3.713460E+03	1.089606E-04	1.920472E-05
3.723362E+03	1.081753E-04	1.906604E-05
3.733265E+03	1.074484E-04	1.893766E-05
3.743167E+03	1.067779E-04	1.881921E-05
3.753070E+03	1.061637E-04	1.871067E-05
3.762972E+03	1.056035E-04	1.861167E-05
3.772875E+03	1.050965E-04	1.852203E-05
3.782777E+03	1.046423E-04	1.844171E-05
3.792680E+03	1.042408E-04	1.837067E-05
3.802583E+03	1.038899E-04	1.830856E-05
3.812485E+03	1.035903E-04	1.825548E-05
3.822388E+03	1.033393E-04	1.821096E-05
3.832290E+03	1.031382E-04	1.817525E-05
3.842193E+03	1.029844E-04	1.814786E-05
3.852095E+03	1.028793E-04	1.812905E-05
3.861998E+03	1.028210E-04	1.811849E-05
3.871900E+03	1.028093E-04	1.811615E-05
3.881803E+03	1.028432E-04	1.812183E-05
3.891706E+03	1.029226E-04	1.813553E-05
3.901608E+03	1.030464E-04	1.815704E-05
3.911511E+03	1.032153E-04	1.818650E-05
3.921413E+03	1.034274E-04	1.822359E-05
3.931316E+03	1.036828E-04	1.826828E-05
3.941218E+03	1.039804E-04	1.832041E-05
3.951121E+03	1.043209E-04	1.838010E-05
3.961024E+03	1.047035E-04	1.844719E-05
3.970926E+03	1.051273E-04	1.852154E-05
3.980829E+03	1.055912E-04	1.860296E-05
3.990731E+03	1.060962E-04	1.869161E-05
4.000634E+03	1.066406E-04	1.878719E-05
4.010536E+03	1.072251E-04	1.888984E-05
4.020439E+03	1.078482E-04	1.899926E-05
4.030341E+03	1.085097E-04	1.911546E-05
4.040244E+03	1.092097E-04	1.923844E-05
4.050147E+03	1.099475E-04	1.936806E-05
4.060049E+03	1.107221E-04	1.950417E-05
4.069952E+03	1.115329E-04	1.964664E-05
4.079854E+03	1.123808E-04	1.979562E-05
4.089757E+03	1.132640E-04	1.995084E-05
4.099659E+03	1.141827E-04	2.011230E-05
4.109562E+03	1.151353E-04	2.027970E-05
4.119464E+03	1.161218E-04	2.045307E-05
4.129367E+03	1.171423E-04	2.063243E-05
4.139270E+03	1.181951E-04	2.081748E-05
4.149172E+03	1.192804E-04	2.100822E-05
4.159075E+03	1.203964E-04	2.120437E-05
4.168977E+03	1.215431E-04	2.140593E-05
4.178880E+03	1.227189E-04	2.161258E-05
4.188782E+03	1.239238E-04	2.182435E-05
4.198685E+03	1.251559E-04	2.204090E-05
4.208587E+03	1.264143E-04	2.226208E-05
4.218490E+03	1.276970E-04	2.248752E-05
4.228393E+03	1.290041E-04	2.271724E-05
4.238295E+03	1.303334E-04	2.295087E-05
4.248198E+03	1.316839E-04	2.318822E-05
4.258100E+03	1.330535E-04	2.342890E-05
4.268003E+03	1.344398E-04	2.367252E-05
4.277905E+03	1.358415E-04	2.391885E-05
4.287808E+03	1.372575E-04	2.416767E-05
4.297711E+03	1.386851E-04	2.441852E-05
4.307613E+03	1.401229E-04	2.467116E-05
4.317516E+03	1.415683E-04	2.492512E-05
4.327418E+03	1.430209E-04	2.518033E-05
4.337321E+03	1.444790E-04	2.543651E-05
4.347223E+03	1.459446E-04	2.569399E-05
4.357126E+03	1.474162E-04	2.595250E-05
4.367028E+03	1.488946E-04	2.621220E-05
4.376931E+03	1.503796E-04	2.647304E-05
4.386834E+03	1.518734E-04	2.673541E-05
4.396736E+03	1.533745E-04	2.699908E-05
4.406639E+03	1.548830E-04	2.726401E-05
4.416541E+03	1.564000E-04	2.753043E-05
4.426444E+03	1.579255E-04	2.779832E-05
4.436346E+03	1.594595E-04	2.806771E-05
4.446249E+03	1.610009E-04	2.833836E-05
4.456151E+03	1.625510E-04	2.861055E-05
4.466054E+03	1.641087E-04	2.888405E-05
4.475957E+03	1.656742E-04	2.915891E-05
4.485859E+03	1.672478E-04	2.943517E-05
4.495762E+03	1.688269E-04	2.971239E-05
4.505664E+03	1.704133E-04	2.999088E-05
4.515567E+03	1.720060E-04	3.027044E-05
4.525469E+03	1.736053E-04	3.055117E-05
4.535372E+03	1.752089E-04	3.083261E-05
4.545274E+03	1.768186E-04	3.111514E-05
4.555177E+03	1.784322E-04	3.139830E-05
4.565080E+03	1.800517E-04	3.168251E-05
4.574982E+03	1.816747E-04	3.196731E-05
4.584885E+03	1.833021E-04	3.225287E-05
4.594787E+03	1.849331E-04	3.253902E-05
4.604690E+03	1.865702E-04	3.282625E-05
4.614592E+03	1.882113E-04	3.311414E-05
4.624495E+03	1.898589E-04	3.340317E-05
4.634398E+03	1.915129E-04	3.369331E-05
4.644300E+03	1.931725E-04	3.398439E-05
4.654203E+03	1.948411E-04	3.427706E-05
4.664105E+03	1.965166E-04	3.457090E-05
4.674008E+03	1.982004E-04	3.486620E-05
4.683910E+03	1.998907E-04	3.516260E-05
4.693813E+03	2.015889E-04	3.546039E-05
4.703715E+03	2.032914E-04	3.575889E-05
4.713618E+03	2.049997E-04	3.605840E-05
4.723521E+03	2.067116E-04	3.635853E-05
4.733423E+03	2.084292E-04	3.665964E-05
4.743326E+03	2.101505E-04	3.696135E-05
4.753228E+03	2.118748E-04	3.726359E-05
4.763131E+03	2.136025E-04	3.756638E-05
4.773033E+03	2.153330E-04	3.786966E-05
4.782936E+03	2.170666E-04	3.817346E-05
4.792838E+03	2.188006E-04	3.847729E-05
4.802741E+03	2.205373E-04	3.878158E-05
4.812644E+03	2.222762E-04	3.908623E-05
4.822546E+03	2.240150E-04	3.939085E-05
4.832449E+03	2.257535E-04	3.969537E-05
4.842351E+03	2.274936E-04	4.000016E-05
4.852254E+03	2.292302E-04	4.030431E-05
4.862156E+03	2.309676E-04	4.060855E-05
4.872059E+03	2.327027E-04	4.091239E-05
4.881961E+03	2.344333E-04	4.121539E-05
4.891864E+03	2.361604E-04	4.151775E-05
4.901767E+03	2.378837E-04	4.181941E-05
4.911669E+03	2.395998E-04	4.211980E-05
4.921572E+03	2.413105E-04	4.241919E-05
4.931474E+03	2.430099E-04	4.271657E-05
4.941377E+03	2.447014E-04	4.301254E-05
4.951279E+03	2.463820E-04	4.330657E-05
4.961182E+03	2.480477E-04	4.359794E-05
4.971085E+03	2.496996E-04	4.388685E-05
4.980987E+03	2.513340E-04	4.417267E-05
4.990890E+03	2.529489E-04	4.445504E-05
5.000792E+03	2.545429E-04	4.473370E-05
5.010695E+03	2.561143E-04	4.500834E-05
5.020597E+03	2.576585E-04	4.527820E-05
5.030500E+03	2.591762E-04	4.554337E-05
5.040402E+03	2.606627E-04	4.580302E-05
5.050305E+03	2.621160E-04	4.605680E-05
5.060208E+03	2.635313E-04	4.630389E-05
5.070110E+03	2.649085E-04	4.654426E-05
5.080013E+03	2.662406E-04	4.677666E-05
5.089915E+03	2.675298E-04	4.700151E-05
5.099818E+03	2.687686E-04	4.721747E-05
5.109720E+03	2.699570E-04	4.742456E-05
5.119623E+03	2.710900E-04	4.762187E-05
5.129525E+03	2.721620E-04	4.780846E-05
5.139428E+03	2.731732E-04	4.798432E-05
5.149331E+03	2.741182E-04	4.814855E-05
5.159233E+03	2.749942E-04	4.830063E-05
5.169136E+03	2.757991E-04	4.844019E-05
5.179038E+03	2.765272E-04	4.856625E-05
5.188941E+03	2.771762E-04	4.867839E-05
5.198843E+03	2.777412E-04	4.877576E-05
5.208746E+03	2.782224E-04	4.885840E-05
5.218648E+03	2.786154E-04	4.892552E-05
5.228551E+03	2.789179E-04	4.897674E-05
5.238454E+03	2.791285E-04	4.901178E-05
5.248356E+03	2.792430E-04	4.902996E-05
5.258259E+03	2.792603E-04	4.903105E-05
5.268161E+03	2.791795E-04	4.901490E-05
5.278064E+03	2.790001E-04	4.898143E-05
5.287966E+03	2.787190E-04	4.893010E-05
5.297869E+03	2.783396E-04	4.886149E-05
5.307772E+03	2.778621E-04	4.877568E-05
5.317674E+03	2.772876E-04	4.867282E-05
5.327577E+03	2.766151E-04	4.855274E-05
5.337479E+03	2.758515E-04	4.841668E-05
5.347382E+03	2.749968E-04	4.826462E-05
5.357284E+03	2.740589E-04	4.809796E-05
5.367187E+03	2.730384E-04	4.791681E-05
5.377089E+03	2.719413E-04	4.772222E-05
5.386992E+03	2.707719E-04	4.751496E-05
5.396895E+03	2.695398E-04	4.729668E-05
5.406797E+03	2.682469E-04	4.706774E-05
5.416700E+03	2.668954E-04	4.682853E-05
5.426602E+03	2.654854E-04	4.657905E-05
5.436505E+03	2.640226E-04	4.632032E-05
5.446407E+03	2.625075E-04	4.605244E-05
5.456310E+03	2.609436E-04	4.577599E-05
5.466212E+03	2.593347E-04	4.549167E-05
5.476115E+03	2.576845E-04	4.520011E-05
5.486018E+03	2.559974E-04	4.490209E-05
5.495920E+03	2.542796E-04	4.459871E-05
5.505823E+03	2.525354E-04	4.429071E-05
5.515725E+03	2.507738E-04	4.397968E-05
5.525628E+03	2.489965E-04	4.366589E-05
5.535530E+03	2.472146E-04	4.335132E-05
5.545433E+03	2.454292E-04	4.303616E-05
5.555335E+03	2.436488E-04	4.272190E-05
5.565238E+03	2.418817E-04	4.240997E-05
5.575141E+03	2.401283E-04	4.210048E-05
5.585043E+03	2.384010E-04	4.179556E-05
5.594946E+03	2.367021E-04	4.149565E-05
5.604848E+03	2.350337E-04	4.120110E-05
5.614751E+03	2.334074E-04	4.091394E-05
5.624653E+03	2.318217E-04	4.063392E-05
5.634556E+03	2.302831E-04	4.036217E-05
5.644459E+03	2.287969E-04	4.009962E-05
5.654361E+03	2.273659E-04	3.984675E-05
5.664264E+03	2.259931E-04	3.960409E-05
5.674166E+03	2.246804E-04	3.937198E-05
5.684069E+03	2.234323E-04	3.915121E-05
5.693971E+03	2.222530E-04	3.894250E-05
5.703874E+03	2.211396E-04	3.874533E-05
5.713776E+03	2.201005E-04	3.856120E-05
5.723679E+03	2.191318E-04	3.838942E-05
5.733582E+03	2.182396E-04	3.823103E-05
5.743484E+03	2.174224E-04	3.808578E-05
5.753387E+03	2.166832E-04	3.795420E-05
5.763289E+03	2.160223E-04	3.783634E-05
5.773192E+03	2.154429E-04	3.773276E-05
5.783094E+03	2.149426E-04	3.764301E-05
5.792997E+03	2.145218E-04	3.756719E-05
5.802899E+03	2.141830E-04	3.750573E-05
5.812802E+03	2.139285E-04	3.745902E-05
5.822705E+03	2.137533E-04	3.742618E-05
5.832607E+03	2.136621E-04	3.740806E-05
5.842510E+03	2.136522E-04	3.740414E-05
5.852412E+03	2.137256E-04	3.741479E-05
5.862315E+03	2.138817E-04	3.743991E-05
5.872217E+03	2.141176E-04	3.747899E-05
5.882120E+03	2.144350E-04	3.753231E-05
5.892022E+03	2.148330E-04	3.759972E-05
5.901925E+03	2.153083E-04	3.768063E-05
5.911828E+03	2.158648E-04	3.777573E-05
5.921730E+03	2.164963E-04	3.788392E-05
5.931633E+03	2.172040E-04	3.800543E-05
5.941535E+03	2.179865E-04	3.814000E-05
5.951438E+03	2.188400E-04	3.828695E-05
5.961340E+03	2.197651E-04	3.844639E-05
5.971243E+03	2.207551E-04	3.861716E-05
5.981146E+03	2.218129E-04	3.879976E-05
5.991048E+03	2.229318E-04	3.899300E-05
6.000951E+03	2.241118E-04	3.919689E-05
6.010853E+03	2.253485E-04	3.941065E-05
6.020756E+03	2.266391E-04	3.963380E-05
6.030658E+03	2.279786E-04	3.986546E-05
6.040561E+03	2.293616E-04	4.010467E-05
6.050463E+03	2.307884E-04	4.035150E-05
6.060366E+03	2.322475E-04	4.060392E-05
6.070269E+03	2.337389E-04	4.086195E-05
6.080171E+03	2.352539E-04	4.112406E-05
6.090074E+03	2.367894E-04	4.138970E-05
6.099976E+03	2.383306E-04	4.165627E-05
6.109879E+03	2.398767E-04	4.192367E-05
6.119781E+03	2.414158E-04	4.218978E-05
6.129684E+03	2.429407E-04	4.245336E-05
6.139586E+03	2.444419E-04	4.271274E-05
6.149489E+03	2.459213E-04	4.296826E-05
6.159392E+03	2.473850E-04	4.322101E-05
6.169294E+03	2.488391E-04	4.347200E-05
6.179197E+03	2.502906E-04	4.372250E-05
6.189099E+03	2.517369E-04	4.397203E-05
6.199002E+03	2.531926E-04	4.422317E-05
6.208904E+03	2.546527E-04	4.447500E-05
6.218807E+03	2.561256E-04	4.472903E-05
6.228709E+03	2.576174E-04	4.498632E-05
6.238612E+03	2.591240E-04	4.524611E-05
6.248515E+03	2.606518E-04	4.550956E-05
6.258417E+03	2.622037E-04	4.577718E-05
6.268320E+03	2.637839E-04	4.604966E-05
6.278222E+03	2.653886E-04	4.632637E-05
6.288125E+03	2.670217E-04	4.660797E-05
6.298027E+03	2.686839E-04	4.689460E-05
6.307930E+03	2.703754E-04	4.718628E-05
6.317833E+03	2.720931E-04	4.748247E-05
6.327735E+03	2.738338E-04	4.778262E-05
6.337638E+03	2.755939E-04	4.808608E-05
6.347540E+03	2.773738E-04	4.839294E-05
6.357443E+03	2.791697E-04	4.870251E-05
6.367345E+03	2.809699E-04	4.901279E-05
6.377248E+03	2.827863E-04	4.932582E-05
6.387150E+03	2.846194E-04	4.964169E-05
6.397053E+03	2.864739E-04	4.996122E-05
6.406956E+03	2.883588E-04	5.028599E-05
6.416858E+03	2.902706E-04	5.061537E-05
6.426761E+03	2.922188E-04	5.095105E-05
6.436663E+03	2.942045E-04	5.129318E-05
6.446566E+03	2.962333E-04	5.164275E-05
6.456468E+03	2.982973E-04	5.199839E-05
6.466371E+03	3.004113E-04	5.236267E-05
6.476273E+03	3.025673E-04	5.273418E-05
6.486176E+03	3.047712E-04	5.311397E-05
6.496079E+03	3.070245E-04	5.350228E-05
6.505981E+03	3.093231E-04	5.389841E-05
6.515884E+03	3.116737E-04	5.430351E-05
6.525786E+03	3.140770E-04	5.471771E-05
6.535689E+03	3.165297E-04	5.514043E-05
6.545591E+03	3.190325E-04	5.557178E-05
6.555494E+03	3.215866E-04	5.601198E-05
6.565396E+03	3.241986E-04	5.646216E-05
6.575299E+03	3.268589E-04	5.692065E-05
6.585202E+03	3.295737E-04	5.738856E-05
6.595104E+03	3.323441E-04	5.786603E-05
6.605007E+03	3.351657E-04	5.835232E-05
6.614909E+03	3.380451E-04	5.884857E-05
6.624812E+03	3.409772E-04	5.935389E-05
6.634714E+03	3.439691E-04	5.986951E-05
6.644617E+03	3.470096E-04	6.039348E-05
6.654520E+03	3.501057E-04	6.092701E-05
6.664422E+03	3.532639E-04	6.147124E-05
6.674325E+03	3.564730E-04	6.202421E-05
6.684227E+03	3.597398E-04	6.258709E-05
6.694130E+03	3.630587E-04	6.315892E-05
6.704032E+03	3.664366E-04	6.374090E-05
6.713935E+03	3.698677E-04	6.433200E-05
6.723837E+03	3.733524E-04	6.493230E-05
6.733740E+03	3.768979E-04	6.554304E-05
6.743643E+03	3.804911E-04	6.616195E-05
6.753545E+03	3.841459E-04	6.679144E-05
6.763448E+03	3.878492E-04	6.742922E-05
6.773350E+03	3.916150E-04	6.807775E-05
6.783253E+03	3.954295E-04	6.873458E-05
6.793155E+03	3.992926E-04	6.939974E-05
6.803058E+03	4.032116E-04	7.007445E-05
6.812960E+03	4.071869E-04	7.075881E-05
6.822863E+03	4.112032E-04	7.145016E-05
6.832766E+03	4.152755E-04	7.215107E-05
6.842668E+03	4.193960E-04	7.286022E-05
6.852571E+03	4.235725E-04	7.357893E-05
6.862473E+03	4.277886E-04	7.430439E-05
6.872376E+03	4.320523E-04	7.503794E-05
6.882278E+03	4.363629E-04	7.577949E-05
6.892181E+03	4.407117E-04	7.652749E-05
6.902083E+03	4.451064E-04	7.728333E-05
6.911986E+03	4.495467E-04	7.804691E-05
6.921889E+03	4.540233E-04	7.881661E-05
6.931791E+03	4.585355E-04	7.959235E-05
6.941694E+03	4.630824E-04	8.037393E-05
6.951596E+03	4.676724E-04	8.116284E-05
6.961499E+03	4.722866E-04	8.195576E-05
6.971401E+03	4.769423E-04	8.275572E-05
6.981304E+03	4.816206E-04	8.355941E-05
6.991207E+03	4.863295E-04	8.436825E-05
7.001109E+03	4.910586E-04	8.518042E-05
7.011012E+03	4.958168E-04	8.599746E-05
7.020914E+03	5.006033E-04	8.681924E-05
7.030817E+03	5.054074E-04	8.764388E-05
7.040719E+03	5.102177E-04	8.846941E-05
7.050622E+03	5.150535E-04	8.929919E-05
7.060524E+03	5.199037E-04	9.013130E-05
7.070427E+03	5.247673E-04	9.096553E-05
7.080330E+03	5.296434E-04	9.180176E-05
7.090232E+03	5.345201E-04	9.263793E-05
7.100135E+03	5.394072E-04	9.347569E-05
7.110037E+03	5.442922E-04	9.431293E-05
7.119940E+03	5.491742E-04	9.514946E-05
7.129842E+03	5.540635E-04	9.598707E-05
7.139745E+03	5.589471E-04	9.682351E-05
7.149647E+03	5.638358E-04	9.766066E-05
7.159550E+03	5.687049E-04	9.849423E-05
7.169453E+03	5.735646E-04	9.932599E-05
7.179355E+03	5.784137E-04	1.001557E-04
7.189258E+03	5.832509E-04	1.009833E-04
7.199160E+03	5.880748E-04	1.018083E-04
7.209063E+03	5.928843E-04	1.026307E-04
7.218965E+03	5.976654E-04	1.034479E-04
7.228868E+03	6.024291E-04	1.042620E-04
7.238770E+03	6.071744E-04	1.050727E-04
7.248673E+03	6.119000E-04	1.058799E-04
7.258576E+03	6.165913E-04	1.066809E-04
7.268478E+03	6.212607E-04	1.074780E-04
7.278381E+03	6.259205E-04	1.082733E-04
7.288283E+03	6.305425E-04	1.090618E-04
7.298186E+03	6.351397E-04	1.098459E-04
7.308088E+03	6.397109E-04	1.106254E-04
7.317991E+03	6.442699E-04	1.114025E-04
7.327894E+03	6.488021E-04	1.121749E-04
7.337796E+03	6.533215E-04	1.129449E-04
7.347699E+03	6.578430E-04	1.137151E-04
7.357601E+03	6.623522E-04	1.144830E-04
7.367504E+03	6.668795E-04	1.152539E-04
7.377406E+03	6.713958E-04	1.160228E-04
7.387309E+03	6.759167E-04	1.167923E-04
7.397211E+03	6.804277E-04	1.175599E-04
7.407114E+03	6.849447E-04	1.183284E-04
7.417017E+03	6.894372E-04	1.190925E-04
7.426919E+03	6.939211E-04	1.198550E-04
7.436822E+03	6.983969E-04	1.206159E-04
7.446724E+03	7.028484E-04	1.213725E-04
7.456627E+03	7.073086E-04	1.221305E-04
7.466529E+03	7.117444E-04	1.228841E-04
7.476432E+03	7.161724E-04	1.236362E-04
7.486334E+03	7.205755E-04	1.243839E-04
7.496237E+03	7.249699E-04	1.251299E-04
7.506140E+03	7.293379E-04	1.258713E-04
7.516042E+03	7.336957E-04	1.266107E-04
7.525945E+03	7.380248E-04	1.273451E-04
7.535847E+03	7.423238E-04	1.280742E-04
7.545750E+03	7.466089E-04	1.288007E-04
7.555652E+03	7.508600E-04	1.295212E-04
7.565555E+03	7.550754E-04	1.302355E-04
7.575457E+03	7.592704E-04	1.309461E-04
7.585360E+03	7.634246E-04	1.316495E-04
7.595263E+03	7.675531E-04	1.323485E-04
7.605165E+03	7.716156E-04	1.330359E-04
7.615068E+03	7.756458E-04	1.337176E-04
7.624970E+03	7.796405E-04	1.343931E-04
7.634873E+03	7.835763E-04	1.350584E-04
7.644775E+03	7.874687E-04	1.357160E-04
7.654678E+03	7.912932E-04	1.363619E-04
7.664581E+03	7.950454E-04	1.369952E-04
7.674483E+03	7.987400E-04	1.376185E-04
7.684386E+03	8.023723E-04	1.382310E-04
