#wls	flux	fluxerr
1.584409E+03	-5.828908E-02	7.377267E+00
1.624020E+03	-3.223114E-02	7.432548E+00
1.663630E+03	-5.491685E-03	7.467992E+00
1.703240E+03	2.162238E-02	7.473112E+00
1.742850E+03	4.891041E-02	7.453556E+00
1.782461E+03	7.598064E-02	7.400075E+00
1.822071E+03	1.025898E-01	7.318949E+00
1.861681E+03	1.282635E-01	7.200445E+00
1.901291E+03	1.527639E-01	7.053462E+00
1.940902E+03	1.755141E-01	6.866673E+00
1.980512E+03	1.963109E-01	6.650951E+00
2.020122E+03	2.145680E-01	6.397118E+00
2.059732E+03	2.300968E-01	6.115351E+00
2.099342E+03	2.423524E-01	5.798906E+00
2.138953E+03	2.512247E-01	5.458330E+00
2.178563E+03	2.562079E-01	5.088032E+00
2.218173E+03	2.572735E-01	4.698334E+00
2.257783E+03	2.541815E-01	4.288297E+00
2.297394E+03	2.473307E-01	3.872307E+00
2.337004E+03	2.370277E-01	3.455284E+00
2.376614E+03	2.239120E-01	3.049751E+00
2.416224E+03	2.084071E-01	2.658640E+00
2.455835E+03	1.911259E-01	2.289915E+00
2.495445E+03	1.725765E-01	1.945428E+00
2.535055E+03	1.533330E-01	1.629905E+00
2.574665E+03	1.339502E-01	1.344423E+00
2.614276E+03	1.148888E-01	1.090732E+00
2.653886E+03	9.666864E-02	8.689325E-01
2.693496E+03	7.958110E-02	6.782840E-01
2.733106E+03	6.404497E-02	5.179322E-01
2.772716E+03	5.013697E-02	3.851754E-01
2.812327E+03	3.813519E-02	2.784335E-01
2.851937E+03	2.791136E-02	1.938658E-01
2.891547E+03	1.959021E-02	1.294741E-01
2.931157E+03	1.288201E-02	8.107681E-02
2.965050E+03	3.305813E-02	1.995708E-01
2.967228E+03	3.240259E-02	1.950933E-01
2.967823E+03	3.225603E-02	1.940697E-01
2.968021E+03	3.223282E-02	1.938830E-01
2.968417E+03	3.214144E-02	1.932396E-01
2.968615E+03	3.211283E-02	1.930208E-01
2.969407E+03	3.189400E-02	1.915195E-01
2.971586E+03	3.123272E-02	1.870491E-01
2.971982E+03	3.113494E-02	1.863731E-01
2.972180E+03	3.109914E-02	1.861137E-01
2.972378E+03	3.106226E-02	1.858479E-01
2.972576E+03	3.102140E-02	1.855585E-01
2.976538E+03	2.977710E-02	1.772541E-01
2.978716E+03	2.910028E-02	1.727645E-01
2.979113E+03	2.899223E-02	1.720397E-01
2.979509E+03	2.888223E-02	1.713040E-01
2.981093E+03	2.839351E-02	1.680794E-01
2.982479E+03	2.796299E-02	1.652507E-01
2.983668E+03	2.759594E-02	1.628450E-01
2.984856E+03	2.722602E-02	1.604290E-01
2.985252E+03	2.710591E-02	1.596440E-01
2.986044E+03	2.685966E-02	1.580407E-01
2.987234E+03	2.648571E-02	1.556142E-01
2.988818E+03	2.598354E-02	1.523688E-01
2.991393E+03	2.516717E-02	1.471185E-01
2.991591E+03	2.510352E-02	1.467110E-01
2.994958E+03	2.403687E-02	1.399012E-01
2.998127E+03	2.303196E-02	1.335353E-01
2.998325E+03	2.296589E-02	1.331201E-01
2.998722E+03	2.283523E-02	1.322989E-01
2.998920E+03	2.276645E-02	1.318685E-01
3.001098E+03	2.207272E-02	1.275112E-01
3.001890E+03	2.181492E-02	1.259004E-01
3.004070E+03	2.112111E-02	1.215729E-01
3.005257E+03	2.074067E-02	1.192105E-01
3.006446E+03	2.035768E-02	1.168401E-01
3.008228E+03	1.978894E-02	1.133296E-01
3.008625E+03	1.965140E-02	1.124875E-01
3.008823E+03	1.957617E-02	1.120299E-01
3.009417E+03	1.937651E-02	1.108071E-01
3.009615E+03	1.930100E-02	1.103487E-01
3.011002E+03	1.885481E-02	1.076160E-01
3.011794E+03	1.859214E-02	1.060145E-01
3.011992E+03	1.851271E-02	1.055361E-01
3.012190E+03	1.843347E-02	1.050591E-01
3.013576E+03	1.798757E-02	1.023449E-01
3.013775E+03	1.790812E-02	1.018682E-01
3.014964E+03	1.752112E-02	9.952285E-02
3.015162E+03	1.743984E-02	9.903725E-02
3.015360E+03	1.735705E-02	9.854339E-02
3.015954E+03	1.715215E-02	9.730973E-02
3.016745E+03	1.688699E-02	9.571323E-02
3.017142E+03	1.674286E-02	9.485050E-02
3.017339E+03	1.665784E-02	9.434624E-02
3.017538E+03	1.657402E-02	9.384880E-02
3.018132E+03	1.636870E-02	9.261935E-02
3.018924E+03	1.610123E-02	9.101822E-02
3.019123E+03	1.601432E-02	9.050501E-02
3.019915E+03	1.574736E-02	8.891061E-02
3.020113E+03	1.565948E-02	8.839313E-02
3.020707E+03	1.545409E-02	8.717076E-02
3.022094E+03	1.501120E-02	8.453005E-02
3.022490E+03	1.486491E-02	8.366595E-02
3.023282E+03	1.460015E-02	8.209672E-02
3.024272E+03	1.427681E-02	8.018204E-02
3.024471E+03	1.418772E-02	7.966241E-02
3.025858E+03	1.374790E-02	7.706297E-02
3.026056E+03	1.365908E-02	7.654666E-02
3.026650E+03	1.345338E-02	7.533949E-02
3.026848E+03	1.336364E-02	7.481895E-02
3.027442E+03	1.315769E-02	7.361277E-02
3.027838E+03	1.300942E-02	7.274822E-02
3.029421E+03	1.251728E-02	6.986169E-02
3.033780E+03	1.122594E-02	6.232380E-02
3.033978E+03	1.113928E-02	6.182781E-02
3.034176E+03	1.105182E-02	6.132762E-02
3.034770E+03	1.085166E-02	6.017354E-02
3.035563E+03	1.059512E-02	5.869443E-02
3.035761E+03	1.050808E-02	5.819829E-02
3.036751E+03	1.019753E-02	5.641052E-02
3.036949E+03	1.011084E-02	5.591750E-02
3.037346E+03	9.968235E-03	5.510235E-02
3.038336E+03	9.659797E-03	5.333324E-02
3.039326E+03	9.352856E-03	5.157658E-02
3.040514E+03	8.993001E-03	4.952071E-02
3.041109E+03	8.798813E-03	4.841644E-02
3.041307E+03	8.714704E-03	4.794216E-02
3.041506E+03	8.629829E-03	4.746378E-02
3.041901E+03	8.491866E-03	4.668261E-02
3.042099E+03	8.407944E-03	4.621016E-02
3.042495E+03	8.270254E-03	4.543158E-02
3.043089E+03	8.080239E-03	4.435579E-02
3.043683E+03	7.890427E-03	4.328263E-02
3.044277E+03	7.701017E-03	4.221321E-02
3.044673E+03	7.566213E-03	4.145437E-02
3.045070E+03	7.431164E-03	4.069491E-02
3.045268E+03	7.348993E-03	4.023525E-02
3.045862E+03	7.163230E-03	3.918997E-02
3.046061E+03	7.081334E-03	3.873257E-02
3.046259E+03	6.999373E-03	3.827508E-02
3.047051E+03	6.764588E-03	3.695568E-02
3.047843E+03	6.531101E-03	3.564588E-02
3.048239E+03	6.400453E-03	3.491605E-02
3.048833E+03	6.219971E-03	3.390705E-02
3.049626E+03	5.990601E-03	3.262534E-02
3.050418E+03	5.762893E-03	3.135511E-02
3.052994E+03	5.090086E-03	2.760816E-02
3.053983E+03	4.819483E-03	2.610913E-02
3.054577E+03	4.648845E-03	2.516659E-02
3.054775E+03	4.577227E-03	2.477294E-02
3.054973E+03	4.505454E-03	2.437864E-02
3.056161E+03	4.193027E-03	2.265549E-02
3.056359E+03	4.123228E-03	2.227301E-02
3.056955E+03	3.958352E-03	2.136698E-02
3.057945E+03	3.700366E-03	1.995044E-02
3.058341E+03	3.586126E-03	1.932525E-02
3.058737E+03	3.472727E-03	1.870518E-02
3.058935E+03	3.406904E-03	1.834624E-02
3.059133E+03	3.341490E-03	1.798966E-02
3.059331E+03	3.276471E-03	1.763539E-02
3.060123E+03	3.074935E-03	1.653477E-02
3.061510E+03	2.739200E-03	1.470473E-02
3.061708E+03	2.677828E-03	1.437182E-02
3.061906E+03	2.616998E-03	1.404198E-02
3.062105E+03	2.556294E-03	1.371296E-02
3.062303E+03	2.496257E-03	1.338768E-02
3.062501E+03	2.436689E-03	1.306508E-02
3.062699E+03	2.377475E-03	1.274453E-02
3.063095E+03	2.275427E-03	1.219165E-02
3.063293E+03	2.217457E-03	1.187821E-02
3.063689E+03	2.117267E-03	1.133608E-02
3.063887E+03	2.060481E-03	1.102940E-02
3.065075E+03	1.794056E-03	9.589485E-03
3.065274E+03	1.739565E-03	9.295982E-03
3.065867E+03	1.603138E-03	8.560791E-03
3.066065E+03	1.550526E-03	8.277857E-03
3.066263E+03	1.498463E-03	7.997989E-03
3.066461E+03	1.446933E-03	7.721095E-03
3.066857E+03	1.355752E-03	7.231074E-03
3.067055E+03	1.305806E-03	6.963011E-03
3.067650E+03	1.176910E-03	6.271173E-03
3.067848E+03	1.128581E-03	6.012211E-03
3.068839E+03	9.253301E-04	4.923545E-03
3.069631E+03	7.636752E-04	4.059510E-03
3.069829E+03	7.192786E-04	3.822593E-03
3.070423E+03	5.997048E-04	3.184830E-03
3.070621E+03	5.572355E-04	2.958581E-03
3.071215E+03	4.408174E-04	2.338791E-03
3.071413E+03	4.001559E-04	2.122549E-03
3.071611E+03	3.601103E-04	1.909677E-03
3.072007E+03	2.844649E-04	1.507804E-03
3.072404E+03	2.101299E-04	1.113259E-03
3.072800E+03	1.370626E-04	7.258038E-04
3.072999E+03	1.003795E-04	5.314236E-04
3.073593E+03	-5.302988E-06	-2.805461E-05
3.073791E+03	-3.985467E-05	-2.107943E-04
3.074187E+03	-1.079760E-04	-5.708196E-04
3.074583E+03	-1.747653E-04	-9.234614E-04
3.074781E+03	-2.066386E-04	-1.091619E-03
3.075177E+03	-2.711002E-04	-1.431467E-03
3.075375E+03	-3.012674E-04	-1.590375E-03
3.075573E+03	-3.307491E-04	-1.745589E-03
3.075771E+03	-3.595218E-04	-1.896988E-03
3.076366E+03	-4.513705E-04	-2.379910E-03
3.076762E+03	-5.095651E-04	-2.685463E-03
3.076959E+03	-5.351601E-04	-2.819679E-03
3.077157E+03	-5.602610E-04	-2.951225E-03
3.077356E+03	-5.847105E-04	-3.079274E-03
3.077553E+03	-6.081613E-04	-3.202010E-03
3.077949E+03	-6.609320E-04	-3.478185E-03
3.078346E+03	-7.122505E-04	-3.746452E-03
3.078544E+03	-7.331134E-04	-3.855268E-03
3.078742E+03	-7.531903E-04	-3.959900E-03
3.078940E+03	-7.725806E-04	-4.060872E-03
3.079138E+03	-7.911142E-04	-4.157294E-03
3.079930E+03	-8.918871E-04	-4.682367E-03
3.080129E+03	-9.079650E-04	-4.765634E-03
3.080327E+03	-9.232848E-04	-4.844883E-03
3.080723E+03	-9.643903E-04	-5.058159E-03
3.080921E+03	-9.780158E-04	-5.128396E-03
3.081119E+03	-9.908654E-04	-5.194532E-03
3.081317E+03	-1.003017E-03	-5.256976E-03
3.081713E+03	-1.039447E-03	-5.445302E-03
3.081911E+03	-1.049761E-03	-5.498022E-03
3.082109E+03	-1.059361E-03	-5.546973E-03
3.082505E+03	-1.092324E-03	-5.716834E-03
3.082703E+03	-1.100073E-03	-5.756011E-03
3.083297E+03	-1.153799E-03	-6.032792E-03
3.083495E+03	-1.159423E-03	-6.060745E-03
3.083694E+03	-1.164457E-03	-6.085595E-03
3.083892E+03	-1.168664E-03	-6.106122E-03
3.084091E+03	-1.172169E-03	-6.122970E-03
3.084289E+03	-1.174860E-03	-6.135555E-03
3.085081E+03	-1.240504E-03	-6.472174E-03
3.085279E+03	-1.240711E-03	-6.471706E-03
3.085477E+03	-1.240430E-03	-6.468692E-03
3.085873E+03	-1.259326E-03	-6.564091E-03
3.086071E+03	-1.256720E-03	-6.548939E-03
3.086269E+03	-1.253613E-03	-6.531184E-03
3.087259E+03	-1.325620E-03	-6.898076E-03
3.087655E+03	-1.338040E-03	-6.959375E-03
3.088250E+03	-1.367705E-03	-7.108562E-03
3.088448E+03	-1.359387E-03	-7.063640E-03
3.089241E+03	-1.402755E-03	-7.282004E-03
3.089834E+03	-1.425840E-03	-7.396539E-03
3.090032E+03	-1.413310E-03	-7.329788E-03
3.090626E+03	-1.433053E-03	-7.426846E-03
3.091022E+03	-1.434624E-03	-7.431431E-03
3.091220E+03	-1.419555E-03	-7.351614E-03
3.091616E+03	-1.418565E-03	-7.342973E-03
3.092013E+03	-1.416228E-03	-7.327368E-03
3.092211E+03	-1.398167E-03	-7.232198E-03
3.092607E+03	-1.394099E-03	-7.207702E-03
3.092805E+03	-1.374330E-03	-7.103798E-03
3.093003E+03	-1.353949E-03	-6.996775E-03
3.093201E+03	-1.332699E-03	-6.885312E-03
3.093399E+03	-1.311160E-03	-6.772412E-03
3.093597E+03	-1.288735E-03	-6.654992E-03
3.093993E+03	-1.277684E-03	-6.594770E-03
3.094588E+03	-1.277005E-03	-6.586529E-03
3.094984E+03	-1.263433E-03	-6.513410E-03
3.096371E+03	-1.304378E-03	-6.713248E-03
3.096569E+03	-1.275060E-03	-6.560787E-03
3.097361E+03	-1.276784E-03	-6.563373E-03
3.097955E+03	-1.265303E-03	-6.499692E-03
3.099143E+03	-1.281778E-03	-6.574881E-03
3.099739E+03	-1.265691E-03	-6.487697E-03
3.100135E+03	-1.238047E-03	-6.342966E-03
3.100333E+03	-1.200423E-03	-6.148737E-03
3.101125E+03	-1.188149E-03	-6.080048E-03
3.101520E+03	-1.156448E-03	-5.915003E-03
3.101718E+03	-1.116396E-03	-5.708779E-03
3.101916E+03	-1.076515E-03	-5.503533E-03
3.102114E+03	-1.035214E-03	-5.291117E-03
3.102312E+03	-9.938909E-04	-5.078697E-03
3.102510E+03	-9.513951E-04	-4.860385E-03
3.102708E+03	-9.094654E-04	-4.645068E-03
3.102906E+03	-8.666020E-04	-4.425087E-03
3.103104E+03	-8.234316E-04	-4.203643E-03
3.103897E+03	-7.949592E-04	-4.054412E-03
3.104293E+03	-7.540457E-04	-3.843908E-03
3.104887E+03	-7.163893E-04	-3.649328E-03
3.105284E+03	-6.729286E-04	-3.426295E-03
3.105482E+03	-6.253468E-04	-3.183266E-03
3.105680E+03	-5.769326E-04	-2.936116E-03
3.106472E+03	-5.376736E-04	-2.733704E-03
3.107066E+03	-4.932872E-04	-2.506232E-03
3.107265E+03	-4.423782E-04	-2.247043E-03
3.107463E+03	-3.920029E-04	-1.990688E-03
3.107661E+03	-3.405048E-04	-1.728754E-03
3.108057E+03	-2.905029E-04	-1.474188E-03
3.108453E+03	-2.394395E-04	-1.214481E-03
3.108849E+03	-1.881856E-04	-9.540553E-04
3.109245E+03	-1.353518E-04	-6.858728E-04
3.110235E+03	-8.328173E-05	-4.215124E-04
3.110434E+03	-2.871600E-05	-1.453049E-04
3.110830E+03	2.688070E-05	1.359531E-04
3.111227E+03	8.324183E-05	4.208068E-04
3.111425E+03	1.388776E-04	7.018909E-04
3.112019E+03	1.975495E-04	9.977044E-04
3.113008E+03	2.600237E-04	1.311658E-03
3.113206E+03	3.179376E-04	1.603415E-03
3.113405E+03	3.768989E-04	1.900310E-03
3.114394E+03	4.436000E-04	2.233947E-03
3.114592E+03	5.026933E-04	2.530933E-03
3.114790E+03	5.616234E-04	2.826955E-03
3.115583E+03	6.300977E-04	3.168594E-03
3.115782E+03	6.906624E-04	3.472324E-03
3.115980E+03	7.494714E-04	3.767087E-03
3.116178E+03	8.082529E-04	4.061571E-03
3.116376E+03	8.670755E-04	4.356122E-03
3.116574E+03	9.258187E-04	4.650132E-03
3.116772E+03	9.845501E-04	4.943942E-03
3.116970E+03	1.043149E-03	5.236948E-03
3.117366E+03	1.106492E-03	5.552294E-03
3.117564E+03	1.165188E-03	5.845430E-03
3.118158E+03	1.234301E-03	6.187714E-03
3.118356E+03	1.293083E-03	6.480851E-03
3.119347E+03	1.374694E-03	6.881651E-03
3.120139E+03	1.451911E-03	7.261256E-03
3.120535E+03	1.517747E-03	7.586889E-03
3.120733E+03	1.577387E-03	7.883132E-03
3.120932E+03	1.636818E-03	8.178178E-03
3.121130E+03	1.695884E-03	8.471275E-03
3.121328E+03	1.754566E-03	8.762305E-03
3.121526E+03	1.812853E-03	9.051232E-03
3.121724E+03	1.870777E-03	9.338204E-03
3.122120E+03	1.935826E-03	9.658288E-03
3.122318E+03	1.993062E-03	9.941476E-03
3.122516E+03	2.049776E-03	1.022193E-02
3.122913E+03	2.114134E-03	1.053783E-02
3.123309E+03	2.178357E-03	1.085277E-02
3.123705E+03	2.242368E-03	1.116634E-02
3.123903E+03	2.298557E-03	1.144341E-02
3.124497E+03	2.371572E-03	1.179846E-02
3.124694E+03	2.426208E-03	1.206741E-02
3.125288E+03	2.498827E-03	1.241969E-02
3.125487E+03	2.552408E-03	1.268296E-02
3.125684E+03	2.605520E-03	1.294380E-02
3.126279E+03	2.676779E-03	1.328826E-02
3.126477E+03	2.729014E-03	1.354433E-02
3.126676E+03	2.779866E-03	1.379342E-02
3.126874E+03	2.830442E-03	1.404102E-02
3.127072E+03	2.877576E-03	1.427143E-02
3.127468E+03	2.936469E-03	1.455656E-02
3.127666E+03	2.982776E-03	1.478258E-02
3.127864E+03	3.028276E-03	1.500449E-02
3.128062E+03	3.073972E-03	1.522727E-02
3.129448E+03	3.182335E-03	1.573773E-02
3.129646E+03	3.224432E-03	1.594211E-02
3.130438E+03	3.299261E-03	1.629650E-02
3.130637E+03	3.340367E-03	1.649560E-02
3.130835E+03	3.380605E-03	1.669032E-02
3.131033E+03	3.420022E-03	1.688089E-02
3.131231E+03	3.458452E-03	1.706650E-02
3.131429E+03	3.495431E-03	1.724486E-02
3.131826E+03	3.542923E-03	1.747080E-02
3.132222E+03	3.588661E-03	1.768790E-02
3.132618E+03	3.633216E-03	1.789895E-02
3.132816E+03	3.664499E-03	1.804876E-02
3.133014E+03	3.694229E-03	1.819084E-02
3.133212E+03	3.722919E-03	1.832774E-02
3.133806E+03	3.773142E-03	1.856168E-02
3.134202E+03	3.810571E-03	1.873686E-02
3.134400E+03	3.834572E-03	1.885038E-02
3.134599E+03	3.856130E-03	1.895183E-02
3.134995E+03	3.885984E-03	1.908943E-02
3.135193E+03	3.902316E-03	1.916509E-02
3.135589E+03	3.929055E-03	1.928719E-02
3.135787E+03	3.942272E-03	1.934746E-02
3.136183E+03	3.965680E-03	1.945305E-02
3.136975E+03	4.011352E-03	1.965830E-02
3.137372E+03	4.031235E-03	1.974628E-02
3.137569E+03	4.037255E-03	1.977107E-02
3.137767E+03	4.041548E-03	1.978738E-02
3.138163E+03	4.055652E-03	1.984695E-02
3.138362E+03	4.056071E-03	1.984427E-02
3.138758E+03	4.066180E-03	1.988422E-02
3.138956E+03	4.062642E-03	1.986218E-02
3.139154E+03	4.057237E-03	1.983102E-02
3.139352E+03	4.050058E-03	1.979121E-02
3.139550E+03	4.039712E-03	1.973594E-02
3.139748E+03	4.026919E-03	1.966874E-02
3.139946E+03	4.010796E-03	1.958531E-02
3.141332E+03	4.060262E-03	1.979376E-02
3.141728E+03	4.051828E-03	1.974322E-02
3.141926E+03	4.029562E-03	1.963004E-02
3.142522E+03	4.026750E-03	1.960227E-02
3.142720E+03	3.997881E-03	1.945709E-02
3.142918E+03	3.964863E-03	1.929179E-02
3.143710E+03	3.962019E-03	1.925956E-02
3.144106E+03	3.936464E-03	1.912620E-02
3.144502E+03	3.907664E-03	1.897721E-02
3.144898E+03	3.875664E-03	1.881282E-02
3.145096E+03	3.830263E-03	1.858800E-02
3.145492E+03	3.791623E-03	1.839170E-02
3.145888E+03	3.749515E-03	1.817877E-02
3.146681E+03	3.723080E-03	1.803339E-02
3.146879E+03	3.664239E-03	1.774414E-02
3.147870E+03	3.638798E-03	1.759991E-02
3.148464E+03	3.590461E-03	1.735369E-02
3.149057E+03	3.537860E-03	1.708723E-02
3.149651E+03	3.481107E-03	1.680109E-02
3.150444E+03	3.428773E-03	1.653272E-02
3.150642E+03	3.347786E-03	1.613836E-02
3.150840E+03	3.261945E-03	1.572081E-02
3.151236E+03	3.181314E-03	1.532489E-02
3.151632E+03	3.096307E-03	1.490828E-02
3.151830E+03	2.999812E-03	1.444023E-02
3.152226E+03	2.906834E-03	1.398598E-02
3.152622E+03	2.808383E-03	1.350584E-02
3.152820E+03	2.700897E-03	1.298583E-02
3.153415E+03	2.600861E-03	1.249590E-02
3.153811E+03	2.488853E-03	1.195205E-02
3.154010E+03	2.367857E-03	1.136829E-02
3.154208E+03	2.241396E-03	1.075857E-02
3.154406E+03	2.111880E-03	1.013448E-02
3.154604E+03	1.976563E-03	9.482858E-03
3.155396E+03	1.849294E-03	8.863798E-03
3.155792E+03	1.708696E-03	8.185994E-03
3.155990E+03	1.561388E-03	7.478489E-03
3.156980E+03	1.420077E-03	6.793548E-03
3.157178E+03	1.261165E-03	6.031886E-03
3.158169E+03	1.109056E-03	5.298057E-03
3.158368E+03	9.394659E-04	4.486833E-03
3.158764E+03	7.671872E-04	3.662292E-03
3.158962E+03	5.871128E-04	2.802009E-03
3.159556E+03	4.035838E-04	1.924735E-03
3.160150E+03	2.158024E-04	1.028449E-03
3.160347E+03	2.007817E-05	9.566370E-05
3.160942E+03	-1.814496E-04	-8.639085E-04
3.162328E+03	-3.929193E-04	-1.867627E-03
3.162526E+03	-6.059128E-04	-2.879343E-03
3.162922E+03	-8.263115E-04	-3.924820E-03
3.163120E+03	-1.050712E-03	-4.989489E-03
3.163318E+03	-1.280570E-03	-6.079561E-03
3.163715E+03	-1.518784E-03	-7.207038E-03
3.164507E+03	-1.770681E-03	-8.394342E-03
3.164903E+03	-2.022935E-03	-9.585640E-03
3.165894E+03	-2.295612E-03	-1.086474E-02
3.166488E+03	-2.567923E-03	-1.214485E-02
3.167082E+03	-2.848163E-03	-1.346059E-02
3.167280E+03	-3.124300E-03	-1.476211E-02
3.167676E+03	-3.413094E-03	-1.611895E-02
3.168468E+03	-3.723339E-03	-1.756736E-02
3.169261E+03	-4.043038E-03	-1.905754E-02
3.169658E+03	-4.355831E-03	-2.052215E-02
3.169856E+03	-4.667315E-03	-2.198443E-02
3.170648E+03	-5.013325E-03	-2.359172E-02
3.171044E+03	-5.349423E-03	-2.516132E-02
3.171638E+03	-5.703848E-03	-2.680918E-02
3.172232E+03	-6.067416E-03	-2.849762E-02
3.172429E+03	-6.416462E-03	-3.012987E-02
3.173618E+03	-6.834551E-03	-3.204719E-02
3.174807E+03	-7.235790E-03	-3.388003E-02
3.175005E+03	-7.603788E-03	-3.559460E-02
3.175797E+03	-8.029402E-03	-3.755112E-02
3.175995E+03	-8.384948E-03	-3.920455E-02
3.176193E+03	-8.772445E-03	-4.100654E-02
3.176391E+03	-9.164133E-03	-4.282726E-02
3.176589E+03	-8.431859E-03	-3.939568E-02
3.176787E+03	-8.617029E-03	-4.025124E-02
3.177184E+03	-8.349250E-03	-3.898180E-02
3.177580E+03	-7.448925E-03	-3.476168E-02
3.178174E+03	-7.642934E-03	-3.564154E-02
3.178372E+03	-7.857212E-03	-3.663205E-02
3.178570E+03	-7.657708E-03	-3.569340E-02
3.178966E+03	-6.551431E-03	-3.052236E-02
3.179561E+03	-5.544862E-03	-2.581436E-02
3.179759E+03	-5.238753E-03	-2.438343E-02
3.180353E+03	-5.341987E-03	-2.484614E-02
3.180551E+03	-5.400129E-03	-2.511057E-02
3.181146E+03	-5.579682E-03	-2.592693E-02
3.181740E+03	-4.358364E-03	-2.023738E-02
3.181938E+03	-3.644417E-03	-1.691824E-02
3.182928E+03	-3.463795E-03	-1.606059E-02
3.183126E+03	-2.978245E-03	-1.380594E-02
3.183324E+03	-2.499793E-03	-1.158527E-02
3.183522E+03	-2.242148E-03	-1.038873E-02
3.183720E+03	-2.285017E-03	-1.058484E-02
3.183918E+03	-2.155719E-03	-9.983511E-03
3.184511E+03	-2.108854E-03	-9.759494E-03
3.184710E+03	-2.103651E-03	-9.733080E-03
3.185503E+03	-2.032043E-03	-9.392800E-03
3.185701E+03	-1.984384E-03	-9.170316E-03
3.185899E+03	-1.566824E-03	-7.238946E-03
3.186097E+03	-1.459419E-03	-6.741107E-03
3.186889E+03	-1.492414E-03	-6.886941E-03
3.187879E+03	-1.471664E-03	-6.783088E-03
3.188473E+03	-1.460878E-03	-6.728557E-03
3.188671E+03	-1.409866E-03	-6.492057E-03
3.189266E+03	-1.445056E-03	-6.649335E-03
3.189464E+03	-1.394160E-03	-6.413609E-03
3.189860E+03	-1.415024E-03	-6.506487E-03
3.190455E+03	-1.372697E-03	-6.307338E-03
3.190653E+03	-1.234486E-03	-5.670928E-03
3.191643E+03	-1.198721E-03	-5.500065E-03
3.192237E+03	-1.218727E-03	-5.587857E-03
3.192633E+03	-1.242893E-03	-5.695941E-03
3.192832E+03	-1.229670E-03	-5.633996E-03
3.193030E+03	-1.216100E-03	-5.570493E-03
3.193426E+03	-1.181404E-03	-5.408981E-03
3.193624E+03	-1.187363E-03	-5.434969E-03
3.193822E+03	-1.187905E-03	-5.436152E-03
3.194020E+03	-1.164374E-03	-5.327201E-03
3.194218E+03	-1.185445E-03	-5.422307E-03
3.194614E+03	-1.201455E-03	-5.492915E-03
3.195208E+03	-1.164146E-03	-5.318538E-03
