#wls	flux	fluxerr
1.584409E+03	4.263143E-03	7.538123E-04
1.624020E+03	4.388210E-03	7.759009E-04
1.663630E+03	4.505698E-03	7.966463E-04
1.703240E+03	4.614780E-03	8.159026E-04
1.742850E+03	4.712742E-03	8.331896E-04
1.782461E+03	4.799470E-03	8.484873E-04
1.822071E+03	4.872137E-03	8.612961E-04
1.861681E+03	4.930088E-03	8.715002E-04
1.901291E+03	4.971787E-03	8.788286E-04
1.940902E+03	4.994967E-03	8.828805E-04
1.980512E+03	4.999097E-03	8.835627E-04
2.020122E+03	4.982611E-03	8.805990E-04
2.059732E+03	4.944233E-03	8.737640E-04
2.099342E+03	4.883049E-03	8.628974E-04
2.138953E+03	4.797957E-03	8.478048E-04
2.178563E+03	4.687343E-03	8.282021E-04
2.218173E+03	4.549787E-03	8.038394E-04
2.257783E+03	4.385854E-03	7.748177E-04
2.297394E+03	4.198896E-03	7.417305E-04
2.337004E+03	3.994775E-03	7.056143E-04
2.376614E+03	3.778125E-03	6.672887E-04
2.416224E+03	3.553115E-03	6.274910E-04
2.455835E+03	3.322707E-03	5.867447E-04
2.495445E+03	3.089998E-03	5.455975E-04
2.535055E+03	2.857461E-03	5.044867E-04
2.574665E+03	2.627668E-03	4.638667E-04
2.614276E+03	2.402663E-03	4.240987E-04
2.653886E+03	2.184371E-03	3.855224E-04
2.693496E+03	1.974538E-03	3.484463E-04
2.733106E+03	1.774528E-03	3.131107E-04
2.772716E+03	1.585550E-03	2.797291E-04
2.812327E+03	1.408569E-03	2.484711E-04
2.851937E+03	1.244391E-03	2.194788E-04
2.891547E+03	1.093638E-03	1.928609E-04
2.931157E+03	9.566447E-04	1.686763E-04
2.970768E+03	8.334727E-04	1.469348E-04
2.980670E+03	8.048133E-04	1.418765E-04
2.990573E+03	7.769796E-04	1.369641E-04
3.000475E+03	7.499928E-04	1.322014E-04
3.010378E+03	7.238040E-04	1.275796E-04
3.020280E+03	6.984316E-04	1.231022E-04
3.030183E+03	6.738586E-04	1.187659E-04
3.040086E+03	6.500822E-04	1.145703E-04
3.049988E+03	6.270576E-04	1.105076E-04
3.059891E+03	6.048080E-04	1.065817E-04
3.069793E+03	5.832898E-04	1.027851E-04
3.079696E+03	5.625102E-04	9.911886E-05
3.089598E+03	5.424501E-04	9.557971E-05
3.099501E+03	5.230809E-04	9.216259E-05
3.109403E+03	5.044060E-04	8.886805E-05
3.119306E+03	4.863971E-04	8.569113E-05
3.129209E+03	4.690459E-04	8.263034E-05
3.139111E+03	4.523344E-04	7.968248E-05
3.149014E+03	4.362447E-04	7.684441E-05
3.158916E+03	4.207677E-04	7.411449E-05
3.168819E+03	4.058852E-04	7.148952E-05
3.178721E+03	3.915736E-04	6.896534E-05
3.188624E+03	3.778305E-04	6.654149E-05
3.198526E+03	3.646330E-04	6.421395E-05
3.208429E+03	3.519724E-04	6.198116E-05
3.218332E+03	3.398331E-04	5.984035E-05
3.228234E+03	3.281949E-04	5.778798E-05
3.238137E+03	3.170531E-04	5.582319E-05
3.248039E+03	3.063827E-04	5.394159E-05
3.257942E+03	2.961782E-04	5.214218E-05
3.267844E+03	2.864244E-04	5.042228E-05
3.277747E+03	2.770972E-04	4.877764E-05
3.287650E+03	2.681906E-04	4.720718E-05
3.297552E+03	2.596892E-04	4.570819E-05
3.307455E+03	2.515750E-04	4.427751E-05
3.317357E+03	2.438337E-04	4.291258E-05
3.327260E+03	2.364516E-04	4.161101E-05
3.337162E+03	2.294154E-04	4.037042E-05
3.347065E+03	2.227118E-04	3.918848E-05
3.356967E+03	2.163280E-04	3.806294E-05
3.366870E+03	2.102489E-04	3.699111E-05
3.376773E+03	2.044600E-04	3.597045E-05
3.386675E+03	1.989551E-04	3.499985E-05
3.396578E+03	1.937156E-04	3.407604E-05
3.406480E+03	1.887335E-04	3.319759E-05
3.416383E+03	1.839963E-04	3.236232E-05
3.426285E+03	1.794945E-04	3.156853E-05
3.436188E+03	1.752146E-04	3.081385E-05
3.446090E+03	1.711461E-04	3.009642E-05
3.455993E+03	1.672810E-04	2.941483E-05
3.465896E+03	1.636079E-04	2.876706E-05
3.475798E+03	1.601197E-04	2.815188E-05
3.485701E+03	1.568028E-04	2.756688E-05
3.495603E+03	1.536514E-04	2.701103E-05
3.505506E+03	1.506549E-04	2.648247E-05
3.515408E+03	1.478053E-04	2.597978E-05
3.525311E+03	1.450949E-04	2.550162E-05
3.535213E+03	1.425139E-04	2.504624E-05
3.545116E+03	1.400584E-04	2.461298E-05
3.555019E+03	1.377210E-04	2.420051E-05
3.564921E+03	1.354946E-04	2.380757E-05
3.574824E+03	1.333763E-04	2.343368E-05
3.584726E+03	1.313583E-04	2.307746E-05
3.594629E+03	1.294361E-04	2.273808E-05
3.604531E+03	1.276049E-04	2.241474E-05
3.614434E+03	1.258606E-04	2.210669E-05
3.624337E+03	1.241992E-04	2.181324E-05
3.634239E+03	1.226169E-04	2.153370E-05
3.644142E+03	1.211112E-04	2.126763E-05
3.654044E+03	1.196795E-04	2.101460E-05
3.663947E+03	1.183185E-04	2.077400E-05
3.673849E+03	1.170290E-04	2.054597E-05
3.683752E+03	1.158065E-04	2.032975E-05
3.693654E+03	1.146509E-04	2.012527E-05
3.703557E+03	1.135598E-04	1.993214E-05
3.713460E+03	1.125319E-04	1.975011E-05
3.723362E+03	1.115678E-04	1.957929E-05
3.733265E+03	1.106631E-04	1.941892E-05
3.743167E+03	1.098184E-04	1.926908E-05
3.753070E+03	1.090332E-04	1.912969E-05
3.762972E+03	1.083042E-04	1.900018E-05
3.772875E+03	1.076317E-04	1.888058E-05
3.782777E+03	1.070152E-04	1.877081E-05
3.792680E+03	1.064524E-04	1.867046E-05
3.802583E+03	1.059417E-04	1.857926E-05
3.812485E+03	1.054844E-04	1.849742E-05
3.822388E+03	1.050773E-04	1.842438E-05
3.832290E+03	1.047206E-04	1.836018E-05
3.842193E+03	1.044130E-04	1.830458E-05
3.852095E+03	1.041539E-04	1.825748E-05
3.861998E+03	1.039427E-04	1.821877E-05
3.871900E+03	1.037772E-04	1.818807E-05
3.881803E+03	1.036570E-04	1.816529E-05
3.891706E+03	1.035823E-04	1.815048E-05
3.901608E+03	1.035518E-04	1.814339E-05
3.911511E+03	1.035642E-04	1.814382E-05
3.921413E+03	1.036191E-04	1.815166E-05
3.931316E+03	1.037151E-04	1.816670E-05
3.941218E+03	1.038518E-04	1.818885E-05
3.951121E+03	1.040289E-04	1.821804E-05
3.961024E+03	1.042458E-04	1.825419E-05
3.970926E+03	1.045007E-04	1.829696E-05
3.980829E+03	1.047931E-04	1.834628E-05
3.990731E+03	1.051228E-04	1.840209E-05
4.000634E+03	1.054894E-04	1.846435E-05
4.010536E+03	1.058920E-04	1.853286E-05
4.020439E+03	1.063293E-04	1.860744E-05
4.030341E+03	1.068014E-04	1.868806E-05
4.040244E+03	1.073071E-04	1.877452E-05
4.050147E+03	1.078463E-04	1.886682E-05
4.060049E+03	1.084181E-04	1.896477E-05
4.069952E+03	1.090222E-04	1.906834E-05
4.079854E+03	1.096578E-04	1.917736E-05
4.089757E+03	1.103238E-04	1.929167E-05
4.099659E+03	1.110201E-04	1.941124E-05
4.109562E+03	1.117459E-04	1.953590E-05
4.119464E+03	1.125009E-04	1.966564E-05
4.129367E+03	1.132835E-04	1.980014E-05
4.139270E+03	1.140936E-04	1.993940E-05
4.149172E+03	1.149294E-04	2.008310E-05
4.159075E+03	1.157918E-04	2.023140E-05
4.168977E+03	1.166790E-04	2.038397E-05
4.178880E+03	1.175911E-04	2.054083E-05
4.188782E+03	1.185253E-04	2.070149E-05
4.198685E+03	1.194825E-04	2.086612E-05
4.208587E+03	1.204599E-04	2.103421E-05
4.218490E+03	1.214585E-04	2.120593E-05
4.228393E+03	1.224753E-04	2.138078E-05
4.238295E+03	1.235085E-04	2.155840E-05
4.248198E+03	1.245588E-04	2.173895E-05
4.258100E+03	1.256224E-04	2.192176E-05
4.268003E+03	1.267002E-04	2.210697E-05
4.277905E+03	1.277882E-04	2.229388E-05
4.287808E+03	1.288873E-04	2.248266E-05
4.297711E+03	1.299955E-04	2.267295E-05
4.307613E+03	1.311106E-04	2.286438E-05
4.317516E+03	1.322328E-04	2.305695E-05
4.327418E+03	1.333607E-04	2.325045E-05
4.337321E+03	1.344955E-04	2.344507E-05
4.347223E+03	1.356350E-04	2.364044E-05
4.357126E+03	1.367814E-04	2.383692E-05
4.367028E+03	1.379347E-04	2.403452E-05
4.376931E+03	1.390950E-04	2.423327E-05
4.386834E+03	1.402625E-04	2.443316E-05
4.396736E+03	1.414383E-04	2.463443E-05
4.406639E+03	1.426216E-04	2.483691E-05
4.416541E+03	1.438137E-04	2.504085E-05
4.426444E+03	1.450149E-04	2.524629E-05
4.436346E+03	1.462257E-04	2.545328E-05
4.446249E+03	1.474449E-04	2.566167E-05
4.456151E+03	1.486731E-04	2.587151E-05
4.466054E+03	1.499092E-04	2.608264E-05
4.475957E+03	1.511548E-04	2.629532E-05
4.485859E+03	1.524076E-04	2.650916E-05
4.495762E+03	1.536679E-04	2.672421E-05
4.505664E+03	1.549360E-04	2.694051E-05
4.515567E+03	1.562095E-04	2.715763E-05
4.525469E+03	1.574899E-04	2.737587E-05
4.535372E+03	1.587749E-04	2.759480E-05
4.545274E+03	1.600649E-04	2.781449E-05
4.555177E+03	1.613574E-04	2.803451E-05
4.565080E+03	1.626543E-04	2.825517E-05
4.574982E+03	1.639546E-04	2.847632E-05
4.584885E+03	1.652561E-04	2.869757E-05
4.594787E+03	1.665594E-04	2.891902E-05
4.604690E+03	1.678651E-04	2.914077E-05
4.614592E+03	1.691726E-04	2.936272E-05
4.624495E+03	1.704796E-04	2.958447E-05
4.634398E+03	1.717901E-04	2.980670E-05
4.644300E+03	1.731051E-04	3.002959E-05
4.654203E+03	1.744226E-04	3.025280E-05
4.664105E+03	1.757437E-04	3.047652E-05
4.674008E+03	1.770697E-04	3.070097E-05
4.683910E+03	1.783972E-04	3.092555E-05
4.693813E+03	1.797275E-04	3.115048E-05
4.703715E+03	1.810587E-04	3.137544E-05
4.713618E+03	1.823923E-04	3.160069E-05
4.723521E+03	1.837281E-04	3.182619E-05
4.733423E+03	1.850643E-04	3.205164E-05
4.743326E+03	1.864026E-04	3.227731E-05
4.753228E+03	1.877412E-04	3.250290E-05
4.763131E+03	1.890818E-04	3.272870E-05
4.773033E+03	1.904227E-04	3.295442E-05
4.782936E+03	1.917639E-04	3.318005E-05
4.792838E+03	1.931054E-04	3.340560E-05
4.802741E+03	1.944490E-04	3.363137E-05
4.812644E+03	1.957931E-04	3.385707E-05
4.822546E+03	1.971374E-04	3.408269E-05
4.832449E+03	1.984803E-04	3.430789E-05
4.842351E+03	1.998252E-04	3.453331E-05
4.852254E+03	2.011701E-04	3.475859E-05
4.862156E+03	2.025149E-04	3.498370E-05
4.872059E+03	2.038574E-04	3.520825E-05
4.881961E+03	2.051991E-04	3.543251E-05
4.891864E+03	2.065376E-04	3.565607E-05
4.901767E+03	2.078724E-04	3.587885E-05
4.911669E+03	2.092050E-04	3.610108E-05
4.921572E+03	2.105329E-04	3.632234E-05
4.931474E+03	2.118554E-04	3.654251E-05
4.941377E+03	2.131698E-04	3.676114E-05
4.951279E+03	2.144774E-04	3.697844E-05
4.961182E+03	2.157776E-04	3.719429E-05
4.971085E+03	2.170672E-04	3.740817E-05
4.980987E+03	2.183454E-04	3.761991E-05
4.990890E+03	2.196112E-04	3.782935E-05
5.000792E+03	2.208612E-04	3.803592E-05
5.010695E+03	2.220966E-04	3.823981E-05
5.020597E+03	2.233162E-04	3.844081E-05
5.030500E+03	2.245146E-04	3.863799E-05
5.040402E+03	2.256927E-04	3.883153E-05
5.050305E+03	2.268495E-04	3.902123E-05
5.060208E+03	2.279818E-04	3.920657E-05
5.070110E+03	2.290887E-04	3.938738E-05
5.080013E+03	2.301693E-04	3.956350E-05
5.089915E+03	2.312228E-04	3.973481E-05
5.099818E+03	2.322461E-04	3.990078E-05
5.109720E+03	2.332409E-04	4.006167E-05
5.119623E+03	2.342016E-04	4.021658E-05
5.129525E+03	2.351297E-04	4.036572E-05
5.139428E+03	2.360220E-04	4.050856E-05
5.149331E+03	2.368774E-04	4.064492E-05
5.159233E+03	2.376944E-04	4.077455E-05
5.169136E+03	2.384720E-04	4.089728E-05
5.179038E+03	2.392037E-04	4.101198E-05
5.188941E+03	2.398925E-04	4.111920E-05
5.198843E+03	2.405341E-04	4.121819E-05
5.208746E+03	2.411267E-04	4.130864E-05
5.218648E+03	2.416652E-04	4.138970E-05
5.228551E+03	2.421478E-04	4.146106E-05
5.238454E+03	2.425718E-04	4.152226E-05
5.248356E+03	2.429352E-04	4.157297E-05
5.258259E+03	2.432360E-04	4.161286E-05
5.268161E+03	2.434698E-04	4.164118E-05
5.278064E+03	2.436398E-04	4.165850E-05
5.287966E+03	2.437401E-04	4.166379E-05
5.297869E+03	2.437698E-04	4.165694E-05
5.307772E+03	2.437326E-04	4.163856E-05
5.317674E+03	2.436238E-04	4.160789E-05
5.327577E+03	2.434479E-04	4.156568E-05
5.337479E+03	2.432028E-04	4.151160E-05
5.347382E+03	2.428917E-04	4.144620E-05
5.357284E+03	2.425124E-04	4.136911E-05
5.367187E+03	2.420713E-04	4.128143E-05
5.377089E+03	2.415669E-04	4.118292E-05
5.386992E+03	2.410032E-04	4.107428E-05
5.396895E+03	2.403776E-04	4.095506E-05
5.406797E+03	2.396941E-04	4.082596E-05
5.416700E+03	2.389533E-04	4.068709E-05
5.426602E+03	2.381550E-04	4.053844E-05
5.436505E+03	2.373045E-04	4.038090E-05
5.446407E+03	2.364007E-04	4.021430E-05
5.456310E+03	2.354440E-04	4.003871E-05
5.466212E+03	2.344381E-04	3.985478E-05
5.476115E+03	2.333817E-04	3.966230E-05
5.486018E+03	2.322813E-04	3.946235E-05
5.495920E+03	2.311333E-04	3.925438E-05
5.505823E+03	2.299462E-04	3.903981E-05
5.515725E+03	2.287217E-04	3.881893E-05
5.525628E+03	2.274610E-04	3.859197E-05
5.535530E+03	2.261679E-04	3.835957E-05
5.545433E+03	2.248459E-04	3.812234E-05
5.555335E+03	2.234963E-04	3.788050E-05
5.565238E+03	2.221268E-04	3.763536E-05
5.575141E+03	2.207362E-04	3.738672E-05
5.585043E+03	2.193318E-04	3.713582E-05
5.594946E+03	2.179120E-04	3.688239E-05
5.604848E+03	2.164837E-04	3.662764E-05
5.614751E+03	2.150496E-04	3.637196E-05
5.624653E+03	2.136095E-04	3.611538E-05
5.634556E+03	2.121679E-04	3.585863E-05
5.644459E+03	2.107268E-04	3.560204E-05
5.654361E+03	2.092900E-04	3.534630E-05
5.664264E+03	2.078594E-04	3.509170E-05
5.674166E+03	2.064344E-04	3.483812E-05
5.684069E+03	2.050208E-04	3.458657E-05
5.693971E+03	2.036200E-04	3.433728E-05
5.703874E+03	2.022311E-04	3.409010E-05
5.713776E+03	2.008578E-04	3.384564E-05
5.723679E+03	1.995034E-04	3.360446E-05
5.733582E+03	1.981691E-04	3.336675E-05
5.743484E+03	1.968540E-04	3.313237E-05
5.753387E+03	1.955615E-04	3.290188E-05
5.763289E+03	1.942948E-04	3.267584E-05
5.773192E+03	1.930553E-04	3.245444E-05
5.783094E+03	1.918421E-04	3.223755E-05
5.792997E+03	1.906585E-04	3.202571E-05
5.802899E+03	1.895058E-04	3.181916E-05
5.812802E+03	1.883875E-04	3.161843E-05
5.822705E+03	1.873047E-04	3.142376E-05
5.832607E+03	1.862568E-04	3.123500E-05
5.842510E+03	1.852471E-04	3.105271E-05
5.852412E+03	1.842747E-04	3.087674E-05
5.862315E+03	1.833470E-04	3.070830E-05
5.872217E+03	1.824586E-04	3.054650E-05
5.882120E+03	1.816126E-04	3.039185E-05
5.892022E+03	1.808117E-04	3.024478E-05
5.901925E+03	1.800545E-04	3.010504E-05
5.911828E+03	1.793413E-04	2.997271E-05
5.921730E+03	1.786747E-04	2.984818E-05
5.931633E+03	1.780527E-04	2.973112E-05
5.941535E+03	1.774777E-04	2.962190E-05
5.951438E+03	1.769454E-04	2.951983E-05
5.961340E+03	1.764599E-04	2.942556E-05
5.971243E+03	1.760170E-04	2.933838E-05
5.981146E+03	1.756205E-04	2.925894E-05
5.991048E+03	1.752641E-04	2.918613E-05
6.000951E+03	1.749513E-04	2.912058E-05
6.010853E+03	1.746799E-04	2.906187E-05
6.020756E+03	1.744492E-04	2.900990E-05
6.030658E+03	1.742546E-04	2.896388E-05
6.040561E+03	1.740997E-04	2.892440E-05
6.050463E+03	1.739775E-04	2.889030E-05
6.060366E+03	1.738915E-04	2.886216E-05
6.070269E+03	1.738347E-04	2.883879E-05
6.080171E+03	1.738062E-04	2.882004E-05
6.090074E+03	1.738030E-04	2.880542E-05
6.099976E+03	1.738243E-04	2.879475E-05
6.109879E+03	1.738624E-04	2.878680E-05
6.119781E+03	1.739164E-04	2.878139E-05
6.129684E+03	1.739829E-04	2.877795E-05
6.139586E+03	1.740606E-04	2.877628E-05
6.149489E+03	1.741484E-04	2.877617E-05
6.159392E+03	1.742493E-04	2.877814E-05
6.169294E+03	1.743690E-04	2.878311E-05
6.179197E+03	1.745085E-04	2.879125E-05
6.189099E+03	1.746715E-04	2.880314E-05
6.199002E+03	1.748614E-04	2.881937E-05
6.208904E+03	1.750798E-04	2.884017E-05
6.218807E+03	1.753306E-04	2.886619E-05
6.228709E+03	1.756154E-04	2.889768E-05
6.238612E+03	1.759362E-04	2.893493E-05
6.248515E+03	1.762970E-04	2.897865E-05
6.258417E+03	1.766977E-04	2.902876E-05
6.268320E+03	1.771429E-04	2.908601E-05
6.278222E+03	1.776298E-04	2.914995E-05
6.288125E+03	1.781610E-04	2.922097E-05
6.298027E+03	1.787362E-04	2.929903E-05
6.307930E+03	1.793580E-04	2.938454E-05
6.317833E+03	1.800241E-04	2.947708E-05
6.327735E+03	1.807344E-04	2.957666E-05
6.337638E+03	1.814864E-04	2.968284E-05
6.347540E+03	1.822750E-04	2.979477E-05
6.357443E+03	1.830974E-04	2.991198E-05
6.367345E+03	1.839535E-04	3.003445E-05
6.377248E+03	1.848432E-04	3.016215E-05
6.387150E+03	1.857663E-04	3.029505E-05
6.397053E+03	1.867257E-04	3.043359E-05
6.406956E+03	1.877242E-04	3.057822E-05
6.416858E+03	1.887620E-04	3.072896E-05
6.426761E+03	1.898364E-04	3.088536E-05
6.436663E+03	1.909534E-04	3.104838E-05
6.446566E+03	1.921132E-04	3.121805E-05
6.456468E+03	1.933133E-04	3.139394E-05
6.466371E+03	1.945570E-04	3.157657E-05
6.476273E+03	1.958446E-04	3.176599E-05
6.486176E+03	1.971736E-04	3.196174E-05
6.496079E+03	1.985442E-04	3.216388E-05
6.505981E+03	1.999632E-04	3.237349E-05
6.515884E+03	2.014215E-04	3.258906E-05
6.525786E+03	2.029259E-04	3.281168E-05
6.535689E+03	2.044770E-04	3.304144E-05
6.545591E+03	2.060685E-04	3.327730E-05
6.555494E+03	2.077075E-04	3.352041E-05
6.565396E+03	2.093878E-04	3.376972E-05
6.575299E+03	2.111166E-04	3.402640E-05
6.585202E+03	2.128874E-04	3.428939E-05
6.595104E+03	2.147042E-04	3.455928E-05
6.605007E+03	2.165673E-04	3.483614E-05
6.614909E+03	2.184736E-04	3.511944E-05
6.624812E+03	2.204233E-04	3.540919E-05
6.634714E+03	2.224209E-04	3.570611E-05
6.644617E+03	2.244625E-04	3.600954E-05
6.654520E+03	2.265490E-04	3.631963E-05
6.664422E+03	2.286805E-04	3.663635E-05
6.674325E+03	2.308575E-04	3.695978E-05
6.684227E+03	2.330805E-04	3.728998E-05
6.694130E+03	2.353498E-04	3.762697E-05
6.704032E+03	2.376619E-04	3.797017E-05
6.713935E+03	2.400210E-04	3.832027E-05
6.723837E+03	2.424279E-04	3.867732E-05
6.733740E+03	2.448782E-04	3.904066E-05
6.743643E+03	2.473773E-04	3.941109E-05
6.753545E+03	2.499206E-04	3.978787E-05
6.763448E+03	2.525088E-04	4.017109E-05
6.773350E+03	2.551418E-04	4.056073E-05
6.783253E+03	2.578204E-04	4.095688E-05
6.793155E+03	2.605493E-04	4.136027E-05
6.803058E+03	2.633194E-04	4.176944E-05
6.812960E+03	2.661358E-04	4.218519E-05
6.822863E+03	2.689986E-04	4.260751E-05
6.832766E+03	2.719034E-04	4.303566E-05
6.842668E+03	2.748552E-04	4.347045E-05
6.852571E+03	2.778545E-04	4.391191E-05
6.862473E+03	2.808962E-04	4.435923E-05
6.872376E+03	2.839804E-04	4.481239E-05
6.882278E+03	2.871124E-04	4.527224E-05
6.892181E+03	2.902873E-04	4.573796E-05
6.902083E+03	2.935050E-04	4.620950E-05
6.911986E+03	2.967653E-04	4.668685E-05
6.921889E+03	3.000683E-04	4.716999E-05
6.931791E+03	3.034080E-04	4.765794E-05
6.941694E+03	3.067961E-04	4.815255E-05
6.951596E+03	3.102207E-04	4.865190E-05
6.961499E+03	3.136875E-04	4.915689E-05
6.971401E+03	3.171902E-04	4.966650E-05
6.981304E+03	3.207285E-04	5.018068E-05
6.991207E+03	3.243084E-04	5.070033E-05
7.001109E+03	3.279230E-04	5.122440E-05
7.011012E+03	3.315655E-04	5.175174E-05
7.020914E+03	3.352486E-04	5.228437E-05
7.030817E+03	3.389651E-04	5.282114E-05
7.040719E+03	3.427077E-04	5.336089E-05
7.050622E+03	3.464826E-04	5.390456E-05
7.060524E+03	3.502822E-04	5.445098E-05
7.070427E+03	3.541127E-04	5.500107E-05
7.080330E+03	3.579664E-04	5.555365E-05
7.090232E+03	3.618497E-04	5.610967E-05
7.100135E+03	3.657468E-04	5.666669E-05
7.110037E+03	3.696643E-04	5.722573E-05
7.119940E+03	3.736091E-04	5.778780E-05
7.129842E+03	3.775645E-04	5.835036E-05
7.139745E+03	3.815291E-04	5.891317E-05
7.149647E+03	3.855102E-04	5.947733E-05
7.159550E+03	3.895063E-04	6.004261E-05
7.169453E+03	3.935080E-04	6.060757E-05
7.179355E+03	3.975225E-04	6.117329E-05
7.189258E+03	4.015400E-04	6.173828E-05
7.199160E+03	4.055586E-04	6.230222E-05
7.209063E+03	4.095856E-04	6.286624E-05
7.218965E+03	4.136106E-04	6.342874E-05
7.228868E+03	4.176405E-04	6.399078E-05
7.238770E+03	4.216646E-04	6.455071E-05
7.248673E+03	4.256807E-04	6.510819E-05
7.258576E+03	4.297057E-04	6.566581E-05
7.268478E+03	4.337188E-04	6.622040E-05
7.278381E+03	4.377372E-04	6.677458E-05
7.288283E+03	4.417497E-04	6.732664E-05
7.298186E+03	4.457649E-04	6.787788E-05
7.308088E+03	4.497915E-04	6.842965E-05
7.317991E+03	4.538187E-04	6.898026E-05
7.327894E+03	4.578664E-04	6.953277E-05
7.337796E+03	4.619347E-04	7.008718E-05
7.347699E+03	4.660343E-04	7.064508E-05
7.357601E+03	4.701662E-04	7.120663E-05
7.367504E+03	4.743310E-04	7.177190E-05
7.377406E+03	4.785409E-04	7.234273E-05
7.387309E+03	4.827748E-04	7.291591E-05
7.397211E+03	4.870339E-04	7.349160E-05
7.407114E+03	4.913075E-04	7.406820E-05
7.417017E+03	4.956080E-04	7.464756E-05
7.426919E+03	4.999246E-04	7.522803E-05
7.436822E+03	5.042466E-04	7.580803E-05
7.446724E+03	5.085744E-04	7.638759E-05
7.456627E+03	5.129086E-04	7.696682E-05
7.466529E+03	5.172380E-04	7.754402E-05
7.476432E+03	5.215753E-04	7.812111E-05
7.486334E+03	5.258966E-04	7.869452E-05
7.496237E+03	5.302277E-04	7.926810E-05
7.506140E+03	5.345569E-04	7.984013E-05
7.516042E+03	5.388850E-04	8.041069E-05
7.525945E+03	5.431992E-04	8.097791E-05
7.535847E+03	5.475126E-04	8.154373E-05
7.545750E+03	5.518250E-04	8.210813E-05
7.555652E+03	5.561354E-04	8.267099E-05
7.565555E+03	5.604288E-04	8.323006E-05
7.575457E+03	5.647166E-04	8.378704E-05
7.585360E+03	5.689822E-04	8.433951E-05
7.595263E+03	5.732508E-04	8.489117E-05
7.605165E+03	5.774758E-04	8.543515E-05
7.615068E+03	5.816958E-04	8.597719E-05
7.624970E+03	5.858922E-04	8.651455E-05
7.634873E+03	5.900451E-04	8.704429E-05
7.644775E+03	5.941640E-04	8.756784E-05
7.654678E+03	5.982435E-04	8.808444E-05
7.664581E+03	6.022775E-04	8.859321E-05
7.674483E+03	6.062602E-04	8.909331E-05
7.684386E+03	6.102008E-04	8.958614E-05
