#wls	flux	fluxerr
1.584409E+03	5.060015E-03	7.812174E-04
1.624020E+03	5.204360E-03	8.034566E-04
1.663630E+03	5.339256E-03	8.242317E-04
1.703240E+03	5.463724E-03	8.433914E-04
1.742850E+03	5.574538E-03	8.604376E-04
1.782461E+03	5.671564E-03	8.753500E-04
1.822071E+03	5.751466E-03	8.876136E-04
1.861681E+03	5.813492E-03	8.971130E-04
1.901291E+03	5.855844E-03	9.035709E-04
1.940902E+03	5.875895E-03	9.065825E-04
1.980512E+03	5.873063E-03	9.060589E-04
2.020122E+03	5.845565E-03	9.017259E-04
2.059732E+03	5.791986E-03	8.933664E-04
2.099342E+03	5.711352E-03	8.808311E-04
2.138953E+03	5.602487E-03	8.639404E-04
2.178563E+03	5.463644E-03	8.424264E-04
2.218173E+03	5.293334E-03	8.160616E-04
2.257783E+03	5.092420E-03	7.849810E-04
2.297394E+03	4.864999E-03	7.498185E-04
2.337004E+03	4.618074E-03	7.116557E-04
2.376614E+03	4.357192E-03	6.713488E-04
2.416224E+03	4.087333E-03	6.296670E-04
2.455835E+03	3.812051E-03	5.871592E-04
2.495445E+03	3.535054E-03	5.443974E-04
2.535055E+03	3.259287E-03	5.018362E-04
2.574665E+03	2.987796E-03	4.599452E-04
2.614276E+03	2.722988E-03	4.190955E-04
2.653886E+03	2.467104E-03	3.796322E-04
2.693496E+03	2.222153E-03	3.418644E-04
2.733106E+03	1.989674E-03	3.060286E-04
2.772716E+03	1.771003E-03	2.723299E-04
2.812327E+03	1.567163E-03	2.409250E-04
2.851937E+03	1.378973E-03	2.119388E-04
2.891547E+03	1.207010E-03	1.854590E-04
2.931157E+03	1.051510E-03	1.615207E-04
2.970768E+03	9.123811E-04	1.401083E-04
2.980670E+03	8.801081E-04	1.351422E-04
2.990573E+03	8.488027E-04	1.303253E-04
3.000475E+03	8.184857E-04	1.256608E-04
3.010378E+03	7.891007E-04	1.211399E-04
3.020280E+03	7.606651E-04	1.167655E-04
3.030183E+03	7.331578E-04	1.125341E-04
3.040086E+03	7.065724E-04	1.084448E-04
3.049988E+03	6.808584E-04	1.044898E-04
3.059891E+03	6.560374E-04	1.006724E-04
3.069793E+03	6.320599E-04	9.698497E-05
3.079696E+03	6.089301E-04	9.342813E-05
3.089598E+03	5.866249E-04	8.999832E-05
3.099501E+03	5.651106E-04	8.669032E-05
3.109403E+03	5.443889E-04	8.350439E-05
3.119306E+03	5.244277E-04	8.043560E-05
3.129209E+03	5.052160E-04	7.748222E-05
3.139111E+03	4.867322E-04	7.464090E-05
3.149014E+03	4.689541E-04	7.190824E-05
3.158916E+03	4.518695E-04	6.928232E-05
3.168819E+03	4.354555E-04	6.675963E-05
3.178721E+03	4.196832E-04	6.433571E-05
3.188624E+03	4.045473E-04	6.200973E-05
3.198526E+03	3.900238E-04	5.977797E-05
3.208429E+03	3.761028E-04	5.763893E-05
3.218332E+03	3.627674E-04	5.558996E-05
3.228234E+03	3.499948E-04	5.362759E-05
3.238137E+03	3.377797E-04	5.175094E-05
3.248039E+03	3.260937E-04	4.995566E-05
3.257942E+03	3.149292E-04	4.824058E-05
3.267844E+03	3.042683E-04	4.660292E-05
3.277747E+03	2.940832E-04	4.503841E-05
3.287650E+03	2.843663E-04	4.354588E-05
3.297552E+03	2.750997E-04	4.212255E-05
3.307455E+03	2.662625E-04	4.076521E-05
3.317357E+03	2.578383E-04	3.947135E-05
3.327260E+03	2.498115E-04	3.823854E-05
3.337162E+03	2.421666E-04	3.706441E-05
3.347065E+03	2.348885E-04	3.594662E-05
3.356967E+03	2.279626E-04	3.488294E-05
3.366870E+03	2.213719E-04	3.387072E-05
3.376773E+03	2.150998E-04	3.290745E-05
3.386675E+03	2.091391E-04	3.199198E-05
3.396578E+03	2.034691E-04	3.112115E-05
3.406480E+03	1.980804E-04	3.029350E-05
3.416383E+03	1.929590E-04	2.950689E-05
3.426285E+03	1.880941E-04	2.875965E-05
3.436188E+03	1.834707E-04	2.804947E-05
3.446090E+03	1.790770E-04	2.737454E-05
3.455993E+03	1.749040E-04	2.673346E-05
3.465896E+03	1.709389E-04	2.612429E-05
3.475798E+03	1.671739E-04	2.554580E-05
3.485701E+03	1.635940E-04	2.499572E-05
3.495603E+03	1.601927E-04	2.447303E-05
3.505506E+03	1.569586E-04	2.397597E-05
3.515408E+03	1.538829E-04	2.350320E-05
3.525311E+03	1.509571E-04	2.305343E-05
3.535213E+03	1.481706E-04	2.262500E-05
3.545116E+03	1.455192E-04	2.221728E-05
3.555019E+03	1.429945E-04	2.182901E-05
3.564921E+03	1.405890E-04	2.145897E-05
3.574824E+03	1.382993E-04	2.110669E-05
3.584726E+03	1.361170E-04	2.077087E-05
3.594629E+03	1.340369E-04	2.045072E-05
3.604531E+03	1.320541E-04	2.014545E-05
3.614434E+03	1.301639E-04	1.985438E-05
3.624337E+03	1.283620E-04	1.957682E-05
3.634239E+03	1.266441E-04	1.931214E-05
3.644142E+03	1.250077E-04	1.905991E-05
3.654044E+03	1.234499E-04	1.881973E-05
3.663947E+03	1.219671E-04	1.859102E-05
3.673849E+03	1.205601E-04	1.837391E-05
3.683752E+03	1.192242E-04	1.816767E-05
3.693654E+03	1.179591E-04	1.797224E-05
3.703557E+03	1.167621E-04	1.778723E-05
3.713460E+03	1.156319E-04	1.761243E-05
3.723362E+03	1.145688E-04	1.744787E-05
3.733265E+03	1.135684E-04	1.729288E-05
3.743167E+03	1.126309E-04	1.714749E-05
3.753070E+03	1.117556E-04	1.701161E-05
3.762972E+03	1.109391E-04	1.688468E-05
3.772875E+03	1.101816E-04	1.676675E-05
3.782777E+03	1.094824E-04	1.665770E-05
3.792680E+03	1.088390E-04	1.655715E-05
3.802583E+03	1.082496E-04	1.646483E-05
3.812485E+03	1.077155E-04	1.638092E-05
3.822388E+03	1.072333E-04	1.630490E-05
3.832290E+03	1.068031E-04	1.623679E-05
3.842193E+03	1.064233E-04	1.617634E-05
3.852095E+03	1.060933E-04	1.612346E-05
3.861998E+03	1.058124E-04	1.607803E-05
3.871900E+03	1.055782E-04	1.603969E-05
3.881803E+03	1.053902E-04	1.600835E-05
3.891706E+03	1.052485E-04	1.598403E-05
3.901608E+03	1.051517E-04	1.596652E-05
3.911511E+03	1.050985E-04	1.595561E-05
3.921413E+03	1.050883E-04	1.595119E-05
3.931316E+03	1.051196E-04	1.595305E-05
3.941218E+03	1.051919E-04	1.596111E-05
3.951121E+03	1.053046E-04	1.597528E-05
3.961024E+03	1.054573E-04	1.599547E-05
3.970926E+03	1.056477E-04	1.602136E-05
3.980829E+03	1.058756E-04	1.605288E-05
3.990731E+03	1.061403E-04	1.608996E-05
4.000634E+03	1.064417E-04	1.613255E-05
4.010536E+03	1.067785E-04	1.618046E-05
4.020439E+03	1.071497E-04	1.623354E-05
4.030341E+03	1.075550E-04	1.629173E-05
4.040244E+03	1.079933E-04	1.635488E-05
4.050147E+03	1.084646E-04	1.642296E-05
4.060049E+03	1.089677E-04	1.649581E-05
4.069952E+03	1.095024E-04	1.657338E-05
4.079854E+03	1.100677E-04	1.665551E-05
4.089757E+03	1.106625E-04	1.674205E-05
4.099659E+03	1.112866E-04	1.683296E-05
4.109562E+03	1.119390E-04	1.692807E-05
4.119464E+03	1.126195E-04	1.702736E-05
4.129367E+03	1.133263E-04	1.713056E-05
4.139270E+03	1.140593E-04	1.723763E-05
4.149172E+03	1.148167E-04	1.734832E-05
4.159075E+03	1.155993E-04	1.746274E-05
4.168977E+03	1.164055E-04	1.758062E-05
4.178880E+03	1.172351E-04	1.770197E-05
4.188782E+03	1.180854E-04	1.782635E-05
4.198685E+03	1.189574E-04	1.795391E-05
4.208587E+03	1.198481E-04	1.808421E-05
4.218490E+03	1.207585E-04	1.821737E-05
4.228393E+03	1.216856E-04	1.835296E-05
4.238295E+03	1.226273E-04	1.849066E-05
4.248198E+03	1.235846E-04	1.863060E-05
4.258100E+03	1.245534E-04	1.877217E-05
4.268003E+03	1.255347E-04	1.891551E-05
4.277905E+03	1.265244E-04	1.906002E-05
4.287808E+03	1.275235E-04	1.920584E-05
4.297711E+03	1.285302E-04	1.935268E-05
4.307613E+03	1.295423E-04	1.950022E-05
4.317516E+03	1.305598E-04	1.964847E-05
4.327418E+03	1.315819E-04	1.979728E-05
4.337321E+03	1.326094E-04	1.994680E-05
4.347223E+03	1.336403E-04	2.009672E-05
4.357126E+03	1.346768E-04	2.024734E-05
4.367028E+03	1.357188E-04	2.039868E-05
4.376931E+03	1.367665E-04	2.055074E-05
4.386834E+03	1.378200E-04	2.070355E-05
4.396736E+03	1.388805E-04	2.085729E-05
4.406639E+03	1.399471E-04	2.101180E-05
4.416541E+03	1.410211E-04	2.116731E-05
4.426444E+03	1.421030E-04	2.132387E-05
4.436346E+03	1.431932E-04	2.148152E-05
4.446249E+03	1.442907E-04	2.164016E-05
4.456151E+03	1.453961E-04	2.179982E-05
4.466054E+03	1.465083E-04	2.196037E-05
4.475957E+03	1.476290E-04	2.212204E-05
4.485859E+03	1.487559E-04	2.228449E-05
4.495762E+03	1.498891E-04	2.244776E-05
4.505664E+03	1.510290E-04	2.261187E-05
4.515567E+03	1.521731E-04	2.277645E-05
4.525469E+03	1.533228E-04	2.294174E-05
4.535372E+03	1.544759E-04	2.310736E-05
4.545274E+03	1.556326E-04	2.327337E-05
4.555177E+03	1.567905E-04	2.343940E-05
4.565080E+03	1.579514E-04	2.360571E-05
4.574982E+03	1.591144E-04	2.377219E-05
4.584885E+03	1.602774E-04	2.393850E-05
4.594787E+03	1.614410E-04	2.410472E-05
4.604690E+03	1.626058E-04	2.427097E-05
4.614592E+03	1.637712E-04	2.443713E-05
4.624495E+03	1.649352E-04	2.460291E-05
4.634398E+03	1.661014E-04	2.476885E-05
4.644300E+03	1.672708E-04	2.493510E-05
4.654203E+03	1.684416E-04	2.510138E-05
4.664105E+03	1.696150E-04	2.526785E-05
4.674008E+03	1.707920E-04	2.543470E-05
4.683910E+03	1.719695E-04	2.560144E-05
4.693813E+03	1.731487E-04	2.576824E-05
4.703715E+03	1.743278E-04	2.593486E-05
4.713618E+03	1.755084E-04	2.610149E-05
4.723521E+03	1.766902E-04	2.626812E-05
4.733423E+03	1.778716E-04	2.643450E-05
4.743326E+03	1.790542E-04	2.660087E-05
4.753228E+03	1.802364E-04	2.676697E-05
4.763131E+03	1.814197E-04	2.693306E-05
4.773033E+03	1.826028E-04	2.709890E-05
4.782936E+03	1.837857E-04	2.726452E-05
4.792838E+03	1.849685E-04	2.742992E-05
4.802741E+03	1.861531E-04	2.759539E-05
4.812644E+03	1.873378E-04	2.776067E-05
4.822546E+03	1.885227E-04	2.792577E-05
4.832449E+03	1.897062E-04	2.809045E-05
4.842351E+03	1.908919E-04	2.825524E-05
4.852254E+03	1.920778E-04	2.841986E-05
4.862156E+03	1.932641E-04	2.858430E-05
4.872059E+03	1.944484E-04	2.874825E-05
4.881961E+03	1.956325E-04	2.891193E-05
4.891864E+03	1.968139E-04	2.907500E-05
4.901767E+03	1.979922E-04	2.923739E-05
4.911669E+03	1.991687E-04	2.939930E-05
4.921572E+03	2.003412E-04	2.956039E-05
4.931474E+03	2.015094E-04	2.972060E-05
4.941377E+03	2.026708E-04	2.987959E-05
4.951279E+03	2.038268E-04	3.003755E-05
4.961182E+03	2.049768E-04	3.019440E-05
4.971085E+03	2.061182E-04	3.034975E-05
4.980987E+03	2.072502E-04	3.050348E-05
4.990890E+03	2.083717E-04	3.065543E-05
5.000792E+03	2.094798E-04	3.080518E-05
5.010695E+03	2.105755E-04	3.095286E-05
5.020597E+03	2.116576E-04	3.109831E-05
5.030500E+03	2.127211E-04	3.124077E-05
5.040402E+03	2.137668E-04	3.138041E-05
5.050305E+03	2.147940E-04	3.151709E-05
5.060208E+03	2.157996E-04	3.165037E-05
5.070110E+03	2.167831E-04	3.178016E-05
5.080013E+03	2.177438E-04	3.190639E-05
5.089915E+03	2.186813E-04	3.202898E-05
5.099818E+03	2.195930E-04	3.214757E-05
5.109720E+03	2.204809E-04	3.226244E-05
5.119623E+03	2.213403E-04	3.237292E-05
5.129525E+03	2.221728E-04	3.247923E-05
5.139428E+03	2.229756E-04	3.258098E-05
5.149331E+03	2.237480E-04	3.267806E-05
5.159233E+03	2.244889E-04	3.277034E-05
5.169136E+03	2.251974E-04	3.285767E-05
5.179038E+03	2.258678E-04	3.293922E-05
5.188941E+03	2.265029E-04	3.301542E-05
5.198843E+03	2.270988E-04	3.308570E-05
5.208746E+03	2.276535E-04	3.314978E-05
5.218648E+03	2.281625E-04	3.320700E-05
5.228551E+03	2.286229E-04	3.325698E-05
5.238454E+03	2.290322E-04	3.329934E-05
5.248356E+03	2.293881E-04	3.333374E-05
5.258259E+03	2.296881E-04	3.335986E-05
5.268161E+03	2.299278E-04	3.337706E-05
5.278064E+03	2.301101E-04	3.338577E-05
5.287966E+03	2.302291E-04	3.338516E-05
5.297869E+03	2.302836E-04	3.337506E-05
5.307772E+03	2.302777E-04	3.335608E-05
5.317674E+03	2.302065E-04	3.332752E-05
5.327577E+03	2.300745E-04	3.329005E-05
5.337479E+03	2.298794E-04	3.324335E-05
5.347382E+03	2.296237E-04	3.318779E-05
5.357284E+03	2.293053E-04	3.312310E-05
5.367187E+03	2.289296E-04	3.305006E-05
5.377089E+03	2.284951E-04	3.296847E-05
5.386992E+03	2.280050E-04	3.287881E-05
5.396895E+03	2.274565E-04	3.278068E-05
5.406797E+03	2.268534E-04	3.267466E-05
5.416700E+03	2.261954E-04	3.256071E-05
5.426602E+03	2.254825E-04	3.243884E-05
5.436505E+03	2.247194E-04	3.230974E-05
5.446407E+03	2.239040E-04	3.217315E-05
5.456310E+03	2.230372E-04	3.202918E-05
5.466212E+03	2.221221E-04	3.187829E-05
5.476115E+03	2.211573E-04	3.172031E-05
5.486018E+03	2.201483E-04	3.155605E-05
5.495920E+03	2.190919E-04	3.138503E-05
5.505823E+03	2.179957E-04	3.120838E-05
5.515725E+03	2.168609E-04	3.102628E-05
5.525628E+03	2.156886E-04	3.083889E-05
5.535530E+03	2.144820E-04	3.064669E-05
5.545433E+03	2.132443E-04	3.045015E-05
5.555335E+03	2.119766E-04	3.024941E-05
5.565238E+03	2.106859E-04	3.004552E-05
5.575141E+03	2.093707E-04	2.983824E-05
5.585043E+03	2.080376E-04	2.962853E-05
5.594946E+03	2.066848E-04	2.941615E-05
5.604848E+03	2.053187E-04	2.920201E-05
5.614751E+03	2.039415E-04	2.898641E-05
5.624653E+03	2.025528E-04	2.876934E-05
5.634556E+03	2.011568E-04	2.855137E-05
5.644459E+03	1.997549E-04	2.833272E-05
5.654361E+03	1.983510E-04	2.811393E-05
5.664264E+03	1.969464E-04	2.789519E-05
5.674166E+03	1.955404E-04	2.767641E-05
5.684069E+03	1.941384E-04	2.745835E-05
5.693971E+03	1.927417E-04	2.724120E-05
5.703874E+03	1.913495E-04	2.702486E-05
5.713776E+03	1.899651E-04	2.680977E-05
5.723679E+03	1.885917E-04	2.659641E-05
5.733582E+03	1.872305E-04	2.638491E-05
5.743484E+03	1.858805E-04	2.617516E-05
5.753387E+03	1.845451E-04	2.596764E-05
5.763289E+03	1.832277E-04	2.576279E-05
5.773192E+03	1.819294E-04	2.556080E-05
5.783094E+03	1.806496E-04	2.536156E-05
5.792997E+03	1.793917E-04	2.516554E-05
5.802899E+03	1.781569E-04	2.497292E-05
5.812802E+03	1.769487E-04	2.478418E-05
5.822705E+03	1.757689E-04	2.459955E-05
5.832607E+03	1.746169E-04	2.441896E-05
5.842510E+03	1.734964E-04	2.424290E-05
5.852412E+03	1.724070E-04	2.407131E-05
5.862315E+03	1.713558E-04	2.390520E-05
5.872217E+03	1.703383E-04	2.374389E-05
5.882120E+03	1.693575E-04	2.358781E-05
5.892022E+03	1.684161E-04	2.343733E-05
5.901925E+03	1.675131E-04	2.329226E-05
5.911828E+03	1.666488E-04	2.315269E-05
5.921730E+03	1.658258E-04	2.301893E-05
5.931633E+03	1.650426E-04	2.289076E-05
5.941535E+03	1.643012E-04	2.276846E-05
5.951438E+03	1.635980E-04	2.265152E-05
5.961340E+03	1.629370E-04	2.254045E-05
5.971243E+03	1.623143E-04	2.243473E-05
5.981146E+03	1.617338E-04	2.233486E-05
5.991048E+03	1.611894E-04	2.224001E-05
6.000951E+03	1.606848E-04	2.215066E-05
6.010853E+03	1.602180E-04	2.206652E-05
6.020756E+03	1.597886E-04	2.198752E-05
6.030658E+03	1.593923E-04	2.191308E-05
6.040561E+03	1.590326E-04	2.184365E-05
6.050463E+03	1.587034E-04	2.177837E-05
6.060366E+03	1.584079E-04	2.171768E-05
6.070269E+03	1.581398E-04	2.166070E-05
6.080171E+03	1.578984E-04	2.160734E-05
6.090074E+03	1.576813E-04	2.155724E-05
6.099976E+03	1.574877E-04	2.151028E-05
6.109879E+03	1.573109E-04	2.146556E-05
6.119781E+03	1.571501E-04	2.142295E-05
6.129684E+03	1.570024E-04	2.138205E-05
6.139586E+03	1.568669E-04	2.134273E-05
6.149489E+03	1.567426E-04	2.130484E-05
6.159392E+03	1.566325E-04	2.126880E-05
6.169294E+03	1.565415E-04	2.123527E-05
6.179197E+03	1.564709E-04	2.120441E-05
6.189099E+03	1.564239E-04	2.117664E-05
6.199002E+03	1.564036E-04	2.115239E-05
6.208904E+03	1.564116E-04	2.113183E-05
6.218807E+03	1.564512E-04	2.111543E-05
6.228709E+03	1.565240E-04	2.110336E-05
6.238612E+03	1.566315E-04	2.109584E-05
6.248515E+03	1.567775E-04	2.109335E-05
6.258417E+03	1.569618E-04	2.109584E-05
6.268320E+03	1.571882E-04	2.110382E-05
6.278222E+03	1.574546E-04	2.111696E-05
6.288125E+03	1.577627E-04	2.113550E-05
6.298027E+03	1.581126E-04	2.115942E-05
6.307930E+03	1.585064E-04	2.118899E-05
6.317833E+03	1.589418E-04	2.122387E-05
6.327735E+03	1.594188E-04	2.126405E-05
6.337638E+03	1.599351E-04	2.130921E-05
6.347540E+03	1.604861E-04	2.135869E-05
6.357443E+03	1.610692E-04	2.141217E-05
6.367345E+03	1.616843E-04	2.146960E-05
6.377248E+03	1.623313E-04	2.153094E-05
6.387150E+03	1.630101E-04	2.159616E-05
6.397053E+03	1.637228E-04	2.166555E-05
6.406956E+03	1.644722E-04	2.173942E-05
6.416858E+03	1.652581E-04	2.181777E-05
6.426761E+03	1.660782E-04	2.190025E-05
6.436663E+03	1.669376E-04	2.198753E-05
6.446566E+03	1.678366E-04	2.207961E-05
6.456468E+03	1.687728E-04	2.217617E-05
6.466371E+03	1.697490E-04	2.227754E-05
6.476273E+03	1.707655E-04	2.238376E-05
6.486176E+03	1.718199E-04	2.249449E-05
6.496079E+03	1.729125E-04	2.260973E-05
6.505981E+03	1.740490E-04	2.273022E-05
6.515884E+03	1.752215E-04	2.285490E-05
6.525786E+03	1.764359E-04	2.298451E-05
6.535689E+03	1.776925E-04	2.311909E-05
6.545591E+03	1.789860E-04	2.325791E-05
6.555494E+03	1.803226E-04	2.340174E-05
6.565396E+03	1.816965E-04	2.354984E-05
6.575299E+03	1.831143E-04	2.370301E-05
6.585202E+03	1.845701E-04	2.386048E-05
6.595104E+03	1.860673E-04	2.402266E-05
6.605007E+03	1.876063E-04	2.418958E-05
6.614909E+03	1.891843E-04	2.436085E-05
6.624812E+03	1.908015E-04	2.453647E-05
6.634714E+03	1.924614E-04	2.471688E-05
6.644617E+03	1.941613E-04	2.490169E-05
6.654520E+03	1.959013E-04	2.509090E-05
6.664422E+03	1.976817E-04	2.528453E-05
6.674325E+03	1.995031E-04	2.548261E-05
6.684227E+03	2.013658E-04	2.568516E-05
6.694130E+03	2.032701E-04	2.589221E-05
6.704032E+03	2.052128E-04	2.610332E-05
6.713935E+03	2.071980E-04	2.631897E-05
6.723837E+03	2.092259E-04	2.653918E-05
6.733740E+03	2.112933E-04	2.676349E-05
6.743643E+03	2.134045E-04	2.699244E-05
6.753545E+03	2.155556E-04	2.722551E-05
6.763448E+03	2.177472E-04	2.746274E-05
6.773350E+03	2.199795E-04	2.770413E-05
6.783253E+03	2.222527E-04	2.794969E-05
6.793155E+03	2.245716E-04	2.819998E-05
6.803058E+03	2.269278E-04	2.845392E-05
6.812960E+03	2.293260E-04	2.871209E-05
6.822863E+03	2.317665E-04	2.897447E-05
6.832766E+03	2.342453E-04	2.924056E-05
6.842668E+03	2.367669E-04	2.951088E-05
6.852571E+03	2.393320E-04	2.978548E-05
6.862473E+03	2.419359E-04	3.006377E-05
6.872376E+03	2.445791E-04	3.034577E-05
6.882278E+03	2.472663E-04	3.063203E-05
6.892181E+03	2.499932E-04	3.092200E-05
6.902083E+03	2.527596E-04	3.121562E-05
6.911986E+03	2.555657E-04	3.151289E-05
6.921889E+03	2.584115E-04	3.181379E-05
6.931791E+03	2.612920E-04	3.211767E-05
6.941694E+03	2.642173E-04	3.242574E-05
6.951596E+03	2.671774E-04	3.273674E-05
6.961499E+03	2.701769E-04	3.305122E-05
6.971401E+03	2.732109E-04	3.336855E-05
6.981304E+03	2.762789E-04	3.368863E-05
6.991207E+03	2.793861E-04	3.401210E-05
7.001109E+03	2.825274E-04	3.433827E-05
7.011012E+03	2.856961E-04	3.466634E-05
7.020914E+03	2.889038E-04	3.499767E-05
7.030817E+03	2.921440E-04	3.533147E-05
7.040719E+03	2.954110E-04	3.566698E-05
7.050622E+03	2.987098E-04	3.600484E-05
7.060524E+03	3.020340E-04	3.634422E-05
7.070427E+03	3.053891E-04	3.668577E-05
7.080330E+03	3.087685E-04	3.702868E-05
7.090232E+03	3.121778E-04	3.737359E-05
7.100135E+03	3.156035E-04	3.771887E-05
7.110037E+03	3.190513E-04	3.806519E-05
7.119940E+03	3.225270E-04	3.841322E-05
7.129842E+03	3.260167E-04	3.876128E-05
7.139745E+03	3.295191E-04	3.910921E-05
7.149647E+03	3.330403E-04	3.945773E-05
7.159550E+03	3.365795E-04	3.980671E-05
7.169453E+03	3.401287E-04	4.015521E-05
7.179355E+03	3.436942E-04	4.050395E-05
7.189258E+03	3.472673E-04	4.085190E-05
7.199160E+03	3.508469E-04	4.119893E-05
7.209063E+03	3.544395E-04	4.154577E-05
7.218965E+03	3.580356E-04	4.189134E-05
7.228868E+03	3.616415E-04	4.223633E-05
7.238770E+03	3.652479E-04	4.257966E-05
7.248673E+03	3.688525E-04	4.292107E-05
7.258576E+03	3.724697E-04	4.326224E-05
7.268478E+03	3.760818E-04	4.360109E-05
7.278381E+03	3.797030E-04	4.393926E-05
7.288283E+03	3.833238E-04	4.427567E-05
7.298186E+03	3.869513E-04	4.461112E-05
7.308088E+03	3.905931E-04	4.494649E-05
7.317991E+03	3.942398E-04	4.528067E-05
7.327894E+03	3.979085E-04	4.561565E-05
7.337796E+03	4.015995E-04	4.595143E-05
7.347699E+03	4.053223E-04	4.628909E-05
7.357601E+03	4.090775E-04	4.662867E-05
7.367504E+03	4.128659E-04	4.697024E-05
7.377406E+03	4.166978E-04	4.731497E-05
7.387309E+03	4.205554E-04	4.766078E-05
7.397211E+03	4.244391E-04	4.800774E-05
7.407114E+03	4.283400E-04	4.835480E-05
7.417017E+03	4.322687E-04	4.870316E-05
7.426919E+03	4.362159E-04	4.905176E-05
7.436822E+03	4.401723E-04	4.939953E-05
7.446724E+03	4.441380E-04	4.974650E-05
7.456627E+03	4.481136E-04	5.009273E-05
7.466529E+03	4.520889E-04	5.043708E-05
7.476432E+03	4.560755E-04	5.078083E-05
7.486334E+03	4.600527E-04	5.112170E-05
7.496237E+03	4.640435E-04	5.146224E-05
7.506140E+03	4.680383E-04	5.180139E-05
7.516042E+03	4.720389E-04	5.213935E-05
7.525945E+03	4.760347E-04	5.247496E-05
7.535847E+03	4.800377E-04	5.280953E-05
7.545750E+03	4.840481E-04	5.314311E-05
7.555652E+03	4.880660E-04	5.347570E-05
7.565555E+03	4.920776E-04	5.380580E-05
7.575457E+03	4.960931E-04	5.413452E-05
7.585360E+03	5.000983E-04	5.446032E-05
7.595263E+03	5.041143E-04	5.478549E-05
7.605165E+03	5.080999E-04	5.510558E-05
7.615068E+03	5.120888E-04	5.542425E-05
7.624970E+03	5.160646E-04	5.573974E-05
7.634873E+03	5.200095E-04	5.605013E-05
7.644775E+03	5.239318E-04	5.635635E-05
7.654678E+03	5.278265E-04	5.665789E-05
7.664581E+03	5.316883E-04	5.695419E-05
7.674483E+03	5.355120E-04	5.724474E-05
7.684386E+03	5.393054E-04	5.753040E-05
