#wls	flux	fluxerr
1.584409E+03	5.045875E-03	1.005876E-03
1.624020E+03	5.191420E-03	1.034854E-03
1.663630E+03	5.327486E-03	1.061938E-03
1.703240E+03	5.453058E-03	1.086926E-03
1.742850E+03	5.564876E-03	1.109167E-03
1.782461E+03	5.662769E-03	1.128629E-03
1.822071E+03	5.743361E-03	1.144637E-03
1.861681E+03	5.805852E-03	1.157034E-03
1.901291E+03	5.848418E-03	1.165455E-03
1.940902E+03	5.868385E-03	1.169369E-03
1.980512E+03	5.865140E-03	1.168653E-03
2.020122E+03	5.836871E-03	1.162949E-03
2.059732E+03	5.782149E-03	1.151970E-03
2.099342E+03	5.699989E-03	1.135523E-03
2.138953E+03	5.589217E-03	1.113375E-03
2.178563E+03	5.448117E-03	1.085185E-03
2.218173E+03	5.275249E-03	1.050668E-03
2.257783E+03	5.071535E-03	1.010010E-03
2.297394E+03	4.841142E-03	9.640413E-04
2.337004E+03	4.591145E-03	9.141735E-04
2.376614E+03	4.327164E-03	8.615271E-04
2.416224E+03	4.054265E-03	8.071116E-04
2.455835E+03	3.776089E-03	7.516532E-04
2.495445E+03	3.496421E-03	6.959063E-04
2.535055E+03	3.218298E-03	6.404760E-04
2.574665E+03	2.944832E-03	5.859821E-04
2.614276E+03	2.678498E-03	5.329175E-04
2.653886E+03	2.421585E-03	4.817378E-04
2.693496E+03	2.176133E-03	4.328489E-04
2.733106E+03	1.943696E-03	3.865597E-04
2.772716E+03	1.725604E-03	3.431342E-04
2.812327E+03	1.522854E-03	3.027701E-04
2.851937E+03	1.336217E-03	2.656199E-04
2.891547E+03	1.166199E-03	2.317834E-04
2.931157E+03	1.012957E-03	2.012907E-04
2.970768E+03	8.763104E-04	1.741046E-04
2.980670E+03	8.446831E-04	1.678130E-04
2.990573E+03	8.140314E-04	1.617157E-04
3.000475E+03	7.843734E-04	1.558163E-04
3.010378E+03	7.556535E-04	1.501037E-04
3.020280E+03	7.278865E-04	1.445809E-04
3.030183E+03	7.010498E-04	1.392434E-04
3.040086E+03	6.751364E-04	1.340897E-04
3.049988E+03	6.500952E-04	1.291097E-04
3.059891E+03	6.259457E-04	1.243072E-04
3.069793E+03	6.026386E-04	1.196724E-04
3.079696E+03	5.801768E-04	1.152059E-04
3.089598E+03	5.585365E-04	1.109029E-04
3.099501E+03	5.376839E-04	1.067567E-04
3.109403E+03	5.176185E-04	1.027672E-04
3.119306E+03	4.983071E-04	9.892780E-05
3.129209E+03	4.797375E-04	9.523599E-05
3.139111E+03	4.618868E-04	9.168724E-05
3.149014E+03	4.447338E-04	8.827733E-05
3.158916E+03	4.282644E-04	8.500343E-05
3.168819E+03	4.124571E-04	8.186128E-05
3.178721E+03	3.972845E-04	7.884539E-05
3.188624E+03	3.827403E-04	7.595452E-05
3.198526E+03	3.687985E-04	7.318348E-05
3.208429E+03	3.554468E-04	7.052983E-05
3.218332E+03	3.426667E-04	6.798984E-05
3.228234E+03	3.304343E-04	6.555881E-05
3.238137E+03	3.187425E-04	6.323528E-05
3.248039E+03	3.075634E-04	6.101369E-05
3.257942E+03	2.968884E-04	5.889235E-05
3.267844E+03	2.867001E-04	5.686778E-05
3.277747E+03	2.769718E-04	5.493466E-05
3.287650E+03	2.676949E-04	5.309128E-05
3.297552E+03	2.588521E-04	5.133419E-05
3.307455E+03	2.504229E-04	4.965932E-05
3.317357E+03	2.423913E-04	4.806348E-05
3.327260E+03	2.347416E-04	4.654354E-05
3.337162E+03	2.274587E-04	4.509649E-05
3.347065E+03	2.205277E-04	4.371938E-05
3.356967E+03	2.139343E-04	4.240935E-05
3.366870E+03	2.076619E-04	4.116308E-05
3.376773E+03	2.016946E-04	3.997745E-05
3.386675E+03	1.960249E-04	3.885096E-05
3.396578E+03	1.906332E-04	3.777967E-05
3.406480E+03	1.855102E-04	3.676177E-05
3.416383E+03	1.806426E-04	3.579460E-05
3.426285E+03	1.760198E-04	3.487603E-05
3.436188E+03	1.716275E-04	3.400326E-05
3.446090E+03	1.674544E-04	3.317401E-05
3.455993E+03	1.634918E-04	3.238655E-05
3.465896E+03	1.597275E-04	3.163849E-05
3.475798E+03	1.561539E-04	3.092828E-05
3.485701E+03	1.527569E-04	3.025313E-05
3.495603E+03	1.495300E-04	2.961175E-05
3.505506E+03	1.464624E-04	2.900198E-05
3.515408E+03	1.435455E-04	2.842214E-05
3.525311E+03	1.407713E-04	2.787063E-05
3.535213E+03	1.381296E-04	2.734541E-05
3.545116E+03	1.356164E-04	2.684568E-05
3.555019E+03	1.332237E-04	2.636989E-05
3.564921E+03	1.309443E-04	2.591655E-05
3.574824E+03	1.287749E-04	2.548506E-05
3.584726E+03	1.267077E-04	2.507384E-05
3.594629E+03	1.247377E-04	2.468191E-05
3.604531E+03	1.228602E-04	2.430832E-05
3.614434E+03	1.210708E-04	2.395220E-05
3.624337E+03	1.193653E-04	2.361272E-05
3.634239E+03	1.177396E-04	2.328909E-05
3.644142E+03	1.161912E-04	2.298076E-05
3.654044E+03	1.147173E-04	2.268721E-05
3.663947E+03	1.133144E-04	2.240774E-05
3.673849E+03	1.119831E-04	2.214245E-05
3.683752E+03	1.107188E-04	2.189045E-05
3.693654E+03	1.095212E-04	2.165165E-05
3.703557E+03	1.083877E-04	2.142556E-05
3.713460E+03	1.073169E-04	2.121188E-05
3.723362E+03	1.063091E-04	2.101068E-05
3.733265E+03	1.053601E-04	2.082111E-05
3.743167E+03	1.044700E-04	2.064322E-05
3.753070E+03	1.036383E-04	2.047687E-05
3.762972E+03	1.028617E-04	2.032141E-05
3.772875E+03	1.021402E-04	2.017687E-05
3.782777E+03	1.014732E-04	2.004309E-05
3.792680E+03	1.008584E-04	1.991962E-05
3.802583E+03	1.002941E-04	1.980614E-05
3.812485E+03	9.978129E-05	1.970285E-05
3.822388E+03	9.931686E-05	1.960910E-05
3.832290E+03	9.890093E-05	1.952493E-05
3.842193E+03	9.853198E-05	1.945003E-05
3.852095E+03	9.820937E-05	1.938427E-05
3.861998E+03	9.793245E-05	1.932753E-05
3.871900E+03	9.769901E-05	1.927936E-05
3.881803E+03	9.750841E-05	1.923964E-05
3.891706E+03	9.736088E-05	1.920841E-05
3.901608E+03	9.725502E-05	1.918538E-05
3.911511E+03	9.718952E-05	1.917030E-05
3.921413E+03	9.716379E-05	1.916306E-05
3.931316E+03	9.717659E-05	1.916339E-05
3.941218E+03	9.722733E-05	1.917118E-05
3.951121E+03	9.731555E-05	1.918634E-05
3.961024E+03	9.744079E-05	1.920878E-05
3.970926E+03	9.760105E-05	1.923809E-05
3.980829E+03	9.779593E-05	1.927420E-05
3.990731E+03	9.802507E-05	1.931704E-05
4.000634E+03	9.828810E-05	1.936652E-05
4.010536E+03	9.858390E-05	1.942242E-05
4.020439E+03	9.891149E-05	1.948456E-05
4.030341E+03	9.927061E-05	1.955286E-05
4.040244E+03	9.966021E-05	1.962714E-05
4.050147E+03	1.000801E-04	1.970733E-05
4.060049E+03	1.005292E-04	1.979325E-05
4.069952E+03	1.010075E-04	1.988486E-05
4.079854E+03	1.015139E-04	1.998196E-05
4.089757E+03	1.020475E-04	2.008436E-05
4.099659E+03	1.026081E-04	2.019202E-05
4.109562E+03	1.031948E-04	2.030477E-05
4.119464E+03	1.038074E-04	2.042256E-05
4.129367E+03	1.044442E-04	2.054507E-05
4.139270E+03	1.051052E-04	2.067228E-05
4.149172E+03	1.057887E-04	2.080384E-05
4.159075E+03	1.064955E-04	2.093993E-05
4.168977E+03	1.072238E-04	2.108018E-05
4.178880E+03	1.079737E-04	2.122461E-05
4.188782E+03	1.087426E-04	2.137271E-05
4.198685E+03	1.095312E-04	2.152463E-05
4.208587E+03	1.103372E-04	2.167987E-05
4.218490E+03	1.111611E-04	2.183858E-05
4.228393E+03	1.120004E-04	2.200023E-05
4.238295E+03	1.128532E-04	2.216447E-05
4.248198E+03	1.137204E-04	2.233146E-05
4.258100E+03	1.145984E-04	2.250048E-05
4.268003E+03	1.154880E-04	2.267170E-05
4.277905E+03	1.163855E-04	2.284439E-05
4.287808E+03	1.172919E-04	2.301874E-05
4.297711E+03	1.182052E-04	2.319437E-05
4.307613E+03	1.191236E-04	2.337091E-05
4.317516E+03	1.200470E-04	2.354834E-05
4.327418E+03	1.209745E-04	2.372650E-05
4.337321E+03	1.219070E-04	2.390555E-05
4.347223E+03	1.228426E-04	2.408512E-05
4.357126E+03	1.237833E-04	2.426559E-05
4.367028E+03	1.247291E-04	2.444697E-05
4.376931E+03	1.256801E-04	2.462929E-05
4.386834E+03	1.266365E-04	2.481255E-05
4.396736E+03	1.275994E-04	2.499701E-05
4.406639E+03	1.285680E-04	2.518248E-05
4.416541E+03	1.295436E-04	2.536923E-05
4.426444E+03	1.305265E-04	2.555729E-05
4.436346E+03	1.315170E-04	2.574674E-05
4.446249E+03	1.325142E-04	2.593742E-05
4.456151E+03	1.335186E-04	2.612938E-05
4.466054E+03	1.345292E-04	2.632247E-05
4.475957E+03	1.355476E-04	2.651695E-05
4.485859E+03	1.365716E-04	2.671245E-05
4.495762E+03	1.376017E-04	2.690901E-05
4.505664E+03	1.386379E-04	2.710667E-05
4.515567E+03	1.396783E-04	2.730502E-05
4.525469E+03	1.407244E-04	2.750436E-05
4.535372E+03	1.417739E-04	2.770427E-05
4.545274E+03	1.428273E-04	2.790481E-05
4.555177E+03	1.438824E-04	2.810558E-05
4.565080E+03	1.449409E-04	2.830688E-05
4.574982E+03	1.460022E-04	2.850859E-05
4.584885E+03	1.470640E-04	2.871031E-05
4.594787E+03	1.481272E-04	2.891215E-05
4.604690E+03	1.491923E-04	2.911424E-05
4.614592E+03	1.502587E-04	2.931646E-05
4.624495E+03	1.513246E-04	2.951845E-05
4.634398E+03	1.523934E-04	2.972089E-05
4.644300E+03	1.534662E-04	2.992397E-05
4.654203E+03	1.545412E-04	3.012735E-05
4.664105E+03	1.556196E-04	3.033125E-05
4.674008E+03	1.567024E-04	3.053588E-05
4.683910E+03	1.577868E-04	3.074067E-05
4.693813E+03	1.588739E-04	3.094586E-05
4.703715E+03	1.599622E-04	3.115113E-05
4.713618E+03	1.610530E-04	3.135676E-05
4.723521E+03	1.621463E-04	3.156272E-05
4.733423E+03	1.632405E-04	3.176873E-05
4.743326E+03	1.643373E-04	3.197507E-05
4.753228E+03	1.654351E-04	3.218147E-05
4.763131E+03	1.665355E-04	3.238824E-05
4.773033E+03	1.676372E-04	3.259508E-05
4.782936E+03	1.687401E-04	3.280204E-05
4.792838E+03	1.698445E-04	3.300912E-05
4.802741E+03	1.709522E-04	3.321667E-05
4.812644E+03	1.720615E-04	3.342439E-05
4.822546E+03	1.731727E-04	3.363231E-05
4.832449E+03	1.742842E-04	3.384013E-05
4.842351E+03	1.753993E-04	3.404849E-05
4.852254E+03	1.765164E-04	3.425708E-05
4.862156E+03	1.776355E-04	3.446588E-05
4.872059E+03	1.787548E-04	3.467456E-05
4.881961E+03	1.798758E-04	3.488339E-05
4.891864E+03	1.809965E-04	3.509200E-05
4.901767E+03	1.821168E-04	3.530036E-05
4.911669E+03	1.832381E-04	3.550873E-05
4.921572E+03	1.843583E-04	3.571672E-05
4.931474E+03	1.854771E-04	3.592427E-05
4.941377E+03	1.865924E-04	3.613095E-05
4.951279E+03	1.877055E-04	3.633703E-05
4.961182E+03	1.888159E-04	3.654241E-05
4.971085E+03	1.899214E-04	3.674665E-05
4.980987E+03	1.910212E-04	3.694961E-05
4.990890E+03	1.921148E-04	3.715118E-05
5.000792E+03	1.931995E-04	3.735086E-05
5.010695E+03	1.942765E-04	3.754884E-05
5.020597E+03	1.953450E-04	3.774500E-05
5.030500E+03	1.964004E-04	3.793846E-05
5.040402E+03	1.974440E-04	3.812944E-05
5.050305E+03	1.984751E-04	3.831781E-05
5.060208E+03	1.994910E-04	3.850307E-05
5.070110E+03	2.004913E-04	3.868513E-05
5.080013E+03	2.014754E-04	3.886387E-05
5.089915E+03	2.024428E-04	3.903921E-05
5.099818E+03	2.033912E-04	3.921068E-05
5.109720E+03	2.043220E-04	3.937859E-05
5.119623E+03	2.052308E-04	3.954208E-05
5.129525E+03	2.061191E-04	3.970141E-05
5.139428E+03	2.069841E-04	3.985609E-05
5.149331E+03	2.078250E-04	4.000595E-05
5.159233E+03	2.086410E-04	4.015081E-05
5.169136E+03	2.094309E-04	4.029049E-05
5.179038E+03	2.101894E-04	4.042395E-05
5.188941E+03	2.109191E-04	4.055168E-05
5.198843E+03	2.116163E-04	4.067300E-05
5.208746E+03	2.122792E-04	4.078755E-05
5.218648E+03	2.129037E-04	4.089456E-05
5.228551E+03	2.134876E-04	4.099361E-05
5.238454E+03	2.140290E-04	4.108433E-05
5.248356E+03	2.145256E-04	4.116630E-05
5.258259E+03	2.149753E-04	4.123913E-05
5.268161E+03	2.153743E-04	4.130208E-05
5.278064E+03	2.157251E-04	4.135564E-05
5.287966E+03	2.160220E-04	4.139872E-05
5.297869E+03	2.162636E-04	4.143110E-05
5.307772E+03	2.164533E-04	4.145341E-05
5.317674E+03	2.165861E-04	4.146470E-05
5.327577E+03	2.166657E-04	4.146568E-05
5.337479E+03	2.166895E-04	4.145591E-05
5.347382E+03	2.166597E-04	4.143577E-05
5.357284E+03	2.165740E-04	4.140485E-05
5.367187E+03	2.164370E-04	4.136404E-05
5.377089E+03	2.162470E-04	4.131303E-05
5.386992E+03	2.160069E-04	4.125236E-05
5.396895E+03	2.157131E-04	4.118139E-05
5.406797E+03	2.153691E-04	4.110077E-05
5.416700E+03	2.149739E-04	4.101033E-05
5.426602E+03	2.145269E-04	4.090998E-05
5.436505E+03	2.140321E-04	4.080048E-05
5.446407E+03	2.134871E-04	4.068138E-05
5.456310E+03	2.128919E-04	4.055269E-05
5.466212E+03	2.122488E-04	4.041486E-05
5.476115E+03	2.115558E-04	4.026754E-05
5.486018E+03	2.108177E-04	4.011163E-05
5.495920E+03	2.100306E-04	3.994640E-05
5.505823E+03	2.092012E-04	3.977317E-05
5.515725E+03	2.083303E-04	3.959205E-05
5.525628E+03	2.074182E-04	3.940314E-05
5.535530E+03	2.064676E-04	3.920695E-05
5.545433E+03	2.054810E-04	3.900396E-05
5.555335E+03	2.044587E-04	3.879426E-05
5.565238E+03	2.034073E-04	3.857910E-05
5.575141E+03	2.023249E-04	3.835813E-05
5.585043E+03	2.012178E-04	3.813253E-05
5.594946E+03	2.000839E-04	3.790193E-05
5.604848E+03	1.989292E-04	3.766746E-05
5.614751E+03	1.977556E-04	3.742950E-05
5.624653E+03	1.965626E-04	3.718797E-05
5.634556E+03	1.953541E-04	3.694358E-05
5.644459E+03	1.941315E-04	3.669663E-05
5.654361E+03	1.928983E-04	3.644779E-05
5.664264E+03	1.916560E-04	3.619732E-05
5.674166E+03	1.904039E-04	3.594511E-05
5.684069E+03	1.891474E-04	3.569216E-05
5.693971E+03	1.878876E-04	3.543873E-05
5.703874E+03	1.866240E-04	3.518468E-05
5.713776E+03	1.853598E-04	3.493063E-05
5.723679E+03	1.840983E-04	3.467720E-05
5.733582E+03	1.828408E-04	3.442465E-05
5.743484E+03	1.815866E-04	3.417284E-05
5.753387E+03	1.803391E-04	3.392240E-05
5.763289E+03	1.791016E-04	3.367397E-05
5.773192E+03	1.778756E-04	3.342782E-05
5.783094E+03	1.766606E-04	3.318385E-05
5.792997E+03	1.754600E-04	3.294272E-05
5.802899E+03	1.742755E-04	3.270472E-05
5.812802E+03	1.731105E-04	3.247050E-05
5.822705E+03	1.719667E-04	3.224036E-05
5.832607E+03	1.708438E-04	3.201426E-05
5.842510E+03	1.697453E-04	3.179283E-05
5.852412E+03	1.686708E-04	3.157602E-05
5.862315E+03	1.676276E-04	3.136515E-05
5.872217E+03	1.666112E-04	3.115940E-05
5.882120E+03	1.656248E-04	3.095937E-05
5.892022E+03	1.646715E-04	3.076559E-05
5.901925E+03	1.637502E-04	3.057790E-05
5.911828E+03	1.628619E-04	3.039644E-05
5.921730E+03	1.620092E-04	3.022170E-05
5.931633E+03	1.611909E-04	3.005344E-05
5.941535E+03	1.604093E-04	2.989209E-05
5.951438E+03	1.596612E-04	2.973705E-05
5.961340E+03	1.589507E-04	2.958905E-05
5.971243E+03	1.582743E-04	2.944745E-05
5.981146E+03	1.576359E-04	2.931297E-05
5.991048E+03	1.570301E-04	2.918457E-05
6.000951E+03	1.564607E-04	2.906297E-05
6.010853E+03	1.559258E-04	2.894780E-05
6.020756E+03	1.554254E-04	2.883904E-05
6.030658E+03	1.549556E-04	2.873597E-05
6.040561E+03	1.545199E-04	2.863924E-05
6.050463E+03	1.541127E-04	2.854776E-05
6.060366E+03	1.537372E-04	2.846217E-05
6.070269E+03	1.533877E-04	2.838136E-05
6.080171E+03	1.530637E-04	2.830525E-05
6.090074E+03	1.527628E-04	2.823341E-05
6.099976E+03	1.524847E-04	2.816573E-05
6.109879E+03	1.522231E-04	2.810106E-05
6.119781E+03	1.519773E-04	2.803929E-05
6.129684E+03	1.517448E-04	2.797993E-05
6.139586E+03	1.515248E-04	2.792283E-05
6.149489E+03	1.513166E-04	2.786785E-05
6.159392E+03	1.511231E-04	2.781555E-05
6.169294E+03	1.509495E-04	2.776684E-05
6.179197E+03	1.507969E-04	2.772195E-05
6.189099E+03	1.506685E-04	2.768145E-05
6.199002E+03	1.505676E-04	2.764595E-05
6.208904E+03	1.504956E-04	2.761567E-05
6.218807E+03	1.504560E-04	2.759125E-05
6.228709E+03	1.504501E-04	2.757293E-05
6.238612E+03	1.504797E-04	2.756102E-05
6.248515E+03	1.505484E-04	2.755616E-05
6.258417E+03	1.506558E-04	2.755829E-05
6.268320E+03	1.508060E-04	2.756811E-05
6.278222E+03	1.509966E-04	2.758518E-05
6.288125E+03	1.512295E-04	2.760986E-05
6.298027E+03	1.515047E-04	2.764209E-05
6.307930E+03	1.518243E-04	2.768225E-05
6.317833E+03	1.521861E-04	2.772993E-05
6.327735E+03	1.525900E-04	2.778511E-05
6.337638E+03	1.530339E-04	2.784738E-05
6.347540E+03	1.535134E-04	2.791590E-05
6.357443E+03	1.540261E-04	2.799024E-05
6.367345E+03	1.545717E-04	2.807036E-05
6.377248E+03	1.551503E-04	2.815621E-05
6.387150E+03	1.557616E-04	2.824775E-05
6.397053E+03	1.564079E-04	2.834540E-05
6.406956E+03	1.570915E-04	2.844954E-05
6.416858E+03	1.578125E-04	2.856017E-05
6.426761E+03	1.585685E-04	2.867687E-05
6.436663E+03	1.593646E-04	2.880051E-05
6.446566E+03	1.602008E-04	2.893109E-05
6.456468E+03	1.610750E-04	2.906821E-05
6.466371E+03	1.619898E-04	2.921233E-05
6.476273E+03	1.629454E-04	2.936347E-05
6.486176E+03	1.639397E-04	2.952122E-05
6.496079E+03	1.649728E-04	2.968559E-05
6.505981E+03	1.660502E-04	2.985756E-05
6.515884E+03	1.671644E-04	3.003575E-05
6.525786E+03	1.683210E-04	3.022114E-05
6.535689E+03	1.695203E-04	3.041379E-05
6.545591E+03	1.707572E-04	3.061276E-05
6.555494E+03	1.720376E-04	3.081907E-05
6.565396E+03	1.733562E-04	3.103176E-05
6.575299E+03	1.747189E-04	3.125189E-05
6.585202E+03	1.761204E-04	3.147847E-05
6.595104E+03	1.775640E-04	3.171206E-05
6.605007E+03	1.790499E-04	3.195270E-05
6.614909E+03	1.805755E-04	3.219991E-05
6.624812E+03	1.821412E-04	3.245371E-05
6.634714E+03	1.837503E-04	3.271469E-05
6.644617E+03	1.854001E-04	3.298235E-05
6.654520E+03	1.870908E-04	3.325673E-05
6.664422E+03	1.888230E-04	3.353786E-05
6.674325E+03	1.905970E-04	3.382580E-05
6.684227E+03	1.924131E-04	3.412058E-05
6.694130E+03	1.942717E-04	3.442227E-05
6.704032E+03	1.961698E-04	3.473030E-05
6.713935E+03	1.981113E-04	3.504533E-05
6.723837E+03	2.000965E-04	3.536740E-05
6.733740E+03	2.021223E-04	3.569595E-05
6.743643E+03	2.041927E-04	3.603165E-05
6.753545E+03	2.063044E-04	3.637390E-05
6.763448E+03	2.084577E-04	3.672275E-05
6.773350E+03	2.106530E-04	3.707823E-05
6.783253E+03	2.128907E-04	3.744036E-05
6.793155E+03	2.151749E-04	3.780990E-05
6.803058E+03	2.174982E-04	3.818549E-05
6.812960E+03	2.198650E-04	3.856787E-05
6.822863E+03	2.222755E-04	3.895707E-05
6.832766E+03	2.247259E-04	3.935241E-05
6.842668E+03	2.272207E-04	3.975464E-05
6.852571E+03	2.297603E-04	4.016381E-05
6.862473E+03	2.323407E-04	4.057920E-05
6.872376E+03	2.349621E-04	4.100080E-05
6.882278E+03	2.376291E-04	4.142942E-05
6.892181E+03	2.403375E-04	4.186431E-05
6.902083E+03	2.430875E-04	4.230544E-05
6.911986E+03	2.458791E-04	4.275282E-05
6.921889E+03	2.487125E-04	4.320646E-05
6.931791E+03	2.515831E-04	4.366550E-05
6.941694E+03	2.545004E-04	4.413163E-05
6.951596E+03	2.574547E-04	4.460309E-05
6.961499E+03	2.604509E-04	4.508075E-05
6.971401E+03	2.634838E-04	4.556364E-05
6.981304E+03	2.665536E-04	4.605181E-05
6.991207E+03	2.696649E-04	4.654604E-05
7.001109E+03	2.728127E-04	4.704539E-05
7.011012E+03	2.759910E-04	4.754885E-05
7.020914E+03	2.792106E-04	4.805827E-05
7.030817E+03	2.824661E-04	4.857265E-05
7.040719E+03	2.857507E-04	4.909084E-05
7.050622E+03	2.890702E-04	4.961382E-05
7.060524E+03	2.924180E-04	5.014041E-05
7.070427E+03	2.957997E-04	5.067157E-05
7.080330E+03	2.992089E-04	5.120617E-05
7.090232E+03	3.026507E-04	5.174510E-05
7.100135E+03	3.061125E-04	5.228616E-05
7.110037E+03	3.095993E-04	5.283019E-05
7.119940E+03	3.131172E-04	5.337822E-05
7.129842E+03	3.166522E-04	5.392784E-05
7.139745E+03	3.202036E-04	5.447894E-05
7.149647E+03	3.237765E-04	5.503236E-05
7.159550E+03	3.273706E-04	5.558805E-05
7.169453E+03	3.309778E-04	5.614460E-05
7.179355E+03	3.346037E-04	5.670296E-05
7.189258E+03	3.382405E-04	5.726180E-05
7.199160E+03	3.418864E-04	5.782082E-05
7.209063E+03	3.455475E-04	5.838104E-05
7.218965E+03	3.492151E-04	5.894096E-05
7.228868E+03	3.528948E-04	5.950154E-05
7.238770E+03	3.565773E-04	6.006119E-05
7.248673E+03	3.602609E-04	6.061965E-05
7.258576E+03	3.639597E-04	6.117926E-05
7.268478E+03	3.676562E-04	6.173708E-05
7.278381E+03	3.713644E-04	6.229548E-05
7.288283E+03	3.750749E-04	6.285284E-05
7.298186E+03	3.787950E-04	6.341041E-05
7.308088E+03	3.825315E-04	6.396933E-05
7.317991E+03	3.862757E-04	6.452809E-05
7.327894E+03	3.900438E-04	6.508945E-05
7.337796E+03	3.938362E-04	6.565344E-05
7.347699E+03	3.976616E-04	6.622147E-05
7.357601E+03	4.015205E-04	6.679364E-05
7.367504E+03	4.054139E-04	6.737009E-05
7.377406E+03	4.093518E-04	6.795246E-05
7.387309E+03	4.133159E-04	6.853771E-05
7.397211E+03	4.173070E-04	6.912595E-05
7.407114E+03	4.213159E-04	6.971563E-05
7.417017E+03	4.253531E-04	7.030850E-05
7.426919E+03	4.294090E-04	7.090294E-05
7.436822E+03	4.334743E-04	7.149744E-05
7.446724E+03	4.375489E-04	7.209195E-05
7.456627E+03	4.416336E-04	7.268663E-05
7.466529E+03	4.457182E-04	7.327978E-05
7.476432E+03	4.498141E-04	7.387327E-05
7.486334E+03	4.539002E-04	7.446367E-05
7.496237E+03	4.579986E-04	7.505457E-05
7.506140E+03	4.620993E-04	7.564438E-05
7.516042E+03	4.662033E-04	7.623321E-05
7.525945E+03	4.702987E-04	7.681917E-05
7.535847E+03	4.743974E-04	7.740419E-05
7.545750E+03	4.784988E-04	7.798817E-05
7.555652E+03	4.826024E-04	7.857104E-05
7.565555E+03	4.866949E-04	7.915064E-05
7.575457E+03	4.907860E-04	7.972857E-05
7.585360E+03	4.948617E-04	8.030255E-05
7.595263E+03	4.989431E-04	8.087603E-05
7.605165E+03	5.029902E-04	8.144251E-05
7.615068E+03	5.070365E-04	8.200744E-05
7.624970E+03	5.110656E-04	8.256819E-05
7.634873E+03	5.150602E-04	8.312198E-05
7.644775E+03	5.190284E-04	8.367014E-05
7.654678E+03	5.229655E-04	8.421192E-05
7.664581E+03	5.268663E-04	8.474653E-05
7.674483E+03	5.307257E-04	8.527316E-05
7.684386E+03	5.345518E-04	8.579314E-05
