#wls	flux	fluxerr
1.584409E+03	4.874789E-03	1.345767E-03
1.624020E+03	5.038048E-03	1.390819E-03
1.663630E+03	5.195160E-03	1.434172E-03
1.703240E+03	5.344728E-03	1.475441E-03
1.742850E+03	5.484671E-03	1.514051E-03
1.782461E+03	5.613279E-03	1.549531E-03
1.822071E+03	5.728196E-03	1.581230E-03
1.861681E+03	5.828004E-03	1.608757E-03
1.901291E+03	5.910677E-03	1.631552E-03
1.940902E+03	5.973672E-03	1.648914E-03
1.980512E+03	6.015456E-03	1.660420E-03
2.020122E+03	6.033627E-03	1.665407E-03
2.059732E+03	6.026014E-03	1.663277E-03
2.099342E+03	5.991581E-03	1.653743E-03
2.138953E+03	5.927593E-03	1.636052E-03
2.178563E+03	5.832077E-03	1.609658E-03
2.218173E+03	5.702881E-03	1.573969E-03
2.257783E+03	5.536849E-03	1.528115E-03
2.297394E+03	5.339559E-03	1.473635E-03
2.337004E+03	5.116852E-03	1.412141E-03
2.376614E+03	4.873284E-03	1.344893E-03
2.416224E+03	4.612707E-03	1.272953E-03
2.455835E+03	4.338883E-03	1.197359E-03
2.495445E+03	4.055291E-03	1.119073E-03
2.535055E+03	3.765084E-03	1.038965E-03
2.574665E+03	3.471647E-03	9.579683E-04
2.614276E+03	3.178233E-03	8.769816E-04
2.653886E+03	2.887969E-03	7.968674E-04
2.693496E+03	2.603863E-03	7.184559E-04
2.733106E+03	2.328920E-03	6.425765E-04
2.772716E+03	2.065592E-03	5.699056E-04
2.812327E+03	1.816220E-03	5.010886E-04
2.851937E+03	1.583020E-03	4.367368E-04
2.891547E+03	1.367849E-03	3.773624E-04
2.931157E+03	1.172202E-03	3.233774E-04
2.970768E+03	9.969235E-04	2.750143E-04
2.980670E+03	9.563070E-04	2.638076E-04
2.990573E+03	9.169666E-04	2.529531E-04
3.000475E+03	8.789090E-04	2.424526E-04
3.010378E+03	8.421173E-04	2.323015E-04
3.020280E+03	8.065733E-04	2.224947E-04
3.030183E+03	7.722756E-04	2.130319E-04
3.040086E+03	7.391866E-04	2.039026E-04
3.049988E+03	7.073161E-04	1.951096E-04
3.059891E+03	6.766248E-04	1.866420E-04
3.069793E+03	6.471020E-04	1.784968E-04
3.079696E+03	6.187221E-04	1.706670E-04
3.089598E+03	5.914701E-04	1.631485E-04
3.099501E+03	5.653171E-04	1.559332E-04
3.109403E+03	5.402348E-04	1.490134E-04
3.119306E+03	5.162038E-04	1.423837E-04
3.129209E+03	4.931842E-04	1.360330E-04
3.139111E+03	4.711645E-04	1.299583E-04
3.149014E+03	4.501044E-04	1.241483E-04
3.158916E+03	4.299810E-04	1.185968E-04
3.168819E+03	4.107633E-04	1.132952E-04
3.178721E+03	3.924201E-04	1.082348E-04
3.188624E+03	3.749272E-04	1.034091E-04
3.198526E+03	3.582526E-04	9.880918E-05
3.208429E+03	3.423600E-04	9.442498E-05
3.218332E+03	3.272359E-04	9.025283E-05
3.228234E+03	3.128338E-04	8.627987E-05
3.238137E+03	2.991394E-04	8.250216E-05
3.248039E+03	2.861138E-04	7.890899E-05
3.257942E+03	2.737333E-04	7.549379E-05
3.267844E+03	2.619741E-04	7.224998E-05
3.277747E+03	2.508011E-04	6.916790E-05
3.287650E+03	2.401957E-04	6.624243E-05
3.297552E+03	2.301320E-04	6.346640E-05
3.307455E+03	2.205818E-04	6.083202E-05
3.317357E+03	2.115214E-04	5.833276E-05
3.327260E+03	2.029279E-04	5.596231E-05
3.337162E+03	1.947820E-04	5.371535E-05
3.347065E+03	1.870571E-04	5.158451E-05
3.356967E+03	1.797378E-04	4.956560E-05
3.366870E+03	1.727999E-04	4.765187E-05
3.376773E+03	1.662250E-04	4.583827E-05
3.386675E+03	1.599973E-04	4.412048E-05
3.396578E+03	1.540941E-04	4.249217E-05
3.406480E+03	1.485032E-04	4.095004E-05
3.416383E+03	1.432077E-04	3.948937E-05
3.426285E+03	1.381879E-04	3.810477E-05
3.436188E+03	1.334339E-04	3.679349E-05
3.446090E+03	1.289283E-04	3.555071E-05
3.455993E+03	1.246591E-04	3.437315E-05
3.465896E+03	1.206137E-04	3.325733E-05
3.475798E+03	1.167763E-04	3.219889E-05
3.485701E+03	1.131376E-04	3.119523E-05
3.495603E+03	1.096848E-04	3.024285E-05
3.505506E+03	1.064063E-04	2.933857E-05
3.515408E+03	1.032924E-04	2.847969E-05
3.525311E+03	1.003321E-04	2.766316E-05
3.535213E+03	9.751611E-05	2.688645E-05
3.545116E+03	9.483492E-05	2.614691E-05
3.555019E+03	9.228155E-05	2.544263E-05
3.564921E+03	8.984859E-05	2.477156E-05
3.574824E+03	8.752821E-05	2.413155E-05
3.584726E+03	8.531479E-05	2.352103E-05
3.594629E+03	8.320297E-05	2.293854E-05
3.604531E+03	8.118615E-05	2.238225E-05
3.614434E+03	7.926181E-05	2.185147E-05
3.624337E+03	7.742384E-05	2.134451E-05
3.634239E+03	7.566924E-05	2.086055E-05
3.644142E+03	7.399439E-05	2.039858E-05
3.654044E+03	7.239574E-05	1.995762E-05
3.663947E+03	7.087052E-05	1.953692E-05
3.673849E+03	6.941657E-05	1.913587E-05
3.683752E+03	6.802942E-05	1.875325E-05
3.693654E+03	6.670823E-05	1.838882E-05
3.703557E+03	6.544928E-05	1.804155E-05
3.713460E+03	6.425062E-05	1.771091E-05
3.723362E+03	6.311039E-05	1.739638E-05
3.733265E+03	6.202512E-05	1.709700E-05
3.743167E+03	6.099411E-05	1.681259E-05
3.753070E+03	6.001455E-05	1.654237E-05
3.762972E+03	5.908481E-05	1.628589E-05
3.772875E+03	5.820273E-05	1.604255E-05
3.782777E+03	5.736680E-05	1.581193E-05
3.792680E+03	5.657501E-05	1.559348E-05
3.802583E+03	5.582590E-05	1.538681E-05
3.812485E+03	5.511765E-05	1.519139E-05
3.822388E+03	5.444933E-05	1.500699E-05
3.832290E+03	5.381922E-05	1.483312E-05
3.842193E+03	5.322563E-05	1.466932E-05
3.852095E+03	5.266742E-05	1.451528E-05
3.861998E+03	5.214301E-05	1.437055E-05
3.871900E+03	5.165177E-05	1.423497E-05
3.881803E+03	5.119219E-05	1.410811E-05
3.891706E+03	5.076335E-05	1.398973E-05
3.901608E+03	5.036387E-05	1.387945E-05
3.911511E+03	4.999245E-05	1.377689E-05
3.921413E+03	4.964905E-05	1.368206E-05
3.931316E+03	4.933171E-05	1.359442E-05
3.941218E+03	4.903997E-05	1.351383E-05
3.951121E+03	4.877273E-05	1.343999E-05
3.961024E+03	4.852933E-05	1.337272E-05
3.970926E+03	4.830906E-05	1.331183E-05
3.980829E+03	4.811057E-05	1.325694E-05
3.990731E+03	4.793360E-05	1.320798E-05
4.000634E+03	4.777722E-05	1.316469E-05
4.010536E+03	4.764087E-05	1.312692E-05
4.020439E+03	4.752370E-05	1.309444E-05
4.030341E+03	4.742481E-05	1.306699E-05
4.040244E+03	4.734417E-05	1.304457E-05
4.050147E+03	4.728052E-05	1.302683E-05
4.060049E+03	4.723353E-05	1.301368E-05
4.069952E+03	4.720277E-05	1.300501E-05
4.079854E+03	4.718716E-05	1.300050E-05
4.089757E+03	4.718671E-05	1.300017E-05
4.099659E+03	4.720037E-05	1.300373E-05
4.109562E+03	4.722784E-05	1.301109E-05
4.119464E+03	4.726880E-05	1.302216E-05
4.129367E+03	4.732228E-05	1.303669E-05
4.139270E+03	4.738839E-05	1.305468E-05
4.149172E+03	4.746576E-05	1.307579E-05
4.159075E+03	4.755495E-05	1.310014E-05
4.168977E+03	4.765464E-05	1.312738E-05
4.178880E+03	4.776461E-05	1.315746E-05
4.188782E+03	4.788437E-05	1.319023E-05
4.198685E+03	4.801367E-05	1.322562E-05
4.208587E+03	4.815128E-05	1.326330E-05
4.218490E+03	4.829742E-05	1.330333E-05
4.228393E+03	4.845122E-05	1.334546E-05
4.238295E+03	4.861178E-05	1.338946E-05
4.248198E+03	4.877896E-05	1.343527E-05
4.258100E+03	4.895227E-05	1.348277E-05
4.268003E+03	4.913043E-05	1.353161E-05
4.277905E+03	4.931300E-05	1.358165E-05
4.287808E+03	4.949943E-05	1.363275E-05
4.297711E+03	4.968924E-05	1.368479E-05
4.307613E+03	4.988191E-05	1.373760E-05
4.317516E+03	5.007739E-05	1.379119E-05
4.327418E+03	5.027515E-05	1.384540E-05
4.337321E+03	5.047474E-05	1.390011E-05
4.347223E+03	5.067691E-05	1.395553E-05
4.357126E+03	5.088118E-05	1.401152E-05
4.367028E+03	5.108756E-05	1.406809E-05
4.376931E+03	5.129642E-05	1.412534E-05
4.386834E+03	5.150777E-05	1.418328E-05
4.396736E+03	5.172129E-05	1.424180E-05
4.406639E+03	5.193738E-05	1.430103E-05
4.416541E+03	5.215576E-05	1.436089E-05
4.426444E+03	5.237650E-05	1.442139E-05
4.436346E+03	5.259971E-05	1.448257E-05
4.446249E+03	5.282469E-05	1.454423E-05
4.456151E+03	5.305201E-05	1.460653E-05
4.466054E+03	5.328144E-05	1.466941E-05
4.475957E+03	5.351276E-05	1.473280E-05
4.485859E+03	5.374618E-05	1.479677E-05
4.495762E+03	5.398107E-05	1.486114E-05
4.505664E+03	5.421768E-05	1.492598E-05
4.515567E+03	5.445633E-05	1.499138E-05
4.525469E+03	5.469688E-05	1.505729E-05
4.535372E+03	5.493875E-05	1.512356E-05
4.545274E+03	5.518230E-05	1.519030E-05
4.555177E+03	5.542745E-05	1.525746E-05
4.565080E+03	5.567417E-05	1.532506E-05
4.574982E+03	5.592284E-05	1.539318E-05
4.584885E+03	5.617298E-05	1.546171E-05
4.594787E+03	5.642505E-05	1.553076E-05
4.604690E+03	5.667908E-05	1.560035E-05
4.614592E+03	5.693512E-05	1.567048E-05
4.624495E+03	5.719314E-05	1.574116E-05
4.634398E+03	5.745324E-05	1.581240E-05
4.644300E+03	5.771547E-05	1.588423E-05
4.654203E+03	5.798098E-05	1.595695E-05
4.664105E+03	5.824981E-05	1.603058E-05
4.674008E+03	5.852216E-05	1.610517E-05
4.683910E+03	5.879915E-05	1.618104E-05
4.693813E+03	5.908050E-05	1.625809E-05
4.703715E+03	5.936634E-05	1.633638E-05
4.713618E+03	5.965741E-05	1.641610E-05
4.723521E+03	5.995393E-05	1.649732E-05
4.733423E+03	6.025554E-05	1.657993E-05
4.743326E+03	6.056304E-05	1.666415E-05
4.753228E+03	6.087668E-05	1.675006E-05
4.763131E+03	6.119611E-05	1.683756E-05
4.773033E+03	6.152220E-05	1.692688E-05
4.782936E+03	6.185515E-05	1.701808E-05
4.792838E+03	6.219529E-05	1.711125E-05
4.802741E+03	6.254287E-05	1.720647E-05
4.812644E+03	6.289759E-05	1.730364E-05
4.822546E+03	6.326094E-05	1.740317E-05
4.832449E+03	6.363206E-05	1.750484E-05
4.842351E+03	6.401121E-05	1.760871E-05
4.852254E+03	6.439926E-05	1.771502E-05
4.862156E+03	6.479661E-05	1.782388E-05
4.872059E+03	6.520349E-05	1.793535E-05
4.881961E+03	6.561904E-05	1.804920E-05
4.891864E+03	6.604478E-05	1.816584E-05
4.901767E+03	6.648042E-05	1.828520E-05
4.911669E+03	6.692624E-05	1.840735E-05
4.921572E+03	6.738254E-05	1.853237E-05
4.931474E+03	6.784965E-05	1.866036E-05
4.941377E+03	6.832720E-05	1.879121E-05
4.951279E+03	6.881549E-05	1.892500E-05
4.961182E+03	6.931544E-05	1.906198E-05
4.971085E+03	6.982666E-05	1.920206E-05
4.980987E+03	7.034874E-05	1.934512E-05
4.990890E+03	7.088333E-05	1.949160E-05
5.000792E+03	7.142859E-05	1.964100E-05
5.010695E+03	7.198612E-05	1.979377E-05
5.020597E+03	7.255618E-05	1.994997E-05
5.030500E+03	7.313687E-05	2.010908E-05
5.040402E+03	7.373048E-05	2.027174E-05
5.050305E+03	7.433579E-05	2.043760E-05
5.060208E+03	7.495299E-05	2.060671E-05
5.070110E+03	7.558296E-05	2.077932E-05
5.080013E+03	7.622433E-05	2.095505E-05
5.089915E+03	7.687726E-05	2.113395E-05
5.099818E+03	7.754261E-05	2.131624E-05
5.109720E+03	7.821969E-05	2.150175E-05
5.119623E+03	7.890857E-05	2.169049E-05
5.129525E+03	7.960852E-05	2.188226E-05
5.139428E+03	8.032036E-05	2.207727E-05
5.149331E+03	8.104253E-05	2.227512E-05
5.159233E+03	8.177656E-05	2.247620E-05
5.169136E+03	8.252164E-05	2.268031E-05
5.179038E+03	8.327687E-05	2.288719E-05
5.188941E+03	8.404213E-05	2.309681E-05
5.198843E+03	8.481809E-05	2.330936E-05
5.208746E+03	8.560297E-05	2.352434E-05
5.218648E+03	8.639738E-05	2.374192E-05
5.228551E+03	8.720188E-05	2.396225E-05
5.238454E+03	8.801373E-05	2.418459E-05
5.248356E+03	8.883513E-05	2.440953E-05
5.258259E+03	8.966313E-05	2.463627E-05
5.268161E+03	9.050000E-05	2.486543E-05
5.278064E+03	9.134259E-05	2.509614E-05
5.287966E+03	9.219226E-05	2.532877E-05
5.297869E+03	9.304846E-05	2.556318E-05
5.307772E+03	9.390974E-05	2.579896E-05
5.317674E+03	9.477733E-05	2.603647E-05
5.327577E+03	9.564779E-05	2.627473E-05
5.337479E+03	9.652322E-05	2.651434E-05
5.347382E+03	9.740193E-05	2.675483E-05
5.357284E+03	9.828316E-05	2.699600E-05
5.367187E+03	9.916599E-05	2.723758E-05
5.377089E+03	1.000496E-04	2.747935E-05
5.386992E+03	1.009319E-04	2.772076E-05
5.396895E+03	1.018120E-04	2.796152E-05
5.406797E+03	1.026888E-04	2.820134E-05
5.416700E+03	1.035610E-04	2.843990E-05
5.426602E+03	1.044265E-04	2.867659E-05
5.436505E+03	1.052829E-04	2.891076E-05
5.446407E+03	1.061299E-04	2.914234E-05
5.456310E+03	1.069652E-04	2.937066E-05
5.466212E+03	1.077861E-04	2.959502E-05
5.476115E+03	1.085901E-04	2.981471E-05
5.486018E+03	1.093767E-04	3.002961E-05
5.495920E+03	1.101421E-04	3.023868E-05
5.505823E+03	1.108859E-04	3.044178E-05
5.515725E+03	1.116041E-04	3.063784E-05
5.525628E+03	1.122951E-04	3.082641E-05
5.535530E+03	1.129584E-04	3.100735E-05
5.545433E+03	1.135899E-04	3.117956E-05
5.555335E+03	1.141893E-04	3.134292E-05
5.565238E+03	1.147550E-04	3.149700E-05
5.575141E+03	1.152841E-04	3.164103E-05
5.585043E+03	1.157751E-04	3.177461E-05
5.594946E+03	1.162279E-04	3.189767E-05
5.604848E+03	1.166410E-04	3.200981E-05
5.614751E+03	1.170119E-04	3.211038E-05
5.624653E+03	1.173407E-04	3.219935E-05
5.634556E+03	1.176274E-04	3.227679E-05
5.644459E+03	1.178687E-04	3.234174E-05
5.654361E+03	1.180649E-04	3.239430E-05
5.664264E+03	1.182165E-04	3.243461E-05
5.674166E+03	1.183229E-04	3.246251E-05
5.684069E+03	1.183836E-04	3.247787E-05
5.693971E+03	1.183983E-04	3.248061E-05
5.703874E+03	1.183668E-04	3.247066E-05
5.713776E+03	1.182903E-04	3.244837E-05
5.723679E+03	1.181677E-04	3.241343E-05
5.733582E+03	1.180018E-04	3.236657E-05
5.743484E+03	1.177916E-04	3.230759E-05
5.753387E+03	1.175377E-04	3.223663E-05
5.763289E+03	1.172433E-04	3.215455E-05
5.773192E+03	1.169067E-04	3.206090E-05
5.783094E+03	1.165301E-04	3.195627E-05
5.792997E+03	1.161157E-04	3.184131E-05
5.802899E+03	1.156636E-04	3.171597E-05
5.812802E+03	1.151762E-04	3.158098E-05
5.822705E+03	1.146536E-04	3.143635E-05
5.832607E+03	1.140999E-04	3.128318E-05
5.842510E+03	1.135153E-04	3.112154E-05
5.852412E+03	1.129013E-04	3.095187E-05
5.862315E+03	1.122610E-04	3.077499E-05
5.872217E+03	1.115948E-04	3.059100E-05
5.882120E+03	1.109056E-04	3.040074E-05
5.892022E+03	1.101940E-04	3.020435E-05
5.901925E+03	1.094631E-04	3.000266E-05
5.911828E+03	1.087146E-04	2.979617E-05
5.921730E+03	1.079503E-04	2.958535E-05
5.931633E+03	1.071707E-04	2.937038E-05
5.941535E+03	1.063790E-04	2.915207E-05
5.951438E+03	1.055767E-04	2.893089E-05
5.961340E+03	1.047644E-04	2.870698E-05
5.971243E+03	1.039450E-04	2.848114E-05
5.981146E+03	1.031189E-04	2.825347E-05
5.991048E+03	1.022864E-04	2.802407E-05
6.000951E+03	1.014515E-04	2.779404E-05
6.010853E+03	1.006134E-04	2.756311E-05
6.020756E+03	9.977446E-05	2.733199E-05
6.030658E+03	9.893384E-05	2.710043E-05
6.040561E+03	9.809399E-05	2.686909E-05
6.050463E+03	9.725496E-05	2.663799E-05
6.060366E+03	9.641793E-05	2.640745E-05
6.070269E+03	9.558404E-05	2.617780E-05
6.080171E+03	9.475315E-05	2.594898E-05
6.090074E+03	9.392628E-05	2.572127E-05
6.099976E+03	9.310436E-05	2.549494E-05
6.109879E+03	9.228829E-05	2.527023E-05
6.119781E+03	9.147878E-05	2.504732E-05
6.129684E+03	9.067551E-05	2.482615E-05
6.139586E+03	8.988027E-05	2.460719E-05
6.149489E+03	8.909374E-05	2.439063E-05
6.159392E+03	8.831642E-05	2.417660E-05
6.169294E+03	8.754995E-05	2.396557E-05
6.179197E+03	8.679600E-05	2.375797E-05
6.189099E+03	8.605600E-05	2.355421E-05
6.199002E+03	8.533149E-05	2.335470E-05
6.208904E+03	8.462381E-05	2.315982E-05
6.218807E+03	8.393552E-05	2.297025E-05
6.228709E+03	8.326562E-05	2.278574E-05
6.238612E+03	8.261881E-05	2.260755E-05
6.248515E+03	8.199406E-05	2.243541E-05
6.258417E+03	8.139368E-05	2.226996E-05
6.268320E+03	8.081891E-05	2.211152E-05
6.278222E+03	8.027089E-05	2.196042E-05
6.288125E+03	7.974962E-05	2.181664E-05
6.298027E+03	7.925625E-05	2.168050E-05
6.307930E+03	7.879191E-05	2.155232E-05
6.317833E+03	7.835658E-05	2.143208E-05
6.327735E+03	7.795025E-05	2.131978E-05
6.337638E+03	7.757409E-05	2.121573E-05
6.347540E+03	7.722576E-05	2.111931E-05
6.357443E+03	7.690531E-05	2.103051E-05
6.367345E+03	7.661160E-05	2.094903E-05
6.377248E+03	7.634228E-05	2.087423E-05
6.387150E+03	7.609853E-05	2.080642E-05
6.397053E+03	7.587802E-05	2.074496E-05
6.406956E+03	7.568187E-05	2.069017E-05
6.416858E+03	7.551007E-05	2.064203E-05
6.426761E+03	7.536147E-05	2.060024E-05
6.436663E+03	7.523602E-05	2.056477E-05
6.446566E+03	7.513372E-05	2.053563E-05
6.456468E+03	7.505453E-05	2.051281E-05
6.466371E+03	7.499847E-05	2.049630E-05
6.476273E+03	7.496667E-05	2.048643E-05
6.486176E+03	7.495803E-05	2.048287E-05
6.496079E+03	7.497134E-05	2.048531E-05
6.505981E+03	7.500895E-05	2.049439E-05
6.515884E+03	7.506852E-05	2.050945E-05
6.525786E+03	7.515128E-05	2.053085E-05
6.535689E+03	7.525723E-05	2.055858E-05
6.545591E+03	7.538647E-05	2.059265E-05
6.555494E+03	7.553900E-05	2.063308E-05
6.565396E+03	7.571361E-05	2.067954E-05
6.575299E+03	7.591163E-05	2.073237E-05
6.585202E+03	7.613189E-05	2.079127E-05
6.595104E+03	7.637566E-05	2.085658E-05
6.605007E+03	7.664179E-05	2.092798E-05
6.614909E+03	7.693032E-05	2.100548E-05
6.624812E+03	7.724263E-05	2.108946E-05
6.634714E+03	7.757884E-05	2.117995E-05
6.644617E+03	7.793640E-05	2.127625E-05
6.654520E+03	7.831808E-05	2.137912E-05
6.664422E+03	7.872128E-05	2.148785E-05
6.674325E+03	7.914879E-05	2.160319E-05
6.684227E+03	7.959943E-05	2.172483E-05
6.694130E+03	8.007188E-05	2.185240E-05
6.704032E+03	8.056905E-05	2.198669E-05
6.713935E+03	8.108828E-05	2.212698E-05
6.723837E+03	8.163109E-05	2.227369E-05
6.733740E+03	8.219765E-05	2.242684E-05
6.743643E+03	8.278803E-05	2.258648E-05
6.753545E+03	8.340099E-05	2.275225E-05
6.763448E+03	8.403808E-05	2.292457E-05
6.773350E+03	8.469796E-05	2.310309E-05
6.783253E+03	8.538228E-05	2.328824E-05
6.793155E+03	8.608963E-05	2.347964E-05
6.803058E+03	8.682015E-05	2.367734E-05
6.812960E+03	8.757555E-05	2.388179E-05
6.822863E+03	8.835278E-05	2.409215E-05
6.832766E+03	8.915515E-05	2.430934E-05
6.842668E+03	8.998122E-05	2.453296E-05
6.852571E+03	9.083112E-05	2.476304E-05
6.862473E+03	9.170492E-05	2.499961E-05
6.872376E+03	9.260280E-05	2.524269E-05
6.882278E+03	9.352306E-05	2.549184E-05
6.892181E+03	9.446760E-05	2.574757E-05
6.902083E+03	9.543651E-05	2.600991E-05
6.911986E+03	9.642995E-05	2.627888E-05
6.921889E+03	9.744425E-05	2.655350E-05
6.931791E+03	9.848510E-05	2.683531E-05
6.941694E+03	9.954692E-05	2.712280E-05
6.951596E+03	1.006336E-04	2.741701E-05
6.961499E+03	1.017432E-04	2.771742E-05
6.971401E+03	1.028758E-04	2.802405E-05
6.981304E+03	1.040314E-04	2.833690E-05
6.991207E+03	1.052101E-04	2.865599E-05
7.001109E+03	1.064097E-04	2.898073E-05
7.011012E+03	1.076324E-04	2.931168E-05
7.020914E+03	1.088780E-04	2.964884E-05
7.030817E+03	1.101444E-04	2.999162E-05
7.040719E+03	1.114338E-04	3.034060E-05
7.050622E+03	1.127438E-04	3.069513E-05
7.060524E+03	1.140743E-04	3.105519E-05
7.070427E+03	1.154252E-04	3.142075E-05
7.080330E+03	1.167987E-04	3.179241E-05
7.090232E+03	1.181899E-04	3.216884E-05
7.100135E+03	1.195986E-04	3.254994E-05
7.110037E+03	1.210294E-04	3.293703E-05
7.119940E+03	1.224772E-04	3.332867E-05
7.129842E+03	1.239416E-04	3.372477E-05
7.139745E+03	1.254250E-04	3.412597E-05
7.149647E+03	1.269244E-04	3.453148E-05
7.159550E+03	1.284395E-04	3.494116E-05
7.169453E+03	1.299698E-04	3.535494E-05
7.179355E+03	1.315149E-04	3.577269E-05
7.189258E+03	1.330773E-04	3.619506E-05
7.199160E+03	1.346508E-04	3.662039E-05
7.209063E+03	1.362407E-04	3.705013E-05
7.218965E+03	1.378437E-04	3.748334E-05
7.228868E+03	1.394592E-04	3.791990E-05
7.238770E+03	1.410898E-04	3.836049E-05
7.248673E+03	1.427319E-04	3.880415E-05
7.258576E+03	1.443882E-04	3.925159E-05
7.268478E+03	1.460582E-04	3.970269E-05
7.278381E+03	1.477447E-04	4.015820E-05
7.288283E+03	1.494475E-04	4.061806E-05
7.298186E+03	1.511695E-04	4.108309E-05
7.308088E+03	1.529072E-04	4.155229E-05
7.317991E+03	1.546707E-04	4.202843E-05
7.327894E+03	1.564602E-04	4.251157E-05
7.337796E+03	1.582720E-04	4.300071E-05
7.347699E+03	1.601174E-04	4.349888E-05
7.357601E+03	1.619930E-04	4.400518E-05
7.367504E+03	1.639028E-04	4.452071E-05
7.377406E+03	1.658435E-04	4.504454E-05
7.387309E+03	1.678193E-04	4.557783E-05
7.397211E+03	1.698187E-04	4.611742E-05
7.407114E+03	1.718496E-04	4.666550E-05
7.417017E+03	1.738999E-04	4.721878E-05
7.426919E+03	1.759735E-04	4.777830E-05
7.436822E+03	1.780661E-04	4.834287E-05
7.446724E+03	1.801729E-04	4.891121E-05
7.456627E+03	1.822977E-04	4.948438E-05
7.466529E+03	1.844268E-04	5.005860E-05
7.476432E+03	1.865682E-04	5.063609E-05
7.486334E+03	1.887166E-04	5.121539E-05
7.496237E+03	1.908712E-04	5.179629E-05
7.506140E+03	1.930264E-04	5.237723E-05
7.516042E+03	1.951856E-04	5.295923E-05
7.525945E+03	1.973432E-04	5.354067E-05
7.535847E+03	1.994979E-04	5.412123E-05
7.545750E+03	2.016533E-04	5.470193E-05
7.555652E+03	2.038035E-04	5.528109E-05
7.565555E+03	2.059520E-04	5.585974E-05
7.575457E+03	2.080874E-04	5.643473E-05
7.585360E+03	2.102186E-04	5.700850E-05
7.595263E+03	2.123389E-04	5.757925E-05
7.605165E+03	2.144524E-04	5.814806E-05
7.615068E+03	2.165522E-04	5.871307E-05
7.624970E+03	2.186367E-04	5.927386E-05
7.634873E+03	2.207043E-04	5.983000E-05
7.644775E+03	2.227651E-04	6.038418E-05
7.654678E+03	2.248001E-04	6.093132E-05
7.664581E+03	2.268253E-04	6.147572E-05
7.674483E+03	2.288275E-04	6.201381E-05
7.684386E+03	2.308110E-04	6.254676E-05
