#wls	flux	fluxerr
1.584409E+03	2.873717E-03	1.086225E-03
1.624020E+03	3.024385E-03	1.139033E-03
1.663630E+03	3.177805E-03	1.192462E-03
1.703240E+03	3.332764E-03	1.245723E-03
1.742850E+03	3.488648E-03	1.298874E-03
1.782461E+03	3.643849E-03	1.350941E-03
1.822071E+03	3.796634E-03	1.401631E-03
1.861681E+03	3.946277E-03	1.450257E-03
1.901291E+03	4.089887E-03	1.496176E-03
1.940902E+03	4.226026E-03	1.538408E-03
1.980512E+03	4.351674E-03	1.576355E-03
2.020122E+03	4.465109E-03	1.608909E-03
2.059732E+03	4.562391E-03	1.635242E-03
2.099342E+03	4.640864E-03	1.653906E-03
2.138953E+03	4.696743E-03	1.664249E-03
2.178563E+03	4.726181E-03	1.664413E-03
2.218173E+03	4.724645E-03	1.653615E-03
2.257783E+03	4.690672E-03	1.630878E-03
2.297394E+03	4.623431E-03	1.596815E-03
2.337004E+03	4.526510E-03	1.552211E-03
2.376614E+03	4.401871E-03	1.498654E-03
2.416224E+03	4.252717E-03	1.436764E-03
2.455835E+03	4.081485E-03	1.368261E-03
2.495445E+03	3.890993E-03	1.293615E-03
2.535055E+03	3.683447E-03	1.214411E-03
2.574665E+03	3.462339E-03	1.131339E-03
2.614276E+03	3.230319E-03	1.046041E-03
2.653886E+03	2.991171E-03	9.592941E-04
2.693496E+03	2.747719E-03	8.726762E-04
2.733106E+03	2.504009E-03	7.870361E-04
2.772716E+03	2.262938E-03	7.038274E-04
2.812327E+03	2.028367E-03	6.238232E-04
2.851937E+03	1.803025E-03	5.482617E-04
2.891547E+03	1.590191E-03	4.777174E-04
2.931157E+03	1.391843E-03	4.130370E-04
2.960437E+03	4.661805E-03	1.370342E-03
2.960635E+03	4.670211E-03	1.372724E-03
2.962617E+03	4.680229E-03	1.374772E-03
2.962815E+03	4.687893E-03	1.376933E-03
2.964201E+03	4.695636E-03	1.378577E-03
2.964399E+03	4.703053E-03	1.380664E-03
2.965786E+03	4.710056E-03	1.382086E-03
2.966578E+03	4.716769E-03	1.383694E-03
2.967370E+03	4.723484E-03	1.385300E-03
2.967568E+03	4.729408E-03	1.386947E-03
2.967965E+03	4.734768E-03	1.388336E-03
2.968163E+03	4.740443E-03	1.389909E-03
2.969549E+03	4.746716E-03	1.391106E-03
2.983413E+03	4.764295E-03	1.389808E-03
2.983809E+03	4.768922E-03	1.390972E-03
2.984602E+03	4.773670E-03	1.391986E-03
2.985394E+03	4.778168E-03	1.392926E-03
2.986385E+03	4.782855E-03	1.393826E-03
2.986979E+03	4.787422E-03	1.394878E-03
2.987573E+03	4.791739E-03	1.395855E-03
2.988365E+03	4.796494E-03	1.396867E-03
2.989752E+03	4.801059E-03	1.397541E-03
2.989950E+03	4.804254E-03	1.398377E-03
2.990148E+03	4.806950E-03	1.399068E-03
2.990940E+03	4.809955E-03	1.399567E-03
2.991931E+03	4.812898E-03	1.399953E-03
2.992723E+03	4.815654E-03	1.400379E-03
2.993516E+03	4.817660E-03	1.400585E-03
2.993911E+03	4.819539E-03	1.400943E-03
2.994109E+03	4.820731E-03	1.401195E-03
2.994307E+03	4.821673E-03	1.401374E-03
2.995495E+03	4.823553E-03	1.401354E-03
2.995693E+03	4.824243E-03	1.401460E-03
2.996288E+03	4.825310E-03	1.401487E-03
2.996486E+03	4.825498E-03	1.401447E-03
2.998269E+03	4.826944E-03	1.401014E-03
2.998467E+03	4.826629E-03	1.400829E-03
2.999457E+03	4.827069E-03	1.400483E-03
3.002428E+03	4.829147E-03	1.399662E-03
3.002626E+03	4.828331E-03	1.399331E-03
3.002824E+03	4.827513E-03	1.398998E-03
3.004212E+03	4.827328E-03	1.398279E-03
3.004410E+03	4.826008E-03	1.397802E-03
3.004805E+03	4.824625E-03	1.397212E-03
3.005004E+03	4.823054E-03	1.396661E-03
3.005202E+03	4.820980E-03	1.395966E-03
3.005795E+03	4.819281E-03	1.395190E-03
3.006587E+03	4.818024E-03	1.394446E-03
3.007181E+03	4.815572E-03	1.393451E-03
3.007379E+03	4.812490E-03	1.392464E-03
3.007775E+03	4.809344E-03	1.391364E-03
3.008568E+03	4.806575E-03	1.390184E-03
3.008766E+03	4.803743E-03	1.389270E-03
3.008964E+03	4.799904E-03	1.388065E-03
3.009162E+03	4.796568E-03	1.387005E-03
3.009360E+03	4.792728E-03	1.385800E-03
3.010747E+03	4.789766E-03	1.384281E-03
3.011341E+03	4.785798E-03	1.382850E-03
3.011539E+03	4.781201E-03	1.381427E-03
3.012926E+03	4.777228E-03	1.379617E-03
3.013124E+03	4.772377E-03	1.378122E-03
3.013520E+03	4.766958E-03	1.376368E-03
3.014510E+03	4.762856E-03	1.374712E-03
3.014708E+03	4.757247E-03	1.372999E-03
3.015104E+03	4.751067E-03	1.371027E-03
3.015500E+03	4.744637E-03	1.368983E-03
3.015699E+03	4.738017E-03	1.366979E-03
3.015898E+03	4.730894E-03	1.364830E-03
3.016492E+03	4.724647E-03	1.362746E-03
3.017877E+03	4.718640E-03	1.360358E-03
3.018867E+03	4.712760E-03	1.358195E-03
3.019263E+03	4.705565E-03	1.355934E-03
3.019461E+03	4.697427E-03	1.353496E-03
3.020650E+03	4.690465E-03	1.350931E-03
3.020848E+03	4.682577E-03	1.348565E-03
3.022829E+03	4.675595E-03	1.345623E-03
3.023027E+03	4.666693E-03	1.342968E-03
3.023225E+03	4.657283E-03	1.340168E-03
3.025800E+03	4.650846E-03	1.337108E-03
3.028772E+03	4.644519E-03	1.333898E-03
3.030157E+03	4.635697E-03	1.330716E-03
3.031346E+03	4.627195E-03	1.327720E-03
3.031544E+03	4.617011E-03	1.324705E-03
3.031940E+03	4.606757E-03	1.321578E-03
3.032336E+03	4.596754E-03	1.318524E-03
3.035308E+03	4.588623E-03	1.314811E-03
3.036892E+03	4.579202E-03	1.311375E-03
3.039467E+03	4.570691E-03	1.307743E-03
3.041448E+03	4.561625E-03	1.304230E-03
3.041645E+03	4.550405E-03	1.300931E-03
3.043032E+03	4.539261E-03	1.297104E-03
3.043626E+03	4.527639E-03	1.293509E-03
3.045210E+03	4.516666E-03	1.289644E-03
3.045804E+03	4.504783E-03	1.285978E-03
3.046597E+03	4.492570E-03	1.282128E-03
3.047786E+03	4.480714E-03	1.278201E-03
3.049964E+03	4.469499E-03	1.274006E-03
3.051549E+03	4.457734E-03	1.269930E-03
3.051747E+03	4.444202E-03	1.265985E-03
3.051946E+03	4.430669E-03	1.262039E-03
3.052144E+03	4.416881E-03	1.258022E-03
3.054123E+03	4.404690E-03	1.253656E-03
3.054718E+03	4.390994E-03	1.249491E-03
3.055708E+03	4.377396E-03	1.245176E-03
3.056302E+03	4.362930E-03	1.240795E-03
3.057094E+03	4.348892E-03	1.236449E-03
3.058482E+03	4.334614E-03	1.231771E-03
3.059472E+03	4.320739E-03	1.227388E-03
3.059670E+03	4.305400E-03	1.222943E-03
3.062839E+03	4.292414E-03	1.217853E-03
3.064028E+03	4.277421E-03	1.213074E-03
3.064622E+03	4.261393E-03	1.208268E-03
3.066206E+03	4.246734E-03	1.203417E-03
3.066404E+03	4.230096E-03	1.198616E-03
3.066998E+03	4.213546E-03	1.193667E-03
3.068384E+03	4.197930E-03	1.188641E-03
3.068582E+03	4.180774E-03	1.183698E-03
3.068780E+03	4.163872E-03	1.178827E-03
3.068978E+03	4.146204E-03	1.173740E-03
3.069770E+03	4.129294E-03	1.168615E-03
3.069970E+03	4.111621E-03	1.163528E-03
3.070168E+03	4.093692E-03	1.158371E-03
3.070564E+03	4.075672E-03	1.153104E-03
3.071950E+03	4.058221E-03	1.147584E-03
3.072346E+03	4.039683E-03	1.142176E-03
3.072544E+03	4.021742E-03	1.137020E-03
3.073138E+03	4.003106E-03	1.131505E-03
3.073336E+03	3.984652E-03	1.126207E-03
3.074723E+03	3.966656E-03	1.120550E-03
3.075317E+03	3.947750E-03	1.114965E-03
3.075912E+03	3.928586E-03	1.109310E-03
3.076901E+03	3.909479E-03	1.103512E-03
3.077298E+03	3.889890E-03	1.097822E-03
3.078684E+03	3.870832E-03	1.091886E-03
3.078882E+03	3.850818E-03	1.086161E-03
3.079674E+03	3.830763E-03	1.080188E-03
3.079872E+03	3.810233E-03	1.074320E-03
3.080268E+03	3.789601E-03	1.068347E-03
3.080466E+03	3.768812E-03	1.062408E-03
3.080862E+03	3.747918E-03	1.056363E-03
3.081060E+03	3.726613E-03	1.050282E-03
3.081655E+03	3.705099E-03	1.043989E-03
3.082052E+03	3.683942E-03	1.037874E-03
3.083042E+03	3.662463E-03	1.031445E-03
3.083834E+03	3.641082E-03	1.025122E-03
3.084428E+03	3.619035E-03	1.018690E-03
3.085022E+03	3.597749E-03	1.012475E-03
3.085220E+03	3.575141E-03	1.006039E-03
3.085617E+03	3.552935E-03	9.996430E-04
3.086409E+03	3.530502E-03	9.930388E-04
3.087796E+03	3.508752E-03	9.864115E-04
3.087994E+03	3.485873E-03	9.799073E-04
3.088984E+03	3.463048E-03	9.731320E-04
3.089380E+03	3.440046E-03	9.665256E-04
3.089578E+03	3.416389E-03	9.598082E-04
3.089776E+03	3.392728E-03	9.530904E-04
3.089974E+03	3.368811E-03	9.463017E-04
3.090568E+03	3.345680E-03	9.395957E-04
3.090766E+03	3.321756E-03	9.328079E-04
3.090964E+03	3.298086E-03	9.260925E-04
3.091162E+03	3.273647E-03	9.191619E-04
3.091360E+03	3.249462E-03	9.123039E-04
3.091558E+03	3.225018E-03	9.053740E-04
3.092152E+03	3.200325E-03	8.982424E-04
3.092350E+03	3.176130E-03	8.913856E-04
3.092548E+03	3.151168E-03	8.843142E-04
3.092944E+03	3.126331E-03	8.772142E-04
3.093341E+03	3.101746E-03	8.701870E-04
3.093539E+03	3.077031E-03	8.631890E-04
3.093936E+03	3.051671E-03	8.559477E-04
3.094530E+03	3.026432E-03	8.486795E-04
3.095322E+03	3.001566E-03	8.414565E-04
3.095520E+03	2.975812E-03	8.341746E-04
3.095718E+03	2.950055E-03	8.268931E-04
3.096312E+03	2.924538E-03	8.195576E-04
3.096708E+03	2.899151E-03	8.123225E-04
3.096906E+03	2.872871E-03	8.048993E-04
3.097303E+03	2.846964E-03	7.975221E-04
3.097501E+03	2.820681E-03	7.901006E-04
3.098689E+03	2.794460E-03	7.824060E-04
3.098887E+03	2.767909E-03	7.749144E-04
3.099085E+03	2.741613E-03	7.674952E-04
3.099680E+03	2.715540E-03	7.600257E-04
3.099878E+03	2.689236E-03	7.526077E-04
3.100076E+03	2.662419E-03	7.450471E-04
3.100472E+03	2.635708E-03	7.374621E-04
3.100669E+03	2.608371E-03	7.297591E-04
3.101660E+03	2.581460E-03	7.219603E-04
3.101858E+03	2.554654E-03	7.144098E-04
3.102056E+03	2.528102E-03	7.069317E-04
3.102254E+03	2.500804E-03	6.992460E-04
3.102848E+03	2.473426E-03	6.914356E-04
3.103046E+03	2.445684E-03	6.836293E-04
3.103244E+03	2.417913E-03	6.758162E-04
3.103442E+03	2.390116E-03	6.679966E-04
3.103838E+03	2.362671E-03	6.602275E-04
3.104036E+03	2.334816E-03	6.523948E-04
3.104234E+03	2.306856E-03	6.445338E-04
3.104630E+03	2.279015E-03	6.366595E-04
3.105027E+03	2.251195E-03	6.287935E-04
3.105225E+03	2.223071E-03	6.208915E-04
3.105820E+03	2.195155E-03	6.129565E-04
3.106018E+03	2.167231E-03	6.051136E-04
3.106612E+03	2.139533E-03	5.972455E-04
3.107008E+03	2.111483E-03	5.893270E-04
3.107206E+03	2.084191E-03	5.816659E-04
3.107404E+03	2.056408E-03	5.738689E-04
3.108196E+03	2.028440E-03	5.658936E-04
3.108394E+03	2.000315E-03	5.580053E-04
3.108989E+03	1.972684E-03	5.501732E-04
3.110375E+03	1.945244E-03	5.422341E-04
3.110573E+03	1.917128E-03	5.343567E-04
3.110969E+03	1.888961E-03	5.264263E-04
3.111167E+03	1.860865E-03	5.185571E-04
3.111365E+03	1.832253E-03	5.105453E-04
3.111960E+03	1.804278E-03	5.026363E-04
3.112158E+03	1.776146E-03	4.947621E-04
3.112554E+03	1.747443E-03	4.866929E-04
3.112752E+03	1.718817E-03	4.786841E-04
3.113940E+03	1.690388E-03	4.705530E-04
3.114138E+03	1.661777E-03	4.625537E-04
3.114336E+03	1.633448E-03	4.546338E-04
3.114534E+03	1.605218E-03	4.467430E-04
3.114732E+03	1.577064E-03	4.388742E-04
3.114930E+03	1.548238E-03	4.308198E-04
3.115326E+03	1.519988E-03	4.228947E-04
3.115524E+03	1.492108E-03	4.151065E-04
3.115722E+03	1.463506E-03	4.071184E-04
3.115920E+03	1.435030E-03	3.991666E-04
3.116118E+03	1.406397E-03	3.911724E-04
3.116514E+03	1.377793E-03	3.831585E-04
3.116713E+03	1.349566E-03	3.752802E-04
3.117307E+03	1.321344E-03	3.673487E-04
3.117506E+03	1.293599E-03	3.596079E-04
3.117704E+03	1.265259E-03	3.517030E-04
3.118100E+03	1.237227E-03	3.438585E-04
3.118298E+03	1.209499E-03	3.361267E-04
3.118694E+03	1.181175E-03	3.282054E-04
3.118892E+03	1.152901E-03	3.203247E-04
3.119288E+03	1.124568E-03	3.124052E-04
3.120278E+03	1.096987E-03	3.046272E-04
3.120477E+03	1.069086E-03	2.968567E-04
3.120675E+03	1.041235E-03	2.891011E-04
3.120873E+03	1.013226E-03	2.813030E-04
3.121269E+03	9.860811E-04	2.737249E-04
3.121467E+03	9.588140E-04	2.661356E-04
3.121863E+03	9.308106E-04	2.583234E-04
3.122061E+03	9.031513E-04	2.506281E-04
3.122259E+03	8.758760E-04	2.430405E-04
3.122655E+03	8.487372E-04	2.354741E-04
3.122853E+03	8.210954E-04	2.277877E-04
3.123448E+03	7.936728E-04	2.201296E-04
3.123646E+03	7.671582E-04	2.127594E-04
3.124042E+03	7.406468E-04	2.053755E-04
3.124438E+03	7.136151E-04	1.978496E-04
3.124637E+03	6.864213E-04	1.902955E-04
3.124834E+03	6.599728E-04	1.829493E-04
3.125032E+03	6.332643E-04	1.755321E-04
3.125428E+03	6.066823E-04	1.681382E-04
3.126418E+03	5.806074E-04	1.608501E-04
3.126616E+03	5.543765E-04	1.535714E-04
3.127012E+03	5.285527E-04	1.463954E-04
3.127408E+03	5.022344E-04	1.390846E-04
3.127606E+03	4.758142E-04	1.317579E-04
3.128002E+03	4.500559E-04	1.246060E-04
3.128201E+03	4.239914E-04	1.173806E-04
3.128399E+03	3.984922E-04	1.103127E-04
3.128597E+03	3.734813E-04	1.033812E-04
3.128795E+03	3.480295E-04	9.632859E-05
3.128993E+03	3.227306E-04	8.931942E-05
3.129191E+03	2.980486E-04	8.248207E-05
3.129390E+03	2.727712E-04	7.548095E-05
3.129588E+03	2.477394E-04	6.854892E-05
3.130182E+03	2.238495E-04	6.192437E-05
3.130776E+03	1.996593E-04	5.521978E-05
3.130974E+03	1.758173E-04	4.862207E-05
3.131370E+03	1.516933E-04	4.194413E-05
3.131568E+03	1.274513E-04	3.523835E-05
3.131964E+03	1.039216E-04	2.872834E-05
3.132163E+03	7.997149E-05	2.210580E-05
3.132361E+03	5.656936E-05	1.563576E-05
3.132559E+03	3.286311E-05	9.082655E-06
3.132955E+03	9.473668E-06	2.617914E-06
3.133153E+03	-1.370941E-05	-3.788111E-06
3.133549E+03	-3.605993E-05	-9.962346E-06
3.133747E+03	-5.862149E-05	-1.619422E-05
3.133945E+03	-8.122629E-05	-2.243708E-05
3.134143E+03	-1.031484E-04	-2.849042E-05
3.134341E+03	-1.254290E-04	-3.464180E-05
3.134539E+03	-1.467348E-04	-4.052306E-05
3.134737E+03	-1.682388E-04	-4.645813E-05
3.135332E+03	-1.897761E-04	-5.239337E-05
3.135530E+03	-2.105803E-04	-5.813250E-05
3.135728E+03	-2.315514E-04	-6.391679E-05
3.135926E+03	-2.521031E-04	-6.958445E-05
3.136323E+03	-2.716757E-04	-7.497520E-05
3.136520E+03	-2.911746E-04	-8.035020E-05
3.136719E+03	-3.104685E-04	-8.566773E-05
3.136917E+03	-3.296088E-04	-9.094208E-05
3.137510E+03	-3.485477E-04	-9.614520E-05
3.138104E+03	-3.673362E-04	-1.013044E-04
3.138302E+03	-3.859159E-04	-1.064201E-04
3.138698E+03	-4.042815E-04	-1.114673E-04
3.138896E+03	-4.225548E-04	-1.164965E-04
3.139094E+03	-4.405969E-04	-1.214612E-04
3.139292E+03	-4.583819E-04	-1.263543E-04
3.139490E+03	-4.760392E-04	-1.312114E-04
3.139688E+03	-4.933874E-04	-1.359825E-04
3.139887E+03	-5.104269E-04	-1.406678E-04
3.140085E+03	-5.271058E-04	-1.452531E-04
3.140481E+03	-5.434986E-04	-1.497471E-04
3.140679E+03	-5.595342E-04	-1.541534E-04
3.140877E+03	-5.752349E-04	-1.584666E-04
3.141075E+03	-5.905746E-04	-1.626798E-04
3.141274E+03	-6.056054E-04	-1.668072E-04
3.141472E+03	-6.202751E-04	-1.708345E-04
3.141670E+03	-6.346098E-04	-1.747689E-04
3.142264E+03	-6.486385E-04	-1.785907E-04
3.142462E+03	-6.618898E-04	-1.822250E-04
3.142660E+03	-6.745729E-04	-1.857023E-04
3.142858E+03	-6.876713E-04	-1.892934E-04
3.143056E+03	-7.009259E-04	-1.929270E-04
3.143254E+03	-7.135089E-04	-1.963751E-04
3.143452E+03	-7.260669E-04	-1.998158E-04
3.143650E+03	-7.370988E-04	-2.028360E-04
3.143849E+03	-7.487529E-04	-2.060270E-04
3.144047E+03	-7.599163E-04	-2.090824E-04
3.144245E+03	-7.709769E-04	-2.121090E-04
3.144443E+03	-7.811583E-04	-2.148934E-04
3.144641E+03	-7.904343E-04	-2.174282E-04
3.144839E+03	-7.998408E-04	-2.199985E-04
3.145037E+03	-8.089890E-04	-2.224974E-04
3.145235E+03	-8.174905E-04	-2.248180E-04
3.145433E+03	-8.262259E-04	-2.272026E-04
3.145631E+03	-8.342111E-04	-2.293806E-04
3.145829E+03	-8.413942E-04	-2.313376E-04
3.146027E+03	-8.487850E-04	-2.333515E-04
3.146423E+03	-8.557986E-04	-2.352429E-04
3.146621E+03	-8.613520E-04	-2.367509E-04
3.146819E+03	-8.676570E-04	-2.384653E-04
3.147017E+03	-8.730043E-04	-2.399162E-04
3.147216E+03	-8.783262E-04	-2.413598E-04
3.147414E+03	-8.821200E-04	-2.423833E-04
3.147612E+03	-8.866393E-04	-2.436061E-04
3.147811E+03	-8.898380E-04	-2.444658E-04
3.148207E+03	-8.929194E-04	-2.452739E-04
3.148405E+03	-8.961445E-04	-2.461406E-04
3.148801E+03	-8.989418E-04	-2.468702E-04
3.149196E+03	-9.013248E-04	-2.474860E-04
3.149395E+03	-9.028147E-04	-2.478756E-04
3.149592E+03	-9.036823E-04	-2.480944E-04
3.149790E+03	-9.042393E-04	-2.482279E-04
3.149988E+03	-9.045630E-04	-2.482973E-04
3.150186E+03	-9.036165E-04	-2.480180E-04
3.150582E+03	-9.029936E-04	-2.478082E-04
3.150780E+03	-9.018136E-04	-2.474650E-04
3.150978E+03	-8.995448E-04	-2.468230E-04
3.151176E+03	-8.967312E-04	-2.460317E-04
3.151374E+03	-8.938914E-04	-2.452333E-04
3.151573E+03	-8.903773E-04	-2.442500E-04
3.151771E+03	-8.864481E-04	-2.431531E-04
3.151969E+03	-8.816109E-04	-2.418072E-04
3.152167E+03	-8.765137E-04	-2.403903E-04
3.152365E+03	-8.707681E-04	-2.387957E-04
3.152563E+03	-8.645291E-04	-2.370662E-04
3.152761E+03	-8.581340E-04	-2.352940E-04
3.152959E+03	-8.510639E-04	-2.333371E-04
3.153158E+03	-8.427226E-04	-2.310319E-04
3.153356E+03	-8.336281E-04	-2.285207E-04
3.153554E+03	-8.247661E-04	-2.260736E-04
3.153752E+03	-8.154365E-04	-2.234987E-04
3.154148E+03	-8.053884E-04	-2.207099E-04
3.154346E+03	-7.944223E-04	-2.176876E-04
3.154544E+03	-7.826770E-04	-2.144523E-04
3.154742E+03	-7.708268E-04	-2.111887E-04
3.154940E+03	-7.582750E-04	-2.077334E-04
3.155336E+03	-7.454167E-04	-2.041787E-04
3.155535E+03	-7.319280E-04	-2.004681E-04
3.155733E+03	-7.175298E-04	-1.965091E-04
3.155931E+03	-7.025593E-04	-1.923940E-04
3.156129E+03	-6.866014E-04	-1.880091E-04
3.156327E+03	-6.702269E-04	-1.835109E-04
3.156525E+03	-6.526308E-04	-1.786789E-04
3.156723E+03	-6.354747E-04	-1.739681E-04
3.156921E+03	-6.168633E-04	-1.688597E-04
3.157317E+03	-5.979126E-04	-1.636463E-04
3.157515E+03	-5.783626E-04	-1.582831E-04
3.157713E+03	-5.577205E-04	-1.526218E-04
3.158109E+03	-5.368658E-04	-1.468916E-04
3.158307E+03	-5.152065E-04	-1.409543E-04
3.158505E+03	-4.929223E-04	-1.348470E-04
3.158703E+03	-4.700129E-04	-1.285695E-04
3.159299E+03	-4.464904E-04	-1.221061E-04
3.159497E+03	-4.222763E-04	-1.154749E-04
3.159695E+03	-3.974368E-04	-1.086737E-04
3.160091E+03	-3.719097E-04	-1.016776E-04
3.160288E+03	-3.457139E-04	-9.450836E-05
3.160487E+03	-3.188146E-04	-8.714791E-05
3.160684E+03	-2.912372E-04	-7.960337E-05
3.160882E+03	-2.629302E-04	-7.186056E-05
3.161278E+03	-2.341266E-04	-6.397822E-05
3.161476E+03	-2.045637E-04	-5.589532E-05
3.161674E+03	-1.739899E-04	-4.753752E-05
3.161872E+03	-1.428340E-04	-3.902200E-05
3.162070E+03	-1.110049E-04	-3.032394E-05
3.162466E+03	-7.814204E-05	-2.134319E-05
3.162664E+03	-4.441910E-05	-1.213137E-05
3.162862E+03	-1.005672E-05	-2.746389E-06
3.163060E+03	2.489711E-05	6.798611E-06
3.163259E+03	6.065587E-05	1.656188E-05
3.163457E+03	9.723190E-05	2.654673E-05
3.163655E+03	1.346248E-04	3.675299E-05
3.163853E+03	1.728398E-04	4.718207E-05
3.164051E+03	2.118823E-04	5.783534E-05
3.164249E+03	2.517549E-04	6.871349E-05
3.164447E+03	2.924630E-04	7.981795E-05
3.164645E+03	3.340014E-04	9.114721E-05
3.165042E+03	3.764179E-04	1.027061E-04
3.165240E+03	4.196559E-04	1.144945E-04
3.165438E+03	4.637296E-04	1.265090E-04
3.165636E+03	5.087174E-04	1.387710E-04
3.166032E+03	5.545654E-04	1.512536E-04
3.166230E+03	6.012797E-04	1.639815E-04
3.167022E+03	6.489403E-04	1.769231E-04
3.167617E+03	6.974718E-04	1.901090E-04
3.167815E+03	7.468105E-04	2.035409E-04
3.168013E+03	7.970642E-04	2.172201E-04
3.168409E+03	8.482435E-04	2.311308E-04
3.168607E+03	9.003036E-04	2.452967E-04
3.168805E+03	9.532533E-04	2.597026E-04
3.169003E+03	1.007196E-03	2.743769E-04
3.169201E+03	1.042170E-03	2.838814E-04
3.169597E+03	1.081357E-03	2.945089E-04
3.169795E+03	1.130057E-03	3.077477E-04
3.169993E+03	1.178579E-03	3.209358E-04
3.170587E+03	1.231324E-03	3.352184E-04
3.170786E+03	1.285509E-03	3.499416E-04
3.171183E+03	1.329808E-03	3.619430E-04
3.171381E+03	1.365828E-03	3.717169E-04
3.171975E+03	1.424447E-03	3.875773E-04
3.172173E+03	1.468160E-03	3.994392E-04
3.172569E+03	1.523429E-03	4.144096E-04
3.173163E+03	1.506303E-03	4.096523E-04
3.173558E+03	1.521830E-03	4.138088E-04
3.174152E+03	1.580472E-03	4.296509E-04
3.174350E+03	1.382269E-03	3.757394E-04
3.174548E+03	1.382016E-03	3.756404E-04
3.174945E+03	1.264211E-03	3.435649E-04
3.175935E+03	1.291645E-03	3.508796E-04
3.176529E+03	1.324322E-03	3.596695E-04
3.177322E+03	1.306899E-03	3.548233E-04
3.177520E+03	1.347242E-03	3.657470E-04
3.177718E+03	1.379818E-03	3.745605E-04
3.178114E+03	1.397802E-03	3.793811E-04
3.178510E+03	1.397375E-03	3.792042E-04
3.178709E+03	1.381682E-03	3.749153E-04
3.179105E+03	1.350187E-03	3.663102E-04
3.179699E+03	1.309666E-03	3.552306E-04
3.180689E+03	1.264312E-03	3.427904E-04
3.181283E+03	1.213014E-03	3.288022E-04
3.181481E+03	1.136442E-03	3.080217E-04
3.181877E+03	1.053098E-03	2.853858E-04
3.182075E+03	9.554718E-04	2.589086E-04
3.182471E+03	8.507481E-04	2.304938E-04
3.183067E+03	8.502065E-04	2.302910E-04
3.183661E+03	7.676512E-04	2.078792E-04
3.184651E+03	6.848727E-04	1.853877E-04
3.184849E+03	6.632252E-04	1.795133E-04
3.185245E+03	6.194278E-04	1.676316E-04
3.185442E+03	6.113834E-04	1.654412E-04
