#wls	flux	fluxerr
1.584409E+03	2.336482E-03	1.184236E-03
1.624020E+03	2.416770E-03	1.224749E-03
1.663630E+03	2.495523E-03	1.264461E-03
1.703240E+03	2.572414E-03	1.303208E-03
1.742850E+03	2.646308E-03	1.340414E-03
1.782461E+03	2.716709E-03	1.375825E-03
1.822071E+03	2.782560E-03	1.408908E-03
1.861681E+03	2.843207E-03	1.439332E-03
1.901291E+03	2.897693E-03	1.466612E-03
1.940902E+03	2.945018E-03	1.490243E-03
1.980512E+03	2.983721E-03	1.509488E-03
2.020122E+03	3.012817E-03	1.523851E-03
2.059732E+03	3.031157E-03	1.532752E-03
2.099342E+03	3.037118E-03	1.535375E-03
2.138953E+03	3.029323E-03	1.531029E-03
2.178563E+03	3.006171E-03	1.518909E-03
2.218173E+03	2.966358E-03	1.498363E-03
2.257783E+03	2.909737E-03	1.469325E-03
2.297394E+03	2.836864E-03	1.432083E-03
2.337004E+03	2.749964E-03	1.387770E-03
2.376614E+03	2.651041E-03	1.337403E-03
2.416224E+03	2.541911E-03	1.281907E-03
2.455835E+03	2.424558E-03	1.222287E-03
2.495445E+03	2.300544E-03	1.159339E-03
2.535055E+03	2.171249E-03	1.093763E-03
2.574665E+03	2.038324E-03	1.026395E-03
2.614276E+03	1.903005E-03	9.578628E-04
2.653886E+03	1.766725E-03	8.888910E-04
2.693496E+03	1.630688E-03	8.200877E-04
2.733106E+03	1.496297E-03	7.521615E-04
2.772716E+03	1.364731E-03	6.857060E-04
2.812327E+03	1.237234E-03	6.213464E-04
2.851937E+03	1.114977E-03	5.596704E-04
2.891547E+03	9.990304E-04	5.012139E-04
2.931157E+03	8.903231E-04	4.464401E-04
2.970768E+03	7.895908E-04	3.957146E-04
2.980670E+03	7.657105E-04	3.836937E-04
2.990573E+03	7.423735E-04	3.719479E-04
3.000475E+03	7.195642E-04	3.604693E-04
3.010378E+03	6.973143E-04	3.492739E-04
3.020280E+03	6.756067E-04	3.383528E-04
3.030183E+03	6.544405E-04	3.277055E-04
3.040086E+03	6.338140E-04	3.173313E-04
3.049988E+03	6.137510E-04	3.072417E-04
3.059891E+03	5.942216E-04	2.974219E-04
3.069793E+03	5.752466E-04	2.878820E-04
3.079696E+03	5.568086E-04	2.786134E-04
3.089598E+03	5.389138E-04	2.696190E-04
3.099501E+03	5.215556E-04	2.608955E-04
3.109403E+03	5.047273E-04	2.524393E-04
3.119306E+03	4.884219E-04	2.442470E-04
3.129209E+03	4.726411E-04	2.363191E-04
3.139111E+03	4.573679E-04	2.286472E-04
3.149014E+03	4.426027E-04	2.212314E-04
3.158916E+03	4.283363E-04	2.140669E-04
3.168819E+03	4.145597E-04	2.071492E-04
3.178721E+03	4.012706E-04	2.004770E-04
3.188624E+03	3.884451E-04	1.940383E-04
3.198526E+03	3.760936E-04	1.878382E-04
3.208429E+03	3.641863E-04	1.818616E-04
3.218332E+03	3.527315E-04	1.761128E-04
3.228234E+03	3.417066E-04	1.705802E-04
3.238137E+03	3.311066E-04	1.652614E-04
3.248039E+03	3.209208E-04	1.601509E-04
3.257942E+03	3.111332E-04	1.552405E-04
3.267844E+03	3.017430E-04	1.505299E-04
3.277747E+03	2.927297E-04	1.460086E-04
3.287650E+03	2.840829E-04	1.416716E-04
3.297552E+03	2.758006E-04	1.375176E-04
3.307455E+03	2.678636E-04	1.335370E-04
3.317357E+03	2.602618E-04	1.297248E-04
3.327260E+03	2.529852E-04	1.260757E-04
3.337162E+03	2.460272E-04	1.225866E-04
3.347065E+03	2.393708E-04	1.192488E-04
3.356967E+03	2.330068E-04	1.160577E-04
3.366870E+03	2.269290E-04	1.130101E-04
3.376773E+03	2.211251E-04	1.100999E-04
3.386675E+03	2.155863E-04	1.073226E-04
3.396578E+03	2.102986E-04	1.046711E-04
3.406480E+03	2.052563E-04	1.021426E-04
3.416383E+03	2.004518E-04	9.973324E-05
3.426285E+03	1.958722E-04	9.743654E-05
3.436188E+03	1.915104E-04	9.524890E-05
3.446090E+03	1.873571E-04	9.316566E-05
3.455993E+03	1.834081E-04	9.118464E-05
3.465896E+03	1.796503E-04	8.929933E-05
3.475798E+03	1.760800E-04	8.750784E-05
3.485701E+03	1.726874E-04	8.580522E-05
3.495603E+03	1.694653E-04	8.418786E-05
3.505506E+03	1.664068E-04	8.265229E-05
3.515408E+03	1.635037E-04	8.119434E-05
3.525311E+03	1.607516E-04	7.981192E-05
3.535213E+03	1.581413E-04	7.850031E-05
3.545116E+03	1.556676E-04	7.725688E-05
3.555019E+03	1.533269E-04	7.607991E-05
3.564921E+03	1.511129E-04	7.496616E-05
3.574824E+03	1.490209E-04	7.391327E-05
3.584726E+03	1.470452E-04	7.291840E-05
3.594629E+03	1.451801E-04	7.197870E-05
3.604531E+03	1.434221E-04	7.109237E-05
3.614434E+03	1.417646E-04	7.025613E-05
3.624337E+03	1.402056E-04	6.946899E-05
3.634239E+03	1.387395E-04	6.872809E-05
3.644142E+03	1.373631E-04	6.803183E-05
3.654044E+03	1.360749E-04	6.737948E-05
3.663947E+03	1.348695E-04	6.676829E-05
3.673849E+03	1.337443E-04	6.619700E-05
3.683752E+03	1.326991E-04	6.566548E-05
3.693654E+03	1.317304E-04	6.517189E-05
3.703557E+03	1.308354E-04	6.471495E-05
3.713460E+03	1.300143E-04	6.429465E-05
3.723362E+03	1.292633E-04	6.390912E-05
3.733265E+03	1.285813E-04	6.355783E-05
3.743167E+03	1.279683E-04	6.324067E-05
3.753070E+03	1.274220E-04	6.295653E-05
3.762972E+03	1.269410E-04	6.270473E-05
3.772875E+03	1.265244E-04	6.248475E-05
3.782777E+03	1.261710E-04	6.229595E-05
3.792680E+03	1.258805E-04	6.213827E-05
3.802583E+03	1.256508E-04	6.201057E-05
3.812485E+03	1.254819E-04	6.191284E-05
3.822388E+03	1.253735E-04	6.184496E-05
3.832290E+03	1.253236E-04	6.180585E-05
3.842193E+03	1.253309E-04	6.179493E-05
3.852095E+03	1.253964E-04	6.181260E-05
3.861998E+03	1.255191E-04	6.185836E-05
3.871900E+03	1.256967E-04	6.193106E-05
3.881803E+03	1.259301E-04	6.203119E-05
3.891706E+03	1.262192E-04	6.215859E-05
3.901608E+03	1.265610E-04	6.231178E-05
3.911511E+03	1.269563E-04	6.249116E-05
3.921413E+03	1.274049E-04	6.269662E-05
3.931316E+03	1.279059E-04	6.292767E-05
3.941218E+03	1.284570E-04	6.318316E-05
3.951121E+03	1.290602E-04	6.346411E-05
3.961024E+03	1.297135E-04	6.376942E-05
3.970926E+03	1.304156E-04	6.409851E-05
3.980829E+03	1.311676E-04	6.445187E-05
3.990731E+03	1.319674E-04	6.482842E-05
4.000634E+03	1.328158E-04	6.522861E-05
4.010536E+03	1.337098E-04	6.565088E-05
4.020439E+03	1.346514E-04	6.609624E-05
4.030341E+03	1.356385E-04	6.656360E-05
4.040244E+03	1.366699E-04	6.705239E-05
4.050147E+03	1.377469E-04	6.756319E-05
4.060049E+03	1.388661E-04	6.809434E-05
4.069952E+03	1.400298E-04	6.864695E-05
4.079854E+03	1.412348E-04	6.921941E-05
4.089757E+03	1.424812E-04	6.981173E-05
4.099659E+03	1.437689E-04	7.042396E-05
4.109562E+03	1.450959E-04	7.105497E-05
4.119464E+03	1.464623E-04	7.170484E-05
4.129367E+03	1.478671E-04	7.237309E-05
4.139270E+03	1.493081E-04	7.305861E-05
4.149172E+03	1.507867E-04	7.376203E-05
4.159075E+03	1.522994E-04	7.448167E-05
4.168977E+03	1.538478E-04	7.521827E-05
4.178880E+03	1.554284E-04	7.597011E-05
4.188782E+03	1.570413E-04	7.673723E-05
4.198685E+03	1.586856E-04	7.751917E-05
4.208587E+03	1.603576E-04	7.831412E-05
4.218490E+03	1.620590E-04	7.912287E-05
4.228393E+03	1.637872E-04	7.994418E-05
4.238295E+03	1.655400E-04	8.077690E-05
4.248198E+03	1.673149E-04	8.161980E-05
4.258100E+03	1.691118E-04	8.247293E-05
4.268003E+03	1.709297E-04	8.333565E-05
4.277905E+03	1.727633E-04	8.420543E-05
4.287808E+03	1.746137E-04	8.508283E-05
4.297711E+03	1.764755E-04	8.596513E-05
4.307613E+03	1.783500E-04	8.685302E-05
4.317516E+03	1.802326E-04	8.774427E-05
4.327418E+03	1.821234E-04	8.863885E-05
4.337321E+03	1.840220E-04	8.953659E-05
4.347223E+03	1.859285E-04	9.043752E-05
4.357126E+03	1.878426E-04	9.134152E-05
4.367028E+03	1.897656E-04	9.224924E-05
4.376931E+03	1.916993E-04	9.316145E-05
4.386834E+03	1.936435E-04	9.407814E-05
4.396736E+03	1.956000E-04	9.500012E-05
4.406639E+03	1.975673E-04	9.592668E-05
4.416541E+03	1.995487E-04	9.685945E-05
4.426444E+03	2.015431E-04	9.779777E-05
4.436346E+03	2.035504E-04	9.874174E-05
4.446249E+03	2.055711E-04	9.969149E-05
4.456151E+03	2.076057E-04	1.006473E-04
4.466054E+03	2.096547E-04	1.016093E-04
4.475957E+03	2.117182E-04	1.025777E-04
4.485859E+03	2.137936E-04	1.035511E-04
4.495762E+03	2.158848E-04	1.045314E-04
4.505664E+03	2.179890E-04	1.055173E-04
4.515567E+03	2.201067E-04	1.065090E-04
4.525469E+03	2.222369E-04	1.075059E-04
4.535372E+03	2.243822E-04	1.085094E-04
4.545274E+03	2.265417E-04	1.095190E-04
4.555177E+03	2.287125E-04	1.105332E-04
4.565080E+03	2.308995E-04	1.115545E-04
4.574982E+03	2.330999E-04	1.125815E-04
4.584885E+03	2.353128E-04	1.136137E-04
4.594787E+03	2.375417E-04	1.146528E-04
4.604690E+03	2.397879E-04	1.156995E-04
4.614592E+03	2.420469E-04	1.167515E-04
4.624495E+03	2.443242E-04	1.178115E-04
4.634398E+03	2.466198E-04	1.188794E-04
4.644300E+03	2.489333E-04	1.199551E-04
4.654203E+03	2.512666E-04	1.210394E-04
4.664105E+03	2.536196E-04	1.221324E-04
4.674008E+03	2.559946E-04	1.232351E-04
4.683910E+03	2.583868E-04	1.243451E-04
4.693813E+03	2.607986E-04	1.254636E-04
4.703715E+03	2.632324E-04	1.265918E-04
4.713618E+03	2.656809E-04	1.277261E-04
4.723521E+03	2.681491E-04	1.288690E-04
4.733423E+03	2.706346E-04	1.300191E-04
4.743326E+03	2.731349E-04	1.311754E-04
4.753228E+03	2.756551E-04	1.323403E-04
4.763131E+03	2.781876E-04	1.335101E-04
4.773033E+03	2.807401E-04	1.346884E-04
4.782936E+03	2.833048E-04	1.358716E-04
4.792838E+03	2.858870E-04	1.370622E-04
4.802741E+03	2.884813E-04	1.382575E-04
4.812644E+03	2.910928E-04	1.394600E-04
4.822546E+03	2.937160E-04	1.406670E-04
4.832449E+03	2.963534E-04	1.418798E-04
4.842351E+03	2.990046E-04	1.430981E-04
4.852254E+03	3.016663E-04	1.443203E-04
4.862156E+03	3.043381E-04	1.455462E-04
4.872059E+03	3.070190E-04	1.467754E-04
4.881961E+03	3.097113E-04	1.480089E-04
4.891864E+03	3.124080E-04	1.492434E-04
4.901767E+03	3.151142E-04	1.504812E-04
4.911669E+03	3.178223E-04	1.517188E-04
4.921572E+03	3.205340E-04	1.529570E-04
4.931474E+03	3.232444E-04	1.541934E-04
4.941377E+03	3.259516E-04	1.554271E-04
4.951279E+03	3.286535E-04	1.566571E-04
4.961182E+03	3.313509E-04	1.578837E-04
4.971085E+03	3.340348E-04	1.591028E-04
4.980987E+03	3.367054E-04	1.603143E-04
4.990890E+03	3.393565E-04	1.615153E-04
5.000792E+03	3.419880E-04	1.627059E-04
5.010695E+03	3.445929E-04	1.638826E-04
5.020597E+03	3.471638E-04	1.650419E-04
5.030500E+03	3.497002E-04	1.661836E-04
5.040402E+03	3.521974E-04	1.673056E-04
5.050305E+03	3.546475E-04	1.684041E-04
5.060208E+03	3.570419E-04	1.694749E-04
5.070110E+03	3.593826E-04	1.705191E-04
5.080013E+03	3.616572E-04	1.715309E-04
5.089915E+03	3.638602E-04	1.725076E-04
5.099818E+03	3.659858E-04	1.734465E-04
5.109720E+03	3.680282E-04	1.743450E-04
5.119623E+03	3.699778E-04	1.751985E-04
5.129525E+03	3.718323E-04	1.760059E-04
5.139428E+03	3.735782E-04	1.767610E-04
5.149331E+03	3.752132E-04	1.774627E-04
5.159233E+03	3.767239E-04	1.781048E-04
5.169136E+03	3.781117E-04	1.786879E-04
5.179038E+03	3.793635E-04	1.792060E-04
5.188941E+03	3.804775E-04	1.796582E-04
5.198843E+03	3.814410E-04	1.800387E-04
5.208746E+03	3.822527E-04	1.803469E-04
5.218648E+03	3.829082E-04	1.805809E-04
5.228551E+03	3.833961E-04	1.807353E-04
5.238454E+03	3.837129E-04	1.808086E-04
5.248356E+03	3.838595E-04	1.808013E-04
5.258259E+03	3.838304E-04	1.807110E-04
5.268161E+03	3.836203E-04	1.805353E-04
5.278064E+03	3.832290E-04	1.802741E-04
5.287966E+03	3.826570E-04	1.799277E-04
5.297869E+03	3.819058E-04	1.794972E-04
5.307772E+03	3.809744E-04	1.789820E-04
5.317674E+03	3.798703E-04	1.783858E-04
5.327577E+03	3.785942E-04	1.777091E-04
5.337479E+03	3.771560E-04	1.769565E-04
5.347382E+03	3.755588E-04	1.761297E-04
5.357284E+03	3.738181E-04	1.752360E-04
5.367187E+03	3.719468E-04	1.742816E-04
5.377089E+03	3.699509E-04	1.732693E-04
5.386992E+03	3.678526E-04	1.722096E-04
5.396895E+03	3.656634E-04	1.711081E-04
5.406797E+03	3.633812E-04	1.699636E-04
5.416700E+03	3.610301E-04	1.687877E-04
5.426602E+03	3.586168E-04	1.675834E-04
5.436505E+03	3.561480E-04	1.663540E-04
5.446407E+03	3.536353E-04	1.651049E-04
5.456310E+03	3.510867E-04	1.638398E-04
5.466212E+03	3.485103E-04	1.625626E-04
5.476115E+03	3.459216E-04	1.612806E-04
5.486018E+03	3.433292E-04	1.599976E-04
5.495920E+03	3.407514E-04	1.587224E-04
5.505823E+03	3.382034E-04	1.574620E-04
5.515725E+03	3.356958E-04	1.562212E-04
5.525628E+03	3.332462E-04	1.550082E-04
5.535530E+03	3.308673E-04	1.538290E-04
5.545433E+03	3.285719E-04	1.526893E-04
5.555335E+03	3.263751E-04	1.515963E-04
5.565238E+03	3.242877E-04	1.505548E-04
5.575141E+03	3.223199E-04	1.495694E-04
5.585043E+03	3.204841E-04	1.486460E-04
5.594946E+03	3.187889E-04	1.477884E-04
5.604848E+03	3.172452E-04	1.470014E-04
5.614751E+03	3.158599E-04	1.462884E-04
5.624653E+03	3.146388E-04	1.456517E-04
5.634556E+03	3.135910E-04	1.450955E-04
5.644459E+03	3.127207E-04	1.446218E-04
5.654361E+03	3.120323E-04	1.442323E-04
5.664264E+03	3.115325E-04	1.439300E-04
5.674166E+03	3.112243E-04	1.437162E-04
5.684069E+03	3.111134E-04	1.435935E-04
5.693971E+03	3.111988E-04	1.435611E-04
5.703874E+03	3.114890E-04	1.436229E-04
5.713776E+03	3.119819E-04	1.437778E-04
5.723679E+03	3.126791E-04	1.440263E-04
5.733582E+03	3.135881E-04	1.443719E-04
5.743484E+03	3.147032E-04	1.448117E-04
5.753387E+03	3.160318E-04	1.453489E-04
5.763289E+03	3.175745E-04	1.459837E-04
5.773192E+03	3.193318E-04	1.467163E-04
5.783094E+03	3.213009E-04	1.475450E-04
5.792997E+03	3.234888E-04	1.484731E-04
5.802899E+03	3.258922E-04	1.494987E-04
5.812802E+03	3.285148E-04	1.506236E-04
5.822705E+03	3.313567E-04	1.518474E-04
5.832607E+03	3.344139E-04	1.531684E-04
5.842510E+03	3.376897E-04	1.545877E-04
5.852412E+03	3.411874E-04	1.561068E-04
5.862315E+03	3.448986E-04	1.577217E-04
5.872217E+03	3.488259E-04	1.594334E-04
5.882120E+03	3.529679E-04	1.612410E-04
5.892022E+03	3.573269E-04	1.631455E-04
5.901925E+03	3.618925E-04	1.651420E-04
5.911828E+03	3.666703E-04	1.672329E-04
5.921730E+03	3.716489E-04	1.694127E-04
5.931633E+03	3.768287E-04	1.716816E-04
5.941535E+03	3.822056E-04	1.740375E-04
5.951438E+03	3.877699E-04	1.764759E-04
5.961340E+03	3.935208E-04	1.789962E-04
5.971243E+03	3.994430E-04	1.815914E-04
5.981146E+03	4.055384E-04	1.842621E-04
5.991048E+03	4.117854E-04	1.869985E-04
6.000951E+03	4.181846E-04	1.898007E-04
6.010853E+03	4.247174E-04	1.926601E-04
6.020756E+03	4.313782E-04	1.955741E-04
6.030658E+03	4.381464E-04	1.985333E-04
6.040561E+03	4.450100E-04	2.015321E-04
6.050463E+03	4.519516E-04	2.045626E-04
6.060366E+03	4.589579E-04	2.076187E-04
6.070269E+03	4.660044E-04	2.106893E-04
6.080171E+03	4.730711E-04	2.137653E-04
6.090074E+03	4.801430E-04	2.168399E-04
6.099976E+03	4.871993E-04	2.199037E-04
6.109879E+03	4.942065E-04	2.229417E-04
6.119781E+03	5.011488E-04	2.259466E-04
6.129684E+03	5.080038E-04	2.289086E-04
6.139586E+03	5.147559E-04	2.318206E-04
6.149489E+03	5.213964E-04	2.346788E-04
6.159392E+03	5.279175E-04	2.374798E-04
6.169294E+03	5.343193E-04	2.402236E-04
6.179197E+03	5.406179E-04	2.429177E-04
6.189099E+03	5.468105E-04	2.455609E-04
6.199002E+03	5.528886E-04	2.481493E-04
6.208904E+03	5.588737E-04	2.506928E-04
6.218807E+03	5.647677E-04	2.531923E-04
6.228709E+03	5.705586E-04	2.556425E-04
6.238612E+03	5.762733E-04	2.580555E-04
6.248515E+03	5.818942E-04	2.604234E-04
6.258417E+03	5.874433E-04	2.627563E-04
6.268320E+03	5.929123E-04	2.650504E-04
6.278222E+03	5.983092E-04	2.673094E-04
6.288125E+03	6.036353E-04	2.695338E-04
6.298027E+03	6.088916E-04	2.717243E-04
6.307930E+03	6.140801E-04	2.738817E-04
6.317833E+03	6.191941E-04	2.760031E-04
6.327735E+03	6.242268E-04	2.780856E-04
6.337638E+03	6.291894E-04	2.801341E-04
6.347540E+03	6.340662E-04	2.821418E-04
6.357443E+03	6.388685E-04	2.841136E-04
6.367345E+03	6.435895E-04	2.860468E-04
6.377248E+03	6.482316E-04	2.879424E-04
6.387150E+03	6.528068E-04	2.898057E-04
6.397053E+03	6.573375E-04	2.916468E-04
6.406956E+03	6.618275E-04	2.934674E-04
6.416858E+03	6.662905E-04	2.952736E-04
6.426761E+03	6.707407E-04	2.970716E-04
6.436663E+03	6.751724E-04	2.988591E-04
6.446566E+03	6.796105E-04	3.006469E-04
6.456468E+03	6.840596E-04	3.024373E-04
6.466371E+03	6.885139E-04	3.042274E-04
6.476273E+03	6.929991E-04	3.060288E-04
6.486176E+03	6.975091E-04	3.078388E-04
6.496079E+03	7.020373E-04	3.096542E-04
6.505981E+03	7.066098E-04	3.114867E-04
6.515884E+03	7.112197E-04	3.133332E-04
6.525786E+03	7.158709E-04	3.151954E-04
6.535689E+03	7.205785E-04	3.170799E-04
6.545591E+03	7.253230E-04	3.189781E-04
6.555494E+03	7.301071E-04	3.208911E-04
6.565396E+03	7.349578E-04	3.228308E-04
6.575299E+03	7.398538E-04	3.247877E-04
6.585202E+03	7.447972E-04	3.267628E-04
6.595104E+03	7.498024E-04	3.287623E-04
6.605007E+03	7.548592E-04	3.307817E-04
6.614909E+03	7.599688E-04	3.328216E-04
6.624812E+03	7.651457E-04	3.348882E-04
6.634714E+03	7.703649E-04	3.369705E-04
6.644617E+03	7.756267E-04	3.390687E-04
6.654520E+03	7.809585E-04	3.411946E-04
6.664422E+03	7.863334E-04	3.433365E-04
6.674325E+03	7.917514E-04	3.454944E-04
6.684227E+03	7.972258E-04	3.476740E-04
6.694130E+03	8.027422E-04	3.498691E-04
6.704032E+03	8.082997E-04	3.520791E-04
6.713935E+03	8.138972E-04	3.543037E-04
6.723837E+03	8.195333E-04	3.565421E-04
6.733740E+03	8.251917E-04	3.587873E-04
6.743643E+03	8.308853E-04	3.610448E-04
6.753545E+03	8.366122E-04	3.633139E-04
6.763448E+03	8.423552E-04	3.655870E-04
6.773350E+03	8.481272E-04	3.678697E-04
6.783253E+03	8.539103E-04	3.701543E-04
6.793155E+03	8.597017E-04	3.724396E-04
6.803058E+03	8.654985E-04	3.747243E-04
6.812960E+03	8.712815E-04	3.770000E-04
6.822863E+03	8.770802E-04	3.792797E-04
6.832766E+03	8.828750E-04	3.815548E-04
6.842668E+03	8.886466E-04	3.838169E-04
6.852571E+03	8.944081E-04	3.860720E-04
6.862473E+03	9.001394E-04	3.883111E-04
6.872376E+03	9.058371E-04	3.905329E-04
6.882278E+03	9.115151E-04	3.927436E-04
6.892181E+03	9.171533E-04	3.949343E-04
6.902083E+03	9.227483E-04	3.971038E-04
6.911986E+03	9.282973E-04	3.992508E-04
6.921889E+03	9.337974E-04	4.013742E-04
6.931791E+03	9.392277E-04	4.034652E-04
6.941694E+03	9.446224E-04	4.055383E-04
6.951596E+03	9.499426E-04	4.075770E-04
6.961499E+03	9.551860E-04	4.095804E-04
6.971401E+03	9.603696E-04	4.115558E-04
6.981304E+03	9.654731E-04	4.134947E-04
6.991207E+03	9.704951E-04	4.153965E-04
7.001109E+03	9.754347E-04	4.172609E-04
7.011012E+03	9.802912E-04	4.190877E-04
7.020914E+03	9.850839E-04	4.208853E-04
7.030817E+03	9.897740E-04	4.226371E-04
7.040719E+03	9.943607E-04	4.243430E-04
7.050622E+03	9.988647E-04	4.260118E-04
7.060524E+03	1.003287E-03	4.276439E-04
7.070427E+03	1.007609E-03	4.292320E-04
7.080330E+03	1.011851E-03	4.307843E-04
7.090232E+03	1.015974E-03	4.322846E-04
7.100135E+03	1.020022E-03	4.337514E-04
7.110037E+03	1.023974E-03	4.351763E-04
7.119940E+03	1.027833E-03	4.365606E-04
7.129842E+03	1.031579E-03	4.378955E-04
7.139745E+03	1.035258E-03	4.392008E-04
7.149647E+03	1.038827E-03	4.404590E-04
7.159550E+03	1.042310E-03	4.416797E-04
7.169453E+03	1.045689E-03	4.428553E-04
7.179355E+03	1.048987E-03	4.439957E-04
7.189258E+03	1.052181E-03	4.450920E-04
7.199160E+03	1.055276E-03	4.461455E-04
7.209063E+03	1.058295E-03	4.471664E-04
7.218965E+03	1.061215E-03	4.481454E-04
7.228868E+03	1.064063E-03	4.490935E-04
7.238770E+03	1.066794E-03	4.499919E-04
7.248673E+03	1.069432E-03	4.508511E-04
7.258576E+03	1.072001E-03	4.516812E-04
7.268478E+03	1.074457E-03	4.524633E-04
7.278381E+03	1.076824E-03	4.532086E-04
7.288283E+03	1.079081E-03	4.539072E-04
7.298186E+03	1.081252E-03	4.545703E-04
7.308088E+03	1.083315E-03	4.551885E-04
7.317991E+03	1.085274E-03	4.557632E-04
7.327894E+03	1.087129E-03	4.562949E-04
7.337796E+03	1.088858E-03	4.567744E-04
7.347699E+03	1.090465E-03	4.572034E-04
7.357601E+03	1.091949E-03	4.575820E-04
7.367504E+03	1.093318E-03	4.579127E-04
7.377406E+03	1.094593E-03	4.582056E-04
7.387309E+03	1.095757E-03	4.584528E-04
7.397211E+03	1.096861E-03	4.586762E-04
7.407114E+03	1.097906E-03	4.588766E-04
7.417017E+03	1.098899E-03	4.590563E-04
7.426919E+03	1.099841E-03	4.592160E-04
7.436822E+03	1.100737E-03	4.593579E-04
7.446724E+03	1.101638E-03	4.595034E-04
7.456627E+03	1.102495E-03	4.596321E-04
7.466529E+03	1.103333E-03	4.597548E-04
7.476432E+03	1.104155E-03	4.598720E-04
7.486334E+03	1.104984E-03	4.599941E-04
7.496237E+03	1.105771E-03	4.600997E-04
7.506140E+03	1.106540E-03	4.602001E-04
7.516042E+03	1.107292E-03	4.602945E-04
7.525945E+03	1.108050E-03	4.603933E-04
7.535847E+03	1.108763E-03	4.604748E-04
7.545750E+03	1.109483E-03	4.605607E-04
7.555652E+03	1.110181E-03	4.606392E-04
7.565555E+03	1.110831E-03	4.606995E-04
7.575457E+03	1.111483E-03	4.607620E-04
7.585360E+03	1.112110E-03	4.608160E-04
7.595263E+03	1.112711E-03	4.608604E-04
7.605165E+03	1.113283E-03	4.608949E-04
7.615068E+03	1.113826E-03	4.609186E-04
7.624970E+03	1.114335E-03	4.609303E-04
7.634873E+03	1.114838E-03	4.609408E-04
7.644775E+03	1.115276E-03	4.609262E-04
7.654678E+03	1.115702E-03	4.609083E-04
7.664581E+03	1.116087E-03	4.608750E-04
7.674483E+03	1.116426E-03	4.608246E-04
7.684386E+03	1.116717E-03	4.607561E-04
