#wls	flux	fluxerr
1.584409E+03	4.268858E-03	1.388629E-03
1.624020E+03	4.394524E-03	1.427183E-03
1.663630E+03	4.516966E-03	1.464476E-03
1.703240E+03	4.635752E-03	1.500362E-03
1.742850E+03	4.748999E-03	1.534233E-03
1.782461E+03	4.855997E-03	1.565858E-03
1.822071E+03	4.955039E-03	1.594692E-03
1.861681E+03	5.045149E-03	1.620428E-03
1.901291E+03	5.124818E-03	1.642591E-03
1.940902E+03	5.192453E-03	1.660686E-03
1.980512E+03	5.245659E-03	1.673966E-03
2.020122E+03	5.282868E-03	1.681957E-03
2.059732E+03	5.302211E-03	1.684095E-03
2.099342E+03	5.300979E-03	1.679559E-03
2.138953E+03	5.276871E-03	1.667668E-03
2.178563E+03	5.227178E-03	1.647622E-03
2.218173E+03	5.149678E-03	1.618788E-03
2.257783E+03	5.044133E-03	1.581167E-03
2.297394E+03	4.911473E-03	1.535129E-03
2.337004E+03	4.755489E-03	1.481937E-03
2.376614E+03	4.579546E-03	1.422713E-03
2.416224E+03	4.386657E-03	1.358459E-03
2.455835E+03	4.180116E-03	1.290257E-03
2.495445E+03	3.962490E-03	1.218952E-03
2.535055E+03	3.736041E-03	1.145291E-03
2.574665E+03	3.503521E-03	1.070160E-03
2.614276E+03	3.266997E-03	9.942262E-04
2.653886E+03	3.028906E-03	9.182627E-04
2.693496E+03	2.791326E-03	8.429224E-04
2.733106E+03	2.556712E-03	7.689622E-04
2.772716E+03	2.327166E-03	6.970208E-04
2.812327E+03	2.104908E-03	6.277625E-04
2.851937E+03	1.892047E-03	5.618048E-04
2.891547E+03	1.690499E-03	4.996965E-04
2.931157E+03	1.501908E-03	4.418945E-04
2.970768E+03	1.327542E-03	3.887341E-04
2.980670E+03	1.286267E-03	3.761917E-04
2.990573E+03	1.245956E-03	3.639575E-04
3.000475E+03	1.206580E-03	3.520229E-04
3.010378E+03	1.168193E-03	3.404022E-04
3.020280E+03	1.130764E-03	3.290861E-04
3.030183E+03	1.094291E-03	3.180727E-04
3.040086E+03	1.058771E-03	3.073603E-04
3.049988E+03	1.024240E-03	2.969592E-04
3.059891E+03	9.906489E-04	2.868535E-04
3.069793E+03	9.580302E-04	2.770521E-04
3.079696E+03	9.263548E-04	2.675457E-04
3.089598E+03	8.956316E-04	2.583358E-04
3.099501E+03	8.658492E-04	2.494185E-04
3.109403E+03	8.369968E-04	2.407896E-04
3.119306E+03	8.090627E-04	2.324449E-04
3.129209E+03	7.820500E-04	2.243844E-04
3.139111E+03	7.559305E-04	2.165991E-04
3.149014E+03	7.307049E-04	2.090884E-04
3.158916E+03	7.063575E-04	2.018468E-04
3.168819E+03	6.828728E-04	1.948691E-04
3.178721E+03	6.602457E-04	1.881529E-04
3.188624E+03	6.384359E-04	1.816859E-04
3.198526E+03	6.174590E-04	1.754716E-04
3.208429E+03	5.972643E-04	1.694949E-04
3.218332E+03	5.778641E-04	1.637583E-04
3.228234E+03	5.592188E-04	1.582498E-04
3.238137E+03	5.413184E-04	1.529658E-04
3.248039E+03	5.241432E-04	1.479000E-04
3.257942E+03	5.076648E-04	1.430435E-04
3.267844E+03	4.918795E-04	1.383946E-04
3.277747E+03	4.767513E-04	1.339423E-04
3.287650E+03	4.622611E-04	1.296806E-04
3.297552E+03	4.484034E-04	1.256073E-04
3.307455E+03	4.351447E-04	1.217122E-04
3.317357E+03	4.224663E-04	1.179895E-04
3.327260E+03	4.103495E-04	1.144333E-04
3.337162E+03	3.987817E-04	1.110394E-04
3.347065E+03	3.877334E-04	1.077991E-04
3.356967E+03	3.771875E-04	1.047069E-04
3.366870E+03	3.671317E-04	1.017589E-04
3.376773E+03	3.575443E-04	9.894854E-05
3.386675E+03	3.484085E-04	9.627057E-05
3.396578E+03	3.396997E-04	9.371769E-05
3.406480E+03	3.314073E-04	9.128647E-05
3.416383E+03	3.235165E-04	8.897236E-05
3.426285E+03	3.160050E-04	8.676875E-05
3.436188E+03	3.088597E-04	8.467158E-05
3.446090E+03	3.020642E-04	8.267596E-05
3.455993E+03	2.956100E-04	8.077911E-05
3.465896E+03	2.894754E-04	7.897468E-05
3.475798E+03	2.836530E-04	7.726029E-05
3.485701E+03	2.781261E-04	7.563101E-05
3.495603E+03	2.728825E-04	7.408315E-05
3.505506E+03	2.679102E-04	7.261313E-05
3.515408E+03	2.631951E-04	7.121677E-05
3.525311E+03	2.587300E-04	6.989181E-05
3.535213E+03	2.544991E-04	6.863369E-05
3.545116E+03	2.504935E-04	6.743971E-05
3.555019E+03	2.467070E-04	6.630793E-05
3.564921E+03	2.431288E-04	6.523516E-05
3.574824E+03	2.397510E-04	6.421898E-05
3.584726E+03	2.365637E-04	6.325657E-05
3.594629E+03	2.335577E-04	6.234517E-05
3.604531E+03	2.307265E-04	6.148283E-05
3.614434E+03	2.280595E-04	6.066651E-05
3.624337E+03	2.255535E-04	5.989514E-05
3.634239E+03	2.231989E-04	5.916597E-05
3.644142E+03	2.209907E-04	5.847746E-05
3.654044E+03	2.189264E-04	5.782879E-05
3.663947E+03	2.169973E-04	5.721746E-05
3.673849E+03	2.151992E-04	5.664217E-05
3.683752E+03	2.135320E-04	5.610278E-05
3.693654E+03	2.119896E-04	5.559744E-05
3.703557E+03	2.105680E-04	5.512499E-05
3.713460E+03	2.092671E-04	5.468522E-05
3.723362E+03	2.080807E-04	5.427636E-05
3.733265E+03	2.070072E-04	5.389783E-05
3.743167E+03	2.060458E-04	5.354931E-05
3.753070E+03	2.051930E-04	5.322967E-05
3.762972E+03	2.044465E-04	5.293823E-05
3.772875E+03	2.038043E-04	5.267429E-05
3.782777E+03	2.032643E-04	5.243720E-05
3.792680E+03	2.028264E-04	5.222676E-05
3.802583E+03	2.024867E-04	5.204186E-05
3.812485E+03	2.022454E-04	5.188238E-05
3.822388E+03	2.021020E-04	5.174811E-05
3.832290E+03	2.020533E-04	5.163807E-05
3.842193E+03	2.020973E-04	5.155161E-05
3.852095E+03	2.022356E-04	5.148903E-05
3.861998E+03	2.024665E-04	5.144976E-05
3.871900E+03	2.027865E-04	5.143279E-05
3.881803E+03	2.031972E-04	5.143837E-05
3.891706E+03	2.036983E-04	5.146636E-05
3.901608E+03	2.042843E-04	5.151524E-05
3.911511E+03	2.049568E-04	5.158526E-05
3.921413E+03	2.057155E-04	5.167622E-05
3.931316E+03	2.065577E-04	5.178738E-05
3.941218E+03	2.074798E-04	5.191770E-05
3.951121E+03	2.084846E-04	5.206776E-05
3.961024E+03	2.095676E-04	5.223635E-05
3.970926E+03	2.107265E-04	5.242278E-05
3.980829E+03	2.119620E-04	5.262713E-05
3.990731E+03	2.132699E-04	5.284824E-05
4.000634E+03	2.146507E-04	5.308617E-05
4.010536E+03	2.160985E-04	5.333934E-05
4.020439E+03	2.176154E-04	5.360822E-05
4.030341E+03	2.191972E-04	5.389166E-05
4.040244E+03	2.208413E-04	5.418892E-05
4.050147E+03	2.225483E-04	5.450012E-05
4.060049E+03	2.243122E-04	5.482371E-05
4.069952E+03	2.261357E-04	5.516025E-05
4.079854E+03	2.280128E-04	5.550821E-05
4.089757E+03	2.299425E-04	5.586733E-05
4.099659E+03	2.319242E-04	5.623736E-05
4.109562E+03	2.339538E-04	5.661727E-05
4.119464E+03	2.360307E-04	5.700686E-05
4.129367E+03	2.381525E-04	5.740552E-05
4.139270E+03	2.403150E-04	5.781220E-05
4.149172E+03	2.425201E-04	5.822727E-05
4.159075E+03	2.447612E-04	5.864916E-05
4.168977E+03	2.470404E-04	5.907832E-05
4.178880E+03	2.493516E-04	5.951326E-05
4.188782E+03	2.516943E-04	5.995387E-05
4.198685E+03	2.540663E-04	6.039958E-05
4.208587E+03	2.564614E-04	6.084891E-05
4.218490E+03	2.588813E-04	6.130226E-05
4.228393E+03	2.613215E-04	6.175857E-05
4.238295E+03	2.637777E-04	6.221680E-05
4.248198E+03	2.662452E-04	6.267589E-05
4.258100E+03	2.687239E-04	6.313580E-05
4.268003E+03	2.712113E-04	6.359595E-05
4.277905E+03	2.736985E-04	6.405432E-05
4.287808E+03	2.761875E-04	6.451137E-05
4.297711E+03	2.786695E-04	6.496510E-05
4.307613E+03	2.811464E-04	6.541601E-05
4.317516E+03	2.836118E-04	6.586263E-05
4.327418E+03	2.860659E-04	6.630508E-05
4.337321E+03	2.885093E-04	6.674351E-05
4.347223E+03	2.909429E-04	6.717825E-05
4.357126E+03	2.933673E-04	6.760942E-05
4.367028E+03	2.957855E-04	6.803780E-05
4.376931E+03	2.982006E-04	6.846414E-05
4.386834E+03	3.006139E-04	6.888879E-05
4.396736E+03	3.030292E-04	6.931265E-05
4.406639E+03	3.054456E-04	6.973557E-05
4.416541E+03	3.078698E-04	7.015910E-05
4.426444E+03	3.103011E-04	7.058314E-05
4.436346E+03	3.127416E-04	7.100816E-05
4.446249E+03	3.151928E-04	7.143459E-05
4.456151E+03	3.176568E-04	7.186287E-05
4.466054E+03	3.201355E-04	7.229349E-05
4.475957E+03	3.226309E-04	7.272684E-05
4.485859E+03	3.251391E-04	7.316206E-05
4.495762E+03	3.276676E-04	7.360084E-05
4.505664E+03	3.302129E-04	7.404237E-05
4.515567E+03	3.327770E-04	7.448708E-05
4.525469E+03	3.353588E-04	7.493473E-05
4.535372E+03	3.379632E-04	7.538640E-05
4.545274E+03	3.405895E-04	7.584192E-05
4.555177E+03	3.432335E-04	7.630033E-05
4.565080E+03	3.459033E-04	7.676341E-05
4.574982E+03	3.485946E-04	7.723023E-05
4.584885E+03	3.513063E-04	7.770048E-05
4.594787E+03	3.540433E-04	7.817526E-05
4.604690E+03	3.568077E-04	7.865502E-05
4.614592E+03	3.595917E-04	7.913799E-05
4.624495E+03	3.624037E-04	7.962606E-05
4.634398E+03	3.652425E-04	8.011888E-05
4.644300E+03	3.681070E-04	8.061624E-05
4.654203E+03	3.709995E-04	8.111859E-05
4.664105E+03	3.739193E-04	8.162578E-05
4.674008E+03	3.768693E-04	8.213842E-05
4.683910E+03	3.798425E-04	8.265496E-05
4.693813E+03	3.828430E-04	8.317626E-05
4.703715E+03	3.858751E-04	8.370326E-05
4.713618E+03	3.889292E-04	8.423387E-05
4.723521E+03	3.920138E-04	8.476986E-05
4.733423E+03	3.951264E-04	8.531072E-05
4.743326E+03	3.982642E-04	8.585581E-05
4.753228E+03	4.014360E-04	8.640699E-05
4.763131E+03	4.046305E-04	8.696185E-05
4.773033E+03	4.078603E-04	8.752305E-05
4.782936E+03	4.111135E-04	8.808804E-05
4.792838E+03	4.143983E-04	8.865851E-05
4.802741E+03	4.177066E-04	8.923277E-05
4.812644E+03	4.210463E-04	8.981245E-05
4.822546E+03	4.244090E-04	9.039577E-05
4.832449E+03	4.277985E-04	9.098349E-05
4.842351E+03	4.312143E-04	9.157553E-05
4.852254E+03	4.346522E-04	9.217094E-05
4.862156E+03	4.381116E-04	9.276961E-05
4.872059E+03	4.415922E-04	9.337147E-05
4.881961E+03	4.450982E-04	9.397736E-05
4.891864E+03	4.486204E-04	9.458536E-05
4.901767E+03	4.521676E-04	9.519731E-05
4.911669E+03	4.557304E-04	9.581125E-05
4.921572E+03	4.593134E-04	9.642808E-05
4.931474E+03	4.629112E-04	9.704671E-05
4.941377E+03	4.665233E-04	9.766702E-05
4.951279E+03	4.701483E-04	9.828873E-05
4.961182E+03	4.737894E-04	9.891248E-05
4.971085E+03	4.774350E-04	9.953587E-05
4.980987E+03	4.810873E-04	1.001594E-04
4.990890E+03	4.847384E-04	1.007813E-04
5.000792E+03	4.883894E-04	1.014020E-04
5.010695E+03	4.920312E-04	1.020195E-04
5.020597E+03	4.956544E-04	1.026319E-04
5.030500E+03	4.992582E-04	1.032391E-04
5.040402E+03	5.028373E-04	1.038400E-04
5.050305E+03	5.063799E-04	1.044322E-04
5.060208E+03	5.098743E-04	1.050134E-04
5.070110E+03	5.133229E-04	1.055841E-04
5.080013E+03	5.167078E-04	1.061406E-04
5.089915E+03	5.200206E-04	1.066814E-04
5.099818E+03	5.232527E-04	1.072047E-04
5.109720E+03	5.263955E-04	1.077089E-04
5.119623E+03	5.294350E-04	1.081911E-04
5.129525E+03	5.323677E-04	1.086508E-04
5.139428E+03	5.351745E-04	1.090842E-04
5.149331E+03	5.378518E-04	1.094907E-04
5.159233E+03	5.403800E-04	1.098663E-04
5.169136E+03	5.427611E-04	1.102117E-04
5.179038E+03	5.449746E-04	1.105228E-04
5.188941E+03	5.470161E-04	1.107988E-04
5.198843E+03	5.488645E-04	1.110356E-04
5.208746E+03	5.505144E-04	1.112324E-04
5.218648E+03	5.519542E-04	1.113869E-04
5.228551E+03	5.531614E-04	1.114947E-04
5.238454E+03	5.541240E-04	1.115537E-04
5.248356E+03	5.548354E-04	1.115627E-04
5.258259E+03	5.552782E-04	1.115183E-04
5.268161E+03	5.554351E-04	1.114174E-04
5.278064E+03	5.552953E-04	1.112580E-04
5.287966E+03	5.548482E-04	1.110382E-04
5.297869E+03	5.540854E-04	1.107565E-04
5.307772E+03	5.529935E-04	1.104105E-04
5.317674E+03	5.515722E-04	1.100004E-04
5.327577E+03	5.498125E-04	1.095245E-04
5.337479E+03	5.477191E-04	1.089842E-04
5.347382E+03	5.452887E-04	1.083788E-04
5.357284E+03	5.425374E-04	1.077120E-04
5.367187E+03	5.394800E-04	1.069867E-04
5.377089E+03	5.361242E-04	1.062047E-04
5.386992E+03	5.325027E-04	1.053728E-04
5.396895E+03	5.286365E-04	1.044951E-04
5.406797E+03	5.245289E-04	1.035726E-04
5.416700E+03	5.202238E-04	1.026139E-04
5.426602E+03	5.157417E-04	1.016233E-04
5.436505E+03	5.111059E-04	1.006055E-04
5.446407E+03	5.063467E-04	9.956642E-05
5.456310E+03	5.014902E-04	9.851130E-05
5.466212E+03	4.965633E-04	9.744546E-05
5.476115E+03	4.916041E-04	9.637636E-05
5.486018E+03	4.866408E-04	9.530949E-05
5.495920E+03	4.817171E-04	9.425330E-05
5.505823E+03	4.768708E-04	9.321511E-05
5.515725E+03	4.721344E-04	9.220115E-05
5.525628E+03	4.675486E-04	9.121927E-05
5.535530E+03	4.631479E-04	9.027599E-05
5.545433E+03	4.589644E-04	8.937747E-05
5.555335E+03	4.550324E-04	8.853017E-05
5.565238E+03	4.513781E-04	8.773900E-05
5.575141E+03	4.480241E-04	8.700816E-05
5.585043E+03	4.449932E-04	8.634189E-05
5.594946E+03	4.423002E-04	8.574280E-05
5.604848E+03	4.399591E-04	8.521343E-05
5.614751E+03	4.379757E-04	8.475465E-05
5.624653E+03	4.363514E-04	8.436654E-05
5.634556E+03	4.350885E-04	8.404931E-05
5.644459E+03	4.341812E-04	8.380163E-05
5.654361E+03	4.336209E-04	8.362165E-05
5.664264E+03	4.334011E-04	8.350789E-05
5.674166E+03	4.335092E-04	8.345775E-05
5.684069E+03	4.339361E-04	8.346931E-05
5.693971E+03	4.346639E-04	8.353891E-05
5.703874E+03	4.356884E-04	8.366560E-05
5.713776E+03	4.369932E-04	8.384608E-05
5.723679E+03	4.385685E-04	8.407828E-05
5.733582E+03	4.404153E-04	8.436229E-05
5.743484E+03	4.425185E-04	8.469501E-05
5.753387E+03	4.448835E-04	8.507739E-05
5.763289E+03	4.475079E-04	8.550881E-05
5.773192E+03	4.503908E-04	8.598896E-05
5.783094E+03	4.535273E-04	8.651677E-05
5.792997E+03	4.569280E-04	8.709411E-05
5.802899E+03	4.605889E-04	8.772009E-05
5.812802E+03	4.645164E-04	8.839579E-05
5.822705E+03	4.687119E-04	8.912134E-05
5.832607E+03	4.731718E-04	8.989590E-05
5.842510E+03	4.779020E-04	9.072049E-05
5.852412E+03	4.829089E-04	9.159613E-05
5.862315E+03	4.881821E-04	9.252076E-05
5.872217E+03	4.937265E-04	9.349513E-05
5.882120E+03	4.995412E-04	9.451893E-05
5.892022E+03	5.056297E-04	9.559271E-05
5.901925E+03	5.119782E-04	9.671370E-05
5.911828E+03	5.185944E-04	9.788323E-05
5.921730E+03	5.254626E-04	9.909820E-05
5.931633E+03	5.325830E-04	1.003585E-04
5.941535E+03	5.399499E-04	1.016630E-04
5.951438E+03	5.475502E-04	1.030089E-04
5.961340E+03	5.553825E-04	1.043961E-04
5.971243E+03	5.634250E-04	1.058201E-04
5.981146E+03	5.716813E-04	1.072817E-04
5.991048E+03	5.801211E-04	1.087750E-04
6.000951E+03	5.887457E-04	1.103002E-04
6.010853E+03	5.975292E-04	1.118522E-04
6.020756E+03	6.064645E-04	1.134298E-04
6.030658E+03	6.155226E-04	1.150273E-04
6.040561E+03	6.246869E-04	1.166417E-04
6.050463E+03	6.339326E-04	1.182681E-04
6.060366E+03	6.432407E-04	1.199032E-04
6.070269E+03	6.525754E-04	1.215400E-04
6.080171E+03	6.619071E-04	1.231732E-04
6.090074E+03	6.712131E-04	1.247984E-04
6.099976E+03	6.804622E-04	1.264099E-04
6.109879E+03	6.896054E-04	1.279987E-04
6.119781E+03	6.986187E-04	1.295602E-04
6.129684E+03	7.074711E-04	1.310888E-04
6.139586E+03	7.161415E-04	1.325808E-04
6.149489E+03	7.246214E-04	1.340346E-04
6.159392E+03	7.329051E-04	1.354492E-04
6.169294E+03	7.409989E-04	1.368259E-04
6.179197E+03	7.489310E-04	1.381700E-04
6.189099E+03	7.567049E-04	1.394822E-04
6.199002E+03	7.643153E-04	1.407617E-04
6.208904E+03	7.717980E-04	1.420151E-04
6.218807E+03	7.791619E-04	1.432442E-04
6.228709E+03	7.863957E-04	1.444468E-04
6.238612E+03	7.935411E-04	1.456308E-04
6.248515E+03	8.005782E-04	1.467925E-04
6.258417E+03	8.075407E-04	1.479381E-04
6.268320E+03	8.144205E-04	1.490661E-04
6.278222E+03	8.212309E-04	1.501789E-04
6.288125E+03	8.279745E-04	1.512771E-04
6.298027E+03	8.346545E-04	1.523611E-04
6.307930E+03	8.412736E-04	1.534316E-04
6.317833E+03	8.478227E-04	1.544867E-04
6.327735E+03	8.542919E-04	1.555247E-04
6.337638E+03	8.606949E-04	1.565482E-04
6.347540E+03	8.670089E-04	1.575530E-04
6.357443E+03	8.732471E-04	1.585414E-04
6.367345E+03	8.793983E-04	1.595114E-04
6.377248E+03	8.854632E-04	1.604633E-04
6.387150E+03	8.914557E-04	1.613994E-04
6.397053E+03	8.974043E-04	1.623251E-04
6.406956E+03	9.033118E-04	1.632407E-04
6.416858E+03	9.091956E-04	1.641495E-04
6.426761E+03	9.150734E-04	1.650545E-04
6.436663E+03	9.209361E-04	1.659542E-04
6.446566E+03	9.268165E-04	1.668545E-04
6.456468E+03	9.327200E-04	1.677562E-04
6.466371E+03	9.386375E-04	1.686577E-04
6.476273E+03	9.446032E-04	1.695651E-04
6.486176E+03	9.506076E-04	1.704767E-04
6.496079E+03	9.566408E-04	1.713907E-04
6.505981E+03	9.627374E-04	1.723133E-04
6.515884E+03	9.688872E-04	1.732425E-04
6.525786E+03	9.750946E-04	1.741792E-04
6.535689E+03	9.813799E-04	1.751268E-04
6.545591E+03	9.877154E-04	1.760805E-04
6.555494E+03	9.941042E-04	1.770408E-04
6.565396E+03	1.000582E-03	1.780139E-04
6.575299E+03	1.007118E-03	1.789944E-04
6.585202E+03	1.013714E-03	1.799825E-04
6.595104E+03	1.020388E-03	1.809815E-04
6.605007E+03	1.027123E-03	1.819883E-04
6.614909E+03	1.033918E-03	1.830028E-04
6.624812E+03	1.040791E-03	1.840279E-04
6.634714E+03	1.047705E-03	1.850572E-04
6.644617E+03	1.054656E-03	1.860900E-04
6.654520E+03	1.061678E-03	1.871325E-04
6.664422E+03	1.068732E-03	1.881775E-04
6.674325E+03	1.075814E-03	1.892244E-04
6.684227E+03	1.082938E-03	1.902758E-04
6.694130E+03	1.090081E-03	1.913275E-04
6.704032E+03	1.097237E-03	1.923787E-04
6.713935E+03	1.104401E-03	1.934284E-04
6.723837E+03	1.111567E-03	1.944757E-04
6.733740E+03	1.118708E-03	1.955159E-04
6.743643E+03	1.125839E-03	1.965517E-04
6.753545E+03	1.132952E-03	1.975818E-04
6.763448E+03	1.140021E-03	1.986017E-04
6.773350E+03	1.147059E-03	1.996139E-04
6.783253E+03	1.154038E-03	2.006135E-04
6.793155E+03	1.160952E-03	2.015996E-04
6.803058E+03	1.167794E-03	2.025712E-04
6.812960E+03	1.174536E-03	2.035233E-04
6.822863E+03	1.181214E-03	2.044627E-04
6.832766E+03	1.187802E-03	2.053847E-04
6.842668E+03	1.194271E-03	2.062848E-04
6.852571E+03	1.200639E-03	2.071659E-04
6.862473E+03	1.206877E-03	2.080234E-04
6.872376E+03	1.212979E-03	2.088567E-04
6.882278E+03	1.218965E-03	2.096689E-04
6.892181E+03	1.224806E-03	2.104556E-04
6.902083E+03	1.230496E-03	2.112159E-04
6.911986E+03	1.236031E-03	2.119494E-04
6.921889E+03	1.241408E-03	2.126557E-04
6.931791E+03	1.246598E-03	2.133302E-04
6.941694E+03	1.251647E-03	2.139808E-04
6.951596E+03	1.256503E-03	2.145992E-04
6.961499E+03	1.261165E-03	2.151852E-04
6.971401E+03	1.265656E-03	2.157432E-04
6.981304E+03	1.269952E-03	2.162692E-04
6.991207E+03	1.274052E-03	2.167634E-04
7.001109E+03	1.277959E-03	2.172266E-04
7.011012E+03	1.281674E-03	2.176594E-04
7.020914E+03	1.285228E-03	2.180671E-04
7.030817E+03	1.288575E-03	2.184421E-04
7.040719E+03	1.291720E-03	2.187859E-04
7.050622E+03	1.294698E-03	2.191043E-04
7.060524E+03	1.297516E-03	2.193993E-04
7.070427E+03	1.300161E-03	2.196684E-04
7.080330E+03	1.302669E-03	2.199183E-04
7.090232E+03	1.304999E-03	2.201424E-04
7.100135E+03	1.307219E-03	2.203523E-04
7.110037E+03	1.309316E-03	2.205460E-04
7.119940E+03	1.311305E-03	2.207265E-04
7.129842E+03	1.313174E-03	2.208919E-04
7.139745E+03	1.314993E-03	2.210543E-04
7.149647E+03	1.316724E-03	2.212076E-04
7.159550E+03	1.318409E-03	2.213589E-04
7.169453E+03	1.320034E-03	2.215064E-04
7.179355E+03	1.321639E-03	2.216570E-04
7.189258E+03	1.323209E-03	2.218082E-04
7.199160E+03	1.324750E-03	2.219615E-04
7.209063E+03	1.326297E-03	2.221229E-04
7.218965E+03	1.327824E-03	2.222884E-04
7.228868E+03	1.329360E-03	2.224629E-04
7.238770E+03	1.330844E-03	2.226366E-04
7.248673E+03	1.332300E-03	2.228137E-04
7.258576E+03	1.333748E-03	2.229980E-04
7.268478E+03	1.335122E-03	2.231786E-04
7.278381E+03	1.336441E-03	2.233588E-04
7.288283E+03	1.337665E-03	2.235323E-04
7.298186E+03	1.338813E-03	2.237025E-04
7.308088E+03	1.339845E-03	2.238632E-04
7.317991E+03	1.340754E-03	2.240132E-04
7.327894E+03	1.341532E-03	2.241516E-04
7.337796E+03	1.342146E-03	2.242730E-04
7.347699E+03	1.342594E-03	2.243771E-04
7.357601E+03	1.342874E-03	2.244644E-04
7.367504E+03	1.342990E-03	2.245353E-04
7.377406E+03	1.342978E-03	2.245962E-04
7.387309E+03	1.342815E-03	2.246434E-04
7.397211E+03	1.342572E-03	2.246890E-04
7.407114E+03	1.342261E-03	2.247353E-04
7.417017E+03	1.341897E-03	2.247848E-04
7.426919E+03	1.341492E-03	2.248399E-04
7.436822E+03	1.341060E-03	2.249032E-04
7.446724E+03	1.340671E-03	2.249863E-04
7.456627E+03	1.340263E-03	2.250790E-04
7.466529E+03	1.339864E-03	2.251858E-04
7.476432E+03	1.339471E-03	2.253058E-04
7.486334E+03	1.339110E-03	2.254436E-04
7.496237E+03	1.338718E-03	2.255878E-04
7.506140E+03	1.338321E-03	2.257430E-04
7.516042E+03	1.337918E-03	2.259089E-04
7.525945E+03	1.337541E-03	2.260903E-04
7.535847E+03	1.337127E-03	2.262767E-04
7.545750E+03	1.336741E-03	2.264786E-04
7.555652E+03	1.336354E-03	2.266912E-04
7.565555E+03	1.335938E-03	2.269093E-04
7.575457E+03	1.335560E-03	2.271442E-04
7.585360E+03	1.335195E-03	2.273913E-04
7.595263E+03	1.334846E-03	2.276512E-04
7.605165E+03	1.334520E-03	2.279246E-04
7.615068E+03	1.334221E-03	2.282121E-04
7.624970E+03	1.333953E-03	2.285143E-04
7.634873E+03	1.333753E-03	2.288373E-04
7.644775E+03	1.333558E-03	2.291699E-04
7.654678E+03	1.333433E-03	2.295235E-04
7.664581E+03	1.333347E-03	2.298922E-04
7.674483E+03	1.333296E-03	2.302756E-04
7.684386E+03	1.333279E-03	2.306731E-04
