#wls	flux	fluxerr
1.584409E+03	5.665794E-03	1.694361E-03
1.624020E+03	5.832024E-03	1.744051E-03
1.663630E+03	5.987435E-03	1.790502E-03
1.703240E+03	6.130787E-03	1.833345E-03
1.742850E+03	6.258324E-03	1.871456E-03
1.782461E+03	6.369742E-03	1.904744E-03
1.822071E+03	6.461140E-03	1.932043E-03
1.861681E+03	6.531503E-03	1.953049E-03
1.901291E+03	6.578658E-03	1.967113E-03
1.940902E+03	6.599488E-03	1.973304E-03
1.980512E+03	6.593205E-03	1.971385E-03
2.020122E+03	6.557695E-03	1.960726E-03
2.059732E+03	6.491279E-03	1.940824E-03
2.099342E+03	6.392820E-03	1.911341E-03
2.138953E+03	6.261020E-03	1.871889E-03
2.178563E+03	6.094008E-03	1.821910E-03
2.218173E+03	5.890298E-03	1.760959E-03
2.257783E+03	5.651118E-03	1.689406E-03
2.297394E+03	5.381387E-03	1.608722E-03
2.337004E+03	5.089281E-03	1.521352E-03
2.376614E+03	4.781362E-03	1.429259E-03
2.416224E+03	4.463582E-03	1.334222E-03
2.455835E+03	4.140319E-03	1.237551E-03
2.495445E+03	3.816100E-03	1.140599E-03
2.535055E+03	3.494610E-03	1.044468E-03
2.574665E+03	3.179584E-03	9.502749E-04
2.614276E+03	2.874020E-03	8.589157E-04
2.653886E+03	2.580661E-03	7.712102E-04
2.693496E+03	2.301913E-03	6.878773E-04
2.733106E+03	2.039588E-03	6.094582E-04
2.772716E+03	1.795177E-03	5.363981E-04
2.812327E+03	1.569734E-03	4.690118E-04
2.851937E+03	1.363991E-03	4.075171E-04
2.891547E+03	1.178321E-03	3.520252E-04
2.931157E+03	1.012662E-03	3.025170E-04
2.970768E+03	8.665502E-04	2.588527E-04
2.980670E+03	8.329793E-04	2.488207E-04
2.990573E+03	8.005421E-04	2.391276E-04
3.000475E+03	7.692512E-04	2.297772E-04
3.010378E+03	7.390452E-04	2.207511E-04
3.020280E+03	7.099325E-04	2.120519E-04
3.030183E+03	6.818853E-04	2.036711E-04
3.040086E+03	6.548895E-04	1.956046E-04
3.049988E+03	6.288900E-04	1.878358E-04
3.059891E+03	6.038988E-04	1.803685E-04
3.069793E+03	5.798621E-04	1.731865E-04
3.079696E+03	5.567751E-04	1.662883E-04
3.089598E+03	5.346090E-04	1.596654E-04
3.099501E+03	5.133246E-04	1.533060E-04
3.109403E+03	4.929141E-04	1.472078E-04
3.119306E+03	4.733391E-04	1.413593E-04
3.129209E+03	4.545816E-04	1.357551E-04
3.139111E+03	4.366129E-04	1.303866E-04
3.149014E+03	4.194065E-04	1.252460E-04
3.158916E+03	4.029426E-04	1.203272E-04
3.168819E+03	3.871943E-04	1.156223E-04
3.178721E+03	3.721296E-04	1.111217E-04
3.188624E+03	3.577353E-04	1.068214E-04
3.198526E+03	3.439807E-04	1.027123E-04
3.208429E+03	3.308464E-04	9.878851E-05
3.218332E+03	3.183090E-04	9.504308E-05
3.228234E+03	3.063396E-04	9.146739E-05
3.238137E+03	2.949257E-04	8.805770E-05
3.248039E+03	2.840358E-04	8.480453E-05
3.257942E+03	2.736574E-04	8.170423E-05
3.267844E+03	2.637693E-04	7.875042E-05
3.277747E+03	2.543434E-04	7.593469E-05
3.287650E+03	2.453681E-04	7.325359E-05
3.297552E+03	2.368242E-04	7.070137E-05
3.307455E+03	2.286898E-04	6.827153E-05
3.317357E+03	2.209477E-04	6.595885E-05
3.327260E+03	2.135810E-04	6.375834E-05
3.337162E+03	2.065736E-04	6.166517E-05
3.347065E+03	1.999099E-04	5.967466E-05
3.356967E+03	1.935749E-04	5.778235E-05
3.366870E+03	1.875517E-04	5.598318E-05
3.376773E+03	1.818245E-04	5.427243E-05
3.386675E+03	1.763850E-04	5.264762E-05
3.396578E+03	1.712140E-04	5.110302E-05
3.406480E+03	1.663022E-04	4.963583E-05
3.416383E+03	1.616363E-04	4.824209E-05
3.426285E+03	1.572057E-04	4.691864E-05
3.436188E+03	1.529967E-04	4.566138E-05
3.446090E+03	1.489983E-04	4.446703E-05
3.455993E+03	1.452018E-04	4.333297E-05
3.465896E+03	1.415956E-04	4.225575E-05
3.475798E+03	1.381721E-04	4.123308E-05
3.485701E+03	1.349180E-04	4.026100E-05
3.495603E+03	1.318267E-04	3.933756E-05
3.505506E+03	1.288880E-04	3.845968E-05
3.515408E+03	1.260937E-04	3.762492E-05
3.525311E+03	1.234360E-04	3.683096E-05
3.535213E+03	1.209053E-04	3.607493E-05
3.545116E+03	1.184975E-04	3.535560E-05
3.555019E+03	1.162051E-04	3.467072E-05
3.564921E+03	1.140212E-04	3.401823E-05
3.574824E+03	1.119424E-04	3.339714E-05
3.584726E+03	1.099614E-04	3.280525E-05
3.594629E+03	1.080734E-04	3.224111E-05
3.604531E+03	1.062737E-04	3.170336E-05
3.614434E+03	1.045581E-04	3.119070E-05
3.624337E+03	1.029223E-04	3.070189E-05
3.634239E+03	1.013625E-04	3.023576E-05
3.644142E+03	9.987589E-05	2.979146E-05
3.654044E+03	9.845957E-05	2.936816E-05
3.663947E+03	9.711005E-05	2.896480E-05
3.673849E+03	9.582728E-05	2.858137E-05
3.683752E+03	9.460695E-05	2.821657E-05
3.693654E+03	9.344821E-05	2.787016E-05
3.703557E+03	9.234852E-05	2.754137E-05
3.713460E+03	9.130626E-05	2.722972E-05
3.723362E+03	9.032128E-05	2.693516E-05
3.733265E+03	8.938965E-05	2.665653E-05
3.743167E+03	8.851125E-05	2.639378E-05
3.753070E+03	8.768526E-05	2.614666E-05
3.762972E+03	8.690856E-05	2.591425E-05
3.772875E+03	8.618106E-05	2.569652E-05
3.782777E+03	8.550190E-05	2.549321E-05
3.792680E+03	8.486885E-05	2.530365E-05
3.802583E+03	8.428040E-05	2.512739E-05
3.812485E+03	8.373715E-05	2.496462E-05
3.822388E+03	8.323628E-05	2.481448E-05
3.832290E+03	8.277764E-05	2.467694E-05
3.842193E+03	8.235990E-05	2.455158E-05
3.852095E+03	8.198231E-05	2.443820E-05
3.861998E+03	8.164418E-05	2.433659E-05
3.871900E+03	8.134348E-05	2.424613E-05
3.881803E+03	8.107964E-05	2.416665E-05
3.891706E+03	8.085261E-05	2.409815E-05
3.901608E+03	8.066115E-05	2.404024E-05
3.911511E+03	8.050407E-05	2.399258E-05
3.921413E+03	8.038080E-05	2.395499E-05
3.931316E+03	8.029020E-05	2.392713E-05
3.941218E+03	8.023170E-05	2.390883E-05
3.951121E+03	8.020486E-05	2.389996E-05
3.961024E+03	8.020919E-05	2.390037E-05
3.970926E+03	8.024304E-05	2.390958E-05
3.980829E+03	8.030595E-05	2.392743E-05
3.990731E+03	8.039756E-05	2.395382E-05
4.000634E+03	8.051746E-05	2.398864E-05
4.010536E+03	8.066473E-05	2.403159E-05
4.020439E+03	8.083839E-05	2.408240E-05
4.030341E+03	8.103813E-05	2.414097E-05
4.040244E+03	8.126306E-05	2.420703E-05
4.050147E+03	8.151289E-05	2.428049E-05
4.060049E+03	8.178675E-05	2.436109E-05
4.069952E+03	8.208442E-05	2.444878E-05
4.079854E+03	8.240503E-05	2.454328E-05
4.089757E+03	8.274780E-05	2.464436E-05
4.099659E+03	8.311253E-05	2.475197E-05
4.109562E+03	8.349839E-05	2.486585E-05
4.119464E+03	8.390524E-05	2.498597E-05
4.129367E+03	8.433172E-05	2.511191E-05
4.139270E+03	8.477764E-05	2.524363E-05
4.149172E+03	8.524161E-05	2.538069E-05
4.159075E+03	8.572414E-05	2.552327E-05
4.168977E+03	8.622392E-05	2.567096E-05
4.178880E+03	8.674078E-05	2.582371E-05
4.188782E+03	8.727266E-05	2.598091E-05
4.198685E+03	8.782019E-05	2.614274E-05
4.208587E+03	8.838126E-05	2.630859E-05
4.218490E+03	8.895646E-05	2.647861E-05
4.228393E+03	8.954367E-05	2.665219E-05
4.238295E+03	9.014143E-05	2.682887E-05
4.248198E+03	9.075034E-05	2.700886E-05
4.258100E+03	9.136750E-05	2.719127E-05
4.268003E+03	9.199354E-05	2.737629E-05
4.277905E+03	9.262548E-05	2.756305E-05
4.287808E+03	9.326392E-05	2.775171E-05
4.297711E+03	9.390728E-05	2.794180E-05
4.307613E+03	9.455394E-05	2.813285E-05
4.317516E+03	9.520380E-05	2.832482E-05
4.327418E+03	9.585595E-05	2.851745E-05
4.337321E+03	9.651104E-05	2.871092E-05
4.347223E+03	9.716741E-05	2.890473E-05
4.357126E+03	9.782657E-05	2.909935E-05
4.367028E+03	9.848845E-05	2.929475E-05
4.376931E+03	9.915309E-05	2.949093E-05
4.386834E+03	9.982043E-05	2.968789E-05
4.396736E+03	1.004914E-04	2.988590E-05
4.406639E+03	1.011652E-04	3.008472E-05
4.416541E+03	1.018429E-04	3.028465E-05
4.426444E+03	1.025245E-04	3.048571E-05
4.436346E+03	1.032102E-04	3.068798E-05
4.446249E+03	1.038995E-04	3.089125E-05
4.456151E+03	1.045924E-04	3.109559E-05
4.466054E+03	1.052884E-04	3.130080E-05
4.475957E+03	1.059887E-04	3.150725E-05
4.485859E+03	1.066918E-04	3.171449E-05
4.495762E+03	1.073980E-04	3.192262E-05
4.505664E+03	1.081076E-04	3.213172E-05
4.515567E+03	1.088192E-04	3.234140E-05
4.525469E+03	1.095342E-04	3.255203E-05
4.535372E+03	1.102511E-04	3.276319E-05
4.545274E+03	1.109704E-04	3.297502E-05
4.555177E+03	1.116906E-04	3.318711E-05
4.565080E+03	1.124133E-04	3.339988E-05
4.574982E+03	1.131381E-04	3.361322E-05
4.584885E+03	1.138636E-04	3.382673E-05
4.594787E+03	1.145903E-04	3.404059E-05
4.604690E+03	1.153191E-04	3.425500E-05
4.614592E+03	1.160496E-04	3.446989E-05
4.624495E+03	1.167806E-04	3.468486E-05
4.634398E+03	1.175148E-04	3.490076E-05
4.644300E+03	1.182532E-04	3.511787E-05
4.654203E+03	1.189947E-04	3.533582E-05
4.664105E+03	1.197401E-04	3.555493E-05
4.674008E+03	1.204906E-04	3.577549E-05
4.683910E+03	1.212440E-04	3.599685E-05
4.693813E+03	1.220013E-04	3.621933E-05
4.703715E+03	1.227614E-04	3.644261E-05
4.713618E+03	1.235256E-04	3.666704E-05
4.723521E+03	1.242938E-04	3.689261E-05
4.733423E+03	1.250650E-04	3.711903E-05
4.743326E+03	1.258404E-04	3.734665E-05
4.753228E+03	1.266190E-04	3.757518E-05
4.763131E+03	1.274021E-04	3.780498E-05
4.773033E+03	1.281887E-04	3.803576E-05
4.782936E+03	1.289788E-04	3.826755E-05
4.792838E+03	1.297727E-04	3.850041E-05
4.802741E+03	1.305717E-04	3.873472E-05
4.812644E+03	1.313748E-04	3.897019E-05
4.822546E+03	1.321822E-04	3.920687E-05
4.832449E+03	1.329926E-04	3.944442E-05
4.842351E+03	1.338090E-04	3.968365E-05
4.852254E+03	1.346300E-04	3.992423E-05
4.862156E+03	1.354559E-04	4.016620E-05
4.872059E+03	1.362857E-04	4.040923E-05
4.881961E+03	1.371206E-04	4.065375E-05
4.891864E+03	1.379595E-04	4.089939E-05
4.901767E+03	1.388025E-04	4.114618E-05
4.911669E+03	1.396510E-04	4.139455E-05
4.921572E+03	1.405037E-04	4.164410E-05
4.931474E+03	1.413608E-04	4.189488E-05
4.941377E+03	1.422208E-04	4.214647E-05
4.951279E+03	1.430851E-04	4.239928E-05
4.961182E+03	1.439538E-04	4.265330E-05
4.971085E+03	1.448253E-04	4.290811E-05
4.980987E+03	1.456997E-04	4.316369E-05
4.990890E+03	1.465767E-04	4.342001E-05
5.000792E+03	1.474550E-04	4.367660E-05
5.010695E+03	1.483357E-04	4.393385E-05
5.020597E+03	1.492185E-04	4.419169E-05
5.030500E+03	1.501006E-04	4.444922E-05
5.040402E+03	1.509831E-04	4.470678E-05
5.050305E+03	1.518655E-04	4.496429E-05
5.060208E+03	1.527463E-04	4.522121E-05
5.070110E+03	1.536249E-04	4.547744E-05
5.080013E+03	1.545011E-04	4.573287E-05
5.089915E+03	1.553744E-04	4.598738E-05
5.099818E+03	1.562428E-04	4.624035E-05
5.109720E+03	1.571073E-04	4.649211E-05
5.119623E+03	1.579644E-04	4.674158E-05
5.129525E+03	1.588149E-04	4.698903E-05
5.139428E+03	1.596565E-04	4.723381E-05
5.149331E+03	1.604888E-04	4.747572E-05
5.159233E+03	1.613108E-04	4.771452E-05
5.169136E+03	1.621218E-04	4.795000E-05
5.179038E+03	1.629178E-04	4.818097E-05
5.188941E+03	1.637011E-04	4.840811E-05
5.198843E+03	1.644692E-04	4.863067E-05
5.208746E+03	1.652211E-04	4.884839E-05
5.218648E+03	1.659544E-04	4.906051E-05
5.228551E+03	1.666679E-04	4.926672E-05
5.238454E+03	1.673607E-04	4.946673E-05
5.248356E+03	1.680317E-04	4.966025E-05
5.258259E+03	1.686801E-04	4.984698E-05
5.268161E+03	1.693031E-04	5.002614E-05
5.278064E+03	1.699030E-04	5.019843E-05
5.287966E+03	1.704757E-04	5.036260E-05
5.297869E+03	1.710201E-04	5.051836E-05
5.307772E+03	1.715388E-04	5.066646E-05
5.317674E+03	1.720277E-04	5.080566E-05
5.327577E+03	1.724893E-04	5.093677E-05
5.337479E+03	1.729214E-04	5.105907E-05
5.347382E+03	1.733248E-04	5.117288E-05
5.357284E+03	1.736975E-04	5.127754E-05
5.367187E+03	1.740425E-04	5.137395E-05
5.377089E+03	1.743575E-04	5.146147E-05
5.386992E+03	1.746440E-04	5.154052E-05
5.396895E+03	1.748983E-04	5.161002E-05
5.406797E+03	1.751221E-04	5.167044E-05
5.416700E+03	1.753134E-04	5.172124E-05
5.426602E+03	1.754704E-04	5.176188E-05
5.436505E+03	1.755950E-04	5.179292E-05
5.446407E+03	1.756839E-04	5.181336E-05
5.456310E+03	1.757353E-04	5.182272E-05
5.466212E+03	1.757496E-04	5.182109E-05
5.476115E+03	1.757236E-04	5.180753E-05
5.486018E+03	1.756593E-04	5.178267E-05
5.495920E+03	1.755520E-04	5.174508E-05
5.505823E+03	1.754056E-04	5.169595E-05
5.515725E+03	1.752190E-04	5.163494E-05
5.525628E+03	1.749910E-04	5.156170E-05
5.535530E+03	1.747222E-04	5.147642E-05
5.545433E+03	1.744134E-04	5.137933E-05
5.555335E+03	1.740635E-04	5.127012E-05
5.565238E+03	1.736769E-04	5.115007E-05
5.575141E+03	1.732507E-04	5.101838E-05
5.585043E+03	1.727895E-04	5.087636E-05
5.594946E+03	1.722906E-04	5.072322E-05
5.604848E+03	1.717583E-04	5.056029E-05
5.614751E+03	1.711938E-04	5.038785E-05
5.624653E+03	1.705962E-04	5.020567E-05
5.634556E+03	1.699683E-04	5.001457E-05
5.644459E+03	1.693110E-04	4.981486E-05
5.654361E+03	1.686273E-04	4.960737E-05
5.664264E+03	1.679183E-04	4.939243E-05
5.674166E+03	1.671832E-04	4.916986E-05
5.684069E+03	1.664268E-04	4.894103E-05
5.693971E+03	1.656502E-04	4.870628E-05
5.703874E+03	1.648528E-04	4.846545E-05
5.713776E+03	1.640377E-04	4.821944E-05
5.723679E+03	1.632079E-04	4.796912E-05
5.733582E+03	1.623647E-04	4.771487E-05
5.743484E+03	1.615075E-04	4.745656E-05
5.753387E+03	1.606395E-04	4.719510E-05
5.763289E+03	1.597637E-04	4.693140E-05
5.773192E+03	1.588816E-04	4.666585E-05
5.783094E+03	1.579927E-04	4.639835E-05
5.792997E+03	1.571002E-04	4.612983E-05
5.802899E+03	1.562055E-04	4.586068E-05
5.812802E+03	1.553116E-04	4.559182E-05
5.822705E+03	1.544200E-04	4.532367E-05
5.832607E+03	1.535303E-04	4.505611E-05
5.842510E+03	1.526457E-04	4.479007E-05
5.852412E+03	1.517657E-04	4.452542E-05
5.862315E+03	1.508967E-04	4.426406E-05
5.872217E+03	1.500350E-04	4.400485E-05
5.882120E+03	1.491835E-04	4.374869E-05
5.892022E+03	1.483452E-04	4.349641E-05
5.901925E+03	1.475195E-04	4.324787E-05
5.911828E+03	1.467075E-04	4.300340E-05
5.921730E+03	1.459121E-04	4.276381E-05
5.931633E+03	1.451326E-04	4.252891E-05
5.941535E+03	1.443716E-04	4.229947E-05
5.951438E+03	1.436269E-04	4.207481E-05
5.961340E+03	1.429024E-04	4.185614E-05
5.971243E+03	1.421959E-04	4.164274E-05
5.981146E+03	1.415113E-04	4.143579E-05
5.991048E+03	1.408444E-04	4.123406E-05
6.000951E+03	1.401992E-04	4.103870E-05
6.010853E+03	1.395747E-04	4.084941E-05
6.020756E+03	1.389714E-04	4.066635E-05
6.030658E+03	1.383864E-04	4.048868E-05
6.040561E+03	1.378236E-04	4.031750E-05
6.050463E+03	1.372784E-04	4.015150E-05
6.060366E+03	1.367544E-04	3.999171E-05
6.070269E+03	1.362469E-04	3.983676E-05
6.080171E+03	1.357562E-04	3.968674E-05
6.090074E+03	1.352807E-04	3.954118E-05
6.099976E+03	1.348207E-04	3.940013E-05
6.109879E+03	1.343711E-04	3.926214E-05
6.119781E+03	1.339318E-04	3.912720E-05
6.129684E+03	1.335012E-04	3.899479E-05
6.139586E+03	1.330792E-04	3.886488E-05
6.149489E+03	1.326655E-04	3.873740E-05
6.159392E+03	1.322632E-04	3.861329E-05
6.169294E+03	1.318773E-04	3.849393E-05
6.179197E+03	1.315091E-04	3.837977E-05
6.189099E+03	1.311618E-04	3.827171E-05
6.199002E+03	1.308387E-04	3.817068E-05
6.208904E+03	1.305411E-04	3.807711E-05
6.218807E+03	1.302723E-04	3.799194E-05
6.228709E+03	1.300339E-04	3.791561E-05
6.238612E+03	1.298273E-04	3.784856E-05
6.248515E+03	1.296560E-04	3.779178E-05
6.258417E+03	1.295199E-04	3.774522E-05
6.268320E+03	1.294223E-04	3.770987E-05
6.278222E+03	1.293615E-04	3.768523E-05
6.288125E+03	1.293392E-04	3.767176E-05
6.298027E+03	1.293553E-04	3.766945E-05
6.307930E+03	1.294118E-04	3.767886E-05
6.317833E+03	1.295068E-04	3.769943E-05
6.327735E+03	1.296403E-04	3.773119E-05
6.337638E+03	1.298106E-04	3.777358E-05
6.347540E+03	1.300139E-04	3.782551E-05
6.357443E+03	1.302482E-04	3.788641E-05
6.367345E+03	1.305134E-04	3.795625E-05
6.377248E+03	1.308095E-04	3.803499E-05
6.387150E+03	1.311363E-04	3.812261E-05
6.397053E+03	1.314959E-04	3.821966E-05
6.406956E+03	1.318901E-04	3.832669E-05
6.416858E+03	1.323190E-04	3.844373E-05
6.426761E+03	1.327806E-04	3.857020E-05
6.436663E+03	1.332792E-04	3.870729E-05
6.446566E+03	1.338147E-04	3.885505E-05
6.456468E+03	1.343854E-04	3.901289E-05
6.466371E+03	1.349934E-04	3.918147E-05
6.476273E+03	1.356390E-04	3.936085E-05
6.486176E+03	1.363202E-04	3.955045E-05
6.496079E+03	1.370373E-04	3.975033E-05
6.505981E+03	1.377948E-04	3.996180E-05
6.515884E+03	1.385863E-04	4.018304E-05
6.525786E+03	1.394167E-04	4.041537E-05
6.535689E+03	1.402861E-04	4.065890E-05
6.545591E+03	1.411902E-04	4.091235E-05
6.555494E+03	1.421341E-04	4.117716E-05
6.565396E+03	1.431133E-04	4.145204E-05
6.575299E+03	1.441327E-04	4.173843E-05
6.585202E+03	1.451881E-04	4.203505E-05
6.595104E+03	1.462821E-04	4.234267E-05
6.605007E+03	1.474150E-04	4.266138E-05
6.614909E+03	1.485847E-04	4.299057E-05
6.624812E+03	1.497915E-04	4.333029E-05
6.634714E+03	1.510382E-04	4.368139E-05
6.644617E+03	1.523228E-04	4.404321E-05
6.654520E+03	1.536455E-04	4.441585E-05
6.664422E+03	1.550066E-04	4.479940E-05
6.674325E+03	1.564065E-04	4.519394E-05
6.684227E+03	1.578457E-04	4.559958E-05
6.694130E+03	1.593244E-04	4.601643E-05
6.704032E+03	1.608402E-04	4.644376E-05
6.713935E+03	1.623963E-04	4.688248E-05
6.723837E+03	1.639931E-04	4.733271E-05
6.733740E+03	1.656281E-04	4.779371E-05
6.743643E+03	1.673046E-04	4.826642E-05
6.753545E+03	1.690201E-04	4.875009E-05
6.763448E+03	1.707747E-04	4.924481E-05
6.773350E+03	1.725690E-04	4.975065E-05
6.783253E+03	1.744031E-04	5.026772E-05
6.793155E+03	1.762808E-04	5.079704E-05
6.803058E+03	1.781959E-04	5.133685E-05
6.812960E+03	1.801520E-04	5.188815E-05
6.822863E+03	1.821495E-04	5.245107E-05
6.832766E+03	1.841852E-04	5.302468E-05
6.842668E+03	1.862629E-04	5.361006E-05
6.852571E+03	1.883830E-04	5.420730E-05
6.862473E+03	1.905423E-04	5.481546E-05
6.872376E+03	1.927409E-04	5.543460E-05
6.882278E+03	1.949827E-04	5.606583E-05
6.892181E+03	1.972645E-04	5.670816E-05
6.902083E+03	1.995863E-04	5.736164E-05
6.911986E+03	2.019484E-04	5.802632E-05
6.921889E+03	2.043509E-04	5.870225E-05
6.931791E+03	2.067900E-04	5.938830E-05
6.941694E+03	2.092739E-04	6.008680E-05
6.951596E+03	2.117946E-04	6.079547E-05
6.961499E+03	2.143562E-04	6.151549E-05
6.971401E+03	2.169547E-04	6.224567E-05
6.981304E+03	2.195899E-04	6.298597E-05
6.991207E+03	2.222662E-04	6.373763E-05
7.001109E+03	2.249793E-04	6.449937E-05
7.011012E+03	2.277243E-04	6.526985E-05
7.020914E+03	2.305102E-04	6.605159E-05
7.030817E+03	2.333324E-04	6.684328E-05
7.040719E+03	2.361859E-04	6.764347E-05
7.050622E+03	2.390750E-04	6.845341E-05
7.060524E+03	2.419948E-04	6.927164E-05
7.070427E+03	2.449496E-04	7.009942E-05
7.080330E+03	2.479341E-04	7.093521E-05
7.090232E+03	2.509529E-04	7.178033E-05
7.100135E+03	2.539952E-04	7.263168E-05
7.110037E+03	2.570655E-04	7.349052E-05
7.119940E+03	2.601685E-04	7.435821E-05
7.129842E+03	2.632929E-04	7.523149E-05
7.139745E+03	2.664376E-04	7.611007E-05
7.149647E+03	2.696073E-04	7.699528E-05
7.159550E+03	2.728013E-04	7.788689E-05
7.169453E+03	2.760129E-04	7.878298E-05
7.179355E+03	2.792468E-04	7.968494E-05
7.189258E+03	2.824963E-04	8.059078E-05
7.199160E+03	2.857600E-04	8.150016E-05
7.209063E+03	2.890431E-04	8.241450E-05
7.218965E+03	2.923381E-04	8.333170E-05
7.228868E+03	2.956501E-04	8.425323E-05
7.238770E+03	2.989718E-04	8.517693E-05
7.248673E+03	3.023016E-04	8.610240E-05
7.258576E+03	3.056516E-04	8.703309E-05
7.268478E+03	3.090075E-04	8.796487E-05
7.278381E+03	3.123815E-04	8.890125E-05
7.288283E+03	3.157660E-04	8.984008E-05
7.298186E+03	3.191669E-04	9.078299E-05
7.308088E+03	3.225907E-04	9.173185E-05
7.317991E+03	3.260292E-04	9.268435E-05
7.327894E+03	3.294969E-04	9.364453E-05
7.337796E+03	3.329936E-04	9.461241E-05
7.347699E+03	3.365271E-04	9.559015E-05
7.357601E+03	3.400971E-04	9.657767E-05
7.367504E+03	3.437045E-04	9.757522E-05
7.377406E+03	3.473573E-04	9.858507E-05
7.387309E+03	3.510398E-04	9.960272E-05
7.397211E+03	3.547522E-04	1.006283E-04
7.407114E+03	3.584862E-04	1.016593E-04
7.417017E+03	3.622495E-04	1.026981E-04
7.426919E+03	3.660344E-04	1.037423E-04
7.436822E+03	3.698312E-04	1.047894E-04
7.446724E+03	3.736395E-04	1.058390E-04
7.456627E+03	3.774585E-04	1.068911E-04
7.466529E+03	3.812786E-04	1.079428E-04
7.476432E+03	3.851077E-04	1.089965E-04
7.486334E+03	3.889266E-04	1.100467E-04
7.496237E+03	3.927528E-04	1.110983E-04
7.506140E+03	3.965753E-04	1.121483E-04
7.516042E+03	4.003932E-04	1.131963E-04
7.525945E+03	4.041950E-04	1.142392E-04
7.535847E+03	4.079888E-04	1.152792E-04
7.545750E+03	4.117731E-04	1.163160E-04
7.555652E+03	4.155459E-04	1.173489E-04
7.565555E+03	4.192951E-04	1.183745E-04
7.575457E+03	4.230290E-04	1.193952E-04
7.585360E+03	4.267342E-04	1.204073E-04
7.595263E+03	4.304300E-04	1.214161E-04
7.605165E+03	4.340818E-04	1.224120E-04
7.615068E+03	4.377187E-04	1.234031E-04
7.624970E+03	4.413279E-04	1.243858E-04
7.634873E+03	4.448948E-04	1.253560E-04
7.644775E+03	4.484277E-04	1.263162E-04
7.654678E+03	4.519234E-04	1.272653E-04
7.664581E+03	4.553788E-04	1.282026E-04
7.674483E+03	4.587909E-04	1.291271E-04
7.684386E+03	4.621679E-04	1.300413E-04
