#wls	flux	fluxerr
1.584409E+03	1.060002E-03	6.848894E-04
1.624020E+03	9.982563E-04	6.437973E-04
1.663630E+03	9.379276E-04	6.036969E-04
1.703240E+03	8.790313E-04	5.646034E-04
1.742850E+03	8.216665E-04	5.265856E-04
1.782461E+03	7.659802E-04	4.897424E-04
1.822071E+03	7.118489E-04	4.539989E-04
1.861681E+03	6.594758E-04	4.194888E-04
1.901291E+03	6.088698E-04	3.862206E-04
1.940902E+03	5.600573E-04	3.542137E-04
1.980512E+03	5.130450E-04	3.234743E-04
2.020122E+03	4.678983E-04	2.940450E-04
2.059732E+03	4.246351E-04	2.659377E-04
2.099342E+03	3.832570E-04	2.391532E-04
2.138953E+03	3.438704E-04	2.137568E-04
2.178563E+03	3.065073E-04	1.897661E-04
2.218173E+03	2.712430E-04	1.672243E-04
2.257783E+03	2.381819E-04	1.461902E-04
2.297394E+03	2.074248E-04	1.267190E-04
2.337004E+03	1.790581E-04	1.088540E-04
2.376614E+03	1.531190E-04	9.260679E-05
2.416224E+03	1.295934E-04	7.795595E-05
2.455835E+03	1.084395E-04	6.486216E-05
2.495445E+03	8.956199E-05	5.325307E-05
2.535055E+03	7.284942E-05	4.304657E-05
2.574665E+03	5.816375E-05	3.414488E-05
2.614276E+03	4.536207E-05	2.644783E-05
2.653886E+03	3.429379E-05	1.985154E-05
2.693496E+03	2.480941E-05	1.425371E-05
2.733106E+03	1.676169E-05	9.554466E-06
2.772716E+03	1.000654E-05	5.657021E-06
2.812327E+03	4.405201E-06	2.468965E-06
2.851937E+03	-1.752696E-07	-9.734737E-08
2.891547E+03	-3.861898E-06	-2.124718E-06
2.931157E+03	-6.775186E-06	-3.690720E-06
2.970768E+03	-9.028166E-06	-4.867165E-06
2.980670E+03	-9.501013E-06	-5.108406E-06
2.990573E+03	-9.940651E-06	-5.330351E-06
3.000475E+03	-1.034857E-05	-5.533924E-06
3.010378E+03	-1.072670E-05	-5.720278E-06
3.020280E+03	-1.107625E-05	-5.890174E-06
3.030183E+03	-1.139861E-05	-6.044465E-06
3.040086E+03	-1.169541E-05	-6.184112E-06
3.049988E+03	-1.196771E-05	-6.309787E-06
3.059891E+03	-1.221680E-05	-6.422266E-06
3.069793E+03	-1.244444E-05	-6.522570E-06
3.079696E+03	-1.265134E-05	-6.611155E-06
3.089598E+03	-1.283892E-05	-6.688858E-06
3.099501E+03	-1.300806E-05	-6.756216E-06
3.109403E+03	-1.316065E-05	-6.814283E-06
3.119306E+03	-1.329697E-05	-6.863281E-06
3.129209E+03	-1.341830E-05	-6.903942E-06
3.139111E+03	-1.352589E-05	-6.936974E-06
3.149014E+03	-1.362069E-05	-6.962928E-06
3.158916E+03	-1.370311E-05	-6.982065E-06
3.168819E+03	-1.377478E-05	-6.995281E-06
3.178721E+03	-1.383606E-05	-7.002797E-06
3.188624E+03	-1.388798E-05	-7.005195E-06
3.198526E+03	-1.393109E-05	-7.002784E-06
3.208429E+03	-1.396636E-05	-6.996103E-06
3.218332E+03	-1.399450E-05	-6.985542E-06
3.228234E+03	-1.401617E-05	-6.971466E-06
3.238137E+03	-1.403179E-05	-6.954110E-06
3.248039E+03	-1.404218E-05	-6.933921E-06
3.257942E+03	-1.404793E-05	-6.911204E-06
3.267844E+03	-1.404933E-05	-6.886138E-06
3.277747E+03	-1.404714E-05	-6.859106E-06
3.287650E+03	-1.404161E-05	-6.830253E-06
3.297552E+03	-1.403340E-05	-6.799920E-06
3.307455E+03	-1.402272E-05	-6.768222E-06
3.317357E+03	-1.400995E-05	-6.735355E-06
3.327260E+03	-1.399546E-05	-6.701505E-06
3.337162E+03	-1.397958E-05	-6.666844E-06
3.347065E+03	-1.396260E-05	-6.631518E-06
3.356967E+03	-1.394460E-05	-6.595565E-06
3.366870E+03	-1.392602E-05	-6.559205E-06
3.376773E+03	-1.390668E-05	-6.522352E-06
3.386675E+03	-1.388715E-05	-6.485281E-06
3.396578E+03	-1.386720E-05	-6.447886E-06
3.406480E+03	-1.384695E-05	-6.410227E-06
3.416383E+03	-1.382651E-05	-6.372354E-06
3.426285E+03	-1.380575E-05	-6.334209E-06
3.436188E+03	-1.378490E-05	-6.295899E-06
3.446090E+03	-1.376376E-05	-6.257339E-06
3.455993E+03	-1.374213E-05	-6.218437E-06
3.465896E+03	-1.371996E-05	-6.179171E-06
3.475798E+03	-1.369696E-05	-6.139424E-06
3.485701E+03	-1.367319E-05	-6.099221E-06
3.495603E+03	-1.364796E-05	-6.058268E-06
3.505506E+03	-1.362127E-05	-6.016564E-06
3.515408E+03	-1.359269E-05	-5.973943E-06
3.525311E+03	-1.356196E-05	-5.930300E-06
3.535213E+03	-1.352844E-05	-5.885374E-06
3.545116E+03	-1.349165E-05	-5.838969E-06
3.555019E+03	-1.345134E-05	-5.791014E-06
3.564921E+03	-1.340663E-05	-5.741151E-06
3.574824E+03	-1.335723E-05	-5.689283E-06
3.584726E+03	-1.330247E-05	-5.635171E-06
3.594629E+03	-1.324152E-05	-5.578500E-06
3.604531E+03	-1.317367E-05	-5.519018E-06
3.614434E+03	-1.309831E-05	-5.456524E-06
3.624337E+03	-1.301450E-05	-5.390688E-06
3.634239E+03	-1.292173E-05	-5.321356E-06
3.644142E+03	-1.281885E-05	-5.248135E-06
3.654044E+03	-1.270514E-05	-5.170803E-06
3.663947E+03	-1.257969E-05	-5.089084E-06
3.673849E+03	-1.244173E-05	-5.002751E-06
3.683752E+03	-1.229018E-05	-4.911475E-06
3.693654E+03	-1.212422E-05	-4.815039E-06
3.703557E+03	-1.194289E-05	-4.713177E-06
3.713460E+03	-1.174534E-05	-4.605681E-06
3.723362E+03	-1.153059E-05	-4.492303E-06
3.733265E+03	-1.129779E-05	-4.372852E-06
3.743167E+03	-1.104598E-05	-4.247106E-06
3.753070E+03	-1.077419E-05	-4.114860E-06
3.762972E+03	-1.048182E-05	-3.976046E-06
3.772875E+03	-1.016774E-05	-3.830410E-06
3.782777E+03	-9.831241E-06	-3.677881E-06
3.792680E+03	-9.471648E-06	-3.518392E-06
3.802583E+03	-9.088022E-06	-3.351799E-06
3.812485E+03	-8.679644E-06	-3.178047E-06
3.822388E+03	-8.245904E-06	-2.997131E-06
3.832290E+03	-7.786127E-06	-2.809031E-06
3.842193E+03	-7.299668E-06	-2.613747E-06
3.852095E+03	-6.785841E-06	-2.411275E-06
3.861998E+03	-6.244125E-06	-2.201678E-06
3.871900E+03	-5.673943E-06	-1.985008E-06
3.881803E+03	-5.074737E-06	-1.761330E-06
3.891706E+03	-4.445958E-06	-1.530723E-06
3.901608E+03	-3.787060E-06	-1.293275E-06
3.911511E+03	-3.097521E-06	-1.049091E-06
3.921413E+03	-2.376754E-06	-7.982619E-07
3.931316E+03	-1.624133E-06	-5.408734E-07
3.941218E+03	-8.390377E-07	-2.770249E-07
3.951121E+03	-2.074018E-08	-6.788321E-09
3.961024E+03	8.315465E-07	2.697721E-07
3.970926E+03	1.718712E-06	5.526138E-07
3.980829E+03	2.641729E-06	8.417083E-07
3.990731E+03	3.601762E-06	1.137073E-06
4.000634E+03	4.600071E-06	1.438740E-06
4.010536E+03	5.638153E-06	1.746797E-06
4.020439E+03	6.717685E-06	2.061368E-06
4.030341E+03	7.840573E-06	2.382623E-06
4.040244E+03	9.008987E-06	2.710785E-06
4.050147E+03	1.022548E-05	3.046164E-06
4.060049E+03	1.149277E-05	3.389087E-06
4.069952E+03	1.281402E-05	3.739974E-06
4.079854E+03	1.419308E-05	4.099396E-06
4.089757E+03	1.563378E-05	4.467880E-06
4.099659E+03	1.714086E-05	4.846150E-06
4.109562E+03	1.871950E-05	5.235002E-06
4.119464E+03	2.037557E-05	5.635344E-06
4.129367E+03	2.211566E-05	6.048212E-06
4.139270E+03	2.394719E-05	6.474781E-06
4.149172E+03	2.587851E-05	6.916374E-06
4.159075E+03	2.791901E-05	7.374487E-06
4.168977E+03	3.007928E-05	7.850799E-06
4.178880E+03	3.237123E-05	8.347200E-06
4.188782E+03	3.480802E-05	8.865733E-06
4.198685E+03	3.740474E-05	9.408763E-06
4.208587E+03	4.017884E-05	9.979042E-06
4.218490E+03	4.314975E-05	1.057958E-05
4.228393E+03	4.633873E-05	1.121357E-05
4.238295E+03	4.977112E-05	1.188490E-05
4.248198E+03	5.347545E-05	1.259790E-05
4.258100E+03	5.748437E-05	1.335744E-05
4.268003E+03	6.183530E-05	1.416910E-05
4.277905E+03	6.657079E-05	1.503910E-05
4.287808E+03	7.174178E-05	1.597496E-05
4.297711E+03	7.740479E-05	1.698479E-05
4.307613E+03	8.362830E-05	1.807850E-05
4.317516E+03	9.049107E-05	1.926732E-05
4.327418E+03	9.808615E-05	2.056442E-05
4.337321E+03	1.065222E-04	2.198497E-05
4.347223E+03	1.159276E-04	2.354670E-05
4.357126E+03	1.264280E-04	2.526515E-05
4.367028E+03	1.381451E-04	2.715334E-05
4.376931E+03	1.512100E-04	2.922460E-05
4.386834E+03	1.657672E-04	3.149302E-05
4.396736E+03	1.819786E-04	3.397401E-05
4.406639E+03	2.000187E-04	3.668327E-05
4.416541E+03	2.200807E-04	3.963746E-05
4.426444E+03	2.423771E-04	4.285422E-05
4.436346E+03	2.671329E-04	4.635056E-05
4.446249E+03	2.945983E-04	5.014484E-05
4.456151E+03	3.250416E-04	5.425521E-05
4.466054E+03	3.587474E-04	5.869906E-05
4.475957E+03	3.960224E-04	6.349368E-05
4.485859E+03	4.371925E-04	6.865543E-05
4.495762E+03	4.826015E-04	7.419933E-05
4.505664E+03	5.326101E-04	8.013864E-05
4.515567E+03	5.875872E-04	8.648334E-05
4.525469E+03	6.479110E-04	9.324022E-05
4.535372E+03	7.139843E-04	1.004150E-04
4.545274E+03	7.861883E-04	1.080055E-04
4.555177E+03	8.649036E-04	1.160051E-04
4.565080E+03	9.505161E-04	1.244037E-04
4.574982E+03	1.043388E-03	1.331837E-04
4.584885E+03	1.143825E-03	1.423168E-04
4.594787E+03	1.252159E-03	1.517749E-04
4.604690E+03	1.368602E-03	1.615126E-04
4.614592E+03	1.493382E-03	1.714851E-04
4.624495E+03	1.626633E-03	1.816359E-04
4.634398E+03	1.768418E-03	1.919006E-04
4.644300E+03	1.918723E-03	2.022082E-04
4.654203E+03	2.077455E-03	2.124818E-04
4.664105E+03	2.244479E-03	2.226443E-04
4.674008E+03	2.419518E-03	2.326095E-04
4.683910E+03	2.602272E-03	2.422956E-04
4.693813E+03	2.792480E-03	2.516320E-04
4.703715E+03	2.989773E-03	2.605454E-04
4.713618E+03	3.193893E-03	2.689812E-04
4.723521E+03	3.404380E-03	2.768766E-04
4.733423E+03	3.620898E-03	2.841896E-04
4.743326E+03	3.843006E-03	2.908806E-04
4.753228E+03	4.070154E-03	2.969144E-04
4.763131E+03	4.301906E-03	3.022781E-04
4.773033E+03	4.537832E-03	3.069733E-04
4.782936E+03	4.777375E-03	3.110080E-04
4.792838E+03	5.020108E-03	3.144156E-04
4.802741E+03	5.265582E-03	3.172454E-04
4.812644E+03	5.513300E-03	3.195620E-04
4.822546E+03	5.762831E-03	3.214537E-04
4.832449E+03	6.013819E-03	3.230327E-04
4.842351E+03	6.265821E-03	3.244270E-04
4.852254E+03	6.518531E-03	3.257917E-04
4.862156E+03	6.771460E-03	3.272921E-04
4.872059E+03	7.024352E-03	3.291226E-04
4.881961E+03	7.276895E-03	3.314882E-04
4.891864E+03	7.528711E-03	3.346000E-04
4.901767E+03	7.779529E-03	3.386767E-04
4.911669E+03	8.028907E-03	3.439240E-04
4.921572E+03	8.276501E-03	3.505373E-04
4.931474E+03	8.521772E-03	3.586462E-04
4.941377E+03	8.764210E-03	3.683096E-04
4.951279E+03	9.003194E-03	3.795422E-04
4.961182E+03	9.238396E-03	3.923344E-04
4.971085E+03	9.469097E-03	4.066268E-04
4.980987E+03	9.694747E-03	4.223386E-04
4.990890E+03	9.914931E-03	4.393719E-04
5.000792E+03	1.012899E-02	4.576006E-04
5.010695E+03	1.033642E-02	4.768929E-04
5.020597E+03	1.053678E-02	4.971116E-04
5.030500E+03	1.072971E-02	5.181201E-04
5.040402E+03	1.091493E-02	5.397817E-04
5.050305E+03	1.109235E-02	5.619687E-04
5.060208E+03	1.126210E-02	5.845649E-04
5.070110E+03	1.142390E-02	6.074402E-04
5.080013E+03	1.157803E-02	6.304964E-04
5.089915E+03	1.172415E-02	6.536101E-04
5.099818E+03	1.186254E-02	6.766960E-04
5.109720E+03	1.199316E-02	6.996568E-04
5.119623E+03	1.211604E-02	7.224065E-04
5.129525E+03	1.223127E-02	7.448666E-04
5.139428E+03	1.233879E-02	7.669555E-04
5.149331E+03	1.243869E-02	7.886057E-04
5.159233E+03	1.253090E-02	8.097453E-04
5.169136E+03	1.261575E-02	8.303325E-04
5.179038E+03	1.269294E-02	8.502872E-04
5.188941E+03	1.276267E-02	8.695684E-04
5.198843E+03	1.282500E-02	8.881298E-04
5.208746E+03	1.288000E-02	9.059287E-04
5.218648E+03	1.292749E-02	9.229083E-04
5.228551E+03	1.296768E-02	9.390434E-04
5.238454E+03	1.300052E-02	9.542934E-04
5.248356E+03	1.302607E-02	9.686289E-04
5.258259E+03	1.304430E-02	9.820170E-04
5.268161E+03	1.305547E-02	9.944487E-04
5.278064E+03	1.305943E-02	1.005887E-03
5.287966E+03	1.305631E-02	1.016320E-03
5.297869E+03	1.304614E-02	1.025731E-03
5.307772E+03	1.302926E-02	1.034127E-03
5.317674E+03	1.300546E-02	1.041480E-03
5.327577E+03	1.297515E-02	1.047807E-03
5.337479E+03	1.293844E-02	1.053110E-03
5.347382E+03	1.289554E-02	1.057396E-03
5.357284E+03	1.284640E-02	1.060657E-03
5.367187E+03	1.279128E-02	1.062911E-03
5.377089E+03	1.273050E-02	1.064182E-03
5.386992E+03	1.266389E-02	1.064456E-03
5.396895E+03	1.259183E-02	1.063769E-03
5.406797E+03	1.251439E-02	1.062128E-03
5.416700E+03	1.243192E-02	1.059568E-03
5.426602E+03	1.234543E-02	1.056183E-03
5.436505E+03	1.225545E-02	1.052027E-03
5.446407E+03	1.216302E-02	1.047197E-03
5.456310E+03	1.206878E-02	1.041752E-03
5.466212E+03	1.197378E-02	1.035786E-03
5.476115E+03	1.187843E-02	1.029337E-03
5.486018E+03	1.178351E-02	1.022479E-03
5.495920E+03	1.168954E-02	1.015261E-03
5.505823E+03	1.159740E-02	1.007764E-03
5.515725E+03	1.150742E-02	1.000025E-03
5.525628E+03	1.142020E-02	9.920987E-04
5.535530E+03	1.133613E-02	9.840259E-04
5.545433E+03	1.125583E-02	9.758636E-04
5.555335E+03	1.117951E-02	9.676347E-04
5.565238E+03	1.110756E-02	9.593767E-04
5.575141E+03	1.104033E-02	9.511224E-04
5.585043E+03	1.097802E-02	9.428893E-04
5.594946E+03	1.092086E-02	9.346994E-04
5.604848E+03	1.086885E-02	9.265506E-04
5.614751E+03	1.082213E-02	9.184547E-04
5.624653E+03	1.078082E-02	9.104190E-04
5.634556E+03	1.074487E-02	9.024363E-04
5.644459E+03	1.071421E-02	8.944958E-04
5.654361E+03	1.068872E-02	8.865825E-04
5.664264E+03	1.066847E-02	8.786969E-04
5.674166E+03	1.065308E-02	8.707992E-04
5.684069E+03	1.064254E-02	8.628843E-04
5.693971E+03	1.063665E-02	8.549267E-04
5.703874E+03	1.063506E-02	8.468906E-04
5.713776E+03	1.063761E-02	8.387570E-04
5.723679E+03	1.064417E-02	8.305069E-04
5.733582E+03	1.065435E-02	8.221030E-04
5.743484E+03	1.066788E-02	8.135175E-04
5.753387E+03	1.068473E-02	8.047415E-04
5.763289E+03	1.070439E-02	7.957312E-04
5.773192E+03	1.072672E-02	7.864717E-04
5.783094E+03	1.075146E-02	7.769409E-04
5.792997E+03	1.077836E-02	7.671187E-04
5.802899E+03	1.080730E-02	7.569960E-04
5.812802E+03	1.083782E-02	7.465413E-04
5.822705E+03	1.086992E-02	7.357594E-04
5.832607E+03	1.090329E-02	7.246334E-04
5.842510E+03	1.093771E-02	7.131577E-04
5.852412E+03	1.097299E-02	7.013307E-04
5.862315E+03	1.100892E-02	6.891543E-04
5.872217E+03	1.104545E-02	6.766423E-04
5.882120E+03	1.108213E-02	6.637901E-04
5.892022E+03	1.111878E-02	6.506135E-04
5.901925E+03	1.115533E-02	6.371411E-04
5.911828E+03	1.119158E-02	6.233998E-04
5.921730E+03	1.122707E-02	6.094089E-04
5.931633E+03	1.126185E-02	5.952241E-04
5.941535E+03	1.129531E-02	5.808744E-04
5.951438E+03	1.132760E-02	5.664393E-04
5.961340E+03	1.135808E-02	5.519688E-04
5.971243E+03	1.138651E-02	5.375447E-04
5.981146E+03	1.141274E-02	5.232681E-04
5.991048E+03	1.143637E-02	5.092417E-04
6.000951E+03	1.145711E-02	4.955891E-04
6.010853E+03	1.147441E-02	4.824384E-04
6.020756E+03	1.148826E-02	4.699568E-04
6.030658E+03	1.149797E-02	4.582975E-04
6.040561E+03	1.150359E-02	4.476547E-04
6.050463E+03	1.150475E-02	4.382154E-04
6.060366E+03	1.150114E-02	4.301703E-04
6.070269E+03	1.149267E-02	4.237128E-04
6.080171E+03	1.147944E-02	4.190298E-04
6.090074E+03	1.146140E-02	4.162771E-04
6.099976E+03	1.143872E-02	4.155863E-04
6.109879E+03	1.141202E-02	4.170460E-04
6.119781E+03	1.138150E-02	4.206012E-04
6.129684E+03	1.134789E-02	4.261514E-04
6.139586E+03	1.131154E-02	4.335512E-04
6.149489E+03	1.127207E-02	4.426064E-04
6.159392E+03	1.122888E-02	4.531012E-04
6.169294E+03	1.118170E-02	4.648246E-04
6.179197E+03	1.113053E-02	4.775787E-04
6.189099E+03	1.107521E-02	4.911648E-04
6.199002E+03	1.101595E-02	5.054107E-04
6.208904E+03	1.095291E-02	5.201552E-04
6.218807E+03	1.088647E-02	5.352609E-04
6.228709E+03	1.081689E-02	5.506009E-04
6.238612E+03	1.074446E-02	5.660645E-04
6.248515E+03	1.066964E-02	5.815637E-04
6.258417E+03	1.059289E-02	5.970256E-04
6.268320E+03	1.051436E-02	6.123733E-04
6.278222E+03	1.043451E-02	6.275580E-04
6.288125E+03	1.035377E-02	6.425405E-04
6.298027E+03	1.027225E-02	6.572734E-04
6.307930E+03	1.019050E-02	6.717434E-04
6.317833E+03	1.010873E-02	6.859264E-04
6.327735E+03	1.002716E-02	6.998031E-04
6.337638E+03	9.945955E-03	7.133588E-04
6.347540E+03	9.865571E-03	7.266037E-04
6.357443E+03	9.785999E-03	7.395204E-04
6.367345E+03	9.707646E-03	7.521264E-04
6.377248E+03	9.630608E-03	7.644206E-04
6.387150E+03	9.554973E-03	7.764036E-04
6.397053E+03	9.480949E-03	7.880891E-04
6.406956E+03	9.408588E-03	7.994805E-04
6.416858E+03	9.338077E-03	8.105947E-04
6.426761E+03	9.269156E-03	8.214120E-04
6.436663E+03	9.202132E-03	8.319627E-04
6.446566E+03	9.137015E-03	8.422532E-04
6.456468E+03	9.073665E-03	8.522765E-04
6.466371E+03	9.012221E-03	8.620521E-04
6.476273E+03	8.952671E-03	8.715864E-04
6.486176E+03	8.895006E-03	8.808862E-04
6.496079E+03	8.839200E-03	8.899573E-04
6.505981E+03	8.785378E-03	8.988210E-04
6.515884E+03	8.733369E-03	9.074690E-04
6.525786E+03	8.683145E-03	9.159072E-04
6.535689E+03	8.634818E-03	9.241563E-04
6.545591E+03	8.588357E-03	9.322227E-04
6.555494E+03	8.543582E-03	9.400959E-04
6.565396E+03	8.500603E-03	9.477971E-04
6.575299E+03	8.459239E-03	9.553152E-04
6.585202E+03	8.419739E-03	9.626873E-04
6.595104E+03	8.381776E-03	9.698853E-04
6.605007E+03	8.345312E-03	9.769132E-04
6.614909E+03	8.310449E-03	9.837910E-04
6.624812E+03	8.277145E-03	9.905223E-04
6.634714E+03	8.245217E-03	9.970935E-04
6.644617E+03	8.214621E-03	1.003507E-03
6.654520E+03	8.185459E-03	1.009782E-03
6.664422E+03	8.157543E-03	1.015905E-03
6.674325E+03	8.130974E-03	1.021893E-03
6.684227E+03	8.105421E-03	1.027714E-03
6.694130E+03	8.081130E-03	1.033404E-03
6.704032E+03	8.057767E-03	1.038929E-03
6.713935E+03	8.035580E-03	1.044325E-03
6.723837E+03	8.014238E-03	1.049557E-03
6.733740E+03	7.993844E-03	1.054643E-03
6.743643E+03	7.974356E-03	1.059585E-03
6.753545E+03	7.955592E-03	1.064365E-03
6.763448E+03	7.937657E-03	1.069000E-03
6.773350E+03	7.920369E-03	1.073474E-03
6.783253E+03	7.903838E-03	1.077806E-03
6.793155E+03	7.887736E-03	1.081956E-03
6.803058E+03	7.872327E-03	1.085967E-03
6.812960E+03	7.857428E-03	1.089818E-03
6.822863E+03	7.843013E-03	1.093511E-03
6.832766E+03	7.828905E-03	1.097027E-03
6.842668E+03	7.815375E-03	1.100408E-03
6.852571E+03	7.801950E-03	1.103593E-03
6.862473E+03	7.789055E-03	1.106647E-03
6.872376E+03	7.776369E-03	1.109531E-03
6.882278E+03	7.763874E-03	1.112246E-03
6.892181E+03	7.751699E-03	1.114816E-03
6.902083E+03	7.739676E-03	1.117223E-03
6.911986E+03	7.727793E-03	1.119470E-03
6.921889E+03	7.716030E-03	1.121560E-03
6.931791E+03	7.704375E-03	1.123496E-03
6.941694E+03	7.692815E-03	1.125282E-03
6.951596E+03	7.681187E-03	1.126899E-03
6.961499E+03	7.669780E-03	1.128397E-03
6.971401E+03	7.658131E-03	1.129712E-03
6.981304E+03	7.646684E-03	1.130917E-03
6.991207E+03	7.634977E-03	1.131948E-03
7.001109E+03	7.623299E-03	1.132854E-03
7.011012E+03	7.611492E-03	1.133619E-03
7.020914E+03	7.599545E-03	1.134247E-03
7.030817E+03	7.587602E-03	1.134765E-03
7.040719E+03	7.575349E-03	1.135133E-03
7.050622E+03	7.562927E-03	1.135380E-03
7.060524E+03	7.550173E-03	1.135486E-03
7.070427E+03	7.537227E-03	1.135480E-03
7.080330E+03	7.524076E-03	1.135366E-03
7.090232E+03	7.510553E-03	1.135126E-03
7.100135E+03	7.496792E-03	1.134788E-03
7.110037E+03	7.482472E-03	1.134309E-03
7.119940E+03	7.467878E-03	1.133740E-03
7.129842E+03	7.452831E-03	1.133060E-03
7.139745E+03	7.437156E-03	1.132249E-03
7.149647E+03	7.420978E-03	1.131335E-03
7.159550E+03	7.404261E-03	1.130318E-03
7.169453E+03	7.386822E-03	1.129177E-03
7.179355E+03	7.368625E-03	1.127914E-03
7.189258E+03	7.349627E-03	1.126529E-03
7.199160E+03	7.329788E-03	1.125022E-03
7.209063E+03	7.309061E-03	1.123393E-03
7.218965E+03	7.287094E-03	1.121595E-03
7.228868E+03	7.264144E-03	1.119672E-03
7.238770E+03	7.240007E-03	1.117601E-03
7.248673E+03	7.214479E-03	1.115354E-03
7.258576E+03	7.187661E-03	1.112954E-03
7.268478E+03	7.159199E-03	1.110352E-03
7.278381E+03	7.129048E-03	1.107543E-03
7.288283E+03	7.097158E-03	1.104527E-03
7.298186E+03	7.063339E-03	1.101276E-03
7.308088E+03	7.027701E-03	1.097813E-03
7.317991E+03	6.989768E-03	1.094066E-03
7.327894E+03	6.949815E-03	1.090078E-03
7.337796E+03	6.907532E-03	1.085794E-03
7.347699E+03	6.863067E-03	1.081228E-03
7.357601E+03	6.816281E-03	1.076347E-03
7.367504E+03	6.767194E-03	1.071144E-03
7.377406E+03	6.715982E-03	1.065637E-03
7.387309E+03	6.662552E-03	1.059801E-03
7.397211E+03	6.607388E-03	1.053703E-03
7.407114E+03	6.550282E-03	1.047300E-03
7.417017E+03	6.491605E-03	1.040642E-03
7.426919E+03	6.431320E-03	1.033714E-03
7.436822E+03	6.369962E-03	1.026592E-03
7.446724E+03	6.307458E-03	1.019257E-03
7.456627E+03	6.243812E-03	1.011702E-03
7.466529E+03	6.179173E-03	1.003942E-03
7.476432E+03	6.113569E-03	9.959754E-04
7.486334E+03	6.047311E-03	9.878452E-04
7.496237E+03	5.980180E-03	9.795093E-04
7.506140E+03	5.912373E-03	9.709936E-04
7.516042E+03	5.844090E-03	9.623253E-04
7.525945E+03	5.775273E-03	9.534893E-04
7.535847E+03	5.706129E-03	9.445152E-04
7.545750E+03	5.636611E-03	9.353905E-04
7.555652E+03	5.567053E-03	9.261665E-04
7.565555E+03	5.497280E-03	9.168106E-04
7.575457E+03	5.427620E-03	9.073743E-04
7.585360E+03	5.357899E-03	8.978257E-04
7.595263E+03	5.288436E-03	8.882157E-04
7.605165E+03	5.219053E-03	8.785125E-04
7.615068E+03	5.150054E-03	8.687654E-04
7.624970E+03	5.081378E-03	8.589629E-04
7.634873E+03	5.013076E-03	8.491127E-04
