#wls	flux	fluxerr
1.584409E+03	3.252375E-03	6.435530E-04
1.624020E+03	3.350910E-03	6.630475E-04
1.663630E+03	3.444159E-03	6.814952E-04
1.703240E+03	3.531525E-03	6.987784E-04
1.742850E+03	3.610955E-03	7.144905E-04
1.782461E+03	3.682387E-03	7.286196E-04
1.822071E+03	3.743671E-03	7.407397E-04
1.861681E+03	3.794309E-03	7.507528E-04
1.901291E+03	3.833118E-03	7.584246E-04
1.940902E+03	3.858337E-03	7.634064E-04
1.980512E+03	3.869521E-03	7.656107E-04
2.020122E+03	3.865410E-03	7.647881E-04
2.059732E+03	3.844946E-03	7.607294E-04
2.099342E+03	3.807328E-03	7.532760E-04
2.138953E+03	3.751574E-03	7.422339E-04
2.178563E+03	3.676266E-03	7.273228E-04
2.218173E+03	3.580094E-03	7.082837E-04
2.257783E+03	3.463274E-03	6.851595E-04
2.297394E+03	3.328187E-03	6.584216E-04
2.337004E+03	3.179216E-03	6.289373E-04
2.376614E+03	3.019809E-03	5.973890E-04
2.416224E+03	2.853063E-03	5.643895E-04
2.455835E+03	2.681140E-03	5.303667E-04
2.495445E+03	2.506333E-03	4.957746E-04
2.535055E+03	2.330465E-03	4.609735E-04
2.574665E+03	2.155466E-03	4.263457E-04
2.614276E+03	1.982873E-03	3.921951E-04
2.653886E+03	1.814162E-03	3.588140E-04
2.693496E+03	1.650707E-03	3.264739E-04
2.733106E+03	1.493605E-03	2.953922E-04
2.772716E+03	1.343877E-03	2.657701E-04
2.812327E+03	1.202380E-03	2.377778E-04
2.851937E+03	1.069892E-03	2.115688E-04
2.891547E+03	9.470822E-04	1.872753E-04
2.931157E+03	8.344230E-04	1.649907E-04
2.970768E+03	7.321882E-04	1.447689E-04
2.980670E+03	7.082649E-04	1.400371E-04
2.990573E+03	6.849788E-04	1.354313E-04
3.000475E+03	6.623532E-04	1.309563E-04
3.010378E+03	6.403491E-04	1.266042E-04
3.020280E+03	6.189867E-04	1.223790E-04
3.030183E+03	5.982546E-04	1.182786E-04
3.040086E+03	5.781549E-04	1.143033E-04
3.049988E+03	5.586516E-04	1.104459E-04
3.059891E+03	5.397696E-04	1.067115E-04
3.069793E+03	5.214734E-04	1.030930E-04
3.079696E+03	5.037736E-04	9.959247E-05
3.089598E+03	4.866564E-04	9.620721E-05
3.099501E+03	4.701003E-04	9.293293E-05
3.109403E+03	4.541110E-04	8.977078E-05
3.119306E+03	4.386666E-04	8.671643E-05
3.129209E+03	4.237629E-04	8.376904E-05
3.139111E+03	4.093864E-04	8.092594E-05
3.149014E+03	3.955244E-04	7.818460E-05
3.158916E+03	3.821708E-04	7.554383E-05
3.168819E+03	3.693126E-04	7.300105E-05
3.178721E+03	3.569302E-04	7.055239E-05
3.188624E+03	3.450232E-04	6.819775E-05
3.198526E+03	3.335728E-04	6.593344E-05
3.208429E+03	3.225717E-04	6.375799E-05
3.218332E+03	3.120070E-04	6.166885E-05
3.228234E+03	3.018608E-04	5.966248E-05
3.238137E+03	2.921308E-04	5.773842E-05
3.248039E+03	2.827949E-04	5.589231E-05
3.257942E+03	2.738500E-04	5.412353E-05
3.267844E+03	2.652838E-04	5.242965E-05
3.277747E+03	2.570758E-04	5.080660E-05
3.287650E+03	2.492224E-04	4.925367E-05
3.297552E+03	2.417120E-04	4.776858E-05
3.307455E+03	2.345292E-04	4.634827E-05
3.317357E+03	2.276631E-04	4.499058E-05
3.327260E+03	2.211030E-04	4.369341E-05
3.337162E+03	2.148382E-04	4.245462E-05
3.347065E+03	2.088584E-04	4.127221E-05
3.356967E+03	2.031535E-04	4.014414E-05
3.366870E+03	1.977110E-04	3.906795E-05
3.376773E+03	1.925191E-04	3.804133E-05
3.386675E+03	1.875739E-04	3.706347E-05
3.396578E+03	1.828593E-04	3.613121E-05
3.406480E+03	1.783695E-04	3.524340E-05
3.416383E+03	1.740943E-04	3.439802E-05
3.426285E+03	1.700261E-04	3.359356E-05
3.436188E+03	1.661536E-04	3.282778E-05
3.446090E+03	1.624680E-04	3.209897E-05
3.455993E+03	1.589632E-04	3.140589E-05
3.465896E+03	1.556294E-04	3.074662E-05
3.475798E+03	1.524610E-04	3.012004E-05
3.485701E+03	1.494460E-04	2.952378E-05
3.495603E+03	1.465797E-04	2.895693E-05
3.505506E+03	1.438530E-04	2.841768E-05
3.515408E+03	1.412589E-04	2.790463E-05
3.525311E+03	1.387910E-04	2.741652E-05
3.535213E+03	1.364402E-04	2.695157E-05
3.545116E+03	1.342039E-04	2.650924E-05
3.555019E+03	1.320752E-04	2.608818E-05
3.564921E+03	1.300479E-04	2.568718E-05
3.574824E+03	1.281199E-04	2.530578E-05
3.584726E+03	1.262842E-04	2.494263E-05
3.594629E+03	1.245367E-04	2.459691E-05
3.604531E+03	1.228733E-04	2.426782E-05
3.614434E+03	1.212904E-04	2.395464E-05
3.624337E+03	1.197844E-04	2.365665E-05
3.634239E+03	1.183519E-04	2.337318E-05
3.644142E+03	1.169906E-04	2.310378E-05
3.654044E+03	1.156984E-04	2.284803E-05
3.663947E+03	1.144720E-04	2.260530E-05
3.673849E+03	1.133125E-04	2.237577E-05
3.683752E+03	1.122156E-04	2.215862E-05
3.693654E+03	1.111813E-04	2.195382E-05
3.703557E+03	1.102074E-04	2.176096E-05
3.713460E+03	1.092928E-04	2.157982E-05
3.723362E+03	1.084382E-04	2.141053E-05
3.733265E+03	1.076396E-04	2.125230E-05
3.743167E+03	1.068977E-04	2.110525E-05
3.753070E+03	1.062120E-04	2.096933E-05
3.762972E+03	1.055797E-04	2.084393E-05
3.772875E+03	1.050013E-04	2.072917E-05
3.782777E+03	1.044762E-04	2.062496E-05
3.792680E+03	1.040025E-04	2.053087E-05
3.802583E+03	1.035789E-04	2.044669E-05
3.812485E+03	1.032068E-04	2.037265E-05
3.822388E+03	1.028830E-04	2.030818E-05
3.832290E+03	1.026083E-04	2.025336E-05
3.842193E+03	1.023812E-04	2.020795E-05
3.852095E+03	1.022014E-04	2.017188E-05
3.861998E+03	1.020685E-04	2.014506E-05
3.871900E+03	1.019805E-04	2.012710E-05
3.881803E+03	1.019371E-04	2.011793E-05
3.891706E+03	1.019387E-04	2.011765E-05
3.901608E+03	1.019842E-04	2.012601E-05
3.911511E+03	1.020724E-04	2.014280E-05
3.921413E+03	1.022030E-04	2.016795E-05
3.931316E+03	1.023750E-04	2.020126E-05
3.941218E+03	1.025880E-04	2.024266E-05
3.951121E+03	1.028419E-04	2.029210E-05
3.961024E+03	1.031363E-04	2.034954E-05
3.970926E+03	1.034694E-04	2.041462E-05
3.980829E+03	1.038411E-04	2.048728E-05
3.990731E+03	1.042511E-04	2.056751E-05
4.000634E+03	1.046994E-04	2.065525E-05
4.010536E+03	1.051848E-04	2.075033E-05
4.020439E+03	1.057066E-04	2.085256E-05
4.030341E+03	1.062645E-04	2.096191E-05
4.040244E+03	1.068577E-04	2.107821E-05
4.050147E+03	1.074861E-04	2.120143E-05
4.060049E+03	1.081488E-04	2.133140E-05
4.069952E+03	1.088458E-04	2.146811E-05
4.079854E+03	1.095761E-04	2.161139E-05
4.089757E+03	1.103389E-04	2.176107E-05
4.099659E+03	1.111343E-04	2.191714E-05
4.109562E+03	1.119613E-04	2.207944E-05
4.119464E+03	1.128200E-04	2.224796E-05
4.129367E+03	1.137087E-04	2.242238E-05
4.139270E+03	1.146274E-04	2.260269E-05
4.149172E+03	1.155743E-04	2.278855E-05
4.159075E+03	1.165504E-04	2.298015E-05
4.168977E+03	1.175539E-04	2.317713E-05
4.178880E+03	1.185850E-04	2.337952E-05
4.188782E+03	1.196408E-04	2.358676E-05
4.198685E+03	1.207224E-04	2.379906E-05
4.208587E+03	1.218270E-04	2.401586E-05
4.218490E+03	1.229555E-04	2.423736E-05
4.228393E+03	1.241050E-04	2.446298E-05
4.238295E+03	1.252737E-04	2.469235E-05
4.248198E+03	1.264625E-04	2.492565E-05
4.258100E+03	1.276674E-04	2.516210E-05
4.268003E+03	1.288892E-04	2.540186E-05
4.277905E+03	1.301240E-04	2.564413E-05
4.287808E+03	1.313724E-04	2.588908E-05
4.297711E+03	1.326324E-04	2.613627E-05
4.307613E+03	1.339017E-04	2.638525E-05
4.317516E+03	1.351799E-04	2.663599E-05
4.327418E+03	1.364660E-04	2.688823E-05
4.337321E+03	1.377608E-04	2.714214E-05
4.347223E+03	1.390618E-04	2.739727E-05
4.357126E+03	1.403712E-04	2.765401E-05
4.367028E+03	1.416890E-04	2.791236E-05
4.376931E+03	1.430150E-04	2.817230E-05
4.386834E+03	1.443492E-04	2.843384E-05
4.396736E+03	1.456929E-04	2.869720E-05
4.406639E+03	1.470450E-04	2.896218E-05
4.416541E+03	1.484068E-04	2.922902E-05
4.426444E+03	1.497783E-04	2.949776E-05
4.436346E+03	1.511599E-04	2.976844E-05
4.446249E+03	1.525505E-04	3.004086E-05
4.456151E+03	1.539504E-04	3.031506E-05
4.466054E+03	1.553584E-04	3.059083E-05
4.475957E+03	1.567762E-04	3.086849E-05
4.485859E+03	1.582015E-04	3.114759E-05
4.495762E+03	1.596346E-04	3.142818E-05
4.505664E+03	1.610759E-04	3.171034E-05
4.515567E+03	1.625229E-04	3.199360E-05
4.525469E+03	1.639776E-04	3.227831E-05
4.535372E+03	1.654375E-04	3.256401E-05
4.545274E+03	1.669031E-04	3.285079E-05
4.555177E+03	1.683721E-04	3.313819E-05
4.565080E+03	1.698464E-04	3.342660E-05
4.574982E+03	1.713251E-04	3.371584E-05
4.584885E+03	1.728060E-04	3.400545E-05
4.594787E+03	1.742897E-04	3.429557E-05
4.604690E+03	1.757770E-04	3.458634E-05
4.614592E+03	1.772671E-04	3.487763E-05
4.624495E+03	1.787578E-04	3.516899E-05
4.634398E+03	1.802531E-04	3.546122E-05
4.644300E+03	1.817543E-04	3.575453E-05
4.654203E+03	1.832591E-04	3.604853E-05
4.664105E+03	1.847688E-04	3.634344E-05
4.674008E+03	1.862848E-04	3.663953E-05
4.683910E+03	1.878034E-04	3.693607E-05
4.693813E+03	1.893259E-04	3.723333E-05
4.703715E+03	1.908503E-04	3.753092E-05
4.713618E+03	1.923780E-04	3.782912E-05
4.723521E+03	1.939090E-04	3.812789E-05
4.733423E+03	1.954410E-04	3.842683E-05
4.743326E+03	1.969759E-04	3.872625E-05
4.753228E+03	1.985115E-04	3.902578E-05
4.763131E+03	2.000495E-04	3.932571E-05
4.773033E+03	2.015879E-04	3.962567E-05
4.782936E+03	2.031264E-04	3.992561E-05
4.792838E+03	2.046649E-04	4.022547E-05
4.802741E+03	2.062053E-04	4.052566E-05
4.812644E+03	2.077451E-04	4.082566E-05
4.822546E+03	2.092842E-04	4.112547E-05
4.832449E+03	2.108204E-04	4.142466E-05
4.842351E+03	2.123572E-04	4.172389E-05
4.852254E+03	2.138925E-04	4.202277E-05
4.862156E+03	2.154257E-04	4.232119E-05
4.872059E+03	2.169547E-04	4.261870E-05
4.881961E+03	2.184803E-04	4.291550E-05
4.891864E+03	2.200006E-04	4.321119E-05
4.901767E+03	2.215147E-04	4.350559E-05
4.911669E+03	2.230238E-04	4.379896E-05
4.921572E+03	2.245253E-04	4.409075E-05
4.931474E+03	2.260182E-04	4.438081E-05
4.941377E+03	2.274996E-04	4.466854E-05
4.951279E+03	2.289704E-04	4.495413E-05
4.961182E+03	2.304300E-04	4.523745E-05
4.971085E+03	2.318749E-04	4.551780E-05
4.980987E+03	2.333040E-04	4.579501E-05
4.990890E+03	2.347158E-04	4.606875E-05
5.000792E+03	2.361071E-04	4.633840E-05
5.010695E+03	2.374785E-04	4.660408E-05
5.020597E+03	2.388288E-04	4.686555E-05
5.030500E+03	2.401520E-04	4.712164E-05
5.040402E+03	2.414486E-04	4.737244E-05
5.050305E+03	2.427175E-04	4.761774E-05
5.060208E+03	2.439543E-04	4.785668E-05
5.070110E+03	2.451579E-04	4.808905E-05
5.080013E+03	2.463261E-04	4.831440E-05
5.089915E+03	2.474576E-04	4.853248E-05
5.099818E+03	2.485480E-04	4.874245E-05
5.109720E+03	2.495981E-04	4.894446E-05
5.119623E+03	2.506013E-04	4.913721E-05
5.129525E+03	2.515581E-04	4.932078E-05
5.139428E+03	2.524642E-04	4.949436E-05
5.149331E+03	2.533177E-04	4.965758E-05
5.159233E+03	2.541166E-04	4.981004E-05
5.169136E+03	2.548592E-04	4.995141E-05
5.179038E+03	2.555384E-04	5.008029E-05
5.188941E+03	2.561573E-04	5.019731E-05
5.198843E+03	2.567117E-04	5.030162E-05
5.208746E+03	2.571995E-04	5.039285E-05
5.218648E+03	2.576169E-04	5.047024E-05
5.228551E+03	2.579617E-04	5.053335E-05
5.238454E+03	2.582328E-04	5.058197E-05
5.248356E+03	2.584287E-04	5.061585E-05
5.258259E+03	2.585481E-04	5.063469E-05
5.268161E+03	2.585879E-04	5.063791E-05
5.278064E+03	2.585520E-04	5.062628E-05
5.287966E+03	2.584353E-04	5.059879E-05
5.297869E+03	2.582375E-04	5.055539E-05
5.307772E+03	2.579635E-04	5.049706E-05
5.317674E+03	2.576091E-04	5.042297E-05
5.327577E+03	2.571798E-04	5.033418E-05
5.337479E+03	2.566743E-04	5.023048E-05
5.347382E+03	2.560967E-04	5.011266E-05
5.357284E+03	2.554457E-04	4.998046E-05
5.367187E+03	2.547289E-04	4.983537E-05
5.377089E+03	2.539458E-04	4.967731E-05
5.386992E+03	2.531015E-04	4.950728E-05
5.396895E+03	2.521940E-04	4.932487E-05
5.406797E+03	2.512290E-04	4.913124E-05
5.416700E+03	2.502074E-04	4.892653E-05
5.426602E+03	2.491303E-04	4.871097E-05
5.436505E+03	2.480041E-04	4.848584E-05
5.446407E+03	2.468281E-04	4.825097E-05
5.456310E+03	2.456037E-04	4.800666E-05
5.466212E+03	2.443357E-04	4.775384E-05
5.476115E+03	2.430234E-04	4.749238E-05
5.486018E+03	2.416738E-04	4.722366E-05
5.495920E+03	2.402844E-04	4.694718E-05
5.505823E+03	2.388649E-04	4.666484E-05
5.515725E+03	2.374174E-04	4.637705E-05
5.525628E+03	2.359439E-04	4.608423E-05
5.535530E+03	2.344492E-04	4.578728E-05
5.545433E+03	2.329377E-04	4.548710E-05
5.555335E+03	2.314113E-04	4.518403E-05
5.565238E+03	2.298791E-04	4.487985E-05
5.575141E+03	2.283403E-04	4.457442E-05
5.585043E+03	2.268031E-04	4.426935E-05
5.594946E+03	2.252671E-04	4.396454E-05
5.604848E+03	2.237399E-04	4.366147E-05
5.614751E+03	2.222250E-04	4.336086E-05
5.624653E+03	2.207230E-04	4.306280E-05
5.634556E+03	2.192394E-04	4.276834E-05
5.644459E+03	2.177763E-04	4.247793E-05
5.654361E+03	2.163388E-04	4.219254E-05
5.664264E+03	2.149291E-04	4.191262E-05
5.674166E+03	2.135471E-04	4.163812E-05
5.684069E+03	2.121990E-04	4.137027E-05
5.693971E+03	2.108866E-04	4.110941E-05
5.703874E+03	2.096092E-04	4.085541E-05
5.713776E+03	2.083708E-04	4.060904E-05
5.723679E+03	2.071749E-04	4.037097E-05
5.733582E+03	2.060225E-04	4.014139E-05
5.743484E+03	2.049124E-04	3.992010E-05
5.753387E+03	2.038481E-04	3.970773E-05
5.763289E+03	2.028326E-04	3.950490E-05
5.773192E+03	2.018669E-04	3.931178E-05
5.783094E+03	2.009491E-04	3.912801E-05
5.792997E+03	2.000824E-04	3.895420E-05
5.802899E+03	1.992673E-04	3.879044E-05
5.812802E+03	1.985065E-04	3.863727E-05
5.822705E+03	1.978003E-04	3.849474E-05
5.832607E+03	1.971472E-04	3.836254E-05
5.842510E+03	1.965495E-04	3.824111E-05
5.852412E+03	1.960051E-04	3.813005E-05
5.862315E+03	1.955209E-04	3.803071E-05
5.872217E+03	1.950903E-04	3.794179E-05
5.882120E+03	1.947155E-04	3.786370E-05
5.892022E+03	1.943986E-04	3.779685E-05
5.901925E+03	1.941371E-04	3.774078E-05
5.911828E+03	1.939309E-04	3.769542E-05
5.921730E+03	1.937818E-04	3.766114E-05
5.931633E+03	1.936871E-04	3.763741E-05
5.941535E+03	1.936485E-04	3.762457E-05
5.951438E+03	1.936610E-04	3.762161E-05
5.961340E+03	1.937284E-04	3.762929E-05
5.971243E+03	1.938455E-04	3.764656E-05
5.981146E+03	1.940158E-04	3.767416E-05
5.991048E+03	1.942318E-04	3.771057E-05
6.000951E+03	1.944970E-04	3.775649E-05
6.010853E+03	1.948082E-04	3.781128E-05
6.020756E+03	1.951640E-04	3.787469E-05
6.030658E+03	1.955590E-04	3.794565E-05
6.040561E+03	1.959963E-04	3.802476E-05
6.050463E+03	1.964680E-04	3.811047E-05
6.060366E+03	1.969770E-04	3.820337E-05
6.070269E+03	1.975149E-04	3.830182E-05
6.080171E+03	1.980803E-04	3.840552E-05
6.090074E+03	1.986692E-04	3.851370E-05
6.099976E+03	1.992801E-04	3.862609E-05
6.109879E+03	1.999036E-04	3.874085E-05
6.119781E+03	2.005380E-04	3.885766E-05
6.129684E+03	2.011790E-04	3.897565E-05
6.139586E+03	2.018247E-04	3.909449E-05
6.149489E+03	2.024727E-04	3.921371E-05
6.159392E+03	2.031269E-04	3.933405E-05
6.169294E+03	2.037928E-04	3.945657E-05
6.179197E+03	2.044718E-04	3.958155E-05
6.189099E+03	2.051675E-04	3.970969E-05
6.199002E+03	2.058842E-04	3.984181E-05
6.208904E+03	2.066233E-04	3.997820E-05
6.218807E+03	2.073895E-04	4.011972E-05
6.228709E+03	2.081849E-04	4.026682E-05
6.238612E+03	2.090112E-04	4.041981E-05
6.248515E+03	2.098739E-04	4.057975E-05
6.258417E+03	2.107730E-04	4.074661E-05
6.268320E+03	2.117135E-04	4.092140E-05
6.278222E+03	2.126930E-04	4.110362E-05
6.288125E+03	2.137143E-04	4.129382E-05
6.298027E+03	2.147774E-04	4.149198E-05
6.307930E+03	2.158859E-04	4.169881E-05
6.317833E+03	2.170370E-04	4.191376E-05
6.327735E+03	2.182308E-04	4.213682E-05
6.337638E+03	2.194651E-04	4.236758E-05
6.347540E+03	2.207332E-04	4.260474E-05
6.357443E+03	2.220322E-04	4.284775E-05
6.367345E+03	2.233625E-04	4.309667E-05
6.377248E+03	2.247237E-04	4.335141E-05
6.387150E+03	2.261162E-04	4.361207E-05
6.397053E+03	2.275435E-04	4.387928E-05
6.406956E+03	2.290094E-04	4.415381E-05
6.416858E+03	2.305142E-04	4.443568E-05
6.426761E+03	2.320550E-04	4.472435E-05
6.436663E+03	2.336390E-04	4.502120E-05
6.446566E+03	2.352672E-04	4.532638E-05
6.456468E+03	2.369365E-04	4.563934E-05
6.466371E+03	2.386509E-04	4.596084E-05
6.476273E+03	2.404115E-04	4.629104E-05
6.486176E+03	2.422148E-04	4.662930E-05
6.496079E+03	2.440616E-04	4.697576E-05
6.505981E+03	2.459605E-04	4.733207E-05
6.515884E+03	2.479004E-04	4.769607E-05
6.525786E+03	2.498897E-04	4.806940E-05
6.535689E+03	2.519293E-04	4.845220E-05
6.545591E+03	2.540116E-04	4.884302E-05
6.555494E+03	2.561455E-04	4.924356E-05
6.565396E+03	2.583236E-04	4.965238E-05
6.575299E+03	2.605548E-04	5.007120E-05
6.585202E+03	2.628312E-04	5.049849E-05
6.595104E+03	2.651577E-04	5.093519E-05
6.605007E+03	2.675351E-04	5.138142E-05
6.614909E+03	2.699594E-04	5.183645E-05
6.624812E+03	2.724311E-04	5.230032E-05
6.634714E+03	2.749555E-04	5.277410E-05
6.644617E+03	2.775284E-04	5.325690E-05
6.654520E+03	2.801505E-04	5.374891E-05
6.664422E+03	2.828220E-04	5.425014E-05
6.674325E+03	2.855436E-04	5.476073E-05
6.684227E+03	2.883159E-04	5.528076E-05
6.694130E+03	2.911392E-04	5.581030E-05
6.704032E+03	2.940089E-04	5.634844E-05
6.713935E+03	2.969305E-04	5.689628E-05
6.723837E+03	2.999046E-04	5.745386E-05
6.733740E+03	3.029260E-04	5.802022E-05
6.743643E+03	3.060006E-04	5.859647E-05
6.753545E+03	3.091235E-04	5.918166E-05
6.763448E+03	3.122947E-04	5.977579E-05
6.773350E+03	3.155146E-04	6.037893E-05
6.783253E+03	3.187831E-04	6.099106E-05
6.793155E+03	3.221066E-04	6.161337E-05
6.803058E+03	3.254734E-04	6.224364E-05
6.812960E+03	3.288895E-04	6.288301E-05
6.822863E+03	3.323553E-04	6.353152E-05
6.832766E+03	3.358645E-04	6.418799E-05
6.842668E+03	3.394232E-04	6.485358E-05
6.852571E+03	3.430318E-04	6.552833E-05
6.862473E+03	3.466836E-04	6.621096E-05
6.872376E+03	3.503786E-04	6.690150E-05
6.882278E+03	3.541232E-04	6.760113E-05
6.892181E+03	3.579107E-04	6.830855E-05
6.902083E+03	3.617409E-04	6.902377E-05
6.911986E+03	3.656134E-04	6.974665E-05
6.921889E+03	3.695280E-04	7.047718E-05
6.931791E+03	3.734772E-04	7.121391E-05
6.941694E+03	3.774751E-04	7.195952E-05
6.951596E+03	3.815065E-04	7.271112E-05
6.961499E+03	3.855787E-04	7.347007E-05
6.971401E+03	3.896834E-04	7.423480E-05
6.981304E+03	3.938198E-04	7.500517E-05
6.991207E+03	3.979956E-04	7.578259E-05
7.001109E+03	4.022019E-04	7.656540E-05
7.011012E+03	4.064300E-04	7.735194E-05
7.020914E+03	4.106953E-04	7.814512E-05
7.030817E+03	4.149892E-04	7.894330E-05
7.040719E+03	4.193020E-04	7.974464E-05
7.050622E+03	4.236418E-04	8.055065E-05
7.060524E+03	4.279985E-04	8.135946E-05
7.070427E+03	4.323803E-04	8.217256E-05
7.080330E+03	4.367770E-04	8.298806E-05
7.090232E+03	4.411967E-04	8.380747E-05
7.100135E+03	4.456201E-04	8.462712E-05
7.110037E+03	4.500548E-04	8.544847E-05
7.119940E+03	4.545094E-04	8.627313E-05
7.129842E+03	4.589635E-04	8.709722E-05
7.139745E+03	4.634156E-04	8.792048E-05
7.149647E+03	4.678737E-04	8.874444E-05
7.159550E+03	4.723367E-04	8.956884E-05
7.169453E+03	4.767929E-04	9.039147E-05
7.179355E+03	4.812510E-04	9.121402E-05
7.189258E+03	4.856991E-04	9.203421E-05
7.199160E+03	4.901353E-04	9.285169E-05
7.209063E+03	4.945687E-04	9.366817E-05
7.218965E+03	4.989869E-04	9.448131E-05
7.228868E+03	5.033989E-04	9.529282E-05
7.238770E+03	5.077924E-04	9.610036E-05
7.248673E+03	5.121655E-04	9.690359E-05
7.258576E+03	5.165389E-04	9.770641E-05
7.268478E+03	5.208890E-04	9.850437E-05
7.278381E+03	5.252369E-04	9.930148E-05
7.288283E+03	5.295704E-04	1.000954E-04
7.298186E+03	5.338999E-04	1.008881E-04
7.308088E+03	5.382371E-04	1.016818E-04
7.317991E+03	5.425692E-04	1.024742E-04
7.327894E+03	5.469209E-04	1.032697E-04
7.337796E+03	5.512923E-04	1.040686E-04
7.347699E+03	5.556972E-04	1.048733E-04
7.357601E+03	5.601362E-04	1.056840E-04
7.367504E+03	5.646111E-04	1.065010E-04
7.377406E+03	5.691360E-04	1.073270E-04
7.387309E+03	5.736863E-04	1.081573E-04
7.397211E+03	5.782635E-04	1.089922E-04
7.407114E+03	5.828548E-04	1.098293E-04
7.417017E+03	5.874749E-04	1.106714E-04
7.426919E+03	5.921111E-04	1.115160E-04
7.436822E+03	5.967504E-04	1.123608E-04
7.446724E+03	6.013931E-04	1.132057E-04
7.456627E+03	6.060395E-04	1.140509E-04
7.466529E+03	6.106753E-04	1.148936E-04
7.476432E+03	6.153153E-04	1.157367E-04
7.486334E+03	6.199293E-04	1.165744E-04
7.496237E+03	6.245469E-04	1.174123E-04
7.506140E+03	6.291525E-04	1.182476E-04
7.516042E+03	6.337456E-04	1.190800E-04
7.525945E+03	6.383094E-04	1.199065E-04
7.535847E+03	6.428581E-04	1.207297E-04
7.545750E+03	6.473898E-04	1.215494E-04
7.555652E+03	6.519030E-04	1.223651E-04
7.565555E+03	6.563794E-04	1.231734E-04
7.575457E+03	6.608320E-04	1.239769E-04
7.585360E+03	6.652418E-04	1.247720E-04
7.595263E+03	6.696384E-04	1.255642E-04
7.605165E+03	6.739681E-04	1.263434E-04
7.615068E+03	6.782771E-04	1.271183E-04
7.624970E+03	6.825443E-04	1.278851E-04
7.634873E+03	6.867480E-04	1.286395E-04
7.644775E+03	6.909001E-04	1.293840E-04
7.654678E+03	6.949954E-04	1.301174E-04
7.664581E+03	6.990287E-04	1.308388E-04
7.674483E+03	7.029940E-04	1.315472E-04
7.684386E+03	7.069038E-04	1.322449E-04
