#wls	flux	fluxerr
1.584409E+03	-1.199279E-03	-4.556691E-03
1.624020E+03	-1.609330E-03	-6.218472E-03
1.663630E+03	-1.971926E-03	-7.764902E-03
1.703240E+03	-2.275725E-03	-9.121129E-03
1.742850E+03	-2.527609E-03	-1.033736E-02
1.782461E+03	-2.716929E-03	-1.132042E-02
1.822071E+03	-2.850784E-03	-1.213878E-02
1.861681E+03	-2.921137E-03	-1.268439E-02
1.901291E+03	-2.933181E-03	-1.303943E-02
1.940902E+03	-2.883960E-03	-1.308712E-02
1.980512E+03	-2.775087E-03	-1.292046E-02
2.020122E+03	-2.611106E-03	-1.242079E-02
2.059732E+03	-2.388489E-03	-1.168945E-02
2.099342E+03	-2.121103E-03	-1.061135E-02
2.138953E+03	-1.799243E-03	-9.295846E-03
2.178563E+03	-1.449694E-03	-7.648312E-03
2.218173E+03	-1.053766E-03	-5.776664E-03
2.257783E+03	-6.541681E-04	-3.625658E-03
2.297394E+03	-2.211896E-04	-1.294463E-03
2.337004E+03	1.874350E-04	-2.485484E-03
2.376614E+03	6.159793E-04	-3.729027E-03
2.416224E+03	9.983203E-04	-6.132898E-03
2.455835E+03	1.389971E-03	-8.595519E-03
2.495445E+03	1.719329E-03	-1.077311E-02
2.535055E+03	2.050120E-03	-1.296064E-02
2.574665E+03	2.305331E-03	-1.476937E-02
2.614276E+03	2.556253E-03	-1.654869E-02
2.653886E+03	2.720884E-03	-1.786966E-02
2.693496E+03	2.877890E-03	-1.913293E-02
2.733106E+03	2.941427E-03	-1.987780E-02
2.772716E+03	2.996668E-03	-2.054939E-02
2.812327E+03	2.955871E-03	-2.066750E-02
2.851937E+03	2.909793E-03	-2.071622E-02
2.891547E+03	2.771051E-03	-2.020849E-02
2.931157E+03	2.634017E-03	-1.965760E-02
2.967758E+03	9.737024E-02	-7.460038E-01
2.968352E+03	9.710417E-02	-7.442797E-01
2.969144E+03	9.677810E-02	-7.422301E-01
2.969343E+03	9.654594E-02	-7.405625E-01
2.969739E+03	9.627984E-02	-7.387534E-01
2.986574E+03	9.303578E-02	-7.234383E-01
2.990338E+03	9.210197E-02	-7.183978E-01
2.990536E+03	9.189032E-02	-7.168637E-01
2.990932E+03	9.162701E-02	-7.150447E-01
2.991724E+03	9.129298E-02	-7.129068E-01
2.992319E+03	9.099033E-02	-7.108958E-01
2.993308E+03	9.059643E-02	-7.084030E-01
2.993903E+03	9.029531E-02	-7.064010E-01
2.994497E+03	9.000396E-02	-7.044727E-01
2.995091E+03	8.969049E-02	-7.023705E-01
2.995289E+03	8.945156E-02	-7.006163E-01
2.995487E+03	8.920869E-02	-6.988311E-01
2.997270E+03	8.866426E-02	-6.956149E-01
2.997468E+03	8.843624E-02	-6.939431E-01
2.999052E+03	8.792856E-02	-6.908918E-01
2.999845E+03	8.757107E-02	-6.885502E-01
3.000242E+03	8.728237E-02	-6.865138E-01
3.001232E+03	8.688062E-02	-6.839386E-01
3.003212E+03	8.629920E-02	-6.805249E-01
3.003410E+03	8.606321E-02	-6.787808E-01
3.003807E+03	8.576818E-02	-6.766869E-01
3.004796E+03	8.537302E-02	-6.741513E-01
3.005390E+03	8.506274E-02	-6.720497E-01
3.005589E+03	8.480469E-02	-6.701280E-01
3.006381E+03	8.443559E-02	-6.676754E-01
3.007768E+03	8.392512E-02	-6.644514E-01
3.008560E+03	8.355574E-02	-6.619897E-01
3.009946E+03	8.307318E-02	-6.589843E-01
3.014106E+03	8.204259E-02	-6.532391E-01
3.014898E+03	8.167185E-02	-6.507598E-01
3.021038E+03	8.021536E-02	-6.427655E-01
3.037676E+03	7.638382E-02	-6.221525E-01
3.049758E+03	7.361576E-02	-6.068033E-01
3.059067E+03	7.128594E-02	-5.934720E-01
3.062039E+03	7.041583E-02	-5.880988E-01
3.065404E+03	6.942177E-02	-5.819567E-01
3.065603E+03	6.915495E-02	-5.798477E-01
3.065801E+03	6.890242E-02	-5.778571E-01
3.065999E+03	6.863928E-02	-5.757773E-01
3.067386E+03	6.812041E-02	-5.723124E-01
3.067584E+03	6.785227E-02	-5.701859E-01
3.067980E+03	6.753490E-02	-5.677717E-01
3.068178E+03	6.726840E-02	-5.656571E-01
3.070159E+03	6.659652E-02	-5.612624E-01
3.070357E+03	6.632979E-02	-5.591398E-01
3.071347E+03	6.589526E-02	-5.561037E-01
3.071743E+03	6.560373E-02	-5.538933E-01
3.072139E+03	6.529354E-02	-5.515242E-01
3.072535E+03	6.499658E-02	-5.492649E-01
3.073725E+03	6.453396E-02	-5.461023E-01
3.074517E+03	6.413225E-02	-5.431983E-01
3.075903E+03	6.359982E-02	-5.395555E-01
3.076101E+03	6.334417E-02	-5.375101E-01
3.076695E+03	6.299719E-02	-5.349362E-01
3.076892E+03	6.273023E-02	-5.327918E-01
3.077090E+03	6.246733E-02	-5.306817E-01
3.077289E+03	6.220967E-02	-5.286157E-01
3.077883E+03	6.186420E-02	-5.260459E-01
3.078477E+03	6.151547E-02	-5.234453E-01
3.078675E+03	6.125214E-02	-5.213262E-01
3.079864E+03	6.077940E-02	-5.180287E-01
3.080062E+03	6.051644E-02	-5.159084E-01
3.080260E+03	6.025584E-02	-5.138072E-01
3.080656E+03	5.995548E-02	-5.114864E-01
3.080854E+03	5.969561E-02	-5.093891E-01
3.081052E+03	5.942991E-02	-5.072412E-01
3.081250E+03	5.916355E-02	-5.050868E-01
3.082241E+03	5.873042E-02	-5.019818E-01
3.082637E+03	5.843003E-02	-4.996506E-01
3.083033E+03	5.812193E-02	-4.972521E-01
3.083627E+03	5.777342E-02	-4.946230E-01
3.083825E+03	5.751071E-02	-4.924912E-01
3.084221E+03	5.720746E-02	-4.901280E-01
3.084419E+03	5.696149E-02	-4.881372E-01
3.084617E+03	5.671084E-02	-4.861053E-01
3.084815E+03	5.644848E-02	-4.839723E-01
3.085213E+03	5.615391E-02	-4.816780E-01
3.085609E+03	5.585203E-02	-4.793186E-01
3.086005E+03	5.554692E-02	-4.769292E-01
3.086203E+03	5.530213E-02	-4.749418E-01
3.086401E+03	5.504571E-02	-4.728535E-01
3.086599E+03	5.478362E-02	-4.707156E-01
3.086797E+03	5.452191E-02	-4.685799E-01
3.086995E+03	5.426437E-02	-4.664792E-01
3.087589E+03	5.393376E-02	-4.639737E-01
3.087787E+03	5.367518E-02	-4.618612E-01
3.088381E+03	5.333707E-02	-4.592862E-01
3.088578E+03	5.308261E-02	-4.572057E-01
3.088777E+03	5.283003E-02	-4.551414E-01
3.088974E+03	5.256927E-02	-4.530048E-01
3.089173E+03	5.232340E-02	-4.509959E-01
3.089767E+03	5.199731E-02	-4.485139E-01
3.089965E+03	5.173767E-02	-4.463833E-01
3.090163E+03	5.147827E-02	-4.442542E-01
3.090361E+03	5.122803E-02	-4.422029E-01
3.090559E+03	5.096729E-02	-4.400602E-01
3.090757E+03	5.071182E-02	-4.379618E-01
3.090955E+03	5.045174E-02	-4.358228E-01
3.091153E+03	5.019886E-02	-4.337450E-01
3.091352E+03	4.994115E-02	-4.316252E-01
3.091946E+03	4.960726E-02	-4.290566E-01
3.092144E+03	4.934976E-02	-4.269349E-01
3.092540E+03	4.905789E-02	-4.246199E-01
3.092738E+03	4.880022E-02	-4.224943E-01
3.092937E+03	4.854389E-02	-4.203793E-01
3.093135E+03	4.829750E-02	-4.183494E-01
3.093333E+03	4.804180E-02	-4.162378E-01
3.093531E+03	4.779119E-02	-4.141695E-01
3.093927E+03	4.750522E-02	-4.118961E-01
3.094125E+03	4.725448E-02	-4.098242E-01
3.094323E+03	4.700985E-02	-4.078042E-01
3.094521E+03	4.675584E-02	-4.057020E-01
3.094719E+03	4.650897E-02	-4.036607E-01
3.094917E+03	4.625853E-02	-4.015876E-01
3.095115E+03	4.600648E-02	-3.994994E-01
3.095313E+03	4.575189E-02	-3.973883E-01
3.095709E+03	4.546408E-02	-3.950865E-01
3.095907E+03	4.521222E-02	-3.929966E-01
3.096105E+03	4.495973E-02	-3.909000E-01
3.096303E+03	4.470851E-02	-3.888137E-01
3.096501E+03	4.445671E-02	-3.867212E-01
3.096699E+03	4.420518E-02	-3.846301E-01
3.096898E+03	4.395402E-02	-3.825413E-01
3.097096E+03	4.370221E-02	-3.804457E-01
3.097295E+03	4.345059E-02	-3.783513E-01
3.097493E+03	4.320040E-02	-3.762680E-01
3.097691E+03	4.294961E-02	-3.741783E-01
3.097889E+03	4.269911E-02	-3.720903E-01
3.098087E+03	4.244900E-02	-3.700045E-01
3.098285E+03	4.219823E-02	-3.679121E-01
3.098483E+03	4.195444E-02	-3.658795E-01
3.098681E+03	4.170813E-02	-3.638240E-01
3.098879E+03	4.146405E-02	-3.617869E-01
3.099077E+03	4.121932E-02	-3.597433E-01
3.099275E+03	4.097588E-02	-3.577097E-01
3.099473E+03	4.073750E-02	-3.557195E-01
3.099671E+03	4.049000E-02	-3.536487E-01
3.099869E+03	4.024281E-02	-3.515796E-01
3.100067E+03	3.999788E-02	-3.495291E-01
3.100265E+03	3.975700E-02	-3.475131E-01
3.100463E+03	3.951270E-02	-3.454663E-01
3.100661E+03	3.926891E-02	-3.434224E-01
3.100860E+03	3.902322E-02	-3.413618E-01
3.101058E+03	3.877990E-02	-3.393205E-01
3.101255E+03	3.854273E-02	-3.373316E-01
3.101454E+03	3.830649E-02	-3.353508E-01
3.101651E+03	3.806528E-02	-3.333246E-01
3.101849E+03	3.782140E-02	-3.312745E-01
3.102047E+03	3.758257E-02	-3.292675E-01
3.102245E+03	3.733937E-02	-3.272214E-01
3.102443E+03	3.710304E-02	-3.252344E-01
3.102641E+03	3.686145E-02	-3.232004E-01
3.102839E+03	3.663325E-02	-3.212827E-01
3.103037E+03	3.639694E-02	-3.192930E-01
3.103235E+03	3.616008E-02	-3.172974E-01
3.103434E+03	3.592521E-02	-3.153188E-01
3.103632E+03	3.569271E-02	-3.133596E-01
3.103830E+03	3.545216E-02	-3.113287E-01
3.104028E+03	3.521661E-02	-3.093407E-01
3.104226E+03	3.497951E-02	-3.073382E-01
3.104424E+03	3.474739E-02	-3.053784E-01
3.104623E+03	3.451093E-02	-3.033795E-01
3.104821E+03	3.427485E-02	-3.013829E-01
3.105019E+03	3.404833E-02	-2.994695E-01
3.105217E+03	3.381844E-02	-2.975253E-01
3.105415E+03	3.358700E-02	-2.955666E-01
3.105613E+03	3.335406E-02	-2.935938E-01
3.105811E+03	3.312237E-02	-2.916310E-01
3.106009E+03	3.288828E-02	-2.896459E-01
3.106207E+03	3.266001E-02	-2.877113E-01
3.106405E+03	3.243299E-02	-2.857866E-01
3.106603E+03	3.220995E-02	-2.838961E-01
3.106801E+03	3.197900E-02	-2.819348E-01
3.106999E+03	3.174929E-02	-2.799835E-01
3.107197E+03	3.152724E-02	-2.780988E-01
3.107395E+03	3.130271E-02	-2.761913E-01
3.107593E+03	3.107582E-02	-2.742620E-01
3.107791E+03	3.085381E-02	-2.723748E-01
3.107989E+03	3.062664E-02	-2.704411E-01
3.108187E+03	3.040710E-02	-2.685737E-01
3.108385E+03	3.018515E-02	-2.666841E-01
3.108584E+03	2.995987E-02	-2.647642E-01
3.108782E+03	2.974219E-02	-2.629105E-01
3.108980E+03	2.951757E-02	-2.609944E-01
3.109178E+03	2.929600E-02	-2.591043E-01
3.109377E+03	2.907644E-02	-2.572314E-01
3.109575E+03	2.885824E-02	-2.553692E-01
3.109773E+03	2.863582E-02	-2.534688E-01
3.109971E+03	2.841646E-02	-2.515944E-01
3.110169E+03	2.819921E-02	-2.497378E-01
3.110367E+03	2.798139E-02	-2.478752E-01
3.110565E+03	2.776569E-02	-2.460304E-01
3.110763E+03	2.755032E-02	-2.441876E-01
3.110961E+03	2.733525E-02	-2.423465E-01
3.111159E+03	2.712142E-02	-2.405154E-01
3.111357E+03	2.690879E-02	-2.386941E-01
3.111555E+03	2.669649E-02	-2.368747E-01
3.111753E+03	2.648540E-02	-2.350651E-01
3.111951E+03	2.627553E-02	-2.332654E-01
3.112149E+03	2.606596E-02	-2.314674E-01
3.112347E+03	2.586220E-02	-2.297198E-01
3.112546E+03	2.565224E-02	-2.279169E-01
3.112743E+03	2.544285E-02	-2.261174E-01
3.112942E+03	2.523977E-02	-2.243738E-01
3.113140E+03	2.503356E-02	-2.226011E-01
3.113337E+03	2.482776E-02	-2.208308E-01
3.113536E+03	2.462296E-02	-2.190690E-01
3.113733E+03	2.441600E-02	-2.172866E-01
3.113931E+03	2.421105E-02	-2.155213E-01
3.114129E+03	2.401171E-02	-2.138052E-01
3.114327E+03	2.380826E-02	-2.120515E-01
3.114525E+03	2.360600E-02	-2.103075E-01
3.114723E+03	2.340583E-02	-2.085811E-01
3.114921E+03	2.321037E-02	-2.068959E-01
3.115119E+03	2.301523E-02	-2.052127E-01
3.115317E+03	2.282302E-02	-2.035547E-01
3.115516E+03	2.263631E-02	-2.019452E-01
3.115714E+03	2.244117E-02	-2.002592E-01
3.115912E+03	2.224369E-02	-1.985516E-01
3.116110E+03	2.205443E-02	-1.969164E-01
3.116507E+03	2.184193E-02	-1.951266E-01
3.116705E+03	2.165253E-02	-1.934879E-01
3.116903E+03	2.145992E-02	-1.918198E-01
3.117101E+03	2.127287E-02	-1.902003E-01
3.117299E+03	2.108698E-02	-1.885905E-01
3.117497E+03	2.090313E-02	-1.869980E-01
3.117695E+03	2.071870E-02	-1.853995E-01
3.117893E+03	2.053542E-02	-1.838104E-01
3.118091E+03	2.035506E-02	-1.822466E-01
3.118289E+03	2.017932E-02	-1.807234E-01
3.118487E+03	2.000300E-02	-1.791942E-01
3.118685E+03	1.981912E-02	-1.775964E-01
3.118883E+03	1.963902E-02	-1.760315E-01
3.119081E+03	1.946005E-02	-1.744761E-01
3.119279E+03	1.928572E-02	-1.729614E-01
3.119477E+03	1.911166E-02	-1.714483E-01
3.119675E+03	1.893442E-02	-1.699058E-01
3.119873E+03	1.875832E-02	-1.683727E-01
3.120071E+03	1.859028E-02	-1.669112E-01
3.120270E+03	1.841646E-02	-1.653969E-01
3.120468E+03	1.824638E-02	-1.639155E-01
3.120666E+03	1.808173E-02	-1.624820E-01
3.120864E+03	1.791477E-02	-1.610271E-01
3.121062E+03	1.774549E-02	-1.595504E-01
3.121260E+03	1.757735E-02	-1.580831E-01
3.121459E+03	1.741282E-02	-1.566479E-01
3.121657E+03	1.724866E-02	-1.552148E-01
3.121855E+03	1.708388E-02	-1.537756E-01
3.122053E+03	1.692881E-02	-1.524228E-01
3.122251E+03	1.677141E-02	-1.510484E-01
3.122449E+03	1.661342E-02	-1.496679E-01
3.122647E+03	1.645824E-02	-1.483120E-01
3.122845E+03	1.630503E-02	-1.469730E-01
3.123043E+03	1.615205E-02	-1.456355E-01
3.123241E+03	1.600274E-02	-1.443303E-01
3.123439E+03	1.585367E-02	-1.430265E-01
3.123637E+03	1.570314E-02	-1.417089E-01
3.123835E+03	1.555370E-02	-1.404004E-01
3.124034E+03	1.540961E-02	-1.391394E-01
3.124232E+03	1.526829E-02	-1.379028E-01
3.124429E+03	1.511880E-02	-1.365915E-01
3.124628E+03	1.497533E-02	-1.353343E-01
3.124825E+03	1.483226E-02	-1.340795E-01
3.125023E+03	1.468764E-02	-1.328103E-01
3.125222E+03	1.454489E-02	-1.315574E-01
3.125419E+03	1.440842E-02	-1.303603E-01
3.125617E+03	1.427210E-02	-1.291642E-01
3.125815E+03	1.413600E-02	-1.279693E-01
3.126013E+03	1.400435E-02	-1.268140E-01
3.126211E+03	1.387121E-02	-1.256446E-01
3.126409E+03	1.373663E-02	-1.244615E-01
3.126607E+03	1.360730E-02	-1.233253E-01
3.126805E+03	1.347986E-02	-1.222057E-01
3.127003E+03	1.335012E-02	-1.210645E-01
3.127201E+03	1.322478E-02	-1.199626E-01
3.127399E+03	1.310298E-02	-1.188923E-01
3.127598E+03	1.298384E-02	-1.178456E-01
3.127796E+03	1.286245E-02	-1.167778E-01
3.127995E+03	1.274710E-02	-1.157642E-01
3.128193E+03	1.263693E-02	-1.147971E-01
3.128391E+03	1.251946E-02	-1.137631E-01
3.128589E+03	1.240218E-02	-1.127303E-01
3.128787E+03	1.228510E-02	-1.116987E-01
3.128985E+03	1.217236E-02	-1.107060E-01
3.129183E+03	1.206479E-02	-1.097598E-01
3.129381E+03	1.196236E-02	-1.088598E-01
3.129579E+03	1.185266E-02	-1.078931E-01
3.129777E+03	1.175057E-02	-1.069952E-01
3.129975E+03	1.164701E-02	-1.060834E-01
3.130173E+03	1.154197E-02	-1.051575E-01
3.130371E+03	1.144123E-02	-1.042703E-01
3.130569E+03	1.134065E-02	-1.033841E-01
3.130767E+03	1.123778E-02	-1.024765E-01
3.130965E+03	1.113754E-02	-1.015924E-01
3.131163E+03	1.103911E-02	-1.007244E-01
3.131361E+03	1.094249E-02	-9.987229E-02
3.131559E+03	1.084849E-02	-9.904369E-02
3.131758E+03	1.075874E-02	-9.825335E-02
3.131956E+03	1.066915E-02	-9.746401E-02
3.132154E+03	1.058214E-02	-9.669793E-02
3.132352E+03	1.049856E-02	-9.596265E-02
3.132550E+03	1.041185E-02	-9.519834E-02
3.132748E+03	1.032610E-02	-9.444243E-02
3.132946E+03	1.024212E-02	-9.370225E-02
3.133144E+03	1.016316E-02	-9.300762E-02
3.133342E+03	1.008839E-02	-9.235092E-02
3.133541E+03	1.001127E-02	-9.167246E-02
3.133739E+03	9.935134E-03	-9.100246E-02
3.133937E+03	9.869657E-03	-9.042977E-02
3.134135E+03	9.794569E-03	-8.976867E-02
3.134333E+03	9.722040E-03	-8.913064E-02
3.134531E+03	9.650431E-03	-8.850069E-02
3.134729E+03	9.582177E-03	-8.790115E-02
3.134927E+03	9.517252E-03	-8.733183E-02
3.135125E+03	9.454052E-03	-8.677800E-02
3.135323E+03	9.398995E-03	-8.629864E-02
3.135521E+03	9.339208E-03	-8.577554E-02
3.135720E+03	9.277106E-03	-8.523090E-02
3.135918E+03	9.218318E-03	-8.471637E-02
3.136116E+03	9.160424E-03	-8.420980E-02
3.136314E+03	9.109034E-03	-8.376272E-02
3.136511E+03	9.058567E-03	-8.332376E-02
3.136710E+03	9.005693E-03	-8.286265E-02
3.136907E+03	8.959379E-03	-8.246142E-02
3.137105E+03	8.911504E-03	-8.204570E-02
3.137304E+03	8.870819E-03	-8.169610E-02
3.137501E+03	8.834275E-03	-8.138418E-02
3.137699E+03	8.789783E-03	-8.099899E-02
3.137897E+03	8.750926E-03	-8.066551E-02
3.138095E+03	8.712122E-03	-8.033234E-02
3.138293E+03	8.675758E-03	-8.002148E-02
3.138491E+03	8.643406E-03	-7.974747E-02
3.138689E+03	8.609520E-03	-7.945914E-02
3.138887E+03	8.584372E-03	-7.925133E-02
3.139085E+03	8.556895E-03	-7.902189E-02
3.139283E+03	8.528658E-03	-7.878532E-02
3.139482E+03	8.506770E-03	-7.860727E-02
3.139681E+03	8.483285E-03	-7.841450E-02
3.139879E+03	8.463022E-03	-7.825129E-02
3.140077E+03	8.445920E-03	-7.811724E-02
3.140275E+03	8.429626E-03	-7.799058E-02
3.140473E+03	8.413339E-03	-7.786395E-02
3.140671E+03	8.406473E-03	-7.782444E-02
3.140869E+03	8.396466E-03	-7.775586E-02
3.141067E+03	8.384904E-03	-7.767283E-02
3.141265E+03	8.377245E-03	-7.762595E-02
3.141463E+03	8.368812E-03	-7.757187E-02
3.141661E+03	8.365048E-03	-7.756107E-02
3.141859E+03	8.362054E-03	-7.755742E-02
3.142057E+03	8.364492E-03	-7.760418E-02
3.142255E+03	8.365357E-03	-7.763637E-02
3.142453E+03	8.370854E-03	-7.771162E-02
3.142651E+03	8.373999E-03	-7.776508E-02
3.142849E+03	8.380989E-03	-7.785432E-02
3.143047E+03	8.388727E-03	-7.795056E-02
3.143245E+03	8.398743E-03	-7.806807E-02
3.143444E+03	8.411816E-03	-7.821408E-02
3.143642E+03	8.425610E-03	-7.836692E-02
3.143840E+03	8.445528E-03	-7.857683E-02
3.144038E+03	8.471542E-03	-7.884364E-02
3.144236E+03	8.492104E-03	-7.905986E-02
3.144434E+03	8.517212E-03	-7.931858E-02
3.144632E+03	8.541485E-03	-7.956970E-02
3.144830E+03	8.567218E-03	-7.983461E-02
3.145028E+03	8.596718E-03	-8.013479E-02
3.145226E+03	8.626896E-03	-8.044152E-02
3.145424E+03	8.663877E-03	-8.081191E-02
3.145623E+03	8.700713E-03	-8.118133E-02
3.145821E+03	8.738267E-03	-8.155756E-02
3.146019E+03	8.779528E-03	-8.196867E-02
3.146217E+03	8.819168E-03	-8.236491E-02
3.146415E+03	8.861743E-03	-8.278885E-02
3.146613E+03	8.910292E-03	-8.326890E-02
3.146811E+03	8.959472E-03	-8.375518E-02
3.147009E+03	9.010812E-03	-8.426196E-02
3.147207E+03	9.062776E-03	-8.477495E-02
3.147406E+03	9.116131E-03	-8.530127E-02
3.147604E+03	9.171613E-03	-8.584789E-02
3.147802E+03	9.228476E-03	-8.640778E-02
3.148000E+03	9.286703E-03	-8.698084E-02
3.148198E+03	9.346299E-03	-8.756709E-02
3.148396E+03	9.408000E-03	-8.817348E-02
3.148593E+03	9.471866E-03	-8.880042E-02
3.148792E+03	9.536215E-03	-8.943262E-02
3.148990E+03	9.604968E-03	-9.010639E-02
3.149187E+03	9.681844E-03	-9.085672E-02
3.149386E+03	9.756189E-03	-9.158407E-02
3.149583E+03	9.828961E-03	-9.229686E-02
3.149781E+03	9.905246E-03	-9.304325E-02
3.149979E+03	9.984325E-03	-9.381643E-02
3.150177E+03	1.006322E-02	-9.458838E-02
3.150375E+03	1.015309E-02	-9.546403E-02
3.150573E+03	1.023977E-02	-9.631033E-02
3.150771E+03	1.033070E-02	-9.719714E-02
3.150969E+03	1.042068E-02	-9.807557E-02
3.151168E+03	1.051340E-02	-9.898044E-02
3.151366E+03	1.060887E-02	-9.991179E-02
3.151565E+03	1.070627E-02	-1.008621E-01
3.151763E+03	1.080276E-02	-1.018043E-01
3.151961E+03	1.090122E-02	-1.027658E-01
3.152159E+03	1.100610E-02	-1.037884E-01
3.152357E+03	1.111587E-02	-1.048579E-01
3.152555E+03	1.122171E-02	-1.058910E-01
3.152753E+03	1.133317E-02	-1.069778E-01
3.152951E+03	1.144290E-02	-1.080491E-01
3.153149E+03	1.155383E-02	-1.091324E-01
3.153347E+03	1.166597E-02	-1.102278E-01
3.153545E+03	1.178295E-02	-1.113699E-01
3.153743E+03	1.190258E-02	-1.125377E-01
3.153941E+03	1.202339E-02	-1.137174E-01
3.154139E+03	1.214463E-02	-1.149021E-01
3.154337E+03	1.227141E-02	-1.161400E-01
3.154535E+03	1.239717E-02	-1.173690E-01
3.154733E+03	1.252625E-02	-1.186304E-01
3.154931E+03	1.265866E-02	-1.199241E-01
3.155130E+03	1.278857E-02	-1.211951E-01
3.155328E+03	1.292180E-02	-1.224983E-01
3.155526E+03	1.305687E-02	-1.238200E-01
3.155724E+03	1.319451E-02	-1.251669E-01
3.155922E+03	1.333398E-02	-1.265321E-01
3.156120E+03	1.347529E-02	-1.279157E-01
3.156318E+03	1.361913E-02	-1.293243E-01
3.156516E+03	1.376479E-02	-1.307512E-01
3.156714E+03	1.391225E-02	-1.321961E-01
3.156912E+03	1.406223E-02	-1.336660E-01
3.157110E+03	1.421399E-02	-1.351538E-01
3.157308E+03	1.436826E-02	-1.366666E-01
3.157506E+03	1.452358E-02	-1.381903E-01
3.157705E+03	1.468203E-02	-1.397451E-01
3.157903E+03	1.484229E-02	-1.413181E-01
3.158101E+03	1.500433E-02	-1.429090E-01
3.158299E+03	1.516952E-02	-1.445311E-01
3.158497E+03	1.533574E-02	-1.461641E-01
3.158695E+03	1.550439E-02	-1.478215E-01
3.158893E+03	1.567477E-02	-1.494965E-01
3.159092E+03	1.584756E-02	-1.511956E-01
3.159290E+03	1.602277E-02	-1.529191E-01
3.159488E+03	1.619966E-02	-1.546598E-01
3.159686E+03	1.637826E-02	-1.564179E-01
3.159884E+03	1.655922E-02	-1.582000E-01
3.160082E+03	1.674187E-02	-1.599994E-01
3.160279E+03	1.692698E-02	-1.618233E-01
3.160478E+03	1.711426E-02	-1.636698E-01
3.160675E+03	1.730337E-02	-1.655345E-01
3.160874E+03	1.749464E-02	-1.674218E-01
3.161072E+03	1.768833E-02	-1.693333E-01
3.161269E+03	1.788376E-02	-1.712624E-01
3.161467E+03	1.808138E-02	-1.732144E-01
3.161665E+03	1.828063E-02	-1.751831E-01
3.162061E+03	1.846191E-02	-1.770420E-01
3.162259E+03	1.867316E-02	-1.791294E-01
3.162457E+03	1.888595E-02	-1.812331E-01
3.162655E+03	1.907179E-02	-1.830796E-01
3.162854E+03	1.934539E-02	-1.857701E-01
3.163052E+03	1.847452E-02	-1.774686E-01
3.163250E+03	1.754665E-02	-1.686136E-01
3.163448E+03	1.732718E-02	-1.665623E-01
3.163647E+03	1.737298E-02	-1.670607E-01
3.163845E+03	1.721699E-02	-1.656181E-01
