#wls	flux	fluxerr
1.584409E+03	4.376692E-03	1.042368E-03
1.624020E+03	4.520980E-03	1.076718E-03
1.663630E+03	4.659807E-03	1.109767E-03
1.703240E+03	4.791538E-03	1.141125E-03
1.742850E+03	4.914876E-03	1.170483E-03
1.782461E+03	5.027926E-03	1.197389E-03
1.822071E+03	5.129166E-03	1.221481E-03
1.861681E+03	5.216982E-03	1.242376E-03
1.901291E+03	5.289238E-03	1.259564E-03
1.940902E+03	5.344253E-03	1.272646E-03
1.980512E+03	5.380372E-03	1.281227E-03
2.020122E+03	5.396007E-03	1.284929E-03
2.059732E+03	5.389300E-03	1.283310E-03
2.099342E+03	5.359039E-03	1.276082E-03
2.138953E+03	5.303546E-03	1.262847E-03
2.178563E+03	5.221640E-03	1.243321E-03
2.218173E+03	5.111422E-03	1.217055E-03
2.257783E+03	4.971960E-03	1.183826E-03
2.297394E+03	4.806375E-03	1.144377E-03
2.337004E+03	4.618861E-03	1.099709E-03
2.376614E+03	4.412824E-03	1.050632E-03
2.416224E+03	4.191098E-03	9.978212E-04
2.455835E+03	3.956350E-03	9.419117E-04
2.495445E+03	3.711514E-03	8.836025E-04
2.535055E+03	3.459231E-03	8.235226E-04
2.574665E+03	3.202542E-03	7.623961E-04
2.614276E+03	2.944211E-03	7.008810E-04
2.653886E+03	2.686847E-03	6.395989E-04
2.693496E+03	2.433321E-03	5.792328E-04
2.733106E+03	2.186173E-03	5.203878E-04
2.772716E+03	1.947830E-03	4.636414E-04
2.812327E+03	1.720497E-03	4.095181E-04
2.851937E+03	1.506213E-03	3.585036E-04
2.891547E+03	1.306954E-03	3.110677E-04
2.931157E+03	1.124484E-03	2.676303E-04
2.970768E+03	9.599018E-04	2.284524E-04
2.980670E+03	9.216028E-04	2.193357E-04
2.990573E+03	8.844807E-04	2.104992E-04
3.000475E+03	8.484825E-04	2.019304E-04
3.010378E+03	8.136189E-04	1.936317E-04
3.020280E+03	7.799133E-04	1.856087E-04
3.030183E+03	7.473146E-04	1.778493E-04
3.040086E+03	7.158410E-04	1.703577E-04
3.049988E+03	6.854735E-04	1.631294E-04
3.059891E+03	6.561935E-04	1.561601E-04
3.069793E+03	6.279810E-04	1.494449E-04
3.079696E+03	6.008410E-04	1.429851E-04
3.089598E+03	5.747370E-04	1.367718E-04
3.099501E+03	5.496576E-04	1.308026E-04
3.109403E+03	5.255779E-04	1.250712E-04
3.119306E+03	5.024726E-04	1.195719E-04
3.129209E+03	4.803261E-04	1.143008E-04
3.139111E+03	4.591201E-04	1.092536E-04
3.149014E+03	4.388096E-04	1.044196E-04
3.158916E+03	4.193924E-04	9.979817E-05
3.168819E+03	4.008319E-04	9.538070E-05
3.178721E+03	3.831066E-04	9.116207E-05
3.188624E+03	3.661880E-04	8.713544E-05
3.198526E+03	3.500415E-04	8.329260E-05
3.208429E+03	3.346566E-04	7.963105E-05
3.218332E+03	3.199880E-04	7.614000E-05
3.228234E+03	3.060242E-04	7.281670E-05
3.238137E+03	2.927366E-04	6.965437E-05
3.248039E+03	2.800883E-04	6.664421E-05
3.257942E+03	2.680665E-04	6.378315E-05
3.267844E+03	2.566358E-04	6.106281E-05
3.277747E+03	2.457750E-04	5.847809E-05
3.287650E+03	2.354589E-04	5.602303E-05
3.297552E+03	2.256667E-04	5.369264E-05
3.307455E+03	2.163710E-04	5.148045E-05
3.317357E+03	2.075493E-04	4.938106E-05
3.327260E+03	1.991795E-04	4.738924E-05
3.337162E+03	1.912433E-04	4.550059E-05
3.347065E+03	1.837172E-04	4.370958E-05
3.356967E+03	1.765819E-04	4.201155E-05
3.366870E+03	1.698185E-04	4.040204E-05
3.376773E+03	1.634070E-04	3.887627E-05
3.386675E+03	1.573303E-04	3.743019E-05
3.396578E+03	1.515723E-04	3.605995E-05
3.406480E+03	1.461156E-04	3.476143E-05
3.416383E+03	1.409457E-04	3.353115E-05
3.426285E+03	1.360470E-04	3.236541E-05
3.436188E+03	1.314049E-04	3.126074E-05
3.446090E+03	1.270055E-04	3.021385E-05
3.455993E+03	1.228347E-04	2.922133E-05
3.465896E+03	1.188817E-04	2.828065E-05
3.475798E+03	1.151339E-04	2.738879E-05
3.485701E+03	1.115781E-04	2.654263E-05
3.495603E+03	1.082012E-04	2.573906E-05
3.505506E+03	1.049945E-04	2.497598E-05
3.515408E+03	1.019466E-04	2.425068E-05
3.525311E+03	9.904501E-05	2.356021E-05
3.535213E+03	9.628127E-05	2.290254E-05
3.545116E+03	9.364666E-05	2.227560E-05
3.555019E+03	9.113215E-05	2.167724E-05
3.564921E+03	8.872865E-05	2.110530E-05
3.574824E+03	8.643109E-05	2.055856E-05
3.584726E+03	8.423299E-05	2.003550E-05
3.594629E+03	8.212831E-05	1.953466E-05
3.604531E+03	8.011508E-05	1.905559E-05
3.614434E+03	7.818898E-05	1.859725E-05
3.624337E+03	7.634653E-05	1.815881E-05
3.634239E+03	7.458500E-05	1.773963E-05
3.644142E+03	7.290168E-05	1.733906E-05
3.654044E+03	7.129315E-05	1.695629E-05
3.663947E+03	6.975793E-05	1.659096E-05
3.673849E+03	6.829214E-05	1.624215E-05
3.683752E+03	6.689370E-05	1.590936E-05
3.693654E+03	6.556112E-05	1.559225E-05
3.703557E+03	6.429015E-05	1.528979E-05
3.713460E+03	6.308040E-05	1.500190E-05
3.723362E+03	6.192786E-05	1.472762E-05
3.733265E+03	6.083160E-05	1.446673E-05
3.743167E+03	5.978932E-05	1.421869E-05
3.753070E+03	5.879867E-05	1.398292E-05
3.762972E+03	5.785791E-05	1.375903E-05
3.772875E+03	5.696492E-05	1.354650E-05
3.782777E+03	5.611804E-05	1.334494E-05
3.792680E+03	5.531571E-05	1.315398E-05
3.802583E+03	5.455599E-05	1.297315E-05
3.812485E+03	5.383740E-05	1.280211E-05
3.822388E+03	5.315853E-05	1.264052E-05
3.832290E+03	5.251767E-05	1.248797E-05
3.842193E+03	5.191351E-05	1.234414E-05
3.852095E+03	5.134481E-05	1.220875E-05
3.861998E+03	5.081003E-05	1.208143E-05
3.871900E+03	5.030801E-05	1.196191E-05
3.881803E+03	4.983735E-05	1.184984E-05
3.891706E+03	4.939741E-05	1.174507E-05
3.901608E+03	4.898677E-05	1.164728E-05
3.911511E+03	4.860456E-05	1.155624E-05
3.921413E+03	4.824914E-05	1.147158E-05
3.931316E+03	4.792041E-05	1.139326E-05
3.941218E+03	4.761683E-05	1.132093E-05
3.951121E+03	4.733762E-05	1.125439E-05
3.961024E+03	4.708173E-05	1.119339E-05
3.970926E+03	4.684878E-05	1.113785E-05
3.980829E+03	4.663746E-05	1.108746E-05
3.990731E+03	4.644744E-05	1.104212E-05
4.000634E+03	4.627747E-05	1.100156E-05
4.010536E+03	4.612733E-05	1.096570E-05
4.020439E+03	4.599574E-05	1.093426E-05
4.030341E+03	4.588222E-05	1.090712E-05
4.040244E+03	4.578632E-05	1.088416E-05
4.050147E+03	4.570754E-05	1.086527E-05
4.060049E+03	4.564476E-05	1.085018E-05
4.069952E+03	4.559760E-05	1.083881E-05
4.079854E+03	4.556529E-05	1.083097E-05
4.089757E+03	4.554751E-05	1.082657E-05
4.099659E+03	4.554387E-05	1.082554E-05
4.109562E+03	4.555340E-05	1.082764E-05
4.119464E+03	4.557607E-05	1.083286E-05
4.129367E+03	4.561101E-05	1.084100E-05
4.139270E+03	4.565783E-05	1.085196E-05
4.149172E+03	4.571637E-05	1.086570E-05
4.159075E+03	4.578567E-05	1.088199E-05
4.168977E+03	4.586549E-05	1.090079E-05
4.178880E+03	4.595530E-05	1.092196E-05
4.188782E+03	4.605524E-05	1.094554E-05
4.198685E+03	4.616409E-05	1.097123E-05
4.208587E+03	4.628205E-05	1.099908E-05
4.218490E+03	4.640826E-05	1.102889E-05
4.228393E+03	4.654292E-05	1.106071E-05
4.238295E+03	4.668483E-05	1.109425E-05
4.248198E+03	4.683388E-05	1.112949E-05
4.258100E+03	4.698994E-05	1.116638E-05
4.268003E+03	4.715185E-05	1.120467E-05
4.277905E+03	4.731987E-05	1.124440E-05
4.287808E+03	4.749241E-05	1.128521E-05
4.297711E+03	4.766981E-05	1.132717E-05
4.307613E+03	4.785005E-05	1.136980E-05
4.317516E+03	4.803310E-05	1.141310E-05
4.327418E+03	4.822001E-05	1.145731E-05
4.337321E+03	4.841071E-05	1.150241E-05
4.347223E+03	4.860560E-05	1.154851E-05
4.357126E+03	4.880461E-05	1.159559E-05
4.367028E+03	4.900707E-05	1.164349E-05
4.376931E+03	4.921371E-05	1.169237E-05
4.386834E+03	4.942382E-05	1.174208E-05
4.396736E+03	4.963751E-05	1.179263E-05
4.406639E+03	4.985439E-05	1.184393E-05
4.416541E+03	5.007456E-05	1.189602E-05
4.426444E+03	5.029738E-05	1.194873E-05
4.436346E+03	5.052336E-05	1.200219E-05
4.446249E+03	5.075184E-05	1.205624E-05
4.456151E+03	5.098254E-05	1.211082E-05
4.466054E+03	5.121613E-05	1.216607E-05
4.475957E+03	5.145149E-05	1.222175E-05
4.485859E+03	5.168892E-05	1.227791E-05
4.495762E+03	5.192862E-05	1.233461E-05
4.505664E+03	5.217002E-05	1.239171E-05
4.515567E+03	5.241342E-05	1.244928E-05
4.525469E+03	5.265827E-05	1.250719E-05
4.535372E+03	5.290488E-05	1.256551E-05
4.545274E+03	5.315318E-05	1.262423E-05
4.555177E+03	5.340312E-05	1.268334E-05
4.565080E+03	5.365415E-05	1.274271E-05
4.574982E+03	5.390719E-05	1.280254E-05
4.584885E+03	5.416128E-05	1.286262E-05
4.594787E+03	5.441685E-05	1.292305E-05
4.604690E+03	5.467393E-05	1.298384E-05
4.614592E+03	5.493204E-05	1.304486E-05
4.624495E+03	5.519221E-05	1.310637E-05
4.634398E+03	5.545347E-05	1.316813E-05
4.644300E+03	5.571637E-05	1.323028E-05
4.654203E+03	5.598200E-05	1.329307E-05
4.664105E+03	5.624988E-05	1.335640E-05
4.674008E+03	5.652067E-05	1.342041E-05
4.683910E+03	5.679499E-05	1.348525E-05
4.693813E+03	5.707292E-05	1.355095E-05
4.703715E+03	5.735469E-05	1.361755E-05
4.713618E+03	5.764145E-05	1.368533E-05
4.723521E+03	5.793237E-05	1.375409E-05
4.733423E+03	5.822865E-05	1.382413E-05
4.743326E+03	5.853053E-05	1.389549E-05
4.753228E+03	5.883768E-05	1.396809E-05
4.763131E+03	5.915139E-05	1.404224E-05
4.773033E+03	5.947139E-05	1.411789E-05
4.782936E+03	5.979788E-05	1.419507E-05
4.792838E+03	6.013117E-05	1.427385E-05
4.802741E+03	6.047148E-05	1.435430E-05
4.812644E+03	6.082019E-05	1.443674E-05
4.822546E+03	6.117592E-05	1.452084E-05
4.832449E+03	6.154009E-05	1.460693E-05
4.842351E+03	6.191238E-05	1.469495E-05
4.852254E+03	6.229369E-05	1.478510E-05
4.862156E+03	6.268371E-05	1.487731E-05
4.872059E+03	6.308275E-05	1.497165E-05
4.881961E+03	6.349168E-05	1.506834E-05
4.891864E+03	6.390961E-05	1.516715E-05
4.901767E+03	6.433741E-05	1.526830E-05
4.911669E+03	6.477543E-05	1.537187E-05
4.921572E+03	6.522387E-05	1.547790E-05
4.931474E+03	6.568247E-05	1.558634E-05
4.941377E+03	6.615147E-05	1.569723E-05
4.951279E+03	6.663174E-05	1.581080E-05
4.961182E+03	6.712236E-05	1.592680E-05
4.971085E+03	6.762477E-05	1.604560E-05
4.980987E+03	6.813797E-05	1.616696E-05
4.990890E+03	6.866219E-05	1.629091E-05
5.000792E+03	6.919829E-05	1.641768E-05
5.010695E+03	6.974588E-05	1.654716E-05
5.020597E+03	7.030512E-05	1.667940E-05
5.030500E+03	7.087552E-05	1.681427E-05
5.040402E+03	7.145797E-05	1.695200E-05
5.050305E+03	7.205262E-05	1.709261E-05
5.060208E+03	7.265828E-05	1.723582E-05
5.070110E+03	7.327575E-05	1.738182E-05
5.080013E+03	7.390517E-05	1.753064E-05
5.089915E+03	7.454663E-05	1.768231E-05
5.099818E+03	7.519959E-05	1.783670E-05
5.109720E+03	7.586407E-05	1.799380E-05
5.119623E+03	7.653941E-05	1.815347E-05
5.129525E+03	7.722714E-05	1.831607E-05
5.139428E+03	7.792581E-05	1.848125E-05
5.149331E+03	7.863542E-05	1.864901E-05
5.159233E+03	7.935595E-05	1.881935E-05
5.169136E+03	8.008818E-05	1.899245E-05
5.179038E+03	8.083046E-05	1.916792E-05
5.188941E+03	8.158272E-05	1.934574E-05
5.198843E+03	8.234643E-05	1.952627E-05
5.208746E+03	8.311906E-05	1.970890E-05
5.218648E+03	8.390203E-05	1.989396E-05
5.228551E+03	8.469435E-05	2.008122E-05
5.238454E+03	8.549578E-05	2.027064E-05
5.248356E+03	8.630690E-05	2.046233E-05
5.258259E+03	8.712569E-05	2.065583E-05
5.268161E+03	8.795266E-05	2.085125E-05
5.278064E+03	8.878740E-05	2.104849E-05
5.287966E+03	8.962949E-05	2.124747E-05
5.297869E+03	9.047932E-05	2.144826E-05
5.307772E+03	9.133462E-05	2.165033E-05
5.317674E+03	9.219569E-05	2.185375E-05
5.327577E+03	9.306189E-05	2.205838E-05
5.337479E+03	9.393162E-05	2.226382E-05
5.347382E+03	9.480596E-05	2.247034E-05
5.357284E+03	9.568324E-05	2.267753E-05
5.367187E+03	9.656165E-05	2.288498E-05
5.377089E+03	9.744022E-05	2.309245E-05
5.386992E+03	9.831895E-05	2.329994E-05
5.396895E+03	9.919485E-05	2.350674E-05
5.406797E+03	1.000678E-04	2.371281E-05
5.416700E+03	1.009365E-04	2.391788E-05
5.426602E+03	1.017979E-04	2.412118E-05
5.436505E+03	1.026504E-04	2.432237E-05
5.446407E+03	1.034939E-04	2.452140E-05
5.456310E+03	1.043257E-04	2.471765E-05
5.466212E+03	1.051435E-04	2.491054E-05
5.476115E+03	1.059444E-04	2.509943E-05
5.486018E+03	1.067291E-04	2.528446E-05
5.495920E+03	1.074927E-04	2.546447E-05
5.505823E+03	1.082345E-04	2.563931E-05
5.515725E+03	1.089519E-04	2.580833E-05
5.525628E+03	1.096429E-04	2.597110E-05
5.535530E+03	1.103060E-04	2.612723E-05
5.545433E+03	1.109382E-04	2.627603E-05
5.555335E+03	1.115389E-04	2.641737E-05
5.565238E+03	1.121054E-04	2.655058E-05
5.575141E+03	1.126348E-04	2.667500E-05
5.585043E+03	1.131279E-04	2.679079E-05
5.594946E+03	1.135820E-04	2.689733E-05
5.604848E+03	1.139943E-04	2.699399E-05
5.614751E+03	1.143649E-04	2.708072E-05
5.624653E+03	1.146935E-04	2.715751E-05
5.634556E+03	1.149766E-04	2.722353E-05
5.644459E+03	1.152144E-04	2.727881E-05
5.654361E+03	1.154072E-04	2.732342E-05
5.664264E+03	1.155530E-04	2.735689E-05
5.674166E+03	1.156523E-04	2.737936E-05
5.684069E+03	1.157036E-04	2.739044E-05
5.693971E+03	1.157075E-04	2.739031E-05
5.703874E+03	1.156641E-04	2.737895E-05
5.713776E+03	1.155744E-04	2.735665E-05
5.723679E+03	1.154360E-04	2.732283E-05
5.733582E+03	1.152531E-04	2.727846E-05
5.743484E+03	1.150236E-04	2.722303E-05
5.753387E+03	1.147492E-04	2.715700E-05
5.763289E+03	1.144307E-04	2.708053E-05
5.773192E+03	1.140689E-04	2.699383E-05
5.783094E+03	1.136661E-04	2.689742E-05
5.792997E+03	1.132235E-04	2.679159E-05
5.802899E+03	1.127423E-04	2.667662E-05
5.812802E+03	1.122225E-04	2.655255E-05
5.822705E+03	1.116683E-04	2.642031E-05
5.832607E+03	1.110797E-04	2.627997E-05
5.842510E+03	1.104598E-04	2.613221E-05
5.852412E+03	1.098090E-04	2.597715E-05
5.862315E+03	1.091303E-04	2.581549E-05
5.872217E+03	1.084255E-04	2.564767E-05
5.882120E+03	1.076964E-04	2.547412E-05
5.892022E+03	1.069449E-04	2.529527E-05
5.901925E+03	1.061729E-04	2.511158E-05
5.911828E+03	1.053834E-04	2.492377E-05
5.921730E+03	1.045759E-04	2.473172E-05
5.931633E+03	1.037547E-04	2.453643E-05
5.941535E+03	1.029204E-04	2.433805E-05
5.951438E+03	1.020747E-04	2.413701E-05
5.961340E+03	1.012207E-04	2.393400E-05
5.971243E+03	1.003577E-04	2.372887E-05
5.981146E+03	9.948964E-05	2.352257E-05
5.991048E+03	9.861581E-05	2.331491E-05
6.000951E+03	9.773894E-05	2.310655E-05
6.010853E+03	9.686051E-05	2.289784E-05
6.020756E+03	9.598080E-05	2.268883E-05
6.030658E+03	9.510112E-05	2.247985E-05
6.040561E+03	9.422282E-05	2.227121E-05
6.050463E+03	9.334709E-05	2.206319E-05
6.060366E+03	9.247510E-05	2.185607E-05
6.070269E+03	9.160794E-05	2.165010E-05
6.080171E+03	9.074664E-05	2.144553E-05
6.090074E+03	8.989212E-05	2.124258E-05
6.099976E+03	8.904646E-05	2.104174E-05
6.109879E+03	8.821151E-05	2.084344E-05
6.119781E+03	8.738921E-05	2.064815E-05
6.129684E+03	8.658018E-05	2.045601E-05
6.139586E+03	8.578500E-05	2.026715E-05
6.149489E+03	8.500315E-05	2.008145E-05
6.159392E+03	8.423509E-05	1.989903E-05
6.169294E+03	8.348129E-05	1.971999E-05
6.179197E+03	8.274102E-05	1.954415E-05
6.189099E+03	8.201574E-05	1.937187E-05
6.199002E+03	8.130798E-05	1.920374E-05
6.208904E+03	8.061691E-05	1.903957E-05
6.218807E+03	7.994378E-05	1.887964E-05
6.228709E+03	7.929100E-05	1.872453E-05
6.238612E+03	7.865758E-05	1.857401E-05
6.248515E+03	7.804693E-05	1.842887E-05
6.258417E+03	7.746017E-05	1.828938E-05
6.268320E+03	7.689627E-05	1.815530E-05
6.278222E+03	7.635853E-05	1.802741E-05
6.288125E+03	7.584802E-05	1.790595E-05
6.298027E+03	7.536473E-05	1.779093E-05
6.307930E+03	7.490975E-05	1.768260E-05
6.317833E+03	7.448634E-05	1.758173E-05
6.327735E+03	7.409337E-05	1.748805E-05
6.337638E+03	7.373191E-05	1.740181E-05
6.347540E+03	7.340416E-05	1.732353E-05
6.357443E+03	7.310685E-05	1.725244E-05
6.367345E+03	7.283779E-05	1.718803E-05
6.377248E+03	7.259592E-05	1.713003E-05
6.387150E+03	7.238016E-05	1.707819E-05
6.397053E+03	7.218828E-05	1.703198E-05
6.406956E+03	7.202033E-05	1.699143E-05
6.416858E+03	7.187519E-05	1.695626E-05
6.426761E+03	7.175282E-05	1.692646E-05
6.436663E+03	7.165218E-05	1.690178E-05
6.446566E+03	7.157321E-05	1.688221E-05
6.456468E+03	7.151593E-05	1.686776E-05
6.466371E+03	7.147918E-05	1.685815E-05
6.476273E+03	7.146413E-05	1.685365E-05
6.486176E+03	7.147076E-05	1.685426E-05
6.496079E+03	7.149792E-05	1.685971E-05
6.505981E+03	7.154679E-05	1.687028E-05
6.515884E+03	7.161620E-05	1.688568E-05
6.525786E+03	7.170620E-05	1.690593E-05
6.535689E+03	7.181793E-05	1.693130E-05
6.545591E+03	7.194910E-05	1.696124E-05
6.555494E+03	7.210324E-05	1.699659E-05
6.565396E+03	7.227683E-05	1.703652E-05
6.575299E+03	7.247231E-05	1.708160E-05
6.585202E+03	7.268850E-05	1.713155E-05
6.595104E+03	7.292543E-05	1.718638E-05
6.605007E+03	7.318442E-05	1.724639E-05
6.614909E+03	7.346424E-05	1.731131E-05
6.624812E+03	7.376501E-05	1.738115E-05
6.634714E+03	7.408675E-05	1.745591E-05
6.644617E+03	7.443076E-05	1.753592E-05
6.654520E+03	7.479462E-05	1.762058E-05
6.664422E+03	7.518095E-05	1.771053E-05
6.674325E+03	7.558855E-05	1.780547E-05
6.684227E+03	7.601748E-05	1.790541E-05
6.694130E+03	7.646781E-05	1.801039E-05
6.704032E+03	7.693969E-05	1.812042E-05
6.713935E+03	7.743455E-05	1.823584E-05
6.723837E+03	7.794973E-05	1.835604E-05
6.733740E+03	7.848668E-05	1.848134E-05
6.743643E+03	7.904556E-05	1.861178E-05
6.753545E+03	7.962641E-05	1.874738E-05
6.763448E+03	8.022936E-05	1.888816E-05
6.773350E+03	8.085453E-05	1.903415E-05
6.783253E+03	8.150201E-05	1.918537E-05
6.793155E+03	8.217040E-05	1.934148E-05
6.803058E+03	8.286129E-05	1.950287E-05
6.812960E+03	8.357479E-05	1.966956E-05
6.822863E+03	8.430950E-05	1.984121E-05
6.832766E+03	8.506696E-05	2.001819E-05
6.842668E+03	8.584737E-05	2.020054E-05
6.852571E+03	8.664918E-05	2.038790E-05
6.862473E+03	8.747244E-05	2.058029E-05
6.872376E+03	8.831886E-05	2.077808E-05
6.882278E+03	8.918690E-05	2.098094E-05
6.892181E+03	9.007659E-05	2.118886E-05
6.902083E+03	9.098969E-05	2.140226E-05
6.911986E+03	9.192457E-05	2.162074E-05
6.921889E+03	9.288123E-05	2.184431E-05
6.931791E+03	9.385795E-05	2.207257E-05
6.941694E+03	9.485833E-05	2.230636E-05
6.951596E+03	9.588060E-05	2.254526E-05
6.961499E+03	9.692481E-05	2.278928E-05
6.971401E+03	9.798902E-05	2.303797E-05
6.981304E+03	9.907514E-05	2.329178E-05
6.991207E+03	1.001812E-04	2.355023E-05
7.001109E+03	1.013112E-04	2.381426E-05
7.011012E+03	1.024589E-04	2.408244E-05
7.020914E+03	1.036285E-04	2.435571E-05
7.030817E+03	1.048178E-04	2.463356E-05
7.040719E+03	1.060288E-04	2.491648E-05
7.050622E+03	1.072572E-04	2.520343E-05
7.060524E+03	1.085071E-04	2.549540E-05
7.070427E+03	1.097740E-04	2.579132E-05
7.080330E+03	1.110600E-04	2.609168E-05
7.090232E+03	1.123648E-04	2.639643E-05
7.100135E+03	1.136884E-04	2.670554E-05
7.110037E+03	1.150282E-04	2.701839E-05
7.119940E+03	1.163838E-04	2.733493E-05
7.129842E+03	1.177575E-04	2.765564E-05
7.139745E+03	1.191464E-04	2.797990E-05
7.149647E+03	1.205528E-04	2.830822E-05
7.159550E+03	1.219713E-04	2.863932E-05
7.169453E+03	1.234066E-04	2.897432E-05
7.179355E+03	1.248558E-04	2.931253E-05
7.189258E+03	1.263184E-04	2.965385E-05
7.199160E+03	1.277941E-04	2.999818E-05
7.209063E+03	1.292824E-04	3.034541E-05
7.218965E+03	1.307827E-04	3.069542E-05
7.228868E+03	1.322976E-04	3.104879E-05
7.238770E+03	1.338207E-04	3.140403E-05
7.248673E+03	1.353604E-04	3.176311E-05
7.258576E+03	1.369133E-04	3.212524E-05
7.268478E+03	1.384759E-04	3.248959E-05
7.278381E+03	1.400571E-04	3.285825E-05
7.288283E+03	1.416503E-04	3.322967E-05
7.298186E+03	1.432648E-04	3.360604E-05
7.308088E+03	1.448973E-04	3.398657E-05
7.317991E+03	1.465510E-04	3.437200E-05
7.327894E+03	1.482292E-04	3.476314E-05
7.337796E+03	1.499322E-04	3.516001E-05
7.347699E+03	1.516670E-04	3.556430E-05
7.357601E+03	1.534378E-04	3.597696E-05
7.367504E+03	1.552415E-04	3.639728E-05
7.377406E+03	1.570787E-04	3.682537E-05
7.387309E+03	1.589497E-04	3.726135E-05
7.397211E+03	1.608513E-04	3.770442E-05
7.407114E+03	1.627797E-04	3.815373E-05
7.417017E+03	1.647313E-04	3.860838E-05
7.426919E+03	1.667059E-04	3.906837E-05
7.436822E+03	1.686993E-04	3.953269E-05
7.446724E+03	1.707071E-04	4.000032E-05
7.456627E+03	1.727330E-04	4.047212E-05
7.466529E+03	1.747681E-04	4.094599E-05
7.476432E+03	1.768116E-04	4.142179E-05
7.486334E+03	1.788628E-04	4.189931E-05
7.496237E+03	1.809208E-04	4.237835E-05
7.506140E+03	1.829849E-04	4.285875E-05
7.516042E+03	1.850494E-04	4.333918E-05
7.525945E+03	1.871134E-04	4.381942E-05
7.535847E+03	1.891804E-04	4.430028E-05
7.545750E+03	1.912445E-04	4.478041E-05
7.555652E+03	1.933095E-04	4.526067E-05
7.565555E+03	1.953643E-04	4.573849E-05
7.575457E+03	1.974175E-04	4.621585E-05
7.585360E+03	1.994628E-04	4.669130E-05
7.595263E+03	2.014988E-04	4.716452E-05
7.605165E+03	2.035241E-04	4.763514E-05
7.615068E+03	2.055424E-04	4.810408E-05
7.624970E+03	2.075471E-04	4.856978E-05
7.634873E+03	2.095366E-04	4.903184E-05
7.644775E+03	2.115149E-04	4.949121E-05
7.654678E+03	2.134805E-04	4.994756E-05
7.664581E+03	2.154263E-04	5.039920E-05
7.674483E+03	2.173563E-04	5.084709E-05
7.684386E+03	2.192690E-04	5.129089E-05
