#wls	flux	fluxerr
1.584409E+03	5.146030E-03	7.880563E-04
1.624020E+03	5.292744E-03	8.104772E-04
1.663630E+03	5.429826E-03	8.314175E-04
1.703240E+03	5.556269E-03	8.507233E-04
1.742850E+03	5.668793E-03	8.678921E-04
1.782461E+03	5.767260E-03	8.829030E-04
1.822071E+03	5.848276E-03	8.952366E-04
1.861681E+03	5.911065E-03	9.047744E-04
1.901291E+03	5.953808E-03	9.112385E-04
1.940902E+03	5.973824E-03	9.142191E-04
1.980512E+03	5.970528E-03	9.136273E-04
2.020122E+03	5.942104E-03	9.091865E-04
2.059732E+03	5.887118E-03	9.006778E-04
2.099342E+03	5.804583E-03	8.879520E-04
2.138953E+03	5.693308E-03	8.708281E-04
2.178563E+03	5.551534E-03	8.490387E-04
2.218173E+03	5.377751E-03	8.223550E-04
2.257783E+03	5.172857E-03	7.909162E-04
2.297394E+03	4.941028E-03	7.553636E-04
2.337004E+03	4.689395E-03	7.167888E-04
2.376614E+03	4.423610E-03	6.760579E-04
2.416224E+03	4.148743E-03	6.339475E-04
2.455835E+03	3.868425E-03	5.910133E-04
2.495445E+03	3.586426E-03	5.478328E-04
2.535055E+03	3.305757E-03	5.048667E-04
2.574665E+03	3.029513E-03	4.625884E-04
2.614276E+03	2.760153E-03	4.213737E-04
2.653886E+03	2.499955E-03	3.815707E-04
2.693496E+03	2.250961E-03	3.434911E-04
2.733106E+03	2.014735E-03	3.073732E-04
2.772716E+03	1.792629E-03	2.734228E-04
2.812327E+03	1.585677E-03	2.417971E-04
2.851937E+03	1.394700E-03	2.126203E-04
2.891547E+03	1.220271E-03	1.859788E-04
2.931157E+03	1.062619E-03	1.619058E-04
2.970768E+03	9.216334E-04	1.403836E-04
2.980670E+03	8.889398E-04	1.353936E-04
2.990573E+03	8.572307E-04	1.305541E-04
3.000475E+03	8.265263E-04	1.258683E-04
3.010378E+03	7.967696E-04	1.213274E-04
3.020280E+03	7.679777E-04	1.169341E-04
3.030183E+03	7.401293E-04	1.126849E-04
3.040086E+03	7.132176E-04	1.085790E-04
3.049988E+03	6.871913E-04	1.046084E-04
3.059891E+03	6.620718E-04	1.007764E-04
3.069793E+03	6.378088E-04	9.707533E-05
3.079696E+03	6.144064E-04	9.350574E-05
3.089598E+03	5.918413E-04	9.006408E-05
3.099501E+03	5.700787E-04	8.674504E-05
3.109403E+03	5.491206E-04	8.354888E-05
3.119306E+03	5.289339E-04	8.047058E-05
3.129209E+03	5.095077E-04	7.750841E-05
3.139111E+03	4.908192E-04	7.465891E-05
3.149014E+03	4.728470E-04	7.191879E-05
3.158916E+03	4.555769E-04	6.928589E-05
3.168819E+03	4.389872E-04	6.675685E-05
3.178721E+03	4.230474E-04	6.432705E-05
3.188624E+03	4.077530E-04	6.199574E-05
3.198526E+03	3.930784E-04	5.975905E-05
3.208429E+03	3.790141E-04	5.761550E-05
3.218332E+03	3.655431E-04	5.556248E-05
3.228234E+03	3.526419E-04	5.359639E-05
3.238137E+03	3.403048E-04	5.171636E-05
3.248039E+03	3.285032E-04	4.991801E-05
3.257942E+03	3.172293E-04	4.820016E-05
3.267844E+03	3.064649E-04	4.655999E-05
3.277747E+03	2.961818E-04	4.499323E-05
3.287650E+03	2.863724E-04	4.349869E-05
3.297552E+03	2.770181E-04	4.207355E-05
3.307455E+03	2.680981E-04	4.071459E-05
3.317357E+03	2.595957E-04	3.941929E-05
3.327260E+03	2.514948E-04	3.818519E-05
3.337162E+03	2.437800E-04	3.700992E-05
3.347065E+03	2.364358E-04	3.589112E-05
3.356967E+03	2.294474E-04	3.482654E-05
3.366870E+03	2.227976E-04	3.381353E-05
3.376773E+03	2.164698E-04	3.284957E-05
3.386675E+03	2.104563E-04	3.193349E-05
3.396578E+03	2.047365E-04	3.106212E-05
3.406480E+03	1.993006E-04	3.023400E-05
3.416383E+03	1.941347E-04	2.944699E-05
3.426285E+03	1.892277E-04	2.869938E-05
3.436188E+03	1.845645E-04	2.798889E-05
3.446090E+03	1.801331E-04	2.731369E-05
3.455993E+03	1.759243E-04	2.667237E-05
3.465896E+03	1.719255E-04	2.606299E-05
3.475798E+03	1.681284E-04	2.548431E-05
3.485701E+03	1.645182E-04	2.493408E-05
3.495603E+03	1.610882E-04	2.441124E-05
3.505506E+03	1.578268E-04	2.391405E-05
3.515408E+03	1.547251E-04	2.344117E-05
3.525311E+03	1.517747E-04	2.299129E-05
3.535213E+03	1.489647E-04	2.256277E-05
3.545116E+03	1.462910E-04	2.215497E-05
3.555019E+03	1.437452E-04	2.176661E-05
3.564921E+03	1.413194E-04	2.139650E-05
3.574824E+03	1.390104E-04	2.104414E-05
3.584726E+03	1.368098E-04	2.070825E-05
3.594629E+03	1.347121E-04	2.038801E-05
3.604531E+03	1.327126E-04	2.008268E-05
3.614434E+03	1.308063E-04	1.979152E-05
3.624337E+03	1.289890E-04	1.951388E-05
3.634239E+03	1.272566E-04	1.924912E-05
3.644142E+03	1.256060E-04	1.899680E-05
3.654044E+03	1.240348E-04	1.875652E-05
3.663947E+03	1.225391E-04	1.852771E-05
3.673849E+03	1.211198E-04	1.831048E-05
3.683752E+03	1.197721E-04	1.810411E-05
3.693654E+03	1.184956E-04	1.790855E-05
3.703557E+03	1.172878E-04	1.772339E-05
3.713460E+03	1.161471E-04	1.754842E-05
3.723362E+03	1.150741E-04	1.738369E-05
3.733265E+03	1.140641E-04	1.722850E-05
3.743167E+03	1.131174E-04	1.708290E-05
3.753070E+03	1.122333E-04	1.694678E-05
3.762972E+03	1.114084E-04	1.681961E-05
3.772875E+03	1.106428E-04	1.670141E-05
3.782777E+03	1.099358E-04	1.659207E-05
3.792680E+03	1.092849E-04	1.649120E-05
3.802583E+03	1.086884E-04	1.639855E-05
3.812485E+03	1.081475E-04	1.631428E-05
3.822388E+03	1.076586E-04	1.623788E-05
3.832290E+03	1.072220E-04	1.616936E-05
3.842193E+03	1.068361E-04	1.610848E-05
3.852095E+03	1.065003E-04	1.605514E-05
3.861998E+03	1.062137E-04	1.600923E-05
3.871900E+03	1.059741E-04	1.597038E-05
3.881803E+03	1.057807E-04	1.593850E-05
3.891706E+03	1.056340E-04	1.591362E-05
3.901608E+03	1.055324E-04	1.589553E-05
3.911511E+03	1.054744E-04	1.588399E-05
3.921413E+03	1.054596E-04	1.587892E-05
3.931316E+03	1.054864E-04	1.588011E-05
3.941218E+03	1.055544E-04	1.588746E-05
3.951121E+03	1.056630E-04	1.590089E-05
3.961024E+03	1.058116E-04	1.592032E-05
3.970926E+03	1.059981E-04	1.594541E-05
3.980829E+03	1.062221E-04	1.597610E-05
3.990731E+03	1.064831E-04	1.601233E-05
4.000634E+03	1.067808E-04	1.605403E-05
4.010536E+03	1.071140E-04	1.610103E-05
4.020439E+03	1.074817E-04	1.615316E-05
4.030341E+03	1.078835E-04	1.621037E-05
4.040244E+03	1.083185E-04	1.627251E-05
4.050147E+03	1.087864E-04	1.633955E-05
4.060049E+03	1.092861E-04	1.641132E-05
4.069952E+03	1.098176E-04	1.648779E-05
4.079854E+03	1.103796E-04	1.656879E-05
4.089757E+03	1.109712E-04	1.665416E-05
4.099659E+03	1.115922E-04	1.674387E-05
4.109562E+03	1.122414E-04	1.683776E-05
4.119464E+03	1.129187E-04	1.693579E-05
4.129367E+03	1.136223E-04	1.703769E-05
4.139270E+03	1.143522E-04	1.714345E-05
4.149172E+03	1.151064E-04	1.725279E-05
4.159075E+03	1.158859E-04	1.736583E-05
4.168977E+03	1.166888E-04	1.748231E-05
4.178880E+03	1.175153E-04	1.760222E-05
4.188782E+03	1.183624E-04	1.772514E-05
4.198685E+03	1.192311E-04	1.785120E-05
4.208587E+03	1.201186E-04	1.797998E-05
4.218490E+03	1.210257E-04	1.811160E-05
4.228393E+03	1.219494E-04	1.824562E-05
4.238295E+03	1.228878E-04	1.838173E-05
4.248198E+03	1.238416E-04	1.852005E-05
4.258100E+03	1.248069E-04	1.865999E-05
4.268003E+03	1.257847E-04	1.880168E-05
4.277905E+03	1.267708E-04	1.894451E-05
4.287808E+03	1.277663E-04	1.908864E-05
4.297711E+03	1.287693E-04	1.923377E-05
4.307613E+03	1.297776E-04	1.937960E-05
4.317516E+03	1.307914E-04	1.952612E-05
4.327418E+03	1.318095E-04	1.967319E-05
4.337321E+03	1.328332E-04	1.982095E-05
4.347223E+03	1.338601E-04	1.996909E-05
4.357126E+03	1.348926E-04	2.011794E-05
4.367028E+03	1.359305E-04	2.026748E-05
4.376931E+03	1.369741E-04	2.041775E-05
4.386834E+03	1.380234E-04	2.056874E-05
4.396736E+03	1.390797E-04	2.072064E-05
4.406639E+03	1.401420E-04	2.087332E-05
4.416541E+03	1.412117E-04	2.102697E-05
4.426444E+03	1.422893E-04	2.118166E-05
4.436346E+03	1.433751E-04	2.133744E-05
4.446249E+03	1.444683E-04	2.149418E-05
4.456151E+03	1.455692E-04	2.165194E-05
4.466054E+03	1.466770E-04	2.181058E-05
4.475957E+03	1.477932E-04	2.197033E-05
4.485859E+03	1.489155E-04	2.213085E-05
4.495762E+03	1.500442E-04	2.229217E-05
4.505664E+03	1.511795E-04	2.245433E-05
4.515567E+03	1.523190E-04	2.261696E-05
4.525469E+03	1.534642E-04	2.278029E-05
4.535372E+03	1.546126E-04	2.294394E-05
4.545274E+03	1.557647E-04	2.310798E-05
4.555177E+03	1.569179E-04	2.327204E-05
4.565080E+03	1.580741E-04	2.343638E-05
4.574982E+03	1.592325E-04	2.360088E-05
4.584885E+03	1.603908E-04	2.376521E-05
4.594787E+03	1.615497E-04	2.392946E-05
4.604690E+03	1.627098E-04	2.409373E-05
4.614592E+03	1.638706E-04	2.425793E-05
4.624495E+03	1.650299E-04	2.442175E-05
4.634398E+03	1.661914E-04	2.458573E-05
4.644300E+03	1.673562E-04	2.475002E-05
4.654203E+03	1.685224E-04	2.491435E-05
4.664105E+03	1.696912E-04	2.507887E-05
4.674008E+03	1.708637E-04	2.524377E-05
4.683910E+03	1.720366E-04	2.540857E-05
4.693813E+03	1.732113E-04	2.557344E-05
4.703715E+03	1.743860E-04	2.573813E-05
4.713618E+03	1.755622E-04	2.590284E-05
4.723521E+03	1.767397E-04	2.606757E-05
4.733423E+03	1.779168E-04	2.623206E-05
4.743326E+03	1.790952E-04	2.639654E-05
4.753228E+03	1.802732E-04	2.656078E-05
4.763131E+03	1.814525E-04	2.672502E-05
4.773033E+03	1.826316E-04	2.688902E-05
4.782936E+03	1.838105E-04	2.705282E-05
4.792838E+03	1.849895E-04	2.721642E-05
4.802741E+03	1.861704E-04	2.738010E-05
4.812644E+03	1.873516E-04	2.754361E-05
4.822546E+03	1.885331E-04	2.770697E-05
4.832449E+03	1.897132E-04	2.786992E-05
4.842351E+03	1.908957E-04	2.803301E-05
4.852254E+03	1.920786E-04	2.819596E-05
4.862156E+03	1.932620E-04	2.835875E-05
4.872059E+03	1.944436E-04	2.852109E-05
4.881961E+03	1.956251E-04	2.868318E-05
4.891864E+03	1.968042E-04	2.884470E-05
4.901767E+03	1.979803E-04	2.900557E-05
4.911669E+03	1.991550E-04	2.916600E-05
4.921572E+03	2.003258E-04	2.932564E-05
4.931474E+03	2.014925E-04	2.948447E-05
4.941377E+03	2.026526E-04	2.964210E-05
4.951279E+03	2.038077E-04	2.979877E-05
4.961182E+03	2.049571E-04	2.995438E-05
4.971085E+03	2.060982E-04	3.010854E-05
4.980987E+03	2.072300E-04	3.026113E-05
4.990890E+03	2.083519E-04	3.041202E-05
5.000792E+03	2.094606E-04	3.056077E-05
5.010695E+03	2.105573E-04	3.070752E-05
5.020597E+03	2.116408E-04	3.085212E-05
5.030500E+03	2.127059E-04	3.099382E-05
5.040402E+03	2.137538E-04	3.113277E-05
5.050305E+03	2.147836E-04	3.126884E-05
5.060208E+03	2.157922E-04	3.140161E-05
5.070110E+03	2.167792E-04	3.153098E-05
5.080013E+03	2.177438E-04	3.165688E-05
5.089915E+03	2.186856E-04	3.177925E-05
5.099818E+03	2.196023E-04	3.189772E-05
5.109720E+03	2.204956E-04	3.201258E-05
5.119623E+03	2.213609E-04	3.212315E-05
5.129525E+03	2.221999E-04	3.222968E-05
5.139428E+03	2.230097E-04	3.233175E-05
5.149331E+03	2.237897E-04	3.242928E-05
5.159233E+03	2.245388E-04	3.252212E-05
5.169136E+03	2.252559E-04	3.261012E-05
5.179038E+03	2.259356E-04	3.269249E-05
5.188941E+03	2.265806E-04	3.276963E-05
5.198843E+03	2.271869E-04	3.284098E-05
5.208746E+03	2.277527E-04	3.290627E-05
5.218648E+03	2.282733E-04	3.296482E-05
5.228551E+03	2.287459E-04	3.301627E-05
5.238454E+03	2.291680E-04	3.306024E-05
5.248356E+03	2.295371E-04	3.309640E-05
5.258259E+03	2.298509E-04	3.312441E-05
5.268161E+03	2.301049E-04	3.314364E-05
5.278064E+03	2.303019E-04	3.315452E-05
5.287966E+03	2.304362E-04	3.315620E-05
5.297869E+03	2.305063E-04	3.314854E-05
5.307772E+03	2.305165E-04	3.313211E-05
5.317674E+03	2.304617E-04	3.310624E-05
5.327577E+03	2.303465E-04	3.307156E-05
5.337479E+03	2.301684E-04	3.302777E-05
5.347382E+03	2.299299E-04	3.297522E-05
5.357284E+03	2.296291E-04	3.291364E-05
5.367187E+03	2.292710E-04	3.284380E-05
5.377089E+03	2.288542E-04	3.276548E-05
5.386992E+03	2.283820E-04	3.267917E-05
5.396895E+03	2.278513E-04	3.258444E-05
5.406797E+03	2.272661E-04	3.248188E-05
5.416700E+03	2.266258E-04	3.237144E-05
5.426602E+03	2.259305E-04	3.225311E-05
5.436505E+03	2.251847E-04	3.212758E-05
5.446407E+03	2.243865E-04	3.199457E-05
5.456310E+03	2.235365E-04	3.185419E-05
5.466212E+03	2.226378E-04	3.170690E-05
5.476115E+03	2.216890E-04	3.155250E-05
5.486018E+03	2.206956E-04	3.139180E-05
5.495920E+03	2.196542E-04	3.122431E-05
5.505823E+03	2.185724E-04	3.105116E-05
5.515725E+03	2.174514E-04	3.087250E-05
5.525628E+03	2.162923E-04	3.068850E-05
5.535530E+03	2.150981E-04	3.049962E-05
5.545433E+03	2.138722E-04	3.030632E-05
5.555335E+03	2.126153E-04	3.010873E-05
5.565238E+03	2.113347E-04	2.990790E-05
5.575141E+03	2.100288E-04	2.970359E-05
5.585043E+03	2.087041E-04	2.949675E-05
5.594946E+03	2.073588E-04	2.928712E-05
5.604848E+03	2.059992E-04	2.907561E-05
5.614751E+03	2.046276E-04	2.886252E-05
5.624653E+03	2.032436E-04	2.864783E-05
5.634556E+03	2.018513E-04	2.843211E-05
5.644459E+03	2.004522E-04	2.821558E-05
5.654361E+03	1.990500E-04	2.799877E-05
5.664264E+03	1.976462E-04	2.778187E-05
5.674166E+03	1.962400E-04	2.756479E-05
5.684069E+03	1.948368E-04	2.734829E-05
5.693971E+03	1.934380E-04	2.713257E-05
5.703874E+03	1.920427E-04	2.691750E-05
5.713776E+03	1.906543E-04	2.670355E-05
5.723679E+03	1.892760E-04	2.649117E-05
5.733582E+03	1.879089E-04	2.628052E-05
5.743484E+03	1.865521E-04	2.607149E-05
5.753387E+03	1.852092E-04	2.586453E-05
5.763289E+03	1.838833E-04	2.566012E-05
5.773192E+03	1.825757E-04	2.545843E-05
5.783094E+03	1.812860E-04	2.525937E-05
5.792997E+03	1.800172E-04	2.506340E-05
5.802899E+03	1.787709E-04	2.487069E-05
5.812802E+03	1.775506E-04	2.468175E-05
5.822705E+03	1.763579E-04	2.449679E-05
5.832607E+03	1.751925E-04	2.431577E-05
5.842510E+03	1.740579E-04	2.413916E-05
5.852412E+03	1.729539E-04	2.396691E-05
5.862315E+03	1.718876E-04	2.380003E-05
5.872217E+03	1.708546E-04	2.363786E-05
5.882120E+03	1.698578E-04	2.348081E-05
5.892022E+03	1.689000E-04	2.332927E-05
5.901925E+03	1.679801E-04	2.318306E-05
5.911828E+03	1.670987E-04	2.304225E-05
5.921730E+03	1.662583E-04	2.290718E-05
5.931633E+03	1.654573E-04	2.277761E-05
5.941535E+03	1.646979E-04	2.265384E-05
5.951438E+03	1.639765E-04	2.253535E-05
5.961340E+03	1.632971E-04	2.242268E-05
5.971243E+03	1.626558E-04	2.231529E-05
5.981146E+03	1.620564E-04	2.221369E-05
5.991048E+03	1.614931E-04	2.211706E-05
6.000951E+03	1.609696E-04	2.202588E-05
6.010853E+03	1.604837E-04	2.193987E-05
6.020756E+03	1.600351E-04	2.185895E-05
6.030658E+03	1.596196E-04	2.178256E-05
6.040561E+03	1.592407E-04	2.171114E-05
6.050463E+03	1.588923E-04	2.164384E-05
6.060366E+03	1.585775E-04	2.158111E-05
6.070269E+03	1.582903E-04	2.152208E-05
6.080171E+03	1.580299E-04	2.146665E-05
6.090074E+03	1.577937E-04	2.141447E-05
6.099976E+03	1.575812E-04	2.136544E-05
6.109879E+03	1.573856E-04	2.131864E-05
6.119781E+03	1.572061E-04	2.127396E-05
6.129684E+03	1.570400E-04	2.123101E-05
6.139586E+03	1.568861E-04	2.118965E-05
6.149489E+03	1.567437E-04	2.114975E-05
6.159392E+03	1.566156E-04	2.111171E-05
6.169294E+03	1.565069E-04	2.107621E-05
6.179197E+03	1.564189E-04	2.104339E-05
6.189099E+03	1.563546E-04	2.101367E-05
6.199002E+03	1.563174E-04	2.098750E-05
6.208904E+03	1.563087E-04	2.096503E-05
6.218807E+03	1.563319E-04	2.094673E-05
6.228709E+03	1.563885E-04	2.093277E-05
6.238612E+03	1.564801E-04	2.092336E-05
6.248515E+03	1.566105E-04	2.091900E-05
6.258417E+03	1.567794E-04	2.091961E-05
6.268320E+03	1.569907E-04	2.092572E-05
6.278222E+03	1.572422E-04	2.093698E-05
6.288125E+03	1.575358E-04	2.095366E-05
6.298027E+03	1.578713E-04	2.097571E-05
6.307930E+03	1.582509E-04	2.100340E-05
6.317833E+03	1.586724E-04	2.103641E-05
6.327735E+03	1.591358E-04	2.107472E-05
6.337638E+03	1.596386E-04	2.111800E-05
6.347540E+03	1.601764E-04	2.116562E-05
6.357443E+03	1.607465E-04	2.121724E-05
6.367345E+03	1.613489E-04	2.127282E-05
6.377248E+03	1.619834E-04	2.133232E-05
6.387150E+03	1.626498E-04	2.139570E-05
6.397053E+03	1.633505E-04	2.146327E-05
6.406956E+03	1.640879E-04	2.153531E-05
6.416858E+03	1.648621E-04	2.161183E-05
6.426761E+03	1.656707E-04	2.169249E-05
6.436663E+03	1.665188E-04	2.177794E-05
6.446566E+03	1.674066E-04	2.186819E-05
6.456468E+03	1.683318E-04	2.196291E-05
6.466371E+03	1.692972E-04	2.206245E-05
6.476273E+03	1.703030E-04	2.216682E-05
6.486176E+03	1.713469E-04	2.227569E-05
6.496079E+03	1.724290E-04	2.238907E-05
6.505981E+03	1.735553E-04	2.250769E-05
6.515884E+03	1.747177E-04	2.263050E-05
6.525786E+03	1.759220E-04	2.275823E-05
6.535689E+03	1.771688E-04	2.289092E-05
6.545591E+03	1.784525E-04	2.302783E-05
6.555494E+03	1.797794E-04	2.316976E-05
6.565396E+03	1.811438E-04	2.331594E-05
6.575299E+03	1.825521E-04	2.346717E-05
6.585202E+03	1.839986E-04	2.362270E-05
6.595104E+03	1.854866E-04	2.378294E-05
6.605007E+03	1.870165E-04	2.394790E-05
6.614909E+03	1.885854E-04	2.411719E-05
6.624812E+03	1.901937E-04	2.429084E-05
6.634714E+03	1.918448E-04	2.446926E-05
6.644617E+03	1.935358E-04	2.465207E-05
6.654520E+03	1.952672E-04	2.483928E-05
6.664422E+03	1.970391E-04	2.503090E-05
6.674325E+03	1.988520E-04	2.522696E-05
6.684227E+03	2.007063E-04	2.542748E-05
6.694130E+03	2.026023E-04	2.563249E-05
6.704032E+03	2.045368E-04	2.584156E-05
6.713935E+03	2.065139E-04	2.605515E-05
6.723837E+03	2.085338E-04	2.627330E-05
6.733740E+03	2.105934E-04	2.649557E-05
6.743643E+03	2.126966E-04	2.672242E-05
6.753545E+03	2.148400E-04	2.695342E-05
6.763448E+03	2.170240E-04	2.718857E-05
6.773350E+03	2.192490E-04	2.742791E-05
6.783253E+03	2.215149E-04	2.767139E-05
6.793155E+03	2.238263E-04	2.791957E-05
6.803058E+03	2.261755E-04	2.817145E-05
6.812960E+03	2.285668E-04	2.842754E-05
6.822863E+03	2.310003E-04	2.868783E-05
6.832766E+03	2.334724E-04	2.895183E-05
6.842668E+03	2.359875E-04	2.922010E-05
6.852571E+03	2.385459E-04	2.949260E-05
6.862473E+03	2.411437E-04	2.976884E-05
6.872376E+03	2.437806E-04	3.004878E-05
6.882278E+03	2.464619E-04	3.033299E-05
6.892181E+03	2.491828E-04	3.062091E-05
6.902083E+03	2.519434E-04	3.091248E-05
6.911986E+03	2.547442E-04	3.120776E-05
6.921889E+03	2.575847E-04	3.150664E-05
6.931791E+03	2.604602E-04	3.180855E-05
6.941694E+03	2.633806E-04	3.211463E-05
6.951596E+03	2.663358E-04	3.242366E-05
6.961499E+03	2.693309E-04	3.273621E-05
6.971401E+03	2.723605E-04	3.305161E-05
6.981304E+03	2.754245E-04	3.336981E-05
6.991207E+03	2.785279E-04	3.369141E-05
7.001109E+03	2.816654E-04	3.401572E-05
7.011012E+03	2.848309E-04	3.434200E-05
7.020914E+03	2.880354E-04	3.467153E-05
7.030817E+03	2.912730E-04	3.500359E-05
7.040719E+03	2.945374E-04	3.533739E-05
7.050622E+03	2.978337E-04	3.567353E-05
7.060524E+03	3.011560E-04	3.601128E-05
7.070427E+03	3.045094E-04	3.635122E-05
7.080330E+03	3.078874E-04	3.669257E-05
7.090232E+03	3.112956E-04	3.703594E-05
7.100135E+03	3.147203E-04	3.737973E-05
7.110037E+03	3.181674E-04	3.772460E-05
7.119940E+03	3.216430E-04	3.807124E-05
7.129842E+03	3.251325E-04	3.841794E-05
7.139745E+03	3.286353E-04	3.876458E-05
7.149647E+03	3.321572E-04	3.911186E-05
7.159550E+03	3.356974E-04	3.945966E-05
7.169453E+03	3.392478E-04	3.980701E-05
7.179355E+03	3.428147E-04	4.015464E-05
7.189258E+03	3.463897E-04	4.050156E-05
7.199160E+03	3.499716E-04	4.084762E-05
7.209063E+03	3.535664E-04	4.119352E-05
7.218965E+03	3.571653E-04	4.153821E-05
7.228868E+03	3.607744E-04	4.188240E-05
7.238770E+03	3.643839E-04	4.222496E-05
7.248673E+03	3.679923E-04	4.256569E-05
7.258576E+03	3.716133E-04	4.290619E-05
7.268478E+03	3.752294E-04	4.324443E-05
7.278381E+03	3.788552E-04	4.358208E-05
7.288283E+03	3.824804E-04	4.391798E-05
7.298186E+03	3.861125E-04	4.425296E-05
7.308088E+03	3.897594E-04	4.458793E-05
7.317991E+03	3.934111E-04	4.492172E-05
7.327894E+03	3.970852E-04	4.525637E-05
7.337796E+03	4.007817E-04	4.559184E-05
7.347699E+03	4.045098E-04	4.592917E-05
7.357601E+03	4.082706E-04	4.626846E-05
7.367504E+03	4.120645E-04	4.660974E-05
7.377406E+03	4.159020E-04	4.695417E-05
7.387309E+03	4.197653E-04	4.729973E-05
7.397211E+03	4.236546E-04	4.764641E-05
7.407114E+03	4.275613E-04	4.799325E-05
7.417017E+03	4.314957E-04	4.834137E-05
7.426919E+03	4.354484E-04	4.868973E-05
7.436822E+03	4.394104E-04	4.903731E-05
7.446724E+03	4.433816E-04	4.938408E-05
7.456627E+03	4.473627E-04	4.973013E-05
7.466529E+03	4.513435E-04	5.007432E-05
7.476432E+03	4.553356E-04	5.041795E-05
7.486334E+03	4.593180E-04	5.075869E-05
7.496237E+03	4.633139E-04	5.109911E-05
7.506140E+03	4.673140E-04	5.143819E-05
7.516042E+03	4.713196E-04	5.177606E-05
7.525945E+03	4.753202E-04	5.211159E-05
7.535847E+03	4.793280E-04	5.244612E-05
7.545750E+03	4.833433E-04	5.277967E-05
7.555652E+03	4.873655E-04	5.311220E-05
7.565555E+03	4.913817E-04	5.344228E-05
7.575457E+03	4.954015E-04	5.377100E-05
7.585360E+03	4.994108E-04	5.409679E-05
7.595263E+03	5.034307E-04	5.442197E-05
7.605165E+03	5.074202E-04	5.474211E-05
7.615068E+03	5.114128E-04	5.506084E-05
7.624970E+03	5.153923E-04	5.537640E-05
7.634873E+03	5.193407E-04	5.568691E-05
7.644775E+03	5.232662E-04	5.599325E-05
7.654678E+03	5.271641E-04	5.629494E-05
7.664581E+03	5.310292E-04	5.659146E-05
7.674483E+03	5.348559E-04	5.688222E-05
7.684386E+03	5.386523E-04	5.716815E-05
