#wls	flux	fluxerr
1.584409E+03	-3.136899E-06	-1.023841E-06
1.624020E+03	-3.042754E-05	-9.837786E-06
1.663630E+03	-6.486751E-05	-2.077598E-05
1.703240E+03	-1.065533E-04	-3.379582E-05
1.742850E+03	-1.548028E-04	-4.862285E-05
1.782461E+03	-2.091989E-04	-6.504884E-05
1.822071E+03	-2.690764E-04	-8.282799E-05
1.861681E+03	-3.333155E-04	-1.015374E-04
1.901291E+03	-4.014485E-04	-1.210238E-04
1.940902E+03	-4.714417E-04	-1.405988E-04
1.980512E+03	-5.431069E-04	-1.602326E-04
2.020122E+03	-6.133457E-04	-1.789449E-04
2.059732E+03	-6.825604E-04	-1.969248E-04
2.099342E+03	-7.463650E-04	-2.128563E-04
2.138953E+03	-8.058104E-04	-2.271632E-04
2.178563E+03	-8.553213E-04	-2.382476E-04
2.218173E+03	-8.968351E-04	-2.468292E-04
2.257783E+03	-9.242288E-04	-2.512264E-04
2.297394E+03	-9.411349E-04	-2.526541E-04
2.337004E+03	-9.417724E-04	-2.495852E-04
2.376614E+03	-9.315591E-04	-2.437047E-04
2.416224E+03	-9.046368E-04	-2.335125E-04
2.455835E+03	-8.674612E-04	-2.209252E-04
2.495445E+03	-8.144942E-04	-2.045669E-04
2.535055E+03	-7.525865E-04	-1.863919E-04
2.574665E+03	-6.770869E-04	-1.652804E-04
2.614276E+03	-5.948944E-04	-1.431157E-04
2.653886E+03	-5.026578E-04	-1.191141E-04
2.693496E+03	-4.067720E-04	-9.493812E-05
2.733106E+03	-3.057498E-04	-7.024511E-05
2.772716E+03	-2.047875E-04	-4.630840E-05
2.812327E+03	-1.045888E-04	-2.326468E-05
2.851937E+03	-8.358447E-06	-1.828637E-06
2.891547E+03	8.090128E-05	1.739733E-05
2.931157E+03	1.628271E-04	3.441127E-05
2.967401E+03	1.933150E-03	4.019038E-04
2.968985E+03	1.954440E-03	4.060375E-04
2.995130E+03	2.363111E-03	4.850408E-04
3.011174E+03	2.603982E-03	5.305049E-04
3.011768E+03	2.606194E-03	5.308074E-04
3.012362E+03	2.607986E-03	5.310241E-04
3.012560E+03	2.604259E-03	5.302158E-04
3.014145E+03	2.619870E-03	5.329971E-04
3.014541E+03	2.618183E-03	5.325544E-04
3.014739E+03	2.613588E-03	5.315703E-04
3.015333E+03	2.614496E-03	5.316064E-04
3.016323E+03	2.621033E-03	5.326871E-04
3.017512E+03	2.631159E-03	5.344453E-04
3.021869E+03	2.685305E-03	5.443230E-04
3.022464E+03	2.685650E-03	5.442396E-04
3.023454E+03	2.691620E-03	5.451941E-04
3.025237E+03	2.707768E-03	5.480021E-04
3.025435E+03	2.702583E-03	5.469015E-04
3.026029E+03	2.702381E-03	5.467066E-04
3.026227E+03	2.696543E-03	5.454745E-04
3.027812E+03	2.709801E-03	5.477442E-04
3.028010E+03	2.704056E-03	5.465317E-04
3.029000E+03	2.709041E-03	5.472821E-04
3.029792E+03	2.710903E-03	5.474524E-04
3.031178E+03	2.719862E-03	5.488997E-04
3.031574E+03	2.716507E-03	5.481194E-04
3.031772E+03	2.709916E-03	5.467380E-04
3.031970E+03	2.703307E-03	5.453531E-04
3.032168E+03	2.696471E-03	5.439229E-04
3.032565E+03	2.692779E-03	5.430758E-04
3.033556E+03	2.696229E-03	5.435150E-04
3.035140E+03	2.707092E-03	5.452930E-04
3.036130E+03	2.709809E-03	5.455825E-04
3.036329E+03	2.702710E-03	5.441019E-04
3.037517E+03	2.707687E-03	5.447946E-04
3.037913E+03	2.702944E-03	5.437377E-04
3.038111E+03	2.695510E-03	5.421909E-04
3.038309E+03	2.688058E-03	5.406407E-04
3.039102E+03	2.688033E-03	5.404309E-04
3.039894E+03	2.687911E-03	5.402017E-04
3.040291E+03	2.682709E-03	5.390542E-04
3.041874E+03	2.691848E-03	5.404809E-04
3.042072E+03	2.684148E-03	5.388837E-04
3.042666E+03	2.681312E-03	5.381611E-04
3.042864E+03	2.673123E-03	5.364666E-04
3.043062E+03	2.665129E-03	5.348117E-04
3.043260E+03	2.656901E-03	5.331099E-04
3.043458E+03	2.648653E-03	5.314045E-04
3.044053E+03	2.645365E-03	5.305937E-04
3.044251E+03	2.636841E-03	5.288337E-04
3.044449E+03	2.628294E-03	5.270696E-04
3.044647E+03	2.620377E-03	5.254320E-04
3.044846E+03	2.612235E-03	5.237494E-04
3.045044E+03	2.604063E-03	5.220612E-04
3.045242E+03	2.595436E-03	5.202823E-04
3.045440E+03	2.586790E-03	5.184999E-04
3.046034E+03	2.582492E-03	5.174909E-04
3.046232E+03	2.574221E-03	5.157844E-04
3.046628E+03	2.568088E-03	5.144577E-04
3.046826E+03	2.558893E-03	5.125670E-04
3.047024E+03	2.550550E-03	5.108471E-04
3.047420E+03	2.543440E-03	5.093263E-04
3.047618E+03	2.534610E-03	5.075096E-04
3.048015E+03	2.528521E-03	5.061941E-04
3.048807E+03	2.526123E-03	5.055214E-04
3.049401E+03	2.520680E-03	5.042882E-04
3.050193E+03	2.517214E-03	5.034028E-04
3.050392E+03	2.507755E-03	5.014631E-04
3.050590E+03	2.498040E-03	4.994728E-04
3.050788E+03	2.488528E-03	4.975235E-04
3.050986E+03	2.478772E-03	4.955258E-04
3.051382E+03	2.471218E-03	4.939213E-04
3.051778E+03	2.463170E-03	4.922188E-04
3.052373E+03	2.457052E-03	4.908557E-04
3.052571E+03	2.447391E-03	4.888791E-04
3.052967E+03	2.438986E-03	4.871072E-04
3.053362E+03	2.430749E-03	4.853695E-04
3.053758E+03	2.423377E-03	4.838051E-04
3.054352E+03	2.417412E-03	4.824759E-04
3.055342E+03	2.415619E-03	4.818877E-04
3.055540E+03	2.405287E-03	4.797806E-04
3.055739E+03	2.394481E-03	4.775795E-04
3.055937E+03	2.384333E-03	4.755100E-04
3.056136E+03	2.374174E-03	4.734385E-04
3.056928E+03	2.368793E-03	4.721846E-04
3.057126E+03	2.358324E-03	4.700527E-04
3.057918E+03	2.353241E-03	4.688599E-04
3.058116E+03	2.342011E-03	4.665779E-04
3.058512E+03	2.333680E-03	4.648290E-04
3.058710E+03	2.323085E-03	4.626743E-04
3.059701E+03	2.319925E-03	4.618235E-04
3.060295E+03	2.311797E-03	4.600732E-04
3.060889E+03	2.303657E-03	4.583212E-04
3.061087E+03	2.292198E-03	4.559977E-04
3.061285E+03	2.280948E-03	4.537160E-04
3.061682E+03	2.271647E-03	4.517790E-04
3.062078E+03	2.261875E-03	4.497491E-04
3.062276E+03	2.250216E-03	4.473879E-04
3.062474E+03	2.238231E-03	4.449623E-04
3.062870E+03	2.228397E-03	4.429221E-04
3.063068E+03	2.216335E-03	4.404824E-04
3.063266E+03	2.204858E-03	4.381593E-04
3.063465E+03	2.193081E-03	4.357771E-04
3.063663E+03	2.181260E-03	4.333863E-04
3.064454E+03	2.174060E-03	4.317899E-04
3.064850E+03	2.163912E-03	4.296918E-04
3.065049E+03	2.151708E-03	4.272270E-04
3.065247E+03	2.140133E-03	4.248879E-04
3.065444E+03	2.128294E-03	4.224971E-04
3.065643E+03	2.116779E-03	4.201705E-04
3.066434E+03	2.108908E-03	4.184472E-04
3.066632E+03	2.097338E-03	4.161113E-04
3.067227E+03	2.088136E-03	4.141657E-04
3.067624E+03	2.078250E-03	4.121254E-04
3.068020E+03	2.068130E-03	4.100395E-04
3.068218E+03	2.055960E-03	4.075874E-04
3.068614E+03	2.044722E-03	4.052813E-04
3.068812E+03	2.032143E-03	4.027492E-04
3.069208E+03	2.021065E-03	4.004763E-04
3.069406E+03	2.008696E-03	3.979870E-04
3.070000E+03	1.998487E-03	3.958497E-04
3.070594E+03	1.988188E-03	3.936955E-04
3.070792E+03	1.975232E-03	3.910922E-04
3.071585E+03	1.966656E-03	3.892439E-04
3.072179E+03	1.956317E-03	3.870852E-04
3.073368E+03	1.949914E-03	3.855943E-04
3.073566E+03	1.937248E-03	3.830525E-04
3.073764E+03	1.924345E-03	3.804644E-04
3.073962E+03	1.911734E-03	3.779346E-04
3.074160E+03	1.898888E-03	3.753586E-04
3.074358E+03	1.885946E-03	3.727643E-04
3.074952E+03	1.875535E-03	3.705989E-04
3.075151E+03	1.863626E-03	3.682101E-04
3.075547E+03	1.852186E-03	3.658788E-04
3.075745E+03	1.838745E-03	3.631885E-04
3.075943E+03	1.826475E-03	3.607301E-04
3.076536E+03	1.816179E-03	3.585925E-04
3.077131E+03	1.805881E-03	3.564552E-04
3.077526E+03	1.793417E-03	3.539265E-04
3.077724E+03	1.779846E-03	3.512143E-04
3.077922E+03	1.766891E-03	3.486241E-04
3.078120E+03	1.754310E-03	3.461081E-04
3.078318E+03	1.742201E-03	3.436857E-04
3.078517E+03	1.728777E-03	3.410044E-04
3.078715E+03	1.715965E-03	3.384443E-04
3.079904E+03	1.708196E-03	3.367157E-04
3.080696E+03	1.699012E-03	3.347751E-04
3.080894E+03	1.685793E-03	3.321383E-04
3.081290E+03	1.673522E-03	3.296565E-04
3.081488E+03	1.660329E-03	3.270259E-04
3.083271E+03	1.654726E-03	3.256370E-04
3.083469E+03	1.640893E-03	3.228832E-04
3.085450E+03	1.635955E-03	3.215979E-04
3.086044E+03	1.624010E-03	3.191563E-04
3.086242E+03	1.610104E-03	3.163927E-04
3.086440E+03	1.596206E-03	3.136310E-04
3.087035E+03	1.584185E-03	3.111779E-04
3.087233E+03	1.570305E-03	3.084215E-04
3.087431E+03	1.556431E-03	3.056666E-04
3.087827E+03	1.543469E-03	3.030618E-04
3.088025E+03	1.529598E-03	3.003089E-04
3.088223E+03	1.515760E-03	2.975630E-04
3.088618E+03	1.502772E-03	2.949558E-04
3.088817E+03	1.488944E-03	2.922130E-04
3.089608E+03	1.477669E-03	2.898870E-04
3.090203E+03	1.465508E-03	2.874168E-04
3.090401E+03	1.451674E-03	2.846758E-04
3.090798E+03	1.438667E-03	2.820699E-04
3.090996E+03	1.424812E-03	2.793262E-04
3.091986E+03	1.414187E-03	2.771074E-04
3.092184E+03	1.400335E-03	2.743664E-04
3.092382E+03	1.386520E-03	2.716329E-04
3.092580E+03	1.372813E-03	2.689213E-04
3.092778E+03	1.359938E-03	2.663730E-04
3.092976E+03	1.346325E-03	2.636808E-04
3.093174E+03	1.332568E-03	2.609610E-04
3.094561E+03	1.323222E-03	2.589530E-04
3.094759E+03	1.309817E-03	2.563044E-04
3.094957E+03	1.296600E-03	2.536932E-04
3.095155E+03	1.282850E-03	2.509783E-04
3.096542E+03	1.273888E-03	2.490537E-04
3.097136E+03	1.261747E-03	2.466073E-04
3.097334E+03	1.248085E-03	2.439130E-04
3.097928E+03	1.235878E-03	2.414563E-04
3.098523E+03	1.223639E-03	2.389946E-04
3.099711E+03	1.214721E-03	2.371127E-04
3.100305E+03	1.203763E-03	2.349044E-04
3.100700E+03	1.192062E-03	2.325754E-04
3.101295E+03	1.180860E-03	2.303216E-04
3.102682E+03	1.171915E-03	2.284193E-04
3.102880E+03	1.159252E-03	2.259288E-04
3.103276E+03	1.147152E-03	2.235266E-04
3.103474E+03	1.134400E-03	2.210200E-04
3.103870E+03	1.122196E-03	2.185990E-04
3.104068E+03	1.109381E-03	2.160814E-04
3.104464E+03	1.097098E-03	2.136468E-04
3.104662E+03	1.084194E-03	2.111131E-04
3.105256E+03	1.072363E-03	2.087474E-04
3.106842E+03	1.063070E-03	2.067748E-04
3.107040E+03	1.050112E-03	2.042342E-04
3.107436E+03	1.037665E-03	2.017735E-04
3.107832E+03	1.025190E-03	1.993083E-04
3.108030E+03	1.012175E-03	1.967585E-04
3.108228E+03	9.991458E-04	1.942066E-04
3.108822E+03	9.870675E-04	1.918019E-04
3.109020E+03	9.740776E-04	1.892591E-04
3.109218E+03	9.609661E-04	1.866931E-04
3.110010E+03	9.492058E-04	1.843353E-04
3.110209E+03	9.360999E-04	1.817721E-04
3.110407E+03	9.229540E-04	1.792016E-04
3.110803E+03	9.102435E-04	1.766987E-04
3.111397E+03	8.979481E-04	1.742601E-04
3.111595E+03	8.848482E-04	1.717008E-04
3.112190E+03	8.725374E-04	1.692615E-04
3.112784E+03	8.602343E-04	1.668252E-04
3.112981E+03	8.477958E-04	1.643967E-04
3.113378E+03	8.369148E-04	1.622545E-04
3.113575E+03	8.247163E-04	1.598737E-04
3.114764E+03	8.139165E-04	1.576861E-04
3.114962E+03	8.010952E-04	1.551867E-04
3.115754E+03	7.900903E-04	1.529940E-04
3.116348E+03	7.786681E-04	1.507372E-04
3.116942E+03	7.677770E-04	1.485845E-04
3.117536E+03	7.569881E-04	1.464528E-04
3.117734E+03	7.452223E-04	1.441622E-04
3.118924E+03	7.343007E-04	1.419644E-04
3.119122E+03	7.218269E-04	1.395389E-04
3.120310E+03	7.117640E-04	1.375113E-04
3.122093E+03	7.019248E-04	1.354886E-04
3.123281E+03	6.919860E-04	1.334901E-04
3.123480E+03	6.804976E-04	1.312607E-04
3.123678E+03	6.688046E-04	1.289924E-04
3.124470E+03	6.577730E-04	1.268140E-04
3.125262E+03	6.467812E-04	1.246449E-04
3.125460E+03	6.360798E-04	1.225703E-04
3.126252E+03	6.265986E-04	1.206951E-04
3.126450E+03	6.146149E-04	1.183749E-04
3.126648E+03	6.030938E-04	1.161443E-04
3.127440E+03	5.920759E-04	1.139768E-04
3.127638E+03	5.805489E-04	1.117466E-04
3.127836E+03	5.687891E-04	1.094720E-04
3.128034E+03	5.581906E-04	1.074214E-04
3.129421E+03	5.486444E-04	1.055101E-04
3.131006E+03	5.387760E-04	1.035291E-04
3.131204E+03	5.286258E-04	1.015685E-04
3.131798E+03	5.187868E-04	9.964799E-05
3.132788E+03	5.092834E-04	9.777342E-05
3.133184E+03	4.982496E-04	9.563587E-05
3.133383E+03	4.876726E-04	9.359627E-05
3.133977E+03	4.772540E-04	9.156904E-05
3.134373E+03	4.666744E-04	8.952114E-05
3.134572E+03	4.574163E-04	8.773629E-05
3.134968E+03	4.484460E-04	8.599839E-05
3.135166E+03	4.380966E-04	8.400522E-05
3.135364E+03	4.278240E-04	8.202718E-05
3.135562E+03	4.179963E-04	8.013483E-05
3.135958E+03	4.077345E-04	7.815175E-05
3.136552E+03	3.981300E-04	7.628775E-05
3.136749E+03	3.881553E-04	7.436899E-05
3.137145E+03	3.781880E-04	7.244467E-05
3.137344E+03	3.684511E-04	7.057239E-05
3.137542E+03	3.601818E-04	6.898154E-05
3.137740E+03	3.508856E-04	6.719435E-05
3.137938E+03	3.415262E-04	6.539543E-05
3.138532E+03	3.329177E-04	6.372778E-05
3.139126E+03	3.239776E-04	6.199765E-05
3.139324E+03	3.144999E-04	6.017788E-05
3.139522E+03	3.058123E-04	5.850964E-05
3.139918E+03	2.969008E-04	5.679317E-05
3.140711E+03	2.885035E-04	5.516454E-05
3.140909E+03	2.800166E-04	5.353636E-05
3.141108E+03	2.714672E-04	5.189653E-05
3.141702E+03	2.633766E-04	5.033458E-05
3.141900E+03	2.558582E-04	4.889276E-05
3.142296E+03	2.476313E-04	4.731109E-05
3.142890E+03	2.396706E-04	4.577625E-05
3.143286E+03	2.314585E-04	4.419880E-05
3.144672E+03	2.239454E-04	4.273381E-05
3.144870E+03	2.168726E-04	4.137996E-05
3.145267E+03	2.102078E-04	4.010016E-05
3.145465E+03	2.026359E-04	3.865179E-05
3.145663E+03	1.954471E-04	3.727676E-05
3.146060E+03	1.883321E-04	3.591246E-05
3.146456E+03	1.808686E-04	3.448226E-05
3.146852E+03	1.737265E-04	3.311390E-05
3.147050E+03	1.668298E-04	3.179610E-05
3.147248E+03	1.597300E-04	3.043986E-05
3.148040E+03	1.536616E-04	2.927150E-05
3.148435E+03	1.467125E-04	2.794207E-05
3.148634E+03	1.405238E-04	2.676068E-05
3.148831E+03	1.351102E-04	2.572713E-05
3.149031E+03	1.292926E-04	2.461685E-05
3.149228E+03	1.228449E-04	2.338686E-05
3.149426E+03	1.165005E-04	2.217678E-05
3.149822E+03	1.104543E-04	2.102156E-05
3.150020E+03	1.047829E-04	1.994016E-05
3.150218E+03	9.919787E-05	1.887541E-05
3.151010E+03	9.374070E-05	1.782975E-05
3.151208E+03	8.805492E-05	1.674660E-05
3.151407E+03	8.367772E-05	1.591250E-05
3.151605E+03	7.885195E-05	1.499328E-05
3.151803E+03	7.462320E-05	1.418776E-05
3.152001E+03	6.945329E-05	1.320348E-05
3.152199E+03	6.512693E-05	1.237976E-05
3.152397E+03	6.088228E-05	1.157173E-05
3.152595E+03	5.675715E-05	1.078657E-05
3.152794E+03	5.209897E-05	9.900287E-06
3.153190E+03	4.783952E-05	9.089017E-06
3.153388E+03	4.383712E-05	8.327752E-06
3.153586E+03	4.089535E-05	7.768112E-06
3.153784E+03	3.854163E-05	7.320273E-06
3.154180E+03	3.458602E-05	6.567638E-06
3.154378E+03	3.142072E-05	5.965961E-06
3.155170E+03	2.791577E-05	5.298299E-06
3.155368E+03	2.505985E-05	4.755772E-06
3.155962E+03	2.189456E-05	4.153802E-06
3.156160E+03	1.867040E-05	3.541757E-06
3.156358E+03	1.660349E-05	3.149345E-06
3.156556E+03	1.507738E-05	2.859580E-06
3.156755E+03	1.307737E-05	2.480003E-06
3.157152E+03	1.057066E-05	2.004218E-06
3.157350E+03	8.068037E-06	1.529559E-06
3.157548E+03	6.308602E-06	1.195879E-06
3.158340E+03	4.864665E-06	9.217843E-07
3.158934E+03	3.522076E-06	6.671780E-07
3.159132E+03	2.117624E-06	4.010951E-07
3.159528E+03	1.629318E-06	3.085429E-07
3.159726E+03	1.409337E-06	2.668578E-07
3.160320E+03	3.716831E-07	7.035653E-08
3.160518E+03	6.143987E-07	1.162887E-07
3.161311E+03	9.058298E-07	1.713782E-07
3.161508E+03	-7.078323E-08	-1.339045E-08
3.161706E+03	-3.467513E-07	-6.559009E-08
3.161904E+03	-8.800598E-07	-1.664515E-07
3.162102E+03	-1.489251E-06	-2.816431E-07
3.162300E+03	-1.825931E-06	-3.452795E-07
3.163291E+03	-2.080565E-06	-3.932281E-07
3.163489E+03	-2.247401E-06	-4.247167E-07
3.164281E+03	-1.797802E-06	-3.396113E-07
3.164480E+03	-9.811217E-07	-1.853184E-07
3.164876E+03	-2.402323E-07	-4.536676E-08
3.165074E+03	9.218109E-07	1.740619E-07
3.165668E+03	2.289635E-06	4.322093E-07
3.166064E+03	3.300830E-06	6.229621E-07
3.166460E+03	4.614025E-06	8.706208E-07
3.166658E+03	6.852249E-06	1.292819E-06
3.167252E+03	8.328690E-06	1.570895E-06
3.167648E+03	9.908469E-06	1.868476E-06
3.167846E+03	1.171030E-05	2.208026E-06
3.168640E+03	1.361257E-05	2.565648E-06
3.168838E+03	1.585533E-05	2.988048E-06
3.169036E+03	1.863893E-05	3.512273E-06
3.169432E+03	2.119453E-05	3.993021E-06
3.170620E+03	2.372196E-05	4.466421E-06
3.170818E+03	2.707112E-05	5.096482E-06
3.171016E+03	2.986596E-05	5.622067E-06
3.171214E+03	3.298793E-05	6.209116E-06
3.171412E+03	3.640108E-05	6.850845E-06
3.171610E+03	3.999005E-05	7.525527E-06
3.172205E+03	4.365734E-05	8.213110E-06
3.172403E+03	4.831058E-05	9.087570E-06
3.172600E+03	5.314907E-05	9.996697E-06
3.172799E+03	5.781133E-05	1.087248E-05
3.172996E+03	6.288413E-05	1.182530E-05
3.173789E+03	6.718212E-05	1.262830E-05
3.173987E+03	7.237608E-05	1.360321E-05
3.174383E+03	7.729605E-05	1.452492E-05
3.174977E+03	8.206269E-05	1.541585E-05
3.175175E+03	8.729610E-05	1.639727E-05
3.175967E+03	9.298675E-05	1.745894E-05
3.176166E+03	9.829975E-05	1.845459E-05
3.176562E+03	1.040847E-04	1.953659E-05
3.176760E+03	1.098177E-04	2.061053E-05
3.177354E+03	1.159045E-04	2.174614E-05
3.177552E+03	1.223116E-04	2.294586E-05
3.177948E+03	1.288519E-04	2.416783E-05
3.178344E+03	1.355889E-04	2.542617E-05
3.178542E+03	1.424703E-04	2.671381E-05
3.178938E+03	1.497699E-04	2.807669E-05
3.179731E+03	1.571635E-04	2.945050E-05
3.179929E+03	1.641427E-04	3.075512E-05
3.180326E+03	1.719958E-04	3.221985E-05
3.180524E+03	1.796709E-04	3.365412E-05
3.181118E+03	1.875780E-04	3.512426E-05
3.181316E+03	1.956610E-04	3.663400E-05
3.181712E+03	2.036254E-04	3.811725E-05
3.181910E+03	2.115875E-04	3.960359E-05
3.182306E+03	2.203634E-04	4.123762E-05
3.182504E+03	2.295327E-04	4.294905E-05
3.183494E+03	2.381125E-04	4.453129E-05
3.183891E+03	2.470012E-04	4.618400E-05
3.184089E+03	2.567842E-04	4.800823E-05
3.184682E+03	2.658605E-04	4.968962E-05
3.184881E+03	2.760320E-04	5.158528E-05
3.185475E+03	2.857106E-04	5.337734E-05
3.185673E+03	2.953133E-04	5.516560E-05
3.185871E+03	3.053750E-04	5.703921E-05
3.186069E+03	3.164138E-04	5.909491E-05
3.186465E+03	3.270992E-04	6.107783E-05
3.186663E+03	3.375146E-04	6.301607E-05
3.187059E+03	3.487143E-04	6.509355E-05
3.187257E+03	3.594033E-04	6.708183E-05
3.187653E+03	3.701895E-04	6.908064E-05
3.187852E+03	3.821102E-04	7.129769E-05
3.188248E+03	3.940396E-04	7.350824E-05
3.188446E+03	4.054558E-04	7.563004E-05
3.188644E+03	4.169333E-04	7.776282E-05
3.188842E+03	4.288319E-04	7.997369E-05
3.189238E+03	4.408914E-04	8.220551E-05
3.189634E+03	4.528342E-04	8.441463E-05
3.190030E+03	4.651384E-04	8.669017E-05
3.190427E+03	4.777757E-04	8.902677E-05
3.190625E+03	4.902244E-04	9.133686E-05
3.191219E+03	5.035958E-04	9.379872E-05
3.191417E+03	5.166482E-04	9.621977E-05
3.192210E+03	5.298247E-04	9.863242E-05
3.192408E+03	5.431819E-04	1.011084E-04
3.192804E+03	5.568214E-04	1.036256E-04
3.193794E+03	5.715105E-04	1.063035E-04
3.193992E+03	5.860452E-04	1.089956E-04
3.194190E+03	6.001303E-04	1.116035E-04
3.194388E+03	6.144872E-04	1.142614E-04
3.194982E+03	6.288637E-04	1.168979E-04
3.195180E+03	6.436443E-04	1.196328E-04
3.196172E+03	6.588471E-04	1.223942E-04
3.196766E+03	6.737056E-04	1.251151E-04
3.196963E+03	6.884298E-04	1.278362E-04
3.197360E+03	7.037624E-04	1.306558E-04
3.197953E+03	7.188585E-04	1.334164E-04
3.198151E+03	7.342471E-04	1.362581E-04
3.198349E+03	7.501168E-04	1.391885E-04
3.198745E+03	7.655407E-04	1.420206E-04
3.199538E+03	7.815685E-04	1.449330E-04
3.199736E+03	7.976811E-04	1.479054E-04
3.199934E+03	8.139426E-04	1.509047E-04
3.201320E+03	8.305581E-04	1.538717E-04
3.201519E+03	8.471507E-04	1.569290E-04
3.201915E+03	8.639195E-04	1.600016E-04
3.202113E+03	8.808430E-04	1.631187E-04
3.202311E+03	8.979172E-04	1.662631E-04
3.202509E+03	9.151114E-04	1.694290E-04
3.202707E+03	9.324564E-04	1.726221E-04
3.202905E+03	9.531990E-04	1.764435E-04
3.203302E+03	5.769199E-04	1.067692E-04
3.204688E+03	5.668850E-04	1.048345E-04
3.205480E+03	5.392443E-04	9.968077E-05
3.206272E+03	5.389627E-04	9.958659E-05
3.206668E+03	5.254037E-04	9.706071E-05
3.206866E+03	5.171635E-04	9.552834E-05
3.207660E+03	5.197562E-04	9.596657E-05
3.207858E+03	4.850710E-04	8.955289E-05
3.209244E+03	4.758240E-04	8.778062E-05
3.209837E+03	4.404670E-04	8.123213E-05
3.210035E+03	4.267462E-04	7.869335E-05
3.210629E+03	4.338886E-04	7.998498E-05
3.210827E+03	4.414023E-04	8.136146E-05
3.211224E+03	4.277028E-04	7.881956E-05
3.211422E+03	4.069122E-04	7.498020E-05
3.211620E+03	4.027536E-04	7.420603E-05
3.213205E+03	4.028312E-04	7.415726E-05
3.213403E+03	3.983698E-04	7.332816E-05
3.213601E+03	4.015161E-04	7.389944E-05
3.214195E+03	3.987735E-04	7.337126E-05
3.214393E+03	4.015871E-04	7.388110E-05
3.214591E+03	3.988979E-04	7.337855E-05
3.214789E+03	4.041156E-04	7.433044E-05
3.214988E+03	4.068370E-04	7.482304E-05
3.215384E+03	4.036211E-04	7.421579E-05
3.215582E+03	4.019824E-04	7.390662E-05
3.215780E+03	4.018467E-04	7.387380E-05
3.215978E+03	4.056177E-04	7.455912E-05
3.216176E+03	4.062624E-04	7.466966E-05
3.216770E+03	4.065402E-04	7.469685E-05
3.217166E+03	4.077357E-04	7.490056E-05
3.217364E+03	4.082875E-04	7.499392E-05
