#wls	flux	fluxerr
1.584409E+03	4.412313E-03	4.731502E-04
1.624020E+03	4.506031E-03	4.822109E-04
1.663630E+03	4.598793E-03	4.911075E-04
1.703240E+03	4.689849E-03	4.997591E-04
1.742850E+03	4.778793E-03	5.081220E-04
1.782461E+03	4.864709E-03	5.160993E-04
1.822071E+03	4.947424E-03	5.236731E-04
1.861681E+03	5.026246E-03	5.307714E-04
1.901291E+03	5.100012E-03	5.372731E-04
1.940902E+03	5.167530E-03	5.430555E-04
1.980512E+03	5.227591E-03	5.479955E-04
2.020122E+03	5.279349E-03	5.520093E-04
2.059732E+03	5.320239E-03	5.548353E-04
2.099342E+03	5.348937E-03	5.563438E-04
2.138953E+03	5.363631E-03	5.563562E-04
2.178563E+03	5.361573E-03	5.546001E-04
2.218173E+03	5.341977E-03	5.510086E-04
2.257783E+03	5.303781E-03	5.454882E-04
2.297394E+03	5.247616E-03	5.381207E-04
2.337004E+03	5.174724E-03	5.290503E-04
2.376614E+03	5.086817E-03	5.184681E-04
2.416224E+03	4.986152E-03	5.066191E-04
2.455835E+03	4.873902E-03	4.936356E-04
2.495445E+03	4.751771E-03	4.797029E-04
2.535055E+03	4.621088E-03	4.649666E-04
2.574665E+03	4.482572E-03	4.495093E-04
2.614276E+03	4.337133E-03	4.334324E-04
2.653886E+03	4.185411E-03	4.168091E-04
2.693496E+03	4.028274E-03	3.997345E-04
2.733106E+03	3.866418E-03	3.822860E-04
2.772716E+03	3.700691E-03	3.645547E-04
2.812327E+03	3.531991E-03	3.466357E-04
2.851937E+03	3.361754E-03	3.286755E-04
2.891547E+03	3.191378E-03	3.108144E-04
2.931157E+03	3.022357E-03	2.932004E-04
2.970768E+03	2.856623E-03	2.760211E-04
2.980670E+03	2.815941E-03	2.718170E-04
2.990573E+03	2.775589E-03	2.676520E-04
3.000475E+03	2.735592E-03	2.635283E-04
3.010378E+03	2.696030E-03	2.594536E-04
3.020280E+03	2.656924E-03	2.554300E-04
3.030183E+03	2.618297E-03	2.514593E-04
3.040086E+03	2.580168E-03	2.475434E-04
3.049988E+03	2.542564E-03	2.436847E-04
3.059891E+03	2.505506E-03	2.398853E-04
3.069793E+03	2.469069E-03	2.361519E-04
3.079696E+03	2.433273E-03	2.324865E-04
3.089598E+03	2.398093E-03	2.288865E-04
3.099501E+03	2.363649E-03	2.253632E-04
3.109403E+03	2.329866E-03	2.219092E-04
3.119306E+03	2.296817E-03	2.185313E-04
3.129209E+03	2.264568E-03	2.152356E-04
3.139111E+03	2.233096E-03	2.120198E-04
3.149014E+03	2.202468E-03	2.088899E-04
3.158916E+03	2.172662E-03	2.058436E-04
3.168819E+03	2.143742E-03	2.028868E-04
3.178721E+03	2.115729E-03	2.000212E-04
3.188624E+03	2.088606E-03	1.972449E-04
3.198526E+03	2.062433E-03	1.945635E-04
3.208429E+03	2.037232E-03	1.919785E-04
3.218332E+03	2.013021E-03	1.894916E-04
3.228234E+03	1.989820E-03	1.871043E-04
3.238137E+03	1.967651E-03	1.848184E-04
3.248039E+03	1.946534E-03	1.826354E-04
3.257942E+03	1.926457E-03	1.805538E-04
3.267844E+03	1.907501E-03	1.785811E-04
3.277747E+03	1.889623E-03	1.767129E-04
3.287650E+03	1.872876E-03	1.749538E-04
3.297552E+03	1.857248E-03	1.733023E-04
3.307455E+03	1.842788E-03	1.717626E-04
3.317357E+03	1.829513E-03	1.703360E-04
3.327260E+03	1.817391E-03	1.690191E-04
3.337162E+03	1.806491E-03	1.678182E-04
3.347065E+03	1.796784E-03	1.667300E-04
3.356967E+03	1.788315E-03	1.657583E-04
3.366870E+03	1.781103E-03	1.649047E-04
3.376773E+03	1.775120E-03	1.641661E-04
3.386675E+03	1.770437E-03	1.635487E-04
3.396578E+03	1.767026E-03	1.630494E-04
3.406480E+03	1.764910E-03	1.626702E-04
3.416383E+03	1.764112E-03	1.624126E-04
3.426285E+03	1.764632E-03	1.622762E-04
3.436188E+03	1.766517E-03	1.622651E-04
3.446090E+03	1.769746E-03	1.623768E-04
3.455993E+03	1.774346E-03	1.626134E-04
3.465896E+03	1.780318E-03	1.629746E-04
3.475798E+03	1.787712E-03	1.634645E-04
3.485701E+03	1.796509E-03	1.640810E-04
3.495603E+03	1.806717E-03	1.648243E-04
3.505506E+03	1.818382E-03	1.656983E-04
3.515408E+03	1.831469E-03	1.666992E-04
3.525311E+03	1.846004E-03	1.678290E-04
3.535213E+03	1.862015E-03	1.690899E-04
3.545116E+03	1.879483E-03	1.704798E-04
3.555019E+03	1.898437E-03	1.720006E-04
3.564921E+03	1.918859E-03	1.736503E-04
3.574824E+03	1.940748E-03	1.754285E-04
3.584726E+03	1.964129E-03	1.773369E-04
3.594629E+03	1.988955E-03	1.793709E-04
3.604531E+03	2.015266E-03	1.815336E-04
3.614434E+03	2.043035E-03	1.838221E-04
3.624337E+03	2.072251E-03	1.862351E-04
3.634239E+03	2.102878E-03	1.887689E-04
3.644142E+03	2.134922E-03	1.914236E-04
3.654044E+03	2.168359E-03	1.941966E-04
3.663947E+03	2.203143E-03	1.970834E-04
3.673849E+03	2.239262E-03	2.000825E-04
3.683752E+03	2.276680E-03	2.031905E-04
3.693654E+03	2.315331E-03	2.064010E-04
3.703557E+03	2.355235E-03	2.097154E-04
3.713460E+03	2.396291E-03	2.131245E-04
3.723362E+03	2.438459E-03	2.166243E-04
3.733265E+03	2.481721E-03	2.202129E-04
3.743167E+03	2.525953E-03	2.238791E-04
3.753070E+03	2.571144E-03	2.276217E-04
3.762972E+03	2.617182E-03	2.314305E-04
3.772875E+03	2.664023E-03	2.353015E-04
3.782777E+03	2.711590E-03	2.392276E-04
3.792680E+03	2.759774E-03	2.431991E-04
3.802583E+03	2.808486E-03	2.472080E-04
3.812485E+03	2.857661E-03	2.512484E-04
3.822388E+03	2.907169E-03	2.553091E-04
3.832290E+03	2.956937E-03	2.593833E-04
3.842193E+03	3.006826E-03	2.634592E-04
3.852095E+03	3.056754E-03	2.675293E-04
3.861998E+03	3.106602E-03	2.715835E-04
3.871900E+03	3.156253E-03	2.756117E-04
3.881803E+03	3.205614E-03	2.796058E-04
3.891706E+03	3.254535E-03	2.835530E-04
3.901608E+03	3.302919E-03	2.874450E-04
3.911511E+03	3.350673E-03	2.912739E-04
3.921413E+03	3.397613E-03	2.950243E-04
3.931316E+03	3.443706E-03	2.986933E-04
3.941218E+03	3.488802E-03	3.022685E-04
3.951121E+03	3.532778E-03	3.057395E-04
3.961024E+03	3.575552E-03	3.090997E-04
3.970926E+03	3.616975E-03	3.123367E-04
3.980829E+03	3.657001E-03	3.154469E-04
3.990731E+03	3.695525E-03	3.184219E-04
4.000634E+03	3.732447E-03	3.212535E-04
4.010536E+03	3.767636E-03	3.239311E-04
4.020439E+03	3.801071E-03	3.264533E-04
4.030341E+03	3.832664E-03	3.288133E-04
4.040244E+03	3.862341E-03	3.310053E-04
4.050147E+03	3.890032E-03	3.330239E-04
4.060049E+03	3.915671E-03	3.348642E-04
4.069952E+03	3.939241E-03	3.365253E-04
4.079854E+03	3.960660E-03	3.380010E-04
4.089757E+03	3.979924E-03	3.392914E-04
4.099659E+03	3.997003E-03	3.403947E-04
4.109562E+03	4.011878E-03	3.413101E-04
4.119464E+03	4.024539E-03	3.420372E-04
4.129367E+03	4.034982E-03	3.425765E-04
4.139270E+03	4.043253E-03	3.429323E-04
4.149172E+03	4.049300E-03	3.431010E-04
4.159075E+03	4.053183E-03	3.430884E-04
4.168977E+03	4.054976E-03	3.429011E-04
4.178880E+03	4.054654E-03	3.425378E-04
4.188782E+03	4.052304E-03	3.420063E-04
4.198685E+03	4.047956E-03	3.413099E-04
4.208587E+03	4.041714E-03	3.404576E-04
4.218490E+03	4.033617E-03	3.394533E-04
4.228393E+03	4.023716E-03	3.383018E-04
4.238295E+03	4.012163E-03	3.370163E-04
4.248198E+03	3.998945E-03	3.355962E-04
4.258100E+03	3.984223E-03	3.340554E-04
4.268003E+03	3.968055E-03	3.323989E-04
4.277905E+03	3.950529E-03	3.306347E-04
4.287808E+03	3.931703E-03	3.287679E-04
4.297711E+03	3.911696E-03	3.268085E-04
4.307613E+03	3.890587E-03	3.247637E-04
4.317516E+03	3.868417E-03	3.226370E-04
4.327418E+03	3.845359E-03	3.204431E-04
4.337321E+03	3.821446E-03	3.181847E-04
4.347223E+03	3.796808E-03	3.158729E-04
4.357126E+03	3.771513E-03	3.135134E-04
4.367028E+03	3.745686E-03	3.111166E-04
4.376931E+03	3.719357E-03	3.086850E-04
4.386834E+03	3.692682E-03	3.062314E-04
4.396736E+03	3.665711E-03	3.037599E-04
4.406639E+03	3.638490E-03	3.012744E-04
4.416541E+03	3.611158E-03	2.987863E-04
4.426444E+03	3.583752E-03	2.962985E-04
4.436346E+03	3.556338E-03	2.938165E-04
4.446249E+03	3.528979E-03	2.913452E-04
4.456151E+03	3.501736E-03	2.888896E-04
4.466054E+03	3.474641E-03	2.864522E-04
4.475957E+03	3.447784E-03	2.840403E-04
4.485859E+03	3.421226E-03	2.816588E-04
4.495762E+03	3.394996E-03	2.793101E-04
4.505664E+03	3.369128E-03	2.769965E-04
4.515567E+03	3.343711E-03	2.747253E-04
4.525469E+03	3.318811E-03	2.725019E-04
4.535372E+03	3.294429E-03	2.703261E-04
4.545274E+03	3.270691E-03	2.682080E-04
4.555177E+03	3.247571E-03	2.661454E-04
4.565080E+03	3.225163E-03	2.641457E-04
4.574982E+03	3.203535E-03	2.622144E-04
4.584885E+03	3.182724E-03	2.603542E-04
4.594787E+03	3.162795E-03	2.585703E-04
4.604690E+03	3.143758E-03	2.568634E-04
4.614592E+03	3.125740E-03	2.552435E-04
4.624495E+03	3.108721E-03	2.537090E-04
4.634398E+03	3.092801E-03	2.522675E-04
4.644300E+03	3.078015E-03	2.509220E-04
4.654203E+03	3.064428E-03	2.496774E-04
4.664105E+03	3.052039E-03	2.485334E-04
4.674008E+03	3.040895E-03	2.474936E-04
4.683910E+03	3.030975E-03	2.465562E-04
4.693813E+03	3.022335E-03	2.457254E-04
4.703715E+03	3.014903E-03	2.449951E-04
4.713618E+03	3.008689E-03	2.443661E-04
4.723521E+03	3.003667E-03	2.438358E-04
4.733423E+03	2.999782E-03	2.433998E-04
4.743326E+03	2.997037E-03	2.430581E-04
4.753228E+03	2.995375E-03	2.428058E-04
4.763131E+03	2.994772E-03	2.426409E-04
4.773033E+03	2.995198E-03	2.425607E-04
4.782936E+03	2.996630E-03	2.425634E-04
4.792838E+03	2.999010E-03	2.426438E-04
4.802741E+03	3.002373E-03	2.428049E-04
4.812644E+03	3.006601E-03	2.430370E-04
4.822546E+03	3.011725E-03	2.433423E-04
4.832449E+03	3.017687E-03	2.437160E-04
4.842351E+03	3.024485E-03	2.441580E-04
4.852254E+03	3.032028E-03	2.446607E-04
4.862156E+03	3.040314E-03	2.452239E-04
4.872059E+03	3.049309E-03	2.458447E-04
4.881961E+03	3.058947E-03	2.465177E-04
4.891864E+03	3.069224E-03	2.472425E-04
4.901767E+03	3.080072E-03	2.480136E-04
4.911669E+03	3.091488E-03	2.488305E-04
4.921572E+03	3.103371E-03	2.496852E-04
4.931474E+03	3.115747E-03	2.505796E-04
4.941377E+03	3.128518E-03	2.515057E-04
4.951279E+03	3.141678E-03	2.524630E-04
4.961182E+03	3.155161E-03	2.534463E-04
4.971085E+03	3.168962E-03	2.544549E-04
4.980987E+03	3.183048E-03	2.554863E-04
4.990890E+03	3.197319E-03	2.565323E-04
5.000792E+03	3.211774E-03	2.575929E-04
5.010695E+03	3.226378E-03	2.586651E-04
5.020597E+03	3.241100E-03	2.597465E-04
5.030500E+03	3.255838E-03	2.608288E-04
5.040402E+03	3.270624E-03	2.619146E-04
5.050305E+03	3.285420E-03	2.630009E-04
5.060208E+03	3.300094E-03	2.640770E-04
5.070110E+03	3.314703E-03	2.651475E-04
5.080013E+03	3.329143E-03	2.662040E-04
5.089915E+03	3.343367E-03	2.672429E-04
5.099818E+03	3.357330E-03	2.682604E-04
5.109720E+03	3.370949E-03	2.692500E-04
5.119623E+03	3.384206E-03	2.702102E-04
5.129525E+03	3.397006E-03	2.711335E-04
5.139428E+03	3.409292E-03	2.720154E-04
5.149331E+03	3.420998E-03	2.728505E-04
5.159233E+03	3.431985E-03	2.736280E-04
5.169136E+03	3.442251E-03	2.743475E-04
5.179038E+03	3.451687E-03	2.750006E-04
5.188941E+03	3.460180E-03	2.755781E-04
5.198843E+03	3.467648E-03	2.760738E-04
5.208746E+03	3.474012E-03	2.764812E-04
5.218648E+03	3.479155E-03	2.767914E-04
5.228551E+03	3.483031E-03	2.770006E-04
5.238454E+03	3.485492E-03	2.770971E-04
5.248356E+03	3.486501E-03	2.770781E-04
5.258259E+03	3.485914E-03	2.769324E-04
5.268161E+03	3.483706E-03	2.766581E-04
5.278064E+03	3.479788E-03	2.762480E-04
5.287966E+03	3.474114E-03	2.756989E-04
5.297869E+03	3.466649E-03	2.750080E-04
5.307772E+03	3.457303E-03	2.741683E-04
5.317674E+03	3.446106E-03	2.731824E-04
5.327577E+03	3.433027E-03	2.720479E-04
5.337479E+03	3.418091E-03	2.707671E-04
5.347382E+03	3.401272E-03	2.693378E-04
5.357284E+03	3.382694E-03	2.677702E-04
5.367187E+03	3.362331E-03	2.660623E-04
5.377089E+03	3.340274E-03	2.642215E-04
5.386992E+03	3.316636E-03	2.622567E-04
5.396895E+03	3.291374E-03	2.601649E-04
5.406797E+03	3.264474E-03	2.579450E-04
5.416700E+03	3.235935E-03	2.555969E-04
5.426602E+03	3.206068E-03	2.531456E-04
5.436505E+03	3.175159E-03	2.506135E-04
5.446407E+03	3.143435E-03	2.480189E-04
5.456310E+03	3.111135E-03	2.453803E-04
5.466212E+03	3.078494E-03	2.427167E-04
5.476115E+03	3.045690E-03	2.400418E-04
5.486018E+03	3.013019E-03	2.373792E-04
5.495920E+03	2.980649E-03	2.347420E-04
5.505823E+03	2.948769E-03	2.321450E-04
5.515725E+03	2.917618E-03	2.296070E-04
5.525628E+03	2.887330E-03	2.271386E-04
5.535530E+03	2.858086E-03	2.247538E-04
5.545433E+03	2.830049E-03	2.224653E-04
5.555335E+03	2.803334E-03	2.202822E-04
5.565238E+03	2.778071E-03	2.182145E-04
5.575141E+03	2.754341E-03	2.162683E-04
5.585043E+03	2.732208E-03	2.144487E-04
5.594946E+03	2.711746E-03	2.127614E-04
5.604848E+03	2.692959E-03	2.112064E-04
5.614751E+03	2.675942E-03	2.097910E-04
5.624653E+03	2.660637E-03	2.085106E-04
5.634556E+03	2.647085E-03	2.073681E-04
5.644459E+03	2.635252E-03	2.063609E-04
5.654361E+03	2.625071E-03	2.054835E-04
5.664264E+03	2.616542E-03	2.047356E-04
5.674166E+03	2.609576E-03	2.041104E-04
5.684069E+03	2.604128E-03	2.036040E-04
5.693971E+03	2.600121E-03	2.032103E-04
5.703874E+03	2.597498E-03	2.029249E-04
5.713776E+03	2.596145E-03	2.027384E-04
5.723679E+03	2.596025E-03	2.026481E-04
5.733582E+03	2.596991E-03	2.026423E-04
5.743484E+03	2.598979E-03	2.027160E-04
5.753387E+03	2.601925E-03	2.028640E-04
5.763289E+03	2.605738E-03	2.030792E-04
5.773192E+03	2.610305E-03	2.033526E-04
5.783094E+03	2.615567E-03	2.036797E-04
5.792997E+03	2.621475E-03	2.040566E-04
5.802899E+03	2.627896E-03	2.044728E-04
5.812802E+03	2.634790E-03	2.049252E-04
5.822705E+03	2.642121E-03	2.054109E-04
5.832607E+03	2.649772E-03	2.059210E-04
5.842510E+03	2.657750E-03	2.064557E-04
5.852412E+03	2.666009E-03	2.070117E-04
5.862315E+03	2.674451E-03	2.075811E-04
5.872217E+03	2.683068E-03	2.081635E-04
5.882120E+03	2.691867E-03	2.087593E-04
5.892022E+03	2.700764E-03	2.093620E-04
5.901925E+03	2.709773E-03	2.099727E-04
5.911828E+03	2.718885E-03	2.105908E-04
5.921730E+03	2.728065E-03	2.112135E-04
5.931633E+03	2.737314E-03	2.118408E-04
5.941535E+03	2.746641E-03	2.124736E-04
5.951438E+03	2.756024E-03	2.131100E-04
5.961340E+03	2.765515E-03	2.137542E-04
5.971243E+03	2.775104E-03	2.144053E-04
5.981146E+03	2.784821E-03	2.150657E-04
5.991048E+03	2.794631E-03	2.157328E-04
6.000951E+03	2.804641E-03	2.164146E-04
6.010853E+03	2.814794E-03	2.171069E-04
6.020756E+03	2.825205E-03	2.178185E-04
6.030658E+03	2.835824E-03	2.185457E-04
6.040561E+03	2.846777E-03	2.192979E-04
6.050463E+03	2.858021E-03	2.200720E-04
6.060366E+03	2.869653E-03	2.208754E-04
6.070269E+03	2.881738E-03	2.217132E-04
6.080171E+03	2.894312E-03	2.225879E-04
6.090074E+03	2.907403E-03	2.235018E-04
6.099976E+03	2.921109E-03	2.244625E-04
6.109879E+03	2.935487E-03	2.254741E-04
6.119781E+03	2.950578E-03	2.265399E-04
6.129684E+03	2.966404E-03	2.276615E-04
6.139586E+03	2.983041E-03	2.288446E-04
6.149489E+03	3.000503E-03	2.300904E-04
6.159392E+03	3.018666E-03	2.313892E-04
6.169294E+03	3.037544E-03	2.327420E-04
6.179197E+03	3.057019E-03	2.341400E-04
6.189099E+03	3.077007E-03	2.355764E-04
6.199002E+03	3.097498E-03	2.370505E-04
6.208904E+03	3.118400E-03	2.385552E-04
6.218807E+03	3.139664E-03	2.400867E-04
6.228709E+03	3.161199E-03	2.416381E-04
6.238612E+03	3.182917E-03	2.432024E-04
6.248515E+03	3.204855E-03	2.447825E-04
6.258417E+03	3.226847E-03	2.463658E-04
6.268320E+03	3.248896E-03	2.479523E-04
6.278222E+03	3.270878E-03	2.495327E-04
6.288125E+03	3.292806E-03	2.511079E-04
6.298027E+03	3.314561E-03	2.526688E-04
6.307930E+03	3.336120E-03	2.542137E-04
6.317833E+03	3.357459E-03	2.557408E-04
6.327735E+03	3.378422E-03	2.572381E-04
6.337638E+03	3.399039E-03	2.587081E-04
6.347540E+03	3.419253E-03	2.601462E-04
6.357443E+03	3.439008E-03	2.615484E-04
6.367345E+03	3.458301E-03	2.629143E-04
6.377248E+03	3.477134E-03	2.642443E-04
6.387150E+03	3.495514E-03	2.655388E-04
6.397053E+03	3.513403E-03	2.667950E-04
6.406956E+03	3.530763E-03	2.680099E-04
6.416858E+03	3.547611E-03	2.691851E-04
6.426761E+03	3.563813E-03	2.703102E-04
6.436663E+03	3.579444E-03	2.713911E-04
6.446566E+03	3.594483E-03	2.724261E-04
6.456468E+03	3.608905E-03	2.734134E-04
6.466371E+03	3.622692E-03	2.743518E-04
6.476273E+03	3.635827E-03	2.752399E-04
6.486176E+03	3.648355E-03	2.760811E-04
6.496079E+03	3.660204E-03	2.768703E-04
6.505981E+03	3.671426E-03	2.776112E-04
6.515884E+03	3.682015E-03	2.783034E-04
6.525786E+03	3.691907E-03	2.789422E-04
6.535689E+03	3.701157E-03	2.795318E-04
6.545591E+03	3.709766E-03	2.800723E-04
6.555494E+03	3.717734E-03	2.805638E-04
6.565396E+03	3.725063E-03	2.810064E-04
6.575299E+03	3.731757E-03	2.814006E-04
6.585202E+03	3.737820E-03	2.817465E-04
6.595104E+03	3.743192E-03	2.820399E-04
6.605007E+03	3.747942E-03	2.822859E-04
6.614909E+03	3.752011E-03	2.824802E-04
6.624812E+03	3.755466E-03	2.826279E-04
6.634714E+03	3.758317E-03	2.827297E-04
6.644617E+03	3.760501E-03	2.827811E-04
6.654520E+03	3.762027E-03	2.827826E-04
6.664422E+03	3.762962E-03	2.827394E-04
6.674325E+03	3.763181E-03	2.826423E-04
6.684227E+03	3.762823E-03	2.825016E-04
6.694130E+03	3.761824E-03	2.823126E-04
6.704032E+03	3.760124E-03	2.820710E-04
6.713935E+03	3.757795E-03	2.817822E-04
6.723837E+03	3.754843E-03	2.814466E-04
6.733740E+03	3.751205E-03	2.810597E-04
6.743643E+03	3.746956E-03	2.806270E-04
6.753545E+03	3.742032E-03	2.801440E-04
6.763448E+03	3.736510E-03	2.796165E-04
6.773350E+03	3.730261E-03	2.790348E-04
6.783253E+03	3.723429E-03	2.784097E-04
6.793155E+03	3.715886E-03	2.777319E-04
6.803058E+03	3.707781E-03	2.770124E-04
6.812960E+03	3.698985E-03	2.762418E-04
6.822863E+03	3.689579E-03	2.754262E-04
6.832766E+03	3.679505E-03	2.745613E-04
6.842668E+03	3.668850E-03	2.736537E-04
6.852571E+03	3.657555E-03	2.726990E-04
6.862473E+03	3.645709E-03	2.717039E-04
6.872376E+03	3.633186E-03	2.706593E-04
6.882278E+03	3.620145E-03	2.695769E-04
6.892181E+03	3.606536E-03	2.684531E-04
6.902083E+03	3.592308E-03	2.672842E-04
6.911986E+03	3.577622E-03	2.660822E-04
6.921889E+03	3.562360E-03	2.648384E-04
6.931791E+03	3.546615E-03	2.635599E-04
6.941694E+03	3.530343E-03	2.622434E-04
6.951596E+03	3.513635E-03	2.608958E-04
6.961499E+03	3.496450E-03	2.595140E-04
6.971401E+03	3.478883E-03	2.581052E-04
6.981304E+03	3.460825E-03	2.566613E-04
6.991207E+03	3.442440E-03	2.551946E-04
7.001109E+03	3.423621E-03	2.536972E-04
7.011012E+03	3.404534E-03	2.521815E-04
7.020914E+03	3.385074E-03	2.506397E-04
7.030817E+03	3.365340E-03	2.490792E-04
7.040719E+03	3.345294E-03	2.474972E-04
7.050622E+03	3.325038E-03	2.459014E-04
7.060524E+03	3.304602E-03	2.442940E-04
7.070427E+03	3.283884E-03	2.426676E-04
7.080330E+03	3.263053E-03	2.410345E-04
7.090232E+03	3.242138E-03	2.393970E-04
7.100135E+03	3.221040E-03	2.377479E-04
7.110037E+03	3.199855E-03	2.360942E-04
7.119940E+03	3.178618E-03	2.344386E-04
7.129842E+03	3.157293E-03	2.327784E-04
7.139745E+03	3.136040E-03	2.311254E-04
7.149647E+03	3.114759E-03	2.294724E-04
7.159550E+03	3.093479E-03	2.278214E-04
7.169453E+03	3.072293E-03	2.261793E-04
7.179355E+03	3.051100E-03	2.245387E-04
7.189258E+03	3.030055E-03	2.229111E-04
7.199160E+03	3.009120E-03	2.212935E-04
7.209063E+03	2.988321E-03	2.196880E-04
7.218965E+03	2.967620E-03	2.180918E-04
7.228868E+03	2.947043E-03	2.165068E-04
7.238770E+03	2.926677E-03	2.149393E-04
7.248673E+03	2.906485E-03	2.133867E-04
7.258576E+03	2.886432E-03	2.118464E-04
7.268478E+03	2.866544E-03	2.103204E-04
7.278381E+03	2.846852E-03	2.088108E-04
7.288283E+03	2.827383E-03	2.073197E-04
7.298186E+03	2.808108E-03	2.058449E-04
7.308088E+03	2.789002E-03	2.043847E-04
7.317991E+03	2.770099E-03	2.029414E-04
7.327894E+03	2.751321E-03	2.015095E-04
7.337796E+03	2.732825E-03	2.001003E-04
7.347699E+03	2.714478E-03	1.987042E-04
7.357601E+03	2.696326E-03	1.973245E-04
7.367504E+03	2.678474E-03	1.959689E-04
7.377406E+03	2.661029E-03	1.946453E-04
7.387309E+03	2.643979E-03	1.933526E-04
7.397211E+03	2.627489E-03	1.921030E-04
7.407114E+03	2.611599E-03	1.908994E-04
7.417017E+03	2.596464E-03	1.897529E-04
7.426919E+03	2.582056E-03	1.886614E-04
7.436822E+03	2.568505E-03	1.876344E-04
7.446724E+03	2.555814E-03	1.866720E-04
7.456627E+03	2.543973E-03	1.857733E-04
7.466529E+03	2.533013E-03	1.849406E-04
7.476432E+03	2.522849E-03	1.841676E-04
7.486334E+03	2.513556E-03	1.834596E-04
7.496237E+03	2.505043E-03	1.828100E-04
7.506140E+03	2.497270E-03	1.822159E-04
7.516042E+03	2.490258E-03	1.816786E-04
7.525945E+03	2.483973E-03	1.811957E-04
7.535847E+03	2.478384E-03	1.807648E-04
7.545750E+03	2.473402E-03	1.803794E-04
7.555652E+03	2.469113E-03	1.800458E-04
7.565555E+03	2.465378E-03	1.797537E-04
7.575457E+03	2.462284E-03	1.795094E-04
7.585360E+03	2.459694E-03	1.793030E-04
7.595263E+03	2.457700E-03	1.791411E-04
7.605165E+03	2.456168E-03	1.790139E-04
7.615068E+03	2.455191E-03	1.789281E-04
7.624970E+03	2.454691E-03	1.788782E-04
7.634873E+03	2.454650E-03	1.788626E-04
7.644775E+03	2.454990E-03	1.788758E-04
7.654678E+03	2.455811E-03	1.789250E-04
7.664581E+03	2.457034E-03	1.790043E-04
7.674483E+03	2.458643E-03	1.791127E-04
7.684386E+03	2.460562E-03	1.792445E-04
