#wls	flux	fluxerr
1.584409E+03	2.979391E-03	3.844887E-04
1.624020E+03	3.083463E-03	3.979059E-04
1.663630E+03	3.184941E-03	4.109871E-04
1.703240E+03	3.282790E-03	4.235989E-04
1.742850E+03	3.376218E-03	4.356388E-04
1.782461E+03	3.463998E-03	4.469488E-04
1.822071E+03	3.545151E-03	4.574024E-04
1.861681E+03	3.618613E-03	4.668626E-04
1.901291E+03	3.682933E-03	4.751421E-04
1.940902E+03	3.736944E-03	4.820905E-04
1.980512E+03	3.779461E-03	4.875551E-04
2.020122E+03	3.809300E-03	4.913832E-04
2.059732E+03	3.825038E-03	4.933917E-04
2.099342E+03	3.825651E-03	4.934483E-04
2.138953E+03	3.809720E-03	4.913708E-04
2.178563E+03	3.776105E-03	4.870120E-04
2.218173E+03	3.723059E-03	4.801471E-04
2.257783E+03	3.649445E-03	4.706298E-04
2.297394E+03	3.557024E-03	4.586876E-04
2.337004E+03	3.448346E-03	4.446498E-04
2.376614E+03	3.325402E-03	4.287736E-04
2.416224E+03	3.189773E-03	4.112628E-04
2.455835E+03	3.042919E-03	3.923063E-04
2.495445E+03	2.886522E-03	3.721211E-04
2.535055E+03	2.722073E-03	3.508998E-04
2.574665E+03	2.551416E-03	3.288804E-04
2.614276E+03	2.376241E-03	3.062808E-04
2.653886E+03	2.198181E-03	2.833117E-04
2.693496E+03	2.019164E-03	2.602219E-04
2.733106E+03	1.840958E-03	2.372391E-04
2.772716E+03	1.665344E-03	2.145933E-04
2.812327E+03	1.494042E-03	1.925057E-04
2.851937E+03	1.328764E-03	1.711972E-04
2.891547E+03	1.171310E-03	1.508996E-04
2.931157E+03	1.023455E-03	1.318411E-04
2.970768E+03	8.865291E-04	1.141933E-04
2.980670E+03	8.541078E-04	1.100149E-04
2.990573E+03	8.224642E-04	1.059368E-04
3.000475E+03	7.915599E-04	1.019542E-04
3.010378E+03	7.614163E-04	9.806958E-05
3.020280E+03	7.320675E-04	9.428754E-05
3.030183E+03	7.034786E-04	9.060350E-05
3.040086E+03	6.756813E-04	8.702156E-05
3.049988E+03	6.486726E-04	8.354133E-05
3.059891E+03	6.224515E-04	8.016265E-05
3.069793E+03	5.970167E-04	7.688537E-05
3.079696E+03	5.723919E-04	7.371254E-05
3.089598E+03	5.485621E-04	7.064221E-05
3.099501E+03	5.255356E-04	6.767544E-05
3.109403E+03	5.033078E-04	6.481165E-05
3.119306E+03	4.818729E-04	6.205008E-05
3.129209E+03	4.612331E-04	5.939100E-05
3.139111E+03	4.413862E-04	5.683412E-05
3.149014E+03	4.223038E-04	5.437579E-05
3.158916E+03	4.039963E-04	5.201734E-05
3.168819E+03	3.864399E-04	4.975570E-05
3.178721E+03	3.696243E-04	4.758952E-05
3.188624E+03	3.535307E-04	4.551640E-05
3.198526E+03	3.381339E-04	4.353309E-05
3.208429E+03	3.234313E-04	4.163923E-05
3.218332E+03	3.093852E-04	3.982996E-05
3.228234E+03	2.959900E-04	3.810457E-05
3.238137E+03	2.832231E-04	3.646014E-05
3.248039E+03	2.710528E-04	3.489258E-05
3.257942E+03	2.594700E-04	3.340072E-05
3.267844E+03	2.484440E-04	3.198061E-05
3.277747E+03	2.379563E-04	3.062984E-05
3.287650E+03	2.279850E-04	2.934561E-05
3.297552E+03	2.185115E-04	2.812550E-05
3.307455E+03	2.095107E-04	2.696630E-05
3.317357E+03	2.009621E-04	2.586536E-05
3.327260E+03	1.928453E-04	2.482004E-05
3.337162E+03	1.851432E-04	2.382814E-05
3.347065E+03	1.778340E-04	2.288685E-05
3.356967E+03	1.708993E-04	2.199380E-05
3.366870E+03	1.643215E-04	2.114672E-05
3.376773E+03	1.580814E-04	2.034315E-05
3.386675E+03	1.521631E-04	1.958102E-05
3.396578E+03	1.465511E-04	1.885834E-05
3.406480E+03	1.412290E-04	1.817301E-05
3.416383E+03	1.361830E-04	1.752323E-05
3.426285E+03	1.313982E-04	1.690710E-05
3.436188E+03	1.268607E-04	1.632282E-05
3.446090E+03	1.225576E-04	1.576871E-05
3.455993E+03	1.184751E-04	1.524302E-05
3.465896E+03	1.146032E-04	1.474446E-05
3.475798E+03	1.109298E-04	1.427145E-05
3.485701E+03	1.074425E-04	1.382242E-05
3.495603E+03	1.041290E-04	1.339576E-05
3.505506E+03	1.009809E-04	1.299040E-05
3.515408E+03	9.798732E-05	1.260494E-05
3.525311E+03	9.513648E-05	1.223787E-05
3.535213E+03	9.242033E-05	1.188813E-05
3.545116E+03	8.983054E-05	1.155467E-05
3.555019E+03	8.735847E-05	1.123636E-05
3.564921E+03	8.499541E-05	1.093210E-05
3.574824E+03	8.273651E-05	1.064124E-05
3.584726E+03	8.057552E-05	1.036300E-05
3.594629E+03	7.850664E-05	1.009661E-05
3.604531E+03	7.652788E-05	9.841829E-06
3.614434E+03	7.463501E-05	9.598106E-06
3.624337E+03	7.282465E-05	9.365007E-06
3.634239E+03	7.109400E-05	9.142171E-06
3.644142E+03	6.944035E-05	8.929247E-06
3.654044E+03	6.786026E-05	8.725795E-06
3.663947E+03	6.635219E-05	8.531613E-06
3.673849E+03	6.491219E-05	8.346194E-06
3.683752E+03	6.353812E-05	8.169261E-06
3.693654E+03	6.222831E-05	8.000601E-06
3.703557E+03	6.097857E-05	7.839672E-06
3.713460E+03	5.978829E-05	7.686396E-06
3.723362E+03	5.865348E-05	7.540260E-06
3.733265E+03	5.757310E-05	7.401129E-06
3.743167E+03	5.654475E-05	7.268693E-06
3.753070E+03	5.556610E-05	7.142654E-06
3.762972E+03	5.463539E-05	7.022783E-06
3.772875E+03	5.375044E-05	6.908801E-06
3.782777E+03	5.290963E-05	6.800498E-06
3.792680E+03	5.211142E-05	6.697677E-06
3.802583E+03	5.135388E-05	6.600088E-06
3.812485E+03	5.063566E-05	6.507557E-06
3.822388E+03	4.995539E-05	6.419909E-06
3.832290E+03	4.931144E-05	6.336933E-06
3.842193E+03	4.870262E-05	6.258475E-06
3.852095E+03	4.812778E-05	6.184388E-06
3.861998E+03	4.758547E-05	6.114486E-06
3.871900E+03	4.707468E-05	6.048635E-06
3.881803E+03	4.659406E-05	5.986666E-06
3.891706E+03	4.614301E-05	5.928499E-06
3.901608E+03	4.572029E-05	5.873974E-06
3.911511E+03	4.532501E-05	5.822977E-06
3.921413E+03	4.495563E-05	5.775309E-06
3.931316E+03	4.461201E-05	5.730954E-06
3.941218E+03	4.429269E-05	5.689721E-06
3.951121E+03	4.399693E-05	5.651517E-06
3.961024E+03	4.372363E-05	5.616199E-06
3.970926E+03	4.347244E-05	5.583723E-06
3.980829E+03	4.324203E-05	5.553917E-06
3.990731E+03	4.303209E-05	5.526741E-06
4.000634E+03	4.284134E-05	5.502029E-06
4.010536E+03	4.266953E-05	5.479752E-06
4.020439E+03	4.251545E-05	5.459750E-06
4.030341E+03	4.237857E-05	5.441959E-06
4.040244E+03	4.225841E-05	5.426313E-06
4.050147E+03	4.215447E-05	5.412751E-06
4.060049E+03	4.206565E-05	5.401130E-06
4.069952E+03	4.199156E-05	5.391399E-06
4.079854E+03	4.193145E-05	5.383464E-06
4.089757E+03	4.188497E-05	5.377277E-06
4.099659E+03	4.185177E-05	5.372794E-06
4.109562E+03	4.183086E-05	5.369888E-06
4.119464E+03	4.182228E-05	5.368564E-06
4.129367E+03	4.182509E-05	5.368699E-06
4.139270E+03	4.183906E-05	5.370266E-06
4.149172E+03	4.186390E-05	5.373228E-06
4.159075E+03	4.189882E-05	5.377481E-06
4.168977E+03	4.194357E-05	5.382993E-06
4.178880E+03	4.199768E-05	5.389706E-06
4.188782E+03	4.206130E-05	5.397637E-06
4.198685E+03	4.213336E-05	5.406648E-06
4.208587E+03	4.221404E-05	5.416763E-06
4.218490E+03	4.230259E-05	5.427886E-06
4.228393E+03	4.239926E-05	5.440048E-06
4.238295E+03	4.250299E-05	5.453113E-06
4.248198E+03	4.261371E-05	5.467072E-06
4.258100E+03	4.273138E-05	5.481921E-06
4.268003E+03	4.285496E-05	5.497524E-06
4.277905E+03	4.298474E-05	5.513921E-06
4.287808E+03	4.311933E-05	5.530931E-06
4.297711E+03	4.325905E-05	5.548595E-06
4.307613E+03	4.340210E-05	5.566684E-06
4.317516E+03	4.354846E-05	5.585194E-06
4.327418E+03	4.369911E-05	5.604251E-06
4.337321E+03	4.385400E-05	5.623848E-06
4.347223E+03	4.401346E-05	5.644027E-06
4.357126E+03	4.417745E-05	5.664784E-06
4.367028E+03	4.434531E-05	5.686034E-06
4.376931E+03	4.451774E-05	5.707866E-06
4.386834E+03	4.469405E-05	5.730190E-06
4.396736E+03	4.487424E-05	5.753010E-06
4.406639E+03	4.505805E-05	5.776289E-06
4.416541E+03	4.524550E-05	5.800030E-06
4.426444E+03	4.543591E-05	5.824147E-06
4.436346E+03	4.562975E-05	5.848699E-06
4.446249E+03	4.582637E-05	5.873604E-06
4.456151E+03	4.602552E-05	5.898828E-06
4.466054E+03	4.622773E-05	5.924440E-06
4.475957E+03	4.643206E-05	5.950319E-06
4.485859E+03	4.663871E-05	5.976491E-06
4.495762E+03	4.684792E-05	6.002986E-06
4.505664E+03	4.705926E-05	6.029751E-06
4.515567E+03	4.727307E-05	6.056827E-06
4.525469E+03	4.748892E-05	6.084158E-06
4.535372E+03	4.770723E-05	6.111800E-06
4.545274E+03	4.792802E-05	6.139756E-06
4.555177E+03	4.815138E-05	6.168035E-06
4.565080E+03	4.837697E-05	6.196594E-06
4.574982E+03	4.860566E-05	6.225546E-06
4.584885E+03	4.883670E-05	6.254793E-06
4.594787E+03	4.907061E-05	6.284403E-06
4.604690E+03	4.930744E-05	6.314381E-06
4.614592E+03	4.954687E-05	6.344687E-06
4.624495E+03	4.978981E-05	6.375436E-06
4.634398E+03	5.003550E-05	6.406532E-06
4.644300E+03	5.028441E-05	6.438034E-06
4.654203E+03	5.053756E-05	6.470073E-06
4.664105E+03	5.079457E-05	6.502602E-06
4.674008E+03	5.105603E-05	6.535693E-06
4.683910E+03	5.132246E-05	6.569413E-06
4.693813E+03	5.159401E-05	6.603785E-06
4.703715E+03	5.187083E-05	6.638822E-06
4.713618E+03	5.215393E-05	6.674658E-06
4.723521E+03	5.244258E-05	6.711197E-06
4.733423E+03	5.273782E-05	6.748573E-06
4.743326E+03	5.303983E-05	6.786807E-06
4.753228E+03	5.334827E-05	6.825858E-06
4.763131E+03	5.366431E-05	6.865874E-06
4.773033E+03	5.398765E-05	6.906815E-06
4.782936E+03	5.431846E-05	6.948705E-06
4.792838E+03	5.465700E-05	6.991576E-06
4.802741E+03	5.500349E-05	7.035455E-06
4.812644E+03	5.535918E-05	7.080504E-06
4.822546E+03	5.572285E-05	7.126563E-06
4.832449E+03	5.609574E-05	7.173795E-06
4.842351E+03	5.647770E-05	7.222176E-06
4.852254E+03	5.686951E-05	7.271809E-06
4.862156E+03	5.727093E-05	7.322661E-06
4.872059E+03	5.768230E-05	7.374776E-06
4.881961E+03	5.810442E-05	7.428255E-06
4.891864E+03	5.853654E-05	7.483001E-06
4.901767E+03	5.897948E-05	7.539122E-06
4.911669E+03	5.943352E-05	7.596650E-06
4.921572E+03	5.989893E-05	7.655620E-06
4.931474E+03	6.037543E-05	7.715998E-06
4.941377E+03	6.086325E-05	7.777810E-06
4.951279E+03	6.136318E-05	7.841159E-06
4.961182E+03	6.187433E-05	7.905928E-06
4.971085E+03	6.239803E-05	7.972289E-06
4.980987E+03	6.293331E-05	8.040117E-06
4.990890E+03	6.348034E-05	8.109432E-06
5.000792E+03	6.403986E-05	8.180332E-06
5.010695E+03	6.461142E-05	8.252754E-06
5.020597E+03	6.519516E-05	8.326719E-06
5.030500E+03	6.579056E-05	8.402157E-06
5.040402E+03	6.639830E-05	8.479158E-06
5.050305E+03	6.701849E-05	8.557734E-06
5.060208E+03	6.764988E-05	8.637724E-06
5.070110E+03	6.829319E-05	8.719221E-06
5.080013E+03	6.894841E-05	8.802223E-06
5.089915E+03	6.961558E-05	8.886735E-06
5.099818E+03	7.029410E-05	8.972677E-06
5.109720E+03	7.098397E-05	9.060052E-06
5.119623E+03	7.168457E-05	9.148779E-06
5.129525E+03	7.239730E-05	9.239036E-06
5.139428E+03	7.312085E-05	9.330657E-06
5.149331E+03	7.385531E-05	9.423651E-06
5.159233E+03	7.460073E-05	9.518024E-06
5.169136E+03	7.535791E-05	9.613879E-06
5.179038E+03	7.612546E-05	9.711037E-06
5.188941E+03	7.690341E-05	9.809503E-06
5.198843E+03	7.769329E-05	9.909469E-06
5.208746E+03	7.849284E-05	1.001065E-05
5.218648E+03	7.930354E-05	1.011323E-05
5.228551E+03	8.012459E-05	1.021711E-05
5.238454E+03	8.095588E-05	1.032227E-05
5.248356E+03	8.179816E-05	1.042881E-05
5.258259E+03	8.264961E-05	1.053650E-05
5.268161E+03	8.351090E-05	1.064542E-05
5.278064E+03	8.438181E-05	1.075555E-05
5.287966E+03	8.526209E-05	1.086684E-05
5.297869E+03	8.615231E-05	1.097938E-05
5.307772E+03	8.705040E-05	1.109289E-05
5.317674E+03	8.795682E-05	1.120744E-05
5.327577E+03	8.887104E-05	1.132296E-05
5.337479E+03	8.979163E-05	1.143927E-05
5.347382E+03	9.071969E-05	1.155651E-05
5.357284E+03	9.165359E-05	1.167446E-05
5.367187E+03	9.259162E-05	1.179291E-05
5.377089E+03	9.353287E-05	1.191174E-05
5.386992E+03	9.447729E-05	1.203095E-05
5.396895E+03	9.542194E-05	1.215016E-05
5.406797E+03	9.636666E-05	1.226936E-05
5.416700E+03	9.731026E-05	1.238838E-05
5.426602E+03	9.824956E-05	1.250683E-05
5.436505E+03	9.918315E-05	1.262452E-05
5.446407E+03	1.001106E-04	1.274140E-05
5.456310E+03	1.010293E-04	1.285715E-05
5.466212E+03	1.019366E-04	1.297141E-05
5.476115E+03	1.028297E-04	1.308384E-05
5.486018E+03	1.037087E-04	1.319446E-05
5.495920E+03	1.045687E-04	1.330262E-05
5.505823E+03	1.054085E-04	1.340818E-05
5.515725E+03	1.062250E-04	1.351075E-05
5.525628E+03	1.070158E-04	1.361004E-05
5.535530E+03	1.077788E-04	1.370575E-05
5.545433E+03	1.085104E-04	1.379746E-05
5.555335E+03	1.092095E-04	1.388500E-05
5.565238E+03	1.098724E-04	1.396792E-05
5.575141E+03	1.104958E-04	1.404579E-05
5.585043E+03	1.110795E-04	1.411859E-05
5.594946E+03	1.116201E-04	1.418590E-05
5.604848E+03	1.121144E-04	1.424730E-05
5.614751E+03	1.125616E-04	1.430269E-05
5.624653E+03	1.129610E-04	1.435199E-05
5.634556E+03	1.133088E-04	1.439471E-05
5.644459E+03	1.136046E-04	1.443082E-05
5.654361E+03	1.138485E-04	1.446032E-05
5.664264E+03	1.140383E-04	1.448294E-05
5.674166E+03	1.141746E-04	1.449874E-05
5.684069E+03	1.142555E-04	1.450750E-05
5.693971E+03	1.142818E-04	1.450933E-05
5.703874E+03	1.142535E-04	1.450420E-05
5.713776E+03	1.141716E-04	1.449227E-05
5.723679E+03	1.140340E-04	1.447326E-05
5.733582E+03	1.138445E-04	1.444767E-05
5.743484E+03	1.136012E-04	1.441524E-05
5.753387E+03	1.133059E-04	1.437621E-05
5.763289E+03	1.129593E-04	1.433068E-05
5.773192E+03	1.125625E-04	1.427877E-05
5.783094E+03	1.121177E-04	1.422079E-05
5.792997E+03	1.116264E-04	1.415691E-05
5.802899E+03	1.110900E-04	1.408732E-05
5.812802E+03	1.105092E-04	1.401210E-05
5.822705E+03	1.098883E-04	1.393181E-05
5.832607E+03	1.092282E-04	1.384657E-05
5.842510E+03	1.085326E-04	1.375682E-05
5.852412E+03	1.078025E-04	1.366273E-05
5.862315E+03	1.070418E-04	1.356476E-05
5.872217E+03	1.062529E-04	1.346324E-05
5.882120E+03	1.054384E-04	1.335849E-05
5.892022E+03	1.046008E-04	1.325083E-05
5.901925E+03	1.037424E-04	1.314056E-05
5.911828E+03	1.028669E-04	1.302814E-05
5.921730E+03	1.019743E-04	1.291356E-05
5.931633E+03	1.010689E-04	1.279739E-05
5.941535E+03	1.001519E-04	1.267977E-05
5.951438E+03	9.922527E-05	1.256095E-05
5.961340E+03	9.829210E-05	1.244132E-05
5.971243E+03	9.735194E-05	1.232083E-05
5.981146E+03	9.640890E-05	1.219999E-05
5.991048E+03	9.546232E-05	1.207873E-05
6.000951E+03	9.451498E-05	1.195740E-05
6.010853E+03	9.356837E-05	1.183618E-05
6.020756E+03	9.262280E-05	1.171512E-05
6.030658E+03	9.167958E-05	1.159437E-05
6.040561E+03	9.073998E-05	1.147411E-05
6.050463E+03	8.980518E-05	1.135447E-05
6.060366E+03	8.887628E-05	1.123561E-05
6.070269E+03	8.795430E-05	1.111764E-05
6.080171E+03	8.704018E-05	1.100069E-05
6.090074E+03	8.613477E-05	1.088486E-05
6.099976E+03	8.523999E-05	1.077040E-05
6.109879E+03	8.435760E-05	1.065753E-05
6.119781E+03	8.348934E-05	1.054646E-05
6.129684E+03	8.263575E-05	1.043727E-05
6.139586E+03	8.179733E-05	1.033002E-05
6.149489E+03	8.097347E-05	1.022463E-05
6.159392E+03	8.016459E-05	1.012115E-05
6.169294E+03	7.937103E-05	1.001962E-05
6.179197E+03	7.859205E-05	9.919959E-06
6.189099E+03	7.782900E-05	9.822327E-06
6.199002E+03	7.708418E-05	9.727014E-06
6.208904E+03	7.635670E-05	9.633909E-06
6.218807E+03	7.564775E-05	9.543160E-06
6.228709E+03	7.495951E-05	9.455042E-06
6.238612E+03	7.429098E-05	9.369430E-06
6.248515E+03	7.364528E-05	9.286712E-06
6.258417E+03	7.302345E-05	9.207022E-06
6.268320E+03	7.242441E-05	9.130220E-06
6.278222E+03	7.185119E-05	9.056690E-06
6.288125E+03	7.130474E-05	8.986547E-06
6.298027E+03	7.078497E-05	8.919780E-06
6.307930E+03	7.029283E-05	8.856508E-06
6.317833E+03	6.983127E-05	8.797101E-06
6.327735E+03	6.939918E-05	8.741416E-06
6.337638E+03	6.899750E-05	8.689572E-06
6.347540E+03	6.862820E-05	8.641814E-06
6.357443E+03	6.828810E-05	8.597742E-06
6.367345E+03	6.797517E-05	8.557096E-06
6.377248E+03	6.768829E-05	8.519736E-06
6.387150E+03	6.742643E-05	8.485530E-06
6.397053E+03	6.718747E-05	8.454211E-06
6.406956E+03	6.697139E-05	8.425773E-06
6.416858E+03	6.677711E-05	8.400081E-06
6.426761E+03	6.660459E-05	8.377127E-06
6.436663E+03	6.645279E-05	8.356782E-06
6.446566E+03	6.632165E-05	8.339034E-06
6.456468E+03	6.621114E-05	8.323880E-06
6.466371E+03	6.612021E-05	8.311186E-06
6.476273E+03	6.604986E-05	8.301077E-06
6.486176E+03	6.600006E-05	8.293548E-06
6.496079E+03	6.596974E-05	8.288464E-06
6.505981E+03	6.595994E-05	8.285954E-06
6.515884E+03	6.596961E-05	8.285884E-06
6.525786E+03	6.599869E-05	8.288248E-06
6.535689E+03	6.604831E-05	8.293183E-06
6.545591E+03	6.611624E-05	8.300411E-06
6.555494E+03	6.620578E-05	8.310344E-06
6.565396E+03	6.631365E-05	8.322568E-06
6.575299E+03	6.644206E-05	8.337362E-06
6.585202E+03	6.658992E-05	8.354585E-06
6.595104E+03	6.675725E-05	8.374239E-06
6.605007E+03	6.694520E-05	8.396469E-06
6.614909E+03	6.715268E-05	8.421134E-06
6.624812E+03	6.737972E-05	8.448239E-06
6.634714E+03	6.762635E-05	8.477786E-06
6.644617E+03	6.789377E-05	8.509924E-06
6.654520E+03	6.817972E-05	8.544368E-06
6.664422E+03	6.848657E-05	8.581414E-06
6.674325E+03	6.881322E-05	8.620923E-06
6.684227E+03	6.915975E-05	8.662904E-06
6.694130E+03	6.952621E-05	8.707362E-06
6.704032E+03	6.991264E-05	8.754301E-06
6.713935E+03	7.032042E-05	8.803890E-06
6.723837E+03	7.074710E-05	8.855825E-06
6.733740E+03	7.119401E-05	8.910267E-06
6.743643E+03	7.166124E-05	8.967228E-06
6.753545E+03	7.214886E-05	9.026716E-06
6.763448E+03	7.265699E-05	9.088745E-06
6.773350E+03	7.318570E-05	9.153320E-06
6.783253E+03	7.373508E-05	9.220452E-06
6.793155E+03	7.430385E-05	9.289981E-06
6.803058E+03	7.489346E-05	9.362085E-06
6.812960E+03	7.550396E-05	9.436769E-06
6.822863E+03	7.613407E-05	9.513872E-06
6.832766E+03	7.678518E-05	9.593567E-06
6.842668E+03	7.745743E-05	9.675869E-06
6.852571E+03	7.814942E-05	9.760602E-06
6.862473E+03	7.886113E-05	9.847763E-06
6.872376E+03	7.959412E-05	9.937543E-06
6.882278E+03	8.034693E-05	1.002976E-05
6.892181E+03	8.111956E-05	1.012441E-05
6.902083E+03	8.191360E-05	1.022170E-05
6.911986E+03	8.272754E-05	1.032143E-05
6.921889E+03	8.356137E-05	1.042359E-05
6.931791E+03	8.441350E-05	1.052800E-05
6.941694E+03	8.528719E-05	1.063505E-05
6.951596E+03	8.618083E-05	1.074455E-05
6.961499E+03	8.709448E-05	1.085649E-05
6.971401E+03	8.802637E-05	1.097067E-05
6.981304E+03	8.897825E-05	1.108728E-05
6.991207E+03	8.994834E-05	1.120612E-05
7.001109E+03	9.094019E-05	1.132761E-05
7.011012E+03	9.194840E-05	1.145109E-05
7.020914E+03	9.297655E-05	1.157701E-05
7.030817E+03	9.402274E-05	1.170512E-05
7.040719E+03	9.508886E-05	1.183565E-05
7.050622E+03	9.617099E-05	1.196813E-05
7.060524E+03	9.727292E-05	1.210301E-05
7.070427E+03	9.839066E-05	1.223980E-05
7.080330E+03	9.952607E-05	1.237874E-05
7.090232E+03	1.006790E-04	1.251980E-05
7.100135E+03	1.018495E-04	1.266298E-05
7.110037E+03	1.030352E-04	1.280799E-05
7.119940E+03	1.042359E-04	1.295480E-05
7.129842E+03	1.054537E-04	1.310367E-05
7.139745E+03	1.066861E-04	1.325431E-05
7.149647E+03	1.079353E-04	1.340696E-05
7.159550E+03	1.091964E-04	1.356102E-05
7.169453E+03	1.104738E-04	1.371706E-05
7.179355E+03	1.117650E-04	1.387473E-05
7.189258E+03	1.130697E-04	1.403401E-05
7.199160E+03	1.143876E-04	1.419487E-05
7.209063E+03	1.157184E-04	1.435726E-05
7.218965E+03	1.170619E-04	1.452115E-05
7.228868E+03	1.184202E-04	1.468682E-05
7.238770E+03	1.197878E-04	1.485357E-05
7.248673E+03	1.211725E-04	1.502236E-05
7.258576E+03	1.225712E-04	1.519282E-05
7.268478E+03	1.239808E-04	1.536457E-05
7.278381E+03	1.254096E-04	1.553861E-05
7.288283E+03	1.268515E-04	1.571422E-05
7.298186E+03	1.283152E-04	1.589244E-05
7.308088E+03	1.297976E-04	1.607290E-05
7.317991E+03	1.313016E-04	1.625597E-05
7.327894E+03	1.328304E-04	1.644203E-05
7.337796E+03	1.343842E-04	1.663110E-05
7.347699E+03	1.359695E-04	1.682400E-05
7.357601E+03	1.375900E-04	1.702117E-05
7.367504E+03	1.392432E-04	1.722229E-05
7.377406E+03	1.409294E-04	1.742742E-05
7.387309E+03	1.426493E-04	1.763663E-05
7.397211E+03	1.444000E-04	1.784956E-05
7.407114E+03	1.461783E-04	1.806581E-05
7.417017E+03	1.479810E-04	1.828498E-05
7.426919E+03	1.498079E-04	1.850707E-05
7.436822E+03	1.516557E-04	1.873163E-05
7.446724E+03	1.535202E-04	1.895817E-05
7.456627E+03	1.554051E-04	1.918714E-05
7.466529E+03	1.573025E-04	1.941755E-05
7.476432E+03	1.592119E-04	1.964935E-05
7.486334E+03	1.611328E-04	1.988247E-05
7.496237E+03	1.630647E-04	2.011685E-05
7.506140E+03	1.650070E-04	2.035243E-05
7.516042E+03	1.669551E-04	2.058862E-05
7.525945E+03	1.689083E-04	2.082534E-05
7.535847E+03	1.708699E-04	2.106302E-05
7.545750E+03	1.728351E-04	2.130102E-05
7.555652E+03	1.748072E-04	2.153979E-05
7.565555E+03	1.767765E-04	2.177812E-05
7.575457E+03	1.787508E-04	2.201697E-05
7.585360E+03	1.807246E-04	2.225567E-05
7.595263E+03	1.826966E-04	2.249404E-05
7.605165E+03	1.846655E-04	2.273194E-05
7.615068E+03	1.866347E-04	2.296978E-05
7.624970E+03	1.885980E-04	2.320680E-05
7.634873E+03	1.905538E-04	2.344281E-05
7.644775E+03	1.925055E-04	2.367823E-05
7.654678E+03	1.944515E-04	2.391286E-05
7.664581E+03	1.963852E-04	2.414587E-05
7.674483E+03	1.983098E-04	2.437768E-05
7.684386E+03	2.002236E-04	2.460808E-05
