#wls	flux	fluxerr
1.584409E+03	2.195932E-03	8.027983E-05
1.624020E+03	2.269477E-03	8.296650E-05
1.663630E+03	2.340884E-03	8.557487E-05
1.703240E+03	2.409096E-03	8.806626E-05
1.742850E+03	2.473911E-03	9.043328E-05
1.782461E+03	2.534142E-03	9.263260E-05
1.822071E+03	2.589009E-03	9.463567E-05
1.861681E+03	2.638123E-03	9.642829E-05
1.901291E+03	2.680179E-03	9.796276E-05
1.940902E+03	2.714518E-03	9.921505E-05
1.980512E+03	2.740065E-03	1.001459E-04
2.020122E+03	2.756206E-03	1.007328E-04
2.059732E+03	2.761608E-03	1.009272E-04
2.099342E+03	2.755322E-03	1.006944E-04
2.138953E+03	2.736426E-03	1.000007E-04
2.178563E+03	2.703480E-03	9.879353E-05
2.218173E+03	2.655395E-03	9.703320E-05
2.257783E+03	2.592215E-03	9.472132E-05
2.297394E+03	2.514930E-03	9.189416E-05
2.337004E+03	2.426117E-03	8.864595E-05
2.376614E+03	2.327919E-03	8.505498E-05
2.416224E+03	2.222220E-03	8.119019E-05
2.455835E+03	2.110971E-03	7.712283E-05
2.495445E+03	1.995415E-03	7.289841E-05
2.535055E+03	1.876958E-03	6.856826E-05
2.574665E+03	1.756798E-03	6.417619E-05
2.614276E+03	1.636178E-03	5.976763E-05
2.653886E+03	1.516118E-03	5.537981E-05
2.693496E+03	1.397636E-03	5.104996E-05
2.733106E+03	1.281680E-03	4.681267E-05
2.772716E+03	1.169123E-03	4.269984E-05
2.812327E+03	1.060786E-03	3.874143E-05
2.851937E+03	9.574536E-04	3.496613E-05
2.891547E+03	8.598152E-04	3.139906E-05
2.931157E+03	7.684549E-04	2.806152E-05
2.970768E+03	6.837877E-04	2.496867E-05
2.980670E+03	6.637154E-04	2.423546E-05
2.990573E+03	6.440630E-04	2.351760E-05
3.000475E+03	6.248574E-04	2.281606E-05
3.010378E+03	6.060817E-04	2.213025E-05
3.020280E+03	5.877465E-04	2.146052E-05
3.030183E+03	5.698596E-04	2.080718E-05
3.040086E+03	5.523926E-04	2.016919E-05
3.049988E+03	5.353763E-04	1.954767E-05
3.059891E+03	5.187832E-04	1.894161E-05
3.069793E+03	5.026298E-04	1.835162E-05
3.079696E+03	4.869005E-04	1.777713E-05
3.089598E+03	4.715915E-04	1.721799E-05
3.099501E+03	4.567170E-04	1.667473E-05
3.109403E+03	4.422543E-04	1.614651E-05
3.119306E+03	4.282253E-04	1.563414E-05
3.129209E+03	4.146007E-04	1.513655E-05
3.139111E+03	4.014000E-04	1.465444E-05
3.149014E+03	3.886035E-04	1.418710E-05
3.158916E+03	3.762206E-04	1.373487E-05
3.168819E+03	3.642388E-04	1.329730E-05
3.178721E+03	3.526594E-04	1.287442E-05
3.188624E+03	3.414761E-04	1.246601E-05
3.198526E+03	3.306829E-04	1.207185E-05
3.208429E+03	3.202687E-04	1.169154E-05
3.218332E+03	3.102377E-04	1.132522E-05
3.228234E+03	3.005777E-04	1.097246E-05
3.238137E+03	2.912866E-04	1.063317E-05
3.248039E+03	2.823519E-04	1.030689E-05
3.257942E+03	2.737660E-04	9.993362E-06
3.267844E+03	2.655248E-04	9.692418E-06
3.277747E+03	2.576157E-04	9.403605E-06
3.287650E+03	2.500337E-04	9.126738E-06
3.297552E+03	2.427696E-04	8.861481E-06
3.307455E+03	2.358075E-04	8.607253E-06
3.317357E+03	2.291453E-04	8.363974E-06
3.327260E+03	2.227707E-04	8.131204E-06
3.337162E+03	2.166746E-04	7.908601E-06
3.347065E+03	2.108485E-04	7.695858E-06
3.356967E+03	2.052778E-04	7.492444E-06
3.366870E+03	1.999598E-04	7.298255E-06
3.376773E+03	1.948837E-04	7.112899E-06
3.386675E+03	1.900384E-04	6.935972E-06
3.396578E+03	1.854165E-04	6.767207E-06
3.406480E+03	1.810103E-04	6.606314E-06
3.416383E+03	1.768082E-04	6.452873E-06
3.426285E+03	1.728053E-04	6.306706E-06
3.436188E+03	1.689910E-04	6.167427E-06
3.446090E+03	1.653589E-04	6.034798E-06
3.455993E+03	1.619013E-04	5.908542E-06
3.465896E+03	1.586107E-04	5.788386E-06
3.475798E+03	1.554803E-04	5.674076E-06
3.485701E+03	1.525034E-04	5.565371E-06
3.495603E+03	1.496721E-04	5.461984E-06
3.505506E+03	1.469793E-04	5.363650E-06
3.515408E+03	1.444195E-04	5.270173E-06
3.525311E+03	1.419862E-04	5.181318E-06
3.535213E+03	1.396749E-04	5.096913E-06
3.545116E+03	1.374782E-04	5.016694E-06
3.555019E+03	1.353922E-04	4.940513E-06
3.564921E+03	1.334116E-04	4.868183E-06
3.574824E+03	1.315342E-04	4.799621E-06
3.584726E+03	1.297540E-04	4.734605E-06
3.594629E+03	1.280677E-04	4.673018E-06
3.604531E+03	1.264687E-04	4.614617E-06
3.614434E+03	1.249542E-04	4.559304E-06
3.624337E+03	1.235206E-04	4.506941E-06
3.634239E+03	1.221643E-04	4.457399E-06
3.644142E+03	1.208830E-04	4.410596E-06
3.654044E+03	1.196745E-04	4.366450E-06
3.663947E+03	1.185356E-04	4.324843E-06
3.673849E+03	1.174652E-04	4.285738E-06
3.683752E+03	1.164602E-04	4.249021E-06
3.693654E+03	1.155207E-04	4.214693E-06
3.703557E+03	1.146446E-04	4.182680E-06
3.713460E+03	1.138298E-04	4.152906E-06
3.723362E+03	1.130755E-04	4.125335E-06
3.733265E+03	1.123814E-04	4.099964E-06
3.743167E+03	1.117456E-04	4.076720E-06
3.753070E+03	1.111680E-04	4.055600E-06
3.762972E+03	1.106466E-04	4.036532E-06
3.772875E+03	1.101804E-04	4.019479E-06
3.782777E+03	1.097695E-04	4.004441E-06
3.792680E+03	1.094138E-04	3.991417E-06
3.802583E+03	1.091113E-04	3.980336E-06
3.812485E+03	1.088631E-04	3.971235E-06
3.822388E+03	1.086663E-04	3.964011E-06
3.832290E+03	1.085228E-04	3.958730E-06
3.842193E+03	1.084299E-04	3.955294E-06
3.852095E+03	1.083892E-04	3.953766E-06
3.861998E+03	1.083991E-04	3.954079E-06
3.871900E+03	1.084594E-04	3.956232E-06
3.881803E+03	1.085691E-04	3.960190E-06
3.891706E+03	1.087282E-04	3.965949E-06
3.901608E+03	1.089358E-04	3.973475E-06
3.911511E+03	1.091926E-04	3.982795E-06
3.921413E+03	1.094967E-04	3.993843E-06
3.931316E+03	1.098481E-04	4.006615E-06
3.941218E+03	1.102458E-04	4.021074E-06
3.951121E+03	1.106905E-04	4.037250E-06
3.961024E+03	1.111814E-04	4.055107E-06
3.970926E+03	1.117173E-04	4.074607E-06
3.980829E+03	1.122973E-04	4.095717E-06
3.990731E+03	1.129223E-04	4.118464E-06
4.000634E+03	1.135903E-04	4.142782E-06
4.010536E+03	1.143022E-04	4.168701E-06
4.020439E+03	1.150563E-04	4.196155E-06
4.030341E+03	1.158524E-04	4.225145E-06
4.040244E+03	1.166907E-04	4.255670E-06
4.050147E+03	1.175703E-04	4.287701E-06
4.060049E+03	1.184903E-04	4.321207E-06
4.069952E+03	1.194499E-04	4.356157E-06
4.079854E+03	1.204503E-04	4.392590E-06
4.089757E+03	1.214895E-04	4.430442E-06
4.099659E+03	1.225679E-04	4.469719E-06
4.109562E+03	1.236835E-04	4.510356E-06
4.119464E+03	1.248366E-04	4.552359E-06
4.129367E+03	1.260275E-04	4.595735E-06
4.139270E+03	1.272541E-04	4.640420E-06
4.149172E+03	1.285169E-04	4.686420E-06
4.159075E+03	1.298140E-04	4.733671E-06
4.168977E+03	1.311457E-04	4.782179E-06
4.178880E+03	1.325100E-04	4.831880E-06
4.188782E+03	1.339073E-04	4.882781E-06
4.198685E+03	1.353356E-04	4.934813E-06
4.208587E+03	1.367942E-04	4.987948E-06
4.218490E+03	1.382810E-04	5.042113E-06
4.228393E+03	1.397963E-04	5.097314E-06
4.238295E+03	1.413380E-04	5.153477E-06
4.248198E+03	1.429051E-04	5.210565E-06
4.258100E+03	1.444953E-04	5.268498E-06
4.268003E+03	1.461065E-04	5.327191E-06
4.277905E+03	1.477372E-04	5.386598E-06
4.287808E+03	1.493862E-04	5.446668E-06
4.297711E+03	1.510507E-04	5.507305E-06
4.307613E+03	1.527291E-04	5.568450E-06
4.317516E+03	1.544187E-04	5.629998E-06
4.327418E+03	1.561187E-04	5.691927E-06
4.337321E+03	1.578273E-04	5.754170E-06
4.347223E+03	1.595466E-04	5.816799E-06
4.357126E+03	1.612745E-04	5.879744E-06
4.367028E+03	1.630118E-04	5.943032E-06
4.376931E+03	1.647581E-04	6.006644E-06
4.386834E+03	1.665155E-04	6.070660E-06
4.396736E+03	1.682822E-04	6.135019E-06
4.406639E+03	1.700579E-04	6.199703E-06
4.416541E+03	1.718437E-04	6.264753E-06
4.426444E+03	1.736393E-04	6.330163E-06
4.436346E+03	1.754447E-04	6.395927E-06
4.446249E+03	1.772581E-04	6.461984E-06
4.456151E+03	1.790809E-04	6.528382E-06
4.466054E+03	1.809116E-04	6.595067E-06
4.475957E+03	1.827500E-04	6.662032E-06
4.485859E+03	1.845959E-04	6.729273E-06
4.495762E+03	1.864463E-04	6.796678E-06
4.505664E+03	1.883026E-04	6.864296E-06
4.515567E+03	1.901637E-04	6.932085E-06
4.525469E+03	1.920292E-04	7.000039E-06
4.535372E+03	1.938961E-04	7.068042E-06
4.545274E+03	1.957665E-04	7.136173E-06
4.555177E+03	1.976373E-04	7.204315E-06
4.565080E+03	1.995105E-04	7.272550E-06
4.574982E+03	2.013835E-04	7.340772E-06
4.584885E+03	2.032568E-04	7.409007E-06
4.594787E+03	2.051294E-04	7.477216E-06
4.604690E+03	2.070042E-04	7.545506E-06
4.614592E+03	2.088785E-04	7.613777E-06
4.624495E+03	2.107557E-04	7.682151E-06
4.634398E+03	2.126351E-04	7.750605E-06
4.644300E+03	2.145163E-04	7.819127E-06
4.654203E+03	2.164029E-04	7.887843E-06
4.664105E+03	2.182930E-04	7.956688E-06
4.674008E+03	2.201883E-04	8.025722E-06
4.683910E+03	2.220871E-04	8.094884E-06
4.693813E+03	2.239913E-04	8.164241E-06
4.703715E+03	2.258972E-04	8.233660E-06
4.713618E+03	2.278069E-04	8.303219E-06
4.723521E+03	2.297187E-04	8.372851E-06
4.733423E+03	2.316351E-04	8.442654E-06
4.743326E+03	2.335539E-04	8.512543E-06
4.753228E+03	2.354757E-04	8.582541E-06
4.763131E+03	2.374004E-04	8.652644E-06
4.773033E+03	2.393285E-04	8.722868E-06
4.782936E+03	2.412599E-04	8.793215E-06
4.792838E+03	2.431924E-04	8.863604E-06
4.802741E+03	2.451287E-04	8.934128E-06
4.812644E+03	2.470688E-04	9.004792E-06
4.822546E+03	2.490108E-04	9.075523E-06
4.832449E+03	2.509547E-04	9.146322E-06
4.842351E+03	2.529029E-04	9.217279E-06
4.852254E+03	2.548509E-04	9.288230E-06
4.862156E+03	2.568038E-04	9.359359E-06
4.872059E+03	2.587592E-04	9.430579E-06
4.881961E+03	2.607143E-04	9.501786E-06
4.891864E+03	2.626716E-04	9.573074E-06
4.901767E+03	2.646308E-04	9.644428E-06
4.911669E+03	2.665886E-04	9.715734E-06
4.921572E+03	2.685469E-04	9.787058E-06
4.931474E+03	2.704995E-04	9.858174E-06
4.941377E+03	2.724509E-04	9.929242E-06
4.951279E+03	2.743968E-04	1.000011E-05
4.961182E+03	2.763331E-04	1.007063E-05
4.971085E+03	2.782608E-04	1.014084E-05
4.980987E+03	2.801752E-04	1.021056E-05
4.990890E+03	2.820741E-04	1.027972E-05
5.000792E+03	2.839551E-04	1.034822E-05
5.010695E+03	2.858159E-04	1.041599E-05
5.020597E+03	2.876505E-04	1.048280E-05
5.030500E+03	2.894585E-04	1.054864E-05
5.040402E+03	2.912343E-04	1.061331E-05
5.050305E+03	2.929742E-04	1.067667E-05
5.060208E+03	2.946719E-04	1.073850E-05
5.070110E+03	2.963268E-04	1.079876E-05
5.080013E+03	2.979295E-04	1.085712E-05
5.089915E+03	2.994824E-04	1.091366E-05
5.099818E+03	3.009764E-04	1.096806E-05
5.109720E+03	3.024108E-04	1.102029E-05
5.119623E+03	3.037797E-04	1.107013E-05
5.129525E+03	3.050763E-04	1.111733E-05
5.139428E+03	3.063007E-04	1.116190E-05
5.149331E+03	3.074461E-04	1.120360E-05
5.159233E+03	3.085093E-04	1.124229E-05
5.169136E+03	3.094865E-04	1.127786E-05
5.179038E+03	3.103714E-04	1.131006E-05
5.188941E+03	3.111598E-04	1.133874E-05
5.198843E+03	3.118452E-04	1.136367E-05
5.208746E+03	3.124267E-04	1.138482E-05
5.218648E+03	3.128969E-04	1.140191E-05
5.228551E+03	3.132520E-04	1.141480E-05
5.238454E+03	3.134879E-04	1.142335E-05
5.248356E+03	3.135975E-04	1.142730E-05
5.258259E+03	3.135766E-04	1.142650E-05
5.268161E+03	3.134216E-04	1.142080E-05
5.278064E+03	3.131287E-04	1.141009E-05
5.287966E+03	3.126919E-04	1.139412E-05
5.297869E+03	3.121110E-04	1.137291E-05
5.307772E+03	3.113840E-04	1.134638E-05
5.317674E+03	3.105092E-04	1.131446E-05
5.327577E+03	3.094825E-04	1.127700E-05
5.337479E+03	3.083105E-04	1.123426E-05
5.347382E+03	3.069910E-04	1.118613E-05
5.357284E+03	3.055324E-04	1.113294E-05
5.367187E+03	3.039354E-04	1.107471E-05
5.377089E+03	3.022073E-04	1.101170E-05
5.386992E+03	3.003544E-04	1.094414E-05
5.396895E+03	2.983899E-04	1.087252E-05
5.406797E+03	2.963189E-04	1.079702E-05
5.416700E+03	2.941483E-04	1.071788E-05
5.426602E+03	2.918828E-04	1.063530E-05
5.436505E+03	2.895345E-04	1.054969E-05
5.446407E+03	2.871101E-04	1.046131E-05
5.456310E+03	2.846206E-04	1.037056E-05
5.466212E+03	2.820776E-04	1.027787E-05
5.476115E+03	2.794929E-04	1.018365E-05
5.486018E+03	2.768791E-04	1.008838E-05
5.495920E+03	2.742512E-04	9.992590E-06
5.505823E+03	2.716221E-04	9.896759E-06
5.515725E+03	2.690093E-04	9.801521E-06
5.525628E+03	2.664222E-04	9.707222E-06
5.535530E+03	2.638805E-04	9.614578E-06
5.545433E+03	2.613920E-04	9.523874E-06
5.555335E+03	2.589722E-04	9.435672E-06
5.565238E+03	2.566351E-04	9.350485E-06
5.575141E+03	2.543855E-04	9.268483E-06
5.585043E+03	2.522399E-04	9.190277E-06
5.594946E+03	2.502038E-04	9.116055E-06
5.604848E+03	2.482806E-04	9.045953E-06
5.614751E+03	2.464831E-04	8.980427E-06
5.624653E+03	2.448097E-04	8.919423E-06
5.634556E+03	2.432659E-04	8.863141E-06
5.644459E+03	2.418557E-04	8.811729E-06
5.654361E+03	2.405798E-04	8.765211E-06
5.664264E+03	2.394382E-04	8.723587E-06
5.674166E+03	2.384305E-04	8.686838E-06
5.684069E+03	2.375581E-04	8.655019E-06
5.693971E+03	2.368221E-04	8.628174E-06
5.703874E+03	2.362168E-04	8.606087E-06
5.713776E+03	2.357485E-04	8.588993E-06
5.723679E+03	2.354115E-04	8.576682E-06
5.733582E+03	2.352106E-04	8.569331E-06
5.743484E+03	2.351436E-04	8.566856E-06
5.753387E+03	2.352130E-04	8.569354E-06
5.763289E+03	2.354200E-04	8.576862E-06
5.773192E+03	2.357680E-04	8.589507E-06
5.783094E+03	2.362553E-04	8.607229E-06
5.792997E+03	2.368832E-04	8.630070E-06
5.802899E+03	2.376556E-04	8.658177E-06
5.812802E+03	2.385759E-04	8.691672E-06
5.822705E+03	2.396402E-04	8.730414E-06
5.832607E+03	2.408548E-04	8.774629E-06
5.842510E+03	2.422182E-04	8.824268E-06
5.852412E+03	2.437336E-04	8.879442E-06
5.862315E+03	2.454021E-04	8.940192E-06
5.872217E+03	2.472213E-04	9.006434E-06
5.882120E+03	2.491940E-04	9.078265E-06
5.892022E+03	2.513201E-04	9.155685E-06
5.901925E+03	2.535961E-04	9.238565E-06
5.911828E+03	2.560267E-04	9.327078E-06
5.921730E+03	2.586047E-04	9.420959E-06
5.931633E+03	2.613308E-04	9.520235E-06
5.941535E+03	2.642030E-04	9.624831E-06
5.951438E+03	2.672147E-04	9.734509E-06
5.961340E+03	2.703656E-04	9.849258E-06
5.971243E+03	2.736449E-04	9.968686E-06
5.981146E+03	2.770541E-04	1.009284E-05
5.991048E+03	2.805809E-04	1.022128E-05
6.000951E+03	2.842223E-04	1.035390E-05
6.010853E+03	2.879674E-04	1.049029E-05
6.020756E+03	2.918084E-04	1.063017E-05
6.030658E+03	2.957326E-04	1.077308E-05
6.040561E+03	2.997264E-04	1.091853E-05
6.050463E+03	3.037830E-04	1.106626E-05
6.060366E+03	3.078798E-04	1.121546E-05
6.070269E+03	3.120078E-04	1.136579E-05
6.080171E+03	3.161463E-04	1.151651E-05
6.090074E+03	3.202817E-04	1.166711E-05
6.099976E+03	3.243843E-04	1.181652E-05
6.109879E+03	3.284437E-04	1.196435E-05
6.119781E+03	3.324338E-04	1.210965E-05
6.129684E+03	3.363380E-04	1.225183E-05
6.139586E+03	3.401361E-04	1.239014E-05
6.149489E+03	3.438271E-04	1.252455E-05
6.159392E+03	3.474168E-04	1.265526E-05
6.169294E+03	3.509129E-04	1.278257E-05
6.179197E+03	3.543260E-04	1.290685E-05
6.189099E+03	3.576538E-04	1.302802E-05
6.199002E+03	3.609188E-04	1.314691E-05
6.208904E+03	3.641161E-04	1.326333E-05
6.218807E+03	3.672607E-04	1.337783E-05
6.228709E+03	3.703635E-04	1.349081E-05
6.238612E+03	3.734211E-04	1.360214E-05
6.248515E+03	3.764452E-04	1.371224E-05
6.258417E+03	3.794425E-04	1.382138E-05
6.268320E+03	3.824207E-04	1.392981E-05
6.278222E+03	3.853767E-04	1.403744E-05
6.288125E+03	3.883179E-04	1.414453E-05
6.298027E+03	3.912471E-04	1.425118E-05
6.307930E+03	3.941668E-04	1.435748E-05
6.317833E+03	3.970738E-04	1.446332E-05
6.327735E+03	3.999650E-04	1.456859E-05
6.337638E+03	4.028370E-04	1.467315E-05
6.347540E+03	4.056918E-04	1.477709E-05
6.357443E+03	4.085258E-04	1.488027E-05
6.367345E+03	4.113230E-04	1.498211E-05
6.377248E+03	4.141026E-04	1.508331E-05
6.387150E+03	4.168665E-04	1.518394E-05
6.397053E+03	4.196230E-04	1.528429E-05
6.406956E+03	4.223864E-04	1.538490E-05
6.416858E+03	4.251531E-04	1.548563E-05
6.426761E+03	4.279380E-04	1.558702E-05
6.436663E+03	4.307437E-04	1.568916E-05
6.446566E+03	4.335790E-04	1.579239E-05
6.456468E+03	4.364335E-04	1.589632E-05
6.466371E+03	4.393293E-04	1.600175E-05
6.476273E+03	4.422552E-04	1.610827E-05
6.486176E+03	4.452205E-04	1.621623E-05
6.496079E+03	4.482273E-04	1.632570E-05
6.505981E+03	4.512705E-04	1.643650E-05
6.515884E+03	4.543592E-04	1.654895E-05
6.525786E+03	4.574956E-04	1.666314E-05
6.535689E+03	4.606747E-04	1.677889E-05
6.545591E+03	4.638979E-04	1.689624E-05
6.555494E+03	4.671671E-04	1.701527E-05
6.565396E+03	4.704919E-04	1.713632E-05
6.575299E+03	4.738582E-04	1.725888E-05
6.585202E+03	4.772754E-04	1.738330E-05
6.595104E+03	4.807448E-04	1.750962E-05
6.605007E+03	4.842594E-04	1.763758E-05
6.614909E+03	4.878279E-04	1.776751E-05
6.624812E+03	4.914434E-04	1.789915E-05
6.634714E+03	4.951146E-04	1.803282E-05
6.644617E+03	4.988251E-04	1.816792E-05
6.654520E+03	5.025839E-04	1.830478E-05
6.664422E+03	5.064003E-04	1.844374E-05
6.674325E+03	5.102575E-04	1.858418E-05
6.684227E+03	5.141646E-04	1.872644E-05
6.694130E+03	5.181135E-04	1.887022E-05
6.704032E+03	5.221138E-04	1.901587E-05
6.713935E+03	5.261570E-04	1.916309E-05
6.723837E+03	5.302439E-04	1.931190E-05
6.733740E+03	5.343850E-04	1.946268E-05
6.743643E+03	5.385618E-04	1.961476E-05
6.753545E+03	5.427944E-04	1.976888E-05
6.763448E+03	5.470642E-04	1.992435E-05
6.773350E+03	5.513913E-04	2.008191E-05
6.783253E+03	5.557562E-04	2.024084E-05
6.793155E+03	5.601585E-04	2.040114E-05
6.803058E+03	5.646085E-04	2.056318E-05
6.812960E+03	5.691056E-04	2.072693E-05
6.822863E+03	5.736275E-04	2.089158E-05
6.832766E+03	5.781943E-04	2.105787E-05
6.842668E+03	5.827937E-04	2.122535E-05
6.852571E+03	5.874346E-04	2.139434E-05
6.862473E+03	5.920926E-04	2.156395E-05
6.872376E+03	5.967764E-04	2.173451E-05
6.882278E+03	6.014834E-04	2.190590E-05
6.892181E+03	6.061989E-04	2.207762E-05
6.902083E+03	6.109316E-04	2.224995E-05
6.911986E+03	6.156784E-04	2.242280E-05
6.921889E+03	6.204244E-04	2.259562E-05
6.931791E+03	6.251664E-04	2.276830E-05
6.941694E+03	6.299015E-04	2.294073E-05
6.951596E+03	6.346387E-04	2.311324E-05
6.961499E+03	6.393512E-04	2.328484E-05
6.971401E+03	6.440610E-04	2.345635E-05
6.981304E+03	6.487407E-04	2.362676E-05
6.991207E+03	6.534009E-04	2.379647E-05
7.001109E+03	6.580268E-04	2.396493E-05
7.011012E+03	6.626299E-04	2.413256E-05
7.020914E+03	6.672089E-04	2.429931E-05
7.030817E+03	6.717496E-04	2.446467E-05
7.040719E+03	6.762375E-04	2.462810E-05
7.050622E+03	6.806993E-04	2.479059E-05
7.060524E+03	6.851208E-04	2.495162E-05
7.070427E+03	6.895024E-04	2.511118E-05
7.080330E+03	6.938440E-04	2.526930E-05
7.090232E+03	6.981319E-04	2.542546E-05
7.100135E+03	7.023809E-04	2.558021E-05
7.110037E+03	7.065770E-04	2.573303E-05
7.119940E+03	7.107213E-04	2.588397E-05
7.129842E+03	7.148296E-04	2.603360E-05
7.139745E+03	7.188880E-04	2.618142E-05
7.149647E+03	7.229130E-04	2.632802E-05
7.159550E+03	7.268752E-04	2.647233E-05
7.169453E+03	7.307903E-04	2.661494E-05
7.179355E+03	7.346588E-04	2.675585E-05
7.189258E+03	7.384804E-04	2.689505E-05
7.199160E+03	7.422550E-04	2.703254E-05
7.209063E+03	7.459811E-04	2.716827E-05
7.218965E+03	7.496410E-04	2.730160E-05
7.228868E+03	7.532485E-04	2.743301E-05
7.238770E+03	7.568008E-04	2.756242E-05
7.248673E+03	7.602955E-04	2.768974E-05
7.258576E+03	7.637127E-04	2.781423E-05
7.268478E+03	7.670658E-04	2.793639E-05
7.278381E+03	7.703687E-04	2.805674E-05
7.288283E+03	7.735849E-04	2.817392E-05
7.298186E+03	7.767286E-04	2.828846E-05
7.308088E+03	7.797975E-04	2.840029E-05
7.317991E+03	7.828067E-04	2.850995E-05
7.327894E+03	7.857378E-04	2.861676E-05
7.337796E+03	7.886076E-04	2.872135E-05
7.347699E+03	7.914336E-04	2.882435E-05
7.357601E+03	7.941994E-04	2.892515E-05
7.367504E+03	7.969421E-04	2.902512E-05
7.377406E+03	7.996288E-04	2.912306E-05
7.387309E+03	8.022806E-04	2.921972E-05
7.397211E+03	8.048828E-04	2.931458E-05
7.407114E+03	8.074584E-04	2.940848E-05
7.417017E+03	8.099749E-04	2.950023E-05
7.426919E+03	8.124548E-04	2.959066E-05
7.436822E+03	8.149021E-04	2.967990E-05
7.446724E+03	8.173012E-04	2.976738E-05
7.456627E+03	8.196920E-04	2.985458E-05
7.466529E+03	8.220383E-04	2.994015E-05
7.476432E+03	8.243602E-04	3.002484E-05
7.486334E+03	8.266400E-04	3.010801E-05
7.496237E+03	8.288986E-04	3.019040E-05
7.506140E+03	8.311175E-04	3.027135E-05
7.516042E+03	8.333184E-04	3.035166E-05
7.525945E+03	8.354827E-04	3.043063E-05
7.535847E+03	8.376112E-04	3.050831E-05
7.545750E+03	8.397254E-04	3.058546E-05
7.555652E+03	8.418051E-04	3.066137E-05
7.565555E+03	8.438503E-04	3.073603E-05
7.575457E+03	8.458808E-04	3.081015E-05
7.585360E+03	8.478746E-04	3.088295E-05
7.595263E+03	8.498512E-04	3.095512E-05
7.605165E+03	8.517667E-04	3.102506E-05
7.615068E+03	8.536598E-04	3.109420E-05
7.624970E+03	8.555284E-04	3.116245E-05
7.634873E+03	8.573480E-04	3.122892E-05
7.644775E+03	8.591368E-04	3.129427E-05
7.654678E+03	8.608703E-04	3.135761E-05
7.664581E+03	8.625446E-04	3.141880E-05
7.674483E+03	8.641776E-04	3.147849E-05
7.684386E+03	8.657658E-04	3.153655E-05
