#wls	flux	fluxerr
1.584409E+03	9.178137E-04	1.140656E-04
1.624020E+03	9.207794E-04	1.139721E-04
1.663630E+03	9.229182E-04	1.137616E-04
1.703240E+03	9.240401E-04	1.134118E-04
1.742850E+03	9.243030E-04	1.129432E-04
1.782461E+03	9.234994E-04	1.123319E-04
1.822071E+03	9.215919E-04	1.115747E-04
1.861681E+03	9.186861E-04	1.106863E-04
1.901291E+03	9.145627E-04	1.096418E-04
1.940902E+03	9.092325E-04	1.084447E-04
1.980512E+03	9.025580E-04	1.070809E-04
2.020122E+03	8.945429E-04	1.055534E-04
2.059732E+03	8.849425E-04	1.038363E-04
2.099342E+03	8.736157E-04	1.019164E-04
2.138953E+03	8.604049E-04	9.977930E-05
2.178563E+03	8.449521E-04	9.738801E-05
2.218173E+03	8.269674E-04	9.471467E-05
2.257783E+03	8.064585E-04	9.176636E-05
2.297394E+03	7.836636E-04	8.857648E-05
2.337004E+03	7.592534E-04	8.522652E-05
2.376614E+03	7.337155E-04	8.177571E-05
2.416224E+03	7.074232E-04	7.826923E-05
2.455835E+03	6.807455E-04	7.475069E-05
2.495445E+03	6.538101E-04	7.123632E-05
2.535055E+03	6.267848E-04	6.774626E-05
2.574665E+03	5.997663E-04	6.429251E-05
2.614276E+03	5.728676E-04	6.088848E-05
2.653886E+03	5.461348E-04	5.754016E-05
2.693496E+03	5.196274E-04	5.425476E-05
2.733106E+03	4.934004E-04	5.103881E-05
2.772716E+03	4.675101E-04	4.789875E-05
2.812327E+03	4.420293E-04	4.484247E-05
2.851937E+03	4.170642E-04	4.188088E-05
2.891547E+03	3.927381E-04	3.902613E-05
2.931157E+03	3.691951E-04	3.629183E-05
2.970768E+03	3.465736E-04	3.369035E-05
2.980670E+03	3.410856E-04	3.306281E-05
2.990573E+03	3.356562E-04	3.244352E-05
3.000475E+03	3.303003E-04	3.183391E-05
3.010378E+03	3.250102E-04	3.123318E-05
3.020280E+03	3.197923E-04	3.064192E-05
3.030183E+03	3.146530E-04	3.006068E-05
3.040086E+03	3.095779E-04	2.948807E-05
3.049988E+03	3.045862E-04	2.892586E-05
3.059891E+03	2.996639E-04	2.837268E-05
3.069793E+03	2.948225E-04	2.782957E-05
3.079696E+03	2.900550E-04	2.729583E-05
3.089598E+03	2.853606E-04	2.677133E-05
3.099501E+03	2.807498E-04	2.625701E-05
3.109403E+03	2.762112E-04	2.575176E-05
3.119306E+03	2.717604E-04	2.525696E-05
3.129209E+03	2.673817E-04	2.477113E-05
3.139111E+03	2.630900E-04	2.429557E-05
3.149014E+03	2.588753E-04	2.382931E-05
3.158916E+03	2.547463E-04	2.337311E-05
3.168819E+03	2.506979E-04	2.292643E-05
3.178721E+03	2.467343E-04	2.248958E-05
3.188624E+03	2.428546E-04	2.206244E-05
3.198526E+03	2.390586E-04	2.164494E-05
3.208429E+03	2.353425E-04	2.123665E-05
3.218332E+03	2.317142E-04	2.083823E-05
3.228234E+03	2.281692E-04	2.044922E-05
3.238137E+03	2.247112E-04	2.006988E-05
3.248039E+03	2.213363E-04	1.969980E-05
3.257942E+03	2.180440E-04	1.933886E-05
3.267844E+03	2.148376E-04	1.898730E-05
3.277747E+03	2.117130E-04	1.864470E-05
3.287650E+03	2.086732E-04	1.831124E-05
3.297552E+03	2.057175E-04	1.798679E-05
3.307455E+03	2.028394E-04	1.767073E-05
3.317357E+03	2.000444E-04	1.736347E-05
3.327260E+03	1.973292E-04	1.706465E-05
3.337162E+03	1.946933E-04	1.677417E-05
3.347065E+03	1.921363E-04	1.649193E-05
3.356967E+03	1.896526E-04	1.621738E-05
3.366870E+03	1.872470E-04	1.595087E-05
3.376773E+03	1.849169E-04	1.569211E-05
3.386675E+03	1.826593E-04	1.544079E-05
3.396578E+03	1.804741E-04	1.519683E-05
3.406480E+03	1.783610E-04	1.496014E-05
3.416383E+03	1.763155E-04	1.473030E-05
3.426285E+03	1.743397E-04	1.450741E-05
3.436188E+03	1.724293E-04	1.429107E-05
3.446090E+03	1.705844E-04	1.408120E-05
3.455993E+03	1.688033E-04	1.387763E-05
3.465896E+03	1.670842E-04	1.368015E-05
3.475798E+03	1.654257E-04	1.348858E-05
3.485701E+03	1.638261E-04	1.330274E-05
3.495603E+03	1.622826E-04	1.312234E-05
3.505506E+03	1.607923E-04	1.294711E-05
3.515408E+03	1.593542E-04	1.277692E-05
3.525311E+03	1.579659E-04	1.261152E-05
3.535213E+03	1.566270E-04	1.245084E-05
3.545116E+03	1.553333E-04	1.229450E-05
3.555019E+03	1.540844E-04	1.214244E-05
3.564921E+03	1.528788E-04	1.199448E-05
3.574824E+03	1.517174E-04	1.185067E-05
3.584726E+03	1.505970E-04	1.171070E-05
3.594629E+03	1.495173E-04	1.157454E-05
3.604531E+03	1.484741E-04	1.144180E-05
3.614434E+03	1.474671E-04	1.131244E-05
3.624337E+03	1.464951E-04	1.118634E-05
3.634239E+03	1.455568E-04	1.106335E-05
3.644142E+03	1.446522E-04	1.094346E-05
3.654044E+03	1.437815E-04	1.082663E-05
3.663947E+03	1.429433E-04	1.071275E-05
3.673849E+03	1.421388E-04	1.060187E-05
3.683752E+03	1.413668E-04	1.049386E-05
3.693654E+03	1.406296E-04	1.038887E-05
3.703557E+03	1.399271E-04	1.028686E-05
3.713460E+03	1.392588E-04	1.018776E-05
3.723362E+03	1.386256E-04	1.009160E-05
3.733265E+03	1.380296E-04	9.998506E-06
3.743167E+03	1.374702E-04	9.908391E-06
3.753070E+03	1.369493E-04	9.821352E-06
3.762972E+03	1.364661E-04	9.737309E-06
3.772875E+03	1.360212E-04	9.656260E-06
3.782777E+03	1.356162E-04	9.578282E-06
3.792680E+03	1.352526E-04	9.503443E-06
3.802583E+03	1.349296E-04	9.431647E-06
3.812485E+03	1.346499E-04	9.363032E-06
3.822388E+03	1.344113E-04	9.297417E-06
3.832290E+03	1.342175E-04	9.235008E-06
3.842193E+03	1.340664E-04	9.175621E-06
3.852095E+03	1.339615E-04	9.119447E-06
3.861998E+03	1.339018E-04	9.066373E-06
3.871900E+03	1.338884E-04	9.016432E-06
3.881803E+03	1.339213E-04	8.969582E-06
3.891706E+03	1.340018E-04	8.925850E-06
3.901608E+03	1.341297E-04	8.885190E-06
3.911511E+03	1.343073E-04	8.847698E-06
3.921413E+03	1.345335E-04	8.813255E-06
3.931316E+03	1.348094E-04	8.781881E-06
3.941218E+03	1.351349E-04	8.753530E-06
3.951121E+03	1.355122E-04	8.728288E-06
3.961024E+03	1.359413E-04	8.706107E-06
3.970926E+03	1.364222E-04	8.686936E-06
3.980829E+03	1.369549E-04	8.670726E-06
3.990731E+03	1.375417E-04	8.657565E-06
4.000634E+03	1.381814E-04	8.647335E-06
4.010536E+03	1.388763E-04	8.640125E-06
4.020439E+03	1.396254E-04	8.635822E-06
4.030341E+03	1.404298E-04	8.634450E-06
4.040244E+03	1.412910E-04	8.636034E-06
4.050147E+03	1.422090E-04	8.640532E-06
4.060049E+03	1.431841E-04	8.647907E-06
4.069952E+03	1.442165E-04	8.658117E-06
4.079854E+03	1.453086E-04	8.671264E-06
4.089757E+03	1.464596E-04	8.687243E-06
4.099659E+03	1.476710E-04	8.706087E-06
4.109562E+03	1.489419E-04	8.727695E-06
4.119464E+03	1.502737E-04	8.752101E-06
4.129367E+03	1.516680E-04	8.779342E-06
4.139270E+03	1.531239E-04	8.809320E-06
4.149172E+03	1.546429E-04	8.842073E-06
4.159075E+03	1.562243E-04	8.877506E-06
4.168977E+03	1.578696E-04	8.915658E-06
4.178880E+03	1.595778E-04	8.956429E-06
4.188782E+03	1.613507E-04	8.999873E-06
4.198685E+03	1.631873E-04	9.045889E-06
4.208587E+03	1.650878E-04	9.094441E-06
4.218490E+03	1.670513E-04	9.145441E-06
4.228393E+03	1.690792E-04	9.198935E-06
4.238295E+03	1.711706E-04	9.254823E-06
4.248198E+03	1.733256E-04	9.313075E-06
4.258100E+03	1.755426E-04	9.373582E-06
4.268003E+03	1.778205E-04	9.436251E-06
4.277905E+03	1.801589E-04	9.501029E-06
4.287808E+03	1.825577E-04	9.567890E-06
4.297711E+03	1.850151E-04	9.636720E-06
4.307613E+03	1.875303E-04	9.707457E-06
4.317516E+03	1.901016E-04	9.779994E-06
4.327418E+03	1.927294E-04	9.854352E-06
4.337321E+03	1.954131E-04	9.930479E-06
4.347223E+03	1.981564E-04	1.000857E-05
4.357126E+03	2.009578E-04	1.008853E-05
4.367028E+03	2.038187E-04	1.017043E-05
4.376931E+03	2.067384E-04	1.025424E-05
4.386834E+03	2.097198E-04	1.034010E-05
4.396736E+03	2.127610E-04	1.042793E-05
4.406639E+03	2.158612E-04	1.051768E-05
4.416541E+03	2.190217E-04	1.060945E-05
4.426444E+03	2.222420E-04	1.070321E-05
4.436346E+03	2.255214E-04	1.079896E-05
4.446249E+03	2.288574E-04	1.089659E-05
4.456151E+03	2.322509E-04	1.099617E-05
4.466054E+03	2.356992E-04	1.109762E-05
4.475957E+03	2.392011E-04	1.120091E-05
4.485859E+03	2.427548E-04	1.130599E-05
4.495762E+03	2.463549E-04	1.141266E-05
4.505664E+03	2.500011E-04	1.152095E-05
4.515567E+03	2.536897E-04	1.163073E-05
4.525469E+03	2.574182E-04	1.174196E-05
4.535372E+03	2.611799E-04	1.185438E-05
4.545274E+03	2.649747E-04	1.196807E-05
4.555177E+03	2.687951E-04	1.208275E-05
4.565080E+03	2.726408E-04	1.219848E-05
4.574982E+03	2.765041E-04	1.231502E-05
4.584885E+03	2.803817E-04	1.243229E-05
4.594787E+03	2.842678E-04	1.255013E-05
4.604690E+03	2.881615E-04	1.266860E-05
4.614592E+03	2.920540E-04	1.278743E-05
4.624495E+03	2.959444E-04	1.290666E-05
4.634398E+03	2.998262E-04	1.302612E-05
4.644300E+03	3.036923E-04	1.314563E-05
4.654203E+03	3.075417E-04	1.326525E-05
4.664105E+03	3.113642E-04	1.338466E-05
4.674008E+03	3.151556E-04	1.350379E-05
4.683910E+03	3.189068E-04	1.362240E-05
4.693813E+03	3.226188E-04	1.374063E-05
4.703715E+03	3.262838E-04	1.385829E-05
4.713618E+03	3.299032E-04	1.397556E-05
4.723521E+03	3.334719E-04	1.409233E-05
4.733423E+03	3.369913E-04	1.420881E-05
4.743326E+03	3.404563E-04	1.432488E-05
4.753228E+03	3.438649E-04	1.444059E-05
4.763131E+03	3.472154E-04	1.455598E-05
4.773033E+03	3.505057E-04	1.467108E-05
4.782936E+03	3.537340E-04	1.478591E-05
4.792838E+03	3.568953E-04	1.490039E-05
4.802741E+03	3.599917E-04	1.501468E-05
4.812644E+03	3.630219E-04	1.512876E-05
4.822546E+03	3.659815E-04	1.524247E-05
4.832449E+03	3.688696E-04	1.535579E-05
4.842351E+03	3.716887E-04	1.546882E-05
4.852254E+03	3.744308E-04	1.558125E-05
4.862156E+03	3.771019E-04	1.569331E-05
4.872059E+03	3.796981E-04	1.580483E-05
4.881961E+03	3.822146E-04	1.591559E-05
4.891864E+03	3.846537E-04	1.602567E-05
4.901767E+03	3.870144E-04	1.613501E-05
4.911669E+03	3.892915E-04	1.624336E-05
4.921572E+03	3.914876E-04	1.635078E-05
4.931474E+03	3.935934E-04	1.645684E-05
4.941377E+03	3.956153E-04	1.656178E-05
4.951279E+03	3.975479E-04	1.666530E-05
4.961182E+03	3.993855E-04	1.676711E-05
4.971085E+03	4.011304E-04	1.686726E-05
4.980987E+03	4.027773E-04	1.696545E-05
4.990890E+03	4.043243E-04	1.706153E-05
5.000792E+03	4.057699E-04	1.715537E-05
5.010695E+03	4.071124E-04	1.724682E-05
5.020597E+03	4.083461E-04	1.733555E-05
5.030500E+03	4.094737E-04	1.742160E-05
5.040402E+03	4.104892E-04	1.750463E-05
5.050305E+03	4.113909E-04	1.758446E-05
5.060208E+03	4.121735E-04	1.766079E-05
5.070110E+03	4.128394E-04	1.773361E-05
5.080013E+03	4.133796E-04	1.780244E-05
5.089915E+03	4.138008E-04	1.786747E-05
5.099818E+03	4.140944E-04	1.792822E-05
5.109720E+03	4.142642E-04	1.798475E-05
5.119623E+03	4.143054E-04	1.803675E-05
5.129525E+03	4.142140E-04	1.808392E-05
5.139428E+03	4.139938E-04	1.812634E-05
5.149331E+03	4.136414E-04	1.816373E-05
5.159233E+03	4.131567E-04	1.819599E-05
5.169136E+03	4.125404E-04	1.822302E-05
5.179038E+03	4.117895E-04	1.824460E-05
5.188941E+03	4.109048E-04	1.826063E-05
5.198843E+03	4.098838E-04	1.827090E-05
5.208746E+03	4.087318E-04	1.827553E-05
5.218648E+03	4.074467E-04	1.827432E-05
5.228551E+03	4.060306E-04	1.826725E-05
5.238454E+03	4.044854E-04	1.825430E-05
5.248356E+03	4.028100E-04	1.823533E-05
5.258259E+03	4.010073E-04	1.821034E-05
5.268161E+03	3.990802E-04	1.817938E-05
5.278064E+03	3.970326E-04	1.814252E-05
5.287966E+03	3.948641E-04	1.809964E-05
5.297869E+03	3.925825E-04	1.805103E-05
5.307772E+03	3.901928E-04	1.799681E-05
5.317674E+03	3.876996E-04	1.793711E-05
5.327577E+03	3.851043E-04	1.787191E-05
5.337479E+03	3.824201E-04	1.780176E-05
5.347382E+03	3.796498E-04	1.772671E-05
5.357284E+03	3.768069E-04	1.764733E-05
5.367187E+03	3.738948E-04	1.756371E-05
5.377089E+03	3.709244E-04	1.747632E-05
5.386992E+03	3.679033E-04	1.738546E-05
5.396895E+03	3.648467E-04	1.729180E-05
5.406797E+03	3.617587E-04	1.719552E-05
5.416700E+03	3.586436E-04	1.709678E-05
5.426602E+03	3.555037E-04	1.699565E-05
5.436505E+03	3.523472E-04	1.689252E-05
5.446407E+03	3.491763E-04	1.678746E-05
5.456310E+03	3.459973E-04	1.668075E-05
5.466212E+03	3.428164E-04	1.657269E-05
5.476115E+03	3.396394E-04	1.646355E-05
5.486018E+03	3.364728E-04	1.635362E-05
5.495920E+03	3.333256E-04	1.624335E-05
5.505823E+03	3.302035E-04	1.613302E-05
5.515725E+03	3.271194E-04	1.602326E-05
5.525628E+03	3.240749E-04	1.591418E-05
5.535530E+03	3.210853E-04	1.580651E-05
5.545433E+03	3.181517E-04	1.570035E-05
5.555335E+03	3.152853E-04	1.559627E-05
5.565238E+03	3.124959E-04	1.549477E-05
5.575141E+03	3.097831E-04	1.539586E-05
5.585043E+03	3.071622E-04	1.530034E-05
5.594946E+03	3.046347E-04	1.520830E-05
5.604848E+03	3.022017E-04	1.511985E-05
5.614751E+03	2.998762E-04	1.503565E-05
5.624653E+03	2.976544E-04	1.495557E-05
5.634556E+03	2.955423E-04	1.487993E-05
5.644459E+03	2.935444E-04	1.480900E-05
5.654361E+03	2.916624E-04	1.474290E-05
5.664264E+03	2.898967E-04	1.468169E-05
5.674166E+03	2.882480E-04	1.462544E-05
5.684069E+03	2.867198E-04	1.457436E-05
5.693971E+03	2.853148E-04	1.452863E-05
5.703874E+03	2.840273E-04	1.448798E-05
5.713776E+03	2.828659E-04	1.445289E-05
5.723679E+03	2.818249E-04	1.442311E-05
5.733582E+03	2.809106E-04	1.439898E-05
5.743484E+03	2.801204E-04	1.438040E-05
5.753387E+03	2.794578E-04	1.436757E-05
5.763289E+03	2.789233E-04	1.436056E-05
5.773192E+03	2.785201E-04	1.435955E-05
5.783094E+03	2.782457E-04	1.436443E-05
5.792997E+03	2.781004E-04	1.437525E-05
5.802899E+03	2.780876E-04	1.439221E-05
5.812802E+03	2.782102E-04	1.441546E-05
5.822705E+03	2.784622E-04	1.444473E-05
5.832607E+03	2.788501E-04	1.448036E-05
5.842510E+03	2.793704E-04	1.452219E-05
5.852412E+03	2.800266E-04	1.457041E-05
5.862315E+03	2.808189E-04	1.462505E-05
5.872217E+03	2.817436E-04	1.468591E-05
5.882120E+03	2.828042E-04	1.475319E-05
5.892022E+03	2.839997E-04	1.482685E-05
5.901925E+03	2.853267E-04	1.490671E-05
5.911828E+03	2.867912E-04	1.499307E-05
5.921730E+03	2.883857E-04	1.508556E-05
5.931633E+03	2.901125E-04	1.518428E-05
5.941535E+03	2.919707E-04	1.528918E-05
5.951438E+03	2.939555E-04	1.540001E-05
5.961340E+03	2.960692E-04	1.551687E-05
5.971243E+03	2.983028E-04	1.563930E-05
5.981146E+03	3.006620E-04	1.576755E-05
5.991048E+03	3.031373E-04	1.590113E-05
6.000951E+03	3.057301E-04	1.604008E-05
6.010853E+03	3.084341E-04	1.618407E-05
6.020756E+03	3.112466E-04	1.633292E-05
6.030658E+03	3.141606E-04	1.648625E-05
6.040561E+03	3.171688E-04	1.664365E-05
6.050463E+03	3.202709E-04	1.680507E-05
6.060366E+03	3.234515E-04	1.696968E-05
6.070269E+03	3.267093E-04	1.713739E-05
6.080171E+03	3.300314E-04	1.730748E-05
6.090074E+03	3.334123E-04	1.747964E-05
6.099976E+03	3.368292E-04	1.765264E-05
6.109879E+03	3.402792E-04	1.782630E-05
6.119781E+03	3.437426E-04	1.799956E-05
6.129684E+03	3.472065E-04	1.817172E-05
6.139586E+03	3.506547E-04	1.834190E-05
6.149489E+03	3.540905E-04	1.851024E-05
6.159392E+03	3.575213E-04	1.867711E-05
6.169294E+03	3.609563E-04	1.884295E-05
6.179197E+03	3.644045E-04	1.900822E-05
6.189099E+03	3.678616E-04	1.917266E-05
6.199002E+03	3.713479E-04	1.933730E-05
6.208904E+03	3.748549E-04	1.950167E-05
6.218807E+03	3.783942E-04	1.966633E-05
6.228709E+03	3.819731E-04	1.983164E-05
6.238612E+03	3.855839E-04	1.999714E-05
6.248515E+03	3.892343E-04	2.016321E-05
6.258417E+03	3.929272E-04	2.032996E-05
6.268320E+03	3.966660E-04	2.049751E-05
6.278222E+03	4.004432E-04	2.066545E-05
6.288125E+03	4.042624E-04	2.083392E-05
6.298027E+03	4.081218E-04	2.100278E-05
6.307930E+03	4.120195E-04	2.117189E-05
6.317833E+03	4.159484E-04	2.134085E-05
6.327735E+03	4.199005E-04	2.150920E-05
6.337638E+03	4.238677E-04	2.167650E-05
6.347540E+03	4.278479E-04	2.184260E-05
6.357443E+03	4.318330E-04	2.200705E-05
6.367345E+03	4.358009E-04	2.216870E-05
6.377248E+03	4.397682E-04	2.232835E-05
6.387150E+03	4.437324E-04	2.248585E-05
6.397053E+03	4.476978E-04	2.264140E-05
6.406956E+03	4.516762E-04	2.279555E-05
6.416858E+03	4.556594E-04	2.294784E-05
6.426761E+03	4.596602E-04	2.309891E-05
6.436663E+03	4.636773E-04	2.324865E-05
6.446566E+03	4.677177E-04	2.339736E-05
6.456468E+03	4.717665E-04	2.354428E-05
6.466371E+03	4.758448E-04	2.369042E-05
6.476273E+03	4.799379E-04	2.383500E-05
6.486176E+03	4.840530E-04	2.397836E-05
6.496079E+03	4.881900E-04	2.412046E-05
6.505981E+03	4.923413E-04	2.426087E-05
6.515884E+03	4.965144E-04	2.439995E-05
6.525786E+03	5.007100E-04	2.453768E-05
6.535689E+03	5.049199E-04	2.467365E-05
6.545591E+03	5.091450E-04	2.480785E-05
6.555494E+03	5.133851E-04	2.494024E-05
6.565396E+03	5.176493E-04	2.507125E-05
6.575299E+03	5.219212E-04	2.520004E-05
6.585202E+03	5.262096E-04	2.532702E-05
6.595104E+03	5.305149E-04	2.545217E-05
6.605007E+03	5.348290E-04	2.557508E-05
6.614909E+03	5.391608E-04	2.569614E-05
6.624812E+03	5.435019E-04	2.581494E-05
6.634714E+03	5.478618E-04	2.593191E-05
6.644617E+03	5.522221E-04	2.604615E-05
6.654520E+03	5.565929E-04	2.615812E-05
6.664422E+03	5.609841E-04	2.626826E-05
6.674325E+03	5.653771E-04	2.637569E-05
6.684227E+03	5.697820E-04	2.648087E-05
6.694130E+03	5.741898E-04	2.658336E-05
6.704032E+03	5.786112E-04	2.668364E-05
6.713935E+03	5.830367E-04	2.678127E-05
6.723837E+03	5.874670E-04	2.687627E-05
6.733740E+03	5.919137E-04	2.696917E-05
6.743643E+03	5.963564E-04	2.705903E-05
6.753545E+03	6.008176E-04	2.714686E-05
6.763448E+03	6.052765E-04	2.723174E-05
6.773350E+03	6.097556E-04	2.731466E-05
6.783253E+03	6.142344E-04	2.739472E-05
6.793155E+03	6.187126E-04	2.747190E-05
6.803058E+03	6.232024E-04	2.754676E-05
6.812960E+03	6.277042E-04	2.761932E-05
6.822863E+03	6.321954E-04	2.768860E-05
6.832766E+03	6.366995E-04	2.775566E-05
6.842668E+03	6.412046E-04	2.781998E-05
6.852571E+03	6.457233E-04	2.788214E-05
6.862473E+03	6.502314E-04	2.794111E-05
6.872376E+03	6.547404E-04	2.799742E-05
6.882278E+03	6.592505E-04	2.805112E-05
6.892181E+03	6.637488E-04	2.810169E-05
6.902083E+03	6.682476E-04	2.814969E-05
6.911986E+03	6.727469E-04	2.819518E-05
6.921889E+03	6.772331E-04	2.823762E-05
6.931791E+03	6.817059E-04	2.827707E-05
6.941694E+03	6.861649E-04	2.831357E-05
6.951596E+03	6.906233E-04	2.834773E-05
6.961499E+03	6.950538E-04	2.837850E-05
6.971401E+03	6.994838E-04	2.840707E-05
6.981304E+03	7.038855E-04	2.843239E-05
6.991207E+03	7.082727E-04	2.845511E-05
7.001109E+03	7.126309E-04	2.847474E-05
7.011012E+03	7.169748E-04	2.849196E-05
7.020914E+03	7.213043E-04	2.850688E-05
7.030817E+03	7.256054E-04	2.851903E-05
7.040719E+03	7.298635E-04	2.852797E-05
7.050622E+03	7.341080E-04	2.853498E-05
7.060524E+03	7.383247E-04	2.853962E-05
7.070427E+03	7.425143E-04	2.854204E-05
7.080330E+03	7.466768E-04	2.854240E-05
7.090232E+03	7.507975E-04	2.854026E-05
7.100135E+03	7.548920E-04	2.853639E-05
7.110037E+03	7.589451E-04	2.853035E-05
7.119940E+03	7.629573E-04	2.852234E-05
7.129842E+03	7.669453E-04	2.851315E-05
7.139745E+03	7.708935E-04	2.850238E-05
7.149647E+03	7.748191E-04	2.849084E-05
7.159550E+03	7.786903E-04	2.847755E-05
7.169453E+03	7.825237E-04	2.846332E-05
7.179355E+03	7.863195E-04	2.844835E-05
7.189258E+03	7.900779E-04	2.843286E-05
7.199160E+03	7.937989E-04	2.841706E-05
7.209063E+03	7.974816E-04	2.840113E-05
7.218965E+03	8.011079E-04	2.838466E-05
7.228868E+03	8.046936E-04	2.836844E-05
7.238770E+03	8.082375E-04	2.835267E-05
7.248673E+03	8.117376E-04	2.833750E-05
7.258576E+03	8.151750E-04	2.832254E-05
7.268478E+03	8.185655E-04	2.830859E-05
7.278381E+03	8.219258E-04	2.829648E-05
7.288283E+03	8.252188E-04	2.828519E-05
7.298186E+03	8.284614E-04	2.827557E-05
7.308088E+03	8.316523E-04	2.826784E-05
7.317991E+03	8.348095E-04	2.826288E-05
7.327894E+03	8.379139E-04	2.826031E-05
7.337796E+03	8.409845E-04	2.826105E-05
7.347699E+03	8.440407E-04	2.826601E-05
7.357601E+03	8.470656E-04	2.827489E-05
7.367504E+03	8.500992E-04	2.828930E-05
7.377406E+03	8.531063E-04	2.830833E-05
7.387309E+03	8.561099E-04	2.833300E-05
7.397211E+03	8.590948E-04	2.836308E-05
7.407114E+03	8.620853E-04	2.839963E-05
7.417017E+03	8.650477E-04	2.844181E-05
7.426919E+03	8.680075E-04	2.849072E-05
7.436822E+03	8.709710E-04	2.854682E-05
7.446724E+03	8.739208E-04	2.860979E-05
7.456627E+03	8.768938E-04	2.868111E-05
7.466529E+03	8.798458E-04	2.875955E-05
7.476432E+03	8.827947E-04	2.884595E-05
7.486334E+03	8.857185E-04	2.893983E-05
7.496237E+03	8.886365E-04	2.904191E-05
7.506140E+03	8.915272E-04	2.915145E-05
7.516042E+03	8.944116E-04	2.926910E-05
7.525945E+03	8.972681E-04	2.939408E-05
7.535847E+03	9.000957E-04	2.952631E-05
7.545750E+03	9.029151E-04	2.966637E-05
7.555652E+03	9.057034E-04	2.981343E-05
7.565555E+03	9.084587E-04	2.996734E-05
7.575457E+03	9.112014E-04	3.012867E-05
7.585360E+03	9.139075E-04	3.029649E-05
7.595263E+03	9.165963E-04	3.047135E-05
7.605165E+03	9.192201E-04	3.065153E-05
7.615068E+03	9.218209E-04	3.083828E-05
7.624970E+03	9.243959E-04	3.103137E-05
7.634873E+03	9.269188E-04	3.122978E-05
7.644775E+03	9.294097E-04	3.143404E-05
7.654678E+03	9.318427E-04	3.164309E-05
7.664581E+03	9.342148E-04	3.185669E-05
7.674483E+03	9.365466E-04	3.207535E-05
7.684386E+03	9.388350E-04	3.229880E-05
