#wls	flux	fluxerr
1.584409E+03	-1.778104E-03	-5.798440E-03
1.624020E+03	-1.753726E-03	-5.751497E-03
1.663630E+03	-1.727899E-03	-5.699903E-03
1.703240E+03	-1.700474E-03	-5.643089E-03
1.742850E+03	-1.671459E-03	-5.580985E-03
1.782461E+03	-1.642245E-03	-5.501486E-03
1.822071E+03	-1.611524E-03	-5.416804E-03
1.861681E+03	-1.579257E-03	-5.326748E-03
1.901291E+03	-1.545284E-03	-5.230713E-03
1.940902E+03	-1.511552E-03	-5.116594E-03
1.980512E+03	-1.475936E-03	-4.996100E-03
2.020122E+03	-1.438468E-03	-4.869330E-03
2.059732E+03	-1.398738E-03	-4.734904E-03
2.099342E+03	-1.359232E-03	-4.581377E-03
2.138953E+03	-1.317291E-03	-4.420461E-03
2.178563E+03	-1.272608E-03	-4.251262E-03
2.218173E+03	-1.225390E-03	-4.074619E-03
2.257783E+03	-1.178480E-03	-3.880381E-03
2.297394E+03	-1.129499E-03	-3.682017E-03
2.337004E+03	-1.079020E-03	-3.481635E-03
2.376614E+03	-1.027660E-03	-3.281400E-03
2.416224E+03	-9.786892E-04	-3.073807E-03
2.455835E+03	-9.295679E-04	-2.870799E-03
2.495445E+03	-8.807407E-04	-2.673762E-03
2.535055E+03	-8.325401E-04	-2.483655E-03
2.574665E+03	-7.874014E-04	-2.292415E-03
2.614276E+03	-7.428907E-04	-2.109963E-03
2.653886E+03	-6.991678E-04	-1.936508E-03
2.693496E+03	-6.564139E-04	-1.772275E-03
2.733106E+03	-6.164229E-04	-1.610015E-03
2.772716E+03	-5.772429E-04	-1.457953E-03
2.812327E+03	-5.390444E-04	-1.316035E-03
2.851937E+03	-5.020568E-04	-1.184313E-03
2.891547E+03	-4.672904E-04	-1.057165E-03
2.931157E+03	-4.337057E-04	-9.406555E-04
2.970768E+03	-4.015467E-04	-8.345833E-04
2.980670E+03	-3.937557E-04	-8.096631E-04
2.990573E+03	-3.861187E-04	-7.846390E-04
3.000475E+03	-3.785711E-04	-7.602521E-04
3.010378E+03	-3.711242E-04	-7.365116E-04
3.020280E+03	-3.637806E-04	-7.134095E-04
3.030183E+03	-3.565552E-04	-6.906081E-04
3.040086E+03	-3.494316E-04	-6.684396E-04
3.049988E+03	-3.424131E-04	-6.468962E-04
3.059891E+03	-3.355033E-04	-6.259702E-04
3.069793E+03	-3.287100E-04	-6.053514E-04
3.079696E+03	-3.220311E-04	-5.853552E-04
3.089598E+03	-3.154630E-04	-5.659604E-04
3.099501E+03	-3.090214E-04	-5.471803E-04
3.109403E+03	-3.026808E-04	-5.286821E-04
3.119306E+03	-2.964590E-04	-5.107770E-04
3.129209E+03	-2.903639E-04	-4.934633E-04
3.139111E+03	-2.843920E-04	-4.767197E-04
3.149014E+03	-2.785202E-04	-4.602547E-04
3.158916E+03	-2.727681E-04	-4.443442E-04
3.168819E+03	-2.671418E-04	-4.289834E-04
3.178721E+03	-2.616425E-04	-4.141588E-04
3.188624E+03	-2.562208E-04	-3.995712E-04
3.198526E+03	-2.509199E-04	-3.855000E-04
3.208429E+03	-2.457400E-04	-3.719306E-04
3.218332E+03	-2.406811E-04	-3.588488E-04
3.228234E+03	-2.356817E-04	-3.459706E-04
3.238137E+03	-2.307948E-04	-3.335574E-04
3.248039E+03	-2.260198E-04	-3.215945E-04
3.257942E+03	-2.213519E-04	-3.100619E-04
3.267844E+03	-2.167184E-04	-2.986922E-04
3.277747E+03	-2.121813E-04	-2.877293E-04
3.287650E+03	-2.077430E-04	-2.771644E-04
3.297552E+03	-2.033994E-04	-2.669801E-04
3.307455E+03	-1.990540E-04	-2.569082E-04
3.317357E+03	-1.947935E-04	-2.471972E-04
3.327260E+03	-1.906093E-04	-2.378257E-04
3.337162E+03	-1.865039E-04	-2.287866E-04
3.347065E+03	-1.823476E-04	-2.198009E-04
3.356967E+03	-1.782483E-04	-2.111176E-04
3.366870E+03	-1.742007E-04	-2.027214E-04
3.376773E+03	-1.701934E-04	-1.945912E-04
3.386675E+03	-1.660780E-04	-1.864585E-04
3.396578E+03	-1.619763E-04	-1.785629E-04
3.406480E+03	-1.578795E-04	-1.708889E-04
3.416383E+03	-1.537779E-04	-1.634209E-04
3.426285E+03	-1.494813E-04	-1.558779E-04
3.436188E+03	-1.451427E-04	-1.485095E-04
3.446090E+03	-1.407453E-04	-1.412958E-04
3.455993E+03	-1.362748E-04	-1.342214E-04
3.465896E+03	-1.314976E-04	-1.269967E-04
3.475798E+03	-1.265960E-04	-1.198772E-04
3.485701E+03	-1.215477E-04	-1.128436E-04
3.495603E+03	-1.163301E-04	-1.058780E-04
3.505506E+03	-1.106571E-04	-9.868109E-05
3.515408E+03	-1.047414E-04	-9.151299E-05
3.525311E+03	-9.855503E-05	-8.435683E-05
3.535213E+03	-9.206812E-05	-7.719561E-05
3.545116E+03	-8.491995E-05	-6.970948E-05
3.555019E+03	-7.737157E-05	-6.217647E-05
3.564921E+03	-6.938215E-05	-5.457783E-05
3.574824E+03	-6.090958E-05	-4.689612E-05
3.584726E+03	-5.150509E-05	-3.879186E-05
3.594629E+03	-4.148540E-05	-3.056203E-05
3.604531E+03	-3.079900E-05	-2.219088E-05
3.614434E+03	-1.939008E-05	-1.366220E-05
3.624337E+03	-6.699911E-06	-4.613902E-06
3.634239E+03	6.880822E-06	4.630711E-06
3.644142E+03	2.141802E-05	1.408450E-05
3.654044E+03	3.697994E-05	2.375889E-05
3.663947E+03	5.421036E-05	3.400906E-05
3.673849E+03	7.266603E-05	4.450785E-05
3.683752E+03	9.242296E-05	5.526051E-05
3.693654E+03	1.135563E-04	6.626884E-05
3.703557E+03	1.367665E-04	7.785631E-05
3.713460E+03	1.615707E-04	8.970617E-05
3.723362E+03	1.880469E-04	1.018115E-04
3.733265E+03	2.162728E-04	1.141627E-04
3.743167E+03	2.469845E-04	1.270385E-04
3.753070E+03	2.796565E-04	1.401362E-04
3.762972E+03	3.143513E-04	1.534305E-04
3.772875E+03	3.511326E-04	1.668956E-04
3.782777E+03	3.907697E-04	1.807678E-04
3.792680E+03	4.326668E-04	1.947515E-04
3.802583E+03	4.768653E-04	2.088067E-04
3.812485E+03	5.234008E-04	2.228914E-04
3.822388E+03	5.730427E-04	2.371935E-04
3.832290E+03	6.251321E-04	2.514348E-04
3.842193E+03	6.796652E-04	2.655587E-04
3.852095E+03	7.366393E-04	2.795110E-04
3.861998E+03	7.968027E-04	2.934387E-04
3.871900E+03	8.594236E-04	3.070815E-04
3.881803E+03	9.244684E-04	3.203811E-04
3.891706E+03	9.918766E-04	3.332736E-04
3.901608E+03	1.062356E-03	3.458772E-04
3.911511E+03	1.135146E-03	3.579651E-04
3.921413E+03	1.210151E-03	3.694729E-04
3.931316E+03	1.287309E-03	3.803527E-04
3.941218E+03	1.367260E-03	3.907078E-04
3.951121E+03	1.449242E-03	4.003411E-04
3.961024E+03	1.533175E-03	4.092111E-04
3.970926E+03	1.618963E-03	4.172754E-04
3.980829E+03	1.707204E-03	4.246533E-04
3.990731E+03	1.797210E-03	4.311768E-04
4.000634E+03	1.888902E-03	4.368189E-04
4.010536E+03	1.982193E-03	4.415528E-04
4.020439E+03	2.077572E-03	4.455197E-04
4.030341E+03	2.174462E-03	4.485607E-04
4.040244E+03	2.272782E-03	4.506589E-04
4.050147E+03	2.372450E-03	4.518000E-04
4.060049E+03	2.473739E-03	4.521576E-04
4.069952E+03	2.576216E-03	4.515549E-04
4.079854E+03	2.679753E-03	4.499776E-04
4.089757E+03	2.784259E-03	4.474211E-04
4.099659E+03	2.889755E-03	4.441307E-04
4.109562E+03	2.995958E-03	4.398735E-04
4.119464E+03	3.102748E-03	4.346492E-04
4.129367E+03	3.209989E-03	4.284578E-04
4.139270E+03	3.317430E-03	4.216687E-04
4.149172E+03	3.425022E-03	4.139532E-04
4.159075E+03	3.532687E-03	4.053271E-04
4.168977E+03	3.640352E-03	3.958074E-04
4.178880E+03	3.747408E-03	3.859473E-04
4.188782E+03	3.854275E-03	3.752707E-04
4.198685E+03	3.960877E-03	3.637969E-04
4.208587E+03	4.067245E-03	3.515551E-04
4.218490E+03	4.172435E-03	3.393991E-04
4.228393E+03	4.277235E-03	3.265663E-04
4.238295E+03	4.381720E-03	3.130862E-04
4.248198E+03	4.485770E-03	2.989734E-04
4.258100E+03	4.588007E-03	2.856042E-04
4.268003E+03	4.689668E-03	2.717038E-04
4.277905E+03	4.790707E-03	2.572915E-04
4.287808E+03	4.891035E-03	2.423843E-04
4.297711E+03	4.988653E-03	2.293931E-04
4.307613E+03	5.085425E-03	2.160220E-04
4.317516E+03	5.181320E-03	2.022882E-04
4.327418E+03	5.276615E-03	1.882201E-04
4.337321E+03	5.368714E-03	1.784198E-04
4.347223E+03	5.460444E-03	1.684179E-04
4.357126E+03	5.551601E-03	1.582166E-04
4.367028E+03	5.641566E-03	1.478089E-04
4.376931E+03	5.725834E-03	1.450689E-04
4.386834E+03	5.807321E-03	1.422125E-04
4.396736E+03	5.885349E-03	1.392321E-04
4.406639E+03	5.959250E-03	1.361220E-04
4.416541E+03	6.022835E-03	1.399914E-04
4.426444E+03	6.081021E-03	1.437375E-04
4.436346E+03	6.133337E-03	1.473425E-04
4.446249E+03	6.179537E-03	1.507938E-04
4.456151E+03	6.210917E-03	1.563506E-04
4.466054E+03	6.235307E-03	1.616854E-04
4.475957E+03	6.252609E-03	1.667811E-04
4.485859E+03	6.262650E-03	1.716189E-04
4.495762E+03	6.254084E-03	1.754859E-04
4.505664E+03	6.237277E-03	1.790331E-04
4.515567E+03	6.211968E-03	1.822396E-04
4.525469E+03	6.177784E-03	1.850805E-04
4.535372E+03	6.120666E-03	1.858254E-04
4.545274E+03	6.053405E-03	1.861727E-04
4.555177E+03	5.975299E-03	1.860910E-04
4.565080E+03	5.885775E-03	1.855519E-04
4.574982E+03	5.768873E-03	1.827492E-04
4.584885E+03	5.638869E-03	1.794809E-04
4.594787E+03	5.494832E-03	1.757124E-04
4.604690E+03	5.335694E-03	1.714044E-04
4.614592E+03	5.153637E-03	1.654139E-04
4.624495E+03	4.954813E-03	1.588975E-04
4.634398E+03	4.738171E-03	1.518228E-04
4.644300E+03	4.502631E-03	1.441562E-04
4.654203E+03	4.261308E-03	1.359751E-04
4.664105E+03	4.001002E-03	1.272465E-04
4.674008E+03	3.721119E-03	1.179568E-04
4.683910E+03	3.421500E-03	1.081058E-04
4.693813E+03	3.143579E-03	9.912846E-05
4.703715E+03	2.850523E-03	8.971108E-05
4.713618E+03	2.542928E-03	7.987466E-05
4.723521E+03	2.221234E-03	6.963517E-05
4.733423E+03	1.956799E-03	6.156126E-05
4.743326E+03	1.682548E-03	5.311782E-05
4.753228E+03	1.398544E-03	4.430423E-05
4.763131E+03	1.104778E-03	3.511761E-05
4.773033E+03	9.057856E-04	2.908234E-05
4.782936E+03	7.010539E-04	2.273257E-05
4.792838E+03	4.904657E-04	1.605978E-05
4.802741E+03	2.738751E-04	9.054403E-06
4.812644E+03	1.881533E-04	6.304743E-06
4.822546E+03	1.004305E-04	3.410242E-06
4.832449E+03	1.064624E-05	3.662675E-07
4.842351E+03	-8.125285E-05	-2.831677E-06
4.852254E+03	-4.977172E-05	-1.759272E-06
4.862156E+03	-1.773660E-05	-6.357607E-07
4.872059E+03	1.485743E-05	5.399699E-07
4.881961E+03	4.800947E-05	1.768832E-06
4.891864E+03	1.955845E-04	7.301254E-06
4.901767E+03	3.445352E-04	1.303047E-05
4.911669E+03	4.947698E-04	1.895631E-05
4.921572E+03	6.461619E-04	2.507713E-05
4.931474E+03	9.040035E-04	3.548145E-05
4.941377E+03	1.161445E-03	4.610205E-05
4.951279E+03	1.418205E-03	5.693083E-05
4.961182E+03	1.673970E-03	6.795777E-05
4.971085E+03	2.020671E-03	8.278192E-05
4.980987E+03	2.362323E-03	9.766811E-05
4.990890E+03	2.698496E-03	1.125989E-04
5.000792E+03	3.028851E-03	1.275603E-04
5.010695E+03	3.427474E-03	1.453448E-04
5.020597E+03	3.814261E-03	1.628799E-04
5.030500E+03	4.188936E-03	1.801511E-04
5.040402E+03	4.551476E-03	1.971549E-04
5.050305E+03	4.954499E-03	2.156414E-04
5.060208E+03	5.338292E-03	2.334866E-04
5.070110E+03	5.703296E-03	2.507060E-04
5.080013E+03	6.049779E-03	2.673075E-04
5.089915E+03	6.406314E-03	2.838798E-04
5.099818E+03	6.737278E-03	2.994398E-04
5.109720E+03	7.043357E-03	3.140148E-04
5.119623E+03	7.325396E-03	3.276393E-04
5.129525E+03	7.586403E-03	3.397509E-04
5.139428E+03	7.816519E-03	3.505299E-04
5.149331E+03	8.016810E-03	3.600226E-04
5.159233E+03	8.188017E-03	3.682605E-04
5.169136E+03	8.307948E-03	3.737100E-04
5.179038E+03	8.392717E-03	3.775830E-04
5.188941E+03	8.443321E-03	3.799241E-04
5.198843E+03	8.460771E-03	3.807785E-04
5.208746E+03	8.399419E-03	3.779626E-04
5.218648E+03	8.300056E-03	3.734326E-04
5.228551E+03	8.164223E-03	3.672578E-04
5.238454E+03	7.993210E-03	3.594967E-04
5.248356E+03	7.724592E-03	3.479114E-04
5.258259E+03	7.419064E-03	3.346880E-04
5.268161E+03	7.079056E-03	3.199330E-04
5.278064E+03	6.706924E-03	3.037492E-04
5.287966E+03	6.239950E-03	2.845906E-04
5.297869E+03	5.744377E-03	2.641834E-04
5.307379E+03	5.191767E-03	2.410826E-04
5.307577E+03	5.169598E-03	2.401064E-04
5.310547E+03	5.078306E-03	2.370059E-04
5.312529E+03	5.007479E-03	2.344965E-04
5.314707E+03	4.927255E-03	2.316468E-04
5.315698E+03	4.880182E-03	2.298589E-04
5.318669E+03	4.766330E-03	2.259266E-04
5.319660E+03	4.715332E-03	2.240068E-04
5.319858E+03	4.691580E-03	2.229791E-04
5.320452E+03	4.654048E-03	2.214981E-04
5.321244E+03	4.608535E-03	2.197493E-04
5.321442E+03	4.584640E-03	2.187152E-04
5.322036E+03	4.546495E-03	2.172123E-04
5.323026E+03	4.493478E-03	2.152133E-04
5.324809E+03	4.408973E-03	2.121536E-04
5.325601E+03	4.361725E-03	2.103315E-04
5.325799E+03	4.337430E-03	2.092739E-04
5.325997E+03	4.313349E-03	2.082261E-04
5.327583E+03	4.233213E-03	2.052745E-04
5.328177E+03	4.192780E-03	2.036661E-04
5.328375E+03	4.168842E-03	2.026216E-04
5.328771E+03	4.136275E-03	2.012756E-04
5.329167E+03	4.103467E-03	1.999146E-04
5.329761E+03	4.062633E-03	1.982806E-04
5.330751E+03	4.004766E-03	1.960557E-04
5.330949E+03	3.980853E-03	1.950066E-04
5.331148E+03	3.956382E-03	1.939278E-04
5.332138E+03	3.897937E-03	1.916660E-04
5.332535E+03	3.865052E-03	1.902945E-04
5.332733E+03	3.840807E-03	1.892238E-04
5.333326E+03	3.799568E-03	1.875544E-04
5.333920E+03	3.757671E-03	1.858527E-04
5.334910E+03	3.697827E-03	1.835112E-04
5.335109E+03	3.673559E-03	1.824324E-04
5.335307E+03	3.649380E-03	1.813548E-04
5.335703E+03	3.616770E-03	1.799810E-04
5.336099E+03	3.584127E-03	1.786047E-04
5.336297E+03	3.560919E-03	1.775728E-04
5.336891E+03	3.518791E-03	1.758387E-04
5.337089E+03	3.494953E-03	1.747707E-04
5.337882E+03	3.444092E-03	1.727229E-04
5.338476E+03	3.402079E-03	1.709924E-04
5.339071E+03	3.360223E-03	1.692594E-04
5.339467E+03	3.327496E-03	1.678604E-04
5.339665E+03	3.304291E-03	1.668152E-04
5.339863E+03	3.280395E-03	1.657342E-04
5.340061E+03	3.256979E-03	1.646738E-04
5.340259E+03	3.233288E-03	1.635988E-04
5.340457E+03	3.210064E-03	1.625465E-04
5.341249E+03	3.158983E-03	1.604532E-04
5.341447E+03	3.135546E-03	1.593849E-04
5.342041E+03	3.093881E-03	1.576343E-04
5.342239E+03	3.071114E-03	1.565978E-04
5.342437E+03	3.048452E-03	1.555659E-04
5.343032E+03	3.007352E-03	1.538306E-04
5.343231E+03	2.984212E-03	1.527694E-04
5.343825E+03	2.942910E-03	1.510215E-04
5.344023E+03	2.920008E-03	1.499696E-04
5.344617E+03	2.878787E-03	1.482121E-04
5.344815E+03	2.856350E-03	1.471780E-04
5.345013E+03	2.833713E-03	1.461327E-04
5.345408E+03	2.802353E-03	1.447575E-04
5.345607E+03	2.779729E-03	1.437082E-04
5.345805E+03	2.757394E-03	1.426724E-04
5.346200E+03	2.725854E-03	1.412780E-04
5.346398E+03	2.703367E-03	1.402322E-04
5.346596E+03	2.681463E-03	1.392130E-04
5.346795E+03	2.659701E-03	1.382003E-04
5.346993E+03	2.637831E-03	1.371811E-04
5.347389E+03	2.606995E-03	1.358123E-04
5.347587E+03	2.585825E-03	1.348244E-04
5.347785E+03	2.564139E-03	1.338087E-04
5.347983E+03	2.542434E-03	1.327911E-04
5.348578E+03	2.502601E-03	1.310575E-04
5.348776E+03	2.481540E-03	1.300670E-04
5.349172E+03	2.451548E-03	1.287203E-04
5.349964E+03	2.403348E-03	1.266441E-04
5.350162E+03	2.382513E-03	1.256616E-04
5.350559E+03	2.352510E-03	1.243004E-04
5.350757E+03	2.331550E-03	1.233041E-04
5.351153E+03	2.301788E-03	1.219531E-04
5.351747E+03	2.263079E-03	1.202393E-04
5.351945E+03	2.242458E-03	1.192530E-04
5.352341E+03	2.212912E-03	1.179008E-04
5.352539E+03	2.192449E-03	1.169207E-04
5.352737E+03	2.172434E-03	1.159636E-04
5.352935E+03	2.152146E-03	1.149869E-04
5.353133E+03	2.131964E-03	1.140151E-04
5.353331E+03	2.112182E-03	1.130637E-04
5.354124E+03	2.065824E-03	1.110106E-04
5.354521E+03	2.037458E-03	1.096958E-04
5.354719E+03	2.017937E-03	1.087501E-04
5.354917E+03	1.998450E-03	1.078054E-04
5.355115E+03	1.979179E-03	1.068715E-04
5.355511E+03	1.951462E-03	1.055794E-04
5.355709E+03	1.932451E-03	1.046539E-04
5.355907E+03	1.913372E-03	1.037238E-04
5.356105E+03	1.894334E-03	1.027949E-04
5.356699E+03	1.857713E-03	1.011062E-04
5.356897E+03	1.838938E-03	1.001851E-04
5.357095E+03	1.820438E-03	9.927807E-05
5.357292E+03	1.801829E-03	9.836376E-05
5.357490E+03	1.783445E-03	9.745713E-05
5.357688E+03	1.765199E-03	9.655721E-05
5.357887E+03	1.746874E-03	9.565260E-05
5.358283E+03	1.720487E-03	9.440227E-05
5.358679E+03	1.694385E-03	9.315830E-05
5.358877E+03	1.676519E-03	9.227081E-05
5.359274E+03	1.650186E-03	9.101206E-05
5.359472E+03	1.632273E-03	9.011986E-05
5.359868E+03	1.606348E-03	8.887111E-05
5.360066E+03	1.588720E-03	8.798784E-05
5.360462E+03	1.562946E-03	8.674477E-05
5.360660E+03	1.545841E-03	8.588838E-05
5.361056E+03	1.520457E-03	8.465560E-05
5.361254E+03	1.503599E-03	8.380646E-05
5.361452E+03	1.486815E-03	8.296064E-05
5.361650E+03	1.470107E-03	8.211821E-05
5.361848E+03	1.453447E-03	8.127392E-05
5.362046E+03	1.436982E-03	8.043972E-05
5.362245E+03	1.420561E-03	7.960717E-05
5.362443E+03	1.404042E-03	7.876823E-05
5.362641E+03	1.387871E-03	7.794391E-05
5.363235E+03	1.355803E-03	7.639247E-05
5.363433E+03	1.339725E-03	7.557105E-05
5.363631E+03	1.323813E-03	7.475808E-05
5.364027E+03	1.300365E-03	7.359299E-05
5.364423E+03	1.277003E-03	7.243142E-05
5.364622E+03	1.261554E-03	7.163659E-05
5.365018E+03	1.238417E-03	7.048531E-05
5.365216E+03	1.223206E-03	6.969703E-05
5.365414E+03	1.208447E-03	6.893373E-05
5.365612E+03	1.193573E-03	6.816306E-05
5.365810E+03	1.178776E-03	6.739602E-05
5.366008E+03	1.163980E-03	6.662487E-05
5.366207E+03	1.149287E-03	6.585882E-05
5.366405E+03	1.135007E-03	6.511570E-05
5.366603E+03	1.120570E-03	6.436275E-05
5.367197E+03	1.091323E-03	6.289458E-05
5.367593E+03	1.069785E-03	6.179714E-05
5.367989E+03	1.048341E-03	6.070381E-05
5.368187E+03	1.034232E-03	5.996026E-05
5.368385E+03	1.020444E-03	5.922947E-05
5.368583E+03	1.006998E-03	5.851776E-05
5.368781E+03	9.935529E-04	5.780538E-05
5.368979E+03	9.800647E-04	5.708975E-05
5.369177E+03	9.666141E-04	5.637212E-05
5.369374E+03	9.535386E-04	5.567532E-05
5.369572E+03	9.405897E-04	5.498553E-05
5.369770E+03	9.276915E-04	5.429800E-05
5.369970E+03	9.145625E-04	5.359312E-05
5.370169E+03	9.015160E-04	5.289234E-05
5.370366E+03	8.887331E-04	5.220566E-05
5.370564E+03	8.761688E-04	5.153142E-05
5.370762E+03	8.638219E-04	5.086586E-05
5.370960E+03	8.513714E-04	5.019351E-05
5.371158E+03	8.391492E-04	4.953394E-05
5.371356E+03	8.270659E-04	4.888189E-05
5.371752E+03	8.083486E-04	4.789093E-05
5.371950E+03	7.964986E-04	4.724723E-05
5.372148E+03	7.845320E-04	4.659596E-05
5.372346E+03	7.728921E-04	4.596341E-05
5.372742E+03	7.548956E-04	4.500278E-05
5.372940E+03	7.436514E-04	4.438800E-05
5.373138E+03	7.324768E-04	4.377678E-05
5.373336E+03	7.212925E-04	4.316434E-05
5.373534E+03	7.102757E-04	4.255747E-05
5.373732E+03	6.992700E-04	4.195066E-05
5.373931E+03	6.883161E-04	4.134635E-05
5.374129E+03	6.775302E-04	4.075152E-05
5.374327E+03	6.666388E-04	4.014633E-05
5.374525E+03	6.560474E-04	3.955859E-05
5.374723E+03	6.455634E-04	3.897677E-05
5.374921E+03	6.351312E-04	3.839747E-05
5.375119E+03	6.247654E-04	3.781821E-05
5.375317E+03	6.144519E-04	3.724155E-05
5.375516E+03	6.043955E-04	3.668015E-05
5.375714E+03	5.944193E-04	3.612281E-05
5.375912E+03	5.844650E-04	3.556203E-05
5.376110E+03	5.745274E-04	3.500171E-05
5.376704E+03	5.530893E-04	3.382962E-05
5.376902E+03	5.436197E-04	3.329635E-05
5.377100E+03	5.341914E-04	3.276085E-05
5.377298E+03	5.248791E-04	3.223198E-05
5.377496E+03	5.156492E-04	3.170766E-05
5.377694E+03	5.064857E-04	3.118691E-05
5.377893E+03	4.974061E-04	3.066747E-05
5.378091E+03	4.885803E-04	3.016321E-05
5.378289E+03	4.797244E-04	2.965662E-05
5.378487E+03	4.708879E-04	2.915075E-05
5.378685E+03	4.621810E-04	2.864907E-05
5.378883E+03	4.534642E-04	2.814632E-05
5.379081E+03	4.449327E-04	2.765460E-05
5.379279E+03	4.365392E-04	2.717100E-05
5.379675E+03	4.228381E-04	2.638754E-05
5.379873E+03	4.147045E-04	2.591535E-05
5.380071E+03	4.066182E-04	2.544569E-05
5.380269E+03	3.986625E-04	2.498379E-05
5.380467E+03	3.906967E-04	2.451709E-05
5.380665E+03	3.828600E-04	2.405810E-05
5.380864E+03	3.750852E-04	2.360277E-05
5.381062E+03	3.673976E-04	2.315236E-05
5.381260E+03	3.596506E-04	2.269449E-05
5.381458E+03	3.520943E-04	2.224827E-05
5.381656E+03	3.446639E-04	2.180946E-05
5.381854E+03	3.372070E-04	2.136875E-05
5.382052E+03	3.300255E-04	2.094184E-05
5.382251E+03	3.228753E-04	2.051673E-05
5.382449E+03	3.158439E-04	2.009868E-05
5.382646E+03	3.088031E-04	1.967953E-05
5.382844E+03	3.018624E-04	1.926331E-05
5.383042E+03	2.949911E-04	1.885119E-05
5.383240E+03	2.883313E-04	1.845228E-05
5.383438E+03	2.816713E-04	1.805304E-05
5.383636E+03	2.750773E-04	1.765448E-05
5.383834E+03	2.685497E-04	1.725990E-05
5.384032E+03	2.620368E-04	1.686595E-05
5.384230E+03	2.557321E-04	1.648511E-05
5.384428E+03	2.494621E-04	1.610301E-05
5.384626E+03	2.431970E-04	1.572096E-05
5.384824E+03	2.371018E-04	1.534961E-05
5.385022E+03	2.311046E-04	1.498436E-05
5.385220E+03	2.251707E-04	1.461977E-05
5.385418E+03	2.193408E-04	1.426170E-05
5.385617E+03	2.135154E-04	1.390369E-05
5.385815E+03	2.076717E-04	1.354423E-05
5.386013E+03	2.020052E-04	1.319294E-05
5.386212E+03	1.962757E-04	1.283739E-05
5.386410E+03	1.907340E-04	1.249380E-05
5.386608E+03	1.851857E-04	1.214955E-05
5.386806E+03	1.797272E-04	1.180783E-05
5.387004E+03	1.743418E-04	1.147072E-05
5.387202E+03	1.690134E-04	1.113715E-05
5.387400E+03	1.637486E-04	1.080756E-05
5.387598E+03	1.586053E-04	1.048269E-05
