#wls	flux	fluxerr
1.584409E+03	1.143747E-04	1.618920E-04
1.624020E+03	1.124574E-04	1.554668E-04
1.663630E+03	1.085264E-04	1.466318E-04
1.703240E+03	1.023349E-04	1.352175E-04
1.742850E+03	9.362690E-05	1.210560E-04
1.782461E+03	7.491431E-05	9.461116E-05
1.822071E+03	5.193019E-05	6.409457E-05
1.861681E+03	2.426896E-05	2.928853E-05
1.901291E+03	-8.498904E-06	-1.003382E-05
1.940902E+03	-5.680190E-05	-6.549004E-05
1.980512E+03	-1.123267E-04	-1.265278E-04
2.020122E+03	-1.755742E-04	-1.932980E-04
2.059732E+03	-2.469725E-04	-2.658561E-04
2.099342E+03	-3.362034E-04	-3.532657E-04
2.138953E+03	-4.348190E-04	-4.461107E-04
2.178563E+03	-5.428429E-04	-5.439655E-04
2.218173E+03	-6.602889E-04	-6.464235E-04
2.257783E+03	-7.919770E-04	-7.562297E-04
2.297394E+03	-9.321751E-04	-8.683242E-04
2.337004E+03	-1.080731E-03	-9.822595E-04
2.376614E+03	-1.237622E-03	-1.097735E-03
2.416224E+03	-1.400060E-03	-1.209804E-03
2.455835E+03	-1.569139E-03	-1.321056E-03
2.495445E+03	-1.744975E-03	-1.431428E-03
2.535055E+03	-1.927685E-03	-1.540856E-03
2.574665E+03	-2.102516E-03	-1.634693E-03
2.614276E+03	-2.280992E-03	-1.724901E-03
2.653886E+03	-2.462767E-03	-1.811234E-03
2.693496E+03	-2.647568E-03	-1.893531E-03
2.733106E+03	-2.805299E-03	-1.947377E-03
2.772716E+03	-2.961188E-03	-1.994710E-03
2.812327E+03	-3.114586E-03	-2.035388E-03
2.851937E+03	-3.265236E-03	-2.069556E-03
2.891547E+03	-3.370987E-03	-2.068195E-03
2.931157E+03	-3.469717E-03	-2.059703E-03
2.970768E+03	-3.561594E-03	-2.044670E-03
2.980670E+03	-3.583534E-03	-2.039969E-03
2.990573E+03	-3.597364E-03	-2.030069E-03
3.000475E+03	-3.610620E-03	-2.019789E-03
3.010378E+03	-3.623379E-03	-2.009179E-03
3.020280E+03	-3.635633E-03	-1.998243E-03
3.030183E+03	-3.643376E-03	-1.984589E-03
3.040086E+03	-3.650554E-03	-1.970627E-03
3.049988E+03	-3.657162E-03	-1.956364E-03
3.059891E+03	-3.663199E-03	-1.941806E-03
3.069793E+03	-3.664468E-03	-1.924548E-03
3.079696E+03	-3.665189E-03	-1.907062E-03
3.089598E+03	-3.665282E-03	-1.889315E-03
3.099501E+03	-3.664895E-03	-1.871391E-03
3.109403E+03	-3.659349E-03	-1.850728E-03
3.119306E+03	-3.653201E-03	-1.829884E-03
3.129209E+03	-3.646520E-03	-1.808900E-03
3.139111E+03	-3.639230E-03	-1.787746E-03
3.149014E+03	-3.626612E-03	-1.763944E-03
3.158916E+03	-3.613339E-03	-1.740009E-03
3.168819E+03	-3.599472E-03	-1.715981E-03
3.178721E+03	-3.585001E-03	-1.691861E-03
3.188624E+03	-3.564824E-03	-1.665094E-03
3.198526E+03	-3.543994E-03	-1.638276E-03
3.208429E+03	-3.522498E-03	-1.611411E-03
3.218332E+03	-3.500322E-03	-1.584499E-03
3.228234E+03	-3.472186E-03	-1.555017E-03
3.238137E+03	-3.443312E-03	-1.525531E-03
3.248039E+03	-3.413682E-03	-1.496041E-03
3.257942E+03	-3.383220E-03	-1.466525E-03
3.267844E+03	-3.346524E-03	-1.434521E-03
3.277747E+03	-3.308930E-03	-1.402537E-03
3.287650E+03	-3.270465E-03	-1.370593E-03
3.297552E+03	-3.231051E-03	-1.338668E-03
3.307455E+03	-3.185006E-03	-1.304307E-03
3.317357E+03	-3.137982E-03	-1.270032E-03
3.327260E+03	-3.089846E-03	-1.235802E-03
3.337162E+03	-3.040648E-03	-1.201650E-03
3.347065E+03	-2.984358E-03	-1.165113E-03
3.356967E+03	-2.926862E-03	-1.128684E-03
3.366870E+03	-2.868104E-03	-1.092358E-03
3.376773E+03	-2.807943E-03	-1.056096E-03
3.386675E+03	-2.740329E-03	-1.017564E-03
3.396578E+03	-2.671191E-03	-9.791498E-04
3.406480E+03	-2.600459E-03	-9.408459E-04
3.416383E+03	-2.528057E-03	-9.026459E-04
3.426285E+03	-2.447659E-03	-8.622538E-04
3.436188E+03	-2.365445E-03	-8.220219E-04
3.446090E+03	-2.281265E-03	-7.819214E-04
3.455993E+03	-2.195027E-03	-7.419469E-04
3.465896E+03	-2.100281E-03	-6.999057E-04
3.475798E+03	-2.003318E-03	-6.580574E-04
3.485701E+03	-1.903982E-03	-6.163803E-04
3.495603E+03	-1.802142E-03	-5.748642E-04
3.505506E+03	-1.691316E-03	-5.314535E-04
3.515408E+03	-1.577786E-03	-4.882742E-04
3.525311E+03	-1.461438E-03	-4.453274E-04
3.535213E+03	-1.342156E-03	-4.026157E-04
3.545116E+03	-1.213389E-03	-3.582110E-04
3.555019E+03	-1.081511E-03	-3.141363E-04
3.564921E+03	-9.463806E-04	-2.703927E-04
3.574824E+03	-8.078747E-04	-2.269891E-04
3.584726E+03	-6.595448E-04	-1.821741E-04
3.594629E+03	-5.077255E-04	-1.378264E-04
3.604531E+03	-3.523212E-04	-9.396776E-05
3.614434E+03	-1.932223E-04	-5.061809E-05
3.624337E+03	-2.425359E-05	-6.238297E-06
3.634239E+03	1.484074E-04	3.746674E-05
3.644142E+03	3.248307E-04	8.046406E-05
3.654044E+03	5.050784E-04	1.227174E-04
3.663947E+03	6.939442E-04	1.653060E-04
3.673849E+03	8.864552E-04	2.069524E-04
3.683752E+03	1.082626E-03	2.476099E-04
3.693654E+03	1.282441E-03	2.872250E-04
3.703557E+03	1.488559E-03	3.263145E-04
3.713460E+03	1.697924E-03	3.641452E-04
3.723362E+03	1.910490E-03	4.006620E-04
3.733265E+03	2.126208E-03	4.358111E-04
3.743167E+03	2.345215E-03	4.695653E-04
3.753070E+03	2.566743E-03	5.017350E-04
3.762972E+03	2.790618E-03	5.322517E-04
3.772875E+03	3.016718E-03	5.610599E-04
3.782777E+03	3.242572E-03	5.876897E-04
3.792680E+03	3.469775E-03	6.124147E-04
3.802583E+03	3.698118E-03	6.351802E-04
3.812485E+03	3.927404E-03	6.559367E-04
3.822388E+03	4.152289E-03	6.738541E-04
3.832290E+03	4.377069E-03	6.896209E-04
3.842193E+03	4.601423E-03	7.031889E-04
3.852095E+03	4.825089E-03	7.145243E-04
3.861998E+03	5.039834E-03	7.225831E-04
3.871900E+03	5.252696E-03	7.283433E-04
3.881803E+03	5.463388E-03	7.317918E-04
3.891706E+03	5.671517E-03	7.329065E-04
3.901608E+03	5.865975E-03	7.306017E-04
3.911511E+03	6.056730E-03	7.260102E-04
3.921413E+03	6.243314E-03	7.191282E-04
3.931316E+03	6.425529E-03	7.099900E-04
3.941218E+03	6.589399E-03	6.976816E-04
3.951121E+03	6.747689E-03	6.832606E-04
3.961024E+03	6.900114E-03	6.667744E-04
3.970926E+03	7.046289E-03	6.482664E-04
3.980829E+03	7.169897E-03	6.273697E-04
3.990731E+03	7.286427E-03	6.047269E-04
4.000634E+03	7.395615E-03	5.804106E-04
4.010536E+03	7.497130E-03	5.544936E-04
4.020439E+03	7.572523E-03	5.277818E-04
4.030341E+03	7.639767E-03	4.998385E-04
4.040244E+03	7.698679E-03	4.707552E-04
4.050147E+03	7.749097E-03	4.406283E-04
4.060049E+03	7.770795E-03	4.129759E-04
4.069952E+03	7.783890E-03	3.846790E-04
4.079854E+03	7.788265E-03	3.558277E-04
4.089757E+03	7.783940E-03	3.265202E-04
4.099659E+03	7.749613E-03	3.068111E-04
4.109562E+03	7.706935E-03	2.869107E-04
4.119464E+03	7.655989E-03	2.668815E-04
4.129367E+03	7.596872E-03	2.467862E-04
4.139270E+03	7.507981E-03	2.457056E-04
4.149172E+03	7.411765E-03	2.443454E-04
4.159075E+03	7.308508E-03	2.427096E-04
4.168977E+03	7.198513E-03	2.408031E-04
4.178880E+03	7.061742E-03	2.538148E-04
4.188782E+03	6.919563E-03	2.659869E-04
4.198685E+03	6.772259E-03	2.772877E-04
4.208587E+03	6.620243E-03	2.876936E-04
4.218490E+03	6.447659E-03	3.023606E-04
4.228393E+03	6.271882E-03	3.157438E-04
4.238295E+03	6.093415E-03	3.278320E-04
4.248198E+03	5.912491E-03	3.386057E-04
4.258100E+03	5.717504E-03	3.487512E-04
4.268003E+03	5.521731E-03	3.574518E-04
4.277905E+03	5.325552E-03	3.647185E-04
4.287808E+03	5.129310E-03	3.705654E-04
4.297711E+03	4.925817E-03	3.743733E-04
4.307613E+03	4.723705E-03	3.768117E-04
4.317516E+03	4.523275E-03	3.779153E-04
4.327418E+03	4.324983E-03	3.777368E-04
4.337321E+03	4.126351E-03	3.755488E-04
4.347223E+03	3.930933E-03	3.722445E-04
4.357126E+03	3.738925E-03	3.678729E-04
4.367028E+03	3.550523E-03	3.624863E-04
4.376931E+03	3.367198E-03	3.556653E-04
4.386834E+03	3.187976E-03	3.480257E-04
4.396736E+03	3.012975E-03	3.396197E-04
4.406639E+03	2.842313E-03	3.305013E-04
4.416541E+03	2.680701E-03	3.207092E-04
4.426444E+03	2.523658E-03	3.104145E-04
4.436346E+03	2.371302E-03	2.996742E-04
4.446249E+03	2.223750E-03	2.885474E-04
4.456151E+03	2.086702E-03	2.773574E-04
4.466054E+03	1.954384E-03	2.659588E-04
4.475957E+03	1.826877E-03	2.544053E-04
4.485859E+03	1.704224E-03	2.427459E-04
4.495762E+03	1.591949E-03	2.314429E-04
4.505664E+03	1.484213E-03	2.201608E-04
4.515567E+03	1.381021E-03	2.089385E-04
4.525469E+03	1.282343E-03	1.978098E-04
4.535372E+03	1.193327E-03	1.873241E-04
4.545274E+03	1.108384E-03	1.770104E-04
4.555177E+03	1.027423E-03	1.668854E-04
4.565080E+03	9.503854E-04	1.569714E-04
4.574982E+03	8.819884E-04	1.478665E-04
4.584885E+03	8.169917E-04	1.390034E-04
4.594787E+03	7.553127E-04	1.303925E-04
4.604690E+03	6.968502E-04	1.220402E-04
4.614592E+03	6.458550E-04	1.145589E-04
4.624495E+03	5.975443E-04	1.073328E-04
4.634398E+03	5.518395E-04	1.003652E-04
4.644300E+03	5.086468E-04	9.365593E-05
4.654203E+03	4.717385E-04	8.780361E-05
4.664105E+03	4.368428E-04	8.218324E-05
4.674008E+03	4.038847E-04	7.679242E-05
4.683910E+03	3.727811E-04	7.162663E-05
4.693813E+03	3.468754E-04	6.725767E-05
4.703715E+03	3.223855E-04	6.307526E-05
4.713618E+03	2.992534E-04	5.907532E-05
4.723521E+03	2.774189E-04	5.525292E-05
4.733423E+03	2.598299E-04	5.214218E-05
4.743326E+03	2.431758E-04	4.916750E-05
4.753228E+03	2.274124E-04	4.632411E-05
4.763131E+03	2.125002E-04	4.360792E-05
4.773033E+03	2.010489E-04	4.151332E-05
4.782936E+03	1.901574E-04	3.950596E-05
4.792838E+03	1.797999E-04	3.758262E-05
4.802741E+03	1.699571E-04	3.574121E-05
4.812644E+03	1.629360E-04	3.443368E-05
4.822546E+03	1.561985E-04	3.317179E-05
4.832449E+03	1.497327E-04	3.195388E-05
4.842351E+03	1.435301E-04	3.077900E-05
4.852254E+03	1.396450E-04	3.005955E-05
4.862156E+03	1.358442E-04	2.935193E-05
4.872059E+03	1.321275E-04	2.865631E-05
4.881961E+03	1.284932E-04	2.797252E-05
4.891864E+03	1.267834E-04	2.767694E-05
4.901767E+03	1.250202E-04	2.736753E-05
4.911669E+03	1.232114E-04	2.704592E-05
4.921572E+03	1.213606E-04	2.671283E-05
4.931474E+03	1.211303E-04	2.671200E-05
4.941377E+03	1.207550E-04	2.667889E-05
4.951279E+03	1.202467E-04	2.661597E-05
4.961182E+03	1.196143E-04	2.652504E-05
4.971085E+03	1.203697E-04	2.672137E-05
4.980987E+03	1.209245E-04	2.687343E-05
4.990890E+03	1.212893E-04	2.698340E-05
5.000792E+03	1.214774E-04	2.705417E-05
5.010695E+03	1.228786E-04	2.737738E-05
5.020597E+03	1.240447E-04	2.764841E-05
5.030500E+03	1.249871E-04	2.786973E-05
5.040402E+03	1.257211E-04	2.804474E-05
5.050305E+03	1.275404E-04	2.844664E-05
5.060208E+03	1.291037E-04	2.879136E-05
5.070110E+03	1.304284E-04	2.908278E-05
5.080013E+03	1.315248E-04	2.932324E-05
5.089915E+03	1.336120E-04	2.977229E-05
5.099818E+03	1.354378E-04	3.016267E-05
5.109720E+03	1.370135E-04	3.049699E-05
5.119623E+03	1.383526E-04	3.077834E-05
5.129525E+03	1.406179E-04	3.125696E-05
5.139428E+03	1.426201E-04	3.167644E-05
5.149331E+03	1.443707E-04	3.203944E-05
5.159233E+03	1.458776E-04	3.234784E-05
5.169136E+03	1.482679E-04	3.284771E-05
5.179038E+03	1.503971E-04	3.328893E-05
5.188941E+03	1.522733E-04	3.367346E-05
5.198843E+03	1.539055E-04	3.400347E-05
5.208746E+03	1.563485E-04	3.451329E-05
5.218648E+03	1.585341E-04	3.496555E-05
5.228551E+03	1.604715E-04	3.536243E-05
5.238454E+03	1.621650E-04	3.570499E-05
5.248356E+03	1.645834E-04	3.621377E-05
5.258259E+03	1.667505E-04	3.666672E-05
5.268161E+03	1.686734E-04	3.706551E-05
5.278064E+03	1.703555E-04	3.741097E-05
5.287966E+03	1.725882E-04	3.788822E-05
5.297869E+03	1.745787E-04	3.831205E-05
5.307379E+03	1.763644E-03	3.869122E-04
5.307577E+03	1.757380E-03	3.855355E-04
5.310547E+03	1.751487E-03	3.842273E-04
5.312529E+03	1.745333E-03	3.828673E-04
5.314707E+03	1.738821E-03	3.814277E-04
5.315698E+03	1.732327E-03	3.799979E-04
5.318669E+03	1.725713E-03	3.785411E-04
5.319660E+03	1.719259E-03	3.771234E-04
5.319858E+03	1.713043E-03	3.757596E-04
5.320452E+03	1.706674E-03	3.743613E-04
5.321244E+03	1.700154E-03	3.729310E-04
5.321442E+03	1.693916E-03	3.715627E-04
5.322036E+03	1.687595E-03	3.701759E-04
5.323026E+03	1.681066E-03	3.687435E-04
5.324809E+03	1.674280E-03	3.672571E-04
5.325601E+03	1.667807E-03	3.658381E-04
5.325799E+03	1.661423E-03	3.644380E-04
5.325997E+03	1.655097E-03	3.630506E-04
5.327583E+03	1.648184E-03	3.615382E-04
5.328177E+03	1.641673E-03	3.601113E-04
5.328375E+03	1.635407E-03	3.587373E-04
5.328771E+03	1.628847E-03	3.572995E-04
5.329167E+03	1.622239E-03	3.558514E-04
5.329761E+03	1.615652E-03	3.544087E-04
5.330751E+03	1.608844E-03	3.529188E-04
5.330949E+03	1.602526E-03	3.515337E-04
5.331148E+03	1.595985E-03	3.500997E-04
5.332138E+03	1.589114E-03	3.485968E-04
5.332535E+03	1.582537E-03	3.471558E-04
5.332733E+03	1.576028E-03	3.457289E-04
5.333326E+03	1.569420E-03	3.442826E-04
5.333920E+03	1.562598E-03	3.427893E-04
5.334910E+03	1.555475E-03	3.412320E-04
5.335109E+03	1.548878E-03	3.397858E-04
5.335307E+03	1.542307E-03	3.383456E-04
5.335703E+03	1.535798E-03	3.369202E-04
5.336099E+03	1.529265E-03	3.354893E-04
5.336297E+03	1.523044E-03	3.341258E-04
5.336891E+03	1.516134E-03	3.326140E-04
5.337089E+03	1.509603E-03	3.311826E-04
5.337882E+03	1.502713E-03	3.296765E-04
5.338476E+03	1.495855E-03	3.281760E-04
5.339071E+03	1.489089E-03	3.266960E-04
5.339467E+03	1.482435E-03	3.252391E-04
5.339665E+03	1.476045E-03	3.238388E-04
5.339863E+03	1.469321E-03	3.223650E-04
5.340061E+03	1.462788E-03	3.209333E-04
5.340259E+03	1.456109E-03	3.194696E-04
5.340457E+03	1.449617E-03	3.180468E-04
5.341249E+03	1.442496E-03	3.164907E-04
5.341447E+03	1.435837E-03	3.150316E-04
5.342041E+03	1.428946E-03	3.135245E-04
5.342239E+03	1.422536E-03	3.121198E-04
5.342437E+03	1.416144E-03	3.107191E-04
5.343032E+03	1.409414E-03	3.092479E-04
5.343231E+03	1.402754E-03	3.077883E-04
5.343825E+03	1.395890E-03	3.062876E-04
5.344023E+03	1.389249E-03	3.048322E-04
5.344617E+03	1.382342E-03	3.033222E-04
5.344815E+03	1.375850E-03	3.018996E-04
5.345013E+03	1.369233E-03	3.004496E-04
5.345408E+03	1.362637E-03	2.990058E-04
5.345607E+03	1.355984E-03	2.975479E-04
5.345805E+03	1.349411E-03	2.961075E-04
5.346200E+03	1.342612E-03	2.946193E-04
5.346398E+03	1.335891E-03	2.931466E-04
5.346596E+03	1.329423E-03	2.917292E-04
5.346795E+03	1.322997E-03	2.903210E-04
5.346993E+03	1.316488E-03	2.888947E-04
5.347389E+03	1.309856E-03	2.874432E-04
5.347587E+03	1.303618E-03	2.860765E-04
5.347785E+03	1.297091E-03	2.846462E-04
5.347983E+03	1.290522E-03	2.832067E-04
5.348578E+03	1.283597E-03	2.816930E-04
5.348776E+03	1.277258E-03	2.803040E-04
5.349172E+03	1.270775E-03	2.788853E-04
5.349964E+03	1.263888E-03	2.773825E-04
5.350162E+03	1.257526E-03	2.759883E-04
5.350559E+03	1.250875E-03	2.745328E-04
5.350757E+03	1.244352E-03	2.731035E-04
5.351153E+03	1.237741E-03	2.716569E-04
5.351747E+03	1.230950E-03	2.701728E-04
5.351945E+03	1.224450E-03	2.687485E-04
5.352341E+03	1.217777E-03	2.672884E-04
5.352539E+03	1.211278E-03	2.658642E-04
5.352737E+03	1.204986E-03	2.644853E-04
5.352935E+03	1.198490E-03	2.630618E-04
5.353133E+03	1.192016E-03	2.616431E-04
5.353331E+03	1.185729E-03	2.602653E-04
5.354124E+03	1.178905E-03	2.587765E-04
5.354521E+03	1.172463E-03	2.573672E-04
5.354719E+03	1.166136E-03	2.559807E-04
5.354917E+03	1.159790E-03	2.545900E-04
5.355115E+03	1.153526E-03	2.532172E-04
5.355511E+03	1.147210E-03	2.518354E-04
5.355709E+03	1.140991E-03	2.504725E-04
5.355907E+03	1.134690E-03	2.490917E-04
5.356105E+03	1.128368E-03	2.477062E-04
5.356699E+03	1.121463E-03	2.461976E-04
5.356897E+03	1.115166E-03	2.448175E-04
5.357095E+03	1.108994E-03	2.434648E-04
5.357292E+03	1.102674E-03	2.420796E-04
5.357490E+03	1.096463E-03	2.407186E-04
5.357688E+03	1.090294E-03	2.393666E-04
5.357887E+03	1.084068E-03	2.380020E-04
5.358283E+03	1.077798E-03	2.366302E-04
5.358679E+03	1.071638E-03	2.352827E-04
5.358877E+03	1.065474E-03	2.339317E-04
5.359274E+03	1.059068E-03	2.325299E-04
5.359472E+03	1.052761E-03	2.311477E-04
5.359868E+03	1.046400E-03	2.297558E-04
5.360066E+03	1.040139E-03	2.283836E-04
5.360462E+03	1.033738E-03	2.269830E-04
5.360660E+03	1.027704E-03	2.256604E-04
5.361056E+03	1.021369E-03	2.242742E-04
5.361254E+03	1.015360E-03	2.229572E-04
5.361452E+03	1.009352E-03	2.216404E-04
5.361650E+03	1.003344E-03	2.203235E-04
5.361848E+03	9.972989E-04	2.189985E-04
5.362046E+03	9.913364E-04	2.176916E-04
5.362245E+03	9.853541E-04	2.163803E-04
5.362443E+03	9.792497E-04	2.150422E-04
5.362641E+03	9.733123E-04	2.137408E-04
5.363235E+03	9.669133E-04	2.123428E-04
5.363433E+03	9.608966E-04	2.110239E-04
5.363631E+03	9.549412E-04	2.097184E-04
5.364027E+03	9.489125E-04	2.083994E-04
5.364423E+03	9.428645E-04	2.070760E-04
5.364622E+03	9.370376E-04	2.057987E-04
5.365018E+03	9.309888E-04	2.044750E-04
5.365216E+03	9.251468E-04	2.031944E-04
5.365414E+03	9.195914E-04	2.019766E-04
5.365612E+03	9.138950E-04	2.007279E-04
5.365810E+03	9.081981E-04	1.994791E-04
5.366008E+03	9.024229E-04	1.982130E-04
5.366207E+03	8.966694E-04	1.969517E-04
5.366405E+03	8.911828E-04	1.957490E-04
5.366603E+03	8.855122E-04	1.945058E-04
5.367197E+03	8.793685E-04	1.931637E-04
5.367593E+03	8.735454E-04	1.918894E-04
5.367989E+03	8.677031E-04	1.906108E-04
5.368187E+03	8.619183E-04	1.893424E-04
5.368385E+03	8.563002E-04	1.881107E-04
5.368583E+03	8.509074E-04	1.869285E-04
5.368781E+03	8.454547E-04	1.857330E-04
5.368979E+03	8.399015E-04	1.845154E-04
5.369177E+03	8.342900E-04	1.832851E-04
5.369374E+03	8.289010E-04	1.821035E-04
5.369572E+03	8.235972E-04	1.809407E-04
5.369770E+03	8.182740E-04	1.797736E-04
5.369970E+03	8.126915E-04	1.785495E-04
5.370169E+03	8.071067E-04	1.773249E-04
5.370366E+03	8.016250E-04	1.761229E-04
5.370564E+03	7.963080E-04	1.749570E-04
5.370762E+03	7.910957E-04	1.738142E-04
5.370960E+03	7.857225E-04	1.726360E-04
5.371158E+03	7.804923E-04	1.714892E-04
5.371356E+03	7.753244E-04	1.703560E-04
5.371752E+03	7.699078E-04	1.691705E-04
5.371950E+03	7.647645E-04	1.680427E-04
5.372148E+03	7.594404E-04	1.668751E-04
5.372346E+03	7.543605E-04	1.657612E-04
5.372742E+03	7.491555E-04	1.646221E-04
5.372940E+03	7.442625E-04	1.635492E-04
5.373138E+03	7.393713E-04	1.624767E-04
5.373336E+03	7.344000E-04	1.613865E-04
5.373534E+03	7.294917E-04	1.603102E-04
5.373732E+03	7.245247E-04	1.592209E-04
5.373931E+03	7.195386E-04	1.581274E-04
5.374129E+03	7.146547E-04	1.570564E-04
5.374327E+03	7.095508E-04	1.559370E-04
5.374525E+03	7.046913E-04	1.548713E-04
5.374723E+03	6.998743E-04	1.538148E-04
5.374921E+03	6.950377E-04	1.527541E-04
5.375119E+03	6.901630E-04	1.516850E-04
5.375317E+03	6.852700E-04	1.506118E-04
5.375516E+03	6.806200E-04	1.495920E-04
5.375714E+03	6.759516E-04	1.485682E-04
5.375912E+03	6.711845E-04	1.475226E-04
5.376110E+03	6.663593E-04	1.464642E-04
5.376704E+03	6.613970E-04	1.453801E-04
5.376902E+03	6.568977E-04	1.443933E-04
5.377100E+03	6.523205E-04	1.433893E-04
5.377298E+03	6.478052E-04	1.423990E-04
5.377496E+03	6.433116E-04	1.414133E-04
5.377694E+03	6.388193E-04	1.404280E-04
5.377893E+03	6.343090E-04	1.394387E-04
5.378091E+03	6.300420E-04	1.385028E-04
5.378289E+03	6.256556E-04	1.375407E-04
5.378487E+03	6.212099E-04	1.365655E-04
5.378685E+03	6.168070E-04	1.355996E-04
5.378883E+03	6.123051E-04	1.346120E-04
5.379081E+03	6.079655E-04	1.336601E-04
5.379279E+03	6.037277E-04	1.327305E-04
5.379675E+03	5.992597E-04	1.317524E-04
5.379873E+03	5.951268E-04	1.308458E-04
5.380071E+03	5.909754E-04	1.299351E-04
5.380269E+03	5.869253E-04	1.290467E-04
5.380467E+03	5.827170E-04	1.281235E-04
5.380665E+03	5.786106E-04	1.272227E-04
5.380864E+03	5.745451E-04	1.263308E-04
5.381062E+03	5.704815E-04	1.254393E-04
5.381260E+03	5.661793E-04	1.244954E-04
5.381458E+03	5.620796E-04	1.235959E-04
5.381656E+03	5.580401E-04	1.227097E-04
5.381854E+03	5.539028E-04	1.218019E-04
5.382052E+03	5.500686E-04	1.209608E-04
5.382251E+03	5.462370E-04	1.201202E-04
5.382449E+03	5.424657E-04	1.192928E-04
5.382646E+03	5.385342E-04	1.184302E-04
5.382844E+03	5.346660E-04	1.175815E-04
5.383042E+03	5.308193E-04	1.167375E-04
5.383240E+03	5.272544E-04	1.159554E-04
5.383438E+03	5.235903E-04	1.151516E-04
5.383636E+03	5.198885E-04	1.143394E-04
5.383834E+03	5.162083E-04	1.135319E-04
5.384032E+03	5.124492E-04	1.127071E-04
5.384230E+03	5.089912E-04	1.119484E-04
5.384428E+03	5.054353E-04	1.111682E-04
5.384626E+03	5.017810E-04	1.103663E-04
5.384824E+03	4.983676E-04	1.096174E-04
5.385022E+03	4.950554E-04	1.088908E-04
5.385220E+03	4.917050E-04	1.081557E-04
5.385418E+03	4.884755E-04	1.074472E-04
5.385617E+03	4.851477E-04	1.067171E-04
5.385815E+03	4.816614E-04	1.059520E-04
5.386013E+03	4.783964E-04	1.052357E-04
5.386212E+03	4.749130E-04	1.044712E-04
5.386410E+03	4.717104E-04	1.037686E-04
5.386608E+03	4.683695E-04	1.030354E-04
5.386806E+03	4.650505E-04	1.023071E-04
5.387004E+03	4.617925E-04	1.015922E-04
5.387202E+03	4.585558E-04	1.008819E-04
5.387400E+03	4.553601E-04	1.001806E-04
5.387598E+03	4.522856E-04	9.950598E-05
5.387796E+03	4.492521E-04	9.884036E-05
