#wls	flux	fluxerr
1.584409E+03	5.403669E-03	1.490346E-03
1.624020E+03	5.561406E-03	1.533831E-03
1.663630E+03	5.708845E-03	1.574474E-03
1.703240E+03	5.844827E-03	1.611954E-03
1.742850E+03	5.965790E-03	1.645289E-03
1.782461E+03	6.071480E-03	1.674409E-03
1.822071E+03	6.158198E-03	1.698295E-03
1.861681E+03	6.225015E-03	1.716690E-03
1.901291E+03	6.269892E-03	1.729031E-03
1.940902E+03	6.289891E-03	1.734510E-03
1.980512E+03	6.284293E-03	1.732928E-03
2.020122E+03	6.251110E-03	1.723736E-03
2.059732E+03	6.188765E-03	1.706502E-03
2.099342E+03	6.096193E-03	1.680932E-03
2.138953E+03	5.972162E-03	1.646686E-03
2.178563E+03	5.814883E-03	1.603273E-03
2.218173E+03	5.622914E-03	1.550295E-03
2.257783E+03	5.397391E-03	1.488068E-03
2.297394E+03	5.142948E-03	1.417869E-03
2.337004E+03	4.867318E-03	1.341831E-03
2.376614E+03	4.576704E-03	1.261666E-03
2.416224E+03	4.276704E-03	1.178918E-03
2.455835E+03	3.971419E-03	1.094717E-03
2.495445E+03	3.665088E-03	1.010233E-03
2.535055E+03	3.361147E-03	9.264134E-04
2.574665E+03	3.063084E-03	8.442195E-04
2.614276E+03	2.773692E-03	7.644216E-04
2.653886E+03	2.495532E-03	6.877253E-04
2.693496E+03	2.230857E-03	6.147515E-04
2.733106E+03	1.981364E-03	5.459681E-04
2.772716E+03	1.748467E-03	4.817640E-04
2.812327E+03	1.533178E-03	4.224180E-04
2.851937E+03	1.336221E-03	3.681288E-04
2.891547E+03	1.157999E-03	3.190069E-04
2.931157E+03	9.985117E-04	2.750515E-04
2.970768E+03	8.573843E-04	2.361589E-04
2.980670E+03	8.248876E-04	2.272037E-04
2.990573E+03	7.934599E-04	2.185432E-04
3.000475E+03	7.631151E-04	2.101812E-04
3.010378E+03	7.337949E-04	2.021017E-04
3.020280E+03	7.055091E-04	1.943074E-04
3.030183E+03	6.782324E-04	1.867913E-04
3.040086E+03	6.519529E-04	1.795500E-04
3.049988E+03	6.266178E-04	1.725691E-04
3.059891E+03	6.022409E-04	1.658524E-04
3.069793E+03	5.787709E-04	1.593856E-04
3.079696E+03	5.562057E-04	1.531682E-04
3.089598E+03	5.345182E-04	1.471928E-04
3.099501E+03	5.136714E-04	1.414491E-04
3.109403E+03	4.936602E-04	1.359357E-04
3.119306E+03	4.744483E-04	1.306426E-04
3.129209E+03	4.560196E-04	1.255654E-04
3.139111E+03	4.383479E-04	1.206967E-04
3.149014E+03	4.214083E-04	1.160299E-04
3.158916E+03	4.051839E-04	1.115602E-04
3.168819E+03	3.896494E-04	1.072806E-04
3.178721E+03	3.747745E-04	1.031827E-04
3.188624E+03	3.605487E-04	9.926374E-05
3.198526E+03	3.469424E-04	9.551549E-05
3.208429E+03	3.339387E-04	9.193330E-05
3.218332E+03	3.215154E-04	8.851104E-05
3.228234E+03	3.096453E-04	8.524121E-05
3.238137E+03	2.983176E-04	8.212083E-05
3.248039E+03	2.875019E-04	7.914151E-05
3.257942E+03	2.771874E-04	7.630029E-05
3.267844E+03	2.673539E-04	7.359161E-05
3.277747E+03	2.579743E-04	7.100798E-05
3.287650E+03	2.490382E-04	6.854654E-05
3.297552E+03	2.405273E-04	6.620222E-05
3.307455E+03	2.324205E-04	6.396924E-05
3.317357E+03	2.247012E-04	6.184301E-05
3.327260E+03	2.173533E-04	5.981909E-05
3.337162E+03	2.103612E-04	5.789318E-05
3.347065E+03	2.037098E-04	5.606113E-05
3.356967E+03	1.973846E-04	5.431894E-05
3.366870E+03	1.913692E-04	5.266206E-05
3.376773E+03	1.856479E-04	5.108621E-05
3.386675E+03	1.802129E-04	4.958923E-05
3.396578E+03	1.750453E-04	4.816586E-05
3.406480E+03	1.701358E-04	4.681361E-05
3.416383E+03	1.654715E-04	4.552887E-05
3.426285E+03	1.610419E-04	4.430879E-05
3.436188E+03	1.568335E-04	4.314962E-05
3.446090E+03	1.528353E-04	4.204834E-05
3.455993E+03	1.490388E-04	4.100260E-05
3.465896E+03	1.454325E-04	4.000923E-05
3.475798E+03	1.420088E-04	3.906614E-05
3.485701E+03	1.387544E-04	3.816967E-05
3.495603E+03	1.356629E-04	3.731808E-05
3.505506E+03	1.327240E-04	3.650849E-05
3.515408E+03	1.299295E-04	3.573866E-05
3.525311E+03	1.272717E-04	3.500648E-05
3.535213E+03	1.247410E-04	3.430927E-05
3.545116E+03	1.223332E-04	3.364593E-05
3.555019E+03	1.200410E-04	3.301439E-05
3.564921E+03	1.178573E-04	3.241272E-05
3.574824E+03	1.157789E-04	3.184007E-05
3.584726E+03	1.137985E-04	3.129437E-05
3.594629E+03	1.119112E-04	3.077431E-05
3.604531E+03	1.101125E-04	3.027864E-05
3.614434E+03	1.083980E-04	2.980615E-05
3.624337E+03	1.067637E-04	2.935574E-05
3.634239E+03	1.052057E-04	2.892631E-05
3.644142E+03	1.037212E-04	2.851711E-05
3.654044E+03	1.023074E-04	2.812739E-05
3.663947E+03	1.009608E-04	2.775617E-05
3.673849E+03	9.968166E-05	2.740348E-05
3.683752E+03	9.846549E-05	2.706813E-05
3.693654E+03	9.731159E-05	2.674992E-05
3.703557E+03	9.621754E-05	2.644818E-05
3.713460E+03	9.518169E-05	2.616244E-05
3.723362E+03	9.420408E-05	2.589273E-05
3.733265E+03	9.328072E-05	2.563794E-05
3.743167E+03	9.241162E-05	2.539807E-05
3.753070E+03	9.159595E-05	2.517290E-05
3.762972E+03	9.083069E-05	2.496159E-05
3.772875E+03	9.011577E-05	2.476412E-05
3.782777E+03	8.945041E-05	2.458027E-05
3.792680E+03	8.883234E-05	2.440943E-05
3.802583E+03	8.826011E-05	2.425119E-05
3.812485E+03	8.773440E-05	2.410573E-05
3.822388E+03	8.725233E-05	2.397227E-05
3.832290E+03	8.681387E-05	2.385080E-05
3.842193E+03	8.641763E-05	2.374092E-05
3.852095E+03	8.606290E-05	2.364244E-05
3.861998E+03	8.574900E-05	2.355518E-05
3.871900E+03	8.547393E-05	2.347859E-05
3.881803E+03	8.523705E-05	2.341248E-05
3.891706E+03	8.503844E-05	2.335689E-05
3.901608E+03	8.487683E-05	2.331145E-05
3.911511E+03	8.475096E-05	2.327582E-05
3.921413E+03	8.466032E-05	2.324986E-05
3.931316E+03	8.460370E-05	2.323323E-05
3.941218E+03	8.458064E-05	2.322581E-05
3.951121E+03	8.459064E-05	2.322747E-05
3.961024E+03	8.463322E-05	2.323806E-05
3.970926E+03	8.470669E-05	2.325712E-05
3.980829E+03	8.481060E-05	2.328452E-05
3.990731E+03	8.494460E-05	2.332017E-05
4.000634E+03	8.510831E-05	2.336397E-05
4.010536E+03	8.530078E-05	2.341565E-05
4.020439E+03	8.552096E-05	2.347492E-05
4.030341E+03	8.576862E-05	2.354171E-05
4.040244E+03	8.604281E-05	2.361578E-05
4.050147E+03	8.634325E-05	2.369702E-05
4.060049E+03	8.666907E-05	2.378522E-05
4.069952E+03	8.702005E-05	2.388029E-05
4.079854E+03	8.739531E-05	2.398202E-05
4.089757E+03	8.779400E-05	2.409014E-05
4.099659E+03	8.821595E-05	2.420463E-05
4.109562E+03	8.866037E-05	2.432526E-05
4.119464E+03	8.912710E-05	2.445199E-05
4.129367E+03	8.961463E-05	2.458440E-05
4.139270E+03	9.012290E-05	2.472247E-05
4.149172E+03	9.065038E-05	2.486579E-05
4.159075E+03	9.119769E-05	2.501452E-05
4.168977E+03	9.176336E-05	2.516825E-05
4.178880E+03	9.234735E-05	2.532698E-05
4.188782E+03	9.294742E-05	2.549009E-05
4.198685E+03	9.356426E-05	2.565776E-05
4.208587E+03	9.419562E-05	2.582939E-05
4.218490E+03	9.484219E-05	2.600516E-05
4.228393E+03	9.550173E-05	2.618445E-05
4.238295E+03	9.617269E-05	2.636683E-05
4.248198E+03	9.685573E-05	2.655249E-05
4.258100E+03	9.754779E-05	2.674059E-05
4.268003E+03	9.824955E-05	2.693131E-05
4.277905E+03	9.895784E-05	2.712378E-05
4.287808E+03	9.967338E-05	2.731821E-05
4.297711E+03	1.003945E-04	2.751411E-05
4.307613E+03	1.011194E-04	2.771104E-05
4.317516E+03	1.018481E-04	2.790896E-05
4.327418E+03	1.025797E-04	2.810762E-05
4.337321E+03	1.033148E-04	2.830721E-05
4.347223E+03	1.040518E-04	2.850727E-05
4.357126E+03	1.047922E-04	2.870823E-05
4.367028E+03	1.055361E-04	2.891009E-05
4.376931E+03	1.062834E-04	2.911288E-05
4.386834E+03	1.070343E-04	2.931657E-05
4.396736E+03	1.077896E-04	2.952145E-05
4.406639E+03	1.085486E-04	2.972729E-05
4.416541E+03	1.093124E-04	2.993440E-05
4.426444E+03	1.100811E-04	3.014281E-05
4.436346E+03	1.108549E-04	3.035256E-05
4.446249E+03	1.116332E-04	3.056349E-05
4.456151E+03	1.124161E-04	3.077566E-05
4.466054E+03	1.132031E-04	3.098887E-05
4.475957E+03	1.139953E-04	3.120346E-05
4.485859E+03	1.147911E-04	3.141901E-05
4.495762E+03	1.155909E-04	3.163560E-05
4.505664E+03	1.163950E-04	3.185331E-05
4.515567E+03	1.172019E-04	3.207172E-05
4.525469E+03	1.180128E-04	3.229121E-05
4.535372E+03	1.188264E-04	3.251134E-05
4.545274E+03	1.196428E-04	3.273223E-05
4.555177E+03	1.204608E-04	3.295347E-05
4.565080E+03	1.212817E-04	3.317545E-05
4.574982E+03	1.221050E-04	3.339806E-05
4.584885E+03	1.229293E-04	3.362087E-05
4.594787E+03	1.237552E-04	3.384405E-05
4.604690E+03	1.245833E-04	3.406779E-05
4.614592E+03	1.254133E-04	3.429200E-05
4.624495E+03	1.262437E-04	3.451625E-05
4.634398E+03	1.270776E-04	3.474140E-05
4.644300E+03	1.279159E-04	3.496768E-05
4.654203E+03	1.287572E-04	3.519474E-05
4.664105E+03	1.296027E-04	3.542287E-05
4.674008E+03	1.304533E-04	3.565234E-05
4.683910E+03	1.313066E-04	3.588249E-05
4.693813E+03	1.321638E-04	3.611364E-05
4.703715E+03	1.330237E-04	3.634546E-05
4.713618E+03	1.338874E-04	3.657826E-05
4.723521E+03	1.347550E-04	3.681205E-05
4.733423E+03	1.356253E-04	3.704652E-05
4.743326E+03	1.364996E-04	3.728200E-05
4.753228E+03	1.373767E-04	3.751820E-05
4.763131E+03	1.382580E-04	3.775548E-05
4.773033E+03	1.391424E-04	3.799351E-05
4.782936E+03	1.400299E-04	3.823233E-05
4.792838E+03	1.409207E-04	3.847198E-05
4.802741E+03	1.418162E-04	3.871284E-05
4.812644E+03	1.427152E-04	3.895461E-05
4.822546E+03	1.436180E-04	3.919730E-05
4.832449E+03	1.445232E-04	3.944060E-05
4.842351E+03	1.454337E-04	3.968525E-05
4.852254E+03	1.463482E-04	3.993094E-05
4.862156E+03	1.472669E-04	4.017768E-05
4.872059E+03	1.481885E-04	4.042512E-05
4.881961E+03	1.491143E-04	4.067366E-05
4.891864E+03	1.500431E-04	4.092292E-05
4.901767E+03	1.509748E-04	4.117289E-05
4.911669E+03	1.519109E-04	4.142398E-05
4.921572E+03	1.528500E-04	4.167578E-05
4.931474E+03	1.537919E-04	4.192828E-05
4.941377E+03	1.547351E-04	4.218106E-05
4.951279E+03	1.556810E-04	4.243448E-05
4.961182E+03	1.566294E-04	4.268851E-05
4.971085E+03	1.575787E-04	4.294269E-05
4.980987E+03	1.585287E-04	4.319698E-05
4.990890E+03	1.594792E-04	4.345130E-05
5.000792E+03	1.604285E-04	4.370519E-05
5.010695E+03	1.613776E-04	4.395897E-05
5.020597E+03	1.623265E-04	4.421257E-05
5.030500E+03	1.632715E-04	4.446506E-05
5.040402E+03	1.642140E-04	4.471675E-05
5.050305E+03	1.651536E-04	4.496755E-05
5.060208E+03	1.660882E-04	4.521690E-05
5.070110E+03	1.670175E-04	4.546470E-05
5.080013E+03	1.679408E-04	4.571080E-05
5.089915E+03	1.688578E-04	4.595507E-05
5.099818E+03	1.697662E-04	4.619691E-05
5.109720E+03	1.706671E-04	4.643663E-05
5.119623E+03	1.715566E-04	4.667312E-05
5.129525E+03	1.724356E-04	4.690666E-05
5.139428E+03	1.733016E-04	4.713659E-05
5.149331E+03	1.741538E-04	4.736267E-05
5.159233E+03	1.749915E-04	4.758469E-05
5.169136E+03	1.758136E-04	4.780237E-05
5.179038E+03	1.766156E-04	4.801452E-05
5.188941E+03	1.774001E-04	4.822179E-05
5.198843E+03	1.781642E-04	4.842342E-05
5.208746E+03	1.789066E-04	4.861908E-05
5.218648E+03	1.796246E-04	4.880799E-05
5.228551E+03	1.803168E-04	4.898982E-05
5.238454E+03	1.809821E-04	4.916424E-05
5.248356E+03	1.816192E-04	4.933090E-05
5.258259E+03	1.822269E-04	4.948950E-05
5.268161E+03	1.828022E-04	4.963923E-05
5.278064E+03	1.833477E-04	4.978075E-05
5.287966E+03	1.838586E-04	4.991281E-05
5.297869E+03	1.843338E-04	5.003510E-05
5.307772E+03	1.847762E-04	5.014837E-05
5.317674E+03	1.851811E-04	5.025142E-05
5.327577E+03	1.855514E-04	5.034500E-05
5.337479E+03	1.858847E-04	5.042848E-05
5.347382E+03	1.861823E-04	5.050219E-05
5.357284E+03	1.864419E-04	5.056552E-05
5.367187E+03	1.866669E-04	5.061939E-05
5.377089E+03	1.868551E-04	5.066325E-05
5.386992E+03	1.870085E-04	5.069757E-05
5.396895E+03	1.871232E-04	5.072136E-05
5.406797E+03	1.872013E-04	5.073517E-05
5.416700E+03	1.872411E-04	5.073856E-05
5.426602E+03	1.872411E-04	5.073111E-05
5.436505E+03	1.872037E-04	5.071347E-05
5.446407E+03	1.871257E-04	5.068477E-05
5.456310E+03	1.870057E-04	5.064468E-05
5.466212E+03	1.868446E-04	5.059341E-05
5.476115E+03	1.866394E-04	5.053015E-05
5.486018E+03	1.863928E-04	5.045568E-05
5.495920E+03	1.861002E-04	5.036872E-05
5.505823E+03	1.857665E-04	5.027059E-05
5.515725E+03	1.853907E-04	5.016107E-05
5.525628E+03	1.849722E-04	5.003995E-05
5.535530E+03	1.845121E-04	4.990757E-05
5.545433E+03	1.840115E-04	4.976426E-05
5.555335E+03	1.834700E-04	4.960983E-05
5.565238E+03	1.828923E-04	4.944565E-05
5.575141E+03	1.822761E-04	4.927106E-05
5.585043E+03	1.816264E-04	4.908739E-05
5.594946E+03	1.809406E-04	4.889399E-05
5.604848E+03	1.802238E-04	4.869223E-05
5.614751E+03	1.794773E-04	4.848244E-05
5.624653E+03	1.787004E-04	4.826447E-05
5.634556E+03	1.778963E-04	4.803917E-05
5.644459E+03	1.770662E-04	4.780688E-05
5.654361E+03	1.762134E-04	4.756847E-05
5.664264E+03	1.753390E-04	4.732425E-05
5.674166E+03	1.744425E-04	4.707412E-05
5.684069E+03	1.735289E-04	4.681939E-05
5.693971E+03	1.725994E-04	4.656043E-05
5.703874E+03	1.716536E-04	4.629711E-05
5.713776E+03	1.706947E-04	4.603027E-05
5.723679E+03	1.697258E-04	4.576079E-05
5.733582E+03	1.687483E-04	4.548903E-05
5.743484E+03	1.677617E-04	4.521487E-05
5.753387E+03	1.667693E-04	4.493920E-05
5.763289E+03	1.657744E-04	4.466289E-05
5.773192E+03	1.647783E-04	4.438630E-05
5.783094E+03	1.637807E-04	4.410937E-05
5.792997E+03	1.627849E-04	4.383296E-05
5.802899E+03	1.617923E-04	4.355747E-05
5.812802E+03	1.608061E-04	4.328376E-05
5.822705E+03	1.598278E-04	4.301222E-05
5.832607E+03	1.588570E-04	4.274275E-05
5.842510E+03	1.578970E-04	4.247623E-05
5.852412E+03	1.569473E-04	4.221253E-05
5.862315E+03	1.560145E-04	4.195344E-05
5.872217E+03	1.550947E-04	4.169788E-05
5.882120E+03	1.541908E-04	4.144666E-05
5.892022E+03	1.533059E-04	4.120057E-05
5.901925E+03	1.524392E-04	4.095944E-05
5.911828E+03	1.515920E-04	4.072358E-05
5.921730E+03	1.507669E-04	4.049370E-05
5.931633E+03	1.499632E-04	4.026960E-05
5.941535E+03	1.491834E-04	4.005198E-05
5.951438E+03	1.484251E-04	3.984015E-05
5.961340E+03	1.476923E-04	3.963520E-05
5.971243E+03	1.469823E-04	3.943643E-05
5.981146E+03	1.462993E-04	3.924490E-05
5.991048E+03	1.456386E-04	3.905939E-05
6.000951E+03	1.450041E-04	3.888096E-05
6.010853E+03	1.443948E-04	3.870927E-05
6.020756E+03	1.438108E-04	3.854440E-05
6.030658E+03	1.432491E-04	3.838555E-05
6.040561E+03	1.427136E-04	3.823369E-05
6.050463E+03	1.421991E-04	3.808751E-05
6.060366E+03	1.417094E-04	3.794797E-05
6.070269E+03	1.412394E-04	3.781372E-05
6.080171E+03	1.407892E-04	3.768477E-05
6.090074E+03	1.403571E-04	3.756066E-05
6.099976E+03	1.399429E-04	3.744138E-05
6.109879E+03	1.395415E-04	3.732549E-05
6.119781E+03	1.391525E-04	3.721294E-05
6.129684E+03	1.387741E-04	3.710321E-05
6.139586E+03	1.384059E-04	3.699622E-05
6.149489E+03	1.380475E-04	3.689184E-05
6.159392E+03	1.377021E-04	3.679094E-05
6.169294E+03	1.373746E-04	3.669481E-05
6.179197E+03	1.370664E-04	3.660382E-05
6.189099E+03	1.367805E-04	3.651881E-05
6.199002E+03	1.365203E-04	3.644062E-05
6.208904E+03	1.362872E-04	3.636966E-05
6.218807E+03	1.360845E-04	3.630679E-05
6.228709E+03	1.359137E-04	3.625239E-05
6.238612E+03	1.357762E-04	3.620689E-05
6.248515E+03	1.356758E-04	3.617120E-05
6.258417E+03	1.356120E-04	3.614528E-05
6.268320E+03	1.355886E-04	3.613005E-05
6.278222E+03	1.356035E-04	3.612500E-05
6.288125E+03	1.356585E-04	3.613059E-05
6.298027E+03	1.357537E-04	3.614682E-05
6.307930E+03	1.358909E-04	3.617416E-05
6.317833E+03	1.360682E-04	3.621212E-05
6.327735E+03	1.362857E-04	3.626069E-05
6.337638E+03	1.365413E-04	3.631934E-05
6.347540E+03	1.368312E-04	3.638702E-05
6.357443E+03	1.371533E-04	3.646317E-05
6.367345E+03	1.375075E-04	3.654774E-05
6.377248E+03	1.378936E-04	3.664072E-05
6.387150E+03	1.383116E-04	3.674207E-05
6.397053E+03	1.387635E-04	3.685231E-05
6.406956E+03	1.392514E-04	3.697198E-05
6.416858E+03	1.397752E-04	3.710109E-05
6.426761E+03	1.403331E-04	3.723909E-05
6.436663E+03	1.409292E-04	3.738712E-05
6.446566E+03	1.415638E-04	3.754523E-05
6.456468E+03	1.422349E-04	3.771286E-05
6.466371E+03	1.429448E-04	3.789064E-05
6.476273E+03	1.436937E-04	3.807861E-05
6.486176E+03	1.444797E-04	3.827624E-05
6.496079E+03	1.453029E-04	3.848356E-05
6.505981E+03	1.461683E-04	3.870187E-05
6.515884E+03	1.470690E-04	3.892936E-05
6.525786E+03	1.480102E-04	3.916735E-05
6.535689E+03	1.489920E-04	3.941592E-05
6.545591E+03	1.500100E-04	3.967385E-05
6.555494E+03	1.510693E-04	3.994250E-05
6.565396E+03	1.521653E-04	4.022065E-05
6.575299E+03	1.533034E-04	4.050968E-05
6.585202E+03	1.544788E-04	4.080835E-05
6.595104E+03	1.556944E-04	4.111739E-05
6.605007E+03	1.569505E-04	4.143691E-05
6.614909E+03	1.582450E-04	4.176628E-05
6.624812E+03	1.595780E-04	4.210557E-05
6.634714E+03	1.609527E-04	4.245560E-05
6.644617E+03	1.623667E-04	4.281572E-05
6.654520E+03	1.638204E-04	4.318600E-05
6.664422E+03	1.653141E-04	4.356656E-05
6.674325E+03	1.668481E-04	4.395746E-05
6.684227E+03	1.684230E-04	4.435879E-05
6.694130E+03	1.700390E-04	4.477067E-05
6.704032E+03	1.716936E-04	4.519237E-05
6.713935E+03	1.733901E-04	4.562478E-05
6.723837E+03	1.751291E-04	4.606800E-05
6.733740E+03	1.769076E-04	4.652132E-05
6.743643E+03	1.787294E-04	4.698564E-05
6.753545E+03	1.805917E-04	4.746023E-05
6.763448E+03	1.824947E-04	4.794517E-05
6.773350E+03	1.844388E-04	4.844053E-05
6.783253E+03	1.864244E-04	4.894640E-05
6.793155E+03	1.884554E-04	4.946377E-05
6.803058E+03	1.905251E-04	4.999092E-05
6.812960E+03	1.926375E-04	5.052884E-05
6.822863E+03	1.947928E-04	5.107761E-05
6.832766E+03	1.969879E-04	5.163637E-05
6.842668E+03	1.992266E-04	5.220612E-05
6.852571E+03	2.015094E-04	5.278697E-05
6.862473E+03	2.038327E-04	5.337799E-05
6.872376E+03	2.061969E-04	5.397923E-05
6.882278E+03	2.086060E-04	5.459177E-05
6.892181E+03	2.110565E-04	5.521464E-05
6.902083E+03	2.135486E-04	5.584789E-05
6.911986E+03	2.160823E-04	5.649154E-05
6.921889E+03	2.186580E-04	5.714564E-05
6.931791E+03	2.212715E-04	5.780910E-05
6.941694E+03	2.239315E-04	5.848417E-05
6.951596E+03	2.266295E-04	5.916862E-05
6.961499E+03	2.293699E-04	5.986361E-05
6.971401E+03	2.321482E-04	6.056794E-05
6.981304E+03	2.349645E-04	6.128158E-05
6.991207E+03	2.378232E-04	6.200574E-05
7.001109E+03	2.407198E-04	6.273917E-05
7.011012E+03	2.436491E-04	6.348054E-05
7.020914E+03	2.466207E-04	6.423232E-05
7.030817E+03	2.496296E-04	6.499321E-05
7.040719E+03	2.526704E-04	6.576179E-05
7.050622E+03	2.557480E-04	6.653930E-05
7.060524E+03	2.588566E-04	6.732427E-05
7.070427E+03	2.620013E-04	6.811797E-05
7.080330E+03	2.651762E-04	6.891887E-05
7.090232E+03	2.683862E-04	6.972825E-05
7.100135E+03	2.716198E-04	7.054308E-05
7.110037E+03	2.748818E-04	7.136461E-05
7.119940E+03	2.781773E-04	7.219416E-05
7.129842E+03	2.814939E-04	7.302852E-05
7.139745E+03	2.848308E-04	7.386744E-05
7.149647E+03	2.881929E-04	7.471221E-05
7.159550E+03	2.915793E-04	7.556256E-05
7.169453E+03	2.949828E-04	7.641663E-05
7.179355E+03	2.984087E-04	7.727582E-05
7.189258E+03	3.018497E-04	7.813818E-05
7.199160E+03	3.053040E-04	7.900327E-05
7.209063E+03	3.087776E-04	7.987264E-05
7.218965E+03	3.122620E-04	8.074406E-05
7.228868E+03	3.157628E-04	8.161900E-05
7.238770E+03	3.192720E-04	8.249539E-05
7.248673E+03	3.227883E-04	8.337286E-05
7.258576E+03	3.263242E-04	8.425465E-05
7.268478E+03	3.298643E-04	8.513677E-05
7.278381E+03	3.334219E-04	8.602269E-05
7.288283E+03	3.369883E-04	8.691011E-05
7.298186E+03	3.405703E-04	8.780081E-05
7.308088E+03	3.441747E-04	8.869654E-05
7.317991E+03	3.477930E-04	8.959508E-05
7.327894E+03	3.514403E-04	9.050034E-05
7.337796E+03	3.551162E-04	9.141221E-05
7.347699E+03	3.588294E-04	9.233289E-05
7.357601E+03	3.625801E-04	9.326243E-05
7.367504E+03	3.663683E-04	9.420083E-05
7.377406E+03	3.702036E-04	9.515055E-05
7.387309E+03	3.740689E-04	9.610720E-05
7.397211E+03	3.779645E-04	9.707082E-05
7.407114E+03	3.818822E-04	9.803929E-05
7.417017E+03	3.858305E-04	9.901480E-05
7.426919E+03	3.898005E-04	9.999507E-05
7.436822E+03	3.937832E-04	1.009778E-04
7.446724E+03	3.977780E-04	1.019627E-04
7.456627E+03	4.017849E-04	1.029500E-04
7.466529E+03	4.057934E-04	1.039368E-04
7.476432E+03	4.098126E-04	1.049256E-04
7.486334E+03	4.138227E-04	1.059112E-04
7.496237E+03	4.178420E-04	1.068984E-04
7.506140E+03	4.218600E-04	1.078844E-04
7.516042E+03	4.258759E-04	1.088690E-04
7.525945E+03	4.298777E-04	1.098492E-04
7.535847E+03	4.338744E-04	1.108273E-04
7.545750E+03	4.378649E-04	1.118031E-04
7.555652E+03	4.418473E-04	1.127760E-04
7.565555E+03	4.458088E-04	1.137427E-04
7.575457E+03	4.497581E-04	1.147055E-04
7.585360E+03	4.536817E-04	1.156610E-04
7.595263E+03	4.575998E-04	1.166144E-04
7.605165E+03	4.614755E-04	1.175561E-04
7.615068E+03	4.653401E-04	1.184943E-04
7.624970E+03	4.691789E-04	1.194252E-04
7.634873E+03	4.729770E-04	1.203450E-04
7.644775E+03	4.767424E-04	1.212557E-04
7.654678E+03	4.804720E-04	1.221566E-04
7.664581E+03	4.841613E-04	1.230466E-04
7.674483E+03	4.878073E-04	1.239248E-04
7.684386E+03	4.914179E-04	1.247934E-04
