#wls	flux	fluxerr
1.584409E+03	6.463154E-03	2.120644E-03
1.624020E+03	6.651702E-03	2.182474E-03
1.663630E+03	6.827834E-03	2.240227E-03
1.703240E+03	6.989517E-03	2.293237E-03
1.742850E+03	7.133863E-03	2.340555E-03
1.782461E+03	7.258562E-03	2.381425E-03
1.822071E+03	7.360567E-03	2.414846E-03
1.861681E+03	7.438130E-03	2.440246E-03
1.901291E+03	7.488853E-03	2.456838E-03
1.940902E+03	7.509831E-03	2.463670E-03
1.980512E+03	7.499601E-03	2.460262E-03
2.020122E+03	7.455777E-03	2.445832E-03
2.059732E+03	7.376468E-03	2.419761E-03
2.099342E+03	7.261378E-03	2.381952E-03
2.138953E+03	7.108348E-03	2.331699E-03
2.178563E+03	6.916380E-03	2.268673E-03
2.218173E+03	6.684521E-03	2.192564E-03
2.257783E+03	6.410886E-03	2.102756E-03
2.297394E+03	6.103907E-03	2.002013E-03
2.337004E+03	5.772071E-03	1.893122E-03
2.376614E+03	5.422174E-03	1.778313E-03
2.416224E+03	5.059982E-03	1.659476E-03
2.455835E+03	4.690946E-03	1.538400E-03
2.495445E+03	4.319949E-03	1.416687E-03
2.535055E+03	3.951263E-03	1.295738E-03
2.574665E+03	3.589131E-03	1.176945E-03
2.614276E+03	3.237329E-03	1.061546E-03
2.653886E+03	2.899197E-03	9.506367E-04
2.693496E+03	2.577622E-03	8.451627E-04
2.733106E+03	2.275170E-03	7.459658E-04
2.772716E+03	1.993562E-03	6.536091E-04
2.812327E+03	1.734145E-03	5.685344E-04
2.851937E+03	1.497926E-03	4.910707E-04
2.891547E+03	1.285400E-03	4.213798E-04
2.931157E+03	1.096622E-03	3.594791E-04
2.970768E+03	9.310263E-04	3.051824E-04
2.980670E+03	8.931167E-04	2.927526E-04
2.990573E+03	8.565589E-04	2.807663E-04
3.000475E+03	8.213423E-04	2.692198E-04
3.010378E+03	7.874333E-04	2.581021E-04
3.020280E+03	7.547984E-04	2.474022E-04
3.030183E+03	7.234210E-04	2.371148E-04
3.040086E+03	6.932504E-04	2.272232E-04
3.049988E+03	6.642824E-04	2.177259E-04
3.059891E+03	6.364675E-04	2.086067E-04
3.069793E+03	6.097840E-04	1.998586E-04
3.079696E+03	5.841964E-04	1.914699E-04
3.089598E+03	5.596807E-04	1.834327E-04
3.099501E+03	5.362015E-04	1.757353E-04
3.109403E+03	5.137232E-04	1.683662E-04
3.119306E+03	4.922215E-04	1.613172E-04
3.129209E+03	4.716517E-04	1.545739E-04
3.139111E+03	4.519979E-04	1.481309E-04
3.149014E+03	4.332182E-04	1.419745E-04
3.158916E+03	4.152871E-04	1.360964E-04
3.168819E+03	3.981721E-04	1.304858E-04
3.178721E+03	3.818410E-04	1.251323E-04
3.188624E+03	3.662697E-04	1.200279E-04
3.198526E+03	3.514269E-04	1.151623E-04
3.208429E+03	3.372771E-04	1.105240E-04
3.218332E+03	3.238081E-04	1.061089E-04
3.228234E+03	3.109750E-04	1.019022E-04
3.238137E+03	2.987657E-04	9.790006E-05
3.248039E+03	2.871435E-04	9.409038E-05
3.257942E+03	2.760873E-04	9.046628E-05
3.267844E+03	2.655761E-04	8.702084E-05
3.277747E+03	2.555775E-04	8.374343E-05
3.287650E+03	2.460760E-04	8.062900E-05
3.297552E+03	2.370487E-04	7.767005E-05
3.307455E+03	2.284704E-04	7.485827E-05
3.317357E+03	2.203206E-04	7.218694E-05
3.327260E+03	2.125794E-04	6.964956E-05
3.337162E+03	2.052307E-04	6.724085E-05
3.347065E+03	1.982506E-04	6.495297E-05
3.356967E+03	1.916272E-04	6.278201E-05
3.366870E+03	1.853386E-04	6.072083E-05
3.376773E+03	1.793695E-04	5.876432E-05
3.386675E+03	1.737070E-04	5.690834E-05
3.396578E+03	1.683304E-04	5.514608E-05
3.406480E+03	1.632308E-04	5.347459E-05
3.416383E+03	1.583931E-04	5.188897E-05
3.426285E+03	1.538000E-04	5.038350E-05
3.436188E+03	1.494439E-04	4.895573E-05
3.446090E+03	1.453092E-04	4.760049E-05
3.455993E+03	1.413860E-04	4.631460E-05
3.465896E+03	1.376636E-04	4.509451E-05
3.475798E+03	1.341274E-04	4.393544E-05
3.485701E+03	1.307697E-04	4.283489E-05
3.495603E+03	1.275792E-04	4.178912E-05
3.505506E+03	1.245453E-04	4.079469E-05
3.515408E+03	1.216597E-04	3.984885E-05
3.525311E+03	1.189119E-04	3.894820E-05
3.535213E+03	1.162938E-04	3.809004E-05
3.545116E+03	1.137965E-04	3.727147E-05
3.555019E+03	1.114141E-04	3.649054E-05
3.564921E+03	1.091398E-04	3.574505E-05
3.574824E+03	1.069664E-04	3.503262E-05
3.584726E+03	1.048892E-04	3.435170E-05
3.594629E+03	1.029034E-04	3.370078E-05
3.604531E+03	1.010031E-04	3.307783E-05
3.614434E+03	9.918677E-05	3.248243E-05
3.624337E+03	9.744874E-05	3.191268E-05
3.634239E+03	9.578691E-05	3.136790E-05
3.644142E+03	9.419838E-05	3.084714E-05
3.654044E+03	9.268028E-05	3.034946E-05
3.663947E+03	9.123065E-05	2.987421E-05
3.673849E+03	8.984828E-05	2.942100E-05
3.683752E+03	8.852881E-05	2.898840E-05
3.693654E+03	8.727257E-05	2.857651E-05
3.703557E+03	8.607610E-05	2.818421E-05
3.713460E+03	8.493817E-05	2.781109E-05
3.723362E+03	8.385758E-05	2.745675E-05
3.733265E+03	8.283104E-05	2.712012E-05
3.743167E+03	8.185868E-05	2.680124E-05
3.753070E+03	8.093799E-05	2.649928E-05
3.762972E+03	8.006778E-05	2.621386E-05
3.772875E+03	7.924624E-05	2.594438E-05
3.782777E+03	7.847230E-05	2.569049E-05
3.792680E+03	7.774419E-05	2.545161E-05
3.802583E+03	7.706085E-05	2.522739E-05
3.812485E+03	7.642066E-05	2.501731E-05
3.822388E+03	7.582318E-05	2.482121E-05
3.832290E+03	7.526684E-05	2.463858E-05
3.842193E+03	7.475016E-05	2.446894E-05
3.852095E+03	7.427215E-05	2.431196E-05
3.861998E+03	7.383142E-05	2.416719E-05
3.871900E+03	7.342769E-05	2.403453E-05
3.881803E+03	7.305953E-05	2.391352E-05
3.891706E+03	7.272622E-05	2.380391E-05
3.901608E+03	7.242640E-05	2.370527E-05
3.911511E+03	7.215882E-05	2.361718E-05
3.921413E+03	7.192386E-05	2.353976E-05
3.931316E+03	7.171920E-05	2.347226E-05
3.941218E+03	7.154477E-05	2.341466E-05
3.951121E+03	7.139941E-05	2.336657E-05
3.961024E+03	7.128253E-05	2.332779E-05
3.970926E+03	7.119361E-05	2.329817E-05
3.980829E+03	7.113095E-05	2.327714E-05
3.990731E+03	7.109466E-05	2.326473E-05
4.000634E+03	7.108368E-05	2.326060E-05
4.010536E+03	7.109756E-05	2.326461E-05
4.020439E+03	7.113531E-05	2.327642E-05
4.030341E+03	7.119602E-05	2.329574E-05
4.040244E+03	7.127981E-05	2.332260E-05
4.050147E+03	7.138524E-05	2.335654E-05
4.060049E+03	7.151196E-05	2.339745E-05
4.069952E+03	7.165972E-05	2.344523E-05
4.079854E+03	7.182704E-05	2.349940E-05
4.089757E+03	7.201425E-05	2.356007E-05
4.099659E+03	7.222000E-05	2.362681E-05
4.109562E+03	7.244397E-05	2.369949E-05
4.119464E+03	7.268603E-05	2.377809E-05
4.129367E+03	7.294484E-05	2.386216E-05
4.139270E+03	7.322079E-05	2.395183E-05
4.149172E+03	7.351201E-05	2.404648E-05
4.159075E+03	7.381946E-05	2.414643E-05
4.168977E+03	7.414136E-05	2.425110E-05
4.178880E+03	7.447751E-05	2.436043E-05
4.188782E+03	7.482728E-05	2.447419E-05
4.198685E+03	7.519055E-05	2.459236E-05
4.208587E+03	7.556546E-05	2.471433E-05
4.218490E+03	7.595258E-05	2.484029E-05
4.228393E+03	7.635059E-05	2.496979E-05
4.238295E+03	7.675828E-05	2.510245E-05
4.248198E+03	7.717554E-05	2.523822E-05
4.258100E+03	7.760171E-05	2.537690E-05
4.268003E+03	7.803491E-05	2.551786E-05
4.277905E+03	7.847443E-05	2.566088E-05
4.287808E+03	7.891953E-05	2.580571E-05
4.297711E+03	7.936951E-05	2.595212E-05
4.307613E+03	7.982364E-05	2.609987E-05
4.317516E+03	8.028180E-05	2.624894E-05
4.327418E+03	8.074325E-05	2.639906E-05
4.337321E+03	8.120723E-05	2.655000E-05
4.347223E+03	8.167494E-05	2.670214E-05
4.357126E+03	8.214567E-05	2.685526E-05
4.367028E+03	8.261934E-05	2.700932E-05
4.376931E+03	8.309656E-05	2.716453E-05
4.386834E+03	8.357733E-05	2.732089E-05
4.396736E+03	8.406099E-05	2.747818E-05
4.406639E+03	8.454825E-05	2.763662E-05
4.416541E+03	8.503844E-05	2.779601E-05
4.426444E+03	8.553165E-05	2.795638E-05
4.436346E+03	8.602799E-05	2.811775E-05
4.446249E+03	8.652617E-05	2.827971E-05
4.456151E+03	8.702703E-05	2.844253E-05
4.466054E+03	8.753008E-05	2.860604E-05
4.475957E+03	8.803477E-05	2.877008E-05
4.485859E+03	8.854131E-05	2.893471E-05
4.495762E+03	8.904856E-05	2.909955E-05
4.505664E+03	8.955679E-05	2.926469E-05
4.515567E+03	9.006629E-05	2.943024E-05
4.525469E+03	9.057668E-05	2.959606E-05
4.535372E+03	9.108692E-05	2.976181E-05
4.545274E+03	9.159730E-05	2.992759E-05
4.555177E+03	9.210762E-05	3.009333E-05
4.565080E+03	9.261753E-05	3.025892E-05
4.574982E+03	9.312757E-05	3.042454E-05
4.584885E+03	9.363669E-05	3.058984E-05
4.594787E+03	9.414554E-05	3.075504E-05
4.604690E+03	9.465389E-05	3.092005E-05
4.614592E+03	9.516159E-05	3.108483E-05
4.624495E+03	9.566852E-05	3.124934E-05
4.634398E+03	9.617456E-05	3.141354E-05
4.644300E+03	9.667962E-05	3.157740E-05
4.654203E+03	9.718534E-05	3.174147E-05
4.664105E+03	9.769170E-05	3.190572E-05
4.674008E+03	9.819873E-05	3.207017E-05
4.683910E+03	9.870816E-05	3.223538E-05
4.693813E+03	9.921929E-05	3.240114E-05
4.703715E+03	9.973215E-05	3.256743E-05
4.713618E+03	1.002478E-04	3.273461E-05
4.723521E+03	1.007663E-04	3.290271E-05
4.733423E+03	1.012869E-04	3.307149E-05
4.743326E+03	1.018108E-04	3.324131E-05
4.753228E+03	1.023382E-04	3.341223E-05
4.763131E+03	1.028682E-04	3.358402E-05
4.773033E+03	1.034022E-04	3.375705E-05
4.782936E+03	1.039402E-04	3.393142E-05
4.792838E+03	1.044827E-04	3.410719E-05
4.802741E+03	1.050298E-04	3.428446E-05
4.812644E+03	1.055809E-04	3.446301E-05
4.822546E+03	1.061382E-04	3.464355E-05
4.832449E+03	1.067001E-04	3.482557E-05
4.842351E+03	1.072668E-04	3.500916E-05
4.852254E+03	1.078397E-04	3.519473E-05
4.862156E+03	1.084191E-04	3.538239E-05
4.872059E+03	1.090052E-04	3.557225E-05
4.881961E+03	1.095965E-04	3.576374E-05
4.891864E+03	1.101952E-04	3.595764E-05
4.901767E+03	1.108006E-04	3.615369E-05
4.911669E+03	1.114131E-04	3.635201E-05
4.921572E+03	1.120328E-04	3.655268E-05
4.931474E+03	1.126599E-04	3.675576E-05
4.941377E+03	1.132939E-04	3.696102E-05
4.951279E+03	1.139348E-04	3.716852E-05
4.961182E+03	1.145838E-04	3.737866E-05
4.971085E+03	1.152402E-04	3.759115E-05
4.980987E+03	1.159029E-04	3.780569E-05
4.990890E+03	1.165744E-04	3.802303E-05
5.000792E+03	1.172512E-04	3.824211E-05
5.010695E+03	1.179358E-04	3.846371E-05
5.020597E+03	1.186283E-04	3.868781E-05
5.030500E+03	1.193251E-04	3.891333E-05
5.040402E+03	1.200298E-04	3.914136E-05
5.050305E+03	1.207400E-04	3.937116E-05
5.060208E+03	1.214555E-04	3.960268E-05
5.070110E+03	1.221776E-04	3.983630E-05
5.080013E+03	1.229037E-04	4.007118E-05
5.089915E+03	1.236336E-04	4.030729E-05
5.099818E+03	1.243684E-04	4.054494E-05
5.109720E+03	1.251067E-04	4.078369E-05
5.119623E+03	1.258481E-04	4.102344E-05
5.129525E+03	1.265913E-04	4.126373E-05
5.139428E+03	1.273370E-04	4.150483E-05
5.149331E+03	1.280826E-04	4.174583E-05
5.159233E+03	1.288302E-04	4.198744E-05
5.169136E+03	1.295780E-04	4.222910E-05
5.179038E+03	1.303245E-04	4.247027E-05
5.188941E+03	1.310691E-04	4.271081E-05
5.198843E+03	1.318126E-04	4.295094E-05
5.208746E+03	1.325519E-04	4.318968E-05
5.218648E+03	1.332877E-04	4.342724E-05
5.228551E+03	1.340209E-04	4.366389E-05
5.238454E+03	1.347467E-04	4.389813E-05
5.248356E+03	1.354685E-04	4.413102E-05
5.258259E+03	1.361818E-04	4.436108E-05
5.268161E+03	1.368898E-04	4.458937E-05
5.278064E+03	1.375877E-04	4.481436E-05
5.287966E+03	1.382776E-04	4.503669E-05
5.297869E+03	1.389588E-04	4.525616E-05
5.307772E+03	1.396291E-04	4.547205E-05
5.317674E+03	1.402908E-04	4.568505E-05
5.327577E+03	1.409387E-04	4.589359E-05
5.337479E+03	1.415766E-04	4.609878E-05
5.347382E+03	1.422022E-04	4.629997E-05
5.357284E+03	1.428150E-04	4.649691E-05
5.367187E+03	1.434142E-04	4.668943E-05
5.377089E+03	1.439993E-04	4.687730E-05
5.386992E+03	1.445682E-04	4.705984E-05
5.396895E+03	1.451202E-04	4.723687E-05
5.406797E+03	1.456547E-04	4.740817E-05
5.416700E+03	1.461712E-04	4.757355E-05
5.426602E+03	1.466675E-04	4.773235E-05
5.436505E+03	1.471416E-04	4.788390E-05
5.446407E+03	1.475945E-04	4.802846E-05
5.456310E+03	1.480239E-04	4.816540E-05
5.466212E+03	1.484279E-04	4.829402E-05
5.476115E+03	1.488044E-04	4.841365E-05
5.486018E+03	1.491543E-04	4.852461E-05
5.495920E+03	1.494741E-04	4.862574E-05
5.505823E+03	1.497647E-04	4.871734E-05
5.515725E+03	1.500226E-04	4.879828E-05
5.525628E+03	1.502473E-04	4.886838E-05
5.535530E+03	1.504398E-04	4.892800E-05
5.545433E+03	1.505966E-04	4.897598E-05
5.555335E+03	1.507189E-04	4.901271E-05
5.565238E+03	1.508062E-04	4.903805E-05
5.575141E+03	1.508568E-04	4.905142E-05
5.585043E+03	1.508703E-04	4.905273E-05
5.594946E+03	1.508481E-04	4.904240E-05
5.604848E+03	1.507901E-04	4.902040E-05
5.614751E+03	1.506945E-04	4.898618E-05
5.624653E+03	1.505629E-04	4.894025E-05
5.634556E+03	1.503970E-04	4.888313E-05
5.644459E+03	1.501936E-04	4.881386E-05
5.654361E+03	1.499547E-04	4.873299E-05
5.664264E+03	1.496818E-04	4.864112E-05
5.674166E+03	1.493756E-04	4.853837E-05
5.684069E+03	1.490363E-04	4.842488E-05
5.693971E+03	1.486644E-04	4.830080E-05
5.703874E+03	1.482605E-04	4.816631E-05
5.713776E+03	1.478267E-04	4.802215E-05
5.723679E+03	1.473624E-04	4.786802E-05
5.733582E+03	1.468712E-04	4.770519E-05
5.743484E+03	1.463525E-04	4.753345E-05
5.753387E+03	1.458073E-04	4.735307E-05
5.763289E+03	1.452397E-04	4.716542E-05
5.773192E+03	1.446474E-04	4.696981E-05
5.783094E+03	1.440334E-04	4.676711E-05
5.792997E+03	1.434002E-04	4.655821E-05
5.802899E+03	1.427476E-04	4.634300E-05
5.812802E+03	1.420783E-04	4.612242E-05
5.822705E+03	1.413922E-04	4.589637E-05
5.832607E+03	1.406937E-04	4.566633E-05
5.842510E+03	1.399828E-04	4.543225E-05
5.852412E+03	1.392607E-04	4.519459E-05
5.862315E+03	1.385306E-04	4.495432E-05
5.872217E+03	1.377923E-04	4.471143E-05
5.882120E+03	1.370489E-04	4.446688E-05
5.892022E+03	1.363002E-04	4.422065E-05
5.901925E+03	1.355494E-04	4.397372E-05
5.911828E+03	1.347976E-04	4.372653E-05
5.921730E+03	1.340464E-04	4.347954E-05
5.931633E+03	1.332957E-04	4.323271E-05
5.941535E+03	1.325482E-04	4.298696E-05
5.951438E+03	1.318052E-04	4.274269E-05
5.961340E+03	1.310664E-04	4.249981E-05
5.971243E+03	1.303346E-04	4.225921E-05
5.981146E+03	1.296094E-04	4.202076E-05
5.991048E+03	1.288902E-04	4.178429E-05
6.000951E+03	1.281813E-04	4.155116E-05
6.010853E+03	1.274804E-04	4.132065E-05
6.020756E+03	1.267900E-04	4.109359E-05
6.030658E+03	1.261080E-04	4.086925E-05
6.040561E+03	1.254366E-04	4.064836E-05
6.050463E+03	1.247751E-04	4.043070E-05
6.060366E+03	1.241242E-04	4.021647E-05
6.070269E+03	1.234844E-04	4.000589E-05
6.080171E+03	1.228548E-04	3.979863E-05
6.090074E+03	1.222360E-04	3.959487E-05
6.099976E+03	1.216284E-04	3.939475E-05
6.109879E+03	1.210323E-04	3.919840E-05
6.119781E+03	1.204483E-04	3.900595E-05
6.129684E+03	1.198749E-04	3.881698E-05
6.139586E+03	1.193141E-04	3.863209E-05
6.149489E+03	1.187661E-04	3.845134E-05
6.159392E+03	1.182309E-04	3.827476E-05
6.169294E+03	1.177102E-04	3.810291E-05
6.179197E+03	1.172058E-04	3.793632E-05
6.189099E+03	1.167191E-04	3.777550E-05
6.199002E+03	1.162518E-04	3.762095E-05
6.208904E+03	1.158054E-04	3.747318E-05
6.218807E+03	1.153831E-04	3.733320E-05
6.228709E+03	1.149832E-04	3.720050E-05
6.238612E+03	1.146121E-04	3.707712E-05
6.248515E+03	1.142681E-04	3.696250E-05
6.258417E+03	1.139544E-04	3.685770E-05
6.268320E+03	1.136725E-04	3.676320E-05
6.278222E+03	1.134243E-04	3.667955E-05
6.288125E+03	1.132095E-04	3.660674E-05
6.298027E+03	1.130299E-04	3.654531E-05
6.307930E+03	1.128873E-04	3.649580E-05
6.317833E+03	1.127816E-04	3.645825E-05
6.327735E+03	1.127130E-04	3.643267E-05
6.337638E+03	1.126833E-04	3.641966E-05
6.347540E+03	1.126894E-04	3.641820E-05
6.357443E+03	1.127314E-04	3.642831E-05
6.367345E+03	1.128077E-04	3.644952E-05
6.377248E+03	1.129152E-04	3.648074E-05
6.387150E+03	1.130555E-04	3.652259E-05
6.397053E+03	1.132255E-04	3.657396E-05
6.406956E+03	1.134268E-04	3.663544E-05
6.416858E+03	1.136595E-04	3.670704E-05
6.426761E+03	1.139221E-04	3.678825E-05
6.436663E+03	1.142146E-04	3.687909E-05
6.446566E+03	1.145371E-04	3.697956E-05
6.456468E+03	1.148896E-04	3.708972E-05
6.466371E+03	1.152723E-04	3.720957E-05
6.476273E+03	1.156872E-04	3.733975E-05
6.486176E+03	1.161324E-04	3.747971E-05
6.496079E+03	1.166064E-04	3.762889E-05
6.505981E+03	1.171129E-04	3.778853E-05
6.515884E+03	1.176484E-04	3.795744E-05
6.525786E+03	1.182148E-04	3.813631E-05
6.535689E+03	1.188124E-04	3.832516E-05
6.545591E+03	1.194412E-04	3.852404E-05
6.555494E+03	1.201015E-04	3.873302E-05
6.565396E+03	1.207915E-04	3.895151E-05
6.575299E+03	1.215133E-04	3.918018E-05
6.585202E+03	1.222651E-04	3.941848E-05
6.595104E+03	1.230491E-04	3.966707E-05
6.605007E+03	1.238634E-04	3.992538E-05
6.614909E+03	1.247082E-04	4.019346E-05
6.624812E+03	1.255858E-04	4.047202E-05
6.634714E+03	1.264966E-04	4.076117E-05
6.644617E+03	1.274363E-04	4.105958E-05
6.654520E+03	1.284095E-04	4.136871E-05
6.664422E+03	1.294120E-04	4.168719E-05
6.674325E+03	1.304485E-04	4.201653E-05
6.684227E+03	1.315170E-04	4.235609E-05
6.694130E+03	1.326154E-04	4.270518E-05
6.704032E+03	1.337485E-04	4.306537E-05
6.713935E+03	1.349120E-04	4.343522E-05
6.723837E+03	1.361083E-04	4.381556E-05
6.733740E+03	1.373377E-04	4.420646E-05
6.743643E+03	1.386007E-04	4.460802E-05
6.753545E+03	1.398947E-04	4.501948E-05
6.763448E+03	1.412225E-04	4.544173E-05
6.773350E+03	1.425820E-04	4.587402E-05
6.783253E+03	1.439758E-04	4.631724E-05
6.793155E+03	1.454015E-04	4.677063E-05
6.803058E+03	1.468594E-04	4.723422E-05
6.812960E+03	1.483523E-04	4.770896E-05
6.822863E+03	1.498749E-04	4.819314E-05
6.832766E+03	1.514330E-04	4.868858E-05
6.842668E+03	1.530239E-04	4.919446E-05
6.852571E+03	1.546479E-04	4.971080E-05
6.862473E+03	1.563050E-04	5.023767E-05
6.872376E+03	1.579954E-04	5.077512E-05
6.882278E+03	1.597163E-04	5.132218E-05
6.892181E+03	1.614707E-04	5.187987E-05
6.902083E+03	1.632587E-04	5.244822E-05
6.911986E+03	1.650804E-04	5.302726E-05
6.921889E+03	1.669296E-04	5.361496E-05
6.931791E+03	1.688159E-04	5.421440E-05
6.941694E+03	1.707296E-04	5.482248E-05
6.951596E+03	1.726771E-04	5.544127E-05
6.961499E+03	1.746552E-04	5.606971E-05
6.971401E+03	1.766638E-04	5.670777E-05
6.981304E+03	1.787028E-04	5.735541E-05
6.991207E+03	1.807721E-04	5.801259E-05
7.001109E+03	1.828679E-04	5.867810E-05
7.011012E+03	1.849936E-04	5.935302E-05
7.020914E+03	1.871491E-04	6.003732E-05
7.030817E+03	1.893303E-04	6.072970E-05
7.040719E+03	1.915409E-04	6.143129E-05
7.050622E+03	1.937766E-04	6.214076E-05
7.060524E+03	1.960370E-04	6.285797E-05
7.070427E+03	1.983218E-04	6.358279E-05
7.080330E+03	2.006347E-04	6.431639E-05
7.090232E+03	2.029668E-04	6.505600E-05
7.100135E+03	2.053177E-04	6.580138E-05
7.110037E+03	2.076951E-04	6.655509E-05
7.119940E+03	2.100900E-04	6.731418E-05
7.129842E+03	2.125016E-04	6.807842E-05
7.139745E+03	2.149336E-04	6.884899E-05
7.149647E+03	2.173809E-04	6.962422E-05
7.159550E+03	2.198424E-04	7.040382E-05
7.169453E+03	2.223174E-04	7.118752E-05
7.179355E+03	2.248050E-04	7.197502E-05
7.189258E+03	2.273089E-04	7.276756E-05
7.199160E+03	2.298186E-04	7.356172E-05
7.209063E+03	2.323430E-04	7.436034E-05
7.218965E+03	2.348760E-04	7.516151E-05
7.228868E+03	2.374165E-04	7.596487E-05
7.238770E+03	2.399688E-04	7.677178E-05
7.248673E+03	2.425266E-04	7.758022E-05
7.258576E+03	2.450941E-04	7.839154E-05
7.268478E+03	2.476704E-04	7.920547E-05
7.278381E+03	2.502602E-04	8.002348E-05
7.288283E+03	2.528627E-04	8.084531E-05
7.298186E+03	2.554829E-04	8.167259E-05
7.308088E+03	2.581145E-04	8.250325E-05
7.317991E+03	2.607744E-04	8.334278E-05
7.327894E+03	2.634627E-04	8.419114E-05
7.337796E+03	2.661733E-04	8.504638E-05
7.347699E+03	2.689246E-04	8.591437E-05
7.357601E+03	2.717106E-04	8.679325E-05
7.367504E+03	2.745382E-04	8.768514E-05
7.377406E+03	2.774012E-04	8.858812E-05
7.387309E+03	2.803066E-04	8.950438E-05
7.397211E+03	2.832348E-04	9.042766E-05
7.407114E+03	2.861990E-04	9.136219E-05
7.417017E+03	2.891788E-04	9.230146E-05
7.426919E+03	2.921805E-04	9.324747E-05
7.436822E+03	2.951968E-04	9.419785E-05
7.446724E+03	2.982196E-04	9.515009E-05
7.456627E+03	3.012554E-04	9.610619E-05
7.466529E+03	3.042813E-04	9.705887E-05
7.476432E+03	3.073104E-04	9.801234E-05
7.486334E+03	3.103342E-04	9.896387E-05
7.496237E+03	3.133513E-04	9.991299E-05
7.506140E+03	3.163525E-04	1.008568E-04
7.516042E+03	3.193437E-04	1.017971E-04
7.525945E+03	3.223155E-04	1.027311E-04
7.535847E+03	3.252659E-04	1.036580E-04
7.545750E+03	3.282014E-04	1.045798E-04
7.555652E+03	3.311119E-04	1.054935E-04
7.565555E+03	3.340037E-04	1.064010E-04
7.575457E+03	3.368583E-04	1.072964E-04
7.585360E+03	3.396905E-04	1.081844E-04
7.595263E+03	3.424896E-04	1.090617E-04
7.605165E+03	3.452625E-04	1.099304E-04
7.615068E+03	3.479984E-04	1.107871E-04
7.624970E+03	3.506950E-04	1.116311E-04
7.634873E+03	3.533502E-04	1.124617E-04
7.644775E+03	3.559802E-04	1.132841E-04
7.654678E+03	3.585555E-04	1.140888E-04
7.664581E+03	3.611018E-04	1.148841E-04
7.674483E+03	3.635984E-04	1.156635E-04
7.684386E+03	3.660527E-04	1.164292E-04
