#wls	flux	fluxerr
1.584409E+03	5.215502E-03	9.164853E-04
1.624020E+03	5.358276E-03	9.396233E-04
1.663630E+03	5.499581E-03	9.623527E-04
1.703240E+03	5.640508E-03	9.848612E-04
1.742850E+03	5.779394E-03	1.006855E-03
1.782461E+03	5.915487E-03	1.028200E-03
1.822071E+03	6.048388E-03	1.048827E-03
1.861681E+03	6.176548E-03	1.068467E-03
1.901291E+03	6.298790E-03	1.086918E-03
1.940902E+03	6.413825E-03	1.103960E-03
1.980512E+03	6.519328E-03	1.119201E-03
2.020122E+03	6.614342E-03	1.132485E-03
2.059732E+03	6.695639E-03	1.143271E-03
2.099342E+03	6.760202E-03	1.151062E-03
2.138953E+03	6.805686E-03	1.155479E-03
2.178563E+03	6.828863E-03	1.156002E-03
2.218173E+03	6.825911E-03	1.152018E-03
2.257783E+03	6.796629E-03	1.143532E-03
2.297394E+03	6.740432E-03	1.130487E-03
2.337004E+03	6.659739E-03	1.113332E-03
2.376614E+03	6.557150E-03	1.092540E-03
2.416224E+03	6.435054E-03	1.068550E-03
2.455835E+03	6.295929E-03	1.041806E-03
2.495445E+03	6.140981E-03	1.012541E-03
2.535055E+03	5.972396E-03	9.811477E-04
2.574665E+03	5.791059E-03	9.478006E-04
2.614276E+03	5.598196E-03	9.127292E-04
2.653886E+03	5.394745E-03	8.761138E-04
2.693496E+03	5.182021E-03	8.381944E-04
2.733106E+03	4.961163E-03	7.991802E-04
2.772716E+03	4.733390E-03	7.592905E-04
2.812327E+03	4.500421E-03	7.188225E-04
2.851937E+03	4.263940E-03	6.780628E-04
2.891547E+03	4.026017E-03	6.373558E-04
2.931157E+03	3.788814E-03	5.970538E-04
2.970768E+03	3.554467E-03	5.574994E-04
2.980670E+03	3.496545E-03	5.477620E-04
2.990573E+03	3.438970E-03	5.380980E-04
3.000475E+03	3.381756E-03	5.285091E-04
3.010378E+03	3.324995E-03	5.190101E-04
3.020280E+03	3.268631E-03	5.095918E-04
3.030183E+03	3.212687E-03	5.002576E-04
3.040086E+03	3.157318E-03	4.910318E-04
3.049988E+03	3.102407E-03	4.818960E-04
3.059891E+03	3.048104E-03	4.728730E-04
3.069793E+03	2.994362E-03	4.639556E-04
3.079696E+03	2.941199E-03	4.551464E-04
3.089598E+03	2.888752E-03	4.464662E-04
3.099501E+03	2.836921E-03	4.378993E-04
3.109403E+03	2.785784E-03	4.294577E-04
3.119306E+03	2.735362E-03	4.211440E-04
3.129209E+03	2.685730E-03	4.129697E-04
3.139111E+03	2.636861E-03	4.049304E-04
3.149014E+03	2.588835E-03	3.970377E-04
3.158916E+03	2.541682E-03	3.892959E-04
3.168819E+03	2.495390E-03	3.817027E-04
3.178721E+03	2.450040E-03	3.742704E-04
3.188624E+03	2.405712E-03	3.670103E-04
3.198526E+03	2.362357E-03	3.599148E-04
3.208429E+03	2.320096E-03	3.530016E-04
3.218332E+03	2.278884E-03	3.462633E-04
3.228234E+03	2.238868E-03	3.397217E-04
3.238137E+03	2.199964E-03	3.333635E-04
3.248039E+03	2.162238E-03	3.271979E-04
3.257942E+03	2.125745E-03	3.212328E-04
3.267844E+03	2.090470E-03	3.154651E-04
3.277747E+03	2.056461E-03	3.099013E-04
3.287650E+03	2.023665E-03	3.045329E-04
3.297552E+03	1.992125E-03	2.993656E-04
3.307455E+03	1.961847E-03	2.943996E-04
3.317357E+03	1.932837E-03	2.896349E-04
3.327260E+03	1.905097E-03	2.850712E-04
3.337162E+03	1.878600E-03	2.807037E-04
3.347065E+03	1.853347E-03	2.765320E-04
3.356967E+03	1.829339E-03	2.725552E-04
3.366870E+03	1.806573E-03	2.687721E-04
3.376773E+03	1.785021E-03	2.651781E-04
3.386675E+03	1.764680E-03	2.617719E-04
3.396578E+03	1.745547E-03	2.585522E-04
3.406480E+03	1.727595E-03	2.555142E-04
3.416383E+03	1.710818E-03	2.526565E-04
3.426285E+03	1.695213E-03	2.499778E-04
3.436188E+03	1.680731E-03	2.474701E-04
3.446090E+03	1.667389E-03	2.451354E-04
3.455993E+03	1.655162E-03	2.429691E-04
3.465896E+03	1.644025E-03	2.409670E-04
3.475798E+03	1.633974E-03	2.391275E-04
3.485701E+03	1.624966E-03	2.374440E-04
3.495603E+03	1.616997E-03	2.359150E-04
3.505506E+03	1.610046E-03	2.345368E-04
3.515408E+03	1.604090E-03	2.333054E-04
3.525311E+03	1.599109E-03	2.322173E-04
3.535213E+03	1.595081E-03	2.312687E-04
3.545116E+03	1.591971E-03	2.304536E-04
3.555019E+03	1.589775E-03	2.297712E-04
3.564921E+03	1.588457E-03	2.292155E-04
3.574824E+03	1.588016E-03	2.287857E-04
3.584726E+03	1.588399E-03	2.284738E-04
3.594629E+03	1.589622E-03	2.282813E-04
3.604531E+03	1.591618E-03	2.281980E-04
3.614434E+03	1.594384E-03	2.282232E-04
3.624337E+03	1.597888E-03	2.283515E-04
3.634239E+03	1.602126E-03	2.285822E-04
3.644142E+03	1.607050E-03	2.289076E-04
3.654044E+03	1.612658E-03	2.293269E-04
3.663947E+03	1.618915E-03	2.298349E-04
3.673849E+03	1.625817E-03	2.304306E-04
3.683752E+03	1.633331E-03	2.311086E-04
3.693654E+03	1.641465E-03	2.318699E-04
3.703557E+03	1.650169E-03	2.327068E-04
3.713460E+03	1.659452E-03	2.336201E-04
3.723362E+03	1.669289E-03	2.346061E-04
3.733265E+03	1.679672E-03	2.356632E-04
3.743167E+03	1.690577E-03	2.367876E-04
3.753070E+03	1.702008E-03	2.379794E-04
3.762972E+03	1.713921E-03	2.392323E-04
3.772875E+03	1.726319E-03	2.405463E-04
3.782777E+03	1.739189E-03	2.419191E-04
3.792680E+03	1.752516E-03	2.433484E-04
3.802583E+03	1.766284E-03	2.448317E-04
3.812485E+03	1.780462E-03	2.463642E-04
3.822388E+03	1.795064E-03	2.479477E-04
3.832290E+03	1.810072E-03	2.495793E-04
3.842193E+03	1.825452E-03	2.512541E-04
3.852095E+03	1.841200E-03	2.529712E-04
3.861998E+03	1.857296E-03	2.547278E-04
3.871900E+03	1.873735E-03	2.565228E-04
3.881803E+03	1.890480E-03	2.583508E-04
3.891706E+03	1.907540E-03	2.602131E-04
3.901608E+03	1.924876E-03	2.621039E-04
3.911511E+03	1.942498E-03	2.640244E-04
3.921413E+03	1.960364E-03	2.659688E-04
3.931316E+03	1.978449E-03	2.679334E-04
3.941218E+03	1.996759E-03	2.699191E-04
3.951121E+03	2.015252E-03	2.719199E-04
3.961024E+03	2.033916E-03	2.739341E-04
3.970926E+03	2.052724E-03	2.759580E-04
3.980829E+03	2.071664E-03	2.779897E-04
3.990731E+03	2.090706E-03	2.800254E-04
4.000634E+03	2.109822E-03	2.820611E-04
4.010536E+03	2.128998E-03	2.840951E-04
4.020439E+03	2.148224E-03	2.861257E-04
4.030341E+03	2.167433E-03	2.881442E-04
4.040244E+03	2.186647E-03	2.901538E-04
4.050147E+03	2.205802E-03	2.921455E-04
4.060049E+03	2.224900E-03	2.941200E-04
4.069952E+03	2.243892E-03	2.960708E-04
4.079854E+03	2.262762E-03	2.979961E-04
4.089757E+03	2.281477E-03	2.998915E-04
4.099659E+03	2.300002E-03	3.017525E-04
4.109562E+03	2.318300E-03	3.035746E-04
4.119464E+03	2.336332E-03	3.053527E-04
4.129367E+03	2.354076E-03	3.070845E-04
4.139270E+03	2.371491E-03	3.087647E-04
4.149172E+03	2.388513E-03	3.103852E-04
4.159075E+03	2.405093E-03	3.119402E-04
4.168977E+03	2.421182E-03	3.134236E-04
4.178880E+03	2.436745E-03	3.148314E-04
4.188782E+03	2.451707E-03	3.161543E-04
4.198685E+03	2.466009E-03	3.173851E-04
4.208587E+03	2.479566E-03	3.185137E-04
4.218490E+03	2.492334E-03	3.195349E-04
4.228393E+03	2.504223E-03	3.204377E-04
4.238295E+03	2.515160E-03	3.212138E-04
4.248198E+03	2.525072E-03	3.218544E-04
4.258100E+03	2.533840E-03	3.223454E-04
4.268003E+03	2.541429E-03	3.226830E-04
4.277905E+03	2.547718E-03	3.228532E-04
4.287808E+03	2.552633E-03	3.228472E-04
4.297711E+03	2.556077E-03	3.226541E-04
4.307613E+03	2.558025E-03	3.222719E-04
4.317516E+03	2.558350E-03	3.216858E-04
4.327418E+03	2.557044E-03	3.208958E-04
4.337321E+03	2.554066E-03	3.198983E-04
4.347223E+03	2.549413E-03	3.186942E-04
4.357126E+03	2.543153E-03	3.172931E-04
4.367028E+03	2.535377E-03	3.157075E-04
4.376931E+03	2.526232E-03	3.139570E-04
4.386834E+03	2.515794E-03	3.120517E-04
4.396736E+03	2.504229E-03	3.100132E-04
4.406639E+03	2.491643E-03	3.078555E-04
4.416541E+03	2.478169E-03	3.055956E-04
4.426444E+03	2.463978E-03	3.032552E-04
4.436346E+03	2.449135E-03	3.008428E-04
4.446249E+03	2.433830E-03	2.983819E-04
4.456151E+03	2.418118E-03	2.958799E-04
4.466054E+03	2.402157E-03	2.933562E-04
4.475957E+03	2.386033E-03	2.908215E-04
4.485859E+03	2.369850E-03	2.882884E-04
4.495762E+03	2.353704E-03	2.857687E-04
4.505664E+03	2.337641E-03	2.832679E-04
4.515567E+03	2.321786E-03	2.808010E-04
4.525469E+03	2.306172E-03	2.783719E-04
4.535372E+03	2.290869E-03	2.759888E-04
4.545274E+03	2.275940E-03	2.736592E-04
4.555177E+03	2.261443E-03	2.713894E-04
4.565080E+03	2.247409E-03	2.691832E-04
4.574982E+03	2.233864E-03	2.670430E-04
4.584885E+03	2.220849E-03	2.649737E-04
4.594787E+03	2.208401E-03	2.629792E-04
4.604690E+03	2.196555E-03	2.610631E-04
4.614592E+03	2.185298E-03	2.592236E-04
4.624495E+03	2.174678E-03	2.574660E-04
4.634398E+03	2.164697E-03	2.557901E-04
4.644300E+03	2.155359E-03	2.541956E-04
4.654203E+03	2.146680E-03	2.526845E-04
4.664105E+03	2.138660E-03	2.512559E-04
4.674008E+03	2.131295E-03	2.499090E-04
4.683910E+03	2.124580E-03	2.486428E-04
4.693813E+03	2.118511E-03	2.474564E-04
4.703715E+03	2.113083E-03	2.463488E-04
4.713618E+03	2.108292E-03	2.453189E-04
4.723521E+03	2.104130E-03	2.443655E-04
4.733423E+03	2.100568E-03	2.434846E-04
4.743326E+03	2.097616E-03	2.426771E-04
4.753228E+03	2.095221E-03	2.419365E-04
4.763131E+03	2.093408E-03	2.412652E-04
4.773033E+03	2.092121E-03	2.406564E-04
4.782936E+03	2.091361E-03	2.401098E-04
4.792838E+03	2.091107E-03	2.396228E-04
4.802741E+03	2.091297E-03	2.391878E-04
4.812644E+03	2.091949E-03	2.388067E-04
4.822546E+03	2.093018E-03	2.384739E-04
4.832449E+03	2.094501E-03	2.381890E-04
4.842351E+03	2.096311E-03	2.379417E-04
4.852254E+03	2.098486E-03	2.377362E-04
4.862156E+03	2.100961E-03	2.375648E-04
4.872059E+03	2.103733E-03	2.374271E-04
4.881961E+03	2.106758E-03	2.373178E-04
4.891864E+03	2.110033E-03	2.372367E-04
4.901767E+03	2.113496E-03	2.371763E-04
4.911669E+03	2.117144E-03	2.371365E-04
4.921572E+03	2.120978E-03	2.371172E-04
4.931474E+03	2.124937E-03	2.371114E-04
4.941377E+03	2.129003E-03	2.371170E-04
4.951279E+03	2.133179E-03	2.371345E-04
4.961182E+03	2.137450E-03	2.371621E-04
4.971085E+03	2.141759E-03	2.371934E-04
4.980987E+03	2.146114E-03	2.372292E-04
4.990890E+03	2.150501E-03	2.372681E-04
5.000792E+03	2.154908E-03	2.373086E-04
5.010695E+03	2.159300E-03	2.373472E-04
5.020597E+03	2.163665E-03	2.373823E-04
5.030500E+03	2.168011E-03	2.374149E-04
5.040402E+03	2.172282E-03	2.374390E-04
5.050305E+03	2.176485E-03	2.374553E-04
5.060208E+03	2.180582E-03	2.374599E-04
5.070110E+03	2.184558E-03	2.374511E-04
5.080013E+03	2.188394E-03	2.374271E-04
5.089915E+03	2.192072E-03	2.373860E-04
5.099818E+03	2.195549E-03	2.373233E-04
5.109720E+03	2.198824E-03	2.372390E-04
5.119623E+03	2.201828E-03	2.371258E-04
5.129525E+03	2.204556E-03	2.369835E-04
5.139428E+03	2.206956E-03	2.368065E-04
5.149331E+03	2.208995E-03	2.365916E-04
5.159233E+03	2.210636E-03	2.363354E-04
5.169136E+03	2.211844E-03	2.360339E-04
5.179038E+03	2.212531E-03	2.356783E-04
5.188941E+03	2.212699E-03	2.352692E-04
5.198843E+03	2.212235E-03	2.347949E-04
5.208746E+03	2.211136E-03	2.342553E-04
5.218648E+03	2.209306E-03	2.336410E-04
5.228551E+03	2.206717E-03	2.329492E-04
5.238454E+03	2.203294E-03	2.321726E-04
5.248356E+03	2.198964E-03	2.313039E-04
5.258259E+03	2.193695E-03	2.303405E-04
5.268161E+03	2.187395E-03	2.292731E-04
5.278064E+03	2.180038E-03	2.280997E-04
5.287966E+03	2.171559E-03	2.268141E-04
5.297869E+03	2.161899E-03	2.254106E-04
5.307772E+03	2.151025E-03	2.238867E-04
5.317674E+03	2.138912E-03	2.222404E-04
5.327577E+03	2.125545E-03	2.204707E-04
5.337479E+03	2.110875E-03	2.185733E-04
5.347382E+03	2.094927E-03	2.165515E-04
5.357284E+03	2.077700E-03	2.144058E-04
5.367187E+03	2.059244E-03	2.121420E-04
5.377089E+03	2.039561E-03	2.097611E-04
5.386992E+03	2.018771E-03	2.072758E-04
5.396895E+03	1.996963E-03	2.046960E-04
5.406797E+03	1.974339E-03	2.020426E-04
5.416700E+03	1.950949E-03	1.993212E-04
5.426602E+03	1.926759E-03	1.965285E-04
5.436505E+03	1.901790E-03	1.936671E-04
5.446407E+03	1.876138E-03	1.907468E-04
5.456310E+03	1.850004E-03	1.877882E-04
5.466212E+03	1.823499E-03	1.848027E-04
5.476115E+03	1.796846E-03	1.818131E-04
5.486018E+03	1.770179E-03	1.788325E-04
5.495920E+03	1.743680E-03	1.758794E-04
5.505823E+03	1.717528E-03	1.729714E-04
5.515725E+03	1.691892E-03	1.701255E-04
5.525628E+03	1.666902E-03	1.673542E-04
5.535530E+03	1.642714E-03	1.646727E-04
5.545433E+03	1.619469E-03	1.620947E-04
5.555335E+03	1.597283E-03	1.596313E-04
5.565238E+03	1.576257E-03	1.572920E-04
5.575141E+03	1.556509E-03	1.550877E-04
5.585043E+03	1.538091E-03	1.530232E-04
5.594946E+03	1.521070E-03	1.511043E-04
5.604848E+03	1.505476E-03	1.493335E-04
5.614751E+03	1.491339E-03	1.477128E-04
5.624653E+03	1.478653E-03	1.462410E-04
5.634556E+03	1.467395E-03	1.449152E-04
5.644459E+03	1.457544E-03	1.437327E-04
5.654361E+03	1.449065E-03	1.426893E-04
5.664264E+03	1.441885E-03	1.417772E-04
5.674166E+03	1.435953E-03	1.409908E-04
5.684069E+03	1.431202E-03	1.403230E-04
5.693971E+03	1.427561E-03	1.397662E-04
5.703874E+03	1.424993E-03	1.393166E-04
5.713776E+03	1.423406E-03	1.389644E-04
5.723679E+03	1.422772E-03	1.387066E-04
5.733582E+03	1.423024E-03	1.385363E-04
5.743484E+03	1.424133E-03	1.384502E-04
5.753387E+03	1.426060E-03	1.384443E-04
5.763289E+03	1.428773E-03	1.385150E-04
5.773192E+03	1.432261E-03	1.386609E-04
5.783094E+03	1.436486E-03	1.388782E-04
5.792997E+03	1.441445E-03	1.391662E-04
5.802899E+03	1.447124E-03	1.395233E-04
5.812802E+03	1.453495E-03	1.399464E-04
5.822705E+03	1.460580E-03	1.404375E-04
5.832607E+03	1.468341E-03	1.409925E-04
5.842510E+03	1.476803E-03	1.416138E-04
5.852412E+03	1.485947E-03	1.422991E-04
5.862315E+03	1.495768E-03	1.430477E-04
5.872217E+03	1.506275E-03	1.438604E-04
5.882120E+03	1.517429E-03	1.447329E-04
5.892022E+03	1.529235E-03	1.456659E-04
5.901925E+03	1.541700E-03	1.466594E-04
5.911828E+03	1.554773E-03	1.477086E-04
5.921730E+03	1.568454E-03	1.488133E-04
5.931633E+03	1.582725E-03	1.499715E-04
5.941535E+03	1.597544E-03	1.511791E-04
5.951438E+03	1.612888E-03	1.524337E-04
5.961340E+03	1.628730E-03	1.537326E-04
5.971243E+03	1.645023E-03	1.550712E-04
5.981146E+03	1.661734E-03	1.564465E-04
5.991048E+03	1.678851E-03	1.578570E-04
6.000951E+03	1.696280E-03	1.592939E-04
6.010853E+03	1.714020E-03	1.607570E-04
6.020756E+03	1.731969E-03	1.622368E-04
6.030658E+03	1.750122E-03	1.637326E-04
6.040561E+03	1.768366E-03	1.652339E-04
6.050463E+03	1.786666E-03	1.667376E-04
6.060366E+03	1.804919E-03	1.682340E-04
6.070269E+03	1.823082E-03	1.697193E-04
6.080171E+03	1.841043E-03	1.711831E-04
6.090074E+03	1.858708E-03	1.726168E-04
6.099976E+03	1.876027E-03	1.740159E-04
6.109879E+03	1.892883E-03	1.753698E-04
6.119781E+03	1.909233E-03	1.766748E-04
6.129684E+03	1.925023E-03	1.779261E-04
6.139586E+03	1.940211E-03	1.791199E-04
6.149489E+03	1.954774E-03	1.802546E-04
6.159392E+03	1.968752E-03	1.813341E-04
6.169294E+03	1.982149E-03	1.823589E-04
6.179197E+03	1.995000E-03	1.833326E-04
6.189099E+03	2.007349E-03	1.842594E-04
6.199002E+03	2.019295E-03	1.851487E-04
6.208904E+03	2.030838E-03	1.860004E-04
6.218807E+03	2.042030E-03	1.868193E-04
6.228709E+03	2.052948E-03	1.876128E-04
6.238612E+03	2.063645E-03	1.883854E-04
6.248515E+03	2.074147E-03	1.891398E-04
6.258417E+03	2.084472E-03	1.898775E-04
6.268320E+03	2.094696E-03	1.906053E-04
6.278222E+03	2.104804E-03	1.913221E-04
6.288125E+03	2.114841E-03	1.920317E-04
6.298027E+03	2.124811E-03	1.927346E-04
6.307930E+03	2.134722E-03	1.934314E-04
6.317833E+03	2.144574E-03	1.941221E-04
6.327735E+03	2.154363E-03	1.948063E-04
6.337638E+03	2.164081E-03	1.954833E-04
6.347540E+03	2.173686E-03	1.961491E-04
6.357443E+03	2.183194E-03	1.968053E-04
6.367345E+03	2.192581E-03	1.974496E-04
6.377248E+03	2.201862E-03	1.980835E-04
6.387150E+03	2.211044E-03	1.987074E-04
6.397053E+03	2.220071E-03	1.993164E-04
6.406956E+03	2.228986E-03	1.999143E-04
6.416858E+03	2.237768E-03	2.004991E-04
6.426761E+03	2.246428E-03	2.010719E-04
6.436663E+03	2.254915E-03	2.016282E-04
6.446566E+03	2.263280E-03	2.021723E-04
6.456468E+03	2.271476E-03	2.027003E-04
6.466371E+03	2.279523E-03	2.032138E-04
6.476273E+03	2.287378E-03	2.037090E-04
6.486176E+03	2.295068E-03	2.041882E-04
6.496079E+03	2.302624E-03	2.046544E-04
6.505981E+03	2.309973E-03	2.051010E-04
6.515884E+03	2.317148E-03	2.055309E-04
6.525786E+03	2.324192E-03	2.059481E-04
6.535689E+03	2.331028E-03	2.063456E-04
6.545591E+03	2.337740E-03	2.067309E-04
6.555494E+03	2.344254E-03	2.070975E-04
6.565396E+03	2.350650E-03	2.074524E-04
6.575299E+03	2.356855E-03	2.077893E-04
6.585202E+03	2.362905E-03	2.081114E-04
6.595104E+03	2.368799E-03	2.084186E-04
6.605007E+03	2.374494E-03	2.087072E-04
6.614909E+03	2.380025E-03	2.089801E-04
6.624812E+03	2.385342E-03	2.092332E-04
6.634714E+03	2.390440E-03	2.094661E-04
6.644617E+03	2.395353E-03	2.096817E-04
6.654520E+03	2.400030E-03	2.098756E-04
6.664422E+03	2.404425E-03	2.100439E-04
6.674325E+03	2.408616E-03	2.101935E-04
6.684227E+03	2.412516E-03	2.103168E-04
6.694130E+03	2.416159E-03	2.104170E-04
6.704032E+03	2.419547E-03	2.104942E-04
6.713935E+03	2.422632E-03	2.105444E-04
6.723837E+03	2.425412E-03	2.105674E-04
6.733740E+03	2.427881E-03	2.105630E-04
6.743643E+03	2.430083E-03	2.105351E-04
6.753545E+03	2.431971E-03	2.104795E-04
6.763448E+03	2.433496E-03	2.103922E-04
6.773350E+03	2.434700E-03	2.102771E-04
6.783253E+03	2.435582E-03	2.101341E-04
6.793155E+03	2.436141E-03	2.099633E-04
6.803058E+03	2.436329E-03	2.097605E-04
6.812960E+03	2.436149E-03	2.095264E-04
6.822863E+03	2.435645E-03	2.092648E-04
6.832766E+03	2.434775E-03	2.089723E-04
6.842668E+03	2.433541E-03	2.086491E-04
6.852571E+03	2.431945E-03	2.082955E-04
6.862473E+03	2.429991E-03	2.079121E-04
6.872376E+03	2.427683E-03	2.074995E-04
6.882278E+03	2.425025E-03	2.070580E-04
6.892181E+03	2.421973E-03	2.065841E-04
6.902083E+03	2.418531E-03	2.060783E-04
6.911986E+03	2.414753E-03	2.055454E-04
6.921889E+03	2.410647E-03	2.049862E-04
6.931791E+03	2.406124E-03	2.043934E-04
6.941694E+03	2.401290E-03	2.037760E-04
6.951596E+03	2.396111E-03	2.031314E-04
6.961499E+03	2.390597E-03	2.024607E-04
6.971401E+03	2.384718E-03	2.017614E-04
6.981304E+03	2.378537E-03	2.010389E-04
6.991207E+03	2.372069E-03	2.002949E-04
7.001109E+03	2.365331E-03	1.995308E-04
7.011012E+03	2.358298E-03	1.987447E-04
7.020914E+03	2.350983E-03	1.979378E-04
7.030817E+03	2.343455E-03	1.971163E-04
7.040719E+03	2.335690E-03	1.962779E-04
7.050622E+03	2.327656E-03	1.954205E-04
7.060524E+03	2.319472E-03	1.945539E-04
7.070427E+03	2.311116E-03	1.936766E-04
7.080330E+03	2.302611E-03	1.927905E-04
7.090232E+03	2.293938E-03	1.918943E-04
7.100135E+03	2.285173E-03	1.909943E-04
7.110037E+03	2.276345E-03	1.900932E-04
7.119940E+03	2.267443E-03	1.891900E-04
7.129842E+03	2.258502E-03	1.882879E-04
7.139745E+03	2.249606E-03	1.873939E-04
7.149647E+03	2.240745E-03	1.865073E-04
7.159550E+03	2.231957E-03	1.856313E-04
7.169453E+03	2.223281E-03	1.847693E-04
7.179355E+03	2.214751E-03	1.839240E-04
7.189258E+03	2.206355E-03	1.830947E-04
7.199160E+03	2.198212E-03	1.822912E-04
7.209063E+03	2.190298E-03	1.815116E-04
7.218965E+03	2.182539E-03	1.807499E-04
7.228868E+03	2.175082E-03	1.800182E-04
7.238770E+03	2.167800E-03	1.793061E-04
7.248673E+03	2.160776E-03	1.786205E-04
7.258576E+03	2.153963E-03	1.779576E-04
7.268478E+03	2.147342E-03	1.773159E-04
7.278381E+03	2.140852E-03	1.766905E-04
7.288283E+03	2.134467E-03	1.760792E-04
7.298186E+03	2.128159E-03	1.754799E-04
7.308088E+03	2.121901E-03	1.748904E-04
7.317991E+03	2.115564E-03	1.743001E-04
7.327894E+03	2.109159E-03	1.737102E-04
7.337796E+03	2.102564E-03	1.731105E-04
7.347699E+03	2.095693E-03	1.724942E-04
7.357601E+03	2.088468E-03	1.718550E-04
7.367504E+03	2.080901E-03	1.711939E-04
7.377406E+03	2.072965E-03	1.705087E-04
7.387309E+03	2.064718E-03	1.698045E-04
7.397211E+03	2.056230E-03	1.690868E-04
7.407114E+03	2.047430E-03	1.683501E-04
7.417017E+03	2.038352E-03	1.675967E-04
7.426919E+03	2.029075E-03	1.668331E-04
7.436822E+03	2.019502E-03	1.660510E-04
7.446724E+03	2.009744E-03	1.652594E-04
7.456627E+03	1.999852E-03	1.644623E-04
7.466529E+03	1.989884E-03	1.636641E-04
7.476432E+03	1.979901E-03	1.628697E-04
7.486334E+03	1.969964E-03	1.620841E-04
7.496237E+03	1.960183E-03	1.613159E-04
7.506140E+03	1.950575E-03	1.605664E-04
7.516042E+03	1.941239E-03	1.598435E-04
7.525945E+03	1.932179E-03	1.591475E-04
7.535847E+03	1.923489E-03	1.584859E-04
7.545750E+03	1.915201E-03	1.578613E-04
7.555652E+03	1.907306E-03	1.572727E-04
7.565555E+03	1.899868E-03	1.567253E-04
7.575457E+03	1.892906E-03	1.562205E-04
7.585360E+03	1.886386E-03	1.557555E-04
7.595263E+03	1.880360E-03	1.553344E-04
7.605165E+03	1.874783E-03	1.549536E-04
7.615068E+03	1.869744E-03	1.546200E-04
7.624970E+03	1.865147E-03	1.543260E-04
7.634873E+03	1.861029E-03	1.540744E-04
7.644775E+03	1.857335E-03	1.538605E-04
7.654678E+03	1.854094E-03	1.536868E-04
7.664581E+03	1.851291E-03	1.535521E-04
7.674483E+03	1.848909E-03	1.534547E-04
7.684386E+03	1.846884E-03	1.533894E-04
