#wls	flux	fluxerr
1.584409E+03	2.497655E-03	2.406371E-04
1.624020E+03	2.579618E-03	2.485299E-04
1.663630E+03	2.658770E-03	2.561516E-04
1.703240E+03	2.733887E-03	2.633842E-04
1.742850E+03	2.804712E-03	2.702029E-04
1.782461E+03	2.869882E-03	2.764765E-04
1.822071E+03	2.928498E-03	2.821184E-04
1.861681E+03	2.980120E-03	2.870861E-04
1.901291E+03	3.023270E-03	2.912375E-04
1.940902E+03	3.057224E-03	2.945026E-04
1.980512E+03	3.080797E-03	2.967676E-04
2.020122E+03	3.093335E-03	2.979693E-04
2.059732E+03	3.093401E-03	2.979696E-04
2.099342E+03	3.080001E-03	2.966725E-04
2.138953E+03	3.052199E-03	2.939882E-04
2.178563E+03	3.008502E-03	2.897729E-04
2.218173E+03	2.947829E-03	2.839225E-04
2.257783E+03	2.870381E-03	2.764566E-04
2.297394E+03	2.777420E-03	2.674968E-04
2.337004E+03	2.671947E-03	2.573322E-04
2.376614E+03	2.556466E-03	2.462042E-04
2.416224E+03	2.433179E-03	2.343250E-04
2.455835E+03	2.304336E-03	2.219110E-04
2.495445E+03	2.171389E-03	2.091024E-04
2.535055E+03	2.035949E-03	1.960544E-04
2.574665E+03	1.899385E-03	1.828986E-04
2.614276E+03	1.763084E-03	1.697689E-04
2.653886E+03	1.628176E-03	1.567739E-04
2.693496E+03	1.495770E-03	1.440205E-04
2.733106E+03	1.366879E-03	1.316062E-04
2.772716E+03	1.242420E-03	1.196192E-04
2.812327E+03	1.123238E-03	1.081410E-04
2.851937E+03	1.010132E-03	9.724851E-05
2.891547E+03	9.037898E-04	8.700774E-05
2.931157E+03	8.047869E-04	7.747413E-05
2.970768E+03	7.135244E-04	6.868623E-05
2.980670E+03	6.919657E-04	6.661034E-05
2.990573E+03	6.708898E-04	6.458095E-05
3.000475E+03	6.503248E-04	6.260078E-05
3.010378E+03	6.302526E-04	6.066807E-05
3.020280E+03	6.106833E-04	5.878381E-05
3.030183E+03	5.916248E-04	5.694875E-05
3.040086E+03	5.730473E-04	5.516002E-05
3.049988E+03	5.549821E-04	5.342064E-05
3.059891E+03	5.373999E-04	5.172776E-05
3.069793E+03	5.203171E-04	5.008299E-05
3.079696E+03	5.037164E-04	4.848465E-05
3.089598E+03	4.875920E-04	4.693218E-05
3.099501E+03	4.719567E-04	4.542682E-05
3.109403E+03	4.567848E-04	4.396609E-05
3.119306E+03	4.420956E-04	4.255184E-05
3.129209E+03	4.278561E-04	4.118089E-05
3.139111E+03	4.140835E-04	3.985492E-05
3.149014E+03	4.007545E-04	3.857165E-05
3.158916E+03	3.878757E-04	3.733175E-05
3.168819E+03	3.754320E-04	3.613374E-05
3.178721E+03	3.634216E-04	3.497746E-05
3.188624E+03	3.518359E-04	3.386207E-05
3.198526E+03	3.406660E-04	3.278671E-05
3.208429E+03	3.298973E-04	3.174999E-05
3.218332E+03	3.195321E-04	3.075212E-05
3.228234E+03	3.095558E-04	2.979170E-05
3.238137E+03	2.999639E-04	2.886829E-05
3.248039E+03	2.907419E-04	2.798050E-05
3.257942E+03	2.818810E-04	2.712747E-05
3.267844E+03	2.733758E-04	2.630869E-05
3.277747E+03	2.652122E-04	2.552280E-05
3.287650E+03	2.573853E-04	2.476933E-05
3.297552E+03	2.498847E-04	2.404726E-05
3.307455E+03	2.426938E-04	2.335502E-05
3.317357E+03	2.358104E-04	2.269238E-05
3.327260E+03	2.292217E-04	2.205813E-05
3.337162E+03	2.229187E-04	2.145136E-05
3.347065E+03	2.168922E-04	2.087121E-05
3.356967E+03	2.111275E-04	2.031628E-05
3.366870E+03	2.056222E-04	1.978631E-05
3.376773E+03	2.003648E-04	1.928021E-05
3.386675E+03	1.953447E-04	1.879695E-05
3.396578E+03	1.905543E-04	1.833580E-05
3.406480E+03	1.859858E-04	1.789602E-05
3.416383E+03	1.816273E-04	1.747644E-05
3.426285E+03	1.774745E-04	1.707668E-05
3.436188E+03	1.735163E-04	1.669563E-05
3.446090E+03	1.697464E-04	1.633272E-05
3.455993E+03	1.661569E-04	1.598717E-05
3.465896E+03	1.627402E-04	1.565826E-05
3.475798E+03	1.594893E-04	1.534530E-05
3.485701E+03	1.563972E-04	1.504763E-05
3.495603E+03	1.534559E-04	1.476447E-05
3.505506E+03	1.506578E-04	1.449510E-05
3.515408E+03	1.479975E-04	1.423899E-05
3.525311E+03	1.454681E-04	1.399547E-05
3.535213E+03	1.430648E-04	1.376410E-05
3.545116E+03	1.407802E-04	1.354415E-05
3.555019E+03	1.386100E-04	1.333521E-05
3.564921E+03	1.365488E-04	1.313676E-05
3.574824E+03	1.345944E-04	1.294859E-05
3.584726E+03	1.327405E-04	1.277009E-05
3.594629E+03	1.309837E-04	1.260094E-05
3.604531E+03	1.293171E-04	1.244047E-05
3.614434E+03	1.277379E-04	1.228840E-05
3.624337E+03	1.262422E-04	1.214438E-05
3.634239E+03	1.248263E-04	1.200803E-05
3.644142E+03	1.234877E-04	1.187912E-05
3.654044E+03	1.222241E-04	1.175742E-05
3.663947E+03	1.210320E-04	1.164262E-05
3.673849E+03	1.199104E-04	1.153459E-05
3.683752E+03	1.188561E-04	1.143303E-05
3.693654E+03	1.178689E-04	1.133794E-05
3.703557E+03	1.169468E-04	1.124911E-05
3.713460E+03	1.160876E-04	1.116633E-05
3.723362E+03	1.152903E-04	1.108951E-05
3.733265E+03	1.145549E-04	1.101864E-05
3.743167E+03	1.138792E-04	1.095351E-05
3.753070E+03	1.132631E-04	1.089412E-05
3.762972E+03	1.127046E-04	1.084027E-05
3.772875E+03	1.122026E-04	1.079185E-05
3.782777E+03	1.117570E-04	1.074886E-05
3.792680E+03	1.113676E-04	1.071129E-05
3.802583E+03	1.110325E-04	1.067892E-05
3.812485E+03	1.107525E-04	1.065186E-05
3.822388E+03	1.105246E-04	1.062981E-05
3.832290E+03	1.103505E-04	1.061294E-05
3.842193E+03	1.102275E-04	1.060097E-05
3.852095E+03	1.101570E-04	1.059406E-05
3.861998E+03	1.101374E-04	1.059204E-05
3.871900E+03	1.101683E-04	1.059488E-05
3.881803E+03	1.102487E-04	1.060248E-05
3.891706E+03	1.103787E-04	1.061485E-05
3.901608E+03	1.105571E-04	1.063187E-05
3.911511E+03	1.107848E-04	1.065363E-05
3.921413E+03	1.110599E-04	1.067995E-05
3.931316E+03	1.113823E-04	1.071081E-05
3.941218E+03	1.117509E-04	1.074613E-05
3.951121E+03	1.121668E-04	1.078597E-05
3.961024E+03	1.126288E-04	1.083026E-05
3.970926E+03	1.131361E-04	1.087890E-05
3.980829E+03	1.136877E-04	1.093180E-05
3.990731E+03	1.142845E-04	1.098905E-05
4.000634E+03	1.149247E-04	1.105047E-05
4.010536E+03	1.156093E-04	1.111614E-05
4.020439E+03	1.163364E-04	1.118591E-05
4.030341E+03	1.171060E-04	1.125976E-05
4.040244E+03	1.179183E-04	1.133771E-05
4.050147E+03	1.187723E-04	1.141967E-05
4.060049E+03	1.196673E-04	1.150557E-05
4.069952E+03	1.206024E-04	1.159532E-05
4.079854E+03	1.215786E-04	1.168902E-05
4.089757E+03	1.225942E-04	1.178651E-05
4.099659E+03	1.236494E-04	1.188780E-05
4.109562E+03	1.247423E-04	1.199272E-05
4.119464E+03	1.258732E-04	1.210127E-05
4.129367E+03	1.270421E-04	1.221348E-05
4.139270E+03	1.282473E-04	1.232919E-05
4.149172E+03	1.294890E-04	1.244839E-05
4.159075E+03	1.307653E-04	1.257091E-05
4.168977E+03	1.320764E-04	1.269678E-05
4.178880E+03	1.334204E-04	1.282581E-05
4.188782E+03	1.347975E-04	1.295801E-05
4.198685E+03	1.362056E-04	1.309319E-05
4.208587E+03	1.376438E-04	1.323126E-05
4.218490E+03	1.391101E-04	1.337203E-05
4.228393E+03	1.406045E-04	1.351549E-05
4.238295E+03	1.421247E-04	1.366143E-05
4.248198E+03	1.436697E-04	1.380975E-05
4.258100E+03	1.452371E-04	1.396021E-05
4.268003E+03	1.468244E-04	1.411259E-05
4.277905E+03	1.484302E-04	1.426674E-05
4.287808E+03	1.500531E-04	1.442253E-05
4.297711E+03	1.516903E-04	1.457969E-05
4.307613E+03	1.533403E-04	1.473807E-05
4.317516E+03	1.550000E-04	1.489738E-05
4.327418E+03	1.566689E-04	1.505757E-05
4.337321E+03	1.583452E-04	1.521846E-05
4.347223E+03	1.600309E-04	1.538025E-05
4.357126E+03	1.617241E-04	1.554277E-05
4.367028E+03	1.634257E-04	1.570608E-05
4.376931E+03	1.651353E-04	1.587016E-05
4.386834E+03	1.668553E-04	1.603522E-05
4.396736E+03	1.685839E-04	1.620112E-05
4.406639E+03	1.703209E-04	1.636781E-05
4.416541E+03	1.720674E-04	1.653542E-05
4.426444E+03	1.738234E-04	1.670393E-05
4.436346E+03	1.755887E-04	1.687332E-05
4.446249E+03	1.773618E-04	1.704346E-05
4.456151E+03	1.791441E-04	1.721449E-05
4.466054E+03	1.809339E-04	1.738623E-05
4.475957E+03	1.827319E-04	1.755875E-05
4.485859E+03	1.845377E-04	1.773201E-05
4.495762E+03	1.863483E-04	1.790573E-05
4.505664E+03	1.881658E-04	1.808011E-05
4.515567E+03	1.899886E-04	1.825499E-05
4.525469E+03	1.918174E-04	1.843044E-05
4.535372E+03	1.936490E-04	1.860616E-05
4.545274E+03	1.954856E-04	1.878235E-05
4.555177E+03	1.973243E-04	1.895874E-05
4.565080E+03	1.991676E-04	1.913556E-05
4.574982E+03	2.010128E-04	1.931256E-05
4.584885E+03	2.028604E-04	1.948978E-05
4.594787E+03	2.047097E-04	1.966716E-05
4.604690E+03	2.065633E-04	1.984496E-05
4.614592E+03	2.084191E-04	2.002295E-05
4.624495E+03	2.102799E-04	2.020142E-05
4.634398E+03	2.121453E-04	2.038033E-05
4.644300E+03	2.140147E-04	2.055961E-05
4.654203E+03	2.158920E-04	2.073965E-05
4.664105E+03	2.177746E-04	2.092019E-05
4.674008E+03	2.196647E-04	2.110145E-05
4.683910E+03	2.215600E-04	2.128319E-05
4.693813E+03	2.234626E-04	2.146564E-05
4.703715E+03	2.253682E-04	2.164837E-05
4.713618E+03	2.272788E-04	2.183157E-05
4.723521E+03	2.291924E-04	2.201505E-05
4.733423E+03	2.311111E-04	2.219902E-05
4.743326E+03	2.330329E-04	2.238328E-05
4.753228E+03	2.349577E-04	2.256781E-05
4.763131E+03	2.368854E-04	2.275262E-05
4.773033E+03	2.388164E-04	2.293774E-05
4.782936E+03	2.407505E-04	2.312316E-05
4.792838E+03	2.426855E-04	2.330865E-05
4.802741E+03	2.446235E-04	2.349443E-05
4.812644E+03	2.465649E-04	2.368052E-05
4.822546E+03	2.485071E-04	2.386668E-05
4.832449E+03	2.504499E-04	2.405290E-05
4.842351E+03	2.523955E-04	2.423938E-05
4.852254E+03	2.543390E-04	2.442565E-05
4.862156E+03	2.562852E-04	2.461217E-05
4.872059E+03	2.582309E-04	2.479864E-05
4.881961E+03	2.601733E-04	2.498478E-05
4.891864E+03	2.621144E-04	2.517080E-05
4.901767E+03	2.640537E-04	2.535663E-05
4.911669E+03	2.659875E-04	2.554193E-05
4.921572E+03	2.679180E-04	2.572690E-05
4.931474E+03	2.698383E-04	2.591090E-05
4.941377E+03	2.717532E-04	2.609435E-05
4.951279E+03	2.736581E-04	2.627685E-05
4.961182E+03	2.755492E-04	2.645801E-05
4.971085E+03	2.774274E-04	2.663793E-05
4.980987E+03	2.792881E-04	2.681617E-05
4.990890E+03	2.811298E-04	2.699256E-05
5.000792E+03	2.829499E-04	2.716688E-05
5.010695E+03	2.847461E-04	2.733891E-05
5.020597E+03	2.865137E-04	2.750817E-05
5.030500E+03	2.882525E-04	2.767466E-05
5.040402E+03	2.899573E-04	2.783789E-05
5.050305E+03	2.916251E-04	2.799755E-05
5.060208E+03	2.932501E-04	2.815310E-05
5.070110E+03	2.948324E-04	2.830455E-05
5.080013E+03	2.963628E-04	2.845101E-05
5.089915E+03	2.978440E-04	2.859273E-05
5.099818E+03	2.992669E-04	2.872886E-05
5.109720E+03	3.006311E-04	2.885934E-05
5.119623E+03	3.019302E-04	2.898357E-05
5.129525E+03	3.031578E-04	2.910093E-05
5.139428E+03	3.043134E-04	2.921138E-05
5.149331E+03	3.053904E-04	2.931427E-05
5.159233E+03	3.063853E-04	2.940928E-05
5.169136E+03	3.072947E-04	2.949608E-05
5.179038E+03	3.081120E-04	2.957403E-05
5.188941E+03	3.088335E-04	2.964279E-05
5.198843E+03	3.094529E-04	2.970174E-05
5.208746E+03	3.099698E-04	2.975085E-05
5.218648E+03	3.103781E-04	2.978954E-05
5.228551E+03	3.106748E-04	2.981751E-05
5.238454E+03	3.108567E-04	2.983446E-05
5.248356E+03	3.109183E-04	2.983986E-05
5.258259E+03	3.108575E-04	2.983351E-05
5.268161E+03	3.106719E-04	2.981519E-05
5.278064E+03	3.103600E-04	2.978475E-05
5.287966E+03	3.099180E-04	2.974182E-05
5.297869E+03	3.093478E-04	2.968659E-05
5.307772E+03	3.086498E-04	2.961909E-05
5.317674E+03	3.078242E-04	2.953936E-05
5.327577E+03	3.068695E-04	2.944723E-05
5.337479E+03	3.057933E-04	2.934345E-05
5.347382E+03	3.045955E-04	2.922800E-05
5.357284E+03	3.032856E-04	2.910180E-05
5.367187E+03	3.018642E-04	2.896491E-05
5.377089E+03	3.003396E-04	2.881811E-05
5.386992E+03	2.987173E-04	2.866195E-05
5.396895E+03	2.970094E-04	2.849757E-05
5.406797E+03	2.952201E-04	2.832539E-05
5.416700E+03	2.933539E-04	2.814584E-05
5.426602E+03	2.914131E-04	2.795914E-05
5.436505E+03	2.894070E-04	2.776617E-05
5.446407E+03	2.873389E-04	2.756727E-05
5.456310E+03	2.852158E-04	2.736310E-05
5.466212E+03	2.830453E-04	2.715437E-05
5.476115E+03	2.808349E-04	2.694183E-05
5.486018E+03	2.785923E-04	2.672621E-05
5.495920E+03	2.763285E-04	2.650857E-05
5.505823E+03	2.740514E-04	2.628965E-05
5.515725E+03	2.717741E-04	2.607072E-05
5.525628E+03	2.695013E-04	2.585223E-05
5.535530E+03	2.672484E-04	2.563566E-05
5.545433E+03	2.650197E-04	2.542141E-05
5.555335E+03	2.628263E-04	2.521056E-05
5.565238E+03	2.606796E-04	2.500420E-05
5.575141E+03	2.585821E-04	2.480256E-05
5.585043E+03	2.565487E-04	2.460707E-05
5.594946E+03	2.545832E-04	2.441811E-05
5.604848E+03	2.526889E-04	2.423598E-05
5.614751E+03	2.508786E-04	2.406192E-05
5.624653E+03	2.491516E-04	2.389584E-05
5.634556E+03	2.475143E-04	2.373837E-05
5.644459E+03	2.459728E-04	2.359010E-05
5.654361E+03	2.445297E-04	2.345127E-05
5.664264E+03	2.431873E-04	2.332210E-05
5.674166E+03	2.419475E-04	2.320279E-05
5.684069E+03	2.408146E-04	2.309371E-05
5.693971E+03	2.397922E-04	2.299525E-05
5.703874E+03	2.388762E-04	2.290699E-05
5.713776E+03	2.380751E-04	2.282974E-05
5.723679E+03	2.373842E-04	2.276308E-05
5.733582E+03	2.368096E-04	2.270756E-05
5.743484E+03	2.363488E-04	2.266296E-05
5.753387E+03	2.360046E-04	2.262954E-05
5.763289E+03	2.357777E-04	2.260736E-05
5.773192E+03	2.356704E-04	2.259666E-05
5.783094E+03	2.356808E-04	2.259724E-05
5.792997E+03	2.358090E-04	2.260912E-05
5.802899E+03	2.360574E-04	2.263251E-05
5.812802E+03	2.364288E-04	2.266770E-05
5.822705E+03	2.369180E-04	2.271419E-05
5.832607E+03	2.375300E-04	2.277245E-05
5.842510E+03	2.382623E-04	2.284223E-05
5.852412E+03	2.391168E-04	2.292372E-05
5.862315E+03	2.400931E-04	2.301690E-05
5.872217E+03	2.411880E-04	2.312144E-05
5.882120E+03	2.424032E-04	2.323750E-05
5.892022E+03	2.437379E-04	2.336502E-05
5.901925E+03	2.451881E-04	2.350360E-05
5.911828E+03	2.467574E-04	2.365360E-05
5.921730E+03	2.484387E-04	2.381433E-05
5.931633E+03	2.502330E-04	2.398588E-05
5.941535E+03	2.521375E-04	2.416799E-05
5.951438E+03	2.541468E-04	2.436014E-05
5.961340E+03	2.562608E-04	2.456232E-05
5.971243E+03	2.584702E-04	2.477363E-05
5.981146E+03	2.607771E-04	2.499428E-05
5.991048E+03	2.631715E-04	2.522331E-05
6.000951E+03	2.656519E-04	2.546058E-05
6.010853E+03	2.682104E-04	2.570532E-05
6.020756E+03	2.708420E-04	2.595706E-05
6.030658E+03	2.735377E-04	2.621493E-05
6.040561E+03	2.762885E-04	2.647807E-05
6.050463E+03	2.790914E-04	2.674620E-05
6.060366E+03	2.819303E-04	2.701777E-05
6.070269E+03	2.848016E-04	2.729244E-05
6.080171E+03	2.876917E-04	2.756890E-05
6.090074E+03	2.905937E-04	2.784649E-05
6.099976E+03	2.934861E-04	2.812315E-05
6.109879E+03	2.963651E-04	2.839852E-05
6.119781E+03	2.992128E-04	2.867088E-05
6.129684E+03	3.020180E-04	2.893915E-05
6.139586E+03	3.047658E-04	2.920193E-05
6.149489E+03	3.074571E-04	2.945927E-05
6.159392E+03	3.100973E-04	2.971172E-05
6.169294E+03	3.126933E-04	2.995992E-05
6.179197E+03	3.152525E-04	3.020459E-05
6.189099E+03	3.177718E-04	3.044542E-05
6.199002E+03	3.202685E-04	3.068410E-05
6.208904E+03	3.227367E-04	3.092002E-05
6.218807E+03	3.251877E-04	3.115429E-05
6.228709E+03	3.276293E-04	3.138766E-05
6.238612E+03	3.300570E-04	3.161969E-05
6.248515E+03	3.324796E-04	3.185122E-05
6.258417E+03	3.349018E-04	3.208272E-05
6.268320E+03	3.373296E-04	3.231473E-05
6.278222E+03	3.397592E-04	3.254692E-05
6.288125E+03	3.421968E-04	3.277986E-05
6.298027E+03	3.446435E-04	3.301366E-05
6.307930E+03	3.471011E-04	3.324851E-05
6.317833E+03	3.495664E-04	3.348409E-05
6.327735E+03	3.520360E-04	3.372007E-05
6.337638E+03	3.545061E-04	3.395610E-05
6.347540E+03	3.569780E-04	3.419229E-05
6.357443E+03	3.594479E-04	3.442827E-05
6.367345E+03	3.619010E-04	3.466265E-05
6.377248E+03	3.643539E-04	3.489700E-05
6.387150E+03	3.668075E-04	3.513141E-05
6.397053E+03	3.692686E-04	3.536653E-05
6.406956E+03	3.717496E-04	3.560355E-05
6.416858E+03	3.742464E-04	3.584207E-05
6.426761E+03	3.767720E-04	3.608335E-05
6.436663E+03	3.793282E-04	3.632755E-05
6.446566E+03	3.819227E-04	3.657542E-05
6.456468E+03	3.845459E-04	3.682602E-05
6.466371E+03	3.872172E-04	3.708122E-05
6.476273E+03	3.899266E-04	3.734006E-05
6.486176E+03	3.926822E-04	3.760332E-05
6.496079E+03	3.954857E-04	3.787116E-05
6.505981E+03	3.983328E-04	3.814316E-05
6.515884E+03	4.012315E-04	3.842010E-05
6.525786E+03	4.041838E-04	3.870217E-05
6.535689E+03	4.071846E-04	3.898887E-05
6.545591E+03	4.102357E-04	3.928037E-05
6.555494E+03	4.133385E-04	3.957683E-05
6.565396E+03	4.165012E-04	3.987900E-05
6.575299E+03	4.197118E-04	4.018575E-05
6.585202E+03	4.229780E-04	4.049782E-05
6.595104E+03	4.263016E-04	4.081537E-05
6.605007E+03	4.296765E-04	4.113782E-05
6.614909E+03	4.331109E-04	4.146596E-05
6.624812E+03	4.365989E-04	4.179923E-05
6.634714E+03	4.401486E-04	4.213839E-05
6.644617E+03	4.437462E-04	4.248212E-05
6.654520E+03	4.473998E-04	4.283121E-05
6.664422E+03	4.511183E-04	4.318650E-05
6.674325E+03	4.548868E-04	4.354657E-05
6.684227E+03	4.587141E-04	4.391226E-05
6.694130E+03	4.625927E-04	4.428284E-05
6.704032E+03	4.665316E-04	4.465918E-05
6.713935E+03	4.705227E-04	4.504051E-05
6.723837E+03	4.745668E-04	4.542691E-05
6.733740E+03	4.786731E-04	4.581924E-05
6.743643E+03	4.828244E-04	4.621588E-05
6.753545E+03	4.870387E-04	4.661852E-05
6.763448E+03	4.912985E-04	4.702551E-05
6.773350E+03	4.956218E-04	4.743858E-05
6.783253E+03	4.999907E-04	4.785599E-05
6.793155E+03	5.044048E-04	4.827772E-05
6.803058E+03	5.088731E-04	4.870462E-05
6.812960E+03	5.133954E-04	4.913668E-05
6.822863E+03	5.179522E-04	4.957202E-05
6.832766E+03	5.225617E-04	5.001239E-05
6.842668E+03	5.272133E-04	5.045679E-05
6.852571E+03	5.319164E-04	5.090610E-05
6.862473E+03	5.366497E-04	5.135829E-05
6.872376E+03	5.414219E-04	5.181418E-05
6.882278E+03	5.462318E-04	5.227367E-05
6.892181E+03	5.510674E-04	5.273562E-05
6.902083E+03	5.559376E-04	5.320085E-05
6.911986E+03	5.608409E-04	5.366924E-05
6.921889E+03	5.657652E-04	5.413963E-05
6.931791E+03	5.707085E-04	5.461182E-05
6.941694E+03	5.756688E-04	5.508563E-05
6.951596E+03	5.806560E-04	5.556199E-05
6.961499E+03	5.856455E-04	5.603856E-05
6.971401E+03	5.906588E-04	5.651740E-05
6.981304E+03	5.956709E-04	5.699611E-05
6.991207E+03	6.006922E-04	5.747569E-05
7.001109E+03	6.057093E-04	5.795485E-05
7.011012E+03	6.107325E-04	5.843459E-05
7.020914E+03	6.157610E-04	5.891481E-05
7.030817E+03	6.207812E-04	5.939424E-05
7.040719E+03	6.257793E-04	5.987154E-05
7.050622E+03	6.307795E-04	6.034901E-05
7.060524E+03	6.357681E-04	6.082538E-05
7.070427E+03	6.407445E-04	6.130056E-05
7.080330E+03	6.457079E-04	6.177448E-05
7.090232E+03	6.506440E-04	6.224579E-05
7.100135E+03	6.555658E-04	6.271571E-05
7.110037E+03	6.604589E-04	6.318288E-05
7.119940E+03	6.653226E-04	6.364723E-05
7.129842E+03	6.701699E-04	6.410999E-05
7.139745E+03	6.749866E-04	6.456981E-05
7.149647E+03	6.797857E-04	6.502795E-05
7.159550E+03	6.845382E-04	6.548161E-05
7.169453E+03	6.892573E-04	6.593206E-05
7.179355E+03	6.939421E-04	6.637923E-05
7.189258E+03	6.985913E-04	6.682299E-05
7.199160E+03	7.032039E-04	6.726323E-05
7.209063E+03	7.077787E-04	6.769985E-05
7.218965E+03	7.122991E-04	6.813125E-05
7.228868E+03	7.167784E-04	6.855872E-05
7.238770E+03	7.212155E-04	6.898215E-05
7.248673E+03	7.256089E-04	6.940138E-05
7.258576E+03	7.299409E-04	6.981474E-05
7.268478E+03	7.342259E-04	7.022359E-05
7.278381E+03	7.384785E-04	7.062934E-05
7.288283E+03	7.426654E-04	7.102879E-05
7.298186E+03	7.468012E-04	7.142336E-05
7.308088E+03	7.508848E-04	7.181292E-05
7.317991E+03	7.549324E-04	7.219904E-05
7.327894E+03	7.589266E-04	7.258004E-05
7.337796E+03	7.628842E-04	7.295755E-05
7.347699E+03	7.668229E-04	7.333323E-05
7.357601E+03	7.707259E-04	7.370551E-05
7.367504E+03	7.746291E-04	7.407780E-05
7.377406E+03	7.784993E-04	7.444692E-05
7.387309E+03	7.823552E-04	7.481467E-05
7.397211E+03	7.861806E-04	7.517951E-05
7.407114E+03	7.899953E-04	7.554332E-05
7.417017E+03	7.937647E-04	7.590280E-05
7.426919E+03	7.975082E-04	7.625980E-05
7.436822E+03	8.012279E-04	7.661451E-05
7.446724E+03	8.049057E-04	7.696523E-05
7.456627E+03	8.085809E-04	7.731568E-05
7.466529E+03	8.122162E-04	7.766233E-05
7.476432E+03	8.158317E-04	7.800708E-05
7.486334E+03	8.194083E-04	7.834812E-05
7.496237E+03	8.229661E-04	7.868735E-05
7.506140E+03	8.264853E-04	7.902290E-05
7.516042E+03	8.299856E-04	7.935664E-05
7.525945E+03	8.334471E-04	7.968667E-05
7.535847E+03	8.368689E-04	8.001291E-05
7.545750E+03	8.402704E-04	8.033720E-05
7.555652E+03	8.436303E-04	8.065753E-05
7.565555E+03	8.469468E-04	8.097370E-05
7.575457E+03	8.502393E-04	8.128758E-05
7.585360E+03	8.534848E-04	8.159696E-05
7.595263E+03	8.567020E-04	8.190365E-05
7.605165E+03	8.598463E-04	8.220337E-05
7.615068E+03	8.629567E-04	8.249984E-05
7.624970E+03	8.660302E-04	8.279280E-05
7.634873E+03	8.690423E-04	8.307988E-05
7.644775E+03	8.720106E-04	8.336279E-05
7.654678E+03	8.749094E-04	8.363905E-05
7.664581E+03	8.777342E-04	8.390824E-05
7.674483E+03	8.805025E-04	8.417203E-05
7.684386E+03	8.832098E-04	8.443000E-05
