#wls	flux	fluxerr
1.584409E+03	6.456032E-03	2.118813E-03
1.624020E+03	6.644350E-03	2.180583E-03
1.663630E+03	6.820266E-03	2.238279E-03
1.703240E+03	6.981745E-03	2.291234E-03
1.742850E+03	7.125901E-03	2.338502E-03
1.782461E+03	7.250435E-03	2.379327E-03
1.822071E+03	7.352296E-03	2.412709E-03
1.861681E+03	7.429740E-03	2.438076E-03
1.901291E+03	7.480375E-03	2.454643E-03
1.940902E+03	7.501299E-03	2.461459E-03
1.980512E+03	7.491046E-03	2.458043E-03
2.020122E+03	7.447238E-03	2.443615E-03
2.059732E+03	7.367984E-03	2.417556E-03
2.099342E+03	7.252994E-03	2.379771E-03
2.138953E+03	7.100109E-03	2.329553E-03
2.178563E+03	6.908336E-03	2.266576E-03
2.218173E+03	6.676718E-03	2.190528E-03
2.257783E+03	6.403377E-03	2.100795E-03
2.297394E+03	6.096739E-03	2.000140E-03
2.337004E+03	5.765275E-03	1.891345E-03
2.376614E+03	5.415777E-03	1.776639E-03
2.416224E+03	5.054004E-03	1.657911E-03
2.455835E+03	4.685399E-03	1.536948E-03
2.495445E+03	4.314844E-03	1.415351E-03
2.535055E+03	3.946599E-03	1.294518E-03
2.574665E+03	3.584904E-03	1.175840E-03
2.614276E+03	3.233530E-03	1.060554E-03
2.653886E+03	2.895812E-03	9.497539E-04
2.693496E+03	2.574633E-03	8.443845E-04
2.733106E+03	2.272555E-03	7.452863E-04
2.772716E+03	1.991295E-03	6.530218E-04
2.812327E+03	1.732198E-03	5.680316E-04
2.851937E+03	1.496270E-03	4.906448E-04
2.891547E+03	1.284003E-03	4.210225E-04
2.931157E+03	1.095455E-03	3.591823E-04
2.970768E+03	9.300584E-04	3.049380E-04
2.980670E+03	8.921939E-04	2.925200E-04
2.990573E+03	8.556800E-04	2.805452E-04
3.000475E+03	8.205055E-04	2.690097E-04
3.010378E+03	7.866364E-04	2.579025E-04
3.020280E+03	7.540400E-04	2.472127E-04
3.030183E+03	7.226995E-04	2.369349E-04
3.040086E+03	6.925644E-04	2.270526E-04
3.049988E+03	6.636307E-04	2.175643E-04
3.059891E+03	6.358480E-04	2.084535E-04
3.069793E+03	6.091952E-04	1.997134E-04
3.079696E+03	5.836370E-04	1.913323E-04
3.089598E+03	5.591501E-04	1.833025E-04
3.099501E+03	5.356977E-04	1.756121E-04
3.109403E+03	5.132451E-04	1.682497E-04
3.119306E+03	4.917677E-04	1.612070E-04
3.129209E+03	4.712212E-04	1.544697E-04
3.139111E+03	4.515898E-04	1.480325E-04
3.149014E+03	4.328310E-04	1.418815E-04
3.158916E+03	4.149196E-04	1.360085E-04
3.168819E+03	3.978235E-04	1.304027E-04
3.178721E+03	3.815108E-04	1.250540E-04
3.188624E+03	3.659563E-04	1.199538E-04
3.198526E+03	3.511297E-04	1.150924E-04
3.208429E+03	3.369951E-04	1.104580E-04
3.218332E+03	3.235406E-04	1.060465E-04
3.228234E+03	3.107211E-04	1.018433E-04
3.238137E+03	2.985247E-04	9.784445E-05
3.248039E+03	2.869147E-04	9.403787E-05
3.257942E+03	2.758700E-04	9.041668E-05
3.267844E+03	2.653697E-04	8.697397E-05
3.277747E+03	2.553813E-04	8.369914E-05
3.287650E+03	2.458895E-04	8.058715E-05
3.297552E+03	2.368714E-04	7.763047E-05
3.307455E+03	2.283017E-04	7.482084E-05
3.317357E+03	2.201599E-04	7.215153E-05
3.327260E+03	2.124264E-04	6.961606E-05
3.337162E+03	2.050849E-04	6.720912E-05
3.347065E+03	1.981116E-04	6.492293E-05
3.356967E+03	1.914945E-04	6.275354E-05
3.366870E+03	1.852121E-04	6.069385E-05
3.376773E+03	1.792486E-04	5.873875E-05
3.386675E+03	1.735915E-04	5.688409E-05
3.396578E+03	1.682200E-04	5.512306E-05
3.406480E+03	1.631251E-04	5.345273E-05
3.416383E+03	1.582920E-04	5.186822E-05
3.426285E+03	1.537031E-04	5.036377E-05
3.436188E+03	1.493511E-04	4.893699E-05
3.446090E+03	1.452201E-04	4.758268E-05
3.455993E+03	1.413005E-04	4.629765E-05
3.465896E+03	1.375815E-04	4.507837E-05
3.475798E+03	1.340485E-04	4.392009E-05
3.485701E+03	1.306938E-04	4.282026E-05
3.495603E+03	1.275062E-04	4.177519E-05
3.505506E+03	1.244751E-04	4.078143E-05
3.515408E+03	1.215920E-04	3.983620E-05
3.525311E+03	1.188467E-04	3.893615E-05
3.535213E+03	1.162310E-04	3.807854E-05
3.545116E+03	1.137359E-04	3.726050E-05
3.555019E+03	1.113556E-04	3.648008E-05
3.564921E+03	1.090833E-04	3.573507E-05
3.574824E+03	1.069119E-04	3.502311E-05
3.584726E+03	1.048364E-04	3.434263E-05
3.594629E+03	1.028524E-04	3.369212E-05
3.604531E+03	1.009538E-04	3.306958E-05
3.614434E+03	9.913908E-05	3.247457E-05
3.624337E+03	9.740255E-05	3.190517E-05
3.634239E+03	9.574217E-05	3.136073E-05
3.644142E+03	9.415501E-05	3.084030E-05
3.654044E+03	9.263825E-05	3.034293E-05
3.663947E+03	9.118992E-05	2.986800E-05
3.673849E+03	8.980873E-05	2.941507E-05
3.683752E+03	8.849042E-05	2.898274E-05
3.693654E+03	8.723531E-05	2.857113E-05
3.703557E+03	8.603990E-05	2.817908E-05
3.713460E+03	8.490301E-05	2.780621E-05
3.723362E+03	8.382340E-05	2.745211E-05
3.733265E+03	8.279777E-05	2.711570E-05
3.743167E+03	8.182631E-05	2.679703E-05
3.753070E+03	8.090646E-05	2.649528E-05
3.762972E+03	8.003707E-05	2.621006E-05
3.772875E+03	7.921634E-05	2.594078E-05
3.782777E+03	7.844312E-05	2.568706E-05
3.792680E+03	7.771576E-05	2.544837E-05
3.802583E+03	7.703312E-05	2.522433E-05
3.812485E+03	7.639357E-05	2.501441E-05
3.822388E+03	7.579674E-05	2.481847E-05
3.832290E+03	7.524104E-05	2.463601E-05
3.842193E+03	7.472495E-05	2.446652E-05
3.852095E+03	7.424753E-05	2.430970E-05
3.861998E+03	7.380734E-05	2.416507E-05
3.871900E+03	7.340412E-05	2.403255E-05
3.881803E+03	7.303651E-05	2.391168E-05
3.891706E+03	7.270367E-05	2.380221E-05
3.901608E+03	7.240433E-05	2.370369E-05
3.911511E+03	7.213718E-05	2.361573E-05
3.921413E+03	7.190266E-05	2.353844E-05
3.931316E+03	7.169844E-05	2.347107E-05
3.941218E+03	7.152443E-05	2.341359E-05
3.951121E+03	7.137948E-05	2.336562E-05
3.961024E+03	7.126299E-05	2.332696E-05
3.970926E+03	7.117443E-05	2.329745E-05
3.980829E+03	7.111214E-05	2.327653E-05
3.990731E+03	7.107619E-05	2.326423E-05
4.000634E+03	7.106556E-05	2.326022E-05
4.010536E+03	7.107976E-05	2.326433E-05
4.020439E+03	7.111784E-05	2.327625E-05
4.030341E+03	7.117886E-05	2.329568E-05
4.040244E+03	7.126297E-05	2.332265E-05
4.050147E+03	7.136874E-05	2.335671E-05
4.060049E+03	7.149578E-05	2.339773E-05
4.069952E+03	7.164379E-05	2.344560E-05
4.079854E+03	7.181141E-05	2.349989E-05
4.089757E+03	7.199890E-05	2.356067E-05
4.099659E+03	7.220492E-05	2.362750E-05
4.109562E+03	7.242918E-05	2.370030E-05
4.119464E+03	7.267154E-05	2.377902E-05
4.129367E+03	7.293059E-05	2.386319E-05
4.139270E+03	7.320680E-05	2.395296E-05
4.149172E+03	7.349832E-05	2.404773E-05
4.159075E+03	7.380603E-05	2.414779E-05
4.168977E+03	7.412814E-05	2.425256E-05
4.178880E+03	7.446457E-05	2.436200E-05
4.188782E+03	7.481460E-05	2.447588E-05
4.198685E+03	7.517811E-05	2.459416E-05
4.208587E+03	7.555333E-05	2.471626E-05
4.218490E+03	7.594067E-05	2.484231E-05
4.228393E+03	7.633897E-05	2.497194E-05
4.238295E+03	7.674689E-05	2.510470E-05
4.248198E+03	7.716441E-05	2.524059E-05
4.258100E+03	7.759084E-05	2.537939E-05
4.268003E+03	7.802428E-05	2.552046E-05
4.277905E+03	7.846404E-05	2.566359E-05
4.287808E+03	7.890941E-05	2.580854E-05
4.297711E+03	7.935965E-05	2.595508E-05
4.307613E+03	7.981404E-05	2.610295E-05
4.317516E+03	8.027242E-05	2.625212E-05
4.327418E+03	8.073412E-05	2.640236E-05
4.337321E+03	8.119839E-05	2.655343E-05
4.347223E+03	8.166634E-05	2.670569E-05
4.357126E+03	8.213732E-05	2.685892E-05
4.367028E+03	8.261123E-05	2.701310E-05
4.376931E+03	8.308872E-05	2.716843E-05
4.386834E+03	8.356975E-05	2.732491E-05
4.396736E+03	8.405368E-05	2.748233E-05
4.406639E+03	8.454116E-05	2.764088E-05
4.416541E+03	8.503161E-05	2.780040E-05
4.426444E+03	8.552511E-05	2.796090E-05
4.436346E+03	8.602170E-05	2.812239E-05
4.446249E+03	8.652017E-05	2.828448E-05
4.456151E+03	8.702131E-05	2.844743E-05
4.466054E+03	8.752464E-05	2.861107E-05
4.475957E+03	8.802961E-05	2.877524E-05
4.485859E+03	8.853647E-05	2.894001E-05
4.495762E+03	8.904400E-05	2.910498E-05
4.505664E+03	8.955250E-05	2.927025E-05
4.515567E+03	9.006231E-05	2.943594E-05
4.525469E+03	9.057305E-05	2.960191E-05
4.535372E+03	9.108356E-05	2.976779E-05
4.545274E+03	9.159432E-05	2.993374E-05
4.555177E+03	9.210496E-05	3.009962E-05
4.565080E+03	9.261517E-05	3.026535E-05
4.574982E+03	9.312556E-05	3.043112E-05
4.584885E+03	9.363504E-05	3.059658E-05
4.594787E+03	9.414424E-05	3.076192E-05
4.604690E+03	9.465290E-05	3.092708E-05
4.614592E+03	9.516098E-05	3.109202E-05
4.624495E+03	9.566826E-05	3.125669E-05
4.634398E+03	9.617462E-05	3.142103E-05
4.644300E+03	9.668003E-05	3.158505E-05
4.654203E+03	9.718611E-05	3.174926E-05
4.664105E+03	9.769282E-05	3.191367E-05
4.674008E+03	9.820020E-05	3.207827E-05
4.683910E+03	9.871002E-05	3.224365E-05
4.693813E+03	9.922146E-05	3.240954E-05
4.703715E+03	9.973470E-05	3.257600E-05
4.713618E+03	1.002506E-04	3.274333E-05
4.723521E+03	1.007695E-04	3.291158E-05
4.733423E+03	1.012905E-04	3.308051E-05
4.743326E+03	1.018148E-04	3.325049E-05
4.753228E+03	1.023424E-04	3.342156E-05
4.763131E+03	1.028728E-04	3.359350E-05
4.773033E+03	1.034071E-04	3.376669E-05
4.782936E+03	1.039455E-04	3.394120E-05
4.792838E+03	1.044882E-04	3.411711E-05
4.802741E+03	1.050357E-04	3.429452E-05
4.812644E+03	1.055871E-04	3.447321E-05
4.822546E+03	1.061447E-04	3.465390E-05
4.832449E+03	1.067068E-04	3.483605E-05
4.842351E+03	1.072738E-04	3.501977E-05
4.852254E+03	1.078470E-04	3.520548E-05
4.862156E+03	1.084266E-04	3.539327E-05
4.872059E+03	1.090131E-04	3.558326E-05
4.881961E+03	1.096046E-04	3.577487E-05
4.891864E+03	1.102036E-04	3.596889E-05
4.901767E+03	1.108092E-04	3.616506E-05
4.911669E+03	1.114218E-04	3.636349E-05
4.921572E+03	1.120417E-04	3.656427E-05
4.931474E+03	1.126690E-04	3.676745E-05
4.941377E+03	1.133031E-04	3.697282E-05
4.951279E+03	1.139441E-04	3.718039E-05
4.961182E+03	1.145933E-04	3.739062E-05
4.971085E+03	1.152498E-04	3.760319E-05
4.980987E+03	1.159126E-04	3.781782E-05
4.990890E+03	1.165841E-04	3.803523E-05
5.000792E+03	1.172610E-04	3.825438E-05
5.010695E+03	1.179456E-04	3.847602E-05
5.020597E+03	1.186381E-04	3.870018E-05
5.030500E+03	1.193349E-04	3.892575E-05
5.040402E+03	1.200395E-04	3.915381E-05
5.050305E+03	1.207496E-04	3.938364E-05
5.060208E+03	1.214651E-04	3.961518E-05
5.070110E+03	1.221870E-04	3.984882E-05
5.080013E+03	1.229130E-04	4.008371E-05
5.089915E+03	1.236427E-04	4.031982E-05
5.099818E+03	1.243773E-04	4.055746E-05
5.109720E+03	1.251153E-04	4.079619E-05
5.119623E+03	1.258565E-04	4.103592E-05
5.129525E+03	1.265994E-04	4.127616E-05
5.139428E+03	1.273449E-04	4.151722E-05
5.149331E+03	1.280901E-04	4.175816E-05
5.159233E+03	1.288373E-04	4.199971E-05
5.169136E+03	1.295847E-04	4.224129E-05
5.179038E+03	1.303307E-04	4.248237E-05
5.188941E+03	1.310749E-04	4.272281E-05
5.198843E+03	1.318178E-04	4.296283E-05
5.208746E+03	1.325566E-04	4.320144E-05
5.218648E+03	1.332919E-04	4.343888E-05
5.228551E+03	1.340244E-04	4.367537E-05
5.238454E+03	1.347496E-04	4.390945E-05
5.248356E+03	1.354707E-04	4.414218E-05
5.258259E+03	1.361832E-04	4.437204E-05
5.268161E+03	1.368904E-04	4.460014E-05
5.278064E+03	1.375876E-04	4.482492E-05
5.287966E+03	1.382766E-04	4.504703E-05
5.297869E+03	1.389569E-04	4.526625E-05
5.307772E+03	1.396264E-04	4.548190E-05
5.317674E+03	1.402870E-04	4.569464E-05
5.327577E+03	1.409340E-04	4.590291E-05
5.337479E+03	1.415708E-04	4.610782E-05
5.347382E+03	1.421954E-04	4.630869E-05
5.357284E+03	1.428071E-04	4.650534E-05
5.367187E+03	1.434052E-04	4.669753E-05
5.377089E+03	1.439892E-04	4.688507E-05
5.386992E+03	1.445568E-04	4.706726E-05
5.396895E+03	1.451076E-04	4.724393E-05
5.406797E+03	1.456409E-04	4.741487E-05
5.416700E+03	1.461561E-04	4.757988E-05
5.426602E+03	1.466511E-04	4.773829E-05
5.436505E+03	1.471239E-04	4.788942E-05
5.446407E+03	1.475754E-04	4.803359E-05
5.456310E+03	1.480034E-04	4.817010E-05
5.466212E+03	1.484060E-04	4.829830E-05
5.476115E+03	1.487811E-04	4.841750E-05
5.486018E+03	1.491296E-04	4.852802E-05
5.495920E+03	1.494479E-04	4.862870E-05
5.505823E+03	1.497371E-04	4.871986E-05
5.515725E+03	1.499936E-04	4.880035E-05
5.525628E+03	1.502168E-04	4.886999E-05
5.535530E+03	1.504078E-04	4.892914E-05
5.545433E+03	1.505632E-04	4.897668E-05
5.555335E+03	1.506840E-04	4.901294E-05
5.565238E+03	1.507700E-04	4.903783E-05
5.575141E+03	1.508191E-04	4.905074E-05
5.585043E+03	1.508312E-04	4.905159E-05
5.594946E+03	1.508077E-04	4.904082E-05
5.604848E+03	1.507483E-04	4.901837E-05
5.614751E+03	1.506514E-04	4.898373E-05
5.624653E+03	1.505186E-04	4.893736E-05
5.634556E+03	1.503514E-04	4.887984E-05
5.644459E+03	1.501469E-04	4.881016E-05
5.654361E+03	1.499067E-04	4.872889E-05
5.664264E+03	1.496328E-04	4.863665E-05
5.674166E+03	1.493255E-04	4.853353E-05
5.684069E+03	1.489852E-04	4.841968E-05
5.693971E+03	1.486123E-04	4.829526E-05
5.703874E+03	1.482075E-04	4.816046E-05
5.713776E+03	1.477730E-04	4.801598E-05
5.723679E+03	1.473078E-04	4.786156E-05
5.733582E+03	1.468159E-04	4.769846E-05
5.743484E+03	1.462966E-04	4.752646E-05
5.753387E+03	1.457508E-04	4.734586E-05
5.763289E+03	1.451826E-04	4.715799E-05
5.773192E+03	1.445899E-04	4.696217E-05
5.783094E+03	1.439754E-04	4.675928E-05
5.792997E+03	1.433419E-04	4.655022E-05
5.802899E+03	1.426890E-04	4.633488E-05
5.812802E+03	1.420195E-04	4.611416E-05
5.822705E+03	1.413332E-04	4.588802E-05
5.832607E+03	1.406347E-04	4.565789E-05
5.842510E+03	1.399237E-04	4.542374E-05
5.852412E+03	1.392016E-04	4.518603E-05
5.862315E+03	1.384716E-04	4.494573E-05
5.872217E+03	1.377334E-04	4.470282E-05
5.882120E+03	1.369902E-04	4.445827E-05
5.892022E+03	1.362417E-04	4.421205E-05
5.901925E+03	1.354911E-04	4.396514E-05
5.911828E+03	1.347397E-04	4.371800E-05
5.921730E+03	1.339889E-04	4.347108E-05
5.931633E+03	1.332384E-04	4.322430E-05
5.941535E+03	1.324914E-04	4.297863E-05
5.951438E+03	1.317489E-04	4.273445E-05
5.961340E+03	1.310106E-04	4.249168E-05
5.971243E+03	1.302793E-04	4.225119E-05
5.981146E+03	1.295546E-04	4.201285E-05
5.991048E+03	1.288360E-04	4.177652E-05
6.000951E+03	1.281277E-04	4.154352E-05
6.010853E+03	1.274274E-04	4.131317E-05
6.020756E+03	1.267377E-04	4.108626E-05
6.030658E+03	1.260563E-04	4.086207E-05
6.040561E+03	1.253856E-04	4.064136E-05
6.050463E+03	1.247248E-04	4.042388E-05
6.060366E+03	1.240746E-04	4.020983E-05
6.070269E+03	1.234356E-04	3.999943E-05
6.080171E+03	1.228067E-04	3.979236E-05
6.090074E+03	1.221887E-04	3.958880E-05
6.099976E+03	1.215818E-04	3.938887E-05
6.109879E+03	1.209865E-04	3.919273E-05
6.119781E+03	1.204032E-04	3.900049E-05
6.129684E+03	1.198307E-04	3.881175E-05
6.139586E+03	1.192707E-04	3.862707E-05
6.149489E+03	1.187234E-04	3.844653E-05
6.159392E+03	1.181891E-04	3.827018E-05
6.169294E+03	1.176693E-04	3.809856E-05
6.179197E+03	1.171656E-04	3.793219E-05
6.189099E+03	1.166798E-04	3.777160E-05
6.199002E+03	1.162133E-04	3.761727E-05
6.208904E+03	1.157677E-04	3.746975E-05
6.218807E+03	1.153462E-04	3.733000E-05
6.228709E+03	1.149472E-04	3.719753E-05
6.238612E+03	1.145768E-04	3.707437E-05
6.248515E+03	1.142337E-04	3.696000E-05
6.258417E+03	1.139208E-04	3.685543E-05
6.268320E+03	1.136397E-04	3.676116E-05
6.278222E+03	1.133922E-04	3.667774E-05
6.288125E+03	1.131782E-04	3.660517E-05
6.298027E+03	1.129994E-04	3.654398E-05
6.307930E+03	1.128575E-04	3.649470E-05
6.317833E+03	1.127526E-04	3.645738E-05
6.327735E+03	1.126848E-04	3.643204E-05
6.337638E+03	1.126559E-04	3.641927E-05
6.347540E+03	1.126626E-04	3.641804E-05
6.357443E+03	1.127054E-04	3.642839E-05
6.367345E+03	1.127824E-04	3.644982E-05
6.377248E+03	1.128905E-04	3.648128E-05
6.387150E+03	1.130316E-04	3.652337E-05
6.397053E+03	1.132022E-04	3.657497E-05
6.406956E+03	1.134042E-04	3.663668E-05
6.416858E+03	1.136377E-04	3.670853E-05
6.426761E+03	1.139009E-04	3.678996E-05
6.436663E+03	1.141941E-04	3.688103E-05
6.446566E+03	1.145172E-04	3.698175E-05
6.456468E+03	1.148704E-04	3.709214E-05
6.466371E+03	1.152538E-04	3.721223E-05
6.476273E+03	1.156692E-04	3.734265E-05
6.486176E+03	1.161151E-04	3.748284E-05
6.496079E+03	1.165897E-04	3.763226E-05
6.505981E+03	1.170969E-04	3.779213E-05
6.515884E+03	1.176330E-04	3.796129E-05
6.525786E+03	1.182000E-04	3.814039E-05
6.535689E+03	1.187982E-04	3.832948E-05
6.545591E+03	1.194276E-04	3.852860E-05
6.555494E+03	1.200885E-04	3.873782E-05
6.565396E+03	1.207791E-04	3.895655E-05
6.575299E+03	1.215015E-04	3.918547E-05
6.585202E+03	1.222539E-04	3.942399E-05
6.595104E+03	1.230384E-04	3.967284E-05
6.605007E+03	1.238533E-04	3.993139E-05
6.614909E+03	1.246987E-04	4.019970E-05
6.624812E+03	1.255769E-04	4.047852E-05
6.634714E+03	1.264882E-04	4.076792E-05
6.644617E+03	1.274285E-04	4.106657E-05
6.654520E+03	1.284022E-04	4.137594E-05
6.664422E+03	1.294053E-04	4.169467E-05
6.674325E+03	1.304423E-04	4.202426E-05
6.684227E+03	1.315113E-04	4.236407E-05
6.694130E+03	1.326103E-04	4.271341E-05
6.704032E+03	1.337440E-04	4.307386E-05
6.713935E+03	1.349079E-04	4.344397E-05
6.723837E+03	1.361048E-04	4.382456E-05
6.733740E+03	1.373348E-04	4.421572E-05
6.743643E+03	1.385982E-04	4.461752E-05
6.753545E+03	1.398927E-04	4.502924E-05
6.763448E+03	1.412211E-04	4.545176E-05
6.773350E+03	1.425811E-04	4.588432E-05
6.783253E+03	1.439754E-04	4.632780E-05
6.793155E+03	1.454016E-04	4.678145E-05
6.803058E+03	1.468600E-04	4.724531E-05
6.812960E+03	1.483533E-04	4.772031E-05
6.822863E+03	1.498765E-04	4.820476E-05
6.832766E+03	1.514351E-04	4.870048E-05
6.842668E+03	1.530265E-04	4.920662E-05
6.852571E+03	1.546510E-04	4.972325E-05
6.862473E+03	1.563085E-04	5.025039E-05
6.872376E+03	1.579995E-04	5.078810E-05
6.882278E+03	1.597208E-04	5.133545E-05
6.892181E+03	1.614757E-04	5.189342E-05
6.902083E+03	1.632641E-04	5.246205E-05
6.911986E+03	1.650864E-04	5.304138E-05
6.921889E+03	1.669361E-04	5.362935E-05
6.931791E+03	1.688229E-04	5.422910E-05
6.941694E+03	1.707370E-04	5.483745E-05
6.951596E+03	1.726850E-04	5.545653E-05
6.961499E+03	1.746635E-04	5.608526E-05
6.971401E+03	1.766726E-04	5.672361E-05
6.981304E+03	1.787121E-04	5.737154E-05
6.991207E+03	1.807818E-04	5.802902E-05
7.001109E+03	1.828780E-04	5.869481E-05
7.011012E+03	1.850042E-04	5.937004E-05
7.020914E+03	1.871601E-04	6.005465E-05
7.030817E+03	1.893418E-04	6.074732E-05
7.040719E+03	1.915528E-04	6.144922E-05
7.050622E+03	1.937890E-04	6.215898E-05
7.060524E+03	1.960499E-04	6.287650E-05
7.070427E+03	1.983352E-04	6.360163E-05
7.080330E+03	2.006484E-04	6.433553E-05
7.090232E+03	2.029810E-04	6.507544E-05
7.100135E+03	2.053323E-04	6.582113E-05
7.110037E+03	2.077102E-04	6.657514E-05
7.119940E+03	2.101055E-04	6.733454E-05
7.129842E+03	2.125176E-04	6.809910E-05
7.139745E+03	2.149500E-04	6.886997E-05
7.149647E+03	2.173976E-04	6.964550E-05
7.159550E+03	2.198596E-04	7.042542E-05
7.169453E+03	2.223350E-04	7.120942E-05
7.179355E+03	2.248230E-04	7.199723E-05
7.189258E+03	2.273274E-04	7.279007E-05
7.199160E+03	2.298375E-04	7.358454E-05
7.209063E+03	2.323622E-04	7.438347E-05
7.218965E+03	2.348956E-04	7.518494E-05
7.228868E+03	2.374365E-04	7.598861E-05
7.238770E+03	2.399892E-04	7.679582E-05
7.248673E+03	2.425474E-04	7.760456E-05
7.258576E+03	2.451153E-04	7.841619E-05
7.268478E+03	2.476920E-04	7.923041E-05
7.278381E+03	2.502822E-04	8.004871E-05
7.288283E+03	2.528850E-04	8.087085E-05
7.298186E+03	2.555056E-04	8.169842E-05
7.308088E+03	2.581375E-04	8.252938E-05
7.317991E+03	2.607978E-04	8.336921E-05
7.327894E+03	2.634865E-04	8.421788E-05
7.337796E+03	2.661975E-04	8.507343E-05
7.347699E+03	2.689491E-04	8.594172E-05
7.357601E+03	2.717355E-04	8.682091E-05
7.367504E+03	2.745634E-04	8.771311E-05
7.377406E+03	2.774268E-04	8.861641E-05
7.387309E+03	2.803326E-04	8.953299E-05
7.397211E+03	2.832611E-04	9.045660E-05
7.407114E+03	2.862257E-04	9.139146E-05
7.417017E+03	2.892060E-04	9.233106E-05
7.426919E+03	2.922081E-04	9.327740E-05
7.436822E+03	2.952248E-04	9.422812E-05
7.446724E+03	2.982480E-04	9.518070E-05
7.456627E+03	3.012842E-04	9.613714E-05
7.466529E+03	3.043105E-04	9.709016E-05
7.476432E+03	3.073401E-04	9.804398E-05
7.486334E+03	3.103643E-04	9.899586E-05
7.496237E+03	3.133819E-04	9.994534E-05
7.506140E+03	3.163835E-04	1.008895E-04
7.516042E+03	3.193752E-04	1.018302E-04
7.525945E+03	3.223474E-04	1.027645E-04
7.535847E+03	3.252984E-04	1.036917E-04
7.545750E+03	3.282344E-04	1.046140E-04
7.555652E+03	3.311453E-04	1.055280E-04
7.565555E+03	3.340378E-04	1.064359E-04
7.575457E+03	3.368929E-04	1.073316E-04
7.585360E+03	3.397256E-04	1.082200E-04
7.595263E+03	3.425253E-04	1.090977E-04
7.605165E+03	3.452987E-04	1.099667E-04
7.615068E+03	3.480352E-04	1.108238E-04
7.624970E+03	3.507324E-04	1.116682E-04
7.634873E+03	3.533881E-04	1.124991E-04
7.644775E+03	3.560188E-04	1.133219E-04
7.654678E+03	3.585946E-04	1.141270E-04
7.664581E+03	3.611415E-04	1.149227E-04
7.674483E+03	3.636387E-04	1.157023E-04
7.684386E+03	3.660937E-04	1.164684E-04
