#wls	flux	fluxerr
1.584409E+03	5.461566E-03	9.968222E-04
1.624020E+03	5.647265E-03	1.029763E-03
1.663630E+03	5.831859E-03	1.062416E-03
1.703240E+03	6.016172E-03	1.094929E-03
1.742850E+03	6.198063E-03	1.126912E-03
1.782461E+03	6.376299E-03	1.158137E-03
1.822071E+03	6.549985E-03	1.188443E-03
1.861681E+03	6.716934E-03	1.217432E-03
1.901291E+03	6.875313E-03	1.244773E-03
1.940902E+03	7.023116E-03	1.270107E-03
1.980512E+03	7.157178E-03	1.292866E-03
2.020122E+03	7.275798E-03	1.312748E-03
2.059732E+03	7.374767E-03	1.329003E-03
2.099342E+03	7.450118E-03	1.340927E-03
2.138953E+03	7.498667E-03	1.347962E-03
2.178563E+03	7.516329E-03	1.349392E-03
2.218173E+03	7.498480E-03	1.344408E-03
2.257783E+03	7.444651E-03	1.332952E-03
2.297394E+03	7.354125E-03	1.314920E-03
2.337004E+03	7.229648E-03	1.290833E-03
2.376614E+03	7.074320E-03	1.261269E-03
2.416224E+03	6.891170E-03	1.226794E-03
2.455835E+03	6.683439E-03	1.188009E-03
2.495445E+03	6.453161E-03	1.145298E-03
2.535055E+03	6.203530E-03	1.099248E-03
2.574665E+03	5.936512E-03	1.050228E-03
2.614276E+03	5.654560E-03	9.986894E-04
2.653886E+03	5.359957E-03	9.450537E-04
2.693496E+03	5.055469E-03	8.898236E-04
2.733106E+03	4.743769E-03	8.334832E-04
2.772716E+03	4.427672E-03	7.765381E-04
2.812327E+03	4.110468E-03	7.195744E-04
2.851937E+03	3.795386E-03	6.631629E-04
2.891547E+03	3.485918E-03	6.079161E-04
2.931157E+03	3.185485E-03	5.544299E-04
2.970768E+03	2.897275E-03	5.032543E-04
2.980670E+03	2.827454E-03	4.908764E-04
2.990573E+03	2.758620E-03	4.786810E-04
3.000475E+03	2.690798E-03	4.666721E-04
3.010378E+03	2.624073E-03	4.548645E-04
3.020280E+03	2.558405E-03	4.432510E-04
3.030183E+03	2.493823E-03	4.318364E-04
3.040086E+03	2.430451E-03	4.206418E-04
3.049988E+03	2.368201E-03	4.096518E-04
3.059891E+03	2.307193E-03	3.988869E-04
3.069793E+03	2.247389E-03	3.883404E-04
3.079696E+03	2.188803E-03	3.780143E-04
3.089598E+03	2.131534E-03	3.679257E-04
3.099501E+03	2.075504E-03	3.580605E-04
3.109403E+03	2.020765E-03	3.484274E-04
3.119306E+03	1.967320E-03	3.390269E-04
3.129209E+03	1.915209E-03	3.298654E-04
3.139111E+03	1.864400E-03	3.209370E-04
3.149014E+03	1.814926E-03	3.122472E-04
3.158916E+03	1.766783E-03	3.037951E-04
3.168819E+03	1.719939E-03	2.955746E-04
3.178721E+03	1.674420E-03	2.875900E-04
3.188624E+03	1.630248E-03	2.798449E-04
3.198526E+03	1.587357E-03	2.723274E-04
3.208429E+03	1.545794E-03	2.650454E-04
3.218332E+03	1.505496E-03	2.579875E-04
3.228234E+03	1.466526E-03	2.511645E-04
3.238137E+03	1.428796E-03	2.445608E-04
3.248039E+03	1.392317E-03	2.381780E-04
3.257942E+03	1.357096E-03	2.320170E-04
3.267844E+03	1.323093E-03	2.260707E-04
3.277747E+03	1.290311E-03	2.203391E-04
3.287650E+03	1.258692E-03	2.148121E-04
3.297552E+03	1.228237E-03	2.094895E-04
3.307455E+03	1.198927E-03	2.043678E-04
3.317357E+03	1.170741E-03	1.994430E-04
3.327260E+03	1.143658E-03	1.947113E-04
3.337162E+03	1.117640E-03	1.901660E-04
3.347065E+03	1.092667E-03	1.858034E-04
3.356967E+03	1.068719E-03	1.816196E-04
3.366870E+03	1.045775E-03	1.776108E-04
3.376773E+03	1.023798E-03	1.737706E-04
3.386675E+03	1.002769E-03	1.700955E-04
3.396578E+03	9.826682E-04	1.665816E-04
3.406480E+03	9.634616E-04	1.632231E-04
3.416383E+03	9.451300E-04	1.600165E-04
3.426285E+03	9.276545E-04	1.569582E-04
3.436188E+03	9.109928E-04	1.540409E-04
3.446090E+03	8.951390E-04	1.512634E-04
3.455993E+03	8.800641E-04	1.486204E-04
3.465896E+03	8.657409E-04	1.461072E-04
3.475798E+03	8.521536E-04	1.437209E-04
3.485701E+03	8.392665E-04	1.414553E-04
3.495603E+03	8.270657E-04	1.393077E-04
3.505506E+03	8.155281E-04	1.372741E-04
3.515408E+03	8.046319E-04	1.353506E-04
3.525311E+03	7.943557E-04	1.335334E-04
3.535213E+03	7.846799E-04	1.318191E-04
3.545116E+03	7.755769E-04	1.302027E-04
3.555019E+03	7.670374E-04	1.286826E-04
3.564921E+03	7.590362E-04	1.272544E-04
3.574824E+03	7.515650E-04	1.259165E-04
3.584726E+03	7.445928E-04	1.246635E-04
3.594629E+03	7.381208E-04	1.234955E-04
3.604531E+03	7.321119E-04	1.224060E-04
3.614434E+03	7.265613E-04	1.213943E-04
3.624337E+03	7.214491E-04	1.204567E-04
3.634239E+03	7.167708E-04	1.195924E-04
3.644142E+03	7.125011E-04	1.187970E-04
3.654044E+03	7.086362E-04	1.180698E-04
3.663947E+03	7.051591E-04	1.174078E-04
3.673849E+03	7.020666E-04	1.168103E-04
3.683752E+03	6.993421E-04	1.162744E-04
3.693654E+03	6.969896E-04	1.158007E-04
3.703557E+03	6.949863E-04	1.153853E-04
3.713460E+03	6.933364E-04	1.150287E-04
3.723362E+03	6.920306E-04	1.147292E-04
3.733265E+03	6.910664E-04	1.144864E-04
3.743167E+03	6.904345E-04	1.142985E-04
3.753070E+03	6.901386E-04	1.141661E-04
3.762972E+03	6.901635E-04	1.140866E-04
3.772875E+03	6.905125E-04	1.140603E-04
3.782777E+03	6.911830E-04	1.140867E-04
3.792680E+03	6.921720E-04	1.141652E-04
3.802583E+03	6.934763E-04	1.142952E-04
3.812485E+03	6.950870E-04	1.144750E-04
3.822388E+03	6.970127E-04	1.147061E-04
3.832290E+03	6.992506E-04	1.149877E-04
3.842193E+03	7.017908E-04	1.153182E-04
3.852095E+03	7.046360E-04	1.156979E-04
3.861998E+03	7.077826E-04	1.161260E-04
3.871900E+03	7.112326E-04	1.166028E-04
3.881803E+03	7.149763E-04	1.171266E-04
3.891706E+03	7.190214E-04	1.176986E-04
3.901608E+03	7.233577E-04	1.183169E-04
3.911511E+03	7.279928E-04	1.189827E-04
3.921413E+03	7.329158E-04	1.196940E-04
3.931316E+03	7.381216E-04	1.204500E-04
3.941218E+03	7.436175E-04	1.212517E-04
3.951121E+03	7.493915E-04	1.220970E-04
3.961024E+03	7.554443E-04	1.229860E-04
3.970926E+03	7.617694E-04	1.239174E-04
3.980829E+03	7.683668E-04	1.248912E-04
3.990731E+03	7.752298E-04	1.259062E-04
4.000634E+03	7.823506E-04	1.269609E-04
4.010536E+03	7.897281E-04	1.280552E-04
4.020439E+03	7.973609E-04	1.291886E-04
4.030341E+03	8.052270E-04	1.303576E-04
4.040244E+03	8.133370E-04	1.315636E-04
4.050147E+03	8.216679E-04	1.328030E-04
4.060049E+03	8.302228E-04	1.340761E-04
4.069952E+03	8.389837E-04	1.353799E-04
4.079854E+03	8.479462E-04	1.367136E-04
4.089757E+03	8.570977E-04	1.380751E-04
4.099659E+03	8.664253E-04	1.394623E-04
4.109562E+03	8.759150E-04	1.408728E-04
4.119464E+03	8.855519E-04	1.423041E-04
4.129367E+03	8.953281E-04	1.437549E-04
4.139270E+03	9.052271E-04	1.452226E-04
4.149172E+03	9.152243E-04	1.467030E-04
4.159075E+03	9.253012E-04	1.481933E-04
4.168977E+03	9.354389E-04	1.496903E-04
4.178880E+03	9.456245E-04	1.511920E-04
4.188782E+03	9.558297E-04	1.526937E-04
4.198685E+03	9.660321E-04	1.541920E-04
4.208587E+03	9.762011E-04	1.556819E-04
4.218490E+03	9.863205E-04	1.571609E-04
4.228393E+03	9.963578E-04	1.586237E-04
4.238295E+03	1.006287E-03	1.600665E-04
4.248198E+03	1.016084E-03	1.614850E-04
4.258100E+03	1.025703E-03	1.628725E-04
4.268003E+03	1.035135E-03	1.642274E-04
4.277905E+03	1.044335E-03	1.655427E-04
4.287808E+03	1.053278E-03	1.668145E-04
4.297711E+03	1.061927E-03	1.680370E-04
4.307613E+03	1.070275E-03	1.692092E-04
4.317516E+03	1.078270E-03	1.703232E-04
4.327418E+03	1.085908E-03	1.713784E-04
4.337321E+03	1.093170E-03	1.723718E-04
4.347223E+03	1.100048E-03	1.733027E-04
4.357126E+03	1.106551E-03	1.741722E-04
4.367028E+03	1.112679E-03	1.749808E-04
4.376931E+03	1.118458E-03	1.757325E-04
4.386834E+03	1.123878E-03	1.764262E-04
4.396736E+03	1.128971E-03	1.770669E-04
4.406639E+03	1.133743E-03	1.776555E-04
4.416541E+03	1.138210E-03	1.781949E-04
4.426444E+03	1.142411E-03	1.786912E-04
4.436346E+03	1.146336E-03	1.791430E-04
4.446249E+03	1.150036E-03	1.795583E-04
4.456151E+03	1.153503E-03	1.799359E-04
4.466054E+03	1.156777E-03	1.802825E-04
4.475957E+03	1.159874E-03	1.806002E-04
4.485859E+03	1.162814E-03	1.808923E-04
4.495762E+03	1.165621E-03	1.811627E-04
4.505664E+03	1.168296E-03	1.814117E-04
4.515567E+03	1.170883E-03	1.816459E-04
4.525469E+03	1.173383E-03	1.818658E-04
4.535372E+03	1.175819E-03	1.820745E-04
4.545274E+03	1.178211E-03	1.822756E-04
4.555177E+03	1.180580E-03	1.824723E-04
4.565080E+03	1.182937E-03	1.826661E-04
4.574982E+03	1.185291E-03	1.828584E-04
4.584885E+03	1.187661E-03	1.830523E-04
4.594787E+03	1.190066E-03	1.832506E-04
4.604690E+03	1.192525E-03	1.834563E-04
4.614592E+03	1.195034E-03	1.836686E-04
4.624495E+03	1.197621E-03	1.838919E-04
4.634398E+03	1.200293E-03	1.841271E-04
4.644300E+03	1.203054E-03	1.843749E-04
4.654203E+03	1.205921E-03	1.846377E-04
4.664105E+03	1.208897E-03	1.849162E-04
4.674008E+03	1.211987E-03	1.852107E-04
4.683910E+03	1.215192E-03	1.855218E-04
4.693813E+03	1.218516E-03	1.858497E-04
4.703715E+03	1.221961E-03	1.861946E-04
4.713618E+03	1.225527E-03	1.865568E-04
4.723521E+03	1.229216E-03	1.869361E-04
4.733423E+03	1.233016E-03	1.873309E-04
4.743326E+03	1.236937E-03	1.877427E-04
4.753228E+03	1.240957E-03	1.881678E-04
4.763131E+03	1.245096E-03	1.886095E-04
4.773033E+03	1.249329E-03	1.890639E-04
4.782936E+03	1.253666E-03	1.895323E-04
4.792838E+03	1.258103E-03	1.900142E-04
4.802741E+03	1.262613E-03	1.905054E-04
4.812644E+03	1.267216E-03	1.910089E-04
4.822546E+03	1.271896E-03	1.915222E-04
4.832449E+03	1.276660E-03	1.920465E-04
4.842351E+03	1.281465E-03	1.925751E-04
4.852254E+03	1.286344E-03	1.931128E-04
4.862156E+03	1.291264E-03	1.936550E-04
4.872059E+03	1.296233E-03	1.942025E-04
4.881961E+03	1.301229E-03	1.947523E-04
4.891864E+03	1.306259E-03	1.953052E-04
4.901767E+03	1.311288E-03	1.958561E-04
4.911669E+03	1.316322E-03	1.964057E-04
4.921572E+03	1.321363E-03	1.969545E-04
4.931474E+03	1.326377E-03	1.974973E-04
4.941377E+03	1.331353E-03	1.980326E-04
4.951279E+03	1.336294E-03	1.985607E-04
4.961182E+03	1.341188E-03	1.990801E-04
4.971085E+03	1.345999E-03	1.995850E-04
4.980987E+03	1.350725E-03	2.000756E-04
4.990890E+03	1.355355E-03	2.005501E-04
5.000792E+03	1.359875E-03	2.010065E-04
5.010695E+03	1.364257E-03	2.014407E-04
5.020597E+03	1.368486E-03	2.018506E-04
5.030500E+03	1.372559E-03	2.022360E-04
5.040402E+03	1.376435E-03	2.025905E-04
5.050305E+03	1.380109E-03	2.029138E-04
5.060208E+03	1.383549E-03	2.032012E-04
5.070110E+03	1.386739E-03	2.034504E-04
5.080013E+03	1.389659E-03	2.036587E-04
5.089915E+03	1.392290E-03	2.038234E-04
5.099818E+03	1.394598E-03	2.039397E-04
5.109720E+03	1.396579E-03	2.040071E-04
5.119623E+03	1.398183E-03	2.040186E-04
5.129525E+03	1.399406E-03	2.039735E-04
5.139428E+03	1.400212E-03	2.038671E-04
5.149331E+03	1.400583E-03	2.036968E-04
5.159233E+03	1.400498E-03	2.034598E-04
5.169136E+03	1.399940E-03	2.031538E-04
5.179038E+03	1.398862E-03	2.027724E-04
5.188941E+03	1.397276E-03	2.023174E-04
5.198843E+03	1.395125E-03	2.017809E-04
5.208746E+03	1.392423E-03	2.011651E-04
5.218648E+03	1.389130E-03	2.004647E-04
5.228551E+03	1.385251E-03	1.996806E-04
5.238454E+03	1.380765E-03	1.988101E-04
5.248356E+03	1.375654E-03	1.978508E-04
5.258259E+03	1.369931E-03	1.968050E-04
5.268161E+03	1.363571E-03	1.956694E-04
5.278064E+03	1.356593E-03	1.944471E-04
5.287966E+03	1.348994E-03	1.931378E-04
5.297869E+03	1.340774E-03	1.917420E-04
5.307772E+03	1.331951E-03	1.902625E-04
5.317674E+03	1.322547E-03	1.887028E-04
5.327577E+03	1.312589E-03	1.870671E-04
5.337479E+03	1.302081E-03	1.853561E-04
5.347382E+03	1.291072E-03	1.835772E-04
5.357284E+03	1.279589E-03	1.817342E-04
5.367187E+03	1.267686E-03	1.798354E-04
5.377089E+03	1.255384E-03	1.778839E-04
5.386992E+03	1.242772E-03	1.758924E-04
5.396895E+03	1.229914E-03	1.738700E-04
5.406797E+03	1.216935E-03	1.718347E-04
5.416700E+03	1.203864E-03	1.697906E-04
5.426602E+03	1.190671E-03	1.677336E-04
5.436505E+03	1.177354E-03	1.656633E-04
5.446407E+03	1.163947E-03	1.635846E-04
5.456310E+03	1.150528E-03	1.615086E-04
5.466212E+03	1.137117E-03	1.594380E-04
5.476115E+03	1.123801E-03	1.573850E-04
5.486018E+03	1.110607E-03	1.553533E-04
5.495920E+03	1.097594E-03	1.533513E-04
5.505823E+03	1.084820E-03	1.513867E-04
5.515725E+03	1.072340E-03	1.494671E-04
5.525628E+03	1.060182E-03	1.475964E-04
5.535530E+03	1.048395E-03	1.457813E-04
5.545433E+03	1.037025E-03	1.440277E-04
5.555335E+03	1.026101E-03	1.423398E-04
5.565238E+03	1.015653E-03	1.407212E-04
5.575141E+03	1.005724E-03	1.391779E-04
5.585043E+03	9.963250E-04	1.377109E-04
5.594946E+03	9.874832E-04	1.363238E-04
5.604848E+03	9.792124E-04	1.350183E-04
5.614751E+03	9.715332E-04	1.337969E-04
5.624653E+03	9.644531E-04	1.326603E-04
5.634556E+03	9.579766E-04	1.316088E-04
5.644459E+03	9.521158E-04	1.306439E-04
5.654361E+03	9.468800E-04	1.297664E-04
5.664264E+03	9.422568E-04	1.289744E-04
5.674166E+03	9.382512E-04	1.282683E-04
5.684069E+03	9.348571E-04	1.276468E-04
5.693971E+03	9.320665E-04	1.271086E-04
5.703874E+03	9.298901E-04	1.266549E-04
5.713776E+03	9.282980E-04	1.262813E-04
5.723679E+03	9.272990E-04	1.259886E-04
5.733582E+03	9.268712E-04	1.257736E-04
5.743484E+03	9.270127E-04	1.256358E-04
5.753387E+03	9.277107E-04	1.255732E-04
5.763289E+03	9.289524E-04	1.255836E-04
5.773192E+03	9.307346E-04	1.256665E-04
5.783094E+03	9.330344E-04	1.258184E-04
5.792997E+03	9.358486E-04	1.260387E-04
5.802899E+03	9.391641E-04	1.263254E-04
5.812802E+03	9.429576E-04	1.266750E-04
5.822705E+03	9.472366E-04	1.270883E-04
5.832607E+03	9.519674E-04	1.275606E-04
5.842510E+03	9.571580E-04	1.280926E-04
5.852412E+03	9.627851E-04	1.286812E-04
5.862315E+03	9.688360E-04	1.293242E-04
5.872217E+03	9.753084E-04	1.300213E-04
5.882120E+03	9.821682E-04	1.307676E-04
5.892022E+03	9.894132E-04	1.315627E-04
5.901925E+03	9.970422E-04	1.324062E-04
5.911828E+03	1.005020E-03	1.332933E-04
5.921730E+03	1.013345E-03	1.342235E-04
5.931633E+03	1.022005E-03	1.351951E-04
5.941535E+03	1.030976E-03	1.362048E-04
5.951438E+03	1.040246E-03	1.372507E-04
5.961340E+03	1.049802E-03	1.383311E-04
5.971243E+03	1.059621E-03	1.394428E-04
5.981146E+03	1.069692E-03	1.405841E-04
5.991048E+03	1.080016E-03	1.417552E-04
6.000951E+03	1.090545E-03	1.429496E-04
6.010853E+03	1.101296E-03	1.441694E-04
6.020756E+03	1.112223E-03	1.454084E-04
6.030658E+03	1.123343E-03	1.466690E-04
6.040561E+03	1.134612E-03	1.479451E-04
6.050463E+03	1.146039E-03	1.492379E-04
6.060366E+03	1.157593E-03	1.505435E-04
6.070269E+03	1.169289E-03	1.518634E-04
6.080171E+03	1.181097E-03	1.531940E-04
6.090074E+03	1.193005E-03	1.545336E-04
6.099976E+03	1.205030E-03	1.558843E-04
6.109879E+03	1.217142E-03	1.572422E-04
6.119781E+03	1.229354E-03	1.586090E-04
6.129684E+03	1.241659E-03	1.599836E-04
6.139586E+03	1.254041E-03	1.613642E-04
6.149489E+03	1.266479E-03	1.627478E-04
6.159392E+03	1.278976E-03	1.641349E-04
6.169294E+03	1.291497E-03	1.655211E-04
6.179197E+03	1.304026E-03	1.669043E-04
6.189099E+03	1.316544E-03	1.682820E-04
6.199002E+03	1.329065E-03	1.696562E-04
6.208904E+03	1.341542E-03	1.710207E-04
6.218807E+03	1.353960E-03	1.723738E-04
6.228709E+03	1.366326E-03	1.737164E-04
6.238612E+03	1.378632E-03	1.750476E-04
6.248515E+03	1.390856E-03	1.763644E-04
6.258417E+03	1.402975E-03	1.776640E-04
6.268320E+03	1.415007E-03	1.789490E-04
6.278222E+03	1.426916E-03	1.802147E-04
6.288125E+03	1.438705E-03	1.814615E-04
6.298027E+03	1.450360E-03	1.826879E-04
6.307930E+03	1.461869E-03	1.838922E-04
6.317833E+03	1.473218E-03	1.850730E-04
6.327735E+03	1.484397E-03	1.862290E-04
6.337638E+03	1.495396E-03	1.873593E-04
6.347540E+03	1.506185E-03	1.884597E-04
6.357443E+03	1.516777E-03	1.895324E-04
6.367345E+03	1.527163E-03	1.905762E-04
6.377248E+03	1.537359E-03	1.915934E-04
6.387150E+03	1.547382E-03	1.925860E-04
6.397053E+03	1.557207E-03	1.935512E-04
6.406956E+03	1.566875E-03	1.944940E-04
6.416858E+03	1.576383E-03	1.954144E-04
6.426761E+03	1.585756E-03	1.963152E-04
6.436663E+03	1.594968E-03	1.971937E-04
6.446566E+03	1.604066E-03	1.980554E-04
6.456468E+03	1.613027E-03	1.988979E-04
6.466371E+03	1.621879E-03	1.997245E-04
6.476273E+03	1.630594E-03	2.005319E-04
6.486176E+03	1.639200E-03	2.013237E-04
6.496079E+03	1.647725E-03	2.021033E-04
6.505981E+03	1.656118E-03	2.028647E-04
6.515884E+03	1.664407E-03	2.036112E-04
6.525786E+03	1.672622E-03	2.043466E-04
6.535689E+03	1.680707E-03	2.050643E-04
6.545591E+03	1.688721E-03	2.057714E-04
6.555494E+03	1.696609E-03	2.064613E-04
6.565396E+03	1.704426E-03	2.071409E-04
6.575299E+03	1.712118E-03	2.078036E-04
6.585202E+03	1.719711E-03	2.084526E-04
6.595104E+03	1.727208E-03	2.090884E-04
6.605007E+03	1.734576E-03	2.097071E-04
6.614909E+03	1.741843E-03	2.103123E-04
6.624812E+03	1.748979E-03	2.109004E-04
6.634714E+03	1.755981E-03	2.114710E-04
6.644617E+03	1.762874E-03	2.120275E-04
6.654520E+03	1.769629E-03	2.125661E-04
6.664422E+03	1.776206E-03	2.130825E-04
6.674325E+03	1.782666E-03	2.135839E-04
6.684227E+03	1.788940E-03	2.140622E-04
6.694130E+03	1.795055E-03	2.145209E-04
6.704032E+03	1.801004E-03	2.149591E-04
6.713935E+03	1.806751E-03	2.153729E-04
6.723837E+03	1.812288E-03	2.157611E-04
6.733740E+03	1.817609E-03	2.161234E-04
6.743643E+03	1.822740E-03	2.164629E-04
6.753545E+03	1.827640E-03	2.167751E-04
6.763448E+03	1.832270E-03	2.170553E-04
6.773350E+03	1.836655E-03	2.173067E-04
6.783253E+03	1.840788E-03	2.175287E-04
6.793155E+03	1.844661E-03	2.177206E-04
6.803058E+03	1.848236E-03	2.178779E-04
6.812960E+03	1.851503E-03	2.179997E-04
6.822863E+03	1.854491E-03	2.180896E-04
6.832766E+03	1.857158E-03	2.181428E-04
6.842668E+03	1.859499E-03	2.181591E-04
6.852571E+03	1.861509E-03	2.181378E-04
6.862473E+03	1.863182E-03	2.180786E-04
6.872376E+03	1.864514E-03	2.179812E-04
6.882278E+03	1.865501E-03	2.178454E-04
6.892181E+03	1.866103E-03	2.176666E-04
6.902083E+03	1.866318E-03	2.174449E-04
6.911986E+03	1.866181E-03	2.171845E-04
6.921889E+03	1.865691E-03	2.168856E-04
6.931791E+03	1.864774E-03	2.165397E-04
6.941694E+03	1.863506E-03	2.161558E-04
6.951596E+03	1.861851E-03	2.157300E-04
6.961499E+03	1.859811E-03	2.152628E-04
6.971401E+03	1.857354E-03	2.147506E-04
6.981304E+03	1.854523E-03	2.141986E-04
6.991207E+03	1.851322E-03	2.136075E-04
7.001109E+03	1.847759E-03	2.129784E-04
7.011012E+03	1.843804E-03	2.123079E-04
7.020914E+03	1.839469E-03	2.115977E-04
7.030817E+03	1.834798E-03	2.108530E-04
7.040719E+03	1.829767E-03	2.100712E-04
7.050622E+03	1.824352E-03	2.092498E-04
7.060524E+03	1.818637E-03	2.083985E-04
7.070427E+03	1.812602E-03	2.075151E-04
7.080330E+03	1.806261E-03	2.066014E-04
7.090232E+03	1.799591E-03	2.056551E-04
7.100135E+03	1.792649E-03	2.046825E-04
7.110037E+03	1.785449E-03	2.036856E-04
7.119940E+03	1.777973E-03	2.026622E-04
7.129842E+03	1.770240E-03	2.016148E-04
7.139745E+03	1.762306E-03	2.005496E-04
7.149647E+03	1.754151E-03	1.994648E-04
7.159550E+03	1.745797E-03	1.983627E-04
7.169453E+03	1.737263E-03	1.972456E-04
7.179355E+03	1.728570E-03	1.961160E-04
7.189258E+03	1.719704E-03	1.949722E-04
7.199160E+03	1.710757E-03	1.938249E-04
7.209063E+03	1.701714E-03	1.926724E-04
7.218965E+03	1.692529E-03	1.915093E-04
7.228868E+03	1.683329E-03	1.903502E-04
7.238770E+03	1.674032E-03	1.891858E-04
7.248673E+03	1.664732E-03	1.880269E-04
7.258576E+03	1.655421E-03	1.868722E-04
7.268478E+03	1.646124E-03	1.857249E-04
7.278381E+03	1.636835E-03	1.845842E-04
7.288283E+03	1.627580E-03	1.834530E-04
7.298186E+03	1.618392E-03	1.823349E-04
7.308088E+03	1.609302E-03	1.812336E-04
7.317991E+03	1.600274E-03	1.801450E-04
7.327894E+03	1.591380E-03	1.790771E-04
7.337796E+03	1.582588E-03	1.780263E-04
7.347699E+03	1.573905E-03	1.769934E-04
7.357601E+03	1.565339E-03	1.759792E-04
7.367504E+03	1.556969E-03	1.749925E-04
7.377406E+03	1.548842E-03	1.740387E-04
7.387309E+03	1.541070E-03	1.731305E-04
7.397211E+03	1.533770E-03	1.722806E-04
7.407114E+03	1.526951E-03	1.714904E-04
7.417017E+03	1.520685E-03	1.707677E-04
7.426919E+03	1.515073E-03	1.701237E-04
7.436822E+03	1.510063E-03	1.695525E-04
7.446724E+03	1.505722E-03	1.690615E-04
7.456627E+03	1.502036E-03	1.686490E-04
7.466529E+03	1.498978E-03	1.683118E-04
7.476432E+03	1.496509E-03	1.680456E-04
7.486334E+03	1.494588E-03	1.678455E-04
7.496237E+03	1.493205E-03	1.677105E-04
7.506140E+03	1.492281E-03	1.676317E-04
7.516042E+03	1.491814E-03	1.676086E-04
7.525945E+03	1.491727E-03	1.676327E-04
7.535847E+03	1.492019E-03	1.677037E-04
7.545750E+03	1.492656E-03	1.678179E-04
7.555652E+03	1.493573E-03	1.679678E-04
7.565555E+03	1.494775E-03	1.681541E-04
7.575457E+03	1.496234E-03	1.683735E-04
7.585360E+03	1.497890E-03	1.686193E-04
7.595263E+03	1.499755E-03	1.688928E-04
7.605165E+03	1.501771E-03	1.691874E-04
7.615068E+03	1.503988E-03	1.695087E-04
7.624970E+03	1.506315E-03	1.698466E-04
7.634873E+03	1.508770E-03	1.702028E-04
7.644775E+03	1.511299E-03	1.705715E-04
7.654678E+03	1.513922E-03	1.709547E-04
7.664581E+03	1.516622E-03	1.713506E-04
7.674483E+03	1.519386E-03	1.717576E-04
7.684386E+03	1.522161E-03	1.721696E-04
