#wls	flux	fluxerr
1.584409E+03	1.805890E-03	0.000000E+00
1.624020E+03	1.870398E-03	0.000000E+00
1.663630E+03	1.934179E-03	0.000000E+00
1.703240E+03	1.996979E-03	0.000000E+00
1.742850E+03	2.058069E-03	0.000000E+00
1.782461E+03	2.117495E-03	0.000000E+00
1.822071E+03	2.174210E-03	0.000000E+00
1.861681E+03	2.227936E-03	0.000000E+00
1.901291E+03	2.277927E-03	0.000000E+00
1.940902E+03	2.323603E-03	0.000000E+00
1.980512E+03	2.364132E-03	0.000000E+00
2.020122E+03	2.398868E-03	0.000000E+00
2.059732E+03	2.426953E-03	0.000000E+00
2.099342E+03	2.447726E-03	0.000000E+00
2.138953E+03	2.460197E-03	0.000000E+00
2.178563E+03	2.463800E-03	0.000000E+00
2.218173E+03	2.457873E-03	0.000000E+00
2.257783E+03	2.442321E-03	0.000000E+00
2.297394E+03	2.417247E-03	0.000000E+00
2.337004E+03	2.382636E-03	0.000000E+00
2.376614E+03	2.338938E-03	0.000000E+00
2.416224E+03	2.286463E-03	0.000000E+00
2.455835E+03	2.225567E-03	0.000000E+00
2.495445E+03	2.156656E-03	0.000000E+00
2.535055E+03	2.080120E-03	0.000000E+00
2.574665E+03	1.996641E-03	0.000000E+00
2.614276E+03	1.906816E-03	0.000000E+00
2.653886E+03	1.811312E-03	0.000000E+00
2.693496E+03	1.711032E-03	0.000000E+00
2.733106E+03	1.606841E-03	0.000000E+00
2.772716E+03	1.499746E-03	0.000000E+00
2.812327E+03	1.390841E-03	0.000000E+00
2.851937E+03	1.281350E-03	0.000000E+00
2.891547E+03	1.172898E-03	0.000000E+00
2.931157E+03	1.067208E-03	0.000000E+00
2.970768E+03	9.659023E-04	0.000000E+00
2.980670E+03	9.414108E-04	0.000000E+00
2.990573E+03	9.173123E-04	0.000000E+00
3.000475E+03	8.935690E-04	0.000000E+00
3.010378E+03	8.702500E-04	0.000000E+00
3.020280E+03	8.473370E-04	0.000000E+00
3.030183E+03	8.248340E-04	0.000000E+00
3.040086E+03	8.027625E-04	0.000000E+00
3.049988E+03	7.811407E-04	0.000000E+00
3.059891E+03	7.599516E-04	0.000000E+00
3.069793E+03	7.392277E-04	0.000000E+00
3.079696E+03	7.189512E-04	0.000000E+00
3.089598E+03	6.991356E-04	0.000000E+00
3.099501E+03	6.797918E-04	0.000000E+00
3.109403E+03	6.609156E-04	0.000000E+00
3.119306E+03	6.424898E-04	0.000000E+00
3.129209E+03	6.245476E-04	0.000000E+00
3.139111E+03	6.070584E-04	0.000000E+00
3.149014E+03	5.900400E-04	0.000000E+00
3.158916E+03	5.734850E-04	0.000000E+00
3.168819E+03	5.573861E-04	0.000000E+00
3.178721E+03	5.417361E-04	0.000000E+00
3.188624E+03	5.265462E-04	0.000000E+00
3.198526E+03	5.117986E-04	0.000000E+00
3.208429E+03	4.974846E-04	0.000000E+00
3.218332E+03	4.836044E-04	0.000000E+00
3.228234E+03	4.701568E-04	0.000000E+00
3.238137E+03	4.571242E-04	0.000000E+00
3.248039E+03	4.445051E-04	0.000000E+00
3.257942E+03	4.322897E-04	0.000000E+00
3.267844E+03	4.204751E-04	0.000000E+00
3.277747E+03	4.090451E-04	0.000000E+00
3.287650E+03	3.979903E-04	0.000000E+00
3.297552E+03	3.873131E-04	0.000000E+00
3.307455E+03	3.769925E-04	0.000000E+00
3.317357E+03	3.670247E-04	0.000000E+00
3.327260E+03	3.574054E-04	0.000000E+00
3.337162E+03	3.481157E-04	0.000000E+00
3.347065E+03	3.391562E-04	0.000000E+00
3.356967E+03	3.305085E-04	0.000000E+00
3.366870E+03	3.221651E-04	0.000000E+00
3.376773E+03	3.141216E-04	0.000000E+00
3.386675E+03	3.063661E-04	0.000000E+00
3.396578E+03	2.988906E-04	0.000000E+00
3.406480E+03	2.916807E-04	0.000000E+00
3.416383E+03	2.847331E-04	0.000000E+00
3.426285E+03	2.780374E-04	0.000000E+00
3.436188E+03	2.715809E-04	0.000000E+00
3.446090E+03	2.653579E-04	0.000000E+00
3.455993E+03	2.593567E-04	0.000000E+00
3.465896E+03	2.535696E-04	0.000000E+00
3.475798E+03	2.479891E-04	0.000000E+00
3.485701E+03	2.426032E-04	0.000000E+00
3.495603E+03	2.374002E-04	0.000000E+00
3.505506E+03	2.323679E-04	0.000000E+00
3.515408E+03	2.274923E-04	0.000000E+00
3.525311E+03	2.227611E-04	0.000000E+00
3.535213E+03	2.181633E-04	0.000000E+00
3.545116E+03	2.136866E-04	0.000000E+00
3.555019E+03	2.093202E-04	0.000000E+00
3.564921E+03	2.050584E-04	0.000000E+00
3.574824E+03	2.008899E-04	0.000000E+00
3.584726E+03	1.968101E-04	0.000000E+00
3.594629E+03	1.928219E-04	0.000000E+00
3.604531E+03	1.889240E-04	0.000000E+00
3.614434E+03	1.851181E-04	0.000000E+00
3.624337E+03	1.814057E-04	0.000000E+00
3.634239E+03	1.777890E-04	0.000000E+00
3.644142E+03	1.742682E-04	0.000000E+00
3.654044E+03	1.708418E-04	0.000000E+00
3.663947E+03	1.675136E-04	0.000000E+00
3.673849E+03	1.642799E-04	0.000000E+00
3.683752E+03	1.611424E-04	0.000000E+00
3.693654E+03	1.580995E-04	0.000000E+00
3.703557E+03	1.551510E-04	0.000000E+00
3.713460E+03	1.522949E-04	0.000000E+00
3.723362E+03	1.495294E-04	0.000000E+00
3.733265E+03	1.468548E-04	0.000000E+00
3.743167E+03	1.442687E-04	0.000000E+00
3.753070E+03	1.417699E-04	0.000000E+00
3.762972E+03	1.393549E-04	0.000000E+00
3.772875E+03	1.370246E-04	0.000000E+00
3.782777E+03	1.347754E-04	0.000000E+00
3.792680E+03	1.326067E-04	0.000000E+00
3.802583E+03	1.305150E-04	0.000000E+00
3.812485E+03	1.285007E-04	0.000000E+00
3.822388E+03	1.265593E-04	0.000000E+00
3.832290E+03	1.246912E-04	0.000000E+00
3.842193E+03	1.228938E-04	0.000000E+00
3.852095E+03	1.211645E-04	0.000000E+00
3.861998E+03	1.195018E-04	0.000000E+00
3.871900E+03	1.179042E-04	0.000000E+00
3.881803E+03	1.163701E-04	0.000000E+00
3.891706E+03	1.148972E-04	0.000000E+00
3.901608E+03	1.134830E-04	0.000000E+00
3.911511E+03	1.121272E-04	0.000000E+00
3.921413E+03	1.108283E-04	0.000000E+00
3.931316E+03	1.095825E-04	0.000000E+00
3.941218E+03	1.083900E-04	0.000000E+00
3.951121E+03	1.072489E-04	0.000000E+00
3.961024E+03	1.061579E-04	0.000000E+00
3.970926E+03	1.051143E-04	0.000000E+00
3.980829E+03	1.041169E-04	0.000000E+00
3.990731E+03	1.031655E-04	0.000000E+00
4.000634E+03	1.022575E-04	0.000000E+00
4.010536E+03	1.013919E-04	0.000000E+00
4.020439E+03	1.005670E-04	0.000000E+00
4.030341E+03	9.978202E-05	0.000000E+00
4.040244E+03	9.903523E-05	0.000000E+00
4.050147E+03	9.832589E-05	0.000000E+00
4.060049E+03	9.765250E-05	0.000000E+00
4.069952E+03	9.701358E-05	0.000000E+00
4.079854E+03	9.640850E-05	0.000000E+00
4.089757E+03	9.583659E-05	0.000000E+00
4.099659E+03	9.529582E-05	0.000000E+00
4.109562E+03	9.478633E-05	0.000000E+00
4.119464E+03	9.430618E-05	0.000000E+00
4.129367E+03	9.385489E-05	0.000000E+00
4.139270E+03	9.343197E-05	0.000000E+00
4.149172E+03	9.303631E-05	0.000000E+00
4.159075E+03	9.266680E-05	0.000000E+00
4.168977E+03	9.232311E-05	0.000000E+00
4.178880E+03	9.200421E-05	0.000000E+00
4.188782E+03	9.170979E-05	0.000000E+00
4.198685E+03	9.143960E-05	0.000000E+00
4.208587E+03	9.119271E-05	0.000000E+00
4.218490E+03	9.096750E-05	0.000000E+00
4.228393E+03	9.076521E-05	0.000000E+00
4.238295E+03	9.058429E-05	0.000000E+00
4.248198E+03	9.042464E-05	0.000000E+00
4.258100E+03	9.028475E-05	0.000000E+00
4.268003E+03	9.016526E-05	0.000000E+00
4.277905E+03	9.006546E-05	0.000000E+00
4.287808E+03	8.998464E-05	0.000000E+00
4.297711E+03	8.992278E-05	0.000000E+00
4.307613E+03	8.987926E-05	0.000000E+00
4.317516E+03	8.985557E-05	0.000000E+00
4.327418E+03	8.985039E-05	0.000000E+00
4.337321E+03	8.986387E-05	0.000000E+00
4.347223E+03	8.989615E-05	0.000000E+00
4.357126E+03	8.994603E-05	0.000000E+00
4.367028E+03	9.001368E-05	0.000000E+00
4.376931E+03	9.009865E-05	0.000000E+00
4.386834E+03	9.019977E-05	0.000000E+00
4.396736E+03	9.031805E-05	0.000000E+00
4.406639E+03	9.045233E-05	0.000000E+00
4.416541E+03	9.060223E-05	0.000000E+00
4.426444E+03	9.076664E-05	0.000000E+00
4.436346E+03	9.094668E-05	0.000000E+00
4.446249E+03	9.114199E-05	0.000000E+00
4.456151E+03	9.135079E-05	0.000000E+00
4.466054E+03	9.157425E-05	0.000000E+00
4.475957E+03	9.181133E-05	0.000000E+00
4.485859E+03	9.206177E-05	0.000000E+00
4.495762E+03	9.232606E-05	0.000000E+00
4.505664E+03	9.260398E-05	0.000000E+00
4.515567E+03	9.289452E-05	0.000000E+00
4.525469E+03	9.319748E-05	0.000000E+00
4.535372E+03	9.351345E-05	0.000000E+00
4.545274E+03	9.384223E-05	0.000000E+00
4.555177E+03	9.418208E-05	0.000000E+00
4.565080E+03	9.453440E-05	0.000000E+00
4.574982E+03	9.489908E-05	0.000000E+00
4.584885E+03	9.527436E-05	0.000000E+00
4.594787E+03	9.566090E-05	0.000000E+00
4.604690E+03	9.605858E-05	0.000000E+00
4.614592E+03	9.646646E-05	0.000000E+00
4.624495E+03	9.688607E-05	0.000000E+00
4.634398E+03	9.731651E-05	0.000000E+00
4.644300E+03	9.775852E-05	0.000000E+00
4.654203E+03	9.821205E-05	0.000000E+00
4.664105E+03	9.867789E-05	0.000000E+00
4.674008E+03	9.915513E-05	0.000000E+00
4.683910E+03	9.964552E-05	0.000000E+00
4.693813E+03	1.001482E-04	0.000000E+00
4.703715E+03	1.006657E-04	0.000000E+00
4.713618E+03	1.011964E-04	0.000000E+00
4.723521E+03	1.017412E-04	0.000000E+00
4.733423E+03	1.023020E-04	0.000000E+00
4.743326E+03	1.028779E-04	0.000000E+00
4.753228E+03	1.034709E-04	0.000000E+00
4.763131E+03	1.040794E-04	0.000000E+00
4.773033E+03	1.047052E-04	0.000000E+00
4.782936E+03	1.053485E-04	0.000000E+00
4.792838E+03	1.060086E-04	0.000000E+00
4.802741E+03	1.066865E-04	0.000000E+00
4.812644E+03	1.073834E-04	0.000000E+00
4.822546E+03	1.080975E-04	0.000000E+00
4.832449E+03	1.088300E-04	0.000000E+00
4.842351E+03	1.095821E-04	0.000000E+00
4.852254E+03	1.103520E-04	0.000000E+00
4.862156E+03	1.111407E-04	0.000000E+00
4.872059E+03	1.119487E-04	0.000000E+00
4.881961E+03	1.127760E-04	0.000000E+00
4.891864E+03	1.136228E-04	0.000000E+00
4.901767E+03	1.144883E-04	0.000000E+00
4.911669E+03	1.153737E-04	0.000000E+00
4.921572E+03	1.162781E-04	0.000000E+00
4.931474E+03	1.172017E-04	0.000000E+00
4.941377E+03	1.181447E-04	0.000000E+00
4.951279E+03	1.191071E-04	0.000000E+00
4.961182E+03	1.200892E-04	0.000000E+00
4.971085E+03	1.210910E-04	0.000000E+00
4.980987E+03	1.221117E-04	0.000000E+00
4.990890E+03	1.231512E-04	0.000000E+00
5.000792E+03	1.242096E-04	0.000000E+00
5.010695E+03	1.252871E-04	0.000000E+00
5.020597E+03	1.263837E-04	0.000000E+00
5.030500E+03	1.274994E-04	0.000000E+00
5.040402E+03	1.286319E-04	0.000000E+00
5.050305E+03	1.297836E-04	0.000000E+00
5.060208E+03	1.309545E-04	0.000000E+00
5.070110E+03	1.321420E-04	0.000000E+00
5.080013E+03	1.333461E-04	0.000000E+00
5.089915E+03	1.345679E-04	0.000000E+00
5.099818E+03	1.358074E-04	0.000000E+00
5.109720E+03	1.370618E-04	0.000000E+00
5.119623E+03	1.383323E-04	0.000000E+00
5.129525E+03	1.396199E-04	0.000000E+00
5.139428E+03	1.409218E-04	0.000000E+00
5.149331E+03	1.422377E-04	0.000000E+00
5.159233E+03	1.435672E-04	0.000000E+00
5.169136E+03	1.449115E-04	0.000000E+00
5.179038E+03	1.462687E-04	0.000000E+00
5.188941E+03	1.476386E-04	0.000000E+00
5.198843E+03	1.490191E-04	0.000000E+00
5.208746E+03	1.504112E-04	0.000000E+00
5.218648E+03	1.518145E-04	0.000000E+00
5.228551E+03	1.532268E-04	0.000000E+00
5.238454E+03	1.546491E-04	0.000000E+00
5.248356E+03	1.560793E-04	0.000000E+00
5.258259E+03	1.575165E-04	0.000000E+00
5.268161E+03	1.589618E-04	0.000000E+00
5.278064E+03	1.604126E-04	0.000000E+00
5.287966E+03	1.618682E-04	0.000000E+00
5.297869E+03	1.633278E-04	0.000000E+00
5.307772E+03	1.647904E-04	0.000000E+00
5.317674E+03	1.662551E-04	0.000000E+00
5.327577E+03	1.677208E-04	0.000000E+00
5.337479E+03	1.691866E-04	0.000000E+00
5.347382E+03	1.706497E-04	0.000000E+00
5.357284E+03	1.721088E-04	0.000000E+00
5.367187E+03	1.735645E-04	0.000000E+00
5.377089E+03	1.750139E-04	0.000000E+00
5.386992E+03	1.764557E-04	0.000000E+00
5.396895E+03	1.778868E-04	0.000000E+00
5.406797E+03	1.793077E-04	0.000000E+00
5.416700E+03	1.807129E-04	0.000000E+00
5.426602E+03	1.821052E-04	0.000000E+00
5.436505E+03	1.834771E-04	0.000000E+00
5.446407E+03	1.848293E-04	0.000000E+00
5.456310E+03	1.861598E-04	0.000000E+00
5.466212E+03	1.874652E-04	0.000000E+00
5.476115E+03	1.887441E-04	0.000000E+00
5.486018E+03	1.899928E-04	0.000000E+00
5.495920E+03	1.912096E-04	0.000000E+00
5.505823E+03	1.923927E-04	0.000000E+00
5.515725E+03	1.935406E-04	0.000000E+00
5.525628E+03	1.946496E-04	0.000000E+00
5.535530E+03	1.957179E-04	0.000000E+00
5.545433E+03	1.967444E-04	0.000000E+00
5.555335E+03	1.977269E-04	0.000000E+00
5.565238E+03	1.986621E-04	0.000000E+00
5.575141E+03	1.995484E-04	0.000000E+00
5.585043E+03	2.003865E-04	0.000000E+00
5.594946E+03	2.011731E-04	0.000000E+00
5.604848E+03	2.019046E-04	0.000000E+00
5.614751E+03	2.025842E-04	0.000000E+00
5.624653E+03	2.032106E-04	0.000000E+00
5.634556E+03	2.037786E-04	0.000000E+00
5.644459E+03	2.042893E-04	0.000000E+00
5.654361E+03	2.047443E-04	0.000000E+00
5.664264E+03	2.051404E-04	0.000000E+00
5.674166E+03	2.054774E-04	0.000000E+00
5.684069E+03	2.057567E-04	0.000000E+00
5.693971E+03	2.059760E-04	0.000000E+00
5.703874E+03	2.061392E-04	0.000000E+00
5.713776E+03	2.062420E-04	0.000000E+00
5.723679E+03	2.062866E-04	0.000000E+00
5.733582E+03	2.062733E-04	0.000000E+00
5.743484E+03	2.062042E-04	0.000000E+00
5.753387E+03	2.060779E-04	0.000000E+00
5.763289E+03	2.058969E-04	0.000000E+00
5.773192E+03	2.056617E-04	0.000000E+00
5.783094E+03	2.053711E-04	0.000000E+00
5.792997E+03	2.050303E-04	0.000000E+00
5.802899E+03	2.046382E-04	0.000000E+00
5.812802E+03	2.041977E-04	0.000000E+00
5.822705E+03	2.037078E-04	0.000000E+00
5.832607E+03	2.031721E-04	0.000000E+00
5.842510E+03	2.025920E-04	0.000000E+00
5.852412E+03	2.019687E-04	0.000000E+00
5.862315E+03	2.013056E-04	0.000000E+00
5.872217E+03	2.006001E-04	0.000000E+00
5.882120E+03	1.998581E-04	0.000000E+00
5.892022E+03	1.990811E-04	0.000000E+00
5.901925E+03	1.982708E-04	0.000000E+00
5.911828E+03	1.974264E-04	0.000000E+00
5.921730E+03	1.965519E-04	0.000000E+00
5.931633E+03	1.956513E-04	0.000000E+00
5.941535E+03	1.947216E-04	0.000000E+00
5.951438E+03	1.937689E-04	0.000000E+00
5.961340E+03	1.927925E-04	0.000000E+00
5.971243E+03	1.917965E-04	0.000000E+00
5.981146E+03	1.907778E-04	0.000000E+00
5.991048E+03	1.897424E-04	0.000000E+00
6.000951E+03	1.886919E-04	0.000000E+00
6.010853E+03	1.876255E-04	0.000000E+00
6.020756E+03	1.865443E-04	0.000000E+00
6.030658E+03	1.854523E-04	0.000000E+00
6.040561E+03	1.843481E-04	0.000000E+00
6.050463E+03	1.832357E-04	0.000000E+00
6.060366E+03	1.821135E-04	0.000000E+00
6.070269E+03	1.809852E-04	0.000000E+00
6.080171E+03	1.798538E-04	0.000000E+00
6.090074E+03	1.787182E-04	0.000000E+00
6.099976E+03	1.775815E-04	0.000000E+00
6.109879E+03	1.764492E-04	0.000000E+00
6.119781E+03	1.753218E-04	0.000000E+00
6.129684E+03	1.742026E-04	0.000000E+00
6.139586E+03	1.730900E-04	0.000000E+00
6.149489E+03	1.719841E-04	0.000000E+00
6.159392E+03	1.708837E-04	0.000000E+00
6.169294E+03	1.697890E-04	0.000000E+00
6.179197E+03	1.687030E-04	0.000000E+00
6.189099E+03	1.676238E-04	0.000000E+00
6.199002E+03	1.665518E-04	0.000000E+00
6.208904E+03	1.654897E-04	0.000000E+00
6.218807E+03	1.644403E-04	0.000000E+00
6.228709E+03	1.634040E-04	0.000000E+00
6.238612E+03	1.623811E-04	0.000000E+00
6.248515E+03	1.613788E-04	0.000000E+00
6.258417E+03	1.603929E-04	0.000000E+00
6.268320E+03	1.594329E-04	0.000000E+00
6.278222E+03	1.584968E-04	0.000000E+00
6.288125E+03	1.575873E-04	0.000000E+00
6.298027E+03	1.567115E-04	0.000000E+00
6.307930E+03	1.558697E-04	0.000000E+00
6.317833E+03	1.550646E-04	0.000000E+00
6.327735E+03	1.542987E-04	0.000000E+00
6.337638E+03	1.535770E-04	0.000000E+00
6.347540E+03	1.528975E-04	0.000000E+00
6.357443E+03	1.522560E-04	0.000000E+00
6.367345E+03	1.516506E-04	0.000000E+00
6.377248E+03	1.510794E-04	0.000000E+00
6.387150E+03	1.505403E-04	0.000000E+00
6.397053E+03	1.500292E-04	0.000000E+00
6.406956E+03	1.495442E-04	0.000000E+00
6.416858E+03	1.490833E-04	0.000000E+00
6.426761E+03	1.486469E-04	0.000000E+00
6.436663E+03	1.482331E-04	0.000000E+00
6.446566E+03	1.478399E-04	0.000000E+00
6.456468E+03	1.474700E-04	0.000000E+00
6.466371E+03	1.471191E-04	0.000000E+00
6.476273E+03	1.467899E-04	0.000000E+00
6.486176E+03	1.464802E-04	0.000000E+00
6.496079E+03	1.461929E-04	0.000000E+00
6.505981E+03	1.459257E-04	0.000000E+00
6.515884E+03	1.456791E-04	0.000000E+00
6.525786E+03	1.454530E-04	0.000000E+00
6.535689E+03	1.452502E-04	0.000000E+00
6.545591E+03	1.450661E-04	0.000000E+00
6.555494E+03	1.449055E-04	0.000000E+00
6.565396E+03	1.447662E-04	0.000000E+00
6.575299E+03	1.446483E-04	0.000000E+00
6.585202E+03	1.445541E-04	0.000000E+00
6.595104E+03	1.444791E-04	0.000000E+00
6.605007E+03	1.444279E-04	0.000000E+00
6.614909E+03	1.443982E-04	0.000000E+00
6.624812E+03	1.443899E-04	0.000000E+00
6.634714E+03	1.444055E-04	0.000000E+00
6.644617E+03	1.444424E-04	0.000000E+00
6.654520E+03	1.445007E-04	0.000000E+00
6.664422E+03	1.445802E-04	0.000000E+00
6.674325E+03	1.446832E-04	0.000000E+00
6.684227E+03	1.448073E-04	0.000000E+00
6.694130E+03	1.449523E-04	0.000000E+00
6.704032E+03	1.451205E-04	0.000000E+00
6.713935E+03	1.453092E-04	0.000000E+00
6.723837E+03	1.455183E-04	0.000000E+00
6.733740E+03	1.457500E-04	0.000000E+00
6.743643E+03	1.459990E-04	0.000000E+00
6.753545E+03	1.462702E-04	0.000000E+00
6.763448E+03	1.465632E-04	0.000000E+00
6.773350E+03	1.468724E-04	0.000000E+00
6.783253E+03	1.472028E-04	0.000000E+00
6.793155E+03	1.475513E-04	0.000000E+00
6.803058E+03	1.479175E-04	0.000000E+00
6.812960E+03	1.483009E-04	0.000000E+00
6.822863E+03	1.487011E-04	0.000000E+00
6.832766E+03	1.491203E-04	0.000000E+00
6.842668E+03	1.495525E-04	0.000000E+00
6.852571E+03	1.500028E-04	0.000000E+00
6.862473E+03	1.504651E-04	0.000000E+00
6.872376E+03	1.509446E-04	0.000000E+00
6.882278E+03	1.514351E-04	0.000000E+00
6.892181E+03	1.519419E-04	0.000000E+00
6.902083E+03	1.524587E-04	0.000000E+00
6.911986E+03	1.529880E-04	0.000000E+00
6.921889E+03	1.535295E-04	0.000000E+00
6.931791E+03	1.540798E-04	0.000000E+00
6.941694E+03	1.546445E-04	0.000000E+00
6.951596E+03	1.552175E-04	0.000000E+00
6.961499E+03	1.557982E-04	0.000000E+00
6.971401E+03	1.563896E-04	0.000000E+00
6.981304E+03	1.569915E-04	0.000000E+00
6.991207E+03	1.576007E-04	0.000000E+00
7.001109E+03	1.582169E-04	0.000000E+00
7.011012E+03	1.588432E-04	0.000000E+00
7.020914E+03	1.594764E-04	0.000000E+00
7.030817E+03	1.601164E-04	0.000000E+00
7.040719E+03	1.607632E-04	0.000000E+00
7.050622E+03	1.614199E-04	0.000000E+00
7.060524E+03	1.620801E-04	0.000000E+00
7.070427E+03	1.627503E-04	0.000000E+00
7.080330E+03	1.634238E-04	0.000000E+00
7.090232E+03	1.641040E-04	0.000000E+00
7.100135E+03	1.647909E-04	0.000000E+00
7.110037E+03	1.654845E-04	0.000000E+00
7.119940E+03	1.661813E-04	0.000000E+00
7.129842E+03	1.668848E-04	0.000000E+00
7.139745E+03	1.675950E-04	0.000000E+00
7.149647E+03	1.683082E-04	0.000000E+00
7.159550E+03	1.690244E-04	0.000000E+00
7.169453E+03	1.697471E-04	0.000000E+00
7.179355E+03	1.704727E-04	0.000000E+00
7.189258E+03	1.712009E-04	0.000000E+00
7.199160E+03	1.719355E-04	0.000000E+00
7.209063E+03	1.726725E-04	0.000000E+00
7.218965E+03	1.734119E-04	0.000000E+00
7.228868E+03	1.741612E-04	0.000000E+00
7.238770E+03	1.749087E-04	0.000000E+00
7.248673E+03	1.756660E-04	0.000000E+00
7.258576E+03	1.764251E-04	0.000000E+00
7.268478E+03	1.771938E-04	0.000000E+00
7.278381E+03	1.779680E-04	0.000000E+00
7.288283E+03	1.787514E-04	0.000000E+00
7.298186E+03	1.795482E-04	0.000000E+00
7.308088E+03	1.803542E-04	0.000000E+00
7.317991E+03	1.811818E-04	0.000000E+00
7.327894E+03	1.820267E-04	0.000000E+00
7.337796E+03	1.828892E-04	0.000000E+00
7.347699E+03	1.837862E-04	0.000000E+00
7.357601E+03	1.847053E-04	0.000000E+00
7.367504E+03	1.856596E-04	0.000000E+00
7.377406E+03	1.866494E-04	0.000000E+00
7.387309E+03	1.876660E-04	0.000000E+00
7.397211E+03	1.887049E-04	0.000000E+00
7.407114E+03	1.897659E-04	0.000000E+00
7.417017E+03	1.908444E-04	0.000000E+00
7.426919E+03	1.919398E-04	0.000000E+00
7.436822E+03	1.930470E-04	0.000000E+00
7.446724E+03	1.941607E-04	0.000000E+00
7.456627E+03	1.952801E-04	0.000000E+00
7.466529E+03	1.964041E-04	0.000000E+00
7.476432E+03	1.975273E-04	0.000000E+00
7.486334E+03	1.986534E-04	0.000000E+00
7.496237E+03	1.997714E-04	0.000000E+00
7.506140E+03	2.008903E-04	0.000000E+00
7.516042E+03	2.020038E-04	0.000000E+00
7.525945E+03	2.031057E-04	0.000000E+00
7.535847E+03	2.041998E-04	0.000000E+00
7.545750E+03	2.052797E-04	0.000000E+00
7.555652E+03	2.063494E-04	0.000000E+00
7.565555E+03	2.074077E-04	0.000000E+00
7.575457E+03	2.084478E-04	0.000000E+00
7.585360E+03	2.094741E-04	0.000000E+00
7.595263E+03	2.104798E-04	0.000000E+00
7.605165E+03	2.114688E-04	0.000000E+00
7.615068E+03	2.124404E-04	0.000000E+00
7.624970E+03	2.133872E-04	0.000000E+00
7.634873E+03	2.143140E-04	0.000000E+00
7.644775E+03	2.152193E-04	0.000000E+00
7.654678E+03	2.161019E-04	0.000000E+00
7.664581E+03	2.169605E-04	0.000000E+00
7.674483E+03	2.177938E-04	0.000000E+00
7.684386E+03	2.186005E-04	0.000000E+00
