#wls	flux	fluxerr
1.584409E+03	2.343576E-03	0.000000E+00
1.624020E+03	2.428832E-03	0.000000E+00
1.663630E+03	2.512897E-03	0.000000E+00
1.703240E+03	2.595052E-03	0.000000E+00
1.742850E+03	2.674753E-03	0.000000E+00
1.782461E+03	2.751116E-03	0.000000E+00
1.822071E+03	2.823438E-03	0.000000E+00
1.861681E+03	2.890939E-03	0.000000E+00
1.901291E+03	2.952518E-03	0.000000E+00
1.940902E+03	3.007273E-03	0.000000E+00
1.980512E+03	3.054266E-03	0.000000E+00
2.020122E+03	3.092525E-03	0.000000E+00
2.059732E+03	3.120852E-03	0.000000E+00
2.099342E+03	3.138320E-03	0.000000E+00
2.138953E+03	3.143639E-03	0.000000E+00
2.178563E+03	3.135678E-03	0.000000E+00
2.218173E+03	3.112737E-03	0.000000E+00
2.257783E+03	3.073536E-03	0.000000E+00
2.297394E+03	3.019171E-03	0.000000E+00
2.337004E+03	2.951398E-03	0.000000E+00
2.376614E+03	2.871503E-03	0.000000E+00
2.416224E+03	2.780413E-03	0.000000E+00
2.455835E+03	2.678948E-03	0.000000E+00
2.495445E+03	2.568126E-03	0.000000E+00
2.535055E+03	2.448799E-03	0.000000E+00
2.574665E+03	2.322156E-03	0.000000E+00
2.614276E+03	2.189273E-03	0.000000E+00
2.653886E+03	2.051217E-03	0.000000E+00
2.693496E+03	1.909385E-03	0.000000E+00
2.733106E+03	1.765090E-03	0.000000E+00
2.772716E+03	1.619747E-03	0.000000E+00
2.812327E+03	1.474813E-03	0.000000E+00
2.851937E+03	1.331853E-03	0.000000E+00
2.891547E+03	1.192664E-03	0.000000E+00
2.931157E+03	1.059182E-03	0.000000E+00
2.970768E+03	9.330677E-04	0.000000E+00
2.980670E+03	9.028421E-04	0.000000E+00
2.990573E+03	8.732084E-04	0.000000E+00
3.000475E+03	8.441326E-04	0.000000E+00
3.010378E+03	8.156448E-04	0.000000E+00
3.020280E+03	7.877884E-04	0.000000E+00
3.030183E+03	7.605333E-04	0.000000E+00
3.040086E+03	7.339198E-04	0.000000E+00
3.049988E+03	7.079513E-04	0.000000E+00
3.059891E+03	6.826317E-04	0.000000E+00
3.069793E+03	6.579642E-04	0.000000E+00
3.079696E+03	6.339778E-04	0.000000E+00
3.089598E+03	6.106591E-04	0.000000E+00
3.099501E+03	5.880202E-04	0.000000E+00
3.109403E+03	5.660585E-04	0.000000E+00
3.119306E+03	5.447719E-04	0.000000E+00
3.129209E+03	5.241663E-04	0.000000E+00
3.139111E+03	5.042455E-04	0.000000E+00
3.149014E+03	4.849834E-04	0.000000E+00
3.158916E+03	4.663996E-04	0.000000E+00
3.168819E+03	4.484747E-04	0.000000E+00
3.178721E+03	4.312060E-04	0.000000E+00
3.188624E+03	4.145812E-04	0.000000E+00
3.198526E+03	3.985805E-04	0.000000E+00
3.208429E+03	3.832105E-04	0.000000E+00
3.218332E+03	3.684370E-04	0.000000E+00
3.228234E+03	3.542635E-04	0.000000E+00
3.238137E+03	3.406732E-04	0.000000E+00
3.248039E+03	3.276389E-04	0.000000E+00
3.257942E+03	3.151594E-04	0.000000E+00
3.267844E+03	3.032076E-04	0.000000E+00
3.277747E+03	2.917713E-04	0.000000E+00
3.287650E+03	2.808333E-04	0.000000E+00
3.297552E+03	2.703800E-04	0.000000E+00
3.307455E+03	2.603904E-04	0.000000E+00
3.317357E+03	2.508477E-04	0.000000E+00
3.327260E+03	2.417351E-04	0.000000E+00
3.337162E+03	2.330395E-04	0.000000E+00
3.347065E+03	2.247415E-04	0.000000E+00
3.356967E+03	2.168256E-04	0.000000E+00
3.366870E+03	2.092766E-04	0.000000E+00
3.376773E+03	2.020771E-04	0.000000E+00
3.386675E+03	1.952127E-04	0.000000E+00
3.396578E+03	1.886703E-04	0.000000E+00
3.406480E+03	1.824342E-04	0.000000E+00
3.416383E+03	1.764919E-04	0.000000E+00
3.426285E+03	1.708293E-04	0.000000E+00
3.436188E+03	1.654330E-04	0.000000E+00
3.446090E+03	1.602905E-04	0.000000E+00
3.455993E+03	1.553880E-04	0.000000E+00
3.465896E+03	1.507161E-04	0.000000E+00
3.475798E+03	1.462625E-04	0.000000E+00
3.485701E+03	1.420142E-04	0.000000E+00
3.495603E+03	1.379577E-04	0.000000E+00
3.505506E+03	1.340849E-04	0.000000E+00
3.515408E+03	1.303841E-04	0.000000E+00
3.525311E+03	1.268418E-04	0.000000E+00
3.535213E+03	1.234497E-04	0.000000E+00
3.545116E+03	1.201988E-04	0.000000E+00
3.555019E+03	1.170795E-04	0.000000E+00
3.564921E+03	1.140821E-04	0.000000E+00
3.574824E+03	1.112016E-04	0.000000E+00
3.584726E+03	1.084316E-04	0.000000E+00
3.594629E+03	1.057655E-04	0.000000E+00
3.604531E+03	1.032024E-04	0.000000E+00
3.614434E+03	1.007378E-04	0.000000E+00
3.624337E+03	9.836842E-05	0.000000E+00
3.634239E+03	9.609188E-05	0.000000E+00
3.644142E+03	9.390559E-05	0.000000E+00
3.654044E+03	9.180610E-05	0.000000E+00
3.663947E+03	8.979231E-05	0.000000E+00
3.673849E+03	8.785992E-05	0.000000E+00
3.683752E+03	8.600694E-05	0.000000E+00
3.693654E+03	8.423208E-05	0.000000E+00
3.703557E+03	8.253042E-05	0.000000E+00
3.713460E+03	8.090197E-05	0.000000E+00
3.723362E+03	7.934199E-05	0.000000E+00
3.733265E+03	7.784977E-05	0.000000E+00
3.743167E+03	7.642265E-05	0.000000E+00
3.753070E+03	7.505800E-05	0.000000E+00
3.762972E+03	7.375391E-05	0.000000E+00
3.772875E+03	7.250791E-05	0.000000E+00
3.782777E+03	7.131816E-05	0.000000E+00
3.792680E+03	7.018289E-05	0.000000E+00
3.802583E+03	6.909980E-05	0.000000E+00
3.812485E+03	6.806726E-05	0.000000E+00
3.822388E+03	6.708365E-05	0.000000E+00
3.832290E+03	6.614690E-05	0.000000E+00
3.842193E+03	6.525555E-05	0.000000E+00
3.852095E+03	6.440814E-05	0.000000E+00
3.861998E+03	6.360282E-05	0.000000E+00
3.871900E+03	6.283825E-05	0.000000E+00
3.881803E+03	6.211275E-05	0.000000E+00
3.891706E+03	6.142552E-05	0.000000E+00
3.901608E+03	6.077495E-05	0.000000E+00
3.911511E+03	6.015990E-05	0.000000E+00
3.921413E+03	5.957840E-05	0.000000E+00
3.931316E+03	5.903034E-05	0.000000E+00
3.941218E+03	5.851381E-05	0.000000E+00
3.951121E+03	5.802787E-05	0.000000E+00
3.961024E+03	5.757119E-05	0.000000E+00
3.970926E+03	5.714332E-05	0.000000E+00
3.980829E+03	5.674258E-05	0.000000E+00
3.990731E+03	5.636863E-05	0.000000E+00
4.000634E+03	5.601981E-05	0.000000E+00
4.010536E+03	5.569587E-05	0.000000E+00
4.020439E+03	5.539526E-05	0.000000E+00
4.030341E+03	5.511734E-05	0.000000E+00
4.040244E+03	5.486152E-05	0.000000E+00
4.050147E+03	5.462718E-05	0.000000E+00
4.060049E+03	5.441296E-05	0.000000E+00
4.069952E+03	5.421834E-05	0.000000E+00
4.079854E+03	5.404245E-05	0.000000E+00
4.089757E+03	5.388479E-05	0.000000E+00
4.099659E+03	5.374496E-05	0.000000E+00
4.109562E+03	5.362174E-05	0.000000E+00
4.119464E+03	5.351518E-05	0.000000E+00
4.129367E+03	5.342411E-05	0.000000E+00
4.139270E+03	5.334821E-05	0.000000E+00
4.149172E+03	5.328722E-05	0.000000E+00
4.159075E+03	5.324004E-05	0.000000E+00
4.168977E+03	5.320643E-05	0.000000E+00
4.178880E+03	5.318576E-05	0.000000E+00
4.188782E+03	5.317828E-05	0.000000E+00
4.198685E+03	5.318254E-05	0.000000E+00
4.208587E+03	5.319884E-05	0.000000E+00
4.218490E+03	5.322622E-05	0.000000E+00
4.228393E+03	5.326496E-05	0.000000E+00
4.238295E+03	5.331373E-05	0.000000E+00
4.248198E+03	5.337246E-05	0.000000E+00
4.258100E+03	5.344106E-05	0.000000E+00
4.268003E+03	5.351823E-05	0.000000E+00
4.277905E+03	5.360438E-05	0.000000E+00
4.287808E+03	5.369774E-05	0.000000E+00
4.297711E+03	5.379873E-05	0.000000E+00
4.307613E+03	5.390521E-05	0.000000E+00
4.317516E+03	5.401712E-05	0.000000E+00
4.327418E+03	5.413574E-05	0.000000E+00
4.337321E+03	5.426109E-05	0.000000E+00
4.347223E+03	5.439359E-05	0.000000E+00
4.357126E+03	5.453332E-05	0.000000E+00
4.367028E+03	5.467945E-05	0.000000E+00
4.376931E+03	5.483292E-05	0.000000E+00
4.386834E+03	5.499296E-05	0.000000E+00
4.396736E+03	5.515968E-05	0.000000E+00
4.406639E+03	5.533275E-05	0.000000E+00
4.416541E+03	5.551233E-05	0.000000E+00
4.426444E+03	5.569768E-05	0.000000E+00
4.436346E+03	5.588943E-05	0.000000E+00
4.446249E+03	5.608689E-05	0.000000E+00
4.456151E+03	5.628984E-05	0.000000E+00
4.466054E+03	5.649897E-05	0.000000E+00
4.475957E+03	5.671321E-05	0.000000E+00
4.485859E+03	5.693284E-05	0.000000E+00
4.495762E+03	5.715822E-05	0.000000E+00
4.505664E+03	5.738874E-05	0.000000E+00
4.515567E+03	5.762477E-05	0.000000E+00
4.525469E+03	5.786583E-05	0.000000E+00
4.535372E+03	5.811227E-05	0.000000E+00
4.545274E+03	5.836413E-05	0.000000E+00
4.555177E+03	5.862138E-05	0.000000E+00
4.565080E+03	5.888352E-05	0.000000E+00
4.574982E+03	5.915155E-05	0.000000E+00
4.584885E+03	5.942452E-05	0.000000E+00
4.594787E+03	5.970294E-05	0.000000E+00
4.604690E+03	5.998690E-05	0.000000E+00
4.614592E+03	6.027590E-05	0.000000E+00
4.624495E+03	6.057103E-05	0.000000E+00
4.634398E+03	6.087134E-05	0.000000E+00
4.644300E+03	6.117742E-05	0.000000E+00
4.654203E+03	6.149038E-05	0.000000E+00
4.664105E+03	6.180981E-05	0.000000E+00
4.674008E+03	6.213636E-05	0.000000E+00
4.683910E+03	6.247067E-05	0.000000E+00
4.693813E+03	6.281287E-05	0.000000E+00
4.703715E+03	6.316311E-05	0.000000E+00
4.713618E+03	6.352267E-05	0.000000E+00
4.723521E+03	6.389054E-05	0.000000E+00
4.733423E+03	6.426805E-05	0.000000E+00
4.743326E+03	6.465540E-05	0.000000E+00
4.753228E+03	6.505218E-05	0.000000E+00
4.763131E+03	6.545974E-05	0.000000E+00
4.773033E+03	6.587772E-05	0.000000E+00
4.782936E+03	6.630635E-05	0.000000E+00
4.792838E+03	6.674584E-05	0.000000E+00
4.802741E+03	6.719644E-05	0.000000E+00
4.812644E+03	6.765959E-05	0.000000E+00
4.822546E+03	6.813373E-05	0.000000E+00
4.832449E+03	6.862035E-05	0.000000E+00
4.842351E+03	6.911908E-05	0.000000E+00
4.852254E+03	6.963084E-05	0.000000E+00
4.862156E+03	7.015525E-05	0.000000E+00
4.872059E+03	7.069260E-05	0.000000E+00
4.881961E+03	7.124381E-05	0.000000E+00
4.891864E+03	7.180782E-05	0.000000E+00
4.901767E+03	7.238557E-05	0.000000E+00
4.911669E+03	7.297732E-05	0.000000E+00
4.921572E+03	7.358334E-05	0.000000E+00
4.931474E+03	7.420317E-05	0.000000E+00
4.941377E+03	7.483707E-05	0.000000E+00
4.951279E+03	7.548594E-05	0.000000E+00
4.961182E+03	7.614861E-05	0.000000E+00
4.971085E+03	7.682669E-05	0.000000E+00
4.980987E+03	7.751892E-05	0.000000E+00
4.990890E+03	7.822548E-05	0.000000E+00
5.000792E+03	7.894730E-05	0.000000E+00
5.010695E+03	7.968373E-05	0.000000E+00
5.020597E+03	8.043496E-05	0.000000E+00
5.030500E+03	8.120032E-05	0.000000E+00
5.040402E+03	8.198066E-05	0.000000E+00
5.050305E+03	8.277612E-05	0.000000E+00
5.060208E+03	8.358518E-05	0.000000E+00
5.070110E+03	8.440870E-05	0.000000E+00
5.080013E+03	8.524675E-05	0.000000E+00
5.089915E+03	8.609939E-05	0.000000E+00
5.099818E+03	8.696579E-05	0.000000E+00
5.109720E+03	8.784603E-05	0.000000E+00
5.119623E+03	8.873925E-05	0.000000E+00
5.129525E+03	8.964716E-05	0.000000E+00
5.139428E+03	9.056805E-05	0.000000E+00
5.149331E+03	9.150189E-05	0.000000E+00
5.159233E+03	9.244865E-05	0.000000E+00
5.169136E+03	9.340918E-05	0.000000E+00
5.179038E+03	9.438163E-05	0.000000E+00
5.188941E+03	9.536590E-05	0.000000E+00
5.198843E+03	9.636371E-05	0.000000E+00
5.208746E+03	9.737218E-05	0.000000E+00
5.218648E+03	9.839298E-05	0.000000E+00
5.228551E+03	9.942501E-05	0.000000E+00
5.238454E+03	1.004680E-04	0.000000E+00
5.248356E+03	1.015227E-04	0.000000E+00
5.258259E+03	1.025869E-04	0.000000E+00
5.268161E+03	1.036611E-04	0.000000E+00
5.278064E+03	1.047450E-04	0.000000E+00
5.287966E+03	1.058382E-04	0.000000E+00
5.297869E+03	1.069411E-04	0.000000E+00
5.307772E+03	1.080511E-04	0.000000E+00
5.317674E+03	1.091687E-04	0.000000E+00
5.327577E+03	1.102932E-04	0.000000E+00
5.337479E+03	1.114227E-04	0.000000E+00
5.347382E+03	1.125586E-04	0.000000E+00
5.357284E+03	1.136989E-04	0.000000E+00
5.367187E+03	1.148414E-04	0.000000E+00
5.377089E+03	1.159852E-04	0.000000E+00
5.386992E+03	1.171301E-04	0.000000E+00
5.396895E+03	1.182727E-04	0.000000E+00
5.406797E+03	1.194127E-04	0.000000E+00
5.416700E+03	1.205488E-04	0.000000E+00
5.426602E+03	1.216770E-04	0.000000E+00
5.436505E+03	1.227957E-04	0.000000E+00
5.446407E+03	1.239044E-04	0.000000E+00
5.456310E+03	1.250001E-04	0.000000E+00
5.466212E+03	1.260796E-04	0.000000E+00
5.476115E+03	1.271397E-04	0.000000E+00
5.486018E+03	1.281809E-04	0.000000E+00
5.495920E+03	1.291971E-04	0.000000E+00
5.505823E+03	1.301875E-04	0.000000E+00
5.515725E+03	1.311485E-04	0.000000E+00
5.525628E+03	1.320777E-04	0.000000E+00
5.535530E+03	1.329730E-04	0.000000E+00
5.545433E+03	1.338305E-04	0.000000E+00
5.555335E+03	1.346494E-04	0.000000E+00
5.565238E+03	1.354259E-04	0.000000E+00
5.575141E+03	1.361564E-04	0.000000E+00
5.585043E+03	1.368415E-04	0.000000E+00
5.594946E+03	1.374777E-04	0.000000E+00
5.604848E+03	1.380616E-04	0.000000E+00
5.614751E+03	1.385926E-04	0.000000E+00
5.624653E+03	1.390705E-04	0.000000E+00
5.634556E+03	1.394909E-04	0.000000E+00
5.644459E+03	1.398537E-04	0.000000E+00
5.654361E+03	1.401591E-04	0.000000E+00
5.664264E+03	1.404046E-04	0.000000E+00
5.674166E+03	1.405909E-04	0.000000E+00
5.684069E+03	1.407157E-04	0.000000E+00
5.693971E+03	1.407801E-04	0.000000E+00
5.703874E+03	1.407838E-04	0.000000E+00
5.713776E+03	1.407281E-04	0.000000E+00
5.723679E+03	1.406103E-04	0.000000E+00
5.733582E+03	1.404352E-04	0.000000E+00
5.743484E+03	1.402002E-04	0.000000E+00
5.753387E+03	1.399076E-04	0.000000E+00
5.763289E+03	1.395582E-04	0.000000E+00
5.773192E+03	1.391533E-04	0.000000E+00
5.783094E+03	1.386955E-04	0.000000E+00
5.792997E+03	1.381863E-04	0.000000E+00
5.802899E+03	1.376273E-04	0.000000E+00
5.812802E+03	1.370188E-04	0.000000E+00
5.822705E+03	1.363656E-04	0.000000E+00
5.832607E+03	1.356684E-04	0.000000E+00
5.842510E+03	1.349307E-04	0.000000E+00
5.852412E+03	1.341533E-04	0.000000E+00
5.862315E+03	1.333399E-04	0.000000E+00
5.872217E+03	1.324929E-04	0.000000E+00
5.882120E+03	1.316148E-04	0.000000E+00
5.892022E+03	1.307078E-04	0.000000E+00
5.901925E+03	1.297744E-04	0.000000E+00
5.911828E+03	1.288185E-04	0.000000E+00
5.921730E+03	1.278395E-04	0.000000E+00
5.931633E+03	1.268425E-04	0.000000E+00
5.941535E+03	1.258284E-04	0.000000E+00
5.951438E+03	1.247994E-04	0.000000E+00
5.961340E+03	1.237591E-04	0.000000E+00
5.971243E+03	1.227066E-04	0.000000E+00
5.981146E+03	1.216468E-04	0.000000E+00
5.991048E+03	1.205786E-04	0.000000E+00
6.000951E+03	1.195054E-04	0.000000E+00
6.010853E+03	1.184289E-04	0.000000E+00
6.020756E+03	1.173492E-04	0.000000E+00
6.030658E+03	1.162679E-04	0.000000E+00
6.040561E+03	1.151866E-04	0.000000E+00
6.050463E+03	1.141066E-04	0.000000E+00
6.060366E+03	1.130292E-04	0.000000E+00
6.070269E+03	1.119556E-04	0.000000E+00
6.080171E+03	1.108871E-04	0.000000E+00
6.090074E+03	1.098245E-04	0.000000E+00
6.099976E+03	1.087704E-04	0.000000E+00
6.109879E+03	1.077269E-04	0.000000E+00
6.119781E+03	1.066964E-04	0.000000E+00
6.129684E+03	1.056794E-04	0.000000E+00
6.139586E+03	1.046767E-04	0.000000E+00
6.149489E+03	1.036875E-04	0.000000E+00
6.159392E+03	1.027123E-04	0.000000E+00
6.169294E+03	1.017516E-04	0.000000E+00
6.179197E+03	1.008045E-04	0.000000E+00
6.189099E+03	9.987287E-05	0.000000E+00
6.199002E+03	9.895957E-05	0.000000E+00
6.208904E+03	9.806360E-05	0.000000E+00
6.218807E+03	9.718652E-05	0.000000E+00
6.228709E+03	9.633118E-05	0.000000E+00
6.238612E+03	9.549640E-05	0.000000E+00
6.248515E+03	9.468627E-05	0.000000E+00
6.258417E+03	9.390218E-05	0.000000E+00
6.268320E+03	9.314284E-05	0.000000E+00
6.278222E+03	9.241222E-05	0.000000E+00
6.288125E+03	9.171162E-05	0.000000E+00
6.298027E+03	9.104101E-05	0.000000E+00
6.307930E+03	9.040168E-05	0.000000E+00
6.317833E+03	8.979749E-05	0.000000E+00
6.327735E+03	8.922711E-05	0.000000E+00
6.337638E+03	8.869177E-05	0.000000E+00
6.347540E+03	8.819405E-05	0.000000E+00
6.357443E+03	8.773000E-05	0.000000E+00
6.367345E+03	8.729696E-05	0.000000E+00
6.377248E+03	8.689360E-05	0.000000E+00
6.387150E+03	8.651859E-05	0.000000E+00
6.397053E+03	8.616930E-05	0.000000E+00
6.406956E+03	8.584570E-05	0.000000E+00
6.416858E+03	8.554645E-05	0.000000E+00
6.426761E+03	8.527156E-05	0.000000E+00
6.436663E+03	8.501967E-05	0.000000E+00
6.446566E+03	8.479074E-05	0.000000E+00
6.456468E+03	8.458481E-05	0.000000E+00
6.466371E+03	8.440045E-05	0.000000E+00
6.476273E+03	8.423904E-05	0.000000E+00
6.486176E+03	8.410050E-05	0.000000E+00
6.496079E+03	8.398351E-05	0.000000E+00
6.505981E+03	8.388938E-05	0.000000E+00
6.515884E+03	8.381675E-05	0.000000E+00
6.525786E+03	8.376560E-05	0.000000E+00
6.535689E+03	8.373726E-05	0.000000E+00
6.545591E+03	8.372899E-05	0.000000E+00
6.555494E+03	8.374486E-05	0.000000E+00
6.565396E+03	8.378078E-05	0.000000E+00
6.575299E+03	8.383947E-05	0.000000E+00
6.585202E+03	8.391953E-05	0.000000E+00
6.595104E+03	8.402097E-05	0.000000E+00
6.605007E+03	8.414516E-05	0.000000E+00
6.614909E+03	8.429070E-05	0.000000E+00
6.624812E+03	8.445758E-05	0.000000E+00
6.634714E+03	8.464582E-05	0.000000E+00
6.644617E+03	8.485681E-05	0.000000E+00
6.654520E+03	8.508769E-05	0.000000E+00
6.664422E+03	8.534133E-05	0.000000E+00
6.674325E+03	8.561632E-05	0.000000E+00
6.684227E+03	8.591262E-05	0.000000E+00
6.694130E+03	8.623023E-05	0.000000E+00
6.704032E+03	8.656917E-05	0.000000E+00
6.713935E+03	8.693096E-05	0.000000E+00
6.723837E+03	8.731252E-05	0.000000E+00
6.733740E+03	8.771538E-05	0.000000E+00
6.743643E+03	8.813957E-05	0.000000E+00
6.753545E+03	8.858505E-05	0.000000E+00
6.763448E+03	8.905182E-05	0.000000E+00
6.773350E+03	8.953987E-05	0.000000E+00
6.783253E+03	9.004922E-05	0.000000E+00
6.793155E+03	9.057819E-05	0.000000E+00
6.803058E+03	9.112839E-05	0.000000E+00
6.812960E+03	9.169984E-05	0.000000E+00
6.822863E+03	9.229078E-05	0.000000E+00
6.832766E+03	9.290290E-05	0.000000E+00
6.842668E+03	9.353619E-05	0.000000E+00
6.852571E+03	9.418886E-05	0.000000E+00
6.862473E+03	9.486084E-05	0.000000E+00
6.872376E+03	9.555387E-05	0.000000E+00
6.882278E+03	9.626612E-05	0.000000E+00
6.892181E+03	9.699754E-05	0.000000E+00
6.902083E+03	9.774988E-05	0.000000E+00
6.911986E+03	9.852129E-05	0.000000E+00
6.921889E+03	9.931169E-05	0.000000E+00
6.931791E+03	1.001191E-04	0.000000E+00
6.941694E+03	1.009472E-04	0.000000E+00
6.951596E+03	1.017942E-04	0.000000E+00
6.961499E+03	1.026600E-04	0.000000E+00
6.971401E+03	1.035424E-04	0.000000E+00
6.981304E+03	1.044435E-04	0.000000E+00
6.991207E+03	1.053610E-04	0.000000E+00
7.001109E+03	1.062991E-04	0.000000E+00
7.011012E+03	1.072515E-04	0.000000E+00
7.020914E+03	1.082222E-04	0.000000E+00
7.030817E+03	1.092091E-04	0.000000E+00
7.040719E+03	1.102142E-04	0.000000E+00
7.050622E+03	1.112331E-04	0.000000E+00
7.060524E+03	1.122700E-04	0.000000E+00
7.070427E+03	1.133205E-04	0.000000E+00
7.080330E+03	1.143865E-04	0.000000E+00
7.090232E+03	1.154681E-04	0.000000E+00
7.100135E+03	1.165651E-04	0.000000E+00
7.110037E+03	1.176750E-04	0.000000E+00
7.119940E+03	1.187975E-04	0.000000E+00
7.129842E+03	1.199349E-04	0.000000E+00
7.139745E+03	1.210847E-04	0.000000E+00
7.149647E+03	1.222492E-04	0.000000E+00
7.159550E+03	1.234229E-04	0.000000E+00
7.169453E+03	1.246109E-04	0.000000E+00
7.179355E+03	1.258104E-04	0.000000E+00
7.189258E+03	1.270211E-04	0.000000E+00
7.199160E+03	1.282426E-04	0.000000E+00
7.209063E+03	1.294748E-04	0.000000E+00
7.218965E+03	1.307174E-04	0.000000E+00
7.228868E+03	1.319729E-04	0.000000E+00
7.238770E+03	1.332352E-04	0.000000E+00
7.248673E+03	1.345129E-04	0.000000E+00
7.258576E+03	1.358028E-04	0.000000E+00
7.268478E+03	1.371015E-04	0.000000E+00
7.278381E+03	1.384180E-04	0.000000E+00
7.288283E+03	1.397460E-04	0.000000E+00
7.298186E+03	1.410948E-04	0.000000E+00
7.308088E+03	1.424613E-04	0.000000E+00
7.317991E+03	1.438486E-04	0.000000E+00
7.327894E+03	1.452603E-04	0.000000E+00
7.337796E+03	1.466965E-04	0.000000E+00
7.347699E+03	1.481643E-04	0.000000E+00
7.357601E+03	1.496678E-04	0.000000E+00
7.367504E+03	1.512042E-04	0.000000E+00
7.377406E+03	1.527737E-04	0.000000E+00
7.387309E+03	1.543771E-04	0.000000E+00
7.397211E+03	1.560110E-04	0.000000E+00
7.407114E+03	1.576720E-04	0.000000E+00
7.417017E+03	1.593566E-04	0.000000E+00
7.426919E+03	1.610645E-04	0.000000E+00
7.436822E+03	1.627921E-04	0.000000E+00
7.446724E+03	1.645349E-04	0.000000E+00
7.456627E+03	1.662968E-04	0.000000E+00
7.466529E+03	1.680691E-04	0.000000E+00
7.476432E+03	1.698514E-04	0.000000E+00
7.486334E+03	1.716429E-04	0.000000E+00
7.496237E+03	1.734429E-04	0.000000E+00
7.506140E+03	1.752509E-04	0.000000E+00
7.516042E+03	1.770614E-04	0.000000E+00
7.525945E+03	1.788736E-04	0.000000E+00
7.535847E+03	1.806911E-04	0.000000E+00
7.545750E+03	1.825082E-04	0.000000E+00
7.555652E+03	1.843283E-04	0.000000E+00
7.565555E+03	1.861411E-04	0.000000E+00
7.575457E+03	1.879547E-04	0.000000E+00
7.585360E+03	1.897631E-04	0.000000E+00
7.595263E+03	1.915647E-04	0.000000E+00
7.605165E+03	1.933582E-04	0.000000E+00
7.615068E+03	1.951471E-04	0.000000E+00
7.624970E+03	1.969248E-04	0.000000E+00
7.634873E+03	1.986896E-04	0.000000E+00
7.644775E+03	2.004450E-04	0.000000E+00
7.654678E+03	2.021892E-04	0.000000E+00
7.664581E+03	2.039155E-04	0.000000E+00
7.674483E+03	2.056272E-04	0.000000E+00
7.684386E+03	2.073228E-04	0.000000E+00
