#wls	flux	fluxerr
1.584409E+03	1.835308E-03	0.000000E+00
1.624020E+03	1.900969E-03	0.000000E+00
1.663630E+03	1.965833E-03	0.000000E+00
1.703240E+03	2.029629E-03	0.000000E+00
1.742850E+03	2.091611E-03	0.000000E+00
1.782461E+03	2.151810E-03	0.000000E+00
1.822071E+03	2.209153E-03	0.000000E+00
1.861681E+03	2.263344E-03	0.000000E+00
1.901291E+03	2.313622E-03	0.000000E+00
1.940902E+03	2.359382E-03	0.000000E+00
1.980512E+03	2.399775E-03	0.000000E+00
2.020122E+03	2.434137E-03	0.000000E+00
2.059732E+03	2.461591E-03	0.000000E+00
2.099342E+03	2.481469E-03	0.000000E+00
2.138953E+03	2.492767E-03	0.000000E+00
2.178563E+03	2.494915E-03	0.000000E+00
2.218173E+03	2.487250E-03	0.000000E+00
2.257783E+03	2.469692E-03	0.000000E+00
2.297394E+03	2.442355E-03	0.000000E+00
2.337004E+03	2.405249E-03	0.000000E+00
2.376614E+03	2.358844E-03	0.000000E+00
2.416224E+03	2.303480E-03	0.000000E+00
2.455835E+03	2.239539E-03	0.000000E+00
2.495445E+03	2.167464E-03	0.000000E+00
2.535055E+03	2.087672E-03	0.000000E+00
2.574665E+03	2.000884E-03	0.000000E+00
2.614276E+03	1.907729E-03	0.000000E+00
2.653886E+03	1.808914E-03	0.000000E+00
2.693496E+03	1.705381E-03	0.000000E+00
2.733106E+03	1.598031E-03	0.000000E+00
2.772716E+03	1.487913E-03	0.000000E+00
2.812327E+03	1.376162E-03	0.000000E+00
2.851937E+03	1.264042E-03	0.000000E+00
2.891547E+03	1.153216E-03	0.000000E+00
2.931157E+03	1.045437E-03	0.000000E+00
2.970768E+03	9.423490E-04	0.000000E+00
2.980670E+03	9.174620E-04	0.000000E+00
2.990573E+03	8.929880E-04	0.000000E+00
3.000475E+03	8.688904E-04	0.000000E+00
3.010378E+03	8.452371E-04	0.000000E+00
3.020280E+03	8.220111E-04	0.000000E+00
3.030183E+03	7.992167E-04	0.000000E+00
3.040086E+03	7.768745E-04	0.000000E+00
3.049988E+03	7.550031E-04	0.000000E+00
3.059891E+03	7.335861E-04	0.000000E+00
3.069793E+03	7.126549E-04	0.000000E+00
3.079696E+03	6.921924E-04	0.000000E+00
3.089598E+03	6.722119E-04	0.000000E+00
3.099501E+03	6.527238E-04	0.000000E+00
3.109403E+03	6.337234E-04	0.000000E+00
3.119306E+03	6.151946E-04	0.000000E+00
3.129209E+03	5.971687E-04	0.000000E+00
3.139111E+03	5.796159E-04	0.000000E+00
3.149014E+03	5.625529E-04	0.000000E+00
3.158916E+03	5.459719E-04	0.000000E+00
3.168819E+03	5.298656E-04	0.000000E+00
3.178721E+03	5.142262E-04	0.000000E+00
3.188624E+03	4.990636E-04	0.000000E+00
3.198526E+03	4.843599E-04	0.000000E+00
3.208429E+03	4.701063E-04	0.000000E+00
3.218332E+03	4.563016E-04	0.000000E+00
3.228234E+03	4.429439E-04	0.000000E+00
3.238137E+03	4.300153E-04	0.000000E+00
3.248039E+03	4.175134E-04	0.000000E+00
3.257942E+03	4.054276E-04	0.000000E+00
3.267844E+03	3.937541E-04	0.000000E+00
3.277747E+03	3.824764E-04	0.000000E+00
3.287650E+03	3.715845E-04	0.000000E+00
3.297552E+03	3.610792E-04	0.000000E+00
3.307455E+03	3.509395E-04	0.000000E+00
3.317357E+03	3.411607E-04	0.000000E+00
3.327260E+03	3.317378E-04	0.000000E+00
3.337162E+03	3.226511E-04	0.000000E+00
3.347065E+03	3.139003E-04	0.000000E+00
3.356967E+03	3.054673E-04	0.000000E+00
3.366870E+03	2.973432E-04	0.000000E+00
3.376773E+03	2.895232E-04	0.000000E+00
3.386675E+03	2.819949E-04	0.000000E+00
3.396578E+03	2.747496E-04	0.000000E+00
3.406480E+03	2.677729E-04	0.000000E+00
3.416383E+03	2.610607E-04	0.000000E+00
3.426285E+03	2.546019E-04	0.000000E+00
3.436188E+03	2.483842E-04	0.000000E+00
3.446090E+03	2.424012E-04	0.000000E+00
3.455993E+03	2.366409E-04	0.000000E+00
3.465896E+03	2.310955E-04	0.000000E+00
3.475798E+03	2.257572E-04	0.000000E+00
3.485701E+03	2.206137E-04	0.000000E+00
3.495603E+03	2.156540E-04	0.000000E+00
3.505506E+03	2.108658E-04	0.000000E+00
3.515408E+03	2.062356E-04	0.000000E+00
3.525311E+03	2.017518E-04	0.000000E+00
3.535213E+03	1.974033E-04	0.000000E+00
3.545116E+03	1.931787E-04	0.000000E+00
3.555019E+03	1.890674E-04	0.000000E+00
3.564921E+03	1.850633E-04	0.000000E+00
3.574824E+03	1.811559E-04	0.000000E+00
3.584726E+03	1.773406E-04	0.000000E+00
3.594629E+03	1.736194E-04	0.000000E+00
3.604531E+03	1.699902E-04	0.000000E+00
3.614434E+03	1.664546E-04	0.000000E+00
3.624337E+03	1.630130E-04	0.000000E+00
3.634239E+03	1.596669E-04	0.000000E+00
3.644142E+03	1.564161E-04	0.000000E+00
3.654044E+03	1.532586E-04	0.000000E+00
3.663947E+03	1.501975E-04	0.000000E+00
3.673849E+03	1.472288E-04	0.000000E+00
3.683752E+03	1.443536E-04	0.000000E+00
3.693654E+03	1.415703E-04	0.000000E+00
3.703557E+03	1.388779E-04	0.000000E+00
3.713460E+03	1.362745E-04	0.000000E+00
3.723362E+03	1.337580E-04	0.000000E+00
3.733265E+03	1.313282E-04	0.000000E+00
3.743167E+03	1.289828E-04	0.000000E+00
3.753070E+03	1.267202E-04	0.000000E+00
3.762972E+03	1.245371E-04	0.000000E+00
3.772875E+03	1.224340E-04	0.000000E+00
3.782777E+03	1.204072E-04	0.000000E+00
3.792680E+03	1.184561E-04	0.000000E+00
3.802583E+03	1.165773E-04	0.000000E+00
3.812485E+03	1.147709E-04	0.000000E+00
3.822388E+03	1.130326E-04	0.000000E+00
3.832290E+03	1.113625E-04	0.000000E+00
3.842193E+03	1.097582E-04	0.000000E+00
3.852095E+03	1.082172E-04	0.000000E+00
3.861998E+03	1.067380E-04	0.000000E+00
3.871900E+03	1.053189E-04	0.000000E+00
3.881803E+03	1.039586E-04	0.000000E+00
3.891706E+03	1.026546E-04	0.000000E+00
3.901608E+03	1.014049E-04	0.000000E+00
3.911511E+03	1.002088E-04	0.000000E+00
3.921413E+03	9.906497E-05	0.000000E+00
3.931316E+03	9.796981E-05	0.000000E+00
3.941218E+03	9.692361E-05	0.000000E+00
3.951121E+03	9.592439E-05	0.000000E+00
3.961024E+03	9.497100E-05	0.000000E+00
3.970926E+03	9.406085E-05	0.000000E+00
3.980829E+03	9.319292E-05	0.000000E+00
3.990731E+03	9.236688E-05	0.000000E+00
4.000634E+03	9.158033E-05	0.000000E+00
4.010536E+03	9.083236E-05	0.000000E+00
4.020439E+03	9.012139E-05	0.000000E+00
4.030341E+03	8.944657E-05	0.000000E+00
4.040244E+03	8.880643E-05	0.000000E+00
4.050147E+03	8.820022E-05	0.000000E+00
4.060049E+03	8.762654E-05	0.000000E+00
4.069952E+03	8.708404E-05	0.000000E+00
4.079854E+03	8.657210E-05	0.000000E+00
4.089757E+03	8.609010E-05	0.000000E+00
4.099659E+03	8.563619E-05	0.000000E+00
4.109562E+03	8.521045E-05	0.000000E+00
4.119464E+03	8.481113E-05	0.000000E+00
4.129367E+03	8.443774E-05	0.000000E+00
4.139270E+03	8.408986E-05	0.000000E+00
4.149172E+03	8.376647E-05	0.000000E+00
4.159075E+03	8.346653E-05	0.000000E+00
4.168977E+03	8.318972E-05	0.000000E+00
4.178880E+03	8.293510E-05	0.000000E+00
4.188782E+03	8.270238E-05	0.000000E+00
4.198685E+03	8.249132E-05	0.000000E+00
4.208587E+03	8.230107E-05	0.000000E+00
4.218490E+03	8.213017E-05	0.000000E+00
4.228393E+03	8.197970E-05	0.000000E+00
4.238295E+03	8.184826E-05	0.000000E+00
4.248198E+03	8.173577E-05	0.000000E+00
4.258100E+03	8.164084E-05	0.000000E+00
4.268003E+03	8.156403E-05	0.000000E+00
4.277905E+03	8.150471E-05	0.000000E+00
4.287808E+03	8.146222E-05	0.000000E+00
4.297711E+03	8.143655E-05	0.000000E+00
4.307613E+03	8.142711E-05	0.000000E+00
4.317516E+03	8.143526E-05	0.000000E+00
4.327418E+03	8.145979E-05	0.000000E+00
4.337321E+03	8.150084E-05	0.000000E+00
4.347223E+03	8.155857E-05	0.000000E+00
4.357126E+03	8.163180E-05	0.000000E+00
4.367028E+03	8.172078E-05	0.000000E+00
4.376931E+03	8.182504E-05	0.000000E+00
4.386834E+03	8.194354E-05	0.000000E+00
4.396736E+03	8.207716E-05	0.000000E+00
4.406639E+03	8.222490E-05	0.000000E+00
4.416541E+03	8.238640E-05	0.000000E+00
4.426444E+03	8.256064E-05	0.000000E+00
4.436346E+03	8.274862E-05	0.000000E+00
4.446249E+03	8.295006E-05	0.000000E+00
4.456151E+03	8.316331E-05	0.000000E+00
4.466054E+03	8.338946E-05	0.000000E+00
4.475957E+03	8.362756E-05	0.000000E+00
4.485859E+03	8.387738E-05	0.000000E+00
4.495762E+03	8.413939E-05	0.000000E+00
4.505664E+03	8.441336E-05	0.000000E+00
4.515567E+03	8.469841E-05	0.000000E+00
4.525469E+03	8.499435E-05	0.000000E+00
4.535372E+03	8.530172E-05	0.000000E+00
4.545274E+03	8.562038E-05	0.000000E+00
4.555177E+03	8.594873E-05	0.000000E+00
4.565080E+03	8.628809E-05	0.000000E+00
4.574982E+03	8.663833E-05	0.000000E+00
4.584885E+03	8.699787E-05	0.000000E+00
4.594787E+03	8.736736E-05	0.000000E+00
4.604690E+03	8.774667E-05	0.000000E+00
4.614592E+03	8.813497E-05	0.000000E+00
4.624495E+03	8.853368E-05	0.000000E+00
4.634398E+03	8.894200E-05	0.000000E+00
4.644300E+03	8.936062E-05	0.000000E+00
4.654203E+03	8.978949E-05	0.000000E+00
4.664105E+03	9.022938E-05	0.000000E+00
4.674008E+03	9.067950E-05	0.000000E+00
4.683910E+03	9.114143E-05	0.000000E+00
4.693813E+03	9.161436E-05	0.000000E+00
4.703715E+03	9.210075E-05	0.000000E+00
4.713618E+03	9.259906E-05	0.000000E+00
4.723521E+03	9.311017E-05	0.000000E+00
4.733423E+03	9.363578E-05	0.000000E+00
4.743326E+03	9.417521E-05	0.000000E+00
4.753228E+03	9.473023E-05	0.000000E+00
4.763131E+03	9.529931E-05	0.000000E+00
4.773033E+03	9.588429E-05	0.000000E+00
4.782936E+03	9.648533E-05	0.000000E+00
4.792838E+03	9.710175E-05	0.000000E+00
4.802741E+03	9.773457E-05	0.000000E+00
4.812644E+03	9.838486E-05	0.000000E+00
4.822546E+03	9.905108E-05	0.000000E+00
4.832449E+03	9.973425E-05	0.000000E+00
4.842351E+03	1.004355E-04	0.000000E+00
4.852254E+03	1.011533E-04	0.000000E+00
4.862156E+03	1.018886E-04	0.000000E+00
4.872059E+03	1.026417E-04	0.000000E+00
4.881961E+03	1.034128E-04	0.000000E+00
4.891864E+03	1.042021E-04	0.000000E+00
4.901767E+03	1.050089E-04	0.000000E+00
4.911669E+03	1.058342E-04	0.000000E+00
4.921572E+03	1.066774E-04	0.000000E+00
4.931474E+03	1.075385E-04	0.000000E+00
4.941377E+03	1.084178E-04	0.000000E+00
4.951279E+03	1.093154E-04	0.000000E+00
4.961182E+03	1.102314E-04	0.000000E+00
4.971085E+03	1.111662E-04	0.000000E+00
4.980987E+03	1.121186E-04	0.000000E+00
4.990890E+03	1.130889E-04	0.000000E+00
5.000792E+03	1.140772E-04	0.000000E+00
5.010695E+03	1.150835E-04	0.000000E+00
5.020597E+03	1.161079E-04	0.000000E+00
5.030500E+03	1.171505E-04	0.000000E+00
5.040402E+03	1.182092E-04	0.000000E+00
5.050305E+03	1.192861E-04	0.000000E+00
5.060208E+03	1.203814E-04	0.000000E+00
5.070110E+03	1.214927E-04	0.000000E+00
5.080013E+03	1.226199E-04	0.000000E+00
5.089915E+03	1.237642E-04	0.000000E+00
5.099818E+03	1.249255E-04	0.000000E+00
5.109720E+03	1.261013E-04	0.000000E+00
5.119623E+03	1.272927E-04	0.000000E+00
5.129525E+03	1.285006E-04	0.000000E+00
5.139428E+03	1.297226E-04	0.000000E+00
5.149331E+03	1.309582E-04	0.000000E+00
5.159233E+03	1.322073E-04	0.000000E+00
5.169136E+03	1.334709E-04	0.000000E+00
5.179038E+03	1.347473E-04	0.000000E+00
5.188941E+03	1.360362E-04	0.000000E+00
5.198843E+03	1.373358E-04	0.000000E+00
5.208746E+03	1.386471E-04	0.000000E+00
5.218648E+03	1.399696E-04	0.000000E+00
5.228551E+03	1.413014E-04	0.000000E+00
5.238454E+03	1.426433E-04	0.000000E+00
5.248356E+03	1.439933E-04	0.000000E+00
5.258259E+03	1.453508E-04	0.000000E+00
5.268161E+03	1.467166E-04	0.000000E+00
5.278064E+03	1.480884E-04	0.000000E+00
5.287966E+03	1.494656E-04	0.000000E+00
5.297869E+03	1.508472E-04	0.000000E+00
5.307772E+03	1.522325E-04	0.000000E+00
5.317674E+03	1.536204E-04	0.000000E+00
5.327577E+03	1.550100E-04	0.000000E+00
5.337479E+03	1.564004E-04	0.000000E+00
5.347382E+03	1.577889E-04	0.000000E+00
5.357284E+03	1.591743E-04	0.000000E+00
5.367187E+03	1.605571E-04	0.000000E+00
5.377089E+03	1.619344E-04	0.000000E+00
5.386992E+03	1.633050E-04	0.000000E+00
5.396895E+03	1.646660E-04	0.000000E+00
5.406797E+03	1.660175E-04	0.000000E+00
5.416700E+03	1.673548E-04	0.000000E+00
5.426602E+03	1.686798E-04	0.000000E+00
5.436505E+03	1.699860E-04	0.000000E+00
5.446407E+03	1.712734E-04	0.000000E+00
5.456310E+03	1.725402E-04	0.000000E+00
5.466212E+03	1.737834E-04	0.000000E+00
5.476115E+03	1.750010E-04	0.000000E+00
5.486018E+03	1.761899E-04	0.000000E+00
5.495920E+03	1.773479E-04	0.000000E+00
5.505823E+03	1.784738E-04	0.000000E+00
5.515725E+03	1.795655E-04	0.000000E+00
5.525628E+03	1.806194E-04	0.000000E+00
5.535530E+03	1.816343E-04	0.000000E+00
5.545433E+03	1.826079E-04	0.000000E+00
5.555335E+03	1.835390E-04	0.000000E+00
5.565238E+03	1.844240E-04	0.000000E+00
5.575141E+03	1.852613E-04	0.000000E+00
5.585043E+03	1.860514E-04	0.000000E+00
5.594946E+03	1.867907E-04	0.000000E+00
5.604848E+03	1.874764E-04	0.000000E+00
5.614751E+03	1.881109E-04	0.000000E+00
5.624653E+03	1.886929E-04	0.000000E+00
5.634556E+03	1.892174E-04	0.000000E+00
5.644459E+03	1.896858E-04	0.000000E+00
5.654361E+03	1.900991E-04	0.000000E+00
5.664264E+03	1.904542E-04	0.000000E+00
5.674166E+03	1.907510E-04	0.000000E+00
5.684069E+03	1.909907E-04	0.000000E+00
5.693971E+03	1.911712E-04	0.000000E+00
5.703874E+03	1.912961E-04	0.000000E+00
5.713776E+03	1.913615E-04	0.000000E+00
5.723679E+03	1.913693E-04	0.000000E+00
5.733582E+03	1.913199E-04	0.000000E+00
5.743484E+03	1.912153E-04	0.000000E+00
5.753387E+03	1.910542E-04	0.000000E+00
5.763289E+03	1.908391E-04	0.000000E+00
5.773192E+03	1.905707E-04	0.000000E+00
5.783094E+03	1.902476E-04	0.000000E+00
5.792997E+03	1.898751E-04	0.000000E+00
5.802899E+03	1.894521E-04	0.000000E+00
5.812802E+03	1.889816E-04	0.000000E+00
5.822705E+03	1.884630E-04	0.000000E+00
5.832607E+03	1.878995E-04	0.000000E+00
5.842510E+03	1.872924E-04	0.000000E+00
5.852412E+03	1.866432E-04	0.000000E+00
5.862315E+03	1.859556E-04	0.000000E+00
5.872217E+03	1.852270E-04	0.000000E+00
5.882120E+03	1.844630E-04	0.000000E+00
5.892022E+03	1.836653E-04	0.000000E+00
5.901925E+03	1.828356E-04	0.000000E+00
5.911828E+03	1.819735E-04	0.000000E+00
5.921730E+03	1.810829E-04	0.000000E+00
5.931633E+03	1.801673E-04	0.000000E+00
5.941535E+03	1.792244E-04	0.000000E+00
5.951438E+03	1.782601E-04	0.000000E+00
5.961340E+03	1.772739E-04	0.000000E+00
5.971243E+03	1.762695E-04	0.000000E+00
5.981146E+03	1.752443E-04	0.000000E+00
5.991048E+03	1.742043E-04	0.000000E+00
6.000951E+03	1.731509E-04	0.000000E+00
6.010853E+03	1.720833E-04	0.000000E+00
6.020756E+03	1.710031E-04	0.000000E+00
6.030658E+03	1.699138E-04	0.000000E+00
6.040561E+03	1.688146E-04	0.000000E+00
6.050463E+03	1.677089E-04	0.000000E+00
6.060366E+03	1.665956E-04	0.000000E+00
6.070269E+03	1.654781E-04	0.000000E+00
6.080171E+03	1.643596E-04	0.000000E+00
6.090074E+03	1.632390E-04	0.000000E+00
6.099976E+03	1.621193E-04	0.000000E+00
6.109879E+03	1.610055E-04	0.000000E+00
6.119781E+03	1.598984E-04	0.000000E+00
6.129684E+03	1.588010E-04	0.000000E+00
6.139586E+03	1.577119E-04	0.000000E+00
6.149489E+03	1.566316E-04	0.000000E+00
6.159392E+03	1.555587E-04	0.000000E+00
6.169294E+03	1.544938E-04	0.000000E+00
6.179197E+03	1.534396E-04	0.000000E+00
6.189099E+03	1.523943E-04	0.000000E+00
6.199002E+03	1.513585E-04	0.000000E+00
6.208904E+03	1.503348E-04	0.000000E+00
6.218807E+03	1.493255E-04	0.000000E+00
6.228709E+03	1.483311E-04	0.000000E+00
6.238612E+03	1.473519E-04	0.000000E+00
6.248515E+03	1.463945E-04	0.000000E+00
6.258417E+03	1.454551E-04	0.000000E+00
6.268320E+03	1.445422E-04	0.000000E+00
6.278222E+03	1.436541E-04	0.000000E+00
6.288125E+03	1.427930E-04	0.000000E+00
6.298027E+03	1.419655E-04	0.000000E+00
6.307930E+03	1.411719E-04	0.000000E+00
6.317833E+03	1.404144E-04	0.000000E+00
6.327735E+03	1.396954E-04	0.000000E+00
6.337638E+03	1.390194E-04	0.000000E+00
6.347540E+03	1.383844E-04	0.000000E+00
6.357443E+03	1.377867E-04	0.000000E+00
6.367345E+03	1.372245E-04	0.000000E+00
6.377248E+03	1.366960E-04	0.000000E+00
6.387150E+03	1.361994E-04	0.000000E+00
6.397053E+03	1.357308E-04	0.000000E+00
6.406956E+03	1.352885E-04	0.000000E+00
6.416858E+03	1.348706E-04	0.000000E+00
6.426761E+03	1.344775E-04	0.000000E+00
6.436663E+03	1.341072E-04	0.000000E+00
6.446566E+03	1.337581E-04	0.000000E+00
6.456468E+03	1.334324E-04	0.000000E+00
6.466371E+03	1.331262E-04	0.000000E+00
6.476273E+03	1.328418E-04	0.000000E+00
6.486176E+03	1.325774E-04	0.000000E+00
6.496079E+03	1.323352E-04	0.000000E+00
6.505981E+03	1.321134E-04	0.000000E+00
6.515884E+03	1.319121E-04	0.000000E+00
6.525786E+03	1.317314E-04	0.000000E+00
6.535689E+03	1.315737E-04	0.000000E+00
6.545591E+03	1.314348E-04	0.000000E+00
6.555494E+03	1.313190E-04	0.000000E+00
6.565396E+03	1.312243E-04	0.000000E+00
6.575299E+03	1.311508E-04	0.000000E+00
6.585202E+03	1.311006E-04	0.000000E+00
6.595104E+03	1.310695E-04	0.000000E+00
6.605007E+03	1.310618E-04	0.000000E+00
6.614909E+03	1.310754E-04	0.000000E+00
6.624812E+03	1.311101E-04	0.000000E+00
6.634714E+03	1.311682E-04	0.000000E+00
6.644617E+03	1.312474E-04	0.000000E+00
6.654520E+03	1.313477E-04	0.000000E+00
6.664422E+03	1.314690E-04	0.000000E+00
6.674325E+03	1.316133E-04	0.000000E+00
6.684227E+03	1.317784E-04	0.000000E+00
6.694130E+03	1.319642E-04	0.000000E+00
6.704032E+03	1.321726E-04	0.000000E+00
6.713935E+03	1.324014E-04	0.000000E+00
6.723837E+03	1.326504E-04	0.000000E+00
6.733740E+03	1.329215E-04	0.000000E+00
6.743643E+03	1.332100E-04	0.000000E+00
6.753545E+03	1.335203E-04	0.000000E+00
6.763448E+03	1.338522E-04	0.000000E+00
6.773350E+03	1.342005E-04	0.000000E+00
6.783253E+03	1.345699E-04	0.000000E+00
6.793155E+03	1.349575E-04	0.000000E+00
6.803058E+03	1.353630E-04	0.000000E+00
6.812960E+03	1.357860E-04	0.000000E+00
6.822863E+03	1.362263E-04	0.000000E+00
6.832766E+03	1.366859E-04	0.000000E+00
6.842668E+03	1.371594E-04	0.000000E+00
6.852571E+03	1.376516E-04	0.000000E+00
6.862473E+03	1.381568E-04	0.000000E+00
6.872376E+03	1.386799E-04	0.000000E+00
6.882278E+03	1.392153E-04	0.000000E+00
6.892181E+03	1.397680E-04	0.000000E+00
6.902083E+03	1.403321E-04	0.000000E+00
6.911986E+03	1.409102E-04	0.000000E+00
6.921889E+03	1.415017E-04	0.000000E+00
6.931791E+03	1.421038E-04	0.000000E+00
6.941694E+03	1.427216E-04	0.000000E+00
6.951596E+03	1.433494E-04	0.000000E+00
6.961499E+03	1.439868E-04	0.000000E+00
6.971401E+03	1.446365E-04	0.000000E+00
6.981304E+03	1.452982E-04	0.000000E+00
6.991207E+03	1.459690E-04	0.000000E+00
7.001109E+03	1.466486E-04	0.000000E+00
7.011012E+03	1.473399E-04	0.000000E+00
7.020914E+03	1.480398E-04	0.000000E+00
7.030817E+03	1.487482E-04	0.000000E+00
7.040719E+03	1.494649E-04	0.000000E+00
7.050622E+03	1.501930E-04	0.000000E+00
7.060524E+03	1.509264E-04	0.000000E+00
7.070427E+03	1.516709E-04	0.000000E+00
7.080330E+03	1.524205E-04	0.000000E+00
7.090232E+03	1.531782E-04	0.000000E+00
7.100135E+03	1.539439E-04	0.000000E+00
7.110037E+03	1.547176E-04	0.000000E+00
7.119940E+03	1.554960E-04	0.000000E+00
7.129842E+03	1.562823E-04	0.000000E+00
7.139745E+03	1.570765E-04	0.000000E+00
7.149647E+03	1.578750E-04	0.000000E+00
7.159550E+03	1.586779E-04	0.000000E+00
7.169453E+03	1.594885E-04	0.000000E+00
7.179355E+03	1.603031E-04	0.000000E+00
7.189258E+03	1.611216E-04	0.000000E+00
7.199160E+03	1.619475E-04	0.000000E+00
7.209063E+03	1.627771E-04	0.000000E+00
7.218965E+03	1.636101E-04	0.000000E+00
7.228868E+03	1.644537E-04	0.000000E+00
7.238770E+03	1.652967E-04	0.000000E+00
7.248673E+03	1.661502E-04	0.000000E+00
7.258576E+03	1.670063E-04	0.000000E+00
7.268478E+03	1.678725E-04	0.000000E+00
7.278381E+03	1.687449E-04	0.000000E+00
7.288283E+03	1.696270E-04	0.000000E+00
7.298186E+03	1.705228E-04	0.000000E+00
7.308088E+03	1.714280E-04	0.000000E+00
7.317991E+03	1.723546E-04	0.000000E+00
7.327894E+03	1.732986E-04	0.000000E+00
7.337796E+03	1.742601E-04	0.000000E+00
7.347699E+03	1.752553E-04	0.000000E+00
7.357601E+03	1.762724E-04	0.000000E+00
7.367504E+03	1.773240E-04	0.000000E+00
7.377406E+03	1.784103E-04	0.000000E+00
7.387309E+03	1.795234E-04	0.000000E+00
7.397211E+03	1.806588E-04	0.000000E+00
7.407114E+03	1.818163E-04	0.000000E+00
7.417017E+03	1.829916E-04	0.000000E+00
7.426919E+03	1.841843E-04	0.000000E+00
7.436822E+03	1.853893E-04	0.000000E+00
7.446724E+03	1.866018E-04	0.000000E+00
7.456627E+03	1.878209E-04	0.000000E+00
7.466529E+03	1.890460E-04	0.000000E+00
7.476432E+03	1.902714E-04	0.000000E+00
7.486334E+03	1.915010E-04	0.000000E+00
7.496237E+03	1.927242E-04	0.000000E+00
7.506140E+03	1.939496E-04	0.000000E+00
7.516042E+03	1.951713E-04	0.000000E+00
7.525945E+03	1.963833E-04	0.000000E+00
7.535847E+03	1.975893E-04	0.000000E+00
7.545750E+03	1.987830E-04	0.000000E+00
7.555652E+03	1.999683E-04	0.000000E+00
7.565555E+03	2.011438E-04	0.000000E+00
7.575457E+03	2.023034E-04	0.000000E+00
7.585360E+03	2.034505E-04	0.000000E+00
7.595263E+03	2.045790E-04	0.000000E+00
7.605165E+03	2.056927E-04	0.000000E+00
7.615068E+03	2.067901E-04	0.000000E+00
7.624970E+03	2.078645E-04	0.000000E+00
7.634873E+03	2.089204E-04	0.000000E+00
7.644775E+03	2.099558E-04	0.000000E+00
7.654678E+03	2.109698E-04	0.000000E+00
7.664581E+03	2.119609E-04	0.000000E+00
7.674483E+03	2.129276E-04	0.000000E+00
7.684386E+03	2.138687E-04	0.000000E+00
