#wls	flux	fluxerr
1.584409E+03	2.736059E-03	0.000000E+00
1.624020E+03	2.833705E-03	0.000000E+00
1.663630E+03	2.929461E-03	0.000000E+00
1.703240E+03	3.022428E-03	0.000000E+00
1.742850E+03	3.111922E-03	0.000000E+00
1.782461E+03	3.196862E-03	0.000000E+00
1.822071E+03	3.276386E-03	0.000000E+00
1.861681E+03	3.349542E-03	0.000000E+00
1.901291E+03	3.415021E-03	0.000000E+00
1.940902E+03	3.471758E-03	0.000000E+00
1.980512E+03	3.518652E-03	0.000000E+00
2.020122E+03	3.554592E-03	0.000000E+00
2.059732E+03	3.578222E-03	0.000000E+00
2.099342E+03	3.588527E-03	0.000000E+00
2.138953E+03	3.584098E-03	0.000000E+00
2.178563E+03	3.563749E-03	0.000000E+00
2.218173E+03	3.525687E-03	0.000000E+00
2.257783E+03	3.468644E-03	0.000000E+00
2.297394E+03	3.394069E-03	0.000000E+00
2.337004E+03	3.304161E-03	0.000000E+00
2.376614E+03	3.200592E-03	0.000000E+00
2.416224E+03	3.084631E-03	0.000000E+00
2.455835E+03	2.957436E-03	0.000000E+00
2.495445E+03	2.820385E-03	0.000000E+00
2.535055E+03	2.674668E-03	0.000000E+00
2.574665E+03	2.521839E-03	0.000000E+00
2.614276E+03	2.363313E-03	0.000000E+00
2.653886E+03	2.200475E-03	0.000000E+00
2.693496E+03	2.035040E-03	0.000000E+00
2.733106E+03	1.868593E-03	0.000000E+00
2.772716E+03	1.702789E-03	0.000000E+00
2.812327E+03	1.539267E-03	0.000000E+00
2.851937E+03	1.379721E-03	0.000000E+00
2.891547E+03	1.226004E-03	0.000000E+00
2.931157E+03	1.080017E-03	0.000000E+00
2.970768E+03	9.432683E-04	0.000000E+00
2.980670E+03	9.106497E-04	0.000000E+00
2.990573E+03	8.787216E-04	0.000000E+00
3.000475E+03	8.474462E-04	0.000000E+00
3.010378E+03	8.168497E-04	0.000000E+00
3.020280E+03	7.869720E-04	0.000000E+00
3.030183E+03	7.577794E-04	0.000000E+00
3.040086E+03	7.293091E-04	0.000000E+00
3.049988E+03	7.015620E-04	0.000000E+00
3.059891E+03	6.745406E-04	0.000000E+00
3.069793E+03	6.482488E-04	0.000000E+00
3.079696E+03	6.227180E-04	0.000000E+00
3.089598E+03	5.979387E-04	0.000000E+00
3.099501E+03	5.739267E-04	0.000000E+00
3.109403E+03	5.506841E-04	0.000000E+00
3.119306E+03	5.282112E-04	0.000000E+00
3.129209E+03	5.065162E-04	0.000000E+00
3.139111E+03	4.856032E-04	0.000000E+00
3.149014E+03	4.654462E-04	0.000000E+00
3.158916E+03	4.460618E-04	0.000000E+00
3.168819E+03	4.274290E-04	0.000000E+00
3.178721E+03	4.095413E-04	0.000000E+00
3.188624E+03	3.923831E-04	0.000000E+00
3.198526E+03	3.759307E-04	0.000000E+00
3.208429E+03	3.601859E-04	0.000000E+00
3.218332E+03	3.451114E-04	0.000000E+00
3.228234E+03	3.307052E-04	0.000000E+00
3.238137E+03	3.169463E-04	0.000000E+00
3.248039E+03	3.038034E-04	0.000000E+00
3.257942E+03	2.912702E-04	0.000000E+00
3.267844E+03	2.793156E-04	0.000000E+00
3.277747E+03	2.679227E-04	0.000000E+00
3.287650E+03	2.570700E-04	0.000000E+00
3.297552E+03	2.467396E-04	0.000000E+00
3.307455E+03	2.369062E-04	0.000000E+00
3.317357E+03	2.275496E-04	0.000000E+00
3.327260E+03	2.186492E-04	0.000000E+00
3.337162E+03	2.101883E-04	0.000000E+00
3.347065E+03	2.021445E-04	0.000000E+00
3.356967E+03	1.944995E-04	0.000000E+00
3.366870E+03	1.872348E-04	0.000000E+00
3.376773E+03	1.803311E-04	0.000000E+00
3.386675E+03	1.737720E-04	0.000000E+00
3.396578E+03	1.675418E-04	0.000000E+00
3.406480E+03	1.616233E-04	0.000000E+00
3.416383E+03	1.560023E-04	0.000000E+00
3.426285E+03	1.506633E-04	0.000000E+00
3.436188E+03	1.455918E-04	0.000000E+00
3.446090E+03	1.407742E-04	0.000000E+00
3.455993E+03	1.361960E-04	0.000000E+00
3.465896E+03	1.318469E-04	0.000000E+00
3.475798E+03	1.277141E-04	0.000000E+00
3.485701E+03	1.237844E-04	0.000000E+00
3.495603E+03	1.200443E-04	0.000000E+00
3.505506E+03	1.164853E-04	0.000000E+00
3.515408E+03	1.130956E-04	0.000000E+00
3.525311E+03	1.098622E-04	0.000000E+00
3.535213E+03	1.067768E-04	0.000000E+00
3.545116E+03	1.038301E-04	0.000000E+00
3.555019E+03	1.010130E-04	0.000000E+00
3.564921E+03	9.831569E-05	0.000000E+00
3.574824E+03	9.573320E-05	0.000000E+00
3.584726E+03	9.325874E-05	0.000000E+00
3.594629E+03	9.088604E-05	0.000000E+00
3.604531E+03	8.861318E-05	0.000000E+00
3.614434E+03	8.643564E-05	0.000000E+00
3.624337E+03	8.434984E-05	0.000000E+00
3.634239E+03	8.235289E-05	0.000000E+00
3.644142E+03	8.044187E-05	0.000000E+00
3.654044E+03	7.861317E-05	0.000000E+00
3.663947E+03	7.686515E-05	0.000000E+00
3.673849E+03	7.519350E-05	0.000000E+00
3.683752E+03	7.359595E-05	0.000000E+00
3.693654E+03	7.207071E-05	0.000000E+00
3.703557E+03	7.061306E-05	0.000000E+00
3.713460E+03	6.922252E-05	0.000000E+00
3.723362E+03	6.789452E-05	0.000000E+00
3.733265E+03	6.662804E-05	0.000000E+00
3.743167E+03	6.542038E-05	0.000000E+00
3.753070E+03	6.426892E-05	0.000000E+00
3.762972E+03	6.317173E-05	0.000000E+00
3.772875E+03	6.212641E-05	0.000000E+00
3.782777E+03	6.113113E-05	0.000000E+00
3.792680E+03	6.018419E-05	0.000000E+00
3.802583E+03	5.928347E-05	0.000000E+00
3.812485E+03	5.842742E-05	0.000000E+00
3.822388E+03	5.761457E-05	0.000000E+00
3.832290E+03	5.684307E-05	0.000000E+00
3.842193E+03	5.611160E-05	0.000000E+00
3.852095E+03	5.541894E-05	0.000000E+00
3.861998E+03	5.476343E-05	0.000000E+00
3.871900E+03	5.414395E-05	0.000000E+00
3.881803E+03	5.355899E-05	0.000000E+00
3.891706E+03	5.300791E-05	0.000000E+00
3.901608E+03	5.248927E-05	0.000000E+00
3.911511E+03	5.200208E-05	0.000000E+00
3.921413E+03	5.154458E-05	0.000000E+00
3.931316E+03	5.111665E-05	0.000000E+00
3.941218E+03	5.071660E-05	0.000000E+00
3.951121E+03	5.034354E-05	0.000000E+00
3.961024E+03	4.999625E-05	0.000000E+00
3.970926E+03	4.967432E-05	0.000000E+00
3.980829E+03	4.937621E-05	0.000000E+00
3.990731E+03	4.910153E-05	0.000000E+00
4.000634E+03	4.884887E-05	0.000000E+00
4.010536E+03	4.861788E-05	0.000000E+00
4.020439E+03	4.840724E-05	0.000000E+00
4.030341E+03	4.821630E-05	0.000000E+00
4.040244E+03	4.804451E-05	0.000000E+00
4.050147E+03	4.789129E-05	0.000000E+00
4.060049E+03	4.775544E-05	0.000000E+00
4.069952E+03	4.763644E-05	0.000000E+00
4.079854E+03	4.753348E-05	0.000000E+00
4.089757E+03	4.744614E-05	0.000000E+00
4.099659E+03	4.737403E-05	0.000000E+00
4.109562E+03	4.731602E-05	0.000000E+00
4.119464E+03	4.727217E-05	0.000000E+00
4.129367E+03	4.724143E-05	0.000000E+00
4.139270E+03	4.722349E-05	0.000000E+00
4.149172E+03	4.721810E-05	0.000000E+00
4.159075E+03	4.722430E-05	0.000000E+00
4.168977E+03	4.724187E-05	0.000000E+00
4.178880E+03	4.727026E-05	0.000000E+00
4.188782E+03	4.730965E-05	0.000000E+00
4.198685E+03	4.735882E-05	0.000000E+00
4.208587E+03	4.741803E-05	0.000000E+00
4.218490E+03	4.748644E-05	0.000000E+00
4.228393E+03	4.756433E-05	0.000000E+00
4.238295E+03	4.765054E-05	0.000000E+00
4.248198E+03	4.774501E-05	0.000000E+00
4.258100E+03	4.784772E-05	0.000000E+00
4.268003E+03	4.795751E-05	0.000000E+00
4.277905E+03	4.807475E-05	0.000000E+00
4.287808E+03	4.819788E-05	0.000000E+00
4.297711E+03	4.832724E-05	0.000000E+00
4.307613E+03	4.846095E-05	0.000000E+00
4.317516E+03	4.859891E-05	0.000000E+00
4.327418E+03	4.874225E-05	0.000000E+00
4.337321E+03	4.889091E-05	0.000000E+00
4.347223E+03	4.904531E-05	0.000000E+00
4.357126E+03	4.920542E-05	0.000000E+00
4.367028E+03	4.937047E-05	0.000000E+00
4.376931E+03	4.954128E-05	0.000000E+00
4.386834E+03	4.971706E-05	0.000000E+00
4.396736E+03	4.989789E-05	0.000000E+00
4.406639E+03	5.008338E-05	0.000000E+00
4.416541E+03	5.027364E-05	0.000000E+00
4.426444E+03	5.046789E-05	0.000000E+00
4.436346E+03	5.066664E-05	0.000000E+00
4.446249E+03	5.086918E-05	0.000000E+00
4.456151E+03	5.107523E-05	0.000000E+00
4.466054E+03	5.128537E-05	0.000000E+00
4.475957E+03	5.149851E-05	0.000000E+00
4.485859E+03	5.171492E-05	0.000000E+00
4.495762E+03	5.193488E-05	0.000000E+00
4.505664E+03	5.215789E-05	0.000000E+00
4.515567E+03	5.238436E-05	0.000000E+00
4.525469E+03	5.261383E-05	0.000000E+00
4.535372E+03	5.284683E-05	0.000000E+00
4.545274E+03	5.308340E-05	0.000000E+00
4.555177E+03	5.332364E-05	0.000000E+00
4.565080E+03	5.356720E-05	0.000000E+00
4.574982E+03	5.381508E-05	0.000000E+00
4.584885E+03	5.406647E-05	0.000000E+00
4.594787E+03	5.432190E-05	0.000000E+00
4.604690E+03	5.458150E-05	0.000000E+00
4.614592E+03	5.484484E-05	0.000000E+00
4.624495E+03	5.511297E-05	0.000000E+00
4.634398E+03	5.538501E-05	0.000000E+00
4.644300E+03	5.566153E-05	0.000000E+00
4.654203E+03	5.594358E-05	0.000000E+00
4.664105E+03	5.623077E-05	0.000000E+00
4.674008E+03	5.652372E-05	0.000000E+00
4.683910E+03	5.682304E-05	0.000000E+00
4.693813E+03	5.712885E-05	0.000000E+00
4.703715E+03	5.744130E-05	0.000000E+00
4.713618E+03	5.776153E-05	0.000000E+00
4.723521E+03	5.808869E-05	0.000000E+00
4.733423E+03	5.842395E-05	0.000000E+00
4.743326E+03	5.876744E-05	0.000000E+00
4.753228E+03	5.911878E-05	0.000000E+00
4.763131E+03	5.947923E-05	0.000000E+00
4.773033E+03	5.984843E-05	0.000000E+00
4.782936E+03	6.022657E-05	0.000000E+00
4.792838E+03	6.061389E-05	0.000000E+00
4.802741E+03	6.101064E-05	0.000000E+00
4.812644E+03	6.141817E-05	0.000000E+00
4.822546E+03	6.183513E-05	0.000000E+00
4.832449E+03	6.226294E-05	0.000000E+00
4.842351E+03	6.270133E-05	0.000000E+00
4.852254E+03	6.315119E-05	0.000000E+00
4.862156E+03	6.361229E-05	0.000000E+00
4.872059E+03	6.408494E-05	0.000000E+00
4.881961E+03	6.457004E-05	0.000000E+00
4.891864E+03	6.506673E-05	0.000000E+00
4.901767E+03	6.557592E-05	0.000000E+00
4.911669E+03	6.609789E-05	0.000000E+00
4.921572E+03	6.663296E-05	0.000000E+00
4.931474E+03	6.718078E-05	0.000000E+00
4.941377E+03	6.774158E-05	0.000000E+00
4.951279E+03	6.831623E-05	0.000000E+00
4.961182E+03	6.890369E-05	0.000000E+00
4.971085E+03	6.950543E-05	0.000000E+00
4.980987E+03	7.012036E-05	0.000000E+00
4.990890E+03	7.074862E-05	0.000000E+00
5.000792E+03	7.139103E-05	0.000000E+00
5.010695E+03	7.204708E-05	0.000000E+00
5.020597E+03	7.271684E-05	0.000000E+00
5.030500E+03	7.339976E-05	0.000000E+00
5.040402E+03	7.409655E-05	0.000000E+00
5.050305E+03	7.480729E-05	0.000000E+00
5.060208E+03	7.553057E-05	0.000000E+00
5.070110E+03	7.626709E-05	0.000000E+00
5.080013E+03	7.701687E-05	0.000000E+00
5.089915E+03	7.777991E-05	0.000000E+00
5.099818E+03	7.855544E-05	0.000000E+00
5.109720E+03	7.934344E-05	0.000000E+00
5.119623E+03	8.014317E-05	0.000000E+00
5.129525E+03	8.095625E-05	0.000000E+00
5.139428E+03	8.178115E-05	0.000000E+00
5.149331E+03	8.261794E-05	0.000000E+00
5.159233E+03	8.346672E-05	0.000000E+00
5.169136E+03	8.432839E-05	0.000000E+00
5.179038E+03	8.520140E-05	0.000000E+00
5.188941E+03	8.608577E-05	0.000000E+00
5.198843E+03	8.698321E-05	0.000000E+00
5.208746E+03	8.789118E-05	0.000000E+00
5.218648E+03	8.881136E-05	0.000000E+00
5.228551E+03	8.974282E-05	0.000000E+00
5.238454E+03	9.068544E-05	0.000000E+00
5.248356E+03	9.163999E-05	0.000000E+00
5.258259E+03	9.260454E-05	0.000000E+00
5.268161E+03	9.357976E-05	0.000000E+00
5.278064E+03	9.456549E-05	0.000000E+00
5.287966E+03	9.556140E-05	0.000000E+00
5.297869E+03	9.656819E-05	0.000000E+00
5.307772E+03	9.758356E-05	0.000000E+00
5.317674E+03	9.860805E-05	0.000000E+00
5.327577E+03	9.964111E-05	0.000000E+00
5.337479E+03	1.006811E-04	0.000000E+00
5.347382E+03	1.017293E-04	0.000000E+00
5.357284E+03	1.027838E-04	0.000000E+00
5.367187E+03	1.038428E-04	0.000000E+00
5.377089E+03	1.049051E-04	0.000000E+00
5.386992E+03	1.059708E-04	0.000000E+00
5.396895E+03	1.070365E-04	0.000000E+00
5.406797E+03	1.081021E-04	0.000000E+00
5.416700E+03	1.091664E-04	0.000000E+00
5.426602E+03	1.102256E-04	0.000000E+00
5.436505E+03	1.112784E-04	0.000000E+00
5.446407E+03	1.123243E-04	0.000000E+00
5.456310E+03	1.133605E-04	0.000000E+00
5.466212E+03	1.143839E-04	0.000000E+00
5.476115E+03	1.153915E-04	0.000000E+00
5.486018E+03	1.163835E-04	0.000000E+00
5.495920E+03	1.173542E-04	0.000000E+00
5.505823E+03	1.183024E-04	0.000000E+00
5.515725E+03	1.192246E-04	0.000000E+00
5.525628E+03	1.201183E-04	0.000000E+00
5.535530E+03	1.209809E-04	0.000000E+00
5.545433E+03	1.218085E-04	0.000000E+00
5.555335E+03	1.225997E-04	0.000000E+00
5.565238E+03	1.233505E-04	0.000000E+00
5.575141E+03	1.240570E-04	0.000000E+00
5.585043E+03	1.247189E-04	0.000000E+00
5.594946E+03	1.253325E-04	0.000000E+00
5.604848E+03	1.258939E-04	0.000000E+00
5.614751E+03	1.264023E-04	0.000000E+00
5.624653E+03	1.268569E-04	0.000000E+00
5.634556E+03	1.272533E-04	0.000000E+00
5.644459E+03	1.275913E-04	0.000000E+00
5.654361E+03	1.278709E-04	0.000000E+00
5.664264E+03	1.280899E-04	0.000000E+00
5.674166E+03	1.282486E-04	0.000000E+00
5.684069E+03	1.283453E-04	0.000000E+00
5.693971E+03	1.283810E-04	0.000000E+00
5.703874E+03	1.283555E-04	0.000000E+00
5.713776E+03	1.282701E-04	0.000000E+00
5.723679E+03	1.281224E-04	0.000000E+00
5.733582E+03	1.279167E-04	0.000000E+00
5.743484E+03	1.276508E-04	0.000000E+00
5.753387E+03	1.273267E-04	0.000000E+00
5.763289E+03	1.269451E-04	0.000000E+00
5.773192E+03	1.265070E-04	0.000000E+00
5.783094E+03	1.260151E-04	0.000000E+00
5.792997E+03	1.254707E-04	0.000000E+00
5.802899E+03	1.248755E-04	0.000000E+00
5.812802E+03	1.242301E-04	0.000000E+00
5.822705E+03	1.235393E-04	0.000000E+00
5.832607E+03	1.228044E-04	0.000000E+00
5.842510E+03	1.220293E-04	0.000000E+00
5.852412E+03	1.212156E-04	0.000000E+00
5.862315E+03	1.203674E-04	0.000000E+00
5.872217E+03	1.194878E-04	0.000000E+00
5.882120E+03	1.185794E-04	0.000000E+00
5.892022E+03	1.176453E-04	0.000000E+00
5.901925E+03	1.166880E-04	0.000000E+00
5.911828E+03	1.157115E-04	0.000000E+00
5.921730E+03	1.147158E-04	0.000000E+00
5.931633E+03	1.137059E-04	0.000000E+00
5.941535E+03	1.126828E-04	0.000000E+00
5.951438E+03	1.116488E-04	0.000000E+00
5.961340E+03	1.106074E-04	0.000000E+00
5.971243E+03	1.095579E-04	0.000000E+00
5.981146E+03	1.085049E-04	0.000000E+00
5.991048E+03	1.074477E-04	0.000000E+00
6.000951E+03	1.063892E-04	0.000000E+00
6.010853E+03	1.053312E-04	0.000000E+00
6.020756E+03	1.042738E-04	0.000000E+00
6.030658E+03	1.032187E-04	0.000000E+00
6.040561E+03	1.021670E-04	0.000000E+00
6.050463E+03	1.011201E-04	0.000000E+00
6.060366E+03	1.000793E-04	0.000000E+00
6.070269E+03	9.904555E-05	0.000000E+00
6.080171E+03	9.801993E-05	0.000000E+00
6.090074E+03	9.700340E-05	0.000000E+00
6.099976E+03	9.599803E-05	0.000000E+00
6.109879E+03	9.500583E-05	0.000000E+00
6.119781E+03	9.402869E-05	0.000000E+00
6.129684E+03	9.306724E-05	0.000000E+00
6.139586E+03	9.212199E-05	0.000000E+00
6.149489E+03	9.119224E-05	0.000000E+00
6.159392E+03	9.027845E-05	0.000000E+00
6.169294E+03	8.938100E-05	0.000000E+00
6.179197E+03	8.849904E-05	0.000000E+00
6.189099E+03	8.763410E-05	0.000000E+00
6.199002E+03	8.678872E-05	0.000000E+00
6.208904E+03	8.596195E-05	0.000000E+00
6.218807E+03	8.515511E-05	0.000000E+00
6.228709E+03	8.437063E-05	0.000000E+00
6.238612E+03	8.360742E-05	0.000000E+00
6.248515E+03	8.286896E-05	0.000000E+00
6.258417E+03	8.215643E-05	0.000000E+00
6.268320E+03	8.146861E-05	0.000000E+00
6.278222E+03	8.080892E-05	0.000000E+00
6.288125E+03	8.017843E-05	0.000000E+00
6.298027E+03	7.957704E-05	0.000000E+00
6.307930E+03	7.900578E-05	0.000000E+00
6.317833E+03	7.846802E-05	0.000000E+00
6.327735E+03	7.796246E-05	0.000000E+00
6.337638E+03	7.749016E-05	0.000000E+00
6.347540E+03	7.705332E-05	0.000000E+00
6.357443E+03	7.664841E-05	0.000000E+00
6.367345E+03	7.627308E-05	0.000000E+00
6.377248E+03	7.592612E-05	0.000000E+00
6.387150E+03	7.560630E-05	0.000000E+00
6.397053E+03	7.531130E-05	0.000000E+00
6.406956E+03	7.504108E-05	0.000000E+00
6.416858E+03	7.479441E-05	0.000000E+00
6.426761E+03	7.457125E-05	0.000000E+00
6.436663E+03	7.437043E-05	0.000000E+00
6.446566E+03	7.419187E-05	0.000000E+00
6.456468E+03	7.403554E-05	0.000000E+00
6.466371E+03	7.390024E-05	0.000000E+00
6.476273E+03	7.378712E-05	0.000000E+00
6.486176E+03	7.369609E-05	0.000000E+00
6.496079E+03	7.362600E-05	0.000000E+00
6.505981E+03	7.357799E-05	0.000000E+00
6.515884E+03	7.355082E-05	0.000000E+00
6.525786E+03	7.354449E-05	0.000000E+00
6.535689E+03	7.356014E-05	0.000000E+00
6.545591E+03	7.359540E-05	0.000000E+00
6.555494E+03	7.365386E-05	0.000000E+00
6.565396E+03	7.373186E-05	0.000000E+00
6.575299E+03	7.383183E-05	0.000000E+00
6.585202E+03	7.395256E-05	0.000000E+00
6.595104E+03	7.409403E-05	0.000000E+00
6.605007E+03	7.425749E-05	0.000000E+00
6.614909E+03	7.444173E-05	0.000000E+00
6.624812E+03	7.464675E-05	0.000000E+00
6.634714E+03	7.487256E-05	0.000000E+00
6.644617E+03	7.512048E-05	0.000000E+00
6.654520E+03	7.538795E-05	0.000000E+00
6.664422E+03	7.567756E-05	0.000000E+00
6.674325E+03	7.598810E-05	0.000000E+00
6.684227E+03	7.631958E-05	0.000000E+00
6.694130E+03	7.667206E-05	0.000000E+00
6.704032E+03	7.704555E-05	0.000000E+00
6.713935E+03	7.744149E-05	0.000000E+00
6.723837E+03	7.785721E-05	0.000000E+00
6.733740E+03	7.829409E-05	0.000000E+00
6.743643E+03	7.875223E-05	0.000000E+00
6.753545E+03	7.923165E-05	0.000000E+00
6.763448E+03	7.973245E-05	0.000000E+00
6.773350E+03	8.025467E-05	0.000000E+00
6.783253E+03	8.079838E-05	0.000000E+00
6.793155E+03	8.136215E-05	0.000000E+00
6.803058E+03	8.194748E-05	0.000000E+00
6.812960E+03	8.255445E-05	0.000000E+00
6.822863E+03	8.318153E-05	0.000000E+00
6.832766E+03	8.383029E-05	0.000000E+00
6.842668E+03	8.450079E-05	0.000000E+00
6.852571E+03	8.519144E-05	0.000000E+00
6.862473E+03	8.590224E-05	0.000000E+00
6.872376E+03	8.663479E-05	0.000000E+00
6.882278E+03	8.738748E-05	0.000000E+00
6.892181E+03	8.816026E-05	0.000000E+00
6.902083E+03	8.895481E-05	0.000000E+00
6.911986E+03	8.976948E-05	0.000000E+00
6.921889E+03	9.060420E-05	0.000000E+00
6.931791E+03	9.145721E-05	0.000000E+00
6.941694E+03	9.233199E-05	0.000000E+00
6.951596E+03	9.322683E-05	0.000000E+00
6.961499E+03	9.414169E-05	0.000000E+00
6.971401E+03	9.507469E-05	0.000000E+00
6.981304E+03	9.602769E-05	0.000000E+00
6.991207E+03	9.699871E-05	0.000000E+00
7.001109E+03	9.799161E-05	0.000000E+00
7.011012E+03	9.900051E-05	0.000000E+00
7.020914E+03	1.000292E-04	0.000000E+00
7.030817E+03	1.010758E-04	0.000000E+00
7.040719E+03	1.021421E-04	0.000000E+00
7.050622E+03	1.032241E-04	0.000000E+00
7.060524E+03	1.043257E-04	0.000000E+00
7.070427E+03	1.054427E-04	0.000000E+00
7.080330E+03	1.065770E-04	0.000000E+00
7.090232E+03	1.077287E-04	0.000000E+00
7.100135E+03	1.088975E-04	0.000000E+00
7.110037E+03	1.100811E-04	0.000000E+00
7.119940E+03	1.112792E-04	0.000000E+00
7.129842E+03	1.124941E-04	0.000000E+00
7.139745E+03	1.137232E-04	0.000000E+00
7.149647E+03	1.149688E-04	0.000000E+00
7.159550E+03	1.162257E-04	0.000000E+00
7.169453E+03	1.174987E-04	0.000000E+00
7.179355E+03	1.187850E-04	0.000000E+00
7.189258E+03	1.200845E-04	0.000000E+00
7.199160E+03	1.213968E-04	0.000000E+00
7.209063E+03	1.227217E-04	0.000000E+00
7.218965E+03	1.240588E-04	0.000000E+00
7.228868E+03	1.254107E-04	0.000000E+00
7.238770E+03	1.267715E-04	0.000000E+00
7.248673E+03	1.281493E-04	0.000000E+00
7.258576E+03	1.295410E-04	0.000000E+00
7.268478E+03	1.309435E-04	0.000000E+00
7.278381E+03	1.323653E-04	0.000000E+00
7.288283E+03	1.338003E-04	0.000000E+00
7.298186E+03	1.352575E-04	0.000000E+00
7.308088E+03	1.367336E-04	0.000000E+00
7.317991E+03	1.382319E-04	0.000000E+00
7.327894E+03	1.397556E-04	0.000000E+00
7.337796E+03	1.413049E-04	0.000000E+00
7.347699E+03	1.428867E-04	0.000000E+00
7.357601E+03	1.445048E-04	0.000000E+00
7.367504E+03	1.461565E-04	0.000000E+00
7.377406E+03	1.478424E-04	0.000000E+00
7.387309E+03	1.495629E-04	0.000000E+00
7.397211E+03	1.513151E-04	0.000000E+00
7.407114E+03	1.530956E-04	0.000000E+00
7.417017E+03	1.549010E-04	0.000000E+00
7.426919E+03	1.567313E-04	0.000000E+00
7.436822E+03	1.585827E-04	0.000000E+00
7.446724E+03	1.604512E-04	0.000000E+00
7.456627E+03	1.623404E-04	0.000000E+00
7.466529E+03	1.642420E-04	0.000000E+00
7.476432E+03	1.661555E-04	0.000000E+00
7.486334E+03	1.680804E-04	0.000000E+00
7.496237E+03	1.700162E-04	0.000000E+00
7.506140E+03	1.719625E-04	0.000000E+00
7.516042E+03	1.739144E-04	0.000000E+00
7.525945E+03	1.758710E-04	0.000000E+00
7.535847E+03	1.778361E-04	0.000000E+00
7.545750E+03	1.798045E-04	0.000000E+00
7.555652E+03	1.817797E-04	0.000000E+00
7.565555E+03	1.837517E-04	0.000000E+00
7.575457E+03	1.857285E-04	0.000000E+00
7.585360E+03	1.877044E-04	0.000000E+00
7.595263E+03	1.896780E-04	0.000000E+00
7.605165E+03	1.916479E-04	0.000000E+00
7.615068E+03	1.936177E-04	0.000000E+00
7.624970E+03	1.955808E-04	0.000000E+00
7.634873E+03	1.975355E-04	0.000000E+00
7.644775E+03	1.994855E-04	0.000000E+00
7.654678E+03	2.014288E-04	0.000000E+00
7.664581E+03	2.033585E-04	0.000000E+00
7.674483E+03	2.052782E-04	0.000000E+00
7.684386E+03	2.071854E-04	0.000000E+00
