#wls	flux	fluxerr
1.584409E+03	3.234819E-02	5.477973E-02
1.624020E+03	3.363603E-02	5.683249E-02
1.663630E+03	3.490488E-02	5.884140E-02
1.703240E+03	3.614196E-02	6.078491E-02
1.742850E+03	3.733668E-02	6.264536E-02
1.782461E+03	3.841096E-02	6.425149E-02
1.822071E+03	3.941077E-02	6.571924E-02
1.861681E+03	4.032190E-02	6.702588E-02
1.901291E+03	4.112559E-02	6.814136E-02
1.940902E+03	4.173022E-02	6.886623E-02
1.980512E+03	4.219393E-02	6.934686E-02
2.020122E+03	4.250141E-02	6.956077E-02
2.059732E+03	4.263488E-02	6.948202E-02
2.099342E+03	4.249529E-02	6.889709E-02
2.138953E+03	4.215320E-02	6.798189E-02
2.178563E+03	4.159660E-02	6.672238E-02
2.218173E+03	4.080782E-02	6.509604E-02
2.257783E+03	3.968749E-02	6.289361E-02
2.297394E+03	3.835376E-02	6.037171E-02
2.337004E+03	3.683972E-02	5.758942E-02
2.376614E+03	3.517245E-02	5.459533E-02
2.416224E+03	3.329132E-02	5.124859E-02
2.455835E+03	3.131144E-02	4.779223E-02
2.495445E+03	2.925767E-02	4.426886E-02
2.535055E+03	2.715261E-02	4.071660E-02
2.574665E+03	2.495226E-02	3.703043E-02
2.614276E+03	2.276167E-02	3.342042E-02
2.653886E+03	2.060269E-02	2.991949E-02
2.693496E+03	1.849856E-02	2.656124E-02
2.733106E+03	1.641820E-02	2.327060E-02
2.772716E+03	1.444329E-02	2.019951E-02
2.812327E+03	1.258882E-02	1.736460E-02
2.851937E+03	1.086759E-02	1.477816E-02
2.891547E+03	9.261767E-03	1.239450E-02
2.931157E+03	7.817992E-03	1.029046E-02
2.970768E+03	6.537898E-03	8.459102E-03
2.980670E+03	6.243054E-03	8.042253E-03
2.990573E+03	5.955387E-03	7.636326E-03
3.000475E+03	5.677685E-03	7.246378E-03
3.010378E+03	5.409917E-03	6.872215E-03
3.020280E+03	5.152140E-03	6.513751E-03
3.030183E+03	4.902715E-03	6.168211E-03
3.040086E+03	4.662984E-03	5.837748E-03
3.049988E+03	4.432724E-03	5.521925E-03
3.059891E+03	4.211710E-03	5.220306E-03
3.069793E+03	3.998718E-03	4.930784E-03
3.079696E+03	3.794861E-03	4.655078E-03
3.089598E+03	3.599873E-03	4.392704E-03
3.099501E+03	3.413631E-03	4.143358E-03
3.109403E+03	3.235092E-03	3.905279E-03
3.119306E+03	3.064970E-03	3.679574E-03
3.129209E+03	2.903088E-03	3.465877E-03
3.139111E+03	2.749243E-03	3.263797E-03
3.149014E+03	2.602364E-03	3.071655E-03
3.158916E+03	2.463097E-03	2.890377E-03
3.168819E+03	2.331105E-03	2.719424E-03
3.178721E+03	2.206136E-03	2.558367E-03
3.188624E+03	2.087319E-03	2.405864E-03
3.198526E+03	1.974969E-03	2.262383E-03
3.208429E+03	1.868898E-03	2.127583E-03
3.218332E+03	1.768721E-03	2.000903E-03
3.228234E+03	1.673768E-03	1.881324E-03
3.238137E+03	1.584287E-03	1.769184E-03
3.248039E+03	1.499948E-03	1.664007E-03
3.257942E+03	1.420558E-03	1.565473E-03
3.267844E+03	1.345409E-03	1.472600E-03
3.277747E+03	1.274714E-03	1.385649E-03
3.287650E+03	1.208222E-03	1.304258E-03
3.297552E+03	1.145715E-03	1.228104E-03
3.307455E+03	1.086617E-03	1.156413E-03
3.317357E+03	1.031074E-03	1.089351E-03
3.327260E+03	9.788789E-04	1.026624E-03
3.337162E+03	9.298456E-04	9.679664E-04
3.347065E+03	8.834929E-04	9.127615E-04
3.356967E+03	8.399485E-04	8.611369E-04
3.366870E+03	7.990419E-04	8.128571E-04
3.376773E+03	7.606025E-04	7.676909E-04
3.386675E+03	7.242438E-04	7.251672E-04
3.396578E+03	6.900819E-04	6.853872E-04
3.406480E+03	6.579739E-04	6.481598E-04
3.416383E+03	6.277938E-04	6.133153E-04
3.426285E+03	5.992136E-04	5.804801E-04
3.436188E+03	5.723365E-04	5.497300E-04
3.446090E+03	5.470529E-04	5.209213E-04
3.455993E+03	5.232549E-04	4.939149E-04
3.465896E+03	5.006782E-04	4.684316E-04
3.475798E+03	4.794187E-04	4.445297E-04
3.485701E+03	4.593841E-04	4.220932E-04
3.495603E+03	4.404847E-04	4.010118E-04
3.505506E+03	4.224987E-04	3.810731E-04
3.515408E+03	4.055149E-04	3.623196E-04
3.525311E+03	3.894544E-04	3.446578E-04
3.535213E+03	3.742571E-04	3.280128E-04
3.545116E+03	3.597284E-04	3.122209E-04
3.555019E+03	3.459553E-04	2.973138E-04
3.564921E+03	3.328809E-04	2.832252E-04
3.574824E+03	3.204656E-04	2.699049E-04
3.584726E+03	3.085449E-04	2.572357E-04
3.594629E+03	2.972078E-04	2.452415E-04
3.604531E+03	2.864294E-04	2.338880E-04
3.614434E+03	2.761777E-04	2.231361E-04
3.624337E+03	2.663157E-04	2.129086E-04
3.634239E+03	2.569345E-04	2.032207E-04
3.644142E+03	2.480096E-04	1.940417E-04
3.654044E+03	2.395158E-04	1.853410E-04
3.663947E+03	2.313363E-04	1.770735E-04
3.673849E+03	2.235493E-04	1.692335E-04
3.683752E+03	2.161356E-04	1.617972E-04
3.693654E+03	2.090785E-04	1.547435E-04
3.703557E+03	2.022634E-04	1.480438E-04
3.713460E+03	1.957731E-04	1.416851E-04
3.723362E+03	1.895847E-04	1.356435E-04
3.733265E+03	1.836859E-04	1.299033E-04
3.743167E+03	1.779777E-04	1.244618E-04
3.753070E+03	1.725312E-04	1.192867E-04
3.762972E+03	1.673332E-04	1.143632E-04
3.772875E+03	1.623693E-04	1.096760E-04
3.782777E+03	1.575514E-04	1.052437E-04
3.792680E+03	1.529480E-04	1.010214E-04
3.802583E+03	1.485471E-04	9.699677E-05
3.812485E+03	1.443384E-04	9.315882E-05
3.822388E+03	1.402412E-04	8.954446E-05
3.832290E+03	1.363196E-04	8.609474E-05
3.842193E+03	1.325650E-04	8.280082E-05
3.852095E+03	1.289692E-04	7.965441E-05
3.861998E+03	1.254566E-04	7.670822E-05
3.871900E+03	1.220896E-04	7.389133E-05
3.881803E+03	1.188599E-04	7.119633E-05
3.891706E+03	1.157619E-04	6.861743E-05
3.901608E+03	1.127250E-04	6.622175E-05
3.911511E+03	1.098088E-04	6.392671E-05
3.921413E+03	1.070054E-04	6.172608E-05
3.931316E+03	1.043109E-04	5.961592E-05
3.941218E+03	1.016585E-04	5.767476E-05
3.951121E+03	9.910502E-05	5.581036E-05
3.961024E+03	9.664476E-05	5.401842E-05
3.970926E+03	9.427373E-05	5.229561E-05
3.980829E+03	9.192908E-05	5.072891E-05
3.990731E+03	8.966637E-05	4.922012E-05
4.000634E+03	8.748016E-05	4.776560E-05
4.010536E+03	8.536738E-05	4.636305E-05
4.020439E+03	8.326857E-05	4.510332E-05
4.030341E+03	8.123674E-05	4.388556E-05
4.040244E+03	7.926879E-05	4.270781E-05
4.050147E+03	7.736163E-05	4.156815E-05
4.060049E+03	7.545879E-05	4.055553E-05
4.069952E+03	7.361182E-05	3.957245E-05
4.079854E+03	7.181763E-05	3.861731E-05
4.089757E+03	7.007391E-05	3.768885E-05
4.099659E+03	6.832826E-05	3.686448E-05
4.109562E+03	6.662935E-05	3.605977E-05
4.119464E+03	6.497575E-05	3.527416E-05
4.129367E+03	6.336468E-05	3.450636E-05
4.139270E+03	6.174704E-05	3.381656E-05
4.149172E+03	6.017016E-05	3.313952E-05
4.159075E+03	5.863161E-05	3.247426E-05
4.168977E+03	5.713007E-05	3.182036E-05
4.178880E+03	5.561912E-05	3.122049E-05
4.188782E+03	5.414410E-05	3.062819E-05
4.198685E+03	5.270262E-05	3.004253E-05
4.208587E+03	5.129411E-05	2.946359E-05
4.218490E+03	4.987470E-05	2.891794E-05
4.228393E+03	4.848735E-05	2.837608E-05
4.238295E+03	4.713009E-05	2.783732E-05
4.248198E+03	4.580218E-05	2.730170E-05
4.258100E+03	4.446331E-05	2.678267E-05
4.268003E+03	4.315268E-05	2.626437E-05
4.277905E+03	4.187004E-05	2.574715E-05
4.287808E+03	4.061350E-05	2.523032E-05
4.297711E+03	3.934602E-05	2.471689E-05
4.307613E+03	3.810372E-05	2.420210E-05
4.317516E+03	3.688625E-05	2.368623E-05
4.327418E+03	3.569410E-05	2.317008E-05
4.337321E+03	3.449372E-05	2.264910E-05
4.347223E+03	3.331926E-05	2.212760E-05
4.357126E+03	3.217031E-05	2.160589E-05
4.367028E+03	3.104594E-05	2.108387E-05
4.376931E+03	2.991702E-05	2.055251E-05
4.386834E+03	2.881312E-05	2.002098E-05
4.396736E+03	2.773390E-05	1.948961E-05
4.406639E+03	2.667882E-05	1.895857E-05
4.416541E+03	2.562196E-05	1.841567E-05
4.426444E+03	2.458933E-05	1.787337E-05
4.436346E+03	2.358090E-05	1.733221E-05
4.446249E+03	2.259602E-05	1.679229E-05
4.456151E+03	2.161215E-05	1.624001E-05
4.466054E+03	2.065242E-05	1.568991E-05
4.475957E+03	1.971616E-05	1.514204E-05
4.485859E+03	1.880323E-05	1.459687E-05
4.495762E+03	1.789452E-05	1.404080E-05
4.505664E+03	1.700955E-05	1.348847E-05
4.515567E+03	1.614824E-05	1.294039E-05
4.525469E+03	1.531024E-05	1.239687E-05
4.535372E+03	1.447938E-05	1.184493E-05
4.545274E+03	1.367240E-05	1.129893E-05
4.555177E+03	1.288908E-05	1.075925E-05
4.565080E+03	1.212910E-05	1.022622E-05
4.574982E+03	1.137899E-05	9.688053E-06
4.584885E+03	1.065255E-05	9.157854E-06
4.594787E+03	9.949643E-06	8.636074E-06
4.604690E+03	9.270025E-06	8.123082E-06
4.614592E+03	8.602284E-06	7.608292E-06
4.624495E+03	7.958110E-06	7.103646E-06
4.634398E+03	7.337097E-06	6.609351E-06
4.644300E+03	6.739062E-06	6.125802E-06
4.654203E+03	6.154834E-06	5.644160E-06
4.664105E+03	5.593695E-06	5.174511E-06
4.674008E+03	5.055400E-06	4.717178E-06
4.683910E+03	4.539690E-06	4.272463E-06
4.693813E+03	4.039035E-06	3.832990E-06
4.703715E+03	3.560870E-06	3.407185E-06
4.713618E+03	3.104927E-06	2.995315E-06
4.723521E+03	2.670817E-06	2.597521E-06
4.733423E+03	2.252574E-06	2.207983E-06
4.743326E+03	1.856003E-06	1.833461E-06
4.753228E+03	1.480752E-06	1.474100E-06
4.763131E+03	1.126519E-06	1.130082E-06
4.773033E+03	7.885135E-07	7.968611E-07
4.782936E+03	4.712246E-07	4.797126E-07
4.792838E+03	1.743239E-07	1.787589E-07
4.802741E+03	-1.025136E-07	-1.058834E-07
4.812644E+03	-3.630793E-07	-3.776230E-07
4.822546E+03	-6.039354E-07	-6.324670E-07
4.832449E+03	-8.254138E-07	-8.703423E-07
4.842351E+03	-1.027830E-06	-1.091167E-06
4.852254E+03	-1.214248E-06	-1.297490E-06
4.862156E+03	-1.382018E-06	-1.486345E-06
4.872059E+03	-1.531454E-06	-1.657685E-06
4.881961E+03	-1.662880E-06	-1.811482E-06
4.891864E+03	-1.778828E-06	-1.949657E-06
4.901767E+03	-1.877207E-06	-2.070011E-06
4.911669E+03	-1.958320E-06	-2.172527E-06
4.921572E+03	-2.022458E-06	-2.257186E-06
4.931474E+03	-2.071907E-06	-2.325640E-06
4.941377E+03	-2.104858E-06	-2.376108E-06
4.951279E+03	-2.121616E-06	-2.408619E-06
4.961182E+03	-2.122421E-06	-2.423138E-06
4.971085E+03	-2.109586E-06	-2.421417E-06
4.980987E+03	-2.081342E-06	-2.401762E-06
4.990890E+03	-2.037968E-06	-2.364214E-06
5.000792E+03	-1.979762E-06	-2.308842E-06
5.010695E+03	-1.909174E-06	-2.237699E-06
5.020597E+03	-1.824346E-06	-2.148960E-06
5.030500E+03	-1.725552E-06	-2.042700E-06
5.040402E+03	-1.613103E-06	-1.919042E-06
5.050305E+03	-1.489869E-06	-1.780747E-06
5.060208E+03	-1.353657E-06	-1.625497E-06
5.070110E+03	-1.204801E-06	-1.453476E-06
5.080013E+03	-1.043627E-06	-1.264867E-06
5.089915E+03	-8.736037E-07	-1.063433E-06
5.099818E+03	-6.920867E-07	-8.461456E-07
5.109720E+03	-4.994427E-07	-6.132707E-07
5.119623E+03	-2.960490E-07	-3.650942E-07
5.129525E+03	-8.614626E-08	-1.066707E-07
5.139428E+03	1.335239E-07	1.660080E-07
5.149331E+03	3.625364E-07	4.525608E-07
5.159233E+03	6.004527E-07	7.525814E-07
5.169136E+03	8.421566E-07	1.059528E-06
5.179038E+03	1.091638E-06	1.378600E-06
5.188941E+03	1.348410E-06	1.709294E-06
5.198843E+03	1.612002E-06	2.051119E-06
5.208746E+03	1.876268E-06	2.395791E-06
5.218648E+03	2.146084E-06	2.749956E-06
5.228551E+03	2.420886E-06	3.112966E-06
5.238454E+03	2.700109E-06	3.484161E-06
5.248356E+03	2.976638E-06	3.853557E-06
5.258259E+03	3.256168E-06	4.229199E-06
5.268161E+03	3.538109E-06	4.610361E-06
5.278064E+03	3.821824E-06	4.996244E-06
5.285410E+03	2.857889E-06	3.744718E-06
5.285609E+03	2.867527E-06	3.757582E-06
5.287193E+03	2.889834E-06	3.788693E-06
5.287589E+03	2.901146E-06	3.803995E-06
5.287787E+03	2.910646E-06	3.816687E-06
5.287985E+03	2.919850E-06	3.828991E-06
5.288777E+03	2.934593E-06	3.849270E-06
5.289966E+03	2.952801E-06	3.874580E-06
5.290362E+03	2.963437E-06	3.889013E-06
5.290560E+03	2.972769E-06	3.901498E-06
5.290759E+03	2.982116E-06	3.914005E-06
5.291155E+03	2.992494E-06	3.928108E-06
5.291551E+03	3.003427E-06	3.942940E-06
5.291947E+03	3.014015E-06	3.957323E-06
5.292145E+03	3.022213E-06	3.968329E-06
5.293136E+03	3.037722E-06	3.989910E-06
5.293532E+03	3.047772E-06	4.003597E-06
5.294522E+03	3.064005E-06	4.026145E-06
5.294720E+03	3.072131E-06	4.037067E-06
5.294918E+03	3.080133E-06	4.047829E-06
5.295116E+03	3.087942E-06	4.058338E-06
5.295314E+03	3.095671E-06	4.068742E-06
5.295710E+03	3.105389E-06	4.082010E-06
5.295908E+03	3.112802E-06	4.092002E-06
5.296305E+03	3.122008E-06	4.104601E-06
5.296502E+03	3.129391E-06	4.114556E-06
5.296899E+03	3.138365E-06	4.126854E-06
5.297691E+03	3.151156E-06	4.144676E-06
5.298285E+03	3.162276E-06	4.160053E-06
5.298483E+03	3.169418E-06	4.169700E-06
5.299869E+03	3.187702E-06	4.195522E-06
5.300067E+03	3.194256E-06	4.204402E-06
5.300463E+03	3.202753E-06	4.216091E-06
5.301256E+03	3.215077E-06	4.233330E-06
5.301653E+03	3.223214E-06	4.244554E-06
5.302643E+03	3.237400E-06	4.264513E-06
5.303435E+03	3.249168E-06	4.281035E-06
5.304227E+03	3.261363E-06	4.298128E-06
5.304624E+03	3.269643E-06	4.309553E-06
5.305218E+03	3.279352E-06	4.323124E-06
5.305416E+03	3.284793E-06	4.330554E-06
5.305812E+03	3.292969E-06	4.341849E-06
5.306010E+03	3.298406E-06	4.349276E-06
5.306605E+03	3.307989E-06	4.362691E-06
5.307001E+03	3.315737E-06	4.373426E-06
5.307397E+03	3.323282E-06	4.383898E-06
5.307595E+03	3.328046E-06	4.390442E-06
5.308387E+03	3.339453E-06	4.406535E-06
5.309180E+03	3.350589E-06	4.422272E-06
5.309575E+03	3.357714E-06	4.432198E-06
5.309971E+03	3.364444E-06	4.441606E-06
5.310169E+03	3.368842E-06	4.447674E-06
5.310367E+03	3.372965E-06	4.453380E-06
5.310565E+03	3.376942E-06	4.458893E-06
5.310961E+03	3.383217E-06	4.467704E-06
5.311753E+03	3.393988E-06	4.482982E-06
5.312150E+03	3.400163E-06	4.491665E-06
5.312348E+03	3.404137E-06	4.497180E-06
5.312547E+03	3.407504E-06	4.501891E-06
5.313537E+03	3.419644E-06	4.519255E-06
5.315121E+03	3.438514E-06	4.546313E-06
5.315715E+03	3.446325E-06	4.557438E-06
5.315913E+03	3.449399E-06	4.561770E-06
5.316904E+03	3.461248E-06	4.578774E-06
5.317499E+03	3.469160E-06	4.590041E-06
5.317697E+03	3.472159E-06	4.594274E-06
5.319677E+03	3.495244E-06	4.627502E-06
5.319875E+03	3.497520E-06	4.630783E-06
5.320073E+03	3.499993E-06	4.634325E-06
5.320272E+03	3.502677E-06	4.638146E-06
5.320668E+03	3.507066E-06	4.644495E-06
5.320865E+03	3.509310E-06	4.647733E-06
5.321262E+03	3.513335E-06	4.653601E-06
5.321460E+03	3.515029E-06	4.656113E-06
5.321657E+03	3.517051E-06	4.659058E-06
5.323242E+03	3.535244E-06	4.685316E-06
5.323836E+03	3.541508E-06	4.694425E-06
5.324035E+03	3.542942E-06	4.696595E-06
5.324629E+03	3.549040E-06	4.705487E-06
5.324827E+03	3.550176E-06	4.707263E-06
5.325025E+03	3.551163E-06	4.708842E-06
5.325223E+03	3.552047E-06	4.710283E-06
5.325421E+03	3.552713E-06	4.711435E-06
5.325619E+03	3.553233E-06	4.712395E-06
5.325817E+03	3.553675E-06	4.713250E-06
5.326015E+03	3.553940E-06	4.713870E-06
5.326213E+03	3.554058E-06	4.714296E-06
5.326807E+03	3.558823E-06	4.721425E-06
5.327005E+03	3.558631E-06	4.721439E-06
5.327997E+03	3.568196E-06	4.735477E-06
5.328195E+03	3.567753E-06	4.735158E-06
5.328789E+03	3.572000E-06	4.741605E-06
5.328987E+03	3.571171E-06	4.740773E-06
5.329977E+03	3.580441E-06	4.754425E-06
5.330175E+03	3.579468E-06	4.753402E-06
5.331363E+03	3.590835E-06	4.770118E-06
5.332156E+03	3.596926E-06	4.779287E-06
5.332354E+03	3.595535E-06	4.777708E-06
5.332552E+03	3.593921E-06	4.775833E-06
5.332750E+03	3.592225E-06	4.773849E-06
5.333146E+03	3.592916E-06	4.775304E-06
5.333344E+03	3.591024E-06	4.773058E-06
5.333741E+03	3.591572E-06	4.774325E-06
5.334334E+03	3.594491E-06	4.779009E-06
5.334532E+03	3.592185E-06	4.776211E-06
5.334730E+03	3.589892E-06	4.773429E-06
5.336513E+03	3.608369E-06	4.800416E-06
5.337305E+03	3.613530E-06	4.808359E-06
5.337701E+03	3.613278E-06	4.808560E-06
5.337899E+03	3.610474E-06	4.805096E-06
5.338890E+03	3.618138E-06	4.816639E-06
5.339286E+03	3.617520E-06	4.816353E-06
5.340475E+03	3.627564E-06	4.831333E-06
5.340673E+03	3.624287E-06	4.827237E-06
5.341267E+03	3.626294E-06	4.830713E-06
5.341465E+03	3.622608E-06	4.826071E-06
5.341861E+03	3.621452E-06	4.825064E-06
5.343049E+03	3.631194E-06	4.839648E-06
5.343247E+03	3.626893E-06	4.834182E-06
5.343645E+03	3.625551E-06	4.832928E-06
5.343843E+03	3.620835E-06	4.826908E-06
5.344041E+03	3.616323E-06	4.821159E-06
5.344437E+03	3.614339E-06	4.819044E-06
5.344635E+03	3.609792E-06	4.813247E-06
5.345031E+03	3.607894E-06	4.811243E-06
5.346218E+03	3.616747E-06	4.824635E-06
5.346416E+03	3.611288E-06	4.817618E-06
5.348001E+03	3.625452E-06	4.838634E-06
5.348397E+03	3.622671E-06	4.835449E-06
5.348595E+03	3.617110E-06	4.828291E-06
5.348992E+03	3.614242E-06	4.824991E-06
5.349190E+03	3.608107E-06	4.817063E-06
5.349586E+03	3.604770E-06	4.813131E-06
5.350180E+03	3.604256E-06	4.813230E-06
5.351369E+03	3.612184E-06	4.825391E-06
5.351567E+03	3.605741E-06	4.817047E-06
5.351765E+03	3.599278E-06	4.808673E-06
5.351963E+03	3.592334E-06	4.799656E-06
5.352557E+03	3.591234E-06	4.798965E-06
5.352953E+03	3.586804E-06	4.793564E-06
5.353547E+03	3.585265E-06	4.792285E-06
5.353745E+03	3.577710E-06	4.782444E-06
5.353943E+03	3.569980E-06	4.772369E-06
5.354538E+03	3.568100E-06	4.770630E-06
5.354736E+03	3.560227E-06	4.760360E-06
5.355132E+03	3.555000E-06	4.753882E-06
5.355529E+03	3.549493E-06	4.747030E-06
5.356321E+03	3.549725E-06	4.748361E-06
5.356519E+03	3.541224E-06	4.737244E-06
5.357310E+03	3.541472E-06	4.738592E-06
5.357905E+03	3.538332E-06	4.735153E-06
5.358103E+03	3.529227E-06	4.723221E-06
5.358300E+03	3.520163E-06	4.711341E-06
5.359291E+03	3.522640E-06	4.715916E-06
5.359490E+03	3.513189E-06	4.703516E-06
5.360084E+03	3.509460E-06	4.699277E-06
5.360480E+03	3.502504E-06	4.690462E-06
5.360678E+03	3.492751E-06	4.677650E-06
5.360876E+03	3.483057E-06	4.664917E-06
5.361074E+03	3.473018E-06	4.651718E-06
5.361470E+03	3.465533E-06	4.642186E-06
5.362064E+03	3.461417E-06	4.637410E-06
5.363253E+03	3.465880E-06	4.644868E-06
5.363847E+03	3.460825E-06	4.638831E-06
5.364045E+03	3.449701E-06	4.624166E-06
5.364243E+03	3.438626E-06	4.609564E-06
5.365036E+03	3.436225E-06	4.607320E-06
5.365234E+03	3.424977E-06	4.592482E-06
5.365432E+03	3.413453E-06	4.577270E-06
5.365828E+03	3.404687E-06	4.565996E-06
5.366026E+03	3.392915E-06	4.550448E-06
5.367215E+03	3.395791E-06	4.555745E-06
5.367611E+03	3.386802E-06	4.544161E-06
5.367809E+03	3.374517E-06	4.527916E-06
5.368403E+03	3.368028E-06	4.519920E-06
5.368799E+03	3.358845E-06	4.508070E-06
5.369392E+03	3.352000E-06	4.499587E-06
5.370186E+03	3.348207E-06	4.495437E-06
5.370581E+03	3.338260E-06	4.482549E-06
5.370780E+03	3.324984E-06	4.464957E-06
5.371770E+03	3.323257E-06	4.463800E-06
5.371968E+03	3.309828E-06	4.445993E-06
5.372166E+03	3.296115E-06	4.427803E-06
5.372364E+03	3.282369E-06	4.409567E-06
5.372562E+03	3.268505E-06	4.391171E-06
5.372760E+03	3.254822E-06	4.373015E-06
5.372958E+03	3.240683E-06	4.354245E-06
5.373156E+03	3.226511E-06	4.335429E-06
5.374146E+03	3.223626E-06	4.332673E-06
5.374543E+03	3.211948E-06	4.317425E-06
5.375336E+03	3.206084E-06	4.310436E-06
5.375732E+03	3.194321E-06	4.295065E-06
5.375930E+03	3.179286E-06	4.275070E-06
5.376128E+03	3.164178E-06	4.254975E-06
5.376524E+03	3.151725E-06	4.238666E-06
5.376722E+03	3.136359E-06	4.218218E-06
5.376920E+03	3.120958E-06	4.197720E-06
5.377118E+03	3.105297E-06	4.176872E-06
5.377316E+03	3.089775E-06	4.156207E-06
5.377514E+03	3.073873E-06	4.135029E-06
5.378108E+03	3.063411E-06	4.121591E-06
5.378505E+03	3.050250E-06	4.104305E-06
5.378703E+03	3.034053E-06	4.082721E-06
5.379297E+03	3.023272E-06	4.068840E-06
5.379693E+03	3.009619E-06	4.050880E-06
5.379891E+03	2.992869E-06	4.028540E-06
5.380684E+03	2.984368E-06	4.017921E-06
5.381278E+03	2.972870E-06	4.003055E-06
5.381476E+03	2.955821E-06	3.980301E-06
5.381871E+03	2.941505E-06	3.961426E-06
5.382069E+03	2.924139E-06	3.938239E-06
5.382268E+03	2.906740E-06	3.915007E-06
5.382467E+03	2.889381E-06	3.891825E-06
5.382862E+03	2.874453E-06	3.872110E-06
5.383060E+03	2.856775E-06	3.848492E-06
5.384248E+03	2.852148E-06	3.843431E-06
5.384446E+03	2.833931E-06	3.819077E-06
5.384644E+03	2.815714E-06	3.794719E-06
5.384842E+03	2.797367E-06	3.770184E-06
5.385040E+03	2.778890E-06	3.745472E-06
5.385238E+03	2.760551E-06	3.720942E-06
5.386031E+03	2.749653E-06	3.707003E-06
5.386230E+03	2.730935E-06	3.681954E-06
5.386428E+03	2.712175E-06	3.656846E-06
5.387022E+03	2.698252E-06	3.638625E-06
5.387220E+03	2.679039E-06	3.612897E-06
5.387418E+03	2.660055E-06	3.587477E-06
5.387616E+03	2.640575E-06	3.561385E-06
5.387814E+03	2.620868E-06	3.534984E-06
5.388606E+03	2.608691E-06	3.519268E-06
5.388804E+03	2.588864E-06	3.492695E-06
5.389200E+03	2.571339E-06	3.469401E-06
5.389398E+03	2.551309E-06	3.442547E-06
5.389992E+03	2.536119E-06	3.422567E-06
5.390191E+03	2.515900E-06	3.395450E-06
5.390389E+03	2.495730E-06	3.368398E-06
5.390587E+03	2.475328E-06	3.341030E-06
5.390785E+03	2.454915E-06	3.313644E-06
5.391578E+03	2.441496E-06	3.296191E-06
5.391974E+03	2.423244E-06	3.271876E-06
5.392172E+03	2.402418E-06	3.243919E-06
