#wls	flux	fluxerr
1.584409E+03	1.694458E-03	0.000000E+00
1.624020E+03	1.754673E-03	0.000000E+00
1.663630E+03	1.814289E-03	0.000000E+00
1.703240E+03	1.873082E-03	0.000000E+00
1.742850E+03	1.930392E-03	0.000000E+00
1.782461E+03	1.986277E-03	0.000000E+00
1.822071E+03	2.039770E-03	0.000000E+00
1.861681E+03	2.090633E-03	0.000000E+00
1.901291E+03	2.138183E-03	0.000000E+00
1.940902E+03	2.181889E-03	0.000000E+00
1.980512E+03	2.220993E-03	0.000000E+00
2.020122E+03	2.254894E-03	0.000000E+00
2.059732E+03	2.282800E-03	0.000000E+00
2.099342E+03	2.304096E-03	0.000000E+00
2.138953E+03	2.317856E-03	0.000000E+00
2.178563E+03	2.323543E-03	0.000000E+00
2.218173E+03	2.320523E-03	0.000000E+00
2.257783E+03	2.308698E-03	0.000000E+00
2.297394E+03	2.288142E-03	0.000000E+00
2.337004E+03	2.258821E-03	0.000000E+00
2.376614E+03	2.221132E-03	0.000000E+00
2.416224E+03	2.175338E-03	0.000000E+00
2.455835E+03	2.121736E-03	0.000000E+00
2.495445E+03	2.060679E-03	0.000000E+00
2.535055E+03	1.992488E-03	0.000000E+00
2.574665E+03	1.917763E-03	0.000000E+00
2.614276E+03	1.837019E-03	0.000000E+00
2.653886E+03	1.750835E-03	0.000000E+00
2.693496E+03	1.660013E-03	0.000000E+00
2.733106E+03	1.565310E-03	0.000000E+00
2.772716E+03	1.467616E-03	0.000000E+00
2.812327E+03	1.367902E-03	0.000000E+00
2.851937E+03	1.267256E-03	0.000000E+00
2.891547E+03	1.167169E-03	0.000000E+00
2.931157E+03	1.069236E-03	0.000000E+00
2.970768E+03	9.749766E-04	0.000000E+00
2.980670E+03	9.521257E-04	0.000000E+00
2.990573E+03	9.296177E-04	0.000000E+00
3.000475E+03	9.074132E-04	0.000000E+00
3.010378E+03	8.855814E-04	0.000000E+00
3.020280E+03	8.641031E-04	0.000000E+00
3.030183E+03	8.429816E-04	0.000000E+00
3.040086E+03	8.222380E-04	0.000000E+00
3.049988E+03	8.018907E-04	0.000000E+00
3.059891E+03	7.819218E-04	0.000000E+00
3.069793E+03	7.623645E-04	0.000000E+00
3.079696E+03	7.432002E-04	0.000000E+00
3.089598E+03	7.244433E-04	0.000000E+00
3.099501E+03	7.061053E-04	0.000000E+00
3.109403E+03	6.881815E-04	0.000000E+00
3.119306E+03	6.706547E-04	0.000000E+00
3.129209E+03	6.535607E-04	0.000000E+00
3.139111E+03	6.368677E-04	0.000000E+00
3.149014E+03	6.205953E-04	0.000000E+00
3.158916E+03	6.047369E-04	0.000000E+00
3.168819E+03	5.892857E-04	0.000000E+00
3.178721E+03	5.742357E-04	0.000000E+00
3.188624E+03	5.596002E-04	0.000000E+00
3.198526E+03	5.453611E-04	0.000000E+00
3.208429E+03	5.315116E-04	0.000000E+00
3.218332E+03	5.180533E-04	0.000000E+00
3.228234E+03	5.049866E-04	0.000000E+00
3.238137E+03	4.922948E-04	0.000000E+00
3.248039E+03	4.799781E-04	0.000000E+00
3.257942E+03	4.680281E-04	0.000000E+00
3.267844E+03	4.564439E-04	0.000000E+00
3.277747E+03	4.452098E-04	0.000000E+00
3.287650E+03	4.343182E-04	0.000000E+00
3.297552E+03	4.237739E-04	0.000000E+00
3.307455E+03	4.135559E-04	0.000000E+00
3.317357E+03	4.036629E-04	0.000000E+00
3.327260E+03	3.940924E-04	0.000000E+00
3.337162E+03	3.848256E-04	0.000000E+00
3.347065E+03	3.758658E-04	0.000000E+00
3.356967E+03	3.671953E-04	0.000000E+00
3.366870E+03	3.588074E-04	0.000000E+00
3.376773E+03	3.507002E-04	0.000000E+00
3.386675E+03	3.428621E-04	0.000000E+00
3.396578E+03	3.352870E-04	0.000000E+00
3.406480E+03	3.279605E-04	0.000000E+00
3.416383E+03	3.208813E-04	0.000000E+00
3.426285E+03	3.140400E-04	0.000000E+00
3.436188E+03	3.074241E-04	0.000000E+00
3.446090E+03	3.010294E-04	0.000000E+00
3.455993E+03	2.948445E-04	0.000000E+00
3.465896E+03	2.888624E-04	0.000000E+00
3.475798E+03	2.830768E-04	0.000000E+00
3.485701E+03	2.774753E-04	0.000000E+00
3.495603E+03	2.720470E-04	0.000000E+00
3.505506E+03	2.667787E-04	0.000000E+00
3.515408E+03	2.616567E-04	0.000000E+00
3.525311E+03	2.566679E-04	0.000000E+00
3.535213E+03	2.518011E-04	0.000000E+00
3.545116E+03	2.470435E-04	0.000000E+00
3.555019E+03	2.423839E-04	0.000000E+00
3.564921E+03	2.378167E-04	0.000000E+00
3.574824E+03	2.333300E-04	0.000000E+00
3.584726E+03	2.289199E-04	0.000000E+00
3.594629E+03	2.245906E-04	0.000000E+00
3.604531E+03	2.203416E-04	0.000000E+00
3.614434E+03	2.161764E-04	0.000000E+00
3.624337E+03	2.120972E-04	0.000000E+00
3.634239E+03	2.081082E-04	0.000000E+00
3.644142E+03	2.042108E-04	0.000000E+00
3.654044E+03	2.004037E-04	0.000000E+00
3.663947E+03	1.966929E-04	0.000000E+00
3.673849E+03	1.930748E-04	0.000000E+00
3.683752E+03	1.895526E-04	0.000000E+00
3.693654E+03	1.861252E-04	0.000000E+00
3.703557E+03	1.827934E-04	0.000000E+00
3.713460E+03	1.795558E-04	0.000000E+00
3.723362E+03	1.764109E-04	0.000000E+00
3.733265E+03	1.733599E-04	0.000000E+00
3.743167E+03	1.704009E-04	0.000000E+00
3.753070E+03	1.675334E-04	0.000000E+00
3.762972E+03	1.647537E-04	0.000000E+00
3.772875E+03	1.620637E-04	0.000000E+00
3.782777E+03	1.594597E-04	0.000000E+00
3.792680E+03	1.569417E-04	0.000000E+00
3.802583E+03	1.545062E-04	0.000000E+00
3.812485E+03	1.521542E-04	0.000000E+00
3.822388E+03	1.498808E-04	0.000000E+00
3.832290E+03	1.476870E-04	0.000000E+00
3.842193E+03	1.455703E-04	0.000000E+00
3.852095E+03	1.435280E-04	0.000000E+00
3.861998E+03	1.415588E-04	0.000000E+00
3.871900E+03	1.396612E-04	0.000000E+00
3.881803E+03	1.378338E-04	0.000000E+00
3.891706E+03	1.360742E-04	0.000000E+00
3.901608E+03	1.343798E-04	0.000000E+00
3.911511E+03	1.327504E-04	0.000000E+00
3.921413E+03	1.311846E-04	0.000000E+00
3.931316E+03	1.296781E-04	0.000000E+00
3.941218E+03	1.282316E-04	0.000000E+00
3.951121E+03	1.268429E-04	0.000000E+00
3.961024E+03	1.255108E-04	0.000000E+00
3.970926E+03	1.242321E-04	0.000000E+00
3.980829E+03	1.230059E-04	0.000000E+00
3.990731E+03	1.218319E-04	0.000000E+00
4.000634E+03	1.207072E-04	0.000000E+00
4.010536E+03	1.196308E-04	0.000000E+00
4.020439E+03	1.186010E-04	0.000000E+00
4.030341E+03	1.176168E-04	0.000000E+00
4.040244E+03	1.166763E-04	0.000000E+00
4.050147E+03	1.157789E-04	0.000000E+00
4.060049E+03	1.149228E-04	0.000000E+00
4.069952E+03	1.141065E-04	0.000000E+00
4.079854E+03	1.133292E-04	0.000000E+00
4.089757E+03	1.125902E-04	0.000000E+00
4.099659E+03	1.118874E-04	0.000000E+00
4.109562E+03	1.112208E-04	0.000000E+00
4.119464E+03	1.105883E-04	0.000000E+00
4.129367E+03	1.099894E-04	0.000000E+00
4.139270E+03	1.094236E-04	0.000000E+00
4.149172E+03	1.088896E-04	0.000000E+00
4.159075E+03	1.083862E-04	0.000000E+00
4.168977E+03	1.079131E-04	0.000000E+00
4.178880E+03	1.074690E-04	0.000000E+00
4.188782E+03	1.070538E-04	0.000000E+00
4.198685E+03	1.066670E-04	0.000000E+00
4.208587E+03	1.063077E-04	0.000000E+00
4.218490E+03	1.059740E-04	0.000000E+00
4.228393E+03	1.056674E-04	0.000000E+00
4.238295E+03	1.053861E-04	0.000000E+00
4.248198E+03	1.051299E-04	0.000000E+00
4.258100E+03	1.048973E-04	0.000000E+00
4.268003E+03	1.046889E-04	0.000000E+00
4.277905E+03	1.045040E-04	0.000000E+00
4.287808E+03	1.043416E-04	0.000000E+00
4.297711E+03	1.042019E-04	0.000000E+00
4.307613E+03	1.040841E-04	0.000000E+00
4.317516E+03	1.039900E-04	0.000000E+00
4.327418E+03	1.039179E-04	0.000000E+00
4.337321E+03	1.038682E-04	0.000000E+00
4.347223E+03	1.038410E-04	0.000000E+00
4.357126E+03	1.038348E-04	0.000000E+00
4.367028E+03	1.038500E-04	0.000000E+00
4.376931E+03	1.038859E-04	0.000000E+00
4.386834E+03	1.039413E-04	0.000000E+00
4.396736E+03	1.040172E-04	0.000000E+00
4.406639E+03	1.041123E-04	0.000000E+00
4.416541E+03	1.042263E-04	0.000000E+00
4.426444E+03	1.043578E-04	0.000000E+00
4.436346E+03	1.045081E-04	0.000000E+00
4.446249E+03	1.046767E-04	0.000000E+00
4.456151E+03	1.048617E-04	0.000000E+00
4.466054E+03	1.050643E-04	0.000000E+00
4.475957E+03	1.052834E-04	0.000000E+00
4.485859E+03	1.055187E-04	0.000000E+00
4.495762E+03	1.057706E-04	0.000000E+00
4.505664E+03	1.060389E-04	0.000000E+00
4.515567E+03	1.063225E-04	0.000000E+00
4.525469E+03	1.066210E-04	0.000000E+00
4.535372E+03	1.069352E-04	0.000000E+00
4.545274E+03	1.072648E-04	0.000000E+00
4.555177E+03	1.076078E-04	0.000000E+00
4.565080E+03	1.079657E-04	0.000000E+00
4.574982E+03	1.083383E-04	0.000000E+00
4.584885E+03	1.087238E-04	0.000000E+00
4.594787E+03	1.091227E-04	0.000000E+00
4.604690E+03	1.095349E-04	0.000000E+00
4.614592E+03	1.099593E-04	0.000000E+00
4.624495E+03	1.103976E-04	0.000000E+00
4.634398E+03	1.108488E-04	0.000000E+00
4.644300E+03	1.113136E-04	0.000000E+00
4.654203E+03	1.117920E-04	0.000000E+00
4.664105E+03	1.122848E-04	0.000000E+00
4.674008E+03	1.127909E-04	0.000000E+00
4.683910E+03	1.133123E-04	0.000000E+00
4.693813E+03	1.138479E-04	0.000000E+00
4.703715E+03	1.144007E-04	0.000000E+00
4.713618E+03	1.149687E-04	0.000000E+00
4.723521E+03	1.155528E-04	0.000000E+00
4.733423E+03	1.161552E-04	0.000000E+00
4.743326E+03	1.167749E-04	0.000000E+00
4.753228E+03	1.174140E-04	0.000000E+00
4.763131E+03	1.180705E-04	0.000000E+00
4.773033E+03	1.187467E-04	0.000000E+00
4.782936E+03	1.194426E-04	0.000000E+00
4.792838E+03	1.201574E-04	0.000000E+00
4.802741E+03	1.208921E-04	0.000000E+00
4.812644E+03	1.216481E-04	0.000000E+00
4.822546E+03	1.224232E-04	0.000000E+00
4.832449E+03	1.232189E-04	0.000000E+00
4.842351E+03	1.240362E-04	0.000000E+00
4.852254E+03	1.248732E-04	0.000000E+00
4.862156E+03	1.257311E-04	0.000000E+00
4.872059E+03	1.266101E-04	0.000000E+00
4.881961E+03	1.275103E-04	0.000000E+00
4.891864E+03	1.284320E-04	0.000000E+00
4.901767E+03	1.293740E-04	0.000000E+00
4.911669E+03	1.303377E-04	0.000000E+00
4.921572E+03	1.313221E-04	0.000000E+00
4.931474E+03	1.323273E-04	0.000000E+00
4.941377E+03	1.333534E-04	0.000000E+00
4.951279E+03	1.344006E-04	0.000000E+00
4.961182E+03	1.354688E-04	0.000000E+00
4.971085E+03	1.365584E-04	0.000000E+00
4.980987E+03	1.376679E-04	0.000000E+00
4.990890E+03	1.387976E-04	0.000000E+00
5.000792E+03	1.399474E-04	0.000000E+00
5.010695E+03	1.411174E-04	0.000000E+00
5.020597E+03	1.423077E-04	0.000000E+00
5.030500E+03	1.435181E-04	0.000000E+00
5.040402E+03	1.447460E-04	0.000000E+00
5.050305E+03	1.459941E-04	0.000000E+00
5.060208E+03	1.472623E-04	0.000000E+00
5.070110E+03	1.485477E-04	0.000000E+00
5.080013E+03	1.498503E-04	0.000000E+00
5.089915E+03	1.511712E-04	0.000000E+00
5.099818E+03	1.525103E-04	0.000000E+00
5.109720E+03	1.538645E-04	0.000000E+00
5.119623E+03	1.552351E-04	0.000000E+00
5.129525E+03	1.566232E-04	0.000000E+00
5.139428E+03	1.580257E-04	0.000000E+00
5.149331E+03	1.594421E-04	0.000000E+00
5.159233E+03	1.608720E-04	0.000000E+00
5.169136E+03	1.623167E-04	0.000000E+00
5.179038E+03	1.637742E-04	0.000000E+00
5.188941E+03	1.652439E-04	0.000000E+00
5.198843E+03	1.667238E-04	0.000000E+00
5.208746E+03	1.682150E-04	0.000000E+00
5.218648E+03	1.697168E-04	0.000000E+00
5.228551E+03	1.712271E-04	0.000000E+00
5.238454E+03	1.727467E-04	0.000000E+00
5.248356E+03	1.742735E-04	0.000000E+00
5.258259E+03	1.758064E-04	0.000000E+00
5.268161E+03	1.773467E-04	0.000000E+00
5.278064E+03	1.788916E-04	0.000000E+00
5.287966E+03	1.804405E-04	0.000000E+00
5.297869E+03	1.819924E-04	0.000000E+00
5.307772E+03	1.835462E-04	0.000000E+00
5.317674E+03	1.851012E-04	0.000000E+00
5.327577E+03	1.866562E-04	0.000000E+00
5.337479E+03	1.882101E-04	0.000000E+00
5.347382E+03	1.897603E-04	0.000000E+00
5.357284E+03	1.913054E-04	0.000000E+00
5.367187E+03	1.928460E-04	0.000000E+00
5.377089E+03	1.943793E-04	0.000000E+00
5.386992E+03	1.959039E-04	0.000000E+00
5.396895E+03	1.974163E-04	0.000000E+00
5.406797E+03	1.989177E-04	0.000000E+00
5.416700E+03	2.004024E-04	0.000000E+00
5.426602E+03	2.018730E-04	0.000000E+00
5.436505E+03	2.033219E-04	0.000000E+00
5.446407E+03	2.047499E-04	0.000000E+00
5.456310E+03	2.061556E-04	0.000000E+00
5.466212E+03	2.075350E-04	0.000000E+00
5.476115E+03	2.088869E-04	0.000000E+00
5.486018E+03	2.102075E-04	0.000000E+00
5.495920E+03	2.114954E-04	0.000000E+00
5.505823E+03	2.127488E-04	0.000000E+00
5.515725E+03	2.139662E-04	0.000000E+00
5.525628E+03	2.151440E-04	0.000000E+00
5.535530E+03	2.162807E-04	0.000000E+00
5.545433E+03	2.173747E-04	0.000000E+00
5.555335E+03	2.184246E-04	0.000000E+00
5.565238E+03	2.194267E-04	0.000000E+00
5.575141E+03	2.203798E-04	0.000000E+00
5.585043E+03	2.212847E-04	0.000000E+00
5.594946E+03	2.221378E-04	0.000000E+00
5.604848E+03	2.229357E-04	0.000000E+00
5.614751E+03	2.236819E-04	0.000000E+00
5.624653E+03	2.243754E-04	0.000000E+00
5.634556E+03	2.250106E-04	0.000000E+00
5.644459E+03	2.255890E-04	0.000000E+00
5.654361E+03	2.261122E-04	0.000000E+00
5.664264E+03	2.265772E-04	0.000000E+00
5.674166E+03	2.269834E-04	0.000000E+00
5.684069E+03	2.273326E-04	0.000000E+00
5.693971E+03	2.276224E-04	0.000000E+00
5.703874E+03	2.278570E-04	0.000000E+00
5.713776E+03	2.280317E-04	0.000000E+00
5.723679E+03	2.281487E-04	0.000000E+00
5.733582E+03	2.282085E-04	0.000000E+00
5.743484E+03	2.282132E-04	0.000000E+00
5.753387E+03	2.281609E-04	0.000000E+00
5.763289E+03	2.280546E-04	0.000000E+00
5.773192E+03	2.278947E-04	0.000000E+00
5.783094E+03	2.276792E-04	0.000000E+00
5.792997E+03	2.274139E-04	0.000000E+00
5.802899E+03	2.270970E-04	0.000000E+00
5.812802E+03	2.267321E-04	0.000000E+00
5.822705E+03	2.263175E-04	0.000000E+00
5.832607E+03	2.258566E-04	0.000000E+00
5.842510E+03	2.253508E-04	0.000000E+00
5.852412E+03	2.248010E-04	0.000000E+00
5.862315E+03	2.242111E-04	0.000000E+00
5.872217E+03	2.235775E-04	0.000000E+00
5.882120E+03	2.229062E-04	0.000000E+00
5.892022E+03	2.221989E-04	0.000000E+00
5.901925E+03	2.214569E-04	0.000000E+00
5.911828E+03	2.206792E-04	0.000000E+00
5.921730E+03	2.198696E-04	0.000000E+00
5.931633E+03	2.190325E-04	0.000000E+00
5.941535E+03	2.181637E-04	0.000000E+00
5.951438E+03	2.172705E-04	0.000000E+00
5.961340E+03	2.163512E-04	0.000000E+00
5.971243E+03	2.154104E-04	0.000000E+00
5.981146E+03	2.144439E-04	0.000000E+00
5.991048E+03	2.134585E-04	0.000000E+00
6.000951E+03	2.124555E-04	0.000000E+00
6.010853E+03	2.114336E-04	0.000000E+00
6.020756E+03	2.103941E-04	0.000000E+00
6.030658E+03	2.093410E-04	0.000000E+00
6.040561E+03	2.082723E-04	0.000000E+00
6.050463E+03	2.071924E-04	0.000000E+00
6.060366E+03	2.060993E-04	0.000000E+00
6.070269E+03	2.049969E-04	0.000000E+00
6.080171E+03	2.038881E-04	0.000000E+00
6.090074E+03	2.027718E-04	0.000000E+00
6.099976E+03	2.016507E-04	0.000000E+00
6.109879E+03	2.005310E-04	0.000000E+00
6.119781E+03	1.994131E-04	0.000000E+00
6.129684E+03	1.983002E-04	0.000000E+00
6.139586E+03	1.971899E-04	0.000000E+00
6.149489E+03	1.960827E-04	0.000000E+00
6.159392E+03	1.949764E-04	0.000000E+00
6.169294E+03	1.938713E-04	0.000000E+00
6.179197E+03	1.927704E-04	0.000000E+00
6.189099E+03	1.916714E-04	0.000000E+00
6.199002E+03	1.905749E-04	0.000000E+00
6.208904E+03	1.894833E-04	0.000000E+00
6.218807E+03	1.884003E-04	0.000000E+00
6.228709E+03	1.873258E-04	0.000000E+00
6.238612E+03	1.862604E-04	0.000000E+00
6.248515E+03	1.852125E-04	0.000000E+00
6.258417E+03	1.841769E-04	0.000000E+00
6.268320E+03	1.831649E-04	0.000000E+00
6.278222E+03	1.821739E-04	0.000000E+00
6.288125E+03	1.812072E-04	0.000000E+00
6.298027E+03	1.802730E-04	0.000000E+00
6.307930E+03	1.793716E-04	0.000000E+00
6.317833E+03	1.785063E-04	0.000000E+00
6.327735E+03	1.776799E-04	0.000000E+00
6.337638E+03	1.768983E-04	0.000000E+00
6.347540E+03	1.761593E-04	0.000000E+00
6.357443E+03	1.754577E-04	0.000000E+00
6.367345E+03	1.747916E-04	0.000000E+00
6.377248E+03	1.741589E-04	0.000000E+00
6.387150E+03	1.735572E-04	0.000000E+00
6.397053E+03	1.729817E-04	0.000000E+00
6.406956E+03	1.724303E-04	0.000000E+00
6.416858E+03	1.719009E-04	0.000000E+00
6.426761E+03	1.713940E-04	0.000000E+00
6.436663E+03	1.709076E-04	0.000000E+00
6.446566E+03	1.704396E-04	0.000000E+00
6.456468E+03	1.699932E-04	0.000000E+00
6.466371E+03	1.695637E-04	0.000000E+00
6.476273E+03	1.691542E-04	0.000000E+00
6.486176E+03	1.687627E-04	0.000000E+00
6.496079E+03	1.683922E-04	0.000000E+00
6.505981E+03	1.680407E-04	0.000000E+00
6.515884E+03	1.677085E-04	0.000000E+00
6.525786E+03	1.673959E-04	0.000000E+00
6.535689E+03	1.671061E-04	0.000000E+00
6.545591E+03	1.668338E-04	0.000000E+00
6.555494E+03	1.665846E-04	0.000000E+00
6.565396E+03	1.663560E-04	0.000000E+00
6.575299E+03	1.661480E-04	0.000000E+00
6.585202E+03	1.659635E-04	0.000000E+00
6.595104E+03	1.657969E-04	0.000000E+00
6.605007E+03	1.656537E-04	0.000000E+00
6.614909E+03	1.655311E-04	0.000000E+00
6.624812E+03	1.654290E-04	0.000000E+00
6.634714E+03	1.653503E-04	0.000000E+00
6.644617E+03	1.652922E-04	0.000000E+00
6.654520E+03	1.652544E-04	0.000000E+00
6.664422E+03	1.652371E-04	0.000000E+00
6.674325E+03	1.652429E-04	0.000000E+00
6.684227E+03	1.652691E-04	0.000000E+00
6.694130E+03	1.653156E-04	0.000000E+00
6.704032E+03	1.653851E-04	0.000000E+00
6.713935E+03	1.654745E-04	0.000000E+00
6.723837E+03	1.655837E-04	0.000000E+00
6.733740E+03	1.657155E-04	0.000000E+00
6.743643E+03	1.658635E-04	0.000000E+00
6.753545E+03	1.660335E-04	0.000000E+00
6.763448E+03	1.662250E-04	0.000000E+00
6.773350E+03	1.664317E-04	0.000000E+00
6.783253E+03	1.666590E-04	0.000000E+00
6.793155E+03	1.669035E-04	0.000000E+00
6.803058E+03	1.671644E-04	0.000000E+00
6.812960E+03	1.674412E-04	0.000000E+00
6.822863E+03	1.677331E-04	0.000000E+00
6.832766E+03	1.680426E-04	0.000000E+00
6.842668E+03	1.683628E-04	0.000000E+00
6.852571E+03	1.686993E-04	0.000000E+00
6.862473E+03	1.690449E-04	0.000000E+00
6.872376E+03	1.694055E-04	0.000000E+00
6.882278E+03	1.697739E-04	0.000000E+00
6.892181E+03	1.701559E-04	0.000000E+00
6.902083E+03	1.705444E-04	0.000000E+00
6.911986E+03	1.709422E-04	0.000000E+00
6.921889E+03	1.713487E-04	0.000000E+00
6.931791E+03	1.717601E-04	0.000000E+00
6.941694E+03	1.721827E-04	0.000000E+00
6.951596E+03	1.726094E-04	0.000000E+00
6.961499E+03	1.730400E-04	0.000000E+00
6.971401E+03	1.734776E-04	0.000000E+00
6.981304E+03	1.739220E-04	0.000000E+00
6.991207E+03	1.743700E-04	0.000000E+00
7.001109E+03	1.748212E-04	0.000000E+00
7.011012E+03	1.752791E-04	0.000000E+00
7.020914E+03	1.757406E-04	0.000000E+00
7.030817E+03	1.762053E-04	0.000000E+00
7.040719E+03	1.766736E-04	0.000000E+00
7.050622E+03	1.771492E-04	0.000000E+00
7.060524E+03	1.776248E-04	0.000000E+00
7.070427E+03	1.781081E-04	0.000000E+00
7.080330E+03	1.785915E-04	0.000000E+00
7.090232E+03	1.790791E-04	0.000000E+00
7.100135E+03	1.795709E-04	0.000000E+00
7.110037E+03	1.800670E-04	0.000000E+00
7.119940E+03	1.805638E-04	0.000000E+00
7.129842E+03	1.810650E-04	0.000000E+00
7.139745E+03	1.815704E-04	0.000000E+00
7.149647E+03	1.820768E-04	0.000000E+00
7.159550E+03	1.825835E-04	0.000000E+00
7.169453E+03	1.830945E-04	0.000000E+00
7.179355E+03	1.836061E-04	0.000000E+00
7.189258E+03	1.841180E-04	0.000000E+00
7.199160E+03	1.846341E-04	0.000000E+00
7.209063E+03	1.851503E-04	0.000000E+00
7.218965E+03	1.856669E-04	0.000000E+00
7.228868E+03	1.861917E-04	0.000000E+00
7.238770E+03	1.867126E-04	0.000000E+00
7.248673E+03	1.872419E-04	0.000000E+00
7.258576E+03	1.877712E-04	0.000000E+00
7.268478E+03	1.883089E-04	0.000000E+00
7.278381E+03	1.888511E-04	0.000000E+00
7.288283E+03	1.894015E-04	0.000000E+00
7.298186E+03	1.899648E-04	0.000000E+00
7.308088E+03	1.905365E-04	0.000000E+00
7.317991E+03	1.911295E-04	0.000000E+00
7.327894E+03	1.917398E-04	0.000000E+00
7.337796E+03	1.923671E-04	0.000000E+00
7.347699E+03	1.930295E-04	0.000000E+00
7.357601E+03	1.937137E-04	0.000000E+00
7.367504E+03	1.944333E-04	0.000000E+00
7.377406E+03	1.951885E-04	0.000000E+00
7.387309E+03	1.959702E-04	0.000000E+00
7.397211E+03	1.967737E-04	0.000000E+00
7.407114E+03	1.975987E-04	0.000000E+00
7.417017E+03	1.984400E-04	0.000000E+00
7.426919E+03	1.992974E-04	0.000000E+00
7.436822E+03	2.001652E-04	0.000000E+00
7.446724E+03	2.010379E-04	0.000000E+00
7.456627E+03	2.019146E-04	0.000000E+00
7.466529E+03	2.027943E-04	0.000000E+00
7.476432E+03	2.036709E-04	0.000000E+00
7.486334E+03	2.045483E-04	0.000000E+00
7.496237E+03	2.054152E-04	0.000000E+00
7.506140E+03	2.062803E-04	0.000000E+00
7.516042E+03	2.071376E-04	0.000000E+00
7.525945E+03	2.079803E-04	0.000000E+00
7.535847E+03	2.088126E-04	0.000000E+00
7.545750E+03	2.096278E-04	0.000000E+00
7.555652E+03	2.104299E-04	0.000000E+00
7.565555E+03	2.112181E-04	0.000000E+00
7.575457E+03	2.119856E-04	0.000000E+00
7.585360E+03	2.127366E-04	0.000000E+00
7.595263E+03	2.134649E-04	0.000000E+00
7.605165E+03	2.141749E-04	0.000000E+00
7.615068E+03	2.148655E-04	0.000000E+00
7.624970E+03	2.155301E-04	0.000000E+00
7.634873E+03	2.161736E-04	0.000000E+00
7.644775E+03	2.167949E-04	0.000000E+00
7.654678E+03	2.173931E-04	0.000000E+00
7.664581E+03	2.179672E-04	0.000000E+00
7.674483E+03	2.185162E-04	0.000000E+00
7.684386E+03	2.190391E-04	0.000000E+00
