#wls	flux	fluxerr
1.584409E+03	2.089399E-03	0.000000E+00
1.624020E+03	2.166215E-03	0.000000E+00
1.663630E+03	2.242284E-03	0.000000E+00
1.703240E+03	2.317000E-03	0.000000E+00
1.742850E+03	2.389916E-03	0.000000E+00
1.782461E+03	2.460279E-03	0.000000E+00
1.822071E+03	2.527499E-03	0.000000E+00
1.861681E+03	2.590911E-03	0.000000E+00
1.901291E+03	2.649556E-03	0.000000E+00
1.940902E+03	2.702650E-03	0.000000E+00
1.980512E+03	2.749361E-03	0.000000E+00
2.020122E+03	2.788824E-03	0.000000E+00
2.059732E+03	2.819951E-03	0.000000E+00
2.099342E+03	2.841886E-03	0.000000E+00
2.138953E+03	2.853420E-03	0.000000E+00
2.178563E+03	2.853473E-03	0.000000E+00
2.218173E+03	2.840414E-03	0.000000E+00
2.257783E+03	2.812968E-03	0.000000E+00
2.297394E+03	2.772004E-03	0.000000E+00
2.337004E+03	2.718990E-03	0.000000E+00
2.376614E+03	2.654966E-03	0.000000E+00
2.416224E+03	2.580636E-03	0.000000E+00
2.455835E+03	2.496602E-03	0.000000E+00
2.495445E+03	2.403645E-03	0.000000E+00
2.535055E+03	2.302392E-03	0.000000E+00
2.574665E+03	2.193793E-03	0.000000E+00
2.614276E+03	2.078700E-03	0.000000E+00
2.653886E+03	1.957970E-03	0.000000E+00
2.693496E+03	1.832790E-03	0.000000E+00
2.733106E+03	1.704295E-03	0.000000E+00
2.772716E+03	1.573751E-03	0.000000E+00
2.812327E+03	1.442498E-03	0.000000E+00
2.851937E+03	1.312028E-03	0.000000E+00
2.891547E+03	1.184102E-03	0.000000E+00
2.931157E+03	1.060664E-03	0.000000E+00
2.970768E+03	9.434154E-04	0.000000E+00
2.980670E+03	9.152271E-04	0.000000E+00
2.990573E+03	8.875600E-04	0.000000E+00
3.000475E+03	8.603800E-04	0.000000E+00
3.010378E+03	8.337168E-04	0.000000E+00
3.020280E+03	8.076140E-04	0.000000E+00
3.030183E+03	7.820403E-04	0.000000E+00
3.040086E+03	7.570354E-04	0.000000E+00
3.049988E+03	7.326018E-04	0.000000E+00
3.059891E+03	7.087417E-04	0.000000E+00
3.069793E+03	6.854570E-04	0.000000E+00
3.079696E+03	6.627761E-04	0.000000E+00
3.089598E+03	6.406835E-04	0.000000E+00
3.099501E+03	6.191903E-04	0.000000E+00
3.109403E+03	5.982930E-04	0.000000E+00
3.119306E+03	5.779880E-04	0.000000E+00
3.129209E+03	5.582816E-04	0.000000E+00
3.139111E+03	5.391778E-04	0.000000E+00
3.149014E+03	5.206492E-04	0.000000E+00
3.158916E+03	5.027182E-04	0.000000E+00
3.168819E+03	4.853655E-04	0.000000E+00
3.178721E+03	4.685908E-04	0.000000E+00
3.188624E+03	4.523833E-04	0.000000E+00
3.198526E+03	4.367248E-04	0.000000E+00
3.208429E+03	4.216266E-04	0.000000E+00
3.218332E+03	4.070549E-04	0.000000E+00
3.228234E+03	3.930188E-04	0.000000E+00
3.238137E+03	3.795045E-04	0.000000E+00
3.248039E+03	3.664866E-04	0.000000E+00
3.257942E+03	3.539699E-04	0.000000E+00
3.267844E+03	3.419294E-04	0.000000E+00
3.277747E+03	3.303569E-04	0.000000E+00
3.287650E+03	3.192390E-04	0.000000E+00
3.297552E+03	3.085668E-04	0.000000E+00
3.307455E+03	2.983215E-04	0.000000E+00
3.317357E+03	2.884902E-04	0.000000E+00
3.327260E+03	2.790594E-04	0.000000E+00
3.337162E+03	2.700200E-04	0.000000E+00
3.347065E+03	2.613550E-04	0.000000E+00
3.356967E+03	2.530520E-04	0.000000E+00
3.366870E+03	2.450984E-04	0.000000E+00
3.376773E+03	2.374792E-04	0.000000E+00
3.386675E+03	2.301828E-04	0.000000E+00
3.396578E+03	2.231978E-04	0.000000E+00
3.406480E+03	2.165111E-04	0.000000E+00
3.416383E+03	2.101117E-04	0.000000E+00
3.426285E+03	2.039872E-04	0.000000E+00
3.436188E+03	1.981258E-04	0.000000E+00
3.446090E+03	1.925159E-04	0.000000E+00
3.455993E+03	1.871447E-04	0.000000E+00
3.465896E+03	1.820046E-04	0.000000E+00
3.475798E+03	1.770834E-04	0.000000E+00
3.485701E+03	1.723689E-04	0.000000E+00
3.495603E+03	1.678471E-04	0.000000E+00
3.505506E+03	1.635110E-04	0.000000E+00
3.515408E+03	1.593489E-04	0.000000E+00
3.525311E+03	1.553466E-04	0.000000E+00
3.535213E+03	1.514961E-04	0.000000E+00
3.545116E+03	1.477884E-04	0.000000E+00
3.555019E+03	1.442138E-04	0.000000E+00
3.564921E+03	1.407620E-04	0.000000E+00
3.574824E+03	1.374288E-04	0.000000E+00
3.584726E+03	1.342076E-04	0.000000E+00
3.594629E+03	1.310923E-04	0.000000E+00
3.604531E+03	1.280829E-04	0.000000E+00
3.614434E+03	1.251754E-04	0.000000E+00
3.624337E+03	1.223673E-04	0.000000E+00
3.634239E+03	1.196567E-04	0.000000E+00
3.644142E+03	1.170418E-04	0.000000E+00
3.654044E+03	1.145195E-04	0.000000E+00
3.663947E+03	1.120896E-04	0.000000E+00
3.673849E+03	1.097478E-04	0.000000E+00
3.683752E+03	1.074928E-04	0.000000E+00
3.693654E+03	1.053238E-04	0.000000E+00
3.703557E+03	1.032357E-04	0.000000E+00
3.713460E+03	1.012294E-04	0.000000E+00
3.723362E+03	9.929970E-05	0.000000E+00
3.733265E+03	9.744655E-05	0.000000E+00
3.743167E+03	9.566727E-05	0.000000E+00
3.753070E+03	9.395926E-05	0.000000E+00
3.762972E+03	9.232070E-05	0.000000E+00
3.772875E+03	9.074904E-05	0.000000E+00
3.782777E+03	8.924251E-05	0.000000E+00
3.792680E+03	8.779931E-05	0.000000E+00
3.802583E+03	8.641698E-05	0.000000E+00
3.812485E+03	8.509382E-05	0.000000E+00
3.822388E+03	8.382816E-05	0.000000E+00
3.832290E+03	8.261770E-05	0.000000E+00
3.842193E+03	8.146084E-05	0.000000E+00
3.852095E+03	8.035604E-05	0.000000E+00
3.861998E+03	7.930116E-05	0.000000E+00
3.871900E+03	7.829476E-05	0.000000E+00
3.881803E+03	7.733481E-05	0.000000E+00
3.891706E+03	7.642059E-05	0.000000E+00
3.901608E+03	7.555018E-05	0.000000E+00
3.911511E+03	7.472231E-05	0.000000E+00
3.921413E+03	7.393464E-05	0.000000E+00
3.931316E+03	7.318713E-05	0.000000E+00
3.941218E+03	7.247756E-05	0.000000E+00
3.951121E+03	7.180483E-05	0.000000E+00
3.961024E+03	7.116740E-05	0.000000E+00
3.970926E+03	7.056485E-05	0.000000E+00
3.980829E+03	6.999514E-05	0.000000E+00
3.990731E+03	6.945794E-05	0.000000E+00
4.000634E+03	6.895133E-05	0.000000E+00
4.010536E+03	6.847501E-05	0.000000E+00
4.020439E+03	6.802722E-05	0.000000E+00
4.030341E+03	6.760722E-05	0.000000E+00
4.040244E+03	6.721430E-05	0.000000E+00
4.050147E+03	6.684783E-05	0.000000E+00
4.060049E+03	6.650617E-05	0.000000E+00
4.069952E+03	6.618874E-05	0.000000E+00
4.079854E+03	6.589452E-05	0.000000E+00
4.089757E+03	6.562297E-05	0.000000E+00
4.099659E+03	6.537361E-05	0.000000E+00
4.109562E+03	6.514502E-05	0.000000E+00
4.119464E+03	6.493726E-05	0.000000E+00
4.129367E+03	6.474897E-05	0.000000E+00
4.139270E+03	6.457975E-05	0.000000E+00
4.149172E+03	6.442932E-05	0.000000E+00
4.159075E+03	6.429637E-05	0.000000E+00
4.168977E+03	6.418061E-05	0.000000E+00
4.178880E+03	6.408131E-05	0.000000E+00
4.188782E+03	6.399874E-05	0.000000E+00
4.198685E+03	6.393120E-05	0.000000E+00
4.208587E+03	6.387902E-05	0.000000E+00
4.218490E+03	6.384104E-05	0.000000E+00
4.228393E+03	6.381761E-05	0.000000E+00
4.238295E+03	6.380716E-05	0.000000E+00
4.248198E+03	6.380956E-05	0.000000E+00
4.258100E+03	6.382474E-05	0.000000E+00
4.268003E+03	6.385114E-05	0.000000E+00
4.277905E+03	6.388922E-05	0.000000E+00
4.287808E+03	6.393695E-05	0.000000E+00
4.297711E+03	6.399479E-05	0.000000E+00
4.307613E+03	6.406023E-05	0.000000E+00
4.317516E+03	6.413328E-05	0.000000E+00
4.327418E+03	6.421544E-05	0.000000E+00
4.337321E+03	6.430675E-05	0.000000E+00
4.347223E+03	6.440779E-05	0.000000E+00
4.357126E+03	6.451866E-05	0.000000E+00
4.367028E+03	6.463842E-05	0.000000E+00
4.376931E+03	6.476824E-05	0.000000E+00
4.386834E+03	6.490725E-05	0.000000E+00
4.396736E+03	6.505562E-05	0.000000E+00
4.406639E+03	6.521300E-05	0.000000E+00
4.416541E+03	6.537963E-05	0.000000E+00
4.426444E+03	6.555468E-05	0.000000E+00
4.436346E+03	6.573892E-05	0.000000E+00
4.446249E+03	6.593157E-05	0.000000E+00
4.456151E+03	6.613240E-05	0.000000E+00
4.466054E+03	6.634228E-05	0.000000E+00
4.475957E+03	6.655990E-05	0.000000E+00
4.485859E+03	6.678562E-05	0.000000E+00
4.495762E+03	6.701983E-05	0.000000E+00
4.505664E+03	6.726183E-05	0.000000E+00
4.515567E+03	6.751204E-05	0.000000E+00
4.525469E+03	6.776980E-05	0.000000E+00
4.535372E+03	6.803555E-05	0.000000E+00
4.545274E+03	6.830922E-05	0.000000E+00
4.555177E+03	6.859072E-05	0.000000E+00
4.565080E+03	6.887946E-05	0.000000E+00
4.574982E+03	6.917652E-05	0.000000E+00
4.584885E+03	6.948070E-05	0.000000E+00
4.594787E+03	6.979259E-05	0.000000E+00
4.604690E+03	7.011215E-05	0.000000E+00
4.614592E+03	7.043880E-05	0.000000E+00
4.624495E+03	7.077375E-05	0.000000E+00
4.634398E+03	7.111580E-05	0.000000E+00
4.644300E+03	7.146558E-05	0.000000E+00
4.654203E+03	7.182439E-05	0.000000E+00
4.664105E+03	7.219166E-05	0.000000E+00
4.674008E+03	7.256809E-05	0.000000E+00
4.683910E+03	7.295443E-05	0.000000E+00
4.693813E+03	7.335077E-05	0.000000E+00
4.703715E+03	7.375723E-05	0.000000E+00
4.713618E+03	7.417527E-05	0.000000E+00
4.723521E+03	7.460369E-05	0.000000E+00
4.733423E+03	7.504401E-05	0.000000E+00
4.743326E+03	7.549638E-05	0.000000E+00
4.753228E+03	7.596032E-05	0.000000E+00
4.763131E+03	7.643738E-05	0.000000E+00
4.773033E+03	7.692707E-05	0.000000E+00
4.782936E+03	7.742961E-05	0.000000E+00
4.792838E+03	7.794520E-05	0.000000E+00
4.802741E+03	7.847407E-05	0.000000E+00
4.812644E+03	7.901788E-05	0.000000E+00
4.822546E+03	7.957469E-05	0.000000E+00
4.832449E+03	8.014621E-05	0.000000E+00
4.842351E+03	8.073192E-05	0.000000E+00
4.852254E+03	8.133286E-05	0.000000E+00
4.862156E+03	8.194847E-05	0.000000E+00
4.872059E+03	8.257904E-05	0.000000E+00
4.881961E+03	8.322556E-05	0.000000E+00
4.891864E+03	8.388674E-05	0.000000E+00
4.901767E+03	8.456359E-05	0.000000E+00
4.911669E+03	8.525636E-05	0.000000E+00
4.921572E+03	8.596528E-05	0.000000E+00
4.931474E+03	8.668976E-05	0.000000E+00
4.941377E+03	8.743005E-05	0.000000E+00
4.951279E+03	8.818717E-05	0.000000E+00
4.961182E+03	8.895965E-05	0.000000E+00
4.971085E+03	8.974938E-05	0.000000E+00
4.980987E+03	9.055486E-05	0.000000E+00
4.990890E+03	9.137624E-05	0.000000E+00
5.000792E+03	9.221455E-05	0.000000E+00
5.010695E+03	9.306910E-05	0.000000E+00
5.020597E+03	9.393999E-05	0.000000E+00
5.030500E+03	9.482646E-05	0.000000E+00
5.040402E+03	9.572953E-05	0.000000E+00
5.050305E+03	9.664929E-05	0.000000E+00
5.060208E+03	9.758396E-05	0.000000E+00
5.070110E+03	9.853455E-05	0.000000E+00
5.080013E+03	9.950108E-05	0.000000E+00
5.089915E+03	1.004836E-04	0.000000E+00
5.099818E+03	1.014812E-04	0.000000E+00
5.109720E+03	1.024937E-04	0.000000E+00
5.119623E+03	1.035203E-04	0.000000E+00
5.129525E+03	1.045628E-04	0.000000E+00
5.139428E+03	1.056191E-04	0.000000E+00
5.149331E+03	1.066891E-04	0.000000E+00
5.159233E+03	1.077727E-04	0.000000E+00
5.169136E+03	1.088708E-04	0.000000E+00
5.179038E+03	1.099811E-04	0.000000E+00
5.188941E+03	1.111033E-04	0.000000E+00
5.198843E+03	1.122394E-04	0.000000E+00
5.208746E+03	1.133858E-04	0.000000E+00
5.218648E+03	1.145443E-04	0.000000E+00
5.228551E+03	1.157136E-04	0.000000E+00
5.238454E+03	1.168931E-04	0.000000E+00
5.248356E+03	1.180836E-04	0.000000E+00
5.258259E+03	1.192824E-04	0.000000E+00
5.268161E+03	1.204900E-04	0.000000E+00
5.278064E+03	1.217059E-04	0.000000E+00
5.287966E+03	1.229293E-04	0.000000E+00
5.297869E+03	1.241609E-04	0.000000E+00
5.307772E+03	1.253976E-04	0.000000E+00
5.317674E+03	1.266396E-04	0.000000E+00
5.327577E+03	1.278862E-04	0.000000E+00
5.337479E+03	1.291352E-04	0.000000E+00
5.347382E+03	1.303881E-04	0.000000E+00
5.357284E+03	1.316427E-04	0.000000E+00
5.367187E+03	1.328966E-04	0.000000E+00
5.377089E+03	1.341486E-04	0.000000E+00
5.386992E+03	1.353987E-04	0.000000E+00
5.396895E+03	1.366429E-04	0.000000E+00
5.406797E+03	1.378813E-04	0.000000E+00
5.416700E+03	1.391123E-04	0.000000E+00
5.426602E+03	1.403316E-04	0.000000E+00
5.436505E+03	1.415377E-04	0.000000E+00
5.446407E+03	1.427301E-04	0.000000E+00
5.456310E+03	1.439059E-04	0.000000E+00
5.466212E+03	1.450617E-04	0.000000E+00
5.476115E+03	1.461942E-04	0.000000E+00
5.486018E+03	1.473044E-04	0.000000E+00
5.495920E+03	1.483860E-04	0.000000E+00
5.505823E+03	1.494384E-04	0.000000E+00
5.515725E+03	1.504581E-04	0.000000E+00
5.525628E+03	1.514431E-04	0.000000E+00
5.535530E+03	1.523914E-04	0.000000E+00
5.545433E+03	1.532994E-04	0.000000E+00
5.555335E+03	1.541667E-04	0.000000E+00
5.565238E+03	1.549898E-04	0.000000E+00
5.575141E+03	1.557651E-04	0.000000E+00
5.585043E+03	1.564942E-04	0.000000E+00
5.594946E+03	1.571736E-04	0.000000E+00
5.604848E+03	1.578000E-04	0.000000E+00
5.614751E+03	1.583735E-04	0.000000E+00
5.624653E+03	1.588944E-04	0.000000E+00
5.634556E+03	1.593580E-04	0.000000E+00
5.644459E+03	1.597647E-04	0.000000E+00
5.654361E+03	1.601152E-04	0.000000E+00
5.664264E+03	1.604070E-04	0.000000E+00
5.674166E+03	1.606410E-04	0.000000E+00
5.684069E+03	1.608149E-04	0.000000E+00
5.693971E+03	1.609299E-04	0.000000E+00
5.703874E+03	1.609859E-04	0.000000E+00
5.713776E+03	1.609846E-04	0.000000E+00
5.723679E+03	1.609224E-04	0.000000E+00
5.733582E+03	1.608050E-04	0.000000E+00
5.743484E+03	1.606292E-04	0.000000E+00
5.753387E+03	1.603973E-04	0.000000E+00
5.763289E+03	1.601101E-04	0.000000E+00
5.773192E+03	1.597686E-04	0.000000E+00
5.783094E+03	1.593754E-04	0.000000E+00
5.792997E+03	1.589318E-04	0.000000E+00
5.802899E+03	1.584391E-04	0.000000E+00
5.812802E+03	1.578970E-04	0.000000E+00
5.822705E+03	1.573104E-04	0.000000E+00
5.832607E+03	1.566793E-04	0.000000E+00
5.842510E+03	1.560072E-04	0.000000E+00
5.852412E+03	1.552941E-04	0.000000E+00
5.862315E+03	1.545437E-04	0.000000E+00
5.872217E+03	1.537578E-04	0.000000E+00
5.882120E+03	1.529384E-04	0.000000E+00
5.892022E+03	1.520876E-04	0.000000E+00
5.901925E+03	1.512074E-04	0.000000E+00
5.911828E+03	1.503015E-04	0.000000E+00
5.921730E+03	1.493684E-04	0.000000E+00
5.931633E+03	1.484138E-04	0.000000E+00
5.941535E+03	1.474377E-04	0.000000E+00
5.951438E+03	1.464423E-04	0.000000E+00
5.961340E+03	1.454312E-04	0.000000E+00
5.971243E+03	1.444027E-04	0.000000E+00
5.981146E+03	1.433623E-04	0.000000E+00
5.991048E+03	1.423083E-04	0.000000E+00
6.000951E+03	1.412441E-04	0.000000E+00
6.010853E+03	1.401714E-04	0.000000E+00
6.020756E+03	1.390902E-04	0.000000E+00
6.030658E+03	1.380019E-04	0.000000E+00
6.040561E+03	1.369082E-04	0.000000E+00
6.050463E+03	1.358103E-04	0.000000E+00
6.060366E+03	1.347098E-04	0.000000E+00
6.070269E+03	1.336077E-04	0.000000E+00
6.080171E+03	1.325054E-04	0.000000E+00
6.090074E+03	1.314040E-04	0.000000E+00
6.099976E+03	1.303063E-04	0.000000E+00
6.109879E+03	1.292148E-04	0.000000E+00
6.119781E+03	1.281321E-04	0.000000E+00
6.129684E+03	1.270590E-04	0.000000E+00
6.139586E+03	1.259964E-04	0.000000E+00
6.149489E+03	1.249433E-04	0.000000E+00
6.159392E+03	1.239003E-04	0.000000E+00
6.169294E+03	1.228680E-04	0.000000E+00
6.179197E+03	1.218455E-04	0.000000E+00
6.189099E+03	1.208347E-04	0.000000E+00
6.199002E+03	1.198395E-04	0.000000E+00
6.208904E+03	1.188586E-04	0.000000E+00
6.218807E+03	1.178939E-04	0.000000E+00
6.228709E+03	1.169490E-04	0.000000E+00
6.238612E+03	1.160226E-04	0.000000E+00
6.248515E+03	1.151197E-04	0.000000E+00
6.258417E+03	1.142422E-04	0.000000E+00
6.268320E+03	1.133884E-04	0.000000E+00
6.278222E+03	1.125636E-04	0.000000E+00
6.288125E+03	1.117692E-04	0.000000E+00
6.298027E+03	1.110054E-04	0.000000E+00
6.307930E+03	1.102740E-04	0.000000E+00
6.317833E+03	1.095798E-04	0.000000E+00
6.327735E+03	1.089211E-04	0.000000E+00
6.337638E+03	1.082998E-04	0.000000E+00
6.347540E+03	1.077191E-04	0.000000E+00
6.357443E+03	1.071742E-04	0.000000E+00
6.367345E+03	1.066620E-04	0.000000E+00
6.377248E+03	1.061810E-04	0.000000E+00
6.387150E+03	1.057298E-04	0.000000E+00
6.397053E+03	1.053050E-04	0.000000E+00
6.406956E+03	1.049069E-04	0.000000E+00
6.416858E+03	1.045339E-04	0.000000E+00
6.426761E+03	1.041861E-04	0.000000E+00
6.436663E+03	1.038618E-04	0.000000E+00
6.446566E+03	1.035612E-04	0.000000E+00
6.456468E+03	1.032844E-04	0.000000E+00
6.466371E+03	1.030296E-04	0.000000E+00
6.476273E+03	1.027987E-04	0.000000E+00
6.486176E+03	1.025915E-04	0.000000E+00
6.496079E+03	1.024067E-04	0.000000E+00
6.505981E+03	1.022457E-04	0.000000E+00
6.515884E+03	1.021070E-04	0.000000E+00
6.525786E+03	1.019907E-04	0.000000E+00
6.535689E+03	1.018983E-04	0.000000E+00
6.545591E+03	1.018266E-04	0.000000E+00
6.555494E+03	1.017806E-04	0.000000E+00
6.565396E+03	1.017553E-04	0.000000E+00
6.575299E+03	1.017540E-04	0.000000E+00
6.585202E+03	1.017751E-04	0.000000E+00
6.595104E+03	1.018185E-04	0.000000E+00
6.605007E+03	1.018859E-04	0.000000E+00
6.614909E+03	1.019757E-04	0.000000E+00
6.624812E+03	1.020878E-04	0.000000E+00
6.634714E+03	1.022221E-04	0.000000E+00
6.644617E+03	1.023805E-04	0.000000E+00
6.654520E+03	1.025593E-04	0.000000E+00
6.664422E+03	1.027620E-04	0.000000E+00
6.674325E+03	1.029869E-04	0.000000E+00
6.684227E+03	1.032338E-04	0.000000E+00
6.694130E+03	1.035028E-04	0.000000E+00
6.704032E+03	1.037937E-04	0.000000E+00
6.713935E+03	1.041084E-04	0.000000E+00
6.723837E+03	1.044430E-04	0.000000E+00
6.733740E+03	1.047994E-04	0.000000E+00
6.743643E+03	1.051775E-04	0.000000E+00
6.753545E+03	1.055771E-04	0.000000E+00
6.763448E+03	1.059982E-04	0.000000E+00
6.773350E+03	1.064407E-04	0.000000E+00
6.783253E+03	1.069045E-04	0.000000E+00
6.793155E+03	1.073875E-04	0.000000E+00
6.803058E+03	1.078915E-04	0.000000E+00
6.812960E+03	1.084165E-04	0.000000E+00
6.822863E+03	1.089603E-04	0.000000E+00
6.832766E+03	1.095247E-04	0.000000E+00
6.842668E+03	1.101098E-04	0.000000E+00
6.852571E+03	1.107132E-04	0.000000E+00
6.862473E+03	1.113349E-04	0.000000E+00
6.872376E+03	1.119767E-04	0.000000E+00
6.882278E+03	1.126364E-04	0.000000E+00
6.892181E+03	1.133139E-04	0.000000E+00
6.902083E+03	1.140112E-04	0.000000E+00
6.911986E+03	1.147259E-04	0.000000E+00
6.921889E+03	1.154580E-04	0.000000E+00
6.931791E+03	1.162051E-04	0.000000E+00
6.941694E+03	1.169715E-04	0.000000E+00
6.951596E+03	1.177548E-04	0.000000E+00
6.961499E+03	1.185550E-04	0.000000E+00
6.971401E+03	1.193695E-04	0.000000E+00
6.981304E+03	1.202006E-04	0.000000E+00
6.991207E+03	1.210458E-04	0.000000E+00
7.001109E+03	1.219097E-04	0.000000E+00
7.011012E+03	1.227851E-04	0.000000E+00
7.020914E+03	1.236766E-04	0.000000E+00
7.030817E+03	1.245817E-04	0.000000E+00
7.040719E+03	1.255028E-04	0.000000E+00
7.050622E+03	1.264347E-04	0.000000E+00
7.060524E+03	1.273824E-04	0.000000E+00
7.070427E+03	1.283407E-04	0.000000E+00
7.080330E+03	1.293119E-04	0.000000E+00
7.090232E+03	1.302961E-04	0.000000E+00
7.100135E+03	1.312930E-04	0.000000E+00
7.110037E+03	1.322999E-04	0.000000E+00
7.119940E+03	1.333165E-04	0.000000E+00
7.129842E+03	1.343455E-04	0.000000E+00
7.139745E+03	1.353839E-04	0.000000E+00
7.149647E+03	1.364344E-04	0.000000E+00
7.159550E+03	1.374910E-04	0.000000E+00
7.169453E+03	1.385594E-04	0.000000E+00
7.179355E+03	1.396364E-04	0.000000E+00
7.189258E+03	1.407218E-04	0.000000E+00
7.199160E+03	1.418153E-04	0.000000E+00
7.209063E+03	1.429167E-04	0.000000E+00
7.218965E+03	1.440257E-04	0.000000E+00
7.228868E+03	1.451452E-04	0.000000E+00
7.238770E+03	1.462686E-04	0.000000E+00
7.248673E+03	1.474052E-04	0.000000E+00
7.258576E+03	1.485516E-04	0.000000E+00
7.268478E+03	1.497043E-04	0.000000E+00
7.278381E+03	1.508731E-04	0.000000E+00
7.288283E+03	1.520510E-04	0.000000E+00
7.298186E+03	1.532483E-04	0.000000E+00
7.308088E+03	1.544614E-04	0.000000E+00
7.317991E+03	1.556940E-04	0.000000E+00
7.327894E+03	1.569496E-04	0.000000E+00
7.337796E+03	1.582285E-04	0.000000E+00
7.347699E+03	1.595384E-04	0.000000E+00
7.357601E+03	1.608833E-04	0.000000E+00
7.367504E+03	1.622601E-04	0.000000E+00
7.377406E+03	1.636692E-04	0.000000E+00
7.387309E+03	1.651110E-04	0.000000E+00
7.397211E+03	1.665819E-04	0.000000E+00
7.407114E+03	1.680781E-04	0.000000E+00
7.417017E+03	1.695956E-04	0.000000E+00
7.426919E+03	1.711343E-04	0.000000E+00
7.436822E+03	1.726896E-04	0.000000E+00
7.446724E+03	1.742575E-04	0.000000E+00
7.456627E+03	1.758412E-04	0.000000E+00
7.466529E+03	1.774319E-04	0.000000E+00
7.476432E+03	1.790286E-04	0.000000E+00
7.486334E+03	1.806308E-04	0.000000E+00
7.496237E+03	1.822374E-04	0.000000E+00
7.506140E+03	1.838477E-04	0.000000E+00
7.516042E+03	1.854558E-04	0.000000E+00
7.525945E+03	1.870609E-04	0.000000E+00
7.535847E+03	1.886664E-04	0.000000E+00
7.545750E+03	1.902663E-04	0.000000E+00
7.555652E+03	1.918642E-04	0.000000E+00
7.565555E+03	1.934493E-04	0.000000E+00
7.575457E+03	1.950298E-04	0.000000E+00
7.585360E+03	1.965995E-04	0.000000E+00
7.595263E+03	1.981567E-04	0.000000E+00
7.605165E+03	1.996999E-04	0.000000E+00
7.615068E+03	2.012330E-04	0.000000E+00
7.624970E+03	2.027490E-04	0.000000E+00
7.634873E+03	2.042464E-04	0.000000E+00
7.644775E+03	2.057287E-04	0.000000E+00
7.654678E+03	2.071946E-04	0.000000E+00
7.664581E+03	2.086368E-04	0.000000E+00
7.674483E+03	2.100589E-04	0.000000E+00
7.684386E+03	2.114596E-04	0.000000E+00
