#wls	flux	fluxerr	mangling_mask
5.359604E+03	3.210856E-16	1.099100E-16	3.817903E-01
5.359804E+03	3.197861E-16	1.098468E-16	3.815881E-01
5.362803E+03	3.161466E-16	1.089604E-16	3.785552E-01
5.364804E+03	3.133653E-16	1.083680E-16	3.765323E-01
5.367004E+03	3.103989E-16	1.077171E-16	3.743083E-01
5.368004E+03	3.084367E-16	1.074169E-16	3.732880E-01
5.371005E+03	3.048295E-16	1.065244E-16	3.702262E-01
5.372005E+03	3.028966E-16	1.062244E-16	3.692060E-01
5.372205E+03	3.016443E-16	1.061613E-16	3.690020E-01
5.372805E+03	3.000545E-16	1.059791E-16	3.683866E-01
5.373605E+03	2.982797E-16	1.057374E-16	3.675659E-01
5.373805E+03	2.970295E-16	1.056742E-16	3.673607E-01
5.374405E+03	2.954566E-16	1.054918E-16	3.667443E-01
5.375405E+03	2.935478E-16	1.051898E-16	3.657141E-01
5.377205E+03	2.909895E-16	1.046493E-16	3.638597E-01
5.378005E+03	2.892631E-16	1.044071E-16	3.630356E-01
5.378205E+03	2.880068E-16	1.043438E-16	3.628295E-01
5.378405E+03	2.867619E-16	1.042803E-16	3.626225E-01
5.380006E+03	2.843758E-16	1.037976E-16	3.609655E-01
5.380606E+03	2.828128E-16	1.036145E-16	3.603445E-01
5.380806E+03	2.815879E-16	1.035511E-16	3.601375E-01
5.381206E+03	2.801695E-16	1.034275E-16	3.597220E-01
5.381606E+03	2.787429E-16	1.033039E-16	3.593066E-01
5.382206E+03	2.771797E-16	1.031204E-16	3.586833E-01
5.383206E+03	2.753005E-16	1.028168E-16	3.576446E-01
5.383406E+03	2.740785E-16	1.027533E-16	3.574362E-01
5.383606E+03	2.728184E-16	1.026896E-16	3.572278E-01
5.384606E+03	2.709435E-16	1.023855E-16	3.561859E-01
5.385007E+03	2.695441E-16	1.022615E-16	3.557681E-01
5.385207E+03	2.682978E-16	1.021978E-16	3.555591E-01
5.385806E+03	2.667598E-16	1.020136E-16	3.549321E-01
5.386406E+03	2.651903E-16	1.018293E-16	3.543051E-01
5.387406E+03	2.633058E-16	1.015245E-16	3.532599E-01
5.387606E+03	2.620552E-16	1.014608E-16	3.530505E-01
5.387806E+03	2.608094E-16	1.013970E-16	3.528409E-01
5.388206E+03	2.594423E-16	1.012730E-16	3.524218E-01
5.388606E+03	2.580742E-16	1.011490E-16	3.520026E-01
5.388806E+03	2.568931E-16	1.010854E-16	3.517927E-01
5.389406E+03	2.553338E-16	1.009006E-16	3.511626E-01
5.389606E+03	2.541037E-16	1.008369E-16	3.509526E-01
5.390407E+03	2.524269E-16	1.005914E-16	3.501115E-01
5.391007E+03	2.508916E-16	1.004063E-16	3.494798E-01
5.391607E+03	2.493741E-16	1.002214E-16	3.488482E-01
5.392007E+03	2.480069E-16	1.000970E-16	3.484271E-01
5.392207E+03	2.468124E-16	1.000333E-16	3.482165E-01
5.392407E+03	2.455632E-16	9.996949E-17	3.480056E-01
5.392607E+03	2.443466E-16	9.990571E-17	3.477946E-01
5.392807E+03	2.431070E-16	9.984188E-17	3.475837E-01
5.393007E+03	2.418999E-16	9.977815E-17	3.473727E-01
5.393807E+03	2.402231E-16	9.953183E-17	3.465272E-01
5.394007E+03	2.389926E-16	9.946798E-17	3.463158E-01
5.394607E+03	2.374833E-16	9.928254E-17	3.456817E-01
5.394807E+03	2.362982E-16	9.921884E-17	3.454703E-01
5.395007E+03	2.351175E-16	9.915505E-17	3.452584E-01
5.395607E+03	2.336438E-16	9.896934E-17	3.446226E-01
5.395808E+03	2.324213E-16	9.890514E-17	3.444096E-01
5.396408E+03	2.309335E-16	9.871945E-17	3.437738E-01
5.396608E+03	2.297189E-16	9.865549E-17	3.435614E-01
5.397208E+03	2.282297E-16	9.846944E-17	3.429241E-01
5.397408E+03	2.270431E-16	9.840560E-17	3.427118E-01
5.397608E+03	2.258372E-16	9.834170E-17	3.424993E-01
5.398007E+03	2.245234E-16	9.821663E-17	3.420736E-01
5.398208E+03	2.233137E-16	9.815264E-17	3.418608E-01
5.398408E+03	2.221190E-16	9.808871E-17	3.416479E-01
5.398807E+03	2.207777E-16	9.796364E-17	3.412223E-01
5.399007E+03	2.195621E-16	9.789958E-17	3.410091E-01
5.399207E+03	2.183888E-16	9.783565E-17	3.407959E-01
5.399407E+03	2.172236E-16	9.777176E-17	3.405827E-01
5.399607E+03	2.160461E-16	9.770785E-17	3.403695E-01
5.400007E+03	2.147417E-16	9.758260E-17	3.399426E-01
5.400207E+03	2.136114E-16	9.751875E-17	3.397290E-01
5.400407E+03	2.124349E-16	9.745480E-17	3.395155E-01
5.400607E+03	2.112528E-16	9.739084E-17	3.393020E-01
5.401208E+03	2.098026E-16	9.720360E-17	3.386589E-01
5.401408E+03	2.086614E-16	9.713964E-17	3.384449E-01
5.401808E+03	2.073936E-16	9.701426E-17	3.380168E-01
5.402608E+03	2.058569E-16	9.676603E-17	3.371607E-01
5.402808E+03	2.047184E-16	9.670197E-17	3.369461E-01
5.403208E+03	2.034312E-16	9.657631E-17	3.365170E-01
5.403408E+03	2.022691E-16	9.651222E-17	3.363024E-01
5.403808E+03	2.009933E-16	9.638663E-17	3.358734E-01
5.404408E+03	1.995916E-16	9.619913E-17	3.352283E-01
5.404608E+03	1.984384E-16	9.613498E-17	3.350133E-01
5.405008E+03	1.971600E-16	9.600921E-17	3.345834E-01
5.405208E+03	1.960101E-16	9.594510E-17	3.343684E-01
5.405408E+03	1.948948E-16	9.588099E-17	3.341530E-01
5.405608E+03	1.937473E-16	9.581682E-17	3.339377E-01
5.405808E+03	1.926045E-16	9.575267E-17	3.337223E-01
5.406008E+03	1.914931E-16	9.568863E-17	3.335070E-01
5.406809E+03	1.900123E-16	9.543856E-17	3.326430E-01
5.407209E+03	1.887859E-16	9.531260E-17	3.322116E-01
5.407409E+03	1.876739E-16	9.524847E-17	3.319958E-01
5.407609E+03	1.865599E-16	9.518434E-17	3.317801E-01
5.407809E+03	1.854603E-16	9.512015E-17	3.315639E-01
5.408209E+03	1.842615E-16	9.499405E-17	3.311316E-01
5.408409E+03	1.831717E-16	9.492993E-17	3.309156E-01
5.408609E+03	1.820699E-16	9.486577E-17	3.306994E-01
5.408809E+03	1.809659E-16	9.480152E-17	3.304830E-01
5.409409E+03	1.795910E-16	9.461310E-17	3.298335E-01
5.409609E+03	1.784942E-16	9.454889E-17	3.296170E-01
5.409809E+03	1.774185E-16	9.448477E-17	3.294006E-01
5.410008E+03	1.763207E-16	9.442050E-17	3.291838E-01
5.410208E+03	1.752408E-16	9.435628E-17	3.289671E-01
5.410408E+03	1.741686E-16	9.429209E-17	3.287503E-01
5.410609E+03	1.730879E-16	9.422789E-17	3.285335E-01
5.411008E+03	1.719175E-16	9.410148E-17	3.280994E-01
5.411408E+03	1.707660E-16	9.397509E-17	3.276651E-01
5.411608E+03	1.696999E-16	9.391087E-17	3.274480E-01
5.412009E+03	1.685129E-16	9.378411E-17	3.270127E-01
5.412209E+03	1.674271E-16	9.371979E-17	3.267954E-01
5.412609E+03	1.662512E-16	9.359319E-17	3.263604E-01
5.412809E+03	1.651751E-16	9.352888E-17	3.261429E-01
5.413209E+03	1.639972E-16	9.340229E-17	3.257079E-01
5.413409E+03	1.629599E-16	9.333803E-17	3.254902E-01
5.413809E+03	1.617959E-16	9.321132E-17	3.250546E-01
5.414009E+03	1.607650E-16	9.314706E-17	3.248368E-01
5.414209E+03	1.597353E-16	9.308281E-17	3.246191E-01
5.414409E+03	1.587067E-16	9.301850E-17	3.244010E-01
5.414609E+03	1.576729E-16	9.295423E-17	3.241831E-01
5.414809E+03	1.566533E-16	9.288996E-17	3.239650E-01
5.415009E+03	1.556316E-16	9.282570E-17	3.237470E-01
5.415209E+03	1.545917E-16	9.276134E-17	3.235287E-01
5.415409E+03	1.535789E-16	9.269704E-17	3.233103E-01
5.416009E+03	1.523450E-16	9.220810E-17	3.226555E-01
5.416209E+03	1.513230E-16	8.357896E-17	3.224372E-01
5.416409E+03	1.503117E-16	8.355903E-17	3.222185E-01
5.416809E+03	1.492164E-16	8.252536E-17	3.217813E-01
5.417209E+03	1.481204E-16	8.111579E-17	3.213441E-01
5.417410E+03	1.471328E-16	8.099760E-17	3.211244E-01
5.417810E+03	1.460406E-16	8.059736E-17	3.206865E-01
5.418010E+03	1.450533E-16	8.039659E-17	3.204676E-01
5.418210E+03	1.441119E-16	7.958243E-17	3.202487E-01
5.418410E+03	1.431494E-16	7.918132E-17	3.200299E-01
5.418610E+03	1.421878E-16	7.784859E-17	3.198107E-01
5.418810E+03	1.412147E-16	7.679510E-17	3.195916E-01
5.419010E+03	1.402460E-16	7.559320E-17	3.193724E-01
5.419210E+03	1.393200E-16	7.552685E-17	3.191533E-01
5.419410E+03	1.383662E-16	7.508482E-17	3.189338E-01
5.420010E+03	1.372054E-16	7.361640E-17	3.182755E-01
5.420410E+03	1.361644E-16	7.347829E-17	3.178366E-01
5.420810E+03	1.351226E-16	7.227920E-17	3.173978E-01
5.421010E+03	1.341568E-16	7.215769E-17	3.171781E-01
5.421210E+03	1.332176E-16	7.165360E-17	3.169584E-01
5.421410E+03	1.323144E-16	7.016406E-17	3.167386E-01
5.421610E+03	1.314028E-16	6.967460E-17	3.165189E-01
5.421810E+03	1.304765E-16	6.650625E-17	3.162989E-01
5.422010E+03	1.295419E-16	6.585583E-17	3.160791E-01
5.422209E+03	1.286431E-16	6.394272E-17	3.158592E-01
5.422409E+03	1.277581E-16	6.370746E-17	3.156392E-01
5.422609E+03	1.268710E-16	6.362032E-17	3.154191E-01
5.422810E+03	1.259441E-16	6.315895E-17	3.151990E-01
5.423011E+03	1.250178E-16	6.314101E-17	3.149777E-01
5.423210E+03	1.241090E-16	6.239480E-17	3.147577E-01
5.423410E+03	1.232263E-16	6.122599E-17	3.145374E-01
5.423610E+03	1.223605E-16	6.115311E-17	3.143171E-01
5.423810E+03	1.214707E-16	6.110843E-17	3.140968E-01
5.424010E+03	1.206039E-16	6.108572E-17	3.138765E-01
5.424210E+03	1.197476E-16	6.104422E-17	3.136560E-01
5.424610E+03	1.187962E-16	6.095677E-17	3.132151E-01
5.424810E+03	1.179457E-16	6.095275E-17	3.129946E-01
5.425010E+03	1.170682E-16	6.099232E-17	3.127740E-01
5.425210E+03	1.162292E-16	6.096947E-17	3.125533E-01
5.425610E+03	1.153160E-16	6.088495E-17	3.121118E-01
5.425810E+03	1.145077E-16	6.082790E-17	3.118912E-01
5.426010E+03	1.137005E-16	6.078330E-17	3.116705E-01
5.426210E+03	1.128818E-16	6.077594E-17	3.114496E-01
5.426410E+03	1.120734E-16	6.073751E-17	3.112286E-01
5.426610E+03	1.112568E-16	6.077354E-17	3.110077E-01
5.426810E+03	1.104381E-16	6.086530E-17	3.107868E-01
5.427010E+03	1.096359E-16	6.093521E-17	3.105658E-01
5.427210E+03	1.088006E-16	6.092744E-17	3.103447E-01
5.427410E+03	1.080036E-16	6.097852E-17	3.101236E-01
5.427610E+03	1.072139E-16	6.097692E-17	3.099025E-01
5.427810E+03	1.064220E-16	6.098449E-17	3.096812E-01
5.428010E+03	1.056249E-16	6.097964E-17	3.094600E-01
5.428210E+03	1.048258E-16	6.038210E-17	3.092388E-01
5.428411E+03	1.040644E-16	6.034041E-17	3.090164E-01
5.428611E+03	1.033012E-16	6.016019E-17	3.087950E-01
5.428811E+03	1.025235E-16	5.998321E-17	3.085735E-01
5.429011E+03	1.017377E-16	5.981872E-17	3.083520E-01
5.429611E+03	1.008354E-16	5.954742E-17	3.076877E-01
5.429811E+03	1.001017E-16	5.945720E-17	3.074661E-01
5.430011E+03	9.935669E-17	5.929649E-17	3.072444E-01
5.430211E+03	9.862184E-17	5.931373E-17	3.070227E-01
5.430411E+03	9.789102E-17	5.920839E-17	3.068011E-01
5.430611E+03	9.716113E-17	5.882769E-17	3.065794E-01
5.430811E+03	9.642910E-17	5.802233E-17	3.063575E-01
5.431011E+03	9.573476E-17	5.774380E-17	3.061357E-01
5.431211E+03	9.502297E-17	5.662271E-17	3.059139E-01
5.431411E+03	9.430290E-17	5.629352E-17	3.056919E-01
5.431611E+03	9.358988E-17	5.604709E-17	3.054700E-01
5.431811E+03	9.286257E-17	5.547185E-17	3.052481E-01
5.432011E+03	9.216059E-17	5.545465E-17	3.050261E-01
5.432211E+03	9.147472E-17	5.474975E-17	3.048040E-01
5.432611E+03	9.071136E-17	5.470225E-17	3.043597E-01
5.432811E+03	9.004297E-17	5.469153E-17	3.041376E-01
5.433011E+03	8.937244E-17	5.470204E-17	3.039155E-01
5.433211E+03	8.871790E-17	5.466395E-17	3.036932E-01
5.433411E+03	8.803995E-17	5.453492E-17	3.034709E-01
5.433611E+03	8.737806E-17	5.451202E-17	3.032486E-01
5.433812E+03	8.672279E-17	5.455245E-17	3.030252E-01
5.434012E+03	8.606866E-17	5.345623E-17	3.028028E-01
5.434212E+03	8.537909E-17	5.341578E-17	3.025803E-01
5.434412E+03	8.472071E-17	5.275961E-17	3.023580E-01
5.434611E+03	8.407224E-17	5.226723E-17	3.021356E-01
5.434811E+03	8.340950E-17	5.195933E-17	3.019130E-01
5.435011E+03	8.279290E-17	5.192301E-17	3.016904E-01
5.435212E+03	8.217711E-17	5.118539E-17	3.014678E-01
5.435412E+03	8.157119E-17	5.067440E-17	3.012452E-01
5.435611E+03	8.094198E-17	5.000478E-17	3.010226E-01
5.435811E+03	8.032260E-17	4.982258E-17	3.007999E-01
5.436011E+03	7.970706E-17	4.936153E-17	3.005772E-01
5.436211E+03	7.913440E-17	4.927002E-17	3.003545E-01
5.436411E+03	7.854745E-17	4.877103E-17	3.001316E-01
5.436611E+03	7.795530E-17	4.871285E-17	2.999088E-01
5.436811E+03	7.736696E-17	4.856797E-17	2.996861E-01
5.437011E+03	7.676740E-17	4.838434E-17	2.994632E-01
5.437211E+03	7.621350E-17	4.793511E-17	2.992403E-01
5.437411E+03	7.564539E-17	4.724764E-17	2.990173E-01
5.437611E+03	7.506311E-17	4.722932E-17	2.987943E-01
5.437811E+03	7.451743E-17	4.609623E-17	2.985713E-01
5.438011E+03	7.398741E-17	4.566775E-17	2.983483E-01
5.438211E+03	7.345210E-17	4.541840E-17	2.981253E-01
5.438411E+03	7.293538E-17	4.333458E-17	2.979022E-01
5.438611E+03	7.240448E-17	4.257618E-17	2.976791E-01
5.438811E+03	7.185046E-17	4.184257E-17	2.974558E-01
5.439011E+03	7.132988E-17	4.173607E-17	2.972326E-01
5.439212E+03	7.077710E-17	4.095950E-17	2.970084E-01
5.439412E+03	7.026686E-17	4.011026E-17	2.967852E-01
5.439612E+03	6.973652E-17	3.969433E-17	2.965618E-01
5.439812E+03	6.920986E-17	3.957473E-17	2.963385E-01
5.440012E+03	6.869280E-17	3.921591E-17	2.961152E-01
5.440212E+03	6.817940E-17	3.852686E-17	2.958918E-01
5.440412E+03	6.767260E-17	3.848798E-17	2.956685E-01
5.440612E+03	6.718420E-17	3.847567E-17	2.954450E-01
5.440812E+03	6.670237E-17	3.742039E-17	2.952216E-01
5.441012E+03	6.622413E-17	3.646683E-17	2.949981E-01
5.441212E+03	6.574063E-17	3.535000E-17	2.947746E-01
5.441412E+03	6.524894E-17	3.520172E-17	2.945510E-01
5.441612E+03	6.475795E-17	3.513293E-17	2.943276E-01
5.441812E+03	6.429114E-17	3.505838E-17	2.941040E-01
5.442012E+03	6.382493E-17	3.503961E-17	2.938803E-01
5.442212E+03	6.337992E-17	3.498864E-17	2.936567E-01
5.442412E+03	6.293551E-17	3.496407E-17	2.934330E-01
5.442612E+03	6.247118E-17	3.496579E-17	2.932093E-01
5.442812E+03	6.204555E-17	3.497047E-17	2.929855E-01
5.443012E+03	6.160296E-17	3.496047E-17	2.927619E-01
5.443212E+03	6.118142E-17	3.490669E-17	2.925381E-01
5.443412E+03	6.075753E-17	3.487045E-17	2.923143E-01
5.443612E+03	6.032252E-17	3.488084E-17	2.920905E-01
5.443812E+03	5.989686E-17	3.408726E-17	2.918666E-01
5.444012E+03	5.950386E-17	3.397308E-17	2.916427E-01
5.444212E+03	5.910850E-17	3.395211E-17	2.914189E-01
5.444412E+03	5.872820E-17	3.365506E-17	2.911950E-01
5.444613E+03	5.833073E-17	3.323921E-17	2.909699E-01
5.444813E+03	5.793984E-17	3.286183E-17	2.907459E-01
5.445013E+03	5.756111E-17	3.273145E-17	2.905219E-01
5.445213E+03	5.718868E-17	3.271421E-17	2.902979E-01
5.445413E+03	5.682258E-17	3.229462E-17	2.900739E-01
5.445613E+03	5.646854E-17	3.215622E-17	2.898498E-01
5.445813E+03	5.612078E-17	3.202380E-17	2.896258E-01
5.446013E+03	5.577926E-17	3.123599E-17	2.894016E-01
5.446213E+03	5.544688E-17	3.122850E-17	2.891774E-01
5.446413E+03	5.512073E-17	3.095285E-17	2.889533E-01
5.446613E+03	5.480369E-17	3.088219E-17	2.887292E-01
5.446812E+03	5.449571E-17	3.077992E-17	2.885050E-01
5.447012E+03	5.419101E-17	3.067203E-17	2.882807E-01
5.447212E+03	5.389537E-17	3.052693E-17	2.880565E-01
5.447413E+03	5.360875E-17	3.010056E-17	2.878322E-01
5.447613E+03	5.331100E-17	2.924723E-17	2.876079E-01
5.447812E+03	5.301367E-17	2.906331E-17	2.873837E-01
5.448012E+03	5.271671E-17	2.849115E-17	2.871593E-01
5.448212E+03	5.240294E-17	2.847116E-17	2.869350E-01
5.448412E+03	5.207238E-17	2.835243E-17	2.867106E-01
5.448612E+03	5.175086E-17	2.835563E-17	2.864862E-01
5.448812E+03	5.144983E-17	2.816521E-17	2.862618E-01
5.449012E+03	5.118640E-17	2.744010E-17	2.860375E-01
5.449212E+03	5.088328E-17	2.732446E-17	2.858130E-01
5.449412E+03	5.058628E-17	2.729759E-17	2.855885E-01
5.449612E+03	5.029255E-17	2.726675E-17	2.853640E-01
5.449812E+03	4.999065E-17	2.687833E-17	2.851395E-01
5.450013E+03	4.972315E-17	2.646746E-17	2.849138E-01
5.450213E+03	4.948183E-17	2.641635E-17	2.846892E-01
5.450413E+03	4.923800E-17	2.635422E-17	2.844648E-01
5.450613E+03	4.900017E-17	2.632619E-17	2.842402E-01
5.450813E+03	4.872003E-17	2.626121E-17	2.840155E-01
5.451013E+03	4.848284E-17	2.623125E-17	2.837909E-01
5.451213E+03	4.826865E-17	2.585822E-17	2.835663E-01
5.451413E+03	4.803207E-17	2.533167E-17	2.833416E-01
5.451613E+03	4.782130E-17	2.495371E-17	2.831170E-01
5.451813E+03	4.759097E-17	2.480284E-17	2.828923E-01
5.452013E+03	4.736378E-17	2.440438E-17	2.826676E-01
5.452213E+03	4.714254E-17	2.424204E-17	2.824429E-01
5.452413E+03	4.693569E-17	2.380527E-17	2.822181E-01
5.452613E+03	4.671220E-17	2.340204E-17	2.819933E-01
5.452813E+03	4.648056E-17	2.297358E-17	2.817687E-01
5.453013E+03	4.624922E-17	2.233051E-17	2.815439E-01
5.453213E+03	4.601817E-17	2.223144E-17	2.813191E-01
5.453413E+03	4.579025E-17	2.202041E-17	2.810942E-01
5.453613E+03	4.559915E-17	2.194672E-17	2.808694E-01
5.453813E+03	4.541671E-17	2.188742E-17	2.806446E-01
5.454013E+03	4.525975E-17	2.184447E-17	2.804198E-01
5.454213E+03	4.511698E-17	2.169713E-17	2.801949E-01
5.454413E+03	4.493518E-17	2.134113E-17	2.799700E-01
5.454613E+03	4.476481E-17	2.128744E-17	2.797451E-01
5.454813E+03	4.461421E-17	2.126367E-17	2.795201E-01
5.455013E+03	4.444703E-17	2.118363E-17	2.792952E-01
5.455213E+03	4.429962E-17	2.118665E-17	2.790703E-01
5.455414E+03	4.416614E-17	2.114678E-17	2.788443E-01
5.455614E+03	4.403299E-17	2.114620E-17	2.786193E-01
5.455814E+03	4.389164E-17	2.101651E-17	2.783942E-01
5.456014E+03	4.375880E-17	2.083130E-17	2.781692E-01
5.456214E+03	4.363447E-17	2.031481E-17	2.779442E-01
5.456414E+03	4.351306E-17	2.026388E-17	2.777193E-01
5.456614E+03	4.338345E-17	2.020662E-17	2.774942E-01
5.456814E+03	4.324568E-17	2.017455E-17	2.772692E-01
5.457014E+03	4.313300E-17	1.990265E-17	2.770441E-01
5.457214E+03	4.299830E-17	1.989151E-17	2.768190E-01
5.457414E+03	4.288866E-17	1.976055E-17	2.765939E-01
5.457614E+03	4.278744E-17	1.959015E-17	2.763690E-01
5.457814E+03	4.266146E-17	1.959107E-17	2.761439E-01
5.458014E+03	4.256874E-17	1.957035E-17	2.759187E-01
5.458214E+03	4.247335E-17	1.941969E-17	2.756936E-01
5.458414E+03	4.236429E-17	1.910452E-17	2.754684E-01
5.458614E+03	4.226636E-17	1.907922E-17	2.752433E-01
5.458814E+03	4.216578E-17	1.902350E-17	2.750181E-01
5.459014E+03	4.208456E-17	1.868101E-17	2.747930E-01
5.459213E+03	4.201712E-17	1.866353E-17	2.745679E-01
5.459413E+03	4.193054E-17	1.864297E-17	2.743427E-01
5.459614E+03	4.187144E-17	1.849663E-17	2.741175E-01
5.459814E+03	4.182061E-17	1.781778E-17	2.738923E-01
5.460014E+03	4.175064E-17	1.781485E-17	2.736670E-01
5.460213E+03	4.169990E-17	1.763470E-17	2.734419E-01
5.460413E+03	4.167921E-17	1.747453E-17	2.732167E-01
5.460613E+03	4.163392E-17	1.687536E-17	2.729914E-01
5.460813E+03	4.158321E-17	1.679988E-17	2.727662E-01
5.461014E+03	4.153234E-17	1.673555E-17	2.725398E-01
5.461214E+03	4.146806E-17	1.671713E-17	2.723145E-01
5.461414E+03	4.141744E-17	1.671502E-17	2.720894E-01
5.461614E+03	4.138859E-17	1.653494E-17	2.718641E-01
5.461814E+03	4.133800E-17	1.649319E-17	2.716388E-01
5.462014E+03	4.130914E-17	1.636488E-17	2.714135E-01
5.462214E+03	4.129654E-17	1.636393E-17	2.711882E-01
5.462414E+03	4.126765E-17	1.638339E-17	2.709629E-01
5.462614E+03	4.123877E-17	1.633572E-17	2.707377E-01
5.462814E+03	4.122879E-17	1.626745E-17	2.705124E-01
5.463014E+03	4.122689E-17	1.625309E-17	2.702871E-01
5.463214E+03	4.121952E-17	1.615354E-17	2.700617E-01
5.463414E+03	4.120402E-17	1.597061E-17	2.698364E-01
5.463614E+03	4.120466E-17	1.595998E-17	2.696111E-01
5.463814E+03	4.119718E-17	1.592599E-17	2.693858E-01
5.464014E+03	4.119770E-17	1.582327E-17	2.691605E-01
5.464214E+03	4.119280E-17	1.573512E-17	2.689351E-01
5.464414E+03	4.120933E-17	1.571481E-17	2.687098E-01
5.464614E+03	4.123652E-17	1.568174E-17	2.684844E-01
5.464814E+03	4.125020E-17	1.538402E-17	2.682591E-01
5.465014E+03	4.125308E-17	1.511852E-17	2.680338E-01
5.465214E+03	4.126660E-17	1.472233E-17	2.678084E-01
5.465414E+03	4.130412E-17	1.436984E-17	2.675831E-01
5.465614E+03	4.132548E-17	1.438711E-17	2.673577E-01
5.465814E+03	4.135475E-17	1.432423E-17	2.671323E-01
5.466014E+03	4.136257E-17	1.433558E-17	2.669069E-01
5.466214E+03	4.138898E-17	1.434512E-17	2.666815E-01
5.466415E+03	4.140979E-17	1.438604E-17	2.664551E-01
5.466615E+03	4.143600E-17	1.435952E-17	2.662298E-01
5.466815E+03	4.146210E-17	1.440172E-17	2.660044E-01
5.467015E+03	4.150936E-17	1.437317E-17	2.657790E-01
5.467215E+03	4.153789E-17	1.425516E-17	2.655536E-01
5.467415E+03	4.158224E-17	1.421331E-17	2.653282E-01
5.467615E+03	4.162911E-17	1.426026E-17	2.651029E-01
5.467815E+03	4.165994E-17	1.423126E-17	2.648775E-01
5.468015E+03	4.171182E-17	1.412225E-17	2.646521E-01
5.468215E+03	4.176356E-17	1.410479E-17	2.644267E-01
5.468415E+03	4.181779E-17	1.402335E-17	2.642014E-01
5.468615E+03	4.186923E-17	1.404135E-17	2.639760E-01
5.468815E+03	4.191262E-17	1.397940E-17	2.637507E-01
5.469015E+03	4.196640E-17	1.388778E-17	2.635253E-01
5.469215E+03	4.203583E-17	1.376191E-17	2.632999E-01
5.469415E+03	4.208929E-17	1.376043E-17	2.630745E-01
5.469615E+03	4.215574E-17	1.353473E-17	2.628491E-01
5.469815E+03	4.222727E-17	1.336498E-17	2.626237E-01
5.470015E+03	4.227502E-17	1.331148E-17	2.623985E-01
5.470215E+03	4.233833E-17	1.316821E-17	2.621731E-01
5.470415E+03	4.240933E-17	1.311794E-17	2.619477E-01
