#wls	flux	fluxerr	mangling_mask
2.993873E+03	7.858791E-17	2.026075E-16	5.853848E-01
3.006473E+03	7.868742E-17	2.026075E-16	5.853848E-01
3.023874E+03	7.874011E-17	2.026075E-16	5.853848E-01
3.027274E+03	7.882206E-17	2.026075E-16	5.853848E-01
3.028274E+03	7.890402E-17	2.026075E-16	5.853848E-01
3.033275E+03	7.896841E-17	2.026075E-16	5.853848E-01
3.035674E+03	7.900939E-17	2.026075E-16	5.853848E-01
3.040275E+03	7.905622E-17	2.026075E-16	5.853848E-01
3.043075E+03	7.909134E-17	2.026075E-16	5.853848E-01
3.043475E+03	7.913817E-17	2.026075E-16	5.853848E-01
3.045075E+03	7.919086E-17	2.026075E-16	5.853848E-01
3.047875E+03	7.923769E-17	2.026075E-16	5.853848E-01
3.048075E+03	7.929037E-17	2.026075E-16	5.853848E-01
3.048275E+03	7.930793E-17	2.026075E-16	5.853848E-01
3.048475E+03	7.932549E-17	2.026075E-16	5.853848E-01
3.051275E+03	7.933720E-17	2.026075E-16	5.853848E-01
3.051475E+03	7.934891E-17	2.026075E-16	5.853848E-01
3.052075E+03	7.934891E-17	2.026075E-16	5.853848E-01
3.053076E+03	7.938989E-17	2.026075E-16	5.853848E-01
3.053876E+03	7.938989E-17	2.026075E-16	5.853848E-01
3.055876E+03	7.937818E-17	2.026075E-16	5.853848E-01
3.056676E+03	7.937233E-17	2.026075E-16	5.853848E-01
3.056876E+03	7.936647E-17	2.026075E-16	5.853848E-01
3.057476E+03	7.936062E-17	2.026075E-16	5.853848E-01
3.057676E+03	7.934306E-17	2.026075E-16	5.853848E-01
3.058276E+03	7.934891E-17	2.026075E-16	5.853848E-01
3.059276E+03	7.936062E-17	2.026075E-16	5.853848E-01
3.060075E+03	7.932549E-17	2.026075E-16	5.853848E-01
3.061276E+03	7.927866E-17	2.026075E-16	5.853848E-01
3.062476E+03	7.926110E-17	2.026075E-16	5.853848E-01
3.062676E+03	7.922013E-17	2.026075E-16	5.853848E-01
3.063076E+03	7.917915E-17	2.026075E-16	5.853848E-01
3.064676E+03	7.915573E-17	2.026075E-16	5.853848E-01
3.065476E+03	7.912061E-17	2.026075E-16	5.853848E-01
3.066076E+03	7.906207E-17	2.026075E-16	5.853848E-01
3.066876E+03	7.902109E-17	2.026075E-16	5.853848E-01
3.067476E+03	7.895085E-17	2.026075E-16	5.853848E-01
3.068077E+03	7.888646E-17	2.026075E-16	5.853848E-01
3.069077E+03	7.881036E-17	2.026075E-16	5.853848E-01
3.069677E+03	7.873426E-17	2.026075E-16	5.853848E-01
3.070277E+03	7.865230E-17	2.026075E-16	5.853848E-01
3.070477E+03	7.857035E-17	2.026075E-16	5.853848E-01
3.073876E+03	7.848839E-17	2.026075E-16	5.853848E-01
3.074076E+03	7.840059E-17	2.026075E-16	5.853848E-01
3.074276E+03	7.831278E-17	2.026075E-16	5.853848E-01
3.074476E+03	7.822497E-17	2.026075E-16	5.853848E-01
3.075076E+03	7.813131E-17	2.026075E-16	5.853848E-01
3.075877E+03	7.803179E-17	2.026075E-16	5.853848E-01
3.076077E+03	7.793228E-17	2.026075E-16	5.853848E-01
3.076277E+03	7.783276E-17	2.026075E-16	5.853848E-01
3.077277E+03	7.772739E-17	2.026075E-16	5.853848E-01
3.078277E+03	7.761617E-17	2.026075E-16	5.853848E-01
3.079077E+03	7.749909E-17	2.026075E-16	5.853848E-01
3.079477E+03	7.738202E-17	2.026075E-16	5.853848E-01
3.080477E+03	7.725323E-17	2.026075E-16	5.853848E-01
3.080677E+03	7.711859E-17	2.026075E-16	5.853848E-01
3.080877E+03	7.698396E-17	2.026075E-16	5.853848E-01
3.081077E+03	7.684346E-17	2.026075E-16	5.853848E-01
3.081277E+03	7.670297E-17	2.026075E-16	5.853848E-01
3.081877E+03	7.655662E-17	2.026075E-16	5.853848E-01
3.082077E+03	7.641028E-17	2.026075E-16	5.853848E-01
3.082477E+03	7.625808E-17	2.026075E-16	5.853848E-01
3.082677E+03	7.610588E-17	2.026075E-16	5.853848E-01
3.083077E+03	7.594782E-17	2.026075E-16	5.853848E-01
3.084677E+03	7.578392E-17	2.026075E-16	5.853848E-01
3.084877E+03	7.562001E-17	2.026075E-16	5.853848E-01
3.085477E+03	7.545610E-17	2.026075E-16	5.853848E-01
3.085877E+03	7.529805E-17	2.026075E-16	5.853848E-01
3.086077E+03	7.512829E-17	2.026075E-16	5.853848E-01
3.086677E+03	7.495852E-17	2.026075E-16	5.853848E-01
3.086877E+03	7.476535E-17	2.026075E-16	5.853848E-01
3.087077E+03	7.458973E-17	2.026075E-16	5.853848E-01
3.088277E+03	7.442582E-17	2.026075E-16	5.853848E-01
3.088477E+03	7.423850E-17	2.026075E-16	5.853848E-01
3.088677E+03	7.406874E-17	2.026075E-16	5.853848E-01
3.090278E+03	7.388142E-17	2.026075E-16	5.853848E-01
3.090478E+03	7.369995E-17	2.026075E-16	5.853848E-01
3.090878E+03	7.350092E-17	2.026075E-16	5.853848E-01
3.091078E+03	7.329018E-17	2.026075E-16	5.853848E-01
3.091678E+03	7.307358E-17	2.026075E-16	5.853848E-01
3.092878E+03	7.285114E-17	2.026075E-16	5.853848E-01
3.093078E+03	7.265211E-17	2.026075E-16	5.853848E-01
3.093278E+03	7.242966E-17	2.026075E-16	5.853848E-01
3.093878E+03	7.225405E-17	2.026075E-16	5.853848E-01
3.094078E+03	7.202575E-17	2.026075E-16	5.853848E-01
3.094478E+03	7.182086E-17	2.026075E-16	5.853848E-01
3.095077E+03	7.159841E-17	2.026075E-16	5.853848E-01
3.095477E+03	7.136426E-17	2.026075E-16	5.853848E-01
3.095677E+03	7.111255E-17	2.026075E-16	5.853848E-01
3.096677E+03	7.090766E-17	2.026075E-16	5.853848E-01
3.096877E+03	7.067351E-17	2.026075E-16	5.853848E-01
3.097077E+03	7.042765E-17	2.026075E-16	5.853848E-01
3.097277E+03	7.017008E-17	2.026075E-16	5.853848E-01
3.097477E+03	6.993592E-17	2.026075E-16	5.853848E-01
3.097677E+03	6.967250E-17	2.026075E-16	5.853848E-01
3.098078E+03	6.940322E-17	2.026075E-16	5.853848E-01
3.098678E+03	6.914565E-17	2.026075E-16	5.853848E-01
3.098878E+03	6.886467E-17	2.026075E-16	5.853848E-01
3.099478E+03	6.860124E-17	2.026075E-16	5.853848E-01
3.099678E+03	6.834368E-17	2.025490E-16	5.853848E-01
3.100078E+03	6.808025E-17	1.740993E-16	5.853848E-01
3.100278E+03	6.782268E-17	1.462525E-16	5.853848E-01
3.101478E+03	6.753584E-17	1.460886E-16	5.853848E-01
3.101678E+03	6.724315E-17	1.460945E-16	5.853848E-01
3.101878E+03	6.693875E-17	8.467006E-17	5.853848E-01
3.102278E+03	6.663435E-17	8.399101E-17	5.853848E-01
3.102478E+03	6.633581E-17	8.387393E-17	5.853848E-01
3.103478E+03	6.602555E-17	8.382710E-17	5.853848E-01
3.103678E+03	6.571530E-17	7.680834E-17	5.853848E-01
3.103878E+03	6.540504E-17	7.384044E-17	5.853848E-01
3.104078E+03	6.509479E-17	7.307944E-17	5.853848E-01
3.105479E+03	6.478454E-17	7.307944E-17	5.853848E-01
3.106079E+03	6.447428E-17	7.185598E-17	5.853848E-01
3.106878E+03	6.415817E-17	7.048033E-17	5.853848E-01
3.107079E+03	6.383621E-17	7.046277E-17	5.853848E-01
3.108478E+03	6.352010E-17	6.559822E-17	5.853848E-01
3.108878E+03	6.319814E-17	6.381280E-17	5.853848E-01
3.109278E+03	6.287033E-17	5.880190E-17	5.853848E-01
3.109478E+03	6.254251E-17	5.713063E-17	5.853848E-01
3.110278E+03	6.221470E-17	5.655285E-17	5.853848E-01
3.110478E+03	6.188688E-17	5.649607E-17	5.853848E-01
3.110678E+03	6.156492E-17	5.638719E-17	5.853848E-01
3.110878E+03	6.124296E-17	5.638192E-17	5.853848E-01
3.111078E+03	6.089758E-17	5.638251E-17	5.853848E-01
3.111278E+03	6.054635E-17	5.628416E-17	5.853848E-01
3.112278E+03	6.021853E-17	5.282278E-17	5.853848E-01
3.113079E+03	5.986145E-17	5.251019E-17	5.853848E-01
3.114279E+03	5.952778E-17	4.789677E-17	5.853848E-01
3.114479E+03	5.920582E-17	4.770125E-17	5.853848E-01
3.114679E+03	5.887215E-17	4.701342E-17	5.853848E-01
3.115479E+03	5.852794E-17	4.671780E-17	5.853848E-01
3.115679E+03	5.815681E-17	4.672541E-17	5.853848E-01
3.117079E+03	5.779563E-17	4.641809E-17	5.853848E-01
3.117679E+03	5.743444E-17	4.642394E-17	5.853848E-01
3.117879E+03	5.707912E-17	4.631682E-17	5.853848E-01
3.119278E+03	5.673491E-17	4.318442E-17	5.853848E-01
3.121079E+03	5.635207E-17	4.142944E-17	5.853848E-01
3.121279E+03	5.598679E-17	4.036111E-17	5.853848E-01
3.121479E+03	5.560043E-17	3.437028E-17	5.853848E-01
3.123679E+03	5.522930E-17	3.331893E-17	5.853848E-01
3.124879E+03	5.484763E-17	3.282194E-17	5.853848E-01
3.125079E+03	5.447649E-17	3.277394E-17	5.853848E-01
3.125479E+03	5.410243E-17	3.198601E-17	5.853848E-01
3.125679E+03	5.372428E-17	3.212123E-17	5.853848E-01
3.126879E+03	5.334202E-17	3.214406E-17	5.853848E-01
3.127079E+03	5.295684E-17	3.204513E-17	5.853848E-01
3.127479E+03	5.256814E-17	3.179225E-17	5.853848E-01
3.129480E+03	5.217652E-17	3.070460E-17	5.853848E-01
3.129680E+03	5.178138E-17	3.074500E-17	5.853848E-01
3.130480E+03	5.138274E-17	3.073563E-17	5.853848E-01
3.130680E+03	5.097941E-17	3.073856E-17	5.853848E-01
3.131079E+03	5.057198E-17	3.073212E-17	5.853848E-01
3.131680E+03	5.016104E-17	2.721161E-17	5.853848E-01
3.131880E+03	4.975654E-17	2.734976E-17	5.853848E-01
3.132079E+03	4.933389E-17	2.734742E-17	5.853848E-01
3.133279E+03	4.891241E-17	2.754996E-17	5.853848E-01
3.133679E+03	4.852899E-17	2.586933E-17	5.853848E-01
3.134479E+03	4.811395E-17	2.593255E-17	5.853848E-01
3.135280E+03	4.768603E-17	2.593138E-17	5.853848E-01
3.135480E+03	4.727099E-17	2.597996E-17	5.853848E-01
3.135680E+03	4.689108E-17	2.593430E-17	5.853848E-01
3.135880E+03	4.647487E-17	2.592377E-17	5.853848E-01
3.136080E+03	4.606100E-17	2.595011E-17	5.853848E-01
3.137280E+03	4.562548E-17	2.599226E-17	5.853848E-01
3.137480E+03	4.519229E-17	2.597879E-17	5.853848E-01
3.139680E+03	4.475208E-17	2.602035E-17	5.853848E-01
3.140080E+03	4.434875E-17	2.417171E-17	5.853848E-01
3.141480E+03	4.391088E-17	2.422966E-17	5.853848E-01
3.141880E+03	4.348238E-17	2.377540E-17	5.853848E-01
3.143081E+03	4.306676E-17	2.379531E-17	5.853848E-01
3.143680E+03	4.262070E-17	2.390302E-17	5.853848E-01
3.144081E+03	4.218927E-17	2.397034E-17	5.853848E-01
3.144480E+03	4.176603E-17	2.397561E-17	5.853848E-01
3.145080E+03	4.134807E-17	2.390536E-17	5.853848E-01
3.146080E+03	4.092074E-17	2.310982E-17	5.853848E-01
3.146280E+03	4.050453E-17	2.324622E-17	5.853848E-01
3.147080E+03	4.007661E-17	2.335276E-17	5.853848E-01
3.147280E+03	3.966977E-17	2.330241E-17	5.853848E-01
3.147680E+03	3.926059E-17	2.337500E-17	5.853848E-01
3.148280E+03	3.882682E-17	2.344291E-17	5.853848E-01
3.149680E+03	3.839188E-17	2.332232E-17	5.853848E-01
3.150081E+03	3.794640E-17	2.340017E-17	5.853848E-01
3.151081E+03	3.753019E-17	2.303021E-17	5.853848E-01
3.151281E+03	3.707300E-17	2.292484E-17	5.853848E-01
3.152081E+03	3.664099E-17	2.297928E-17	5.853848E-01
3.152481E+03	3.622537E-17	2.323802E-17	5.853848E-01
3.152681E+03	3.578867E-17	2.325500E-17	5.853848E-01
3.153681E+03	3.532914E-17	2.367706E-17	5.853848E-01
3.153881E+03	3.492991E-17	2.414771E-17	5.853848E-01
3.154081E+03	3.449087E-17	2.424605E-17	5.853848E-01
3.154481E+03	3.402491E-17	2.404878E-17	5.853848E-01
3.156480E+03	3.361689E-17	2.393463E-17	5.853848E-01
3.157080E+03	3.316907E-17	2.397970E-17	5.853848E-01
3.158881E+03	3.272067E-17	2.404585E-17	5.853848E-01
3.161481E+03	3.226407E-17	2.387082E-17	5.853848E-01
3.161681E+03	3.181742E-17	2.396975E-17	5.853848E-01
3.161881E+03	3.140589E-17	2.392936E-17	5.853848E-01
3.162081E+03	3.094637E-17	2.393521E-17	5.853848E-01
3.162881E+03	3.049796E-17	2.384097E-17	5.853848E-01
3.163481E+03	3.007122E-17	2.386731E-17	5.853848E-01
3.164081E+03	2.961754E-17	2.397619E-17	5.853848E-01
3.164281E+03	2.916446E-17	2.399317E-17	5.853848E-01
3.164481E+03	2.870786E-17	2.400956E-17	5.853848E-01
3.164882E+03	2.828228E-17	2.404351E-17	5.853848E-01
3.165482E+03	2.782744E-17	2.412898E-17	5.853848E-01
3.165882E+03	2.738079E-17	2.416937E-17	5.853848E-01
3.166082E+03	2.691775E-17	2.406107E-17	5.853848E-01
3.166282E+03	2.649159E-17	2.409268E-17	5.853848E-01
3.166482E+03	2.603792E-17	2.411317E-17	5.853848E-01
3.167082E+03	2.558132E-17	2.396507E-17	5.853848E-01
3.167682E+03	2.515106E-17	2.405288E-17	5.853848E-01
3.168081E+03	2.472080E-17	2.412839E-17	5.853848E-01
3.168282E+03	2.427591E-17	2.418459E-17	5.853848E-01
3.168881E+03	2.381697E-17	2.423083E-17	5.853848E-01
3.169481E+03	2.336915E-17	2.423727E-17	5.853848E-01
3.169681E+03	2.291313E-17	2.422732E-17	5.853848E-01
3.171281E+03	2.249751E-17	2.419981E-17	5.853848E-01
3.172282E+03	2.209067E-17	2.416176E-17	5.853848E-01
3.172482E+03	2.165573E-17	2.408566E-17	5.853848E-01
3.172882E+03	2.123483E-17	2.399726E-17	5.853848E-01
3.173482E+03	2.081219E-17	2.389599E-17	5.853848E-01
3.173682E+03	2.036378E-17	2.378009E-17	5.853848E-01
3.174282E+03	1.992884E-17	2.363901E-17	5.853848E-01
3.174482E+03	1.948219E-17	2.365072E-17	5.853848E-01
3.174882E+03	1.906306E-17	2.345227E-17	5.853848E-01
3.175082E+03	1.864099E-17	2.333110E-17	5.853848E-01
3.175682E+03	1.820605E-17	2.315314E-17	5.853848E-01
3.176482E+03	1.779277E-17	2.297167E-17	5.853848E-01
3.177082E+03	1.735607E-17	2.278610E-17	5.853848E-01
3.177282E+03	1.692523E-17	2.259410E-17	5.853848E-01
3.177482E+03	1.649614E-17	2.240151E-17	5.853848E-01
3.178082E+03	1.608345E-17	2.219896E-17	5.853848E-01
3.178282E+03	1.565495E-17	2.199057E-17	5.853848E-01
3.178882E+03	1.524401E-17	2.177807E-17	5.853848E-01
3.179481E+03	1.485472E-17	2.155738E-17	5.853848E-01
3.179682E+03	1.445432E-17	2.132732E-17	5.853848E-01
3.180282E+03	1.407148E-17	2.109317E-17	5.853848E-01
3.180482E+03	1.365469E-17	2.085843E-17	5.853848E-01
3.180882E+03	1.323555E-17	2.090058E-17	5.853848E-01
3.183282E+03	1.284042E-17	2.084438E-17	5.853848E-01
3.183482E+03	1.246577E-17	2.084965E-17	5.853848E-01
3.184482E+03	1.208995E-17	2.065413E-17	5.853848E-01
3.185282E+03	1.170184E-17	2.064125E-17	5.853848E-01
3.185682E+03	1.131022E-17	2.051013E-17	5.853848E-01
3.186482E+03	1.091801E-17	2.034973E-17	5.853848E-01
3.186682E+03	1.052405E-17	2.017470E-17	5.853848E-01
3.186882E+03	1.013243E-17	1.991772E-17	5.853848E-01
3.187483E+03	9.743730E-18	1.964727E-17	5.853848E-01
3.188083E+03	9.357961E-18	1.937682E-17	5.853848E-01
3.188683E+03	8.973949E-18	1.922170E-17	5.853848E-01
3.189083E+03	8.593449E-18	1.923926E-17	5.853848E-01
3.189283E+03	8.215876E-18	1.917779E-17	5.853848E-01
3.189483E+03	7.841229E-18	1.891671E-17	5.853848E-01
3.190083E+03	7.469510E-18	1.874109E-17	5.853848E-01
3.190283E+03	7.101303E-18	1.856899E-17	5.853848E-01
3.190683E+03	6.736608E-18	1.859709E-17	5.853848E-01
3.191083E+03	6.374840E-18	1.843260E-17	5.853848E-01
3.191283E+03	6.017756E-18	1.843962E-17	5.853848E-01
3.192082E+03	5.664300E-18	1.829737E-17	5.853848E-01
3.192282E+03	5.315118E-18	1.810185E-17	5.853848E-01
3.192483E+03	4.970151E-18	1.810361E-17	5.853848E-01
3.193082E+03	4.629399E-18	1.809600E-17	5.853848E-01
3.193682E+03	4.293154E-18	1.800058E-17	5.853848E-01
3.193882E+03	3.961767E-18	1.787824E-17	5.853848E-01
3.194683E+03	3.635064E-18	1.776936E-17	5.853848E-01
3.194883E+03	3.312693E-18	1.766399E-17	5.853848E-01
3.196083E+03	2.994770E-18	1.757150E-17	5.853848E-01
3.196283E+03	2.706585E-18	1.748427E-17	5.853848E-01
3.197483E+03	2.393697E-18	1.744798E-17	5.853848E-01
3.197683E+03	2.099014E-18	1.737539E-17	5.853848E-01
3.197883E+03	1.797014E-18	1.731041E-17	5.853848E-01
3.198083E+03	1.494487E-18	1.725305E-17	5.853848E-01
3.198483E+03	1.210751E-18	1.719509E-17	5.853848E-01
3.199083E+03	9.566944E-19	1.715177E-17	5.853848E-01
3.199283E+03	6.650557E-19	1.711080E-17	5.853848E-01
3.199883E+03	3.813723E-19	1.706397E-17	5.853848E-01
3.200283E+03	1.012247E-19	1.700953E-17	5.853848E-01
3.200483E+03	-1.532713E-19	1.695391E-17	5.853848E-01
3.200683E+03	-4.162847E-19	1.690240E-17	5.853848E-01
3.201483E+03	-6.765878E-19	1.683215E-17	5.853848E-01
3.202084E+03	-9.389572E-19	1.678591E-17	5.853848E-01
3.202884E+03	-1.150340E-18	1.670922E-17	5.853848E-01
3.203684E+03	-1.381274E-18	1.664073E-17	5.853848E-01
3.203883E+03	-1.626550E-18	1.658746E-17	5.853848E-01
3.204084E+03	-1.861231E-18	1.652483E-17	5.853848E-01
3.204284E+03	-2.088126E-18	1.631350E-17	5.853848E-01
3.204483E+03	-2.298104E-18	1.633458E-17	5.853848E-01
3.205083E+03	-2.528043E-18	1.619584E-17	5.853848E-01
3.205283E+03	-2.703951E-18	1.608637E-17	5.853848E-01
3.206083E+03	-2.915392E-18	1.596696E-17	5.853848E-01
3.206483E+03	-3.129350E-18	1.589203E-17	5.853848E-01
3.206883E+03	-3.319132E-18	1.578314E-17	5.853848E-01
3.207083E+03	-3.522377E-18	1.563212E-17	5.853848E-01
3.207283E+03	-3.719711E-18	1.545826E-17	5.853848E-01
3.207483E+03	-3.872555E-18	1.527913E-17	5.853848E-01
3.207883E+03	-4.038394E-18	1.511112E-17	5.853848E-01
3.208083E+03	-4.202887E-18	1.503385E-17	5.853848E-01
3.208283E+03	-4.372239E-18	1.491326E-17	5.853848E-01
3.208683E+03	-4.507346E-18	1.473062E-17	5.853848E-01
3.208883E+03	-4.647663E-18	1.463111E-17	5.853848E-01
3.209083E+03	-4.803434E-18	1.444964E-17	5.853848E-01
3.209284E+03	-4.952472E-18	1.426232E-17	5.853848E-01
3.209484E+03	-5.072828E-18	1.410836E-17	5.853848E-01
3.209684E+03	-5.197163E-18	1.398484E-17	5.853848E-01
3.210084E+03	-5.315118E-18	1.386191E-17	5.853848E-01
3.210284E+03	-5.426751E-18	1.376123E-17	5.853848E-01
3.210484E+03	-5.532121E-18	1.363010E-17	5.853848E-01
3.211284E+03	-5.630875E-18	1.348610E-17	5.853848E-01
3.211484E+03	-5.723600E-18	1.336375E-17	5.853848E-01
3.211684E+03	-5.809534E-18	1.323555E-17	5.853848E-01
3.211884E+03	-5.888386E-18	1.317701E-17	5.853848E-01
3.212084E+03	-5.960973E-18	1.310091E-17	5.853848E-01
3.212484E+03	-6.025951E-18	1.303242E-17	5.853848E-01
3.213284E+03	-6.085075E-18	1.296744E-17	5.853848E-01
3.213684E+03	-6.139516E-18	1.290832E-17	5.853848E-01
3.214284E+03	-6.184005E-18	1.278422E-17	5.853848E-01
3.214484E+03	-6.208591E-18	1.270109E-17	5.853848E-01
3.214684E+03	-6.234348E-18	1.262148E-17	5.853848E-01
3.214884E+03	-6.251324E-18	1.253016E-17	5.853848E-01
3.215883E+03	-6.247812E-18	1.243533E-17	5.853848E-01
3.216084E+03	-6.258349E-18	1.233230E-17	5.853848E-01
3.217084E+03	-6.251910E-18	1.231181E-17	5.853848E-01
3.217284E+03	-6.242544E-18	1.225562E-17	5.853848E-01
3.217884E+03	-6.231421E-18	1.223864E-17	5.853848E-01
3.218084E+03	-6.188688E-18	1.219825E-17	5.853848E-01
3.218284E+03	-6.124881E-18	1.223923E-17	5.853848E-01
3.219084E+03	-6.081563E-18	1.217249E-17	5.853848E-01
3.219284E+03	-6.020097E-18	1.211103E-17	5.853848E-01
3.220084E+03	-5.949851E-18	1.213912E-17	5.853848E-01
3.220284E+03	-5.879605E-18	1.214322E-17	5.853848E-01
3.220484E+03	-5.775172E-18	1.211220E-17	5.853848E-01
3.220684E+03	-5.683794E-18	1.211337E-17	5.853848E-01
3.221484E+03	-5.577663E-18	1.204722E-17	5.853848E-01
3.222484E+03	-5.484236E-18	1.201561E-17	5.853848E-01
3.222884E+03	-5.365637E-18	1.198458E-17	5.853848E-01
3.224085E+03	-5.241126E-18	1.200273E-17	5.853848E-01
3.224285E+03	-5.120536E-18	1.198810E-17	5.853848E-01
3.224885E+03	-4.987713E-18	1.202849E-17	5.853848E-01
3.226285E+03	-4.818946E-18	1.206185E-17	5.853848E-01
3.226485E+03	-4.659546E-18	1.209171E-17	5.853848E-01
3.226685E+03	-4.503365E-18	1.199395E-17	5.853848E-01
3.226885E+03	-4.339809E-18	1.199629E-17	5.853848E-01
3.227085E+03	-4.135451E-18	1.196000E-17	5.853848E-01
3.227285E+03	-3.935132E-18	1.197463E-17	5.853848E-01
3.227485E+03	-3.729662E-18	1.198341E-17	5.853848E-01
3.229084E+03	-3.511021E-18	1.200390E-17	5.853848E-01
3.229284E+03	-3.278682E-18	1.198283E-17	5.853848E-01
3.229484E+03	-3.040313E-18	1.196175E-17	5.853848E-01
3.229884E+03	-2.810140E-18	1.196527E-17	5.853848E-01
3.230084E+03	-2.537760E-18	1.198810E-17	5.853848E-01
3.230284E+03	-2.263273E-18	1.198692E-17	5.853848E-01
3.230484E+03	-2.001957E-18	1.199336E-17	5.853848E-01
3.230684E+03	-1.724953E-18	1.184702E-17	5.853848E-01
3.230884E+03	-1.441334E-18	1.186107E-17	5.853848E-01
3.231084E+03	-1.127100E-18	1.189268E-17	5.853848E-01
3.231685E+03	-8.103482E-19	1.190673E-17	5.853848E-01
3.231885E+03	-4.876782E-19	1.193131E-17	5.853848E-01
3.233085E+03	-1.619350E-19	1.195648E-17	5.853848E-01
3.233285E+03	1.866734E-19	1.196527E-17	5.853848E-01
3.233485E+03	5.317109E-19	1.197346E-17	5.853848E-01
3.234285E+03	8.882629E-19	1.200156E-17	5.853848E-01
3.234485E+03	1.261270E-18	1.202497E-17	5.853848E-01
3.234685E+03	1.664542E-18	1.200273E-17	5.853848E-01
3.236085E+03	2.060379E-18	1.202497E-17	5.853848E-01
3.237285E+03	2.475944E-18	1.202849E-17	5.853848E-01
3.237685E+03	2.906084E-18	1.203376E-17	5.853848E-01
3.237885E+03	3.350274E-18	1.204078E-17	5.853848E-01
3.238085E+03	3.788552E-18	1.193892E-17	5.853848E-01
3.238285E+03	4.238596E-18	1.195297E-17	5.853848E-01
3.238485E+03	4.699820E-18	1.182126E-17	5.853848E-01
3.239286E+03	5.171582E-18	1.183707E-17	5.853848E-01
3.239486E+03	5.663715E-18	1.178555E-17	5.853848E-01
3.239885E+03	6.176980E-18	1.166555E-17	5.853848E-01
3.240485E+03	6.683338E-18	1.165150E-17	5.853848E-01
3.240686E+03	7.210185E-18	1.165969E-17	5.853848E-01
3.240885E+03	7.752836E-18	1.165735E-17	5.853848E-01
3.242085E+03	8.303683E-18	1.168018E-17	5.853848E-01
3.242285E+03	8.873263E-18	1.171062E-17	5.853848E-01
3.242485E+03	9.443428E-18	1.169892E-17	5.853848E-01
3.242685E+03	1.003232E-17	1.171179E-17	5.853848E-01
3.244485E+03	1.063059E-17	1.173345E-17	5.853848E-01
3.244685E+03	1.125578E-17	1.148759E-17	5.853848E-01
