#wls	flux	fluxerr	mangling_mask
2.996600E+03	2.756838E-16	8.116623E-16	1.923151E+00
2.998200E+03	2.750054E-16	8.117689E-16	1.923518E+00
3.024602E+03	2.751368E-16	8.141201E-16	1.929566E+00
3.040804E+03	2.749208E-16	8.155739E-16	1.933339E+00
3.041404E+03	2.742446E-16	8.155946E-16	1.933479E+00
3.042004E+03	2.735298E-16	8.156139E-16	1.933619E+00
3.042204E+03	2.728403E-16	8.155981E-16	1.933666E+00
3.043804E+03	2.721003E-16	8.157078E-16	1.934042E+00
3.044204E+03	2.713399E-16	8.157071E-16	1.934136E+00
3.044404E+03	2.705728E-16	8.156879E-16	1.934183E+00
3.045004E+03	2.697994E-16	8.157052E-16	1.934323E+00
3.046004E+03	2.690391E-16	8.157600E-16	1.934559E+00
3.047204E+03	2.683818E-16	8.158383E-16	1.934841E+00
3.051604E+03	2.677707E-16	8.162135E-16	1.935878E+00
3.052205E+03	2.669965E-16	8.162318E-16	1.936020E+00
3.053205E+03	2.662547E-16	8.162888E-16	1.936257E+00
3.055005E+03	2.654804E-16	8.164183E-16	1.936682E+00
3.055205E+03	2.647122E-16	8.164006E-16	1.936730E+00
3.055805E+03	2.639181E-16	8.164187E-16	1.936872E+00
3.056005E+03	2.630917E-16	8.163985E-16	1.936919E+00
3.057606E+03	2.623490E-16	8.165122E-16	1.937299E+00
3.057806E+03	2.615417E-16	8.164932E-16	1.937346E+00
3.058805E+03	2.607793E-16	8.165508E-16	1.937583E+00
3.059605E+03	2.599717E-16	8.165879E-16	1.937773E+00
3.061005E+03	2.591248E-16	8.166793E-16	1.938106E+00
3.061405E+03	2.583234E-16	8.166799E-16	1.938201E+00
3.061605E+03	2.574576E-16	8.166590E-16	1.938249E+00
3.061805E+03	2.565917E-16	8.166383E-16	1.938296E+00
3.062005E+03	2.557063E-16	8.166168E-16	1.938344E+00
3.062405E+03	2.548853E-16	8.166171E-16	1.938439E+00
3.063406E+03	2.540443E-16	8.166729E-16	1.938677E+00
3.065006E+03	2.532217E-16	8.167861E-16	1.939059E+00
3.066006E+03	2.523413E-16	8.168407E-16	1.939297E+00
3.066206E+03	2.514555E-16	8.168201E-16	1.939345E+00
3.067406E+03	2.505810E-16	8.168943E-16	1.939631E+00
3.067806E+03	2.497011E-16	8.168932E-16	1.939727E+00
3.068006E+03	2.487955E-16	8.168723E-16	1.939775E+00
3.068206E+03	2.478899E-16	8.168516E-16	1.939823E+00
3.069007E+03	2.470220E-16	8.168894E-16	1.940014E+00
3.069807E+03	2.461539E-16	8.169273E-16	1.940206E+00
3.070207E+03	2.452541E-16	8.169263E-16	1.940301E+00
3.071806E+03	2.444098E-16	8.170414E-16	1.940685E+00
3.072006E+03	2.435037E-16	8.170216E-16	1.940732E+00
3.072606E+03	2.426290E-16	8.170412E-16	1.940876E+00
3.072806E+03	2.416839E-16	8.170201E-16	1.940924E+00
3.073006E+03	2.407582E-16	8.170000E-16	1.940972E+00
3.073206E+03	2.398131E-16	8.169792E-16	1.941020E+00
3.073406E+03	2.388679E-16	8.169586E-16	1.941068E+00
3.074006E+03	2.379732E-16	8.169784E-16	1.941212E+00
3.074206E+03	2.370085E-16	8.169573E-16	1.941260E+00
3.074406E+03	2.360437E-16	8.169365E-16	1.941308E+00
3.074606E+03	2.351371E-16	8.169182E-16	1.941356E+00
3.074807E+03	2.342111E-16	8.168993E-16	1.941405E+00
3.075007E+03	2.332850E-16	8.168806E-16	1.941453E+00
3.075207E+03	2.323200E-16	8.168604E-16	1.941501E+00
3.075407E+03	2.313550E-16	8.168404E-16	1.941549E+00
3.076007E+03	2.304013E-16	8.168593E-16	1.941693E+00
3.076207E+03	2.294750E-16	8.168412E-16	1.941741E+00
3.076607E+03	2.285542E-16	8.168427E-16	1.941837E+00
3.076807E+03	2.275501E-16	8.168219E-16	1.941885E+00
3.077007E+03	2.266236E-16	8.168043E-16	1.941934E+00
3.077407E+03	2.256250E-16	8.168033E-16	1.942030E+00
3.077607E+03	2.246596E-16	8.167846E-16	1.942078E+00
3.078007E+03	2.237579E-16	8.167877E-16	1.942174E+00
3.078807E+03	2.228283E-16	8.168285E-16	1.942367E+00
3.079407E+03	2.218154E-16	8.168470E-16	1.942512E+00
3.080207E+03	2.208078E-16	8.168852E-16	1.942704E+00
3.080408E+03	2.198031E-16	8.168661E-16	1.942753E+00
3.080608E+03	2.187788E-16	8.168463E-16	1.942801E+00
3.080808E+03	2.177740E-16	8.168274E-16	1.942849E+00
3.081008E+03	2.167497E-16	8.168081E-16	1.942898E+00
3.081408E+03	2.157501E-16	8.168091E-16	1.942994E+00
3.081808E+03	2.147115E-16	8.168090E-16	1.943091E+00
3.082408E+03	2.136782E-16	8.168286E-16	1.943236E+00
3.082608E+03	2.126730E-16	8.168108E-16	1.943284E+00
3.083008E+03	2.116147E-16	8.168106E-16	1.943381E+00
3.083407E+03	2.105758E-16	8.168113E-16	1.943477E+00
3.083807E+03	2.096145E-16	8.168151E-16	1.943574E+00
3.084407E+03	2.086194E-16	8.168373E-16	1.943719E+00
3.085407E+03	2.076734E-16	8.169004E-16	1.943961E+00
3.085607E+03	2.066288E-16	8.168824E-16	1.944010E+00
3.085807E+03	2.055453E-16	8.168632E-16	1.944058E+00
3.086007E+03	2.045200E-16	8.168463E-16	1.944106E+00
3.086208E+03	2.034947E-16	8.168297E-16	1.944155E+00
3.087008E+03	2.024262E-16	8.168702E-16	1.944349E+00
3.087208E+03	2.013812E-16	8.168533E-16	1.944397E+00
3.088008E+03	2.003513E-16	8.168957E-16	1.944591E+00
3.088208E+03	1.992478E-16	8.168772E-16	1.944640E+00
3.088608E+03	1.982465E-16	8.168820E-16	1.944737E+00
3.088808E+03	1.972013E-16	8.168659E-16	1.944786E+00
3.089808E+03	1.962145E-16	8.169304E-16	1.945028E+00
3.090408E+03	1.951010E-16	8.169517E-16	1.945174E+00
3.091008E+03	1.939931E-16	8.169734E-16	1.945320E+00
3.091208E+03	1.928891E-16	8.169563E-16	1.945369E+00
3.091408E+03	1.918045E-16	8.169401E-16	1.945417E+00
3.091809E+03	1.907480E-16	8.169447E-16	1.945515E+00
3.092209E+03	1.896563E-16	8.169484E-16	1.945612E+00
3.092409E+03	1.885443E-16	8.169319E-16	1.945661E+00
3.092609E+03	1.874068E-16	8.169149E-16	1.945709E+00
3.093009E+03	1.863188E-16	8.169193E-16	1.945807E+00
3.093209E+03	1.851793E-16	8.169027E-16	1.945856E+00
3.093409E+03	1.840903E-16	8.168879E-16	1.945904E+00
3.093609E+03	1.829780E-16	8.168726E-16	1.945953E+00
3.093809E+03	1.818636E-16	8.168574E-16	1.946002E+00
3.094608E+03	1.807569E-16	8.169021E-16	1.946197E+00
3.095008E+03	1.796624E-16	8.169078E-16	1.946294E+00
3.095209E+03	1.785244E-16	8.168927E-16	1.946343E+00
3.095409E+03	1.774409E-16	8.168794E-16	1.946392E+00
3.095608E+03	1.763378E-16	8.168658E-16	1.946440E+00
3.095809E+03	1.752619E-16	8.168532E-16	1.946489E+00
3.096608E+03	1.741309E-16	8.168988E-16	1.946685E+00
3.096808E+03	1.730568E-16	8.168867E-16	1.946733E+00
3.097409E+03	1.719446E-16	8.168553E-16	1.946880E+00
3.097809E+03	1.708979E-16	1.815078E-16	1.946978E+00
3.098209E+03	1.698356E-16	1.784535E-16	1.947076E+00
3.098409E+03	1.687222E-16	1.651246E-16	1.947124E+00
3.098809E+03	1.675741E-16	1.646827E-16	1.947222E+00
3.099009E+03	1.664313E-16	1.603971E-16	1.947271E+00
3.099409E+03	1.653024E-16	1.582726E-16	1.947369E+00
3.099609E+03	1.641810E-16	1.580910E-16	1.947418E+00
3.100209E+03	1.630209E-16	1.372678E-16	1.947565E+00
3.100809E+03	1.618587E-16	1.349181E-16	1.947712E+00
3.101009E+03	1.606980E-16	1.106837E-16	1.947761E+00
3.101809E+03	1.595805E-16	1.060472E-16	1.947957E+00
3.102409E+03	1.584315E-16	1.051769E-16	1.948104E+00
3.103610E+03	1.573000E-16	1.043238E-16	1.948398E+00
3.103810E+03	1.561778E-16	9.947453E-17	1.948447E+00
3.104010E+03	1.550380E-16	8.887091E-17	1.948497E+00
3.104210E+03	1.539234E-16	8.809373E-17	1.948546E+00
3.104410E+03	1.527913E-16	8.786626E-17	1.948595E+00
3.104610E+03	1.516532E-16	8.719292E-17	1.948644E+00
3.105210E+03	1.505285E-16	8.687804E-17	1.948791E+00
3.105410E+03	1.494780E-16	8.658948E-17	1.948840E+00
3.105810E+03	1.483727E-16	8.624623E-17	1.948939E+00
3.106010E+03	1.472032E-16	8.586372E-17	1.948988E+00
3.106210E+03	1.461290E-16	8.500792E-17	1.949037E+00
3.106809E+03	1.450330E-16	8.454595E-17	1.949185E+00
3.107410E+03	1.439406E-16	8.455203E-17	1.949332E+00
3.107809E+03	1.427704E-16	8.460332E-17	1.949431E+00
3.108009E+03	1.416024E-16	8.445268E-17	1.949480E+00
3.108209E+03	1.404850E-16	8.381365E-17	1.949529E+00
3.108409E+03	1.393987E-16	8.364618E-17	1.949578E+00
3.108609E+03	1.383514E-16	8.344958E-17	1.949628E+00
3.108810E+03	1.372007E-16	8.319856E-17	1.949677E+00
3.109010E+03	1.361006E-16	8.293586E-17	1.949726E+00
3.110210E+03	1.349903E-16	8.277863E-17	1.950022E+00
3.111010E+03	1.339411E-16	8.257394E-17	1.950219E+00
3.111210E+03	1.328192E-16	8.254386E-17	1.950269E+00
3.111610E+03	1.316947E-16	8.242380E-17	1.950368E+00
3.111810E+03	1.305785E-16	8.214564E-17	1.950417E+00
3.113610E+03	1.294475E-16	8.218963E-17	1.950862E+00
3.113810E+03	1.282900E-16	8.205414E-17	1.950911E+00
3.115811E+03	1.271653E-16	8.183525E-17	1.951406E+00
3.116411E+03	1.260197E-16	8.181206E-17	1.951555E+00
3.116611E+03	1.248695E-16	8.197888E-17	1.951604E+00
3.116811E+03	1.237212E-16	8.212683E-17	1.951654E+00
3.117411E+03	1.225810E-16	8.191484E-17	1.951803E+00
3.117611E+03	1.214384E-16	8.190846E-17	1.951852E+00
3.117811E+03	1.202977E-16	8.171901E-17	1.951902E+00
3.118211E+03	1.191619E-16	8.132150E-17	1.952001E+00
3.118411E+03	1.180249E-16	8.096659E-17	1.952051E+00
3.118611E+03	1.168918E-16	8.065296E-17	1.952100E+00
3.119010E+03	1.157615E-16	8.001354E-17	1.952200E+00
3.119211E+03	1.146322E-16	8.032804E-17	1.952249E+00
3.120010E+03	1.135134E-16	7.960760E-17	1.952448E+00
3.120611E+03	1.123934E-16	7.939295E-17	1.952597E+00
3.120811E+03	1.112716E-16	7.889759E-17	1.952647E+00
3.121211E+03	1.101544E-16	7.885739E-17	1.952746E+00
3.121411E+03	1.090344E-16	7.871605E-17	1.952796E+00
3.122411E+03	1.079292E-16	7.819918E-17	1.953045E+00
3.122611E+03	1.068147E-16	7.815819E-17	1.953095E+00
3.122811E+03	1.057042E-16	7.789405E-17	1.953144E+00
3.123011E+03	1.046033E-16	7.669635E-17	1.953194E+00
3.123211E+03	1.035669E-16	7.628408E-17	1.953244E+00
3.123411E+03	1.024756E-16	7.637758E-17	1.953294E+00
3.123611E+03	1.013746E-16	7.615119E-17	1.953344E+00
3.125011E+03	1.002928E-16	7.598772E-17	1.953692E+00
3.125211E+03	9.922471E-17	7.507716E-17	1.953742E+00
3.125411E+03	9.817219E-17	7.445951E-17	1.953792E+00
3.125611E+03	9.708055E-17	7.418558E-17	1.953842E+00
3.127012E+03	9.605438E-17	7.407593E-17	1.954192E+00
3.127612E+03	9.499272E-17	7.340602E-17	1.954342E+00
3.127812E+03	9.391633E-17	7.245401E-17	1.954391E+00
3.128412E+03	9.285636E-17	7.268317E-17	1.954541E+00
3.129012E+03	9.179817E-17	7.255564E-17	1.954691E+00
3.130212E+03	9.085628E-17	7.226946E-17	1.954992E+00
3.130812E+03	8.990329E-17	7.210778E-17	1.955142E+00
3.131211E+03	8.894200E-17	7.199851E-17	1.955242E+00
3.131812E+03	8.797702E-17	7.197076E-17	1.955393E+00
3.133212E+03	8.701494E-17	7.114991E-17	1.955744E+00
3.133412E+03	8.603341E-17	7.095890E-17	1.955794E+00
3.133812E+03	8.505401E-17	7.068198E-17	1.955894E+00
3.134012E+03	8.406844E-17	7.059497E-17	1.955944E+00
3.134412E+03	8.308496E-17	7.050330E-17	1.956045E+00
3.134612E+03	8.209730E-17	6.991108E-17	1.956095E+00
3.135012E+03	8.111169E-17	6.984823E-17	1.956195E+00
3.135212E+03	8.012000E-17	6.968166E-17	1.956246E+00
3.135812E+03	7.913428E-17	6.934928E-17	1.956396E+00
3.137413E+03	7.815847E-17	6.924693E-17	1.956799E+00
3.137613E+03	7.717031E-17	6.911420E-17	1.956849E+00
3.138013E+03	7.618602E-17	6.864069E-17	1.956950E+00
3.138413E+03	7.520163E-17	6.864239E-17	1.957051E+00
3.138613E+03	7.421327E-17	6.875157E-17	1.957101E+00
3.138813E+03	7.322486E-17	6.836468E-17	1.957151E+00
3.139413E+03	7.224208E-17	6.829234E-17	1.957303E+00
3.139613E+03	7.125939E-17	6.817951E-17	1.957353E+00
3.139813E+03	7.026883E-17	6.779927E-17	1.957403E+00
3.140613E+03	6.928552E-17	6.741885E-17	1.957605E+00
3.140813E+03	6.829869E-17	6.733890E-17	1.957656E+00
3.141013E+03	6.730985E-17	6.664716E-17	1.957706E+00
3.141413E+03	6.632463E-17	6.636649E-17	1.957807E+00
3.142013E+03	6.534295E-17	6.587644E-17	1.957958E+00
3.142213E+03	6.436171E-17	6.585924E-17	1.958009E+00
3.142814E+03	6.338371E-17	6.549424E-17	1.958161E+00
3.143414E+03	6.240946E-17	6.524263E-17	1.958312E+00
3.143613E+03	6.148084E-17	6.505191E-17	1.958363E+00
3.144014E+03	6.063992E-17	6.416421E-17	1.958464E+00
3.144213E+03	5.973078E-17	6.346945E-17	1.958515E+00
3.145413E+03	5.879980E-17	6.300755E-17	1.958818E+00
3.145613E+03	5.784931E-17	6.292407E-17	1.958869E+00
3.146413E+03	5.696000E-17	6.277446E-17	1.959071E+00
3.147013E+03	5.606710E-17	6.266776E-17	1.959223E+00
3.147613E+03	5.521520E-17	6.258607E-17	1.959376E+00
3.148213E+03	5.437297E-17	6.213553E-17	1.959528E+00
3.148413E+03	5.350629E-17	6.200834E-17	1.959578E+00
3.149614E+03	5.259543E-17	6.157254E-17	1.959883E+00
3.149814E+03	5.168150E-17	6.063345E-17	1.959934E+00
3.151014E+03	5.084076E-17	6.025303E-17	1.960239E+00
3.152814E+03	4.996443E-17	6.031117E-17	1.960697E+00
3.154014E+03	4.914468E-17	6.025350E-17	1.961002E+00
3.154215E+03	4.831055E-17	6.017082E-17	1.961053E+00
3.154415E+03	4.746265E-17	5.937468E-17	1.961104E+00
3.155215E+03	4.661049E-17	5.941318E-17	1.961308E+00
3.156015E+03	4.576404E-17	5.891966E-17	1.961512E+00
3.156215E+03	4.499042E-17	5.850851E-17	1.961563E+00
3.157014E+03	4.425551E-17	5.869870E-17	1.961768E+00
3.157214E+03	4.339347E-17	5.784235E-17	1.961819E+00
3.157414E+03	4.256472E-17	5.740872E-17	1.961870E+00
3.158214E+03	4.172743E-17	5.723889E-17	1.962074E+00
3.158414E+03	4.090050E-17	5.679944E-17	1.962125E+00
3.158614E+03	4.005783E-17	5.702111E-17	1.962176E+00
3.158814E+03	3.929753E-17	5.686511E-17	1.962227E+00
3.160215E+03	3.853145E-17	5.677105E-17	1.962586E+00
3.161815E+03	3.773466E-17	5.662724E-17	1.962995E+00
3.162015E+03	3.701128E-17	5.649701E-17	1.963047E+00
3.162615E+03	3.628583E-17	5.634307E-17	1.963201E+00
3.163615E+03	3.556213E-17	5.562115E-17	1.963457E+00
3.164015E+03	3.476875E-17	5.485977E-17	1.963560E+00
3.164215E+03	3.401956E-17	5.413752E-17	1.963611E+00
3.164815E+03	3.326029E-17	5.343396E-17	1.963765E+00
3.165215E+03	3.250201E-17	5.272967E-17	1.963868E+00
3.165416E+03	3.184692E-17	5.269764E-17	1.963919E+00
3.165816E+03	3.120242E-17	5.235206E-17	1.964022E+00
3.166016E+03	3.047260E-17	5.150426E-17	1.964073E+00
3.166216E+03	2.974863E-17	5.136553E-17	1.964125E+00
3.166416E+03	2.905606E-17	5.107067E-17	1.964176E+00
3.166816E+03	2.832490E-17	5.031506E-17	1.964279E+00
3.167416E+03	2.763172E-17	5.026216E-17	1.964433E+00
3.167615E+03	2.693112E-17	4.954889E-17	1.964485E+00
3.168015E+03	2.622332E-17	4.929712E-17	1.964588E+00
3.168215E+03	2.554031E-17	4.921478E-17	1.964639E+00
3.168415E+03	2.495943E-17	4.861701E-17	1.964691E+00
3.168615E+03	2.430779E-17	4.780229E-17	1.964742E+00
3.168815E+03	2.365219E-17	4.724637E-17	1.964794E+00
3.169415E+03	2.303509E-17	4.719627E-17	1.964948E+00
3.170015E+03	2.239628E-17	4.681872E-17	1.965103E+00
3.170215E+03	2.173461E-17	4.616905E-17	1.965155E+00
3.170415E+03	2.112793E-17	4.613542E-17	1.965206E+00
3.170815E+03	2.050014E-17	4.554598E-17	1.965309E+00
3.171616E+03	1.989692E-17	4.530580E-17	1.965516E+00
3.171816E+03	1.930600E-17	4.507168E-17	1.965568E+00
3.172016E+03	1.871112E-17	4.505182E-17	1.965619E+00
3.172616E+03	1.813780E-17	4.490787E-17	1.965774E+00
3.172816E+03	1.761498E-17	4.459589E-17	1.965826E+00
3.173216E+03	1.703890E-17	4.400436E-17	1.965929E+00
3.173816E+03	1.647716E-17	4.359604E-17	1.966084E+00
3.174216E+03	1.590371E-17	4.299561E-17	1.966188E+00
3.175616E+03	1.535777E-17	4.298693E-17	1.966550E+00
3.175816E+03	1.486869E-17	4.282720E-17	1.966602E+00
3.176216E+03	1.440395E-17	4.226413E-17	1.966705E+00
3.176416E+03	1.388137E-17	4.165283E-17	1.966757E+00
3.176616E+03	1.338531E-17	4.162506E-17	1.966809E+00
3.177017E+03	1.289115E-17	4.120239E-17	1.966913E+00
3.177417E+03	1.237371E-17	4.043116E-17	1.967016E+00
3.177817E+03	1.187885E-17	3.979006E-17	1.967120E+00
3.178017E+03	1.140429E-17	3.963618E-17	1.967172E+00
3.178217E+03	1.091612E-17	3.940412E-17	1.967224E+00
3.179017E+03	1.049054E-17	3.887032E-17	1.967431E+00
3.179416E+03	1.001102E-17	3.860327E-17	1.967535E+00
3.179617E+03	9.586281E-18	3.831405E-17	1.967587E+00
3.179816E+03	9.214650E-18	3.830133E-17	1.967639E+00
3.180017E+03	8.815649E-18	3.830590E-17	1.967691E+00
3.180216E+03	8.373926E-18	3.830002E-17	1.967743E+00
3.180416E+03	7.939461E-18	3.833030E-17	1.967795E+00
3.180816E+03	7.523670E-18	3.793282E-17	1.967899E+00
3.181016E+03	7.135592E-18	3.748632E-17	1.967951E+00
3.181216E+03	6.753595E-18	3.743302E-17	1.968003E+00
3.182016E+03	6.375821E-18	3.696281E-17	1.968211E+00
3.182216E+03	5.987652E-18	3.684146E-17	1.968263E+00
3.182417E+03	5.688627E-18	3.641381E-17	1.968315E+00
3.182617E+03	5.359273E-18	3.641621E-17	1.968367E+00
3.182817E+03	5.070647E-18	3.588696E-17	1.968419E+00
3.183017E+03	4.718228E-18	3.588959E-17	1.968471E+00
3.183217E+03	4.423271E-18	3.545503E-17	1.968523E+00
3.183417E+03	4.134008E-18	3.500501E-17	1.968575E+00
3.183617E+03	3.852997E-18	3.492511E-17	1.968627E+00
3.183817E+03	3.535945E-18	3.500436E-17	1.968679E+00
3.184217E+03	3.245343E-18	3.477434E-17	1.968783E+00
3.184417E+03	2.973139E-18	3.435888E-17	1.968836E+00
3.184617E+03	2.772981E-18	3.426120E-17	1.968888E+00
3.184817E+03	2.612783E-18	3.429986E-17	1.968940E+00
3.185217E+03	2.343556E-18	3.386218E-17	1.969044E+00
3.185417E+03	2.128593E-18	3.382189E-17	1.969096E+00
3.186217E+03	1.889450E-18	3.380593E-17	1.969305E+00
3.186417E+03	1.695774E-18	3.373069E-17	1.969357E+00
3.187017E+03	1.480602E-18	3.380493E-17	1.969514E+00
3.187217E+03	1.262295E-18	3.381455E-17	1.969566E+00
3.187417E+03	1.122308E-18	3.349969E-17	1.969618E+00
3.187617E+03	1.018930E-18	3.321458E-17	1.969670E+00
3.187817E+03	8.835781E-19	3.326026E-17	1.969723E+00
3.188218E+03	7.139048E-19	3.289513E-17	1.969827E+00
3.188418E+03	5.447702E-19	3.263557E-17	1.969880E+00
3.188618E+03	4.258796E-19	3.270122E-17	1.969932E+00
3.189418E+03	3.281270E-19	3.235978E-17	1.970141E+00
3.190018E+03	2.374209E-19	3.246471E-17	1.970298E+00
3.190218E+03	1.427184E-19	3.249703E-17	1.970350E+00
3.190618E+03	1.097642E-19	3.253815E-17	1.970455E+00
3.190818E+03	9.492525E-20	3.258827E-17	1.970507E+00
3.191418E+03	2.501955E-20	3.265194E-17	1.970664E+00
3.191617E+03	4.134958E-20	3.272967E-17	1.970717E+00
3.192418E+03	6.091542E-20	3.282184E-17	1.970926E+00
3.192617E+03	-4.759125E-21	3.284636E-17	1.970979E+00
3.192817E+03	-2.330941E-20	3.309559E-17	1.971031E+00
3.193017E+03	-5.914828E-20	3.339016E-17	1.971084E+00
3.193217E+03	-1.000726E-19	3.351525E-17	1.971136E+00
3.193417E+03	-1.226730E-19	3.351812E-17	1.971189E+00
3.194418E+03	-1.396497E-19	3.357582E-17	1.971451E+00
3.194618E+03	-1.508200E-19	3.355504E-17	1.971504E+00
3.195418E+03	-1.205604E-19	3.345015E-17	1.971714E+00
3.195618E+03	-6.578207E-20	3.336032E-17	1.971766E+00
3.196018E+03	-1.610132E-20	3.328913E-17	1.971871E+00
3.196218E+03	6.177249E-20	3.341229E-17	1.971924E+00
3.196818E+03	1.533530E-19	3.327103E-17	1.972082E+00
3.197218E+03	2.210033E-19	3.314269E-17	1.972187E+00
3.197618E+03	3.088215E-19	3.314652E-17	1.972292E+00
3.197818E+03	4.585504E-19	3.319891E-17	1.972345E+00
3.198418E+03	5.570742E-19	3.320964E-17	1.972503E+00
3.198818E+03	6.625201E-19	3.332015E-17	1.972608E+00
3.199018E+03	7.828701E-19	3.314186E-17	1.972661E+00
3.199819E+03	9.094544E-19	3.312017E-17	1.972872E+00
3.200019E+03	1.059125E-18	3.319461E-17	1.972924E+00
3.200219E+03	1.244870E-18	3.316869E-17	1.972977E+00
3.200619E+03	1.415115E-18	3.319302E-17	1.973083E+00
3.201819E+03	1.582410E-18	3.319337E-17	1.973399E+00
3.202019E+03	1.805551E-18	3.321344E-17	1.973452E+00
3.202219E+03	1.991661E-18	3.332616E-17	1.973505E+00
3.202419E+03	2.199530E-18	3.320636E-17	1.973557E+00
3.202619E+03	2.426751E-18	3.291921E-17	1.973610E+00
3.202819E+03	2.665629E-18	3.284547E-17	1.973663E+00
3.203419E+03	2.908821E-18	3.296314E-17	1.973822E+00
3.203619E+03	3.218402E-18	3.291239E-17	1.973874E+00
3.203818E+03	3.540239E-18	3.294700E-17	1.973927E+00
3.204019E+03	3.850248E-18	3.300155E-17	1.973980E+00
3.204218E+03	4.187516E-18	3.306082E-17	1.974033E+00
3.205019E+03	4.471270E-18	3.306307E-17	1.974245E+00
3.205219E+03	4.816299E-18	3.314888E-17	1.974298E+00
3.205619E+03	5.142334E-18	3.322773E-17	1.974404E+00
3.206219E+03	5.457296E-18	3.322088E-17	1.974562E+00
3.206419E+03	5.804580E-18	3.326065E-17	1.974615E+00
3.207219E+03	6.179827E-18	3.326669E-17	1.974827E+00
3.207419E+03	6.532114E-18	3.310457E-17	1.974880E+00
3.207819E+03	6.914822E-18	3.311208E-17	1.974986E+00
3.208019E+03	7.294808E-18	3.309949E-17	1.975039E+00
3.208619E+03	7.696361E-18	3.306815E-17	1.975199E+00
3.208819E+03	8.120852E-18	3.276486E-17	1.975252E+00
3.209219E+03	8.553101E-18	3.253834E-17	1.975358E+00
3.209619E+03	8.998238E-18	3.260806E-17	1.975464E+00
3.209819E+03	9.453836E-18	3.248739E-17	1.975517E+00
3.210219E+03	9.936002E-18	3.249322E-17	1.975623E+00
3.211020E+03	1.042194E-17	3.251742E-17	1.975836E+00
3.211220E+03	1.088359E-17	3.254293E-17	1.975889E+00
3.211620E+03	1.140189E-17	3.245682E-17	1.975995E+00
3.211820E+03	1.190945E-17	3.247245E-17	1.976049E+00
