#wls	flux	fluxerr	mangling_mask
2.993873E+03	3.936306E-17	1.015405E-16	2.932071E-01
3.006473E+03	3.941290E-17	1.015407E-16	2.932071E-01
3.023874E+03	3.943929E-17	1.015408E-16	2.932072E-01
3.027274E+03	3.948034E-17	1.015409E-16	2.932072E-01
3.028274E+03	3.952139E-17	1.015410E-16	2.932072E-01
3.033275E+03	3.955365E-17	1.015411E-16	2.932072E-01
3.035674E+03	3.957417E-17	1.015412E-16	2.932072E-01
3.040275E+03	3.959763E-17	1.015412E-16	2.932072E-01
3.043075E+03	3.961522E-17	1.015413E-16	2.932072E-01
3.043475E+03	3.963868E-17	1.015414E-16	2.932072E-01
3.045075E+03	3.966507E-17	1.015414E-16	2.932072E-01
3.047875E+03	3.968852E-17	1.015415E-16	2.932072E-01
3.048075E+03	3.971491E-17	1.015416E-16	2.932072E-01
3.048275E+03	3.972371E-17	1.015416E-16	2.932072E-01
3.048475E+03	3.973250E-17	1.015417E-16	2.932072E-01
3.051275E+03	3.973837E-17	1.015417E-16	2.932072E-01
3.051475E+03	3.974423E-17	1.015417E-16	2.932072E-01
3.052075E+03	3.974423E-17	1.015417E-16	2.932072E-01
3.053076E+03	3.976476E-17	1.015417E-16	2.932072E-01
3.053876E+03	3.976476E-17	1.015417E-16	2.932072E-01
3.055876E+03	3.975889E-17	1.015417E-16	2.932072E-01
3.056676E+03	3.975596E-17	1.015417E-16	2.932072E-01
3.056876E+03	3.975303E-17	1.015417E-16	2.932072E-01
3.057476E+03	3.975010E-17	1.015417E-16	2.932072E-01
3.057676E+03	3.974130E-17	1.015417E-16	2.932072E-01
3.058276E+03	3.974423E-17	1.015417E-16	2.932072E-01
3.059276E+03	3.975010E-17	1.015417E-16	2.932072E-01
3.060075E+03	3.973251E-17	1.015417E-16	2.932072E-01
3.061276E+03	3.970905E-17	1.015416E-16	2.932072E-01
3.062476E+03	3.970025E-17	1.015416E-16	2.932072E-01
3.062676E+03	3.967973E-17	1.015415E-16	2.932072E-01
3.063076E+03	3.965920E-17	1.015414E-16	2.932072E-01
3.064676E+03	3.964748E-17	1.015414E-16	2.932072E-01
3.065476E+03	3.962988E-17	1.015413E-16	2.932072E-01
3.066076E+03	3.960056E-17	1.015413E-16	2.932072E-01
3.066876E+03	3.958004E-17	1.015412E-16	2.932072E-01
3.067476E+03	3.954485E-17	1.015411E-16	2.932072E-01
3.068077E+03	3.951260E-17	1.015410E-16	2.932072E-01
3.069077E+03	3.947448E-17	1.015409E-16	2.932072E-01
3.069677E+03	3.943637E-17	1.015408E-16	2.932072E-01
3.070277E+03	3.939532E-17	1.015406E-16	2.932072E-01
3.070477E+03	3.935427E-17	1.015405E-16	2.932072E-01
3.073876E+03	3.931322E-17	1.015404E-16	2.932072E-01
3.074076E+03	3.926924E-17	1.015403E-16	2.932072E-01
3.074276E+03	3.922526E-17	1.015401E-16	2.932072E-01
3.074476E+03	3.918128E-17	1.015400E-16	2.932072E-01
3.075076E+03	3.913436E-17	1.015399E-16	2.932072E-01
3.075877E+03	3.908452E-17	1.015397E-16	2.932072E-01
3.076077E+03	3.903467E-17	1.015396E-16	2.932072E-01
3.076277E+03	3.898483E-17	1.015394E-16	2.932072E-01
3.077277E+03	3.893205E-17	1.015393E-16	2.932072E-01
3.078277E+03	3.887634E-17	1.015391E-16	2.932072E-01
3.079077E+03	3.881770E-17	1.015389E-16	2.932072E-01
3.079477E+03	3.875906E-17	1.015388E-16	2.932072E-01
3.080477E+03	3.869455E-17	1.015386E-16	2.932072E-01
3.080677E+03	3.862712E-17	1.015384E-16	2.932072E-01
3.080877E+03	3.855968E-17	1.015382E-16	2.932072E-01
3.081077E+03	3.848931E-17	1.015380E-16	2.932072E-01
3.081277E+03	3.841894E-17	1.015378E-16	2.932072E-01
3.081877E+03	3.834564E-17	1.015376E-16	2.932072E-01
3.082077E+03	3.827234E-17	1.015374E-16	2.932072E-01
3.082477E+03	3.819610E-17	1.015371E-16	2.932072E-01
3.082677E+03	3.811987E-17	1.015369E-16	2.932072E-01
3.083077E+03	3.804070E-17	1.015367E-16	2.932072E-01
3.084677E+03	3.795860E-17	1.015364E-16	2.932072E-01
3.084877E+03	3.787651E-17	1.015362E-16	2.932072E-01
3.085477E+03	3.779441E-17	1.015360E-16	2.932072E-01
3.085877E+03	3.771524E-17	1.015358E-16	2.932072E-01
3.086077E+03	3.763021E-17	1.015355E-16	2.932072E-01
3.086677E+03	3.754518E-17	1.015353E-16	2.932072E-01
3.086877E+03	3.744842E-17	1.015350E-16	2.932072E-01
3.087077E+03	3.736046E-17	1.015347E-16	2.932072E-01
3.088277E+03	3.727836E-17	1.015345E-16	2.932072E-01
3.088477E+03	3.718454E-17	1.015342E-16	2.932072E-01
3.088677E+03	3.709951E-17	1.015340E-16	2.932072E-01
3.090278E+03	3.700568E-17	1.015337E-16	2.932072E-01
3.090478E+03	3.691479E-17	1.015335E-16	2.932072E-01
3.090878E+03	3.681510E-17	1.015332E-16	2.932072E-01
3.091078E+03	3.670954E-17	1.015329E-16	2.932072E-01
3.091678E+03	3.660106E-17	1.015326E-16	2.932072E-01
3.092878E+03	3.648964E-17	1.015323E-16	2.932072E-01
3.093078E+03	3.638995E-17	1.015320E-16	2.932072E-01
3.093278E+03	3.627853E-17	1.015317E-16	2.932072E-01
3.093878E+03	3.619057E-17	1.015315E-16	2.932072E-01
3.094078E+03	3.607621E-17	1.015312E-16	2.932072E-01
3.094478E+03	3.597359E-17	1.015309E-16	2.932072E-01
3.095077E+03	3.586217E-17	1.015306E-16	2.932072E-01
3.095477E+03	3.574489E-17	1.015303E-16	2.932072E-01
3.095677E+03	3.561881E-17	1.015299E-16	2.932072E-01
3.096677E+03	3.551619E-17	1.015297E-16	2.932072E-01
3.096877E+03	3.539891E-17	1.015293E-16	2.932072E-01
3.097077E+03	3.527576E-17	1.015290E-16	2.932072E-01
3.097277E+03	3.514675E-17	1.015287E-16	2.932072E-01
3.097477E+03	3.502947E-17	1.015284E-16	2.932072E-01
3.097677E+03	3.489752E-17	1.015280E-16	2.932072E-01
3.098078E+03	3.476265E-17	1.015277E-16	2.932072E-01
3.098678E+03	3.463364E-17	1.015273E-16	2.932072E-01
3.098878E+03	3.449290E-17	1.015270E-16	2.932072E-01
3.099478E+03	3.436095E-17	1.015266E-16	2.932072E-01
3.099678E+03	3.423194E-17	1.014970E-16	2.932072E-01
3.100078E+03	3.410000E-17	8.725394E-17	2.932072E-01
3.100278E+03	3.397099E-17	7.331536E-17	2.932072E-01
3.101478E+03	3.382732E-17	7.323282E-17	2.932072E-01
3.101678E+03	3.368071E-17	7.323523E-17	2.932072E-01
3.101878E+03	3.352824E-17	4.251115E-17	2.932072E-01
3.102278E+03	3.337578E-17	4.217092E-17	2.932072E-01
3.102478E+03	3.322624E-17	4.211151E-17	2.932072E-01
3.103478E+03	3.307084E-17	4.208717E-17	2.932072E-01
3.103678E+03	3.291544E-17	3.857970E-17	2.932072E-01
3.103878E+03	3.276004E-17	3.709641E-17	2.932072E-01
3.104078E+03	3.260464E-17	3.671534E-17	2.932072E-01
3.105479E+03	3.244924E-17	3.671428E-17	2.932072E-01
3.106079E+03	3.229384E-17	3.610228E-17	2.932072E-01
3.106878E+03	3.213551E-17	3.541430E-17	2.932072E-01
3.107079E+03	3.197425E-17	3.540441E-17	2.932072E-01
3.108478E+03	3.181592E-17	3.297489E-17	2.932072E-01
3.108878E+03	3.165465E-17	3.208267E-17	2.932072E-01
3.109278E+03	3.149046E-17	2.958167E-17	2.932072E-01
3.109478E+03	3.132626E-17	2.874694E-17	2.932072E-01
3.110278E+03	3.116206E-17	2.845750E-17	2.932072E-01
3.110478E+03	3.099787E-17	2.842781E-17	2.932072E-01
3.110678E+03	3.083660E-17	2.837217E-17	2.932072E-01
3.110878E+03	3.067534E-17	2.836820E-17	2.932072E-01
3.111078E+03	3.050235E-17	2.836706E-17	2.932072E-01
3.111278E+03	3.032642E-17	2.831657E-17	2.932072E-01
3.112278E+03	3.016223E-17	2.658955E-17	2.932072E-01
3.113079E+03	2.998337E-17	2.643220E-17	2.932072E-01
3.114279E+03	2.981624E-17	2.413238E-17	2.932072E-01
3.114479E+03	2.965498E-17	2.403349E-17	2.932072E-01
3.114679E+03	2.948785E-17	2.368942E-17	2.932072E-01
3.115479E+03	2.931544E-17	2.354059E-17	2.932072E-01
3.115679E+03	2.912955E-17	2.354261E-17	2.932072E-01
3.117079E+03	2.894864E-17	2.338786E-17	2.932072E-01
3.117679E+03	2.876773E-17	2.338906E-17	2.932072E-01
3.117879E+03	2.858976E-17	2.333404E-17	2.932072E-01
3.119278E+03	2.841735E-17	2.177308E-17	2.932072E-01
3.121079E+03	2.822559E-17	2.089806E-17	2.932072E-01
3.121279E+03	2.804263E-17	2.036487E-17	2.932072E-01
3.121479E+03	2.784912E-17	1.738750E-17	2.932072E-01
3.123679E+03	2.766322E-17	1.686392E-17	2.932072E-01
3.124879E+03	2.747205E-17	1.661518E-17	2.932072E-01
3.125079E+03	2.728616E-17	1.658903E-17	2.932072E-01
3.125479E+03	2.709880E-17	1.619618E-17	2.932072E-01
3.125679E+03	2.690939E-17	1.626077E-17	2.932072E-01
3.126879E+03	2.671792E-17	1.626966E-17	2.932072E-01
3.127079E+03	2.652499E-17	1.621819E-17	2.932072E-01
3.127479E+03	2.633030E-17	1.609039E-17	2.932072E-01
3.129480E+03	2.613415E-17	1.554890E-17	2.932072E-01
3.129680E+03	2.593623E-17	1.556637E-17	2.932072E-01
3.130480E+03	2.573656E-17	1.555918E-17	2.932072E-01
3.130680E+03	2.553454E-17	1.555807E-17	2.932072E-01
3.131079E+03	2.533047E-17	1.555232E-17	2.932072E-01
3.131680E+03	2.512463E-17	1.380643E-17	2.932072E-01
3.131880E+03	2.492203E-17	1.387194E-17	2.932072E-01
3.132079E+03	2.471033E-17	1.386787E-17	2.932072E-01
3.133279E+03	2.449922E-17	1.396523E-17	2.932072E-01
3.133679E+03	2.430717E-17	1.313134E-17	2.932072E-01
3.134479E+03	2.409929E-17	1.315965E-17	2.932072E-01
3.135280E+03	2.388495E-17	1.315607E-17	2.932072E-01
3.135480E+03	2.367707E-17	1.317722E-17	2.932072E-01
3.135680E+03	2.348678E-17	1.315201E-17	2.932072E-01
3.135880E+03	2.327831E-17	1.314395E-17	2.932072E-01
3.136080E+03	2.307101E-17	1.315418E-17	2.932072E-01
3.137280E+03	2.285287E-17	1.317212E-17	2.932072E-01
3.137480E+03	2.263589E-17	1.316258E-17	2.932072E-01
3.139680E+03	2.241540E-17	1.318026E-17	2.932072E-01
3.140080E+03	2.221338E-17	1.226261E-17	2.932072E-01
3.141480E+03	2.199406E-17	1.228824E-17	2.932072E-01
3.141880E+03	2.177943E-17	1.206059E-17	2.932072E-01
3.143081E+03	2.157126E-17	1.206756E-17	2.932072E-01
3.143680E+03	2.134783E-17	1.211781E-17	2.932072E-01
3.144081E+03	2.113174E-17	1.214823E-17	2.932072E-01
3.144480E+03	2.091975E-17	1.214802E-17	2.932072E-01
3.145080E+03	2.071040E-17	1.211047E-17	2.932072E-01
3.146080E+03	2.049636E-17	1.171377E-17	2.932072E-01
3.146280E+03	2.028789E-17	1.177851E-17	2.932072E-01
3.147080E+03	2.007355E-17	1.182846E-17	2.932072E-01
3.147280E+03	1.986978E-17	1.180087E-17	2.932072E-01
3.147680E+03	1.966482E-17	1.183420E-17	2.932072E-01
3.148280E+03	1.944756E-17	1.186511E-17	2.932072E-01
3.149680E+03	1.922970E-17	1.180259E-17	2.932073E-01
3.150081E+03	1.900657E-17	1.183842E-17	2.932073E-01
3.151081E+03	1.879810E-17	1.165239E-17	2.932073E-01
3.151281E+03	1.856911E-17	1.159732E-17	2.932073E-01
3.152081E+03	1.835272E-17	1.162168E-17	2.932073E-01
3.152481E+03	1.814454E-17	1.174756E-17	2.932073E-01
3.152681E+03	1.792581E-17	1.175340E-17	2.932073E-01
3.153681E+03	1.769564E-17	1.196031E-17	2.932073E-01
3.153881E+03	1.749568E-17	1.219188E-17	2.932073E-01
3.154081E+03	1.727577E-17	1.223835E-17	2.932073E-01
3.154481E+03	1.704238E-17	1.213777E-17	2.932073E-01
3.156480E+03	1.683801E-17	1.207883E-17	2.932073E-01
3.157080E+03	1.661371E-17	1.209886E-17	2.932073E-01
3.158881E+03	1.638911E-17	1.212941E-17	2.932073E-01
3.161481E+03	1.616041E-17	1.203999E-17	2.932073E-01
3.161681E+03	1.593669E-17	1.208691E-17	2.932073E-01
3.161881E+03	1.573057E-17	1.206474E-17	2.932073E-01
3.162081E+03	1.550040E-17	1.206537E-17	2.932073E-01
3.162881E+03	1.527581E-17	1.201625E-17	2.932073E-01
3.163481E+03	1.506206E-17	1.202729E-17	2.932073E-01
3.164081E+03	1.483482E-17	1.207934E-17	2.932073E-01
3.164281E+03	1.460788E-17	1.208568E-17	2.932073E-01
3.164481E+03	1.437918E-17	1.209173E-17	2.932073E-01
3.164882E+03	1.416602E-17	1.210672E-17	2.932073E-01
3.165482E+03	1.393819E-17	1.214728E-17	2.932073E-01
3.165882E+03	1.371448E-17	1.216545E-17	2.932073E-01
3.166082E+03	1.348255E-17	1.210948E-17	2.932073E-01
3.166282E+03	1.326909E-17	1.212343E-17	2.932073E-01
3.166482E+03	1.304186E-17	1.213175E-17	2.932073E-01
3.167082E+03	1.281316E-17	1.205602E-17	2.932073E-01
3.167682E+03	1.259765E-17	1.209807E-17	2.932073E-01
3.168081E+03	1.238214E-17	1.213403E-17	2.932073E-01
3.168282E+03	1.215931E-17	1.216034E-17	2.932073E-01
3.168881E+03	1.192943E-17	1.218167E-17	2.932073E-01
3.169481E+03	1.170513E-17	1.218321E-17	2.932073E-01
3.169681E+03	1.147672E-17	1.217658E-17	2.932073E-01
3.171281E+03	1.126854E-17	1.216135E-17	2.932073E-01
3.172282E+03	1.106476E-17	1.214091E-17	2.932073E-01
3.172482E+03	1.084691E-17	1.210140E-17	2.932073E-01
3.172882E+03	1.063609E-17	1.205582E-17	2.932073E-01
3.173482E+03	1.042440E-17	1.200383E-17	2.932073E-01
3.173682E+03	1.019980E-17	1.194445E-17	2.932073E-01
3.174282E+03	9.981948E-18	1.187257E-17	2.932073E-01
3.174482E+03	9.758231E-18	1.187699E-17	2.932073E-01
3.174882E+03	9.548295E-18	1.177653E-17	2.932073E-01
3.175082E+03	9.336892E-18	1.171468E-17	2.932073E-01
3.175682E+03	9.119039E-18	1.162444E-17	2.932073E-01
3.176482E+03	8.912035E-18	1.153251E-17	2.932073E-01
3.177082E+03	8.693302E-18	1.143849E-17	2.932073E-01
3.177282E+03	8.477502E-18	1.134128E-17	2.932073E-01
3.177482E+03	8.262581E-18	1.124379E-17	2.932073E-01
3.178082E+03	8.055870E-18	1.114140E-17	2.932073E-01
3.178282E+03	7.841242E-18	1.103604E-17	2.932073E-01
3.178882E+03	7.635411E-18	1.092869E-17	2.932073E-01
3.179481E+03	7.440428E-18	1.081732E-17	2.932073E-01
3.179682E+03	7.239874E-18	1.070125E-17	2.932073E-01
3.180282E+03	7.048116E-18	1.058318E-17	2.932073E-01
3.180482E+03	6.839353E-18	1.046474E-17	2.932073E-01
3.180882E+03	6.629416E-18	1.048478E-17	2.932073E-01
3.183282E+03	6.431502E-18	1.045573E-17	2.932073E-01
3.183482E+03	6.243849E-18	1.045749E-17	2.932073E-01
3.184482E+03	6.055610E-18	1.035883E-17	2.932073E-01
3.185282E+03	5.861213E-18	1.035153E-17	2.932073E-01
3.185682E+03	5.665058E-18	1.028509E-17	2.932073E-01
3.186482E+03	5.468609E-18	1.020402E-17	2.932073E-01
3.186682E+03	5.271280E-18	1.011565E-17	2.932073E-01
3.186882E+03	5.075125E-18	9.986286E-18	2.932073E-01
3.187483E+03	4.880435E-18	9.850205E-18	2.932073E-01
3.188083E+03	4.687212E-18	9.714142E-18	2.932073E-01
3.188683E+03	4.494868E-18	9.635809E-18	2.932073E-01
3.189083E+03	4.304283E-18	9.643930E-18	2.932073E-01
3.189283E+03	4.115164E-18	9.612531E-18	2.932073E-01
3.189483E+03	3.927512E-18	9.481242E-18	2.932073E-01
3.190083E+03	3.741325E-18	9.392755E-18	2.932073E-01
3.190283E+03	3.556898E-18	9.306050E-18	2.932073E-01
3.190683E+03	3.374229E-18	9.319594E-18	2.932073E-01
3.191083E+03	3.193027E-18	9.236750E-18	2.932073E-01
3.191283E+03	3.014171E-18	9.239806E-18	2.932073E-01
3.192082E+03	2.837132E-18	9.168152E-18	2.932073E-01
3.192282E+03	2.662234E-18	9.069850E-18	2.932073E-01
3.192483E+03	2.489447E-18	9.070352E-18	2.932073E-01
3.193082E+03	2.318771E-18	9.066194E-18	2.932073E-01
3.193682E+03	2.150353E-18	9.018093E-18	2.932073E-01
3.193882E+03	1.984368E-18	8.956532E-18	2.932073E-01
3.194683E+03	1.820729E-18	8.901737E-18	2.932073E-01
3.194883E+03	1.659260E-18	8.848725E-18	2.932073E-01
3.196083E+03	1.500019E-18	8.802185E-18	2.932073E-01
3.196283E+03	1.355673E-18	8.758321E-18	2.932073E-01
3.197483E+03	1.198954E-18	8.739968E-18	2.932073E-01
3.197683E+03	1.051353E-18	8.703466E-18	2.932073E-01
3.197883E+03	9.000877E-19	8.670791E-18	2.932073E-01
3.198083E+03	7.485582E-19	8.641947E-18	2.932073E-01
3.198483E+03	6.064406E-19	8.612835E-18	2.932073E-01
3.199083E+03	4.791887E-19	8.591076E-18	2.932073E-01
3.199283E+03	3.331128E-19	8.570499E-18	2.932073E-01
3.199883E+03	1.910216E-19	8.547009E-18	2.932073E-01
3.200283E+03	5.070140E-20	8.519725E-18	2.932073E-01
3.200483E+03	-7.677046E-20	8.491872E-18	2.932073E-01
3.200683E+03	-2.085085E-19	8.466087E-18	2.932073E-01
3.201483E+03	-3.388890E-19	8.430935E-18	2.932073E-01
3.202084E+03	-4.703045E-19	8.407820E-18	2.932073E-01
3.202884E+03	-5.761816E-19	8.369461E-18	2.932073E-01
3.203684E+03	-6.918519E-19	8.335224E-18	2.932073E-01
3.203883E+03	-8.147058E-19	8.308629E-18	2.932073E-01
3.204084E+03	-9.322526E-19	8.277352E-18	2.932073E-01
3.204284E+03	-1.045900E-18	8.171615E-18	2.932073E-01
3.204483E+03	-1.151073E-18	8.182278E-18	2.932073E-01
3.205083E+03	-1.266245E-18	8.112925E-18	2.932073E-01
3.205283E+03	-1.354354E-18	8.058211E-18	2.932073E-01
3.206083E+03	-1.460260E-18	7.998546E-18	2.932073E-01
3.206483E+03	-1.567428E-18	7.961177E-18	2.932073E-01
3.206883E+03	-1.662485E-18	7.906797E-18	2.932073E-01
3.207083E+03	-1.764287E-18	7.831334E-18	2.932073E-01
3.207283E+03	-1.863127E-18	7.744446E-18	2.932073E-01
3.207483E+03	-1.939684E-18	7.654891E-18	2.932073E-01
3.207883E+03	-2.022749E-18	7.570929E-18	2.932073E-01
3.208083E+03	-2.105140E-18	7.532409E-18	2.932073E-01
3.208283E+03	-2.189965E-18	7.472214E-18	2.932073E-01
3.208683E+03	-2.257638E-18	7.380920E-18	2.932073E-01
3.208883E+03	-2.327919E-18	7.331262E-18	2.932073E-01
3.209083E+03	-2.405942E-18	7.240599E-18	2.932073E-01
3.209284E+03	-2.480592E-18	7.147009E-18	2.932073E-01
3.209484E+03	-2.540876E-18	7.070096E-18	2.932073E-01
3.209684E+03	-2.603153E-18	7.008436E-18	2.932073E-01
3.210084E+03	-2.662234E-18	6.947067E-18	2.932073E-01
3.210284E+03	-2.718149E-18	6.896832E-18	2.932073E-01
3.210484E+03	-2.770926E-18	6.831356E-18	2.932073E-01
3.211284E+03	-2.820390E-18	6.759430E-18	2.932073E-01
3.211484E+03	-2.866834E-18	6.698342E-18	2.932073E-01
3.211684E+03	-2.909877E-18	6.634320E-18	2.932073E-01
3.211884E+03	-2.949372E-18	6.605155E-18	2.932073E-01
3.212084E+03	-2.985730E-18	6.567194E-18	2.932073E-01
3.212484E+03	-3.018276E-18	6.533031E-18	2.932073E-01
3.213284E+03	-3.047890E-18	6.500618E-18	2.932073E-01
3.213684E+03	-3.075158E-18	6.471128E-18	2.932073E-01
3.214284E+03	-3.097442E-18	6.409105E-18	2.932073E-01
3.214484E+03	-3.109757E-18	6.367553E-18	2.932073E-01
3.214684E+03	-3.122658E-18	6.327762E-18	2.932073E-01
3.214884E+03	-3.131161E-18	6.282098E-18	2.932073E-01
3.215883E+03	-3.129402E-18	6.234637E-18	2.932073E-01
3.216084E+03	-3.134679E-18	6.183104E-18	2.932073E-01
3.217084E+03	-3.131454E-18	6.172839E-18	2.932073E-01
3.217284E+03	-3.126763E-18	6.144701E-18	2.932073E-01
3.217884E+03	-3.121192E-18	6.136184E-18	2.932073E-01
3.218084E+03	-3.099788E-18	6.115890E-18	2.932073E-01
3.218284E+03	-3.067828E-18	6.136270E-18	2.932073E-01
3.219084E+03	-3.046131E-18	6.102794E-18	2.932073E-01
3.219284E+03	-3.015344E-18	6.071919E-18	2.932073E-01
3.220084E+03	-2.980159E-18	6.085846E-18	2.932073E-01
3.220284E+03	-2.944974E-18	6.087765E-18	2.932073E-01
3.220484E+03	-2.892666E-18	6.072046E-18	2.932073E-01
3.220684E+03	-2.846896E-18	6.072466E-18	2.932073E-01
3.221484E+03	-2.793738E-18	6.039171E-18	2.932073E-01
3.222484E+03	-2.746942E-18	6.023186E-18	2.932073E-01
3.222884E+03	-2.687538E-18	6.007452E-18	2.932073E-01
3.224085E+03	-2.625173E-18	6.016323E-18	2.932073E-01
3.224285E+03	-2.564772E-18	6.008798E-18	2.932073E-01
3.224885E+03	-2.498244E-18	6.028800E-18	2.932073E-01
3.226285E+03	-2.413712E-18	6.045238E-18	2.932073E-01
3.226485E+03	-2.333872E-18	6.059943E-18	2.932073E-01
3.226685E+03	-2.255644E-18	6.010776E-18	2.932073E-01
3.226885E+03	-2.173722E-18	6.011716E-18	2.932073E-01
3.227085E+03	-2.071363E-18	5.993268E-18	2.932073E-01
3.227285E+03	-1.971028E-18	6.000335E-18	2.932073E-01
3.227485E+03	-1.868112E-18	6.004479E-18	2.932073E-01
3.229084E+03	-1.758599E-18	6.014484E-18	2.932073E-01
3.229284E+03	-1.642225E-18	6.003679E-18	2.932073E-01
3.229484E+03	-1.522831E-18	5.992884E-18	2.932073E-01
3.229884E+03	-1.407542E-18	5.994427E-18	2.932073E-01
3.230084E+03	-1.271112E-18	6.005626E-18	2.932073E-01
3.230284E+03	-1.133627E-18	6.004828E-18	2.932073E-01
3.230484E+03	-1.002740E-18	6.007874E-18	2.932073E-01
3.230684E+03	-8.639940E-19	5.934413E-18	2.932073E-01
3.230884E+03	-7.219350E-19	5.941303E-18	2.932073E-01
3.231084E+03	-5.645414E-19	5.957005E-18	2.932073E-01
3.231685E+03	-4.058869E-19	5.963943E-18	2.932073E-01
3.231885E+03	-2.442681E-19	5.976190E-18	2.932073E-01
3.233085E+03	-8.110994E-20	5.988764E-18	2.932073E-01
3.233285E+03	9.350088E-20	5.993163E-18	2.932073E-01
3.233485E+03	2.663231E-19	5.997308E-18	2.932073E-01
3.234285E+03	4.449128E-19	6.011463E-18	2.932073E-01
3.234485E+03	6.317445E-19	6.023319E-18	2.932073E-01
3.234685E+03	8.337350E-19	6.012367E-18	2.932073E-01
3.236085E+03	1.032002E-18	6.023744E-18	2.932073E-01
3.237285E+03	1.240150E-18	6.025804E-18	2.932073E-01
3.237685E+03	1.455598E-18	6.028812E-18	2.932073E-01
3.237885E+03	1.678084E-18	6.032774E-18	2.932073E-01
3.238085E+03	1.897608E-18	5.982275E-18	2.932073E-01
3.238285E+03	2.123026E-18	5.989890E-18	2.932073E-01
3.238485E+03	2.354044E-18	5.924621E-18	2.932073E-01
3.239286E+03	2.590340E-18	5.933289E-18	2.932073E-01
3.239486E+03	2.836839E-18	5.908375E-18	2.932073E-01
3.239885E+03	3.093924E-18	5.849323E-18	2.932073E-01
3.240485E+03	3.347548E-18	5.843367E-18	2.932073E-01
3.240686E+03	3.611435E-18	5.848672E-18	2.932073E-01
3.240885E+03	3.883238E-18	5.848839E-18	2.932073E-01
3.242085E+03	4.159146E-18	5.861708E-18	2.932073E-01
3.242285E+03	4.444437E-18	5.878529E-18	2.932073E-01
3.242485E+03	4.730021E-18	5.874391E-18	2.932073E-01
3.242685E+03	5.024987E-18	5.882704E-18	2.932073E-01
3.244485E+03	5.324645E-18	5.895542E-18	2.932073E-01
3.244685E+03	5.637790E-18	5.775073E-18	2.932073E-01
