#wls	flux	fluxerr	mangling_mask
2.991594E+03	7.671107E-16	1.156583E-15	1.455729E+00
2.991794E+03	7.625717E-16	1.156525E-15	1.455706E+00
2.991994E+03	7.579309E-16	1.156465E-15	1.455684E+00
2.992194E+03	7.532903E-16	1.156406E-15	1.455662E+00
2.992594E+03	7.486820E-16	1.156329E-15	1.455617E+00
2.992794E+03	7.440854E-16	1.156271E-15	1.455595E+00
2.994594E+03	7.393982E-16	1.156068E-15	1.455394E+00
2.994994E+03	7.347767E-16	1.155992E-15	1.455349E+00
2.995194E+03	7.301666E-16	1.155935E-15	1.455327E+00
2.996395E+03	7.255156E-16	1.155787E-15	1.455193E+00
2.996595E+03	7.208916E-16	1.155730E-15	1.455171E+00
2.998794E+03	7.161727E-16	1.155493E-15	1.454926E+00
2.999594E+03	7.115171E-16	1.155383E-15	1.454837E+00
3.019997E+03	7.058412E-16	1.153545E-15	1.452617E+00
3.064200E+03	6.989149E-16	1.149612E-15	1.447808E+00
3.080002E+03	6.935262E-16	1.148224E-15	1.446142E+00
3.083802E+03	6.887799E-16	1.147864E-15	1.445741E+00
3.084402E+03	6.841238E-16	1.147778E-15	1.445678E+00
3.085802E+03	6.793855E-16	1.147624E-15	1.445532E+00
3.086002E+03	6.747212E-16	1.147572E-15	1.445511E+00
3.094404E+03	6.697335E-16	1.146829E-15	1.444637E+00
3.095803E+03	6.650440E-16	1.146677E-15	1.444492E+00
3.100004E+03	6.602230E-16	1.146292E-15	1.444057E+00
3.100604E+03	6.555451E-16	1.146208E-15	1.443996E+00
3.105205E+03	6.506675E-16	1.145791E-15	1.443522E+00
3.109004E+03	6.459461E-16	1.145443E-15	1.443133E+00
3.110604E+03	6.413274E-16	1.145278E-15	1.442969E+00
3.111005E+03	6.367207E-16	1.145213E-15	1.442928E+00
3.111805E+03	6.321541E-16	1.145115E-15	1.442846E+00
3.112005E+03	6.275714E-16	1.145067E-15	1.442826E+00
3.112605E+03	6.229856E-16	1.144986E-15	1.442764E+00
3.113205E+03	6.183570E-16	1.144905E-15	1.442703E+00
3.113405E+03	6.137605E-16	1.144858E-15	1.442683E+00
3.114205E+03	6.090951E-16	1.144761E-15	1.442601E+00
3.114605E+03	6.044328E-16	1.144697E-15	1.442560E+00
3.115605E+03	5.997166E-16	1.144584E-15	1.442459E+00
3.116606E+03	5.950155E-16	1.144472E-15	1.442357E+00
3.116806E+03	5.904782E-16	1.144426E-15	1.442337E+00
3.117406E+03	5.858956E-16	1.144348E-15	1.442276E+00
3.119206E+03	5.812500E-16	1.144171E-15	1.442093E+00
3.119606E+03	5.766046E-16	1.144109E-15	1.442052E+00
3.120605E+03	5.719210E-16	1.143998E-15	1.441951E+00
3.121405E+03	5.672605E-16	1.143904E-15	1.441870E+00
3.123606E+03	5.626030E-16	1.143697E-15	1.441648E+00
3.123806E+03	5.580395E-16	1.143653E-15	1.441627E+00
3.125206E+03	5.533865E-16	1.143511E-15	1.441486E+00
3.126406E+03	5.487421E-16	1.143386E-15	1.441365E+00
3.126606E+03	5.442375E-16	1.143343E-15	1.441345E+00
3.126806E+03	5.397329E-16	1.143301E-15	1.441325E+00
3.127206E+03	5.352210E-16	1.143242E-15	1.441285E+00
3.127406E+03	5.307312E-16	1.143200E-15	1.441264E+00
3.128007E+03	5.262124E-16	1.143125E-15	1.441204E+00
3.128607E+03	5.217084E-16	1.143051E-15	1.441144E+00
3.128807E+03	5.172193E-16	1.143010E-15	1.441124E+00
3.129207E+03	5.127231E-16	1.142953E-15	1.441083E+00
3.129407E+03	5.082486E-16	1.142912E-15	1.441063E+00
3.129807E+03	5.037529E-16	1.142855E-15	1.441023E+00
3.132006E+03	4.992093E-16	1.142653E-15	1.440803E+00
3.132206E+03	4.947503E-16	1.142613E-15	1.440783E+00
3.132806E+03	4.901914E-16	1.142541E-15	1.440722E+00
3.133406E+03	4.856473E-16	1.142469E-15	1.440662E+00
3.133607E+03	4.811025E-16	1.142429E-15	1.440642E+00
3.134207E+03	4.765878E-16	1.142358E-15	1.440582E+00
3.134407E+03	4.720435E-16	1.142318E-15	1.440562E+00
3.135007E+03	4.676447E-16	1.142248E-15	1.440502E+00
3.135807E+03	4.631246E-16	1.142161E-15	1.440423E+00
3.136007E+03	4.586530E-16	1.142123E-15	1.440403E+00
3.136607E+03	4.541689E-16	1.142053E-15	1.440343E+00
3.136807E+03	4.496688E-16	1.142015E-15	1.440323E+00
3.137007E+03	4.452120E-16	1.141978E-15	1.440303E+00
3.138207E+03	4.408401E-16	1.141861E-15	1.440183E+00
3.138407E+03	4.363839E-16	1.141824E-15	1.440163E+00
3.139007E+03	4.319015E-16	1.141756E-15	1.440104E+00
3.139207E+03	4.276041E-16	1.141720E-15	1.440084E+00
3.139808E+03	4.232087E-16	1.141652E-15	1.440024E+00
3.140008E+03	4.187532E-16	1.141616E-15	1.440004E+00
3.140408E+03	4.144937E-16	1.141565E-15	1.439964E+00
3.140608E+03	4.102258E-16	1.141530E-15	1.439945E+00
3.141008E+03	4.058660E-16	1.141479E-15	1.439905E+00
3.141808E+03	4.014665E-16	1.141397E-15	1.439825E+00
3.142008E+03	3.971560E-16	1.141362E-15	1.439806E+00
3.142208E+03	3.927735E-16	1.141328E-15	1.439786E+00
3.142608E+03	3.884003E-16	1.141278E-15	1.439746E+00
3.142808E+03	3.840614E-16	1.141244E-15	1.439726E+00
3.143008E+03	3.797514E-16	1.141211E-15	1.439706E+00
3.143207E+03	3.755710E-16	1.141178E-15	1.439687E+00
3.144407E+03	3.712789E-16	1.141066E-15	1.439568E+00
3.144807E+03	3.669645E-16	1.141017E-15	1.439528E+00
3.145408E+03	3.626742E-16	1.140953E-15	1.439469E+00
3.146408E+03	3.584319E-16	1.140858E-15	1.439370E+00
3.146608E+03	3.542673E-16	1.140826E-15	1.439350E+00
3.146808E+03	3.500308E-16	1.140794E-15	1.439331E+00
3.147208E+03	3.458472E-16	1.140747E-15	1.439291E+00
3.148008E+03	3.417553E-16	1.140669E-15	1.439212E+00
3.148208E+03	3.375626E-16	1.140638E-15	1.439192E+00
3.148408E+03	3.333988E-16	1.140608E-15	1.439173E+00
3.149408E+03	3.293753E-16	1.140515E-15	1.439074E+00
3.149808E+03	3.253514E-16	1.140470E-15	1.439035E+00
3.150408E+03	3.212226E-16	1.140408E-15	1.438976E+00
3.150608E+03	3.171603E-16	1.140379E-15	1.438956E+00
3.151409E+03	3.130854E-16	1.140302E-15	1.438877E+00
3.151609E+03	3.089659E-16	1.140273E-15	1.438858E+00
3.151809E+03	3.048754E-16	1.140244E-15	1.438838E+00
3.152009E+03	3.008714E-16	1.140215E-15	1.438819E+00
3.152209E+03	2.968386E-16	1.140187E-15	1.438799E+00
3.153009E+03	2.928803E-16	1.140112E-15	1.438720E+00
3.153209E+03	2.888767E-16	1.140084E-15	1.438701E+00
3.153409E+03	2.848589E-16	1.140056E-15	1.438681E+00
3.153609E+03	2.809562E-16	1.140029E-15	1.438662E+00
3.154209E+03	2.770893E-16	1.139970E-15	1.438603E+00
3.154409E+03	2.731294E-16	1.139943E-15	1.438583E+00
3.155009E+03	2.691623E-16	1.139885E-15	1.438525E+00
3.155209E+03	2.652891E-16	1.139859E-15	1.438505E+00
3.155608E+03	2.614268E-16	1.139213E-15	1.438466E+00
3.155809E+03	2.575682E-16	1.138971E-15	1.438446E+00
3.156008E+03	2.537097E-16	1.137205E-15	1.438427E+00
3.156209E+03	2.498945E-16	1.133268E-15	1.438407E+00
3.157009E+03	2.460405E-16	1.133080E-15	1.438329E+00
3.157609E+03	2.422623E-16	1.133139E-15	1.438270E+00
3.158009E+03	2.385450E-16	1.133185E-15	1.438231E+00
3.158209E+03	2.347737E-16	1.133175E-15	1.438212E+00
3.158409E+03	2.310887E-16	1.133121E-15	1.438192E+00
3.158809E+03	2.274296E-16	1.132780E-15	1.438153E+00
3.159009E+03	2.237449E-16	1.127493E-15	1.438134E+00
3.159409E+03	2.200717E-16	1.127367E-15	1.438095E+00
3.159609E+03	2.164016E-16	1.126984E-15	1.438075E+00
3.159809E+03	2.127316E-16	2.245834E-16	1.438056E+00
3.160209E+03	2.091308E-16	2.227910E-16	1.438017E+00
3.160609E+03	2.055877E-16	2.209137E-16	1.437978E+00
3.161409E+03	2.019675E-16	2.192442E-16	1.437900E+00
3.161809E+03	1.983817E-16	2.190696E-16	1.437861E+00
3.162210E+03	1.947962E-16	2.178940E-16	1.437822E+00
3.162410E+03	1.913716E-16	2.164804E-16	1.437803E+00
3.163010E+03	1.879420E-16	2.149466E-16	1.437745E+00
3.163210E+03	1.844314E-16	2.136186E-16	1.437725E+00
3.163410E+03	1.810216E-16	2.117625E-16	1.437706E+00
3.163810E+03	1.775950E-16	2.114924E-16	1.437667E+00
3.164010E+03	1.741998E-16	2.104961E-16	1.437648E+00
3.164210E+03	1.708334E-16	2.093859E-16	1.437628E+00
3.164410E+03	1.675246E-16	2.087636E-16	1.437609E+00
3.164810E+03	1.641418E-16	2.077657E-16	1.437570E+00
3.165010E+03	1.609194E-16	2.059707E-16	1.437551E+00
3.165210E+03	1.576541E-16	2.048200E-16	1.437532E+00
3.165410E+03	1.543601E-16	2.036409E-16	1.437512E+00
3.165610E+03	1.511667E-16	2.022624E-16	1.437493E+00
3.165810E+03	1.479016E-16	2.001243E-16	1.437473E+00
3.166010E+03	1.446366E-16	1.989607E-16	1.437454E+00
3.166410E+03	1.414259E-16	1.969642E-16	1.437415E+00
3.166610E+03	1.383278E-16	1.957311E-16	1.437396E+00
3.167010E+03	1.352338E-16	1.944385E-16	1.437357E+00
3.167209E+03	1.321187E-16	1.927903E-16	1.437338E+00
3.167610E+03	1.290192E-16	1.915413E-16	1.437300E+00
3.168410E+03	1.258719E-16	1.899431E-16	1.437222E+00
3.168610E+03	1.228047E-16	1.887408E-16	1.437203E+00
3.168810E+03	1.198180E-16	1.868227E-16	1.437184E+00
3.169010E+03	1.167653E-16	1.857072E-16	1.437164E+00
3.169410E+03	1.137356E-16	1.838871E-16	1.437126E+00
3.169610E+03	1.107449E-16	1.823570E-16	1.437107E+00
3.170410E+03	1.077470E-16	1.802892E-16	1.437030E+00
3.170610E+03	1.047825E-16	1.784158E-16	1.437010E+00
3.170810E+03	1.018453E-16	1.764568E-16	1.436991E+00
3.171010E+03	9.893551E-17	1.751867E-16	1.436972E+00
3.171410E+03	9.605325E-17	1.734559E-16	1.436933E+00
3.171610E+03	9.319969E-17	1.713549E-16	1.436914E+00
3.171810E+03	9.037494E-17	1.693836E-16	1.436895E+00
3.172210E+03	8.757640E-17	1.673099E-16	1.436856E+00
3.172810E+03	8.480705E-17	1.668269E-16	1.436799E+00
3.173010E+03	8.207029E-17	1.651010E-16	1.436780E+00
3.173811E+03	7.935915E-17	1.637132E-16	1.436703E+00
3.174611E+03	7.667561E-17	1.627277E-16	1.436626E+00
3.174811E+03	7.401830E-17	1.623234E-16	1.436607E+00
3.175011E+03	7.135101E-17	1.615033E-16	1.436588E+00
3.175411E+03	6.876044E-17	1.604667E-16	1.436550E+00
3.175811E+03	6.616571E-17	1.590717E-16	1.436511E+00
3.176011E+03	6.359351E-17	1.580811E-16	1.436492E+00
3.176611E+03	6.107003E-17	1.558814E-16	1.436435E+00
3.177011E+03	5.854178E-17	1.538421E-16	1.436397E+00
3.177211E+03	5.615087E-17	1.522650E-16	1.436377E+00
3.177811E+03	5.376434E-17	1.501100E-16	1.436320E+00
3.178411E+03	5.137225E-17	1.487736E-16	1.436263E+00
3.178611E+03	4.898022E-17	1.465803E-16	1.436244E+00
3.179212E+03	4.661431E-17	1.445558E-16	1.436187E+00
3.179412E+03	4.426412E-17	1.431757E-16	1.436168E+00
3.180012E+03	4.198038E-17	1.410202E-16	1.436110E+00
3.180211E+03	3.974383E-17	1.387972E-16	1.436091E+00
3.180811E+03	3.754224E-17	1.365494E-16	1.436034E+00
3.181211E+03	3.528961E-17	1.349511E-16	1.435996E+00
3.181411E+03	3.309066E-17	1.336809E-16	1.435977E+00
3.181611E+03	3.099659E-17	1.336501E-16	1.435958E+00
3.181811E+03	2.888966E-17	1.328331E-16	1.435939E+00
3.182011E+03	2.678853E-17	1.306081E-16	1.435920E+00
3.182811E+03	2.468934E-17	1.294766E-16	1.435844E+00
3.183011E+03	2.256830E-17	1.281108E-16	1.435825E+00
3.183211E+03	2.054639E-17	1.272178E-16	1.435806E+00
3.183611E+03	1.849413E-17	1.260709E-16	1.435768E+00
3.183811E+03	1.657286E-17	1.249491E-16	1.435749E+00
3.184411E+03	1.459094E-17	1.247402E-16	1.435693E+00
3.184611E+03	1.262273E-17	1.227277E-16	1.435674E+00
3.184811E+03	1.067424E-17	1.218984E-16	1.435655E+00
3.185012E+03	8.768719E-18	1.198866E-16	1.435636E+00
3.185212E+03	6.904455E-18	1.180044E-16	1.435617E+00
3.185412E+03	5.121639E-18	1.166164E-16	1.435598E+00
3.185812E+03	3.363517E-18	1.152359E-16	1.435560E+00
3.186012E+03	1.629770E-18	1.140137E-16	1.435541E+00
3.186412E+03	-7.896129E-20	1.119463E-16	1.435503E+00
3.186612E+03	-1.763205E-18	1.105813E-16	1.435484E+00
3.186812E+03	-3.422293E-18	1.094463E-16	1.435465E+00
3.187412E+03	-5.056084E-18	1.093781E-16	1.435409E+00
3.187612E+03	-6.668391E-18	1.087504E-16	1.435390E+00
3.188412E+03	-8.255068E-18	1.070998E-16	1.435314E+00
3.189212E+03	-9.816174E-18	1.054682E-16	1.435239E+00
3.189412E+03	-1.135216E-17	1.043521E-16	1.435220E+00
3.189812E+03	-1.286254E-17	1.037143E-16	1.435183E+00
3.190012E+03	-1.434748E-17	1.024711E-16	1.435164E+00
3.190412E+03	-1.580648E-17	1.005022E-16	1.435126E+00
3.190613E+03	-1.723994E-17	9.892393E-17	1.435107E+00
3.190813E+03	-1.864897E-17	9.762000E-17	1.435088E+00
3.191013E+03	-2.003070E-17	9.644406E-17	1.435070E+00
3.191412E+03	-2.138772E-17	9.513661E-17	1.435032E+00
3.191613E+03	-2.270047E-17	9.364562E-17	1.435013E+00
3.191812E+03	-2.401176E-17	9.160133E-17	1.434994E+00
3.193012E+03	-2.532567E-17	9.080803E-17	1.434882E+00
3.193612E+03	-2.665763E-17	8.975059E-17	1.434826E+00
3.194812E+03	-2.789800E-17	8.867686E-17	1.434713E+00
3.195012E+03	-2.913434E-17	8.683083E-17	1.434695E+00
3.195212E+03	-3.024727E-17	8.523281E-17	1.434676E+00
3.196012E+03	-3.136038E-17	8.400318E-17	1.434601E+00
3.196213E+03	-3.252055E-17	8.213969E-17	1.434582E+00
3.196413E+03	-3.357740E-17	8.021034E-17	1.434564E+00
3.196613E+03	-3.463852E-17	7.899086E-17	1.434545E+00
3.196813E+03	-3.569675E-17	7.882343E-17	1.434526E+00
3.197013E+03	-3.676930E-17	7.806029E-17	1.434508E+00
3.197213E+03	-3.784899E-17	7.681192E-17	1.434489E+00
3.197413E+03	-3.888562E-17	7.541911E-17	1.434470E+00
3.198013E+03	-3.979209E-17	7.355864E-17	1.434414E+00
3.198213E+03	-4.078131E-17	7.274219E-17	1.434396E+00
3.198613E+03	-4.169250E-17	7.181583E-17	1.434359E+00
3.198813E+03	-4.259703E-17	7.135736E-17	1.434340E+00
3.199013E+03	-4.343985E-17	7.109761E-17	1.434321E+00
3.199413E+03	-4.429213E-17	6.922596E-17	1.434284E+00
3.199613E+03	-4.510478E-17	6.816967E-17	1.434265E+00
3.199813E+03	-4.587582E-17	6.698045E-17	1.434247E+00
3.200013E+03	-4.667839E-17	6.556031E-17	1.434228E+00
3.200413E+03	-4.743157E-17	6.399512E-17	1.434191E+00
3.201013E+03	-4.811237E-17	6.314521E-17	1.434135E+00
3.201213E+03	-4.871838E-17	6.136504E-17	1.434117E+00
3.201613E+03	-4.935529E-17	6.011797E-17	1.434080E+00
3.202014E+03	-4.998498E-17	5.926842E-17	1.434042E+00
3.202414E+03	-5.060748E-17	5.764258E-17	1.434005E+00
3.203014E+03	-5.118054E-17	5.743920E-17	1.433950E+00
3.203214E+03	-5.169035E-17	5.683585E-17	1.433931E+00
3.203414E+03	-5.221163E-17	5.591901E-17	1.433913E+00
3.203613E+03	-5.264973E-17	5.432141E-17	1.433894E+00
3.203814E+03	-5.315091E-17	5.406546E-17	1.433876E+00
3.204213E+03	-5.363704E-17	5.266991E-17	1.433839E+00
3.205013E+03	-5.408734E-17	5.193294E-17	1.433765E+00
3.205813E+03	-5.445301E-17	5.101588E-17	1.433691E+00
3.206013E+03	-5.473905E-17	5.069409E-17	1.433672E+00
3.206213E+03	-5.505518E-17	4.998274E-17	1.433654E+00
3.206813E+03	-5.541146E-17	4.912570E-17	1.433599E+00
3.207013E+03	-5.562148E-17	4.911783E-17	1.433580E+00
3.207614E+03	-5.588310E-17	4.910644E-17	1.433525E+00
3.208414E+03	-5.607231E-17	4.908346E-17	1.433451E+00
3.208814E+03	-5.626295E-17	4.905761E-17	1.433414E+00
3.209214E+03	-5.648368E-17	4.901084E-17	1.433378E+00
3.210214E+03	-5.661479E-17	4.888974E-17	1.433286E+00
3.210414E+03	-5.676169E-17	4.878297E-17	1.433267E+00
3.211814E+03	-5.689849E-17	4.869619E-17	1.433139E+00
3.212014E+03	-5.692213E-17	4.861622E-17	1.433121E+00
3.212214E+03	-5.699592E-17	4.847439E-17	1.433103E+00
3.212814E+03	-5.704533E-17	4.816318E-17	1.433048E+00
3.213014E+03	-5.708759E-17	4.769552E-17	1.433029E+00
3.214615E+03	-5.709609E-17	4.704671E-17	1.432883E+00
3.214815E+03	-5.704808E-17	4.651129E-17	1.432865E+00
3.215215E+03	-5.695063E-17	4.618905E-17	1.432828E+00
3.215415E+03	-5.673211E-17	4.580327E-17	1.432810E+00
3.216615E+03	-5.666188E-17	4.556130E-17	1.432701E+00
3.216814E+03	-5.653222E-17	4.522941E-17	1.432683E+00
3.217014E+03	-5.636531E-17	4.455777E-17	1.432664E+00
3.217214E+03	-5.613108E-17	4.397325E-17	1.432646E+00
3.218014E+03	-5.587609E-17	4.353423E-17	1.432573E+00
3.218614E+03	-5.560322E-17	4.292112E-17	1.432519E+00
3.218814E+03	-5.531458E-17	4.222259E-17	1.432501E+00
3.219015E+03	-5.501019E-17	4.238335E-17	1.432483E+00
3.220015E+03	-5.468586E-17	4.259257E-17	1.432392E+00
3.221215E+03	-5.434369E-17	4.280953E-17	1.432283E+00
3.222815E+03	-5.398303E-17	4.310600E-17	1.432139E+00
3.223015E+03	-5.360714E-17	4.301485E-17	1.432121E+00
3.223415E+03	-5.321339E-17	4.331179E-17	1.432084E+00
3.224015E+03	-5.280039E-17	4.294359E-17	1.432030E+00
3.224215E+03	-5.237012E-17	4.316552E-17	1.432012E+00
3.227016E+03	-5.195286E-17	4.352767E-17	1.431761E+00
3.227816E+03	-5.151645E-17	4.400221E-17	1.431689E+00
3.229015E+03	-5.103587E-17	4.398082E-17	1.431581E+00
3.229215E+03	-5.045974E-17	4.406922E-17	1.431563E+00
3.229415E+03	-4.999386E-17	4.465087E-17	1.431545E+00
3.230416E+03	-4.946682E-17	4.528222E-17	1.431456E+00
3.231416E+03	-4.887973E-17	4.525624E-17	1.431366E+00
3.232016E+03	-4.829822E-17	4.572936E-17	1.431313E+00
3.234616E+03	-4.767362E-17	4.629138E-17	1.431082E+00
3.235216E+03	-4.703647E-17	4.654814E-17	1.431028E+00
3.235616E+03	-4.640280E-17	4.700923E-17	1.430993E+00
3.235816E+03	-4.575256E-17	4.741126E-17	1.430975E+00
3.236017E+03	-4.508660E-17	4.765819E-17	1.430957E+00
3.236617E+03	-4.440095E-17	4.792664E-17	1.430904E+00
3.236817E+03	-4.369927E-17	4.837726E-17	1.430886E+00
3.238017E+03	-4.297920E-17	4.856412E-17	1.430780E+00
3.239617E+03	-4.224104E-17	4.857877E-17	1.430639E+00
3.240017E+03	-4.148893E-17	4.859153E-17	1.430603E+00
3.240216E+03	-4.072449E-17	4.890559E-17	1.430586E+00
3.240416E+03	-3.994576E-17	4.954900E-17	1.430568E+00
3.240617E+03	-3.914988E-17	4.969083E-17	1.430551E+00
3.242417E+03	-3.833308E-17	5.018255E-17	1.430392E+00
3.242617E+03	-3.748583E-17	5.051687E-17	1.430375E+00
3.243217E+03	-3.658906E-17	5.101805E-17	1.430322E+00
3.243417E+03	-3.564318E-17	5.146912E-17	1.430304E+00
3.243817E+03	-3.472408E-17	5.183020E-17	1.430269E+00
3.245017E+03	-3.377476E-17	5.216874E-17	1.430164E+00
3.245217E+03	-3.282329E-17	5.247230E-17	1.430147E+00
3.245417E+03	-3.187472E-17	5.271479E-17	1.430129E+00
3.245617E+03	-3.088898E-17	5.291161E-17	1.430112E+00
3.245817E+03	-2.989898E-17	5.298305E-17	1.430094E+00
3.246417E+03	-2.896406E-17	5.313081E-17	1.430042E+00
3.247618E+03	-2.800674E-17	5.327096E-17	1.429937E+00
3.247818E+03	-2.697114E-17	5.337565E-17	1.429919E+00
3.248618E+03	-2.591174E-17	5.348847E-17	1.429850E+00
3.249618E+03	-2.490361E-17	5.359258E-17	1.429763E+00
3.249818E+03	-2.381384E-17	5.366061E-17	1.429745E+00
3.250218E+03	-2.274955E-17	5.323562E-17	1.429711E+00
3.251018E+03	-2.169337E-17	5.318377E-17	1.429641E+00
3.251218E+03	-2.063376E-17	5.336550E-17	1.429624E+00
3.251418E+03	-1.952556E-17	5.358016E-17	1.429606E+00
3.252218E+03	-1.841530E-17	5.342884E-17	1.429537E+00
3.252418E+03	-1.729433E-17	5.369114E-17	1.429520E+00
3.253218E+03	-1.615136E-17	5.399456E-17	1.429450E+00
3.253418E+03	-1.496188E-17	5.368144E-17	1.429433E+00
3.253618E+03	-1.381516E-17	5.394169E-17	1.429416E+00
3.253818E+03	-1.268134E-17	5.410224E-17	1.429399E+00
3.254018E+03	-1.142619E-17	5.346396E-17	1.429381E+00
3.255018E+03	-1.024533E-17	5.303649E-17	1.429295E+00
3.255418E+03	-9.105961E-18	5.297858E-17	1.429260E+00
3.255618E+03	-7.937445E-18	5.288723E-17	1.429243E+00
3.256418E+03	-6.707972E-18	5.265127E-17	1.429174E+00
3.256618E+03	-5.400785E-18	5.244317E-17	1.429157E+00
3.257218E+03	-4.141976E-18	5.226136E-17	1.429105E+00
3.257818E+03	-2.806948E-18	5.210987E-17	1.429054E+00
3.258619E+03	-1.483144E-18	5.198672E-17	1.428985E+00
3.259019E+03	-2.019536E-19	5.196666E-17	1.428951E+00
3.260019E+03	9.871886E-19	5.197079E-17	1.428865E+00
3.260819E+03	2.172200E-18	5.200156E-17	1.428797E+00
3.261219E+03	3.391311E-18	5.199247E-17	1.428763E+00
3.261819E+03	4.628596E-18	5.203453E-17	1.428711E+00
3.262219E+03	5.858148E-18	5.184180E-17	1.428677E+00
3.262419E+03	7.151158E-18	5.182156E-17	1.428660E+00
3.263019E+03	8.400506E-18	5.136755E-17	1.428609E+00
3.263219E+03	9.631709E-18	5.107225E-17	1.428592E+00
3.264220E+03	1.097636E-17	5.095367E-17	1.428507E+00
3.265219E+03	1.220258E-17	5.079808E-17	1.428422E+00
3.265419E+03	1.346843E-17	5.073391E-17	1.428405E+00
3.266219E+03	1.475900E-17	5.068692E-17	1.428337E+00
3.266419E+03	1.610573E-17	5.057095E-17	1.428320E+00
3.267219E+03	1.737183E-17	5.046041E-17	1.428252E+00
3.267419E+03	1.864275E-17	5.014086E-17	1.428235E+00
3.267819E+03	1.991198E-17	5.008085E-17	1.428201E+00
3.268019E+03	2.123282E-17	5.000778E-17	1.428184E+00
3.268619E+03	2.255737E-17	4.982552E-17	1.428134E+00
3.268819E+03	2.380671E-17	4.972580E-17	1.428117E+00
3.269419E+03	2.501115E-17	4.967634E-17	1.428066E+00
3.269619E+03	2.626754E-17	4.944764E-17	1.428049E+00
3.270420E+03	2.749151E-17	4.935709E-17	1.427982E+00
3.271020E+03	2.882279E-17	4.890333E-17	1.427931E+00
3.271420E+03	3.001584E-17	4.885734E-17	1.427898E+00
3.271620E+03	3.122775E-17	4.863006E-17	1.427881E+00
3.272420E+03	3.250275E-17	4.835489E-17	1.427814E+00
3.272620E+03	3.380737E-17	4.809076E-17	1.427797E+00
3.273220E+03	3.500121E-17	4.749910E-17	1.427746E+00
3.274820E+03	3.619711E-17	4.730366E-17	1.427612E+00
3.275420E+03	3.745923E-17	4.717615E-17	1.427562E+00
3.276220E+03	3.863802E-17	4.709040E-17	1.427495E+00
3.276620E+03	3.985331E-17	4.705059E-17	1.427462E+00
3.276820E+03	4.114183E-17	4.697263E-17	1.427445E+00
