#wls	flux	fluxerr	mangling_mask
5.337215E+03	6.643367E-17	4.084795E-17	1.003469E-01
5.337415E+03	6.626897E-17	4.081214E-17	1.002875E-01
5.337615E+03	6.610141E-17	4.077638E-17	1.002281E-01
5.337815E+03	6.593100E-17	4.074067E-17	1.001686E-01
5.338015E+03	6.575774E-17	4.070500E-17	1.001092E-01
5.338215E+03	6.558662E-17	4.066953E-17	1.000498E-01
5.338415E+03	6.541268E-17	4.063413E-17	9.999034E-02
5.338615E+03	6.523589E-17	4.059876E-17	9.993089E-02
5.339016E+03	6.502632E-17	4.053137E-17	9.981170E-02
5.339216E+03	6.485091E-17	4.049639E-17	9.975221E-02
5.339616E+03	6.463708E-17	4.042967E-17	9.963327E-02
5.340616E+03	6.430903E-17	4.026827E-17	9.933584E-02
5.340816E+03	6.412957E-17	4.023393E-17	9.927639E-02
5.341016E+03	6.395023E-17	4.019974E-17	9.921686E-02
5.341416E+03	6.372882E-17	4.013429E-17	9.909782E-02
5.341616E+03	6.355189E-17	4.010044E-17	9.903830E-02
5.341816E+03	6.336522E-17	4.006652E-17	9.897878E-02
5.342816E+03	6.303248E-17	3.990926E-17	9.868099E-02
5.343016E+03	6.285242E-17	3.987602E-17	9.862143E-02
5.343416E+03	6.262778E-17	3.981213E-17	9.850233E-02
5.344016E+03	6.236865E-17	3.971806E-17	9.832364E-02
5.344417E+03	6.214552E-17	3.965493E-17	9.820410E-02
5.345417E+03	6.180905E-17	3.950189E-17	9.790602E-02
5.346217E+03	6.151200E-17	3.938000E-17	9.766756E-02
5.346417E+03	6.132218E-17	3.934810E-17	9.760793E-02
5.346617E+03	6.113447E-17	3.931641E-17	9.754827E-02
5.346817E+03	6.094597E-17	3.928481E-17	9.748860E-02
5.347017E+03	6.075280E-17	3.925326E-17	9.742896E-02
5.347417E+03	6.052075E-17	3.919235E-17	9.730963E-02
5.347817E+03	6.028905E-17	3.913183E-17	9.719023E-02
5.348017E+03	6.009661E-17	3.910076E-17	9.713054E-02
5.348217E+03	5.990437E-17	3.906980E-17	9.707087E-02
5.348816E+03	5.963398E-17	3.898084E-17	9.689178E-02
5.349217E+03	5.940270E-17	3.892146E-17	9.677229E-02
5.349617E+03	5.916875E-17	3.886217E-17	9.665254E-02
5.350417E+03	5.886338E-17	3.874616E-17	9.641357E-02
5.350817E+03	5.862771E-17	3.868766E-17	9.629412E-02
5.351417E+03	5.835702E-17	3.860149E-17	9.611474E-02
5.352217E+03	5.804884E-17	3.848773E-17	9.587559E-02
5.352617E+03	5.781556E-17	3.843046E-17	9.575600E-02
5.352817E+03	5.761773E-17	3.840125E-17	9.569621E-02
5.353217E+03	5.738035E-17	3.834454E-17	9.557658E-02
5.353417E+03	5.717919E-17	3.831563E-17	9.551674E-02
5.353617E+03	5.698109E-17	3.828681E-17	9.545691E-02
5.353817E+03	5.677939E-17	3.825805E-17	9.539708E-02
5.354217E+03	5.653949E-17	3.820207E-17	9.527736E-02
5.354617E+03	5.630289E-17	3.814632E-17	9.515766E-02
5.354818E+03	5.610277E-17	3.811783E-17	9.509750E-02
5.355018E+03	5.589924E-17	3.808953E-17	9.503764E-02
5.355218E+03	5.569590E-17	3.806141E-17	9.497775E-02
5.355418E+03	5.548708E-17	3.803333E-17	9.491785E-02
5.356018E+03	5.521058E-17	3.795154E-17	9.473820E-02
5.356418E+03	5.497140E-17	3.789688E-17	9.461841E-02
5.356618E+03	5.476071E-17	3.786921E-17	9.455848E-02
5.356818E+03	5.455215E-17	3.784163E-17	9.449859E-02
5.357018E+03	5.434756E-17	3.781412E-17	9.443867E-02
5.357218E+03	5.413848E-17	3.778664E-17	9.437874E-02
5.357818E+03	5.385727E-17	3.770661E-17	9.419889E-02
5.358018E+03	5.364791E-17	3.767945E-17	9.413896E-02
5.358218E+03	5.343688E-17	3.765232E-17	9.407901E-02
5.358618E+03	5.318931E-17	3.759901E-17	9.395911E-02
5.358818E+03	5.297883E-17	3.757215E-17	9.389913E-02
5.359018E+03	5.276575E-17	3.754532E-17	9.383915E-02
5.359218E+03	5.255011E-17	3.751855E-17	9.377920E-02
5.359418E+03	5.233468E-17	3.749181E-17	9.371922E-02
5.360419E+03	5.198851E-17	3.736240E-17	9.341882E-02
5.360819E+03	5.174165E-17	3.731043E-17	9.329881E-02
5.361418E+03	5.146115E-17	3.723297E-17	9.311875E-02
5.361618E+03	5.124558E-17	3.720676E-17	9.305873E-02
5.363418E+03	5.076652E-17	3.697972E-17	9.251807E-02
5.363618E+03	5.055141E-17	3.695405E-17	9.245800E-02
5.363818E+03	5.033469E-17	3.692841E-17	9.239792E-02
5.364018E+03	5.011821E-17	3.690279E-17	9.233784E-02
5.364218E+03	4.990011E-17	3.687749E-17	9.227774E-02
5.364418E+03	4.968132E-17	3.685219E-17	9.221762E-02
5.364618E+03	4.946277E-17	3.682691E-17	9.215750E-02
5.365018E+03	4.921048E-17	3.677689E-17	9.203725E-02
5.365819E+03	4.889443E-17	3.667836E-17	9.179639E-02
5.366419E+03	4.861051E-17	3.660446E-17	9.161595E-02
5.366619E+03	4.839092E-17	3.657953E-17	9.155583E-02
5.366819E+03	4.817065E-17	3.655461E-17	9.149569E-02
5.367219E+03	4.791938E-17	3.650624E-17	9.137596E-02
5.367619E+03	4.766770E-17	3.645788E-17	9.125624E-02
5.368619E+03	4.732309E-17	3.633769E-17	9.095696E-02
5.369019E+03	4.707185E-17	3.628934E-17	9.083723E-02
5.370219E+03	4.670036E-17	3.614979E-17	9.048354E-02
5.370619E+03	4.645066E-17	3.610296E-17	9.036566E-02
5.370819E+03	4.623161E-17	3.607930E-17	9.030670E-02
5.371020E+03	4.601176E-17	3.605552E-17	9.024745E-02
5.372020E+03	4.568140E-17	3.594546E-17	8.996297E-02
5.373819E+03	4.523620E-17	3.574796E-17	8.945087E-02
5.374019E+03	4.501792E-17	3.572553E-17	8.939400E-02
5.374219E+03	4.479987E-17	3.570308E-17	8.933710E-02
5.374819E+03	4.453407E-17	3.564164E-17	8.917515E-02
5.376420E+03	4.412928E-17	3.547904E-17	8.874309E-02
5.376620E+03	4.391441E-17	3.545814E-17	8.868911E-02
5.376820E+03	4.370332E-17	3.543725E-17	8.863513E-02
5.377220E+03	4.346639E-17	3.539843E-17	8.853165E-02
5.378220E+03	4.314784E-17	3.530259E-17	8.827299E-02
5.378420E+03	4.293375E-17	3.528279E-17	8.822125E-02
5.378620E+03	4.272430E-17	3.526300E-17	8.816951E-02
5.378820E+03	4.250972E-17	3.524399E-17	8.811948E-02
5.379020E+03	4.229625E-17	3.522499E-17	8.806949E-02
5.379220E+03	4.208299E-17	3.520597E-17	8.801946E-02
5.380220E+03	4.177295E-17	3.511450E-17	8.776937E-02
5.380420E+03	4.156486E-17	3.509626E-17	8.772105E-02
5.381020E+03	4.131052E-17	3.504349E-17	8.757609E-02
5.381821E+03	4.102874E-17	3.497348E-17	8.738258E-02
5.382021E+03	4.081567E-17	3.495518E-17	8.733426E-02
5.384421E+03	4.036930E-17	3.476395E-17	8.678771E-02
5.384621E+03	4.015815E-17	3.474685E-17	8.674216E-02
5.385620E+03	3.986239E-17	3.466703E-17	8.651443E-02
5.385820E+03	3.965376E-17	3.464989E-17	8.646888E-02
5.386020E+03	3.944131E-17	3.463380E-17	8.642587E-02
5.386221E+03	3.922905E-17	3.461769E-17	8.638287E-02
5.386420E+03	3.901786E-17	3.460158E-17	8.633989E-02
5.387221E+03	3.874701E-17	3.454182E-17	8.616765E-02
5.387821E+03	3.850141E-17	3.449835E-17	8.604243E-02
5.388021E+03	3.829180E-17	3.448268E-17	8.600068E-02
5.388221E+03	3.807981E-17	3.446695E-17	8.595894E-02
5.388421E+03	3.786628E-17	3.445118E-17	8.591719E-02
5.388621E+03	3.765530E-17	3.443601E-17	8.587689E-02
5.389821E+03	3.735659E-17	3.435447E-17	8.563508E-02
5.390021E+03	3.715071E-17	3.433927E-17	8.559480E-02
5.390221E+03	3.694072E-17	3.433759E-17	8.555449E-02
5.390421E+03	3.673181E-17	3.426958E-17	8.551629E-02
5.392422E+03	3.637523E-17	3.307516E-17	8.513405E-02
5.392622E+03	3.616488E-17	3.235653E-17	8.509584E-02
5.392822E+03	3.595386E-17	3.134086E-17	8.505764E-02
5.393022E+03	3.574397E-17	3.081222E-17	8.502169E-02
5.393422E+03	3.551921E-17	3.057724E-17	8.494980E-02
5.394222E+03	3.526319E-17	3.041737E-17	8.480603E-02
5.395022E+03	3.500954E-17	3.033192E-17	8.466226E-02
5.395222E+03	3.480661E-17	3.028500E-17	8.462790E-02
5.395822E+03	3.457234E-17	3.025760E-17	8.452481E-02
5.396022E+03	3.436311E-17	3.016369E-17	8.449045E-02
5.396222E+03	3.415658E-17	3.014847E-17	8.445611E-02
5.396822E+03	3.392306E-17	3.012386E-17	8.435635E-02
5.397022E+03	3.371744E-17	3.010809E-17	8.432310E-02
5.397222E+03	3.350943E-17	2.996624E-17	8.428985E-02
5.397422E+03	3.330580E-17	2.990045E-17	8.425662E-02
5.398023E+03	3.307405E-17	2.967957E-17	8.416002E-02
5.398222E+03	3.286708E-17	2.958253E-17	8.412787E-02
5.398422E+03	3.265857E-17	2.956537E-17	8.409572E-02
5.398622E+03	3.245275E-17	2.953159E-17	8.406359E-02
5.398822E+03	3.224927E-17	2.932952E-17	8.403282E-02
5.399222E+03	3.203420E-17	2.913634E-17	8.397126E-02
5.399622E+03	3.182108E-17	2.912185E-17	8.390971E-02
5.400422E+03	3.158169E-17	2.908993E-17	8.378662E-02
5.400622E+03	3.137963E-17	2.895355E-17	8.375720E-02
5.400822E+03	3.117353E-17	2.882210E-17	8.372778E-02
5.401422E+03	3.094914E-17	2.872925E-17	8.363955E-02
5.401622E+03	3.074762E-17	2.856995E-17	8.361013E-02
5.401822E+03	3.054574E-17	2.813278E-17	8.358161E-02
5.402022E+03	3.034231E-17	2.794430E-17	8.355310E-02
5.402222E+03	3.013817E-17	2.776001E-17	8.352458E-02
5.402422E+03	2.993418E-17	2.772750E-17	8.349608E-02
5.403223E+03	2.970049E-17	2.768974E-17	8.338617E-02
5.403423E+03	2.949565E-17	2.735880E-17	8.335872E-02
5.403823E+03	2.928630E-17	2.705761E-17	8.330385E-02
5.404023E+03	2.908429E-17	2.690800E-17	8.327641E-02
5.404623E+03	2.886215E-17	2.568217E-17	8.319782E-02
5.404823E+03	2.866011E-17	2.555075E-17	8.317163E-02
5.405023E+03	2.845736E-17	2.537923E-17	8.314544E-02
5.405223E+03	2.825805E-17	2.527332E-17	8.311924E-02
5.405423E+03	2.805776E-17	2.511635E-17	8.309471E-02
5.407023E+03	2.780002E-17	2.507142E-17	8.289853E-02
5.407223E+03	2.760285E-17	2.497427E-17	8.287402E-02
5.407823E+03	2.738625E-17	2.484742E-17	8.280044E-02
5.408023E+03	2.718832E-17	2.481175E-17	8.277766E-02
5.408223E+03	2.699299E-17	2.475742E-17	8.275488E-02
5.408424E+03	2.679359E-17	2.417786E-17	8.273200E-02
5.409224E+03	2.657400E-17	2.410326E-17	8.264088E-02
5.409424E+03	2.637696E-17	2.398992E-17	8.261906E-02
5.409623E+03	2.617837E-17	2.383114E-17	8.259724E-02
5.409824E+03	2.597822E-17	2.382144E-17	8.257541E-02
5.410024E+03	2.577983E-17	2.371371E-17	8.255358E-02
5.410224E+03	2.558434E-17	2.370111E-17	8.253279E-02
5.411223E+03	2.536417E-17	2.366366E-17	8.242881E-02
5.411423E+03	2.516906E-17	2.365326E-17	8.240801E-02
5.411623E+03	2.496992E-17	2.354082E-17	8.238722E-02
5.411823E+03	2.477286E-17	2.353217E-17	8.236753E-02
5.412223E+03	2.457660E-17	2.349028E-17	8.232816E-02
5.412423E+03	2.438471E-17	2.334359E-17	8.230848E-02
5.412623E+03	2.418879E-17	2.325005E-17	8.228879E-02
5.413023E+03	2.398719E-17	2.252878E-17	8.225212E-02
5.413223E+03	2.379435E-17	2.240276E-17	8.223379E-02
5.413423E+03	2.360077E-17	2.204964E-17	8.221546E-02
5.414824E+03	2.337839E-17	2.201721E-17	8.208704E-02
5.415424E+03	2.317779E-17	2.162067E-17	8.203657E-02
5.415624E+03	2.298357E-17	2.161209E-17	8.201975E-02
5.416024E+03	2.278804E-17	2.153237E-17	8.198611E-02
5.416224E+03	2.259483E-17	2.149966E-17	8.196928E-02
5.417424E+03	2.238430E-17	2.149108E-17	8.187681E-02
5.417624E+03	2.219590E-17	2.147623E-17	8.186140E-02
5.418024E+03	2.200588E-17	2.131392E-17	8.183057E-02
5.418224E+03	2.181847E-17	2.069751E-17	8.181516E-02
5.418424E+03	2.162990E-17	2.054794E-17	8.180132E-02
5.419025E+03	2.143494E-17	2.053990E-17	8.175969E-02
5.419825E+03	2.123740E-17	2.052627E-17	8.170429E-02
5.420025E+03	2.104673E-17	2.042428E-17	8.169044E-02
5.420225E+03	2.085802E-17	1.987046E-17	8.167765E-02
5.420425E+03	2.067427E-17	1.981199E-17	8.166486E-02
5.420625E+03	2.048895E-17	1.860503E-17	8.165206E-02
5.420825E+03	2.030124E-17	1.857722E-17	8.163928E-02
5.421025E+03	2.011376E-17	1.855348E-17	8.162721E-02
5.421425E+03	1.992666E-17	1.835162E-17	8.160308E-02
5.421625E+03	1.974503E-17	1.833596E-17	8.159102E-02
5.421825E+03	1.955774E-17	1.826925E-17	8.157895E-02
5.422425E+03	1.936965E-17	1.781807E-17	8.154614E-02
5.422824E+03	1.918347E-17	1.770850E-17	8.152426E-02
5.423424E+03	1.899321E-17	1.769635E-17	8.149144E-02
5.423624E+03	1.880814E-17	1.535527E-17	8.148050E-02
5.424425E+03	1.862330E-17	1.535326E-17	8.144180E-02
5.424625E+03	1.844438E-17	1.443233E-17	8.143213E-02
5.424825E+03	1.826632E-17	1.407995E-17	8.142247E-02
5.425025E+03	1.808830E-17	1.404828E-17	8.141280E-02
5.425225E+03	1.791056E-17	1.397558E-17	8.140424E-02
5.425825E+03	1.773076E-17	1.315236E-17	8.137857E-02
5.426025E+03	1.755395E-17	1.300086E-17	8.137001E-02
5.426425E+03	1.737698E-17	1.297941E-17	8.135289E-02
5.426625E+03	1.720213E-17	1.261494E-17	8.134550E-02
5.426825E+03	1.702813E-17	1.235937E-17	8.133812E-02
5.427225E+03	1.685264E-17	1.235862E-17	8.132335E-02
5.428025E+03	1.667498E-17	1.220051E-17	8.129380E-02
5.428225E+03	1.650216E-17	1.154497E-17	8.128743E-02
5.428425E+03	1.633099E-17	1.137769E-17	8.128105E-02
5.428825E+03	1.615614E-17	1.127893E-17	8.126829E-02
5.429025E+03	1.598341E-17	1.061324E-17	8.126192E-02
5.429225E+03	1.581084E-17	1.045855E-17	8.125623E-02
5.429425E+03	1.563911E-17	1.008567E-17	8.125055E-02
5.429625E+03	1.546659E-17	1.003231E-17	8.124487E-02
5.429826E+03	1.529408E-17	9.995380E-18	8.123916E-02
5.430226E+03	1.512162E-17	9.982445E-18	8.122917E-02
5.430426E+03	1.495012E-17	9.977767E-18	8.122418E-02
5.430626E+03	1.477783E-17	9.947464E-18	8.121919E-02
5.430826E+03	1.460637E-17	9.907424E-18	8.121419E-02
5.431026E+03	1.443515E-17	9.773424E-18	8.121042E-02
5.431826E+03	1.426277E-17	9.697352E-18	8.119531E-02
5.432826E+03	1.408898E-17	9.687426E-18	8.117643E-02
5.433026E+03	1.392354E-17	9.671341E-18	8.117265E-02
5.433226E+03	1.375752E-17	9.661307E-18	8.117008E-02
5.433426E+03	1.359231E-17	9.541548E-18	8.116751E-02
5.433826E+03	1.342669E-17	9.504769E-18	8.116236E-02
5.434026E+03	1.326151E-17	9.306708E-18	8.115979E-02
5.434226E+03	1.309726E-17	9.167365E-18	8.115789E-02
5.434426E+03	1.293464E-17	9.043879E-18	8.115600E-02
5.434626E+03	1.277203E-17	9.037254E-18	8.115410E-02
5.434825E+03	1.261186E-17	8.567780E-18	8.115220E-02
5.435626E+03	1.245146E-17	8.425898E-18	8.114875E-02
5.436026E+03	1.229215E-17	8.413867E-18	8.114703E-02
5.436626E+03	1.213434E-17	8.419056E-18	8.114445E-02
5.436826E+03	1.197760E-17	8.426045E-18	8.114359E-02
5.437426E+03	1.182204E-17	8.426909E-18	8.114519E-02
5.437626E+03	1.166713E-17	8.437964E-18	8.114572E-02
5.438426E+03	1.151407E-17	8.460525E-18	8.114786E-02
5.438626E+03	1.135591E-17	8.422651E-18	8.114840E-02
5.438826E+03	1.119789E-17	8.375092E-18	8.115002E-02
5.439426E+03	1.104193E-17	8.285606E-18	8.115489E-02
5.439626E+03	1.088471E-17	8.185366E-18	8.115651E-02
5.439826E+03	1.072829E-17	8.072228E-18	8.115814E-02
5.440426E+03	1.057672E-17	8.058411E-18	8.116581E-02
5.440627E+03	1.042527E-17	7.940301E-18	8.116839E-02
5.441027E+03	1.027088E-17	7.879649E-18	8.117350E-02
5.441227E+03	1.011535E-17	7.766024E-18	8.117606E-02
5.442227E+03	9.964196E-18	7.771766E-18	8.119456E-02
5.442427E+03	9.812810E-18	7.738419E-18	8.119826E-02
5.442627E+03	9.659785E-18	7.710783E-18	8.120196E-02
5.443027E+03	9.511240E-18	7.670597E-18	8.120936E-02
5.443227E+03	9.362355E-18	7.550887E-18	8.121404E-02
5.443627E+03	9.213172E-18	7.466593E-18	8.122342E-02
5.443827E+03	9.069930E-18	7.407863E-18	8.122811E-02
5.444027E+03	8.926672E-18	7.401919E-18	8.123279E-02
5.445027E+03	8.785102E-18	7.412289E-18	8.126077E-02
5.445227E+03	8.638615E-18	7.402710E-18	8.126637E-02
5.445427E+03	8.496171E-18	7.408751E-18	8.127196E-02
5.445627E+03	8.349644E-18	7.403105E-18	8.127756E-02
5.445828E+03	8.206456E-18	7.395292E-18	8.128423E-02
5.446627E+03	8.067411E-18	7.398659E-18	8.131077E-02
5.446828E+03	7.926008E-18	7.376252E-18	8.131741E-02
5.447028E+03	7.788485E-18	7.366070E-18	8.132404E-02
5.447227E+03	7.648170E-18	7.331565E-18	8.133150E-02
5.447427E+03	7.508562E-18	7.331748E-18	8.133896E-02
5.447627E+03	7.371450E-18	7.291008E-18	8.134642E-02
5.448027E+03	7.234487E-18	7.281026E-18	8.136134E-02
5.448227E+03	7.099888E-18	7.130755E-18	8.136941E-02
5.448427E+03	6.966971E-18	7.092277E-18	8.137748E-02
5.448627E+03	6.831667E-18	7.099142E-18	8.138556E-02
5.448827E+03	6.695440E-18	6.944845E-18	8.139363E-02
5.449227E+03	6.564364E-18	6.944029E-18	8.141140E-02
5.449627E+03	6.435184E-18	6.844516E-18	8.142917E-02
5.449827E+03	6.302328E-18	6.838684E-18	8.143805E-02
5.450427E+03	6.174373E-18	6.820431E-18	8.146470E-02
5.450627E+03	6.048185E-18	6.813002E-18	8.147459E-02
5.451228E+03	5.919251E-18	6.791950E-18	8.150431E-02
5.451428E+03	5.790606E-18	6.648040E-18	8.151420E-02
5.451828E+03	5.662209E-18	6.505946E-18	8.153398E-02
5.452028E+03	5.537372E-18	6.508546E-18	8.154466E-02
5.452228E+03	5.410382E-18	6.398386E-18	8.155535E-02
5.452428E+03	5.284990E-18	6.396580E-18	8.156604E-02
5.452828E+03	5.163096E-18	6.379990E-18	8.158741E-02
5.453628E+03	5.045282E-18	6.357110E-18	8.163358E-02
5.454028E+03	4.923570E-18	6.345947E-18	8.165666E-02
5.454228E+03	4.805030E-18	6.323007E-18	8.166820E-02
5.454428E+03	4.687764E-18	6.302745E-18	8.167974E-02
5.454628E+03	4.567649E-18	6.301983E-18	8.169207E-02
5.454828E+03	4.448069E-18	6.154492E-18	8.170439E-02
5.455028E+03	4.329270E-18	6.152724E-18	8.171672E-02
5.455228E+03	4.214194E-18	6.152010E-18	8.172904E-02
5.455428E+03	4.101566E-18	6.094499E-18	8.174195E-02
5.455828E+03	3.991902E-18	6.101440E-18	8.176776E-02
5.456028E+03	3.879511E-18	6.101032E-18	8.178067E-02
5.456228E+03	3.767330E-18	6.073179E-18	8.179358E-02
5.456428E+03	3.653503E-18	6.069454E-18	8.180706E-02
5.456629E+03	3.542505E-18	6.066689E-18	8.182061E-02
5.456829E+03	3.433268E-18	6.000274E-18	8.183410E-02
5.457029E+03	3.325549E-18	5.941307E-18	8.184758E-02
5.457229E+03	3.219289E-18	5.806347E-18	8.186158E-02
5.457429E+03	3.112582E-18	5.803012E-18	8.187558E-02
5.457629E+03	3.009524E-18	5.753786E-18	8.188957E-02
5.457829E+03	2.906266E-18	5.738801E-18	8.190357E-02
5.458029E+03	2.799632E-18	5.699021E-18	8.191808E-02
5.458229E+03	2.696565E-18	5.691961E-18	8.193258E-02
5.458429E+03	2.596412E-18	5.693248E-18	8.194709E-02
5.458629E+03	2.496632E-18	5.648828E-18	8.196159E-02
5.458829E+03	2.396424E-18	5.607271E-18	8.197667E-02
5.459029E+03	2.295277E-18	5.607958E-18	8.199174E-02
5.459428E+03	2.196464E-18	5.560043E-18	8.202188E-02
5.459628E+03	2.099818E-18	5.568992E-18	8.203696E-02
5.459828E+03	2.003892E-18	5.534927E-18	8.205272E-02
5.460428E+03	1.910057E-18	5.488541E-18	8.210001E-02
5.460628E+03	1.818618E-18	5.406026E-18	8.211577E-02
5.460828E+03	1.726651E-18	5.333077E-18	8.213153E-02
5.461028E+03	1.634086E-18	5.323479E-18	8.214792E-02
5.461228E+03	1.546168E-18	5.258581E-18	8.216430E-02
5.461428E+03	1.457146E-18	5.251767E-18	8.218068E-02
5.461628E+03	1.366280E-18	5.232946E-18	8.219707E-02
5.461828E+03	1.278509E-18	5.119752E-18	8.221394E-02
5.462029E+03	1.191032E-18	5.118932E-18	8.223091E-02
5.462229E+03	1.106644E-18	5.097710E-18	8.224779E-02
5.462429E+03	1.022303E-18	5.089347E-18	8.226467E-02
5.462629E+03	9.400722E-19	5.084098E-18	8.228203E-02
5.462829E+03	8.569837E-19	5.080548E-18	8.229940E-02
5.463029E+03	7.784450E-19	4.991289E-18	8.231677E-02
5.463229E+03	6.996838E-19	4.903570E-18	8.233414E-02
5.463429E+03	6.207694E-19	4.868845E-18	8.235200E-02
5.463629E+03	5.429903E-19	4.783076E-18	8.236986E-02
5.463829E+03	4.637110E-19	4.778883E-18	8.238771E-02
5.464029E+03	3.860289E-19	4.667880E-18	8.240557E-02
5.464229E+03	3.112164E-19	4.677564E-18	8.242397E-02
5.464629E+03	2.369428E-19	4.655982E-18	8.246078E-02
5.464829E+03	1.643068E-19	4.634409E-18	8.247918E-02
5.465029E+03	9.141557E-20	4.581051E-18	8.249758E-02
5.465229E+03	2.025368E-20	4.520509E-18	8.251652E-02
5.465429E+03	-5.042587E-20	4.525046E-18	8.253547E-02
5.465629E+03	-1.199598E-19	4.526349E-18	8.255441E-02
5.465829E+03	-1.870039E-19	4.460663E-18	8.257336E-02
5.466029E+03	-2.529074E-19	4.412789E-18	8.259278E-02
5.466229E+03	-3.176769E-19	4.315400E-18	8.261220E-02
5.466429E+03	-3.813036E-19	4.307728E-18	8.263162E-02
5.466629E+03	-4.437865E-19	4.296377E-18	8.265105E-02
5.466829E+03	-5.051368E-19	4.276663E-18	8.267107E-02
5.467029E+03	-5.651357E-19	4.184296E-18	8.269109E-02
5.467230E+03	-6.239899E-19	4.188088E-18	8.271121E-02
5.467830E+03	-6.820435E-19	4.125567E-18	8.277127E-02
5.468030E+03	-7.385947E-19	4.113894E-18	8.279189E-02
5.468230E+03	-7.940063E-19	4.116187E-18	8.281250E-02
5.468430E+03	-8.482940E-19	4.043587E-18	8.283312E-02
5.468630E+03	-9.014487E-19	4.017076E-18	8.285374E-02
5.468830E+03	-9.534748E-19	3.971031E-18	8.287482E-02
5.469030E+03	-1.005610E-18	3.886271E-18	8.289592E-02
5.469230E+03	-1.059762E-18	3.806307E-18	8.291701E-02
5.469430E+03	-1.110956E-18	3.740092E-18	8.293811E-02
5.469830E+03	-1.161656E-18	3.668084E-18	8.298136E-02
5.470030E+03	-1.209934E-18	3.650021E-18	8.300298E-02
5.470230E+03	-1.256993E-18	3.621902E-18	8.302461E-02
5.470430E+03	-1.302248E-18	3.532078E-18	8.304624E-02
5.470630E+03	-1.346539E-18	3.510295E-18	8.306840E-02
5.470830E+03	-1.388776E-18	3.492289E-18	8.309056E-02
5.471030E+03	-1.430287E-18	3.440636E-18	8.311273E-02
5.471230E+03	-1.471072E-18	3.419999E-18	8.313488E-02
5.471430E+03	-1.512719E-18	3.339707E-18	8.315757E-02
5.471630E+03	-1.553059E-18	3.287950E-18	8.318027E-02
