#wls	flux	fluxerr	mangling_mask
2.996961E+03	2.069499E-15	4.566266E-15	2.902930E+00
2.997561E+03	2.066106E-15	4.566275E-15	2.903384E+00
2.998360E+03	2.062529E-15	4.566446E-15	2.903989E+00
2.998561E+03	2.058426E-15	4.565959E-15	2.904141E+00
2.998961E+03	2.054516E-15	4.565696E-15	2.904443E+00
3.015962E+03	2.059705E-15	4.582915E-15	2.917347E+00
3.019763E+03	2.057011E-15	4.586145E-15	2.920231E+00
3.019963E+03	2.053234E-15	4.585728E-15	2.920383E+00
3.020363E+03	2.049272E-15	4.585476E-15	2.920688E+00
3.021163E+03	2.045638E-15	4.585667E-15	2.921297E+00
3.021763E+03	2.041751E-15	4.585626E-15	2.921754E+00
3.022762E+03	2.037724E-15	4.585952E-15	2.922516E+00
3.023363E+03	2.033864E-15	4.585920E-15	2.922974E+00
3.023963E+03	2.030206E-15	4.585922E-15	2.923431E+00
3.024563E+03	2.026050E-15	4.585846E-15	2.923888E+00
3.024763E+03	2.021623E-15	4.585339E-15	2.924041E+00
3.024963E+03	2.017109E-15	4.584820E-15	2.924193E+00
3.026763E+03	2.013550E-15	4.586017E-15	2.925566E+00
3.026963E+03	2.009354E-15	4.585553E-15	2.925718E+00
3.028563E+03	2.005656E-15	4.586540E-15	2.926939E+00
3.029363E+03	2.001449E-15	4.586666E-15	2.927550E+00
3.029764E+03	1.996827E-15	4.586339E-15	2.927856E+00
3.030764E+03	1.992603E-15	4.586665E-15	2.928619E+00
3.032764E+03	1.989189E-15	4.588103E-15	2.930147E+00
3.032964E+03	1.984751E-15	4.587614E-15	2.930300E+00
3.033364E+03	1.979946E-15	4.587268E-15	2.930605E+00
3.034363E+03	1.975831E-15	4.587622E-15	2.931370E+00
3.034963E+03	1.971655E-15	4.587575E-15	2.931828E+00
3.035164E+03	1.966685E-15	4.587013E-15	2.931981E+00
3.035964E+03	1.962140E-15	4.587113E-15	2.932594E+00
3.037364E+03	1.957341E-15	4.587771E-15	2.933664E+00
3.038164E+03	1.952761E-15	4.587871E-15	2.934276E+00
3.039564E+03	1.948660E-15	4.588643E-15	2.935348E+00
3.043765E+03	1.945977E-15	4.592420E-15	2.938565E+00
3.044565E+03	1.941415E-15	4.592535E-15	2.939178E+00
3.050765E+03	1.939441E-15	4.598442E-15	2.943945E+00
3.067567E+03	1.942332E-15	4.615706E-15	2.956861E+00
3.079768E+03	1.943039E-15	4.628116E-15	2.966290E+00
3.089168E+03	1.942088E-15	4.637481E-15	2.973555E+00
3.092169E+03	1.938043E-15	4.639952E-15	2.975881E+00
3.095568E+03	1.933683E-15	4.642791E-15	2.978517E+00
3.095769E+03	1.927618E-15	4.642142E-15	2.978672E+00
3.095968E+03	1.921939E-15	4.641550E-15	2.978827E+00
3.096168E+03	1.915962E-15	4.640920E-15	2.978982E+00
3.097569E+03	1.911029E-15	4.641663E-15	2.980069E+00
3.097769E+03	1.904870E-15	4.641014E-15	2.980224E+00
3.098169E+03	1.898690E-15	4.640570E-15	2.980535E+00
3.098369E+03	1.892559E-15	4.639930E-15	2.980690E+00
3.100369E+03	1.887282E-15	4.641257E-15	2.982243E+00
3.100569E+03	1.881088E-15	4.640616E-15	2.982398E+00
3.101569E+03	1.875611E-15	4.640898E-15	2.983175E+00
3.101969E+03	1.870049E-15	4.640555E-15	2.983485E+00
3.102369E+03	1.863947E-15	4.640143E-15	2.983796E+00
3.102769E+03	1.858203E-15	4.639782E-15	2.984107E+00
3.103970E+03	1.853202E-15	4.640349E-15	2.985040E+00
3.104770E+03	1.847139E-15	4.640365E-15	2.985662E+00
3.106170E+03	1.841421E-15	4.641052E-15	2.986750E+00
3.106370E+03	1.835393E-15	4.640460E-15	2.986905E+00
3.106970E+03	1.829466E-15	4.640299E-15	2.987372E+00
3.107169E+03	1.823079E-15	4.639665E-15	2.987527E+00
3.107369E+03	1.816810E-15	4.639051E-15	2.987683E+00
3.107570E+03	1.810690E-15	4.638459E-15	2.987838E+00
3.108169E+03	1.804727E-15	4.638306E-15	2.988305E+00
3.108769E+03	1.798643E-15	4.638142E-15	2.988771E+00
3.108969E+03	1.792310E-15	4.637532E-15	2.988927E+00
3.110170E+03	1.786651E-15	4.638057E-15	2.989861E+00
3.110370E+03	1.780286E-15	4.637449E-15	2.990017E+00
3.110570E+03	1.773980E-15	4.636853E-15	2.990172E+00
3.110970E+03	1.767854E-15	4.636492E-15	2.990484E+00
3.111170E+03	1.761546E-15	4.635901E-15	2.990639E+00
3.111370E+03	1.755058E-15	4.635291E-15	2.990795E+00
3.111570E+03	1.748540E-15	4.634680E-15	2.990950E+00
3.112570E+03	1.742473E-15	4.634970E-15	2.991729E+00
3.112970E+03	1.736251E-15	4.634614E-15	2.992040E+00
3.113370E+03	1.729789E-15	4.634231E-15	2.992351E+00
3.113970E+03	1.723444E-15	4.634078E-15	2.992818E+00
3.114170E+03	1.716950E-15	4.633488E-15	2.992974E+00
3.114570E+03	1.710573E-15	4.633126E-15	2.993286E+00
3.114770E+03	1.704555E-15	4.632601E-15	2.993441E+00
3.114970E+03	1.698387E-15	4.632061E-15	2.993597E+00
3.115170E+03	1.691860E-15	4.631479E-15	2.993753E+00
3.115571E+03	1.685689E-15	4.631157E-15	2.994065E+00
3.115971E+03	1.679276E-15	4.630808E-15	2.994377E+00
3.116371E+03	1.672743E-15	4.630448E-15	2.994688E+00
3.116571E+03	1.666691E-15	4.629937E-15	2.994844E+00
3.116771E+03	1.660278E-15	4.629386E-15	2.995000E+00
3.116971E+03	1.653685E-15	4.628817E-15	2.995156E+00
3.117171E+03	1.647092E-15	4.628251E-15	2.995311E+00
3.117371E+03	1.640617E-15	4.627702E-15	2.995467E+00
3.117971E+03	1.634522E-15	4.627628E-15	2.995935E+00
3.118171E+03	1.627986E-15	4.627079E-15	2.996090E+00
3.118771E+03	1.621617E-15	4.626980E-15	2.996558E+00
3.118970E+03	1.615169E-15	4.626448E-15	2.996714E+00
3.119171E+03	1.608780E-15	4.625925E-15	2.996870E+00
3.119370E+03	1.602120E-15	4.625375E-15	2.997026E+00
3.119570E+03	1.595909E-15	4.624880E-15	2.997181E+00
3.120170E+03	1.589803E-15	4.624829E-15	2.997649E+00
3.120370E+03	1.583141E-15	4.624288E-15	2.997805E+00
3.120570E+03	1.576478E-15	4.623751E-15	2.997961E+00
3.120770E+03	1.570084E-15	4.623248E-15	2.998117E+00
3.120970E+03	1.563359E-15	4.622711E-15	2.998273E+00
3.121170E+03	1.556784E-15	4.622194E-15	2.998429E+00
3.121370E+03	1.550058E-15	4.621663E-15	2.998584E+00
3.121570E+03	1.543542E-15	4.621159E-15	2.998740E+00
3.121771E+03	1.536875E-15	4.620643E-15	2.998897E+00
3.122371E+03	1.530336E-15	4.620576E-15	2.999365E+00
3.122571E+03	1.523637E-15	4.620063E-15	2.999521E+00
3.122971E+03	1.517105E-15	4.619788E-15	2.999833E+00
3.123171E+03	1.510374E-15	4.619278E-15	2.999989E+00
3.123371E+03	1.503673E-15	4.618774E-15	3.000145E+00
3.123571E+03	1.497270E-15	4.618306E-15	3.000301E+00
3.123771E+03	1.490567E-15	4.617809E-15	3.000457E+00
3.123971E+03	1.484013E-15	4.617332E-15	3.000613E+00
3.124371E+03	1.477565E-15	4.617086E-15	3.000925E+00
3.124571E+03	1.470980E-15	4.616612E-15	3.001081E+00
3.124771E+03	1.464574E-15	4.615865E-15	3.001237E+00
3.124971E+03	1.457866E-15	4.615384E-15	3.001393E+00
3.125171E+03	1.451369E-15	4.614929E-15	3.001549E+00
3.125371E+03	1.444751E-15	4.612693E-15	3.001705E+00
3.125571E+03	1.438071E-15	4.378220E-15	3.001861E+00
3.125771E+03	1.431302E-15	4.114675E-15	3.002017E+00
3.126171E+03	1.424665E-15	4.085760E-15	3.002329E+00
3.126371E+03	1.417954E-15	4.083711E-15	3.002485E+00
3.126571E+03	1.411211E-15	4.064887E-15	3.002641E+00
3.126771E+03	1.404498E-15	4.064017E-15	3.002797E+00
3.126971E+03	1.397755E-15	4.062853E-15	3.002953E+00
3.127171E+03	1.391010E-15	3.558109E-15	3.003109E+00
3.127371E+03	1.384265E-15	3.550086E-15	3.003265E+00
3.127571E+03	1.377489E-15	3.014798E-15	3.003421E+00
3.127772E+03	1.370713E-15	2.971828E-15	3.003578E+00
3.127972E+03	1.363966E-15	2.967457E-15	3.003734E+00
3.128172E+03	1.357188E-15	2.538533E-15	3.003891E+00
3.128372E+03	1.350409E-15	2.264087E-15	3.004047E+00
3.128572E+03	1.343630E-15	2.262618E-15	3.004203E+00
3.128772E+03	1.336820E-15	2.260245E-15	3.004359E+00
3.128972E+03	1.330219E-15	2.259331E-15	3.004515E+00
3.129172E+03	1.323528E-15	2.202735E-15	3.004671E+00
3.129372E+03	1.316896E-15	2.056797E-15	3.004827E+00
3.129572E+03	1.310233E-15	2.045793E-15	3.004983E+00
3.129772E+03	1.303599E-15	2.045115E-15	3.005140E+00
3.129972E+03	1.297116E-15	1.900929E-15	3.005296E+00
3.130172E+03	1.290331E-15	1.079654E-15	3.005452E+00
3.130372E+03	1.283545E-15	1.078548E-15	3.005608E+00
3.130572E+03	1.276819E-15	1.023155E-15	3.005764E+00
3.130772E+03	1.270212E-15	1.021136E-15	3.005920E+00
3.130972E+03	1.263484E-15	9.348418E-16	3.006077E+00
3.131171E+03	1.256756E-15	9.309401E-16	3.006233E+00
3.131372E+03	1.249966E-15	9.293537E-16	3.006389E+00
3.131572E+03	1.243236E-15	9.272538E-16	3.006545E+00
3.131771E+03	1.236686E-15	9.250725E-16	3.006701E+00
3.131972E+03	1.230166E-15	9.225467E-16	3.006858E+00
3.132171E+03	1.223464E-15	9.187809E-16	3.007014E+00
3.132371E+03	1.216671E-15	9.155066E-16	3.007170E+00
3.132571E+03	1.210028E-15	9.124012E-16	3.007326E+00
3.132771E+03	1.203234E-15	9.109901E-16	3.007482E+00
3.132971E+03	1.196649E-15	9.081657E-16	3.007639E+00
3.133171E+03	1.189884E-15	9.060065E-16	3.007795E+00
3.133371E+03	1.183539E-15	9.010927E-16	3.007951E+00
3.133571E+03	1.176922E-15	8.979942E-16	3.008107E+00
3.133771E+03	1.170275E-15	8.942693E-16	3.008264E+00
3.133972E+03	1.163687E-15	8.903529E-16	3.008421E+00
3.134172E+03	1.157159E-15	8.886129E-16	3.008577E+00
3.134372E+03	1.150359E-15	8.865724E-16	3.008733E+00
3.134572E+03	1.143709E-15	8.850570E-16	3.008889E+00
3.134772E+03	1.136998E-15	8.817823E-16	3.009046E+00
3.134972E+03	1.130437E-15	8.818911E-16	3.009202E+00
3.135172E+03	1.123724E-15	8.776092E-16	3.009358E+00
3.135372E+03	1.117011E-15	8.733082E-16	3.009515E+00
3.135572E+03	1.110599E-15	8.714849E-16	3.009671E+00
3.135772E+03	1.104065E-15	8.699372E-16	3.009827E+00
3.135972E+03	1.097470E-15	8.667369E-16	3.009983E+00
3.136172E+03	1.090814E-15	8.634758E-16	3.010140E+00
3.136372E+03	1.084188E-15	8.617402E-16	3.010296E+00
3.136572E+03	1.077471E-15	8.577557E-16	3.010452E+00
3.136772E+03	1.070934E-15	8.568396E-16	3.010609E+00
3.136972E+03	1.064426E-15	8.528668E-16	3.010765E+00
3.137172E+03	1.058038E-15	8.478023E-16	3.010921E+00
3.137372E+03	1.051378E-15	8.419510E-16	3.011078E+00
3.137572E+03	1.044748E-15	8.399663E-16	3.011234E+00
3.137772E+03	1.038358E-15	8.376670E-16	3.011391E+00
3.137972E+03	1.031876E-15	8.351495E-16	3.011547E+00
3.138172E+03	1.025304E-15	8.303992E-16	3.011703E+00
3.138372E+03	1.018882E-15	8.256884E-16	3.011860E+00
3.138572E+03	1.012278E-15	8.227071E-16	3.012016E+00
3.138772E+03	1.005915E-15	8.194417E-16	3.012172E+00
3.138972E+03	9.994606E-16	8.161883E-16	3.012329E+00
3.139172E+03	9.928850E-16	8.128059E-16	3.012485E+00
3.139372E+03	9.865497E-16	8.101745E-16	3.012642E+00
3.139572E+03	9.799728E-16	8.064993E-16	3.012798E+00
3.139772E+03	9.734855E-16	8.057876E-16	3.012954E+00
3.139973E+03	9.670582E-16	8.028207E-16	3.013112E+00
3.140173E+03	9.606600E-16	8.006638E-16	3.013268E+00
3.140373E+03	9.541104E-16	7.958587E-16	3.013424E+00
3.140573E+03	9.476506E-16	7.917946E-16	3.013581E+00
3.140773E+03	9.412504E-16	7.856163E-16	3.013737E+00
3.140973E+03	9.348194E-16	7.802637E-16	3.013894E+00
3.141173E+03	9.284480E-16	7.781361E-16	3.014050E+00
3.141373E+03	9.220759E-16	7.736925E-16	3.014207E+00
3.141573E+03	9.157032E-16	7.681422E-16	3.014363E+00
3.141773E+03	9.093599E-16	7.638662E-16	3.014519E+00
3.141973E+03	9.030462E-16	7.584053E-16	3.014676E+00
3.142173E+03	8.967317E-16	7.519030E-16	3.014832E+00
3.142373E+03	8.904468E-16	7.492478E-16	3.014989E+00
3.142573E+03	8.841914E-16	7.446541E-16	3.015145E+00
3.142773E+03	8.779353E-16	7.396383E-16	3.015302E+00
3.142972E+03	8.718594E-16	7.379237E-16	3.015458E+00
3.143173E+03	8.655719E-16	7.347091E-16	3.015615E+00
3.143372E+03	8.592837E-16	7.316794E-16	3.015771E+00
3.143573E+03	8.532060E-16	7.266683E-16	3.015928E+00
3.143773E+03	8.470069E-16	7.237251E-16	3.016084E+00
3.143972E+03	8.408073E-16	7.213528E-16	3.016241E+00
3.144173E+03	8.346371E-16	7.160607E-16	3.016397E+00
3.144372E+03	8.283758E-16	7.110959E-16	3.016554E+00
3.144572E+03	8.221742E-16	7.072175E-16	3.016710E+00
3.144772E+03	8.161530E-16	7.045441E-16	3.016867E+00
3.144972E+03	8.099803E-16	7.003883E-16	3.017023E+00
3.145172E+03	8.038371E-16	6.948803E-16	3.017180E+00
3.145372E+03	7.977536E-16	6.884631E-16	3.017337E+00
3.145572E+03	7.918203E-16	6.852845E-16	3.017493E+00
3.145772E+03	7.858865E-16	6.812212E-16	3.017650E+00
3.145972E+03	7.800425E-16	6.774441E-16	3.017806E+00
3.146173E+03	7.743792E-16	6.712935E-16	3.017963E+00
3.146373E+03	7.684134E-16	6.674260E-16	3.018120E+00
3.146573E+03	7.623563E-16	6.635728E-16	3.018277E+00
3.146773E+03	7.565703E-16	6.608770E-16	3.018433E+00
3.147173E+03	7.506716E-16	6.573362E-16	3.018746E+00
3.147373E+03	7.448539E-16	6.541800E-16	3.018903E+00
3.147573E+03	7.389148E-16	6.517926E-16	3.019060E+00
3.147773E+03	7.331563E-16	6.482989E-16	3.019216E+00
3.147973E+03	7.274273E-16	6.419939E-16	3.019373E+00
3.148173E+03	7.217581E-16	6.408302E-16	3.019529E+00
3.148373E+03	7.160581E-16	6.384139E-16	3.019686E+00
3.148573E+03	7.103878E-16	6.354795E-16	3.019843E+00
3.148773E+03	7.048074E-16	6.345036E-16	3.019999E+00
3.148973E+03	6.993775E-16	6.322109E-16	3.020156E+00
3.149173E+03	6.939168E-16	6.267367E-16	3.020312E+00
3.149373E+03	6.881837E-16	6.232827E-16	3.020469E+00
3.149573E+03	6.825708E-16	6.196154E-16	3.020626E+00
3.149773E+03	6.769875E-16	6.167173E-16	3.020782E+00
3.149973E+03	6.715547E-16	6.145649E-16	3.020939E+00
3.150173E+03	6.661214E-16	6.103779E-16	3.021096E+00
3.150373E+03	6.605666E-16	6.088374E-16	3.021252E+00
3.150573E+03	6.550415E-16	6.058157E-16	3.021409E+00
3.150773E+03	6.497877E-16	6.017930E-16	3.021566E+00
3.150973E+03	6.443218E-16	5.969086E-16	3.021722E+00
3.151173E+03	6.389763E-16	5.914446E-16	3.021879E+00
3.151373E+03	6.338115E-16	5.888894E-16	3.022036E+00
3.151573E+03	6.285556E-16	5.861644E-16	3.022192E+00
3.151773E+03	6.232084E-16	5.831006E-16	3.022349E+00
3.151973E+03	6.178908E-16	5.778121E-16	3.022506E+00
3.152174E+03	6.126938E-16	5.732625E-16	3.022663E+00
3.152374E+03	6.074961E-16	5.677026E-16	3.022820E+00
3.152574E+03	6.022676E-16	5.621564E-16	3.022977E+00
3.152774E+03	5.973711E-16	5.583829E-16	3.023133E+00
3.152974E+03	5.923834E-16	5.554944E-16	3.023290E+00
3.153174E+03	5.873650E-16	5.487914E-16	3.023447E+00
3.153374E+03	5.824367E-16	5.426276E-16	3.023603E+00
3.153574E+03	5.775684E-16	5.385268E-16	3.023760E+00
3.153774E+03	5.726996E-16	5.345944E-16	3.023917E+00
3.153974E+03	5.679513E-16	5.296458E-16	3.024074E+00
3.154174E+03	5.632024E-16	5.262119E-16	3.024230E+00
3.154374E+03	5.583926E-16	5.235781E-16	3.024387E+00
3.154574E+03	5.536125E-16	5.202580E-16	3.024544E+00
3.154774E+03	5.490134E-16	5.161312E-16	3.024701E+00
3.154974E+03	5.445046E-16	5.113106E-16	3.024857E+00
3.155173E+03	5.396928E-16	5.057114E-16	3.025014E+00
3.155374E+03	5.350922E-16	4.994874E-16	3.025171E+00
3.155573E+03	5.304912E-16	4.951423E-16	3.025328E+00
3.155773E+03	5.258292E-16	4.890932E-16	3.025485E+00
3.155974E+03	5.212272E-16	4.861422E-16	3.025641E+00
3.156173E+03	5.168366E-16	4.791551E-16	3.025798E+00
3.156373E+03	5.124455E-16	4.742113E-16	3.025955E+00
3.156573E+03	5.080539E-16	4.718330E-16	3.026112E+00
3.156773E+03	5.038132E-16	4.676120E-16	3.026268E+00
3.156973E+03	4.995115E-16	4.653643E-16	3.026425E+00
3.157173E+03	4.951488E-16	4.626903E-16	3.026582E+00
3.157373E+03	4.909673E-16	4.602981E-16	3.026739E+00
3.157573E+03	4.868459E-16	4.571797E-16	3.026896E+00
3.157773E+03	4.826333E-16	4.538376E-16	3.027053E+00
3.157973E+03	4.785715E-16	4.492648E-16	3.027209E+00
3.158173E+03	4.746305E-16	4.467168E-16	3.027366E+00
3.158374E+03	4.707800E-16	4.399929E-16	3.027524E+00
3.158574E+03	4.668381E-16	4.376110E-16	3.027681E+00
3.158774E+03	4.631077E-16	4.334901E-16	3.027837E+00
3.158974E+03	4.595587E-16	4.296727E-16	3.027994E+00
3.159174E+03	4.557368E-16	4.283726E-16	3.028151E+00
3.159374E+03	4.519144E-16	4.236874E-16	3.028308E+00
3.159574E+03	4.480917E-16	4.204777E-16	3.028465E+00
3.159774E+03	4.444200E-16	4.174889E-16	3.028622E+00
3.159974E+03	4.409296E-16	4.149497E-16	3.028779E+00
3.160174E+03	4.376206E-16	4.089151E-16	3.028935E+00
3.160374E+03	4.340386E-16	4.055935E-16	3.029092E+00
3.160574E+03	4.307290E-16	4.028960E-16	3.029249E+00
3.160774E+03	4.273583E-16	4.018969E-16	3.029406E+00
3.160974E+03	4.239268E-16	3.988691E-16	3.029563E+00
3.161174E+03	4.206463E-16	3.963777E-16	3.029720E+00
3.161374E+03	4.173655E-16	3.924307E-16	3.029877E+00
3.161574E+03	4.139935E-16	3.886959E-16	3.030034E+00
3.161774E+03	4.107120E-16	3.847502E-16	3.030191E+00
3.161974E+03	4.074908E-16	3.830287E-16	3.030348E+00
3.162174E+03	4.043299E-16	3.808446E-16	3.030504E+00
3.162374E+03	4.012596E-16	3.763410E-16	3.030661E+00
3.162574E+03	3.983404E-16	3.723565E-16	3.030818E+00
3.162774E+03	3.954210E-16	3.710802E-16	3.030975E+00
3.162974E+03	3.925922E-16	3.700518E-16	3.031132E+00
3.163174E+03	3.898844E-16	3.668945E-16	3.031289E+00
3.163374E+03	3.870550E-16	3.641552E-16	3.031446E+00
3.163574E+03	3.842557E-16	3.633539E-16	3.031603E+00
3.163774E+03	3.815167E-16	3.595479E-16	3.031760E+00
3.163974E+03	3.789593E-16	3.559097E-16	3.031917E+00
3.164174E+03	3.765532E-16	3.524654E-16	3.032074E+00
3.164375E+03	3.740561E-16	3.502649E-16	3.032232E+00
3.164575E+03	3.715889E-16	3.470724E-16	3.032389E+00
3.164775E+03	3.695157E-16	3.454053E-16	3.032545E+00
3.164975E+03	3.670783E-16	3.423009E-16	3.032702E+00
3.165175E+03	3.647317E-16	3.396317E-16	3.032859E+00
3.165375E+03	3.624151E-16	3.368331E-16	3.033016E+00
3.165575E+03	3.602197E-16	3.341825E-16	3.033173E+00
3.165775E+03	3.581453E-16	3.347787E-16	3.033330E+00
3.165975E+03	3.561314E-16	3.324588E-16	3.033487E+00
3.166175E+03	3.544207E-16	3.306872E-16	3.033644E+00
3.166375E+03	3.525277E-16	3.282831E-16	3.033801E+00
3.166575E+03	3.505436E-16	3.259040E-16	3.033958E+00
3.166775E+03	3.486805E-16	3.233181E-16	3.034115E+00
3.166975E+03	3.468477E-16	3.207823E-16	3.034272E+00
3.167175E+03	3.452574E-16	3.182058E-16	3.034429E+00
3.167374E+03	3.436973E-16	3.159801E-16	3.034586E+00
3.167575E+03	3.420459E-16	3.144796E-16	3.034743E+00
3.167774E+03	3.406372E-16	3.120962E-16	3.034900E+00
3.167974E+03	3.391677E-16	3.095814E-16	3.035058E+00
3.168175E+03	3.379711E-16	3.074526E-16	3.035215E+00
3.168374E+03	3.369262E-16	3.062246E-16	3.035372E+00
3.168574E+03	3.355777E-16	3.049507E-16	3.035529E+00
3.168774E+03	3.344415E-16	3.052361E-16	3.035686E+00
3.168974E+03	3.333052E-16	3.027199E-16	3.035843E+00
3.169174E+03	3.322598E-16	3.038982E-16	3.036000E+00
3.169374E+03	3.313662E-16	3.065713E-16	3.036157E+00
3.169574E+03	3.304117E-16	3.105171E-16	3.036314E+00
3.169774E+03	3.297911E-16	3.107327E-16	3.036471E+00
3.169974E+03	3.290794E-16	3.092199E-16	3.036628E+00
3.170174E+03	3.283372E-16	3.123970E-16	3.036785E+00
3.170374E+03	3.278379E-16	3.140004E-16	3.036942E+00
3.170575E+03	3.272779E-16	3.117990E-16	3.037100E+00
3.170775E+03	3.268392E-16	3.121970E-16	3.037257E+00
3.170975E+03	3.265220E-16	3.147781E-16	3.037414E+00
3.171175E+03	3.262352E-16	3.165081E-16	3.037571E+00
3.171375E+03	3.259483E-16	3.178971E-16	3.037728E+00
3.171575E+03	3.260259E-16	3.221350E-16	3.037885E+00
3.171775E+03	3.259820E-16	3.210931E-16	3.038043E+00
3.171975E+03	3.258773E-16	3.221106E-16	3.038200E+00
3.172175E+03	3.259245E-16	3.226852E-16	3.038357E+00
3.172375E+03	3.259414E-16	3.237970E-16	3.038514E+00
3.172575E+03	3.261406E-16	3.251944E-16	3.038671E+00
3.172775E+03	3.263701E-16	3.260603E-16	3.038828E+00
3.172975E+03	3.268125E-16	3.262845E-16	3.038985E+00
3.173175E+03	3.271941E-16	3.262936E-16	3.039142E+00
3.173375E+03	3.277581E-16	3.274687E-16	3.039300E+00
3.173575E+03	3.282309E-16	3.282962E-16	3.039457E+00
3.173775E+03	3.288558E-16	3.284922E-16	3.039614E+00
3.173975E+03	3.295112E-16	3.287106E-16	3.039771E+00
3.174175E+03	3.302578E-16	3.292117E-16	3.039928E+00
3.174375E+03	3.311261E-16	3.297840E-16	3.040085E+00
3.174575E+03	3.320249E-16	3.307579E-16	3.040242E+00
3.174775E+03	3.331670E-16	3.313966E-16	3.040400E+00
3.174975E+03	3.345525E-16	3.318640E-16	3.040557E+00
3.175175E+03	3.357252E-16	3.322525E-16	3.040714E+00
3.175375E+03	3.370806E-16	3.329601E-16	3.040871E+00
3.175575E+03	3.384056E-16	3.329882E-16	3.041028E+00
3.175775E+03	3.397916E-16	3.334499E-16	3.041185E+00
3.175975E+03	3.413299E-16	3.332884E-16	3.041343E+00
3.176175E+03	3.428987E-16	3.335905E-16	3.041500E+00
3.176375E+03	3.447414E-16	3.338368E-16	3.041657E+00
3.176576E+03	3.465844E-16	3.341336E-16	3.041815E+00
3.176776E+03	3.484579E-16	3.346682E-16	3.041972E+00
3.176976E+03	3.504837E-16	3.353314E-16	3.042129E+00
3.177176E+03	3.524489E-16	3.359745E-16	3.042286E+00
3.177376E+03	3.545360E-16	3.365346E-16	3.042444E+00
3.177576E+03	3.568667E-16	3.373328E-16	3.042601E+00
3.177776E+03	3.592280E-16	3.382126E-16	3.042758E+00
3.177976E+03	3.616809E-16	3.394187E-16	3.042915E+00
3.178176E+03	3.641645E-16	3.402467E-16	3.043073E+00
3.178376E+03	3.667092E-16	3.420182E-16	3.043230E+00
3.178576E+03	3.693454E-16	3.440205E-16	3.043387E+00
3.178776E+03	3.720428E-16	3.451835E-16	3.043544E+00
