#wls	flux	fluxerr	mangling_mask
2.994228E+03	8.005643E-16	1.289587E-15	7.153644E-01
2.998829E+03	8.004213E-16	1.289587E-15	7.153644E-01
2.999028E+03	8.002067E-16	1.289587E-15	7.153644E-01
2.999428E+03	7.999205E-16	1.289587E-15	7.153644E-01
3.002429E+03	7.996344E-16	1.289587E-15	7.153644E-01
3.006830E+03	7.992767E-16	1.289587E-15	7.153644E-01
3.007030E+03	7.988475E-16	1.289587E-15	7.153644E-01
3.007230E+03	7.983467E-16	1.289587E-15	7.153644E-01
3.009430E+03	7.978459E-16	1.289587E-15	7.153644E-01
3.009830E+03	7.972021E-16	1.289587E-15	7.153644E-01
3.010229E+03	7.965583E-16	1.289587E-15	7.153644E-01
3.011229E+03	7.957714E-16	1.289587E-15	7.153644E-01
3.012029E+03	7.949845E-16	1.289587E-15	7.153644E-01
3.012230E+03	7.941261E-16	1.289587E-15	7.153644E-01
3.012630E+03	7.931245E-16	1.289587E-15	7.153644E-01
3.012830E+03	7.921946E-16	1.289587E-15	7.153644E-01
3.015030E+03	7.911215E-16	1.289587E-15	7.153644E-01
3.015630E+03	7.900485E-16	1.289587E-15	7.153644E-01
3.016030E+03	7.888324E-16	1.289587E-15	7.153644E-01
3.016230E+03	7.876162E-16	1.289587E-15	7.153644E-01
3.017230E+03	7.863286E-16	1.289587E-15	7.153644E-01
3.017831E+03	7.849694E-16	1.289587E-15	7.153644E-01
3.018431E+03	7.835387E-16	1.289587E-15	7.153644E-01
3.019031E+03	7.821079E-16	1.289587E-15	7.153644E-01
3.019231E+03	7.806057E-16	1.289587E-15	7.153644E-01
3.020031E+03	7.790319E-16	1.289587E-15	7.153644E-01
3.020231E+03	7.774581E-16	1.289587E-15	7.153644E-01
3.020631E+03	7.757412E-16	1.289587E-15	7.153644E-01
3.022231E+03	7.739528E-16	1.289587E-15	7.153644E-01
3.024231E+03	7.721644E-16	1.289587E-15	7.153644E-01
3.024431E+03	7.703044E-16	1.289587E-15	7.153644E-01
3.024631E+03	7.683729E-16	1.289587E-15	7.153644E-01
3.025231E+03	7.664414E-16	1.289587E-15	7.153644E-01
3.025431E+03	7.643669E-16	1.289587E-15	7.153644E-01
3.025631E+03	7.622208E-16	1.289587E-15	7.153644E-01
3.025831E+03	7.601462E-16	1.289587E-15	7.153644E-01
3.026231E+03	7.579286E-16	1.289587E-15	7.153644E-01
3.026431E+03	7.556394E-16	1.289587E-15	7.153644E-01
3.027031E+03	7.533503E-16	1.289587E-15	7.153644E-01
3.027831E+03	7.509896E-16	1.289587E-15	7.153644E-01
3.028031E+03	7.485573E-16	1.289587E-15	7.153644E-01
3.028632E+03	7.460536E-16	1.289587E-15	7.153644E-01
3.028832E+03	7.434783E-16	1.289587E-15	7.153644E-01
3.029032E+03	7.408314E-16	1.289587E-15	7.153644E-01
3.029432E+03	7.382561E-16	1.289587E-15	7.153644E-01
3.029632E+03	7.355377E-16	1.289587E-15	7.153644E-01
3.031032E+03	7.327478E-16	1.289587E-15	7.153644E-01
3.031632E+03	7.299579E-16	1.289587E-15	7.153644E-01
3.031832E+03	7.270964E-16	1.289587E-15	7.153644E-01
3.033832E+03	7.241634E-16	1.289587E-15	7.153644E-01
3.034233E+03	7.211589E-16	1.289587E-15	7.153644E-01
3.034832E+03	7.181544E-16	1.289587E-15	7.153644E-01
3.035032E+03	7.151355E-16	1.289587E-15	7.153644E-01
3.035432E+03	7.119951E-16	1.289587E-15	7.153644E-01
3.035632E+03	7.087974E-16	1.289587E-15	7.153644E-01
3.035832E+03	7.055496E-16	1.289587E-15	7.153644E-01
3.036032E+03	7.023090E-16	1.289587E-15	7.153644E-01
3.036232E+03	6.989969E-16	1.289587E-15	7.153644E-01
3.036832E+03	6.956633E-16	1.289587E-15	7.153644E-01
3.037632E+03	6.922439E-16	1.289587E-15	7.153644E-01
3.038032E+03	6.887886E-16	1.289587E-15	7.153644E-01
3.039032E+03	6.852404E-16	1.289587E-15	7.153644E-01
3.039833E+03	6.816493E-16	1.289587E-15	7.153644E-01
3.040433E+03	6.780367E-16	1.289587E-15	7.153644E-01
3.041033E+03	6.743955E-16	1.289587E-15	7.153644E-01
3.041233E+03	6.707042E-16	1.289587E-15	7.153644E-01
3.041433E+03	6.669343E-16	1.289587E-15	7.153644E-01
3.041833E+03	6.631428E-16	1.289587E-15	7.153644E-01
3.042433E+03	6.592799E-16	1.289587E-15	7.153644E-01
3.043633E+03	6.553740E-16	1.289587E-15	7.153644E-01
3.043833E+03	6.514323E-16	1.289587E-15	7.153644E-01
3.044633E+03	6.474406E-16	1.289587E-15	7.153644E-01
3.044834E+03	6.434059E-16	1.289587E-15	7.153644E-01
3.045034E+03	6.393212E-16	1.289587E-15	7.153644E-01
3.045634E+03	6.351864E-16	1.289587E-15	7.153644E-01
3.046034E+03	6.310087E-16	1.289158E-15	7.153644E-01
3.047233E+03	6.267809E-16	1.287227E-15	7.153644E-01
3.048233E+03	6.225101E-16	1.285868E-15	7.153644E-01
3.049033E+03	6.181893E-16	1.284437E-15	7.153644E-01
3.049433E+03	6.138328E-16	1.284723E-15	7.153644E-01
3.049633E+03	6.094333E-16	1.284222E-15	7.153644E-01
3.050033E+03	6.049909E-16	1.278929E-15	7.153644E-01
3.050434E+03	6.005055E-16	1.278428E-15	7.153644E-01
3.050634E+03	5.959916E-16	1.165972E-15	7.153644E-01
3.051234E+03	5.914347E-16	9.705349E-16	7.153644E-01
3.051634E+03	5.868421E-16	9.706780E-16	7.153644E-01
3.052034E+03	5.822136E-16	9.601621E-16	7.153644E-01
3.052634E+03	5.775495E-16	9.588029E-16	7.153644E-01
3.052834E+03	5.728495E-16	9.581591E-16	7.153644E-01
3.053234E+03	5.680995E-16	9.225340E-16	7.153644E-01
3.053434E+03	5.633638E-16	9.214609E-16	7.153644E-01
3.054834E+03	5.585709E-16	9.206025E-16	7.153644E-01
3.055635E+03	5.537565E-16	9.197440E-16	7.153644E-01
3.056435E+03	5.488634E-16	9.188856E-16	7.153644E-01
3.057835E+03	5.439560E-16	9.180987E-16	7.153644E-01
3.059834E+03	5.390056E-16	9.173833E-16	7.153644E-01
3.060034E+03	5.340267E-16	9.166680E-16	7.153644E-01
3.064035E+03	5.290835E-16	9.160242E-16	7.153644E-01
3.065635E+03	5.240760E-16	9.154519E-16	7.153644E-01
3.066035E+03	5.190327E-16	9.148080E-16	7.153644E-01
3.066235E+03	5.139536E-16	9.143073E-16	7.153644E-01
3.066436E+03	5.088888E-16	9.137350E-16	7.153644E-01
3.067236E+03	5.037239E-16	7.881170E-16	7.153644E-01
3.067836E+03	4.985446E-16	7.046769E-16	7.153644E-01
3.068436E+03	4.933511E-16	6.712837E-16	7.153644E-01
3.068636E+03	4.881075E-16	6.402082E-16	7.153644E-01
3.069436E+03	4.828424E-16	6.115865E-16	7.153644E-01
3.071035E+03	4.775773E-16	5.933161E-16	7.153644E-01
3.071235E+03	4.722550E-16	5.776711E-16	7.153644E-01
3.071436E+03	4.669327E-16	5.646371E-16	7.153644E-01
3.073236E+03	4.615889E-16	5.540140E-16	7.153644E-01
3.073636E+03	4.562809E-16	5.480264E-16	7.153644E-01
3.074836E+03	4.509228E-16	5.437986E-16	7.153644E-01
3.075836E+03	4.455290E-16	5.432191E-16	7.153644E-01
3.077036E+03	4.401494E-16	5.428686E-16	7.153644E-01
3.080037E+03	4.347484E-16	5.240974E-16	7.153644E-01
3.080837E+03	4.292473E-16	5.185104E-16	7.153644E-01
3.081437E+03	4.237318E-16	4.703950E-16	7.153644E-01
3.082237E+03	4.182307E-16	4.697369E-16	7.153644E-01
3.082838E+03	4.126937E-16	4.033082E-16	7.153644E-01
3.085037E+03	4.071425E-16	3.568667E-16	7.153644E-01
3.085237E+03	4.016199E-16	2.087076E-16	7.153644E-01
3.086237E+03	3.960544E-16	2.095159E-16	7.153644E-01
3.086437E+03	3.904745E-16	2.070622E-16	7.153644E-01
3.087237E+03	3.848661E-16	1.962459E-16	7.153644E-01
3.087837E+03	3.792862E-16	1.971473E-16	7.153644E-01
3.088038E+03	3.736778E-16	1.981488E-16	7.153644E-01
3.090838E+03	3.680335E-16	1.982919E-16	7.153644E-01
3.091638E+03	3.623893E-16	1.970471E-16	7.153644E-01
3.092038E+03	3.567236E-16	1.976695E-16	7.153644E-01
3.093639E+03	3.510651E-16	1.980272E-16	7.153644E-01
3.095039E+03	3.453708E-16	1.989786E-16	7.153644E-01
3.095238E+03	3.396836E-16	1.993506E-16	7.153644E-01
3.095838E+03	3.340251E-16	1.981774E-16	7.153644E-01
3.097838E+03	3.283237E-16	1.973476E-16	7.153644E-01
3.098438E+03	3.226079E-16	1.966680E-16	7.153644E-01
3.100039E+03	3.169637E-16	1.849646E-16	7.153644E-01
3.101039E+03	3.112479E-16	1.846856E-16	7.153644E-01
3.102639E+03	3.055250E-16	1.832907E-16	7.153644E-01
3.104640E+03	2.998092E-16	1.847715E-16	7.153644E-01
3.105640E+03	2.940935E-16	1.865098E-16	7.153644E-01
3.107439E+03	2.883992E-16	1.878046E-16	7.153644E-01
3.107640E+03	2.827192E-16	1.857587E-16	7.153644E-01
3.109039E+03	2.770177E-16	1.848931E-16	7.153644E-01
3.111240E+03	2.712948E-16	1.840275E-16	7.153644E-01
3.111440E+03	2.655862E-16	1.841420E-16	7.153644E-01
3.112840E+03	2.599062E-16	1.823750E-16	7.153644E-01
3.113440E+03	2.542477E-16	1.836555E-16	7.153644E-01
3.114840E+03	2.485605E-16	1.828972E-16	7.153644E-01
3.116241E+03	2.429235E-16	1.816382E-16	7.153644E-01
3.117241E+03	2.372721E-16	1.828114E-16	7.153644E-01
3.118441E+03	2.315992E-16	1.844138E-16	7.153644E-01
3.119240E+03	2.259622E-16	1.844496E-16	7.153644E-01
3.121041E+03	2.203251E-16	1.840490E-16	7.153644E-01
3.121241E+03	2.147166E-16	1.852365E-16	7.153644E-01
3.121441E+03	2.090796E-16	1.868317E-16	7.153644E-01
3.121841E+03	2.034926E-16	1.860305E-16	7.153644E-01
3.122441E+03	1.978984E-16	1.859948E-16	7.153644E-01
3.123241E+03	1.923186E-16	1.870750E-16	7.153644E-01
3.123441E+03	1.867387E-16	1.852651E-16	7.153644E-01
3.123641E+03	1.811732E-16	1.841062E-16	7.153644E-01
3.125842E+03	1.756291E-16	1.829616E-16	7.153644E-01
3.126642E+03	1.701065E-16	1.824394E-16	7.153644E-01
3.127842E+03	1.646054E-16	1.822248E-16	7.153644E-01
3.131443E+03	1.591185E-16	1.821747E-16	7.153644E-01
3.132043E+03	1.536603E-16	1.822749E-16	7.153644E-01
3.132242E+03	1.482235E-16	1.830260E-16	7.153644E-01
3.133242E+03	1.428010E-16	1.843423E-16	7.153644E-01
3.133642E+03	1.374144E-16	1.854296E-16	7.153644E-01
3.134242E+03	1.320491E-16	1.865670E-16	7.153644E-01
3.135842E+03	1.267053E-16	1.871894E-16	7.153644E-01
3.136042E+03	1.213973E-16	1.868317E-16	7.153644E-01
3.136242E+03	1.161108E-16	1.862952E-16	7.153644E-01
3.136443E+03	1.108529E-16	1.872395E-16	7.153644E-01
3.136643E+03	1.056236E-16	1.863596E-16	7.153644E-01
3.137043E+03	1.004300E-16	1.877045E-16	7.153644E-01
3.137843E+03	9.526508E-17	1.886344E-16	7.153644E-01
3.138243E+03	9.012876E-17	1.887346E-16	7.153644E-01
3.138443E+03	8.502822E-17	1.870249E-16	7.153644E-01
3.139043E+03	7.995628E-17	1.867960E-16	7.153644E-01
3.139443E+03	7.492727E-17	1.856156E-16	7.153644E-01
3.141443E+03	6.992973E-17	1.859804E-16	7.153644E-01
3.141844E+03	6.496940E-17	1.850290E-16	7.153644E-01
3.142044E+03	6.003982E-17	1.840776E-16	7.153644E-01
3.142244E+03	5.515817E-17	1.820030E-16	7.153644E-01
3.142444E+03	5.028797E-17	1.806081E-16	7.153644E-01
3.143044E+03	4.545712E-17	1.802647E-16	7.153644E-01
3.143443E+03	4.068063E-17	1.790986E-16	7.153644E-01
3.144044E+03	3.594706E-17	1.788697E-16	7.153644E-01
3.144243E+03	3.125713E-17	1.770455E-16	7.153644E-01
3.145243E+03	2.661227E-17	1.756506E-16	7.153644E-01
3.145843E+03	2.201319E-17	1.747564E-16	7.153644E-01
3.146243E+03	1.746061E-17	1.734186E-16	7.153644E-01
3.146443E+03	1.295525E-17	1.715515E-16	7.153644E-01
3.147444E+03	8.499245E-18	1.692767E-16	7.153644E-01
3.148844E+03	4.092385E-18	1.677387E-16	7.153644E-01
3.149444E+03	-2.636189E-19	1.665869E-16	7.153644E-01
3.149844E+03	-4.568174E-18	1.641404E-16	7.153644E-01
3.150444E+03	-8.820443E-18	1.619871E-16	7.153644E-01
3.151244E+03	-1.297528E-17	1.611645E-16	7.153644E-01
3.151844E+03	-1.710651E-17	1.590684E-16	7.153644E-01
3.152044E+03	-2.117193E-17	1.567435E-16	7.153644E-01
3.152645E+03	-2.515007E-17	1.550767E-16	7.153644E-01
3.152845E+03	-2.910389E-17	1.531953E-16	7.153644E-01
3.153045E+03	-3.300477E-17	1.508346E-16	7.153644E-01
3.153645E+03	-3.684628E-17	1.487457E-16	7.153644E-01
3.153845E+03	-4.059407E-17	1.462205E-16	7.153644E-01
3.154045E+03	-4.431182E-17	1.437668E-16	7.153644E-01
3.154445E+03	-4.800024E-17	1.423146E-16	7.153644E-01
3.154645E+03	-5.160997E-17	1.401113E-16	7.153644E-01
3.155445E+03	-5.514244E-17	1.384588E-16	7.153644E-01
3.157244E+03	-5.860766E-17	1.366704E-16	7.153644E-01
3.157444E+03	-6.203426E-17	1.345600E-16	7.153644E-01
3.157644E+03	-6.535784E-17	1.321636E-16	7.153644E-01
3.158245E+03	-6.857984E-17	1.296026E-16	7.153644E-01
3.158445E+03	-7.179397E-17	1.272562E-16	7.153644E-01
3.158645E+03	-7.490581E-17	1.251315E-16	7.153644E-01
3.159245E+03	-7.795326E-17	1.233717E-16	7.153644E-01
3.160445E+03	-8.092202E-17	1.214546E-16	7.153644E-01
3.160645E+03	-8.384786E-17	1.196805E-16	7.153644E-01
3.162445E+03	-8.670217E-17	1.174199E-16	7.153644E-01
3.163045E+03	-8.944917E-17	1.151164E-16	7.153644E-01
3.163246E+03	-9.214609E-17	1.130920E-16	7.153644E-01
3.163446E+03	-9.471425E-17	1.110317E-16	7.153644E-01
3.163646E+03	-9.724664E-17	1.090144E-16	7.153644E-01
3.164046E+03	-9.967888E-17	1.066895E-16	7.153644E-01
3.164246E+03	-1.020396E-16	1.046220E-16	7.153644E-01
3.164646E+03	-1.043287E-16	1.026333E-16	7.153644E-01
3.165246E+03	-1.065392E-16	1.007734E-16	7.153644E-01
3.165446E+03	-1.086639E-16	9.923535E-17	7.153644E-01
3.165646E+03	-1.106383E-16	9.727526E-17	7.153644E-01
3.166846E+03	-1.125769E-16	9.537954E-17	7.153644E-01
3.167046E+03	-1.144154E-16	9.363405E-17	7.153644E-01
3.168646E+03	-1.161180E-16	9.187425E-17	7.153644E-01
3.168846E+03	-1.177919E-16	9.027899E-17	7.153644E-01
3.170846E+03	-1.193872E-16	8.844766E-17	7.153644E-01
3.171446E+03	-1.208751E-16	8.684524E-17	7.153644E-01
3.171646E+03	-1.222486E-16	8.512837E-17	7.153644E-01
3.172246E+03	-1.235434E-16	8.402671E-17	7.153644E-01
3.172446E+03	-1.247596E-16	8.253875E-17	7.153644E-01
3.172846E+03	-1.258398E-16	8.094349E-17	7.153644E-01
3.173246E+03	-1.268341E-16	8.031396E-17	7.153644E-01
3.173446E+03	-1.277140E-16	7.919800E-17	7.153644E-01
3.174447E+03	-1.285510E-16	7.808918E-17	7.153644E-01
3.174647E+03	-1.292449E-16	7.777442E-17	7.153644E-01
3.175247E+03	-1.298386E-16	7.730228E-17	7.153644E-01
3.175447E+03	-1.303466E-16	7.648676E-17	7.153644E-01
3.175647E+03	-1.307400E-16	7.592878E-17	7.153644E-01
3.175847E+03	-1.310333E-16	7.585009E-17	7.153644E-01
3.177447E+03	-1.312479E-16	7.585724E-17	7.153644E-01
3.177647E+03	-1.313552E-16	7.566410E-17	7.153644E-01
3.178447E+03	-1.313409E-16	7.558541E-17	7.153644E-01
3.179047E+03	-1.312050E-16	7.585724E-17	7.153644E-01
3.179648E+03	-1.309332E-16	7.600747E-17	7.153644E-01
3.179847E+03	-1.305755E-16	7.595740E-17	7.153644E-01
3.180048E+03	-1.300962E-16	7.611478E-17	7.153644E-01
3.180647E+03	-1.295239E-16	7.595024E-17	7.153644E-01
3.182847E+03	-1.288371E-16	7.601462E-17	7.153644E-01
3.184247E+03	-1.280288E-16	7.647961E-17	7.153644E-01
3.184447E+03	-1.270988E-16	7.662984E-17	7.153644E-01
3.184648E+03	-1.260544E-16	7.680868E-17	7.153644E-01
3.185848E+03	-1.248883E-16	7.695175E-17	7.153644E-01
3.186048E+03	-1.235935E-16	7.708767E-17	7.153644E-01
3.187248E+03	-1.221842E-16	7.735236E-17	7.153644E-01
3.187448E+03	-1.206462E-16	7.760273E-17	7.153644E-01
3.188848E+03	-1.189866E-16	7.801764E-17	7.153644E-01
3.189048E+03	-1.171982E-16	7.833241E-17	7.153644E-01
3.190449E+03	-1.152738E-16	7.871870E-17	7.153644E-01
3.190849E+03	-1.132279E-16	7.911931E-17	7.153644E-01
3.191448E+03	-1.110532E-16	7.929815E-17	7.153644E-01
3.192048E+03	-1.087354E-16	7.969160E-17	7.153644E-01
3.193248E+03	-1.063032E-16	7.992051E-17	7.153644E-01
3.193448E+03	-1.037350E-16	8.002782E-17	7.153644E-01
3.193648E+03	-1.010166E-16	8.017805E-17	7.153644E-01
3.194848E+03	-9.819092E-17	8.037119E-17	7.153644E-01
3.195649E+03	-9.521501E-17	8.057865E-17	7.153644E-01
3.195849E+03	-9.208886E-17	8.079326E-17	7.153644E-01
3.196049E+03	-8.884826E-17	8.087195E-17	7.153644E-01
3.196249E+03	-8.547174E-17	8.110802E-17	7.153644E-01
3.196449E+03	-8.195930E-17	8.136555E-17	7.153644E-01
3.196649E+03	-7.826802E-17	8.160162E-17	7.153644E-01
3.196849E+03	-7.446944E-17	8.173754E-17	7.153644E-01
3.197249E+03	-7.051919E-17	8.183054E-17	7.153644E-01
3.200049E+03	-6.643017E-17	8.183054E-17	7.153644E-01
3.200249E+03	-6.216445E-17	8.196646E-17	7.153644E-01
3.200449E+03	-5.776496E-17	8.210953E-17	7.153644E-01
3.200650E+03	-5.323170E-17	8.232414E-17	7.153644E-01
3.200850E+03	-4.852889E-17	8.245290E-17	7.153644E-01
3.201250E+03	-4.367944E-17	8.254590E-17	7.153644E-01
3.203050E+03	-3.869549E-17	8.251013E-17	7.153644E-01
3.203250E+03	-3.355703E-17	8.246006E-17	7.153644E-01
3.203450E+03	-2.825904E-17	8.249583E-17	7.153644E-01
3.204050E+03	-2.280367E-17	8.248152E-17	7.153644E-01
3.204649E+03	-1.718878E-17	8.252444E-17	7.153644E-01
3.205449E+03	-1.141364E-17	8.255306E-17	7.153644E-01
3.205649E+03	-5.478404E-18	8.250298E-17	7.153644E-01
3.206050E+03	6.174239E-19	8.242429E-17	7.153644E-01
3.206250E+03	6.876083E-18	8.232414E-17	7.153644E-01
3.206850E+03	1.330292E-17	8.218822E-17	7.153644E-01
3.207450E+03	1.989285E-17	8.203084E-17	7.153644E-01
3.207650E+03	2.664947E-17	8.185200E-17	7.153644E-01
3.208250E+03	3.478817E-17	8.163739E-17	7.153644E-01
3.209250E+03	4.271942E-17	8.137270E-17	7.153644E-01
3.209450E+03	5.088602E-17	8.105794E-17	7.153644E-01
3.209650E+03	5.600016E-17	8.070741E-17	7.153644E-01
3.209850E+03	6.000119E-17	8.044273E-17	7.153644E-01
3.210050E+03	6.116151E-17	8.012797E-17	7.153644E-01
3.210250E+03	6.513965E-17	7.990621E-17	7.153644E-01
3.210850E+03	5.048470E-17	7.963437E-17	7.153644E-01
3.211050E+03	3.044305E-17	7.909784E-17	7.153644E-01
3.211250E+03	3.451848E-17	7.882601E-17	7.153644E-01
3.211651E+03	3.309848E-17	7.843971E-17	7.153644E-01
3.211851E+03	3.504928E-17	7.786026E-17	7.153644E-01
3.212051E+03	3.754733E-17	7.737382E-17	7.153644E-01
3.212451E+03	3.147961E-17	7.685160E-17	7.153644E-01
3.213251E+03	3.693212E-17	7.636515E-17	7.153644E-01
3.213451E+03	4.234671E-17	7.551387E-17	7.153644E-01
3.213851E+03	4.784000E-17	7.502742E-17	7.153644E-01
3.214051E+03	5.342985E-17	7.444798E-17	7.153644E-01
3.214251E+03	5.912487E-17	7.355377E-17	7.153644E-01
3.214451E+03	6.486782E-17	7.289564E-17	7.153644E-01
3.215051E+03	7.068230E-17	7.210158E-17	7.153644E-01
3.215851E+03	7.657261E-17	7.129465E-17	7.153644E-01
3.216050E+03	8.253159E-17	7.062578E-17	7.153644E-01
3.216851E+03	8.859788E-17	6.937461E-17	7.153644E-01
3.218051E+03	9.471425E-17	6.868572E-17	7.153644E-01
3.219651E+03	1.008664E-16	6.777863E-17	7.153644E-01
3.220451E+03	8.793260E-17	6.685653E-17	7.153644E-01
3.221251E+03	7.856848E-17	6.599952E-17	7.153644E-01
3.221451E+03	7.414752E-17	6.480773E-17	7.153644E-01
3.222252E+03	6.991543E-17	6.357372E-17	7.153644E-01
3.222652E+03	6.585359E-17	6.218377E-17	7.153644E-01
3.222852E+03	6.313020E-17	6.084389E-17	7.153644E-01
3.223052E+03	6.069152E-17	5.999332E-17	7.153644E-01
3.223252E+03	5.857046E-17	5.855830E-17	7.153644E-01
3.223452E+03	5.680709E-17	5.720841E-17	7.153644E-01
3.223852E+03	5.594007E-17	5.593649E-17	7.153644E-01
3.224052E+03	5.551586E-17	5.489492E-17	7.153644E-01
3.225452E+03	5.658032E-17	5.355790E-17	7.153644E-01
3.225852E+03	5.781075E-17	5.213862E-17	7.153644E-01
3.226052E+03	5.435983E-17	5.102194E-17	7.153644E-01
3.226452E+03	5.318949E-17	4.988236E-17	7.153644E-01
3.226652E+03	4.641070E-17	4.890589E-17	7.153644E-01
3.226852E+03	4.891805E-17	4.794015E-17	7.153644E-01
3.227052E+03	4.097035E-17	4.620682E-17	7.153644E-01
3.227653E+03	3.468731E-17	4.461227E-17	7.153644E-01
3.228452E+03	2.418003E-17	4.363580E-17	7.153644E-01
3.228852E+03	2.416000E-17	4.241753E-17	7.153644E-01
3.229652E+03	2.585184E-17	4.130300E-17	7.153644E-01
3.230252E+03	2.346896E-17	4.001820E-17	7.153644E-01
3.232252E+03	2.386599E-17	3.860464E-17	7.153644E-01
3.234253E+03	2.393896E-17	3.725761E-17	7.153644E-01
3.236053E+03	2.479739E-17	3.623679E-17	7.153644E-01
3.236253E+03	2.611867E-17	3.515515E-17	7.153644E-01
3.236653E+03	2.571163E-17	3.420944E-17	7.153644E-01
3.236853E+03	2.504205E-17	3.296757E-17	7.153644E-01
3.238254E+03	2.537898E-17	3.212058E-17	7.153644E-01
3.238454E+03	2.611223E-17	3.115555E-17	7.153644E-01
3.238654E+03	2.741276E-17	2.983713E-17	7.153644E-01
3.238854E+03	2.624815E-17	2.858739E-17	7.153644E-01
3.239054E+03	2.510071E-17	2.754940E-17	7.153644E-01
3.239454E+03	2.226071E-17	2.690343E-17	7.153644E-01
3.239654E+03	2.106677E-17	2.599849E-17	7.153644E-01
3.239854E+03	1.947079E-17	2.552706E-17	7.153644E-01
3.240454E+03	1.921254E-17	2.503275E-17	7.153644E-01
3.240854E+03	1.871322E-17	2.420650E-17	7.153644E-01
3.241053E+03	1.773102E-17	2.382879E-17	7.153644E-01
3.242453E+03	1.577593E-17	2.346324E-17	7.153644E-01
3.242653E+03	1.635752E-17	2.331873E-17	7.153644E-01
3.243254E+03	1.690835E-17	2.300612E-17	7.153644E-01
3.243454E+03	1.717304E-17	2.289810E-17	7.153644E-01
3.243854E+03	1.794134E-17	2.293244E-17	7.153644E-01
3.244054E+03	1.692981E-17	2.297464E-17	7.153644E-01
3.244854E+03	1.742914E-17	2.298108E-17	7.153644E-01
3.245654E+03	1.806295E-17	2.310484E-17	7.153644E-01
3.246054E+03	1.793204E-17	2.319784E-17	7.153644E-01
3.246254E+03	1.716946E-17	2.318425E-17	7.153644E-01
3.246654E+03	1.742342E-17	2.325793E-17	7.153644E-01
3.247054E+03	1.779898E-17	2.325650E-17	7.153644E-01
3.247254E+03	1.762300E-17	2.330300E-17	7.153644E-01
3.247454E+03	1.674310E-17	2.320070E-17	7.153644E-01
3.247654E+03	1.713942E-17	2.327510E-17	7.153644E-01
