#wls	flux	fluxerr	mangling_mask
5.337418E+03	2.747454E-18	1.234809E-17	5.942753E-03
5.337619E+03	2.756949E-18	1.233502E-17	5.947084E-03
5.339219E+03	2.780406E-18	1.201150E-17	5.981555E-03
5.339619E+03	2.791839E-18	1.195255E-17	5.990172E-03
5.339819E+03	2.801281E-18	1.193759E-17	5.994481E-03
5.340019E+03	2.810467E-18	1.192132E-17	5.998991E-03
5.340819E+03	2.826019E-18	1.177200E-17	6.017031E-03
5.342019E+03	2.845739E-18	1.153299E-17	6.044091E-03
5.342419E+03	2.856766E-18	1.146955E-17	6.053112E-03
5.342619E+03	2.866176E-18	1.145201E-17	6.057776E-03
5.342820E+03	2.875608E-18	1.143404E-17	6.062463E-03
5.343220E+03	2.886468E-18	1.136891E-17	6.071788E-03
5.343620E+03	2.897895E-18	1.130536E-17	6.081116E-03
5.344020E+03	2.909042E-18	1.124053E-17	6.090703E-03
5.344220E+03	2.917426E-18	1.121784E-17	6.095496E-03
5.345220E+03	2.934832E-18	1.101736E-17	6.119461E-03
5.345620E+03	2.945559E-18	1.094973E-17	6.129048E-03
5.346620E+03	2.963950E-18	1.075211E-17	6.153742E-03
5.346820E+03	2.972365E-18	1.072798E-17	6.158682E-03
5.347020E+03	2.980664E-18	1.070330E-17	6.163619E-03
5.347220E+03	2.988790E-18	1.067783E-17	6.168558E-03
5.347420E+03	2.996856E-18	1.065213E-17	6.173611E-03
5.347820E+03	3.007451E-18	1.058262E-17	6.183718E-03
5.348020E+03	3.015231E-18	1.055557E-17	6.188771E-03
5.348421E+03	3.025373E-18	1.048384E-17	6.198900E-03
5.348620E+03	3.033177E-18	1.045668E-17	6.204084E-03
5.349020E+03	3.043155E-18	1.038463E-17	6.214452E-03
5.349820E+03	3.058171E-18	1.022506E-17	6.235184E-03
5.350420E+03	3.070986E-18	1.010977E-17	6.250735E-03
5.350620E+03	3.078621E-18	1.008149E-17	6.256087E-03
5.352020E+03	3.101409E-18	9.793837E-18	6.293572E-03
5.352220E+03	3.108520E-18	9.763448E-18	6.298927E-03
5.352620E+03	3.118286E-18	9.690132E-18	6.309638E-03
5.353420E+03	3.133408E-18	9.533991E-18	6.331909E-03
5.353821E+03	3.142929E-18	9.460806E-18	6.343073E-03
5.354821E+03	3.160801E-18	9.262915E-18	6.370913E-03
5.355621E+03	3.175622E-18	9.106129E-18	6.393184E-03
5.356421E+03	3.191009E-18	8.954295E-18	6.416281E-03
5.356821E+03	3.200864E-18	8.883565E-18	6.427826E-03
5.357421E+03	3.213035E-18	8.771230E-18	6.445148E-03
5.357621E+03	3.219268E-18	8.738780E-18	6.450922E-03
5.358021E+03	3.229120E-18	8.669384E-18	6.462765E-03
5.358221E+03	3.235379E-18	8.637630E-18	6.468688E-03
5.358822E+03	3.247589E-18	8.527411E-18	6.486485E-03
5.359222E+03	3.257092E-18	8.457116E-18	6.498328E-03
5.359622E+03	3.266442E-18	8.388476E-18	6.510488E-03
5.359822E+03	3.272099E-18	8.356222E-18	6.516568E-03
5.360622E+03	3.287252E-18	8.211659E-18	6.540884E-03
5.361422E+03	3.302232E-18	8.067241E-18	6.565204E-03
5.361821E+03	3.311317E-18	8.000519E-18	6.577643E-03
5.362221E+03	3.320019E-18	7.933097E-18	6.590085E-03
5.362421E+03	3.325396E-18	7.901365E-18	6.596306E-03
5.362621E+03	3.330512E-18	7.869134E-18	6.602527E-03
5.362821E+03	3.335498E-18	7.837781E-18	6.608872E-03
5.363221E+03	3.343822E-18	7.772081E-18	6.621560E-03
5.364021E+03	3.358767E-18	7.637994E-18	6.646943E-03
5.364422E+03	3.367059E-18	7.572485E-18	6.659663E-03
5.364622E+03	3.372102E-18	7.543615E-18	6.666209E-03
5.364822E+03	3.376547E-18	7.513727E-18	6.672755E-03
5.365822E+03	3.394180E-18	7.357166E-18	6.705480E-03
5.367422E+03	3.422104E-18	7.109277E-18	6.757843E-03
5.368022E+03	3.433407E-18	7.027760E-18	6.778155E-03
5.368222E+03	3.437651E-18	7.001398E-18	6.784927E-03
5.369222E+03	3.455418E-18	6.865340E-18	6.818782E-03
5.369823E+03	3.466961E-18	6.785519E-18	6.839131E-03
5.370023E+03	3.471184E-18	6.763143E-18	6.846112E-03
5.372023E+03	3.506718E-18	6.533311E-18	6.915922E-03
5.372223E+03	3.510258E-18	6.510640E-18	6.922904E-03
5.372423E+03	3.514006E-18	6.488291E-18	6.929885E-03
5.372623E+03	3.517975E-18	6.469413E-18	6.937027E-03
5.373023E+03	3.524938E-18	6.430626E-18	6.951307E-03
5.373222E+03	3.528490E-18	6.411393E-18	6.958448E-03
5.373623E+03	3.535105E-18	6.372513E-18	6.972732E-03
5.373823E+03	3.538109E-18	6.356470E-18	6.980034E-03
5.374022E+03	3.541460E-18	6.340891E-18	6.987332E-03
5.375623E+03	3.570309E-18	6.220027E-18	7.045783E-03
5.376223E+03	3.580633E-18	6.174924E-18	7.067689E-03
5.376423E+03	3.583421E-18	6.163292E-18	7.075148E-03
5.377023E+03	3.593625E-18	6.130552E-18	7.097538E-03
5.377223E+03	3.596125E-18	6.118768E-18	7.105001E-03
5.377423E+03	3.598480E-18	6.106881E-18	7.112464E-03
5.377623E+03	3.600732E-18	6.097201E-18	7.120012E-03
5.377823E+03	3.602766E-18	6.087343E-18	7.127556E-03
5.378023E+03	3.604654E-18	6.077374E-18	7.135104E-03
5.378223E+03	3.606468E-18	6.067374E-18	7.142652E-03
5.378423E+03	3.608105E-18	6.059595E-18	7.150285E-03
5.378623E+03	3.609595E-18	6.051706E-18	7.157917E-03
5.379223E+03	3.618555E-18	6.032704E-18	7.180812E-03
5.379423E+03	3.619742E-18	6.024649E-18	7.188445E-03
5.380424E+03	3.636429E-18	6.014624E-18	7.227326E-03
5.380624E+03	3.637372E-18	6.010351E-18	7.235095E-03
5.381224E+03	3.645895E-18	6.003117E-18	7.258402E-03
5.381424E+03	3.646453E-18	5.998566E-18	7.266167E-03
5.382424E+03	3.662997E-18	6.021027E-18	7.306122E-03
5.382624E+03	3.663418E-18	6.022789E-18	7.314109E-03
5.383824E+03	3.683602E-18	6.050105E-18	7.362051E-03
5.384624E+03	3.695602E-18	6.066969E-18	7.394015E-03
5.384824E+03	3.695615E-18	6.073421E-18	7.402185E-03
5.385024E+03	3.695394E-18	6.079642E-18	7.410351E-03
5.385224E+03	3.695091E-18	6.085781E-18	7.418520E-03
5.385624E+03	3.698715E-18	6.102060E-18	7.434901E-03
5.385824E+03	3.698215E-18	6.110703E-18	7.443173E-03
5.386225E+03	3.701661E-18	6.132170E-18	7.459717E-03
5.386824E+03	3.709033E-18	6.166429E-18	7.484529E-03
5.387024E+03	3.708113E-18	6.174603E-18	7.492801E-03
5.387224E+03	3.707202E-18	6.187498E-18	7.501269E-03
5.389024E+03	3.739479E-18	6.342729E-18	7.577465E-03
5.389824E+03	3.750713E-18	6.408783E-18	7.611334E-03
5.390224E+03	3.753411E-18	6.438828E-18	7.628264E-03
5.390424E+03	3.751974E-18	6.456291E-18	7.636985E-03
5.391425E+03	3.767349E-18	6.566917E-18	7.680630E-03
5.391825E+03	3.769669E-18	6.607123E-18	7.698072E-03
5.393025E+03	3.789090E-18	6.741192E-18	7.750394E-03
5.393225E+03	3.787155E-18	6.760944E-18	7.759292E-03
5.393825E+03	3.793720E-18	6.833835E-18	7.785982E-03
5.394025E+03	3.791352E-18	6.852972E-18	7.794880E-03
5.394425E+03	3.793133E-18	6.898551E-18	7.812677E-03
5.395625E+03	3.812310E-18	7.063927E-18	7.866921E-03
5.395825E+03	3.809288E-18	7.084103E-18	7.875962E-03
5.396226E+03	3.810870E-18	7.128951E-18	7.894086E-03
5.396426E+03	3.807410E-18	7.129296E-18	7.903127E-03
5.396626E+03	3.804156E-18	7.153196E-18	7.912303E-03
5.397026E+03	3.805049E-18	7.200571E-18	7.930654E-03
5.397226E+03	3.801750E-18	7.223204E-18	7.939830E-03
5.397626E+03	3.802735E-18	7.276379E-18	7.958177E-03
5.398825E+03	3.821018E-18	7.463305E-18	8.014384E-03
5.399025E+03	3.816739E-18	7.483054E-18	8.023752E-03
5.400625E+03	3.843641E-18	7.660997E-18	8.098696E-03
5.401025E+03	3.843684E-18	7.694726E-18	8.117429E-03
5.401225E+03	3.839271E-18	7.714565E-18	8.126990E-03
5.401626E+03	3.839203E-18	7.686769E-18	8.146159E-03
5.401826E+03	3.834167E-18	7.707534E-18	8.155720E-03
5.402226E+03	3.833592E-18	7.765093E-18	8.174842E-03
5.402826E+03	3.837477E-18	7.856713E-18	8.203945E-03
5.404026E+03	3.854792E-18	8.060010E-18	8.262156E-03
5.404226E+03	3.849392E-18	8.074407E-18	8.271859E-03
5.404426E+03	3.843970E-18	8.095756E-18	8.281562E-03
5.404626E+03	3.838020E-18	8.097416E-18	8.291431E-03
5.405226E+03	3.841239E-18	8.150882E-18	8.321033E-03
5.405626E+03	3.839424E-18	8.186006E-18	8.340771E-03
5.406226E+03	3.842169E-18	8.247956E-18	8.370374E-03
5.406426E+03	3.835527E-18	8.267654E-18	8.380368E-03
5.406626E+03	3.828690E-18	8.241583E-18	8.390361E-03
5.407227E+03	3.831024E-18	8.326732E-18	8.420387E-03
5.407427E+03	3.824021E-18	8.345145E-18	8.430381E-03
5.407827E+03	3.821285E-18	8.402015E-18	8.450617E-03
5.408227E+03	3.818237E-18	8.446078E-18	8.470854E-03
5.409027E+03	3.824222E-18	8.574573E-18	8.511321E-03
5.409227E+03	3.816497E-18	8.581761E-18	8.521439E-03
5.410026E+03	3.822472E-18	8.713999E-18	8.562502E-03
5.410627E+03	3.823333E-18	8.805284E-18	8.593303E-03
5.410827E+03	3.814909E-18	8.806613E-18	8.603570E-03
5.411026E+03	3.806539E-18	8.797530E-18	8.613832E-03
5.412026E+03	3.816243E-18	8.940554E-18	8.665993E-03
5.412227E+03	3.807410E-18	8.951957E-18	8.676472E-03
5.412827E+03	3.807559E-18	9.037975E-18	8.707769E-03
5.413227E+03	3.802804E-18	9.071139E-18	8.728633E-03
5.413427E+03	3.793596E-18	9.049164E-18	8.739192E-03
5.413627E+03	3.784445E-18	9.033875E-18	8.749756E-03
5.413827E+03	3.774910E-18	9.019840E-18	8.760320E-03
5.414227E+03	3.769525E-18	9.047582E-18	8.781449E-03
5.414827E+03	3.769127E-18	9.117277E-18	8.813579E-03
5.416027E+03	3.782140E-18	9.308659E-18	8.877846E-03
5.416627E+03	3.780684E-18	9.383244E-18	8.909982E-03
5.416827E+03	3.769885E-18	9.381540E-18	8.920694E-03
5.417027E+03	3.759117E-18	9.380907E-18	8.931565E-03
5.417828E+03	3.761834E-18	9.500629E-18	8.975124E-03
5.418028E+03	3.750846E-18	9.504490E-18	8.986000E-03
5.418228E+03	3.739552E-18	9.507905E-18	8.996877E-03
5.418628E+03	3.732570E-18	9.545198E-18	9.018918E-03
5.418828E+03	3.720968E-18	9.547418E-18	9.029942E-03
5.420028E+03	3.731939E-18	9.741886E-18	9.096078E-03
5.420428E+03	3.724663E-18	9.778994E-18	9.118125E-03
5.420628E+03	3.712435E-18	9.778488E-18	9.129312E-03
5.421228E+03	3.709129E-18	9.824727E-18	9.162867E-03
5.421628E+03	3.701560E-18	9.857987E-18	9.185241E-03
5.422227E+03	3.697843E-18	9.912930E-18	9.218796E-03
5.423029E+03	3.698673E-18	1.002367E-17	9.264285E-03
5.423428E+03	3.690188E-18	1.005639E-17	9.286995E-03
5.423628E+03	3.676755E-18	1.004963E-17	9.298353E-03
5.424628E+03	3.681060E-18	1.019269E-17	9.355138E-03
5.424828E+03	3.667409E-18	1.018414E-17	9.366626E-03
5.425028E+03	3.653432E-18	1.017411E-17	9.378115E-03
5.425228E+03	3.639410E-18	1.016343E-17	9.389603E-03
5.425428E+03	3.625249E-18	1.015200E-17	9.401091E-03
5.425628E+03	3.611265E-18	1.013946E-17	9.412671E-03
5.425828E+03	3.596767E-18	1.012526E-17	9.424257E-03
5.426028E+03	3.582223E-18	1.011049E-17	9.435842E-03
5.427028E+03	3.584940E-18	1.024041E-17	9.493764E-03
5.427428E+03	3.574284E-18	1.025911E-17	9.517211E-03
5.428229E+03	3.572404E-18	1.034966E-17	9.564158E-03
5.428629E+03	3.561603E-18	1.036725E-17	9.587605E-03
5.428829E+03	3.545992E-18	1.035052E-17	9.599328E-03
5.429029E+03	3.530277E-18	1.032819E-17	9.611165E-03
5.429429E+03	3.518641E-18	1.033846E-17	9.634832E-03
5.429629E+03	3.502609E-18	1.030207E-17	9.646669E-03
5.429829E+03	3.486527E-18	1.025045E-17	9.658506E-03
5.430029E+03	3.470138E-18	1.022988E-17	9.670432E-03
5.430229E+03	3.453890E-18	1.017273E-17	9.682357E-03
5.430429E+03	3.437205E-18	1.014630E-17	9.694283E-03
5.431029E+03	3.428774E-18	1.015413E-17	9.730054E-03
5.431429E+03	3.416189E-18	1.016525E-17	9.754131E-03
5.431629E+03	3.399115E-18	1.012181E-17	9.766169E-03
5.432229E+03	3.390216E-18	1.016183E-17	9.802279E-03
5.432629E+03	3.377024E-18	1.016920E-17	9.826356E-03
5.432829E+03	3.359268E-18	1.013243E-17	9.838531E-03
5.433630E+03	3.353867E-18	1.019682E-17	9.887288E-03
5.434230E+03	3.344025E-18	1.023293E-17	9.923808E-03
5.434430E+03	3.325872E-18	1.019723E-17	9.935983E-03
5.434829E+03	3.311786E-18	1.019720E-17	9.960559E-03
5.435029E+03	3.293234E-18	1.016261E-17	9.972847E-03
5.435230E+03	3.274625E-18	1.012166E-17	9.985135E-03
5.435430E+03	3.256061E-18	1.008642E-17	9.997423E-03
5.435829E+03	3.241190E-18	1.008089E-17	1.002223E-02
5.436029E+03	3.222224E-18	1.004615E-17	1.003464E-02
5.437229E+03	3.222777E-18	1.016554E-17	1.010909E-02
5.437429E+03	3.203149E-18	1.012405E-17	1.012149E-02
5.437629E+03	3.183499E-18	1.008069E-17	1.013401E-02
5.437829E+03	3.163690E-18	1.003492E-17	1.014654E-02
5.438029E+03	3.143718E-18	9.984167E-18	1.015905E-02
5.438229E+03	3.123893E-18	9.930898E-18	1.017157E-02
5.439030E+03	3.115194E-18	9.960781E-18	1.022213E-02
5.439230E+03	3.094886E-18	9.888225E-18	1.023475E-02
5.439430E+03	3.074519E-18	9.810599E-18	1.024737E-02
5.440030E+03	3.061404E-18	9.786043E-18	1.028525E-02
5.440230E+03	3.040477E-18	9.739756E-18	1.029798E-02
5.440430E+03	3.019797E-18	9.686159E-18	1.031070E-02
5.440630E+03	2.998542E-18	9.637853E-18	1.032343E-02
5.440830E+03	2.977019E-18	9.582074E-18	1.033615E-02
5.441630E+03	2.966550E-18	9.612025E-18	1.038744E-02
5.441830E+03	2.944836E-18	9.560043E-18	1.040027E-02
5.442230E+03	2.926555E-18	9.534804E-18	1.042592E-02
5.442430E+03	2.904579E-18	9.483038E-18	1.043874E-02
5.443030E+03	2.889706E-18	9.485808E-18	1.047754E-02
5.443230E+03	2.867467E-18	9.426576E-18	1.049048E-02
5.443430E+03	2.845269E-18	9.369871E-18	1.050341E-02
5.443630E+03	2.822798E-18	9.256240E-18	1.051635E-02
5.443830E+03	2.800292E-18	9.200590E-18	1.052939E-02
5.444631E+03	2.788050E-18	9.222982E-18	1.058164E-02
5.445031E+03	2.768724E-18	9.191797E-18	1.060773E-02
5.445231E+03	2.745684E-18	9.133311E-18	1.062078E-02
5.445431E+03	2.722824E-18	9.070683E-18	1.063395E-02
5.446231E+03	2.709501E-18	9.079011E-18	1.068668E-02
5.446431E+03	2.686094E-18	9.015706E-18	1.069986E-02
5.447030E+03	2.668849E-18	9.002221E-18	1.073940E-02
5.447431E+03	2.648329E-18	8.963374E-18	1.076600E-02
5.447631E+03	2.624329E-18	8.898435E-18	1.077930E-02
5.448030E+03	2.603573E-18	8.857218E-18	1.080590E-02
5.448230E+03	2.579405E-18	8.788867E-18	1.081920E-02
5.448430E+03	2.555191E-18	8.722697E-18	1.083259E-02
5.448830E+03	2.534032E-18	8.664555E-18	1.085936E-02
5.449030E+03	2.509646E-18	8.594801E-18	1.087274E-02
5.449230E+03	2.484868E-18	8.523696E-18	1.088613E-02
5.449631E+03	2.463206E-18	8.476881E-18	1.091315E-02
5.450031E+03	2.441501E-18	8.429685E-18	1.094010E-02
5.450231E+03	2.416685E-18	8.358801E-18	1.095356E-02
5.450431E+03	2.391582E-18	8.287272E-18	1.096704E-02
5.450631E+03	2.366760E-18	8.216567E-18	1.098061E-02
5.450831E+03	2.341869E-18	8.134423E-18	1.099418E-02
5.451431E+03	2.322402E-18	8.100635E-18	1.103488E-02
5.451631E+03	2.297082E-18	8.027507E-18	1.104845E-02
5.451831E+03	2.271603E-18	7.952410E-18	1.106210E-02
5.452031E+03	2.245942E-18	7.874604E-18	1.107576E-02
5.452431E+03	2.222945E-18	7.817851E-18	1.110307E-02
5.452631E+03	2.197221E-18	7.741140E-18	1.111673E-02
5.452831E+03	2.171664E-18	7.665801E-18	1.113046E-02
5.453031E+03	2.145816E-18	7.585402E-18	1.114420E-02
5.453231E+03	2.119563E-18	7.505454E-18	1.115795E-02
5.453831E+03	2.098725E-18	7.461770E-18	1.119917E-02
5.454231E+03	2.075180E-18	7.401180E-18	1.122690E-02
5.455432E+03	2.061505E-18	7.410962E-18	1.131017E-02
5.455632E+03	2.034930E-18	7.325546E-18	1.132404E-02
5.455832E+03	2.008624E-18	7.244453E-18	1.133791E-02
5.456032E+03	1.981812E-18	7.161084E-18	1.135189E-02
5.456232E+03	1.954929E-18	7.077507E-18	1.136586E-02
5.456432E+03	1.928085E-18	6.991261E-18	1.137984E-02
5.456632E+03	1.901286E-18	6.907769E-18	1.139381E-02
5.456832E+03	1.874318E-18	6.821633E-18	1.140790E-02
5.457832E+03	1.856620E-18	6.801839E-18	1.147833E-02
5.458032E+03	1.829708E-18	6.717013E-18	1.149242E-02
5.458632E+03	1.807023E-18	6.661440E-18	1.153468E-02
5.459231E+03	1.783832E-18	6.604317E-18	1.157731E-02
5.459431E+03	1.756580E-18	6.513341E-18	1.159152E-02
5.459632E+03	1.729255E-18	6.425228E-18	1.160574E-02
5.459832E+03	1.701858E-18	6.336938E-18	1.161995E-02
5.460032E+03	1.674401E-18	6.247937E-18	1.163425E-02
5.460232E+03	1.646648E-18	6.154394E-18	1.164861E-02
5.460632E+03	1.621030E-18	6.078736E-18	1.167721E-02
5.460832E+03	1.593552E-18	5.989802E-18	1.169151E-02
5.461032E+03	1.566013E-18	5.899587E-18	1.170588E-02
5.461232E+03	1.538401E-18	5.809607E-18	1.172026E-02
5.461432E+03	1.511068E-18	5.720497E-18	1.173463E-02
5.461832E+03	1.485009E-18	5.638377E-18	1.176338E-02
5.462032E+03	1.457271E-18	5.547635E-18	1.177783E-02
5.462232E+03	1.429579E-18	5.457269E-18	1.179229E-02
5.462632E+03	1.403530E-18	5.375014E-18	1.182119E-02
5.462832E+03	1.375657E-18	5.280259E-18	1.183564E-02
5.463032E+03	1.347724E-18	5.184094E-18	1.185021E-02
5.463232E+03	1.319600E-18	5.091929E-18	1.186477E-02
5.463632E+03	1.293223E-18	5.010430E-18	1.189390E-02
5.464632E+03	1.271821E-18	4.962401E-18	1.196670E-02
5.465032E+03	1.245669E-18	4.881332E-18	1.199604E-02
5.465232E+03	1.217766E-18	4.787016E-18	1.201071E-02
5.465432E+03	1.189791E-18	4.694393E-18	1.202538E-02
5.465633E+03	1.161704E-18	4.600740E-18	1.204013E-02
5.466033E+03	1.134992E-18	4.517280E-18	1.206963E-02
5.466233E+03	1.107001E-18	4.421467E-18	1.208437E-02
5.466433E+03	1.078891E-18	4.323677E-18	1.209912E-02
5.466633E+03	1.050805E-18	4.231446E-18	1.211387E-02
5.466833E+03	1.022898E-18	4.133785E-18	1.212869E-02
5.467233E+03	9.960727E-19	4.045503E-18	1.215835E-02
5.467433E+03	9.680352E-19	3.946597E-18	1.217317E-02
5.467633E+03	9.399259E-19	3.851755E-18	1.218799E-02
5.468233E+03	9.141081E-19	3.774229E-18	1.223280E-02
5.468433E+03	8.860011E-19	3.674641E-18	1.224773E-02
5.468833E+03	8.593581E-19	3.586549E-18	1.227760E-02
5.469433E+03	8.335981E-19	3.510187E-18	1.232240E-02
5.469633E+03	8.055606E-19	3.418044E-18	1.233744E-02
5.469833E+03	7.777116E-19	3.320795E-18	1.235247E-02
5.470033E+03	7.500641E-19	3.225481E-18	1.236750E-02
5.470233E+03	7.223599E-19	3.129764E-18	1.238253E-02
5.470433E+03	6.946393E-19	3.035342E-18	1.239763E-02
5.470633E+03	6.673455E-19	2.944827E-18	1.241273E-02
5.470833E+03	6.399088E-19	2.855923E-18	1.242783E-02
5.471034E+03	6.125315E-19	2.768618E-18	1.244300E-02
5.471234E+03	5.853355E-19	2.675929E-18	1.245819E-02
5.471434E+03	5.583087E-19	2.594190E-18	1.247339E-02
5.471633E+03	5.313642E-19	2.508874E-18	1.248858E-02
5.472833E+03	5.075681E-19	2.447787E-18	1.257976E-02
5.473033E+03	4.803382E-19	2.364759E-18	1.259507E-02
5.473233E+03	4.532802E-19	2.280068E-18	1.261038E-02
5.473833E+03	4.274923E-19	2.200291E-18	1.265631E-02
5.474033E+03	4.005500E-19	2.116417E-18	1.267162E-02
5.475233E+03	3.762908E-19	2.052146E-18	1.276427E-02
5.475433E+03	3.495892E-19	1.970452E-18	1.277972E-02
5.475633E+03	3.228603E-19	1.892345E-18	1.279516E-02
5.476234E+03	2.970252E-19	1.818324E-18	1.284156E-02
5.476434E+03	2.703725E-19	1.743863E-18	1.285712E-02
5.476834E+03	2.442324E-19	1.681425E-18	1.288826E-02
5.477034E+03	2.182939E-19	1.613358E-18	1.290382E-02
5.477234E+03	1.923438E-19	1.563934E-18	1.291939E-02
5.477434E+03	1.662926E-19	1.517682E-18	1.293502E-02
5.477634E+03	1.403722E-19	1.463706E-18	1.295066E-02
5.478034E+03	1.150239E-19	1.421435E-18	1.298195E-02
5.478234E+03	8.944290E-20	1.379011E-18	1.299759E-02
5.478434E+03	6.420111E-20	1.346707E-18	1.301330E-02
5.478634E+03	3.929026E-20	1.326076E-18	1.302900E-02
5.478834E+03	1.441702E-20	1.313664E-18	1.304471E-02
5.479034E+03	-1.038421E-20	1.307210E-18	1.306042E-02
5.479834E+03	-3.502334E-20	1.316073E-18	1.312375E-02
5.481034E+03	-5.982403E-20	1.334056E-18	1.321874E-02
5.481234E+03	-8.432538E-20	1.342908E-18	1.323457E-02
5.481434E+03	-1.086361E-19	1.356894E-18	1.325040E-02
5.482235E+03	-1.334773E-19	1.397367E-18	1.331444E-02
5.482835E+03	-1.579973E-19	1.441703E-18	1.336242E-02
5.483035E+03	-1.820267E-19	1.486161E-18	1.337841E-02
5.483235E+03	-2.056711E-19	1.526642E-18	1.339441E-02
5.484034E+03	-2.298115E-19	1.575235E-18	1.345895E-02
5.484635E+03	-2.534791E-19	1.629728E-18	1.350736E-02
5.484834E+03	-2.764336E-19	1.686472E-18	1.352349E-02
5.485234E+03	-2.999212E-19	1.745971E-18	1.355576E-02
5.485434E+03	-3.226473E-19	1.802230E-18	1.357200E-02
5.485634E+03	-3.449513E-19	1.856781E-18	1.358825E-02
5.485834E+03	-3.671852E-19	1.918107E-18	1.360449E-02
5.486034E+03	-3.891033E-19	1.979648E-18	1.362073E-02
5.486234E+03	-4.106119E-19	2.048113E-18	1.363706E-02
5.486835E+03	-4.331117E-19	2.125581E-18	1.368614E-02
5.487035E+03	-4.545249E-19	2.195227E-18	1.370248E-02
5.487635E+03	-4.765297E-19	2.267634E-18	1.375147E-02
5.487835E+03	-4.970761E-19	2.336314E-18	1.376790E-02
5.488035E+03	-5.173807E-19	2.402187E-18	1.378432E-02
5.488235E+03	-5.376218E-19	2.468168E-18	1.380075E-02
5.488435E+03	-5.574258E-19	2.537300E-18	1.381716E-02
5.488635E+03	-5.770291E-19	2.606099E-18	1.383365E-02
5.488835E+03	-5.963175E-19	2.674627E-18	1.385013E-02
5.489035E+03	-6.154005E-19	2.745528E-18	1.386662E-02
5.489235E+03	-6.339858E-19	2.814401E-18	1.388310E-02
5.489635E+03	-6.529349E-19	2.882518E-18	1.391622E-02
5.489835E+03	-6.712115E-19	2.947802E-18	1.393278E-02
5.490035E+03	-6.885951E-19	3.009635E-18	1.394934E-02
5.490435E+03	-7.067853E-19	3.080678E-18	1.398246E-02
5.490635E+03	-7.239503E-19	3.143620E-18	1.399912E-02
5.491035E+03	-7.417540E-19	3.212933E-18	1.403243E-02
