#wls	flux	fluxerr	mangling_mask
6.000168E+03	9.415362E-18	6.092212E-18	1.148369E+00
6.000368E+03	9.457622E-18	6.092212E-18	1.148369E+00
6.000568E+03	9.475421E-18	6.092212E-18	1.148369E+00
6.000768E+03	9.491728E-18	6.092212E-18	1.148369E+00
6.000968E+03	9.524916E-18	6.092212E-18	1.148369E+00
6.001168E+03	9.575559E-18	6.092212E-18	1.148369E+00
6.001369E+03	9.620231E-18	6.092212E-18	1.148369E+00
6.001569E+03	9.658357E-18	6.092212E-18	1.148369E+00
6.001769E+03	9.689592E-18	6.092212E-18	1.148369E+00
6.001968E+03	9.698550E-18	6.092212E-18	1.148369E+00
6.002168E+03	9.716234E-18	6.092212E-18	1.148369E+00
6.002368E+03	9.753097E-18	6.092212E-18	1.148369E+00
6.002569E+03	9.754820E-18	6.092212E-18	1.148369E+00
6.002769E+03	9.775720E-18	6.092212E-18	1.148369E+00
6.002968E+03	9.810630E-18	6.092212E-18	1.148369E+00
6.003168E+03	9.821884E-18	6.092212E-18	1.148369E+00
6.003368E+03	9.860125E-18	6.092212E-18	1.148369E+00
6.003568E+03	9.898481E-18	6.092212E-18	1.148369E+00
6.003768E+03	9.931209E-18	6.092212E-18	1.148369E+00
6.003968E+03	9.947286E-18	6.092212E-18	1.148369E+00
6.004168E+03	9.969105E-18	6.092212E-18	1.148369E+00
6.004368E+03	9.994025E-18	6.092212E-18	1.148369E+00
6.004568E+03	1.002480E-17	6.092212E-18	1.148369E+00
6.004768E+03	1.005041E-17	6.092212E-18	1.148369E+00
6.004968E+03	1.006775E-17	6.092212E-18	1.148369E+00
6.005168E+03	1.007832E-17	6.092212E-18	1.148369E+00
6.005368E+03	1.009336E-17	6.092212E-18	1.148369E+00
6.005568E+03	1.010369E-17	6.092212E-18	1.148369E+00
6.005768E+03	1.013011E-17	6.092212E-18	1.148369E+00
6.005968E+03	1.016777E-17	6.092212E-18	1.148369E+00
6.006168E+03	1.021577E-17	6.092212E-18	1.148369E+00
6.006369E+03	1.024850E-17	6.092212E-18	1.148369E+00
6.006569E+03	1.026091E-17	6.092212E-18	1.148369E+00
6.006969E+03	1.027296E-17	6.092212E-18	1.148369E+00
6.007169E+03	1.029639E-17	6.092212E-18	1.148369E+00
6.007369E+03	1.032958E-17	6.092212E-18	1.148369E+00
6.007569E+03	1.036656E-17	6.092212E-18	1.148369E+00
6.007769E+03	1.037494E-17	6.092212E-18	1.148369E+00
6.007969E+03	1.040399E-17	6.092212E-18	1.148369E+00
6.008169E+03	1.043236E-17	6.092212E-18	1.148369E+00
6.008369E+03	1.047645E-17	6.092212E-18	1.148369E+00
6.008769E+03	1.051538E-17	6.092212E-18	1.148369E+00
6.008969E+03	1.054811E-17	6.092212E-18	1.148369E+00
6.009169E+03	1.056143E-17	6.092212E-18	1.148369E+00
6.009369E+03	1.057142E-17	6.092212E-18	1.148369E+00
6.009569E+03	1.058084E-17	6.092212E-18	1.148369E+00
6.009769E+03	1.060232E-17	6.092212E-18	1.148369E+00
6.009969E+03	1.063562E-17	6.092212E-18	1.148369E+00
6.010169E+03	1.067283E-17	6.092212E-18	1.148369E+00
6.010369E+03	1.070096E-17	6.092212E-18	1.148369E+00
6.010569E+03	1.071072E-17	6.092212E-18	1.148369E+00
6.010769E+03	1.071796E-17	6.092212E-18	1.148369E+00
6.010969E+03	1.075379E-17	6.092212E-18	1.148369E+00
6.011169E+03	1.077813E-17	6.092212E-18	1.148369E+00
6.011370E+03	1.079203E-17	6.092212E-18	1.148369E+00
6.011570E+03	1.081442E-17	6.092212E-18	1.148369E+00
6.011770E+03	1.085737E-17	6.092212E-18	1.148369E+00
6.011970E+03	1.090514E-17	6.092212E-18	1.148369E+00
6.012170E+03	1.092616E-17	6.092212E-18	1.148369E+00
6.012370E+03	1.095705E-17	6.092212E-18	1.148369E+00
6.012570E+03	1.097703E-17	6.092212E-18	1.148369E+00
6.012770E+03	1.099311E-17	6.092212E-18	1.148369E+00
6.012970E+03	1.103571E-17	6.092212E-18	1.148369E+00
6.013170E+03	1.108509E-17	6.092212E-18	1.148369E+00
6.013370E+03	1.111610E-17	6.092212E-18	1.148369E+00
6.013570E+03	1.114285E-17	6.092212E-18	1.148369E+00
6.013770E+03	1.116352E-17	6.092212E-18	1.148369E+00
6.013970E+03	1.119499E-17	6.092212E-18	1.148369E+00
6.014170E+03	1.119958E-17	6.092212E-18	1.148369E+00
6.014369E+03	1.122634E-17	6.092212E-18	1.148369E+00
6.014569E+03	1.125562E-17	6.092212E-18	1.148369E+00
6.014770E+03	1.128674E-17	6.092212E-18	1.148369E+00
6.014970E+03	1.133899E-17	6.092212E-18	1.148369E+00
6.015169E+03	1.137448E-17	6.092212E-18	1.148369E+00
6.015369E+03	1.139905E-17	6.092212E-18	1.148369E+00
6.015569E+03	1.142673E-17	6.092212E-18	1.148369E+00
6.015769E+03	1.142753E-17	6.092212E-18	1.148369E+00
6.015969E+03	1.146061E-17	6.092212E-18	1.148369E+00
6.016169E+03	1.147209E-17	6.092212E-18	1.148369E+00
6.016370E+03	1.149402E-17	6.092212E-18	1.148369E+00
6.016570E+03	1.151355E-17	6.092212E-18	1.148369E+00
6.016770E+03	1.151814E-17	6.092212E-18	1.148369E+00
6.016970E+03	1.153422E-17	6.092212E-18	1.148369E+00
6.017170E+03	1.154570E-17	6.092212E-18	1.148369E+00
6.017370E+03	1.157786E-17	6.092212E-18	1.148369E+00
6.017570E+03	1.159393E-17	6.092212E-18	1.148369E+00
6.017770E+03	1.161001E-17	6.092212E-18	1.148369E+00
6.017970E+03	1.163298E-17	6.092212E-18	1.148369E+00
6.018170E+03	1.163527E-17	6.092212E-18	1.148369E+00
6.018370E+03	1.167432E-17	6.092212E-18	1.148369E+00
6.018570E+03	1.172944E-17	6.092212E-18	1.148369E+00
6.018770E+03	1.175700E-17	6.092212E-18	1.148369E+00
6.018970E+03	1.178686E-17	6.092212E-18	1.148369E+00
6.019170E+03	1.181442E-17	6.092212E-18	1.148369E+00
6.019370E+03	1.182590E-17	6.092212E-18	1.148369E+00
6.019570E+03	1.184887E-17	6.092212E-18	1.148369E+00
6.019770E+03	1.188102E-17	6.092212E-18	1.148369E+00
6.019970E+03	1.191892E-17	6.092212E-18	1.148369E+00
6.020170E+03	1.193615E-17	6.092212E-18	1.148369E+00
6.020370E+03	1.195452E-17	6.092212E-18	1.148369E+00
6.020570E+03	1.197175E-17	6.092212E-18	1.148369E+00
6.020770E+03	1.197634E-17	6.092212E-18	1.148369E+00
6.020970E+03	1.199816E-17	6.092212E-18	1.148369E+00
6.021170E+03	1.202916E-17	6.092212E-18	1.148369E+00
6.021371E+03	1.203261E-17	6.092212E-18	1.148369E+00
6.021571E+03	1.206476E-17	6.092212E-18	1.148369E+00
6.021771E+03	1.209462E-17	6.092212E-18	1.148369E+00
6.021971E+03	1.210036E-17	6.092212E-18	1.148369E+00
6.022171E+03	1.212333E-17	6.092212E-18	1.148369E+00
6.022371E+03	1.215893E-17	6.092212E-18	1.148369E+00
6.022571E+03	1.218190E-17	6.092212E-18	1.148369E+00
6.022771E+03	1.218879E-17	6.092212E-18	1.148369E+00
6.022971E+03	1.221290E-17	6.092212E-18	1.148369E+00
6.023171E+03	1.223128E-17	6.092212E-18	1.148369E+00
6.023371E+03	1.222898E-17	6.092212E-18	1.148369E+00
6.023571E+03	1.223817E-17	6.092212E-18	1.148369E+00
6.023771E+03	1.224391E-17	6.092212E-18	1.148369E+00
6.023971E+03	1.225654E-17	6.092212E-18	1.148369E+00
6.024171E+03	1.228295E-17	6.092212E-18	1.148369E+00
6.024371E+03	1.228525E-17	6.092212E-18	1.148369E+00
6.024571E+03	1.228640E-17	6.101973E-18	1.148369E+00
6.024771E+03	1.230592E-17	6.125974E-18	1.148369E+00
6.024971E+03	1.231855E-17	6.118165E-18	1.148369E+00
6.025171E+03	1.231740E-17	6.140329E-18	1.148369E+00
6.025371E+03	1.233348E-17	6.158588E-18	1.148369E+00
6.025571E+03	1.234841E-17	6.167545E-18	1.148369E+00
6.025771E+03	1.235645E-17	6.164789E-18	1.148369E+00
6.025971E+03	1.238516E-17	6.169267E-18	1.148369E+00
6.026172E+03	1.241042E-17	6.194072E-18	1.148369E+00
6.026372E+03	1.241272E-17	6.193153E-18	1.148369E+00
6.026572E+03	1.244373E-17	6.192579E-18	1.148369E+00
6.026771E+03	1.248966E-17	6.187526E-18	1.148369E+00
6.026971E+03	1.253100E-17	6.189938E-18	1.148369E+00
6.027172E+03	1.255282E-17	6.191431E-18	1.148369E+00
6.027372E+03	1.255627E-17	6.207278E-18	1.148369E+00
6.027572E+03	1.256201E-17	6.207049E-18	1.148369E+00
6.027771E+03	1.258497E-17	6.213365E-18	1.148369E+00
6.027971E+03	1.261368E-17	6.213709E-18	1.148369E+00
6.028171E+03	1.263206E-17	6.173631E-18	1.148369E+00
6.028371E+03	1.264584E-17	6.131142E-18	1.148369E+00
6.028571E+03	1.266306E-17	6.125974E-18	1.148369E+00
6.028771E+03	1.267455E-17	6.110815E-18	1.148369E+00
6.028971E+03	1.268373E-17	5.924665E-18	1.148369E+00
6.029371E+03	1.270785E-17	5.913411E-18	1.148369E+00
6.029571E+03	1.274575E-17	5.898252E-18	1.148369E+00
6.029771E+03	1.277101E-17	5.889984E-18	1.148369E+00
6.029971E+03	1.278249E-17	5.887458E-18	1.148369E+00
6.030171E+03	1.279972E-17	5.880108E-18	1.148369E+00
6.030371E+03	1.282728E-17	5.864261E-18	1.148369E+00
6.030571E+03	1.286518E-17	5.850595E-18	1.148369E+00
6.030771E+03	1.288585E-17	5.639410E-18	1.148369E+00
6.030971E+03	1.289503E-17	5.554775E-18	1.148369E+00
6.031172E+03	1.293178E-17	5.576824E-18	1.148369E+00
6.031372E+03	1.295819E-17	5.590030E-18	1.148369E+00
6.031572E+03	1.296968E-17	5.608060E-18	1.148369E+00
6.031772E+03	1.298805E-17	5.615524E-18	1.148369E+00
6.031972E+03	1.299839E-17	5.643889E-18	1.148369E+00
6.032172E+03	1.299954E-17	5.625515E-18	1.148369E+00
6.032372E+03	1.299724E-17	5.589571E-18	1.148369E+00
6.032572E+03	1.303628E-17	5.587963E-18	1.148369E+00
6.032772E+03	1.306499E-17	5.601169E-18	1.148369E+00
6.032972E+03	1.309830E-17	5.609552E-18	1.148369E+00
6.033172E+03	1.310519E-17	5.604500E-18	1.148369E+00
6.033372E+03	1.312011E-17	5.605878E-18	1.148369E+00
6.033572E+03	1.312586E-17	5.598758E-18	1.148369E+00
6.033772E+03	1.312471E-17	5.537665E-18	1.148369E+00
6.033972E+03	1.312930E-17	5.536516E-18	1.148369E+00
6.034172E+03	1.314882E-17	5.531348E-18	1.148369E+00
6.034372E+03	1.314653E-17	5.546851E-18	1.148369E+00
6.034572E+03	1.317179E-17	5.519291E-18	1.148369E+00
6.034772E+03	1.317179E-17	5.520669E-18	1.148369E+00
6.034972E+03	1.317064E-17	5.507807E-18	1.148369E+00
6.035172E+03	1.318213E-17	5.509644E-18	1.148369E+00
6.035372E+03	1.319706E-17	5.502639E-18	1.148369E+00
6.035572E+03	1.319131E-17	5.532382E-18	1.148369E+00
6.035772E+03	1.318787E-17	5.513434E-18	1.148369E+00
6.035972E+03	1.318672E-17	5.502524E-18	1.148369E+00
6.036173E+03	1.317983E-17	5.514008E-18	1.148369E+00
6.036373E+03	1.316720E-17	5.539043E-18	1.148369E+00
6.036573E+03	1.317753E-17	5.540880E-18	1.148369E+00
6.036773E+03	1.319935E-17	5.513549E-18	1.148369E+00
6.036973E+03	1.320739E-17	5.513778E-18	1.148369E+00
6.037173E+03	1.321773E-17	5.510793E-18	1.148369E+00
6.037373E+03	1.323036E-17	5.494601E-18	1.148369E+00
6.037573E+03	1.323265E-17	5.491959E-18	1.148369E+00
6.037773E+03	1.322347E-17	5.462561E-18	1.148369E+00
6.037973E+03	1.322806E-17	5.463480E-18	1.148369E+00
6.038173E+03	1.324414E-17	5.517109E-18	1.148369E+00
6.038373E+03	1.325562E-17	5.523310E-18	1.148369E+00
6.038773E+03	1.326596E-17	5.538009E-18	1.148369E+00
6.038973E+03	1.328203E-17	5.554546E-18	1.148369E+00
6.039172E+03	1.329926E-17	5.571427E-18	1.148369E+00
6.039373E+03	1.331878E-17	5.568326E-18	1.148369E+00
6.039573E+03	1.331304E-17	5.555464E-18	1.148369E+00
6.039773E+03	1.330500E-17	5.569589E-18	1.148369E+00
6.039972E+03	1.329696E-17	5.565800E-18	1.148369E+00
6.040172E+03	1.330156E-17	5.533071E-18	1.148369E+00
6.040372E+03	1.329926E-17	5.489318E-18	1.148369E+00
6.040572E+03	1.329467E-17	5.444187E-18	1.148369E+00
6.040772E+03	1.330041E-17	5.417086E-18	1.148369E+00
6.040972E+03	1.329926E-17	5.416626E-18	1.148369E+00
6.041173E+03	1.329122E-17	5.412952E-18	1.148369E+00
6.041373E+03	1.329926E-17	5.412148E-18	1.148369E+00
6.041573E+03	1.332338E-17	5.412492E-18	1.148369E+00
6.041773E+03	1.332108E-17	5.407325E-18	1.148369E+00
6.041973E+03	1.331074E-17	5.403880E-18	1.148369E+00
6.042173E+03	1.331074E-17	5.427651E-18	1.148369E+00
6.042373E+03	1.331649E-17	5.427995E-18	1.148369E+00
6.042573E+03	1.332223E-17	5.517338E-18	1.148369E+00
6.042773E+03	1.332223E-17	5.501950E-18	1.148369E+00
6.042973E+03	1.331993E-17	5.524573E-18	1.148369E+00
6.043173E+03	1.332108E-17	5.508496E-18	1.148369E+00
6.043373E+03	1.332223E-17	5.502065E-18	1.148369E+00
6.043573E+03	1.333716E-17	5.494027E-18	1.148369E+00
6.043773E+03	1.333830E-17	5.540421E-18	1.148369E+00
6.043973E+03	1.332797E-17	5.536976E-18	1.148369E+00
6.044173E+03	1.332223E-17	5.559598E-18	1.148369E+00
6.044373E+03	1.334175E-17	5.583484E-18	1.148369E+00
6.044573E+03	1.336127E-17	5.595427E-18	1.148369E+00
6.044773E+03	1.336587E-17	5.610586E-18	1.148369E+00
6.044973E+03	1.337161E-17	5.603696E-18	1.148369E+00
6.045173E+03	1.339113E-17	5.570163E-18	1.148369E+00
6.045373E+03	1.341984E-17	5.546162E-18	1.148369E+00
6.045573E+03	1.341984E-17	5.551330E-18	1.148369E+00
6.045773E+03	1.342328E-17	5.536631E-18	1.148369E+00
6.045973E+03	1.342328E-17	5.554890E-18	1.148369E+00
6.046174E+03	1.341639E-17	5.574987E-18	1.148369E+00
6.046374E+03	1.342443E-17	5.574297E-18	1.148369E+00
6.046774E+03	1.343936E-17	5.573379E-18	1.148369E+00
6.046974E+03	1.343477E-17	5.555809E-18	1.148369E+00
6.047374E+03	1.344510E-17	5.555464E-18	1.148369E+00
6.047574E+03	1.346692E-17	5.538813E-18	1.148369E+00
6.047774E+03	1.347841E-17	5.529856E-18	1.148369E+00
6.047974E+03	1.348185E-17	5.544095E-18	1.148369E+00
6.048174E+03	1.348300E-17	5.560287E-18	1.148369E+00
6.048374E+03	1.347841E-17	5.604500E-18	1.148369E+00
6.048574E+03	1.346692E-17	5.614835E-18	1.148369E+00
6.048774E+03	1.345314E-17	5.646071E-18	1.148369E+00
6.048974E+03	1.346003E-17	5.661459E-18	1.148369E+00
6.049174E+03	1.346577E-17	5.664559E-18	1.148369E+00
6.049374E+03	1.344855E-17	5.661688E-18	1.148369E+00
6.049574E+03	1.345659E-17	5.653765E-18	1.148369E+00
6.049774E+03	1.346118E-17	5.649401E-18	1.148369E+00
6.049974E+03	1.345429E-17	5.649975E-18	1.148369E+00
6.050174E+03	1.346003E-17	5.646989E-18	1.148369E+00
6.050374E+03	1.346807E-17	5.643200E-18	1.148369E+00
6.050574E+03	1.346807E-17	5.657554E-18	1.148369E+00
6.050774E+03	1.345314E-17	5.661688E-18	1.148369E+00
6.050975E+03	1.344855E-17	5.660885E-18	1.148369E+00
6.051175E+03	1.343132E-17	5.675354E-18	1.148369E+00
6.051375E+03	1.341410E-17	5.693383E-18	1.148369E+00
6.051574E+03	1.342558E-17	5.686034E-18	1.148369E+00
6.051775E+03	1.342558E-17	5.685574E-18	1.148369E+00
6.051975E+03	1.341525E-17	5.660425E-18	1.148369E+00
6.052175E+03	1.342558E-17	5.669957E-18	1.148369E+00
6.052374E+03	1.342788E-17	5.644922E-18	1.148369E+00
6.052574E+03	1.344166E-17	5.603925E-18	1.148369E+00
6.052774E+03	1.342214E-17	5.601973E-18	1.148369E+00
6.052974E+03	1.341869E-17	5.633094E-18	1.148369E+00
6.053174E+03	1.343247E-17	5.630338E-18	1.148369E+00
6.053374E+03	1.343936E-17	5.628845E-18	1.148369E+00
6.053574E+03	1.343706E-17	5.612309E-18	1.148369E+00
6.053774E+03	1.342903E-17	5.603466E-18	1.148369E+00
6.053974E+03	1.344166E-17	5.622644E-18	1.148369E+00
6.054174E+03	1.345084E-17	5.622644E-18	1.148369E+00
6.054374E+03	1.345199E-17	5.620692E-18	1.148369E+00
6.054574E+03	1.343247E-17	5.626204E-18	1.148369E+00
6.054774E+03	1.342099E-17	5.636884E-18	1.148369E+00
6.054974E+03	1.343362E-17	5.635046E-18	1.148369E+00
6.055174E+03	1.342214E-17	5.634931E-18	1.148369E+00
6.055374E+03	1.341639E-17	5.605992E-18	1.148369E+00
6.055574E+03	1.340376E-17	5.610127E-18	1.148369E+00
6.055774E+03	1.339457E-17	5.606911E-18	1.148369E+00
6.055975E+03	1.338768E-17	5.653305E-18	1.148369E+00
6.056175E+03	1.338539E-17	5.668693E-18	1.148369E+00
6.056375E+03	1.337965E-17	5.668808E-18	1.148369E+00
6.056575E+03	1.338539E-17	5.682359E-18	1.148369E+00
6.056775E+03	1.337965E-17	5.705097E-18	1.148369E+00
6.056975E+03	1.336701E-17	5.695795E-18	1.148369E+00
6.057175E+03	1.335209E-17	5.693958E-18	1.148369E+00
6.057375E+03	1.334405E-17	5.651009E-18	1.148369E+00
6.057575E+03	1.334864E-17	5.647678E-18	1.148369E+00
6.057775E+03	1.335094E-17	5.646415E-18	1.148369E+00
6.057975E+03	1.335898E-17	5.652157E-18	1.148369E+00
6.058575E+03	1.336012E-17	5.652157E-18	1.148369E+00
6.058775E+03	1.336701E-17	5.683048E-18	1.148369E+00
6.058975E+03	1.337850E-17	5.705441E-18	1.148369E+00
6.059175E+03	1.336816E-17	5.677536E-18	1.148369E+00
6.059375E+03	1.335438E-17	5.715547E-18	1.148369E+00
6.059575E+03	1.334290E-17	5.739318E-18	1.148369E+00
6.059775E+03	1.333486E-17	5.780315E-18	1.148369E+00
6.059975E+03	1.333256E-17	5.796392E-18	1.148369E+00
6.060175E+03	1.333830E-17	5.801100E-18	1.148369E+00
6.060375E+03	1.334864E-17	5.825561E-18	1.148369E+00
6.060575E+03	1.334979E-17	5.820623E-18	1.148369E+00
6.060775E+03	1.335668E-17	5.854385E-18	1.148369E+00
6.060976E+03	1.336242E-17	5.857715E-18	1.148369E+00
6.061176E+03	1.336816E-17	5.829810E-18	1.148369E+00
6.061376E+03	1.339343E-17	5.886080E-18	1.148369E+00
6.061576E+03	1.340836E-17	5.895726E-18	1.148369E+00
6.061776E+03	1.338539E-17	5.913066E-18	1.148369E+00
6.061976E+03	1.336472E-17	5.925813E-18	1.148369E+00
6.062176E+03	1.335668E-17	5.929029E-18	1.148369E+00
6.062376E+03	1.335438E-17	5.928569E-18	1.148369E+00
6.062576E+03	1.335783E-17	5.970255E-18	1.148369E+00
6.062776E+03	1.333945E-17	5.983691E-18	1.148369E+00
6.062976E+03	1.333601E-17	6.002754E-18	1.148369E+00
6.063176E+03	1.333830E-17	6.022161E-18	1.148369E+00
6.063376E+03	1.336012E-17	6.035253E-18	1.148369E+00
6.063576E+03	1.336357E-17	6.043980E-18	1.148369E+00
6.063776E+03	1.334749E-17	6.045129E-18	1.148369E+00
6.063975E+03	1.333830E-17	5.964743E-18	1.148369E+00
6.064176E+03	1.334634E-17	5.966236E-18	1.148369E+00
6.064376E+03	1.332682E-17	5.920071E-18	1.148369E+00
6.064575E+03	1.331534E-17	5.906176E-18	1.148369E+00
6.064775E+03	1.330730E-17	5.892970E-18	1.148369E+00
6.064975E+03	1.331419E-17	5.893314E-18	1.148369E+00
6.065175E+03	1.332223E-17	5.898827E-18	1.148369E+00
6.065375E+03	1.333256E-17	5.961527E-18	1.148369E+00
6.065575E+03	1.332797E-17	5.939708E-18	1.148369E+00
6.065775E+03	1.331419E-17	5.894348E-18	1.148369E+00
6.065976E+03	1.330156E-17	5.878960E-18	1.148369E+00
6.066176E+03	1.329237E-17	5.885276E-18	1.148369E+00
6.066376E+03	1.329467E-17	5.878500E-18	1.148369E+00
6.066576E+03	1.330500E-17	5.870806E-18	1.148369E+00
6.066776E+03	1.329007E-17	5.872299E-18	1.148369E+00
6.066976E+03	1.328548E-17	5.880108E-18	1.148369E+00
6.067176E+03	1.327514E-17	5.875055E-18	1.148369E+00
6.067376E+03	1.328433E-17	5.861619E-18	1.148369E+00
6.067576E+03	1.329811E-17	5.859782E-18	1.148369E+00
6.067776E+03	1.330156E-17	5.873218E-18	1.148369E+00
6.067976E+03	1.330041E-17	5.873103E-18	1.148369E+00
6.068176E+03	1.331763E-17	5.842671E-18	1.148369E+00
6.068376E+03	1.330615E-17	5.865524E-18	1.148369E+00
6.068576E+03	1.330615E-17	5.870806E-18	1.148369E+00
6.068776E+03	1.329467E-17	5.868739E-18	1.148369E+00
6.068976E+03	1.329926E-17	5.863227E-18	1.148369E+00
6.069376E+03	1.330041E-17	5.859782E-18	1.148369E+00
6.069576E+03	1.329696E-17	5.836240E-18	1.148369E+00
6.069776E+03	1.329352E-17	5.840719E-18	1.148369E+00
6.069976E+03	1.330500E-17	5.843590E-18	1.148369E+00
6.070176E+03	1.330271E-17	5.870806E-18	1.148369E+00
6.070376E+03	1.329811E-17	5.870806E-18	1.148369E+00
6.070576E+03	1.329467E-17	5.879189E-18	1.148369E+00
6.070777E+03	1.327170E-17	5.873792E-18	1.148369E+00
6.070977E+03	1.326825E-17	5.902731E-18	1.148369E+00
6.071177E+03	1.327974E-17	5.898367E-18	1.148369E+00
6.071377E+03	1.327859E-17	5.862308E-18	1.148369E+00
6.071577E+03	1.328778E-17	5.849217E-18	1.148369E+00
6.071777E+03	1.328433E-17	5.858059E-18	1.148369E+00
6.071977E+03	1.328433E-17	5.848528E-18	1.148369E+00
6.072177E+03	1.329122E-17	5.834748E-18	1.148369E+00
6.072377E+03	1.329122E-17	5.808794E-18	1.148369E+00
6.072577E+03	1.326596E-17	5.816029E-18	1.148369E+00
6.072777E+03	1.325333E-17	5.826250E-18	1.148369E+00
6.072977E+03	1.326136E-17	5.849102E-18	1.148369E+00
6.073177E+03	1.326366E-17	5.844509E-18	1.148369E+00
6.073377E+03	1.325562E-17	5.833714E-18	1.148369E+00
6.073577E+03	1.323725E-17	5.848528E-18	1.148369E+00
6.073777E+03	1.322347E-17	5.837044E-18	1.148369E+00
6.073977E+03	1.321198E-17	5.813618E-18	1.148369E+00
6.074177E+03	1.320624E-17	5.828432E-18	1.148369E+00
6.074377E+03	1.321313E-17	5.816718E-18	1.148369E+00
6.074577E+03	1.323036E-17	5.796966E-18	1.148369E+00
6.074777E+03	1.322806E-17	5.769980E-18	1.148369E+00
6.074977E+03	1.321313E-17	5.824297E-18	1.148369E+00
6.075177E+03	1.320624E-17	5.852547E-18	1.148369E+00
6.075377E+03	1.320395E-17	5.845083E-18	1.148369E+00
6.075577E+03	1.320739E-17	5.847954E-18	1.148369E+00
6.075778E+03	1.320624E-17	5.874137E-18	1.148369E+00
6.075978E+03	1.320280E-17	5.880797E-18	1.148369E+00
6.076178E+03	1.318098E-17	5.866787E-18	1.148369E+00
6.076377E+03	1.314882E-17	5.913526E-18	1.148369E+00
6.076578E+03	1.311897E-17	5.901123E-18	1.148369E+00
6.076977E+03	1.309141E-17	5.905717E-18	1.148369E+00
6.077177E+03	1.306614E-17	5.922942E-18	1.148369E+00
6.077377E+03	1.304317E-17	5.932244E-18	1.148369E+00
6.077577E+03	1.302825E-17	5.942350E-18	1.148369E+00
6.077777E+03	1.301561E-17	5.943154E-18	1.148369E+00
6.077977E+03	1.300413E-17	5.949240E-18	1.148369E+00
6.078177E+03	1.299494E-17	5.947517E-18	1.148369E+00
6.078377E+03	1.298690E-17	5.944187E-18	1.148369E+00
6.078577E+03	1.298116E-17	5.942809E-18	1.148369E+00
6.078777E+03	1.297542E-17	5.939249E-18	1.148369E+00
