#wls	flux	fluxerr
1.584409E+03	2.714066E-04	8.712560E-05
1.624020E+03	2.803463E-04	8.967027E-05
1.663630E+03	2.897830E-04	9.234588E-05
1.703240E+03	2.997216E-04	9.515144E-05
1.742850E+03	3.101903E-04	9.809327E-05
1.782461E+03	3.212410E-04	1.011849E-04
1.822071E+03	3.328136E-04	1.044043E-04
1.861681E+03	3.449782E-04	1.077705E-04
1.901291E+03	3.577194E-04	1.112753E-04
1.940902E+03	3.710169E-04	1.149090E-04
1.980512E+03	3.848188E-04	1.186523E-04
2.020122E+03	3.990940E-04	1.224922E-04
2.059732E+03	4.137550E-04	1.263989E-04
2.099342E+03	4.286570E-04	1.303254E-04
2.138953E+03	4.437319E-04	1.342486E-04
2.178563E+03	4.588045E-04	1.381137E-04
2.218173E+03	4.737266E-04	1.418749E-04
2.257783E+03	4.883994E-04	1.455022E-04
2.297394E+03	5.027736E-04	1.489807E-04
2.337004E+03	5.168692E-04	1.523165E-04
2.376614E+03	5.307246E-04	1.555207E-04
2.416224E+03	5.443687E-04	1.586018E-04
2.455835E+03	5.578908E-04	1.615854E-04
2.495445E+03	5.712973E-04	1.644727E-04
2.535055E+03	5.846293E-04	1.672747E-04
2.574665E+03	5.978472E-04	1.699794E-04
2.614276E+03	6.109249E-04	1.725787E-04
2.653886E+03	6.237824E-04	1.750498E-04
2.693496E+03	6.363342E-04	1.773689E-04
2.733106E+03	6.484890E-04	1.795113E-04
2.772716E+03	6.601306E-04	1.814463E-04
2.812327E+03	6.711421E-04	1.831439E-04
2.851937E+03	6.814420E-04	1.845850E-04
2.891547E+03	6.909101E-04	1.857406E-04
2.931157E+03	6.995125E-04	1.866062E-04
2.970768E+03	7.071585E-04	1.871624E-04
2.980670E+03	7.089336E-04	1.872572E-04
2.990573E+03	7.106343E-04	1.873292E-04
3.000475E+03	7.122582E-04	1.873780E-04
3.010378E+03	7.138354E-04	1.874114E-04
3.020280E+03	7.153464E-04	1.874246E-04
3.030183E+03	7.167890E-04	1.874170E-04
3.040086E+03	7.181761E-04	1.873921E-04
3.049988E+03	7.194897E-04	1.873453E-04
3.059891E+03	7.207273E-04	1.872760E-04
3.069793E+03	7.219161E-04	1.871915E-04
3.079696E+03	7.230239E-04	1.870835E-04
3.089598E+03	7.240628E-04	1.869552E-04
3.099501E+03	7.250160E-04	1.868024E-04
3.109403E+03	7.259242E-04	1.866357E-04
3.119306E+03	7.267412E-04	1.864434E-04
3.129209E+03	7.274796E-04	1.862289E-04
3.139111E+03	7.281503E-04	1.859950E-04
3.149014E+03	7.287511E-04	1.857413E-04
3.158916E+03	7.292520E-04	1.854603E-04
3.168819E+03	7.296912E-04	1.851618E-04
3.178721E+03	7.300400E-04	1.848388E-04
3.188624E+03	7.303087E-04	1.844939E-04
3.198526E+03	7.304821E-04	1.841235E-04
3.208429E+03	7.305716E-04	1.837306E-04
3.218332E+03	7.305746E-04	1.833147E-04
3.228234E+03	7.304892E-04	1.828755E-04
3.238137E+03	7.303006E-04	1.824095E-04
3.248039E+03	7.300199E-04	1.819195E-04
3.257942E+03	7.296451E-04	1.814054E-04
3.267844E+03	7.291624E-04	1.808637E-04
3.277747E+03	7.285823E-04	1.802974E-04
3.287650E+03	7.278914E-04	1.797033E-04
3.297552E+03	7.271004E-04	1.790843E-04
3.307455E+03	7.261965E-04	1.784373E-04
3.317357E+03	7.251790E-04	1.777625E-04
3.327260E+03	7.240465E-04	1.770596E-04
3.337162E+03	7.227991E-04	1.763290E-04
3.347065E+03	7.214352E-04	1.755705E-04
3.356967E+03	7.199444E-04	1.747817E-04
3.366870E+03	7.183370E-04	1.739654E-04
3.376773E+03	7.165922E-04	1.731169E-04
3.386675E+03	7.147305E-04	1.722413E-04
3.396578E+03	7.127320E-04	1.713340E-04
3.406480E+03	7.105976E-04	1.703956E-04
3.416383E+03	7.083282E-04	1.694265E-04
3.426285E+03	7.059152E-04	1.684249E-04
3.436188E+03	7.033691E-04	1.673936E-04
3.446090E+03	7.006824E-04	1.663312E-04
3.455993E+03	6.978471E-04	1.652359E-04
3.465896E+03	6.948654E-04	1.641087E-04
3.475798E+03	6.917312E-04	1.629483E-04
3.485701E+03	6.884550E-04	1.617575E-04
3.495603E+03	6.850141E-04	1.605313E-04
3.505506E+03	6.814204E-04	1.592728E-04
3.515408E+03	6.776687E-04	1.579812E-04
3.525311E+03	6.737632E-04	1.566576E-04
3.535213E+03	6.696911E-04	1.552994E-04
3.545116E+03	6.654492E-04	1.539063E-04
3.555019E+03	6.610504E-04	1.524816E-04
3.564921E+03	6.564766E-04	1.510213E-04
3.574824E+03	6.517410E-04	1.495290E-04
3.584726E+03	6.468415E-04	1.480044E-04
3.594629E+03	6.417695E-04	1.464459E-04
3.604531E+03	6.365246E-04	1.448538E-04
3.614434E+03	6.311136E-04	1.432300E-04
3.624337E+03	6.255300E-04	1.415733E-04
3.634239E+03	6.197877E-04	1.398873E-04
3.644142E+03	6.138741E-04	1.381694E-04
3.654044E+03	6.077973E-04	1.364218E-04
3.663947E+03	6.015593E-04	1.346453E-04
3.673849E+03	5.951682E-04	1.328421E-04
3.683752E+03	5.886201E-04	1.310115E-04
3.693654E+03	5.819238E-04	1.291559E-04
3.703557E+03	5.750825E-04	1.272763E-04
3.713460E+03	5.681045E-04	1.253748E-04
3.723362E+03	5.609937E-04	1.234526E-04
3.733265E+03	5.537583E-04	1.215117E-04
3.743167E+03	5.464022E-04	1.195533E-04
3.753070E+03	5.389290E-04	1.175785E-04
3.762972E+03	5.313586E-04	1.155917E-04
3.772875E+03	5.236836E-04	1.135916E-04
3.782777E+03	5.159184E-04	1.115815E-04
3.792680E+03	5.080764E-04	1.095646E-04
3.802583E+03	5.001562E-04	1.075407E-04
3.812485E+03	4.921666E-04	1.055119E-04
3.822388E+03	4.841205E-04	1.034810E-04
3.832290E+03	4.760259E-04	1.014499E-04
3.842193E+03	4.678902E-04	9.942035E-05
3.852095E+03	4.597171E-04	9.739316E-05
3.861998E+03	4.515180E-04	9.537084E-05
3.871900E+03	4.433004E-04	9.335503E-05
3.881803E+03	4.350708E-04	9.134718E-05
3.891706E+03	4.268363E-04	8.934879E-05
3.901608E+03	4.186035E-04	8.736128E-05
3.911511E+03	4.103822E-04	8.538667E-05
3.921413E+03	4.021786E-04	8.342624E-05
3.931316E+03	3.939945E-04	8.148038E-05
3.941218E+03	3.858429E-04	7.955173E-05
3.951121E+03	3.777255E-04	7.764055E-05
3.961024E+03	3.696508E-04	7.574854E-05
3.970926E+03	3.616230E-04	7.387651E-05
3.980829E+03	3.536439E-04	7.202473E-05
3.990731E+03	3.457243E-04	7.019526E-05
4.000634E+03	3.378649E-04	6.838820E-05
4.010536E+03	3.300728E-04	6.660484E-05
4.020439E+03	3.223513E-04	6.484571E-05
4.030341E+03	3.147042E-04	6.311143E-05
4.040244E+03	3.071344E-04	6.140245E-05
4.050147E+03	2.996479E-04	5.971983E-05
4.060049E+03	2.922446E-04	5.806337E-05
4.069952E+03	2.849276E-04	5.643353E-05
4.079854E+03	2.777039E-04	5.483150E-05
4.089757E+03	2.705714E-04	5.325671E-05
4.099659E+03	2.635341E-04	5.170974E-05
4.109562E+03	2.565947E-04	5.019090E-05
4.119464E+03	2.497547E-04	4.870026E-05
4.129367E+03	2.430164E-04	4.723802E-05
4.139270E+03	2.363818E-04	4.580436E-05
4.149172E+03	2.298524E-04	4.439936E-05
4.159075E+03	2.234299E-04	4.302308E-05
4.168977E+03	2.171158E-04	4.167562E-05
4.178880E+03	2.109110E-04	4.035690E-05
4.188782E+03	2.048150E-04	3.906661E-05
4.198685E+03	1.988289E-04	3.780473E-05
4.208587E+03	1.929551E-04	3.657150E-05
4.218490E+03	1.871944E-04	3.536682E-05
4.228393E+03	1.815439E-04	3.418994E-05
4.238295E+03	1.760057E-04	3.304106E-05
4.248198E+03	1.705803E-04	3.192000E-05
4.258100E+03	1.652677E-04	3.082657E-05
4.268003E+03	1.600679E-04	2.976056E-05
4.277905E+03	1.549795E-04	2.872148E-05
4.287808E+03	1.500051E-04	2.770959E-05
4.297711E+03	1.451415E-04	2.672411E-05
4.307613E+03	1.403911E-04	2.576523E-05
4.317516E+03	1.357530E-04	2.483263E-05
4.327418E+03	1.312276E-04	2.392614E-05
4.337321E+03	1.268141E-04	2.304541E-05
4.347223E+03	1.225125E-04	2.219023E-05
4.357126E+03	1.183220E-04	2.136024E-05
4.367028E+03	1.142438E-04	2.055549E-05
4.376931E+03	1.102771E-04	1.977560E-05
4.386834E+03	1.064208E-04	1.902017E-05
4.396736E+03	1.026753E-04	1.828911E-05
4.406639E+03	9.903933E-05	1.758194E-05
4.416541E+03	9.551198E-05	1.689833E-05
4.426444E+03	9.209317E-05	1.623808E-05
4.436346E+03	8.878006E-05	1.560048E-05
4.446249E+03	8.557223E-05	1.498528E-05
4.456151E+03	8.246822E-05	1.439203E-05
4.466054E+03	7.946574E-05	1.382014E-05
4.475957E+03	7.656314E-05	1.326916E-05
4.485859E+03	7.375870E-05	1.273860E-05
4.495762E+03	7.105059E-05	1.222798E-05
4.505664E+03	6.843693E-05	1.173680E-05
4.515567E+03	6.591507E-05	1.126444E-05
4.525469E+03	6.348245E-05	1.081030E-05
4.535372E+03	6.113825E-05	1.037409E-05
4.545274E+03	5.887922E-05	9.955101E-06
4.555177E+03	5.670274E-05	9.552735E-06
4.565080E+03	5.460731E-05	9.166595E-06
4.574982E+03	5.259079E-05	8.796182E-06
4.584885E+03	5.064962E-05	8.440759E-06
4.594787E+03	4.878322E-05	8.100097E-06
4.604690E+03	4.698760E-05	7.773403E-06
4.614592E+03	4.526170E-05	7.460376E-06
4.624495E+03	4.360306E-05	7.160488E-06
4.634398E+03	4.200927E-05	6.873224E-06
4.644300E+03	4.047797E-05	6.598085E-06
4.654203E+03	3.900692E-05	6.334594E-06
4.664105E+03	3.759466E-05	6.082407E-06
4.674008E+03	3.623860E-05	5.841003E-06
4.683910E+03	3.493665E-05	5.609943E-06
4.693813E+03	3.368709E-05	5.388858E-06
4.703715E+03	3.248726E-05	5.177229E-06
4.713618E+03	3.133626E-05	4.974823E-06
4.723521E+03	3.023123E-05	4.781102E-06
4.733423E+03	2.917105E-05	4.595804E-06
4.743326E+03	2.815393E-05	4.418570E-06
4.753228E+03	2.717766E-05	4.248975E-06
4.763131E+03	2.624092E-05	4.086742E-06
4.773033E+03	2.534241E-05	3.931598E-06
4.782936E+03	2.448013E-05	3.783162E-06
4.792838E+03	2.365291E-05	3.641192E-06
4.802741E+03	2.285935E-05	3.505409E-06
4.812644E+03	2.209789E-05	3.375514E-06
4.822546E+03	2.136730E-05	3.251260E-06
4.832449E+03	2.066653E-05	3.132436E-06
4.842351E+03	1.999423E-05	3.018779E-06
4.852254E+03	1.934943E-05	2.910097E-06
4.862156E+03	1.873067E-05	2.806120E-06
4.872059E+03	1.813711E-05	2.706674E-06
4.881961E+03	1.756775E-05	2.611567E-06
4.891864E+03	1.702145E-05	2.520586E-06
4.901767E+03	1.649747E-05	2.433579E-06
4.911669E+03	1.599476E-05	2.350354E-06
4.921572E+03	1.551263E-05	2.270771E-06
4.931474E+03	1.505013E-05	2.194654E-06
4.941377E+03	1.460647E-05	2.121853E-06
4.951279E+03	1.418077E-05	2.052206E-06
4.961182E+03	1.377261E-05	1.985623E-06
4.971085E+03	1.338103E-05	1.921935E-06
4.980987E+03	1.300537E-05	1.861016E-06
4.990890E+03	1.264516E-05	1.802771E-06
5.000792E+03	1.229966E-05	1.747069E-06
5.010695E+03	1.196832E-05	1.693806E-06
5.020597E+03	1.165058E-05	1.642878E-06
5.030500E+03	1.134592E-05	1.594189E-06
5.040402E+03	1.105375E-05	1.547633E-06
5.050305E+03	1.077358E-05	1.503120E-06
5.060208E+03	1.050506E-05	1.460583E-06
5.070110E+03	1.024757E-05	1.419913E-06
5.080013E+03	1.000090E-05	1.381065E-06
5.089915E+03	9.764348E-06	1.343923E-06
5.099818E+03	9.537749E-06	1.308448E-06
5.109720E+03	9.320649E-06	1.274562E-06
5.119623E+03	9.112709E-06	1.242203E-06
5.129525E+03	8.913608E-06	1.211312E-06
5.139428E+03	8.722950E-06	1.181822E-06
5.149331E+03	8.540447E-06	1.153681E-06
5.159233E+03	8.365738E-06	1.126827E-06
5.169136E+03	8.198735E-06	1.101238E-06
5.179038E+03	8.038936E-06	1.076833E-06
5.188941E+03	7.886194E-06	1.053583E-06
5.198843E+03	7.740287E-06	1.031448E-06
5.208746E+03	7.601003E-06	1.010391E-06
5.218648E+03	7.467991E-06	9.903544E-07
5.228551E+03	7.341143E-06	9.713168E-07
5.238454E+03	7.220207E-06	9.532366E-07
5.248356E+03	7.105021E-06	9.360848E-07
5.258259E+03	6.995358E-06	9.198243E-07
5.268161E+03	6.891144E-06	9.044390E-07
5.278064E+03	6.792105E-06	8.898866E-07
5.287966E+03	6.698115E-06	8.761449E-07
5.297869E+03	6.608992E-06	8.631847E-07
5.307772E+03	6.524696E-06	8.509957E-07
5.317674E+03	6.444927E-06	8.395346E-07
5.327577E+03	6.369664E-06	8.287942E-07
5.337479E+03	6.298759E-06	8.187515E-07
5.347382E+03	6.232074E-06	8.093852E-07
5.357284E+03	6.169357E-06	8.006593E-07
5.367187E+03	6.110488E-06	7.925557E-07
5.377089E+03	6.055349E-06	7.850567E-07
5.386992E+03	6.003579E-06	7.781131E-07
5.396895E+03	5.955060E-06	7.717057E-07
5.406797E+03	5.909494E-06	7.657917E-07
5.416700E+03	5.866716E-06	7.603456E-07
5.426602E+03	5.826859E-06	7.553809E-07
5.436505E+03	5.789819E-06	7.508807E-07
5.446407E+03	5.755716E-06	7.468575E-07
5.456310E+03	5.724506E-06	7.433028E-07
5.466212E+03	5.696317E-06	7.402306E-07
5.476115E+03	5.670990E-06	7.376180E-07
5.486018E+03	5.648544E-06	7.354656E-07
5.495920E+03	5.628889E-06	7.337598E-07
5.505823E+03	5.612108E-06	7.325102E-07
5.515725E+03	5.598062E-06	7.316972E-07
5.525628E+03	5.586730E-06	7.313173E-07
5.535530E+03	5.578041E-06	7.313602E-07
5.545433E+03	5.572037E-06	7.318310E-07
5.555335E+03	5.568597E-06	7.327135E-07
5.565238E+03	5.567717E-06	7.340067E-07
5.575141E+03	5.569395E-06	7.357107E-07
5.585043E+03	5.573581E-06	7.378189E-07
5.594946E+03	5.580278E-06	7.403322E-07
5.604848E+03	5.589383E-06	7.432375E-07
5.614751E+03	5.600910E-06	7.465370E-07
5.624653E+03	5.614877E-06	7.502341E-07
5.634556E+03	5.631244E-06	7.543247E-07
5.644459E+03	5.649977E-06	7.588051E-07
5.654361E+03	5.671046E-06	7.636724E-07
5.664264E+03	5.694537E-06	7.689398E-07
5.674166E+03	5.720304E-06	7.745890E-07
5.684069E+03	5.748444E-06	7.806347E-07
5.693971E+03	5.778933E-06	7.870755E-07
5.703874E+03	5.811690E-06	7.939022E-07
5.713776E+03	5.846759E-06	8.011227E-07
5.723679E+03	5.884183E-06	8.087450E-07
5.733582E+03	5.923888E-06	8.167611E-07
5.743484E+03	5.965858E-06	8.251710E-07
5.753387E+03	6.010212E-06	8.339935E-07
5.763289E+03	6.056807E-06	8.432116E-07
5.773192E+03	6.105704E-06	8.528357E-07
5.783094E+03	6.156892E-06	8.628673E-07
5.792997E+03	6.210364E-06	8.733080E-07
5.802899E+03	6.266184E-06	8.841695E-07
5.812802E+03	6.324208E-06	8.954346E-07
5.822705E+03	6.384572E-06	9.071251E-07
5.832607E+03	6.447201E-06	9.192335E-07
5.842510E+03	6.512089E-06	9.317620E-07
5.852412E+03	6.579232E-06	9.447131E-07
5.862315E+03	6.648627E-06	9.580895E-07
5.872217E+03	6.720346E-06	9.719045E-07
5.882120E+03	6.794231E-06	9.861389E-07
5.892022E+03	6.870274E-06	1.000794E-06
5.901925E+03	6.948547E-06	1.015885E-06
5.911828E+03	7.029041E-06	1.031412E-06
5.921730E+03	7.111587E-06	1.047355E-06
5.931633E+03	7.196335E-06	1.063739E-06
5.941535E+03	7.283023E-06	1.080527E-06
5.951438E+03	7.371886E-06	1.097759E-06
5.961340E+03	7.462648E-06	1.115397E-06
5.971243E+03	7.555286E-06	1.133440E-06
5.981146E+03	7.649863E-06	1.151900E-06
5.991048E+03	7.746258E-06	1.170763E-06
6.000951E+03	7.844440E-06	1.190027E-06
6.010853E+03	7.944185E-06	1.209661E-06
6.020756E+03	8.045637E-06	1.229689E-06
6.030658E+03	8.148461E-06	1.250063E-06
6.040561E+03	8.252798E-06	1.270807E-06
6.050463E+03	8.358494E-06	1.291900E-06
6.060366E+03	8.465384E-06	1.313319E-06
6.070269E+03	8.573398E-06	1.335055E-06
6.080171E+03	8.682567E-06	1.357115E-06
6.090074E+03	8.792713E-06	1.379473E-06
6.099976E+03	8.903749E-06	1.402118E-06
6.109879E+03	9.015815E-06	1.425073E-06
6.119781E+03	9.128600E-06	1.448291E-06
6.129684E+03	9.242127E-06	1.471777E-06
6.139586E+03	9.356429E-06	1.495538E-06
6.149489E+03	9.471562E-06	1.519585E-06
6.159392E+03	9.587343E-06	1.543890E-06
6.169294E+03	9.703705E-06	1.568443E-06
6.179197E+03	9.820702E-06	1.593256E-06
6.189099E+03	9.938134E-06	1.618297E-06
6.199002E+03	1.005606E-05	1.643577E-06
6.208904E+03	1.017440E-05	1.669084E-06
6.218807E+03	1.029323E-05	1.694833E-06
6.228709E+03	1.041249E-05	1.720813E-06
6.238612E+03	1.053211E-05	1.747016E-06
6.248515E+03	1.065217E-05	1.773458E-06
6.258417E+03	1.077280E-05	1.800157E-06
6.268320E+03	1.089379E-05	1.827082E-06
6.278222E+03	1.101526E-05	1.854252E-06
6.288125E+03	1.113733E-05	1.881686E-06
6.298027E+03	1.125981E-05	1.909353E-06
6.307930E+03	1.138299E-05	1.937300E-06
6.317833E+03	1.150683E-05	1.965524E-06
6.327735E+03	1.163132E-05	1.994021E-06
6.337638E+03	1.175644E-05	2.022787E-06
6.347540E+03	1.188249E-05	2.051877E-06
6.357443E+03	1.200931E-05	2.081260E-06
6.367345E+03	1.213723E-05	2.110996E-06
6.377248E+03	1.226625E-05	2.141086E-06
6.387150E+03	1.239638E-05	2.171530E-06
6.397053E+03	1.252780E-05	2.202364E-06
6.406956E+03	1.266054E-05	2.233590E-06
6.416858E+03	1.279478E-05	2.265247E-06
6.426761E+03	1.293017E-05	2.297269E-06
6.436663E+03	1.306712E-05	2.329730E-06
6.446566E+03	1.320563E-05	2.362636E-06
6.456468E+03	1.334554E-05	2.395956E-06
6.466371E+03	1.348708E-05	2.429731E-06
6.476273E+03	1.363026E-05	2.463970E-06
6.486176E+03	1.377512E-05	2.498678E-06
6.496079E+03	1.392170E-05	2.533863E-06
6.505981E+03	1.407024E-05	2.569573E-06
6.515884E+03	1.422057E-05	2.605777E-06
6.525786E+03	1.437271E-05	2.642481E-06
6.535689E+03	1.452694E-05	2.679740E-06
6.545591E+03	1.468331E-05	2.717563E-06
6.555494E+03	1.484163E-05	2.755916E-06
6.565396E+03	1.500217E-05	2.794856E-06
6.575299E+03	1.516475E-05	2.834346E-06
6.585202E+03	1.532992E-05	2.874494E-06
6.595104E+03	1.549723E-05	2.915218E-06
6.605007E+03	1.566672E-05	2.956526E-06
6.614909E+03	1.583870E-05	2.998483E-06
6.624812E+03	1.601325E-05	3.041102E-06
6.634714E+03	1.619014E-05	3.084344E-06
6.644617E+03	1.636943E-05	3.128222E-06
6.654520E+03	1.655146E-05	3.172804E-06
6.664422E+03	1.673601E-05	3.218049E-06
6.674325E+03	1.692344E-05	3.264031E-06
6.684227E+03	1.711319E-05	3.310645E-06
6.694130E+03	1.730595E-05	3.358023E-06
6.704032E+03	1.750116E-05	3.406064E-06
6.713935E+03	1.769950E-05	3.454899E-06
6.723837E+03	1.790042E-05	3.504425E-06
6.733740E+03	1.810428E-05	3.554717E-06
6.743643E+03	1.831118E-05	3.605793E-06
6.753545E+03	1.852083E-05	3.657600E-06
6.763448E+03	1.873363E-05	3.710222E-06
6.773350E+03	1.894932E-05	3.763609E-06
6.783253E+03	1.916831E-05	3.817845E-06
6.793155E+03	1.938994E-05	3.872800E-06
6.803058E+03	1.961504E-05	3.928642E-06
6.812960E+03	1.984326E-05	3.985306E-06
6.822863E+03	2.007470E-05	4.042815E-06
6.832766E+03	2.030905E-05	4.101107E-06
6.842668E+03	2.054714E-05	4.160353E-06
6.852571E+03	2.078787E-05	4.220333E-06
6.862473E+03	2.103248E-05	4.281299E-06
6.872376E+03	2.128025E-05	4.343113E-06
6.882278E+03	2.153125E-05	4.405786E-06
6.892181E+03	2.178596E-05	4.469421E-06
6.902083E+03	2.204402E-05	4.533947E-06
6.911986E+03	2.230550E-05	4.599382E-06
6.921889E+03	2.257050E-05	4.665747E-06
6.931791E+03	2.283905E-05	4.733050E-06
6.941694E+03	2.311123E-05	4.801314E-06
6.951596E+03	2.338667E-05	4.870461E-06
6.961499E+03	2.366633E-05	4.940695E-06
6.971401E+03	2.394889E-05	5.011741E-06
6.981304E+03	2.423584E-05	5.083915E-06
6.991207E+03	2.452581E-05	5.156932E-06
7.001109E+03	2.481983E-05	5.231010E-06
7.011012E+03	2.511748E-05	5.306061E-06
7.020914E+03	2.541882E-05	5.382102E-06
7.030817E+03	2.572444E-05	5.459261E-06
7.040719E+03	2.603334E-05	5.537329E-06
7.050622E+03	2.634615E-05	5.616437E-06
7.060524E+03	2.666236E-05	5.696481E-06
7.070427E+03	2.698258E-05	5.777593E-06
7.080330E+03	2.730688E-05	5.859790E-06
7.090232E+03	2.763477E-05	5.942970E-06
7.100135E+03	2.796685E-05	6.027263E-06
7.110037E+03	2.830208E-05	6.112445E-06
7.119940E+03	2.864161E-05	6.198768E-06
7.129842E+03	2.898498E-05	6.286132E-06
7.139745E+03	2.933158E-05	6.374410E-06
7.149647E+03	2.968212E-05	6.463751E-06
7.159550E+03	3.003660E-05	6.554163E-06
7.169453E+03	3.039448E-05	6.645527E-06
7.179355E+03	3.075579E-05	6.737847E-06
7.189258E+03	3.112054E-05	6.831132E-06
7.199160E+03	3.148881E-05	6.925396E-06
7.209063E+03	3.186060E-05	7.020641E-06
7.218965E+03	3.223463E-05	7.116584E-06
7.228868E+03	3.261224E-05	7.213520E-06
7.238770E+03	3.299277E-05	7.311308E-06
7.248673E+03	3.337552E-05	7.409787E-06
7.258576E+03	3.376121E-05	7.509119E-06
7.268478E+03	3.414839E-05	7.608980E-06
7.278381E+03	3.453704E-05	7.709365E-06
7.288283E+03	3.492711E-05	7.810257E-06
7.298186E+03	3.531782E-05	7.911484E-06
7.308088E+03	3.570981E-05	8.013183E-06
7.317991E+03	3.610078E-05	8.114836E-06
7.327894E+03	3.649214E-05	8.216755E-06
7.337796E+03	3.688221E-05	8.318560E-06
7.347699E+03	3.727166E-05	8.420397E-06
7.357601E+03	3.765959E-05	8.522054E-06
7.367504E+03	3.804583E-05	8.623493E-06
7.377406E+03	3.843105E-05	8.724857E-06
7.387309E+03	3.881431E-05	8.825928E-06
7.397211E+03	3.919797E-05	8.927241E-06
7.407114E+03	3.958028E-05	9.028392E-06
7.417017E+03	3.996282E-05	9.129737E-06
7.426919E+03	4.034465E-05	9.231059E-06
7.436822E+03	4.072837E-05	9.332948E-06
7.446724E+03	4.111303E-05	9.435187E-06
7.456627E+03	4.149860E-05	9.537767E-06
7.466529E+03	4.188597E-05	9.640892E-06
7.476432E+03	4.227515E-05	9.744558E-06
7.486334E+03	4.266798E-05	9.849195E-06
7.496237E+03	4.306264E-05	9.954378E-06
7.506140E+03	4.346008E-05	1.006033E-05
7.516042E+03	4.386130E-05	1.016728E-05
7.525945E+03	4.426539E-05	1.027502E-05
7.535847E+03	4.467338E-05	1.038378E-05
7.545750E+03	4.508431E-05	1.049335E-05
7.555652E+03	4.550029E-05	1.060422E-05
7.565555E+03	4.591932E-05	1.071592E-05
7.575457E+03	4.634354E-05	1.082896E-05
7.585360E+03	4.677096E-05	1.094286E-05
7.595263E+03	4.720370E-05	1.105813E-05
7.605165E+03	4.763972E-05	1.117428E-05
7.615068E+03	4.808124E-05	1.129185E-05
7.624970E+03	4.852726E-05	1.141059E-05
7.634873E+03	4.897781E-05	1.153052E-05
7.644775E+03	4.943299E-05	1.165166E-05
7.654678E+03	4.989283E-05	1.177401E-05
7.664581E+03	5.035743E-05	1.189761E-05
7.674483E+03	5.082565E-05	1.202218E-05
7.684386E+03	5.129993E-05	1.214830E-05
