#wls	flux	fluxerr
1.584409E+03	2.782069E-05	0.000000E+00
1.624020E+03	2.838327E-05	0.000000E+00
1.663630E+03	2.898234E-05	0.000000E+00
1.703240E+03	2.961785E-05	0.000000E+00
1.742850E+03	3.029223E-05	0.000000E+00
1.782461E+03	3.101020E-05	0.000000E+00
1.822071E+03	3.176578E-05	0.000000E+00
1.861681E+03	3.256574E-05	0.000000E+00
1.901291E+03	3.340878E-05	0.000000E+00
1.940902E+03	3.429345E-05	0.000000E+00
1.980512E+03	3.521572E-05	0.000000E+00
2.020122E+03	3.617397E-05	0.000000E+00
2.059732E+03	3.716174E-05	0.000000E+00
2.099342E+03	3.816813E-05	0.000000E+00
2.138953E+03	3.918962E-05	0.000000E+00
2.178563E+03	4.021377E-05	0.000000E+00
2.218173E+03	4.123107E-05	0.000000E+00
2.257783E+03	4.223690E-05	0.000000E+00
2.297394E+03	4.323116E-05	0.000000E+00
2.337004E+03	4.421997E-05	0.000000E+00
2.376614E+03	4.521099E-05	0.000000E+00
2.416224E+03	4.621127E-05	0.000000E+00
2.455835E+03	4.723310E-05	0.000000E+00
2.495445E+03	4.828195E-05	0.000000E+00
2.535055E+03	4.936645E-05	0.000000E+00
2.574665E+03	5.048881E-05	0.000000E+00
2.614276E+03	5.165265E-05	0.000000E+00
2.653886E+03	5.285753E-05	0.000000E+00
2.693496E+03	5.410281E-05	0.000000E+00
2.733106E+03	5.538770E-05	0.000000E+00
2.772716E+03	5.670961E-05	0.000000E+00
2.812327E+03	5.806594E-05	0.000000E+00
2.851937E+03	5.945737E-05	0.000000E+00
2.891547E+03	6.088121E-05	0.000000E+00
2.931157E+03	6.234250E-05	0.000000E+00
2.970768E+03	6.384121E-05	0.000000E+00
2.980670E+03	6.422390E-05	0.000000E+00
2.990573E+03	6.460825E-05	0.000000E+00
3.000475E+03	6.499417E-05	0.000000E+00
3.010378E+03	6.538449E-05	0.000000E+00
3.020280E+03	6.577764E-05	0.000000E+00
3.030183E+03	6.617351E-05	0.000000E+00
3.040086E+03	6.657343E-05	0.000000E+00
3.049988E+03	6.697585E-05	0.000000E+00
3.059891E+03	6.738068E-05	0.000000E+00
3.069793E+03	6.779063E-05	0.000000E+00
3.079696E+03	6.820276E-05	0.000000E+00
3.089598E+03	6.861837E-05	0.000000E+00
3.099501E+03	6.903598E-05	0.000000E+00
3.109403E+03	6.945960E-05	0.000000E+00
3.119306E+03	6.988498E-05	0.000000E+00
3.129209E+03	7.031341E-05	0.000000E+00
3.139111E+03	7.074612E-05	0.000000E+00
3.149014E+03	7.118298E-05	0.000000E+00
3.158916E+03	7.162122E-05	0.000000E+00
3.168819E+03	7.206473E-05	0.000000E+00
3.178721E+03	7.251073E-05	0.000000E+00
3.188624E+03	7.296043E-05	0.000000E+00
3.198526E+03	7.341244E-05	0.000000E+00
3.208429E+03	7.386794E-05	0.000000E+00
3.218332E+03	7.432684E-05	0.000000E+00
3.228234E+03	7.478901E-05	0.000000E+00
3.238137E+03	7.525311E-05	0.000000E+00
3.248039E+03	7.572029E-05	0.000000E+00
3.257942E+03	7.619048E-05	0.000000E+00
3.267844E+03	7.666231E-05	0.000000E+00
3.277747E+03	7.713698E-05	0.000000E+00
3.287650E+03	7.761313E-05	0.000000E+00
3.297552E+03	7.809195E-05	0.000000E+00
3.307455E+03	7.857212E-05	0.000000E+00
3.317357E+03	7.905358E-05	0.000000E+00
3.327260E+03	7.953627E-05	0.000000E+00
3.337162E+03	8.002013E-05	0.000000E+00
3.347065E+03	8.050512E-05	0.000000E+00
3.356967E+03	8.098998E-05	0.000000E+00
3.366870E+03	8.147592E-05	0.000000E+00
3.376773E+03	8.196048E-05	0.000000E+00
3.386675E+03	8.244594E-05	0.000000E+00
3.396578E+03	8.293010E-05	0.000000E+00
3.406480E+03	8.341281E-05	0.000000E+00
3.416383E+03	8.389415E-05	0.000000E+00
3.426285E+03	8.437298E-05	0.000000E+00
3.436188E+03	8.485045E-05	0.000000E+00
3.446090E+03	8.532541E-05	0.000000E+00
3.455993E+03	8.579683E-05	0.000000E+00
3.465896E+03	8.626469E-05	0.000000E+00
3.475798E+03	8.672795E-05	0.000000E+00
3.485701E+03	8.718783E-05	0.000000E+00
3.495603E+03	8.764117E-05	0.000000E+00
3.505506E+03	8.808894E-05	0.000000E+00
3.515408E+03	8.853033E-05	0.000000E+00
3.525311E+03	8.896543E-05	0.000000E+00
3.535213E+03	8.939222E-05	0.000000E+00
3.545116E+03	8.980981E-05	0.000000E+00
3.555019E+03	9.021933E-05	0.000000E+00
3.564921E+03	9.061780E-05	0.000000E+00
3.574824E+03	9.100658E-05	0.000000E+00
3.584726E+03	9.138471E-05	0.000000E+00
3.594629E+03	9.175034E-05	0.000000E+00
3.604531E+03	9.210273E-05	0.000000E+00
3.614434E+03	9.244213E-05	0.000000E+00
3.624337E+03	9.276668E-05	0.000000E+00
3.634239E+03	9.307775E-05	0.000000E+00
3.644142E+03	9.337253E-05	0.000000E+00
3.654044E+03	9.365140E-05	0.000000E+00
3.663947E+03	9.391366E-05	0.000000E+00
3.673849E+03	9.415953E-05	0.000000E+00
3.683752E+03	9.438749E-05	0.000000E+00
3.693654E+03	9.459786E-05	0.000000E+00
3.703557E+03	9.478991E-05	0.000000E+00
3.713460E+03	9.496413E-05	0.000000E+00
3.723362E+03	9.511971E-05	0.000000E+00
3.733265E+03	9.525721E-05	0.000000E+00
3.743167E+03	9.537591E-05	0.000000E+00
3.753070E+03	9.547533E-05	0.000000E+00
3.762972E+03	9.555755E-05	0.000000E+00
3.772875E+03	9.562025E-05	0.000000E+00
3.782777E+03	9.566463E-05	0.000000E+00
3.792680E+03	9.569207E-05	0.000000E+00
3.802583E+03	9.570095E-05	0.000000E+00
3.812485E+03	9.569167E-05	0.000000E+00
3.822388E+03	9.566544E-05	0.000000E+00
3.832290E+03	9.562267E-05	0.000000E+00
3.842193E+03	9.556352E-05	0.000000E+00
3.852095E+03	9.548759E-05	0.000000E+00
3.861998E+03	9.539600E-05	0.000000E+00
3.871900E+03	9.528908E-05	0.000000E+00
3.881803E+03	9.516708E-05	0.000000E+00
3.891706E+03	9.503022E-05	0.000000E+00
3.901608E+03	9.487892E-05	0.000000E+00
3.911511E+03	9.471422E-05	0.000000E+00
3.921413E+03	9.453637E-05	0.000000E+00
3.931316E+03	9.434481E-05	0.000000E+00
3.941218E+03	9.414146E-05	0.000000E+00
3.951121E+03	9.392568E-05	0.000000E+00
3.961024E+03	9.369845E-05	0.000000E+00
3.970926E+03	9.346016E-05	0.000000E+00
3.980829E+03	9.321001E-05	0.000000E+00
3.990731E+03	9.295001E-05	0.000000E+00
4.000634E+03	9.267937E-05	0.000000E+00
4.010536E+03	9.239904E-05	0.000000E+00
4.020439E+03	9.210934E-05	0.000000E+00
4.030341E+03	9.181037E-05	0.000000E+00
4.040244E+03	9.150220E-05	0.000000E+00
4.050147E+03	9.118580E-05	0.000000E+00
4.060049E+03	9.086053E-05	0.000000E+00
4.069952E+03	9.052654E-05	0.000000E+00
4.079854E+03	9.018536E-05	0.000000E+00
4.089757E+03	8.983563E-05	0.000000E+00
4.099659E+03	8.947824E-05	0.000000E+00
4.109562E+03	8.911318E-05	0.000000E+00
4.119464E+03	8.874062E-05	0.000000E+00
4.129367E+03	8.836055E-05	0.000000E+00
4.139270E+03	8.797314E-05	0.000000E+00
4.149172E+03	8.757831E-05	0.000000E+00
4.159075E+03	8.717621E-05	0.000000E+00
4.168977E+03	8.676677E-05	0.000000E+00
4.178880E+03	8.635015E-05	0.000000E+00
4.188782E+03	8.592545E-05	0.000000E+00
4.198685E+03	8.549293E-05	0.000000E+00
4.208587E+03	8.505315E-05	0.000000E+00
4.218490E+03	8.460627E-05	0.000000E+00
4.228393E+03	8.415067E-05	0.000000E+00
4.238295E+03	8.368725E-05	0.000000E+00
4.248198E+03	8.321584E-05	0.000000E+00
4.258100E+03	8.273659E-05	0.000000E+00
4.268003E+03	8.224945E-05	0.000000E+00
4.277905E+03	8.175358E-05	0.000000E+00
4.287808E+03	8.125054E-05	0.000000E+00
4.297711E+03	8.073886E-05	0.000000E+00
4.307613E+03	8.021987E-05	0.000000E+00
4.317516E+03	7.969357E-05	0.000000E+00
4.327418E+03	7.916062E-05	0.000000E+00
4.337321E+03	7.862100E-05	0.000000E+00
4.347223E+03	7.807534E-05	0.000000E+00
4.357126E+03	7.752358E-05	0.000000E+00
4.367028E+03	7.696707E-05	0.000000E+00
4.376931E+03	7.640571E-05	0.000000E+00
4.386834E+03	7.583946E-05	0.000000E+00
4.396736E+03	7.526960E-05	0.000000E+00
4.406639E+03	7.469606E-05	0.000000E+00
4.416541E+03	7.411943E-05	0.000000E+00
4.426444E+03	7.354098E-05	0.000000E+00
4.436346E+03	7.295995E-05	0.000000E+00
4.446249E+03	7.237760E-05	0.000000E+00
4.456151E+03	7.179449E-05	0.000000E+00
4.466054E+03	7.121055E-05	0.000000E+00
4.475957E+03	7.062633E-05	0.000000E+00
4.485859E+03	7.004243E-05	0.000000E+00
4.495762E+03	6.945939E-05	0.000000E+00
4.505664E+03	6.887779E-05	0.000000E+00
4.515567E+03	6.829755E-05	0.000000E+00
4.525469E+03	6.771858E-05	0.000000E+00
4.535372E+03	6.714274E-05	0.000000E+00
4.545274E+03	6.656931E-05	0.000000E+00
4.555177E+03	6.599824E-05	0.000000E+00
4.565080E+03	6.543073E-05	0.000000E+00
4.574982E+03	6.486733E-05	0.000000E+00
4.584885E+03	6.430677E-05	0.000000E+00
4.594787E+03	6.375147E-05	0.000000E+00
4.604690E+03	6.319955E-05	0.000000E+00
4.614592E+03	6.265282E-05	0.000000E+00
4.624495E+03	6.211125E-05	0.000000E+00
4.634398E+03	6.157482E-05	0.000000E+00
4.644300E+03	6.104350E-05	0.000000E+00
4.654203E+03	6.051731E-05	0.000000E+00
4.664105E+03	5.999745E-05	0.000000E+00
4.674008E+03	5.948331E-05	0.000000E+00
4.683910E+03	5.897492E-05	0.000000E+00
4.693813E+03	5.847290E-05	0.000000E+00
4.703715E+03	5.797609E-05	0.000000E+00
4.713618E+03	5.748630E-05	0.000000E+00
4.723521E+03	5.700184E-05	0.000000E+00
4.733423E+03	5.652392E-05	0.000000E+00
4.743326E+03	5.605261E-05	0.000000E+00
4.753228E+03	5.558682E-05	0.000000E+00
4.763131E+03	5.512725E-05	0.000000E+00
4.773033E+03	5.467452E-05	0.000000E+00
4.782936E+03	5.422762E-05	0.000000E+00
4.792838E+03	5.378720E-05	0.000000E+00
4.802741E+03	5.335339E-05	0.000000E+00
4.812644E+03	5.292574E-05	0.000000E+00
4.822546E+03	5.250439E-05	0.000000E+00
4.832449E+03	5.209001E-05	0.000000E+00
4.842351E+03	5.168218E-05	0.000000E+00
4.852254E+03	5.128157E-05	0.000000E+00
4.862156E+03	5.088726E-05	0.000000E+00
4.872059E+03	5.049993E-05	0.000000E+00
4.881961E+03	5.011972E-05	0.000000E+00
4.891864E+03	4.974626E-05	0.000000E+00
4.901767E+03	4.938023E-05	0.000000E+00
4.911669E+03	4.902124E-05	0.000000E+00
4.921572E+03	4.866998E-05	0.000000E+00
4.931474E+03	4.832610E-05	0.000000E+00
4.941377E+03	4.798973E-05	0.000000E+00
4.951279E+03	4.766057E-05	0.000000E+00
4.961182E+03	4.733973E-05	0.000000E+00
4.971085E+03	4.702641E-05	0.000000E+00
4.980987E+03	4.672076E-05	0.000000E+00
4.990890E+03	4.642344E-05	0.000000E+00
5.000792E+03	4.613411E-05	0.000000E+00
5.010695E+03	4.585294E-05	0.000000E+00
5.020597E+03	4.558008E-05	0.000000E+00
5.030500E+03	4.531569E-05	0.000000E+00
5.040402E+03	4.505948E-05	0.000000E+00
5.050305E+03	4.481159E-05	0.000000E+00
5.060208E+03	4.457266E-05	0.000000E+00
5.070110E+03	4.434191E-05	0.000000E+00
5.080013E+03	4.412042E-05	0.000000E+00
5.089915E+03	4.390698E-05	0.000000E+00
5.099818E+03	4.370267E-05	0.000000E+00
5.109720E+03	4.350718E-05	0.000000E+00
5.119623E+03	4.332068E-05	0.000000E+00
5.129525E+03	4.314332E-05	0.000000E+00
5.139428E+03	4.297481E-05	0.000000E+00
5.149331E+03	4.281531E-05	0.000000E+00
5.159233E+03	4.266453E-05	0.000000E+00
5.169136E+03	4.252352E-05	0.000000E+00
5.179038E+03	4.239112E-05	0.000000E+00
5.188941E+03	4.226791E-05	0.000000E+00
5.198843E+03	4.215405E-05	0.000000E+00
5.208746E+03	4.204970E-05	0.000000E+00
5.218648E+03	4.195415E-05	0.000000E+00
5.228551E+03	4.186798E-05	0.000000E+00
5.238454E+03	4.179091E-05	0.000000E+00
5.248356E+03	4.172309E-05	0.000000E+00
5.258259E+03	4.166427E-05	0.000000E+00
5.268161E+03	4.161499E-05	0.000000E+00
5.278064E+03	4.157456E-05	0.000000E+00
5.287966E+03	4.154313E-05	0.000000E+00
5.297869E+03	4.152042E-05	0.000000E+00
5.307772E+03	4.150699E-05	0.000000E+00
5.317674E+03	4.150172E-05	0.000000E+00
5.327577E+03	4.150515E-05	0.000000E+00
5.337479E+03	4.151702E-05	0.000000E+00
5.347382E+03	4.153700E-05	0.000000E+00
5.357284E+03	4.156398E-05	0.000000E+00
5.367187E+03	4.159765E-05	0.000000E+00
5.377089E+03	4.163769E-05	0.000000E+00
5.386992E+03	4.168210E-05	0.000000E+00
5.396895E+03	4.173055E-05	0.000000E+00
5.406797E+03	4.178140E-05	0.000000E+00
5.416700E+03	4.183388E-05	0.000000E+00
5.426602E+03	4.188925E-05	0.000000E+00
5.436505E+03	4.194711E-05	0.000000E+00
5.446407E+03	4.200871E-05	0.000000E+00
5.456310E+03	4.207447E-05	0.000000E+00
5.466212E+03	4.214606E-05	0.000000E+00
5.476115E+03	4.222303E-05	0.000000E+00
5.486018E+03	4.230620E-05	0.000000E+00
5.495920E+03	4.239554E-05	0.000000E+00
5.505823E+03	4.249227E-05	0.000000E+00
5.515725E+03	4.259592E-05	0.000000E+00
5.525628E+03	4.270687E-05	0.000000E+00
5.535530E+03	4.282504E-05	0.000000E+00
5.545433E+03	4.295124E-05	0.000000E+00
5.555335E+03	4.308495E-05	0.000000E+00
5.565238E+03	4.322653E-05	0.000000E+00
5.575141E+03	4.337635E-05	0.000000E+00
5.585043E+03	4.353430E-05	0.000000E+00
5.594946E+03	4.370074E-05	0.000000E+00
5.604848E+03	4.387512E-05	0.000000E+00
5.614751E+03	4.405779E-05	0.000000E+00
5.624653E+03	4.424909E-05	0.000000E+00
5.634556E+03	4.444891E-05	0.000000E+00
5.644459E+03	4.465712E-05	0.000000E+00
5.654361E+03	4.487360E-05	0.000000E+00
5.664264E+03	4.509917E-05	0.000000E+00
5.674166E+03	4.533274E-05	0.000000E+00
5.684069E+03	4.557513E-05	0.000000E+00
5.693971E+03	4.582621E-05	0.000000E+00
5.703874E+03	4.608534E-05	0.000000E+00
5.713776E+03	4.635284E-05	0.000000E+00
5.723679E+03	4.662908E-05	0.000000E+00
5.733582E+03	4.691338E-05	0.000000E+00
5.743484E+03	4.720556E-05	0.000000E+00
5.753387E+03	4.750648E-05	0.000000E+00
5.763289E+03	4.781493E-05	0.000000E+00
5.773192E+03	4.813124E-05	0.000000E+00
5.783094E+03	4.845522E-05	0.000000E+00
5.792997E+03	4.878665E-05	0.000000E+00
5.802899E+03	4.912589E-05	0.000000E+00
5.812802E+03	4.947162E-05	0.000000E+00
5.822705E+03	4.982471E-05	0.000000E+00
5.832607E+03	5.018440E-05	0.000000E+00
5.842510E+03	5.055041E-05	0.000000E+00
5.852412E+03	5.092251E-05	0.000000E+00
5.862315E+03	5.130043E-05	0.000000E+00
5.872217E+03	5.168450E-05	0.000000E+00
5.882120E+03	5.207325E-05	0.000000E+00
5.892022E+03	5.246639E-05	0.000000E+00
5.901925E+03	5.286419E-05	0.000000E+00
5.911828E+03	5.326636E-05	0.000000E+00
5.921730E+03	5.367134E-05	0.000000E+00
5.931633E+03	5.408001E-05	0.000000E+00
5.941535E+03	5.449015E-05	0.000000E+00
5.951438E+03	5.490327E-05	0.000000E+00
5.961340E+03	5.531707E-05	0.000000E+00
5.971243E+03	5.573112E-05	0.000000E+00
5.981146E+03	5.614568E-05	0.000000E+00
5.991048E+03	5.655963E-05	0.000000E+00
6.000951E+03	5.697254E-05	0.000000E+00
6.010853E+03	5.738259E-05	0.000000E+00
6.020756E+03	5.779063E-05	0.000000E+00
6.030658E+03	5.819411E-05	0.000000E+00
6.040561E+03	5.859390E-05	0.000000E+00
6.050463E+03	5.898877E-05	0.000000E+00
6.060366E+03	5.937747E-05	0.000000E+00
6.070269E+03	5.975944E-05	0.000000E+00
6.080171E+03	6.013485E-05	0.000000E+00
6.090074E+03	6.050242E-05	0.000000E+00
6.099976E+03	6.086156E-05	0.000000E+00
6.109879E+03	6.121327E-05	0.000000E+00
6.119781E+03	6.155544E-05	0.000000E+00
6.129684E+03	6.188830E-05	0.000000E+00
6.139586E+03	6.221212E-05	0.000000E+00
6.149489E+03	6.252716E-05	0.000000E+00
6.159392E+03	6.283213E-05	0.000000E+00
6.169294E+03	6.312654E-05	0.000000E+00
6.179197E+03	6.341070E-05	0.000000E+00
6.189099E+03	6.368331E-05	0.000000E+00
6.199002E+03	6.394473E-05	0.000000E+00
6.208904E+03	6.419450E-05	0.000000E+00
6.218807E+03	6.443304E-05	0.000000E+00
6.228709E+03	6.465993E-05	0.000000E+00
6.238612E+03	6.487479E-05	0.000000E+00
6.248515E+03	6.507808E-05	0.000000E+00
6.258417E+03	6.527037E-05	0.000000E+00
6.268320E+03	6.545042E-05	0.000000E+00
6.278222E+03	6.561881E-05	0.000000E+00
6.288125E+03	6.577617E-05	0.000000E+00
6.298027E+03	6.592132E-05	0.000000E+00
6.307930E+03	6.605584E-05	0.000000E+00
6.317833E+03	6.617954E-05	0.000000E+00
6.327735E+03	6.629222E-05	0.000000E+00
6.337638E+03	6.639368E-05	0.000000E+00
6.347540E+03	6.648571E-05	0.000000E+00
6.357443E+03	6.656721E-05	0.000000E+00
6.367345E+03	6.664002E-05	0.000000E+00
6.377248E+03	6.670409E-05	0.000000E+00
6.387150E+03	6.675937E-05	0.000000E+00
6.397053E+03	6.680681E-05	0.000000E+00
6.406956E+03	6.684642E-05	0.000000E+00
6.416858E+03	6.687922E-05	0.000000E+00
6.426761E+03	6.690319E-05	0.000000E+00
6.436663E+03	6.692042E-05	0.000000E+00
6.446566E+03	6.693095E-05	0.000000E+00
6.456468E+03	6.693381E-05	0.000000E+00
6.466371E+03	6.693010E-05	0.000000E+00
6.476273E+03	6.691993E-05	0.000000E+00
6.486176E+03	6.690337E-05	0.000000E+00
6.496079E+03	6.688053E-05	0.000000E+00
6.505981E+03	6.685262E-05	0.000000E+00
6.515884E+03	6.681867E-05	0.000000E+00
6.525786E+03	6.677882E-05	0.000000E+00
6.535689E+03	6.673429E-05	0.000000E+00
6.545591E+03	6.668525E-05	0.000000E+00
6.555494E+03	6.663075E-05	0.000000E+00
6.565396E+03	6.657206E-05	0.000000E+00
6.575299E+03	6.650823E-05	0.000000E+00
6.585202E+03	6.644167E-05	0.000000E+00
6.595104E+03	6.637033E-05	0.000000E+00
6.605007E+03	6.629437E-05	0.000000E+00
6.614909E+03	6.621512E-05	0.000000E+00
6.624812E+03	6.613277E-05	0.000000E+00
6.634714E+03	6.604638E-05	0.000000E+00
6.644617E+03	6.595611E-05	0.000000E+00
6.654520E+03	6.586334E-05	0.000000E+00
6.664422E+03	6.576709E-05	0.000000E+00
6.674325E+03	6.566875E-05	0.000000E+00
6.684227E+03	6.556617E-05	0.000000E+00
6.694130E+03	6.546190E-05	0.000000E+00
6.704032E+03	6.535380E-05	0.000000E+00
6.713935E+03	6.524440E-05	0.000000E+00
6.723837E+03	6.513158E-05	0.000000E+00
6.733740E+03	6.501671E-05	0.000000E+00
6.743643E+03	6.490000E-05	0.000000E+00
6.753545E+03	6.478047E-05	0.000000E+00
6.763448E+03	6.465951E-05	0.000000E+00
6.773350E+03	6.453613E-05	0.000000E+00
6.783253E+03	6.441174E-05	0.000000E+00
6.793155E+03	6.428415E-05	0.000000E+00
6.803058E+03	6.415595E-05	0.000000E+00
6.812960E+03	6.402615E-05	0.000000E+00
6.822863E+03	6.389496E-05	0.000000E+00
6.832766E+03	6.376135E-05	0.000000E+00
6.842668E+03	6.362796E-05	0.000000E+00
6.852571E+03	6.349135E-05	0.000000E+00
6.862473E+03	6.335536E-05	0.000000E+00
6.872376E+03	6.321777E-05	0.000000E+00
6.882278E+03	6.307875E-05	0.000000E+00
6.892181E+03	6.293973E-05	0.000000E+00
6.902083E+03	6.279967E-05	0.000000E+00
6.911986E+03	6.265880E-05	0.000000E+00
6.921889E+03	6.251728E-05	0.000000E+00
6.931791E+03	6.237530E-05	0.000000E+00
6.941694E+03	6.223307E-05	0.000000E+00
6.951596E+03	6.208953E-05	0.000000E+00
6.961499E+03	6.194733E-05	0.000000E+00
6.971401E+03	6.180298E-05	0.000000E+00
6.981304E+03	6.166033E-05	0.000000E+00
6.991207E+03	6.151588E-05	0.000000E+00
7.001109E+03	6.137229E-05	0.000000E+00
7.011012E+03	6.122848E-05	0.000000E+00
7.020914E+03	6.108464E-05	0.000000E+00
7.030817E+03	6.094217E-05	0.000000E+00
7.040719E+03	6.079878E-05	0.000000E+00
7.050622E+03	6.065588E-05	0.000000E+00
7.060524E+03	6.051242E-05	0.000000E+00
7.070427E+03	6.036977E-05	0.000000E+00
7.080330E+03	6.022812E-05	0.000000E+00
7.090232E+03	6.008638E-05	0.000000E+00
7.100135E+03	5.994595E-05	0.000000E+00
7.110037E+03	5.980455E-05	0.000000E+00
7.119940E+03	5.966478E-05	0.000000E+00
7.129842E+03	5.952556E-05	0.000000E+00
7.139745E+03	5.938583E-05	0.000000E+00
7.149647E+03	5.924696E-05	0.000000E+00
7.159550E+03	5.910909E-05	0.000000E+00
7.169453E+03	5.897117E-05	0.000000E+00
7.179355E+03	5.883333E-05	0.000000E+00
7.189258E+03	5.869572E-05	0.000000E+00
7.199160E+03	5.855846E-05	0.000000E+00
7.209063E+03	5.842170E-05	0.000000E+00
7.218965E+03	5.828316E-05	0.000000E+00
7.228868E+03	5.814538E-05	0.000000E+00
7.238770E+03	5.800729E-05	0.000000E+00
7.248673E+03	5.786781E-05	0.000000E+00
7.258576E+03	5.772826E-05	0.000000E+00
7.268478E+03	5.758637E-05	0.000000E+00
7.278381E+03	5.744224E-05	0.000000E+00
7.288283E+03	5.729602E-05	0.000000E+00
7.298186E+03	5.714659E-05	0.000000E+00
7.308088E+03	5.699529E-05	0.000000E+00
7.317991E+03	5.683862E-05	0.000000E+00
7.327894E+03	5.667910E-05	0.000000E+00
7.337796E+03	5.651442E-05	0.000000E+00
7.347699E+03	5.634590E-05	0.000000E+00
7.357601E+03	5.617242E-05	0.000000E+00
7.367504E+03	5.599410E-05	0.000000E+00
7.377406E+03	5.581222E-05	0.000000E+00
7.387309E+03	5.562566E-05	0.000000E+00
7.397211E+03	5.543810E-05	0.000000E+00
7.407114E+03	5.524720E-05	0.000000E+00
7.417017E+03	5.505544E-05	0.000000E+00
7.426919E+03	5.486168E-05	0.000000E+00
7.436822E+03	5.466955E-05	0.000000E+00
7.446724E+03	5.447790E-05	0.000000E+00
7.456627E+03	5.428678E-05	0.000000E+00
7.466529E+03	5.409744E-05	0.000000E+00
7.476432E+03	5.390989E-05	0.000000E+00
7.486334E+03	5.372657E-05	0.000000E+00
7.496237E+03	5.354509E-05	0.000000E+00
7.506140E+03	5.336670E-05	0.000000E+00
7.516042E+03	5.319259E-05	0.000000E+00
7.525945E+03	5.302160E-05	0.000000E+00
7.535847E+03	5.285492E-05	0.000000E+00
7.545750E+03	5.269138E-05	0.000000E+00
7.555652E+03	5.253338E-05	0.000000E+00
7.565555E+03	5.237853E-05	0.000000E+00
7.575457E+03	5.222923E-05	0.000000E+00
7.585360E+03	5.208309E-05	0.000000E+00
7.595263E+03	5.194249E-05	0.000000E+00
7.605165E+03	5.180507E-05	0.000000E+00
7.615068E+03	5.167318E-05	0.000000E+00
7.624970E+03	5.154565E-05	0.000000E+00
7.634873E+03	5.142246E-05	0.000000E+00
7.644775E+03	5.130361E-05	0.000000E+00
7.654678E+03	5.118910E-05	0.000000E+00
7.664581E+03	5.107890E-05	0.000000E+00
7.674483E+03	5.097185E-05	0.000000E+00
7.684386E+03	5.087028E-05	0.000000E+00
