#wls	flux	fluxerr
1.584409E+03	3.938717E-04	1.154933E-04
1.624020E+03	4.074248E-04	1.191259E-04
1.663630E+03	4.217547E-04	1.229530E-04
1.703240E+03	4.368732E-04	1.269748E-04
1.742850E+03	4.528277E-04	1.312017E-04
1.782461E+03	4.696993E-04	1.356537E-04
1.822071E+03	4.874070E-04	1.403032E-04
1.861681E+03	5.060603E-04	1.451780E-04
1.901291E+03	5.256436E-04	1.502690E-04
1.940902E+03	5.461342E-04	1.555654E-04
1.980512E+03	5.674636E-04	1.610430E-04
2.020122E+03	5.895939E-04	1.666865E-04
2.059732E+03	6.124023E-04	1.724567E-04
2.099342E+03	6.356830E-04	1.782914E-04
2.138953E+03	6.593397E-04	1.841599E-04
2.178563E+03	6.831188E-04	1.899880E-04
2.218173E+03	7.068025E-04	1.957126E-04
2.257783E+03	7.302482E-04	2.012922E-04
2.297394E+03	7.533837E-04	2.067055E-04
2.337004E+03	7.762421E-04	2.119603E-04
2.376614E+03	7.988833E-04	2.170713E-04
2.416224E+03	8.213542E-04	2.220498E-04
2.455835E+03	8.437936E-04	2.269310E-04
2.495445E+03	8.662165E-04	2.317167E-04
2.535055E+03	8.886901E-04	2.364220E-04
2.574665E+03	9.111611E-04	2.410302E-04
2.614276E+03	9.335944E-04	2.455291E-04
2.653886E+03	9.558746E-04	2.498861E-04
2.693496E+03	9.778758E-04	2.540665E-04
2.733106E+03	9.994624E-04	2.580338E-04
2.772716E+03	1.020459E-03	2.617424E-04
2.812327E+03	1.040688E-03	2.651473E-04
2.851937E+03	1.060024E-03	2.682180E-04
2.891547E+03	1.078280E-03	2.709099E-04
2.931157E+03	1.095403E-03	2.732131E-04
2.970768E+03	1.111250E-03	2.750959E-04
2.980670E+03	1.115033E-03	2.755066E-04
2.990573E+03	1.118712E-03	2.758856E-04
3.000475E+03	1.122286E-03	2.762323E-04
3.010378E+03	1.125799E-03	2.765581E-04
3.020280E+03	1.129222E-03	2.768559E-04
3.030183E+03	1.132552E-03	2.771247E-04
3.040086E+03	1.135809E-03	2.773697E-04
3.049988E+03	1.138963E-03	2.775840E-04
3.059891E+03	1.142012E-03	2.777667E-04
3.069793E+03	1.144998E-03	2.779284E-04
3.079696E+03	1.147870E-03	2.780568E-04
3.089598E+03	1.150648E-03	2.781567E-04
3.099501E+03	1.153303E-03	2.782217E-04
3.109403E+03	1.155902E-03	2.782674E-04
3.119306E+03	1.158370E-03	2.782765E-04
3.129209E+03	1.160728E-03	2.782537E-04
3.139111E+03	1.162993E-03	2.782035E-04
3.149014E+03	1.165160E-03	2.781250E-04
3.158916E+03	1.167183E-03	2.780069E-04
3.168819E+03	1.169122E-03	2.778639E-04
3.178721E+03	1.170931E-03	2.776852E-04
3.188624E+03	1.172627E-03	2.774750E-04
3.198526E+03	1.174184E-03	2.772276E-04
3.208429E+03	1.175622E-03	2.769472E-04
3.218332E+03	1.176935E-03	2.766333E-04
3.228234E+03	1.178120E-03	2.762853E-04
3.238137E+03	1.179154E-03	2.758976E-04
3.248039E+03	1.180055E-03	2.754747E-04
3.257942E+03	1.180817E-03	2.750159E-04
3.267844E+03	1.181420E-03	2.745163E-04
3.277747E+03	1.181880E-03	2.739799E-04
3.287650E+03	1.182175E-03	2.734021E-04
3.297552E+03	1.182322E-03	2.727869E-04
3.307455E+03	1.182299E-03	2.721295E-04
3.317357E+03	1.182106E-03	2.714301E-04
3.327260E+03	1.181740E-03	2.706885E-04
3.337162E+03	1.181200E-03	2.699046E-04
3.347065E+03	1.180483E-03	2.690783E-04
3.356967E+03	1.179573E-03	2.682058E-04
3.366870E+03	1.178485E-03	2.672912E-04
3.376773E+03	1.177185E-03	2.663269E-04
3.386675E+03	1.175706E-03	2.653209E-04
3.396578E+03	1.174016E-03	2.642660E-04
3.406480E+03	1.172113E-03	2.631627E-04
3.416383E+03	1.170000E-03	2.620116E-04
3.426285E+03	1.167662E-03	2.608098E-04
3.436188E+03	1.165116E-03	2.595616E-04
3.446090E+03	1.162347E-03	2.582640E-04
3.455993E+03	1.159343E-03	2.569148E-04
3.465896E+03	1.156107E-03	2.555150E-04
3.475798E+03	1.152626E-03	2.540623E-04
3.485701E+03	1.148918E-03	2.525612E-04
3.495603E+03	1.144945E-03	2.510034E-04
3.505506E+03	1.140724E-03	2.493936E-04
3.515408E+03	1.136247E-03	2.477303E-04
3.525311E+03	1.131518E-03	2.460151E-04
3.535213E+03	1.126517E-03	2.442437E-04
3.545116E+03	1.121235E-03	2.424153E-04
3.555019E+03	1.115695E-03	2.405347E-04
3.564921E+03	1.109863E-03	2.385957E-04
3.574824E+03	1.103760E-03	2.366034E-04
3.584726E+03	1.097383E-03	2.345572E-04
3.594629E+03	1.090715E-03	2.324544E-04
3.604531E+03	1.083754E-03	2.302952E-04
3.614434E+03	1.076509E-03	2.280821E-04
3.624337E+03	1.068968E-03	2.258129E-04
3.634239E+03	1.061154E-03	2.234933E-04
3.644142E+03	1.053042E-03	2.211187E-04
3.654044E+03	1.044646E-03	2.186924E-04
3.663947E+03	1.035967E-03	2.162154E-04
3.673849E+03	1.027016E-03	2.136906E-04
3.683752E+03	1.017786E-03	2.111171E-04
3.693654E+03	1.008289E-03	2.084981E-04
3.703557E+03	9.985294E-04	2.058349E-04
3.713460E+03	9.885202E-04	2.031309E-04
3.723362E+03	9.782648E-04	2.003874E-04
3.733265E+03	9.677771E-04	1.976076E-04
3.743167E+03	9.570612E-04	1.947930E-04
3.753070E+03	9.461218E-04	1.919451E-04
3.762972E+03	9.349910E-04	1.890710E-04
3.772875E+03	9.236553E-04	1.861682E-04
3.782777E+03	9.121370E-04	1.832419E-04
3.792680E+03	9.004587E-04	1.802969E-04
3.802583E+03	8.886158E-04	1.773328E-04
3.812485E+03	8.766221E-04	1.743528E-04
3.822388E+03	8.644987E-04	1.713613E-04
3.832290E+03	8.522578E-04	1.683613E-04
3.842193E+03	8.399117E-04	1.653553E-04
3.852095E+03	8.274648E-04	1.623447E-04
3.861998E+03	8.149365E-04	1.593334E-04
3.871900E+03	8.023380E-04	1.563239E-04
3.881803E+03	7.896805E-04	1.533187E-04
3.891706E+03	7.769747E-04	1.503199E-04
3.901608E+03	7.642311E-04	1.473299E-04
3.911511E+03	7.514668E-04	1.443520E-04
3.921413E+03	7.386911E-04	1.413882E-04
3.931316E+03	7.259069E-04	1.384391E-04
3.941218E+03	7.131364E-04	1.355091E-04
3.951121E+03	7.003813E-04	1.325985E-04
3.961024E+03	6.876565E-04	1.297102E-04
3.970926E+03	6.749697E-04	1.268456E-04
3.980829E+03	6.623222E-04	1.240051E-04
3.990731E+03	6.497336E-04	1.211922E-04
4.000634E+03	6.372042E-04	1.184070E-04
4.010536E+03	6.247468E-04	1.156518E-04
4.020439E+03	6.123673E-04	1.129276E-04
4.030341E+03	6.000715E-04	1.102354E-04
4.040244E+03	5.878648E-04	1.075761E-04
4.050147E+03	5.757580E-04	1.049514E-04
4.060049E+03	5.637505E-04	1.023613E-04
4.069952E+03	5.518476E-04	9.980634E-05
4.079854E+03	5.400629E-04	9.728902E-05
4.089757E+03	5.283911E-04	9.480811E-05
4.099659E+03	5.168411E-04	9.236504E-05
4.109562E+03	5.054162E-04	8.996021E-05
4.119464E+03	4.941201E-04	8.759404E-05
4.129367E+03	4.829559E-04	8.526687E-05
4.139270E+03	4.719265E-04	8.297898E-05
4.149172E+03	4.610350E-04	8.073064E-05
4.159075E+03	4.502841E-04	7.852207E-05
4.168977E+03	4.396763E-04	7.635347E-05
4.178880E+03	4.292141E-04	7.422498E-05
4.188782E+03	4.188959E-04	7.213605E-05
4.198685E+03	4.087237E-04	7.008676E-05
4.208587E+03	3.987033E-04	6.807782E-05
4.218490E+03	3.888359E-04	6.610912E-05
4.228393E+03	3.791166E-04	6.417955E-05
4.238295E+03	3.695497E-04	6.228955E-05
4.248198E+03	3.601369E-04	6.043909E-05
4.258100E+03	3.508790E-04	5.862802E-05
4.268003E+03	3.417769E-04	5.685617E-05
4.277905E+03	3.328283E-04	5.512285E-05
4.287808E+03	3.240397E-04	5.342881E-05
4.297711E+03	3.154055E-04	5.177283E-05
4.307613E+03	3.069316E-04	5.015554E-05
4.317516E+03	2.986180E-04	4.857664E-05
4.327418E+03	2.904667E-04	4.703609E-05
4.337321E+03	2.824772E-04	4.553349E-05
4.347223E+03	2.746515E-04	4.406879E-05
4.357126E+03	2.669885E-04	4.264146E-05
4.367028E+03	2.594924E-04	4.125180E-05
4.376931E+03	2.521619E-04	3.989926E-05
4.386834E+03	2.449959E-04	3.858326E-05
4.396736E+03	2.379976E-04	3.730397E-05
4.406639E+03	2.311650E-04	3.606071E-05
4.416541E+03	2.244984E-04	3.485315E-05
4.426444E+03	2.179995E-04	3.368121E-05
4.436346E+03	2.116639E-04	3.254384E-05
4.446249E+03	2.054931E-04	3.144092E-05
4.456151E+03	1.994859E-04	3.037192E-05
4.466054E+03	1.936396E-04	2.933604E-05
4.475957E+03	1.879529E-04	2.833278E-05
4.485859E+03	1.824242E-04	2.736153E-05
4.495762E+03	1.770520E-04	2.642172E-05
4.505664E+03	1.718347E-04	2.551279E-05
4.515567E+03	1.667684E-04	2.463382E-05
4.525469E+03	1.618499E-04	2.378401E-05
4.535372E+03	1.570800E-04	2.296318E-05
4.545274E+03	1.524539E-04	2.217027E-05
4.555177E+03	1.479674E-04	2.140439E-05
4.565080E+03	1.436200E-04	2.066517E-05
4.574982E+03	1.394094E-04	1.995195E-05
4.584885E+03	1.353290E-04	1.926352E-05
4.594787E+03	1.313805E-04	1.859983E-05
4.604690E+03	1.275564E-04	1.795953E-05
4.614592E+03	1.238567E-04	1.734236E-05
4.624495E+03	1.202779E-04	1.674756E-05
4.634398E+03	1.168164E-04	1.617434E-05
4.644300E+03	1.134685E-04	1.562198E-05
4.654203E+03	1.102309E-04	1.508976E-05
4.664105E+03	1.071025E-04	1.457726E-05
4.674008E+03	1.040787E-04	1.408366E-05
4.683910E+03	1.011564E-04	1.360830E-05
4.693813E+03	9.833360E-05	1.315067E-05
4.703715E+03	9.560537E-05	1.270992E-05
4.713618E+03	9.297176E-05	1.228584E-05
4.723521E+03	9.042716E-05	1.187747E-05
4.733423E+03	8.797069E-05	1.148451E-05
4.743326E+03	8.559965E-05	1.110642E-05
4.753228E+03	8.330974E-05	1.074244E-05
4.763131E+03	8.109932E-05	1.039218E-05
4.773033E+03	7.896676E-05	1.005527E-05
4.782936E+03	7.690804E-05	9.731014E-06
4.792838E+03	7.492167E-05	9.419063E-06
4.802741E+03	7.300543E-05	9.118975E-06
4.812644E+03	7.115637E-05	8.830230E-06
4.822546E+03	6.937243E-05	8.552419E-06
4.832449E+03	6.765228E-05	8.285233E-06
4.842351E+03	6.599324E-05	8.028202E-06
4.852254E+03	6.439405E-05	7.781036E-06
4.862156E+03	6.285158E-05	7.543222E-06
4.872059E+03	6.136467E-05	7.314493E-06
4.881961E+03	5.993162E-05	7.094521E-06
4.891864E+03	5.855012E-05	6.882912E-06
4.901767E+03	5.721921E-05	6.679437E-06
4.911669E+03	5.593673E-05	6.483728E-06
4.921572E+03	5.470174E-05	6.295568E-06
4.931474E+03	5.351223E-05	6.114618E-06
4.941377E+03	5.236683E-05	5.940618E-06
4.951279E+03	5.126367E-05	5.773256E-06
4.961182E+03	5.020250E-05	5.612407E-06
4.971085E+03	4.918105E-05	5.457725E-06
4.980987E+03	4.819814E-05	5.308985E-06
4.990890E+03	4.725313E-05	5.166032E-06
5.000792E+03	4.634443E-05	5.028604E-06
5.010695E+03	4.547098E-05	4.896505E-06
5.020597E+03	4.463179E-05	4.769548E-06
5.030500E+03	4.382586E-05	4.647550E-06
5.040402E+03	4.305184E-05	4.530292E-06
5.050305E+03	4.230886E-05	4.417609E-06
5.060208E+03	4.159648E-05	4.309389E-06
5.070110E+03	4.091307E-05	4.205392E-06
5.080013E+03	4.025870E-05	4.105560E-06
5.089915E+03	3.963138E-05	4.009628E-06
5.099818E+03	3.903126E-05	3.917550E-06
5.109720E+03	3.845726E-05	3.829158E-06
5.119623E+03	3.790878E-05	3.744336E-06
5.129525E+03	3.738522E-05	3.662967E-06
5.139428E+03	3.688563E-05	3.584907E-06
5.149331E+03	3.640950E-05	3.510055E-06
5.159233E+03	3.595596E-05	3.438277E-06
5.169136E+03	3.552529E-05	3.369553E-06
5.179038E+03	3.511597E-05	3.303691E-06
5.188941E+03	3.472795E-05	3.240644E-06
5.198843E+03	3.436088E-05	3.180336E-06
5.208746E+03	3.401440E-05	3.122692E-06
5.218648E+03	3.368750E-05	3.067580E-06
5.228551E+03	3.338023E-05	3.014969E-06
5.238454E+03	3.309200E-05	2.964766E-06
5.248356E+03	3.282257E-05	2.916916E-06
5.258259E+03	3.257140E-05	2.871341E-06
5.268161E+03	3.233865E-05	2.828019E-06
5.278064E+03	3.212349E-05	2.786850E-06
5.287966E+03	3.192579E-05	2.747793E-06
5.297869E+03	3.174513E-05	2.710785E-06
5.307772E+03	3.158175E-05	2.675823E-06
5.317674E+03	3.143461E-05	2.642792E-06
5.327577E+03	3.130403E-05	2.611699E-06
5.337479E+03	3.118966E-05	2.582493E-06
5.347382E+03	3.109121E-05	2.555129E-06
5.357284E+03	3.100778E-05	2.529518E-06
5.367187E+03	3.093910E-05	2.505623E-06
5.377089E+03	3.088497E-05	2.483412E-06
5.386992E+03	3.084392E-05	2.462759E-06
5.396895E+03	3.081577E-05	2.443638E-06
5.406797E+03	3.079940E-05	2.425957E-06
5.416700E+03	3.079435E-05	2.409673E-06
5.426602E+03	3.080168E-05	2.394868E-06
5.436505E+03	3.082119E-05	2.381521E-06
5.446407E+03	3.085382E-05	2.369704E-06
5.456310E+03	3.089983E-05	2.359435E-06
5.466212E+03	3.096027E-05	2.350792E-06
5.476115E+03	3.103469E-05	2.343739E-06
5.486018E+03	3.112348E-05	2.338301E-06
5.495920E+03	3.122643E-05	2.334442E-06
5.505823E+03	3.134427E-05	2.332198E-06
5.515725E+03	3.147652E-05	2.331512E-06
5.525628E+03	3.162330E-05	2.332375E-06
5.535530E+03	3.178444E-05	2.334760E-06
5.545433E+03	3.196048E-05	2.338687E-06
5.555335E+03	3.215093E-05	2.344105E-06
5.565238E+03	3.235601E-05	2.351017E-06
5.575141E+03	3.257595E-05	2.359426E-06
5.585043E+03	3.281065E-05	2.369311E-06
5.594946E+03	3.306037E-05	2.380680E-06
5.604848E+03	3.332472E-05	2.393493E-06
5.614751E+03	3.360396E-05	2.407759E-06
5.624653E+03	3.389837E-05	2.423488E-06
5.634556E+03	3.420795E-05	2.440673E-06
5.644459E+03	3.453264E-05	2.459300E-06
5.654361E+03	3.487242E-05	2.479362E-06
5.664264E+03	3.522801E-05	2.500904E-06
5.674166E+03	3.559865E-05	2.523866E-06
5.684069E+03	3.598507E-05	2.548296E-06
5.693971E+03	3.638729E-05	2.574191E-06
5.703874E+03	3.680492E-05	2.601521E-06
5.713776E+03	3.723833E-05	2.630309E-06
5.723679E+03	3.768794E-05	2.660585E-06
5.733582E+03	3.815335E-05	2.692319E-06
5.743484E+03	3.863457E-05	2.725512E-06
5.753387E+03	3.913240E-05	2.760223E-06
5.763289E+03	3.964601E-05	2.796394E-06
5.773192E+03	4.017584E-05	2.834060E-06
5.783094E+03	4.072184E-05	2.873220E-06
5.792997E+03	4.128400E-05	2.913879E-06
5.802899E+03	4.186274E-05	2.956072E-06
5.812802E+03	4.245710E-05	2.999739E-06
5.822705E+03	4.306794E-05	3.044946E-06
5.832607E+03	4.369473E-05	3.091665E-06
5.842510E+03	4.433738E-05	3.139899E-06
5.852412E+03	4.499578E-05	3.189650E-06
5.862315E+03	4.566975E-05	3.240919E-06
5.872217E+03	4.635973E-05	3.293748E-06
5.882120E+03	4.706446E-05	3.348061E-06
5.892022E+03	4.778371E-05	3.403857E-06
5.901925E+03	4.851779E-05	3.461174E-06
5.911828E+03	4.926642E-05	3.520008E-06
5.921730E+03	5.002819E-05	3.580277E-06
5.931633E+03	5.080387E-05	3.642055E-06
5.941535E+03	5.159130E-05	3.705207E-06
5.951438E+03	5.239187E-05	3.769854E-06
5.961340E+03	5.320321E-05	3.835848E-06
5.971243E+03	5.402483E-05	3.903177E-06
5.981146E+03	5.485669E-05	3.971864E-06
5.991048E+03	5.569754E-05	4.041842E-06
6.000951E+03	5.654669E-05	4.113087E-06
6.010853E+03	5.740199E-05	4.185472E-06
6.020756E+03	5.826396E-05	4.259061E-06
6.030658E+03	5.912961E-05	4.333665E-06
6.040561E+03	5.999936E-05	4.409344E-06
6.050463E+03	6.087150E-05	4.486002E-06
6.060366E+03	6.174414E-05	4.563532E-06
6.070269E+03	6.261609E-05	4.641875E-06
6.080171E+03	6.348690E-05	4.721030E-06
6.090074E+03	6.435451E-05	4.800874E-06
6.099976E+03	6.521756E-05	4.881339E-06
6.109879E+03	6.607629E-05	4.962473E-06
6.119781E+03	6.692763E-05	5.044079E-06
6.129684E+03	6.777102E-05	5.126145E-06
6.139586E+03	6.860608E-05	5.208675E-06
6.149489E+03	6.943276E-05	5.291694E-06
6.159392E+03	7.024930E-05	5.375103E-06
6.169294E+03	7.105479E-05	5.458862E-06
6.179197E+03	7.184934E-05	5.543010E-06
6.189099E+03	7.263110E-05	5.627434E-06
6.199002E+03	7.340017E-05	5.712173E-06
6.208904E+03	7.415565E-05	5.797186E-06
6.218807E+03	7.489777E-05	5.882517E-06
6.228709E+03	7.562575E-05	5.968134E-06
6.238612E+03	7.633896E-05	6.054016E-06
6.248515E+03	7.703786E-05	6.140213E-06
6.258417E+03	7.772313E-05	6.226767E-06
6.268320E+03	7.839334E-05	6.313536E-06
6.278222E+03	7.904919E-05	6.400553E-06
6.288125E+03	7.969146E-05	6.487852E-06
6.298027E+03	8.031877E-05	6.575292E-06
6.307930E+03	8.093307E-05	6.663003E-06
6.317833E+03	8.153418E-05	6.750937E-06
6.327735E+03	8.212186E-05	6.839042E-06
6.337638E+03	8.269594E-05	6.927269E-06
6.347540E+03	8.325866E-05	7.015771E-06
6.357443E+03	8.380874E-05	7.104405E-06
6.367345E+03	8.434850E-05	7.193334E-06
6.377248E+03	8.487797E-05	7.282524E-06
6.387150E+03	8.539714E-05	7.371942E-06
6.397053E+03	8.590731E-05	7.461663E-06
6.406956E+03	8.640857E-05	7.551661E-06
6.416858E+03	8.690229E-05	7.642024E-06
6.426761E+03	8.738595E-05	7.732494E-06
6.436663E+03	8.786228E-05	7.823278E-06
6.446566E+03	8.833146E-05	7.914358E-06
6.456468E+03	8.879224E-05	8.005590E-06
6.466371E+03	8.924614E-05	8.097075E-06
6.476273E+03	8.969335E-05	8.188798E-06
6.486176E+03	9.013404E-05	8.280742E-06
6.496079E+03	9.056844E-05	8.372895E-06
6.505981E+03	9.099815E-05	8.465375E-06
6.515884E+03	9.142199E-05	8.558041E-06
6.525786E+03	9.184016E-05	8.650880E-06
6.535689E+03	9.225439E-05	8.744026E-06
6.545591E+03	9.266494E-05	8.837477E-06
6.555494E+03	9.307058E-05	8.931084E-06
6.565396E+03	9.347308E-05	9.024993E-06
6.575299E+03	9.387116E-05	9.119051E-06
6.585202E+03	9.426828E-05	9.213568E-06
6.595104E+03	9.466155E-05	9.308239E-06
6.605007E+03	9.505123E-05	9.403062E-06
6.614909E+03	9.543921E-05	9.498202E-06
6.624812E+03	9.582588E-05	9.593671E-06
6.634714E+03	9.620981E-05	9.689306E-06
6.644617E+03	9.659134E-05	9.785118E-06
6.654520E+03	9.697242E-05	9.881282E-06
6.664422E+03	9.735171E-05	9.977641E-06
6.674325E+03	9.773121E-05	1.007438E-05
6.684227E+03	9.810777E-05	1.017116E-05
6.694130E+03	9.848522E-05	1.026834E-05
6.704032E+03	9.886032E-05	1.036559E-05
6.713935E+03	9.923692E-05	1.046328E-05
6.723837E+03	9.961179E-05	1.056105E-05
6.733740E+03	9.998703E-05	1.065910E-05
6.743643E+03	1.003630E-04	1.075747E-05
6.753545E+03	1.007381E-04	1.085597E-05
6.763448E+03	1.011145E-04	1.095481E-05
6.773350E+03	1.014907E-04	1.105381E-05
6.783253E+03	1.018689E-04	1.115320E-05
6.793155E+03	1.022456E-04	1.125258E-05
6.803058E+03	1.026249E-04	1.135239E-05
6.812960E+03	1.030052E-04	1.145244E-05
6.822863E+03	1.033869E-04	1.155276E-05
6.832766E+03	1.037682E-04	1.165315E-05
6.842668E+03	1.041535E-04	1.175407E-05
6.852571E+03	1.045371E-04	1.185487E-05
6.862473E+03	1.049253E-04	1.195626E-05
6.872376E+03	1.053143E-04	1.205781E-05
6.882278E+03	1.057046E-04	1.215953E-05
6.892181E+03	1.060984E-04	1.226170E-05
6.902083E+03	1.064940E-04	1.236410E-05
6.911986E+03	1.068917E-04	1.246675E-05
6.921889E+03	1.072919E-04	1.256969E-05
6.931791E+03	1.076947E-04	1.267294E-05
6.941694E+03	1.081006E-04	1.277653E-05
6.951596E+03	1.085078E-04	1.288024E-05
6.961499E+03	1.089207E-04	1.298460E-05
6.971401E+03	1.093334E-04	1.308888E-05
6.981304E+03	1.097524E-04	1.319388E-05
6.991207E+03	1.101717E-04	1.329885E-05
7.001109E+03	1.105960E-04	1.340435E-05
7.011012E+03	1.110232E-04	1.351014E-05
7.020914E+03	1.114538E-04	1.361625E-05
7.030817E+03	1.118903E-04	1.372300E-05
7.040719E+03	1.123286E-04	1.382985E-05
7.050622E+03	1.127710E-04	1.393714E-05
7.060524E+03	1.132158E-04	1.404459E-05
7.070427E+03	1.136655E-04	1.415254E-05
7.080330E+03	1.141203E-04	1.426102E-05
7.090232E+03	1.145784E-04	1.436977E-05
7.100135E+03	1.150423E-04	1.447912E-05
7.110037E+03	1.155077E-04	1.458852E-05
7.119940E+03	1.159796E-04	1.469860E-05
7.129842E+03	1.164559E-04	1.480909E-05
7.139745E+03	1.169345E-04	1.491973E-05
7.149647E+03	1.174182E-04	1.503086E-05
7.159550E+03	1.179073E-04	1.514251E-05
7.169453E+03	1.183996E-04	1.525442E-05
7.179355E+03	1.188954E-04	1.536661E-05
7.189258E+03	1.193951E-04	1.547913E-05
7.199160E+03	1.198989E-04	1.559200E-05
7.209063E+03	1.204072E-04	1.570527E-05
7.218965E+03	1.209151E-04	1.581831E-05
7.228868E+03	1.214281E-04	1.593182E-05
7.238770E+03	1.219439E-04	1.604549E-05
7.248673E+03	1.224601E-04	1.615903E-05
7.258576E+03	1.229797E-04	1.627280E-05
7.268478E+03	1.234977E-04	1.638616E-05
7.278381E+03	1.240143E-04	1.649911E-05
7.288283E+03	1.245298E-04	1.661168E-05
7.298186E+03	1.250417E-04	1.672355E-05
7.308088E+03	1.255528E-04	1.683508E-05
7.317991E+03	1.260554E-04	1.694522E-05
7.327894E+03	1.265548E-04	1.705469E-05
7.337796E+03	1.270460E-04	1.716277E-05
7.347699E+03	1.275315E-04	1.726984E-05
7.357601E+03	1.280090E-04	1.737553E-05
7.367504E+03	1.284783E-04	1.747984E-05
7.377406E+03	1.289424E-04	1.758315E-05
7.387309E+03	1.293986E-04	1.768509E-05
7.397211E+03	1.298554E-04	1.778681E-05
7.407114E+03	1.303074E-04	1.788756E-05
7.417017E+03	1.307603E-04	1.798814E-05
7.426919E+03	1.312115E-04	1.808819E-05
7.436822E+03	1.316698E-04	1.818890E-05
7.446724E+03	1.321325E-04	1.828994E-05
7.456627E+03	1.325999E-04	1.839132E-05
7.466529E+03	1.330751E-04	1.849348E-05
7.476432E+03	1.335582E-04	1.859645E-05
7.486334E+03	1.340553E-04	1.870111E-05
7.496237E+03	1.345610E-04	1.880666E-05
7.506140E+03	1.350783E-04	1.891358E-05
7.516042E+03	1.356105E-04	1.902232E-05
7.525945E+03	1.361549E-04	1.913249E-05
7.535847E+03	1.367146E-04	1.924453E-05
7.545750E+03	1.372865E-04	1.935801E-05
7.555652E+03	1.378770E-04	1.947383E-05
7.565555E+03	1.384799E-04	1.959112E-05
7.575457E+03	1.391016E-04	1.971078E-05
7.585360E+03	1.397360E-04	1.983194E-05
7.595263E+03	1.403894E-04	1.995552E-05
7.605165E+03	1.410558E-04	2.008062E-05
7.615068E+03	1.417415E-04	2.020818E-05
7.624970E+03	1.424435E-04	2.033776E-05
7.634873E+03	1.431620E-04	2.046938E-05
7.644775E+03	1.438971E-04	2.060307E-05
7.654678E+03	1.446490E-04	2.073883E-05
7.664581E+03	1.454178E-04	2.087670E-05
7.674483E+03	1.462002E-04	2.101620E-05
7.684386E+03	1.470032E-04	2.115832E-05
