#wls	flux	fluxerr
1.584409E+03	3.139921E-05	0.000000E+00
1.624020E+03	3.225922E-05	0.000000E+00
1.663630E+03	3.316955E-05	0.000000E+00
1.703240E+03	3.413049E-05	0.000000E+00
1.742850E+03	3.514509E-05	0.000000E+00
1.782461E+03	3.621902E-05	0.000000E+00
1.822071E+03	3.734546E-05	0.000000E+00
1.861681E+03	3.853234E-05	0.000000E+00
1.901291E+03	3.977802E-05	0.000000E+00
1.940902E+03	4.108051E-05	0.000000E+00
1.980512E+03	4.243448E-05	0.000000E+00
2.020122E+03	4.383720E-05	0.000000E+00
2.059732E+03	4.527982E-05	0.000000E+00
2.099342E+03	4.674768E-05	0.000000E+00
2.138953E+03	4.823466E-05	0.000000E+00
2.178563E+03	4.972338E-05	0.000000E+00
2.218173E+03	5.119960E-05	0.000000E+00
2.257783E+03	5.265479E-05	0.000000E+00
2.297394E+03	5.408583E-05	0.000000E+00
2.337004E+03	5.549726E-05	0.000000E+00
2.376614E+03	5.689550E-05	0.000000E+00
2.416224E+03	5.828614E-05	0.000000E+00
2.455835E+03	5.968129E-05	0.000000E+00
2.495445E+03	6.108426E-05	0.000000E+00
2.535055E+03	6.250222E-05	0.000000E+00
2.574665E+03	6.393390E-05	0.000000E+00
2.614276E+03	6.537956E-05	0.000000E+00
2.653886E+03	6.683399E-05	0.000000E+00
2.693496E+03	6.829143E-05	0.000000E+00
2.733106E+03	6.974563E-05	0.000000E+00
2.772716E+03	7.118776E-05	0.000000E+00
2.812327E+03	7.260887E-05	0.000000E+00
2.851937E+03	7.400384E-05	0.000000E+00
2.891547E+03	7.536320E-05	0.000000E+00
2.931157E+03	7.668689E-05	0.000000E+00
2.970768E+03	7.796839E-05	0.000000E+00
2.980670E+03	7.828403E-05	0.000000E+00
2.990573E+03	7.859568E-05	0.000000E+00
3.000475E+03	7.890315E-05	0.000000E+00
3.010378E+03	7.920975E-05	0.000000E+00
3.020280E+03	7.951344E-05	0.000000E+00
3.030183E+03	7.981402E-05	0.000000E+00
3.040086E+03	8.011295E-05	0.000000E+00
3.049988E+03	8.040828E-05	0.000000E+00
3.059891E+03	8.069976E-05	0.000000E+00
3.069793E+03	8.099055E-05	0.000000E+00
3.079696E+03	8.127700E-05	0.000000E+00
3.089598E+03	8.156056E-05	0.000000E+00
3.099501E+03	8.183935E-05	0.000000E+00
3.109403E+03	8.211801E-05	0.000000E+00
3.119306E+03	8.239141E-05	0.000000E+00
3.129209E+03	8.266094E-05	0.000000E+00
3.139111E+03	8.292793E-05	0.000000E+00
3.149014E+03	8.319214E-05	0.000000E+00
3.158916E+03	8.345016E-05	0.000000E+00
3.168819E+03	8.370646E-05	0.000000E+00
3.178721E+03	8.395767E-05	0.000000E+00
3.188624E+03	8.420511E-05	0.000000E+00
3.198526E+03	8.444701E-05	0.000000E+00
3.208429E+03	8.468467E-05	0.000000E+00
3.218332E+03	8.491783E-05	0.000000E+00
3.228234E+03	8.514629E-05	0.000000E+00
3.238137E+03	8.536836E-05	0.000000E+00
3.248039E+03	8.558528E-05	0.000000E+00
3.257942E+03	8.579685E-05	0.000000E+00
3.267844E+03	8.600146E-05	0.000000E+00
3.277747E+03	8.620032E-05	0.000000E+00
3.287650E+03	8.639185E-05	0.000000E+00
3.297552E+03	8.657728E-05	0.000000E+00
3.307455E+03	8.675506E-05	0.000000E+00
3.317357E+03	8.692505E-05	0.000000E+00
3.327260E+03	8.708712E-05	0.000000E+00
3.337162E+03	8.724112E-05	0.000000E+00
3.347065E+03	8.738695E-05	0.000000E+00
3.356967E+03	8.752320E-05	0.000000E+00
3.366870E+03	8.765104E-05	0.000000E+00
3.376773E+03	8.776790E-05	0.000000E+00
3.386675E+03	8.787627E-05	0.000000E+00
3.396578E+03	8.797352E-05	0.000000E+00
3.406480E+03	8.805963E-05	0.000000E+00
3.416383E+03	8.813463E-05	0.000000E+00
3.426285E+03	8.819735E-05	0.000000E+00
3.436188E+03	8.824904E-05	0.000000E+00
3.446090E+03	8.828846E-05	0.000000E+00
3.455993E+03	8.831457E-05	0.000000E+00
3.465896E+03	8.832736E-05	0.000000E+00
3.475798E+03	8.832605E-05	0.000000E+00
3.485701E+03	8.831159E-05	0.000000E+00
3.495603E+03	8.828102E-05	0.000000E+00
3.505506E+03	8.823564E-05	0.000000E+00
3.515408E+03	8.817440E-05	0.000000E+00
3.525311E+03	8.809774E-05	0.000000E+00
3.535213E+03	8.800365E-05	0.000000E+00
3.545116E+03	8.789143E-05	0.000000E+00
3.555019E+03	8.776256E-05	0.000000E+00
3.564921E+03	8.761415E-05	0.000000E+00
3.574824E+03	8.744777E-05	0.000000E+00
3.584726E+03	8.726274E-05	0.000000E+00
3.594629E+03	8.705755E-05	0.000000E+00
3.604531E+03	8.683174E-05	0.000000E+00
3.614434E+03	8.658582E-05	0.000000E+00
3.624337E+03	8.631847E-05	0.000000E+00
3.634239E+03	8.603117E-05	0.000000E+00
3.644142E+03	8.572175E-05	0.000000E+00
3.654044E+03	8.539086E-05	0.000000E+00
3.663947E+03	8.503825E-05	0.000000E+00
3.673849E+03	8.466460E-05	0.000000E+00
3.683752E+03	8.426884E-05	0.000000E+00
3.693654E+03	8.385171E-05	0.000000E+00
3.703557E+03	8.341307E-05	0.000000E+00
3.713460E+03	8.295369E-05	0.000000E+00
3.723362E+03	8.247347E-05	0.000000E+00
3.733265E+03	8.197319E-05	0.000000E+00
3.743167E+03	8.145280E-05	0.000000E+00
3.753070E+03	8.091228E-05	0.000000E+00
3.762972E+03	8.035400E-05	0.000000E+00
3.772875E+03	7.977638E-05	0.000000E+00
3.782777E+03	7.918098E-05	0.000000E+00
3.792680E+03	7.856935E-05	0.000000E+00
3.802583E+03	7.794071E-05	0.000000E+00
3.812485E+03	7.729584E-05	0.000000E+00
3.822388E+03	7.663624E-05	0.000000E+00
3.832290E+03	7.596264E-05	0.000000E+00
3.842193E+03	7.527574E-05	0.000000E+00
3.852095E+03	7.457555E-05	0.000000E+00
3.861998E+03	7.386349E-05	0.000000E+00
3.871900E+03	7.314022E-05	0.000000E+00
3.881803E+03	7.240641E-05	0.000000E+00
3.891706E+03	7.166273E-05	0.000000E+00
3.901608E+03	7.090980E-05	0.000000E+00
3.911511E+03	7.014891E-05	0.000000E+00
3.921413E+03	6.938062E-05	0.000000E+00
3.931316E+03	6.860491E-05	0.000000E+00
3.941218E+03	6.782359E-05	0.000000E+00
3.951121E+03	6.703659E-05	0.000000E+00
3.961024E+03	6.624504E-05	0.000000E+00
3.970926E+03	6.544945E-05	0.000000E+00
3.980829E+03	6.464972E-05	0.000000E+00
3.990731E+03	6.384750E-05	0.000000E+00
4.000634E+03	6.304269E-05	0.000000E+00
4.010536E+03	6.223629E-05	0.000000E+00
4.020439E+03	6.142871E-05	0.000000E+00
4.030341E+03	6.062037E-05	0.000000E+00
4.040244E+03	5.981168E-05	0.000000E+00
4.050147E+03	5.900353E-05	0.000000E+00
4.060049E+03	5.819578E-05	0.000000E+00
4.069952E+03	5.738879E-05	0.000000E+00
4.079854E+03	5.658391E-05	0.000000E+00
4.089757E+03	5.578046E-05	0.000000E+00
4.099659E+03	5.497927E-05	0.000000E+00
4.109562E+03	5.418063E-05	0.000000E+00
4.119464E+03	5.338483E-05	0.000000E+00
4.129367E+03	5.259217E-05	0.000000E+00
4.139270E+03	5.180291E-05	0.000000E+00
4.149172E+03	5.101732E-05	0.000000E+00
4.159075E+03	5.023566E-05	0.000000E+00
4.168977E+03	4.945816E-05	0.000000E+00
4.178880E+03	4.868506E-05	0.000000E+00
4.188782E+03	4.791617E-05	0.000000E+00
4.198685E+03	4.715172E-05	0.000000E+00
4.208587E+03	4.639235E-05	0.000000E+00
4.218490E+03	4.563824E-05	0.000000E+00
4.228393E+03	4.488881E-05	0.000000E+00
4.238295E+03	4.414465E-05	0.000000E+00
4.248198E+03	4.340596E-05	0.000000E+00
4.258100E+03	4.267290E-05	0.000000E+00
4.268003E+03	4.194566E-05	0.000000E+00
4.277905E+03	4.122402E-05	0.000000E+00
4.287808E+03	4.050888E-05	0.000000E+00
4.297711E+03	3.979965E-05	0.000000E+00
4.307613E+03	3.909718E-05	0.000000E+00
4.317516E+03	3.840158E-05	0.000000E+00
4.327418E+03	3.771330E-05	0.000000E+00
4.337321E+03	3.703239E-05	0.000000E+00
4.347223E+03	3.635927E-05	0.000000E+00
4.357126E+03	3.569399E-05	0.000000E+00
4.367028E+03	3.503722E-05	0.000000E+00
4.376931E+03	3.438896E-05	0.000000E+00
4.386834E+03	3.374923E-05	0.000000E+00
4.396736E+03	3.311862E-05	0.000000E+00
4.406639E+03	3.249708E-05	0.000000E+00
4.416541E+03	3.188489E-05	0.000000E+00
4.426444E+03	3.128256E-05	0.000000E+00
4.436346E+03	3.068972E-05	0.000000E+00
4.446249E+03	3.010685E-05	0.000000E+00
4.456151E+03	2.953411E-05	0.000000E+00
4.466054E+03	2.897140E-05	0.000000E+00
4.475957E+03	2.841887E-05	0.000000E+00
4.485859E+03	2.787663E-05	0.000000E+00
4.495762E+03	2.734481E-05	0.000000E+00
4.505664E+03	2.682349E-05	0.000000E+00
4.515567E+03	2.631253E-05	0.000000E+00
4.525469E+03	2.581174E-05	0.000000E+00
4.535372E+03	2.532169E-05	0.000000E+00
4.545274E+03	2.484194E-05	0.000000E+00
4.555177E+03	2.437231E-05	0.000000E+00
4.565080E+03	2.391309E-05	0.000000E+00
4.574982E+03	2.346429E-05	0.000000E+00
4.584885E+03	2.302526E-05	0.000000E+00
4.594787E+03	2.259670E-05	0.000000E+00
4.604690E+03	2.217773E-05	0.000000E+00
4.614592E+03	2.176880E-05	0.000000E+00
4.624495E+03	2.136970E-05	0.000000E+00
4.634398E+03	2.098023E-05	0.000000E+00
4.644300E+03	2.060016E-05	0.000000E+00
4.654203E+03	2.022931E-05	0.000000E+00
4.664105E+03	1.986785E-05	0.000000E+00
4.674008E+03	1.951539E-05	0.000000E+00
4.683910E+03	1.917172E-05	0.000000E+00
4.693813E+03	1.883686E-05	0.000000E+00
4.703715E+03	1.851020E-05	0.000000E+00
4.713618E+03	1.819211E-05	0.000000E+00
4.723521E+03	1.788189E-05	0.000000E+00
4.733423E+03	1.757968E-05	0.000000E+00
4.743326E+03	1.728532E-05	0.000000E+00
4.753228E+03	1.699828E-05	0.000000E+00
4.763131E+03	1.671856E-05	0.000000E+00
4.773033E+03	1.644617E-05	0.000000E+00
4.782936E+03	1.618061E-05	0.000000E+00
4.792838E+03	1.592189E-05	0.000000E+00
4.802741E+03	1.566986E-05	0.000000E+00
4.812644E+03	1.542421E-05	0.000000E+00
4.822546E+03	1.518480E-05	0.000000E+00
4.832449E+03	1.495164E-05	0.000000E+00
4.842351E+03	1.472444E-05	0.000000E+00
4.852254E+03	1.450322E-05	0.000000E+00
4.862156E+03	1.428755E-05	0.000000E+00
4.872059E+03	1.407746E-05	0.000000E+00
4.881961E+03	1.387283E-05	0.000000E+00
4.891864E+03	1.367338E-05	0.000000E+00
4.901767E+03	1.347916E-05	0.000000E+00
4.911669E+03	1.328990E-05	0.000000E+00
4.921572E+03	1.310565E-05	0.000000E+00
4.931474E+03	1.292614E-05	0.000000E+00
4.941377E+03	1.275130E-05	0.000000E+00
4.951279E+03	1.258087E-05	0.000000E+00
4.961182E+03	1.241503E-05	0.000000E+00
4.971085E+03	1.225343E-05	0.000000E+00
4.980987E+03	1.209599E-05	0.000000E+00
4.990890E+03	1.194273E-05	0.000000E+00
5.000792E+03	1.179345E-05	0.000000E+00
5.010695E+03	1.164807E-05	0.000000E+00
5.020597E+03	1.150651E-05	0.000000E+00
5.030500E+03	1.136868E-05	0.000000E+00
5.040402E+03	1.123441E-05	0.000000E+00
5.050305E+03	1.110362E-05	0.000000E+00
5.060208E+03	1.097635E-05	0.000000E+00
5.070110E+03	1.085231E-05	0.000000E+00
5.080013E+03	1.073167E-05	0.000000E+00
5.089915E+03	1.061403E-05	0.000000E+00
5.099818E+03	1.049954E-05	0.000000E+00
5.109720E+03	1.038805E-05	0.000000E+00
5.119623E+03	1.027948E-05	0.000000E+00
5.129525E+03	1.017381E-05	0.000000E+00
5.139428E+03	1.007087E-05	0.000000E+00
5.149331E+03	9.970601E-06	0.000000E+00
5.159233E+03	9.872866E-06	0.000000E+00
5.169136E+03	9.777822E-06	0.000000E+00
5.179038E+03	9.685116E-06	0.000000E+00
5.188941E+03	9.594820E-06	0.000000E+00
5.198843E+03	9.506889E-06	0.000000E+00
5.208746E+03	9.421288E-06	0.000000E+00
5.218648E+03	9.337772E-06	0.000000E+00
5.228551E+03	9.256421E-06	0.000000E+00
5.238454E+03	9.177110E-06	0.000000E+00
5.248356E+03	9.099788E-06	0.000000E+00
5.258259E+03	9.024359E-06	0.000000E+00
5.268161E+03	8.950865E-06	0.000000E+00
5.278064E+03	8.879115E-06	0.000000E+00
5.287966E+03	8.809074E-06	0.000000E+00
5.297869E+03	8.740628E-06	0.000000E+00
5.307772E+03	8.673853E-06	0.000000E+00
5.317674E+03	8.608463E-06	0.000000E+00
5.327577E+03	8.544526E-06	0.000000E+00
5.337479E+03	8.481941E-06	0.000000E+00
5.347382E+03	8.420604E-06	0.000000E+00
5.357284E+03	8.360253E-06	0.000000E+00
5.367187E+03	8.300792E-06	0.000000E+00
5.377089E+03	8.242134E-06	0.000000E+00
5.386992E+03	8.183863E-06	0.000000E+00
5.396895E+03	8.125896E-06	0.000000E+00
5.406797E+03	8.067915E-06	0.000000E+00
5.416700E+03	8.009766E-06	0.000000E+00
5.426602E+03	7.951700E-06	0.000000E+00
5.436505E+03	7.893641E-06	0.000000E+00
5.446407E+03	7.835831E-06	0.000000E+00
5.456310E+03	7.778345E-06	0.000000E+00
5.466212E+03	7.721494E-06	0.000000E+00
5.476115E+03	7.665187E-06	0.000000E+00
5.486018E+03	7.609571E-06	0.000000E+00
5.495920E+03	7.554633E-06	0.000000E+00
5.505823E+03	7.500589E-06	0.000000E+00
5.515725E+03	7.447345E-06	0.000000E+00
5.525628E+03	7.394962E-06	0.000000E+00
5.535530E+03	7.343423E-06	0.000000E+00
5.545433E+03	7.292859E-06	0.000000E+00
5.555335E+03	7.243177E-06	0.000000E+00
5.565238E+03	7.194433E-06	0.000000E+00
5.575141E+03	7.146681E-06	0.000000E+00
5.585043E+03	7.099901E-06	0.000000E+00
5.594946E+03	7.054146E-06	0.000000E+00
5.604848E+03	7.009324E-06	0.000000E+00
5.614751E+03	6.965486E-06	0.000000E+00
5.624653E+03	6.922684E-06	0.000000E+00
5.634556E+03	6.880899E-06	0.000000E+00
5.644459E+03	6.840111E-06	0.000000E+00
5.654361E+03	6.800296E-06	0.000000E+00
5.664264E+03	6.761580E-06	0.000000E+00
5.674166E+03	6.723798E-06	0.000000E+00
5.684069E+03	6.687075E-06	0.000000E+00
5.693971E+03	6.651389E-06	0.000000E+00
5.703874E+03	6.616650E-06	0.000000E+00
5.713776E+03	6.582908E-06	0.000000E+00
5.723679E+03	6.550217E-06	0.000000E+00
5.733582E+03	6.518486E-06	0.000000E+00
5.743484E+03	6.487695E-06	0.000000E+00
5.753387E+03	6.457969E-06	0.000000E+00
5.763289E+03	6.429148E-06	0.000000E+00
5.773192E+03	6.401285E-06	0.000000E+00
5.783094E+03	6.374362E-06	0.000000E+00
5.792997E+03	6.348362E-06	0.000000E+00
5.802899E+03	6.323338E-06	0.000000E+00
5.812802E+03	6.299134E-06	0.000000E+00
5.822705E+03	6.275874E-06	0.000000E+00
5.832607E+03	6.253471E-06	0.000000E+00
5.842510E+03	6.231911E-06	0.000000E+00
5.852412E+03	6.211179E-06	0.000000E+00
5.862315E+03	6.191258E-06	0.000000E+00
5.872217E+03	6.172205E-06	0.000000E+00
5.882120E+03	6.153865E-06	0.000000E+00
5.892022E+03	6.136224E-06	0.000000E+00
5.901925E+03	6.119338E-06	0.000000E+00
5.911828E+03	6.103194E-06	0.000000E+00
5.921730E+03	6.087636E-06	0.000000E+00
5.931633E+03	6.072793E-06	0.000000E+00
5.941535E+03	6.058440E-06	0.000000E+00
5.951438E+03	6.044773E-06	0.000000E+00
5.961340E+03	6.031571E-06	0.000000E+00
5.971243E+03	6.018816E-06	0.000000E+00
5.981146E+03	6.006569E-06	0.000000E+00
5.991048E+03	5.994743E-06	0.000000E+00
6.000951E+03	5.983325E-06	0.000000E+00
6.010853E+03	5.972159E-06	0.000000E+00
6.020756E+03	5.961374E-06	0.000000E+00
6.030658E+03	5.950740E-06	0.000000E+00
6.040561E+03	5.940385E-06	0.000000E+00
6.050463E+03	5.930225E-06	0.000000E+00
6.060366E+03	5.920168E-06	0.000000E+00
6.070269E+03	5.910202E-06	0.000000E+00
6.080171E+03	5.900382E-06	0.000000E+00
6.090074E+03	5.890619E-06	0.000000E+00
6.099976E+03	5.880898E-06	0.000000E+00
6.109879E+03	5.871348E-06	0.000000E+00
6.119781E+03	5.861805E-06	0.000000E+00
6.129684E+03	5.852329E-06	0.000000E+00
6.139586E+03	5.842974E-06	0.000000E+00
6.149489E+03	5.833803E-06	0.000000E+00
6.159392E+03	5.824721E-06	0.000000E+00
6.169294E+03	5.815716E-06	0.000000E+00
6.179197E+03	5.806845E-06	0.000000E+00
6.189099E+03	5.798018E-06	0.000000E+00
6.199002E+03	5.789293E-06	0.000000E+00
6.208904E+03	5.780655E-06	0.000000E+00
6.218807E+03	5.772165E-06	0.000000E+00
6.228709E+03	5.763809E-06	0.000000E+00
6.238612E+03	5.755571E-06	0.000000E+00
6.248515E+03	5.747513E-06	0.000000E+00
6.258417E+03	5.739702E-06	0.000000E+00
6.268320E+03	5.732046E-06	0.000000E+00
6.278222E+03	5.724608E-06	0.000000E+00
6.288125E+03	5.717456E-06	0.000000E+00
6.298027E+03	5.710499E-06	0.000000E+00
6.307930E+03	5.703884E-06	0.000000E+00
6.317833E+03	5.697603E-06	0.000000E+00
6.327735E+03	5.691645E-06	0.000000E+00
6.337638E+03	5.685999E-06	0.000000E+00
6.347540E+03	5.680821E-06	0.000000E+00
6.357443E+03	5.676021E-06	0.000000E+00
6.367345E+03	5.671759E-06	0.000000E+00
6.377248E+03	5.668029E-06	0.000000E+00
6.387150E+03	5.664827E-06	0.000000E+00
6.397053E+03	5.662233E-06	0.000000E+00
6.406956E+03	5.660245E-06	0.000000E+00
6.416858E+03	5.658946E-06	0.000000E+00
6.426761E+03	5.658164E-06	0.000000E+00
6.436663E+03	5.658069E-06	0.000000E+00
6.446566E+03	5.658661E-06	0.000000E+00
6.456468E+03	5.659852E-06	0.000000E+00
6.466371E+03	5.661732E-06	0.000000E+00
6.476273E+03	5.664302E-06	0.000000E+00
6.486176E+03	5.667563E-06	0.000000E+00
6.496079E+03	5.671516E-06	0.000000E+00
6.505981E+03	5.676258E-06	0.000000E+00
6.515884E+03	5.681698E-06	0.000000E+00
6.525786E+03	5.687842E-06	0.000000E+00
6.535689E+03	5.694786E-06	0.000000E+00
6.545591E+03	5.702537E-06	0.000000E+00
6.555494E+03	5.711004E-06	0.000000E+00
6.565396E+03	5.720291E-06	0.000000E+00
6.575299E+03	5.730304E-06	0.000000E+00
6.585202E+03	5.741247E-06	0.000000E+00
6.595104E+03	5.752932E-06	0.000000E+00
6.605007E+03	5.765366E-06	0.000000E+00
6.614909E+03	5.778655E-06	0.000000E+00
6.624812E+03	5.792808E-06	0.000000E+00
6.634714E+03	5.807734E-06	0.000000E+00
6.644617E+03	5.823440E-06	0.000000E+00
6.654520E+03	5.840037E-06	0.000000E+00
6.664422E+03	5.857433E-06	0.000000E+00
6.674325E+03	5.875741E-06	0.000000E+00
6.684227E+03	5.894761E-06	0.000000E+00
6.694130E+03	5.914715E-06	0.000000E+00
6.704032E+03	5.935399E-06	0.000000E+00
6.713935E+03	5.957038E-06	0.000000E+00
6.723837E+03	5.979427E-06	0.000000E+00
6.733740E+03	6.002685E-06	0.000000E+00
6.743643E+03	6.026823E-06	0.000000E+00
6.753545E+03	6.051742E-06	0.000000E+00
6.763448E+03	6.077563E-06	0.000000E+00
6.773350E+03	6.104186E-06	0.000000E+00
6.783253E+03	6.131734E-06	0.000000E+00
6.793155E+03	6.159994E-06	0.000000E+00
6.803058E+03	6.189202E-06	0.000000E+00
6.812960E+03	6.219257E-06	0.000000E+00
6.822863E+03	6.250170E-06	0.000000E+00
6.832766E+03	6.281835E-06	0.000000E+00
6.842668E+03	6.314500E-06	0.000000E+00
6.852571E+03	6.347817E-06	0.000000E+00
6.862473E+03	6.382161E-06	0.000000E+00
6.872376E+03	6.417300E-06	0.000000E+00
6.882278E+03	6.453245E-06	0.000000E+00
6.892181E+03	6.490132E-06	0.000000E+00
6.902083E+03	6.527850E-06	0.000000E+00
6.911986E+03	6.566407E-06	0.000000E+00
6.921889E+03	6.605818E-06	0.000000E+00
6.931791E+03	6.646093E-06	0.000000E+00
6.941694E+03	6.687244E-06	0.000000E+00
6.951596E+03	6.729151E-06	0.000000E+00
6.961499E+03	6.772091E-06	0.000000E+00
6.971401E+03	6.815675E-06	0.000000E+00
6.981304E+03	6.860319E-06	0.000000E+00
6.991207E+03	6.905626E-06	0.000000E+00
7.001109E+03	6.951880E-06	0.000000E+00
7.011012E+03	6.998956E-06	0.000000E+00
7.020914E+03	7.046864E-06	0.000000E+00
7.030817E+03	7.095756E-06	0.000000E+00
7.040719E+03	7.145362E-06	0.000000E+00
7.050622E+03	7.195832E-06	0.000000E+00
7.060524E+03	7.247032E-06	0.000000E+00
7.070427E+03	7.299117E-06	0.000000E+00
7.080330E+03	7.352099E-06	0.000000E+00
7.090232E+03	7.405839E-06	0.000000E+00
7.100135E+03	7.460498E-06	0.000000E+00
7.110037E+03	7.515781E-06	0.000000E+00
7.119940E+03	7.572001E-06	0.000000E+00
7.129842E+03	7.629017E-06	0.000000E+00
7.139745E+03	7.686677E-06	0.000000E+00
7.149647E+03	7.745147E-06	0.000000E+00
7.159550E+03	7.804434E-06	0.000000E+00
7.169453E+03	7.864387E-06	0.000000E+00
7.179355E+03	7.925009E-06	0.000000E+00
7.189258E+03	7.986306E-06	0.000000E+00
7.199160E+03	8.048281E-06	0.000000E+00
7.209063E+03	8.110941E-06	0.000000E+00
7.218965E+03	8.173950E-06	0.000000E+00
7.228868E+03	8.237647E-06	0.000000E+00
7.238770E+03	8.301864E-06	0.000000E+00
7.248673E+03	8.366426E-06	0.000000E+00
7.258576E+03	8.431504E-06	0.000000E+00
7.268478E+03	8.496743E-06	0.000000E+00
7.278381E+03	8.562132E-06	0.000000E+00
7.288283E+03	8.627662E-06	0.000000E+00
7.298186E+03	8.693139E-06	0.000000E+00
7.308088E+03	8.758731E-06	0.000000E+00
7.317991E+03	8.823870E-06	0.000000E+00
7.327894E+03	8.888901E-06	0.000000E+00
7.337796E+03	8.953432E-06	0.000000E+00
7.347699E+03	9.017622E-06	0.000000E+00
7.357601E+03	9.081259E-06	0.000000E+00
7.367504E+03	9.144310E-06	0.000000E+00
7.377406E+03	9.206940E-06	0.000000E+00
7.387309E+03	9.268931E-06	0.000000E+00
7.397211E+03	9.330851E-06	0.000000E+00
7.407114E+03	9.392290E-06	0.000000E+00
7.417017E+03	9.453615E-06	0.000000E+00
7.426919E+03	9.514616E-06	0.000000E+00
7.436822E+03	9.575888E-06	0.000000E+00
7.446724E+03	9.637230E-06	0.000000E+00
7.456627E+03	9.698625E-06	0.000000E+00
7.466529E+03	9.760274E-06	0.000000E+00
7.476432E+03	9.822168E-06	0.000000E+00
7.486334E+03	9.884763E-06	0.000000E+00
7.496237E+03	9.947595E-06	0.000000E+00
7.506140E+03	1.001091E-05	0.000000E+00
7.516042E+03	1.007491E-05	0.000000E+00
7.525945E+03	1.013939E-05	0.000000E+00
7.535847E+03	1.020459E-05	0.000000E+00
7.545750E+03	1.027027E-05	0.000000E+00
7.555652E+03	1.033690E-05	0.000000E+00
7.565555E+03	1.040403E-05	0.000000E+00
7.575457E+03	1.047214E-05	0.000000E+00
7.585360E+03	1.054075E-05	0.000000E+00
7.595263E+03	1.061038E-05	0.000000E+00
7.605165E+03	1.068051E-05	0.000000E+00
7.615068E+03	1.075169E-05	0.000000E+00
7.624970E+03	1.082364E-05	0.000000E+00
7.634873E+03	1.089639E-05	0.000000E+00
7.644775E+03	1.096994E-05	0.000000E+00
7.654678E+03	1.104432E-05	0.000000E+00
7.664581E+03	1.111952E-05	0.000000E+00
7.674483E+03	1.119530E-05	0.000000E+00
7.684386E+03	1.127219E-05	0.000000E+00
