#wls	flux	fluxerr
1.584409E+03	5.685696E-04	2.387786E-04
1.624020E+03	5.768610E-04	2.414726E-04
1.663630E+03	5.855372E-04	2.442749E-04
1.703240E+03	5.945729E-04	2.471712E-04
1.742850E+03	6.039912E-04	2.501673E-04
1.782461E+03	6.138597E-04	2.532869E-04
1.822071E+03	6.240306E-04	2.564648E-04
1.861681E+03	6.346097E-04	2.597402E-04
1.901291E+03	6.455411E-04	2.630855E-04
1.940902E+03	6.567689E-04	2.664734E-04
1.980512E+03	6.681869E-04	2.698563E-04
2.020122E+03	6.797392E-04	2.732077E-04
2.059732E+03	6.912818E-04	2.764660E-04
2.099342E+03	7.025944E-04	2.795404E-04
2.138953E+03	7.136007E-04	2.823991E-04
2.178563E+03	7.240710E-04	2.849501E-04
2.218173E+03	7.338368E-04	2.871280E-04
2.257783E+03	7.428288E-04	2.889076E-04
2.297394E+03	7.510612E-04	2.902968E-04
2.337004E+03	7.586572E-04	2.913456E-04
2.376614E+03	7.657648E-04	2.921126E-04
2.416224E+03	7.725161E-04	2.926490E-04
2.455835E+03	7.791261E-04	2.930359E-04
2.495445E+03	7.856886E-04	2.933071E-04
2.535055E+03	7.923465E-04	2.935134E-04
2.574665E+03	7.991348E-04	2.936644E-04
2.614276E+03	8.061096E-04	2.937770E-04
2.653886E+03	8.132635E-04	2.938443E-04
2.693496E+03	8.205887E-04	2.938595E-04
2.733106E+03	8.280773E-04	2.938156E-04
2.772716E+03	8.356956E-04	2.936968E-04
2.812327E+03	8.434165E-04	2.934900E-04
2.851937E+03	8.512602E-04	2.931990E-04
2.891547E+03	8.592025E-04	2.928119E-04
2.931157E+03	8.673280E-04	2.923543E-04
2.970768E+03	8.756503E-04	2.918267E-04
2.980670E+03	8.777924E-04	2.916936E-04
2.990573E+03	8.799386E-04	2.915531E-04
3.000475E+03	8.820880E-04	2.914048E-04
3.010378E+03	8.842788E-04	2.912612E-04
3.020280E+03	8.864898E-04	2.911153E-04
3.030183E+03	8.887200E-04	2.909666E-04
3.040086E+03	8.909872E-04	2.908209E-04
3.049988E+03	8.932707E-04	2.906713E-04
3.059891E+03	8.955697E-04	2.905174E-04
3.069793E+03	8.979199E-04	2.903708E-04
3.079696E+03	9.002830E-04	2.902190E-04
3.089598E+03	9.026757E-04	2.900672E-04
3.099501E+03	9.050791E-04	2.899092E-04
3.109403E+03	9.075454E-04	2.897618E-04
3.119306E+03	9.100195E-04	2.896070E-04
3.129209E+03	9.125180E-04	2.894503E-04
3.139111E+03	9.150574E-04	2.892967E-04
3.149014E+03	9.176359E-04	2.891454E-04
3.158916E+03	9.202176E-04	2.889852E-04
3.168819E+03	9.228527E-04	2.888316E-04
3.178721E+03	9.255056E-04	2.886734E-04
3.188624E+03	9.281923E-04	2.885155E-04
3.198526E+03	9.308947E-04	2.883522E-04
3.208429E+03	9.336283E-04	2.881882E-04
3.218332E+03	9.363916E-04	2.880230E-04
3.228234E+03	9.391836E-04	2.878561E-04
3.238137E+03	9.419868E-04	2.876821E-04
3.248039E+03	9.448167E-04	2.875056E-04
3.257942E+03	9.476721E-04	2.873264E-04
3.267844E+03	9.505358E-04	2.871390E-04
3.277747E+03	9.534230E-04	2.869480E-04
3.287650E+03	9.563177E-04	2.867485E-04
3.297552E+03	9.592340E-04	2.865448E-04
3.307455E+03	9.621562E-04	2.863321E-04
3.317357E+03	9.650837E-04	2.861103E-04
3.327260E+03	9.680163E-04	2.858792E-04
3.337162E+03	9.709528E-04	2.856386E-04
3.347065E+03	9.738936E-04	2.853886E-04
3.356967E+03	9.768234E-04	2.851246E-04
3.366870E+03	9.797569E-04	2.848512E-04
3.376773E+03	9.826653E-04	2.845599E-04
3.386675E+03	9.855767E-04	2.842589E-04
3.396578E+03	9.884632E-04	2.839403E-04
3.406480E+03	9.913256E-04	2.836045E-04
3.416383E+03	9.941642E-04	2.832516E-04
3.426285E+03	9.969655E-04	2.828780E-04
3.436188E+03	9.997440E-04	2.824880E-04
3.446090E+03	1.002486E-03	2.820780E-04
3.455993E+03	1.005181E-03	2.816448E-04
3.465896E+03	1.007829E-03	2.811889E-04
3.475798E+03	1.010417E-03	2.807073E-04
3.485701E+03	1.012961E-03	2.802041E-04
3.495603E+03	1.015424E-03	2.796695E-04
3.505506E+03	1.017819E-03	2.791078E-04
3.515408E+03	1.020135E-03	2.785162E-04
3.525311E+03	1.022376E-03	2.778959E-04
3.535213E+03	1.024518E-03	2.772410E-04
3.545116E+03	1.026551E-03	2.765492E-04
3.555019E+03	1.028491E-03	2.758252E-04
3.564921E+03	1.030303E-03	2.750603E-04
3.574824E+03	1.032003E-03	2.742592E-04
3.584726E+03	1.033581E-03	2.734201E-04
3.594629E+03	1.035018E-03	2.725380E-04
3.604531E+03	1.036305E-03	2.716116E-04
3.614434E+03	1.037445E-03	2.706426E-04
3.624337E+03	1.038421E-03	2.696266E-04
3.634239E+03	1.039247E-03	2.685684E-04
3.644142E+03	1.039893E-03	2.674609E-04
3.654044E+03	1.040363E-03	2.663062E-04
3.663947E+03	1.040652E-03	2.651033E-04
3.673849E+03	1.040763E-03	2.638542E-04
3.683752E+03	1.040678E-03	2.625552E-04
3.693654E+03	1.040403E-03	2.612086E-04
3.703557E+03	1.039932E-03	2.598137E-04
3.713460E+03	1.039269E-03	2.583724E-04
3.723362E+03	1.038409E-03	2.568844E-04
3.733265E+03	1.037355E-03	2.553516E-04
3.743167E+03	1.036102E-03	2.537735E-04
3.753070E+03	1.034644E-03	2.521496E-04
3.762972E+03	1.033008E-03	2.504870E-04
3.772875E+03	1.031165E-03	2.487804E-04
3.782777E+03	1.029132E-03	2.470341E-04
3.792680E+03	1.026922E-03	2.452525E-04
3.802583E+03	1.024520E-03	2.434326E-04
3.812485E+03	1.021930E-03	2.415765E-04
3.822388E+03	1.019165E-03	2.396882E-04
3.832290E+03	1.016230E-03	2.377695E-04
3.842193E+03	1.013128E-03	2.358221E-04
3.852095E+03	1.009853E-03	2.338455E-04
3.861998E+03	1.006419E-03	2.318434E-04
3.871900E+03	1.002828E-03	2.298174E-04
3.881803E+03	9.990842E-04	2.277692E-04
3.891706E+03	9.951901E-04	2.256999E-04
3.901608E+03	9.911491E-04	2.236112E-04
3.911511E+03	9.869726E-04	2.215063E-04
3.921413E+03	9.826635E-04	2.193866E-04
3.931316E+03	9.782154E-04	2.172514E-04
3.941218E+03	9.736483E-04	2.151056E-04
3.951121E+03	9.689556E-04	2.129486E-04
3.961024E+03	9.641482E-04	2.107832E-04
3.970926E+03	9.592278E-04	2.086105E-04
3.980829E+03	9.541876E-04	2.064295E-04
3.990731E+03	9.490467E-04	2.042450E-04
4.000634E+03	9.437981E-04	2.020560E-04
4.010536E+03	9.384513E-04	1.998649E-04
4.020439E+03	9.330080E-04	1.976728E-04
4.030341E+03	9.274690E-04	1.954802E-04
4.040244E+03	9.218358E-04	1.932879E-04
4.050147E+03	9.161172E-04	1.910982E-04
4.060049E+03	9.103062E-04	1.889100E-04
4.069952E+03	9.044035E-04	1.867239E-04
4.079854E+03	8.984260E-04	1.845438E-04
4.089757E+03	8.923581E-04	1.823670E-04
4.099659E+03	8.862086E-04	1.801954E-04
4.109562E+03	8.799778E-04	1.780295E-04
4.119464E+03	8.736661E-04	1.758698E-04
4.129367E+03	8.672739E-04	1.737166E-04
4.139270E+03	8.608016E-04	1.715704E-04
4.149172E+03	8.542493E-04	1.694314E-04
4.159075E+03	8.476173E-04	1.672999E-04
4.168977E+03	8.409060E-04	1.651762E-04
4.178880E+03	8.341152E-04	1.630607E-04
4.188782E+03	8.272383E-04	1.609521E-04
4.198685E+03	8.202750E-04	1.588507E-04
4.208587E+03	8.132330E-04	1.567581E-04
4.218490E+03	8.061124E-04	1.546745E-04
4.228393E+03	7.988987E-04	1.525971E-04
4.238295E+03	7.915987E-04	1.505269E-04
4.248198E+03	7.842115E-04	1.484633E-04
4.258100E+03	7.767365E-04	1.464062E-04
4.268003E+03	7.691728E-04	1.443549E-04
4.277905E+03	7.615132E-04	1.423079E-04
4.287808E+03	7.537707E-04	1.402673E-04
4.297711E+03	7.459316E-04	1.382303E-04
4.307613E+03	7.380087E-04	1.361989E-04
4.317516E+03	7.300016E-04	1.341728E-04
4.327418E+03	7.219167E-04	1.321530E-04
4.337321E+03	7.137527E-04	1.301387E-04
4.347223E+03	7.055155E-04	1.281308E-04
4.357126E+03	6.972024E-04	1.261285E-04
4.367028E+03	6.888235E-04	1.241332E-04
4.376931E+03	6.803749E-04	1.221440E-04
4.386834E+03	6.718535E-04	1.201601E-04
4.396736E+03	6.632683E-04	1.181826E-04
4.406639E+03	6.546162E-04	1.162108E-04
4.416541E+03	6.459006E-04	1.142450E-04
4.426444E+03	6.371307E-04	1.122864E-04
4.436346E+03	6.282981E-04	1.103333E-04
4.446249E+03	6.194124E-04	1.083872E-04
4.456151E+03	6.104780E-04	1.064483E-04
4.466054E+03	6.014937E-04	1.045161E-04
4.475957E+03	5.924649E-04	1.025913E-04
4.485859E+03	5.833966E-04	1.006742E-04
4.495762E+03	5.742951E-04	9.876576E-05
4.505664E+03	5.651659E-04	9.686641E-05
4.515567E+03	5.560096E-04	9.497602E-05
4.525469E+03	5.468278E-04	9.309447E-05
4.535372E+03	5.376373E-04	9.122435E-05
4.545274E+03	5.284340E-04	8.936467E-05
4.555177E+03	5.192200E-04	8.751545E-05
4.565080E+03	5.100071E-04	8.567843E-05
4.574982E+03	5.008017E-04	8.385439E-05
4.584885E+03	4.915966E-04	8.204186E-05
4.594787E+03	4.824131E-04	8.024414E-05
4.604690E+03	4.732392E-04	7.845900E-05
4.614592E+03	4.640916E-04	7.668896E-05
4.624495E+03	4.549725E-04	7.493414E-05
4.634398E+03	4.458850E-04	7.319484E-05
4.644300E+03	4.368316E-04	7.147126E-05
4.654203E+03	4.278155E-04	6.976374E-05
4.664105E+03	4.188492E-04	6.807408E-05
4.674008E+03	4.099324E-04	6.640208E-05
4.683910E+03	4.010714E-04	6.474856E-05
4.693813E+03	3.922783E-04	6.311528E-05
4.703715E+03	3.835537E-04	6.150217E-05
4.713618E+03	3.749182E-04	5.991234E-05
4.723521E+03	3.663690E-04	5.834516E-05
4.733423E+03	3.579214E-04	5.680287E-05
4.743326E+03	3.495830E-04	5.528648E-05
4.753228E+03	3.413536E-04	5.379578E-05
4.763131E+03	3.332435E-04	5.233218E-05
4.773033E+03	3.252618E-04	5.089691E-05
4.782936E+03	3.174075E-04	4.948962E-05
4.792838E+03	3.096888E-04	4.811140E-05
4.802741E+03	3.021105E-04	4.676275E-05
4.812644E+03	2.946731E-04	4.544359E-05
4.822546E+03	2.873806E-04	4.415430E-05
4.832449E+03	2.802391E-04	4.289563E-05
4.842351E+03	2.732484E-04	4.166731E-05
4.852254E+03	2.664136E-04	4.046994E-05
4.862156E+03	2.597311E-04	3.930276E-05
4.872059E+03	2.532056E-04	3.816624E-05
4.881961E+03	2.468379E-04	3.706031E-05
4.891864E+03	2.406266E-04	3.598455E-05
4.901767E+03	2.345749E-04	3.493920E-05
4.911669E+03	2.286805E-04	3.392373E-05
4.921572E+03	2.229458E-04	3.293826E-05
4.931474E+03	2.173682E-04	3.198222E-05
4.941377E+03	2.119474E-04	3.105531E-05
4.951279E+03	2.066804E-04	3.015690E-05
4.961182E+03	2.015707E-04	2.928729E-05
4.971085E+03	1.966128E-04	2.844547E-05
4.980987E+03	1.918057E-04	2.763105E-05
4.990890E+03	1.871498E-04	2.684391E-05
5.000792E+03	1.826417E-04	2.608335E-05
5.010695E+03	1.782798E-04	2.534892E-05
5.020597E+03	1.740622E-04	2.464013E-05
5.030500E+03	1.699870E-04	2.395654E-05
5.040402E+03	1.660506E-04	2.329741E-05
5.050305E+03	1.622511E-04	2.266229E-05
5.060208E+03	1.585880E-04	2.205090E-05
5.070110E+03	1.550560E-04	2.146230E-05
5.080013E+03	1.516561E-04	2.089645E-05
5.089915E+03	1.483815E-04	2.035223E-05
5.099818E+03	1.452332E-04	1.982958E-05
5.109720E+03	1.422076E-04	1.932781E-05
5.119623E+03	1.393026E-04	1.884648E-05
5.129525E+03	1.365159E-04	1.838510E-05
5.139428E+03	1.338442E-04	1.794304E-05
5.149331E+03	1.312856E-04	1.751987E-05
5.159233E+03	1.288367E-04	1.711500E-05
5.169136E+03	1.264981E-04	1.672833E-05
5.179038E+03	1.242643E-04	1.635899E-05
5.188941E+03	1.221347E-04	1.600673E-05
5.198843E+03	1.201074E-04	1.567119E-05
5.208746E+03	1.181809E-04	1.535201E-05
5.218648E+03	1.163512E-04	1.504854E-05
5.228551E+03	1.146180E-04	1.476063E-05
5.238454E+03	1.129787E-04	1.448780E-05
5.248356E+03	1.114320E-04	1.422978E-05
5.258259E+03	1.099757E-04	1.398616E-05
5.268161E+03	1.086096E-04	1.375684E-05
5.278064E+03	1.073305E-04	1.354130E-05
5.287966E+03	1.061376E-04	1.333933E-05
5.297869E+03	1.050290E-04	1.315063E-05
5.307772E+03	1.040050E-04	1.297515E-05
5.317674E+03	1.030619E-04	1.281237E-05
5.327577E+03	1.022004E-04	1.266229E-05
5.337479E+03	1.014189E-04	1.252467E-05
5.347382E+03	1.007163E-04	1.239934E-05
5.357284E+03	1.000894E-04	1.228584E-05
5.367187E+03	9.953734E-05	1.218405E-05
5.377089E+03	9.905916E-05	1.209384E-05
5.386992E+03	9.865022E-05	1.201462E-05
5.396895E+03	9.830994E-05	1.194632E-05
5.406797E+03	9.803484E-05	1.188853E-05
5.416700E+03	9.782354E-05	1.184111E-05
5.426602E+03	9.767954E-05	1.180449E-05
5.436505E+03	9.760236E-05	1.177867E-05
5.446407E+03	9.759516E-05	1.176405E-05
5.456310E+03	9.765885E-05	1.176081E-05
5.466212E+03	9.779715E-05	1.176945E-05
5.476115E+03	9.800881E-05	1.178989E-05
5.486018E+03	9.829564E-05	1.182243E-05
5.495920E+03	9.865757E-05	1.186715E-05
5.505823E+03	9.909769E-05	1.192453E-05
5.515725E+03	9.961507E-05	1.199457E-05
5.525628E+03	1.002107E-04	1.207741E-05
5.535530E+03	1.008845E-04	1.217304E-05
5.545433E+03	1.016386E-04	1.228175E-05
5.555335E+03	1.024722E-04	1.240345E-05
5.565238E+03	1.033866E-04	1.253833E-05
5.575141E+03	1.043832E-04	1.268662E-05
5.585043E+03	1.054627E-04	1.284844E-05
5.594946E+03	1.066268E-04	1.302406E-05
5.604848E+03	1.078750E-04	1.321350E-05
5.614751E+03	1.092094E-04	1.341707E-05
5.624653E+03	1.106319E-04	1.363512E-05
5.634556E+03	1.121436E-04	1.386785E-05
5.644459E+03	1.137457E-04	1.411552E-05
5.654361E+03	1.154392E-04	1.437837E-05
5.664264E+03	1.172279E-04	1.465698E-05
5.674166E+03	1.191107E-04	1.495134E-05
5.684069E+03	1.210916E-04	1.526208E-05
5.693971E+03	1.231718E-04	1.558949E-05
5.703874E+03	1.253519E-04	1.593378E-05
5.713776E+03	1.276345E-04	1.629544E-05
5.723679E+03	1.300227E-04	1.667501E-05
5.733582E+03	1.325170E-04	1.707272E-05
5.743484E+03	1.351188E-04	1.748890E-05
5.753387E+03	1.378329E-04	1.792436E-05
5.763289E+03	1.406580E-04	1.837909E-05
5.773192E+03	1.435974E-04	1.885369E-05
5.783094E+03	1.466525E-04	1.934855E-05
5.792997E+03	1.498255E-04	1.986410E-05
5.802899E+03	1.531193E-04	2.040094E-05
5.812802E+03	1.565324E-04	2.095904E-05
5.822705E+03	1.600696E-04	2.153923E-05
5.832607E+03	1.637304E-04	2.214164E-05
5.842510E+03	1.675165E-04	2.276666E-05
5.852412E+03	1.714289E-04	2.341463E-05
5.862315E+03	1.754687E-04	2.408588E-05
5.872217E+03	1.796387E-04	2.478096E-05
5.882120E+03	1.839358E-04	2.549963E-05
5.892022E+03	1.883603E-04	2.624208E-05
5.901925E+03	1.929144E-04	2.700882E-05
5.911828E+03	1.975985E-04	2.780002E-05
5.921730E+03	2.024076E-04	2.861515E-05
5.931633E+03	2.073457E-04	2.945490E-05
5.941535E+03	2.124047E-04	3.031829E-05
5.951438E+03	2.175907E-04	3.120626E-05
5.961340E+03	2.228944E-04	3.211762E-05
5.971243E+03	2.283132E-04	3.305209E-05
5.981146E+03	2.338475E-04	3.400979E-05
5.991048E+03	2.394913E-04	3.498990E-05
6.000951E+03	2.452409E-04	3.599198E-05
6.010853E+03	2.510863E-04	3.701456E-05
6.020756E+03	2.570284E-04	3.805781E-05
6.030658E+03	2.630528E-04	3.911956E-05
6.040561E+03	2.691594E-04	4.019980E-05
6.050463E+03	2.753385E-04	4.129703E-05
6.060366E+03	2.815794E-04	4.240958E-05
6.070269E+03	2.878741E-04	4.353614E-05
6.080171E+03	2.942174E-04	4.467583E-05
6.090074E+03	3.005966E-04	4.582658E-05
6.099976E+03	3.070018E-04	4.698675E-05
6.109879E+03	3.134306E-04	4.815579E-05
6.119781E+03	3.198647E-04	4.933069E-05
6.129684E+03	3.262977E-04	5.051029E-05
6.139586E+03	3.327243E-04	5.169349E-05
6.149489E+03	3.391402E-04	5.287943E-05
6.159392E+03	3.455337E-04	5.406602E-05
6.169294E+03	3.518972E-04	5.525181E-05
6.179197E+03	3.582278E-04	5.643608E-05
6.189099E+03	3.645134E-04	5.761665E-05
6.199002E+03	3.707508E-04	5.879272E-05
6.208904E+03	3.769331E-04	5.996288E-05
6.218807E+03	3.830574E-04	6.112642E-05
6.228709E+03	3.891166E-04	6.228185E-05
6.238612E+03	3.951032E-04	6.342771E-05
6.248515E+03	4.010155E-04	6.456340E-05
6.258417E+03	4.068521E-04	6.568838E-05
6.268320E+03	4.126006E-04	6.680034E-05
6.278222E+03	4.182600E-04	6.789882E-05
6.288125E+03	4.238300E-04	6.898347E-05
6.298027E+03	4.292989E-04	7.005208E-05
6.307930E+03	4.346738E-04	7.110545E-05
6.317833E+03	4.399496E-04	7.214242E-05
6.327735E+03	4.451220E-04	7.316198E-05
6.337638E+03	4.501866E-04	7.416304E-05
6.347540E+03	4.551522E-04	7.514674E-05
6.357443E+03	4.600089E-04	7.611113E-05
6.367345E+03	4.647667E-04	7.705757E-05
6.377248E+03	4.694228E-04	7.798528E-05
6.387150E+03	4.739746E-04	7.889355E-05
6.397053E+03	4.784269E-04	7.978290E-05
6.406956E+03	4.827779E-04	8.065274E-05
6.416858E+03	4.870330E-04	8.150374E-05
6.426761E+03	4.911761E-04	8.233292E-05
6.436663E+03	4.952206E-04	8.314228E-05
6.446566E+03	4.991658E-04	8.393149E-05
6.456468E+03	5.030026E-04	8.469877E-05
6.466371E+03	5.067386E-04	8.544517E-05
6.476273E+03	5.103730E-04	8.617037E-05
6.486176E+03	5.139058E-04	8.687414E-05
6.496079E+03	5.173365E-04	8.755622E-05
6.505981E+03	5.206738E-04	8.821790E-05
6.515884E+03	5.239095E-04	8.885763E-05
6.525786E+03	5.270441E-04	8.947530E-05
6.535689E+03	5.300866E-04	9.007234E-05
6.545591E+03	5.330380E-04	9.064872E-05
6.555494E+03	5.358902E-04	9.120297E-05
6.565396E+03	5.386532E-04	9.173666E-05
6.575299E+03	5.413192E-04	9.224833E-05
6.585202E+03	5.439076E-04	9.274123E-05
6.595104E+03	5.464015E-04	9.321235E-05
6.605007E+03	5.488023E-04	9.366187E-05
6.614909E+03	5.511207E-04	9.409153E-05
6.624812E+03	5.533587E-04	9.450161E-05
6.634714E+03	5.555085E-04	9.489073E-05
6.644617E+03	5.575715E-04	9.525908E-05
6.654520E+03	5.595595E-04	9.560865E-05
6.664422E+03	5.614645E-04	9.593805E-05
6.674325E+03	5.632986E-04	9.624930E-05
6.684227E+03	5.650438E-04	9.653935E-05
6.694130E+03	5.667223E-04	9.681198E-05
6.704032E+03	5.683160E-04	9.706410E-05
6.713935E+03	5.698472E-04	9.729956E-05
6.723837E+03	5.712978E-04	9.751529E-05
6.733740E+03	5.726801E-04	9.771342E-05
6.743643E+03	5.739968E-04	9.789445E-05
6.753545E+03	5.752393E-04	9.805697E-05
6.763448E+03	5.764206E-04	9.820326E-05
6.773350E+03	5.775324E-04	9.833196E-05
6.783253E+03	5.785878E-04	9.844538E-05
6.793155E+03	5.795673E-04	9.854030E-05
6.803058E+03	5.804953E-04	9.862093E-05
6.812960E+03	5.813630E-04	9.868591E-05
6.822863E+03	5.821732E-04	9.873577E-05
6.832766E+03	5.829168E-04	9.876911E-05
6.842668E+03	5.836184E-04	9.879022E-05
6.852571E+03	5.842471E-04	9.879399E-05
6.862473E+03	5.848388E-04	9.878660E-05
6.872376E+03	5.853735E-04	9.876483E-05
6.882278E+03	5.858534E-04	9.872919E-05
6.892181E+03	5.862922E-04	9.868215E-05
6.902083E+03	5.866810E-04	9.862235E-05
6.911986E+03	5.870224E-04	9.855037E-05
6.921889E+03	5.873182E-04	9.846673E-05
6.931791E+03	5.875711E-04	9.837203E-05
6.941694E+03	5.877833E-04	9.826678E-05
6.951596E+03	5.879455E-04	9.814968E-05
6.961499E+03	5.880832E-04	9.802512E-05
6.971401E+03	5.881639E-04	9.788790E-05
6.981304E+03	5.882246E-04	9.774435E-05
6.991207E+03	5.882327E-04	9.758930E-05
7.001109E+03	5.882137E-04	9.742716E-05
7.011012E+03	5.881581E-04	9.725658E-05
7.020914E+03	5.880682E-04	9.707813E-05
7.030817E+03	5.879575E-04	9.689430E-05
7.040719E+03	5.878051E-04	9.670184E-05
7.050622E+03	5.876245E-04	9.650322E-05
7.060524E+03	5.874063E-04	9.629711E-05
7.070427E+03	5.871640E-04	9.608598E-05
7.080330E+03	5.869000E-04	9.587045E-05
7.090232E+03	5.866042E-04	9.564913E-05
7.100135E+03	5.862907E-04	9.542455E-05
7.110037E+03	5.859374E-04	9.519336E-05
7.119940E+03	5.855701E-04	9.496004E-05
7.129842E+03	5.851790E-04	9.472321E-05
7.139745E+03	5.847538E-04	9.448150E-05
7.149647E+03	5.843085E-04	9.423743E-05
7.159550E+03	5.838446E-04	9.399150E-05
7.169453E+03	5.833523E-04	9.374241E-05
7.179355E+03	5.828330E-04	9.349065E-05
7.189258E+03	5.822888E-04	9.323683E-05
7.199160E+03	5.817213E-04	9.298149E-05
7.209063E+03	5.811319E-04	9.272512E-05
7.218965E+03	5.804986E-04	9.246451E-05
7.228868E+03	5.798466E-04	9.220396E-05
7.238770E+03	5.791660E-04	9.194216E-05
7.248673E+03	5.784458E-04	9.167767E-05
7.258576E+03	5.777001E-04	9.141300E-05
7.268478E+03	5.769058E-04	9.114478E-05
7.278381E+03	5.760646E-04	9.087358E-05
7.288283E+03	5.751778E-04	9.059991E-05
7.298186E+03	5.742350E-04	9.032238E-05
7.308088E+03	5.732495E-04	9.004343E-05
7.317991E+03	5.721863E-04	8.975781E-05
7.327894E+03	5.710710E-04	8.946983E-05
7.337796E+03	5.698808E-04	8.917620E-05
7.347699E+03	5.686289E-04	8.887928E-05
7.357601E+03	5.673047E-04	8.857766E-05
7.367504E+03	5.659090E-04	8.827173E-05
7.377406E+03	5.644556E-04	8.796389E-05
7.387309E+03	5.629331E-04	8.765261E-05
7.397211E+03	5.613790E-04	8.734393E-05
7.407114E+03	5.597704E-04	8.703453E-05
7.417017E+03	5.581324E-04	8.672845E-05
7.426919E+03	5.564541E-04	8.642391E-05
7.436822E+03	5.547728E-04	8.612645E-05
7.446724E+03	5.530775E-04	8.583402E-05
7.456627E+03	5.513692E-04	8.554652E-05
7.466529E+03	5.496612E-04	8.526573E-05
7.476432E+03	5.479541E-04	8.499143E-05
7.486334E+03	5.462735E-04	8.472729E-05
7.496237E+03	5.445955E-04	8.446934E-05
7.506140E+03	5.429337E-04	8.421937E-05
7.516042E+03	5.413004E-04	8.397902E-05
7.525945E+03	5.396848E-04	8.374631E-05
7.535847E+03	5.380993E-04	8.352292E-05
7.545750E+03	5.365329E-04	8.330683E-05
7.555652E+03	5.350101E-04	8.310157E-05
7.565555E+03	5.335076E-04	8.290327E-05
7.575457E+03	5.320503E-04	8.271554E-05
7.585360E+03	5.306142E-04	8.253439E-05
7.595263E+03	5.292244E-04	8.236346E-05
7.605165E+03	5.278571E-04	8.219880E-05
7.615068E+03	5.265371E-04	8.204405E-05
7.624970E+03	5.252525E-04	8.189711E-05
7.634873E+03	5.240042E-04	8.175789E-05
7.644775E+03	5.227923E-04	8.162619E-05
7.654678E+03	5.216175E-04	8.150190E-05
7.664581E+03	5.204800E-04	8.138482E-05
7.674483E+03	5.193681E-04	8.127294E-05
7.684386E+03	5.183065E-04	8.116992E-05
