#wls	flux	fluxerr
1.584409E+03	1.272703E-04	7.728426E-05
1.624020E+03	1.288237E-04	7.809897E-05
1.663630E+03	1.304750E-04	7.896273E-05
1.703240E+03	1.322171E-04	7.987044E-05
1.742850E+03	1.340535E-04	8.082335E-05
1.782461E+03	1.359968E-04	8.182826E-05
1.822071E+03	1.380124E-04	8.286328E-05
1.861681E+03	1.401209E-04	8.393988E-05
1.901291E+03	1.423071E-04	8.504797E-05
1.940902E+03	1.445549E-04	8.617691E-05
1.980512E+03	1.468376E-04	8.730973E-05
2.020122E+03	1.491383E-04	8.843563E-05
2.059732E+03	1.514208E-04	8.953228E-05
2.099342E+03	1.536319E-04	9.056760E-05
2.138953E+03	1.557495E-04	9.152819E-05
2.178563E+03	1.577174E-04	9.238083E-05
2.218173E+03	1.594931E-04	9.310084E-05
2.257783E+03	1.610550E-04	9.367608E-05
2.297394E+03	1.623997E-04	9.410521E-05
2.337004E+03	1.635472E-04	9.440050E-05
2.376614E+03	1.645217E-04	9.457671E-05
2.416224E+03	1.653440E-04	9.464626E-05
2.455835E+03	1.660515E-04	9.463122E-05
2.495445E+03	1.666555E-04	9.453826E-05
2.535055E+03	1.671766E-04	9.437947E-05
2.574665E+03	1.676119E-04	9.415344E-05
2.614276E+03	1.679628E-04	9.386140E-05
2.653886E+03	1.682174E-04	9.349702E-05
2.693496E+03	1.683629E-04	9.305397E-05
2.733106E+03	1.683872E-04	9.252626E-05
2.772716E+03	1.682730E-04	9.190561E-05
2.812327E+03	1.680048E-04	9.118486E-05
2.851937E+03	1.675773E-04	9.036266E-05
2.891547E+03	1.669766E-04	8.943353E-05
2.931157E+03	1.662112E-04	8.840395E-05
2.970768E+03	1.652754E-04	8.727320E-05
2.980670E+03	1.650199E-04	8.697763E-05
2.990573E+03	1.647515E-04	8.667473E-05
3.000475E+03	1.644701E-04	8.636449E-05
3.010378E+03	1.641828E-04	8.605069E-05
3.020280E+03	1.638854E-04	8.573110E-05
3.030183E+03	1.635775E-04	8.540567E-05
3.040086E+03	1.632626E-04	8.507613E-05
3.049988E+03	1.629364E-04	8.474037E-05
3.059891E+03	1.625989E-04	8.439844E-05
3.069793E+03	1.622565E-04	8.405362E-05
3.079696E+03	1.619020E-04	8.370228E-05
3.089598E+03	1.615385E-04	8.334603E-05
3.099501E+03	1.611623E-04	8.298308E-05
3.109403E+03	1.607828E-04	8.261821E-05
3.119306E+03	1.603901E-04	8.224645E-05
3.129209E+03	1.599871E-04	8.186927E-05
3.139111E+03	1.595765E-04	8.148817E-05
3.149014E+03	1.591579E-04	8.110293E-05
3.158916E+03	1.587251E-04	8.071046E-05
3.168819E+03	1.582865E-04	8.031511E-05
3.178721E+03	1.578362E-04	7.991389E-05
3.188624E+03	1.573768E-04	7.950815E-05
3.198526E+03	1.569050E-04	7.909637E-05
3.208429E+03	1.564237E-04	7.867995E-05
3.218332E+03	1.559324E-04	7.825876E-05
3.228234E+03	1.554309E-04	7.783269E-05
3.238137E+03	1.549163E-04	7.740047E-05
3.248039E+03	1.543914E-04	7.696341E-05
3.257942E+03	1.538556E-04	7.652135E-05
3.267844E+03	1.533065E-04	7.607317E-05
3.277747E+03	1.527463E-04	7.562001E-05
3.287650E+03	1.521727E-04	7.516075E-05
3.297552E+03	1.515880E-04	7.469664E-05
3.307455E+03	1.509897E-04	7.422649E-05
3.317357E+03	1.503777E-04	7.375036E-05
3.327260E+03	1.497522E-04	7.326836E-05
3.337162E+03	1.491134E-04	7.278068E-05
3.347065E+03	1.484610E-04	7.228726E-05
3.356967E+03	1.477931E-04	7.178728E-05
3.366870E+03	1.471121E-04	7.128192E-05
3.376773E+03	1.464138E-04	7.076927E-05
3.386675E+03	1.457026E-04	7.025152E-05
3.396578E+03	1.449747E-04	6.972693E-05
3.406480E+03	1.442304E-04	6.919570E-05
3.416383E+03	1.434699E-04	6.865805E-05
3.426285E+03	1.426918E-04	6.811337E-05
3.436188E+03	1.418985E-04	6.756289E-05
3.446090E+03	1.410883E-04	6.700591E-05
3.455993E+03	1.402598E-04	6.644189E-05
3.465896E+03	1.394138E-04	6.587122E-05
3.475798E+03	1.385490E-04	6.529343E-05
3.485701E+03	1.376676E-04	6.470967E-05
3.495603E+03	1.367652E-04	6.411798E-05
3.505506E+03	1.358443E-04	6.351953E-05
3.515408E+03	1.349039E-04	6.291412E-05
3.525311E+03	1.339449E-04	6.230211E-05
3.535213E+03	1.329649E-04	6.168257E-05
3.545116E+03	1.319632E-04	6.105528E-05
3.555019E+03	1.309424E-04	6.042155E-05
3.564921E+03	1.298990E-04	5.977986E-05
3.574824E+03	1.288356E-04	5.913148E-05
3.584726E+03	1.277517E-04	5.847636E-05
3.594629E+03	1.266457E-04	5.781387E-05
3.604531E+03	1.255174E-04	5.714396E-05
3.614434E+03	1.243682E-04	5.646743E-05
3.624337E+03	1.231964E-04	5.578364E-05
3.634239E+03	1.220051E-04	5.509404E-05
3.644142E+03	1.207915E-04	5.439751E-05
3.654044E+03	1.195571E-04	5.369482E-05
3.663947E+03	1.183021E-04	5.298618E-05
3.673849E+03	1.170279E-04	5.227232E-05
3.683752E+03	1.157338E-04	5.155298E-05
3.693654E+03	1.144211E-04	5.082888E-05
3.703557E+03	1.130902E-04	5.010026E-05
3.713460E+03	1.117427E-04	4.936794E-05
3.723362E+03	1.103788E-04	4.863211E-05
3.733265E+03	1.090003E-04	4.789357E-05
3.743167E+03	1.076073E-04	4.715251E-05
3.753070E+03	1.062003E-04	4.640920E-05
3.762972E+03	1.047830E-04	4.566527E-05
3.772875E+03	1.033536E-04	4.492007E-05
3.782777E+03	1.019146E-04	4.417465E-05
3.792680E+03	1.004683E-04	4.343013E-05
3.802583E+03	9.901403E-05	4.268622E-05
3.812485E+03	9.755318E-05	4.194357E-05
3.822388E+03	9.608796E-05	4.120314E-05
3.832290E+03	9.461946E-05	4.046543E-05
3.842193E+03	9.314891E-05	3.973098E-05
3.852095E+03	9.167655E-05	3.899990E-05
3.861998E+03	9.020438E-05	3.827304E-05
3.871900E+03	8.873330E-05	3.755078E-05
3.881803E+03	8.726439E-05	3.683358E-05
3.891706E+03	8.579851E-05	3.612177E-05
3.901608E+03	8.433667E-05	3.541578E-05
3.911511E+03	8.288050E-05	3.471625E-05
3.921413E+03	8.143066E-05	3.402343E-05
3.931316E+03	7.998729E-05	3.333736E-05
3.941218E+03	7.855259E-05	3.265891E-05
3.951121E+03	7.712639E-05	3.198797E-05
3.961024E+03	7.571012E-05	3.132507E-05
3.970926E+03	7.430431E-05	3.067040E-05
3.980829E+03	7.290889E-05	3.002386E-05
3.990731E+03	7.152568E-05	2.938616E-05
4.000634E+03	7.015452E-05	2.875715E-05
4.010536E+03	6.879647E-05	2.813722E-05
4.020439E+03	6.745194E-05	2.752646E-05
4.030341E+03	6.612130E-05	2.692496E-05
4.040244E+03	6.480491E-05	2.633279E-05
4.050147E+03	6.350364E-05	2.575023E-05
4.060049E+03	6.221723E-05	2.517710E-05
4.069952E+03	6.094595E-05	2.461342E-05
4.079854E+03	5.969112E-05	2.405966E-05
4.089757E+03	5.845186E-05	2.351537E-05
4.099659E+03	5.722891E-05	2.298078E-05
4.109562E+03	5.602243E-05	2.245586E-05
4.119464E+03	5.483257E-05	2.194058E-05
4.129367E+03	5.365946E-05	2.143493E-05
4.139270E+03	5.250322E-05	2.093885E-05
4.149172E+03	5.136393E-05	2.045230E-05
4.159075E+03	5.024169E-05	1.997522E-05
4.168977E+03	4.913654E-05	1.950755E-05
4.178880E+03	4.804855E-05	1.904922E-05
4.188782E+03	4.697734E-05	1.860000E-05
4.198685E+03	4.592294E-05	1.815982E-05
4.208587E+03	4.488581E-05	1.772877E-05
4.218490E+03	4.386591E-05	1.730675E-05
4.228393E+03	4.286248E-05	1.689337E-05
4.238295E+03	4.187589E-05	1.648869E-05
4.248198E+03	4.090615E-05	1.609263E-05
4.258100E+03	3.995320E-05	1.570509E-05
4.268003E+03	3.901699E-05	1.532597E-05
4.277905E+03	3.809715E-05	1.495503E-05
4.287808E+03	3.719426E-05	1.459242E-05
4.297711E+03	3.630761E-05	1.423778E-05
4.307613E+03	3.543772E-05	1.389124E-05
4.317516E+03	3.458451E-05	1.355269E-05
4.327418E+03	3.374813E-05	1.322211E-05
4.337321E+03	3.292842E-05	1.289936E-05
4.347223E+03	3.212552E-05	1.258442E-05
4.357126E+03	3.133924E-05	1.227715E-05
4.367028E+03	3.056993E-05	1.197761E-05
4.376931E+03	2.981735E-05	1.168563E-05
4.386834E+03	2.908125E-05	1.140103E-05
4.396736E+03	2.836188E-05	1.112381E-05
4.406639E+03	2.765891E-05	1.085377E-05
4.416541E+03	2.697228E-05	1.059080E-05
4.426444E+03	2.630215E-05	1.033491E-05
4.436346E+03	2.564794E-05	1.008577E-05
4.446249E+03	2.500979E-05	9.843403E-06
4.456151E+03	2.438755E-05	9.607676E-06
4.466054E+03	2.378087E-05	9.378395E-06
4.475957E+03	2.318962E-05	9.155458E-06
4.485859E+03	2.261365E-05	8.938755E-06
4.495762E+03	2.205279E-05	8.728179E-06
4.505664E+03	2.150688E-05	8.523620E-06
4.515567E+03	2.097555E-05	8.324893E-06
4.525469E+03	2.045842E-05	8.131817E-06
4.535372E+03	1.995571E-05	7.944445E-06
4.545274E+03	1.946684E-05	7.762517E-06
4.555177E+03	1.899145E-05	7.585867E-06
4.565080E+03	1.852954E-05	7.414470E-06
4.574982E+03	1.808091E-05	7.248229E-06
4.584885E+03	1.764486E-05	7.086842E-06
4.594787E+03	1.722171E-05	6.930423E-06
4.604690E+03	1.681060E-05	6.778616E-06
4.614592E+03	1.641169E-05	6.631470E-06
4.624495E+03	1.602461E-05	6.488833E-06
4.634398E+03	1.564904E-05	6.350563E-06
4.644300E+03	1.528463E-05	6.216516E-06
4.654203E+03	1.493106E-05	6.086563E-06
4.664105E+03	1.458832E-05	5.960688E-06
4.674008E+03	1.425594E-05	5.838705E-06
4.683910E+03	1.393361E-05	5.720488E-06
4.693813E+03	1.362119E-05	5.605979E-06
4.703715E+03	1.331809E-05	5.494944E-06
4.713618E+03	1.302446E-05	5.387444E-06
4.723521E+03	1.273963E-05	5.283207E-06
4.733423E+03	1.246359E-05	5.182233E-06
4.743326E+03	1.219607E-05	5.084427E-06
4.753228E+03	1.193660E-05	4.989588E-06
4.763131E+03	1.168505E-05	4.897676E-06
4.773033E+03	1.144131E-05	4.808653E-06
4.782936E+03	1.120494E-05	4.722338E-06
4.792838E+03	1.097581E-05	4.638693E-06
4.802741E+03	1.075373E-05	4.557646E-06
4.812644E+03	1.053838E-05	4.479070E-06
4.822546E+03	1.032959E-05	4.402898E-06
4.832449E+03	1.012725E-05	4.329102E-06
4.842351E+03	9.931083E-06	4.257570E-06
4.852254E+03	9.741022E-06	4.188286E-06
4.862156E+03	9.556688E-06	4.121099E-06
4.872059E+03	9.378024E-06	4.055994E-06
4.881961E+03	9.204871E-06	3.992915E-06
4.891864E+03	9.036977E-06	3.931764E-06
4.901767E+03	8.874291E-06	3.872530E-06
4.911669E+03	8.716582E-06	3.815124E-06
4.921572E+03	8.563795E-06	3.759534E-06
4.931474E+03	8.415722E-06	3.705681E-06
4.941377E+03	8.272223E-06	3.653513E-06
4.951279E+03	8.133091E-06	3.602952E-06
4.961182E+03	7.998379E-06	3.554033E-06
4.971085E+03	7.867810E-06	3.506643E-06
4.980987E+03	7.741273E-06	3.460746E-06
4.990890E+03	7.618737E-06	3.416337E-06
5.000792E+03	7.500018E-06	3.373347E-06
5.010695E+03	7.385028E-06	3.331745E-06
5.020597E+03	7.273657E-06	3.291495E-06
5.030500E+03	7.165831E-06	3.252573E-06
5.040402E+03	7.061374E-06	3.214910E-06
5.050305E+03	6.960205E-06	3.178479E-06
5.060208E+03	6.862324E-06	3.143292E-06
5.070110E+03	6.767496E-06	3.109250E-06
5.080013E+03	6.675791E-06	3.076396E-06
5.089915E+03	6.586933E-06	3.044613E-06
5.099818E+03	6.500987E-06	3.013939E-06
5.109720E+03	6.417821E-06	2.984324E-06
5.119623E+03	6.337368E-06	2.955747E-06
5.129525E+03	6.259568E-06	2.928187E-06
5.139428E+03	6.184297E-06	2.901597E-06
5.149331E+03	6.111500E-06	2.875958E-06
5.159233E+03	6.041061E-06	2.851226E-06
5.169136E+03	5.973052E-06	2.827442E-06
5.179038E+03	5.907239E-06	2.804504E-06
5.188941E+03	5.843638E-06	2.782428E-06
5.198843E+03	5.782203E-06	2.761200E-06
5.208746E+03	5.722890E-06	2.740806E-06
5.218648E+03	5.665541E-06	2.721179E-06
5.228551E+03	5.610176E-06	2.702334E-06
5.238454E+03	5.556699E-06	2.684234E-06
5.248356E+03	5.505076E-06	2.666868E-06
5.258259E+03	5.455217E-06	2.650201E-06
5.268161E+03	5.407146E-06	2.634249E-06
5.278064E+03	5.360720E-06	2.618951E-06
5.287966E+03	5.315914E-06	2.604298E-06
5.297869E+03	5.272644E-06	2.590258E-06
5.307772E+03	5.230940E-06	2.576849E-06
5.317674E+03	5.190616E-06	2.563987E-06
5.327577E+03	5.151706E-06	2.551692E-06
5.337479E+03	5.114132E-06	2.539932E-06
5.347382E+03	5.077826E-06	2.528677E-06
5.357284E+03	5.042615E-06	2.517847E-06
5.367187E+03	5.008433E-06	2.507412E-06
5.377089E+03	4.975216E-06	2.497343E-06
5.386992E+03	4.942702E-06	2.487513E-06
5.396895E+03	4.910833E-06	2.477894E-06
5.406797E+03	4.879404E-06	2.468386E-06
5.416700E+03	4.848312E-06	2.458938E-06
5.426602E+03	4.817697E-06	2.449621E-06
5.436505E+03	4.787503E-06	2.440409E-06
5.446407E+03	4.757865E-06	2.431373E-06
5.456310E+03	4.728818E-06	2.422533E-06
5.466212E+03	4.700541E-06	2.413982E-06
5.476115E+03	4.672969E-06	2.405691E-06
5.486018E+03	4.646183E-06	2.397702E-06
5.495920E+03	4.620164E-06	2.390011E-06
5.505823E+03	4.595036E-06	2.382684E-06
5.515725E+03	4.570734E-06	2.375691E-06
5.525628E+03	4.547286E-06	2.369048E-06
5.535530E+03	4.524675E-06	2.362751E-06
5.545433E+03	4.502974E-06	2.356841E-06
5.555335E+03	4.482118E-06	2.351286E-06
5.565238E+03	4.462136E-06	2.346105E-06
5.575141E+03	4.443053E-06	2.341316E-06
5.585043E+03	4.424854E-06	2.336912E-06
5.594946E+03	4.407565E-06	2.332911E-06
5.604848E+03	4.391121E-06	2.329281E-06
5.614751E+03	4.375552E-06	2.326042E-06
5.624653E+03	4.360884E-06	2.323210E-06
5.634556E+03	4.347102E-06	2.320780E-06
5.644459E+03	4.334187E-06	2.318746E-06
5.654361E+03	4.322124E-06	2.317101E-06
5.664264E+03	4.310988E-06	2.315890E-06
5.674166E+03	4.300669E-06	2.315056E-06
5.684069E+03	4.291246E-06	2.314644E-06
5.693971E+03	4.282702E-06	2.314649E-06
5.703874E+03	4.274977E-06	2.315039E-06
5.713776E+03	4.268102E-06	2.315835E-06
5.723679E+03	4.262108E-06	2.317056E-06
5.733582E+03	4.256936E-06	2.318674E-06
5.743484E+03	4.252574E-06	2.320682E-06
5.753387E+03	4.249098E-06	2.323127E-06
5.763289E+03	4.246406E-06	2.325953E-06
5.773192E+03	4.244531E-06	2.329182E-06
5.783094E+03	4.243461E-06	2.332809E-06
5.792997E+03	4.243184E-06	2.336830E-06
5.802899E+03	4.243737E-06	2.341268E-06
5.812802E+03	4.245013E-06	2.346065E-06
5.822705E+03	4.247098E-06	2.351271E-06
5.832607E+03	4.249932E-06	2.356855E-06
5.842510E+03	4.253506E-06	2.362814E-06
5.852412E+03	4.257812E-06	2.369144E-06
5.862315E+03	4.262837E-06	2.375841E-06
5.872217E+03	4.268622E-06	2.382929E-06
5.882120E+03	4.275060E-06	2.390350E-06
5.892022E+03	4.282141E-06	2.398100E-06
5.901925E+03	4.289907E-06	2.406203E-06
5.911828E+03	4.298346E-06	2.414655E-06
5.921730E+03	4.307351E-06	2.423396E-06
5.931633E+03	4.317012E-06	2.432479E-06
5.941535E+03	4.327171E-06	2.441814E-06
5.951438E+03	4.337968E-06	2.451483E-06
5.961340E+03	4.349240E-06	2.461394E-06
5.971243E+03	4.360978E-06	2.471543E-06
5.981146E+03	4.373221E-06	2.481952E-06
5.991048E+03	4.385909E-06	2.492589E-06
6.000951E+03	4.399029E-06	2.503445E-06
6.010853E+03	4.412465E-06	2.514456E-06
6.020756E+03	4.426308E-06	2.525675E-06
6.030658E+03	4.440388E-06	2.537003E-06
6.040561E+03	4.454794E-06	2.548492E-06
6.050463E+03	4.469462E-06	2.560106E-06
6.060366E+03	4.484319E-06	2.571802E-06
6.070269E+03	4.499350E-06	2.583573E-06
6.080171E+03	4.514595E-06	2.595439E-06
6.090074E+03	4.529981E-06	2.607361E-06
6.099976E+03	4.545489E-06	2.619326E-06
6.109879E+03	4.561217E-06	2.631391E-06
6.119781E+03	4.577035E-06	2.643479E-06
6.129684E+03	4.592980E-06	2.655614E-06
6.139586E+03	4.609095E-06	2.667818E-06
6.149489E+03	4.625423E-06	2.680117E-06
6.159392E+03	4.641888E-06	2.692466E-06
6.169294E+03	4.658473E-06	2.704856E-06
6.179197E+03	4.675223E-06	2.717311E-06
6.189099E+03	4.692060E-06	2.729787E-06
6.199002E+03	4.709027E-06	2.742307E-06
6.208904E+03	4.726108E-06	2.754863E-06
6.218807E+03	4.743349E-06	2.767481E-06
6.228709E+03	4.760736E-06	2.780152E-06
6.238612E+03	4.778253E-06	2.792866E-06
6.248515E+03	4.795949E-06	2.805652E-06
6.258417E+03	4.813875E-06	2.818539E-06
6.268320E+03	4.831954E-06	2.831482E-06
6.278222E+03	4.850238E-06	2.844511E-06
6.288125E+03	4.868781E-06	2.857657E-06
6.298027E+03	4.887506E-06	2.870875E-06
6.307930E+03	4.906538E-06	2.884239E-06
6.317833E+03	4.925867E-06	2.897741E-06
6.327735E+03	4.945487E-06	2.911379E-06
6.337638E+03	4.965388E-06	2.925145E-06
6.347540E+03	4.985707E-06	2.939121E-06
6.357443E+03	5.006366E-06	2.953259E-06
6.367345E+03	5.027507E-06	2.967645E-06
6.377248E+03	5.049129E-06	2.982277E-06
6.387150E+03	5.071233E-06	2.997155E-06
6.397053E+03	5.093892E-06	3.012323E-06
6.406956E+03	5.117110E-06	3.027782E-06
6.416858E+03	5.140966E-06	3.043580E-06
6.426761E+03	5.165310E-06	3.059627E-06
6.436663E+03	5.190299E-06	3.076016E-06
6.446566E+03	5.215941E-06	3.092752E-06
6.456468E+03	5.242161E-06	3.109788E-06
6.466371E+03	5.269044E-06	3.127177E-06
6.476273E+03	5.296599E-06	3.144923E-06
6.486176E+03	5.324832E-06	3.163030E-06
6.496079E+03	5.353753E-06	3.181502E-06
6.505981E+03	5.383457E-06	3.200395E-06
6.515884E+03	5.413867E-06	3.219664E-06
6.525786E+03	5.444993E-06	3.239314E-06
6.535689E+03	5.476935E-06	3.259404E-06
6.545591E+03	5.509706E-06	3.279941E-06
6.555494E+03	5.543227E-06	3.300879E-06
6.565396E+03	5.577605E-06	3.322278E-06
6.575299E+03	5.612760E-06	3.344092E-06
6.585202E+03	5.648894E-06	3.366440E-06
6.595104E+03	5.685833E-06	3.389217E-06
6.605007E+03	5.723592E-06	3.412432E-06
6.614909E+03	5.762283E-06	3.436151E-06
6.624812E+03	5.801924E-06	3.460383E-06
6.634714E+03	5.842431E-06	3.485077E-06
6.644617E+03	5.883820E-06	3.510243E-06
6.654520E+03	5.926212E-06	3.535949E-06
6.664422E+03	5.969519E-06	3.562145E-06
6.674325E+03	6.013868E-06	3.588904E-06
6.684227E+03	6.059062E-06	3.616106E-06
6.694130E+03	6.105335E-06	3.643891E-06
6.704032E+03	6.152486E-06	3.672138E-06
6.713935E+03	6.200758E-06	3.700989E-06
6.723837E+03	6.249944E-06	3.730320E-06
6.733740E+03	6.300177E-06	3.760209E-06
6.743643E+03	6.351477E-06	3.790666E-06
6.753545E+03	6.403749E-06	3.821632E-06
6.763448E+03	6.457128E-06	3.853187E-06
6.773350E+03	6.511517E-06	3.885270E-06
6.783253E+03	6.567055E-06	3.917964E-06
6.793155E+03	6.623520E-06	3.951133E-06
6.803058E+03	6.681178E-06	3.984934E-06
6.812960E+03	6.739925E-06	4.019303E-06
6.822863E+03	6.799782E-06	4.054251E-06
6.832766E+03	6.860641E-06	4.089711E-06
6.842668E+03	6.922783E-06	4.125848E-06
6.852571E+03	6.985833E-06	4.162437E-06
6.862473E+03	7.050209E-06	4.199723E-06
6.872376E+03	7.115668E-06	4.237561E-06
6.882278E+03	7.182226E-06	4.275956E-06
6.892181E+03	7.250046E-06	4.315003E-06
6.902083E+03	7.319007E-06	4.354628E-06
6.911986E+03	7.389130E-06	4.394841E-06
6.921889E+03	7.460437E-06	4.435651E-06
6.931791E+03	7.532949E-06	4.477068E-06
6.941694E+03	7.606686E-06	4.519101E-06
6.951596E+03	7.681519E-06	4.561671E-06
6.961499E+03	7.757772E-06	4.604966E-06
6.971401E+03	7.835007E-06	4.648724E-06
6.981304E+03	7.913708E-06	4.693229E-06
6.991207E+03	7.993429E-06	4.738211E-06
7.001109E+03	8.074501E-06	4.783865E-06
7.011012E+03	8.156788E-06	4.830107E-06
7.020914E+03	8.240309E-06	4.876944E-06
7.030817E+03	8.325250E-06	4.924482E-06
7.040719E+03	8.411299E-06	4.972533E-06
7.050622E+03	8.498643E-06	5.021204E-06
7.060524E+03	8.587126E-06	5.070399E-06
7.070427E+03	8.676940E-06	5.120228E-06
7.080330E+03	8.768107E-06	5.170699E-06
7.090232E+03	8.860467E-06	5.221714E-06
7.100135E+03	8.954220E-06	5.273387E-06
7.110037E+03	9.049018E-06	5.325509E-06
7.119940E+03	9.145245E-06	5.378301E-06
7.129842E+03	9.242734E-06	5.431662E-06
7.139745E+03	9.341311E-06	5.485483E-06
7.149647E+03	9.441178E-06	5.539881E-06
7.159550E+03	9.542356E-06	5.594861E-06
7.169453E+03	9.644659E-06	5.650313E-06
7.179355E+03	9.748101E-06	5.706237E-06
7.189258E+03	9.852688E-06	5.762635E-06
7.199160E+03	9.958438E-06	5.819511E-06
7.209063E+03	1.006536E-05	5.876866E-06
7.218965E+03	1.017303E-05	5.934452E-06
7.228868E+03	1.028189E-05	5.992516E-06
7.238770E+03	1.039172E-05	6.050930E-06
7.248673E+03	1.050231E-05	6.109564E-06
7.258576E+03	1.061388E-05	6.168541E-06
7.268478E+03	1.072598E-05	6.227601E-06
7.278381E+03	1.083860E-05	6.286727E-06
7.288283E+03	1.095172E-05	6.345912E-06
7.298186E+03	1.106510E-05	6.405008E-06
7.308088E+03	1.117894E-05	6.464127E-06
7.317991E+03	1.129252E-05	6.522852E-06
7.327894E+03	1.140629E-05	6.581438E-06
7.337796E+03	1.151971E-05	6.639572E-06
7.347699E+03	1.163300E-05	6.697384E-06
7.357601E+03	1.174589E-05	6.754702E-06
7.367504E+03	1.185831E-05	6.811497E-06
7.377406E+03	1.197049E-05	6.867890E-06
7.387309E+03	1.208210E-05	6.923702E-06
7.397211E+03	1.219392E-05	6.979365E-06
7.407114E+03	1.230538E-05	7.034556E-06
7.417017E+03	1.241697E-05	7.089554E-06
7.426919E+03	1.252840E-05	7.144195E-06
7.436822E+03	1.264047E-05	7.198924E-06
7.446724E+03	1.275290E-05	7.253579E-06
7.456627E+03	1.286567E-05	7.308150E-06
7.466529E+03	1.297905E-05	7.362785E-06
7.476432E+03	1.309304E-05	7.417482E-06
7.486334E+03	1.320822E-05	7.472564E-06
7.496237E+03	1.332401E-05	7.527703E-06
7.506140E+03	1.344072E-05	7.583057E-06
7.516042E+03	1.355865E-05	7.638806E-06
7.525945E+03	1.367750E-05	7.694771E-06
7.535847E+03	1.379761E-05	7.751132E-06
7.545750E+03	1.391866E-05	7.807717E-06
7.555652E+03	1.404131E-05	7.864881E-06
7.565555E+03	1.416494E-05	7.922275E-06
7.575457E+03	1.429021E-05	7.980262E-06
7.585360E+03	1.441649E-05	8.038485E-06
7.595263E+03	1.454446E-05	8.097319E-06
7.605165E+03	1.467346E-05	8.156396E-06
7.615068E+03	1.480421E-05	8.216096E-06
7.624970E+03	1.493637E-05	8.276241E-06
7.634873E+03	1.506998E-05	8.336839E-06
7.644775E+03	1.520504E-05	8.397888E-06
7.654678E+03	1.534160E-05	8.459404E-06
7.664581E+03	1.547967E-05	8.521396E-06
7.674483E+03	1.561890E-05	8.583656E-06
7.684386E+03	1.576005E-05	8.646605E-06
