#wls	flux	fluxerr
1.584409E+03	5.145893E-05	1.414236E-05
1.624020E+03	5.251013E-05	1.443006E-05
1.663630E+03	5.362702E-05	1.473573E-05
1.703240E+03	5.480943E-05	1.505931E-05
1.742850E+03	5.606172E-05	1.540198E-05
1.782461E+03	5.739249E-05	1.576612E-05
1.822071E+03	5.879054E-05	1.614862E-05
1.861681E+03	6.026826E-05	1.655288E-05
1.901291E+03	6.182309E-05	1.697819E-05
1.940902E+03	6.345216E-05	1.742376E-05
1.980512E+03	6.514787E-05	1.788747E-05
2.020122E+03	6.690704E-05	1.836845E-05
2.059732E+03	6.871754E-05	1.886336E-05
2.099342E+03	7.055909E-05	1.936662E-05
2.138953E+03	7.242500E-05	1.987638E-05
2.178563E+03	7.429220E-05	2.038632E-05
2.218173E+03	7.614304E-05	2.089158E-05
2.257783E+03	7.796893E-05	2.138980E-05
2.297394E+03	7.976968E-05	2.188093E-05
2.337004E+03	8.155655E-05	2.236804E-05
2.376614E+03	8.334371E-05	2.285504E-05
2.416224E+03	8.514412E-05	2.334546E-05
2.455835E+03	8.698046E-05	2.384551E-05
2.495445E+03	8.886273E-05	2.435792E-05
2.535055E+03	9.080679E-05	2.488704E-05
2.574665E+03	9.281664E-05	2.543395E-05
2.614276E+03	9.489889E-05	2.600044E-05
2.653886E+03	9.705269E-05	2.658626E-05
2.693496E+03	9.927684E-05	2.719108E-05
2.733106E+03	1.015698E-04	2.781446E-05
2.772716E+03	1.039268E-04	2.845507E-05
2.812327E+03	1.063431E-04	2.911160E-05
2.851937E+03	1.088200E-04	2.978438E-05
2.891547E+03	1.113524E-04	3.047204E-05
2.931157E+03	1.139496E-04	3.117709E-05
2.970768E+03	1.166116E-04	3.189950E-05
2.980670E+03	1.172912E-04	3.208389E-05
2.990573E+03	1.179735E-04	3.226902E-05
3.000475E+03	1.186586E-04	3.245486E-05
3.010378E+03	1.193514E-04	3.264281E-05
3.020280E+03	1.200491E-04	3.283208E-05
3.030183E+03	1.207516E-04	3.302262E-05
3.040086E+03	1.214612E-04	3.321510E-05
3.049988E+03	1.221752E-04	3.340873E-05
3.059891E+03	1.228933E-04	3.360349E-05
3.069793E+03	1.236206E-04	3.380070E-05
3.079696E+03	1.243516E-04	3.399892E-05
3.089598E+03	1.250887E-04	3.419878E-05
3.099501E+03	1.258292E-04	3.439955E-05
3.109403E+03	1.265804E-04	3.460321E-05
3.119306E+03	1.273346E-04	3.480769E-05
3.129209E+03	1.280942E-04	3.501357E-05
3.139111E+03	1.288612E-04	3.522148E-05
3.149014E+03	1.296356E-04	3.543138E-05
3.158916E+03	1.304123E-04	3.564189E-05
3.168819E+03	1.311983E-04	3.585491E-05
3.178721E+03	1.319886E-04	3.606908E-05
3.188624E+03	1.327854E-04	3.628500E-05
3.198526E+03	1.335861E-04	3.650194E-05
3.208429E+03	1.343930E-04	3.672056E-05
3.218332E+03	1.352059E-04	3.694078E-05
3.228234E+03	1.360243E-04	3.716250E-05
3.238137E+03	1.368460E-04	3.738507E-05
3.248039E+03	1.376732E-04	3.760911E-05
3.257942E+03	1.385054E-04	3.783451E-05
3.267844E+03	1.393405E-04	3.806065E-05
3.277747E+03	1.401804E-04	3.828809E-05
3.287650E+03	1.410227E-04	3.851616E-05
3.297552E+03	1.418696E-04	3.874546E-05
3.307455E+03	1.427188E-04	3.897532E-05
3.317357E+03	1.435700E-04	3.920573E-05
3.327260E+03	1.444232E-04	3.943666E-05
3.337162E+03	1.452782E-04	3.966804E-05
3.347065E+03	1.461350E-04	3.989987E-05
3.356967E+03	1.469913E-04	4.013156E-05
3.366870E+03	1.478492E-04	4.036365E-05
3.376773E+03	1.487044E-04	4.059496E-05
3.386675E+03	1.495611E-04	4.082665E-05
3.396578E+03	1.504150E-04	4.105756E-05
3.406480E+03	1.512660E-04	4.128764E-05
3.416383E+03	1.521143E-04	4.151696E-05
3.426285E+03	1.529578E-04	4.174493E-05
3.436188E+03	1.537985E-04	4.197210E-05
3.446090E+03	1.546344E-04	4.219796E-05
3.455993E+03	1.554636E-04	4.242193E-05
3.465896E+03	1.562860E-04	4.264404E-05
3.475798E+03	1.571000E-04	4.286381E-05
3.485701E+03	1.579075E-04	4.308180E-05
3.495603E+03	1.587027E-04	4.329640E-05
3.505506E+03	1.594878E-04	4.350822E-05
3.515408E+03	1.602612E-04	4.371679E-05
3.525311E+03	1.610228E-04	4.392214E-05
3.535213E+03	1.617691E-04	4.412328E-05
3.545116E+03	1.624984E-04	4.431978E-05
3.555019E+03	1.632130E-04	4.451222E-05
3.564921E+03	1.639074E-04	4.469916E-05
3.574824E+03	1.645841E-04	4.488122E-05
3.584726E+03	1.652412E-04	4.505792E-05
3.594629E+03	1.658757E-04	4.522843E-05
3.604531E+03	1.664860E-04	4.539232E-05
3.614434E+03	1.670725E-04	4.554970E-05
3.624337E+03	1.676322E-04	4.569976E-05
3.634239E+03	1.681673E-04	4.584309E-05
3.644142E+03	1.686728E-04	4.597835E-05
3.654044E+03	1.691495E-04	4.610573E-05
3.663947E+03	1.695961E-04	4.622488E-05
3.673849E+03	1.700132E-04	4.633598E-05
3.683752E+03	1.703977E-04	4.643818E-05
3.693654E+03	1.707505E-04	4.653172E-05
3.703557E+03	1.710702E-04	4.661624E-05
3.713460E+03	1.713577E-04	4.669198E-05
3.723362E+03	1.716118E-04	4.675860E-05
3.733265E+03	1.718331E-04	4.681627E-05
3.743167E+03	1.720207E-04	4.686477E-05
3.753070E+03	1.721736E-04	4.690379E-05
3.762972E+03	1.722957E-04	4.693443E-05
3.772875E+03	1.723828E-04	4.695553E-05
3.782777E+03	1.724371E-04	4.696768E-05
3.792680E+03	1.724610E-04	4.697156E-05
3.802583E+03	1.724518E-04	4.696643E-05
3.812485E+03	1.724103E-04	4.695250E-05
3.822388E+03	1.723386E-04	4.693035E-05
3.832290E+03	1.722375E-04	4.690018E-05
3.842193E+03	1.721075E-04	4.686215E-05
3.852095E+03	1.719475E-04	4.681598E-05
3.861998E+03	1.717601E-04	4.676232E-05
3.871900E+03	1.715454E-04	4.670127E-05
3.881803E+03	1.713043E-04	4.663302E-05
3.891706E+03	1.710373E-04	4.655774E-05
3.901608E+03	1.707448E-04	4.647552E-05
3.911511E+03	1.704291E-04	4.638699E-05
3.921413E+03	1.700906E-04	4.629229E-05
3.931316E+03	1.697283E-04	4.619111E-05
3.941218E+03	1.693457E-04	4.608441E-05
3.951121E+03	1.689417E-04	4.597191E-05
3.961024E+03	1.685185E-04	4.585421E-05
3.970926E+03	1.680763E-04	4.573133E-05
3.980829E+03	1.676139E-04	4.560301E-05
3.990731E+03	1.671352E-04	4.547023E-05
4.000634E+03	1.666386E-04	4.533263E-05
4.010536E+03	1.661260E-04	4.519071E-05
4.020439E+03	1.655981E-04	4.504461E-05
4.030341E+03	1.650549E-04	4.489437E-05
4.040244E+03	1.644968E-04	4.474013E-05
4.050147E+03	1.639257E-04	4.458236E-05
4.060049E+03	1.633402E-04	4.442069E-05
4.069952E+03	1.627408E-04	4.425526E-05
4.079854E+03	1.621305E-04	4.408689E-05
4.089757E+03	1.615068E-04	4.391490E-05
4.099659E+03	1.608710E-04	4.373966E-05
4.109562E+03	1.602238E-04	4.356131E-05
4.119464E+03	1.595650E-04	4.337985E-05
4.129367E+03	1.588948E-04	4.319533E-05
4.139270E+03	1.582136E-04	4.300783E-05
4.149172E+03	1.575212E-04	4.281733E-05
4.159075E+03	1.568180E-04	4.262390E-05
4.168977E+03	1.561039E-04	4.242754E-05
4.178880E+03	1.553790E-04	4.222829E-05
4.188782E+03	1.546420E-04	4.202577E-05
4.198685E+03	1.538929E-04	4.181998E-05
4.208587E+03	1.531332E-04	4.161134E-05
4.218490E+03	1.523628E-04	4.139981E-05
4.228393E+03	1.515790E-04	4.118468E-05
4.238295E+03	1.507829E-04	4.096626E-05
4.248198E+03	1.499745E-04	4.074452E-05
4.258100E+03	1.491540E-04	4.051949E-05
4.268003E+03	1.483208E-04	4.029107E-05
4.277905E+03	1.474735E-04	4.005886E-05
4.287808E+03	1.466148E-04	3.982356E-05
4.297711E+03	1.457416E-04	3.958438E-05
4.307613E+03	1.448563E-04	3.934194E-05
4.317516E+03	1.439586E-04	3.909615E-05
4.327418E+03	1.430497E-04	3.884734E-05
4.337321E+03	1.421288E-04	3.859532E-05
4.347223E+03	1.411972E-04	3.834042E-05
4.357126E+03	1.402542E-04	3.808248E-05
4.367028E+03	1.393021E-04	3.782209E-05
4.376931E+03	1.383403E-04	3.755909E-05
4.386834E+03	1.373684E-04	3.729339E-05
4.396736E+03	1.363884E-04	3.702551E-05
4.406639E+03	1.353998E-04	3.675533E-05
4.416541E+03	1.344033E-04	3.648305E-05
4.426444E+03	1.334008E-04	3.620917E-05
4.436346E+03	1.323906E-04	3.593322E-05
4.446249E+03	1.313746E-04	3.565574E-05
4.456151E+03	1.303535E-04	3.537690E-05
4.466054E+03	1.293268E-04	3.509657E-05
4.475957E+03	1.282951E-04	3.481493E-05
4.485859E+03	1.272591E-04	3.453214E-05
4.495762E+03	1.262195E-04	3.424842E-05
4.505664E+03	1.251770E-04	3.396394E-05
4.515567E+03	1.241314E-04	3.367864E-05
4.525469E+03	1.230819E-04	3.339233E-05
4.535372E+03	1.220319E-04	3.310589E-05
4.545274E+03	1.209797E-04	3.281892E-05
4.555177E+03	1.199251E-04	3.253130E-05
4.565080E+03	1.188700E-04	3.224360E-05
4.574982E+03	1.178154E-04	3.195604E-05
4.584885E+03	1.167587E-04	3.166795E-05
4.594787E+03	1.157043E-04	3.138051E-05
4.604690E+03	1.146486E-04	3.109277E-05
4.614592E+03	1.135950E-04	3.080560E-05
4.624495E+03	1.125433E-04	3.051899E-05
4.634398E+03	1.114936E-04	3.023294E-05
4.644300E+03	1.104458E-04	2.994744E-05
4.654203E+03	1.094000E-04	2.966252E-05
4.664105E+03	1.083586E-04	2.937879E-05
4.674008E+03	1.073204E-04	2.909599E-05
4.683910E+03	1.062859E-04	2.881419E-05
4.693813E+03	1.052561E-04	2.853372E-05
4.703715E+03	1.042294E-04	2.825409E-05
4.713618E+03	1.032091E-04	2.797622E-05
4.723521E+03	1.021924E-04	2.769937E-05
4.733423E+03	1.011818E-04	2.742419E-05
4.743326E+03	1.001776E-04	2.715080E-05
4.753228E+03	9.917839E-05	2.687874E-05
4.763131E+03	9.818549E-05	2.660844E-05
4.773033E+03	9.720039E-05	2.634027E-05
4.782936E+03	9.622163E-05	2.607384E-05
4.792838E+03	9.525068E-05	2.580956E-05
4.802741E+03	9.428811E-05	2.554756E-05
4.812644E+03	9.333346E-05	2.528774E-05
4.822546E+03	9.238731E-05	2.503023E-05
4.832449E+03	9.145115E-05	2.477547E-05
4.842351E+03	9.052462E-05	2.452332E-05
4.852254E+03	8.960918E-05	2.427421E-05
4.862156E+03	8.870356E-05	2.402777E-05
4.872059E+03	8.780925E-05	2.378442E-05
4.881961E+03	8.692678E-05	2.354430E-05
4.891864E+03	8.605584E-05	2.330732E-05
4.901767E+03	8.519786E-05	2.307387E-05
4.911669E+03	8.435248E-05	2.284385E-05
4.921572E+03	8.352113E-05	2.261765E-05
4.931474E+03	8.270341E-05	2.239516E-05
4.941377E+03	8.189989E-05	2.217653E-05
4.951279E+03	8.111018E-05	2.196166E-05
4.961182E+03	8.033647E-05	2.175114E-05
4.971085E+03	7.957758E-05	2.154465E-05
4.980987E+03	7.883395E-05	2.134230E-05
4.990890E+03	7.810688E-05	2.114446E-05
5.000792E+03	7.739599E-05	2.095101E-05
5.010695E+03	7.670171E-05	2.076207E-05
5.020597E+03	7.602444E-05	2.057775E-05
5.030500E+03	7.536462E-05	2.039816E-05
5.040402E+03	7.472185E-05	2.022321E-05
5.050305E+03	7.409653E-05	2.005299E-05
5.060208E+03	7.348982E-05	1.988782E-05
5.070110E+03	7.290054E-05	1.972738E-05
5.080013E+03	7.233059E-05	1.957218E-05
5.089915E+03	7.177806E-05	1.942171E-05
5.099818E+03	7.124480E-05	1.927646E-05
5.109720E+03	7.073042E-05	1.913632E-05
5.119623E+03	7.023525E-05	1.900140E-05
5.129525E+03	6.975960E-05	1.887177E-05
5.139428E+03	6.930311E-05	1.874732E-05
5.149331E+03	6.886609E-05	1.862816E-05
5.159233E+03	6.844815E-05	1.851416E-05
5.169136E+03	6.805101E-05	1.840579E-05
5.179038E+03	6.767291E-05	1.830258E-05
5.188941E+03	6.731484E-05	1.820480E-05
5.198843E+03	6.697711E-05	1.811252E-05
5.208746E+03	6.666002E-05	1.802583E-05
5.218648E+03	6.636253E-05	1.794443E-05
5.228551E+03	6.608561E-05	1.786861E-05
5.238454E+03	6.582890E-05	1.779826E-05
5.248356E+03	6.559272E-05	1.773345E-05
5.258259E+03	6.537667E-05	1.767410E-05
5.268161E+03	6.518175E-05	1.762045E-05
5.278064E+03	6.500691E-05	1.757223E-05
5.287966E+03	6.485247E-05	1.752953E-05
5.297869E+03	6.471808E-05	1.749225E-05
5.307772E+03	6.460465E-05	1.746063E-05
5.317674E+03	6.451056E-05	1.743423E-05
5.327577E+03	6.443673E-05	1.741331E-05
5.337479E+03	6.438279E-05	1.739776E-05
5.347382E+03	6.434837E-05	1.738749E-05
5.357284E+03	6.433180E-05	1.738203E-05
5.367187E+03	6.433270E-05	1.738128E-05
5.377089E+03	6.435065E-05	1.738514E-05
5.386992E+03	6.438267E-05	1.739279E-05
5.396895E+03	6.442829E-05	1.740411E-05
5.406797E+03	6.448510E-05	1.741844E-05
5.416700E+03	6.455194E-05	1.743548E-05
5.426602E+03	6.463086E-05	1.745577E-05
5.436505E+03	6.472127E-05	1.747916E-05
5.446407E+03	6.482516E-05	1.750618E-05
5.456310E+03	6.494319E-05	1.753701E-05
5.466212E+03	6.507800E-05	1.757236E-05
5.476115E+03	6.522891E-05	1.761204E-05
5.486018E+03	6.539718E-05	1.765641E-05
5.495920E+03	6.558279E-05	1.770544E-05
5.505823E+03	6.578767E-05	1.775966E-05
5.515725E+03	6.601106E-05	1.781887E-05
5.525628E+03	6.625358E-05	1.788323E-05
5.535530E+03	6.651509E-05	1.795270E-05
5.545433E+03	6.679686E-05	1.802762E-05
5.555335E+03	6.709810E-05	1.810778E-05
5.565238E+03	6.741936E-05	1.819332E-05
5.575141E+03	6.776118E-05	1.828440E-05
5.585043E+03	6.812342E-05	1.838097E-05
5.594946E+03	6.850666E-05	1.848319E-05
5.604848E+03	6.890999E-05	1.859080E-05
5.614751E+03	6.933398E-05	1.870398E-05
5.624653E+03	6.977915E-05	1.882284E-05
5.634556E+03	7.024533E-05	1.894734E-05
5.644459E+03	7.073233E-05	1.907744E-05
5.654361E+03	7.123995E-05	1.921308E-05
5.664264E+03	7.176946E-05	1.935459E-05
5.674166E+03	7.231916E-05	1.950153E-05
5.684069E+03	7.289033E-05	1.965423E-05
5.693971E+03	7.348275E-05	1.981262E-05
5.703874E+03	7.409540E-05	1.997645E-05
5.713776E+03	7.472880E-05	2.014584E-05
5.723679E+03	7.538349E-05	2.032094E-05
5.733582E+03	7.605839E-05	2.050145E-05
5.743484E+03	7.675319E-05	2.068730E-05
5.753387E+03	7.746926E-05	2.087884E-05
5.763289E+03	7.820459E-05	2.107554E-05
5.773192E+03	7.895969E-05	2.127754E-05
5.783094E+03	7.973422E-05	2.148473E-05
5.792997E+03	8.052778E-05	2.169701E-05
5.802899E+03	8.134088E-05	2.191453E-05
5.812802E+03	8.217129E-05	2.213666E-05
5.822705E+03	8.302040E-05	2.236380E-05
5.832607E+03	8.388682E-05	2.259555E-05
5.842510E+03	8.477003E-05	2.283179E-05
5.852412E+03	8.566954E-05	2.307237E-05
5.862315E+03	8.658477E-05	2.331715E-05
5.872217E+03	8.751614E-05	2.356623E-05
5.882120E+03	8.846105E-05	2.381891E-05
5.892022E+03	8.941883E-05	2.407500E-05
5.901925E+03	9.038980E-05	2.433461E-05
5.911828E+03	9.137325E-05	2.459752E-05
5.921730E+03	9.236631E-05	2.486298E-05
5.931633E+03	9.337031E-05	2.513133E-05
5.941535E+03	9.438115E-05	2.540148E-05
5.951438E+03	9.540121E-05	2.567405E-05
5.961340E+03	9.642625E-05	2.594792E-05
5.971243E+03	9.745524E-05	2.622280E-05
5.981146E+03	9.848829E-05	2.649872E-05
5.991048E+03	9.952320E-05	2.677509E-05
6.000951E+03	1.005588E-04	2.705161E-05
6.010853E+03	1.015916E-04	2.732731E-05
6.020756E+03	1.026228E-04	2.760252E-05
6.030658E+03	1.036474E-04	2.787592E-05
6.040561E+03	1.046666E-04	2.814781E-05
6.050463E+03	1.056778E-04	2.841750E-05
6.060366E+03	1.066784E-04	2.868429E-05
6.070269E+03	1.076670E-04	2.894780E-05
6.080171E+03	1.086434E-04	2.920799E-05
6.090074E+03	1.096050E-04	2.946414E-05
6.099976E+03	1.105503E-04	2.971586E-05
6.109879E+03	1.114806E-04	2.996351E-05
6.119781E+03	1.123918E-04	3.020597E-05
6.129684E+03	1.132839E-04	3.044324E-05
6.139586E+03	1.141569E-04	3.067535E-05
6.149489E+03	1.150110E-04	3.090234E-05
6.159392E+03	1.158436E-04	3.112348E-05
6.169294E+03	1.166532E-04	3.133843E-05
6.179197E+03	1.174402E-04	3.154725E-05
6.189099E+03	1.182018E-04	3.174922E-05
6.199002E+03	1.189384E-04	3.194443E-05
6.208904E+03	1.196489E-04	3.213257E-05
6.218807E+03	1.203337E-04	3.231379E-05
6.228709E+03	1.209918E-04	3.248782E-05
6.238612E+03	1.216223E-04	3.265438E-05
6.248515E+03	1.222258E-04	3.281367E-05
6.258417E+03	1.228032E-04	3.296591E-05
6.268320E+03	1.233519E-04	3.311041E-05
6.278222E+03	1.238730E-04	3.324749E-05
6.288125E+03	1.243673E-04	3.337733E-05
6.298027E+03	1.248326E-04	3.349939E-05
6.307930E+03	1.252718E-04	3.361438E-05
6.317833E+03	1.256843E-04	3.372219E-05
6.327735E+03	1.260697E-04	3.382272E-05
6.337638E+03	1.264275E-04	3.391583E-05
6.347540E+03	1.267612E-04	3.400243E-05
6.357443E+03	1.270685E-04	3.408195E-05
6.367345E+03	1.273530E-04	3.415532E-05
6.377248E+03	1.276145E-04	3.422251E-05
6.387150E+03	1.278530E-04	3.428352E-05
6.397053E+03	1.280701E-04	3.433879E-05
6.406956E+03	1.282662E-04	3.438840E-05
6.416858E+03	1.284429E-04	3.443280E-05
6.426761E+03	1.285966E-04	3.447103E-05
6.436663E+03	1.287315E-04	3.450418E-05
6.446566E+03	1.288472E-04	3.453223E-05
6.456468E+03	1.289424E-04	3.455473E-05
6.466371E+03	1.290191E-04	3.457227E-05
6.476273E+03	1.290775E-04	3.458493E-05
6.486176E+03	1.291179E-04	3.459273E-05
6.496079E+03	1.291405E-04	3.459578E-05
6.505981E+03	1.291478E-04	3.459473E-05
6.515884E+03	1.291381E-04	3.458911E-05
6.525786E+03	1.291116E-04	3.457899E-05
6.535689E+03	1.290707E-04	3.456503E-05
6.545591E+03	1.290160E-04	3.454736E-05
6.555494E+03	1.289456E-04	3.452549E-05
6.565396E+03	1.288621E-04	3.450014E-05
6.575299E+03	1.287639E-04	3.447083E-05
6.585202E+03	1.286556E-04	3.443884E-05
6.595104E+03	1.285334E-04	3.440311E-05
6.605007E+03	1.283977E-04	3.436379E-05
6.614909E+03	1.282512E-04	3.432158E-05
6.624812E+03	1.280943E-04	3.427660E-05
6.634714E+03	1.279254E-04	3.422842E-05
6.644617E+03	1.277448E-04	3.417714E-05
6.654520E+03	1.275554E-04	3.412348E-05
6.664422E+03	1.273554E-04	3.406702E-05
6.674325E+03	1.271474E-04	3.400844E-05
6.684227E+03	1.269275E-04	3.394667E-05
6.694130E+03	1.267009E-04	3.388311E-05
6.704032E+03	1.264632E-04	3.381663E-05
6.713935E+03	1.262198E-04	3.374862E-05
6.723837E+03	1.259664E-04	3.367795E-05
6.733740E+03	1.257059E-04	3.360541E-05
6.743643E+03	1.254388E-04	3.353111E-05
6.753545E+03	1.251632E-04	3.345458E-05
6.763448E+03	1.248821E-04	3.337657E-05
6.773350E+03	1.245935E-04	3.329659E-05
6.783253E+03	1.243003E-04	3.321541E-05
6.793155E+03	1.239984E-04	3.313192E-05
6.803058E+03	1.236929E-04	3.304746E-05
6.812960E+03	1.233819E-04	3.296159E-05
6.822863E+03	1.230660E-04	3.287440E-05
6.832766E+03	1.227433E-04	3.278545E-05
6.842668E+03	1.224190E-04	3.269607E-05
6.852571E+03	1.220866E-04	3.260456E-05
6.862473E+03	1.217533E-04	3.251284E-05
6.872376E+03	1.214153E-04	3.241989E-05
6.882278E+03	1.210729E-04	3.232579E-05
6.892181E+03	1.207290E-04	3.223128E-05
6.902083E+03	1.203815E-04	3.213588E-05
6.911986E+03	1.200311E-04	3.203971E-05
6.921889E+03	1.196781E-04	3.194289E-05
6.931791E+03	1.193231E-04	3.184554E-05
6.941694E+03	1.189664E-04	3.174778E-05
6.951596E+03	1.186063E-04	3.164912E-05
6.961499E+03	1.182477E-04	3.155091E-05
6.971401E+03	1.178842E-04	3.145141E-05
6.981304E+03	1.175231E-04	3.135260E-05
6.991207E+03	1.171580E-04	3.125272E-05
7.001109E+03	1.167938E-04	3.115315E-05
7.011012E+03	1.164288E-04	3.105336E-05
7.020914E+03	1.160633E-04	3.095348E-05
7.030817E+03	1.157000E-04	3.085423E-05
7.040719E+03	1.153348E-04	3.075448E-05
7.050622E+03	1.149703E-04	3.065496E-05
7.060524E+03	1.146047E-04	3.055517E-05
7.070427E+03	1.142406E-04	3.045582E-05
7.080330E+03	1.138784E-04	3.035702E-05
7.090232E+03	1.135163E-04	3.025827E-05
7.100135E+03	1.131569E-04	3.016027E-05
7.110037E+03	1.127960E-04	3.006190E-05
7.119940E+03	1.124386E-04	2.996449E-05
7.129842E+03	1.120828E-04	2.986753E-05
7.139745E+03	1.117265E-04	2.977050E-05
7.149647E+03	1.113726E-04	2.967411E-05
7.159550E+03	1.110212E-04	2.957847E-05
7.169453E+03	1.106706E-04	2.948304E-05
7.179355E+03	1.103211E-04	2.938793E-05
7.189258E+03	1.099730E-04	2.929324E-05
7.199160E+03	1.096266E-04	2.919904E-05
7.209063E+03	1.092823E-04	2.910544E-05
7.218965E+03	1.089359E-04	2.901131E-05
7.228868E+03	1.085923E-04	2.891795E-05
7.238770E+03	1.082495E-04	2.882484E-05
7.248673E+03	1.079055E-04	2.873146E-05
7.258576E+03	1.075630E-04	2.863850E-05
7.268478E+03	1.072177E-04	2.854485E-05
7.278381E+03	1.068700E-04	2.845058E-05
7.288283E+03	1.065202E-04	2.835578E-05
7.298186E+03	1.061662E-04	2.825993E-05
7.308088E+03	1.058107E-04	2.816369E-05
7.317991E+03	1.054472E-04	2.806537E-05
7.327894E+03	1.050804E-04	2.796622E-05
7.337796E+03	1.047063E-04	2.786513E-05
7.347699E+03	1.043271E-04	2.776276E-05
7.357601E+03	1.039410E-04	2.765859E-05
7.367504E+03	1.035482E-04	2.755266E-05
7.377406E+03	1.031511E-04	2.744563E-05
7.387309E+03	1.027477E-04	2.733697E-05
7.397211E+03	1.023448E-04	2.722848E-05
7.407114E+03	1.019382E-04	2.711902E-05
7.417017E+03	1.015323E-04	2.700982E-05
7.426919E+03	1.011251E-04	2.690030E-05
7.436822E+03	1.007233E-04	2.679225E-05
7.446724E+03	1.003247E-04	2.668511E-05
7.456627E+03	9.992949E-05	2.657889E-05
7.466529E+03	9.953982E-05	2.647418E-05
7.476432E+03	9.915576E-05	2.637100E-05
7.486334E+03	9.878169E-05	2.627052E-05
7.496237E+03	9.841326E-05	2.617157E-05
7.506140E+03	9.805264E-05	2.607472E-05
7.516042E+03	9.770200E-05	2.598057E-05
7.525945E+03	9.735915E-05	2.588852E-05
7.535847E+03	9.702623E-05	2.579914E-05
7.545750E+03	9.670105E-05	2.571185E-05
7.555652E+03	9.638788E-05	2.562778E-05
7.565555E+03	9.608235E-05	2.554578E-05
7.575457E+03	9.578873E-05	2.546697E-05
7.585360E+03	9.550265E-05	2.539019E-05
7.595263E+03	9.522838E-05	2.531658E-05
7.605165E+03	9.496148E-05	2.524496E-05
7.615068E+03	9.470626E-05	2.517647E-05
7.624970E+03	9.446047E-05	2.511051E-05
7.634873E+03	9.422404E-05	2.504707E-05
7.644775E+03	9.399687E-05	2.498612E-05
7.654678E+03	9.377892E-05	2.492764E-05
7.664581E+03	9.357010E-05	2.487162E-05
7.674483E+03	9.336816E-05	2.481744E-05
7.684386E+03	9.317737E-05	2.476625E-05
