#wls	flux	fluxerr
1.584409E+03	1.215367E-04	3.594036E-05
1.624020E+03	1.255569E-04	3.712206E-05
1.663630E+03	1.298143E-04	3.837326E-05
1.703240E+03	1.343131E-04	3.969514E-05
1.742850E+03	1.390684E-04	4.109210E-05
1.782461E+03	1.441061E-04	4.257170E-05
1.822071E+03	1.494022E-04	4.412680E-05
1.861681E+03	1.549916E-04	4.576762E-05
1.901291E+03	1.608709E-04	4.749310E-05
1.940902E+03	1.670352E-04	4.930168E-05
1.980512E+03	1.734655E-04	5.118765E-05
2.020122E+03	1.801526E-04	5.314828E-05
2.059732E+03	1.870619E-04	5.517325E-05
2.099342E+03	1.941336E-04	5.724484E-05
2.138953E+03	2.013418E-04	5.935535E-05
2.178563E+03	2.086131E-04	6.148310E-05
2.218173E+03	2.158848E-04	6.360959E-05
2.257783E+03	2.231177E-04	6.572320E-05
2.297394E+03	2.302943E-04	6.781879E-05
2.337004E+03	2.374291E-04	6.990062E-05
2.376614E+03	2.445452E-04	7.197545E-05
2.416224E+03	2.516621E-04	7.404900E-05
2.455835E+03	2.588275E-04	7.613534E-05
2.495445E+03	2.660516E-04	7.823736E-05
2.535055E+03	2.733613E-04	8.036294E-05
2.574665E+03	2.807460E-04	8.250896E-05
2.614276E+03	2.882019E-04	8.467425E-05
2.653886E+03	2.957000E-04	8.685027E-05
2.693496E+03	3.032079E-04	8.902746E-05
2.733106E+03	3.106904E-04	9.119550E-05
2.772716E+03	3.181001E-04	9.334044E-05
2.812327E+03	3.253870E-04	9.544767E-05
2.851937E+03	3.325178E-04	9.750745E-05
2.891547E+03	3.394395E-04	9.950426E-05
2.931157E+03	3.461399E-04	1.014346E-04
2.970768E+03	3.525774E-04	1.032864E-04
2.980670E+03	3.541526E-04	1.037391E-04
2.990573E+03	3.557042E-04	1.041848E-04
3.000475E+03	3.572311E-04	1.046232E-04
3.010378E+03	3.587482E-04	1.050586E-04
3.020280E+03	3.602461E-04	1.054883E-04
3.030183E+03	3.617236E-04	1.059120E-04
3.040086E+03	3.631870E-04	1.063314E-04
3.049988E+03	3.646275E-04	1.067441E-04
3.059891E+03	3.660434E-04	1.071494E-04
3.069793E+03	3.674491E-04	1.075517E-04
3.079696E+03	3.688280E-04	1.079461E-04
3.089598E+03	3.701858E-04	1.083343E-04
3.099501E+03	3.715144E-04	1.087138E-04
3.109403E+03	3.728343E-04	1.090906E-04
3.119306E+03	3.741221E-04	1.094580E-04
3.129209E+03	3.753838E-04	1.098178E-04
3.139111E+03	3.766254E-04	1.101715E-04
3.149014E+03	3.778452E-04	1.105188E-04
3.158916E+03	3.790281E-04	1.108553E-04
3.168819E+03	3.801935E-04	1.111866E-04
3.178721E+03	3.813264E-04	1.115083E-04
3.188624E+03	3.824323E-04	1.118220E-04
3.198526E+03	3.835030E-04	1.121254E-04
3.208429E+03	3.845442E-04	1.124201E-04
3.218332E+03	3.855544E-04	1.127057E-04
3.228234E+03	3.865327E-04	1.129820E-04
3.238137E+03	3.874708E-04	1.132464E-04
3.248039E+03	3.883745E-04	1.135007E-04
3.257942E+03	3.892425E-04	1.137446E-04
3.267844E+03	3.900672E-04	1.139757E-04
3.277747E+03	3.908540E-04	1.141958E-04
3.287650E+03	3.915953E-04	1.144025E-04
3.297552E+03	3.922969E-04	1.145976E-04
3.307455E+03	3.929512E-04	1.147788E-04
3.317357E+03	3.935577E-04	1.149460E-04
3.327260E+03	3.941152E-04	1.150990E-04
3.337162E+03	3.946231E-04	1.152374E-04
3.347065E+03	3.950808E-04	1.153611E-04
3.356967E+03	3.954815E-04	1.154682E-04
3.366870E+03	3.958308E-04	1.155603E-04
3.376773E+03	3.961165E-04	1.156337E-04
3.386675E+03	3.963494E-04	1.156918E-04
3.396578E+03	3.965182E-04	1.157312E-04
3.406480E+03	3.966226E-04	1.157517E-04
3.416383E+03	3.966623E-04	1.157534E-04
3.426285E+03	3.966321E-04	1.157348E-04
3.436188E+03	3.965373E-04	1.156972E-04
3.446090E+03	3.963728E-04	1.156394E-04
3.455993E+03	3.961331E-04	1.155597E-04
3.465896E+03	3.958193E-04	1.154583E-04
3.475798E+03	3.954263E-04	1.153339E-04
3.485701E+03	3.949600E-04	1.151882E-04
3.495603E+03	3.944059E-04	1.150169E-04
3.505506E+03	3.937701E-04	1.148218E-04
3.515408E+03	3.930488E-04	1.146019E-04
3.525311E+03	3.922430E-04	1.143574E-04
3.535213E+03	3.913445E-04	1.140859E-04
3.545116E+03	3.903502E-04	1.137866E-04
3.555019E+03	3.892667E-04	1.134613E-04
3.564921E+03	3.880816E-04	1.131065E-04
3.574824E+03	3.868018E-04	1.127242E-04
3.584726E+03	3.854248E-04	1.123136E-04
3.594629E+03	3.839442E-04	1.118730E-04
3.604531E+03	3.823581E-04	1.114017E-04
3.614434E+03	3.806695E-04	1.109007E-04
3.624337E+03	3.788725E-04	1.103682E-04
3.634239E+03	3.769745E-04	1.098064E-04
3.644142E+03	3.749660E-04	1.092125E-04
3.654044E+03	3.728507E-04	1.085877E-04
3.663947E+03	3.706280E-04	1.079317E-04
3.673849E+03	3.683012E-04	1.072456E-04
3.683752E+03	3.658664E-04	1.065281E-04
3.693654E+03	3.633274E-04	1.057805E-04
3.703557E+03	3.606843E-04	1.050027E-04
3.713460E+03	3.579411E-04	1.041960E-04
3.723362E+03	3.550981E-04	1.033603E-04
3.733265E+03	3.521594E-04	1.024969E-04
3.743167E+03	3.491254E-04	1.016061E-04
3.753070E+03	3.459968E-04	1.006878E-04
3.762972E+03	3.427847E-04	9.974543E-05
3.772875E+03	3.394831E-04	9.877722E-05
3.782777E+03	3.360993E-04	9.778528E-05
3.792680E+03	3.326410E-04	9.677187E-05
3.802583E+03	3.291056E-04	9.573620E-05
3.812485E+03	3.254972E-04	9.467951E-05
3.822388E+03	3.218230E-04	9.360386E-05
3.832290E+03	3.180869E-04	9.251043E-05
3.842193E+03	3.142927E-04	9.140033E-05
3.852095E+03	3.104416E-04	9.027385E-05
3.861998E+03	3.065398E-04	8.913288E-05
3.871900E+03	3.025916E-04	8.797858E-05
3.881803E+03	2.986000E-04	8.681191E-05
3.891706E+03	2.945688E-04	8.563393E-05
3.901608E+03	2.905018E-04	8.444575E-05
3.911511E+03	2.864045E-04	8.324897E-05
3.921413E+03	2.822805E-04	8.204465E-05
3.931316E+03	2.781304E-04	8.083296E-05
3.941218E+03	2.739622E-04	7.961623E-05
3.951121E+03	2.697765E-04	7.839462E-05
3.961024E+03	2.655786E-04	7.716969E-05
3.970926E+03	2.613715E-04	7.594226E-05
3.980829E+03	2.571554E-04	7.471244E-05
3.990731E+03	2.529378E-04	7.348239E-05
4.000634E+03	2.487186E-04	7.225212E-05
4.010536E+03	2.445028E-04	7.102299E-05
4.020439E+03	2.402928E-04	6.979578E-05
4.030341E+03	2.360907E-04	6.857105E-05
4.040244E+03	2.318989E-04	6.734950E-05
4.050147E+03	2.277213E-04	6.613229E-05
4.060049E+03	2.235582E-04	6.491948E-05
4.069952E+03	2.194116E-04	6.371166E-05
4.079854E+03	2.152872E-04	6.251044E-05
4.089757E+03	2.111830E-04	6.131531E-05
4.099659E+03	2.071026E-04	6.012726E-05
4.109562E+03	2.030479E-04	5.894684E-05
4.119464E+03	1.990203E-04	5.777448E-05
4.129367E+03	1.950218E-04	5.661073E-05
4.139270E+03	1.910535E-04	5.545592E-05
4.149172E+03	1.871171E-04	5.431051E-05
4.159075E+03	1.832139E-04	5.317493E-05
4.168977E+03	1.793453E-04	5.204955E-05
4.178880E+03	1.755127E-04	5.093476E-05
4.188782E+03	1.717158E-04	4.983048E-05
4.198685E+03	1.679558E-04	4.873708E-05
4.208587E+03	1.642356E-04	4.765534E-05
4.218490E+03	1.605561E-04	4.658557E-05
4.228393E+03	1.569157E-04	4.552727E-05
4.238295E+03	1.533169E-04	4.448117E-05
4.248198E+03	1.497607E-04	4.344755E-05
4.258100E+03	1.462481E-04	4.242671E-05
4.268003E+03	1.427800E-04	4.141889E-05
4.277905E+03	1.393560E-04	4.042400E-05
4.287808E+03	1.359795E-04	3.944298E-05
4.297711E+03	1.326487E-04	3.847535E-05
4.307613E+03	1.293668E-04	3.752199E-05
4.317516E+03	1.261343E-04	3.658308E-05
4.327418E+03	1.229529E-04	3.565907E-05
4.337321E+03	1.198230E-04	3.475008E-05
4.347223E+03	1.167459E-04	3.385652E-05
4.357126E+03	1.137219E-04	3.297844E-05
4.367028E+03	1.107532E-04	3.211647E-05
4.376931E+03	1.078397E-04	3.127061E-05
4.386834E+03	1.049815E-04	3.044085E-05
4.396736E+03	1.021804E-04	2.962770E-05
4.406639E+03	9.943596E-05	2.883107E-05
4.416541E+03	9.674895E-05	2.805116E-05
4.426444E+03	9.412067E-05	2.728834E-05
4.436346E+03	9.154975E-05	2.654221E-05
4.446249E+03	8.903734E-05	2.581310E-05
4.456151E+03	8.658361E-05	2.510106E-05
4.466054E+03	8.418781E-05	2.440587E-05
4.475957E+03	8.184996E-05	2.372753E-05
4.485859E+03	7.957003E-05	2.306602E-05
4.495762E+03	7.734783E-05	2.242130E-05
4.505664E+03	7.518314E-05	2.179329E-05
4.515567E+03	7.307491E-05	2.118169E-05
4.525469E+03	7.102217E-05	2.058621E-05
4.535372E+03	6.902583E-05	2.000711E-05
4.545274E+03	6.708410E-05	1.944388E-05
4.555177E+03	6.519588E-05	1.889619E-05
4.565080E+03	6.336125E-05	1.836407E-05
4.574982E+03	6.157960E-05	1.784733E-05
4.584885E+03	5.984854E-05	1.734529E-05
4.594787E+03	5.816920E-05	1.685825E-05
4.604690E+03	5.653863E-05	1.638538E-05
4.614592E+03	5.495729E-05	1.592680E-05
4.624495E+03	5.342391E-05	1.548214E-05
4.634398E+03	5.193723E-05	1.505104E-05
4.644300E+03	5.049605E-05	1.463314E-05
4.654203E+03	4.909916E-05	1.422810E-05
4.664105E+03	4.774631E-05	1.383583E-05
4.674008E+03	4.643582E-05	1.345586E-05
4.683910E+03	4.516651E-05	1.308783E-05
4.693813E+03	4.393767E-05	1.273155E-05
4.703715E+03	4.274730E-05	1.238643E-05
4.713618E+03	4.159555E-05	1.205252E-05
4.723521E+03	4.048007E-05	1.172913E-05
4.733423E+03	3.940064E-05	1.141619E-05
4.743326E+03	3.835620E-05	1.111340E-05
4.753228E+03	3.734494E-05	1.082024E-05
4.763131E+03	3.636630E-05	1.053654E-05
4.773033E+03	3.541965E-05	1.026212E-05
4.782936E+03	3.450337E-05	9.996507E-06
4.792838E+03	3.361686E-05	9.739530E-06
4.802741E+03	3.275929E-05	9.490941E-06
4.812644E+03	3.192942E-05	9.250388E-06
4.822546E+03	3.112646E-05	9.017639E-06
4.832449E+03	3.034990E-05	8.792543E-06
4.842351E+03	2.959866E-05	8.574791E-06
4.852254E+03	2.887226E-05	8.364240E-06
4.862156E+03	2.816936E-05	8.160503E-06
4.872059E+03	2.748959E-05	7.963470E-06
4.881961E+03	2.683220E-05	7.772930E-06
4.891864E+03	2.619627E-05	7.588608E-06
4.901767E+03	2.558142E-05	7.410398E-06
4.911669E+03	2.498676E-05	7.238041E-06
4.921572E+03	2.441194E-05	7.071438E-06
4.931474E+03	2.385612E-05	6.910340E-06
4.941377E+03	2.331870E-05	6.754577E-06
4.951279E+03	2.279892E-05	6.603927E-06
4.961182E+03	2.229673E-05	6.458374E-06
4.971085E+03	2.181113E-05	6.317631E-06
4.980987E+03	2.134165E-05	6.181561E-06
4.990890E+03	2.088801E-05	6.050079E-06
5.000792E+03	2.044953E-05	5.922995E-06
5.010695E+03	2.002579E-05	5.800180E-06
5.020597E+03	1.961634E-05	5.681508E-06
5.030500E+03	1.922077E-05	5.566857E-06
5.040402E+03	1.883848E-05	5.456054E-06
5.050305E+03	1.846910E-05	5.348993E-06
5.060208E+03	1.811244E-05	5.245620E-06
5.070110E+03	1.776778E-05	5.145723E-06
5.080013E+03	1.743515E-05	5.049309E-06
5.089915E+03	1.711366E-05	4.956128E-06
5.099818E+03	1.680338E-05	4.866191E-06
5.109720E+03	1.650381E-05	4.779359E-06
5.119623E+03	1.621468E-05	4.695550E-06
5.129525E+03	1.593569E-05	4.614681E-06
5.139428E+03	1.566642E-05	4.536628E-06
5.149331E+03	1.540662E-05	4.461317E-06
5.159233E+03	1.515588E-05	4.388632E-06
5.169136E+03	1.491428E-05	4.318595E-06
5.179038E+03	1.468114E-05	4.251008E-06
5.188941E+03	1.445640E-05	4.185855E-06
5.198843E+03	1.423986E-05	4.123074E-06
5.208746E+03	1.403131E-05	4.062609E-06
5.218648E+03	1.383027E-05	4.004322E-06
5.228551E+03	1.363673E-05	3.948205E-06
5.238454E+03	1.345036E-05	3.894166E-06
5.248356E+03	1.327102E-05	3.842159E-06
5.258259E+03	1.309840E-05	3.792100E-06
5.268161E+03	1.293249E-05	3.743987E-06
5.278064E+03	1.277289E-05	3.697700E-06
5.287966E+03	1.261948E-05	3.653202E-06
5.297869E+03	1.247199E-05	3.610421E-06
5.307772E+03	1.233043E-05	3.569357E-06
5.317674E+03	1.219432E-05	3.529869E-06
5.327577E+03	1.206367E-05	3.491963E-06
5.337479E+03	1.193825E-05	3.455572E-06
5.347382E+03	1.181785E-05	3.420633E-06
5.357284E+03	1.170203E-05	3.387018E-06
5.367187E+03	1.159057E-05	3.354669E-06
5.377089E+03	1.148330E-05	3.323530E-06
5.386992E+03	1.137957E-05	3.293414E-06
5.396895E+03	1.127919E-05	3.264271E-06
5.406797E+03	1.118168E-05	3.235954E-06
5.416700E+03	1.108674E-05	3.208384E-06
5.426602E+03	1.099467E-05	3.181642E-06
5.436505E+03	1.090530E-05	3.155682E-06
5.446407E+03	1.081889E-05	3.130578E-06
5.456310E+03	1.073548E-05	3.106344E-06
5.466212E+03	1.065544E-05	3.083081E-06
5.476115E+03	1.057857E-05	3.060737E-06
5.486018E+03	1.050500E-05	3.039348E-06
5.495920E+03	1.043466E-05	3.018891E-06
5.505823E+03	1.036777E-05	2.999433E-06
5.515725E+03	1.030414E-05	2.980917E-06
5.525628E+03	1.024379E-05	2.963349E-06
5.535530E+03	1.018663E-05	2.946703E-06
5.545433E+03	1.013278E-05	2.931016E-06
5.555335E+03	1.008206E-05	2.916231E-06
5.565238E+03	1.003449E-05	2.902356E-06
5.575141E+03	9.990073E-06	2.889393E-06
5.585043E+03	9.948742E-06	2.877321E-06
5.594946E+03	9.910515E-06	2.866146E-06
5.604848E+03	9.875208E-06	2.855814E-06
5.614751E+03	9.842848E-06	2.846333E-06
5.624653E+03	9.813464E-06	2.837711E-06
5.634556E+03	9.786978E-06	2.829926E-06
5.644459E+03	9.763324E-06	2.822959E-06
5.654361E+03	9.742427E-06	2.816786E-06
5.664264E+03	9.724427E-06	2.811450E-06
5.674166E+03	9.709052E-06	2.806871E-06
5.684069E+03	9.696447E-06	2.803091E-06
5.693971E+03	9.686547E-06	2.800091E-06
5.703874E+03	9.679191E-06	2.797825E-06
5.713776E+03	9.674425E-06	2.796305E-06
5.723679E+03	9.672295E-06	2.795545E-06
5.733582E+03	9.672646E-06	2.795499E-06
5.743484E+03	9.675424E-06	2.796153E-06
5.753387E+03	9.680790E-06	2.797552E-06
5.763289E+03	9.688483E-06	2.799621E-06
5.773192E+03	9.698564E-06	2.802378E-06
5.783094E+03	9.710986E-06	2.805808E-06
5.792997E+03	9.725707E-06	2.809900E-06
5.802899E+03	9.742789E-06	2.814671E-06
5.812802E+03	9.761978E-06	2.820047E-06
5.822705E+03	9.783450E-06	2.826080E-06
5.832607E+03	9.807056E-06	2.832726E-06
5.842510E+03	9.832757E-06	2.839974E-06
5.852412E+03	9.860520E-06	2.847814E-06
5.862315E+03	9.890302E-06	2.856233E-06
5.872217E+03	9.922186E-06	2.865256E-06
5.882120E+03	9.955907E-06	2.874805E-06
5.892022E+03	9.991432E-06	2.884872E-06
5.901925E+03	1.002884E-05	2.895477E-06
5.911828E+03	1.006809E-05	2.906612E-06
5.921730E+03	1.010892E-05	2.918198E-06
5.931633E+03	1.015153E-05	2.930294E-06
5.941535E+03	1.019553E-05	2.942785E-06
5.951438E+03	1.024124E-05	2.955765E-06
5.961340E+03	1.028826E-05	2.969119E-06
5.971243E+03	1.033655E-05	2.982836E-06
5.981146E+03	1.038620E-05	2.996938E-06
5.991048E+03	1.043704E-05	3.011379E-06
6.000951E+03	1.048902E-05	3.026146E-06
6.010853E+03	1.054186E-05	3.041155E-06
6.020756E+03	1.059576E-05	3.056464E-06
6.030658E+03	1.065030E-05	3.071950E-06
6.040561E+03	1.070566E-05	3.087672E-06
6.050463E+03	1.076169E-05	3.103579E-06
6.060366E+03	1.081820E-05	3.119617E-06
6.070269E+03	1.087512E-05	3.135769E-06
6.080171E+03	1.093254E-05	3.152059E-06
6.090074E+03	1.099026E-05	3.168431E-06
6.099976E+03	1.104824E-05	3.184869E-06
6.109879E+03	1.110668E-05	3.201437E-06
6.119781E+03	1.116526E-05	3.218036E-06
6.129684E+03	1.122405E-05	3.234692E-06
6.139586E+03	1.128315E-05	3.251430E-06
6.149489E+03	1.134265E-05	3.268276E-06
6.159392E+03	1.140235E-05	3.285175E-06
6.169294E+03	1.146220E-05	3.302110E-06
6.179197E+03	1.152231E-05	3.319111E-06
6.189099E+03	1.158245E-05	3.336118E-06
6.199002E+03	1.164275E-05	3.353160E-06
6.208904E+03	1.170314E-05	3.370224E-06
6.218807E+03	1.176373E-05	3.387339E-06
6.228709E+03	1.182448E-05	3.404493E-06
6.238612E+03	1.188535E-05	3.421674E-06
6.248515E+03	1.194645E-05	3.438914E-06
6.258417E+03	1.200791E-05	3.456249E-06
6.268320E+03	1.206952E-05	3.473622E-06
6.278222E+03	1.213141E-05	3.491069E-06
6.288125E+03	1.219372E-05	3.508628E-06
6.298027E+03	1.225625E-05	3.526242E-06
6.307930E+03	1.231931E-05	3.544002E-06
6.317833E+03	1.238288E-05	3.561900E-06
6.327735E+03	1.244693E-05	3.579930E-06
6.337638E+03	1.251144E-05	3.598084E-06
6.347540E+03	1.257676E-05	3.616463E-06
6.357443E+03	1.264269E-05	3.635008E-06
6.367345E+03	1.270959E-05	3.653824E-06
6.377248E+03	1.277745E-05	3.672910E-06
6.387150E+03	1.284628E-05	3.692266E-06
6.397053E+03	1.291627E-05	3.711946E-06
6.406956E+03	1.298743E-05	3.731953E-06
6.416858E+03	1.305996E-05	3.752345E-06
6.426761E+03	1.313348E-05	3.773012E-06
6.436663E+03	1.320839E-05	3.794070E-06
6.446566E+03	1.328471E-05	3.815526E-06
6.456468E+03	1.336226E-05	3.837323E-06
6.466371E+03	1.344126E-05	3.859525E-06
6.476273E+03	1.352171E-05	3.882139E-06
6.486176E+03	1.360366E-05	3.905170E-06
6.496079E+03	1.368712E-05	3.928623E-06
6.505981E+03	1.377233E-05	3.952570E-06
6.515884E+03	1.385910E-05	3.976955E-06
6.525786E+03	1.394746E-05	4.001785E-06
6.535689E+03	1.403767E-05	4.027133E-06
6.545591E+03	1.412976E-05	4.053009E-06
6.555494E+03	1.422352E-05	4.079356E-06
6.565396E+03	1.431924E-05	4.106252E-06
6.575299E+03	1.441671E-05	4.133636E-06
6.585202E+03	1.451644E-05	4.161660E-06
6.595104E+03	1.461801E-05	4.190194E-06
6.605007E+03	1.472143E-05	4.219249E-06
6.614909E+03	1.482700E-05	4.248907E-06
6.624812E+03	1.493477E-05	4.279182E-06
6.634714E+03	1.504452E-05	4.310011E-06
6.644617E+03	1.515629E-05	4.341407E-06
6.654520E+03	1.527039E-05	4.373455E-06
6.664422E+03	1.538661E-05	4.406094E-06
6.674325E+03	1.550525E-05	4.439415E-06
6.684227E+03	1.562582E-05	4.473272E-06
6.694130E+03	1.574891E-05	4.507837E-06
6.704032E+03	1.587402E-05	4.542962E-06
6.713935E+03	1.600175E-05	4.578824E-06
6.723837E+03	1.613158E-05	4.615272E-06
6.733740E+03	1.626386E-05	4.652401E-06
6.743643E+03	1.639862E-05	4.690227E-06
6.753545E+03	1.653562E-05	4.728676E-06
6.763448E+03	1.667522E-05	4.767849E-06
6.773350E+03	1.681715E-05	4.807672E-06
6.783253E+03	1.696178E-05	4.848249E-06
6.793155E+03	1.710852E-05	4.889413E-06
6.803058E+03	1.725807E-05	4.931358E-06
6.812960E+03	1.741015E-05	4.974009E-06
6.822863E+03	1.756481E-05	5.017379E-06
6.832766E+03	1.772177E-05	5.061386E-06
6.842668E+03	1.788175E-05	5.106237E-06
6.852571E+03	1.804379E-05	5.151654E-06
6.862473E+03	1.820896E-05	5.197945E-06
6.872376E+03	1.837662E-05	5.244927E-06
6.882278E+03	1.854682E-05	5.292612E-06
6.892181E+03	1.871997E-05	5.341116E-06
6.902083E+03	1.889576E-05	5.390352E-06
6.911986E+03	1.907425E-05	5.440335E-06
6.921889E+03	1.925547E-05	5.491075E-06
6.931791E+03	1.943947E-05	5.542586E-06
6.941694E+03	1.962630E-05	5.594879E-06
6.951596E+03	1.981565E-05	5.647866E-06
6.961499E+03	2.000834E-05	5.701781E-06
6.971401E+03	2.020322E-05	5.756296E-06
6.981304E+03	2.040153E-05	5.811765E-06
6.991207E+03	2.060214E-05	5.867861E-06
7.001109E+03	2.080589E-05	5.924827E-06
7.011012E+03	2.101241E-05	5.982555E-06
7.020914E+03	2.122176E-05	6.041060E-06
7.030817E+03	2.143442E-05	6.100482E-06
7.040719E+03	2.164956E-05	6.160584E-06
7.050622E+03	2.186766E-05	6.221498E-06
7.060524E+03	2.208834E-05	6.283118E-06
7.070427E+03	2.231206E-05	6.345577E-06
7.080330E+03	2.253888E-05	6.408885E-06
7.090232E+03	2.276839E-05	6.472929E-06
7.100135E+03	2.300110E-05	6.537854E-06
7.110037E+03	2.323610E-05	6.603399E-06
7.119940E+03	2.347436E-05	6.669841E-06
7.129842E+03	2.371549E-05	6.737064E-06
7.139745E+03	2.395900E-05	6.804934E-06
7.149647E+03	2.420541E-05	6.873595E-06
7.159550E+03	2.445475E-05	6.943058E-06
7.169453E+03	2.470660E-05	7.013198E-06
7.179355E+03	2.496093E-05	7.084010E-06
7.189258E+03	2.521778E-05	7.155504E-06
7.199160E+03	2.547717E-05	7.227684E-06
7.209063E+03	2.573913E-05	7.300561E-06
7.218965E+03	2.600259E-05	7.373827E-06
7.228868E+03	2.626865E-05	7.447795E-06
7.238770E+03	2.653675E-05	7.522308E-06
7.248673E+03	2.680635E-05	7.597210E-06
7.258576E+03	2.707801E-05	7.672661E-06
7.268478E+03	2.735056E-05	7.748328E-06
7.278381E+03	2.762400E-05	7.824211E-06
7.288283E+03	2.789825E-05	7.900288E-06
7.298186E+03	2.817271E-05	7.976387E-06
7.308088E+03	2.844791E-05	8.052658E-06
7.317991E+03	2.872198E-05	8.128576E-06
7.327894E+03	2.899606E-05	8.204457E-06
7.337796E+03	2.926884E-05	8.279936E-06
7.347699E+03	2.954082E-05	8.355154E-06
7.357601E+03	2.981130E-05	8.429910E-06
7.367504E+03	3.008015E-05	8.504170E-06
7.377406E+03	3.034790E-05	8.578082E-06
7.387309E+03	3.061380E-05	8.651438E-06
7.397211E+03	3.087977E-05	8.724774E-06
7.407114E+03	3.114434E-05	8.797684E-06
7.417017E+03	3.140880E-05	8.870526E-06
7.426919E+03	3.167241E-05	8.943091E-06
7.436822E+03	3.193717E-05	9.015948E-06
7.446724E+03	3.220238E-05	9.088897E-06
7.456627E+03	3.246797E-05	9.161919E-06
7.466529E+03	3.273465E-05	9.235210E-06
7.476432E+03	3.300238E-05	9.308765E-06
7.486334E+03	3.327265E-05	9.383002E-06
7.496237E+03	3.354399E-05	9.457502E-06
7.506140E+03	3.381712E-05	9.532475E-06
7.516042E+03	3.409285E-05	9.608144E-06
7.525945E+03	3.437041E-05	9.684291E-06
7.535847E+03	3.465061E-05	9.761150E-06
7.545750E+03	3.493268E-05	9.838495E-06
7.555652E+03	3.521823E-05	9.916788E-06
7.565555E+03	3.550572E-05	9.995589E-06
7.575457E+03	3.579679E-05	1.007536E-05
7.585360E+03	3.608985E-05	1.015566E-05
7.595263E+03	3.638658E-05	1.023695E-05
7.605165E+03	3.668535E-05	1.031878E-05
7.615068E+03	3.698789E-05	1.040163E-05
7.624970E+03	3.729340E-05	1.048528E-05
7.634873E+03	3.760194E-05	1.056974E-05
7.644775E+03	3.791352E-05	1.065502E-05
7.654678E+03	3.822818E-05	1.074113E-05
7.664581E+03	3.854600E-05	1.082809E-05
7.674483E+03	3.886610E-05	1.091565E-05
7.684386E+03	3.919031E-05	1.100432E-05
