#wls	flux	fluxerr
1.584409E+03	3.480454E-03	5.697753E-04
1.624020E+03	3.599499E-03	5.892542E-04
1.663630E+03	3.715009E-03	6.081536E-04
1.703240E+03	3.825748E-03	6.262709E-04
1.742850E+03	3.930742E-03	6.434470E-04
1.782461E+03	4.028530E-03	6.594426E-04
1.822071E+03	4.117940E-03	6.740657E-04
1.861681E+03	4.197704E-03	6.871092E-04
1.901291E+03	4.266126E-03	6.982953E-04
1.940902E+03	4.321850E-03	7.074021E-04
1.980512E+03	4.363506E-03	7.142056E-04
2.020122E+03	4.389757E-03	7.184870E-04
2.059732E+03	4.399001E-03	7.199844E-04
2.099342E+03	4.390127E-03	7.185158E-04
2.138953E+03	4.361595E-03	7.138297E-04
2.178563E+03	4.312217E-03	7.057316E-04
2.218173E+03	4.240151E-03	6.939207E-04
2.257783E+03	4.144289E-03	6.782155E-04
2.297394E+03	4.026849E-03	6.589797E-04
2.337004E+03	3.890951E-03	6.367237E-04
2.376614E+03	3.739066E-03	6.118525E-04
2.416224E+03	3.573202E-03	5.846947E-04
2.455835E+03	3.395225E-03	5.555561E-04
2.495445E+03	3.207254E-03	5.247833E-04
2.535055E+03	3.011174E-03	4.926852E-04
2.574665E+03	2.809255E-03	4.596335E-04
2.614276E+03	2.603572E-03	4.259673E-04
2.653886E+03	2.396109E-03	3.920120E-04
2.693496E+03	2.189154E-03	3.581415E-04
2.733106E+03	1.984766E-03	3.246929E-04
2.772716E+03	1.784987E-03	2.920005E-04
2.812327E+03	1.591744E-03	2.603792E-04
2.851937E+03	1.406909E-03	2.301352E-04
2.891547E+03	1.232396E-03	2.015816E-04
2.931157E+03	1.070042E-03	1.750188E-04
2.970768E+03	9.211796E-04	1.506645E-04
2.980670E+03	8.861676E-04	1.449366E-04
2.990573E+03	8.520885E-04	1.393614E-04
3.000475E+03	8.188999E-04	1.339320E-04
3.010378E+03	7.866215E-04	1.286515E-04
3.020280E+03	7.552846E-04	1.235251E-04
3.030183E+03	7.248502E-04	1.185463E-04
3.040086E+03	6.953461E-04	1.137199E-04
3.049988E+03	6.667654E-04	1.090445E-04
3.059891E+03	6.391000E-04	1.045189E-04
3.069793E+03	6.123427E-04	1.001420E-04
3.079696E+03	5.865092E-04	9.591615E-05
3.089598E+03	5.615757E-04	9.183759E-05
3.099501E+03	5.375422E-04	8.790630E-05
3.109403E+03	5.143949E-04	8.412002E-05
3.119306E+03	4.921198E-04	8.047644E-05
3.129209E+03	4.707114E-04	7.697467E-05
3.139111E+03	4.501607E-04	7.361321E-05
3.149014E+03	4.304326E-04	7.038636E-05
3.158916E+03	4.115325E-04	6.729497E-05
3.168819E+03	3.934313E-04	6.433427E-05
3.178721E+03	3.761149E-04	6.150197E-05
3.188624E+03	3.595601E-04	5.879427E-05
3.198526E+03	3.437384E-04	5.620650E-05
3.208429E+03	3.286444E-04	5.373777E-05
3.218332E+03	3.142365E-04	5.138128E-05
3.228234E+03	3.005072E-04	4.913580E-05
3.238137E+03	2.874312E-04	4.699719E-05
3.248039E+03	2.749749E-04	4.495995E-05
3.257942E+03	2.631272E-04	4.302227E-05
3.267844E+03	2.518556E-04	4.117882E-05
3.277747E+03	2.411404E-04	3.942638E-05
3.287650E+03	2.309579E-04	3.776109E-05
3.297552E+03	2.212885E-04	3.617972E-05
3.307455E+03	2.121064E-04	3.467805E-05
3.317357E+03	2.033897E-04	3.325251E-05
3.327260E+03	1.951174E-04	3.189965E-05
3.337162E+03	1.872715E-04	3.061655E-05
3.347065E+03	1.798296E-04	2.939951E-05
3.356967E+03	1.727725E-04	2.824541E-05
3.366870E+03	1.660819E-04	2.715125E-05
3.376773E+03	1.597381E-04	2.611383E-05
3.386675E+03	1.537246E-04	2.513042E-05
3.396578E+03	1.480254E-04	2.419842E-05
3.406480E+03	1.426236E-04	2.331505E-05
3.416383E+03	1.375049E-04	2.247797E-05
3.426285E+03	1.326538E-04	2.168467E-05
3.436188E+03	1.280560E-04	2.093281E-05
3.446090E+03	1.236982E-04	2.022017E-05
3.455993E+03	1.195661E-04	1.954445E-05
3.465896E+03	1.156493E-04	1.890395E-05
3.475798E+03	1.119353E-04	1.829661E-05
3.485701E+03	1.084113E-04	1.772034E-05
3.495603E+03	1.050645E-04	1.717305E-05
3.505506E+03	1.018863E-04	1.665333E-05
3.515408E+03	9.886550E-05	1.615935E-05
3.525311E+03	9.598988E-05	1.568911E-05
3.535213E+03	9.325116E-05	1.524126E-05
3.545116E+03	9.064076E-05	1.481439E-05
3.555019E+03	8.814986E-05	1.440707E-05
3.564921E+03	8.576951E-05	1.401782E-05
3.574824E+03	8.349470E-05	1.364584E-05
3.584726E+03	8.131906E-05	1.329007E-05
3.594629E+03	7.923663E-05	1.294954E-05
3.604531E+03	7.724534E-05	1.262392E-05
3.614434E+03	7.534090E-05	1.231249E-05
3.624337E+03	7.351979E-05	1.201470E-05
3.634239E+03	7.177925E-05	1.173008E-05
3.644142E+03	7.011644E-05	1.145817E-05
3.654044E+03	6.852795E-05	1.119841E-05
3.663947E+03	6.701220E-05	1.095054E-05
3.673849E+03	6.556524E-05	1.071392E-05
3.683752E+03	6.418495E-05	1.048821E-05
3.693654E+03	6.286968E-05	1.027312E-05
3.703557E+03	6.161522E-05	1.006798E-05
3.713460E+03	6.042103E-05	9.872686E-06
3.723362E+03	5.928309E-05	9.686593E-06
3.733265E+03	5.820044E-05	9.509537E-06
3.743167E+03	5.717066E-05	9.341126E-06
3.753070E+03	5.619144E-05	9.180978E-06
3.762972E+03	5.526098E-05	9.028804E-06
3.772875E+03	5.437713E-05	8.884247E-06
3.782777E+03	5.353826E-05	8.747043E-06
3.792680E+03	5.274276E-05	8.616930E-06
3.802583E+03	5.198874E-05	8.493596E-06
3.812485E+03	5.127474E-05	8.376803E-06
3.822388E+03	5.059935E-05	8.266322E-06
3.832290E+03	4.996090E-05	8.161878E-06
3.842193E+03	4.935812E-05	8.063264E-06
3.852095E+03	4.878984E-05	7.970289E-06
3.861998E+03	4.825449E-05	7.882694E-06
3.871900E+03	4.775103E-05	7.800313E-06
3.881803E+03	4.727803E-05	7.722909E-06
3.891706E+03	4.683491E-05	7.650386E-06
3.901608E+03	4.642030E-05	7.582523E-06
3.911511E+03	4.603334E-05	7.519178E-06
3.921413E+03	4.567243E-05	7.460090E-06
3.931316E+03	4.533749E-05	7.405244E-06
3.941218E+03	4.502698E-05	7.354390E-06
3.951121E+03	4.474019E-05	7.307412E-06
3.961024E+03	4.447603E-05	7.264131E-06
3.970926E+03	4.423416E-05	7.224490E-06
3.980829E+03	4.401323E-05	7.188270E-06
3.990731E+03	4.381296E-05	7.155425E-06
4.000634E+03	4.363208E-05	7.125747E-06
4.010536E+03	4.347036E-05	7.099197E-06
4.020439E+03	4.332656E-05	7.075575E-06
4.030341E+03	4.320020E-05	7.054802E-06
4.040244E+03	4.309076E-05	7.036792E-06
4.050147E+03	4.299779E-05	7.021470E-06
4.060049E+03	4.292019E-05	7.008657E-06
4.069952E+03	4.285754E-05	6.998286E-06
4.079854E+03	4.280913E-05	6.990241E-06
4.089757E+03	4.277461E-05	6.984463E-06
4.099659E+03	4.275359E-05	6.980887E-06
4.109562E+03	4.274510E-05	6.979357E-06
4.119464E+03	4.274919E-05	6.979880E-06
4.129367E+03	4.276490E-05	6.982300E-06
4.139270E+03	4.279198E-05	6.986575E-06
4.149172E+03	4.283018E-05	6.992664E-06
4.159075E+03	4.287863E-05	7.000426E-06
4.168977E+03	4.293710E-05	7.009823E-06
4.178880E+03	4.300509E-05	7.020772E-06
4.188782E+03	4.308274E-05	7.033297E-06
4.198685E+03	4.316895E-05	7.047218E-06
4.208587E+03	4.326386E-05	7.062557E-06
4.218490E+03	4.336671E-05	7.079191E-06
4.228393E+03	4.347769E-05	7.097150E-06
4.238295E+03	4.359572E-05	7.116259E-06
4.248198E+03	4.372069E-05	7.136498E-06
4.258100E+03	4.385251E-05	7.157853E-06
4.268003E+03	4.399012E-05	7.180152E-06
4.277905E+03	4.413376E-05	7.203432E-06
4.287808E+03	4.428198E-05	7.227459E-06
4.297711E+03	4.443508E-05	7.252279E-06
4.307613E+03	4.459125E-05	7.277600E-06
4.317516E+03	4.475043E-05	7.303408E-06
4.327418E+03	4.491358E-05	7.329862E-06
4.337321E+03	4.508069E-05	7.356961E-06
4.347223E+03	4.525207E-05	7.384754E-06
4.357126E+03	4.542776E-05	7.413247E-06
4.367028E+03	4.560698E-05	7.442315E-06
4.376931E+03	4.579053E-05	7.472088E-06
4.386834E+03	4.597769E-05	7.502445E-06
4.396736E+03	4.616852E-05	7.533400E-06
4.406639E+03	4.636270E-05	7.564898E-06
4.416541E+03	4.656032E-05	7.596955E-06
4.426444E+03	4.676070E-05	7.629460E-06
4.436346E+03	4.696436E-05	7.662497E-06
4.446249E+03	4.717064E-05	7.695959E-06
4.456151E+03	4.737936E-05	7.729815E-06
4.466054E+03	4.759107E-05	7.764156E-06
4.475957E+03	4.780477E-05	7.798820E-06
4.485859E+03	4.802076E-05	7.833853E-06
4.495762E+03	4.823922E-05	7.869288E-06
4.505664E+03	4.845971E-05	7.905051E-06
4.515567E+03	4.868253E-05	7.941189E-06
4.525469E+03	4.890717E-05	7.977621E-06
4.535372E+03	4.913403E-05	8.014413E-06
4.545274E+03	4.936306E-05	8.051556E-06
4.555177E+03	4.959428E-05	8.089052E-06
4.565080E+03	4.982727E-05	8.126833E-06
4.574982E+03	5.006291E-05	8.165043E-06
4.584885E+03	5.030035E-05	8.203543E-06
4.594787E+03	5.054008E-05	8.242415E-06
4.604690E+03	5.078217E-05	8.281666E-06
4.614592E+03	5.102621E-05	8.321233E-06
4.624495E+03	5.127315E-05	8.361268E-06
4.634398E+03	5.152222E-05	8.401646E-06
4.644300E+03	5.177388E-05	8.442444E-06
4.654203E+03	5.202915E-05	8.483827E-06
4.664105E+03	5.228768E-05	8.525738E-06
4.674008E+03	5.255005E-05	8.568271E-06
4.683910E+03	5.281684E-05	8.611519E-06
4.693813E+03	5.308817E-05	8.655505E-06
4.703715E+03	5.336421E-05	8.700254E-06
4.713618E+03	5.364603E-05	8.745942E-06
4.723521E+03	5.393286E-05	8.792442E-06
4.733423E+03	5.422585E-05	8.839941E-06
4.743326E+03	5.452514E-05	8.888464E-06
4.753228E+03	5.483048E-05	8.937968E-06
4.763131E+03	5.514304E-05	8.988645E-06
4.773033E+03	5.546254E-05	9.040447E-06
4.782936E+03	5.578923E-05	9.093416E-06
4.792838E+03	5.612332E-05	9.147588E-06
4.802741E+03	5.646507E-05	9.203002E-06
4.812644E+03	5.681574E-05	9.259865E-06
4.822546E+03	5.717406E-05	9.317969E-06
4.832449E+03	5.754135E-05	9.377529E-06
4.842351E+03	5.791734E-05	9.438503E-06
4.852254E+03	5.830286E-05	9.501022E-06
4.862156E+03	5.869767E-05	9.565051E-06
4.872059E+03	5.910206E-05	9.630634E-06
4.881961E+03	5.951684E-05	9.697905E-06
4.891864E+03	5.994121E-05	9.766730E-06
4.901767E+03	6.037599E-05	9.837247E-06
4.911669E+03	6.082149E-05	9.909503E-06
4.921572E+03	6.127795E-05	9.983537E-06
4.931474E+03	6.174508E-05	1.005930E-05
4.941377E+03	6.222312E-05	1.013684E-05
4.951279E+03	6.271292E-05	1.021628E-05
4.961182E+03	6.321351E-05	1.029748E-05
4.971085E+03	6.372631E-05	1.038066E-05
4.980987E+03	6.425033E-05	1.046565E-05
4.990890E+03	6.478578E-05	1.055250E-05
5.000792E+03	6.533343E-05	1.064133E-05
5.010695E+03	6.589286E-05	1.073207E-05
5.020597E+03	6.646421E-05	1.082474E-05
5.030500E+03	6.704699E-05	1.091926E-05
5.040402E+03	6.764198E-05	1.101577E-05
5.050305E+03	6.824934E-05	1.111427E-05
5.060208E+03	6.886782E-05	1.121458E-05
5.070110E+03	6.949820E-05	1.131682E-05
5.080013E+03	7.014056E-05	1.142100E-05
5.089915E+03	7.079501E-05	1.152713E-05
5.099818E+03	7.146092E-05	1.163513E-05
5.109720E+03	7.213841E-05	1.174499E-05
5.119623E+03	7.282679E-05	1.185662E-05
5.129525E+03	7.352757E-05	1.197026E-05
5.139428E+03	7.423933E-05	1.208567E-05
5.149331E+03	7.496217E-05	1.220288E-05
5.159233E+03	7.569609E-05	1.232187E-05
5.169136E+03	7.644185E-05	1.244278E-05
5.179038E+03	7.719800E-05	1.256537E-05
5.188941E+03	7.796450E-05	1.268964E-05
5.198843E+03	7.874283E-05	1.281581E-05
5.208746E+03	7.953069E-05	1.294353E-05
5.218648E+03	8.032950E-05	1.307301E-05
5.228551E+03	8.113841E-05	1.320412E-05
5.238454E+03	8.195726E-05	1.333684E-05
5.248356E+03	8.278670E-05	1.347126E-05
5.258259E+03	8.362492E-05	1.360710E-05
5.268161E+03	8.447248E-05	1.374445E-05
5.278064E+03	8.532909E-05	1.388325E-05
5.287966E+03	8.619442E-05	1.402346E-05
5.297869E+03	8.706897E-05	1.416515E-05
5.307772E+03	8.795057E-05	1.430798E-05
5.317674E+03	8.883959E-05	1.445199E-05
5.327577E+03	8.973550E-05	1.459711E-05
5.337479E+03	9.063676E-05	1.474309E-05
5.347382E+03	9.154452E-05	1.489010E-05
5.357284E+03	9.245709E-05	1.503789E-05
5.367187E+03	9.337277E-05	1.518616E-05
5.377089E+03	9.429064E-05	1.533477E-05
5.386992E+03	9.521062E-05	1.548370E-05
5.396895E+03	9.612983E-05	1.563250E-05
5.406797E+03	9.704801E-05	1.578111E-05
5.416700E+03	9.796400E-05	1.592935E-05
5.426602E+03	9.887452E-05	1.607667E-05
5.436505E+03	9.977813E-05	1.622286E-05
5.446407E+03	1.006744E-04	1.636784E-05
5.456310E+03	1.015608E-04	1.651119E-05
5.466212E+03	1.024345E-04	1.665247E-05
5.476115E+03	1.032929E-04	1.679124E-05
5.486018E+03	1.041361E-04	1.692753E-05
5.495920E+03	1.049593E-04	1.706053E-05
5.505823E+03	1.057614E-04	1.719010E-05
5.515725E+03	1.065394E-04	1.731573E-05
5.525628E+03	1.072912E-04	1.743709E-05
5.535530E+03	1.080147E-04	1.755384E-05
5.545433E+03	1.087068E-04	1.766547E-05
5.555335E+03	1.093665E-04	1.777180E-05
5.565238E+03	1.099905E-04	1.787234E-05
5.575141E+03	1.105756E-04	1.796654E-05
5.585043E+03	1.111222E-04	1.805446E-05
5.594946E+03	1.116272E-04	1.813561E-05
5.604848E+03	1.120876E-04	1.820951E-05
5.614751E+03	1.125029E-04	1.827606E-05
5.624653E+03	1.128726E-04	1.833519E-05
5.634556E+03	1.131929E-04	1.838630E-05
5.644459E+03	1.134638E-04	1.842937E-05
5.654361E+03	1.136853E-04	1.846440E-05
5.664264E+03	1.138553E-04	1.849106E-05
5.674166E+03	1.139743E-04	1.850942E-05
5.684069E+03	1.140403E-04	1.851918E-05
5.693971E+03	1.140542E-04	1.852048E-05
5.703874E+03	1.140159E-04	1.851328E-05
5.713776E+03	1.139264E-04	1.849777E-05
5.723679E+03	1.137834E-04	1.847359E-05
5.733582E+03	1.135910E-04	1.844136E-05
5.743484E+03	1.133472E-04	1.840079E-05
5.753387E+03	1.130538E-04	1.835218E-05
5.763289E+03	1.127118E-04	1.829566E-05
5.773192E+03	1.123220E-04	1.823141E-05
5.783094E+03	1.118870E-04	1.815980E-05
5.792997E+03	1.114081E-04	1.808107E-05
5.802899E+03	1.108866E-04	1.799545E-05
5.812802E+03	1.103232E-04	1.790302E-05
5.822705E+03	1.097219E-04	1.780446E-05
5.832607E+03	1.090836E-04	1.769988E-05
5.842510E+03	1.084113E-04	1.758980E-05
5.852412E+03	1.077059E-04	1.747436E-05
5.862315E+03	1.069709E-04	1.735412E-05
5.872217E+03	1.062083E-04	1.722942E-05
5.882120E+03	1.054204E-04	1.710062E-05
5.892022E+03	1.046095E-04	1.696810E-05
5.901925E+03	1.037777E-04	1.683219E-05
5.911828E+03	1.029284E-04	1.669347E-05
5.921730E+03	1.020614E-04	1.655188E-05
5.931633E+03	1.011811E-04	1.640815E-05
5.941535E+03	1.002885E-04	1.626243E-05
5.951438E+03	9.938545E-05	1.611504E-05
5.961340E+03	9.847512E-05	1.596647E-05
5.971243E+03	9.755697E-05	1.581666E-05
5.981146E+03	9.663512E-05	1.566625E-05
5.991048E+03	9.570893E-05	1.551516E-05
6.000951E+03	9.478117E-05	1.536382E-05
6.010853E+03	9.385337E-05	1.521249E-05
6.020756E+03	9.292581E-05	1.506122E-05
6.030658E+03	9.199990E-05	1.491022E-05
6.040561E+03	9.107693E-05	1.475972E-05
6.050463E+03	9.015809E-05	1.460990E-05
6.060366E+03	8.924454E-05	1.446095E-05
6.070269E+03	8.833730E-05	1.431304E-05
6.080171E+03	8.743741E-05	1.416633E-05
6.090074E+03	8.654572E-05	1.402097E-05
6.099976E+03	8.566418E-05	1.387727E-05
6.109879E+03	8.479464E-05	1.373552E-05
6.119781E+03	8.393886E-05	1.359602E-05
6.129684E+03	8.309741E-05	1.345884E-05
6.139586E+03	8.227084E-05	1.332410E-05
6.149489E+03	8.145857E-05	1.319168E-05
6.159392E+03	8.066103E-05	1.306167E-05
6.169294E+03	7.987863E-05	1.293411E-05
6.179197E+03	7.911063E-05	1.280891E-05
6.189099E+03	7.835839E-05	1.268626E-05
6.199002E+03	7.762428E-05	1.256656E-05
6.208904E+03	7.690743E-05	1.244967E-05
6.218807E+03	7.620904E-05	1.233578E-05
6.228709E+03	7.553132E-05	1.222525E-05
6.238612E+03	7.487332E-05	1.211792E-05
6.248515E+03	7.423820E-05	1.201430E-05
6.258417E+03	7.362698E-05	1.191457E-05
6.268320E+03	7.303865E-05	1.181854E-05
6.278222E+03	7.247627E-05	1.172672E-05
6.288125E+03	7.194078E-05	1.163927E-05
6.298027E+03	7.143217E-05	1.155617E-05
6.307930E+03	7.095138E-05	1.147758E-05
6.317833E+03	7.050143E-05	1.140398E-05
6.327735E+03	7.008120E-05	1.133520E-05
6.337638E+03	6.969166E-05	1.127139E-05
6.347540E+03	6.933482E-05	1.121287E-05
6.357443E+03	6.900752E-05	1.115914E-05
6.367345E+03	6.870766E-05	1.110985E-05
6.377248E+03	6.843419E-05	1.106482E-05
6.387150E+03	6.818603E-05	1.102389E-05
6.397053E+03	6.796109E-05	1.098672E-05
6.406956E+03	6.775932E-05	1.095330E-05
6.416858E+03	6.757968E-05	1.092345E-05
6.426761E+03	6.742209E-05	1.089717E-05
6.436663E+03	6.728551E-05	1.087429E-05
6.446566E+03	6.716994E-05	1.085480E-05
6.456468E+03	6.707530E-05	1.083869E-05
6.466371E+03	6.700053E-05	1.082579E-05
6.476273E+03	6.694665E-05	1.081627E-05
6.486176E+03	6.691367E-05	1.081011E-05
6.496079E+03	6.690047E-05	1.080716E-05
6.505981E+03	6.690815E-05	1.080757E-05
6.515884E+03	6.693561E-05	1.081117E-05
6.525786E+03	6.698283E-05	1.081796E-05
6.535689E+03	6.705090E-05	1.082812E-05
6.545591E+03	6.713767E-05	1.084129E-05
6.555494E+03	6.724637E-05	1.085799E-05
6.565396E+03	6.737377E-05	1.087771E-05
6.575299E+03	6.752209E-05	1.090080E-05
6.585202E+03	6.769023E-05	1.092708E-05
6.595104E+03	6.787822E-05	1.095656E-05
6.605007E+03	6.808723E-05	1.098942E-05
6.614909E+03	6.831616E-05	1.102549E-05
6.624812E+03	6.856504E-05	1.106477E-05
6.634714E+03	6.883394E-05	1.110727E-05
6.644617E+03	6.912407E-05	1.115318E-05
6.654520E+03	6.943312E-05	1.120214E-05
6.664422E+03	6.976353E-05	1.125453E-05
6.674325E+03	7.011420E-05	1.131018E-05
6.684227E+03	7.048519E-05	1.136909E-05
6.694130E+03	7.087655E-05	1.143128E-05
6.704032E+03	7.128836E-05	1.149675E-05
6.713935E+03	7.172199E-05	1.156572E-05
6.723837E+03	7.217499E-05	1.163780E-05
6.733740E+03	7.264870E-05	1.171321E-05
6.743643E+03	7.314322E-05	1.179196E-05
6.753545E+03	7.365861E-05	1.187405E-05
6.763448E+03	7.419500E-05	1.195951E-05
6.773350E+03	7.475247E-05	1.204835E-05
6.783253E+03	7.533110E-05	1.214058E-05
6.793155E+03	7.592965E-05	1.223601E-05
6.803058E+03	7.654952E-05	1.233485E-05
6.812960E+03	7.719084E-05	1.243712E-05
6.822863E+03	7.785224E-05	1.254261E-05
6.832766E+03	7.853524E-05	1.265156E-05
6.842668E+03	7.923995E-05	1.276398E-05
6.852571E+03	7.996496E-05	1.287965E-05
6.862473E+03	8.071029E-05	1.299857E-05
6.872376E+03	8.147753E-05	1.312099E-05
6.882278E+03	8.226521E-05	1.324668E-05
6.892181E+03	8.307337E-05	1.337564E-05
6.902083E+03	8.390363E-05	1.350813E-05
6.911986E+03	8.475447E-05	1.364391E-05
6.921889E+03	8.562591E-05	1.378298E-05
6.931791E+03	8.651632E-05	1.392507E-05
6.941694E+03	8.742903E-05	1.407072E-05
6.951596E+03	8.836246E-05	1.421968E-05
6.961499E+03	8.931657E-05	1.437193E-05
6.971401E+03	9.028964E-05	1.452721E-05
6.981304E+03	9.128343E-05	1.468578E-05
6.991207E+03	9.229612E-05	1.484737E-05
7.001109E+03	9.333135E-05	1.501255E-05
7.011012E+03	9.438359E-05	1.518043E-05
7.020914E+03	9.545647E-05	1.535159E-05
7.030817E+03	9.654811E-05	1.552574E-05
7.040719E+03	9.766037E-05	1.570316E-05
7.050622E+03	9.878925E-05	1.588323E-05
7.060524E+03	9.993866E-05	1.606656E-05
7.070427E+03	1.011044E-04	1.625248E-05
7.080330E+03	1.022885E-04	1.644130E-05
7.090232E+03	1.034907E-04	1.663301E-05
7.100135E+03	1.047110E-04	1.682757E-05
7.110037E+03	1.059471E-04	1.702463E-05
7.119940E+03	1.071986E-04	1.722414E-05
7.129842E+03	1.084677E-04	1.742643E-05
7.139745E+03	1.097518E-04	1.763110E-05
7.149647E+03	1.110531E-04	1.783848E-05
7.159550E+03	1.123667E-04	1.804778E-05
7.169453E+03	1.136969E-04	1.825971E-05
7.179355E+03	1.150411E-04	1.847386E-05
7.189258E+03	1.163990E-04	1.869016E-05
7.199160E+03	1.177703E-04	1.890856E-05
7.209063E+03	1.191545E-04	1.912900E-05
7.218965E+03	1.205514E-04	1.935143E-05
7.228868E+03	1.219633E-04	1.957621E-05
7.238770E+03	1.233843E-04	1.980241E-05
7.248673E+03	1.248223E-04	2.003130E-05
7.258576E+03	1.262743E-04	2.026237E-05
7.268478E+03	1.277370E-04	2.049513E-05
7.278381E+03	1.292187E-04	2.073088E-05
7.288283E+03	1.307134E-04	2.096868E-05
7.298186E+03	1.322298E-04	2.120990E-05
7.308088E+03	1.337649E-04	2.145407E-05
7.317991E+03	1.353215E-04	2.170165E-05
7.327894E+03	1.369030E-04	2.195316E-05
7.337796E+03	1.385095E-04	2.220864E-05
7.347699E+03	1.401478E-04	2.246915E-05
7.357601E+03	1.418216E-04	2.273531E-05
7.367504E+03	1.435283E-04	2.300669E-05
7.377406E+03	1.452684E-04	2.328335E-05
7.387309E+03	1.470423E-04	2.356540E-05
7.397211E+03	1.488472E-04	2.385234E-05
7.407114E+03	1.506796E-04	2.414365E-05
7.417017E+03	1.525363E-04	2.443877E-05
7.426919E+03	1.544171E-04	2.473771E-05
7.436822E+03	1.563184E-04	2.503986E-05
7.446724E+03	1.582361E-04	2.534459E-05
7.456627E+03	1.601738E-04	2.565245E-05
7.466529E+03	1.621233E-04	2.596215E-05
7.476432E+03	1.640841E-04	2.627359E-05
7.486334E+03	1.660556E-04	2.658668E-05
7.496237E+03	1.680371E-04	2.690132E-05
7.506140E+03	1.700281E-04	2.721740E-05
7.516042E+03	1.720235E-04	2.753414E-05
7.525945E+03	1.740224E-04	2.785137E-05
7.535847E+03	1.760283E-04	2.816967E-05
7.545750E+03	1.780360E-04	2.848817E-05
7.555652E+03	1.800488E-04	2.880745E-05
7.565555E+03	1.820567E-04	2.912587E-05
7.575457E+03	1.840676E-04	2.944471E-05
7.585360E+03	1.860758E-04	2.976306E-05
7.595263E+03	1.880800E-04	3.008071E-05
7.605165E+03	1.900787E-04	3.039742E-05
7.615068E+03	1.920756E-04	3.071378E-05
7.624970E+03	1.940643E-04	3.102876E-05
7.634873E+03	1.960432E-04	3.134213E-05
7.644775E+03	1.980159E-04	3.165444E-05
7.654678E+03	1.999809E-04	3.196546E-05
7.664581E+03	2.019313E-04	3.227410E-05
7.674483E+03	2.038708E-04	3.258093E-05
7.684386E+03	2.057977E-04	3.288569E-05
