#wls	flux	fluxerr
1.584409E+03	5.233352E-03	8.222566E-04
1.624020E+03	5.409768E-03	8.494700E-04
1.663630E+03	5.585607E-03	8.765476E-04
1.703240E+03	5.760577E-03	9.034425E-04
1.742850E+03	5.932587E-03	9.298258E-04
1.782461E+03	6.100969E-03	9.555921E-04
1.822071E+03	6.263778E-03	9.804368E-04
1.861681E+03	6.419949E-03	1.004194E-03
1.901291E+03	6.567679E-03	1.026581E-03
1.940902E+03	6.705002E-03	1.047295E-03
1.980512E+03	6.828811E-03	1.065850E-03
2.020122E+03	6.936948E-03	1.081915E-03
2.059732E+03	7.026739E-03	1.095078E-03
2.099342E+03	7.094214E-03	1.104724E-03
2.138953E+03	7.135740E-03	1.110297E-03
2.178563E+03	7.146880E-03	1.111116E-03
2.218173E+03	7.123567E-03	1.106560E-03
2.257783E+03	7.064200E-03	1.096395E-03
2.297394E+03	6.968622E-03	1.080610E-03
2.337004E+03	6.840655E-03	1.059813E-03
2.376614E+03	6.683575E-03	1.034526E-03
2.416224E+03	6.500233E-03	1.005203E-03
2.455835E+03	6.293945E-03	9.723685E-04
2.495445E+03	6.067073E-03	9.363999E-04
2.535055E+03	5.821567E-03	8.976089E-04
2.574665E+03	5.560229E-03	8.564375E-04
2.614276E+03	5.284918E-03	8.131818E-04
2.653886E+03	4.998209E-03	7.682466E-04
2.693496E+03	4.702268E-03	7.219727E-04
2.733106E+03	4.400103E-03	6.748290E-04
2.772716E+03	4.094388E-03	6.272310E-04
2.812327E+03	3.788324E-03	5.796732E-04
2.851937E+03	3.485281E-03	5.326738E-04
2.891547E+03	3.188716E-03	4.867620E-04
2.931157E+03	2.902041E-03	4.424574E-04
2.970768E+03	2.628416E-03	4.002383E-04
2.980670E+03	2.562353E-03	3.900553E-04
2.990573E+03	2.497339E-03	3.800376E-04
3.000475E+03	2.433341E-03	3.701802E-04
3.010378E+03	2.370486E-03	3.605025E-04
3.020280E+03	2.308739E-03	3.509987E-04
3.030183E+03	2.248116E-03	3.416715E-04
3.040086E+03	2.188637E-03	3.325235E-04
3.049988E+03	2.130405E-03	3.235704E-04
3.059891E+03	2.073341E-03	3.147998E-04
3.069793E+03	2.017540E-03	3.062263E-04
3.079696E+03	1.962967E-03	2.978444E-04
3.089598E+03	1.909669E-03	2.896607E-04
3.099501E+03	1.857645E-03	2.816754E-04
3.109403E+03	1.806899E-03	2.738886E-04
3.119306E+03	1.757430E-03	2.663001E-04
3.129209E+03	1.709270E-03	2.589146E-04
3.139111E+03	1.662382E-03	2.517264E-04
3.149014E+03	1.616793E-03	2.447393E-04
3.158916E+03	1.572496E-03	2.379520E-04
3.168819E+03	1.529482E-03	2.313631E-04
3.178721E+03	1.487768E-03	2.249749E-04
3.188624E+03	1.447289E-03	2.187776E-04
3.198526E+03	1.408110E-03	2.127806E-04
3.208429E+03	1.370143E-03	2.069706E-04
3.218332E+03	1.333444E-03	2.013557E-04
3.228234E+03	1.297949E-03	1.959263E-04
3.238137E+03	1.263665E-03	1.906832E-04
3.248039E+03	1.230573E-03	1.856231E-04
3.257942E+03	1.198633E-03	1.807402E-04
3.267844E+03	1.167864E-03	1.760370E-04
3.277747E+03	1.138209E-03	1.715048E-04
3.287650E+03	1.109648E-03	1.671404E-04
3.297552E+03	1.082193E-03	1.629454E-04
3.307455E+03	1.055790E-03	1.589114E-04
3.317357E+03	1.030417E-03	1.550352E-04
3.327260E+03	1.006053E-03	1.513134E-04
3.337162E+03	9.826901E-04	1.477445E-04
3.347065E+03	9.602784E-04	1.443211E-04
3.356967E+03	9.387979E-04	1.410398E-04
3.366870E+03	9.182396E-04	1.378993E-04
3.376773E+03	8.985696E-04	1.348943E-04
3.386675E+03	8.797670E-04	1.320214E-04
3.396578E+03	8.617890E-04	1.292743E-04
3.406480E+03	8.446277E-04	1.266514E-04
3.416383E+03	8.282636E-04	1.241499E-04
3.426285E+03	8.126572E-04	1.217636E-04
3.436188E+03	7.977912E-04	1.194898E-04
3.446090E+03	7.836393E-04	1.173245E-04
3.455993E+03	7.701940E-04	1.152665E-04
3.465896E+03	7.574121E-04	1.133091E-04
3.475798E+03	7.452885E-04	1.114515E-04
3.485701E+03	7.337913E-04	1.096888E-04
3.495603E+03	7.228993E-04	1.080178E-04
3.505506E+03	7.125919E-04	1.064352E-04
3.515408E+03	7.028431E-04	1.049370E-04
3.525311E+03	6.936418E-04	1.035217E-04
3.535213E+03	6.849560E-04	1.021842E-04
3.545116E+03	6.767703E-04	1.009222E-04
3.555019E+03	6.690775E-04	9.973445E-05
3.564921E+03	6.618548E-04	9.861759E-05
3.574824E+03	6.550898E-04	9.756964E-05
3.584726E+03	6.487621E-04	9.658750E-05
3.594629E+03	6.428536E-04	9.566839E-05
3.604531E+03	6.373530E-04	9.481056E-05
3.614434E+03	6.322373E-04	9.401050E-05
3.624337E+03	6.275029E-04	9.326762E-05
3.634239E+03	6.231276E-04	9.257856E-05
3.644142E+03	6.191034E-04	9.194206E-05
3.654044E+03	6.154267E-04	9.135754E-05
3.663947E+03	6.120783E-04	9.082206E-05
3.673849E+03	6.090493E-04	9.033426E-05
3.683752E+03	6.063436E-04	8.989465E-05
3.693654E+03	6.039470E-04	8.950107E-05
3.703557E+03	6.018528E-04	8.915249E-05
3.713460E+03	6.000632E-04	8.884915E-05
3.723362E+03	5.985654E-04	8.858910E-05
3.733265E+03	5.973565E-04	8.837189E-05
3.743167E+03	5.964401E-04	8.819797E-05
3.753070E+03	5.958082E-04	8.806610E-05
3.762972E+03	5.954576E-04	8.797576E-05
3.772875E+03	5.953860E-04	8.792656E-05
3.782777E+03	5.955907E-04	8.791806E-05
3.792680E+03	5.960734E-04	8.795044E-05
3.802583E+03	5.968263E-04	8.802248E-05
3.812485E+03	5.978517E-04	8.813450E-05
3.822388E+03	5.991510E-04	8.828665E-05
3.832290E+03	6.007159E-04	8.847762E-05
3.842193E+03	6.025435E-04	8.870697E-05
3.852095E+03	6.046401E-04	8.897555E-05
3.861998E+03	6.070024E-04	8.928283E-05
3.871900E+03	6.096210E-04	8.962736E-05
3.881803E+03	6.125026E-04	9.001011E-05
3.891706E+03	6.156486E-04	9.043119E-05
3.901608E+03	6.190441E-04	9.088839E-05
3.911511E+03	6.226949E-04	9.138248E-05
3.921413E+03	6.266021E-04	9.191360E-05
3.931316E+03	6.307610E-04	9.248099E-05
3.941218E+03	6.351612E-04	9.308307E-05
3.951121E+03	6.398131E-04	9.372134E-05
3.961024E+03	6.447064E-04	9.439420E-05
3.970926E+03	6.498354E-04	9.510080E-05
3.980829E+03	6.552045E-04	9.584172E-05
3.990731E+03	6.608027E-04	9.661529E-05
4.000634E+03	6.666338E-04	9.742204E-05
4.010536E+03	6.726807E-04	9.825940E-05
4.020439E+03	6.789525E-04	9.912868E-05
4.030341E+03	6.854361E-04	1.000279E-04
4.040244E+03	6.921239E-04	1.009559E-04
4.050147E+03	6.990186E-04	1.019130E-04
4.060049E+03	7.061007E-04	1.028964E-04
4.069952E+03	7.133778E-04	1.039071E-04
4.079854E+03	7.208295E-04	1.049422E-04
4.089757E+03	7.284510E-04	1.060008E-04
4.099659E+03	7.362384E-04	1.070823E-04
4.109562E+03	7.441744E-04	1.081843E-04
4.119464E+03	7.522536E-04	1.093059E-04
4.129367E+03	7.604636E-04	1.104452E-04
4.139270E+03	7.687861E-04	1.115996E-04
4.149172E+03	7.772196E-04	1.127688E-04
4.159075E+03	7.857378E-04	1.139491E-04
4.168977E+03	7.943389E-04	1.151401E-04
4.178880E+03	8.029943E-04	1.163376E-04
4.188782E+03	8.116946E-04	1.175403E-04
4.198685E+03	8.204232E-04	1.187458E-04
4.208587E+03	8.291492E-04	1.199495E-04
4.218490E+03	8.378674E-04	1.211508E-04
4.228393E+03	8.465522E-04	1.223460E-04
4.238295E+03	8.551779E-04	1.235312E-04
4.248198E+03	8.637164E-04	1.247026E-04
4.258100E+03	8.721540E-04	1.258581E-04
4.268003E+03	8.804698E-04	1.269947E-04
4.277905E+03	8.886201E-04	1.281063E-04
4.287808E+03	8.965980E-04	1.291917E-04
4.297711E+03	9.043588E-04	1.302446E-04
4.307613E+03	9.118952E-04	1.312640E-04
4.317516E+03	9.191705E-04	1.322447E-04
4.327418E+03	9.261717E-04	1.331849E-04
4.337321E+03	9.328860E-04	1.340827E-04
4.347223E+03	9.393035E-04	1.349369E-04
4.357126E+03	9.454217E-04	1.357471E-04
4.367028E+03	9.512529E-04	1.365151E-04
4.376931E+03	9.568131E-04	1.372434E-04
4.386834E+03	9.621121E-04	1.379334E-04
4.396736E+03	9.671684E-04	1.385877E-04
4.406639E+03	9.719873E-04	1.392073E-04
4.416541E+03	9.765986E-04	1.397964E-04
4.426444E+03	9.810085E-04	1.403560E-04
4.436346E+03	9.852329E-04	1.408884E-04
4.446249E+03	9.892878E-04	1.413959E-04
4.456151E+03	9.931892E-04	1.418808E-04
4.466054E+03	9.969543E-04	1.423456E-04
4.475957E+03	1.000600E-03	1.427927E-04
4.485859E+03	1.004125E-03	1.432220E-04
4.495762E+03	1.007564E-03	1.436385E-04
4.505664E+03	1.010917E-03	1.440423E-04
4.515567E+03	1.014200E-03	1.444354E-04
4.525469E+03	1.017421E-03	1.448191E-04
4.535372E+03	1.020604E-03	1.451970E-04
4.545274E+03	1.023758E-03	1.455701E-04
4.555177E+03	1.026879E-03	1.459379E-04
4.565080E+03	1.030001E-03	1.463054E-04
4.574982E+03	1.033120E-03	1.466720E-04
4.584885E+03	1.036243E-03	1.470384E-04
4.594787E+03	1.039392E-03	1.474081E-04
4.604690E+03	1.042582E-03	1.477830E-04
4.614592E+03	1.045799E-03	1.481611E-04
4.624495E+03	1.049075E-03	1.485469E-04
4.634398E+03	1.052413E-03	1.489411E-04
4.644300E+03	1.055818E-03	1.493441E-04
4.654203E+03	1.059302E-03	1.497575E-04
4.664105E+03	1.062868E-03	1.501820E-04
4.674008E+03	1.066528E-03	1.506191E-04
4.683910E+03	1.070265E-03	1.510664E-04
4.693813E+03	1.074091E-03	1.515255E-04
4.703715E+03	1.078017E-03	1.519981E-04
4.713618E+03	1.082015E-03	1.524800E-04
4.723521E+03	1.086105E-03	1.529743E-04
4.733423E+03	1.090279E-03	1.534794E-04
4.743326E+03	1.094524E-03	1.539940E-04
4.753228E+03	1.098863E-03	1.545209E-04
4.763131E+03	1.103264E-03	1.550557E-04
4.773033E+03	1.107756E-03	1.556025E-04
4.782936E+03	1.112306E-03	1.561567E-04
4.792838E+03	1.116935E-03	1.567210E-04
4.802741E+03	1.121619E-03	1.572922E-04
4.812644E+03	1.126376E-03	1.578728E-04
4.822546E+03	1.131183E-03	1.584595E-04
4.832449E+03	1.136047E-03	1.590532E-04
4.842351E+03	1.140964E-03	1.596536E-04
4.852254E+03	1.145920E-03	1.602583E-04
4.862156E+03	1.150910E-03	1.608670E-04
4.872059E+03	1.155929E-03	1.614787E-04
4.881961E+03	1.160983E-03	1.620944E-04
4.891864E+03	1.166044E-03	1.627102E-04
4.901767E+03	1.171129E-03	1.633283E-04
4.911669E+03	1.176208E-03	1.639447E-04
4.921572E+03	1.181286E-03	1.645598E-04
4.931474E+03	1.186344E-03	1.651712E-04
4.941377E+03	1.191373E-03	1.657776E-04
4.951279E+03	1.196364E-03	1.663778E-04
4.961182E+03	1.201319E-03	1.669721E-04
4.971085E+03	1.206206E-03	1.675559E-04
4.980987E+03	1.211026E-03	1.681293E-04
4.990890E+03	1.215754E-03	1.686892E-04
5.000792E+03	1.220392E-03	1.692355E-04
5.010695E+03	1.224913E-03	1.697649E-04
5.020597E+03	1.229294E-03	1.702737E-04
5.030500E+03	1.233531E-03	1.707618E-04
5.040402E+03	1.237609E-03	1.712272E-04
5.050305E+03	1.241502E-03	1.716660E-04
5.060208E+03	1.245180E-03	1.720743E-04
5.070110E+03	1.248651E-03	1.724533E-04
5.080013E+03	1.251875E-03	1.727974E-04
5.089915E+03	1.254832E-03	1.731040E-04
5.099818E+03	1.257505E-03	1.733707E-04
5.109720E+03	1.259876E-03	1.735952E-04
5.119623E+03	1.261913E-03	1.737731E-04
5.129525E+03	1.263611E-03	1.739038E-04
5.139428E+03	1.264925E-03	1.739813E-04
5.149331E+03	1.265849E-03	1.740049E-04
5.159233E+03	1.266342E-03	1.739686E-04
5.169136E+03	1.266409E-03	1.738739E-04
5.179038E+03	1.266010E-03	1.737148E-04
5.188941E+03	1.265140E-03	1.734912E-04
5.198843E+03	1.263760E-03	1.731976E-04
5.208746E+03	1.261869E-03	1.728340E-04
5.218648E+03	1.259454E-03	1.723989E-04
5.228551E+03	1.256482E-03	1.718877E-04
5.238454E+03	1.252944E-03	1.712996E-04
5.248356E+03	1.248847E-03	1.706354E-04
5.258259E+03	1.244176E-03	1.698934E-04
5.268161E+03	1.238918E-03	1.690720E-04
5.278064E+03	1.233077E-03	1.681717E-04
5.287966E+03	1.226660E-03	1.671936E-04
5.297869E+03	1.219675E-03	1.661392E-04
5.307772E+03	1.212125E-03	1.650089E-04
5.317674E+03	1.204039E-03	1.638067E-04
5.327577E+03	1.195425E-03	1.625340E-04
5.337479E+03	1.186320E-03	1.611960E-04
5.347382E+03	1.176741E-03	1.597949E-04
5.357284E+03	1.166742E-03	1.583383E-04
5.367187E+03	1.156369E-03	1.568325E-04
5.377089E+03	1.145647E-03	1.552811E-04
5.386992E+03	1.134649E-03	1.536940E-04
5.396895E+03	1.123417E-03	1.520770E-04
5.406797E+03	1.111948E-03	1.504297E-04
5.416700E+03	1.100321E-03	1.487629E-04
5.426602E+03	1.088559E-03	1.470798E-04
5.436505E+03	1.076690E-03	1.453840E-04
5.446407E+03	1.064753E-03	1.436810E-04
5.456310E+03	1.052782E-03	1.419755E-04
5.466212E+03	1.040816E-03	1.402723E-04
5.476115E+03	1.028908E-03	1.385792E-04
5.486018E+03	1.017096E-03	1.369007E-04
5.495920E+03	1.005440E-03	1.352453E-04
5.505823E+03	9.939916E-04	1.336196E-04
5.515725E+03	9.827870E-04	1.320286E-04
5.525628E+03	9.718795E-04	1.304793E-04
5.535530E+03	9.613087E-04	1.289769E-04
5.545433E+03	9.511108E-04	1.275262E-04
5.555335E+03	9.413267E-04	1.261327E-04
5.565238E+03	9.319851E-04	1.248000E-04
5.575141E+03	9.231098E-04	1.235312E-04
5.585043E+03	9.147312E-04	1.223303E-04
5.594946E+03	9.068662E-04	1.211993E-04
5.604848E+03	8.995368E-04	1.201412E-04
5.614751E+03	8.927535E-04	1.191572E-04
5.624653E+03	8.865229E-04	1.182479E-04
5.634556E+03	8.808586E-04	1.174151E-04
5.644459E+03	8.757611E-04	1.166587E-04
5.654361E+03	8.712299E-04	1.159785E-04
5.664264E+03	8.672704E-04	1.153751E-04
5.674166E+03	8.638782E-04	1.148476E-04
5.684069E+03	8.610549E-04	1.143963E-04
5.693971E+03	8.587844E-04	1.140187E-04
5.703874E+03	8.570748E-04	1.137159E-04
5.713776E+03	8.559078E-04	1.134852E-04
5.723679E+03	8.552725E-04	1.133251E-04
5.733582E+03	8.551761E-04	1.132363E-04
5.743484E+03	8.555891E-04	1.132149E-04
5.753387E+03	8.565183E-04	1.132616E-04
5.763289E+03	8.579520E-04	1.133747E-04
5.773192E+03	8.598792E-04	1.135526E-04
5.783094E+03	8.622783E-04	1.137923E-04
5.792997E+03	8.651574E-04	1.140949E-04
5.802899E+03	8.684958E-04	1.144573E-04
5.812802E+03	8.722915E-04	1.148793E-04
5.822705E+03	8.765342E-04	1.153594E-04
5.832607E+03	8.812036E-04	1.158948E-04
5.842510E+03	8.862987E-04	1.164851E-04
5.852412E+03	8.918187E-04	1.171303E-04
5.862315E+03	8.977339E-04	1.178263E-04
5.872217E+03	9.040434E-04	1.185729E-04
5.882120E+03	9.107378E-04	1.193686E-04
5.892022E+03	9.178161E-04	1.202134E-04
5.901925E+03	9.252481E-04	1.211032E-04
5.911828E+03	9.330447E-04	1.220392E-04
5.921730E+03	9.411738E-04	1.230172E-04
5.931633E+03	9.496363E-04	1.240372E-04
5.941535E+03	9.584221E-04	1.250978E-04
5.951438E+03	9.675101E-04	1.261962E-04
5.961340E+03	9.769012E-04	1.273324E-04
5.971243E+03	9.865628E-04	1.285021E-04
5.981146E+03	9.965081E-04	1.297069E-04
5.991048E+03	1.006693E-03	1.309410E-04
6.000951E+03	1.017130E-03	1.322060E-04
6.010853E+03	1.027788E-03	1.334977E-04
6.020756E+03	1.038668E-03	1.348163E-04
6.030658E+03	1.049738E-03	1.361576E-04
6.040561E+03	1.060987E-03	1.375201E-04
6.050463E+03	1.072396E-03	1.389010E-04
6.060366E+03	1.083953E-03	1.402992E-04
6.070269E+03	1.095622E-03	1.417098E-04
6.080171E+03	1.107380E-03	1.431296E-04
6.090074E+03	1.119213E-03	1.445570E-04
6.099976E+03	1.131093E-03	1.459885E-04
6.109879E+03	1.142964E-03	1.474165E-04
6.119781E+03	1.154804E-03	1.488385E-04
6.129684E+03	1.166579E-03	1.502499E-04
6.139586E+03	1.178268E-03	1.516481E-04
6.149489E+03	1.189864E-03	1.530324E-04
6.159392E+03	1.201363E-03	1.544022E-04
6.169294E+03	1.212775E-03	1.557587E-04
6.179197E+03	1.224140E-03	1.571072E-04
6.189099E+03	1.235454E-03	1.584472E-04
6.199002E+03	1.246697E-03	1.597762E-04
6.208904E+03	1.257914E-03	1.610998E-04
6.218807E+03	1.269103E-03	1.624179E-04
6.228709E+03	1.280228E-03	1.637261E-04
6.238612E+03	1.291342E-03	1.650308E-04
6.248515E+03	1.302393E-03	1.663257E-04
6.258417E+03	1.313421E-03	1.676157E-04
6.268320E+03	1.324395E-03	1.688969E-04
6.278222E+03	1.335319E-03	1.701701E-04
6.288125E+03	1.346185E-03	1.714339E-04
6.298027E+03	1.356982E-03	1.726870E-04
6.307930E+03	1.367700E-03	1.739284E-04
6.317833E+03	1.378313E-03	1.751546E-04
6.327735E+03	1.388792E-03	1.763621E-04
6.337638E+03	1.399149E-03	1.775524E-04
6.347540E+03	1.409336E-03	1.787195E-04
6.357443E+03	1.419368E-03	1.798651E-04
6.367345E+03	1.429215E-03	1.809858E-04
6.377248E+03	1.438872E-03	1.820808E-04
6.387150E+03	1.448355E-03	1.831521E-04
6.397053E+03	1.457700E-03	1.842047E-04
6.406956E+03	1.466906E-03	1.852381E-04
6.416858E+03	1.475992E-03	1.862551E-04
6.426761E+03	1.484981E-03	1.872582E-04
6.436663E+03	1.493849E-03	1.882448E-04
6.446566E+03	1.502642E-03	1.892206E-04
6.456468E+03	1.511362E-03	1.901859E-04
6.466371E+03	1.519986E-03	1.911378E-04
6.476273E+03	1.528563E-03	1.920825E-04
6.486176E+03	1.537072E-03	1.930174E-04
6.496079E+03	1.545491E-03	1.939396E-04
6.505981E+03	1.553869E-03	1.948556E-04
6.515884E+03	1.562184E-03	1.957625E-04
6.525786E+03	1.570438E-03	1.966605E-04
6.535689E+03	1.578657E-03	1.975531E-04
6.545591E+03	1.586793E-03	1.984341E-04
6.555494E+03	1.594844E-03	1.993034E-04
6.565396E+03	1.602864E-03	2.001677E-04
6.575299E+03	1.610799E-03	2.010205E-04
6.585202E+03	1.618650E-03	2.018617E-04
6.595104E+03	1.626442E-03	2.026945E-04
6.605007E+03	1.634147E-03	2.035154E-04
6.614909E+03	1.641761E-03	2.043242E-04
6.624812E+03	1.649310E-03	2.051241E-04
6.634714E+03	1.656736E-03	2.059077E-04
6.644617E+03	1.664034E-03	2.066745E-04
6.654520E+03	1.671256E-03	2.074311E-04
6.664422E+03	1.678341E-03	2.081700E-04
6.674325E+03	1.685282E-03	2.088903E-04
6.684227E+03	1.692104E-03	2.095952E-04
6.694130E+03	1.698771E-03	2.102802E-04
6.704032E+03	1.705275E-03	2.109446E-04
6.713935E+03	1.711610E-03	2.115874E-04
6.723837E+03	1.717769E-03	2.122080E-04
6.733740E+03	1.723712E-03	2.128016E-04
6.743643E+03	1.729464E-03	2.133711E-04
6.753545E+03	1.735015E-03	2.139155E-04
6.763448E+03	1.740327E-03	2.144303E-04
6.773350E+03	1.745423E-03	2.149182E-04
6.783253E+03	1.750263E-03	2.153745E-04
6.793155E+03	1.754840E-03	2.157982E-04
6.803058E+03	1.759144E-03	2.161885E-04
6.812960E+03	1.763136E-03	2.165405E-04
6.822863E+03	1.766874E-03	2.168614E-04
6.832766E+03	1.770319E-03	2.171465E-04
6.842668E+03	1.773429E-03	2.173909E-04
6.852571E+03	1.776233E-03	2.175980E-04
6.862473E+03	1.778691E-03	2.177632E-04
6.872376E+03	1.780798E-03	2.178860E-04
6.882278E+03	1.782584E-03	2.179700E-04
6.892181E+03	1.784010E-03	2.180108E-04
6.902083E+03	1.785075E-03	2.180081E-04
6.911986E+03	1.785776E-03	2.179618E-04
6.921889E+03	1.786112E-03	2.178719E-04
6.931791E+03	1.786049E-03	2.177341E-04
6.941694E+03	1.785656E-03	2.175573E-04
6.951596E+03	1.784866E-03	2.173333E-04
6.961499E+03	1.783682E-03	2.170624E-04
6.971401E+03	1.782143E-03	2.167497E-04
6.981304E+03	1.780219E-03	2.163916E-04
6.991207E+03	1.777918E-03	2.159890E-04
7.001109E+03	1.775246E-03	2.155429E-04
7.011012E+03	1.772213E-03	2.150545E-04
7.020914E+03	1.768863E-03	2.145293E-04
7.030817E+03	1.765138E-03	2.139604E-04
7.040719E+03	1.761050E-03	2.133492E-04
7.050622E+03	1.756648E-03	2.127019E-04
7.060524E+03	1.751946E-03	2.120201E-04
7.070427E+03	1.746924E-03	2.113016E-04
7.080330E+03	1.741635E-03	2.105528E-04
7.090232E+03	1.736024E-03	2.097672E-04
7.100135E+03	1.730181E-03	2.089557E-04
7.110037E+03	1.724089E-03	2.081163E-04
7.119940E+03	1.717768E-03	2.072514E-04
7.129842E+03	1.711201E-03	2.063591E-04
7.139745E+03	1.704480E-03	2.054506E-04
7.149647E+03	1.697555E-03	2.045198E-04
7.159550E+03	1.690482E-03	2.035735E-04
7.169453E+03	1.683247E-03	2.026101E-04
7.179355E+03	1.675907E-03	2.016364E-04
7.189258E+03	1.668447E-03	2.006508E-04
7.199160E+03	1.660889E-03	1.996558E-04
7.209063E+03	1.653291E-03	1.986584E-04
7.218965E+03	1.645637E-03	1.976569E-04
7.228868E+03	1.637986E-03	1.966582E-04
7.238770E+03	1.630290E-03	1.956565E-04
7.248673E+03	1.622604E-03	1.946586E-04
7.258576E+03	1.614987E-03	1.936715E-04
7.268478E+03	1.607391E-03	1.926894E-04
7.278381E+03	1.599874E-03	1.917193E-04
7.288283E+03	1.592424E-03	1.907596E-04
7.298186E+03	1.585097E-03	1.898174E-04
7.308088E+03	1.577884E-03	1.888911E-04
7.317991E+03	1.570806E-03	1.879836E-04
7.327894E+03	1.563886E-03	1.870975E-04
7.337796E+03	1.557110E-03	1.862311E-04
7.347699E+03	1.550500E-03	1.853871E-04
7.357601E+03	1.544074E-03	1.845674E-04
7.367504E+03	1.537847E-03	1.837741E-04
7.377406E+03	1.531867E-03	1.830128E-04
7.387309E+03	1.526107E-03	1.822801E-04
7.397211E+03	1.520639E-03	1.815847E-04
7.407114E+03	1.515460E-03	1.809264E-04
7.417017E+03	1.510561E-03	1.803039E-04
7.426919E+03	1.505930E-03	1.797157E-04
7.436822E+03	1.501548E-03	1.791596E-04
7.446724E+03	1.497482E-03	1.786435E-04
7.456627E+03	1.493686E-03	1.781617E-04
7.466529E+03	1.490212E-03	1.777206E-04
7.476432E+03	1.487073E-03	1.773216E-04
7.486334E+03	1.484312E-03	1.769696E-04
7.496237E+03	1.481861E-03	1.766567E-04
7.506140E+03	1.479752E-03	1.763864E-04
7.516042E+03	1.477975E-03	1.761577E-04
7.525945E+03	1.476554E-03	1.759734E-04
7.535847E+03	1.475406E-03	1.758234E-04
7.545750E+03	1.474584E-03	1.757141E-04
7.555652E+03	1.474035E-03	1.756393E-04
7.565555E+03	1.473707E-03	1.755924E-04
7.575457E+03	1.473651E-03	1.755798E-04
7.585360E+03	1.473813E-03	1.755948E-04
7.595263E+03	1.474174E-03	1.756353E-04
7.605165E+03	1.474717E-03	1.756991E-04
7.615068E+03	1.475422E-03	1.757839E-04
7.624970E+03	1.476272E-03	1.758876E-04
7.634873E+03	1.477285E-03	1.760125E-04
7.644775E+03	1.478373E-03	1.761478E-04
7.654678E+03	1.479591E-03	1.763003E-04
7.664581E+03	1.480888E-03	1.764637E-04
7.674483E+03	1.482248E-03	1.766361E-04
7.684386E+03	1.483655E-03	1.768158E-04
