#wls	flux	fluxerr
1.584409E+03	6.212445E-03	2.063634E-03
1.624020E+03	6.407960E-03	2.128547E-03
1.663630E+03	6.593534E-03	2.190155E-03
1.703240E+03	6.767260E-03	2.247825E-03
1.742850E+03	6.926372E-03	2.300638E-03
1.782461E+03	7.068632E-03	2.347851E-03
1.822071E+03	7.191002E-03	2.388455E-03
1.861681E+03	7.291684E-03	2.421853E-03
1.901291E+03	7.368164E-03	2.447211E-03
1.940902E+03	7.417354E-03	2.463503E-03
1.980512E+03	7.437507E-03	2.470149E-03
2.020122E+03	7.425885E-03	2.466241E-03
2.059732E+03	7.380126E-03	2.450995E-03
2.099342E+03	7.299397E-03	2.424134E-03
2.138953E+03	7.180883E-03	2.384725E-03
2.178563E+03	7.022842E-03	2.332191E-03
2.218173E+03	6.823491E-03	2.265939E-03
2.257783E+03	6.579988E-03	2.185027E-03
2.297394E+03	6.300036E-03	2.092014E-03
2.337004E+03	5.991544E-03	1.989528E-03
2.376614E+03	5.660818E-03	1.879663E-03
2.416224E+03	5.313250E-03	1.764209E-03
2.455835E+03	4.954036E-03	1.644894E-03
2.495445E+03	4.587947E-03	1.523301E-03
2.535055E+03	4.219268E-03	1.400854E-03
2.574665E+03	3.852416E-03	1.279019E-03
2.614276E+03	3.491499E-03	1.159160E-03
2.653886E+03	3.140314E-03	1.042538E-03
2.693496E+03	2.802340E-03	9.303082E-04
2.733106E+03	2.480846E-03	8.235551E-04
2.772716E+03	2.178297E-03	7.230968E-04
2.812327E+03	1.896836E-03	6.296442E-04
2.851937E+03	1.638271E-03	5.437972E-04
2.891547E+03	1.403850E-03	4.659694E-04
2.931157E+03	1.194293E-03	3.963990E-04
2.970768E+03	1.009551E-03	3.350693E-04
2.980670E+03	9.671530E-04	3.209947E-04
2.990573E+03	9.262362E-04	3.074118E-04
3.000475E+03	8.867921E-04	2.943179E-04
3.010378E+03	8.487900E-04	2.817028E-04
3.020280E+03	8.121981E-04	2.695559E-04
3.030183E+03	7.770016E-04	2.578724E-04
3.040086E+03	7.431495E-04	2.466352E-04
3.049988E+03	7.106395E-04	2.358437E-04
3.059891E+03	6.794208E-04	2.254808E-04
3.069793E+03	6.494713E-04	2.155394E-04
3.079696E+03	6.207550E-04	2.060074E-04
3.089598E+03	5.932470E-04	1.968766E-04
3.099501E+03	5.669101E-04	1.881345E-04
3.109403E+03	5.417069E-04	1.797688E-04
3.119306E+03	5.176101E-04	1.717705E-04
3.129209E+03	4.945737E-04	1.641242E-04
3.139111E+03	4.725788E-04	1.568236E-04
3.149014E+03	4.515803E-04	1.498539E-04
3.158916E+03	4.315497E-04	1.432055E-04
3.168819E+03	4.124510E-04	1.368664E-04
3.178721E+03	3.942490E-04	1.308250E-04
3.188624E+03	3.769150E-04	1.250717E-04
3.198526E+03	3.604147E-04	1.195952E-04
3.208429E+03	3.447079E-04	1.143821E-04
3.218332E+03	3.297787E-04	1.094271E-04
3.228234E+03	3.155777E-04	1.047138E-04
3.238137E+03	3.020889E-04	1.002370E-04
3.248039E+03	2.892710E-04	9.598282E-05
3.257942E+03	2.770988E-04	9.194302E-05
3.267844E+03	2.655472E-04	8.810917E-05
3.277747E+03	2.545794E-04	8.446914E-05
3.287650E+03	2.441761E-04	8.101645E-05
3.297552E+03	2.343102E-04	7.774217E-05
3.307455E+03	2.249527E-04	7.463663E-05
3.317357E+03	2.160794E-04	7.169178E-05
3.327260E+03	2.076668E-04	6.889984E-05
3.337162E+03	1.996952E-04	6.625428E-05
3.347065E+03	1.921376E-04	6.374613E-05
3.356967E+03	1.849787E-04	6.137031E-05
3.366870E+03	1.781939E-04	5.911865E-05
3.376773E+03	1.717647E-04	5.698502E-05
3.386675E+03	1.656757E-04	5.496429E-05
3.396578E+03	1.599038E-04	5.304880E-05
3.406480E+03	1.544373E-04	5.123470E-05
3.416383E+03	1.492592E-04	4.951629E-05
3.426285E+03	1.443501E-04	4.788715E-05
3.436188E+03	1.397004E-04	4.634409E-05
3.446090E+03	1.352926E-04	4.488133E-05
3.455993E+03	1.311153E-04	4.349504E-05
3.465896E+03	1.271560E-04	4.218110E-05
3.475798E+03	1.233990E-04	4.093432E-05
3.485701E+03	1.198353E-04	3.975166E-05
3.495603E+03	1.164523E-04	3.862901E-05
3.505506E+03	1.132387E-04	3.756255E-05
3.515408E+03	1.101850E-04	3.654914E-05
3.525311E+03	1.072802E-04	3.558515E-05
3.535213E+03	1.045152E-04	3.466757E-05
3.545116E+03	1.018807E-04	3.379328E-05
3.555019E+03	9.936996E-05	3.296007E-05
3.564921E+03	9.697570E-05	3.216551E-05
3.574824E+03	9.469032E-05	3.140708E-05
3.584726E+03	9.250833E-05	3.068296E-05
3.594629E+03	9.042469E-05	2.999148E-05
3.604531E+03	8.843286E-05	2.933046E-05
3.614434E+03	8.653080E-05	2.869923E-05
3.624337E+03	8.471245E-05	2.809577E-05
3.634239E+03	8.297512E-05	2.751921E-05
3.644142E+03	8.131546E-05	2.696841E-05
3.654044E+03	7.973016E-05	2.644229E-05
3.663947E+03	7.821675E-05	2.594002E-05
3.673849E+03	7.677333E-05	2.546098E-05
3.683752E+03	7.539551E-05	2.500370E-05
3.693654E+03	7.408278E-05	2.456802E-05
3.703557E+03	7.283154E-05	2.415274E-05
3.713460E+03	7.164008E-05	2.375729E-05
3.723362E+03	7.050669E-05	2.338111E-05
3.733265E+03	6.942794E-05	2.302306E-05
3.743167E+03	6.840342E-05	2.268300E-05
3.753070E+03	6.743038E-05	2.236001E-05
3.762972E+03	6.650731E-05	2.205361E-05
3.772875E+03	6.563218E-05	2.176310E-05
3.782777E+03	6.480359E-05	2.148804E-05
3.792680E+03	6.401961E-05	2.122777E-05
3.802583E+03	6.327889E-05	2.098186E-05
3.812485E+03	6.257971E-05	2.074972E-05
3.822388E+03	6.192134E-05	2.053112E-05
3.832290E+03	6.130209E-05	2.032550E-05
3.842193E+03	6.072036E-05	2.013232E-05
3.852095E+03	6.017503E-05	1.995121E-05
3.861998E+03	5.966469E-05	1.978170E-05
3.871900E+03	5.918871E-05	1.962360E-05
3.881803E+03	5.874575E-05	1.947644E-05
3.891706E+03	5.833486E-05	1.933992E-05
3.901608E+03	5.795467E-05	1.921357E-05
3.911511E+03	5.760395E-05	1.909700E-05
3.921413E+03	5.728277E-05	1.899023E-05
3.931316E+03	5.698901E-05	1.889254E-05
3.941218E+03	5.672233E-05	1.880384E-05
3.951121E+03	5.648166E-05	1.872376E-05
3.961024E+03	5.626624E-05	1.865204E-05
3.970926E+03	5.607547E-05	1.858850E-05
3.980829E+03	5.590780E-05	1.853262E-05
3.990731E+03	5.576313E-05	1.848437E-05
4.000634E+03	5.564047E-05	1.844341E-05
4.010536E+03	5.553922E-05	1.840954E-05
4.020439E+03	5.545846E-05	1.838247E-05
4.030341E+03	5.539732E-05	1.836189E-05
4.040244E+03	5.535575E-05	1.834781E-05
4.050147E+03	5.533246E-05	1.833978E-05
4.060049E+03	5.532706E-05	1.833768E-05
4.069952E+03	5.533917E-05	1.834138E-05
4.079854E+03	5.536758E-05	1.835048E-05
4.089757E+03	5.541240E-05	1.836502E-05
4.099659E+03	5.547249E-05	1.838462E-05
4.109562E+03	5.554751E-05	1.840916E-05
4.119464E+03	5.563721E-05	1.843856E-05
4.129367E+03	5.574056E-05	1.847249E-05
4.139270E+03	5.585763E-05	1.851096E-05
4.149172E+03	5.598703E-05	1.855351E-05
4.159075E+03	5.612934E-05	1.860033E-05
4.168977E+03	5.628312E-05	1.865096E-05
4.178880E+03	5.644823E-05	1.870533E-05
4.188782E+03	5.662401E-05	1.876324E-05
4.198685E+03	5.681035E-05	1.882464E-05
4.208587E+03	5.700584E-05	1.888907E-05
4.218490E+03	5.721078E-05	1.895662E-05
4.228393E+03	5.742421E-05	1.902699E-05
4.238295E+03	5.764514E-05	1.909983E-05
4.248198E+03	5.787346E-05	1.917512E-05
4.258100E+03	5.810872E-05	1.925271E-05
4.268003E+03	5.834942E-05	1.933208E-05
4.277905E+03	5.859503E-05	1.941309E-05
4.287808E+03	5.884504E-05	1.949554E-05
4.297711E+03	5.909887E-05	1.957926E-05
4.307613E+03	5.935599E-05	1.966406E-05
4.317516E+03	5.961634E-05	1.974992E-05
4.327418E+03	5.987928E-05	1.983663E-05
4.337321E+03	6.014430E-05	1.992403E-05
4.347223E+03	6.041221E-05	2.001239E-05
4.357126E+03	6.068249E-05	2.010152E-05
4.367028E+03	6.095504E-05	2.019139E-05
4.376931E+03	6.123029E-05	2.028216E-05
4.386834E+03	6.150818E-05	2.037379E-05
4.396736E+03	6.178819E-05	2.046612E-05
4.406639E+03	6.207079E-05	2.055930E-05
4.416541E+03	6.235547E-05	2.065317E-05
4.426444E+03	6.264223E-05	2.074772E-05
4.436346E+03	6.293115E-05	2.084297E-05
4.446249E+03	6.322126E-05	2.093861E-05
4.456151E+03	6.351316E-05	2.103484E-05
4.466054E+03	6.380644E-05	2.113152E-05
4.475957E+03	6.410077E-05	2.122854E-05
4.485859E+03	6.439633E-05	2.132597E-05
4.495762E+03	6.469228E-05	2.142351E-05
4.505664E+03	6.498883E-05	2.152125E-05
4.515567E+03	6.528632E-05	2.161929E-05
4.525469E+03	6.558445E-05	2.171753E-05
4.535372E+03	6.588257E-05	2.181577E-05
4.545274E+03	6.618095E-05	2.191408E-05
4.555177E+03	6.647951E-05	2.201244E-05
4.565080E+03	6.677811E-05	2.211082E-05
4.574982E+03	6.707721E-05	2.220935E-05
4.584885E+03	6.737618E-05	2.230783E-05
4.594787E+03	6.767550E-05	2.240642E-05
4.604690E+03	6.797520E-05	2.250512E-05
4.614592E+03	6.827525E-05	2.260394E-05
4.624495E+03	6.857569E-05	2.270287E-05
4.634398E+03	6.887647E-05	2.280192E-05
4.644300E+03	6.917772E-05	2.290111E-05
4.654203E+03	6.948065E-05	2.300084E-05
4.664105E+03	6.978540E-05	2.310117E-05
4.674008E+03	7.009205E-05	2.320213E-05
4.683910E+03	7.040200E-05	2.330416E-05
4.693813E+03	7.071481E-05	2.340714E-05
4.703715E+03	7.103059E-05	2.351109E-05
4.713618E+03	7.135020E-05	2.361630E-05
4.723521E+03	7.167381E-05	2.372283E-05
4.733423E+03	7.200105E-05	2.383055E-05
4.743326E+03	7.233275E-05	2.393973E-05
4.753228E+03	7.266919E-05	2.405047E-05
4.763131E+03	7.300996E-05	2.416265E-05
4.773033E+03	7.335600E-05	2.427655E-05
4.782936E+03	7.370760E-05	2.439228E-05
4.792838E+03	7.406506E-05	2.450995E-05
4.802741E+03	7.442869E-05	2.462964E-05
4.812644E+03	7.479815E-05	2.475126E-05
4.822546E+03	7.517516E-05	2.487536E-05
4.832449E+03	7.555873E-05	2.500163E-05
4.842351E+03	7.594912E-05	2.513013E-05
4.852254E+03	7.634746E-05	2.526127E-05
4.862156E+03	7.675414E-05	2.539514E-05
4.872059E+03	7.716952E-05	2.553189E-05
4.881961E+03	7.759257E-05	2.567116E-05
4.891864E+03	7.802513E-05	2.581357E-05
4.901767E+03	7.846685E-05	2.595899E-05
4.911669E+03	7.891807E-05	2.610755E-05
4.921572E+03	7.937919E-05	2.625937E-05
4.931474E+03	7.985060E-05	2.641458E-05
4.941377E+03	8.033190E-05	2.657304E-05
4.951279E+03	8.082338E-05	2.673487E-05
4.961182E+03	8.132612E-05	2.690040E-05
4.971085E+03	8.183964E-05	2.706949E-05
4.980987E+03	8.236346E-05	2.724196E-05
4.990890E+03	8.289938E-05	2.741843E-05
5.000792E+03	8.344528E-05	2.759818E-05
5.010695E+03	8.400288E-05	2.778179E-05
5.020597E+03	8.457244E-05	2.796933E-05
5.030500E+03	8.515172E-05	2.816007E-05
5.040402E+03	8.574325E-05	2.835486E-05
5.050305E+03	8.634558E-05	2.855319E-05
5.060208E+03	8.695883E-05	2.875512E-05
5.070110E+03	8.758387E-05	2.896093E-05
5.080013E+03	8.821919E-05	2.917012E-05
5.089915E+03	8.886481E-05	2.938270E-05
5.099818E+03	8.952166E-05	2.959897E-05
5.109720E+03	9.018890E-05	2.981866E-05
5.119623E+03	9.086656E-05	3.004178E-05
5.129525E+03	9.155375E-05	3.026803E-05
5.139428E+03	9.225137E-05	3.049770E-05
5.149331E+03	9.295754E-05	3.073018E-05
5.159233E+03	9.367397E-05	3.096604E-05
5.169136E+03	9.439973E-05	3.120496E-05
5.179038E+03	9.513374E-05	3.144658E-05
5.188941E+03	9.587580E-05	3.169085E-05
5.198843E+03	9.662667E-05	3.193800E-05
5.208746E+03	9.738420E-05	3.218733E-05
5.218648E+03	9.814906E-05	3.243907E-05
5.228551E+03	9.892191E-05	3.269342E-05
5.238454E+03	9.969943E-05	3.294929E-05
5.248356E+03	1.004841E-04	3.320751E-05
5.258259E+03	1.012726E-04	3.346694E-05
5.268161E+03	1.020673E-04	3.372842E-05
5.278064E+03	1.028646E-04	3.399073E-05
5.287966E+03	1.036659E-04	3.425437E-05
5.297869E+03	1.044708E-04	3.451912E-05
5.307772E+03	1.052774E-04	3.478443E-05
5.317674E+03	1.060871E-04	3.505077E-05
5.327577E+03	1.068962E-04	3.531685E-05
5.337479E+03	1.077071E-04	3.558350E-05
5.347382E+03	1.085180E-04	3.585014E-05
5.357284E+03	1.093282E-04	3.611651E-05
5.367187E+03	1.101370E-04	3.638238E-05
5.377089E+03	1.109436E-04	3.664751E-05
5.386992E+03	1.117460E-04	3.691125E-05
5.396895E+03	1.125436E-04	3.717336E-05
5.406797E+03	1.133355E-04	3.743352E-05
5.416700E+03	1.141207E-04	3.769149E-05
5.426602E+03	1.148972E-04	3.794656E-05
5.436505E+03	1.156629E-04	3.819802E-05
5.446407E+03	1.164180E-04	3.844595E-05
5.456310E+03	1.171602E-04	3.868959E-05
5.466212E+03	1.178872E-04	3.892820E-05
5.476115E+03	1.185966E-04	3.916099E-05
5.486018E+03	1.192885E-04	3.938795E-05
5.495920E+03	1.199593E-04	3.960790E-05
5.505823E+03	1.206087E-04	3.982081E-05
5.515725E+03	1.212332E-04	4.002544E-05
5.525628E+03	1.218314E-04	4.022136E-05
5.535530E+03	1.224032E-04	4.040854E-05
5.545433E+03	1.229448E-04	4.058572E-05
5.555335E+03	1.234560E-04	4.075286E-05
5.565238E+03	1.239356E-04	4.090955E-05
5.575141E+03	1.243810E-04	4.105493E-05
5.585043E+03	1.247910E-04	4.118861E-05
5.594946E+03	1.251657E-04	4.131059E-05
5.604848E+03	1.255039E-04	4.142053E-05
5.614751E+03	1.258032E-04	4.151763E-05
5.624653E+03	1.260641E-04	4.160199E-05
5.634556E+03	1.262868E-04	4.167378E-05
5.644459E+03	1.264681E-04	4.173186E-05
5.654361E+03	1.266084E-04	4.177642E-05
5.664264E+03	1.267087E-04	4.180774E-05
5.674166E+03	1.267683E-04	4.182564E-05
5.684069E+03	1.267869E-04	4.183001E-05
5.693971E+03	1.267643E-04	4.182077E-05
5.703874E+03	1.267003E-04	4.179787E-05
5.713776E+03	1.265963E-04	4.176174E-05
5.723679E+03	1.264509E-04	4.171197E-05
5.733582E+03	1.262670E-04	4.164950E-05
5.743484E+03	1.260436E-04	4.157400E-05
5.753387E+03	1.257811E-04	4.148556E-05
5.763289E+03	1.254826E-04	4.138529E-05
5.773192E+03	1.251462E-04	4.127251E-05
5.783094E+03	1.247739E-04	4.114788E-05
5.792997E+03	1.243680E-04	4.101217E-05
5.802899E+03	1.239281E-04	4.086526E-05
5.812802E+03	1.234567E-04	4.070798E-05
5.822705E+03	1.229537E-04	4.054029E-05
5.832607E+03	1.224233E-04	4.036354E-05
5.842510E+03	1.218654E-04	4.017775E-05
5.852412E+03	1.212817E-04	3.998346E-05
5.862315E+03	1.206752E-04	3.978165E-05
5.872217E+03	1.200461E-04	3.957240E-05
5.882120E+03	1.193975E-04	3.935675E-05
5.892022E+03	1.187298E-04	3.913482E-05
5.901925E+03	1.180461E-04	3.890762E-05
5.911828E+03	1.173482E-04	3.867573E-05
5.921730E+03	1.166377E-04	3.843972E-05
5.931633E+03	1.159150E-04	3.819970E-05
5.941535E+03	1.151831E-04	3.795666E-05
5.951438E+03	1.144435E-04	3.771113E-05
5.961340E+03	1.136967E-04	3.746320E-05
5.971243E+03	1.129454E-04	3.721380E-05
5.981146E+03	1.121897E-04	3.696299E-05
5.991048E+03	1.114298E-04	3.671081E-05
6.000951E+03	1.106697E-04	3.645857E-05
6.010853E+03	1.099080E-04	3.620583E-05
6.020756E+03	1.091474E-04	3.595346E-05
6.030658E+03	1.083863E-04	3.570097E-05
6.040561E+03	1.076274E-04	3.544918E-05
6.050463E+03	1.068702E-04	3.519799E-05
6.060366E+03	1.061160E-04	3.494779E-05
6.070269E+03	1.053655E-04	3.469886E-05
6.080171E+03	1.046185E-04	3.445106E-05
6.090074E+03	1.038758E-04	3.420471E-05
6.099976E+03	1.031382E-04	3.396005E-05
6.109879E+03	1.024064E-04	3.371732E-05
6.119781E+03	1.016811E-04	3.347675E-05
6.129684E+03	1.009617E-04	3.323813E-05
6.139586E+03	1.002500E-04	3.300207E-05
6.149489E+03	9.954645E-05	3.276872E-05
6.159392E+03	9.885166E-05	3.253826E-05
6.169294E+03	9.816724E-05	3.231123E-05
6.179197E+03	9.749491E-05	3.208820E-05
6.189099E+03	9.683621E-05	3.186967E-05
6.199002E+03	9.619272E-05	3.165616E-05
6.208904E+03	9.556598E-05	3.144818E-05
6.218807E+03	9.495874E-05	3.124663E-05
6.228709E+03	9.436993E-05	3.105116E-05
6.238612E+03	9.380474E-05	3.086347E-05
6.248515E+03	9.326206E-05	3.068321E-05
6.258417E+03	9.274452E-05	3.051122E-05
6.268320E+03	9.225354E-05	3.034799E-05
6.278222E+03	9.179041E-05	3.019393E-05
6.288125E+03	9.135529E-05	3.004909E-05
6.298027E+03	9.094944E-05	2.991388E-05
6.307930E+03	9.057428E-05	2.978878E-05
6.317833E+03	9.022983E-05	2.967379E-05
6.327735E+03	8.991618E-05	2.956893E-05
6.337638E+03	8.963471E-05	2.947465E-05
6.347540E+03	8.938285E-05	2.939012E-05
6.357443E+03	8.916065E-05	2.931534E-05
6.367345E+03	8.896693E-05	2.924993E-05
6.377248E+03	8.879909E-05	2.919302E-05
6.387150E+03	8.865843E-05	2.914505E-05
6.397053E+03	8.854236E-05	2.910516E-05
6.406956E+03	8.845229E-05	2.907381E-05
6.416858E+03	8.838818E-05	2.905100E-05
6.426761E+03	8.834882E-05	2.903631E-05
6.436663E+03	8.833420E-05	2.902975E-05
6.446566E+03	8.834434E-05	2.903132E-05
6.456468E+03	8.837930E-05	2.904103E-05
6.466371E+03	8.843908E-05	2.905890E-05
6.476273E+03	8.852523E-05	2.908541E-05
6.486176E+03	8.863631E-05	2.912011E-05
6.496079E+03	8.877105E-05	2.916257E-05
6.505981E+03	8.893229E-05	2.921373E-05
6.515884E+03	8.911726E-05	2.927266E-05
6.525786E+03	8.932745E-05	2.933986E-05
6.535689E+03	8.956297E-05	2.941537E-05
6.545591E+03	8.982385E-05	2.949919E-05
6.555494E+03	9.011026E-05	2.959137E-05
6.565396E+03	9.042074E-05	2.969144E-05
6.575299E+03	9.075686E-05	2.979991E-05
6.585202E+03	9.111724E-05	2.991633E-05
6.595104E+03	9.150349E-05	3.004121E-05
6.605007E+03	9.191416E-05	3.017409E-05
6.614909E+03	9.234940E-05	3.031501E-05
6.624812E+03	9.281085E-05	3.046450E-05
6.634714E+03	9.329865E-05	3.062262E-05
6.644617E+03	9.380974E-05	3.078836E-05
6.654520E+03	9.434749E-05	3.096281E-05
6.664422E+03	9.490874E-05	3.114495E-05
6.674325E+03	9.549693E-05	3.133589E-05
6.684227E+03	9.611052E-05	3.153514E-05
6.694130E+03	9.674803E-05	3.174220E-05
6.704032E+03	9.741300E-05	3.195824E-05
6.713935E+03	9.810213E-05	3.218216E-05
6.723837E+03	9.881730E-05	3.241459E-05
6.733740E+03	9.955871E-05	3.265559E-05
6.743643E+03	1.003265E-04	3.290520E-05
6.753545E+03	1.011191E-04	3.316291E-05
6.763448E+03	1.019384E-04	3.342934E-05
6.773350E+03	1.027828E-04	3.370394E-05
6.783253E+03	1.036543E-04	3.398737E-05
6.793155E+03	1.045512E-04	3.427909E-05
6.803058E+03	1.054735E-04	3.457911E-05
6.812960E+03	1.064234E-04	3.488813E-05
6.822863E+03	1.073971E-04	3.520489E-05
6.832766E+03	1.083988E-04	3.553075E-05
6.842668E+03	1.094264E-04	3.586509E-05
6.852571E+03	1.104803E-04	3.620795E-05
6.862473E+03	1.115604E-04	3.655938E-05
6.872376E+03	1.126669E-04	3.691941E-05
6.882278E+03	1.137978E-04	3.728735E-05
6.892181E+03	1.149553E-04	3.766394E-05
6.902083E+03	1.161395E-04	3.804922E-05
6.911986E+03	1.173504E-04	3.844320E-05
6.921889E+03	1.185837E-04	3.884445E-05
6.931791E+03	1.198462E-04	3.925518E-05
6.941694E+03	1.211309E-04	3.967315E-05
6.951596E+03	1.224427E-04	4.009989E-05
6.961499E+03	1.237791E-04	4.053464E-05
6.971401E+03	1.251401E-04	4.097737E-05
6.981304E+03	1.265257E-04	4.142809E-05
6.991207E+03	1.279359E-04	4.188677E-05
7.001109E+03	1.293680E-04	4.235256E-05
7.011012E+03	1.308245E-04	4.282625E-05
7.020914E+03	1.323052E-04	4.330782E-05
7.030817E+03	1.338076E-04	4.379637E-05
7.040719E+03	1.353340E-04	4.429271E-05
7.050622E+03	1.368815E-04	4.479591E-05
7.060524E+03	1.384501E-04	4.530589E-05
7.070427E+03	1.400394E-04	4.582258E-05
7.080330E+03	1.416521E-04	4.634682E-05
7.090232E+03	1.432821E-04	4.687664E-05
7.100135E+03	1.449289E-04	4.741191E-05
7.110037E+03	1.465984E-04	4.795447E-05
7.119940E+03	1.482840E-04	4.850222E-05
7.129842E+03	1.499853E-04	4.905501E-05
7.139745E+03	1.517050E-04	4.961373E-05
7.149647E+03	1.534393E-04	5.017717E-05
7.159550E+03	1.551879E-04	5.074516E-05
7.169453E+03	1.569501E-04	5.131750E-05
7.179355E+03	1.587254E-04	5.189402E-05
7.189258E+03	1.605164E-04	5.247561E-05
7.199160E+03	1.623158E-04	5.305984E-05
7.209063E+03	1.641298E-04	5.364874E-05
7.218965E+03	1.659543E-04	5.424098E-05
7.228868E+03	1.677886E-04	5.483631E-05
7.238770E+03	1.696355E-04	5.543569E-05
7.248673E+03	1.714908E-04	5.603770E-05
7.258576E+03	1.733574E-04	5.664331E-05
7.268478E+03	1.752347E-04	5.725232E-05
7.278381E+03	1.771260E-04	5.786580E-05
7.288283E+03	1.790308E-04	5.848357E-05
7.298186E+03	1.809526E-04	5.910681E-05
7.308088E+03	1.828869E-04	5.973403E-05
7.317991E+03	1.848458E-04	6.036918E-05
7.327894E+03	1.868292E-04	6.101224E-05
7.337796E+03	1.888329E-04	6.166179E-05
7.347699E+03	1.908697E-04	6.232210E-05
7.357601E+03	1.929357E-04	6.299177E-05
7.367504E+03	1.950354E-04	6.367238E-05
7.377406E+03	1.971647E-04	6.436253E-05
7.387309E+03	1.993283E-04	6.506377E-05
7.397211E+03	2.015123E-04	6.577155E-05
7.407114E+03	2.037262E-04	6.648896E-05
7.417017E+03	2.059552E-04	6.721120E-05
7.426919E+03	2.082038E-04	6.793974E-05
7.436822E+03	2.104668E-04	6.867282E-05
7.446724E+03	2.127383E-04	6.940858E-05
7.456627E+03	2.150228E-04	7.014845E-05
7.466529E+03	2.173039E-04	7.088710E-05
7.476432E+03	2.195908E-04	7.162756E-05
7.486334E+03	2.218775E-04	7.236780E-05
7.496237E+03	2.241628E-04	7.310746E-05
7.506140E+03	2.264398E-04	7.384433E-05
7.516042E+03	2.287130E-04	7.457982E-05
7.525945E+03	2.309754E-04	7.531167E-05
7.535847E+03	2.332254E-04	7.603939E-05
7.545750E+03	2.354677E-04	7.676446E-05
7.555652E+03	2.376948E-04	7.748449E-05
7.565555E+03	2.399115E-04	7.820100E-05
7.575457E+03	2.421041E-04	7.890955E-05
7.585360E+03	2.442833E-04	7.961363E-05
7.595263E+03	2.464415E-04	8.031076E-05
7.605165E+03	2.485835E-04	8.100249E-05
7.615068E+03	2.507015E-04	8.168630E-05
7.624970E+03	2.527938E-04	8.236167E-05
7.634873E+03	2.548591E-04	8.302809E-05
7.644775E+03	2.569088E-04	8.368938E-05
7.654678E+03	2.589218E-04	8.433857E-05
7.664581E+03	2.609166E-04	8.498178E-05
7.674483E+03	2.628782E-04	8.561409E-05
7.684386E+03	2.648123E-04	8.623732E-05
