#wls	flux	fluxerr
1.584409E+03	6.181143E-03	1.972294E-03
1.624020E+03	6.359585E-03	2.029202E-03
1.663630E+03	6.525968E-03	2.082258E-03
1.703240E+03	6.678350E-03	2.130845E-03
1.742850E+03	6.813994E-03	2.174088E-03
1.782461E+03	6.930714E-03	2.211291E-03
1.822071E+03	7.025617E-03	2.241530E-03
1.861681E+03	7.097077E-03	2.264287E-03
1.901291E+03	7.142841E-03	2.278844E-03
1.940902E+03	7.160184E-03	2.284331E-03
1.980512E+03	7.147765E-03	2.280322E-03
2.020122E+03	7.103371E-03	2.266111E-03
2.059732E+03	7.025264E-03	2.241144E-03
2.099342E+03	6.913234E-03	2.205354E-03
2.138953E+03	6.765290E-03	2.158108E-03
2.178563E+03	6.580555E-03	2.099127E-03
2.218173E+03	6.358189E-03	2.028143E-03
2.257783E+03	6.096461E-03	1.944606E-03
2.297394E+03	5.803440E-03	1.851090E-03
2.337004E+03	5.487227E-03	1.750180E-03
2.376614E+03	5.154289E-03	1.643940E-03
2.416224E+03	4.810107E-03	1.534119E-03
2.455835E+03	4.459829E-03	1.422358E-03
2.495445E+03	4.108064E-03	1.310129E-03
2.535055E+03	3.758806E-03	1.198705E-03
2.574665E+03	3.416025E-03	1.089353E-03
2.614276E+03	3.083229E-03	9.831914E-04
2.653886E+03	2.763504E-03	8.812043E-04
2.693496E+03	2.459510E-03	7.842393E-04
2.733106E+03	2.173601E-03	6.930476E-04
2.772716E+03	1.907338E-03	6.081256E-04
2.812327E+03	1.661940E-03	5.298622E-04
2.851937E+03	1.438319E-03	4.585475E-04
2.891547E+03	1.236926E-03	3.943243E-04
2.931157E+03	1.057815E-03	3.372094E-04
2.970768E+03	9.004690E-04	2.870373E-04
2.980670E+03	8.644103E-04	2.755398E-04
2.990573E+03	8.296231E-04	2.644478E-04
3.000475E+03	7.960972E-04	2.537581E-04
3.010378E+03	7.638012E-04	2.434607E-04
3.020280E+03	7.327048E-04	2.335458E-04
3.030183E+03	7.027918E-04	2.240084E-04
3.040086E+03	6.740154E-04	2.148335E-04
3.049988E+03	6.463724E-04	2.060201E-04
3.059891E+03	6.198158E-04	1.975531E-04
3.069793E+03	5.943257E-04	1.894262E-04
3.079696E+03	5.698691E-04	1.816289E-04
3.089598E+03	5.464248E-04	1.741545E-04
3.099501E+03	5.239583E-04	1.669918E-04
3.109403E+03	5.024370E-04	1.601306E-04
3.119306E+03	4.818379E-04	1.535635E-04
3.129209E+03	4.621198E-04	1.472772E-04
3.139111E+03	4.432679E-04	1.412673E-04
3.149014E+03	4.252421E-04	1.355207E-04
3.158916E+03	4.080195E-04	1.300302E-04
3.168819E+03	3.915692E-04	1.247859E-04
3.178721E+03	3.758617E-04	1.197786E-04
3.188624E+03	3.608737E-04	1.150006E-04
3.198526E+03	3.465768E-04	1.104430E-04
3.208429E+03	3.329372E-04	1.060950E-04
3.218332E+03	3.199442E-04	1.019531E-04
3.228234E+03	3.075550E-04	9.800376E-05
3.238137E+03	2.957592E-04	9.424358E-05
3.248039E+03	2.845218E-04	9.066147E-05
3.257942E+03	2.738235E-04	8.725121E-05
3.267844E+03	2.636449E-04	8.400663E-05
3.277747E+03	2.539551E-04	8.091788E-05
3.287650E+03	2.447402E-04	7.798054E-05
3.297552E+03	2.359788E-04	7.518777E-05
3.307455E+03	2.276470E-04	7.253197E-05
3.317357E+03	2.197256E-04	7.000699E-05
3.327260E+03	2.121961E-04	6.760695E-05
3.337162E+03	2.050435E-04	6.532707E-05
3.347065E+03	1.982452E-04	6.316010E-05
3.356967E+03	1.917902E-04	6.110260E-05
3.366870E+03	1.856579E-04	5.914792E-05
3.376773E+03	1.798335E-04	5.729142E-05
3.386675E+03	1.743053E-04	5.552934E-05
3.396578E+03	1.690534E-04	5.385532E-05
3.406480E+03	1.640696E-04	5.226675E-05
3.416383E+03	1.593396E-04	5.075910E-05
3.426285E+03	1.548467E-04	4.932699E-05
3.436188E+03	1.505839E-04	4.796827E-05
3.446090E+03	1.465363E-04	4.667809E-05
3.455993E+03	1.426944E-04	4.545351E-05
3.465896E+03	1.390481E-04	4.429123E-05
3.475798E+03	1.355830E-04	4.318675E-05
3.485701E+03	1.322921E-04	4.213776E-05
3.495603E+03	1.291643E-04	4.114075E-05
3.505506E+03	1.261894E-04	4.019247E-05
3.515408E+03	1.233592E-04	3.929032E-05
3.525311E+03	1.206637E-04	3.843110E-05
3.535213E+03	1.180949E-04	3.761226E-05
3.545116E+03	1.156441E-04	3.683101E-05
3.555019E+03	1.133056E-04	3.608556E-05
3.564921E+03	1.110729E-04	3.537382E-05
3.574824E+03	1.089388E-04	3.469351E-05
3.584726E+03	1.068988E-04	3.404318E-05
3.594629E+03	1.049484E-04	3.342141E-05
3.604531E+03	1.030816E-04	3.282627E-05
3.614434E+03	1.012972E-04	3.225740E-05
3.624337E+03	9.958949E-05	3.171298E-05
3.634239E+03	9.795662E-05	3.119239E-05
3.644142E+03	9.639576E-05	3.069476E-05
3.654044E+03	9.490424E-05	3.021921E-05
3.663947E+03	9.348021E-05	2.976517E-05
3.673849E+03	9.212249E-05	2.933226E-05
3.683752E+03	9.082692E-05	2.891915E-05
3.693654E+03	8.959393E-05	2.852598E-05
3.703557E+03	8.842012E-05	2.815166E-05
3.713460E+03	8.730445E-05	2.779586E-05
3.723362E+03	8.624578E-05	2.745822E-05
3.733265E+03	8.524084E-05	2.713770E-05
3.743167E+03	8.428998E-05	2.683440E-05
3.753070E+03	8.339066E-05	2.654753E-05
3.762972E+03	8.254188E-05	2.627675E-05
3.772875E+03	8.174182E-05	2.602148E-05
3.782777E+03	8.098952E-05	2.578142E-05
3.792680E+03	8.028322E-05	2.555602E-05
3.802583E+03	7.962200E-05	2.534497E-05
3.812485E+03	7.900420E-05	2.514775E-05
3.822388E+03	7.842956E-05	2.496427E-05
3.832290E+03	7.789644E-05	2.479401E-05
3.842193E+03	7.740337E-05	2.463650E-05
3.852095E+03	7.694950E-05	2.449146E-05
3.861998E+03	7.653338E-05	2.435845E-05
3.871900E+03	7.615479E-05	2.423739E-05
3.881803E+03	7.581240E-05	2.412784E-05
3.891706E+03	7.550539E-05	2.402956E-05
3.901608E+03	7.523251E-05	2.394214E-05
3.911511E+03	7.499245E-05	2.386516E-05
3.921413E+03	7.478574E-05	2.379880E-05
3.931316E+03	7.460999E-05	2.374229E-05
3.941218E+03	7.446517E-05	2.369562E-05
3.951121E+03	7.435012E-05	2.365842E-05
3.961024E+03	7.426433E-05	2.363053E-05
3.970926E+03	7.420720E-05	2.361175E-05
3.980829E+03	7.417713E-05	2.360158E-05
3.990731E+03	7.417424E-05	2.360006E-05
4.000634E+03	7.419745E-05	2.360683E-05
4.010536E+03	7.424639E-05	2.362179E-05
4.020439E+03	7.432002E-05	2.364459E-05
4.030341E+03	7.441746E-05	2.367497E-05
4.040244E+03	7.453889E-05	2.371297E-05
4.050147E+03	7.468282E-05	2.375812E-05
4.060049E+03	7.484894E-05	2.381033E-05
4.069952E+03	7.503698E-05	2.386950E-05
4.079854E+03	7.524545E-05	2.393516E-05
4.089757E+03	7.547476E-05	2.400744E-05
4.099659E+03	7.572346E-05	2.408588E-05
4.109562E+03	7.599132E-05	2.417040E-05
4.119464E+03	7.627816E-05	2.426096E-05
4.129367E+03	7.658264E-05	2.435711E-05
4.139270E+03	7.690513E-05	2.445898E-05
4.149172E+03	7.724378E-05	2.456598E-05
4.159075E+03	7.759955E-05	2.467842E-05
4.168977E+03	7.797058E-05	2.479569E-05
4.178880E+03	7.835674E-05	2.491776E-05
4.188782E+03	7.875728E-05	2.504440E-05
4.198685E+03	7.917217E-05	2.517558E-05
4.208587E+03	7.959947E-05	2.531070E-05
4.218490E+03	8.003966E-05	2.544990E-05
4.228393E+03	8.049151E-05	2.559280E-05
4.238295E+03	8.095360E-05	2.573894E-05
4.248198E+03	8.142595E-05	2.588832E-05
4.258100E+03	8.190774E-05	2.604070E-05
4.268003E+03	8.239706E-05	2.619545E-05
4.277905E+03	8.289314E-05	2.635234E-05
4.287808E+03	8.339520E-05	2.651111E-05
4.297711E+03	8.390251E-05	2.667153E-05
4.307613E+03	8.441427E-05	2.683335E-05
4.317516E+03	8.493041E-05	2.699655E-05
4.327418E+03	8.545014E-05	2.716087E-05
4.337321E+03	8.597264E-05	2.732606E-05
4.347223E+03	8.649924E-05	2.749253E-05
4.357126E+03	8.702920E-05	2.766006E-05
4.367028E+03	8.756241E-05	2.782860E-05
4.376931E+03	8.809964E-05	2.799839E-05
4.386834E+03	8.864088E-05	2.816945E-05
4.396736E+03	8.918545E-05	2.834154E-05
4.406639E+03	8.973414E-05	2.851493E-05
4.416541E+03	9.028630E-05	2.868940E-05
4.426444E+03	9.084211E-05	2.886501E-05
4.436346E+03	9.140160E-05	2.904177E-05
4.446249E+03	9.196355E-05	2.921930E-05
4.456151E+03	9.252882E-05	2.939786E-05
4.466054E+03	9.309691E-05	2.957729E-05
4.475957E+03	9.366727E-05	2.975743E-05
4.485859E+03	9.424020E-05	2.993836E-05
4.495762E+03	9.481438E-05	3.011967E-05
4.505664E+03	9.539012E-05	3.030145E-05
4.515567E+03	9.596780E-05	3.048383E-05
4.525469E+03	9.654703E-05	3.066668E-05
4.535372E+03	9.712650E-05	3.084959E-05
4.545274E+03	9.770673E-05	3.103272E-05
4.555177E+03	9.828732E-05	3.121593E-05
4.565080E+03	9.886793E-05	3.139914E-05
4.574982E+03	9.944908E-05	3.158249E-05
4.584885E+03	1.000297E-04	3.176564E-05
4.594787E+03	1.006103E-04	3.194877E-05
4.604690E+03	1.011907E-04	3.213182E-05
4.614592E+03	1.017706E-04	3.231470E-05
4.624495E+03	1.023500E-04	3.249736E-05
4.634398E+03	1.029285E-04	3.267975E-05
4.644300E+03	1.035062E-04	3.286183E-05
4.654203E+03	1.040846E-04	3.304412E-05
4.664105E+03	1.046637E-04	3.322663E-05
4.674008E+03	1.052435E-04	3.340932E-05
4.683910E+03	1.058259E-04	3.359281E-05
4.693813E+03	1.064100E-04	3.377680E-05
4.703715E+03	1.069958E-04	3.396132E-05
4.713618E+03	1.075843E-04	3.414669E-05
4.723521E+03	1.081758E-04	3.433295E-05
4.733423E+03	1.087692E-04	3.451982E-05
4.743326E+03	1.093659E-04	3.470767E-05
4.753228E+03	1.099658E-04	3.489655E-05
4.763131E+03	1.105682E-04	3.508618E-05
4.773033E+03	1.111743E-04	3.527696E-05
4.782936E+03	1.117843E-04	3.546896E-05
4.792838E+03	1.123984E-04	3.566223E-05
4.802741E+03	1.130169E-04	3.585685E-05
4.812644E+03	1.136390E-04	3.605258E-05
4.822546E+03	1.142669E-04	3.625015E-05
4.832449E+03	1.148989E-04	3.644898E-05
4.842351E+03	1.155352E-04	3.664913E-05
4.852254E+03	1.161772E-04	3.685105E-05
4.862156E+03	1.168250E-04	3.705480E-05
4.872059E+03	1.174789E-04	3.726048E-05
4.881961E+03	1.181372E-04	3.746747E-05
4.891864E+03	1.188020E-04	3.767653E-05
4.901767E+03	1.194727E-04	3.788740E-05
4.911669E+03	1.201493E-04	3.810014E-05
4.921572E+03	1.208322E-04	3.831482E-05
4.931474E+03	1.215215E-04	3.853151E-05
4.941377E+03	1.222162E-04	3.874988E-05
4.951279E+03	1.229166E-04	3.897001E-05
4.961182E+03	1.236239E-04	3.919229E-05
4.971085E+03	1.243370E-04	3.941639E-05
4.980987E+03	1.250549E-04	3.964196E-05
4.990890E+03	1.257800E-04	3.986977E-05
5.000792E+03	1.265087E-04	4.009871E-05
5.010695E+03	1.272434E-04	4.032952E-05
5.020597E+03	1.279843E-04	4.056222E-05
5.030500E+03	1.287275E-04	4.079561E-05
5.040402E+03	1.294765E-04	4.103084E-05
5.050305E+03	1.302290E-04	4.126711E-05
5.060208E+03	1.309846E-04	4.150434E-05
5.070110E+03	1.317445E-04	4.174288E-05
5.080013E+03	1.325060E-04	4.198189E-05
5.089915E+03	1.332688E-04	4.222127E-05
5.099818E+03	1.340339E-04	4.246133E-05
5.109720E+03	1.347997E-04	4.270159E-05
5.119623E+03	1.355659E-04	4.294192E-05
5.129525E+03	1.363308E-04	4.318180E-05
5.139428E+03	1.370953E-04	4.342149E-05
5.149331E+03	1.378562E-04	4.366002E-05
5.159233E+03	1.386158E-04	4.389810E-05
5.169136E+03	1.393723E-04	4.413513E-05
5.179038E+03	1.401236E-04	4.437050E-05
5.188941E+03	1.408693E-04	4.460404E-05
5.198843E+03	1.416101E-04	4.483598E-05
5.208746E+03	1.423427E-04	4.506526E-05
5.218648E+03	1.430676E-04	4.529209E-05
5.228551E+03	1.437857E-04	4.551671E-05
5.238454E+03	1.444920E-04	4.573756E-05
5.248356E+03	1.451901E-04	4.595576E-05
5.258259E+03	1.458749E-04	4.616971E-05
5.268161E+03	1.465500E-04	4.638055E-05
5.278064E+03	1.472104E-04	4.658669E-05
5.287966E+03	1.478582E-04	4.678879E-05
5.297869E+03	1.484925E-04	4.698660E-05
5.307772E+03	1.491114E-04	4.717948E-05
5.317674E+03	1.497170E-04	4.736809E-05
5.327577E+03	1.503041E-04	4.755081E-05
5.337479E+03	1.508764E-04	4.772884E-05
5.347382E+03	1.514320E-04	4.790150E-05
5.357284E+03	1.519700E-04	4.806859E-05
5.367187E+03	1.524900E-04	4.822992E-05
5.377089E+03	1.529913E-04	4.838530E-05
5.386992E+03	1.534718E-04	4.853407E-05
5.396895E+03	1.539310E-04	4.867604E-05
5.406797E+03	1.543682E-04	4.881105E-05
5.416700E+03	1.547831E-04	4.893896E-05
5.426602E+03	1.551737E-04	4.905911E-05
5.436505E+03	1.555378E-04	4.917089E-05
5.446407E+03	1.558766E-04	4.927465E-05
5.456310E+03	1.561883E-04	4.936976E-05
5.466212E+03	1.564707E-04	4.945562E-05
5.476115E+03	1.567221E-04	4.953161E-05
5.486018E+03	1.569436E-04	4.959814E-05
5.495920E+03	1.571319E-04	4.965413E-05
5.505823E+03	1.572881E-04	4.969998E-05
5.515725E+03	1.574090E-04	4.973462E-05
5.525628E+03	1.574943E-04	4.975801E-05
5.535530E+03	1.575455E-04	4.977058E-05
5.545433E+03	1.575593E-04	4.977132E-05
5.555335E+03	1.575373E-04	4.976071E-05
5.565238E+03	1.574793E-04	4.973873E-05
5.575141E+03	1.573838E-04	4.970491E-05
5.585043E+03	1.572510E-04	4.965926E-05
5.594946E+03	1.570826E-04	4.960236E-05
5.604848E+03	1.568788E-04	4.953426E-05
5.614751E+03	1.566382E-04	4.945453E-05
5.624653E+03	1.563627E-04	4.936378E-05
5.634556E+03	1.560543E-04	4.926265E-05
5.644459E+03	1.557103E-04	4.915026E-05
5.654361E+03	1.553328E-04	4.902728E-05
5.664264E+03	1.549238E-04	4.889439E-05
5.674166E+03	1.544842E-04	4.875179E-05
5.684069E+03	1.540145E-04	4.859972E-05
5.693971E+03	1.535154E-04	4.843838E-05
5.703874E+03	1.529878E-04	4.826805E-05
5.713776E+03	1.524341E-04	4.808950E-05
5.723679E+03	1.518538E-04	4.790253E-05
5.733582E+03	1.512508E-04	4.770845E-05
5.743484E+03	1.506248E-04	4.750709E-05
5.753387E+03	1.499767E-04	4.729878E-05
5.763289E+03	1.493109E-04	4.708490E-05
5.773192E+03	1.486253E-04	4.686480E-05
5.783094E+03	1.479228E-04	4.663937E-05
5.792997E+03	1.472062E-04	4.640953E-05
5.802899E+03	1.464752E-04	4.617516E-05
5.812802E+03	1.457327E-04	4.593718E-05
5.822705E+03	1.449785E-04	4.569552E-05
5.832607E+03	1.442171E-04	4.545161E-05
5.842510E+03	1.434482E-04	4.520537E-05
5.852412E+03	1.426733E-04	4.495726E-05
5.862315E+03	1.418953E-04	4.470819E-05
5.872217E+03	1.411140E-04	4.445810E-05
5.882120E+03	1.403324E-04	4.420792E-05
5.892022E+03	1.395501E-04	4.395757E-05
5.901925E+03	1.387702E-04	4.370796E-05
5.911828E+03	1.379938E-04	4.345953E-05
5.921730E+03	1.372223E-04	4.321265E-05
5.931633E+03	1.364554E-04	4.296721E-05
5.941535E+03	1.356958E-04	4.272410E-05
5.951438E+03	1.349446E-04	4.248366E-05
5.961340E+03	1.342013E-04	4.224576E-05
5.971243E+03	1.334687E-04	4.201122E-05
5.981146E+03	1.327461E-04	4.177985E-05
5.991048E+03	1.320329E-04	4.155148E-05
6.000951E+03	1.313332E-04	4.132736E-05
6.010853E+03	1.306446E-04	4.110678E-05
6.020756E+03	1.299696E-04	4.089049E-05
6.030658E+03	1.293058E-04	4.067771E-05
6.040561E+03	1.286553E-04	4.046918E-05
6.050463E+03	1.280174E-04	4.026458E-05
6.060366E+03	1.273924E-04	4.006410E-05
6.070269E+03	1.267811E-04	3.986792E-05
6.080171E+03	1.261822E-04	3.967567E-05
6.090074E+03	1.255961E-04	3.948749E-05
6.099976E+03	1.250234E-04	3.930349E-05
6.109879E+03	1.244641E-04	3.912376E-05
6.119781E+03	1.239188E-04	3.894840E-05
6.129684E+03	1.233858E-04	3.877696E-05
6.139586E+03	1.228671E-04	3.861001E-05
6.149489E+03	1.223627E-04	3.844756E-05
6.159392E+03	1.218726E-04	3.828963E-05
6.169294E+03	1.213986E-04	3.813675E-05
6.179197E+03	1.209421E-04	3.798941E-05
6.189099E+03	1.205048E-04	3.784810E-05
6.199002E+03	1.200883E-04	3.771331E-05
6.208904E+03	1.196940E-04	3.758552E-05
6.218807E+03	1.193252E-04	3.746573E-05
6.228709E+03	1.189801E-04	3.735341E-05
6.238612E+03	1.186652E-04	3.725056E-05
6.248515E+03	1.183788E-04	3.715665E-05
6.258417E+03	1.181241E-04	3.707270E-05
6.268320E+03	1.179029E-04	3.699923E-05
6.278222E+03	1.177165E-04	3.693673E-05
6.288125E+03	1.175653E-04	3.688522E-05
6.298027E+03	1.174508E-04	3.684523E-05
6.307930E+03	1.173747E-04	3.681730E-05
6.317833E+03	1.173373E-04	3.680147E-05
6.327735E+03	1.173387E-04	3.679776E-05
6.337638E+03	1.173806E-04	3.680677E-05
6.347540E+03	1.174598E-04	3.682745E-05
6.357443E+03	1.175765E-04	3.685986E-05
6.367345E+03	1.177291E-04	3.690350E-05
6.377248E+03	1.179142E-04	3.695728E-05
6.387150E+03	1.181337E-04	3.702181E-05
6.397053E+03	1.183840E-04	3.709598E-05
6.406956E+03	1.186671E-04	3.718037E-05
6.416858E+03	1.189831E-04	3.727503E-05
6.426761E+03	1.193303E-04	3.737941E-05
6.436663E+03	1.197087E-04	3.749353E-05
6.446566E+03	1.201184E-04	3.761742E-05
6.456468E+03	1.205596E-04	3.775109E-05
6.466371E+03	1.210323E-04	3.789460E-05
6.476273E+03	1.215386E-04	3.804856E-05
6.486176E+03	1.220768E-04	3.821242E-05
6.496079E+03	1.226449E-04	3.838564E-05
6.505981E+03	1.232471E-04	3.856944E-05
6.515884E+03	1.238797E-04	3.876266E-05
6.525786E+03	1.245446E-04	3.896595E-05
6.535689E+03	1.252422E-04	3.917937E-05
6.545591E+03	1.259725E-04	3.940298E-05
6.555494E+03	1.267358E-04	3.963682E-05
6.565396E+03	1.275303E-04	3.988032E-05
6.575299E+03	1.283581E-04	4.013417E-05
6.585202E+03	1.292174E-04	4.039777E-05
6.595104E+03	1.301105E-04	4.067185E-05
6.605007E+03	1.310354E-04	4.095580E-05
6.614909E+03	1.319924E-04	4.124967E-05
6.624812E+03	1.329839E-04	4.155423E-05
6.634714E+03	1.340102E-04	4.186955E-05
6.644617E+03	1.350669E-04	4.219428E-05
6.654520E+03	1.361589E-04	4.252993E-05
6.664422E+03	1.372818E-04	4.287509E-05
6.674325E+03	1.384404E-04	4.323131E-05
6.684227E+03	1.396327E-04	4.359794E-05
6.694130E+03	1.408565E-04	4.397427E-05
6.704032E+03	1.421169E-04	4.436193E-05
6.713935E+03	1.434092E-04	4.475942E-05
6.723837E+03	1.447362E-04	4.516759E-05
6.733740E+03	1.460982E-04	4.558654E-05
6.743643E+03	1.474953E-04	4.601633E-05
6.753545E+03	1.489253E-04	4.645623E-05
6.763448E+03	1.503910E-04	4.690712E-05
6.773350E+03	1.518899E-04	4.736825E-05
6.783253E+03	1.534251E-04	4.784053E-05
6.793155E+03	1.549940E-04	4.832317E-05
6.803058E+03	1.565968E-04	4.881620E-05
6.812960E+03	1.582366E-04	4.932061E-05
6.822863E+03	1.599077E-04	4.983463E-05
6.832766E+03	1.616163E-04	5.036015E-05
6.842668E+03	1.633595E-04	5.089631E-05
6.852571E+03	1.651377E-04	5.144316E-05
6.862473E+03	1.669508E-04	5.200073E-05
6.872376E+03	1.687992E-04	5.256909E-05
6.882278E+03	1.706796E-04	5.314726E-05
6.892181E+03	1.725955E-04	5.373628E-05
6.902083E+03	1.745470E-04	5.433617E-05
6.911986E+03	1.765341E-04	5.494698E-05
6.921889E+03	1.785502E-04	5.556660E-05
6.931791E+03	1.806056E-04	5.619824E-05
6.941694E+03	1.826898E-04	5.683866E-05
6.951596E+03	1.848099E-04	5.749001E-05
6.961499E+03	1.869623E-04	5.815121E-05
6.971401E+03	1.891470E-04	5.882222E-05
6.981304E+03	1.913637E-04	5.950300E-05
6.991207E+03	1.936125E-04	6.019350E-05
7.001109E+03	1.958893E-04	6.089248E-05
7.011012E+03	1.981977E-04	6.160107E-05
7.020914E+03	2.005376E-04	6.231920E-05
7.030817E+03	2.029047E-04	6.304554E-05
7.040719E+03	2.053027E-04	6.378126E-05
7.050622E+03	2.077273E-04	6.452498E-05
7.060524E+03	2.101780E-04	6.527657E-05
7.070427E+03	2.126543E-04	6.603586E-05
7.080330E+03	2.151601E-04	6.680407E-05
7.090232E+03	2.176862E-04	6.757833E-05
7.100135E+03	2.202320E-04	6.835840E-05
7.110037E+03	2.228057E-04	6.914691E-05
7.119940E+03	2.253976E-04	6.994081E-05
7.129842E+03	2.280070E-04	7.073984E-05
7.139745E+03	2.306377E-04	7.154525E-05
7.149647E+03	2.332842E-04	7.235528E-05
7.159550E+03	2.359456E-04	7.316964E-05
7.169453E+03	2.386208E-04	7.398803E-05
7.179355E+03	2.413089E-04	7.481013E-05
7.189258E+03	2.440141E-04	7.563726E-05
7.199160E+03	2.467249E-04	7.646583E-05
7.209063E+03	2.494507E-04	7.729881E-05
7.218965E+03	2.521853E-04	7.813420E-05
7.228868E+03	2.549274E-04	7.897164E-05
7.238770E+03	2.576815E-04	7.981253E-05
7.248673E+03	2.604409E-04	8.065477E-05
7.258576E+03	2.632102E-04	8.149980E-05
7.268478E+03	2.659884E-04	8.234730E-05
7.278381E+03	2.687805E-04	8.319881E-05
7.288283E+03	2.715858E-04	8.405411E-05
7.298186E+03	2.744096E-04	8.491485E-05
7.308088E+03	2.772451E-04	8.577894E-05
7.317991E+03	2.801108E-04	8.665206E-05
7.327894E+03	2.830065E-04	8.753420E-05
7.337796E+03	2.859259E-04	8.842334E-05
7.347699E+03	2.888887E-04	8.932561E-05
7.357601E+03	2.918888E-04	9.023909E-05
7.367504E+03	2.949333E-04	9.116602E-05
7.377406E+03	2.980159E-04	9.210442E-05
7.387309E+03	3.011441E-04	9.305658E-05
7.397211E+03	3.042970E-04	9.401605E-05
7.407114E+03	3.074888E-04	9.498724E-05
7.417017E+03	3.106978E-04	9.596340E-05
7.426919E+03	3.139308E-04	9.694665E-05
7.436822E+03	3.171800E-04	9.793458E-05
7.446724E+03	3.204370E-04	9.892460E-05
7.456627E+03	3.237087E-04	9.991882E-05
7.466529E+03	3.269706E-04	1.009097E-04
7.476432E+03	3.302371E-04	1.019017E-04
7.486334E+03	3.334991E-04	1.028919E-04
7.496237E+03	3.367551E-04	1.038800E-04
7.506140E+03	3.399952E-04	1.048629E-04
7.516042E+03	3.432262E-04	1.058426E-04
7.525945E+03	3.464378E-04	1.068161E-04
7.535847E+03	3.496280E-04	1.077826E-04
7.545750E+03	3.528038E-04	1.087444E-04
7.555652E+03	3.559544E-04	1.096981E-04
7.565555E+03	3.590869E-04	1.106459E-04
7.575457E+03	3.621805E-04	1.115815E-04
7.585360E+03	3.652519E-04	1.125099E-04
7.595263E+03	3.682896E-04	1.134276E-04
7.605165E+03	3.713008E-04	1.143369E-04
7.615068E+03	3.742737E-04	1.152341E-04
7.624970E+03	3.772054E-04	1.161184E-04
7.634873E+03	3.800945E-04	1.169892E-04
7.644775E+03	3.829574E-04	1.178518E-04
7.654678E+03	3.857623E-04	1.186962E-04
7.664581E+03	3.885372E-04	1.195312E-04
7.674483E+03	3.912595E-04	1.203497E-04
7.684386E+03	3.939366E-04	1.211541E-04
