#wls	flux	fluxerr
1.584409E+03	2.336852E-03	5.045001E-04
1.624020E+03	2.416889E-03	5.205737E-04
1.663630E+03	2.494904E-03	5.361330E-04
1.703240E+03	2.569780E-03	5.509417E-04
1.742850E+03	2.641313E-03	5.649608E-04
1.782461E+03	2.708384E-03	5.778576E-04
1.822071E+03	2.770020E-03	5.895259E-04
1.861681E+03	2.825800E-03	5.998855E-04
1.901291E+03	2.874311E-03	6.086464E-04
1.940902E+03	2.915005E-03	6.155931E-04
1.980512E+03	2.946535E-03	6.205634E-04
2.020122E+03	2.968193E-03	6.234243E-04
2.059732E+03	2.978506E-03	6.238846E-04
2.099342E+03	2.976585E-03	6.216594E-04
2.138953E+03	2.961167E-03	6.166265E-04
2.178563E+03	2.930614E-03	6.084703E-04
2.218173E+03	2.883646E-03	5.969537E-04
2.257783E+03	2.820406E-03	5.820206E-04
2.297394E+03	2.741647E-03	5.639782E-04
2.337004E+03	2.650069E-03	5.434101E-04
2.376614E+03	2.547913E-03	5.208002E-04
2.416224E+03	2.437357E-03	4.965093E-04
2.455835E+03	2.320254E-03	4.710432E-04
2.495445E+03	2.197914E-03	4.446807E-04
2.535055E+03	2.071836E-03	4.177347E-04
2.574665E+03	1.943481E-03	3.904227E-04
2.614276E+03	1.814009E-03	3.630767E-04
2.653886E+03	1.684542E-03	3.359230E-04
2.693496E+03	1.556218E-03	3.091873E-04
2.733106E+03	1.430244E-03	2.830437E-04
2.772716E+03	1.307461E-03	2.577257E-04
2.812327E+03	1.188821E-03	2.334131E-04
2.851937E+03	1.075251E-03	2.102771E-04
2.891547E+03	9.676657E-04	1.884455E-04
2.931157E+03	8.666638E-04	1.680670E-04
2.970768E+03	7.727677E-04	1.492262E-04
2.980670E+03	7.504647E-04	1.447659E-04
2.990573E+03	7.286216E-04	1.403992E-04
3.000475E+03	7.072591E-04	1.361341E-04
3.010378E+03	6.863585E-04	1.319669E-04
3.020280E+03	6.659324E-04	1.278996E-04
3.030183E+03	6.459954E-04	1.239330E-04
3.040086E+03	6.265111E-04	1.200616E-04
3.049988E+03	6.075146E-04	1.162919E-04
3.059891E+03	5.889748E-04	1.126176E-04
3.069793E+03	5.709148E-04	1.090414E-04
3.079696E+03	5.533122E-04	1.055601E-04
3.089598E+03	5.361609E-04	1.021725E-04
3.099501E+03	5.194763E-04	9.888115E-05
3.109403E+03	5.032409E-04	9.568102E-05
3.119306E+03	4.874781E-04	9.257773E-05
3.129209E+03	4.721578E-04	8.956526E-05
3.139111E+03	4.573040E-04	8.664788E-05
3.149014E+03	4.428987E-04	8.382071E-05
3.158916E+03	4.289502E-04	8.108622E-05
3.168819E+03	4.154443E-04	7.844148E-05
3.178721E+03	4.023821E-04	7.588639E-05
3.188624E+03	3.897596E-04	7.341886E-05
3.198526E+03	3.775693E-04	7.103829E-05
3.208429E+03	3.658007E-04	6.874243E-05
3.218332E+03	3.544608E-04	6.653228E-05
3.228234E+03	3.435401E-04	6.440491E-05
3.238137E+03	3.330342E-04	6.236013E-05
3.248039E+03	3.229297E-04	6.039518E-05
3.257942E+03	3.132184E-04	5.850825E-05
3.267844E+03	3.038986E-04	5.669796E-05
3.277747E+03	2.949538E-04	5.496181E-05
3.287650E+03	2.863782E-04	5.329846E-05
3.297552E+03	2.781616E-04	5.170577E-05
3.307455E+03	2.702887E-04	5.017993E-05
3.317357E+03	2.627545E-04	4.872055E-05
3.327260E+03	2.555454E-04	4.732487E-05
3.337162E+03	2.486514E-04	4.599080E-05
3.347065E+03	2.420649E-04	4.471609E-05
3.356967E+03	2.357678E-04	4.349786E-05
3.366870E+03	2.297567E-04	4.233527E-05
3.376773E+03	2.240197E-04	4.122592E-05
3.386675E+03	2.185463E-04	4.016717E-05
3.396578E+03	2.133258E-04	3.915743E-05
3.406480E+03	2.083499E-04	3.819497E-05
3.416383E+03	2.036047E-04	3.727712E-05
3.426285E+03	1.990869E-04	3.640259E-05
3.436188E+03	1.947826E-04	3.556920E-05
3.446090E+03	1.906843E-04	3.477545E-05
3.455993E+03	1.867836E-04	3.401963E-05
3.465896E+03	1.830738E-04	3.329994E-05
3.475798E+03	1.795453E-04	3.261498E-05
3.485701E+03	1.761908E-04	3.196330E-05
3.495603E+03	1.730016E-04	3.134317E-05
3.505506E+03	1.699710E-04	3.075288E-05
3.515408E+03	1.670916E-04	3.019138E-05
3.525311E+03	1.643562E-04	2.965725E-05
3.535213E+03	1.617593E-04	2.914944E-05
3.545116E+03	1.592945E-04	2.866628E-05
3.555019E+03	1.569557E-04	2.820696E-05
3.564921E+03	1.547369E-04	2.777033E-05
3.574824E+03	1.526356E-04	2.735587E-05
3.584726E+03	1.506465E-04	2.696217E-05
3.594629E+03	1.487644E-04	2.658858E-05
3.604531E+03	1.469818E-04	2.623368E-05
3.614434E+03	1.452956E-04	2.589684E-05
3.624337E+03	1.437031E-04	2.557721E-05
3.634239E+03	1.421988E-04	2.527405E-05
3.644142E+03	1.407804E-04	2.498688E-05
3.654044E+03	1.394453E-04	2.471520E-05
3.663947E+03	1.381914E-04	2.445826E-05
3.673849E+03	1.370163E-04	2.421587E-05
3.683752E+03	1.359164E-04	2.398735E-05
3.693654E+03	1.348920E-04	2.377269E-05
3.703557E+03	1.339420E-04	2.357137E-05
3.713460E+03	1.330628E-04	2.338297E-05
3.723362E+03	1.322532E-04	2.320724E-05
3.733265E+03	1.315133E-04	2.304413E-05
3.743167E+03	1.308420E-04	2.289314E-05
3.753070E+03	1.302380E-04	2.275424E-05
3.762972E+03	1.296989E-04	2.262699E-05
3.772875E+03	1.292238E-04	2.251117E-05
3.782777E+03	1.288141E-04	2.240671E-05
3.792680E+03	1.284685E-04	2.231360E-05
3.802583E+03	1.281850E-04	2.223144E-05
3.812485E+03	1.279648E-04	2.216040E-05
3.822388E+03	1.278063E-04	2.209989E-05
3.832290E+03	1.277102E-04	2.205027E-05
3.842193E+03	1.276738E-04	2.201096E-05
3.852095E+03	1.276989E-04	2.198229E-05
3.861998E+03	1.277851E-04	2.196388E-05
3.871900E+03	1.279310E-04	2.195567E-05
3.881803E+03	1.281355E-04	2.195742E-05
3.891706E+03	1.283986E-04	2.196910E-05
3.901608E+03	1.287206E-04	2.199049E-05
3.911511E+03	1.291012E-04	2.202171E-05
3.921413E+03	1.295381E-04	2.206233E-05
3.931316E+03	1.300314E-04	2.211232E-05
3.941218E+03	1.305816E-04	2.217150E-05
3.951121E+03	1.311881E-04	2.223993E-05
3.961024E+03	1.318497E-04	2.231739E-05
3.970926E+03	1.325654E-04	2.240364E-05
3.980829E+03	1.333356E-04	2.249852E-05
3.990731E+03	1.341597E-04	2.260206E-05
4.000634E+03	1.350356E-04	2.271388E-05
4.010536E+03	1.359641E-04	2.283410E-05
4.020439E+03	1.369450E-04	2.296241E-05
4.030341E+03	1.379766E-04	2.309870E-05
4.040244E+03	1.390591E-04	2.324294E-05
4.050147E+03	1.401915E-04	2.339494E-05
4.060049E+03	1.413747E-04	2.355463E-05
4.069952E+03	1.426061E-04	2.372170E-05
4.079854E+03	1.438870E-04	2.389635E-05
4.089757E+03	1.452155E-04	2.407820E-05
4.099659E+03	1.465936E-04	2.426739E-05
4.109562E+03	1.480175E-04	2.446340E-05
4.119464E+03	1.494873E-04	2.466625E-05
4.129367E+03	1.510035E-04	2.487594E-05
4.139270E+03	1.525658E-04	2.509225E-05
4.149172E+03	1.541727E-04	2.531504E-05
4.159075E+03	1.558221E-04	2.554395E-05
4.168977E+03	1.575144E-04	2.577899E-05
4.178880E+03	1.592495E-04	2.601996E-05
4.188782E+03	1.610258E-04	2.626673E-05
4.198685E+03	1.628411E-04	2.651888E-05
4.208587E+03	1.646944E-04	2.677626E-05
4.218490E+03	1.665860E-04	2.703870E-05
4.228393E+03	1.685138E-04	2.730600E-05
4.238295E+03	1.704757E-04	2.757777E-05
4.248198E+03	1.724705E-04	2.785381E-05
4.258100E+03	1.744982E-04	2.813393E-05
4.268003E+03	1.765537E-04	2.841745E-05
4.277905E+03	1.786356E-04	2.870411E-05
4.287808E+03	1.807425E-04	2.899366E-05
4.297711E+03	1.828738E-04	2.928585E-05
4.307613E+03	1.850250E-04	2.958009E-05
4.317516E+03	1.871928E-04	2.987579E-05
4.327418E+03	1.893763E-04	3.017286E-05
4.337321E+03	1.915764E-04	3.047127E-05
4.347223E+03	1.937926E-04	3.077106E-05
4.357126E+03	1.960227E-04	3.107186E-05
4.367028E+03	1.982676E-04	3.137380E-05
4.376931E+03	2.005294E-04	3.167711E-05
4.386834E+03	2.028078E-04	3.198183E-05
4.396736E+03	2.051009E-04	3.228762E-05
4.406639E+03	2.074081E-04	3.259440E-05
4.416541E+03	2.097340E-04	3.290281E-05
4.426444E+03	2.120754E-04	3.321240E-05
4.436346E+03	2.144322E-04	3.352314E-05
4.446249E+03	2.168024E-04	3.383469E-05
4.456151E+03	2.191914E-04	3.414786E-05
4.466054E+03	2.215935E-04	3.446178E-05
4.475957E+03	2.240091E-04	3.477651E-05
4.485859E+03	2.264374E-04	3.509191E-05
4.495762E+03	2.288783E-04	3.540790E-05
4.505664E+03	2.313299E-04	3.572425E-05
4.515567E+03	2.337907E-04	3.604069E-05
4.525469E+03	2.362602E-04	3.635716E-05
4.535372E+03	2.387377E-04	3.667348E-05
4.545274E+03	2.412229E-04	3.698964E-05
4.555177E+03	2.437115E-04	3.730500E-05
4.565080E+03	2.462064E-04	3.761998E-05
4.574982E+03	2.487067E-04	3.793437E-05
4.584885E+03	2.512103E-04	3.824793E-05
4.594787E+03	2.537163E-04	3.856052E-05
4.604690E+03	2.562281E-04	3.887265E-05
4.614592E+03	2.587445E-04	3.918403E-05
4.624495E+03	2.612676E-04	3.949508E-05
4.634398E+03	2.637970E-04	3.980574E-05
4.644300E+03	2.663319E-04	4.011587E-05
4.654203E+03	2.688787E-04	4.042633E-05
4.664105E+03	2.714327E-04	4.073651E-05
4.674008E+03	2.739966E-04	4.104680E-05
4.683910E+03	2.765675E-04	4.135677E-05
4.693813E+03	2.791493E-04	4.166689E-05
4.703715E+03	2.817368E-04	4.197645E-05
4.713618E+03	2.843330E-04	4.228594E-05
4.723521E+03	2.869361E-04	4.259505E-05
4.733423E+03	2.895493E-04	4.290415E-05
4.743326E+03	2.921701E-04	4.321296E-05
4.753228E+03	2.947991E-04	4.352158E-05
4.763131E+03	2.974362E-04	4.383000E-05
4.773033E+03	3.000814E-04	4.413804E-05
4.782936E+03	3.027350E-04	4.444591E-05
4.792838E+03	3.053941E-04	4.475316E-05
4.802741E+03	3.080621E-04	4.506029E-05
4.812644E+03	3.107375E-04	4.536690E-05
4.822546E+03	3.134191E-04	4.567298E-05
4.832449E+03	3.161069E-04	4.597852E-05
4.842351E+03	3.188048E-04	4.628410E-05
4.852254E+03	3.215051E-04	4.658835E-05
4.862156E+03	3.242162E-04	4.689272E-05
4.872059E+03	3.269355E-04	4.719682E-05
4.881961E+03	3.296599E-04	4.750021E-05
4.891864E+03	3.323902E-04	4.780271E-05
4.901767E+03	3.351281E-04	4.810484E-05
4.911669E+03	3.378697E-04	4.840603E-05
4.921572E+03	3.406173E-04	4.870659E-05
4.931474E+03	3.433601E-04	4.900471E-05
4.941377E+03	3.461064E-04	4.930183E-05
4.951279E+03	3.488511E-04	4.959725E-05
4.961182E+03	3.515886E-04	4.989017E-05
4.971085E+03	3.543163E-04	5.017988E-05
4.980987E+03	3.570319E-04	5.046642E-05
4.990890E+03	3.597327E-04	5.074939E-05
5.000792E+03	3.624157E-04	5.102840E-05
5.010695E+03	3.650727E-04	5.130192E-05
5.020597E+03	3.677008E-04	5.156994E-05
5.030500E+03	3.702995E-04	5.183242E-05
5.040402E+03	3.728596E-04	5.208813E-05
5.050305E+03	3.753716E-04	5.233528E-05
5.060208E+03	3.778308E-04	5.257374E-05
5.070110E+03	3.802362E-04	5.280339E-05
5.080013E+03	3.825751E-04	5.302253E-05
5.089915E+03	3.848444E-04	5.323028E-05
5.099818E+03	3.870383E-04	5.342641E-05
5.109720E+03	3.891563E-04	5.361089E-05
5.119623E+03	3.911906E-04	5.378271E-05
5.129525E+03	3.931266E-04	5.393943E-05
5.139428E+03	3.949699E-04	5.408241E-05
5.149331E+03	3.967123E-04	5.421060E-05
5.159233E+03	3.983491E-04	5.432345E-05
5.169136E+03	3.998690E-04	5.441895E-05
5.179038E+03	4.012702E-04	5.449752E-05
5.188941E+03	4.025477E-04	5.455857E-05
5.198843E+03	4.036927E-04	5.460100E-05
5.208746E+03	4.046961E-04	5.462315E-05
5.218648E+03	4.055562E-04	5.462545E-05
5.228551E+03	4.062672E-04	5.460726E-05
5.238454E+03	4.068233E-04	5.456792E-05
5.248356E+03	4.072063E-04	5.450454E-05
5.258259E+03	4.074184E-04	5.441814E-05
5.268161E+03	4.074544E-04	5.430817E-05
5.278064E+03	4.073083E-04	5.417400E-05
5.285615E+03	8.859022E-05	1.176385E-05
5.286407E+03	9.507122E-05	1.262232E-05
5.286803E+03	9.823425E-05	1.304115E-05
5.287001E+03	9.974122E-05	1.324065E-05
5.287199E+03	1.012489E-04	1.344022E-05
5.287398E+03	1.027566E-04	1.363978E-05
5.287992E+03	1.075307E-04	1.427166E-05
5.288190E+03	1.090071E-04	1.446700E-05
5.288586E+03	1.121238E-04	1.487936E-05
5.289775E+03	1.218258E-04	1.616273E-05
5.290963E+03	1.315086E-04	1.744289E-05
5.292746E+03	1.460814E-04	1.936834E-05
5.293539E+03	1.524050E-04	2.020333E-05
5.293935E+03	1.554452E-04	2.060459E-05
5.294529E+03	1.601370E-04	2.122377E-05
5.294925E+03	1.631576E-04	2.162227E-05
5.295321E+03	1.661730E-04	2.201999E-05
5.295519E+03	1.675456E-04	2.220093E-05
5.296112E+03	1.721659E-04	2.281024E-05
5.296310E+03	1.735131E-04	2.298775E-05
5.296509E+03	1.748643E-04	2.316577E-05
5.296707E+03	1.761857E-04	2.333983E-05
5.296904E+03	1.775013E-04	2.351310E-05
5.297499E+03	1.820622E-04	2.411419E-05
5.298094E+03	1.866196E-04	2.471465E-05
5.298688E+03	1.911666E-04	2.531357E-05
5.299678E+03	1.989360E-04	2.633674E-05
5.299876E+03	2.001930E-04	2.650202E-05
5.300074E+03	2.014219E-04	2.666357E-05
5.300272E+03	2.026389E-04	2.682352E-05
5.301263E+03	2.103276E-04	2.783533E-05
5.301659E+03	2.131281E-04	2.820354E-05
5.301857E+03	2.143154E-04	2.835944E-05
5.302055E+03	2.154883E-04	2.851343E-05
5.302253E+03	2.166417E-04	2.866483E-05
5.302649E+03	2.194015E-04	2.902750E-05
5.302847E+03	2.205451E-04	2.917755E-05
5.303046E+03	2.216876E-04	2.932744E-05
5.303244E+03	2.228278E-04	2.947701E-05
5.304036E+03	2.287374E-04	3.025359E-05
5.304432E+03	2.314085E-04	3.060426E-05
5.304828E+03	2.340664E-04	3.095312E-05
5.305027E+03	2.351340E-04	3.109297E-05
5.305621E+03	2.393543E-04	3.164697E-05
5.305819E+03	2.403858E-04	3.178200E-05
5.306017E+03	2.414016E-04	3.191494E-05
5.306413E+03	2.439826E-04	3.225340E-05
5.306809E+03	2.465629E-04	3.259170E-05
5.307403E+03	2.507003E-04	3.313435E-05
5.307601E+03	2.516754E-04	3.326180E-05
5.307799E+03	2.526212E-04	3.338537E-05
5.308194E+03	2.551165E-04	3.371225E-05
5.308791E+03	2.591816E-04	3.424501E-05
5.309384E+03	2.632350E-04	3.477611E-05
5.309780E+03	2.656917E-04	3.509766E-05
5.309978E+03	2.665404E-04	3.520826E-05
5.310176E+03	2.673809E-04	3.531777E-05
5.310374E+03	2.682577E-04	3.543206E-05
5.310572E+03	2.690788E-04	3.553900E-05
5.312156E+03	2.806807E-04	3.705860E-05
5.312354E+03	2.814561E-04	3.715939E-05
5.312552E+03	2.822198E-04	3.725862E-05
5.312751E+03	2.830003E-04	3.736005E-05
5.313345E+03	2.868167E-04	3.785900E-05
5.313742E+03	2.890640E-04	3.815235E-05
5.313940E+03	2.897592E-04	3.824247E-05
5.314138E+03	2.904634E-04	3.833375E-05
5.315128E+03	2.972401E-04	3.921969E-05
5.315524E+03	2.993962E-04	3.950078E-05
5.315920E+03	3.015446E-04	3.978081E-05
5.316118E+03	3.021929E-04	3.986462E-05
5.316713E+03	3.057973E-04	4.033490E-05
5.317109E+03	3.078634E-04	4.060393E-05
5.317307E+03	3.084101E-04	4.067428E-05
5.317505E+03	3.089474E-04	4.074340E-05
5.318099E+03	3.124469E-04	4.119959E-05
5.318297E+03	3.129660E-04	4.126627E-05
5.319486E+03	3.209176E-04	4.230380E-05
5.319684E+03	3.213796E-04	4.236287E-05
5.319882E+03	3.218320E-04	4.242069E-05
5.320080E+03	3.222750E-04	4.247725E-05
5.320278E+03	3.227229E-04	4.253445E-05
5.320873E+03	3.260438E-04	4.296659E-05
5.321071E+03	3.264116E-04	4.301321E-05
5.321269E+03	3.267699E-04	4.305857E-05
5.321466E+03	3.271431E-04	4.310590E-05
5.321664E+03	3.274850E-04	4.314910E-05
5.321862E+03	3.278071E-04	4.318968E-05
5.322852E+03	3.338853E-04	4.398103E-05
5.323050E+03	3.341836E-04	4.401842E-05
5.323644E+03	3.373457E-04	4.442920E-05
5.323842E+03	3.376033E-04	4.446120E-05
5.324636E+03	3.421270E-04	4.504918E-05
5.325824E+03	3.494900E-04	4.600680E-05
5.326418E+03	3.524980E-04	4.639677E-05
5.326616E+03	3.526370E-04	4.641306E-05
5.327804E+03	3.598226E-04	4.734656E-05
5.328002E+03	3.599097E-04	4.735597E-05
5.328597E+03	3.627935E-04	4.772924E-05
5.328795E+03	3.628249E-04	4.773131E-05
5.328993E+03	3.628451E-04	4.773191E-05
5.329191E+03	3.628716E-04	4.773334E-05
5.329390E+03	3.628699E-04	4.773104E-05
5.330578E+03	3.697977E-04	4.862971E-05
5.330776E+03	3.697408E-04	4.862012E-05
5.331370E+03	3.724378E-04	4.896844E-05
5.331568E+03	3.723270E-04	4.895175E-05
5.331964E+03	3.736139E-04	4.911671E-05
5.332163E+03	3.735148E-04	4.910155E-05
5.332558E+03	3.747314E-04	4.925724E-05
5.332955E+03	3.759268E-04	4.941009E-05
5.333153E+03	3.757485E-04	4.938452E-05
5.333548E+03	3.768919E-04	4.953053E-05
5.333746E+03	3.766487E-04	4.949642E-05
5.333944E+03	3.764067E-04	4.946249E-05
5.334142E+03	3.761812E-04	4.943071E-05
5.334340E+03	3.759040E-04	4.939216E-05
5.334538E+03	3.756042E-04	4.935063E-05
5.334935E+03	3.766034E-04	4.947763E-05
5.335133E+03	3.762607E-04	4.943046E-05
5.335331E+03	3.759070E-04	4.938186E-05
5.335727E+03	3.768328E-04	4.949920E-05
5.335925E+03	3.764387E-04	4.944530E-05
5.336124E+03	3.760330E-04	4.938987E-05
5.336322E+03	3.756007E-04	4.933095E-05
5.336718E+03	3.764431E-04	4.943731E-05
5.337510E+03	3.798146E-04	4.987145E-05
5.337708E+03	3.793130E-04	4.980344E-05
5.337906E+03	3.787996E-04	4.973387E-05
5.339888E+03	3.896592E-04	5.113752E-05
5.340086E+03	3.890882E-04	5.106037E-05
5.340284E+03	3.884905E-04	5.097971E-05
5.340482E+03	3.878957E-04	5.089946E-05
5.340680E+03	3.872793E-04	5.081638E-05
5.341076E+03	3.878903E-04	5.089214E-05
5.341274E+03	3.872442E-04	5.080516E-05
5.342660E+03	3.939528E-04	5.166964E-05
5.342858E+03	3.932516E-04	5.157543E-05
5.343056E+03	3.925228E-04	5.147761E-05
5.344641E+03	4.003016E-04	5.247956E-05
5.344838E+03	3.995054E-04	5.237292E-05
5.345037E+03	3.987012E-04	5.226521E-05
5.345236E+03	3.978748E-04	5.215460E-05
5.345632E+03	3.982567E-04	5.220013E-05
5.345829E+03	3.973935E-04	5.208474E-05
5.346027E+03	3.964871E-04	5.196369E-05
5.346225E+03	3.955850E-04	5.184322E-05
5.346423E+03	3.946708E-04	5.172117E-05
5.347017E+03	3.960588E-04	5.189630E-05
5.347215E+03	3.951094E-04	5.176965E-05
5.348008E+03	3.975991E-04	5.208682E-05
5.348206E+03	3.965899E-04	5.195235E-05
5.348404E+03	3.955674E-04	5.181616E-05
5.348602E+03	3.945353E-04	5.167871E-05
5.348800E+03	3.935076E-04	5.154187E-05
5.348998E+03	3.924847E-04	5.140565E-05
5.349196E+03	3.913808E-04	5.125884E-05
5.349394E+03	3.902665E-04	5.111068E-05
5.349592E+03	3.891394E-04	5.096086E-05
5.350583E+03	3.924389E-04	5.138178E-05
5.350979E+03	3.923935E-04	5.137136E-05
5.351177E+03	3.911638E-04	5.120815E-05
5.351375E+03	3.899213E-04	5.104327E-05
5.351574E+03	3.887367E-04	5.088599E-05
5.352168E+03	3.896359E-04	5.099704E-05
5.352564E+03	3.894507E-04	5.096837E-05
5.352762E+03	3.881211E-04	5.079215E-05
5.353158E+03	3.878723E-04	5.075518E-05
5.353356E+03	3.865640E-04	5.058178E-05
5.353752E+03	3.863113E-04	5.054432E-05
5.353950E+03	3.849369E-04	5.036230E-05
5.354346E+03	3.846207E-04	5.031655E-05
5.354544E+03	3.832131E-04	5.013023E-05
5.355535E+03	3.858913E-04	5.046959E-05
5.355734E+03	3.844578E-04	5.027990E-05
5.355932E+03	3.830065E-04	5.008793E-05
5.356130E+03	3.815423E-04	4.989427E-05
5.356724E+03	3.820503E-04	4.995417E-05
5.356921E+03	3.805492E-04	4.975575E-05
5.357516E+03	3.810110E-04	4.980961E-05
5.357714E+03	3.794713E-04	4.960615E-05
5.357911E+03	3.779206E-04	4.940131E-05
5.358109E+03	3.763570E-04	4.919477E-05
5.358505E+03	3.757435E-04	4.911030E-05
5.358703E+03	3.741470E-04	4.889950E-05
5.358901E+03	3.725399E-04	4.868733E-05
5.359892E+03	3.747049E-04	4.895961E-05
5.360288E+03	3.740053E-04	4.886394E-05
5.360486E+03	3.723261E-04	4.864243E-05
5.361279E+03	3.734534E-04	4.878118E-05
5.361873E+03	3.735998E-04	4.879392E-05
5.362863E+03	3.755222E-04	4.903429E-05
5.363260E+03	3.746662E-04	4.891825E-05
5.364052E+03	3.755644E-04	4.902697E-05
5.364250E+03	3.736851E-04	4.877950E-05
5.364448E+03	3.718979E-04	4.854409E-05
5.364646E+03	3.700975E-04	4.830698E-05
5.364844E+03	3.682228E-04	4.806018E-05
5.365042E+03	3.663348E-04	4.781167E-05
5.365438E+03	3.653031E-04	4.767286E-05
5.365636E+03	3.633608E-04	4.741732E-05
5.366032E+03	3.622865E-04	4.727299E-05
5.366231E+03	3.603383E-04	4.701671E-05
5.366429E+03	3.583723E-04	4.675815E-05
5.367023E+03	3.580698E-04	4.671256E-05
5.367222E+03	3.560661E-04	4.644914E-05
5.367420E+03	3.540490E-04	4.618398E-05
5.368212E+03	3.544799E-04	4.623211E-05
5.368410E+03	3.523942E-04	4.595807E-05
5.368608E+03	3.502749E-04	4.567969E-05
5.369004E+03	3.489442E-04	4.550217E-05
5.369399E+03	3.477420E-04	4.534145E-05
5.369796E+03	3.464253E-04	4.516580E-05
5.370389E+03	3.458690E-04	4.508737E-05
5.370587E+03	3.436505E-04	4.479620E-05
5.370785E+03	3.414861E-04	4.451212E-05
5.370984E+03	3.392858E-04	4.422338E-05
5.371182E+03	3.370507E-04	4.393013E-05
5.371579E+03	3.356262E-04	4.374063E-05
5.371777E+03	3.333577E-04	4.344308E-05
5.371975E+03	3.310984E-04	4.314676E-05
5.372173E+03	3.288270E-04	4.284889E-05
5.372569E+03	3.272917E-04	4.264510E-05
5.372767E+03	3.250559E-04	4.235192E-05
5.372965E+03	3.227610E-04	4.205107E-05
5.373361E+03	3.211153E-04	4.183300E-05
5.373559E+03	3.188347E-04	4.153409E-05
5.373757E+03	3.165645E-04	4.123654E-05
5.374153E+03	3.148988E-04	4.101597E-05
5.374351E+03	3.125738E-04	4.071135E-05
5.374549E+03	3.102117E-04	4.040193E-05
5.374946E+03	3.085064E-04	4.017631E-05
5.375540E+03	3.074376E-04	4.003185E-05
5.375738E+03	3.050649E-04	3.972117E-05
5.375936E+03	3.026553E-04	3.940570E-05
5.376134E+03	3.002082E-04	3.908538E-05
5.376332E+03	2.978203E-04	3.877279E-05
5.376927E+03	2.966404E-04	3.861408E-05
5.377125E+03	2.941901E-04	3.829345E-05
5.377323E+03	2.917268E-04	3.797114E-05
5.377719E+03	2.898875E-04	3.772843E-05
5.378709E+03	2.898738E-04	3.771837E-05
5.378908E+03	2.873890E-04	3.739342E-05
