#wls	flux	fluxerr
1.584409E+03	3.509453E-03	1.422247E-03
1.624020E+03	3.620732E-03	1.466767E-03
1.663630E+03	3.729667E-03	1.510273E-03
1.703240E+03	3.835860E-03	1.552601E-03
1.742850E+03	3.937711E-03	1.593102E-03
1.782461E+03	4.034574E-03	1.631514E-03
1.822071E+03	4.124975E-03	1.667240E-03
1.861681E+03	4.208041E-03	1.699929E-03
1.901291E+03	4.282441E-03	1.729045E-03
1.940902E+03	4.346778E-03	1.754026E-03
1.980512E+03	4.398970E-03	1.774037E-03
2.020122E+03	4.437619E-03	1.788521E-03
2.059732E+03	4.461080E-03	1.796824E-03
2.099342E+03	4.466985E-03	1.798001E-03
2.138953E+03	4.453311E-03	1.791254E-03
2.178563E+03	4.417686E-03	1.775644E-03
2.218173E+03	4.358144E-03	1.750400E-03
2.257783E+03	4.274407E-03	1.715435E-03
2.297394E+03	4.167194E-03	1.671060E-03
2.337004E+03	4.039663E-03	1.618568E-03
2.376614E+03	3.894642E-03	1.559113E-03
2.416224E+03	3.734677E-03	1.493738E-03
2.455835E+03	3.562560E-03	1.423578E-03
2.495445E+03	3.380491E-03	1.349531E-03
2.535055E+03	3.190409E-03	1.272388E-03
2.574665E+03	2.994681E-03	1.193108E-03
2.614276E+03	2.795094E-03	1.112417E-03
2.653886E+03	2.593754E-03	1.031162E-03
2.693496E+03	2.392463E-03	9.500705E-04
2.733106E+03	2.193344E-03	8.699911E-04
2.772716E+03	1.998220E-03	7.916512E-04
2.812327E+03	1.809019E-03	7.158151E-04
2.851937E+03	1.627570E-03	6.432048E-04
2.891547E+03	1.455549E-03	5.744768E-04
2.931157E+03	1.294399E-03	5.101930E-04
2.970768E+03	1.145252E-03	4.507878E-04
2.980670E+03	1.109927E-03	4.367312E-04
2.990573E+03	1.075420E-03	4.230049E-04
3.000475E+03	1.041707E-03	4.095996E-04
3.010378E+03	1.008835E-03	3.965334E-04
3.020280E+03	9.767783E-04	3.837960E-04
3.030183E+03	9.455357E-04	3.713865E-04
3.040086E+03	9.151050E-04	3.593038E-04
3.049988E+03	8.855196E-04	3.475608E-04
3.059891E+03	8.567361E-04	3.361402E-04
3.069793E+03	8.287843E-04	3.250533E-04
3.079696E+03	8.016389E-04	3.142899E-04
3.089598E+03	7.753084E-04	3.038532E-04
3.099501E+03	7.497828E-04	2.937390E-04
3.109403E+03	7.250525E-04	2.839430E-04
3.119306E+03	7.011070E-04	2.744611E-04
3.129209E+03	6.779485E-04	2.652937E-04
3.139111E+03	6.555522E-04	2.564307E-04
3.149014E+03	6.339179E-04	2.478720E-04
3.158916E+03	6.130324E-04	2.396120E-04
3.168819E+03	5.928816E-04	2.316449E-04
3.178721E+03	5.734614E-04	2.239688E-04
3.188624E+03	5.547369E-04	2.165699E-04
3.198526E+03	5.367220E-04	2.094532E-04
3.208429E+03	5.193728E-04	2.026014E-04
3.218332E+03	5.027002E-04	1.960185E-04
3.228234E+03	4.866703E-04	1.896908E-04
3.238137E+03	4.712752E-04	1.836152E-04
3.248039E+03	4.564976E-04	1.777846E-04
3.257942E+03	4.423140E-04	1.721896E-04
3.267844E+03	4.287212E-04	1.668288E-04
3.277747E+03	4.156890E-04	1.616900E-04
3.287650E+03	4.032011E-04	1.567667E-04
3.297552E+03	3.912533E-04	1.520571E-04
3.307455E+03	3.798168E-04	1.475498E-04
3.317357E+03	3.688760E-04	1.432384E-04
3.327260E+03	3.584154E-04	1.391168E-04
3.337162E+03	3.484242E-04	1.351804E-04
3.347065E+03	3.388773E-04	1.314194E-04
3.356967E+03	3.297603E-04	1.278281E-04
3.366870E+03	3.210632E-04	1.244022E-04
3.376773E+03	3.127676E-04	1.211345E-04
3.386675E+03	3.048594E-04	1.180195E-04
3.396578E+03	2.973179E-04	1.150487E-04
3.406480E+03	2.901343E-04	1.122188E-04
3.416383E+03	2.832966E-04	1.095249E-04
3.426285E+03	2.767857E-04	1.069594E-04
3.436188E+03	2.705906E-04	1.045180E-04
3.446090E+03	2.646977E-04	1.021952E-04
3.455993E+03	2.590998E-04	9.998808E-05
3.465896E+03	2.537782E-04	9.788939E-05
3.475798E+03	2.487269E-04	9.589660E-05
3.485701E+03	2.439315E-04	9.400404E-05
3.495603E+03	2.393814E-04	9.220750E-05
3.505506E+03	2.350665E-04	9.050296E-05
3.515408E+03	2.309744E-04	8.888558E-05
3.525311E+03	2.270991E-04	8.735292E-05
3.535213E+03	2.234270E-04	8.589959E-05
3.545116E+03	2.199503E-04	8.452256E-05
3.555019E+03	2.166640E-04	8.321978E-05
3.564921E+03	2.135587E-04	8.198755E-05
3.574824E+03	2.106276E-04	8.082315E-05
3.584726E+03	2.078623E-04	7.972331E-05
3.594629E+03	2.052549E-04	7.868487E-05
3.604531E+03	2.027999E-04	7.770568E-05
3.614434E+03	2.004881E-04	7.678211E-05
3.624337E+03	1.983169E-04	7.591307E-05
3.634239E+03	1.962776E-04	7.509521E-05
3.644142E+03	1.943660E-04	7.432682E-05
3.654044E+03	1.925799E-04	7.360699E-05
3.663947E+03	1.909117E-04	7.293279E-05
3.673849E+03	1.893575E-04	7.230262E-05
3.683752E+03	1.879174E-04	7.171651E-05
3.693654E+03	1.865859E-04	7.117220E-05
3.703557E+03	1.853594E-04	7.066839E-05
3.713460E+03	1.842380E-04	7.020496E-05
3.723362E+03	1.832165E-04	6.977989E-05
3.733265E+03	1.822932E-04	6.939251E-05
3.743167E+03	1.814678E-04	6.904262E-05
3.753070E+03	1.807371E-04	6.872899E-05
3.762972E+03	1.800993E-04	6.845085E-05
3.772875E+03	1.795529E-04	6.820756E-05
3.782777E+03	1.790959E-04	6.799835E-05
3.792680E+03	1.787283E-04	6.782314E-05
3.802583E+03	1.784469E-04	6.768069E-05
3.812485E+03	1.782515E-04	6.757085E-05
3.822388E+03	1.781420E-04	6.749355E-05
3.832290E+03	1.781153E-04	6.744755E-05
3.842193E+03	1.781696E-04	6.743217E-05
3.852095E+03	1.783065E-04	6.744789E-05
3.861998E+03	1.785242E-04	6.749400E-05
3.871900E+03	1.788195E-04	6.756931E-05
3.881803E+03	1.791940E-04	6.767428E-05
3.891706E+03	1.796470E-04	6.780868E-05
3.901608E+03	1.801740E-04	6.797076E-05
3.911511E+03	1.807763E-04	6.816091E-05
3.921413E+03	1.814536E-04	6.837899E-05
3.931316E+03	1.822039E-04	6.862423E-05
3.941218E+03	1.830238E-04	6.889530E-05
3.951121E+03	1.839158E-04	6.919310E-05
3.961024E+03	1.848766E-04	6.951630E-05
3.970926E+03	1.859039E-04	6.986406E-05
3.980829E+03	1.869989E-04	7.023675E-05
3.990731E+03	1.881579E-04	7.063294E-05
4.000634E+03	1.893818E-04	7.105296E-05
4.010536E+03	1.906655E-04	7.149481E-05
4.020439E+03	1.920114E-04	7.195939E-05
4.030341E+03	1.934158E-04	7.244527E-05
4.040244E+03	1.948766E-04	7.295165E-05
4.050147E+03	1.963947E-04	7.347879E-05
4.060049E+03	1.979651E-04	7.402479E-05
4.069952E+03	1.995902E-04	7.459058E-05
4.079854E+03	2.012649E-04	7.517413E-05
4.089757E+03	2.029888E-04	7.577531E-05
4.099659E+03	2.047614E-04	7.639389E-05
4.109562E+03	2.065792E-04	7.702855E-05
4.119464E+03	2.084419E-04	7.767916E-05
4.129367E+03	2.103474E-04	7.834492E-05
4.139270E+03	2.122926E-04	7.902457E-05
4.149172E+03	2.142785E-04	7.971859E-05
4.159075E+03	2.163001E-04	8.042495E-05
4.168977E+03	2.183591E-04	8.114438E-05
4.178880E+03	2.204501E-04	8.187482E-05
4.188782E+03	2.225731E-04	8.261623E-05
4.198685E+03	2.247262E-04	8.336791E-05
4.208587E+03	2.269042E-04	8.412790E-05
4.218490E+03	2.291087E-04	8.489681E-05
4.228393E+03	2.313364E-04	8.567337E-05
4.238295E+03	2.335834E-04	8.645613E-05
4.248198E+03	2.358461E-04	8.724377E-05
4.258100E+03	2.381245E-04	8.803626E-05
4.268003E+03	2.404169E-04	8.883301E-05
4.277905E+03	2.427158E-04	8.963121E-05
4.287808E+03	2.450233E-04	9.043162E-05
4.297711E+03	2.473316E-04	9.123140E-05
4.307613E+03	2.496431E-04	9.203142E-05
4.317516E+03	2.519521E-04	9.282957E-05
4.327418E+03	2.542588E-04	9.362595E-05
4.337321E+03	2.565638E-04	9.442079E-05
4.347223E+03	2.588673E-04	9.521420E-05
4.357126E+03	2.611701E-04	9.600642E-05
4.367028E+03	2.634745E-04	9.679830E-05
4.376931E+03	2.657831E-04	9.759088E-05
4.386834E+03	2.680967E-04	9.838435E-05
4.396736E+03	2.704179E-04	9.917976E-05
4.406639E+03	2.727456E-04	9.997663E-05
4.416541E+03	2.750850E-04	1.007769E-04
4.426444E+03	2.774350E-04	1.015803E-04
4.436346E+03	2.797966E-04	1.023869E-04
4.446249E+03	2.821711E-04	1.031974E-04
4.456151E+03	2.845598E-04	1.040123E-04
4.466054E+03	2.869638E-04	1.048318E-04
4.475957E+03	2.893847E-04	1.056567E-04
4.485859E+03	2.918186E-04	1.064854E-04
4.495762E+03	2.942723E-04	1.073204E-04
4.505664E+03	2.967418E-04	1.081603E-04
4.515567E+03	2.992287E-04	1.090056E-04
4.525469E+03	3.017319E-04	1.098558E-04
4.535372E+03	3.042554E-04	1.107126E-04
4.545274E+03	3.067982E-04	1.115754E-04
4.555177E+03	3.093565E-04	1.124429E-04
4.565080E+03	3.119372E-04	1.133176E-04
4.574982E+03	3.145366E-04	1.141980E-04
4.584885E+03	3.171535E-04	1.150839E-04
4.594787E+03	3.197924E-04	1.159767E-04
4.604690E+03	3.224551E-04	1.168771E-04
4.614592E+03	3.251350E-04	1.177827E-04
4.624495E+03	3.278397E-04	1.186963E-04
4.634398E+03	3.305684E-04	1.196175E-04
4.644300E+03	3.333205E-04	1.205461E-04
4.654203E+03	3.360985E-04	1.214830E-04
4.664105E+03	3.389020E-04	1.224279E-04
4.674008E+03	3.417338E-04	1.233820E-04
4.683910E+03	3.445876E-04	1.243429E-04
4.693813E+03	3.474665E-04	1.253118E-04
4.703715E+03	3.503742E-04	1.262898E-04
4.713618E+03	3.533014E-04	1.272737E-04
4.723521E+03	3.562548E-04	1.282658E-04
4.733423E+03	3.592315E-04	1.292652E-04
4.743326E+03	3.622288E-04	1.302707E-04
4.753228E+03	3.652539E-04	1.312850E-04
4.763131E+03	3.682968E-04	1.323044E-04
4.773033E+03	3.713682E-04	1.333328E-04
4.782936E+03	3.744579E-04	1.343665E-04
4.792838E+03	3.775731E-04	1.354080E-04
4.802741E+03	3.807067E-04	1.364548E-04
4.812644E+03	3.838661E-04	1.375095E-04
4.822546E+03	3.870436E-04	1.385694E-04
4.832449E+03	3.902430E-04	1.396357E-04
4.842351E+03	3.934641E-04	1.407085E-04
4.852254E+03	3.967028E-04	1.417861E-04
4.862156E+03	3.999589E-04	1.428686E-04
4.872059E+03	4.032317E-04	1.439555E-04
4.881961E+03	4.065249E-04	1.450484E-04
4.891864E+03	4.098300E-04	1.461440E-04
4.901767E+03	4.131542E-04	1.472449E-04
4.911669E+03	4.164889E-04	1.483481E-04
4.921572E+03	4.198369E-04	1.494545E-04
4.931474E+03	4.231930E-04	1.505624E-04
4.941377E+03	4.265559E-04	1.516711E-04
4.951279E+03	4.299236E-04	1.527799E-04
4.961182E+03	4.332983E-04	1.538897E-04
4.971085E+03	4.366693E-04	1.549967E-04
4.980987E+03	4.400379E-04	1.561012E-04
4.990890E+03	4.433965E-04	1.572006E-04
5.000792E+03	4.467460E-04	1.582952E-04
5.010695E+03	4.500779E-04	1.593820E-04
5.020597E+03	4.533831E-04	1.604577E-04
5.030500E+03	4.566610E-04	1.615222E-04
5.040402E+03	4.599065E-04	1.625737E-04
5.050305E+03	4.631090E-04	1.636083E-04
5.060208E+03	4.662578E-04	1.646225E-04
5.070110E+03	4.693554E-04	1.656170E-04
5.080013E+03	4.723856E-04	1.665862E-04
5.089915E+03	4.753408E-04	1.675274E-04
5.099818E+03	4.782137E-04	1.684382E-04
5.109720E+03	4.809962E-04	1.693156E-04
5.119623E+03	4.836756E-04	1.701554E-04
5.129525E+03	4.862484E-04	1.709562E-04
5.139428E+03	4.886964E-04	1.717118E-04
5.149331E+03	4.910158E-04	1.724209E-04
5.159233E+03	4.931882E-04	1.730771E-04
5.169136E+03	4.952142E-04	1.736808E-04
5.179038E+03	4.970749E-04	1.742254E-04
5.188941E+03	4.987662E-04	1.747095E-04
5.198843E+03	5.002686E-04	1.751264E-04
5.208746E+03	5.015777E-04	1.754748E-04
5.218648E+03	5.026842E-04	1.757514E-04
5.228551E+03	5.035688E-04	1.759497E-04
5.238454E+03	5.042224E-04	1.760666E-04
5.248356E+03	5.046412E-04	1.761010E-04
5.258259E+03	5.048122E-04	1.760484E-04
5.268161E+03	5.047229E-04	1.759048E-04
5.278064E+03	5.043668E-04	1.756679E-04
5.287966E+03	5.037383E-04	1.753360E-04
5.297869E+03	5.028335E-04	1.749080E-04
5.307772E+03	5.016449E-04	1.743814E-04
5.317674E+03	5.001767E-04	1.737578E-04
5.327577E+03	4.984253E-04	1.730363E-04
5.337479E+03	4.963991E-04	1.722199E-04
5.347382E+03	4.940992E-04	1.713092E-04
5.357284E+03	4.915439E-04	1.703107E-04
5.367187E+03	4.887488E-04	1.692300E-04
5.377089E+03	4.857229E-04	1.680704E-04
5.386992E+03	4.824964E-04	1.668425E-04
5.396895E+03	4.790880E-04	1.655529E-04
5.406797E+03	4.754992E-04	1.642023E-04
5.416700E+03	4.717673E-04	1.628036E-04
5.426602E+03	4.679077E-04	1.613623E-04
5.436505E+03	4.639376E-04	1.598844E-04
5.446407E+03	4.598801E-04	1.583779E-04
5.456310E+03	4.557547E-04	1.568497E-04
5.466212E+03	4.515816E-04	1.553067E-04
5.476115E+03	4.473910E-04	1.537594E-04
5.486018E+03	4.432038E-04	1.522149E-04
5.495920E+03	4.390540E-04	1.506849E-04
5.505823E+03	4.349707E-04	1.491794E-04
5.515725E+03	4.309777E-04	1.477065E-04
5.525628E+03	4.271063E-04	1.462769E-04
5.535530E+03	4.233815E-04	1.448990E-04
5.545433E+03	4.198271E-04	1.435808E-04
5.555335E+03	4.164686E-04	1.423310E-04
5.565238E+03	4.133252E-04	1.411559E-04
5.575141E+03	4.104136E-04	1.400613E-04
5.585043E+03	4.077518E-04	1.390529E-04
5.594946E+03	4.053517E-04	1.381346E-04
5.604848E+03	4.032259E-04	1.373107E-04
5.614751E+03	4.013808E-04	1.365830E-04
5.624653E+03	3.998205E-04	1.359527E-04
5.634556E+03	3.985504E-04	1.354215E-04
5.644459E+03	3.975705E-04	1.349892E-04
5.654361E+03	3.968783E-04	1.346546E-04
5.664264E+03	3.964747E-04	1.344180E-04
5.674166E+03	3.963550E-04	1.342773E-04
5.684069E+03	3.965179E-04	1.342321E-04
5.693971E+03	3.969535E-04	1.342788E-04
5.703874E+03	3.976643E-04	1.344179E-04
5.713776E+03	3.986405E-04	1.346460E-04
5.723679E+03	3.998766E-04	1.349610E-04
5.733582E+03	4.013763E-04	1.353639E-04
5.743484E+03	4.031271E-04	1.358503E-04
5.753387E+03	4.051339E-04	1.364218E-04
5.763289E+03	4.073942E-04	1.370771E-04
5.773192E+03	4.099060E-04	1.378155E-04
5.783094E+03	4.126633E-04	1.386347E-04
5.792997E+03	4.156739E-04	1.395372E-04
5.802899E+03	4.189329E-04	1.405211E-04
5.812802E+03	4.224446E-04	1.415877E-04
5.822705E+03	4.262083E-04	1.427364E-04
5.832607E+03	4.302195E-04	1.439657E-04
5.842510E+03	4.344825E-04	1.452766E-04
5.852412E+03	4.390016E-04	1.466706E-04
5.862315E+03	4.437665E-04	1.481438E-04
5.872217E+03	4.487807E-04	1.496973E-04
5.882120E+03	4.540428E-04	1.513303E-04
5.892022E+03	4.595555E-04	1.530437E-04
5.901925E+03	4.653062E-04	1.548329E-04
5.911828E+03	4.713018E-04	1.567001E-04
5.921730E+03	4.775277E-04	1.586402E-04
5.931633E+03	4.839847E-04	1.606532E-04
5.941535E+03	4.906670E-04	1.627372E-04
5.951438E+03	4.975630E-04	1.648879E-04
5.961340E+03	5.046712E-04	1.671047E-04
5.971243E+03	5.119722E-04	1.693811E-04
5.981146E+03	5.194690E-04	1.717178E-04
5.991048E+03	5.271336E-04	1.741054E-04
6.000951E+03	5.349678E-04	1.765444E-04
6.010853E+03	5.429475E-04	1.790267E-04
6.020756E+03	5.510665E-04	1.815501E-04
6.030658E+03	5.592986E-04	1.841058E-04
6.040561E+03	5.676292E-04	1.866890E-04
6.050463E+03	5.760362E-04	1.892922E-04
6.060366E+03	5.845033E-04	1.919102E-04
6.070269E+03	5.929998E-04	1.945326E-04
6.080171E+03	6.015002E-04	1.971513E-04
6.090074E+03	6.099867E-04	1.997602E-04
6.099976E+03	6.184329E-04	2.023508E-04
6.109879E+03	6.267977E-04	2.049097E-04
6.119781E+03	6.350614E-04	2.074305E-04
6.129684E+03	6.431977E-04	2.099047E-04
6.139586E+03	6.511887E-04	2.123266E-04
6.149489E+03	6.590252E-04	2.146933E-04
6.159392E+03	6.667006E-04	2.170028E-04
6.169294E+03	6.742178E-04	2.192562E-04
6.179197E+03	6.816002E-04	2.214612E-04
6.189099E+03	6.888476E-04	2.236179E-04
6.199002E+03	6.959526E-04	2.257239E-04
6.208904E+03	7.029454E-04	2.277893E-04
6.218807E+03	7.098316E-04	2.298160E-04
6.228709E+03	7.165990E-04	2.318000E-04
6.238612E+03	7.232838E-04	2.337532E-04
6.248515E+03	7.298666E-04	2.356694E-04
6.258417E+03	7.363769E-04	2.375582E-04
6.268320E+03	7.428060E-04	2.394169E-04
6.278222E+03	7.491656E-04	2.412493E-04
6.288125E+03	7.554577E-04	2.430560E-04
6.298027E+03	7.616850E-04	2.448380E-04
6.307930E+03	7.678497E-04	2.465961E-04
6.317833E+03	7.739440E-04	2.483278E-04
6.327735E+03	7.799592E-04	2.500304E-04
6.337638E+03	7.859086E-04	2.517082E-04
6.347540E+03	7.917720E-04	2.533548E-04
6.357443E+03	7.975628E-04	2.549746E-04
6.367345E+03	8.032716E-04	2.565645E-04
6.377248E+03	8.089004E-04	2.581254E-04
6.387150E+03	8.144631E-04	2.596617E-04
6.397053E+03	8.199867E-04	2.611821E-04
6.406956E+03	8.254747E-04	2.626877E-04
6.416858E+03	8.309435E-04	2.641838E-04
6.426761E+03	8.364097E-04	2.656757E-04
6.436663E+03	8.418657E-04	2.671609E-04
6.446566E+03	8.473414E-04	2.686490E-04
6.456468E+03	8.528426E-04	2.701418E-04
6.466371E+03	8.583607E-04	2.716365E-04
6.476273E+03	8.639277E-04	2.731433E-04
6.486176E+03	8.695356E-04	2.746596E-04
6.496079E+03	8.751752E-04	2.761824E-04
6.505981E+03	8.808790E-04	2.777220E-04
6.515884E+03	8.866379E-04	2.792755E-04
6.525786E+03	8.924560E-04	2.808441E-04
6.535689E+03	8.983522E-04	2.824337E-04
6.545591E+03	9.043012E-04	2.840363E-04
6.555494E+03	9.103060E-04	2.856529E-04
6.565396E+03	9.163993E-04	2.872935E-04
6.575299E+03	9.225535E-04	2.889497E-04
6.585202E+03	9.287706E-04	2.906218E-04
6.595104E+03	9.350674E-04	2.923152E-04
6.605007E+03	9.414293E-04	2.940252E-04
6.614909E+03	9.478569E-04	2.957519E-04
6.624812E+03	9.543661E-04	2.975004E-04
6.634714E+03	9.609239E-04	2.992602E-04
6.644617E+03	9.675290E-04	3.010309E-04
6.654520E+03	9.742130E-04	3.028223E-04
6.664422E+03	9.809403E-04	3.046234E-04
6.674325E+03	9.877082E-04	3.064333E-04
6.684227E+03	9.945312E-04	3.082565E-04
6.694130E+03	1.001388E-03	3.100864E-04
6.704032E+03	1.008276E-03	3.119219E-04
6.713935E+03	1.015190E-03	3.137618E-04
6.723837E+03	1.022125E-03	3.156046E-04
6.733740E+03	1.029059E-03	3.174432E-04
6.743643E+03	1.036005E-03	3.192818E-04
6.753545E+03	1.042958E-03	3.211188E-04
6.763448E+03	1.049894E-03	3.229469E-04
6.773350E+03	1.056826E-03	3.247703E-04
6.783253E+03	1.063729E-03	3.265813E-04
6.793155E+03	1.070598E-03	3.283784E-04
6.803058E+03	1.077427E-03	3.301597E-04
6.812960E+03	1.084190E-03	3.319176E-04
6.822863E+03	1.090922E-03	3.336627E-04
6.832766E+03	1.097597E-03	3.353873E-04
6.842668E+03	1.104190E-03	3.370835E-04
6.852571E+03	1.110715E-03	3.387562E-04
6.862473E+03	1.117147E-03	3.403975E-04
6.872376E+03	1.123479E-03	3.420060E-04
6.882278E+03	1.129730E-03	3.435868E-04
6.892181E+03	1.135872E-03	3.451321E-04
6.902083E+03	1.141902E-03	3.466408E-04
6.911986E+03	1.147815E-03	3.481117E-04
6.921889E+03	1.153606E-03	3.495438E-04
6.931791E+03	1.159252E-03	3.509296E-04
6.941694E+03	1.164792E-03	3.522818E-04
6.951596E+03	1.170181E-03	3.535864E-04
6.961499E+03	1.175416E-03	3.548428E-04
6.971401E+03	1.180518E-03	3.560578E-04
6.981304E+03	1.185464E-03	3.572245E-04
6.991207E+03	1.190253E-03	3.583430E-04
7.001109E+03	1.194888E-03	3.594139E-04
7.011012E+03	1.199368E-03	3.604378E-04
7.020914E+03	1.203722E-03	3.614229E-04
7.030817E+03	1.207904E-03	3.623561E-04
7.040719E+03	1.211919E-03	3.632388E-04
7.050622E+03	1.215796E-03	3.640800E-04
7.060524E+03	1.219541E-03	3.648818E-04
7.070427E+03	1.223137E-03	3.656392E-04
7.080330E+03	1.226616E-03	3.663619E-04
7.090232E+03	1.229935E-03	3.670378E-04
7.100135E+03	1.233156E-03	3.676846E-04
7.110037E+03	1.236261E-03	3.682978E-04
7.119940E+03	1.239259E-03	3.688803E-04
7.129842E+03	1.242136E-03	3.694277E-04
7.139745E+03	1.244952E-03	3.699582E-04
7.149647E+03	1.247664E-03	3.704593E-04
7.159550E+03	1.250308E-03	3.709416E-04
7.169453E+03	1.252865E-03	3.713999E-04
7.179355E+03	1.255369E-03	3.718442E-04
7.189258E+03	1.257800E-03	3.722685E-04
7.199160E+03	1.260161E-03	3.726744E-04
7.209063E+03	1.262483E-03	3.730708E-04
7.218965E+03	1.264741E-03	3.734507E-04
7.228868E+03	1.266962E-03	3.738222E-04
7.238770E+03	1.269092E-03	3.741693E-04
7.248673E+03	1.271156E-03	3.744994E-04
7.258576E+03	1.273177E-03	3.748198E-04
7.268478E+03	1.275098E-03	3.751136E-04
7.278381E+03	1.276941E-03	3.753876E-04
7.288283E+03	1.278675E-03	3.756325E-04
7.298186E+03	1.280322E-03	3.758555E-04
7.308088E+03	1.281851E-03	3.760474E-04
7.317991E+03	1.283260E-03	3.762075E-04
7.327894E+03	1.284546E-03	3.763353E-04
7.337796E+03	1.285679E-03	3.764226E-04
7.347699E+03	1.286662E-03	3.764695E-04
7.357601E+03	1.287494E-03	3.764770E-04
7.367504E+03	1.288180E-03	3.764461E-04
7.377406E+03	1.288755E-03	3.763870E-04
7.387309E+03	1.289194E-03	3.762934E-04
7.397211E+03	1.289565E-03	3.761845E-04
7.407114E+03	1.289876E-03	3.760630E-04
7.417017E+03	1.290136E-03	3.759317E-04
7.426919E+03	1.290353E-03	3.757932E-04
7.436822E+03	1.290536E-03	3.756498E-04
7.446724E+03	1.290747E-03	3.755202E-04
7.456627E+03	1.290929E-03	3.753875E-04
7.466529E+03	1.291111E-03	3.752599E-04
7.476432E+03	1.291289E-03	3.751368E-04
7.486334E+03	1.291493E-03	3.750263E-04
7.496237E+03	1.291659E-03	3.749100E-04
7.506140E+03	1.291815E-03	3.747958E-04
7.516042E+03	1.291959E-03	3.746832E-04
7.525945E+03	1.292119E-03	3.745804E-04
7.535847E+03	1.292234E-03	3.744695E-04
7.545750E+03	1.292364E-03	3.743680E-04
7.555652E+03	1.292480E-03	3.742670E-04
7.565555E+03	1.292551E-03	3.741579E-04
7.575457E+03	1.292640E-03	3.740587E-04
7.585360E+03	1.292718E-03	3.739610E-04
7.595263E+03	1.292786E-03	3.738652E-04
7.605165E+03	1.292847E-03	3.737717E-04
7.615068E+03	1.292902E-03	3.736811E-04
7.624970E+03	1.292952E-03	3.735936E-04
7.634873E+03	1.293030E-03	3.735187E-04
7.644775E+03	1.293074E-03	3.734382E-04
7.654678E+03	1.293147E-03	3.733704E-04
7.664581E+03	1.293217E-03	3.733058E-04
7.674483E+03	1.293281E-03	3.732439E-04
7.684386E+03	1.293338E-03	3.731842E-04
