#wls	flux	fluxerr
1.584409E+03	6.003969E-03	1.893287E-03
1.624020E+03	6.181267E-03	1.949168E-03
1.663630E+03	6.347141E-03	2.001445E-03
1.703240E+03	6.500251E-03	2.049694E-03
1.742850E+03	6.636595E-03	2.092653E-03
1.782461E+03	6.755821E-03	2.130212E-03
1.822071E+03	6.853761E-03	2.161057E-03
1.861681E+03	6.929300E-03	2.184835E-03
1.901291E+03	6.980093E-03	2.200809E-03
1.940902E+03	7.002798E-03	2.207924E-03
1.980512E+03	6.996535E-03	2.205904E-03
2.020122E+03	6.959020E-03	2.194029E-03
2.059732E+03	6.888429E-03	2.171725E-03
2.099342E+03	6.783527E-03	2.138603E-03
2.138953E+03	6.642903E-03	2.094218E-03
2.178563E+03	6.464558E-03	2.037942E-03
2.218173E+03	6.246917E-03	1.969280E-03
2.257783E+03	5.991300E-03	1.888648E-03
2.297394E+03	5.702956E-03	1.797701E-03
2.337004E+03	5.390606E-03	1.699191E-03
2.376614E+03	5.061267E-03	1.595330E-03
2.416224E+03	4.721320E-03	1.488130E-03
2.455835E+03	4.375487E-03	1.379080E-03
2.495445E+03	4.028649E-03	1.269719E-03
2.535055E+03	3.684805E-03	1.161308E-03
2.574665E+03	3.347995E-03	1.055119E-03
2.614276E+03	3.021489E-03	9.521843E-04
2.653886E+03	2.708266E-03	8.534422E-04
2.693496E+03	2.410942E-03	7.597165E-04
2.733106E+03	2.131486E-03	6.716279E-04
2.772716E+03	1.871510E-03	5.896835E-04
2.812327E+03	1.632144E-03	5.142393E-04
2.851937E+03	1.414150E-03	4.455348E-04
2.891547E+03	1.217893E-03	3.836840E-04
2.931157E+03	1.043253E-03	3.286487E-04
2.970768E+03	8.896693E-04	2.802515E-04
2.980670E+03	8.544519E-04	2.691542E-04
2.990573E+03	8.204525E-04	2.584407E-04
3.000475E+03	7.876806E-04	2.481143E-04
3.010378E+03	7.560726E-04	2.381546E-04
3.020280E+03	7.256347E-04	2.285638E-04
3.030183E+03	6.963364E-04	2.193322E-04
3.040086E+03	6.681614E-04	2.104546E-04
3.049988E+03	6.410508E-04	2.019125E-04
3.059891E+03	6.150154E-04	1.937093E-04
3.069793E+03	5.899973E-04	1.858267E-04
3.079696E+03	5.659903E-04	1.782628E-04
3.089598E+03	5.429625E-04	1.710075E-04
3.099501E+03	5.208716E-04	1.640474E-04
3.109403E+03	4.997078E-04	1.573795E-04
3.119306E+03	4.794303E-04	1.509910E-04
3.129209E+03	4.600175E-04	1.448749E-04
3.139111E+03	4.414391E-04	1.390218E-04
3.149014E+03	4.236656E-04	1.334223E-04
3.158916E+03	4.066752E-04	1.280696E-04
3.168819E+03	3.904386E-04	1.229544E-04
3.178721E+03	3.749208E-04	1.180658E-04
3.188624E+03	3.601072E-04	1.133990E-04
3.198526E+03	3.459646E-04	1.089437E-04
3.208429E+03	3.324719E-04	1.046931E-04
3.218332E+03	3.196029E-04	1.006391E-04
3.228234E+03	3.073275E-04	9.677208E-05
3.238137E+03	2.956312E-04	9.308753E-05
3.248039E+03	2.844806E-04	8.957492E-05
3.257942E+03	2.738618E-04	8.622988E-05
3.267844E+03	2.637519E-04	8.304518E-05
3.277747E+03	2.541215E-04	8.001152E-05
3.287650E+03	2.449575E-04	7.712484E-05
3.297552E+03	2.362395E-04	7.437866E-05
3.307455E+03	2.279445E-04	7.176574E-05
3.317357E+03	2.200541E-04	6.928028E-05
3.327260E+03	2.125504E-04	6.691666E-05
3.337162E+03	2.054164E-04	6.466948E-05
3.347065E+03	1.986356E-04	6.253358E-05
3.356967E+03	1.921921E-04	6.050395E-05
3.366870E+03	1.860685E-04	5.857507E-05
3.376773E+03	1.802481E-04	5.674171E-05
3.386675E+03	1.747221E-04	5.500108E-05
3.396578E+03	1.694708E-04	5.334696E-05
3.406480E+03	1.644841E-04	5.177622E-05
3.416383E+03	1.597484E-04	5.028454E-05
3.426285E+03	1.552527E-04	4.886843E-05
3.436188E+03	1.509828E-04	4.752348E-05
3.446090E+03	1.469275E-04	4.624607E-05
3.455993E+03	1.430775E-04	4.503337E-05
3.465896E+03	1.394212E-04	4.388164E-05
3.475798E+03	1.359503E-04	4.278835E-05
3.485701E+03	1.326517E-04	4.174927E-05
3.495603E+03	1.295184E-04	4.076228E-05
3.505506E+03	1.265400E-04	3.982407E-05
3.515408E+03	1.237080E-04	3.893199E-05
3.525311E+03	1.210147E-04	3.808356E-05
3.535213E+03	1.184503E-04	3.727570E-05
3.545116E+03	1.160103E-04	3.650707E-05
3.555019E+03	1.136874E-04	3.577527E-05
3.564921E+03	1.114742E-04	3.507806E-05
3.574824E+03	1.093675E-04	3.441438E-05
3.584726E+03	1.073598E-04	3.378184E-05
3.594629E+03	1.054461E-04	3.317893E-05
3.604531E+03	1.036218E-04	3.260416E-05
3.614434E+03	1.018824E-04	3.205613E-05
3.624337E+03	1.002237E-04	3.153351E-05
3.634239E+03	9.864175E-05	3.103504E-05
3.644142E+03	9.713352E-05	3.055979E-05
3.654044E+03	9.569612E-05	3.010684E-05
3.663947E+03	9.432594E-05	2.967506E-05
3.673849E+03	9.302281E-05	2.926438E-05
3.683752E+03	9.178238E-05	2.887344E-05
3.693654E+03	9.060364E-05	2.850193E-05
3.703557E+03	8.948402E-05	2.814902E-05
3.713460E+03	8.842179E-05	2.781418E-05
3.723362E+03	8.741672E-05	2.749733E-05
3.733265E+03	8.646480E-05	2.719721E-05
3.743167E+03	8.556588E-05	2.691376E-05
3.753070E+03	8.471890E-05	2.664667E-05
3.762972E+03	8.392087E-05	2.639498E-05
3.772875E+03	8.317155E-05	2.615862E-05
3.782777E+03	8.247001E-05	2.593729E-05
3.792680E+03	8.181399E-05	2.573028E-05
3.802583E+03	8.120197E-05	2.553711E-05
3.812485E+03	8.063441E-05	2.535794E-05
3.822388E+03	8.010849E-05	2.519186E-05
3.832290E+03	7.962408E-05	2.503884E-05
3.842193E+03	7.917976E-05	2.489843E-05
3.852095E+03	7.877470E-05	2.477036E-05
3.861998E+03	7.840824E-05	2.465444E-05
3.871900E+03	7.807835E-05	2.455001E-05
3.881803E+03	7.778439E-05	2.445688E-05
3.891706E+03	7.752630E-05	2.437504E-05
3.901608E+03	7.730284E-05	2.430407E-05
3.911511E+03	7.711276E-05	2.424360E-05
3.921413E+03	7.695549E-05	2.419345E-05
3.931316E+03	7.682990E-05	2.415325E-05
3.941218E+03	7.673539E-05	2.412282E-05
3.951121E+03	7.667151E-05	2.410201E-05
3.961024E+03	7.663776E-05	2.409067E-05
3.970926E+03	7.663245E-05	2.408826E-05
3.980829E+03	7.665519E-05	2.409467E-05
3.990731E+03	7.670553E-05	2.410974E-05
4.000634E+03	7.678312E-05	2.413337E-05
4.010536E+03	7.688696E-05	2.416525E-05
4.020439E+03	7.701609E-05	2.420507E-05
4.030341E+03	7.717025E-05	2.425274E-05
4.040244E+03	7.734850E-05	2.430797E-05
4.050147E+03	7.755055E-05	2.437068E-05
4.060049E+03	7.777554E-05	2.444058E-05
4.069952E+03	7.802322E-05	2.451761E-05
4.079854E+03	7.829275E-05	2.460149E-05
4.089757E+03	7.858335E-05	2.469197E-05
4.099659E+03	7.889483E-05	2.478901E-05
4.109562E+03	7.922633E-05	2.489232E-05
4.119464E+03	7.957777E-05	2.500188E-05
4.129367E+03	7.994773E-05	2.511725E-05
4.139270E+03	8.033611E-05	2.523839E-05
4.149172E+03	8.074149E-05	2.536486E-05
4.159075E+03	8.116441E-05	2.549682E-05
4.168977E+03	8.160353E-05	2.563385E-05
4.178880E+03	8.205874E-05	2.577592E-05
4.188782E+03	8.252803E-05	2.592240E-05
4.198685E+03	8.301200E-05	2.607346E-05
4.208587E+03	8.350858E-05	2.622848E-05
4.218490E+03	8.401842E-05	2.638764E-05
4.228393E+03	8.453940E-05	2.655027E-05
4.238295E+03	8.507016E-05	2.671596E-05
4.248198E+03	8.561127E-05	2.688488E-05
4.258100E+03	8.615995E-05	2.705616E-05
4.268003E+03	8.671679E-05	2.722998E-05
4.277905E+03	8.727894E-05	2.740544E-05
4.287808E+03	8.784696E-05	2.758273E-05
4.297711E+03	8.841934E-05	2.776136E-05
4.307613E+03	8.899454E-05	2.794086E-05
4.317516E+03	8.957240E-05	2.812117E-05
4.327418E+03	9.015210E-05	2.830203E-05
4.337321E+03	9.073419E-05	2.848363E-05
4.347223E+03	9.131713E-05	2.866546E-05
4.357126E+03	9.190224E-05	2.884795E-05
4.367028E+03	9.248951E-05	2.903110E-05
4.376931E+03	9.307885E-05	2.921488E-05
4.386834E+03	9.367030E-05	2.939929E-05
4.396736E+03	9.426463E-05	2.958458E-05
4.406639E+03	9.486109E-05	2.977052E-05
4.416541E+03	9.546060E-05	2.995738E-05
4.426444E+03	9.606321E-05	3.014520E-05
4.436346E+03	9.666911E-05	3.033402E-05
4.446249E+03	9.727769E-05	3.052366E-05
4.456151E+03	9.788914E-05	3.071417E-05
4.466054E+03	9.850283E-05	3.090536E-05
4.475957E+03	9.911990E-05	3.109758E-05
4.485859E+03	9.973897E-05	3.129040E-05
4.495762E+03	1.003604E-04	3.148392E-05
4.505664E+03	1.009844E-04	3.167824E-05
4.515567E+03	1.016097E-04	3.187294E-05
4.525469E+03	1.022376E-04	3.206843E-05
4.535372E+03	1.028669E-04	3.226429E-05
4.545274E+03	1.034978E-04	3.246067E-05
4.555177E+03	1.041292E-04	3.265717E-05
4.565080E+03	1.047625E-04	3.285423E-05
4.574982E+03	1.053974E-04	3.305174E-05
4.584885E+03	1.060326E-04	3.324934E-05
4.594787E+03	1.066688E-04	3.344720E-05
4.604690E+03	1.073066E-04	3.364555E-05
4.614592E+03	1.079458E-04	3.384431E-05
4.624495E+03	1.085853E-04	3.404311E-05
4.634398E+03	1.092278E-04	3.424284E-05
4.644300E+03	1.098741E-04	3.444373E-05
4.654203E+03	1.105233E-04	3.464547E-05
4.664105E+03	1.111762E-04	3.484838E-05
4.674008E+03	1.118340E-04	3.505274E-05
4.683910E+03	1.124945E-04	3.525795E-05
4.693813E+03	1.131589E-04	3.546434E-05
4.703715E+03	1.138262E-04	3.567158E-05
4.713618E+03	1.144974E-04	3.588004E-05
4.723521E+03	1.151727E-04	3.608975E-05
4.733423E+03	1.158512E-04	3.630041E-05
4.743326E+03	1.165341E-04	3.651240E-05
4.753228E+03	1.172203E-04	3.672541E-05
4.763131E+03	1.179112E-04	3.693986E-05
4.773033E+03	1.186059E-04	3.715544E-05
4.782936E+03	1.193045E-04	3.737221E-05
4.792838E+03	1.200072E-04	3.759023E-05
4.802741E+03	1.207154E-04	3.780991E-05
4.812644E+03	1.214280E-04	3.803097E-05
4.822546E+03	1.221455E-04	3.825348E-05
4.832449E+03	1.228667E-04	3.847715E-05
4.842351E+03	1.235943E-04	3.870274E-05
4.852254E+03	1.243272E-04	3.892999E-05
4.862156E+03	1.250658E-04	3.915895E-05
4.872059E+03	1.258090E-04	3.938931E-05
4.881961E+03	1.265582E-04	3.962152E-05
4.891864E+03	1.273124E-04	3.985525E-05
4.901767E+03	1.280718E-04	4.009056E-05
4.911669E+03	1.288378E-04	4.032788E-05
4.921572E+03	1.296092E-04	4.056687E-05
4.931474E+03	1.303863E-04	4.080758E-05
4.941377E+03	1.311679E-04	4.104964E-05
4.951279E+03	1.319554E-04	4.129349E-05
4.961182E+03	1.327487E-04	4.153913E-05
4.971085E+03	1.335467E-04	4.178620E-05
4.980987E+03	1.343495E-04	4.203468E-05
4.990890E+03	1.351569E-04	4.228458E-05
5.000792E+03	1.359677E-04	4.253550E-05
5.010695E+03	1.367832E-04	4.278781E-05
5.020597E+03	1.376031E-04	4.304148E-05
5.030500E+03	1.384249E-04	4.329564E-05
5.040402E+03	1.392495E-04	4.355068E-05
5.050305E+03	1.400769E-04	4.380651E-05
5.060208E+03	1.409055E-04	4.406266E-05
5.070110E+03	1.417350E-04	4.431904E-05
5.080013E+03	1.425652E-04	4.457556E-05
5.089915E+03	1.433956E-04	4.483211E-05
5.099818E+03	1.442245E-04	4.508814E-05
5.109720E+03	1.450529E-04	4.534396E-05
5.119623E+03	1.458777E-04	4.559857E-05
5.129525E+03	1.466996E-04	4.585222E-05
5.139428E+03	1.475167E-04	4.610434E-05
5.149331E+03	1.483285E-04	4.635471E-05
5.159233E+03	1.491343E-04	4.660317E-05
5.169136E+03	1.499335E-04	4.684951E-05
5.179038E+03	1.507225E-04	4.709260E-05
5.188941E+03	1.515035E-04	4.733314E-05
5.198843E+03	1.522744E-04	4.757043E-05
5.208746E+03	1.530342E-04	4.780424E-05
5.218648E+03	1.537808E-04	4.803383E-05
5.228551E+03	1.545133E-04	4.825897E-05
5.238454E+03	1.552309E-04	4.847938E-05
5.248356E+03	1.559326E-04	4.869481E-05
5.258259E+03	1.566178E-04	4.890498E-05
5.268161E+03	1.572838E-04	4.910914E-05
5.278064E+03	1.579331E-04	4.930801E-05
5.287966E+03	1.585617E-04	4.950035E-05
5.297869E+03	1.591687E-04	4.968589E-05
5.307772E+03	1.597564E-04	4.986539E-05
5.317674E+03	1.603211E-04	5.003760E-05
5.327577E+03	1.608650E-04	5.020330E-05
5.337479E+03	1.613859E-04	5.036176E-05
5.347382E+03	1.618848E-04	5.051329E-05
5.357284E+03	1.623594E-04	5.065719E-05
5.367187E+03	1.628123E-04	5.079430E-05
5.377089E+03	1.632416E-04	5.092395E-05
5.386992E+03	1.636482E-04	5.104651E-05
5.396895E+03	1.640286E-04	5.116082E-05
5.406797E+03	1.643839E-04	5.126727E-05
5.416700E+03	1.647123E-04	5.136526E-05
5.426602E+03	1.650117E-04	5.145418E-05
5.436505E+03	1.652835E-04	5.153447E-05
5.446407E+03	1.655243E-04	5.160503E-05
5.456310E+03	1.657322E-04	5.166529E-05
5.466212E+03	1.659071E-04	5.171522E-05
5.476115E+03	1.660456E-04	5.175377E-05
5.486018E+03	1.661492E-04	5.178142E-05
5.495920E+03	1.662130E-04	5.179663E-05
5.505823E+03	1.662405E-04	5.180047E-05
5.515725E+03	1.662300E-04	5.179244E-05
5.525628E+03	1.661799E-04	5.177208E-05
5.535530E+03	1.660906E-04	5.173946E-05
5.545433E+03	1.659623E-04	5.169465E-05
5.555335E+03	1.657935E-04	5.163723E-05
5.565238E+03	1.655880E-04	5.156836E-05
5.575141E+03	1.653428E-04	5.148711E-05
5.585043E+03	1.650619E-04	5.139470E-05
5.594946E+03	1.647422E-04	5.129023E-05
5.604848E+03	1.643877E-04	5.117491E-05
5.614751E+03	1.639991E-04	5.104895E-05
5.624653E+03	1.635752E-04	5.091201E-05
5.634556E+03	1.631185E-04	5.076485E-05
5.644459E+03	1.626297E-04	5.060770E-05
5.654361E+03	1.621112E-04	5.044133E-05
5.664264E+03	1.615641E-04	5.026602E-05
5.674166E+03	1.609872E-04	5.008150E-05
5.684069E+03	1.603852E-04	4.988912E-05
5.693971E+03	1.597588E-04	4.968920E-05
5.703874E+03	1.591074E-04	4.948151E-05
5.713776E+03	1.584339E-04	4.926692E-05
5.723679E+03	1.577408E-04	4.904630E-05
5.733582E+03	1.570295E-04	4.882000E-05
5.743484E+03	1.562993E-04	4.858788E-05
5.753387E+03	1.555533E-04	4.835083E-05
5.763289E+03	1.547943E-04	4.810976E-05
5.773192E+03	1.540235E-04	4.786506E-05
5.783094E+03	1.532406E-04	4.761662E-05
5.792997E+03	1.524486E-04	4.736538E-05
5.802899E+03	1.516489E-04	4.711175E-05
5.812802E+03	1.508444E-04	4.685665E-05
5.822705E+03	1.500364E-04	4.660053E-05
5.832607E+03	1.492248E-04	4.634328E-05
5.842510E+03	1.484125E-04	4.608584E-05
5.852412E+03	1.475991E-04	4.582812E-05
5.862315E+03	1.467911E-04	4.557207E-05
5.872217E+03	1.459847E-04	4.531656E-05
5.882120E+03	1.451829E-04	4.506251E-05
5.892022E+03	1.443887E-04	4.481083E-05
5.901925E+03	1.436016E-04	4.456140E-05
5.911828E+03	1.428229E-04	4.431457E-05
5.921730E+03	1.420554E-04	4.407125E-05
5.931633E+03	1.412984E-04	4.383126E-05
5.941535E+03	1.405549E-04	4.359545E-05
5.951438E+03	1.398227E-04	4.336315E-05
5.961340E+03	1.391058E-04	4.313566E-05
5.971243E+03	1.384021E-04	4.291228E-05
5.981146E+03	1.377158E-04	4.269428E-05
5.991048E+03	1.370427E-04	4.248044E-05
6.000951E+03	1.363870E-04	4.227199E-05
6.010853E+03	1.357477E-04	4.206868E-05
6.020756E+03	1.351257E-04	4.187070E-05
6.030658E+03	1.345182E-04	4.167727E-05
6.040561E+03	1.339292E-04	4.148958E-05
6.050463E+03	1.333543E-04	4.130628E-05
6.060366E+03	1.327973E-04	4.112852E-05
6.070269E+03	1.322537E-04	4.095493E-05
6.080171E+03	1.317239E-04	4.078564E-05
6.090074E+03	1.312066E-04	4.062024E-05
6.099976E+03	1.307022E-04	4.045882E-05
6.109879E+03	1.302058E-04	4.029992E-05
6.119781E+03	1.297177E-04	4.014360E-05
6.129684E+03	1.292364E-04	3.998937E-05
6.139586E+03	1.287617E-04	3.983723E-05
6.149489E+03	1.282938E-04	3.968717E-05
6.159392E+03	1.278357E-04	3.954018E-05
6.169294E+03	1.273923E-04	3.939773E-05
6.179197E+03	1.269651E-04	3.926030E-05
6.189099E+03	1.265573E-04	3.912887E-05
6.199002E+03	1.261720E-04	3.900441E-05
6.208904E+03	1.258107E-04	3.888737E-05
6.218807E+03	1.254766E-04	3.877875E-05
6.228709E+03	1.251713E-04	3.867902E-05
6.238612E+03	1.248963E-04	3.858867E-05
6.248515E+03	1.246549E-04	3.850870E-05
6.258417E+03	1.244471E-04	3.843908E-05
6.268320E+03	1.242762E-04	3.838085E-05
6.278222E+03	1.241405E-04	3.833347E-05
6.288125E+03	1.240416E-04	3.829746E-05
6.298027E+03	1.239796E-04	3.827282E-05
6.307930E+03	1.239563E-04	3.826008E-05
6.317833E+03	1.239699E-04	3.825873E-05
6.327735E+03	1.240205E-04	3.826875E-05
6.337638E+03	1.241063E-04	3.828963E-05
6.347540E+03	1.242238E-04	3.832023E-05
6.357443E+03	1.243712E-04	3.836000E-05
6.367345E+03	1.245483E-04	3.840890E-05
6.377248E+03	1.247550E-04	3.846691E-05
6.387150E+03	1.249915E-04	3.853402E-05
6.397053E+03	1.252593E-04	3.861075E-05
6.406956E+03	1.255604E-04	3.869771E-05
6.416858E+03	1.258950E-04	3.879490E-05
6.426761E+03	1.262610E-04	3.890173E-05
6.436663E+03	1.266625E-04	3.901942E-05
6.446566E+03	1.270995E-04	3.914799E-05
6.456468E+03	1.275703E-04	3.928690E-05
6.466371E+03	1.280769E-04	3.943676E-05
6.476273E+03	1.286195E-04	3.959764E-05
6.486176E+03	1.291964E-04	3.976899E-05
6.496079E+03	1.298077E-04	3.995081E-05
6.505981E+03	1.304577E-04	4.014448E-05
6.515884E+03	1.311404E-04	4.034811E-05
6.525786E+03	1.318601E-04	4.056307E-05
6.535689E+03	1.326174E-04	4.078944E-05
6.545591E+03	1.334080E-04	4.102596E-05
6.555494E+03	1.342365E-04	4.127404E-05
6.565396E+03	1.350988E-04	4.153241E-05
6.575299E+03	1.359998E-04	4.180252E-05
6.585202E+03	1.369351E-04	4.208307E-05
6.595104E+03	1.379072E-04	4.237483E-05
6.605007E+03	1.389166E-04	4.267791E-05
6.614909E+03	1.399612E-04	4.299166E-05
6.624812E+03	1.410413E-04	4.331617E-05
6.634714E+03	1.421596E-04	4.365227E-05
6.644617E+03	1.433140E-04	4.399932E-05
6.654520E+03	1.445049E-04	4.435740E-05
6.664422E+03	1.457324E-04	4.472660E-05
6.674325E+03	1.469971E-04	4.510701E-05
6.684227E+03	1.482991E-04	4.549875E-05
6.694130E+03	1.496390E-04	4.590192E-05
6.704032E+03	1.510144E-04	4.631579E-05
6.713935E+03	1.524282E-04	4.674128E-05
6.723837E+03	1.538808E-04	4.717850E-05
6.733740E+03	1.553699E-04	4.762671E-05
6.743643E+03	1.568987E-04	4.808686E-05
6.753545E+03	1.584645E-04	4.855820E-05
6.763448E+03	1.600679E-04	4.904083E-05
6.773350E+03	1.617090E-04	4.953481E-05
6.783253E+03	1.633882E-04	5.004025E-05
6.793155E+03	1.651088E-04	5.055817E-05
6.803058E+03	1.668653E-04	5.108682E-05
6.812960E+03	1.686608E-04	5.162722E-05
6.822863E+03	1.704958E-04	5.217945E-05
6.832766E+03	1.723673E-04	5.274263E-05
6.842668E+03	1.742788E-04	5.331781E-05
6.852571E+03	1.762308E-04	5.390510E-05
6.862473E+03	1.782200E-04	5.450356E-05
6.872376E+03	1.802469E-04	5.511325E-05
6.882278E+03	1.823149E-04	5.573528E-05
6.892181E+03	1.844210E-04	5.636867E-05
6.902083E+03	1.865654E-04	5.701346E-05
6.911986E+03	1.887480E-04	5.766970E-05
6.921889E+03	1.909693E-04	5.833745E-05
6.931791E+03	1.932256E-04	5.901561E-05
6.941694E+03	1.955245E-04	5.970646E-05
6.951596E+03	1.978586E-04	6.040776E-05
6.961499E+03	2.002317E-04	6.112069E-05
6.971401E+03	2.026400E-04	6.184404E-05
6.981304E+03	2.050835E-04	6.257781E-05
6.991207E+03	2.075661E-04	6.332321E-05
7.001109E+03	2.100839E-04	6.407898E-05
7.011012E+03	2.126323E-04	6.484379E-05
7.020914E+03	2.152198E-04	6.562017E-05
7.030817E+03	2.178419E-04	6.640677E-05
7.040719E+03	2.204942E-04	6.720220E-05
7.050622E+03	2.231806E-04	6.800769E-05
7.060524E+03	2.258964E-04	6.882178E-05
7.070427E+03	2.286457E-04	6.964574E-05
7.080330E+03	2.314237E-04	7.047804E-05
7.090232E+03	2.342346E-04	7.132000E-05
7.100135E+03	2.370682E-04	7.216853E-05
7.110037E+03	2.399289E-04	7.302489E-05
7.119940E+03	2.428210E-04	7.389046E-05
7.129842E+03	2.457339E-04	7.476196E-05
7.139745E+03	2.486668E-04	7.563913E-05
7.149647E+03	2.516239E-04	7.652330E-05
7.159550E+03	2.546046E-04	7.741425E-05
7.169453E+03	2.576027E-04	7.831007E-05
7.179355E+03	2.606226E-04	7.921215E-05
7.189258E+03	2.636580E-04	8.011851E-05
7.199160E+03	2.667077E-04	8.102882E-05
7.209063E+03	2.697764E-04	8.194451E-05
7.218965E+03	2.728574E-04	8.286351E-05
7.228868E+03	2.759555E-04	8.378726E-05
7.238770E+03	2.790635E-04	8.471363E-05
7.248673E+03	2.821802E-04	8.564224E-05
7.258576E+03	2.853170E-04	8.657651E-05
7.268478E+03	2.884603E-04	8.751233E-05
7.278381E+03	2.916218E-04	8.845326E-05
7.288283E+03	2.947941E-04	8.939704E-05
7.298186E+03	2.979828E-04	9.034538E-05
7.308088E+03	3.011940E-04	9.130009E-05
7.317991E+03	3.044202E-04	9.225894E-05
7.327894E+03	3.076746E-04	9.322590E-05
7.337796E+03	3.109572E-04	9.420094E-05
7.347699E+03	3.142748E-04	9.518617E-05
7.357601E+03	3.176276E-04	9.618161E-05
7.367504E+03	3.210157E-04	9.718732E-05
7.377406E+03	3.244470E-04	9.820561E-05
7.387309E+03	3.279066E-04	9.923202E-05
7.397211E+03	3.313943E-04	1.002665E-04
7.407114E+03	3.349023E-04	1.013066E-04
7.417017E+03	3.384379E-04	1.023547E-04
7.426919E+03	3.419932E-04	1.034082E-04
7.436822E+03	3.455591E-04	1.044645E-04
7.446724E+03	3.491353E-04	1.055234E-04
7.456627E+03	3.527204E-04	1.065845E-04
7.466529E+03	3.563051E-04	1.076450E-04
7.476432E+03	3.598970E-04	1.087073E-04
7.486334E+03	3.634774E-04	1.097656E-04
7.496237E+03	3.670628E-04	1.108249E-04
7.506140E+03	3.706423E-04	1.118821E-04
7.516042E+03	3.742151E-04	1.129367E-04
7.525945E+03	3.777700E-04	1.139854E-04
7.535847E+03	3.813144E-04	1.150306E-04
7.545750E+03	3.848467E-04	1.160716E-04
7.555652E+03	3.883652E-04	1.171081E-04
7.565555E+03	3.918581E-04	1.181363E-04
7.575457E+03	3.953329E-04	1.191587E-04
7.585360E+03	3.987778E-04	1.201717E-04
7.595263E+03	4.022104E-04	1.211804E-04
7.605165E+03	4.055979E-04	1.221753E-04
7.615068E+03	4.089684E-04	1.231645E-04
7.624970E+03	4.123098E-04	1.241446E-04
7.634873E+03	4.156082E-04	1.251113E-04
7.644775E+03	4.188725E-04	1.260674E-04
7.654678E+03	4.220989E-04	1.270116E-04
7.664581E+03	4.252859E-04	1.279437E-04
7.674483E+03	4.284300E-04	1.288624E-04
7.684386E+03	4.315401E-04	1.297705E-04
