#wls	flux	fluxerr
1.584409E+03	2.960867E-03	1.378425E-03
1.624020E+03	3.058694E-03	1.423718E-03
1.663630E+03	3.154639E-03	1.468103E-03
1.703240E+03	3.248336E-03	1.511407E-03
1.742850E+03	3.338398E-03	1.552984E-03
1.782461E+03	3.424247E-03	1.592564E-03
1.822071E+03	3.504598E-03	1.629549E-03
1.861681E+03	3.578671E-03	1.663576E-03
1.901291E+03	3.645302E-03	1.694105E-03
1.940902E+03	3.703263E-03	1.720565E-03
1.980512E+03	3.750747E-03	1.742119E-03
2.020122E+03	3.786527E-03	1.758200E-03
2.059732E+03	3.809166E-03	1.768146E-03
2.099342E+03	3.816618E-03	1.771009E-03
2.138953E+03	3.807126E-03	1.765984E-03
2.178563E+03	3.778644E-03	1.752128E-03
2.218173E+03	3.729475E-03	1.728665E-03
2.257783E+03	3.659370E-03	1.695491E-03
2.297394E+03	3.568947E-03	1.652904E-03
2.337004E+03	3.460920E-03	1.602175E-03
2.376614E+03	3.337721E-03	1.544442E-03
2.416224E+03	3.201555E-03	1.480737E-03
2.455835E+03	3.054837E-03	1.412187E-03
2.495445E+03	2.899479E-03	1.339686E-03
2.535055E+03	2.737162E-03	1.264021E-03
2.574665E+03	2.569939E-03	1.186147E-03
2.614276E+03	2.399353E-03	1.106785E-03
2.653886E+03	2.227224E-03	1.026781E-03
2.693496E+03	2.055099E-03	9.468519E-04
2.733106E+03	1.884797E-03	8.678415E-04
2.772716E+03	1.717875E-03	7.904690E-04
2.812327E+03	1.555980E-03	7.154926E-04
2.851937E+03	1.400671E-03	6.436291E-04
2.891547E+03	1.253377E-03	5.755327E-04
2.931157E+03	1.115341E-03	5.117702E-04
2.970768E+03	9.875386E-04	4.527833E-04
2.980670E+03	9.572624E-04	4.388166E-04
2.990573E+03	9.276846E-04	4.251748E-04
3.000475E+03	8.987857E-04	4.118487E-04
3.010378E+03	8.706059E-04	3.988568E-04
3.020280E+03	8.431235E-04	3.861889E-04
3.030183E+03	8.163374E-04	3.738445E-04
3.040086E+03	7.902458E-04	3.618223E-04
3.049988E+03	7.648778E-04	3.501358E-04
3.059891E+03	7.401963E-04	3.387678E-04
3.069793E+03	7.162267E-04	3.277296E-04
3.079696E+03	6.929475E-04	3.170114E-04
3.089598E+03	6.703656E-04	3.066162E-04
3.099501E+03	6.484725E-04	2.965398E-04
3.109403E+03	6.272597E-04	2.867783E-04
3.119306E+03	6.067179E-04	2.773273E-04
3.129209E+03	5.868487E-04	2.681872E-04
3.139111E+03	5.676304E-04	2.593482E-04
3.149014E+03	5.490630E-04	2.508099E-04
3.158916E+03	5.311343E-04	2.425666E-04
3.168819E+03	5.138327E-04	2.346129E-04
3.178721E+03	4.971542E-04	2.269470E-04
3.188624E+03	4.810686E-04	2.195546E-04
3.198526E+03	4.655882E-04	2.124414E-04
3.208429E+03	4.506751E-04	2.055899E-04
3.218332E+03	4.363386E-04	1.990041E-04
3.228234E+03	4.225501E-04	1.926710E-04
3.238137E+03	4.093024E-04	1.865870E-04
3.248039E+03	3.965814E-04	1.807457E-04
3.257942E+03	3.843667E-04	1.751375E-04
3.267844E+03	3.726560E-04	1.697612E-04
3.277747E+03	3.614235E-04	1.646050E-04
3.287650E+03	3.506555E-04	1.596626E-04
3.297552E+03	3.403486E-04	1.549321E-04
3.307455E+03	3.304786E-04	1.504026E-04
3.317357E+03	3.210320E-04	1.460676E-04
3.327260E+03	3.119958E-04	1.419213E-04
3.337162E+03	3.033612E-04	1.379594E-04
3.347065E+03	2.951066E-04	1.341720E-04
3.356967E+03	2.872202E-04	1.305537E-04
3.366870E+03	2.796936E-04	1.271005E-04
3.376773E+03	2.725111E-04	1.238051E-04
3.386675E+03	2.656611E-04	1.206623E-04
3.396578E+03	2.591260E-04	1.176638E-04
3.406480E+03	2.528984E-04	1.148063E-04
3.416383E+03	2.469684E-04	1.120852E-04
3.426285E+03	2.413196E-04	1.094929E-04
3.436188E+03	2.359429E-04	1.070252E-04
3.446090E+03	2.308266E-04	1.046767E-04
3.455993E+03	2.259651E-04	1.024448E-04
3.465896E+03	2.213420E-04	1.003220E-04
3.475798E+03	2.169525E-04	9.830604E-05
3.485701E+03	2.127840E-04	9.639116E-05
3.495603E+03	2.088278E-04	9.457326E-05
3.505506E+03	2.050750E-04	9.284828E-05
3.515408E+03	2.015152E-04	9.121149E-05
3.525311E+03	1.981432E-04	8.966039E-05
3.535213E+03	1.949472E-04	8.818965E-05
3.545116E+03	1.919206E-04	8.679620E-05
3.555019E+03	1.890590E-04	8.547800E-05
3.564921E+03	1.863545E-04	8.423144E-05
3.574824E+03	1.838012E-04	8.305376E-05
3.584726E+03	1.813920E-04	8.194168E-05
3.594629E+03	1.791199E-04	8.089204E-05
3.604531E+03	1.769802E-04	7.990269E-05
3.614434E+03	1.749651E-04	7.896997E-05
3.624337E+03	1.730721E-04	7.809278E-05
3.634239E+03	1.712937E-04	7.726770E-05
3.644142E+03	1.696264E-04	7.649308E-05
3.654044E+03	1.680683E-04	7.576799E-05
3.663947E+03	1.666127E-04	7.508941E-05
3.673849E+03	1.652562E-04	7.445581E-05
3.683752E+03	1.639989E-04	7.386711E-05
3.693654E+03	1.628359E-04	7.332113E-05
3.703557E+03	1.617642E-04	7.281647E-05
3.713460E+03	1.607839E-04	7.235311E-05
3.723362E+03	1.598903E-04	7.192894E-05
3.733265E+03	1.590822E-04	7.154335E-05
3.743167E+03	1.583592E-04	7.119617E-05
3.753070E+03	1.577186E-04	7.088613E-05
3.762972E+03	1.571589E-04	7.061252E-05
3.772875E+03	1.566787E-04	7.037468E-05
3.782777E+03	1.562764E-04	7.017184E-05
3.792680E+03	1.559519E-04	7.000399E-05
3.802583E+03	1.557026E-04	6.986984E-05
3.812485E+03	1.555280E-04	6.976922E-05
3.822388E+03	1.554284E-04	6.970214E-05
3.832290E+03	1.554008E-04	6.966730E-05
3.842193E+03	1.554438E-04	6.966406E-05
3.852095E+03	1.555585E-04	6.969280E-05
3.861998E+03	1.557436E-04	6.975294E-05
3.871900E+03	1.559962E-04	6.984318E-05
3.881803E+03	1.563175E-04	6.996401E-05
3.891706E+03	1.567073E-04	7.011526E-05
3.901608E+03	1.571614E-04	7.029512E-05
3.911511E+03	1.576812E-04	7.050411E-05
3.921413E+03	1.582661E-04	7.074195E-05
3.931316E+03	1.589148E-04	7.100806E-05
3.941218E+03	1.596244E-04	7.130107E-05
3.951121E+03	1.603970E-04	7.162194E-05
3.961024E+03	1.612302E-04	7.196950E-05
3.970926E+03	1.621219E-04	7.234287E-05
3.980829E+03	1.630734E-04	7.274251E-05
3.990731E+03	1.640815E-04	7.316706E-05
4.000634E+03	1.651476E-04	7.361702E-05
4.010536E+03	1.662671E-04	7.409038E-05
4.020439E+03	1.674423E-04	7.458815E-05
4.030341E+03	1.686705E-04	7.510903E-05
4.040244E+03	1.699499E-04	7.565227E-05
4.050147E+03	1.712815E-04	7.621824E-05
4.060049E+03	1.726611E-04	7.680508E-05
4.069952E+03	1.740911E-04	7.741377E-05
4.079854E+03	1.755672E-04	7.804247E-05
4.089757E+03	1.770894E-04	7.869104E-05
4.099659E+03	1.786571E-04	7.935931E-05
4.109562E+03	1.802676E-04	8.004600E-05
4.119464E+03	1.819209E-04	8.075108E-05
4.129367E+03	1.836153E-04	8.147379E-05
4.139270E+03	1.853481E-04	8.221289E-05
4.149172E+03	1.871204E-04	8.296887E-05
4.159075E+03	1.889280E-04	8.373987E-05
4.168977E+03	1.907725E-04	8.452653E-05
4.178880E+03	1.926493E-04	8.532683E-05
4.188782E+03	1.945585E-04	8.614078E-05
4.198685E+03	1.964989E-04	8.696781E-05
4.208587E+03	1.984657E-04	8.780582E-05
4.218490E+03	2.004607E-04	8.865558E-05
4.228393E+03	2.024808E-04	8.951573E-05
4.238295E+03	2.045232E-04	9.038493E-05
4.248198E+03	2.065847E-04	9.126185E-05
4.258100E+03	2.086654E-04	9.214650E-05
4.268003E+03	2.107639E-04	9.303825E-05
4.277905E+03	2.128737E-04	9.393418E-05
4.287808E+03	2.149968E-04	9.483521E-05
4.297711E+03	2.171263E-04	9.573828E-05
4.307613E+03	2.192642E-04	9.664425E-05
4.317516E+03	2.214054E-04	9.755088E-05
4.327418E+03	2.235499E-04	9.845820E-05
4.337321E+03	2.256982E-04	9.936637E-05
4.347223E+03	2.278503E-04	1.002754E-04
4.357126E+03	2.300063E-04	1.011854E-04
4.367028E+03	2.321686E-04	1.020973E-04
4.376931E+03	2.343390E-04	1.030120E-04
4.386834E+03	2.365180E-04	1.039296E-04
4.396736E+03	2.387079E-04	1.048513E-04
4.406639E+03	2.409073E-04	1.057763E-04
4.416541E+03	2.431207E-04	1.067066E-04
4.426444E+03	2.453467E-04	1.076416E-04
4.436346E+03	2.475861E-04	1.085817E-04
4.446249E+03	2.498395E-04	1.095271E-04
4.456151E+03	2.521079E-04	1.104782E-04
4.466054E+03	2.543921E-04	1.114354E-04
4.475957E+03	2.566931E-04	1.123991E-04
4.485859E+03	2.590075E-04	1.133677E-04
4.495762E+03	2.613407E-04	1.143438E-04
4.505664E+03	2.636893E-04	1.153257E-04
4.515567E+03	2.660544E-04	1.163139E-04
4.525469E+03	2.684347E-04	1.173078E-04
4.535372E+03	2.708340E-04	1.183092E-04
4.545274E+03	2.732510E-04	1.193173E-04
4.555177E+03	2.756824E-04	1.203308E-04
4.565080E+03	2.781343E-04	1.213523E-04
4.574982E+03	2.806032E-04	1.223802E-04
4.584885E+03	2.830882E-04	1.234142E-04
4.594787E+03	2.855934E-04	1.244560E-04
4.604690E+03	2.881206E-04	1.255064E-04
4.614592E+03	2.906637E-04	1.265628E-04
4.624495E+03	2.932300E-04	1.276281E-04
4.634398E+03	2.958188E-04	1.287023E-04
4.644300E+03	2.984298E-04	1.297851E-04
4.654203E+03	3.010651E-04	1.308774E-04
4.664105E+03	3.037246E-04	1.319791E-04
4.674008E+03	3.064109E-04	1.330914E-04
4.683910E+03	3.091184E-04	1.342117E-04
4.693813E+03	3.118497E-04	1.353413E-04
4.703715E+03	3.146079E-04	1.364814E-04
4.713618E+03	3.173842E-04	1.376282E-04
4.723521E+03	3.201849E-04	1.387845E-04
4.733423E+03	3.230069E-04	1.399488E-04
4.743326E+03	3.258475E-04	1.411199E-04
4.753228E+03	3.287130E-04	1.423006E-04
4.763131E+03	3.315943E-04	1.434869E-04
4.773033E+03	3.345007E-04	1.446829E-04
4.782936E+03	3.374231E-04	1.458845E-04
4.792838E+03	3.403678E-04	1.470945E-04
4.802741E+03	3.433284E-04	1.483100E-04
4.812644E+03	3.463114E-04	1.495340E-04
4.822546E+03	3.493102E-04	1.507634E-04
4.832449E+03	3.523278E-04	1.519997E-04
4.842351E+03	3.553641E-04	1.532426E-04
4.852254E+03	3.584154E-04	1.544907E-04
4.862156E+03	3.614810E-04	1.557436E-04
4.872059E+03	3.645607E-04	1.570011E-04
4.881961E+03	3.676570E-04	1.582644E-04
4.891864E+03	3.707622E-04	1.595301E-04
4.901767E+03	3.738825E-04	1.608008E-04
4.911669E+03	3.770096E-04	1.620730E-04
4.921572E+03	3.801456E-04	1.633477E-04
4.931474E+03	3.832855E-04	1.646225E-04
4.941377E+03	3.864273E-04	1.658966E-04
4.951279E+03	3.895689E-04	1.671692E-04
4.961182E+03	3.927120E-04	1.684409E-04
4.971085E+03	3.958461E-04	1.697073E-04
4.980987E+03	3.989722E-04	1.709687E-04
4.990890E+03	4.020832E-04	1.722222E-04
5.000792E+03	4.051793E-04	1.734677E-04
5.010695E+03	4.082526E-04	1.747019E-04
5.020597E+03	4.112946E-04	1.759213E-04
5.030500E+03	4.143049E-04	1.771255E-04
5.040402E+03	4.172782E-04	1.783124E-04
5.050305E+03	4.202050E-04	1.794779E-04
5.060208E+03	4.230757E-04	1.806180E-04
5.070110E+03	4.258922E-04	1.817335E-04
5.080013E+03	4.286398E-04	1.828180E-04
5.089915E+03	4.313121E-04	1.838690E-04
5.099818E+03	4.339017E-04	1.848834E-04
5.109720E+03	4.364017E-04	1.858581E-04
5.119623E+03	4.388002E-04	1.867884E-04
5.129525E+03	4.410942E-04	1.876727E-04
5.139428E+03	4.432670E-04	1.885042E-04
5.149331E+03	4.453152E-04	1.892815E-04
5.159233E+03	4.472221E-04	1.899975E-04
5.169136E+03	4.489883E-04	1.906526E-04
5.179038E+03	4.505972E-04	1.912398E-04
5.188941E+03	4.520453E-04	1.917578E-04
5.198843E+03	4.533158E-04	1.921994E-04
5.208746E+03	4.544058E-04	1.925636E-04
5.218648E+03	4.553079E-04	1.928474E-04
5.228551E+03	4.560063E-04	1.930442E-04
5.238454E+03	4.564945E-04	1.931513E-04
5.248356E+03	4.567715E-04	1.931685E-04
5.258259E+03	4.568276E-04	1.930919E-04
5.268161E+03	4.566543E-04	1.929179E-04
5.278064E+03	4.562485E-04	1.926454E-04
5.287966E+03	4.556082E-04	1.922738E-04
5.297869E+03	4.547328E-04	1.918028E-04
5.307772E+03	4.536185E-04	1.912312E-04
5.317674E+03	4.522722E-04	1.905619E-04
5.327577E+03	4.506932E-04	1.897948E-04
5.337479E+03	4.488918E-04	1.889344E-04
5.347382E+03	4.468709E-04	1.879822E-04
5.357284E+03	4.446485E-04	1.869457E-04
5.367187E+03	4.422400E-04	1.858316E-04
5.377089E+03	4.396535E-04	1.846436E-04
5.386992E+03	4.369166E-04	1.833931E-04
5.396895E+03	4.340448E-04	1.820870E-04
5.406797E+03	4.310381E-04	1.807253E-04
5.416700E+03	4.279281E-04	1.793213E-04
5.426602E+03	4.247257E-04	1.778796E-04
5.436505E+03	4.214434E-04	1.764057E-04
5.446407E+03	4.180986E-04	1.749068E-04
5.456310E+03	4.147051E-04	1.733887E-04
5.466212E+03	4.112773E-04	1.718575E-04
5.476115E+03	4.078380E-04	1.703229E-04
5.486018E+03	4.044020E-04	1.687908E-04
5.495920E+03	4.009957E-04	1.672725E-04
5.505823E+03	3.976409E-04	1.657769E-04
5.515725E+03	3.943551E-04	1.643113E-04
5.525628E+03	3.911622E-04	1.628857E-04
5.535530E+03	3.880812E-04	1.615078E-04
5.545433E+03	3.851300E-04	1.601851E-04
5.555335E+03	3.823287E-04	1.589258E-04
5.565238E+03	3.796922E-04	1.577359E-04
5.575141E+03	3.772338E-04	1.566210E-04
5.585043E+03	3.749688E-04	1.555872E-04
5.594946E+03	3.729072E-04	1.546386E-04
5.604848E+03	3.710614E-04	1.537800E-04
5.614751E+03	3.694382E-04	1.530143E-04
5.624653E+03	3.680428E-04	1.523433E-04
5.634556E+03	3.668833E-04	1.517703E-04
5.644459E+03	3.659624E-04	1.512962E-04
5.654361E+03	3.652817E-04	1.509214E-04
5.664264E+03	3.648460E-04	1.506479E-04
5.674166E+03	3.646549E-04	1.504751E-04
5.684069E+03	3.647118E-04	1.504044E-04
5.693971E+03	3.650115E-04	1.504335E-04
5.703874E+03	3.655603E-04	1.505646E-04
5.713776E+03	3.663526E-04	1.507953E-04
5.723679E+03	3.673866E-04	1.511247E-04
5.733582E+03	3.686682E-04	1.515550E-04
5.743484E+03	3.701879E-04	1.520822E-04
5.753387E+03	3.719518E-04	1.527084E-04
5.763289E+03	3.739587E-04	1.534331E-04
5.773192E+03	3.762072E-04	1.542555E-04
5.783094E+03	3.786920E-04	1.551731E-04
5.792997E+03	3.814206E-04	1.561889E-04
5.802899E+03	3.843877E-04	1.573006E-04
5.812802E+03	3.875969E-04	1.585092E-04
5.822705E+03	3.910473E-04	1.598144E-04
5.832607E+03	3.947341E-04	1.612140E-04
5.842510E+03	3.986603E-04	1.627089E-04
5.852412E+03	4.028297E-04	1.643005E-04
5.862315E+03	4.072318E-04	1.659843E-04
5.872217E+03	4.118696E-04	1.677614E-04
5.882120E+03	4.167412E-04	1.696307E-04
5.892022E+03	4.218491E-04	1.715931E-04
5.901925E+03	4.271808E-04	1.736434E-04
5.911828E+03	4.327428E-04	1.757838E-04
5.921730E+03	4.385215E-04	1.780088E-04
5.931633E+03	4.445174E-04	1.803183E-04
5.941535E+03	4.507252E-04	1.827100E-04
5.951438E+03	4.571342E-04	1.851793E-04
5.961340E+03	4.637428E-04	1.877255E-04
5.971243E+03	4.705333E-04	1.903411E-04
5.981146E+03	4.775085E-04	1.930272E-04
5.991048E+03	4.846428E-04	1.957732E-04
6.000951E+03	4.919377E-04	1.985797E-04
6.010853E+03	4.993713E-04	2.014376E-04
6.020756E+03	5.069383E-04	2.043446E-04
6.030658E+03	5.146145E-04	2.072909E-04
6.040561E+03	5.223872E-04	2.102713E-04
6.050463E+03	5.302365E-04	2.132776E-04
6.060366E+03	5.381480E-04	2.163040E-04
6.070269E+03	5.460942E-04	2.193394E-04
6.080171E+03	5.540526E-04	2.223747E-04
6.090074E+03	5.620073E-04	2.254036E-04
6.099976E+03	5.699353E-04	2.284168E-04
6.109879E+03	5.777989E-04	2.313991E-04
6.119781E+03	5.855810E-04	2.343439E-04
6.129684E+03	5.932573E-04	2.372415E-04
6.139586E+03	6.008112E-04	2.400852E-04
6.149489E+03	6.082337E-04	2.428717E-04
6.159392E+03	6.155174E-04	2.455981E-04
6.169294E+03	6.226638E-04	2.482651E-04
6.179197E+03	6.296928E-04	2.508807E-04
6.189099E+03	6.366024E-04	2.534444E-04
6.199002E+03	6.433841E-04	2.559527E-04
6.208904E+03	6.500639E-04	2.584161E-04
6.218807E+03	6.566451E-04	2.608361E-04
6.228709E+03	6.631147E-04	2.632075E-04
6.238612E+03	6.695048E-04	2.655433E-04
6.248515E+03	6.757956E-04	2.678355E-04
6.258417E+03	6.820134E-04	2.700948E-04
6.268320E+03	6.881492E-04	2.723175E-04
6.278222E+03	6.942127E-04	2.745077E-04
6.288125E+03	7.002053E-04	2.766659E-04
6.298027E+03	7.061286E-04	2.787929E-04
6.307930E+03	7.119850E-04	2.808895E-04
6.317833E+03	7.177666E-04	2.829528E-04
6.327735E+03	7.234655E-04	2.849798E-04
6.337638E+03	7.290943E-04	2.869753E-04
6.347540E+03	7.346346E-04	2.889323E-04
6.357443E+03	7.400991E-04	2.908558E-04
6.367345E+03	7.454797E-04	2.927427E-04
6.377248E+03	7.507785E-04	2.945940E-04
6.387150E+03	7.560091E-04	2.964149E-04
6.397053E+03	7.611970E-04	2.982156E-04
6.406956E+03	7.663461E-04	2.999977E-04
6.416858E+03	7.714719E-04	3.017671E-04
6.426761E+03	7.765903E-04	3.035302E-04
6.436663E+03	7.816946E-04	3.052844E-04
6.446566E+03	7.868130E-04	3.070406E-04
6.456468E+03	7.919509E-04	3.088010E-04
6.466371E+03	7.971010E-04	3.105627E-04
6.476273E+03	8.022930E-04	3.123372E-04
6.486176E+03	8.075195E-04	3.141216E-04
6.496079E+03	8.127727E-04	3.159130E-04
6.505981E+03	8.180824E-04	3.177227E-04
6.515884E+03	8.234405E-04	3.195477E-04
6.525786E+03	8.288513E-04	3.213895E-04
6.535689E+03	8.343322E-04	3.232548E-04
6.545591E+03	8.398602E-04	3.251347E-04
6.555494E+03	8.454378E-04	3.270302E-04
6.565396E+03	8.510961E-04	3.289531E-04
6.575299E+03	8.568096E-04	3.308936E-04
6.585202E+03	8.625806E-04	3.328525E-04
6.595104E+03	8.684251E-04	3.348360E-04
6.605007E+03	8.743302E-04	3.368390E-04
6.614909E+03	8.802967E-04	3.388617E-04
6.624812E+03	8.863403E-04	3.409101E-04
6.634714E+03	8.924311E-04	3.429728E-04
6.644617E+03	8.985684E-04	3.450494E-04
6.654520E+03	9.047824E-04	3.471514E-04
6.664422E+03	9.110411E-04	3.492666E-04
6.674325E+03	9.173429E-04	3.513942E-04
6.684227E+03	9.237017E-04	3.535396E-04
6.694130E+03	9.300994E-04	3.556959E-04
6.704032E+03	9.365334E-04	3.578619E-04
6.713935E+03	9.430008E-04	3.600366E-04
6.723837E+03	9.494982E-04	3.622187E-04
6.733740E+03	9.560055E-04	3.644005E-04
6.743643E+03	9.625356E-04	3.665869E-04
6.753545E+03	9.690849E-04	3.687765E-04
6.763448E+03	9.756319E-04	3.709612E-04
6.773350E+03	9.821898E-04	3.731461E-04
6.783253E+03	9.887368E-04	3.753227E-04
6.793155E+03	9.952678E-04	3.774894E-04
6.803058E+03	1.001778E-03	3.796444E-04
6.812960E+03	1.008245E-03	3.817788E-04
6.822863E+03	1.014701E-03	3.839051E-04
6.832766E+03	1.021122E-03	3.860147E-04
6.842668E+03	1.027485E-03	3.880985E-04
6.852571E+03	1.033804E-03	3.901621E-04
6.862473E+03	1.040055E-03	3.921966E-04
6.872376E+03	1.046235E-03	3.942003E-04
6.882278E+03	1.052357E-03	3.961792E-04
6.892181E+03	1.058400E-03	3.981244E-04
6.902083E+03	1.064357E-03	4.000346E-04
6.911986E+03	1.070227E-03	4.019083E-04
6.921889E+03	1.076005E-03	4.037447E-04
6.931791E+03	1.081667E-03	4.055347E-04
6.941694E+03	1.087254E-03	4.072933E-04
6.951596E+03	1.092720E-03	4.090040E-04
6.961499E+03	1.098063E-03	4.106661E-04
6.971401E+03	1.103304E-03	4.122875E-04
6.981304E+03	1.108421E-03	4.138598E-04
6.991207E+03	1.113412E-03	4.153830E-04
7.001109E+03	1.118278E-03	4.168573E-04
7.011012E+03	1.123020E-03	4.182833E-04
7.020914E+03	1.127662E-03	4.196700E-04
7.030817E+03	1.132160E-03	4.210015E-04
7.040719E+03	1.136518E-03	4.222790E-04
7.050622E+03	1.140761E-03	4.235121E-04
7.060524E+03	1.144892E-03	4.247025E-04
7.070427E+03	1.148893E-03	4.258432E-04
7.080330E+03	1.152791E-03	4.269448E-04
7.090232E+03	1.156546E-03	4.279920E-04
7.100135E+03	1.160208E-03	4.290041E-04
7.110037E+03	1.163760E-03	4.299747E-04
7.119940E+03	1.167208E-03	4.309060E-04
7.129842E+03	1.170533E-03	4.317913E-04
7.139745E+03	1.173788E-03	4.326506E-04
7.149647E+03	1.176932E-03	4.334682E-04
7.159550E+03	1.179992E-03	4.342549E-04
7.169453E+03	1.182949E-03	4.350037E-04
7.179355E+03	1.185832E-03	4.357253E-04
7.189258E+03	1.188620E-03	4.364120E-04
7.199160E+03	1.191316E-03	4.370651E-04
7.209063E+03	1.193948E-03	4.376949E-04
7.218965E+03	1.196491E-03	4.382928E-04
7.228868E+03	1.198973E-03	4.388689E-04
7.238770E+03	1.201343E-03	4.394047E-04
7.248673E+03	1.203628E-03	4.399100E-04
7.258576E+03	1.205852E-03	4.403941E-04
7.268478E+03	1.207964E-03	4.408382E-04
7.278381E+03	1.209988E-03	4.412516E-04
7.288283E+03	1.211899E-03	4.416248E-04
7.298186E+03	1.213723E-03	4.419674E-04
7.308088E+03	1.215431E-03	4.422699E-04
7.317991E+03	1.217026E-03	4.425325E-04
7.327894E+03	1.218508E-03	4.427556E-04
7.337796E+03	1.219851E-03	4.429304E-04
7.347699E+03	1.221057E-03	4.430576E-04
7.357601E+03	1.222130E-03	4.431384E-04
7.367504E+03	1.223072E-03	4.431744E-04
7.377406E+03	1.223916E-03	4.431771E-04
7.387309E+03	1.224639E-03	4.431386E-04
7.397211E+03	1.225303E-03	4.430810E-04
7.407114E+03	1.225912E-03	4.430067E-04
7.417017E+03	1.226473E-03	4.429181E-04
7.426919E+03	1.226994E-03	4.428176E-04
7.436822E+03	1.227479E-03	4.427073E-04
7.446724E+03	1.227988E-03	4.426088E-04
7.456627E+03	1.228465E-03	4.425018E-04
7.466529E+03	1.228936E-03	4.423960E-04
7.476432E+03	1.229402E-03	4.422912E-04
7.486334E+03	1.229887E-03	4.421967E-04
7.496237E+03	1.230334E-03	4.420915E-04
7.506140E+03	1.230769E-03	4.419850E-04
7.516042E+03	1.231190E-03	4.418765E-04
7.525945E+03	1.231625E-03	4.417759E-04
7.535847E+03	1.232013E-03	4.416618E-04
7.545750E+03	1.232413E-03	4.415547E-04
7.555652E+03	1.232793E-03	4.414436E-04
7.565555E+03	1.233124E-03	4.413178E-04
7.575457E+03	1.233464E-03	4.411982E-04
7.585360E+03	1.233782E-03	4.410740E-04
7.595263E+03	1.234080E-03	4.409451E-04
7.605165E+03	1.234356E-03	4.408114E-04
7.615068E+03	1.234610E-03	4.406727E-04
7.624970E+03	1.234841E-03	4.405288E-04
7.634873E+03	1.235078E-03	4.403902E-04
7.644775E+03	1.235262E-03	4.402350E-04
7.654678E+03	1.235450E-03	4.400844E-04
7.664581E+03	1.235611E-03	4.399270E-04
7.674483E+03	1.235743E-03	4.397620E-04
7.684386E+03	1.235844E-03	4.395887E-04
