#wls	flux	fluxerr
1.584409E+03	6.487635E-03	2.200951E-03
1.624020E+03	6.688087E-03	2.268919E-03
1.663630E+03	6.877577E-03	2.333165E-03
1.703240E+03	7.054097E-03	2.393008E-03
1.742850E+03	7.214742E-03	2.447463E-03
1.782461E+03	7.357157E-03	2.495730E-03
1.822071E+03	7.478193E-03	2.536743E-03
1.861681E+03	7.575976E-03	2.569866E-03
1.901291E+03	7.647930E-03	2.594224E-03
1.940902E+03	7.690888E-03	2.608745E-03
1.980512E+03	7.703106E-03	2.612838E-03
2.020122E+03	7.681825E-03	2.605566E-03
2.059732E+03	7.624725E-03	2.586145E-03
2.099342E+03	7.531069E-03	2.554324E-03
2.138953E+03	7.398122E-03	2.509177E-03
2.178563E+03	7.224300E-03	2.450168E-03
2.218173E+03	7.007978E-03	2.376746E-03
2.257783E+03	6.746517E-03	2.288018E-03
2.297394E+03	6.448103E-03	2.186760E-03
2.337004E+03	6.121094E-03	2.075810E-03
2.376614E+03	5.772188E-03	1.957437E-03
2.416224E+03	5.407099E-03	1.833582E-03
2.455835E+03	5.031323E-03	1.706108E-03
2.495445E+03	4.649882E-03	1.576720E-03
2.535055E+03	4.267252E-03	1.446934E-03
2.574665E+03	3.888012E-03	1.318304E-03
2.614276E+03	3.516370E-03	1.192256E-03
2.653886E+03	3.156175E-03	1.070097E-03
2.693496E+03	2.810895E-03	9.530002E-04
2.733106E+03	2.483737E-03	8.420546E-04
2.772716E+03	2.177053E-03	7.380564E-04
2.812327E+03	1.892827E-03	6.416776E-04
2.851937E+03	1.632673E-03	5.534651E-04
2.891547E+03	1.397620E-03	4.737672E-04
2.931157E+03	1.188159E-03	4.027493E-04
2.970768E+03	1.004015E-03	3.403177E-04
2.980670E+03	9.618215E-04	3.260129E-04
2.990573E+03	9.211237E-04	3.122153E-04
3.000475E+03	8.819120E-04	2.989216E-04
3.010378E+03	8.441519E-04	2.861202E-04
3.020280E+03	8.078099E-04	2.737997E-04
3.030183E+03	7.728682E-04	2.619540E-04
3.040086E+03	7.392743E-04	2.505654E-04
3.049988E+03	7.070234E-04	2.396321E-04
3.059891E+03	6.760628E-04	2.291363E-04
3.069793E+03	6.463692E-04	2.190702E-04
3.079696E+03	6.179046E-04	2.094208E-04
3.089598E+03	5.906429E-04	2.001792E-04
3.099501E+03	5.645455E-04	1.913325E-04
3.109403E+03	5.395745E-04	1.828676E-04
3.119306E+03	5.157033E-04	1.747756E-04
3.129209E+03	4.928843E-04	1.670403E-04
3.139111E+03	4.710999E-04	1.596559E-04
3.149014E+03	4.503044E-04	1.526067E-04
3.158916E+03	4.304695E-04	1.458832E-04
3.168819E+03	4.115600E-04	1.394735E-04
3.178721E+03	3.935401E-04	1.333653E-04
3.188624E+03	3.763820E-04	1.275493E-04
3.198526E+03	3.600508E-04	1.220136E-04
3.208429E+03	3.445069E-04	1.167449E-04
3.218332E+03	3.297345E-04	1.117377E-04
3.228234E+03	3.156844E-04	1.069753E-04
3.238137E+03	3.023406E-04	1.024524E-04
3.248039E+03	2.896622E-04	9.815508E-05
3.257942E+03	2.776239E-04	9.407474E-05
3.267844E+03	2.662006E-04	9.020289E-05
3.277747E+03	2.553558E-04	8.652710E-05
3.287650E+03	2.450699E-04	8.304082E-05
3.297552E+03	2.353162E-04	7.973492E-05
3.307455E+03	2.260657E-04	7.659958E-05
3.317357E+03	2.172940E-04	7.362657E-05
3.327260E+03	2.089781E-04	7.080803E-05
3.337162E+03	2.010983E-04	6.813733E-05
3.347065E+03	1.936277E-04	6.560534E-05
3.356967E+03	1.865513E-04	6.320696E-05
3.366870E+03	1.798445E-04	6.093386E-05
3.376773E+03	1.734892E-04	5.877986E-05
3.386675E+03	1.674699E-04	5.673979E-05
3.396578E+03	1.617636E-04	5.480583E-05
3.406480E+03	1.563591E-04	5.297412E-05
3.416383E+03	1.512393E-04	5.123892E-05
3.426285E+03	1.463850E-04	4.959371E-05
3.436188E+03	1.417868E-04	4.803530E-05
3.446090E+03	1.374274E-04	4.655780E-05
3.455993E+03	1.332954E-04	4.515742E-05
3.465896E+03	1.293788E-04	4.382999E-05
3.475798E+03	1.256617E-04	4.257022E-05
3.485701E+03	1.221355E-04	4.137512E-05
3.495603E+03	1.187876E-04	4.024047E-05
3.505506E+03	1.156069E-04	3.916246E-05
3.515408E+03	1.125839E-04	3.813792E-05
3.525311E+03	1.097078E-04	3.716314E-05
3.535213E+03	1.069696E-04	3.623513E-05
3.545116E+03	1.043601E-04	3.535070E-05
3.555019E+03	1.018725E-04	3.450762E-05
3.564921E+03	9.949987E-05	3.370347E-05
3.574824E+03	9.723444E-05	3.293567E-05
3.584726E+03	9.507098E-05	3.220241E-05
3.594629E+03	9.300447E-05	3.150202E-05
3.604531E+03	9.102846E-05	3.083230E-05
3.614434E+03	8.914108E-05	3.019261E-05
3.624337E+03	8.733633E-05	2.958092E-05
3.634239E+03	8.561169E-05	2.899638E-05
3.644142E+03	8.396387E-05	2.843787E-05
3.654044E+03	8.238974E-05	2.790434E-05
3.663947E+03	8.088686E-05	2.739494E-05
3.673849E+03	7.945350E-05	2.690911E-05
3.683752E+03	7.808532E-05	2.644536E-05
3.693654E+03	7.678197E-05	2.600358E-05
3.703557E+03	7.553978E-05	2.558252E-05
3.713460E+03	7.435714E-05	2.518164E-05
3.723362E+03	7.323239E-05	2.480037E-05
3.733265E+03	7.216207E-05	2.443754E-05
3.743167E+03	7.114584E-05	2.409304E-05
3.753070E+03	7.018100E-05	2.376595E-05
3.762972E+03	6.926598E-05	2.345574E-05
3.772875E+03	6.839882E-05	2.316174E-05
3.782777E+03	6.757816E-05	2.288350E-05
3.792680E+03	6.680207E-05	2.262035E-05
3.802583E+03	6.606935E-05	2.237190E-05
3.812485E+03	6.537824E-05	2.213754E-05
3.822388E+03	6.472807E-05	2.191705E-05
3.832290E+03	6.411730E-05	2.170990E-05
3.842193E+03	6.354430E-05	2.151555E-05
3.852095E+03	6.300810E-05	2.133366E-05
3.861998E+03	6.250720E-05	2.116372E-05
3.871900E+03	6.204118E-05	2.100560E-05
3.881803E+03	6.160866E-05	2.085883E-05
3.891706E+03	6.120873E-05	2.072309E-05
3.901608E+03	6.084005E-05	2.059794E-05
3.911511E+03	6.050137E-05	2.048294E-05
3.921413E+03	6.019282E-05	2.037814E-05
3.931316E+03	5.991221E-05	2.028281E-05
3.941218E+03	5.965933E-05	2.019686E-05
3.951121E+03	5.943300E-05	2.011990E-05
3.961024E+03	5.923250E-05	2.005169E-05
3.970926E+03	5.905721E-05	1.999201E-05
3.980829E+03	5.890561E-05	1.994036E-05
3.990731E+03	5.877751E-05	1.989665E-05
4.000634E+03	5.867198E-05	1.986059E-05
4.010536E+03	5.858839E-05	1.983195E-05
4.020439E+03	5.852580E-05	1.981042E-05
4.030341E+03	5.848324E-05	1.979566E-05
4.040244E+03	5.846077E-05	1.978771E-05
4.050147E+03	5.845698E-05	1.978608E-05
4.060049E+03	5.847152E-05	1.979065E-05
4.069952E+03	5.850403E-05	1.980130E-05
4.079854E+03	5.855326E-05	1.981760E-05
4.089757E+03	5.861938E-05	1.983962E-05
4.099659E+03	5.870120E-05	1.986695E-05
4.109562E+03	5.879849E-05	1.989951E-05
4.119464E+03	5.891091E-05	1.993719E-05
4.129367E+03	5.903738E-05	1.997963E-05
4.139270E+03	5.917811E-05	2.002688E-05
4.149172E+03	5.933151E-05	2.007842E-05
4.159075E+03	5.949828E-05	2.013447E-05
4.168977E+03	5.967693E-05	2.019455E-05
4.178880E+03	5.986720E-05	2.025855E-05
4.188782E+03	6.006849E-05	2.032627E-05
4.198685E+03	6.028071E-05	2.039769E-05
4.208587E+03	6.050236E-05	2.047230E-05
4.218490E+03	6.073379E-05	2.055021E-05
4.228393E+03	6.097400E-05	2.063108E-05
4.238295E+03	6.122199E-05	2.071458E-05
4.248198E+03	6.147769E-05	2.080069E-05
4.258100E+03	6.174064E-05	2.088924E-05
4.268003E+03	6.200935E-05	2.097973E-05
4.277905E+03	6.228327E-05	2.107198E-05
4.287808E+03	6.256189E-05	2.116582E-05
4.297711E+03	6.284465E-05	2.126105E-05
4.307613E+03	6.313103E-05	2.135750E-05
4.317516E+03	6.342091E-05	2.145512E-05
4.327418E+03	6.371379E-05	2.155375E-05
4.337321E+03	6.400895E-05	2.165315E-05
4.347223E+03	6.430741E-05	2.175366E-05
4.357126E+03	6.460853E-05	2.185506E-05
4.367028E+03	6.491216E-05	2.195730E-05
4.376931E+03	6.521875E-05	2.206054E-05
4.386834E+03	6.552819E-05	2.216473E-05
4.396736E+03	6.583987E-05	2.226968E-05
4.406639E+03	6.615424E-05	2.237553E-05
4.416541E+03	6.647066E-05	2.248206E-05
4.426444E+03	6.678917E-05	2.258929E-05
4.436346E+03	6.710964E-05	2.269718E-05
4.446249E+03	6.743109E-05	2.280539E-05
4.456151E+03	6.775413E-05	2.291414E-05
4.466054E+03	6.807829E-05	2.302325E-05
4.475957E+03	6.840316E-05	2.313260E-05
4.485859E+03	6.872889E-05	2.324222E-05
4.495762E+03	6.905464E-05	2.335185E-05
4.505664E+03	6.938056E-05	2.346153E-05
4.515567E+03	6.970703E-05	2.357138E-05
4.525469E+03	7.003379E-05	2.368133E-05
4.535372E+03	7.035999E-05	2.379107E-05
4.545274E+03	7.068602E-05	2.390075E-05
4.555177E+03	7.101175E-05	2.401033E-05
4.565080E+03	7.133705E-05	2.411974E-05
4.574982E+03	7.166240E-05	2.422917E-05
4.584885E+03	7.198708E-05	2.433836E-05
4.594787E+03	7.231170E-05	2.444752E-05
4.604690E+03	7.263622E-05	2.455664E-05
4.614592E+03	7.296057E-05	2.466569E-05
4.624495E+03	7.328486E-05	2.477472E-05
4.634398E+03	7.360910E-05	2.488371E-05
4.644300E+03	7.393327E-05	2.499268E-05
4.654203E+03	7.425877E-05	2.510208E-05
4.664105E+03	7.458566E-05	2.521195E-05
4.674008E+03	7.491406E-05	2.532232E-05
4.683910E+03	7.524536E-05	2.543366E-05
4.693813E+03	7.557910E-05	2.554581E-05
4.703715E+03	7.591542E-05	2.565883E-05
4.713618E+03	7.625513E-05	2.577298E-05
4.723521E+03	7.659843E-05	2.588834E-05
4.733423E+03	7.694489E-05	2.600475E-05
4.743326E+03	7.729539E-05	2.612252E-05
4.753228E+03	7.765017E-05	2.624173E-05
4.763131E+03	7.800880E-05	2.636223E-05
4.773033E+03	7.837225E-05	2.648434E-05
4.782936E+03	7.874077E-05	2.660816E-05
4.792838E+03	7.911476E-05	2.673381E-05
4.802741E+03	7.949445E-05	2.686138E-05
4.812644E+03	7.987949E-05	2.699075E-05
4.822546E+03	8.027168E-05	2.712252E-05
4.832449E+03	8.066991E-05	2.725632E-05
4.842351E+03	8.107453E-05	2.739227E-05
4.852254E+03	8.148673E-05	2.753077E-05
4.862156E+03	8.190689E-05	2.767194E-05
4.872059E+03	8.233547E-05	2.781594E-05
4.881961E+03	8.277132E-05	2.796239E-05
4.891864E+03	8.321640E-05	2.811195E-05
4.901767E+03	8.367033E-05	2.826448E-05
4.911669E+03	8.413364E-05	2.842016E-05
4.921572E+03	8.460664E-05	2.857910E-05
4.931474E+03	8.508979E-05	2.874146E-05
4.941377E+03	8.558267E-05	2.890709E-05
4.951279E+03	8.608563E-05	2.907611E-05
4.961182E+03	8.659985E-05	2.924892E-05
4.971085E+03	8.712469E-05	2.942530E-05
4.980987E+03	8.765964E-05	2.960508E-05
4.990890E+03	8.820656E-05	2.978889E-05
5.000792E+03	8.876310E-05	2.997592E-05
5.010695E+03	8.933106E-05	3.016680E-05
5.020597E+03	8.991063E-05	3.036158E-05
5.030500E+03	9.049937E-05	3.055944E-05
5.040402E+03	9.109992E-05	3.076127E-05
5.050305E+03	9.171067E-05	3.096652E-05
5.060208E+03	9.233167E-05	3.117522E-05
5.070110E+03	9.296393E-05	3.138770E-05
5.080013E+03	9.360567E-05	3.160336E-05
5.089915E+03	9.425697E-05	3.182223E-05
5.099818E+03	9.491866E-05	3.204459E-05
5.109720E+03	9.558990E-05	3.227015E-05
5.119623E+03	9.627070E-05	3.249892E-05
5.129525E+03	9.696005E-05	3.273055E-05
5.139428E+03	9.765889E-05	3.296536E-05
5.149331E+03	9.836528E-05	3.320270E-05
5.159233E+03	9.908105E-05	3.344319E-05
5.169136E+03	9.980518E-05	3.368647E-05
5.179038E+03	1.005366E-04	3.393218E-05
5.188941E+03	1.012750E-04	3.418024E-05
5.198843E+03	1.020213E-04	3.443095E-05
5.208746E+03	1.027733E-04	3.468354E-05
5.218648E+03	1.035316E-04	3.493823E-05
5.228551E+03	1.042969E-04	3.519526E-05
5.238454E+03	1.050657E-04	3.545347E-05
5.248356E+03	1.058408E-04	3.571374E-05
5.258259E+03	1.066183E-04	3.597483E-05
5.268161E+03	1.074009E-04	3.623759E-05
5.278064E+03	1.081847E-04	3.650076E-05
5.287966E+03	1.089712E-04	3.676478E-05
5.297869E+03	1.097595E-04	3.702942E-05
5.307772E+03	1.105480E-04	3.729407E-05
5.317674E+03	1.113381E-04	3.755922E-05
5.327577E+03	1.121255E-04	3.782347E-05
5.337479E+03	1.129131E-04	3.808775E-05
5.347382E+03	1.136989E-04	3.835138E-05
5.357284E+03	1.144823E-04	3.861418E-05
5.367187E+03	1.152626E-04	3.887591E-05
5.377089E+03	1.160392E-04	3.913634E-05
5.386992E+03	1.168102E-04	3.939486E-05
5.396895E+03	1.175749E-04	3.965126E-05
5.406797E+03	1.183327E-04	3.990530E-05
5.416700E+03	1.190830E-04	4.015674E-05
5.426602E+03	1.198236E-04	4.040493E-05
5.436505E+03	1.205526E-04	4.064916E-05
5.446407E+03	1.212703E-04	4.088955E-05
5.456310E+03	1.219745E-04	4.112536E-05
5.466212E+03	1.226629E-04	4.135582E-05
5.476115E+03	1.233333E-04	4.158017E-05
5.486018E+03	1.239857E-04	4.179845E-05
5.495920E+03	1.246166E-04	4.200941E-05
5.505823E+03	1.252259E-04	4.221311E-05
5.515725E+03	1.258100E-04	4.240828E-05
5.525628E+03	1.263677E-04	4.259453E-05
5.535530E+03	1.268990E-04	4.277184E-05
5.545433E+03	1.274001E-04	4.293895E-05
5.555335E+03	1.278711E-04	4.309588E-05
5.565238E+03	1.283106E-04	4.324218E-05
5.575141E+03	1.287161E-04	4.337702E-05
5.585043E+03	1.290863E-04	4.349995E-05
5.594946E+03	1.294216E-04	4.361105E-05
5.604848E+03	1.297206E-04	4.370993E-05
5.614751E+03	1.299810E-04	4.379581E-05
5.624653E+03	1.302034E-04	4.386881E-05
5.634556E+03	1.303881E-04	4.392914E-05
5.644459E+03	1.305318E-04	4.397564E-05
5.654361E+03	1.306354E-04	4.400858E-05
5.664264E+03	1.306995E-04	4.402825E-05
5.674166E+03	1.307241E-04	4.403456E-05
5.684069E+03	1.307087E-04	4.402741E-05
5.693971E+03	1.306533E-04	4.400678E-05
5.703874E+03	1.305579E-04	4.397263E-05
5.713776E+03	1.304237E-04	4.392543E-05
5.723679E+03	1.302495E-04	4.386478E-05
5.733582E+03	1.300383E-04	4.379164E-05
5.743484E+03	1.297890E-04	4.370565E-05
5.753387E+03	1.295018E-04	4.360693E-05
5.763289E+03	1.291801E-04	4.349657E-05
5.773192E+03	1.288215E-04	4.337380E-05
5.783094E+03	1.284282E-04	4.323932E-05
5.792997E+03	1.280022E-04	4.309386E-05
5.802899E+03	1.275432E-04	4.293729E-05
5.812802E+03	1.270536E-04	4.277042E-05
5.822705E+03	1.265333E-04	4.259322E-05
5.832607E+03	1.259865E-04	4.240711E-05
5.842510E+03	1.254134E-04	4.221216E-05
5.852412E+03	1.248158E-04	4.200894E-05
5.862315E+03	1.241968E-04	4.179856E-05
5.872217E+03	1.235569E-04	4.158115E-05
5.882120E+03	1.228993E-04	4.135780E-05
5.892022E+03	1.222245E-04	4.112868E-05
5.901925E+03	1.215357E-04	4.089486E-05
5.911828E+03	1.208347E-04	4.065693E-05
5.921730E+03	1.201232E-04	4.041548E-05
5.931633E+03	1.194015E-04	4.017061E-05
5.941535E+03	1.186726E-04	3.992335E-05
5.951438E+03	1.179380E-04	3.967421E-05
5.961340E+03	1.171981E-04	3.942325E-05
5.971243E+03	1.164555E-04	3.917145E-05
5.981146E+03	1.157105E-04	3.891880E-05
5.991048E+03	1.149629E-04	3.866533E-05
6.000951E+03	1.142168E-04	3.841237E-05
6.010853E+03	1.134706E-04	3.815943E-05
6.020756E+03	1.127271E-04	3.790738E-05
6.030658E+03	1.119845E-04	3.765567E-05
6.040561E+03	1.112454E-04	3.740511E-05
6.050463E+03	1.105093E-04	3.715560E-05
6.060366E+03	1.097772E-04	3.690747E-05
6.070269E+03	1.090500E-04	3.666099E-05
6.080171E+03	1.083272E-04	3.641599E-05
6.090074E+03	1.076095E-04	3.617276E-05
6.099976E+03	1.068977E-04	3.593151E-05
6.109879E+03	1.061925E-04	3.569248E-05
6.119781E+03	1.054944E-04	3.545587E-05
6.129684E+03	1.048027E-04	3.522142E-05
6.139586E+03	1.041192E-04	3.498976E-05
6.149489E+03	1.034444E-04	3.476104E-05
6.159392E+03	1.027787E-04	3.453538E-05
6.169294E+03	1.021238E-04	3.431337E-05
6.179197E+03	1.014813E-04	3.409556E-05
6.189099E+03	1.008530E-04	3.388250E-05
6.199002E+03	1.002403E-04	3.367470E-05
6.208904E+03	9.964473E-05	3.347271E-05
6.218807E+03	9.906923E-05	3.327745E-05
6.228709E+03	9.851257E-05	3.308853E-05
6.238612E+03	9.798020E-05	3.290779E-05
6.248515E+03	9.747093E-05	3.273481E-05
6.258417E+03	9.698751E-05	3.257053E-05
6.268320E+03	9.653136E-05	3.241542E-05
6.278222E+03	9.610390E-05	3.226995E-05
6.288125E+03	9.570517E-05	3.213414E-05
6.298027E+03	9.533658E-05	3.200845E-05
6.307930E+03	9.499961E-05	3.189339E-05
6.317833E+03	9.469424E-05	3.178893E-05
6.327735E+03	9.442066E-05	3.169516E-05
6.337638E+03	9.418021E-05	3.161251E-05
6.347540E+03	9.397030E-05	3.154011E-05
6.357443E+03	9.379103E-05	3.147799E-05
6.367345E+03	9.364102E-05	3.142570E-05
6.377248E+03	9.351762E-05	3.138233E-05
6.387150E+03	9.342229E-05	3.134838E-05
6.397053E+03	9.335222E-05	3.132290E-05
6.406956E+03	9.330889E-05	3.130639E-05
6.416858E+03	9.329236E-05	3.129886E-05
6.426761E+03	9.330130E-05	3.129987E-05
6.436663E+03	9.333575E-05	3.130943E-05
6.446566E+03	9.339571E-05	3.132753E-05
6.456468E+03	9.348129E-05	3.135422E-05
6.466371E+03	9.359258E-05	3.138952E-05
6.476273E+03	9.373105E-05	3.143392E-05
6.486176E+03	9.389534E-05	3.148697E-05
6.496079E+03	9.408407E-05	3.154820E-05
6.505981E+03	9.430026E-05	3.161861E-05
6.515884E+03	9.454101E-05	3.169725E-05
6.525786E+03	9.480788E-05	3.178462E-05
6.535689E+03	9.510100E-05	3.188078E-05
6.545591E+03	9.542047E-05	3.198574E-05
6.555494E+03	9.576637E-05	3.209954E-05
6.565396E+03	9.613723E-05	3.222169E-05
6.575299E+03	9.653472E-05	3.235273E-05
6.585202E+03	9.695736E-05	3.249218E-05
6.595104E+03	9.740687E-05	3.264060E-05
6.605007E+03	9.788174E-05	3.279750E-05
6.614909E+03	9.838201E-05	3.296287E-05
6.624812E+03	9.890953E-05	3.313734E-05
6.634714E+03	9.946447E-05	3.332097E-05
6.644617E+03	1.000435E-04	3.351263E-05
6.654520E+03	1.006502E-04	3.371354E-05
6.664422E+03	1.012813E-04	3.392257E-05
6.674325E+03	1.019404E-04	3.414094E-05
6.684227E+03	1.026259E-04	3.436811E-05
6.694130E+03	1.033362E-04	3.460355E-05
6.704032E+03	1.040751E-04	3.484851E-05
6.713935E+03	1.048390E-04	3.510182E-05
6.723837E+03	1.056300E-04	3.536416E-05
6.733740E+03	1.064483E-04	3.563558E-05
6.743643E+03	1.072942E-04	3.591618E-05
6.753545E+03	1.081657E-04	3.620531E-05
6.763448E+03	1.090651E-04	3.650374E-05
6.773350E+03	1.099906E-04	3.681083E-05
6.783253E+03	1.109442E-04	3.712732E-05
6.793155E+03	1.119243E-04	3.745259E-05
6.803058E+03	1.129309E-04	3.778666E-05
6.812960E+03	1.139662E-04	3.813030E-05
6.822863E+03	1.150263E-04	3.848215E-05
6.832766E+03	1.161154E-04	3.884365E-05
6.842668E+03	1.172316E-04	3.921415E-05
6.852571E+03	1.183750E-04	3.959369E-05
6.862473E+03	1.195456E-04	3.998229E-05
6.872376E+03	1.207438E-04	4.038001E-05
6.882278E+03	1.219671E-04	4.078609E-05
6.892181E+03	1.232180E-04	4.120131E-05
6.902083E+03	1.244967E-04	4.162574E-05
6.911986E+03	1.258031E-04	4.205938E-05
6.921889E+03	1.271324E-04	4.250062E-05
6.931791E+03	1.284921E-04	4.295193E-05
6.941694E+03	1.298748E-04	4.341082E-05
6.951596E+03	1.312853E-04	4.387897E-05
6.961499E+03	1.327213E-04	4.435553E-05
6.971401E+03	1.341826E-04	4.484048E-05
6.981304E+03	1.356693E-04	4.533381E-05
6.991207E+03	1.371811E-04	4.583547E-05
7.001109E+03	1.387154E-04	4.634455E-05
7.011012E+03	1.402747E-04	4.686188E-05
7.020914E+03	1.418589E-04	4.738748E-05
7.030817E+03	1.434651E-04	4.792029E-05
7.040719E+03	1.450959E-04	4.846125E-05
7.050622E+03	1.467482E-04	4.900932E-05
7.060524E+03	1.484219E-04	4.956440E-05
7.070427E+03	1.501165E-04	5.012637E-05
7.080330E+03	1.518350E-04	5.069623E-05
7.090232E+03	1.535707E-04	5.127175E-05
7.100135E+03	1.553233E-04	5.185279E-05
7.110037E+03	1.570987E-04	5.244137E-05
7.119940E+03	1.588901E-04	5.303517E-05
7.129842E+03	1.606970E-04	5.363404E-05
7.139745E+03	1.625222E-04	5.423893E-05
7.149647E+03	1.643619E-04	5.484851E-05
7.159550E+03	1.662153E-04	5.546260E-05
7.169453E+03	1.680819E-04	5.608098E-05
7.179355E+03	1.699611E-04	5.670345E-05
7.189258E+03	1.718558E-04	5.733098E-05
7.199160E+03	1.737580E-04	5.796090E-05
7.209063E+03	1.756744E-04	5.859545E-05
7.218965E+03	1.776005E-04	5.923313E-05
7.228868E+03	1.795355E-04	5.987369E-05
7.238770E+03	1.814827E-04	6.051816E-05
7.248673E+03	1.834372E-04	6.116499E-05
7.258576E+03	1.854022E-04	6.181522E-05
7.268478E+03	1.873772E-04	6.246865E-05
7.278381E+03	1.893656E-04	6.312641E-05
7.288283E+03	1.913667E-04	6.378832E-05
7.298186E+03	1.933844E-04	6.445563E-05
7.308088E+03	1.954138E-04	6.512674E-05
7.317991E+03	1.974678E-04	6.580593E-05
7.327894E+03	1.995463E-04	6.649319E-05
7.337796E+03	2.016447E-04	6.718693E-05
7.347699E+03	2.037769E-04	6.789180E-05
7.357601E+03	2.059383E-04	6.860631E-05
7.367504E+03	2.081340E-04	6.933211E-05
7.377406E+03	2.103594E-04	7.006769E-05
7.387309E+03	2.126196E-04	7.081472E-05
7.397211E+03	2.148997E-04	7.156827E-05
7.407114E+03	2.172097E-04	7.233163E-05
7.417017E+03	2.195340E-04	7.309963E-05
7.426919E+03	2.218774E-04	7.387384E-05
7.436822E+03	2.242339E-04	7.465233E-05
7.446724E+03	2.265977E-04	7.543308E-05
7.456627E+03	2.289733E-04	7.621764E-05
7.466529E+03	2.313434E-04	7.700021E-05
7.476432E+03	2.337177E-04	7.778409E-05
7.486334E+03	2.360898E-04	7.856709E-05
7.496237E+03	2.384584E-04	7.934878E-05
7.506140E+03	2.408163E-04	8.012679E-05
7.516042E+03	2.431681E-04	8.090263E-05
7.525945E+03	2.455064E-04	8.167387E-05
7.535847E+03	2.478297E-04	8.244000E-05
7.545750E+03	2.501428E-04	8.320260E-05
7.555652E+03	2.524379E-04	8.395911E-05
7.565555E+03	2.547201E-04	8.471117E-05
7.575457E+03	2.569749E-04	8.545402E-05
7.585360E+03	2.592136E-04	8.619142E-05
7.595263E+03	2.614284E-04	8.692070E-05
7.605165E+03	2.636242E-04	8.764360E-05
7.615068E+03	2.657929E-04	8.835737E-05
7.624970E+03	2.679329E-04	8.906147E-05
7.634873E+03	2.700426E-04	8.975538E-05
7.644775E+03	2.721344E-04	9.044325E-05
7.654678E+03	2.741858E-04	9.111758E-05
7.664581E+03	2.762165E-04	9.178493E-05
7.674483E+03	2.782108E-04	9.244011E-05
7.684386E+03	2.801746E-04	9.308503E-05
