#wls	flux	fluxerr
1.584409E+03	6.739989E-03	2.289031E-03
1.624020E+03	6.941966E-03	2.357587E-03
1.663630E+03	7.131661E-03	2.421969E-03
1.703240E+03	7.306950E-03	2.481455E-03
1.742850E+03	7.464810E-03	2.535020E-03
1.782461E+03	7.602803E-03	2.581834E-03
1.822071E+03	7.717682E-03	2.620797E-03
1.861681E+03	7.807561E-03	2.651267E-03
1.901291E+03	7.869843E-03	2.672363E-03
1.940902E+03	7.901368E-03	2.683013E-03
1.980512E+03	7.900461E-03	2.682649E-03
2.020122E+03	7.864454E-03	2.670365E-03
2.059732E+03	7.791174E-03	2.645425E-03
2.099342E+03	7.680102E-03	2.607652E-03
2.138953E+03	7.528729E-03	2.556197E-03
2.178563E+03	7.335747E-03	2.490615E-03
2.218173E+03	7.099885E-03	2.410477E-03
2.257783E+03	6.818864E-03	2.315009E-03
2.297394E+03	6.501378E-03	2.207166E-03
2.337004E+03	6.156249E-03	2.089942E-03
2.376614E+03	5.790540E-03	1.965736E-03
2.416224E+03	5.410286E-03	1.836598E-03
2.455835E+03	5.021226E-03	1.704478E-03
2.495445E+03	4.628568E-03	1.571142E-03
2.535055E+03	4.236906E-03	1.438151E-03
2.574665E+03	3.850854E-03	1.307071E-03
2.614276E+03	3.474592E-03	1.179321E-03
2.653886E+03	3.111862E-03	1.056172E-03
2.693496E+03	2.765962E-03	9.387411E-04
2.733106E+03	2.439865E-03	8.280384E-04
2.772716E+03	2.135646E-03	7.247674E-04
2.812327E+03	1.854978E-03	6.294954E-04
2.851937E+03	1.599148E-03	5.426581E-04
2.891547E+03	1.368859E-03	4.644935E-04
2.931157E+03	1.164298E-03	3.950647E-04
2.970768E+03	9.849370E-04	3.341912E-04
2.980670E+03	9.438959E-04	3.202626E-04
2.990573E+03	9.043284E-04	3.068343E-04
3.000475E+03	8.662221E-04	2.939019E-04
3.010378E+03	8.295405E-04	2.814533E-04
3.020280E+03	7.942488E-04	2.694764E-04
3.030183E+03	7.603271E-04	2.579645E-04
3.040086E+03	7.277221E-04	2.468997E-04
3.049988E+03	6.964282E-04	2.362798E-04
3.059891E+03	6.663915E-04	2.260867E-04
3.069793E+03	6.375876E-04	2.163121E-04
3.079696E+03	6.099788E-04	2.069431E-04
3.089598E+03	5.835389E-04	1.979709E-04
3.099501E+03	5.582286E-04	1.893820E-04
3.109403E+03	5.340107E-04	1.811640E-04
3.119306E+03	5.108577E-04	1.733074E-04
3.129209E+03	4.887231E-04	1.657964E-04
3.139111E+03	4.675890E-04	1.586250E-04
3.149014E+03	4.474105E-04	1.517779E-04
3.158916E+03	4.281601E-04	1.452458E-04
3.168819E+03	4.098026E-04	1.390167E-04
3.178721E+03	3.923038E-04	1.330791E-04
3.188624E+03	3.756362E-04	1.274236E-04
3.198526E+03	3.597662E-04	1.220387E-04
3.208429E+03	3.446551E-04	1.169114E-04
3.218332E+03	3.302883E-04	1.120367E-04
3.228234E+03	3.166176E-04	1.073981E-04
3.238137E+03	3.036282E-04	1.029909E-04
3.248039E+03	2.912804E-04	9.880126E-05
3.257942E+03	2.795500E-04	9.482120E-05
3.267844E+03	2.684132E-04	9.104256E-05
3.277747E+03	2.578344E-04	8.745329E-05
3.287650E+03	2.477956E-04	8.404724E-05
3.297552E+03	2.382709E-04	8.081566E-05
3.307455E+03	2.292325E-04	7.774908E-05
3.317357E+03	2.206572E-04	7.483964E-05
3.327260E+03	2.125229E-04	7.207981E-05
3.337162E+03	2.048109E-04	6.946330E-05
3.347065E+03	1.974952E-04	6.698128E-05
3.356967E+03	1.905618E-04	6.462896E-05
3.366870E+03	1.839870E-04	6.239829E-05
3.376773E+03	1.777533E-04	6.028337E-05
3.386675E+03	1.718462E-04	5.827927E-05
3.396578E+03	1.662435E-04	5.637844E-05
3.406480E+03	1.609344E-04	5.457723E-05
3.416383E+03	1.559028E-04	5.287017E-05
3.426285E+03	1.511298E-04	5.125084E-05
3.436188E+03	1.466068E-04	4.971632E-05
3.446090E+03	1.423168E-04	4.826086E-05
3.455993E+03	1.382491E-04	4.688081E-05
3.465896E+03	1.343920E-04	4.557221E-05
3.475798E+03	1.307300E-04	4.432983E-05
3.485701E+03	1.272548E-04	4.315081E-05
3.495603E+03	1.239543E-04	4.203105E-05
3.505506E+03	1.208175E-04	4.096681E-05
3.515408E+03	1.178352E-04	3.995501E-05
3.525311E+03	1.149968E-04	3.899202E-05
3.535213E+03	1.122935E-04	3.807485E-05
3.545116E+03	1.097161E-04	3.720041E-05
3.555019E+03	1.072583E-04	3.636653E-05
3.564921E+03	1.049131E-04	3.557083E-05
3.574824E+03	1.026728E-04	3.481075E-05
3.584726E+03	1.005325E-04	3.408458E-05
3.594629E+03	9.848729E-05	3.339067E-05
3.604531E+03	9.653081E-05	3.272685E-05
3.614434E+03	9.466141E-05	3.209258E-05
3.624337E+03	9.287317E-05	3.148584E-05
3.634239E+03	9.116376E-05	3.090584E-05
3.644142E+03	8.953011E-05	3.035153E-05
3.654044E+03	8.796913E-05	2.982188E-05
3.663947E+03	8.647863E-05	2.931613E-05
3.673849E+03	8.505713E-05	2.883379E-05
3.683752E+03	8.370018E-05	2.837334E-05
3.693654E+03	8.240777E-05	2.793479E-05
3.703557E+03	8.117633E-05	2.751691E-05
3.713460E+03	8.000431E-05	2.711918E-05
3.723362E+03	7.889028E-05	2.674112E-05
3.733265E+03	7.783082E-05	2.638156E-05
3.743167E+03	7.682577E-05	2.604046E-05
3.753070E+03	7.587245E-05	2.571690E-05
3.762972E+03	7.496947E-05	2.541041E-05
3.772875E+03	7.411489E-05	2.512033E-05
3.782777E+03	7.330747E-05	2.484625E-05
3.792680E+03	7.254538E-05	2.458753E-05
3.802583E+03	7.182740E-05	2.434377E-05
3.812485E+03	7.115187E-05	2.411440E-05
3.822388E+03	7.051832E-05	2.389927E-05
3.832290E+03	6.992505E-05	2.369779E-05
3.842193E+03	6.937056E-05	2.350946E-05
3.852095E+03	6.885395E-05	2.333397E-05
3.861998E+03	6.837371E-05	2.317081E-05
3.871900E+03	6.792950E-05	2.301986E-05
3.881803E+03	6.751996E-05	2.288067E-05
3.891706E+03	6.714420E-05	2.275292E-05
3.901608E+03	6.680094E-05	2.263619E-05
3.911511E+03	6.648889E-05	2.253004E-05
3.921413E+03	6.620833E-05	2.243455E-05
3.931316E+03	6.595695E-05	2.234896E-05
3.941218E+03	6.573462E-05	2.227321E-05
3.951121E+03	6.554013E-05	2.220689E-05
3.961024E+03	6.537283E-05	2.214979E-05
3.970926E+03	6.523212E-05	2.210169E-05
3.980829E+03	6.511638E-05	2.206205E-05
3.990731E+03	6.502553E-05	2.203085E-05
4.000634E+03	6.495859E-05	2.200774E-05
4.010536E+03	6.491492E-05	2.199252E-05
4.020439E+03	6.489362E-05	2.198487E-05
4.030341E+03	6.489370E-05	2.198447E-05
4.040244E+03	6.491519E-05	2.199131E-05
4.050147E+03	6.495673E-05	2.200495E-05
4.060049E+03	6.501791E-05	2.202523E-05
4.069952E+03	6.509838E-05	2.205204E-05
4.079854E+03	6.519687E-05	2.208496E-05
4.089757E+03	6.531355E-05	2.212403E-05
4.099659E+03	6.544714E-05	2.216883E-05
4.109562E+03	6.559746E-05	2.221929E-05
4.119464E+03	6.576419E-05	2.227530E-05
4.129367E+03	6.594613E-05	2.233646E-05
4.139270E+03	6.614358E-05	2.240286E-05
4.149172E+03	6.635483E-05	2.247394E-05
4.159075E+03	6.658071E-05	2.254996E-05
4.168977E+03	6.681948E-05	2.263035E-05
4.178880E+03	6.707099E-05	2.271504E-05
4.188782E+03	6.733468E-05	2.280385E-05
4.198685E+03	6.761031E-05	2.289670E-05
4.208587E+03	6.789632E-05	2.299305E-05
4.218490E+03	6.819316E-05	2.309306E-05
4.228393E+03	6.849965E-05	2.319634E-05
4.238295E+03	6.881474E-05	2.330252E-05
4.248198E+03	6.913837E-05	2.341159E-05
4.258100E+03	6.946996E-05	2.352334E-05
4.268003E+03	6.980792E-05	2.363724E-05
4.277905E+03	7.015167E-05	2.375309E-05
4.287808E+03	7.050057E-05	2.387068E-05
4.297711E+03	7.085402E-05	2.398980E-05
4.307613E+03	7.121140E-05	2.411024E-05
4.317516E+03	7.157267E-05	2.423199E-05
4.327418E+03	7.193715E-05	2.435481E-05
4.337321E+03	7.230414E-05	2.447848E-05
4.347223E+03	7.267473E-05	2.460336E-05
4.357126E+03	7.304822E-05	2.472921E-05
4.367028E+03	7.342450E-05	2.485599E-05
4.376931E+03	7.380398E-05	2.498385E-05
4.386834E+03	7.418669E-05	2.511279E-05
4.396736E+03	7.457181E-05	2.524254E-05
4.406639E+03	7.495992E-05	2.537329E-05
4.416541E+03	7.535033E-05	2.550480E-05
4.426444E+03	7.574301E-05	2.563708E-05
4.436346E+03	7.613795E-05	2.577011E-05
4.446249E+03	7.653394E-05	2.590349E-05
4.456151E+03	7.693164E-05	2.603743E-05
4.466054E+03	7.733054E-05	2.617177E-05
4.475957E+03	7.773021E-05	2.630636E-05
4.485859E+03	7.813076E-05	2.644123E-05
4.495762E+03	7.853116E-05	2.657605E-05
4.505664E+03	7.893166E-05	2.671088E-05
4.515567E+03	7.933257E-05	2.684585E-05
4.525469E+03	7.973361E-05	2.698084E-05
4.535372E+03	8.013380E-05	2.711554E-05
4.545274E+03	8.053356E-05	2.725008E-05
4.555177E+03	8.093267E-05	2.738439E-05
4.565080E+03	8.133092E-05	2.751840E-05
4.574982E+03	8.172887E-05	2.765229E-05
4.584885E+03	8.212564E-05	2.778577E-05
4.594787E+03	8.252188E-05	2.791906E-05
4.604690E+03	8.291750E-05	2.805213E-05
4.614592E+03	8.331246E-05	2.818497E-05
4.624495E+03	8.370668E-05	2.831754E-05
4.634398E+03	8.410021E-05	2.844986E-05
4.644300E+03	8.449304E-05	2.858194E-05
4.654203E+03	8.488660E-05	2.871425E-05
4.664105E+03	8.528100E-05	2.884683E-05
4.674008E+03	8.567633E-05	2.897972E-05
4.683910E+03	8.607416E-05	2.911344E-05
4.693813E+03	8.647383E-05	2.924776E-05
4.703715E+03	8.687550E-05	2.938275E-05
4.713618E+03	8.728006E-05	2.951871E-05
4.723521E+03	8.768777E-05	2.965571E-05
4.733423E+03	8.809794E-05	2.979354E-05
4.743326E+03	8.851165E-05	2.993255E-05
4.753228E+03	8.892910E-05	3.007280E-05
4.763131E+03	8.934972E-05	3.021412E-05
4.773033E+03	8.977460E-05	3.035687E-05
4.782936E+03	9.020396E-05	3.050111E-05
4.792838E+03	9.063821E-05	3.064699E-05
4.802741E+03	9.107757E-05	3.079459E-05
4.812644E+03	9.152159E-05	3.094374E-05
4.822546E+03	9.197226E-05	3.109514E-05
4.832449E+03	9.242830E-05	3.124832E-05
4.842351E+03	9.289005E-05	3.140343E-05
4.852254E+03	9.335878E-05	3.156088E-05
4.862156E+03	9.383485E-05	3.172079E-05
4.872059E+03	9.431874E-05	3.188333E-05
4.881961E+03	9.480909E-05	3.204803E-05
4.891864E+03	9.530809E-05	3.221565E-05
4.901767E+03	9.581526E-05	3.238600E-05
4.911669E+03	9.633100E-05	3.255924E-05
4.921572E+03	9.685574E-05	3.273550E-05
4.931474E+03	9.738988E-05	3.291491E-05
4.941377E+03	9.793286E-05	3.309730E-05
4.951279E+03	9.848497E-05	3.328275E-05
4.961182E+03	9.904751E-05	3.347171E-05
4.971085E+03	9.961972E-05	3.366392E-05
4.980987E+03	1.002009E-04	3.385914E-05
4.990890E+03	1.007932E-04	3.405807E-05
5.000792E+03	1.013937E-04	3.425979E-05
5.010695E+03	1.020046E-04	3.446497E-05
5.020597E+03	1.026258E-04	3.467364E-05
5.030500E+03	1.032547E-04	3.488487E-05
5.040402E+03	1.038941E-04	3.509962E-05
5.050305E+03	1.045421E-04	3.531726E-05
5.060208E+03	1.051986E-04	3.553777E-05
5.070110E+03	1.058649E-04	3.576154E-05
5.080013E+03	1.065387E-04	3.598782E-05
5.089915E+03	1.072200E-04	3.621662E-05
5.099818E+03	1.079099E-04	3.644826E-05
5.109720E+03	1.086071E-04	3.668238E-05
5.119623E+03	1.093115E-04	3.691892E-05
5.129525E+03	1.100222E-04	3.715753E-05
5.139428E+03	1.107400E-04	3.739850E-05
5.149331E+03	1.114625E-04	3.764105E-05
5.159233E+03	1.121918E-04	3.788589E-05
5.169136E+03	1.129267E-04	3.813258E-05
5.179038E+03	1.136658E-04	3.838065E-05
5.188941E+03	1.144089E-04	3.863004E-05
5.198843E+03	1.151568E-04	3.888103E-05
5.208746E+03	1.159069E-04	3.913274E-05
5.218648E+03	1.166600E-04	3.938541E-05
5.228551E+03	1.174168E-04	3.963930E-05
5.238454E+03	1.181732E-04	3.989307E-05
5.248356E+03	1.189324E-04	4.014770E-05
5.258259E+03	1.196900E-04	4.040181E-05
5.268161E+03	1.204491E-04	4.065636E-05
5.278064E+03	1.212053E-04	4.090991E-05
5.287966E+03	1.219603E-04	4.116302E-05
5.297869E+03	1.227133E-04	4.141542E-05
5.307772E+03	1.234623E-04	4.166644E-05
5.317674E+03	1.242089E-04	4.191664E-05
5.327577E+03	1.249488E-04	4.216454E-05
5.337479E+03	1.256850E-04	4.241113E-05
5.347382E+03	1.264154E-04	4.265577E-05
5.357284E+03	1.271394E-04	4.289820E-05
5.367187E+03	1.278565E-04	4.313826E-05
5.377089E+03	1.285659E-04	4.337570E-05
5.386992E+03	1.292658E-04	4.360991E-05
5.396895E+03	1.299555E-04	4.384067E-05
5.406797E+03	1.306347E-04	4.406780E-05
5.416700E+03	1.313024E-04	4.429107E-05
5.426602E+03	1.319570E-04	4.450984E-05
5.436505E+03	1.325961E-04	4.472340E-05
5.446407E+03	1.332205E-04	4.493195E-05
5.456310E+03	1.338281E-04	4.513479E-05
5.466212E+03	1.344165E-04	4.533115E-05
5.476115E+03	1.349837E-04	4.552030E-05
5.486018E+03	1.355300E-04	4.570239E-05
5.495920E+03	1.360517E-04	4.587618E-05
5.505823E+03	1.365494E-04	4.604181E-05
5.515725E+03	1.370193E-04	4.619805E-05
5.525628E+03	1.374603E-04	4.634455E-05
5.535530E+03	1.378730E-04	4.648146E-05
5.545433E+03	1.382536E-04	4.660751E-05
5.555335E+03	1.386025E-04	4.672283E-05
5.565238E+03	1.389186E-04	4.682712E-05
5.575141E+03	1.391997E-04	4.691956E-05
5.585043E+03	1.394447E-04	4.699983E-05
5.594946E+03	1.396543E-04	4.706814E-05
5.604848E+03	1.398277E-04	4.712421E-05
5.614751E+03	1.399626E-04	4.716731E-05
5.624653E+03	1.400600E-04	4.719774E-05
5.634556E+03	1.401206E-04	4.721578E-05
5.644459E+03	1.401413E-04	4.722035E-05
5.654361E+03	1.401232E-04	4.721182E-05
5.664264E+03	1.400675E-04	4.719061E-05
5.674166E+03	1.399741E-04	4.715670E-05
5.684069E+03	1.398431E-04	4.711011E-05
5.693971E+03	1.396746E-04	4.705086E-05
5.703874E+03	1.394686E-04	4.697900E-05
5.713776E+03	1.392269E-04	4.689510E-05
5.723679E+03	1.389484E-04	4.679880E-05
5.733582E+03	1.386363E-04	4.669118E-05
5.743484E+03	1.382897E-04	4.657193E-05
5.753387E+03	1.379089E-04	4.644119E-05
5.763289E+03	1.374978E-04	4.630020E-05
5.773192E+03	1.370537E-04	4.614817E-05
5.783094E+03	1.365792E-04	4.598585E-05
5.792997E+03	1.360766E-04	4.581409E-05
5.802899E+03	1.355454E-04	4.563270E-05
5.812802E+03	1.349882E-04	4.544259E-05
5.822705E+03	1.344050E-04	4.524370E-05
5.832607E+03	1.338000E-04	4.503753E-05
5.842510E+03	1.331736E-04	4.482412E-05
5.852412E+03	1.325273E-04	4.460403E-05
5.862315E+03	1.318643E-04	4.437837E-05
5.872217E+03	1.311851E-04	4.414724E-05
5.882120E+03	1.304930E-04	4.391176E-05
5.892022E+03	1.297881E-04	4.367201E-05
5.901925E+03	1.290737E-04	4.342910E-05
5.911828E+03	1.283516E-04	4.318359E-05
5.921730E+03	1.276235E-04	4.293607E-05
5.931633E+03	1.268893E-04	4.268655E-05
5.941535E+03	1.261523E-04	4.243609E-05
5.951438E+03	1.254139E-04	4.218516E-05
5.961340E+03	1.246741E-04	4.193376E-05
5.971243E+03	1.239356E-04	4.168287E-05
5.981146E+03	1.231985E-04	4.143241E-05
5.991048E+03	1.224624E-04	4.118234E-05
6.000951E+03	1.217315E-04	4.093403E-05
6.010853E+03	1.210040E-04	4.068688E-05
6.020756E+03	1.202824E-04	4.044175E-05
6.030658E+03	1.195649E-04	4.019799E-05
6.040561E+03	1.188538E-04	3.995643E-05
6.050463E+03	1.181487E-04	3.971685E-05
6.060366E+03	1.174502E-04	3.947957E-05
6.070269E+03	1.167593E-04	3.924481E-05
6.080171E+03	1.160751E-04	3.901234E-05
6.090074E+03	1.153983E-04	3.878238E-05
6.099976E+03	1.147296E-04	3.855516E-05
6.109879E+03	1.140694E-04	3.833082E-05
6.119781E+03	1.134183E-04	3.810954E-05
6.129684E+03	1.127753E-04	3.789100E-05
6.139586E+03	1.121422E-04	3.767580E-05
6.149489E+03	1.115194E-04	3.746408E-05
6.159392E+03	1.109070E-04	3.725590E-05
6.169294E+03	1.103070E-04	3.705188E-05
6.179197E+03	1.097210E-04	3.685255E-05
6.189099E+03	1.091504E-04	3.665845E-05
6.199002E+03	1.085971E-04	3.647013E-05
6.208904E+03	1.080624E-04	3.628810E-05
6.218807E+03	1.075495E-04	3.611340E-05
6.228709E+03	1.070569E-04	3.594553E-05
6.238612E+03	1.065906E-04	3.578650E-05
6.248515E+03	1.061491E-04	3.563582E-05
6.258417E+03	1.057355E-04	3.549449E-05
6.268320E+03	1.053512E-04	3.536301E-05
6.278222E+03	1.049978E-04	3.524190E-05
6.288125E+03	1.046753E-04	3.513117E-05
6.298027E+03	1.043852E-04	3.503133E-05
6.307930E+03	1.041291E-04	3.494292E-05
6.317833E+03	1.039072E-04	3.486595E-05
6.327735E+03	1.037195E-04	3.480047E-05
6.337638E+03	1.035675E-04	3.474699E-05
6.347540E+03	1.034486E-04	3.470457E-05
6.357443E+03	1.033626E-04	3.467322E-05
6.367345E+03	1.033083E-04	3.465246E-05
6.377248E+03	1.032826E-04	3.464130E-05
6.387150E+03	1.032871E-04	3.464027E-05
6.397053E+03	1.033189E-04	3.464836E-05
6.406956E+03	1.033795E-04	3.466611E-05
6.416858E+03	1.034690E-04	3.469355E-05
6.426761E+03	1.035860E-04	3.473016E-05
6.436663E+03	1.037304E-04	3.477598E-05
6.446566E+03	1.039024E-04	3.483102E-05
6.456468E+03	1.041021E-04	3.489531E-05
6.466371E+03	1.043295E-04	3.496888E-05
6.476273E+03	1.045864E-04	3.505230E-05
6.486176E+03	1.048712E-04	3.514507E-05
6.496079E+03	1.051824E-04	3.524665E-05
6.505981E+03	1.055235E-04	3.535820E-05
6.515884E+03	1.058911E-04	3.547862E-05
6.525786E+03	1.062870E-04	3.560852E-05
6.535689E+03	1.067115E-04	3.574793E-05
6.545591E+03	1.071646E-04	3.589689E-05
6.555494E+03	1.076464E-04	3.605546E-05
6.565396E+03	1.081554E-04	3.622307E-05
6.575299E+03	1.086934E-04	3.640036E-05
6.585202E+03	1.092587E-04	3.658676E-05
6.595104E+03	1.098534E-04	3.678294E-05
6.605007E+03	1.104756E-04	3.698832E-05
6.614909E+03	1.111256E-04	3.720294E-05
6.624812E+03	1.118053E-04	3.742748E-05
6.634714E+03	1.125150E-04	3.766200E-05
6.644617E+03	1.132511E-04	3.790528E-05
6.654520E+03	1.140174E-04	3.815864E-05
6.664422E+03	1.148103E-04	3.842085E-05
6.674325E+03	1.156338E-04	3.869327E-05
6.684227E+03	1.164863E-04	3.897531E-05
6.694130E+03	1.173659E-04	3.926634E-05
6.704032E+03	1.182768E-04	3.956781E-05
6.713935E+03	1.192151E-04	3.987837E-05
6.723837E+03	1.201831E-04	4.019882E-05
6.733740E+03	1.211811E-04	4.052920E-05
6.743643E+03	1.222092E-04	4.086960E-05
6.753545E+03	1.232654E-04	4.121935E-05
6.763448E+03	1.243522E-04	4.157924E-05
6.773350E+03	1.254676E-04	4.194860E-05
6.783253E+03	1.266139E-04	4.232824E-05
6.793155E+03	1.277891E-04	4.271746E-05
6.803058E+03	1.289933E-04	4.311631E-05
6.812960E+03	1.302291E-04	4.352562E-05
6.822863E+03	1.314919E-04	4.394386E-05
6.832766E+03	1.327866E-04	4.437270E-05
6.842668E+03	1.341110E-04	4.481134E-05
6.852571E+03	1.354651E-04	4.525985E-05
6.862473E+03	1.368491E-04	4.571825E-05
6.872376E+03	1.382631E-04	4.618659E-05
6.882278E+03	1.397047E-04	4.666402E-05
6.892181E+03	1.411764E-04	4.715144E-05
6.902083E+03	1.426784E-04	4.764887E-05
6.911986E+03	1.442108E-04	4.815635E-05
6.921889E+03	1.457681E-04	4.867203E-05
6.931791E+03	1.473586E-04	4.919870E-05
6.941694E+03	1.489739E-04	4.973354E-05
6.951596E+03	1.506197E-04	5.027846E-05
6.961499E+03	1.522930E-04	5.083246E-05
6.971401E+03	1.539939E-04	5.139553E-05
6.981304E+03	1.557222E-04	5.196763E-05
6.991207E+03	1.574777E-04	5.254874E-05
7.001109E+03	1.592574E-04	5.313775E-05
7.011012E+03	1.610641E-04	5.373565E-05
7.020914E+03	1.628976E-04	5.434240E-05
7.030817E+03	1.647546E-04	5.495686E-05
7.040719E+03	1.666381E-04	5.558001E-05
7.050622E+03	1.685445E-04	5.621070E-05
7.060524E+03	1.704735E-04	5.684879E-05
7.070427E+03	1.724248E-04	5.749416E-05
7.080330E+03	1.744015E-04	5.814788E-05
7.090232E+03	1.763961E-04	5.880746E-05
7.100135E+03	1.784081E-04	5.947268E-05
7.110037E+03	1.804443E-04	6.014585E-05
7.119940E+03	1.824970E-04	6.082434E-05
7.129842E+03	1.845653E-04	6.150792E-05
7.139745E+03	1.866526E-04	6.219769E-05
7.149647E+03	1.887543E-04	6.289212E-05
7.159550E+03	1.908698E-04	6.359098E-05
7.169453E+03	1.929982E-04	6.429403E-05
7.179355E+03	1.951388E-04	6.500098E-05
7.189258E+03	1.972951E-04	6.571300E-05
7.199160E+03	1.994577E-04	6.642699E-05
7.209063E+03	2.016343E-04	6.714550E-05
7.218965E+03	2.038198E-04	6.786681E-05
7.228868E+03	2.060133E-04	6.859063E-05
7.238770E+03	2.082183E-04	6.931816E-05
7.248673E+03	2.104294E-04	7.004757E-05
7.258576E+03	2.126504E-04	7.078009E-05
7.268478E+03	2.148804E-04	7.151546E-05
7.278381E+03	2.171233E-04	7.225499E-05
7.288283E+03	2.193785E-04	7.299845E-05
7.298186E+03	2.216503E-04	7.374728E-05
7.308088E+03	2.239331E-04	7.449964E-05
7.317991E+03	2.262418E-04	7.526043E-05
7.327894E+03	2.285762E-04	7.602963E-05
7.337796E+03	2.309309E-04	7.680543E-05
7.347699E+03	2.333219E-04	7.759314E-05
7.357601E+03	2.357441E-04	7.839103E-05
7.367504E+03	2.382030E-04	7.920102E-05
7.377406E+03	2.406936E-04	8.002134E-05
7.387309E+03	2.432216E-04	8.085393E-05
7.397211E+03	2.457699E-04	8.169312E-05
7.407114E+03	2.483501E-04	8.254272E-05
7.417017E+03	2.509442E-04	8.339679E-05
7.426919E+03	2.535577E-04	8.425712E-05
7.436822E+03	2.561840E-04	8.512153E-05
7.446724E+03	2.588162E-04	8.598773E-05
7.456627E+03	2.614596E-04	8.685749E-05
7.466529E+03	2.640944E-04	8.772419E-05
7.476432E+03	2.667318E-04	8.859162E-05
7.486334E+03	2.693645E-04	8.945727E-05
7.496237E+03	2.719908E-04	9.032067E-05
7.506140E+03	2.746029E-04	9.117917E-05
7.516042E+03	2.772059E-04	9.203447E-05
7.525945E+03	2.797915E-04	9.288381E-05
7.535847E+03	2.823579E-04	9.372665E-05
7.545750E+03	2.849106E-04	9.456476E-05
7.555652E+03	2.874410E-04	9.539529E-05
7.565555E+03	2.899545E-04	9.622008E-05
7.575457E+03	2.924350E-04	9.703375E-05
7.585360E+03	2.948954E-04	9.784059E-05
7.595263E+03	2.973265E-04	9.863757E-05
7.605165E+03	2.997343E-04	9.942667E-05
7.615068E+03	3.021095E-04	1.002048E-04
7.624970E+03	3.044502E-04	1.009713E-04
7.634873E+03	3.067547E-04	1.017257E-04
7.644775E+03	3.090371E-04	1.024727E-04
7.654678E+03	3.112718E-04	1.032037E-04
7.664581E+03	3.134815E-04	1.039262E-04
7.674483E+03	3.156482E-04	1.046344E-04
7.684386E+03	3.177786E-04	1.053304E-04
