#wls	flux	fluxerr
1.584409E+03	5.988302E-03	1.889416E-03
1.624020E+03	6.165118E-03	1.945177E-03
1.663630E+03	6.330536E-03	1.997340E-03
1.703240E+03	6.483229E-03	2.045484E-03
1.742850E+03	6.619193E-03	2.088348E-03
1.782461E+03	6.738090E-03	2.125825E-03
1.822071E+03	6.835750E-03	2.156598E-03
1.861681E+03	6.911070E-03	2.180322E-03
1.901291E+03	6.961714E-03	2.196257E-03
1.940902E+03	6.984349E-03	2.203355E-03
1.980512E+03	6.978090E-03	2.201335E-03
2.020122E+03	6.940666E-03	2.189482E-03
2.059732E+03	6.870259E-03	2.167223E-03
2.099342E+03	6.765636E-03	2.134170E-03
2.138953E+03	6.625392E-03	2.089881E-03
2.178563E+03	6.447534E-03	2.033727E-03
2.218173E+03	6.230488E-03	1.965213E-03
2.257783E+03	5.975572E-03	1.884756E-03
2.297394E+03	5.688024E-03	1.794010E-03
2.337004E+03	5.376533E-03	1.695715E-03
2.376614E+03	5.048107E-03	1.592084E-03
2.416224E+03	4.709106E-03	1.485121E-03
2.455835E+03	4.364234E-03	1.376313E-03
2.495445E+03	4.018360E-03	1.267194E-03
2.535055E+03	3.675470E-03	1.159022E-03
2.574665E+03	3.339596E-03	1.053068E-03
2.614276E+03	3.013993E-03	9.503601E-04
2.653886E+03	2.701634E-03	8.518344E-04
2.693496E+03	2.405125E-03	7.583126E-04
2.733106E+03	2.126428E-03	6.704136E-04
2.772716E+03	1.867153E-03	5.886438E-04
2.812327E+03	1.628423E-03	5.133577E-04
2.851937E+03	1.411002E-03	4.447948E-04
2.891547E+03	1.215252E-03	3.830689E-04
2.931157E+03	1.041055E-03	3.281421E-04
2.970768E+03	8.878532E-04	2.798378E-04
2.980670E+03	8.527220E-04	2.687613E-04
2.990573E+03	8.188050E-04	2.580678E-04
3.000475E+03	7.861126E-04	2.477605E-04
3.010378E+03	7.545807E-04	2.378193E-04
3.020280E+03	7.242153E-04	2.282459E-04
3.030183E+03	6.949867E-04	2.190310E-04
3.040086E+03	6.668779E-04	2.101693E-04
3.049988E+03	6.398309E-04	2.016424E-04
3.059891E+03	6.138560E-04	1.934536E-04
3.069793E+03	5.888956E-04	1.855847E-04
3.079696E+03	5.649440E-04	1.780340E-04
3.089598E+03	5.419682E-04	1.707910E-04
3.099501E+03	5.199273E-04	1.638427E-04
3.109403E+03	4.988111E-04	1.571861E-04
3.119306E+03	4.785784E-04	1.508080E-04
3.129209E+03	4.592082E-04	1.447019E-04
3.139111E+03	4.406707E-04	1.388583E-04
3.149014E+03	4.229357E-04	1.332678E-04
3.158916E+03	4.059819E-04	1.279236E-04
3.168819E+03	3.897799E-04	1.228165E-04
3.178721E+03	3.742950E-04	1.179354E-04
3.188624E+03	3.595129E-04	1.132759E-04
3.198526E+03	3.453994E-04	1.088272E-04
3.208429E+03	3.319346E-04	1.045831E-04
3.218332E+03	3.190920E-04	1.005351E-04
3.228234E+03	3.068416E-04	9.667376E-05
3.238137E+03	2.951689E-04	9.299457E-05
3.248039E+03	2.840405E-04	8.948700E-05
3.257942E+03	2.734429E-04	8.614671E-05
3.267844E+03	2.633530E-04	8.296651E-05
3.277747E+03	2.537414E-04	7.993707E-05
3.287650E+03	2.445952E-04	7.705437E-05
3.297552E+03	2.358940E-04	7.431193E-05
3.307455E+03	2.276150E-04	7.170255E-05
3.317357E+03	2.197396E-04	6.922042E-05
3.327260E+03	2.122501E-04	6.685993E-05
3.337162E+03	2.051295E-04	6.461572E-05
3.347065E+03	1.983614E-04	6.248260E-05
3.356967E+03	1.919300E-04	6.045560E-05
3.366870E+03	1.858177E-04	5.852920E-05
3.376773E+03	1.800080E-04	5.669818E-05
3.386675E+03	1.744921E-04	5.495976E-05
3.396578E+03	1.692504E-04	5.330773E-05
3.406480E+03	1.642727E-04	5.173895E-05
3.416383E+03	1.595456E-04	5.024912E-05
3.426285E+03	1.550580E-04	4.883477E-05
3.436188E+03	1.507958E-04	4.749148E-05
3.446090E+03	1.467478E-04	4.621565E-05
3.455993E+03	1.429047E-04	4.500443E-05
3.465896E+03	1.392549E-04	4.385410E-05
3.475798E+03	1.357903E-04	4.276214E-05
3.485701E+03	1.324974E-04	4.172432E-05
3.495603E+03	1.293697E-04	4.073852E-05
3.505506E+03	1.263966E-04	3.980145E-05
3.515408E+03	1.235697E-04	3.891044E-05
3.525311E+03	1.208811E-04	3.806304E-05
3.535213E+03	1.183212E-04	3.725616E-05
3.545116E+03	1.158856E-04	3.648844E-05
3.555019E+03	1.135667E-04	3.575752E-05
3.564921E+03	1.113575E-04	3.506115E-05
3.574824E+03	1.092545E-04	3.439825E-05
3.584726E+03	1.072504E-04	3.376649E-05
3.594629E+03	1.053401E-04	3.316431E-05
3.604531E+03	1.035190E-04	3.259023E-05
3.614434E+03	1.017827E-04	3.204286E-05
3.624337E+03	1.001270E-04	3.152087E-05
3.634239E+03	9.854777E-05	3.102300E-05
3.644142E+03	9.704223E-05	3.054833E-05
3.654044E+03	9.560741E-05	3.009594E-05
3.663947E+03	9.423968E-05	2.966469E-05
3.673849E+03	9.293893E-05	2.925453E-05
3.683752E+03	9.170077E-05	2.886408E-05
3.693654E+03	9.052421E-05	2.849304E-05
3.703557E+03	8.940665E-05	2.814059E-05
3.713460E+03	8.834644E-05	2.780619E-05
3.723362E+03	8.734326E-05	2.748976E-05
3.733265E+03	8.639319E-05	2.719005E-05
3.743167E+03	8.549598E-05	2.690698E-05
3.753070E+03	8.465073E-05	2.664028E-05
3.762972E+03	8.385430E-05	2.638895E-05
3.772875E+03	8.310653E-05	2.615294E-05
3.782777E+03	8.240649E-05	2.593196E-05
3.792680E+03	8.175193E-05	2.572530E-05
3.802583E+03	8.114128E-05	2.553245E-05
3.812485E+03	8.057503E-05	2.535359E-05
3.822388E+03	8.005040E-05	2.518782E-05
3.832290E+03	7.956726E-05	2.503511E-05
3.842193E+03	7.912411E-05	2.489499E-05
3.852095E+03	7.872022E-05	2.476722E-05
3.861998E+03	7.835482E-05	2.465157E-05
3.871900E+03	7.802602E-05	2.454743E-05
3.881803E+03	7.773308E-05	2.445457E-05
3.891706E+03	7.747600E-05	2.437299E-05
3.901608E+03	7.725350E-05	2.430229E-05
3.911511E+03	7.706436E-05	2.424208E-05
3.921413E+03	7.690798E-05	2.419217E-05
3.931316E+03	7.678324E-05	2.415222E-05
3.941218E+03	7.668960E-05	2.412204E-05
3.951121E+03	7.662654E-05	2.410148E-05
3.961024E+03	7.659358E-05	2.409038E-05
3.970926E+03	7.658906E-05	2.408822E-05
3.980829E+03	7.661255E-05	2.409487E-05
3.990731E+03	7.666364E-05	2.411018E-05
4.000634E+03	7.674194E-05	2.413405E-05
4.010536E+03	7.684645E-05	2.416616E-05
4.020439E+03	7.697631E-05	2.420623E-05
4.030341E+03	7.713113E-05	2.425413E-05
4.040244E+03	7.731000E-05	2.430960E-05
4.050147E+03	7.751270E-05	2.437254E-05
4.060049E+03	7.773830E-05	2.444268E-05
4.069952E+03	7.798661E-05	2.451994E-05
4.079854E+03	7.825675E-05	2.460406E-05
4.089757E+03	7.854797E-05	2.469479E-05
4.099659E+03	7.886002E-05	2.479206E-05
4.109562E+03	7.919211E-05	2.489561E-05
4.119464E+03	7.954412E-05	2.500542E-05
4.129367E+03	7.991464E-05	2.512103E-05
4.139270E+03	8.030357E-05	2.524241E-05
4.149172E+03	8.070952E-05	2.536912E-05
4.159075E+03	8.113297E-05	2.550133E-05
4.168977E+03	8.157265E-05	2.563861E-05
4.178880E+03	8.202840E-05	2.578093E-05
4.188782E+03	8.249824E-05	2.592766E-05
4.198685E+03	8.298275E-05	2.607899E-05
4.208587E+03	8.347989E-05	2.623426E-05
4.218490E+03	8.399023E-05	2.639367E-05
4.228393E+03	8.451176E-05	2.655657E-05
4.238295E+03	8.504306E-05	2.672252E-05
4.248198E+03	8.558470E-05	2.689170E-05
4.258100E+03	8.613393E-05	2.706325E-05
4.268003E+03	8.669130E-05	2.723733E-05
4.277905E+03	8.725399E-05	2.741306E-05
4.287808E+03	8.782255E-05	2.759062E-05
4.297711E+03	8.839549E-05	2.776953E-05
4.307613E+03	8.897127E-05	2.794931E-05
4.317516E+03	8.954971E-05	2.812990E-05
4.327418E+03	9.012995E-05	2.831103E-05
4.337321E+03	9.071264E-05	2.849292E-05
4.347223E+03	9.129614E-05	2.867503E-05
4.357126E+03	9.188188E-05	2.885782E-05
4.367028E+03	9.246973E-05	2.904126E-05
4.376931E+03	9.305971E-05	2.922534E-05
4.386834E+03	9.365177E-05	2.941004E-05
4.396736E+03	9.424673E-05	2.959564E-05
4.406639E+03	9.484382E-05	2.978187E-05
4.416541E+03	9.544398E-05	2.996905E-05
4.426444E+03	9.604724E-05	3.015717E-05
4.436346E+03	9.665384E-05	3.034632E-05
4.446249E+03	9.726309E-05	3.053627E-05
4.456151E+03	9.787523E-05	3.072711E-05
4.466054E+03	9.848964E-05	3.091863E-05
4.475957E+03	9.910745E-05	3.111119E-05
4.485859E+03	9.972726E-05	3.130435E-05
4.495762E+03	1.003494E-04	3.149821E-05
4.505664E+03	1.009741E-04	3.169286E-05
4.515567E+03	1.016002E-04	3.188792E-05
4.525469E+03	1.022289E-04	3.208376E-05
4.535372E+03	1.028589E-04	3.227998E-05
4.545274E+03	1.034907E-04	3.247672E-05
4.555177E+03	1.041230E-04	3.267359E-05
4.565080E+03	1.047571E-04	3.287101E-05
4.574982E+03	1.053928E-04	3.306890E-05
4.584885E+03	1.060288E-04	3.326686E-05
4.594787E+03	1.066658E-04	3.346510E-05
4.604690E+03	1.073045E-04	3.366382E-05
4.614592E+03	1.079446E-04	3.386296E-05
4.624495E+03	1.085849E-04	3.406215E-05
4.634398E+03	1.092283E-04	3.426226E-05
4.644300E+03	1.098755E-04	3.446354E-05
4.654203E+03	1.105255E-04	3.466567E-05
4.664105E+03	1.111793E-04	3.486895E-05
4.674008E+03	1.118379E-04	3.507370E-05
4.683910E+03	1.124993E-04	3.527930E-05
4.693813E+03	1.131646E-04	3.548607E-05
4.703715E+03	1.138327E-04	3.569370E-05
4.713618E+03	1.145048E-04	3.590255E-05
4.723521E+03	1.151810E-04	3.611264E-05
4.733423E+03	1.158604E-04	3.632368E-05
4.743326E+03	1.165441E-04	3.653606E-05
4.753228E+03	1.172312E-04	3.674946E-05
4.763131E+03	1.179229E-04	3.696428E-05
4.773033E+03	1.186184E-04	3.718024E-05
4.782936E+03	1.193178E-04	3.739738E-05
4.792838E+03	1.200213E-04	3.761578E-05
4.802741E+03	1.207303E-04	3.783583E-05
4.812644E+03	1.214437E-04	3.805726E-05
4.822546E+03	1.221619E-04	3.828013E-05
4.832449E+03	1.228839E-04	3.850415E-05
4.842351E+03	1.236122E-04	3.873010E-05
4.852254E+03	1.243459E-04	3.895770E-05
4.862156E+03	1.250851E-04	3.918700E-05
4.872059E+03	1.258290E-04	3.941771E-05
4.881961E+03	1.265789E-04	3.965025E-05
4.891864E+03	1.273337E-04	3.988430E-05
4.901767E+03	1.280937E-04	4.011993E-05
4.911669E+03	1.288603E-04	4.035756E-05
4.921572E+03	1.296322E-04	4.059685E-05
4.931474E+03	1.304099E-04	4.083785E-05
4.941377E+03	1.311920E-04	4.108021E-05
4.951279E+03	1.319798E-04	4.132432E-05
4.961182E+03	1.327736E-04	4.157022E-05
4.971085E+03	1.335720E-04	4.181754E-05
4.980987E+03	1.343750E-04	4.206626E-05
4.990890E+03	1.351828E-04	4.231640E-05
5.000792E+03	1.359939E-04	4.256754E-05
5.010695E+03	1.368095E-04	4.282004E-05
5.020597E+03	1.376296E-04	4.307390E-05
5.030500E+03	1.384515E-04	4.332825E-05
5.040402E+03	1.392762E-04	4.358344E-05
5.050305E+03	1.401036E-04	4.383942E-05
5.060208E+03	1.409322E-04	4.409570E-05
5.070110E+03	1.417616E-04	4.435218E-05
5.080013E+03	1.425916E-04	4.460879E-05
5.089915E+03	1.434217E-04	4.486542E-05
5.099818E+03	1.442504E-04	4.512151E-05
5.109720E+03	1.450786E-04	4.537738E-05
5.119623E+03	1.459029E-04	4.563199E-05
5.129525E+03	1.467243E-04	4.588564E-05
5.139428E+03	1.475409E-04	4.613772E-05
5.149331E+03	1.483521E-04	4.638806E-05
5.159233E+03	1.491573E-04	4.663645E-05
5.169136E+03	1.499558E-04	4.688270E-05
5.179038E+03	1.507440E-04	4.712567E-05
5.188941E+03	1.515241E-04	4.736606E-05
5.198843E+03	1.522940E-04	4.760318E-05
5.208746E+03	1.530528E-04	4.783679E-05
5.218648E+03	1.537983E-04	4.806617E-05
5.228551E+03	1.545296E-04	4.829105E-05
5.238454E+03	1.552459E-04	4.851119E-05
5.248356E+03	1.559463E-04	4.872630E-05
5.258259E+03	1.566299E-04	4.893612E-05
5.268161E+03	1.572945E-04	4.913993E-05
5.278064E+03	1.579421E-04	4.933839E-05
5.287966E+03	1.585690E-04	4.953029E-05
5.297869E+03	1.591742E-04	4.971538E-05
5.307772E+03	1.597600E-04	4.989437E-05
5.317674E+03	1.603227E-04	5.006605E-05
5.327577E+03	1.608645E-04	5.023118E-05
5.337479E+03	1.613833E-04	5.038905E-05
5.347382E+03	1.618799E-04	5.053997E-05
5.357284E+03	1.623521E-04	5.068322E-05
5.367187E+03	1.628027E-04	5.081963E-05
5.377089E+03	1.632294E-04	5.094857E-05
5.386992E+03	1.636335E-04	5.107040E-05
5.396895E+03	1.640112E-04	5.118394E-05
5.406797E+03	1.643638E-04	5.128960E-05
5.416700E+03	1.646894E-04	5.138677E-05
5.426602E+03	1.649859E-04	5.147485E-05
5.436505E+03	1.652549E-04	5.155428E-05
5.446407E+03	1.654928E-04	5.162396E-05
5.456310E+03	1.656977E-04	5.168332E-05
5.466212E+03	1.658696E-04	5.173234E-05
5.476115E+03	1.660050E-04	5.176995E-05
5.486018E+03	1.661056E-04	5.179666E-05
5.495920E+03	1.661663E-04	5.181092E-05
5.505823E+03	1.661907E-04	5.181379E-05
5.515725E+03	1.661771E-04	5.180480E-05
5.525628E+03	1.661240E-04	5.178347E-05
5.535530E+03	1.660316E-04	5.174987E-05
5.545433E+03	1.659002E-04	5.170409E-05
5.555335E+03	1.657284E-04	5.164570E-05
5.565238E+03	1.655200E-04	5.157588E-05
5.575141E+03	1.652720E-04	5.149368E-05
5.585043E+03	1.649882E-04	5.140033E-05
5.594946E+03	1.646657E-04	5.129492E-05
5.604848E+03	1.643085E-04	5.117870E-05
5.614751E+03	1.639172E-04	5.105184E-05
5.624653E+03	1.634908E-04	5.091402E-05
5.634556E+03	1.630316E-04	5.076600E-05
5.644459E+03	1.625404E-04	5.060802E-05
5.654361E+03	1.620197E-04	5.044084E-05
5.664264E+03	1.614702E-04	5.026474E-05
5.674166E+03	1.608914E-04	5.007946E-05
5.684069E+03	1.602873E-04	4.988636E-05
5.693971E+03	1.596590E-04	4.968573E-05
5.703874E+03	1.590059E-04	4.947738E-05
5.713776E+03	1.583307E-04	4.926215E-05
5.723679E+03	1.576361E-04	4.904093E-05
5.733582E+03	1.569233E-04	4.881405E-05
5.743484E+03	1.561918E-04	4.858139E-05
5.753387E+03	1.554446E-04	4.834383E-05
5.763289E+03	1.546845E-04	4.810228E-05
5.773192E+03	1.539127E-04	4.785714E-05
5.783094E+03	1.531290E-04	4.760830E-05
5.792997E+03	1.523362E-04	4.735668E-05
5.802899E+03	1.515359E-04	4.710272E-05
5.812802E+03	1.507309E-04	4.684733E-05
5.822705E+03	1.499225E-04	4.659094E-05
5.832607E+03	1.491106E-04	4.633345E-05
5.842510E+03	1.482981E-04	4.607581E-05
5.852412E+03	1.474846E-04	4.581792E-05
5.862315E+03	1.466766E-04	4.556173E-05
5.872217E+03	1.458704E-04	4.530612E-05
5.882120E+03	1.450689E-04	4.505200E-05
5.892022E+03	1.442749E-04	4.480027E-05
5.901925E+03	1.434883E-04	4.455083E-05
5.911828E+03	1.427100E-04	4.430403E-05
5.921730E+03	1.419431E-04	4.406075E-05
5.931633E+03	1.411868E-04	4.382084E-05
5.941535E+03	1.404441E-04	4.358513E-05
5.951438E+03	1.397126E-04	4.335296E-05
5.961340E+03	1.389967E-04	4.312561E-05
5.971243E+03	1.382939E-04	4.290239E-05
5.981146E+03	1.376086E-04	4.268460E-05
5.991048E+03	1.369366E-04	4.247098E-05
6.000951E+03	1.362820E-04	4.226276E-05
6.010853E+03	1.356440E-04	4.205970E-05
6.020756E+03	1.350232E-04	4.186200E-05
6.030658E+03	1.344171E-04	4.166888E-05
6.040561E+03	1.338294E-04	4.148149E-05
6.050463E+03	1.332558E-04	4.129851E-05
6.060366E+03	1.327002E-04	4.112109E-05
6.070269E+03	1.321581E-04	4.094787E-05
6.080171E+03	1.316298E-04	4.077895E-05
6.090074E+03	1.311141E-04	4.061394E-05
6.099976E+03	1.306112E-04	4.045290E-05
6.109879E+03	1.301164E-04	4.029442E-05
6.119781E+03	1.296300E-04	4.013851E-05
6.129684E+03	1.291503E-04	3.998470E-05
6.139586E+03	1.286774E-04	3.983300E-05
6.149489E+03	1.282111E-04	3.968338E-05
6.159392E+03	1.277548E-04	3.953684E-05
6.169294E+03	1.273131E-04	3.939485E-05
6.179197E+03	1.268876E-04	3.925789E-05
6.189099E+03	1.264815E-04	3.912691E-05
6.199002E+03	1.260980E-04	3.900292E-05
6.208904E+03	1.257384E-04	3.888636E-05
6.218807E+03	1.254061E-04	3.877822E-05
6.228709E+03	1.251025E-04	3.867898E-05
6.238612E+03	1.248293E-04	3.858910E-05
6.248515E+03	1.245896E-04	3.850961E-05
6.258417E+03	1.243835E-04	3.844049E-05
6.268320E+03	1.242143E-04	3.838275E-05
6.278222E+03	1.240802E-04	3.833585E-05
6.288125E+03	1.239830E-04	3.830033E-05
6.298027E+03	1.239227E-04	3.827619E-05
6.307930E+03	1.239010E-04	3.826395E-05
6.317833E+03	1.239162E-04	3.826308E-05
6.327735E+03	1.239684E-04	3.827361E-05
6.337638E+03	1.240558E-04	3.829497E-05
6.347540E+03	1.241749E-04	3.832607E-05
6.357443E+03	1.243238E-04	3.836635E-05
6.367345E+03	1.245025E-04	3.841575E-05
6.377248E+03	1.247108E-04	3.847426E-05
6.387150E+03	1.249487E-04	3.854186E-05
6.397053E+03	1.252181E-04	3.861911E-05
6.406956E+03	1.255207E-04	3.870656E-05
6.416858E+03	1.258567E-04	3.880426E-05
6.426761E+03	1.262242E-04	3.891160E-05
6.436663E+03	1.266271E-04	3.902979E-05
6.446566E+03	1.270656E-04	3.915888E-05
6.456468E+03	1.275378E-04	3.929828E-05
6.466371E+03	1.280458E-04	3.944866E-05
6.476273E+03	1.285899E-04	3.961005E-05
6.486176E+03	1.291681E-04	3.978190E-05
6.496079E+03	1.297807E-04	3.996425E-05
6.505981E+03	1.304320E-04	4.015842E-05
6.515884E+03	1.311161E-04	4.036258E-05
6.525786E+03	1.318372E-04	4.057806E-05
6.535689E+03	1.325958E-04	4.080494E-05
6.545591E+03	1.333877E-04	4.104200E-05
6.555494E+03	1.342175E-04	4.129061E-05
6.565396E+03	1.350811E-04	4.154951E-05
6.575299E+03	1.359833E-04	4.182015E-05
6.585202E+03	1.369199E-04	4.210122E-05
6.595104E+03	1.378933E-04	4.239352E-05
6.605007E+03	1.389039E-04	4.269714E-05
6.614909E+03	1.399498E-04	4.301143E-05
6.624812E+03	1.410311E-04	4.333650E-05
6.634714E+03	1.421506E-04	4.367315E-05
6.644617E+03	1.433062E-04	4.402074E-05
6.654520E+03	1.444982E-04	4.437937E-05
6.664422E+03	1.457270E-04	4.474913E-05
6.674325E+03	1.469929E-04	4.513011E-05
6.684227E+03	1.482961E-04	4.552242E-05
6.694130E+03	1.496372E-04	4.592615E-05
6.704032E+03	1.510137E-04	4.634059E-05
6.713935E+03	1.524286E-04	4.676666E-05
6.723837E+03	1.538824E-04	4.720445E-05
6.733740E+03	1.553727E-04	4.765325E-05
6.743643E+03	1.569025E-04	4.811399E-05
6.753545E+03	1.584695E-04	4.858591E-05
6.763448E+03	1.600740E-04	4.906913E-05
6.773350E+03	1.617162E-04	4.956371E-05
6.783253E+03	1.633965E-04	5.006976E-05
6.793155E+03	1.651183E-04	5.058828E-05
6.803058E+03	1.668758E-04	5.111755E-05
6.812960E+03	1.686724E-04	5.165855E-05
6.822863E+03	1.705085E-04	5.221141E-05
6.832766E+03	1.723811E-04	5.277521E-05
6.842668E+03	1.742937E-04	5.335102E-05
6.852571E+03	1.762467E-04	5.393894E-05
6.862473E+03	1.782371E-04	5.453805E-05
6.872376E+03	1.802650E-04	5.514837E-05
6.882278E+03	1.823341E-04	5.577104E-05
6.892181E+03	1.844413E-04	5.640508E-05
6.902083E+03	1.865866E-04	5.705053E-05
6.911986E+03	1.887704E-04	5.770745E-05
6.921889E+03	1.909928E-04	5.837586E-05
6.931791E+03	1.932501E-04	5.905467E-05
6.941694E+03	1.955500E-04	5.974620E-05
6.951596E+03	1.978851E-04	6.044818E-05
6.961499E+03	2.002593E-04	6.116180E-05
6.971401E+03	2.026686E-04	6.188584E-05
6.981304E+03	2.051132E-04	6.262030E-05
6.991207E+03	2.075968E-04	6.336639E-05
7.001109E+03	2.101156E-04	6.412287E-05
7.011012E+03	2.126651E-04	6.488839E-05
7.020914E+03	2.152536E-04	6.566547E-05
7.030817E+03	2.178767E-04	6.645280E-05
7.040719E+03	2.205300E-04	6.724894E-05
7.050622E+03	2.232174E-04	6.805515E-05
7.060524E+03	2.259342E-04	6.886996E-05
7.070427E+03	2.286845E-04	6.969465E-05
7.080330E+03	2.314635E-04	7.052769E-05
7.090232E+03	2.342754E-04	7.137039E-05
7.100135E+03	2.371101E-04	7.221965E-05
7.110037E+03	2.399717E-04	7.307675E-05
7.119940E+03	2.428649E-04	7.394306E-05
7.129842E+03	2.457788E-04	7.481531E-05
7.139745E+03	2.487126E-04	7.569322E-05
7.149647E+03	2.516707E-04	7.657814E-05
7.159550E+03	2.546524E-04	7.746983E-05
7.169453E+03	2.576514E-04	7.836640E-05
7.179355E+03	2.606723E-04	7.926923E-05
7.189258E+03	2.637087E-04	8.017635E-05
7.199160E+03	2.667593E-04	8.108741E-05
7.209063E+03	2.698290E-04	8.200384E-05
7.218965E+03	2.729109E-04	8.292359E-05
7.228868E+03	2.760098E-04	8.384808E-05
7.238770E+03	2.791188E-04	8.477520E-05
7.248673E+03	2.822364E-04	8.570455E-05
7.258576E+03	2.853741E-04	8.663956E-05
7.268478E+03	2.885183E-04	8.757612E-05
7.278381E+03	2.916806E-04	8.851777E-05
7.288283E+03	2.948538E-04	8.946230E-05
7.298186E+03	2.980434E-04	9.041137E-05
7.308088E+03	3.012554E-04	9.136682E-05
7.317991E+03	3.044825E-04	9.232639E-05
7.327894E+03	3.077378E-04	9.329411E-05
7.337796E+03	3.110211E-04	9.426989E-05
7.347699E+03	3.143396E-04	9.525586E-05
7.357601E+03	3.176932E-04	9.625205E-05
7.367504E+03	3.210823E-04	9.725853E-05
7.377406E+03	3.245144E-04	9.827759E-05
7.387309E+03	3.279748E-04	9.930477E-05
7.397211E+03	3.314635E-04	1.003400E-04
7.407114E+03	3.349725E-04	1.013810E-04
7.417017E+03	3.385090E-04	1.024298E-04
7.426919E+03	3.420649E-04	1.034841E-04
7.436822E+03	3.456320E-04	1.045412E-04
7.446724E+03	3.492091E-04	1.056009E-04
7.456627E+03	3.527950E-04	1.066628E-04
7.466529E+03	3.563808E-04	1.077242E-04
7.476432E+03	3.599739E-04	1.087873E-04
7.486334E+03	3.635555E-04	1.098465E-04
7.496237E+03	3.671420E-04	1.109067E-04
7.506140E+03	3.707227E-04	1.119647E-04
7.516042E+03	3.742966E-04	1.130202E-04
7.525945E+03	3.778528E-04	1.140698E-04
7.535847E+03	3.813988E-04	1.151160E-04
7.545750E+03	3.849323E-04	1.161579E-04
7.555652E+03	3.884524E-04	1.171954E-04
7.565555E+03	3.919468E-04	1.182246E-04
7.575457E+03	3.954233E-04	1.192480E-04
7.585360E+03	3.988698E-04	1.202619E-04
7.595263E+03	4.023041E-04	1.212717E-04
7.605165E+03	4.056933E-04	1.222675E-04
7.615068E+03	4.090658E-04	1.232578E-04
7.624970E+03	4.124089E-04	1.242388E-04
7.634873E+03	4.157096E-04	1.252067E-04
7.644775E+03	4.189755E-04	1.261637E-04
7.654678E+03	4.222043E-04	1.271092E-04
7.664581E+03	4.253931E-04	1.280422E-04
7.674483E+03	4.285395E-04	1.289620E-04
7.684386E+03	4.316515E-04	1.298712E-04
