#wls	flux	fluxerr
1.584409E+03	2.117811E-03	7.683125E-04
1.624020E+03	2.077316E-03	7.510196E-04
1.663630E+03	2.035812E-03	7.333641E-04
1.703240E+03	1.993172E-03	7.153068E-04
1.742850E+03	1.949445E-03	6.968738E-04
1.782461E+03	1.904490E-03	6.780241E-04
1.822071E+03	1.858503E-03	6.588365E-04
1.861681E+03	1.811476E-03	6.393176E-04
1.901291E+03	1.763266E-03	6.194275E-04
1.940902E+03	1.713768E-03	5.991410E-04
1.980512E+03	1.662914E-03	5.784475E-04
2.020122E+03	1.610785E-03	5.573883E-04
2.059732E+03	1.556972E-03	5.358374E-04
2.099342E+03	1.501510E-03	5.138243E-04
2.138953E+03	1.444325E-03	4.913416E-04
2.178563E+03	1.385144E-03	4.683172E-04
2.218173E+03	1.324254E-03	4.448704E-04
2.257783E+03	1.261861E-03	4.210915E-04
2.297394E+03	1.198551E-03	3.971965E-04
2.337004E+03	1.134974E-03	3.734180E-04
2.376614E+03	1.071791E-03	3.499870E-04
2.416224E+03	1.009684E-03	3.271341E-04
2.455835E+03	9.490185E-04	3.049822E-04
2.495445E+03	8.902014E-04	2.836632E-04
2.535055E+03	8.335057E-04	2.632616E-04
2.574665E+03	7.790467E-04	2.438089E-04
2.614276E+03	7.269430E-04	2.253358E-04
2.653886E+03	6.772375E-04	2.078471E-04
2.693496E+03	6.299876E-04	1.913508E-04
2.733106E+03	5.851993E-04	1.758376E-04
2.772716E+03	5.428808E-04	1.612979E-04
2.812327E+03	5.030257E-04	1.477164E-04
2.851937E+03	4.656814E-04	1.350922E-04
2.891547E+03	4.308624E-04	1.234134E-04
2.931157E+03	3.985724E-04	1.126634E-04
2.970768E+03	3.688529E-04	1.028345E-04
2.980670E+03	3.618295E-04	1.005202E-04
2.990573E+03	3.549649E-04	9.826127E-05
3.000475E+03	3.482589E-04	9.605735E-05
3.010378E+03	3.417184E-04	9.390999E-05
3.020280E+03	3.353420E-04	9.181846E-05
3.030183E+03	3.291291E-04	8.978218E-05
3.040086E+03	3.230788E-04	8.780053E-05
3.049988E+03	3.171900E-04	8.587286E-05
3.059891E+03	3.114623E-04	8.399868E-05
3.069793E+03	3.059014E-04	8.217909E-05
3.079696E+03	3.005062E-04	8.041339E-05
3.089598E+03	2.952697E-04	7.869934E-05
3.099501E+03	2.902032E-04	7.703948E-05
3.109403E+03	2.852942E-04	7.543009E-05
3.119306E+03	2.805478E-04	7.387213E-05
3.129209E+03	2.759687E-04	7.236637E-05
3.139111E+03	2.715508E-04	7.091074E-05
3.149014E+03	2.672985E-04	6.950598E-05
3.158916E+03	2.632060E-04	6.815013E-05
3.168819E+03	2.592778E-04	6.684389E-05
3.178721E+03	2.555132E-04	6.558658E-05
3.188624E+03	2.519069E-04	6.437643E-05
3.198526E+03	2.484635E-04	6.321409E-05
3.208429E+03	2.451821E-04	6.209888E-05
3.218332E+03	2.420626E-04	6.103029E-05
3.228234E+03	2.391047E-04	6.000773E-05
3.238137E+03	2.363084E-04	5.903070E-05
3.248039E+03	2.336734E-04	5.809865E-05
3.257942E+03	2.311964E-04	5.721019E-05
3.267844E+03	2.288849E-04	5.636672E-05
3.277747E+03	2.267319E-04	5.556596E-05
3.287650E+03	2.247418E-04	5.480845E-05
3.297552E+03	2.229116E-04	5.409291E-05
3.307455E+03	2.212456E-04	5.341989E-05
3.317357E+03	2.197448E-04	5.278900E-05
3.327260E+03	2.184036E-04	5.219836E-05
3.337162E+03	2.172300E-04	5.164931E-05
3.347065E+03	2.162191E-04	5.114009E-05
3.356967E+03	2.153755E-04	5.067120E-05
3.366870E+03	2.147012E-04	5.024250E-05
3.376773E+03	2.141920E-04	4.985240E-05
3.386675E+03	2.138563E-04	4.950219E-05
3.396578E+03	2.136902E-04	4.919036E-05
3.406480E+03	2.136966E-04	4.891688E-05
3.416383E+03	2.138780E-04	4.868171E-05
3.426285E+03	2.142345E-04	4.848417E-05
3.436188E+03	2.147721E-04	4.832489E-05
3.446090E+03	2.154883E-04	4.820262E-05
3.455993E+03	2.163866E-04	4.811741E-05
3.465896E+03	2.174679E-04	4.806873E-05
3.475798E+03	2.187385E-04	4.805719E-05
3.485701E+03	2.201968E-04	4.808168E-05
3.495603E+03	2.218441E-04	4.814168E-05
3.505506E+03	2.236871E-04	4.823786E-05
3.515408E+03	2.257217E-04	4.836849E-05
3.525311E+03	2.279523E-04	4.853368E-05
3.535213E+03	2.303828E-04	4.873341E-05
3.545116E+03	2.330119E-04	4.896651E-05
3.555019E+03	2.358436E-04	4.923298E-05
3.564921E+03	2.388763E-04	4.953157E-05
3.574824E+03	2.421109E-04	4.986156E-05
3.584726E+03	2.455510E-04	5.022276E-05
3.594629E+03	2.491914E-04	5.061318E-05
3.604531E+03	2.530375E-04	5.103299E-05
3.614434E+03	2.570860E-04	5.148059E-05
3.624337E+03	2.613362E-04	5.195487E-05
3.634239E+03	2.657838E-04	5.245404E-05
3.644142E+03	2.704292E-04	5.297723E-05
3.654044E+03	2.752696E-04	5.352297E-05
3.663947E+03	2.802987E-04	5.408908E-05
3.673849E+03	2.855148E-04	5.467429E-05
3.683752E+03	2.909128E-04	5.527675E-05
3.693654E+03	2.964836E-04	5.589383E-05
3.703557E+03	3.022290E-04	5.652498E-05
3.713460E+03	3.081354E-04	5.716681E-05
3.723362E+03	3.141970E-04	5.781741E-05
3.733265E+03	3.204102E-04	5.847532E-05
3.743167E+03	3.267586E-04	5.913680E-05
3.753070E+03	3.332404E-04	5.980078E-05
3.762972E+03	3.398404E-04	6.046386E-05
3.772875E+03	3.465526E-04	6.112431E-05
3.782777E+03	3.533672E-04	6.177981E-05
3.792680E+03	3.602708E-04	6.242744E-05
3.802583E+03	3.672528E-04	6.306488E-05
3.812485E+03	3.743061E-04	6.369044E-05
3.822388E+03	3.814164E-04	6.430129E-05
3.832290E+03	3.885770E-04	6.489591E-05
3.842193E+03	3.957740E-04	6.547171E-05
3.852095E+03	4.030014E-04	6.602740E-05
3.861998E+03	4.102500E-04	6.656128E-05
3.871900E+03	4.175117E-04	6.707182E-05
3.881803E+03	4.247828E-04	6.755832E-05
3.891706E+03	4.320534E-04	6.801908E-05
3.901608E+03	4.393223E-04	6.845384E-05
3.911511E+03	4.465902E-04	6.886263E-05
3.921413E+03	4.538471E-04	6.924389E-05
3.931316E+03	4.611048E-04	6.959935E-05
3.941218E+03	4.683609E-04	6.992860E-05
3.951121E+03	4.756189E-04	7.023211E-05
3.961024E+03	4.828880E-04	7.051118E-05
3.970926E+03	4.901716E-04	7.076618E-05
3.980829E+03	4.974874E-04	7.099952E-05
3.990731E+03	5.048469E-04	7.121264E-05
4.000634E+03	5.122636E-04	7.140718E-05
4.010536E+03	5.197490E-04	7.158438E-05
4.020439E+03	5.273293E-04	7.174749E-05
4.030341E+03	5.350247E-04	7.189868E-05
4.040244E+03	5.428572E-04	7.204033E-05
4.050147E+03	5.508513E-04	7.217494E-05
4.060049E+03	5.590337E-04	7.230515E-05
4.069952E+03	5.674380E-04	7.243431E-05
4.079854E+03	5.760911E-04	7.256472E-05
4.089757E+03	5.850322E-04	7.269999E-05
4.099659E+03	5.942984E-04	7.284326E-05
4.109562E+03	6.039300E-04	7.299777E-05
4.119464E+03	6.139701E-04	7.316686E-05
4.129367E+03	6.244658E-04	7.335403E-05
4.139270E+03	6.354726E-04	7.356348E-05
4.149172E+03	6.470346E-04	7.379767E-05
4.159075E+03	6.592153E-04	7.406102E-05
4.168977E+03	6.720836E-04	7.435809E-05
4.178880E+03	6.856953E-04	7.469159E-05
4.188782E+03	7.001286E-04	7.506620E-05
4.198685E+03	7.154542E-04	7.548539E-05
4.208587E+03	7.317600E-04	7.595387E-05
4.218490E+03	7.491266E-04	7.647509E-05
4.228393E+03	7.676385E-04	7.705234E-05
4.238295E+03	7.874036E-04	7.769072E-05
4.248198E+03	8.085012E-04	7.839182E-05
4.258100E+03	8.310461E-04	7.916016E-05
4.268003E+03	8.551344E-04	7.999777E-05
4.277905E+03	8.808695E-04	8.090681E-05
4.287808E+03	9.083458E-04	8.188794E-05
4.297711E+03	9.376695E-04	8.294240E-05
4.307613E+03	9.689364E-04	8.406988E-05
4.317516E+03	1.002230E-03	8.526855E-05
4.327418E+03	1.037669E-03	8.653905E-05
4.337321E+03	1.075345E-03	8.787917E-05
4.347223E+03	1.115390E-03	8.928962E-05
4.357126E+03	1.157939E-03	9.077070E-05
4.367028E+03	1.203177E-03	9.232577E-05
4.376931E+03	1.251278E-03	9.395648E-05
4.386834E+03	1.302476E-03	9.566831E-05
4.396736E+03	1.356989E-03	9.746410E-05
4.406639E+03	1.415035E-03	9.934604E-05
4.416541E+03	1.476876E-03	1.013183E-04
4.426444E+03	1.542735E-03	1.033815E-04
4.436346E+03	1.612849E-03	1.055363E-04
4.446249E+03	1.687451E-03	1.077826E-04
4.456151E+03	1.766773E-03	1.101195E-04
4.466054E+03	1.851025E-03	1.125446E-04
4.475957E+03	1.940440E-03	1.150566E-04
4.485859E+03	2.035228E-03	1.176532E-04
4.495762E+03	2.135569E-03	1.203301E-04
4.505664E+03	2.241620E-03	1.230831E-04
4.515567E+03	2.353558E-03	1.259097E-04
4.525469E+03	2.471515E-03	1.288064E-04
4.535372E+03	2.595542E-03	1.317677E-04
4.545274E+03	2.725742E-03	1.347926E-04
4.555177E+03	2.862053E-03	1.378752E-04
4.565080E+03	3.004451E-03	1.410147E-04
4.574982E+03	3.152831E-03	1.442105E-04
4.584885E+03	3.306989E-03	1.474622E-04
4.594787E+03	3.466675E-03	1.507722E-04
4.604690E+03	3.631494E-03	1.541426E-04
4.614592E+03	3.801098E-03	1.575834E-04
4.624495E+03	3.974881E-03	1.611000E-04
4.634398E+03	4.152291E-03	1.647067E-04
4.644300E+03	4.332641E-03	1.684185E-04
4.654203E+03	4.515237E-03	1.722562E-04
4.664105E+03	4.699285E-03	1.762418E-04
4.674008E+03	4.884085E-03	1.804048E-04
4.683910E+03	5.068886E-03	1.847759E-04
4.693813E+03	5.253151E-03	1.893949E-04
4.703715E+03	5.436224E-03	1.942971E-04
4.713618E+03	5.617668E-03	1.995212E-04
4.723521E+03	5.797062E-03	2.050910E-04
4.733423E+03	5.973996E-03	2.110216E-04
4.743326E+03	6.148228E-03	2.173272E-04
4.753228E+03	6.319445E-03	2.240130E-04
4.763131E+03	6.487437E-03	2.310809E-04
4.773033E+03	6.652016E-03	2.385274E-04
4.782936E+03	6.813029E-03	2.463442E-04
4.792838E+03	6.970261E-03	2.545157E-04
4.802741E+03	7.123720E-03	2.630295E-04
4.812644E+03	7.273072E-03	2.718568E-04
4.822546E+03	7.418330E-03	2.809783E-04
4.832449E+03	7.559298E-03	2.903642E-04
4.842351E+03	7.695917E-03	2.999877E-04
4.852254E+03	7.827898E-03	3.098112E-04
4.862156E+03	7.955175E-03	3.198049E-04
4.872059E+03	8.077618E-03	3.299351E-04
4.881961E+03	8.195009E-03	3.401642E-04
4.891864E+03	8.307300E-03	3.504613E-04
4.901767E+03	8.414278E-03	3.607883E-04
4.911669E+03	8.515916E-03	3.711154E-04
4.921572E+03	8.611967E-03	3.814032E-04
4.931474E+03	8.702570E-03	3.916298E-04
4.941377E+03	8.787566E-03	4.017596E-04
4.951279E+03	8.867088E-03	4.117704E-04
4.961182E+03	8.941108E-03	4.216336E-04
4.971085E+03	9.009802E-03	4.313310E-04
4.980987E+03	9.073277E-03	4.408428E-04
4.990890E+03	9.131480E-03	4.501421E-04
5.000792E+03	9.184656E-03	4.592179E-04
5.010695E+03	9.232976E-03	4.680571E-04
5.020597E+03	9.276631E-03	4.766488E-04
5.030500E+03	9.315638E-03	4.849746E-04
5.040402E+03	9.350410E-03	4.930378E-04
5.050305E+03	9.381171E-03	5.008336E-04
5.060208E+03	9.407877E-03	5.083442E-04
5.070110E+03	9.431045E-03	5.155830E-04
5.080013E+03	9.450719E-03	5.225395E-04
5.089915E+03	9.467123E-03	5.292138E-04
5.099818E+03	9.480471E-03	5.356068E-04
5.109720E+03	9.490866E-03	5.417143E-04
5.119623E+03	9.498576E-03	5.475424E-04
5.129525E+03	9.503662E-03	5.530863E-04
5.139428E+03	9.506253E-03	5.583459E-04
5.149331E+03	9.506443E-03	5.633197E-04
5.159233E+03	9.504113E-03	5.679945E-04
5.169136E+03	9.499487E-03	5.723776E-04
5.179038E+03	9.492482E-03	5.764589E-04
5.188941E+03	9.482971E-03	5.802258E-04
5.198843E+03	9.470906E-03	5.836706E-04
5.208746E+03	9.456204E-03	5.867839E-04
5.218648E+03	9.438670E-03	5.895498E-04
5.228551E+03	9.418271E-03	5.919625E-04
5.238454E+03	9.394681E-03	5.939980E-04
5.248356E+03	9.367851E-03	5.956501E-04
5.258259E+03	9.337437E-03	5.968941E-04
5.268161E+03	9.303386E-03	5.977239E-04
5.278064E+03	9.265464E-03	5.981222E-04
5.287966E+03	9.223548E-03	5.980793E-04
5.297869E+03	9.177532E-03	5.975865E-04
5.307772E+03	9.127161E-03	5.966264E-04
5.317674E+03	9.072491E-03	5.952019E-04
5.327577E+03	9.013435E-03	5.933070E-04
5.337479E+03	8.950040E-03	5.909454E-04
5.347382E+03	8.882234E-03	5.881130E-04
5.357284E+03	8.810346E-03	5.848333E-04
5.367187E+03	8.734330E-03	5.811051E-04
5.377089E+03	8.654453E-03	5.769489E-04
5.386992E+03	8.571046E-03	5.723898E-04
5.396895E+03	8.484072E-03	5.674290E-04
5.406797E+03	8.393559E-03	5.620724E-04
5.416700E+03	8.299613E-03	5.563316E-04
5.426602E+03	8.203138E-03	5.502714E-04
5.436505E+03	8.104989E-03	5.439534E-04
5.446407E+03	8.005892E-03	5.374310E-04
5.456310E+03	7.906594E-03	5.307590E-04
5.466212E+03	7.807857E-03	5.239936E-04
5.476115E+03	7.710297E-03	5.171810E-04
5.486018E+03	7.614820E-03	5.103869E-04
5.495920E+03	7.522009E-03	5.036548E-04
5.505823E+03	7.432489E-03	4.970311E-04
5.515725E+03	7.347001E-03	4.905690E-04
5.525628E+03	7.266007E-03	4.843029E-04
5.535530E+03	7.190068E-03	4.782730E-04
5.545433E+03	7.119685E-03	4.725148E-04
5.555335E+03	7.055219E-03	4.670539E-04
5.565238E+03	6.997040E-03	4.619155E-04
5.575141E+03	6.945370E-03	4.571146E-04
5.585043E+03	6.900367E-03	4.526609E-04
5.594946E+03	6.862187E-03	4.485637E-04
5.604848E+03	6.830767E-03	4.448169E-04
5.614751E+03	6.806262E-03	4.414284E-04
5.624653E+03	6.788407E-03	4.383781E-04
5.634556E+03	6.777162E-03	4.356602E-04
5.644459E+03	6.772278E-03	4.332552E-04
5.654361E+03	6.773394E-03	4.311362E-04
5.664264E+03	6.780306E-03	4.292863E-04
5.674166E+03	6.792570E-03	4.276737E-04
5.684069E+03	6.809844E-03	4.262730E-04
5.693971E+03	6.831702E-03	4.250541E-04
5.703874E+03	6.857773E-03	4.239907E-04
5.713776E+03	6.887536E-03	4.230477E-04
5.723679E+03	6.920696E-03	4.222048E-04
5.733582E+03	6.956672E-03	4.214248E-04
5.743484E+03	6.995119E-03	4.206859E-04
5.753387E+03	7.035728E-03	4.199690E-04
5.763289E+03	7.078138E-03	4.192531E-04
5.773192E+03	7.121942E-03	4.185150E-04
5.783094E+03	7.166925E-03	4.177442E-04
5.792997E+03	7.212907E-03	4.169328E-04
5.802899E+03	7.259512E-03	4.160627E-04
5.812802E+03	7.306629E-03	4.151318E-04
5.822705E+03	7.354186E-03	4.141413E-04
5.832607E+03	7.401891E-03	4.130806E-04
5.842510E+03	7.449812E-03	4.119605E-04
5.852412E+03	7.497866E-03	4.107837E-04
5.862315E+03	7.545830E-03	4.095468E-04
5.872217E+03	7.593735E-03	4.082607E-04
5.882120E+03	7.641630E-03	4.069382E-04
5.892022E+03	7.689304E-03	4.055793E-04
5.901925E+03	7.736818E-03	4.041993E-04
5.911828E+03	7.784130E-03	4.028090E-04
5.921730E+03	7.831114E-03	4.014160E-04
5.931633E+03	7.877722E-03	4.000330E-04
5.941535E+03	7.923888E-03	3.986728E-04
5.951438E+03	7.969452E-03	3.973446E-04
5.961340E+03	8.014414E-03	3.960668E-04
5.971243E+03	8.058568E-03	3.948486E-04
5.981146E+03	8.101792E-03	3.937045E-04
5.991048E+03	8.143739E-03	3.926391E-04
6.000951E+03	8.184422E-03	3.916755E-04
6.010853E+03	8.223342E-03	3.908131E-04
6.020756E+03	8.260457E-03	3.900737E-04
6.030658E+03	8.295205E-03	3.894550E-04
6.040561E+03	8.327471E-03	3.889764E-04
6.050463E+03	8.356614E-03	3.886325E-04
6.060366E+03	8.382353E-03	3.884345E-04
6.070269E+03	8.404267E-03	3.883864E-04
6.080171E+03	8.421808E-03	3.884851E-04
6.090074E+03	8.434406E-03	3.887252E-04
6.099976E+03	8.441705E-03	3.891089E-04
6.109879E+03	8.443284E-03	3.896329E-04
6.119781E+03	8.438817E-03	3.902953E-04
6.129684E+03	8.428108E-03	3.910921E-04
6.139586E+03	8.411359E-03	3.920214E-04
6.149489E+03	8.388830E-03	3.930786E-04
6.159392E+03	8.360626E-03	3.942490E-04
6.169294E+03	8.327376E-03	3.955402E-04
6.179197E+03	8.289450E-03	3.969461E-04
6.189099E+03	8.247330E-03	3.984649E-04
6.199002E+03	8.201716E-03	4.001045E-04
6.208904E+03	8.153055E-03	4.018609E-04
6.218807E+03	8.101883E-03	4.037345E-04
6.228709E+03	8.048578E-03	4.057189E-04
6.238612E+03	7.993496E-03	4.078069E-04
6.248515E+03	7.937268E-03	4.100070E-04
6.258417E+03	7.879969E-03	4.123002E-04
6.268320E+03	7.822060E-03	4.146890E-04
6.278222E+03	7.763661E-03	4.171593E-04
6.288125E+03	7.705179E-03	4.197140E-04
6.298027E+03	7.646687E-03	4.223391E-04
6.307930E+03	7.588435E-03	4.250320E-04
6.317833E+03	7.530658E-03	4.277910E-04
6.327735E+03	7.473255E-03	4.305963E-04
6.337638E+03	7.416525E-03	4.334524E-04
6.347540E+03	7.360548E-03	4.363526E-04
6.357443E+03	7.305377E-03	4.392895E-04
6.367345E+03	7.251165E-03	4.422632E-04
6.377248E+03	7.198053E-03	4.452740E-04
6.387150E+03	7.146164E-03	4.483228E-04
6.397053E+03	7.095514E-03	4.514044E-04
6.406956E+03	7.046108E-03	4.545139E-04
6.416858E+03	6.998046E-03	4.576532E-04
6.426761E+03	6.951113E-03	4.608043E-04
6.436663E+03	6.905508E-03	4.639768E-04
6.446566E+03	6.861213E-03	4.671669E-04
6.456468E+03	6.818215E-03	4.703713E-04
6.466371E+03	6.776494E-03	4.735868E-04
6.476273E+03	6.736030E-03	4.768108E-04
6.486176E+03	6.696909E-03	4.800480E-04
6.496079E+03	6.659006E-03	4.832888E-04
6.505981E+03	6.622408E-03	4.865394E-04
6.515884E+03	6.587097E-03	4.897981E-04
6.525786E+03	6.552948E-03	4.930558E-04
6.535689E+03	6.520049E-03	4.963195E-04
6.545591E+03	6.488385E-03	4.995884E-04
6.555494E+03	6.457937E-03	5.028620E-04
6.565396E+03	6.428692E-03	5.061400E-04
6.575299E+03	6.400625E-03	5.094217E-04
6.585202E+03	6.373724E-03	5.127070E-04
6.595104E+03	6.347861E-03	5.159870E-04
6.605007E+03	6.323118E-03	5.192692E-04
6.614909E+03	6.299364E-03	5.225445E-04
6.624812E+03	6.276684E-03	5.258209E-04
6.634714E+03	6.255050E-03	5.290976E-04
6.644617E+03	6.234320E-03	5.323640E-04
6.654520E+03	6.214466E-03	5.356188E-04
6.664422E+03	6.195556E-03	5.388692E-04
6.674325E+03	6.177340E-03	5.420948E-04
6.684227E+03	6.159997E-03	5.453122E-04
6.694130E+03	6.143376E-03	5.485094E-04
6.704032E+03	6.127328E-03	5.516742E-04
6.713935E+03	6.111923E-03	5.548137E-04
6.723837E+03	6.097118E-03	5.579250E-04
6.733740E+03	6.082764E-03	5.609954E-04
6.743643E+03	6.068932E-03	5.640320E-04
6.753545E+03	6.055473E-03	5.670221E-04
6.763448E+03	6.042465E-03	5.699735E-04
6.773350E+03	6.029651E-03	5.728626E-04
6.783253E+03	6.017223E-03	5.757082E-04
6.793155E+03	6.004931E-03	5.784868E-04
6.803058E+03	5.992971E-03	5.812180E-04
6.812960E+03	5.981102E-03	5.838790E-04
6.822863E+03	5.969414E-03	5.864789E-04
6.832766E+03	5.957779E-03	5.890056E-04
6.842668E+03	5.946296E-03	5.914693E-04
6.852571E+03	5.934841E-03	5.938583E-04
6.862473E+03	5.923520E-03	5.961835E-04
6.872376E+03	5.912103E-03	5.984222E-04
6.882278E+03	5.900808E-03	6.005968E-04
6.892181E+03	5.889519E-03	6.026964E-04
6.902083E+03	5.878120E-03	6.047094E-04
6.911986E+03	5.866841E-03	6.066599E-04
6.921889E+03	5.855456E-03	6.085252E-04
6.931791E+03	5.844078E-03	6.103176E-04
6.941694E+03	5.832597E-03	6.120261E-04
6.951596E+03	5.821133E-03	6.136641E-04
6.961499E+03	5.809575E-03	6.152203E-04
6.971401E+03	5.798048E-03	6.167088E-04
6.981304E+03	5.786326E-03	6.181061E-04
6.991207E+03	5.774652E-03	6.194389E-04
7.001109E+03	5.762803E-03	6.206841E-04
7.011012E+03	5.751024E-03	6.218688E-04
7.020914E+03	5.739099E-03	6.229704E-04
7.030817E+03	5.727158E-03	6.240039E-04
7.040719E+03	5.715100E-03	6.249590E-04
7.050622E+03	5.703063E-03	6.258518E-04
7.060524E+03	5.691060E-03	6.266848E-04
7.070427E+03	5.678886E-03	6.274362E-04
7.080330E+03	5.666790E-03	6.281344E-04
7.090232E+03	5.654793E-03	6.287828E-04
7.100135E+03	5.642686E-03	6.293594E-04
7.110037E+03	5.630603E-03	6.298801E-04
7.119940E+03	5.618566E-03	6.303482E-04
7.129842E+03	5.606473E-03	6.307536E-04
7.139745E+03	5.594568E-03	6.311247E-04
7.149647E+03	5.582633E-03	6.314382E-04
7.159550E+03	5.570675E-03	6.316958E-04
7.169453E+03	5.558809E-03	6.319118E-04
7.179355E+03	5.546800E-03	6.320605E-04
7.189258E+03	5.534875E-03	6.321689E-04
7.199160E+03	5.522895E-03	6.322223E-04
7.209063E+03	5.510846E-03	6.322199E-04
7.218965E+03	5.498577E-03	6.321458E-04
7.228868E+03	5.486058E-03	6.319973E-04
7.238770E+03	5.473358E-03	6.317834E-04
7.248673E+03	5.460319E-03	6.314868E-04
7.258576E+03	5.446770E-03	6.310885E-04
7.268478E+03	5.432656E-03	6.305832E-04
7.278381E+03	5.417913E-03	6.299639E-04
7.288283E+03	5.402472E-03	6.292236E-04
7.298186E+03	5.386155E-03	6.283423E-04
7.308088E+03	5.368775E-03	6.272989E-04
7.317991E+03	5.350262E-03	6.260855E-04
7.327894E+03	5.330317E-03	6.246679E-04
7.337796E+03	5.309099E-03	6.230650E-04
7.347699E+03	5.286200E-03	6.212296E-04
7.357601E+03	5.261558E-03	6.191544E-04
7.367504E+03	5.235235E-03	6.168457E-04
7.377406E+03	5.207297E-03	6.143097E-04
7.387309E+03	5.177586E-03	6.115266E-04
7.397211E+03	5.146300E-03	6.085187E-04
7.407114E+03	5.113418E-03	6.052823E-04
7.417017E+03	5.079156E-03	6.018419E-04
7.426919E+03	5.043415E-03	5.981850E-04
7.436822E+03	5.006445E-03	5.943403E-04
7.446724E+03	4.968298E-03	5.903136E-04
7.456627E+03	4.929048E-03	5.861130E-04
7.466529E+03	4.888896E-03	5.817621E-04
7.476432E+03	4.847832E-03	5.772592E-04
7.486334E+03	4.806192E-03	5.726442E-04
7.496237E+03	4.763975E-03	5.679170E-04
7.506140E+03	4.721303E-03	5.630918E-04
7.516042E+03	4.678389E-03	5.581945E-04
7.525945E+03	4.635349E-03	5.532386E-04
7.535847E+03	4.592281E-03	5.482366E-04
7.545750E+03	4.549178E-03	5.431873E-04
7.555652E+03	4.506339E-03	5.381272E-04
7.565555E+03	4.463634E-03	5.330408E-04
7.575457E+03	4.421342E-03	5.279620E-04
7.585360E+03	4.379317E-03	5.228737E-04
7.595263E+03	4.337814E-03	5.178066E-04
7.605165E+03	4.296678E-03	5.127428E-04
7.615068E+03	4.256138E-03	5.077100E-04
7.624970E+03	4.216120E-03	5.026998E-04
7.634873E+03	4.176643E-03	4.977148E-04
7.644775E+03	4.137619E-03	4.927451E-04
7.654678E+03	4.099246E-03	4.878146E-04
7.664581E+03	4.061423E-03	4.829118E-04
7.674483E+03	4.024148E-03	4.780368E-04
7.684386E+03	3.987315E-03	4.731776E-04
