#wls	flux	fluxerr
1.584409E+03	6.658528E-03	2.230634E-03
1.624020E+03	6.855217E-03	2.296488E-03
1.663630E+03	7.039402E-03	2.358150E-03
1.703240E+03	7.208984E-03	2.414917E-03
1.742850E+03	7.360976E-03	2.465788E-03
1.782461E+03	7.492982E-03	2.509962E-03
1.822071E+03	7.601827E-03	2.546374E-03
1.861681E+03	7.685681E-03	2.574412E-03
1.901291E+03	7.742018E-03	2.593231E-03
1.940902E+03	7.767788E-03	2.601810E-03
1.980512E+03	7.761409E-03	2.599618E-03
2.020122E+03	7.720344E-03	2.585807E-03
2.059732E+03	7.642546E-03	2.559693E-03
2.099342E+03	7.527624E-03	2.521144E-03
2.138953E+03	7.373231E-03	2.469377E-03
2.178563E+03	7.178232E-03	2.404011E-03
2.218173E+03	6.941519E-03	2.324677E-03
2.257783E+03	6.661028E-03	2.230685E-03
2.297394E+03	6.345409E-03	2.124932E-03
2.337004E+03	6.003406E-03	2.010349E-03
2.376614E+03	5.642022E-03	1.889280E-03
2.416224E+03	5.267219E-03	1.763723E-03
2.455835E+03	4.884651E-03	1.635572E-03
2.495445E+03	4.499421E-03	1.506537E-03
2.535055E+03	4.115995E-03	1.378112E-03
2.574665E+03	3.738849E-03	1.251796E-03
2.614276E+03	3.371992E-03	1.128932E-03
2.653886E+03	3.018988E-03	1.010713E-03
2.693496E+03	2.682943E-03	8.981790E-04
2.733106E+03	2.366635E-03	7.922591E-04
2.772716E+03	2.071959E-03	6.935872E-04
2.812327E+03	1.800416E-03	6.026656E-04
2.851937E+03	1.553135E-03	5.198716E-04
2.891547E+03	1.330696E-03	4.453982E-04
2.931157E+03	1.133196E-03	3.792770E-04
2.970768E+03	9.600574E-04	3.213147E-04
2.980670E+03	9.204405E-04	3.080523E-04
2.990573E+03	8.822453E-04	2.952660E-04
3.000475E+03	8.454594E-04	2.829516E-04
3.010378E+03	8.100477E-04	2.710973E-04
3.020280E+03	7.759752E-04	2.596915E-04
3.030183E+03	7.432236E-04	2.487279E-04
3.040086E+03	7.117411E-04	2.381893E-04
3.049988E+03	6.815215E-04	2.280735E-04
3.059891E+03	6.525133E-04	2.183634E-04
3.069793E+03	6.246936E-04	2.090512E-04
3.079696E+03	5.980246E-04	2.001242E-04
3.089598E+03	5.724822E-04	1.915744E-04
3.099501E+03	5.480274E-04	1.833888E-04
3.109403E+03	5.246248E-04	1.755554E-04
3.119306E+03	5.022468E-04	1.680651E-04
3.129209E+03	4.808485E-04	1.609027E-04
3.139111E+03	4.604124E-04	1.540625E-04
3.149014E+03	4.408945E-04	1.475297E-04
3.158916E+03	4.222680E-04	1.412953E-04
3.168819E+03	4.044985E-04	1.353478E-04
3.178721E+03	3.875529E-04	1.296761E-04
3.188624E+03	3.714052E-04	1.242715E-04
3.198526E+03	3.560226E-04	1.191231E-04
3.208429E+03	3.413679E-04	1.142183E-04
3.218332E+03	3.274274E-04	1.095525E-04
3.228234E+03	3.141544E-04	1.051103E-04
3.238137E+03	3.015355E-04	1.008869E-04
3.248039E+03	2.895321E-04	9.686960E-05
3.257942E+03	2.781217E-04	9.305079E-05
3.267844E+03	2.672816E-04	8.942289E-05
3.277747E+03	2.569780E-04	8.597453E-05
3.287650E+03	2.471938E-04	8.270005E-05
3.297552E+03	2.379048E-04	7.959131E-05
3.307455E+03	2.290843E-04	7.663938E-05
3.317357E+03	2.207104E-04	7.383692E-05
3.327260E+03	2.127620E-04	7.117689E-05
3.337162E+03	2.052217E-04	6.865347E-05
3.347065E+03	1.980647E-04	6.625828E-05
3.356967E+03	1.912777E-04	6.398695E-05
3.366870E+03	1.848379E-04	6.183186E-05
3.376773E+03	1.787290E-04	5.978746E-05
3.386675E+03	1.729372E-04	5.784920E-05
3.396578E+03	1.674410E-04	5.600987E-05
3.406480E+03	1.622305E-04	5.426616E-05
3.416383E+03	1.572901E-04	5.261286E-05
3.426285E+03	1.526017E-04	5.104385E-05
3.436188E+03	1.481571E-04	4.955647E-05
3.446090E+03	1.439400E-04	4.814522E-05
3.455993E+03	1.399402E-04	4.680667E-05
3.465896E+03	1.361463E-04	4.553702E-05
3.475798E+03	1.325433E-04	4.433127E-05
3.485701E+03	1.291232E-04	4.318672E-05
3.495603E+03	1.258743E-04	4.209944E-05
3.505506E+03	1.227857E-04	4.106580E-05
3.515408E+03	1.198486E-04	4.008289E-05
3.525311E+03	1.170526E-04	3.914718E-05
3.535213E+03	1.143891E-04	3.825580E-05
3.545116E+03	1.118491E-04	3.740574E-05
3.555019E+03	1.094264E-04	3.659496E-05
3.564921E+03	1.071142E-04	3.582112E-05
3.574824E+03	1.049050E-04	3.508178E-05
3.584726E+03	1.027940E-04	3.437526E-05
3.594629E+03	1.007764E-04	3.370001E-05
3.604531E+03	9.884585E-05	3.305390E-05
3.614434E+03	9.700098E-05	3.243645E-05
3.624337E+03	9.523587E-05	3.184568E-05
3.634239E+03	9.354835E-05	3.128088E-05
3.644142E+03	9.193536E-05	3.074102E-05
3.654044E+03	9.039397E-05	3.022510E-05
3.663947E+03	8.892209E-05	2.973245E-05
3.673849E+03	8.751829E-05	2.926257E-05
3.683752E+03	8.617824E-05	2.881402E-05
3.693654E+03	8.490206E-05	2.838684E-05
3.703557E+03	8.368625E-05	2.797985E-05
3.713460E+03	8.252947E-05	2.759261E-05
3.723362E+03	8.143033E-05	2.722465E-05
3.733265E+03	8.038548E-05	2.687485E-05
3.743167E+03	7.939499E-05	2.654324E-05
3.753070E+03	7.845618E-05	2.622891E-05
3.762972E+03	7.756784E-05	2.593146E-05
3.772875E+03	7.672810E-05	2.565026E-05
3.782777E+03	7.593574E-05	2.538492E-05
3.792680E+03	7.518903E-05	2.513483E-05
3.802583E+03	7.448678E-05	2.489962E-05
3.812485E+03	7.382737E-05	2.467873E-05
3.822388E+03	7.321029E-05	2.447200E-05
3.832290E+03	7.263397E-05	2.427890E-05
3.842193E+03	7.209682E-05	2.409890E-05
3.852095E+03	7.159799E-05	2.393170E-05
3.861998E+03	7.113591E-05	2.377680E-05
3.871900E+03	7.071035E-05	2.363410E-05
3.881803E+03	7.031988E-05	2.350313E-05
3.891706E+03	6.996370E-05	2.338363E-05
3.901608E+03	6.964051E-05	2.327515E-05
3.911511E+03	6.934896E-05	2.317726E-05
3.921413E+03	6.908946E-05	2.309007E-05
3.931316E+03	6.885966E-05	2.301281E-05
3.941218E+03	6.865948E-05	2.294545E-05
3.951121E+03	6.848773E-05	2.288758E-05
3.961024E+03	6.834376E-05	2.283901E-05
3.970926E+03	6.822705E-05	2.279954E-05
3.980829E+03	6.813595E-05	2.276863E-05
3.990731E+03	6.807043E-05	2.274626E-05
4.000634E+03	6.802947E-05	2.273209E-05
4.010536E+03	6.801260E-05	2.272598E-05
4.020439E+03	6.801881E-05	2.272757E-05
4.030341E+03	6.804716E-05	2.273656E-05
4.040244E+03	6.809775E-05	2.275298E-05
4.050147E+03	6.816915E-05	2.277634E-05
4.060049E+03	6.826102E-05	2.280654E-05
4.069952E+03	6.837305E-05	2.284347E-05
4.079854E+03	6.850379E-05	2.288665E-05
4.089757E+03	6.865357E-05	2.293618E-05
4.099659E+03	6.882100E-05	2.299161E-05
4.109562E+03	6.900591E-05	2.305287E-05
4.119464E+03	6.920798E-05	2.311985E-05
4.129367E+03	6.942600E-05	2.319216E-05
4.139270E+03	6.966031E-05	2.326990E-05
4.149172E+03	6.990906E-05	2.335246E-05
4.159075E+03	7.017325E-05	2.344017E-05
4.168977E+03	7.045105E-05	2.353242E-05
4.178880E+03	7.074235E-05	2.362916E-05
4.188782E+03	7.104648E-05	2.373019E-05
4.198685E+03	7.136337E-05	2.383547E-05
4.208587E+03	7.169125E-05	2.394441E-05
4.218490E+03	7.203056E-05	2.405716E-05
4.228393E+03	7.238022E-05	2.417336E-05
4.238295E+03	7.273892E-05	2.429257E-05
4.248198E+03	7.310671E-05	2.441480E-05
4.258100E+03	7.348289E-05	2.453983E-05
4.268003E+03	7.386575E-05	2.466708E-05
4.277905E+03	7.425457E-05	2.479631E-05
4.287808E+03	7.464875E-05	2.492731E-05
4.297711E+03	7.504757E-05	2.505986E-05
4.307613E+03	7.545041E-05	2.519374E-05
4.317516E+03	7.585711E-05	2.532890E-05
4.327418E+03	7.626698E-05	2.546510E-05
4.337321E+03	7.667936E-05	2.560213E-05
4.347223E+03	7.709528E-05	2.574033E-05
4.357126E+03	7.751406E-05	2.587948E-05
4.367028E+03	7.793565E-05	2.601955E-05
4.376931E+03	7.836053E-05	2.616071E-05
4.386834E+03	7.878872E-05	2.630296E-05
4.396736E+03	7.921949E-05	2.644606E-05
4.406639E+03	7.965351E-05	2.659023E-05
4.416541E+03	8.009006E-05	2.673524E-05
4.426444E+03	8.052920E-05	2.688110E-05
4.436346E+03	8.097099E-05	2.702783E-05
4.446249E+03	8.141420E-05	2.717502E-05
4.456151E+03	8.185955E-05	2.732292E-05
4.466054E+03	8.230651E-05	2.747134E-05
4.475957E+03	8.275461E-05	2.762012E-05
4.485859E+03	8.320404E-05	2.776934E-05
4.495762E+03	8.365367E-05	2.791861E-05
4.505664E+03	8.410377E-05	2.806802E-05
4.515567E+03	8.455462E-05	2.821768E-05
4.525469E+03	8.500591E-05	2.836746E-05
4.535372E+03	8.545658E-05	2.851702E-05
4.545274E+03	8.590706E-05	2.866651E-05
4.555177E+03	8.635704E-05	2.881581E-05
4.565080E+03	8.680636E-05	2.896488E-05
4.574982E+03	8.725546E-05	2.911387E-05
4.584885E+03	8.770347E-05	2.926247E-05
4.594787E+03	8.815098E-05	2.941090E-05
4.604690E+03	8.859784E-05	2.955909E-05
4.614592E+03	8.904396E-05	2.970702E-05
4.624495E+03	8.948927E-05	2.985466E-05
4.634398E+03	8.993364E-05	3.000198E-05
4.644300E+03	9.037709E-05	3.014898E-05
4.654203E+03	9.082121E-05	3.029618E-05
4.664105E+03	9.126596E-05	3.044358E-05
4.674008E+03	9.171142E-05	3.059120E-05
4.683910E+03	9.215931E-05	3.073962E-05
4.693813E+03	9.260888E-05	3.088858E-05
4.703715E+03	9.306025E-05	3.103812E-05
4.713618E+03	9.351443E-05	3.118859E-05
4.723521E+03	9.397159E-05	3.134003E-05
4.733423E+03	9.443106E-05	3.149223E-05
4.743326E+03	9.489381E-05	3.164551E-05
4.753228E+03	9.536019E-05	3.179998E-05
4.763131E+03	9.582947E-05	3.195540E-05
4.773033E+03	9.630278E-05	3.211214E-05
4.782936E+03	9.678046E-05	3.227033E-05
4.792838E+03	9.726271E-05	3.243002E-05
4.802741E+03	9.774989E-05	3.259134E-05
4.812644E+03	9.824140E-05	3.275408E-05
4.822546E+03	9.873940E-05	3.291897E-05
4.832449E+03	9.924236E-05	3.308549E-05
4.842351E+03	9.975068E-05	3.325378E-05
4.852254E+03	1.002656E-04	3.342425E-05
4.862156E+03	1.007875E-04	3.359702E-05
4.872059E+03	1.013167E-04	3.377225E-05
4.881961E+03	1.018518E-04	3.394938E-05
4.891864E+03	1.023950E-04	3.412919E-05
4.901767E+03	1.029457E-04	3.431150E-05
4.911669E+03	1.035043E-04	3.449641E-05
4.921572E+03	1.040711E-04	3.468401E-05
4.931474E+03	1.046464E-04	3.487446E-05
4.941377E+03	1.052296E-04	3.506748E-05
4.951279E+03	1.058208E-04	3.526318E-05
4.961182E+03	1.064215E-04	3.546199E-05
4.971085E+03	1.070307E-04	3.566363E-05
4.980987E+03	1.076476E-04	3.586784E-05
4.990890E+03	1.082746E-04	3.607534E-05
5.000792E+03	1.089086E-04	3.628515E-05
5.010695E+03	1.095517E-04	3.649801E-05
5.020597E+03	1.102041E-04	3.671392E-05
5.030500E+03	1.108627E-04	3.693187E-05
5.040402E+03	1.115307E-04	3.715291E-05
5.050305E+03	1.122059E-04	3.737634E-05
5.060208E+03	1.128884E-04	3.760216E-05
5.070110E+03	1.135791E-04	3.783069E-05
5.080013E+03	1.142758E-04	3.806120E-05
5.089915E+03	1.149785E-04	3.829366E-05
5.099818E+03	1.156881E-04	3.852840E-05
5.109720E+03	1.164034E-04	3.876500E-05
5.119623E+03	1.171242E-04	3.900341E-05
5.129525E+03	1.178492E-04	3.924318E-05
5.139428E+03	1.185793E-04	3.948465E-05
5.149331E+03	1.193120E-04	3.972694E-05
5.159233E+03	1.200494E-04	3.997075E-05
5.169136E+03	1.207900E-04	4.021561E-05
5.179038E+03	1.215324E-04	4.046100E-05
5.188941E+03	1.222760E-04	4.070681E-05
5.198843E+03	1.230218E-04	4.095329E-05
5.208746E+03	1.237670E-04	4.119953E-05
5.218648E+03	1.245121E-04	4.144573E-05
5.228551E+03	1.252580E-04	4.169215E-05
5.238454E+03	1.260004E-04	4.193738E-05
5.248356E+03	1.267425E-04	4.218245E-05
5.258259E+03	1.274798E-04	4.242592E-05
5.268161E+03	1.282155E-04	4.266881E-05
5.278064E+03	1.289452E-04	4.290965E-05
5.287966E+03	1.296705E-04	4.314904E-05
5.297869E+03	1.303909E-04	4.338673E-05
5.307772E+03	1.311043E-04	4.362207E-05
5.317674E+03	1.318127E-04	4.385569E-05
5.327577E+03	1.325112E-04	4.408602E-05
5.337479E+03	1.332034E-04	4.431417E-05
5.347382E+03	1.338870E-04	4.453946E-05
5.357284E+03	1.345614E-04	4.476166E-05
5.367187E+03	1.352260E-04	4.498056E-05
5.377089E+03	1.358802E-04	4.519595E-05
5.386992E+03	1.365219E-04	4.540715E-05
5.396895E+03	1.371505E-04	4.561397E-05
5.406797E+03	1.377653E-04	4.581618E-05
5.416700E+03	1.383657E-04	4.601357E-05
5.426602E+03	1.389498E-04	4.620546E-05
5.436505E+03	1.395153E-04	4.639118E-05
5.446407E+03	1.400631E-04	4.657094E-05
5.456310E+03	1.405909E-04	4.674407E-05
5.466212E+03	1.410967E-04	4.690983E-05
5.476115E+03	1.415784E-04	4.706753E-05
5.486018E+03	1.420365E-04	4.721738E-05
5.495920E+03	1.424676E-04	4.735819E-05
5.505823E+03	1.428721E-04	4.749016E-05
5.515725E+03	1.432465E-04	4.761209E-05
5.525628E+03	1.435900E-04	4.772373E-05
5.535530E+03	1.439034E-04	4.782531E-05
5.545433E+03	1.441829E-04	4.791561E-05
5.555335E+03	1.444292E-04	4.799489E-05
5.565238E+03	1.446418E-04	4.806291E-05
5.575141E+03	1.448184E-04	4.811897E-05
5.585043E+03	1.449585E-04	4.816287E-05
5.594946E+03	1.450631E-04	4.819493E-05
5.604848E+03	1.451315E-04	4.821499E-05
5.614751E+03	1.451620E-04	4.822241E-05
5.624653E+03	1.451556E-04	4.821757E-05
5.634556E+03	1.451136E-04	4.820089E-05
5.644459E+03	1.450328E-04	4.817132E-05
5.654361E+03	1.449147E-04	4.812932E-05
5.664264E+03	1.447607E-04	4.807541E-05
5.674166E+03	1.445709E-04	4.800960E-05
5.684069E+03	1.443455E-04	4.793196E-05
5.693971E+03	1.440848E-04	4.784257E-05
5.703874E+03	1.437890E-04	4.774156E-05
5.713776E+03	1.434601E-04	4.762954E-05
5.723679E+03	1.430972E-04	4.750620E-05
5.733582E+03	1.427036E-04	4.737272E-05
5.743484E+03	1.422788E-04	4.722884E-05
5.753387E+03	1.418232E-04	4.707478E-05
5.763289E+03	1.413408E-04	4.691181E-05
5.773192E+03	1.408295E-04	4.673925E-05
5.783094E+03	1.402918E-04	4.655790E-05
5.792997E+03	1.397302E-04	4.636866E-05
5.802899E+03	1.391443E-04	4.617138E-05
5.812802E+03	1.385371E-04	4.596701E-05
5.822705E+03	1.379082E-04	4.575546E-05
5.832607E+03	1.372620E-04	4.553821E-05
5.842510E+03	1.365987E-04	4.531527E-05
5.852412E+03	1.359196E-04	4.508711E-05
5.862315E+03	1.352279E-04	4.485479E-05
5.872217E+03	1.345237E-04	4.461832E-05
5.882120E+03	1.338101E-04	4.437875E-05
5.892022E+03	1.330871E-04	4.413609E-05
5.901925E+03	1.323579E-04	4.389139E-05
5.911828E+03	1.316241E-04	4.364517E-05
5.921730E+03	1.308871E-04	4.339793E-05
5.931633E+03	1.301471E-04	4.314968E-05
5.941535E+03	1.294069E-04	4.290141E-05
5.951438E+03	1.286680E-04	4.265357E-05
5.961340E+03	1.279301E-04	4.240612E-05
5.971243E+03	1.271962E-04	4.215998E-05
5.981146E+03	1.264660E-04	4.191508E-05
5.991048E+03	1.257391E-04	4.167130E-05
6.000951E+03	1.250197E-04	4.143002E-05
6.010853E+03	1.243057E-04	4.119058E-05
6.020756E+03	1.235998E-04	4.095382E-05
6.030658E+03	1.229000E-04	4.071907E-05
6.040561E+03	1.222084E-04	4.048710E-05
6.050463E+03	1.215246E-04	4.025771E-05
6.060366E+03	1.208493E-04	4.003114E-05
6.070269E+03	1.201831E-04	3.980763E-05
6.080171E+03	1.195253E-04	3.958690E-05
6.090074E+03	1.188764E-04	3.936914E-05
6.099976E+03	1.182369E-04	3.915453E-05
6.109879E+03	1.176074E-04	3.894325E-05
6.119781E+03	1.169883E-04	3.873542E-05
6.129684E+03	1.163786E-04	3.853069E-05
6.139586E+03	1.157799E-04	3.832963E-05
6.149489E+03	1.151926E-04	3.813238E-05
6.159392E+03	1.146169E-04	3.793898E-05
6.169294E+03	1.140545E-04	3.775000E-05
6.179197E+03	1.135071E-04	3.756598E-05
6.189099E+03	1.129763E-04	3.738747E-05
6.199002E+03	1.124636E-04	3.721498E-05
6.208904E+03	1.119706E-04	3.704904E-05
6.218807E+03	1.115005E-04	3.689065E-05
6.228709E+03	1.110517E-04	3.673933E-05
6.238612E+03	1.106303E-04	3.659709E-05
6.248515E+03	1.102349E-04	3.646344E-05
6.258417E+03	1.098684E-04	3.633938E-05
6.268320E+03	1.095325E-04	3.622542E-05
6.278222E+03	1.092287E-04	3.612209E-05
6.288125E+03	1.089570E-04	3.602940E-05
6.298027E+03	1.087191E-04	3.594788E-05
6.307930E+03	1.085166E-04	3.587805E-05
6.317833E+03	1.083496E-04	3.581997E-05
6.327735E+03	1.082182E-04	3.577364E-05
6.337638E+03	1.081241E-04	3.573964E-05
6.347540E+03	1.080643E-04	3.571697E-05
6.357443E+03	1.080389E-04	3.570565E-05
6.367345E+03	1.080465E-04	3.570521E-05
6.377248E+03	1.080838E-04	3.571460E-05
6.387150E+03	1.081527E-04	3.573440E-05
6.397053E+03	1.082499E-04	3.576355E-05
6.406956E+03	1.083771E-04	3.580260E-05
6.416858E+03	1.085345E-04	3.585159E-05
6.426761E+03	1.087205E-04	3.591000E-05
6.436663E+03	1.089351E-04	3.597785E-05
6.446566E+03	1.091785E-04	3.605515E-05
6.456468E+03	1.094506E-04	3.614194E-05
6.466371E+03	1.097517E-04	3.623825E-05
6.476273E+03	1.100835E-04	3.634468E-05
6.486176E+03	1.104444E-04	3.646069E-05
6.496079E+03	1.108328E-04	3.658574E-05
6.505981E+03	1.112523E-04	3.672103E-05
6.515884E+03	1.116996E-04	3.686542E-05
6.525786E+03	1.121764E-04	3.701955E-05
6.535689E+03	1.126830E-04	3.718344E-05
6.545591E+03	1.132194E-04	3.735716E-05
6.555494E+03	1.137859E-04	3.754075E-05
6.565396E+03	1.143808E-04	3.773364E-05
6.575299E+03	1.150060E-04	3.793650E-05
6.585202E+03	1.156598E-04	3.814875E-05
6.595104E+03	1.163443E-04	3.837106E-05
6.605007E+03	1.170577E-04	3.860285E-05
6.614909E+03	1.178002E-04	3.884418E-05
6.624812E+03	1.185739E-04	3.909573E-05
6.634714E+03	1.193791E-04	3.935761E-05
6.644617E+03	1.202119E-04	3.962851E-05
6.654520E+03	1.210764E-04	3.990984E-05
6.664422E+03	1.219689E-04	4.020029E-05
6.674325E+03	1.228937E-04	4.050133E-05
6.684227E+03	1.238488E-04	4.081229E-05
6.694130E+03	1.248323E-04	4.113255E-05
6.704032E+03	1.258488E-04	4.146361E-05
6.713935E+03	1.268942E-04	4.180408E-05
6.723837E+03	1.279707E-04	4.215475E-05
6.733740E+03	1.290787E-04	4.251570E-05
6.743643E+03	1.302184E-04	4.288700E-05
6.753545E+03	1.313877E-04	4.326796E-05
6.763448E+03	1.325891E-04	4.365941E-05
6.773350E+03	1.338204E-04	4.406064E-05
6.783253E+03	1.350844E-04	4.447251E-05
6.793155E+03	1.363786E-04	4.489425E-05
6.803058E+03	1.377034E-04	4.532595E-05
6.812960E+03	1.390614E-04	4.576847E-05
6.822863E+03	1.404476E-04	4.622019E-05
6.832766E+03	1.418675E-04	4.668288E-05
6.842668E+03	1.433184E-04	4.715569E-05
6.852571E+03	1.448008E-04	4.763871E-05
6.862473E+03	1.463145E-04	4.813196E-05
6.872376E+03	1.478598E-04	4.863548E-05
6.882278E+03	1.494340E-04	4.914838E-05
6.892181E+03	1.510399E-04	4.967159E-05
6.902083E+03	1.526777E-04	5.020518E-05
6.911986E+03	1.543475E-04	5.074915E-05
6.921889E+03	1.560433E-04	5.130156E-05
6.931791E+03	1.577742E-04	5.186538E-05
6.941694E+03	1.595311E-04	5.243759E-05
6.951596E+03	1.613200E-04	5.302023E-05
6.961499E+03	1.631379E-04	5.361224E-05
6.971401E+03	1.649847E-04	5.421360E-05
6.981304E+03	1.668603E-04	5.482431E-05
6.991207E+03	1.687645E-04	5.544429E-05
7.001109E+03	1.706940E-04	5.607240E-05
7.011012E+03	1.726518E-04	5.670967E-05
7.020914E+03	1.746378E-04	5.735606E-05
7.030817E+03	1.766484E-04	5.801036E-05
7.040719E+03	1.786867E-04	5.867362E-05
7.050622E+03	1.807489E-04	5.934459E-05
7.060524E+03	1.828347E-04	6.002314E-05
7.070427E+03	1.849437E-04	6.070914E-05
7.080330E+03	1.870793E-04	6.140371E-05
7.090232E+03	1.892334E-04	6.210421E-05
7.100135E+03	1.914055E-04	6.281042E-05
7.110037E+03	1.936028E-04	6.352477E-05
7.119940E+03	1.958170E-04	6.424447E-05
7.129842E+03	1.980472E-04	6.496929E-05
7.139745E+03	2.002971E-04	6.570036E-05
7.149647E+03	2.025617E-04	6.643609E-05
7.159550E+03	2.048402E-04	6.717622E-05
7.169453E+03	2.071318E-04	6.792048E-05
7.179355E+03	2.094357E-04	6.866857E-05
7.189258E+03	2.117555E-04	6.942173E-05
7.199160E+03	2.140813E-04	7.017666E-05
7.209063E+03	2.164213E-04	7.093606E-05
7.218965E+03	2.187699E-04	7.169814E-05
7.228868E+03	2.211263E-04	7.246255E-05
7.238770E+03	2.234942E-04	7.323057E-05
7.248673E+03	2.258678E-04	7.400028E-05
7.258576E+03	2.282511E-04	7.477297E-05
7.268478E+03	2.306431E-04	7.554836E-05
7.278381E+03	2.330483E-04	7.632786E-05
7.288283E+03	2.354658E-04	7.711124E-05
7.298186E+03	2.379004E-04	7.790001E-05
7.308088E+03	2.403460E-04	7.869220E-05
7.317991E+03	2.428185E-04	7.949304E-05
7.327894E+03	2.453180E-04	8.030248E-05
7.337796E+03	2.478385E-04	8.111864E-05
7.347699E+03	2.503972E-04	8.194711E-05
7.357601E+03	2.529887E-04	8.278611E-05
7.367504E+03	2.556191E-04	8.363764E-05
7.377406E+03	2.582827E-04	8.449986E-05
7.387309E+03	2.609859E-04	8.537482E-05
7.397211E+03	2.637105E-04	8.625657E-05
7.407114E+03	2.664686E-04	8.714908E-05
7.417017E+03	2.692413E-04	8.804615E-05
7.426919E+03	2.720343E-04	8.894966E-05
7.436822E+03	2.748406E-04	8.985733E-05
7.446724E+03	2.776529E-04	9.076673E-05
7.456627E+03	2.804770E-04	9.167979E-05
7.466529E+03	2.832914E-04	9.258947E-05
7.476432E+03	2.861086E-04	9.349984E-05
7.486334E+03	2.889203E-04	9.440823E-05
7.496237E+03	2.917252E-04	9.531419E-05
7.506140E+03	2.945146E-04	9.621490E-05
7.516042E+03	2.972942E-04	9.711219E-05
7.525945E+03	3.000551E-04	9.800316E-05
7.535847E+03	3.027954E-04	9.888723E-05
7.545750E+03	3.055210E-04	9.976629E-05
7.555652E+03	3.082226E-04	1.006373E-04
7.565555E+03	3.109062E-04	1.015023E-04
7.575457E+03	3.135544E-04	1.023555E-04
7.585360E+03	3.161809E-04	1.032014E-04
7.595263E+03	3.187760E-04	1.040370E-04
7.605165E+03	3.213460E-04	1.048641E-04
7.615068E+03	3.238810E-04	1.056796E-04
7.624970E+03	3.263788E-04	1.064829E-04
7.634873E+03	3.288376E-04	1.072732E-04
7.644775E+03	3.312726E-04	1.080557E-04
7.654678E+03	3.336563E-04	1.088212E-04
7.664581E+03	3.360128E-04	1.095777E-04
7.674483E+03	3.383229E-04	1.103189E-04
7.684386E+03	3.405936E-04	1.110471E-04
