#wls	flux	fluxerr
1.584409E+03	2.597719E+01	6.153232E+01
1.624020E+03	2.570869E+01	6.115700E+01
1.663630E+03	2.537872E+01	6.063352E+01
1.703240E+03	2.498651E+01	5.995806E+01
1.742850E+03	2.452896E+01	5.912113E+01
1.782461E+03	2.394851E+01	5.798854E+01
1.822071E+03	2.330187E+01	5.668652E+01
1.861681E+03	2.259223E+01	5.522035E+01
1.901291E+03	2.182093E+01	5.359086E+01
1.940902E+03	2.093473E+01	5.167158E+01
1.980512E+03	1.999552E+01	4.960366E+01
2.020122E+03	1.900631E+01	4.739203E+01
2.059732E+03	1.797160E+01	4.504551E+01
2.099342E+03	1.685336E+01	4.247290E+01
2.138953E+03	1.570676E+01	3.980222E+01
2.178563E+03	1.453873E+01	3.704911E+01
2.218173E+03	1.335609E+01	3.422926E+01
2.257783E+03	1.212767E+01	3.126670E+01
2.297394E+03	1.091937E+01	2.832240E+01
2.337004E+03	9.751360E+00	2.544880E+01
2.376614E+03	8.637513E+00	2.268317E+01
2.416224E+03	7.563117E+00	1.999257E+01
2.455835E+03	6.565405E+00	1.747155E+01
2.495445E+03	5.648535E+00	1.513414E+01
2.535055E+03	4.814352E+00	1.298865E+01
2.574665E+03	4.049167E+00	1.100426E+01
2.614276E+03	3.370464E+00	9.228116E+00
2.653886E+03	2.775196E+00	7.656070E+00
2.693496E+03	2.259192E+00	6.280828E+00
2.733106E+03	1.810470E+00	5.074611E+00
2.772716E+03	1.432719E+00	4.049410E+00
2.812327E+03	1.119030E+00	3.189818E+00
2.851937E+03	8.623596E-01	2.479606E+00
2.891547E+03	6.530336E-01	1.895044E+00
2.931157E+03	4.878074E-01	1.428924E+00
2.970768E+03	3.595677E-01	1.063431E+00
2.980670E+03	3.324927E-01	9.857507E-01
2.990573E+03	3.070227E-01	9.125169E-01
3.000475E+03	2.832838E-01	8.440804E-01
3.010378E+03	2.611786E-01	7.801849E-01
3.020280E+03	2.406137E-01	7.205839E-01
3.030183E+03	2.214379E-01	6.648722E-01
3.040086E+03	2.036360E-01	6.130126E-01
3.049988E+03	1.871330E-01	5.648077E-01
3.059891E+03	1.718441E-01	5.200282E-01
3.069793E+03	1.576470E-01	4.783420E-01
3.079696E+03	1.445244E-01	4.397055E-01
3.089598E+03	1.324084E-01	4.039346E-01
3.099501E+03	1.212313E-01	3.708448E-01
3.109403E+03	1.108936E-01	3.401614E-01
3.119306E+03	1.013780E-01	3.118396E-01
3.129209E+03	9.262489E-02	2.857140E-01
3.139111E+03	8.458327E-02	2.616448E-01
3.149014E+03	7.717393E-02	2.394103E-01
3.158916E+03	7.037970E-02	2.189635E-01
3.168819E+03	6.415418E-02	2.001749E-01
3.178721E+03	5.845390E-02	1.829221E-01
3.188624E+03	5.322043E-02	1.670402E-01
3.198526E+03	4.843710E-02	1.524821E-01
3.208429E+03	4.406712E-02	1.391431E-01
3.218332E+03	4.007922E-02	1.269350E-01
3.228234E+03	3.642661E-02	1.157227E-01
3.238137E+03	3.309767E-02	1.054736E-01
3.248039E+03	3.006406E-02	9.610576E-02
3.257942E+03	2.730124E-02	8.754847E-02
3.267844E+03	2.477673E-02	7.970738E-02
3.277747E+03	2.247945E-02	7.255010E-02
3.287650E+03	2.039023E-02	6.602091E-02
3.297552E+03	1.849065E-02	6.006595E-02
3.307455E+03	1.675679E-02	5.461461E-02
3.317357E+03	1.518119E-02	4.964503E-02
3.327260E+03	1.374964E-02	4.511524E-02
3.337162E+03	1.244931E-02	4.098730E-02
3.347065E+03	1.126305E-02	3.720993E-02
3.356967E+03	1.018601E-02	3.376884E-02
3.366870E+03	9.207914E-03	3.063326E-02
3.376773E+03	8.319686E-03	2.777601E-02
3.386675E+03	7.509657E-03	2.516180E-02
3.396578E+03	6.774077E-03	2.277938E-02
3.406480E+03	6.106245E-03	2.060855E-02
3.416383E+03	5.499804E-03	1.863003E-02
3.426285E+03	4.946381E-03	1.681808E-02
3.436188E+03	4.443877E-03	1.516650E-02
3.446090E+03	3.987428E-03	1.366039E-02
3.455993E+03	3.572793E-03	1.228676E-02
3.465896E+03	3.194276E-03	1.102788E-02
3.475798E+03	2.850352E-03	9.879188E-03
3.485701E+03	2.537861E-03	8.830940E-03
3.495603E+03	2.253864E-03	7.874013E-03
3.505506E+03	1.994425E-03	6.995977E-03
3.515408E+03	1.758676E-03	6.194301E-03
3.525311E+03	1.544424E-03	5.462143E-03
3.535213E+03	1.349715E-03	4.793389E-03
3.545116E+03	1.171862E-03	4.179418E-03
3.555019E+03	1.010349E-03	3.618798E-03
3.564921E+03	8.637184E-04	3.106945E-03
3.574824E+03	7.306450E-04	2.639682E-03
3.584726E+03	6.093114E-04	2.211081E-03
3.594629E+03	4.993854E-04	1.820276E-03
3.604531E+03	3.998680E-04	1.464099E-03
3.614434E+03	3.098710E-04	1.139734E-03
3.624337E+03	2.281385E-04	8.430010E-04
3.634239E+03	1.544386E-04	5.733366E-04
3.644142E+03	8.808152E-05	3.285339E-04
3.654044E+03	2.843742E-05	1.065724E-04
3.663947E+03	-2.534476E-05	-9.544273E-05
3.673849E+03	-7.345524E-05	-2.779686E-04
3.683752E+03	-1.163802E-04	-4.425775E-04
3.693654E+03	-1.545678E-04	-5.907249E-04
3.703557E+03	-1.885864E-04	-7.243955E-04
3.713460E+03	-2.186015E-04	-8.439907E-04
3.723362E+03	-2.449597E-04	-9.506454E-04
3.733265E+03	-2.679718E-04	-1.045377E-03
3.743167E+03	-2.880111E-04	-1.129529E-03
3.753070E+03	-3.052251E-04	-1.203468E-03
3.762972E+03	-3.198596E-04	-1.268007E-03
3.772875E+03	-3.321365E-04	-1.323881E-03
3.782777E+03	-3.422814E-04	-1.371925E-03
3.792680E+03	-3.504360E-04	-1.412517E-03
3.802583E+03	-3.567755E-04	-1.446245E-03
3.812485E+03	-3.614574E-04	-1.473633E-03
3.822388E+03	-3.646088E-04	-1.495166E-03
3.832290E+03	-3.663675E-04	-1.511243E-03
3.842193E+03	-3.668567E-04	-1.522280E-03
3.852095E+03	-3.661914E-04	-1.528667E-03
3.861998E+03	-3.644212E-04	-1.530590E-03
3.871900E+03	-3.616870E-04	-1.528502E-03
3.881803E+03	-3.580764E-04	-1.522700E-03
3.891706E+03	-3.536718E-04	-1.513468E-03
3.901608E+03	-3.484735E-04	-1.500791E-03
3.911511E+03	-3.426142E-04	-1.485125E-03
3.921413E+03	-3.361649E-04	-1.466720E-03
3.931316E+03	-3.291780E-04	-1.445752E-03
3.941218E+03	-3.216261E-04	-1.422086E-03
3.951121E+03	-3.136398E-04	-1.396206E-03
3.961024E+03	-3.052678E-04	-1.368282E-03
3.970926E+03	-2.965556E-04	-1.338476E-03
3.980829E+03	-2.874473E-04	-1.306520E-03
3.990731E+03	-2.780752E-04	-1.272941E-03
4.000634E+03	-2.684743E-04	-1.237863E-03
4.010536E+03	-2.586794E-04	-1.201412E-03
4.020439E+03	-2.486248E-04	-1.163265E-03
4.030341E+03	-2.384346E-04	-1.123946E-03
4.040244E+03	-2.281397E-04	-1.083571E-03
4.050147E+03	-2.177641E-04	-1.042229E-03
4.060049E+03	-2.072389E-04	-9.995682E-04
4.069952E+03	-1.966846E-04	-9.561306E-04
4.079854E+03	-1.861221E-04	-9.119958E-04
4.089757E+03	-1.755755E-04	-8.672615E-04
4.099659E+03	-1.649720E-04	-8.215468E-04
4.109562E+03	-1.544256E-04	-7.753944E-04
4.119464E+03	-1.439559E-04	-7.288868E-04
4.129367E+03	-1.335792E-04	-6.820935E-04
4.139270E+03	-1.232275E-04	-6.346482E-04
4.149172E+03	-1.130040E-04	-5.870685E-04
4.159075E+03	-1.029266E-04	-5.394397E-04
4.168977E+03	-9.300808E-05	-4.918222E-04
4.178880E+03	-8.318292E-05	-4.438543E-04
4.188782E+03	-7.354772E-05	-3.960487E-04
4.198685E+03	-6.411568E-05	-3.484756E-04
4.208587E+03	-5.489784E-05	-3.011960E-04
4.218490E+03	-4.583370E-05	-2.538708E-04
4.228393E+03	-3.701008E-05	-2.069863E-04
4.238295E+03	-2.843708E-05	-1.606059E-04
4.248198E+03	-2.012465E-05	-1.147950E-04
4.258100E+03	-1.201653E-05	-6.923751E-05
4.268003E+03	-4.189999E-06	-2.438992E-05
4.277905E+03	3.346916E-06	1.968535E-05
4.287808E+03	1.058690E-05	6.292723E-05
4.297711E+03	1.758058E-05	1.056153E-04
4.307613E+03	2.426072E-05	1.473311E-04
4.317516E+03	3.062224E-05	1.880184E-04
4.327418E+03	3.666065E-05	2.276216E-04
4.337321E+03	4.242158E-05	2.663823E-04
4.347223E+03	4.784951E-05	3.039365E-04
4.357126E+03	5.294228E-05	3.402350E-04
4.367028E+03	5.769883E-05	3.752329E-04
4.376931E+03	6.216132E-05	4.091387E-04
4.386834E+03	6.628437E-05	4.416408E-04
4.396736E+03	7.006871E-05	4.726985E-04
4.406639E+03	7.351679E-05	5.022801E-04
4.416541E+03	7.666570E-05	5.305464E-04
4.426444E+03	7.947999E-05	5.572444E-04
4.436346E+03	8.196370E-05	5.823464E-04
4.446249E+03	8.412029E-05	6.058180E-04
4.456151E+03	8.598428E-05	6.277861E-04
4.466054E+03	8.752917E-05	6.480568E-04
4.475957E+03	8.876114E-05	6.666090E-04
4.485859E+03	8.968783E-05	6.834310E-04
4.495762E+03	9.033764E-05	6.985860E-04
4.505664E+03	9.069438E-05	7.119577E-04
4.515567E+03	9.076762E-05	7.235442E-04
4.525469E+03	9.056662E-05	7.333401E-04
4.535372E+03	9.011622E-05	7.413621E-04
4.545274E+03	8.940892E-05	7.475683E-04
4.555177E+03	8.845572E-05	7.519639E-04
4.565080E+03	8.726806E-05	7.545577E-04
4.574982E+03	8.586919E-05	7.553363E-04
4.584885E+03	8.425749E-05	7.543173E-04
4.594787E+03	8.244650E-05	7.515273E-04
4.604690E+03	8.044933E-05	7.469893E-04
4.614592E+03	7.828566E-05	7.406450E-04
4.624495E+03	7.596066E-05	7.325880E-04
4.634398E+03	7.348830E-05	7.228519E-04
4.644300E+03	7.088271E-05	7.114735E-04
4.654203E+03	6.816220E-05	6.983741E-04
4.664105E+03	6.533622E-05	6.837082E-04
4.674008E+03	6.241903E-05	6.675207E-04
4.683910E+03	5.942604E-05	6.498714E-04
4.693813E+03	5.637030E-05	6.306279E-04
4.703715E+03	5.326482E-05	6.100037E-04
4.713618E+03	5.012406E-05	5.880589E-04
4.723521E+03	4.696178E-05	5.648501E-04
4.733423E+03	4.378789E-05	5.402170E-04
4.743326E+03	4.061804E-05	5.144273E-04
4.753228E+03	3.746532E-05	4.875428E-04
4.763131E+03	3.434210E-05	4.596220E-04
4.773033E+03	3.125585E-05	4.304953E-04
4.782936E+03	2.822277E-05	4.004604E-04
4.792838E+03	2.525449E-05	3.695836E-04
4.802741E+03	2.236221E-05	3.379324E-04
4.812644E+03	1.954950E-05	3.053202E-04
4.822546E+03	1.683303E-05	2.720713E-04
4.832449E+03	1.422231E-05	2.382511E-04
4.842351E+03	1.172675E-05	2.039310E-04
4.852254E+03	9.346530E-06	1.689288E-04
4.862156E+03	7.097680E-06	1.335740E-04
4.872059E+03	4.987942E-06	9.793963E-05
4.881961E+03	3.024425E-06	6.209784E-05
4.891864E+03	1.203067E-06	2.587422E-05
4.901767E+03	-4.605022E-07	-1.040159E-05
4.911669E+03	-1.960876E-06	-4.665353E-05
4.921572E+03	-3.293292E-06	-8.280530E-05
4.931474E+03	-4.466769E-06	-1.190159E-04
4.941377E+03	-5.465932E-06	-1.549637E-04
4.951279E+03	-6.288001E-06	-1.905701E-04
4.961182E+03	-6.930970E-06	-2.257581E-04
4.971085E+03	-7.409444E-06	-2.606592E-04
4.980987E+03	-7.708094E-06	-2.949681E-04
4.990890E+03	-7.827193E-06	-3.286092E-04
5.000792E+03	-7.767423E-06	-3.614920E-04
5.010695E+03	-7.550113E-06	-3.937214E-04
5.020597E+03	-7.159830E-06	-4.250232E-04
5.030500E+03	-6.599715E-06	-4.553021E-04
5.040402E+03	-5.874190E-06	-4.844878E-04
5.050305E+03	-5.011721E-06	-5.126321E-04
5.060208E+03	-3.996383E-06	-5.394950E-04
5.070110E+03	-2.835071E-06	-5.649991E-04
5.080013E+03	-1.535512E-06	-5.890514E-04
5.089915E+03	-1.344280E-07	-6.116707E-04
5.099818E+03	1.384925E-06	-6.326681E-04
5.109720E+03	3.011999E-06	-6.519579E-04
5.119623E+03	4.735271E-06	-6.694615E-04
5.129525E+03	6.509561E-06	-6.851487E-04
5.139428E+03	8.352836E-06	-6.988871E-04
5.149331E+03	1.025071E-05	-7.105909E-04
5.159233E+03	1.218820E-05	-7.202043E-04
5.169136E+03	1.411191E-05	-7.276596E-04
5.179038E+03	1.604121E-05	-7.328735E-04
5.188941E+03	1.795853E-05	-7.357869E-04
5.198843E+03	1.984569E-05	-7.363517E-04
5.208746E+03	2.164156E-05	-7.344741E-04
5.218648E+03	2.336817E-05	-7.301419E-04
5.228551E+03	2.500565E-05	-7.233223E-04
5.238454E+03	2.653251E-05	-7.139590E-04
5.248356E+03	2.788399E-05	-7.019976E-04
5.258259E+03	2.908322E-05	-6.874436E-04
5.268161E+03	3.010941E-05	-6.703012E-04
5.278064E+03	3.093969E-05	-6.505401E-04
5.285807E+03	2.232817E-04	-4.500397E-03
5.286401E+03	2.230580E-04	-4.481589E-03
5.286797E+03	2.226802E-04	-4.464525E-03
5.286995E+03	2.221532E-04	-4.449249E-03
5.287589E+03	2.218901E-04	-4.429970E-03
5.288975E+03	2.221324E-04	-4.402389E-03
5.289769E+03	2.219852E-04	-4.381125E-03
5.290363E+03	2.216681E-04	-4.361235E-03
5.290759E+03	2.212268E-04	-4.343537E-03
5.291155E+03	2.207938E-04	-4.326072E-03
5.291353E+03	2.202269E-04	-4.310507E-03
5.291749E+03	2.197583E-04	-4.292462E-03
5.292145E+03	2.192816E-04	-4.274342E-03
5.293532E+03	2.193826E-04	-4.245718E-03
5.293928E+03	2.189012E-04	-4.227752E-03
5.294324E+03	2.184158E-04	-4.209777E-03
5.294721E+03	2.179031E-04	-4.191343E-03
5.295909E+03	2.178228E-04	-4.164394E-03
5.297098E+03	2.177268E-04	-4.137442E-03
5.297493E+03	2.172007E-04	-4.119171E-03
5.297691E+03	2.165762E-04	-4.103213E-03
5.298087E+03	2.160692E-04	-4.085419E-03
5.299671E+03	2.160980E-04	-4.053492E-03
5.300464E+03	2.157077E-04	-4.030117E-03
5.300662E+03	2.150285E-04	-4.013456E-03
5.300861E+03	2.143529E-04	-3.996895E-03
5.301059E+03	2.136826E-04	-3.980462E-03
5.303039E+03	2.137486E-04	-3.942731E-03
5.303237E+03	2.130730E-04	-3.926427E-03
5.303435E+03	2.124106E-04	-3.910397E-03
5.304425E+03	2.120247E-04	-3.884313E-03
5.304822E+03	2.113816E-04	-3.865009E-03
5.305020E+03	2.106770E-04	-3.848390E-03
5.306407E+03	2.103719E-04	-3.816876E-03
5.307001E+03	2.097630E-04	-3.794843E-03
5.307199E+03	2.090412E-04	-3.778149E-03
5.307397E+03	2.083079E-04	-3.761283E-03
5.307595E+03	2.075612E-04	-3.744207E-03
5.307793E+03	2.068234E-04	-3.727322E-03
5.308586E+03	2.062716E-04	-3.703177E-03
5.309378E+03	2.057020E-04	-3.678900E-03
5.309575E+03	2.049558E-04	-3.662087E-03
5.310566E+03	2.044142E-04	-3.635101E-03
5.310764E+03	2.036482E-04	-3.618050E-03
5.311358E+03	2.029732E-04	-3.595855E-03
5.311754E+03	2.022442E-04	-3.576191E-03
5.311952E+03	2.014628E-04	-3.559019E-03
5.312547E+03	2.007647E-04	-3.536696E-03
5.313537E+03	2.001302E-04	-3.509055E-03
5.314527E+03	1.994802E-04	-3.481385E-03
5.315319E+03	1.987698E-04	-3.456110E-03
5.316112E+03	1.980460E-04	-3.430763E-03
5.317697E+03	1.974106E-04	-3.394637E-03
5.317895E+03	1.965828E-04	-3.377300E-03
5.318093E+03	1.957541E-04	-3.359976E-03
5.318291E+03	1.949279E-04	-3.342727E-03
5.318885E+03	1.941408E-04	-3.320106E-03
5.319083E+03	1.933114E-04	-3.302904E-03
5.320073E+03	1.925491E-04	-3.274917E-03
5.320272E+03	1.917110E-04	-3.257697E-03
5.320865E+03	1.909008E-04	-3.235129E-03
5.321658E+03	1.900964E-04	-3.209842E-03
5.322450E+03	1.892755E-04	-3.184465E-03
5.323044E+03	1.884378E-04	-3.161821E-03
5.323242E+03	1.875943E-04	-3.144843E-03
5.323440E+03	1.867272E-04	-3.127498E-03
5.323638E+03	1.858627E-04	-3.110228E-03
5.323836E+03	1.849769E-04	-3.092633E-03
5.324233E+03	1.840939E-04	-3.072367E-03
5.324629E+03	1.832066E-04	-3.052100E-03
5.324827E+03	1.823179E-04	-3.034586E-03
5.325421E+03	1.814258E-04	-3.011674E-03
5.327798E+03	1.804333E-04	-2.963525E-03
5.327997E+03	1.795367E-04	-2.946201E-03
5.328195E+03	1.786361E-04	-2.928840E-03
5.328393E+03	1.777349E-04	-2.911499E-03
5.328789E+03	1.768132E-04	-2.891319E-03
5.328987E+03	1.759106E-04	-2.874035E-03
5.329185E+03	1.750073E-04	-2.856771E-03
5.330373E+03	1.739981E-04	-2.825428E-03
5.331561E+03	1.729702E-04	-2.794112E-03
5.331760E+03	1.720624E-04	-2.777023E-03
5.332553E+03	1.710667E-04	-2.751397E-03
5.332751E+03	1.701459E-04	-2.734219E-03
5.333741E+03	1.690846E-04	-2.705473E-03
5.334136E+03	1.681136E-04	-2.685324E-03
5.334334E+03	1.671922E-04	-2.668311E-03
5.335126E+03	1.661557E-04	-2.642680E-03
5.335324E+03	1.652112E-04	-2.625410E-03
5.335919E+03	1.642174E-04	-2.602935E-03
5.336117E+03	1.632884E-04	-2.586001E-03
5.336315E+03	1.623590E-04	-2.569089E-03
5.336513E+03	1.614392E-04	-2.552359E-03
5.336909E+03	1.604566E-04	-2.532509E-03
5.337504E+03	1.594128E-04	-2.509619E-03
5.337702E+03	1.584910E-04	-2.492990E-03
5.337900E+03	1.575385E-04	-2.475909E-03
5.338098E+03	1.565863E-04	-2.458862E-03
5.338692E+03	1.555447E-04	-2.436316E-03
5.339286E+03	1.545078E-04	-2.413953E-03
5.339484E+03	1.535528E-04	-2.397013E-03
5.340079E+03	1.524972E-04	-2.374535E-03
5.340277E+03	1.515549E-04	-2.357880E-03
5.340673E+03	1.505615E-04	-2.338495E-03
5.340871E+03	1.496149E-04	-2.321846E-03
5.341069E+03	1.486587E-04	-2.305076E-03
5.341861E+03	1.475454E-04	-2.280175E-03
5.342059E+03	1.466177E-04	-2.263947E-03
5.342258E+03	1.456761E-04	-2.247525E-03
5.342654E+03	1.446597E-04	-2.228132E-03
5.343645E+03	1.434498E-04	-2.200337E-03
5.344437E+03	1.423136E-04	-2.175687E-03
5.344635E+03	1.413596E-04	-2.159318E-03
5.345031E+03	1.403601E-04	-2.140514E-03
5.345624E+03	1.392917E-04	-2.118984E-03
5.345823E+03	1.383238E-04	-2.102518E-03
5.346218E+03	1.372908E-04	-2.083399E-03
5.346416E+03	1.363340E-04	-2.067181E-03
5.347010E+03	1.352225E-04	-2.045292E-03
5.347208E+03	1.342555E-04	-2.029002E-03
5.348398E+03	1.329206E-04	-1.999006E-03
5.348596E+03	1.319532E-04	-1.982840E-03
5.348992E+03	1.309326E-04	-1.964304E-03
5.349586E+03	1.298099E-04	-1.942719E-03
5.349784E+03	1.288521E-04	-1.926823E-03
5.350972E+03	1.274930E-04	-1.897268E-03
5.351170E+03	1.265452E-04	-1.881644E-03
5.351369E+03	1.256011E-04	-1.866099E-03
5.351567E+03	1.246377E-04	-1.850295E-03
5.351765E+03	1.236817E-04	-1.834624E-03
5.351963E+03	1.227195E-04	-1.818888E-03
5.352161E+03	1.217870E-04	-1.803615E-03
5.352359E+03	1.208549E-04	-1.788374E-03
5.352557E+03	1.199105E-04	-1.772976E-03
5.352954E+03	1.188697E-04	-1.754762E-03
5.353350E+03	1.178416E-04	-1.736801E-03
5.353548E+03	1.169081E-04	-1.721664E-03
5.353746E+03	1.159561E-04	-1.706281E-03
5.354538E+03	1.147566E-04	-1.683248E-03
5.354736E+03	1.138152E-04	-1.668108E-03
5.354934E+03	1.128742E-04	-1.653002E-03
5.355132E+03	1.119375E-04	-1.637980E-03
5.355727E+03	1.108326E-04	-1.617952E-03
5.356321E+03	1.097222E-04	-1.597936E-03
5.356519E+03	1.087840E-04	-1.583019E-03
5.356717E+03	1.078533E-04	-1.568235E-03
5.356915E+03	1.069264E-04	-1.553529E-03
5.357706E+03	1.057202E-04	-1.531167E-03
5.357905E+03	1.047908E-04	-1.516507E-03
5.358104E+03	1.038915E-04	-1.502305E-03
5.359490E+03	1.024264E-04	-1.473008E-03
5.360282E+03	1.012192E-04	-1.451097E-03
5.360480E+03	1.003074E-04	-1.436904E-03
5.360678E+03	9.938459E-05	-1.422575E-03
5.362658E+03	9.757831E-05	-1.385906E-03
5.362856E+03	9.667730E-05	-1.372045E-03
5.363055E+03	9.577408E-05	-1.358176E-03
5.364046E+03	9.446400E-05	-1.334431E-03
5.364244E+03	9.357033E-05	-1.320788E-03
5.364838E+03	9.245974E-05	-1.302100E-03
5.365432E+03	9.135131E-05	-1.283530E-03
5.365630E+03	9.045615E-05	-1.269979E-03
5.366026E+03	8.947466E-05	-1.254275E-03
5.366422E+03	8.849420E-05	-1.238633E-03
5.366620E+03	8.762422E-05	-1.225519E-03
5.366819E+03	8.674063E-05	-1.212235E-03
5.367611E+03	8.553610E-05	-1.191760E-03
5.367809E+03	8.467100E-05	-1.178808E-03
5.368007E+03	8.380404E-05	-1.165851E-03
5.368205E+03	8.293282E-05	-1.152855E-03
5.369789E+03	8.131063E-05	-1.123470E-03
5.369987E+03	8.046538E-05	-1.110951E-03
5.370780E+03	7.927527E-05	-1.091222E-03
5.370978E+03	7.843142E-05	-1.078793E-03
5.371572E+03	7.736444E-05	-1.061718E-03
5.371770E+03	7.651554E-05	-1.049279E-03
5.372562E+03	7.533641E-05	-1.030015E-03
5.372760E+03	7.450369E-05	-1.017867E-03
5.372958E+03	7.367257E-05	-1.005759E-03
5.373156E+03	7.284877E-05	-9.937691E-04
5.373354E+03	7.203516E-05	-9.819363E-04
5.373552E+03	7.122327E-05	-9.701443E-04
5.373750E+03	7.040717E-05	-9.583124E-04
5.373949E+03	6.959496E-05	-9.465474E-04
5.374147E+03	6.879063E-05	-9.349111E-04
5.375138E+03	6.755873E-05	-9.147599E-04
5.375336E+03	6.675707E-05	-9.032342E-04
5.375534E+03	6.596566E-05	-8.918638E-04
5.375732E+03	6.517586E-05	-8.805329E-04
5.376128E+03	6.428585E-05	-8.672234E-04
5.376722E+03	6.329254E-05	-8.519311E-04
5.377316E+03	6.230381E-05	-8.367666E-04
5.377514E+03	6.152965E-05	-8.257606E-04
5.378306E+03	6.044014E-05	-8.087548E-04
5.378901E+03	5.946681E-05	-7.939789E-04
5.379099E+03	5.871259E-05	-7.833337E-04
5.379298E+03	5.795690E-05	-7.726824E-04
5.379892E+03	5.699280E-05	-7.581628E-04
5.380882E+03	5.582252E-05	-7.398880E-04
5.381080E+03	5.509367E-05	-7.296954E-04
5.381278E+03	5.437480E-05	-7.196500E-04
5.381476E+03	5.365273E-05	-7.095769E-04
5.381674E+03	5.293255E-05	-6.995433E-04
5.382268E+03	5.200820E-05	-6.858306E-04
5.382664E+03	5.120021E-05	-6.742000E-04
5.383852E+03	4.995750E-05	-6.549867E-04
5.384050E+03	4.925946E-05	-6.453686E-04
5.384248E+03	4.857661E-05	-6.359629E-04
5.384446E+03	4.789051E-05	-6.265290E-04
5.385239E+03	4.688675E-05	-6.116317E-04
5.385437E+03	4.621779E-05	-6.024720E-04
5.386031E+03	4.533364E-05	-5.896750E-04
5.386230E+03	4.466798E-05	-5.806002E-04
5.386626E+03	4.390479E-05	-5.698636E-04
5.387616E+03	4.283343E-05	-5.539744E-04
5.387814E+03	4.219141E-05	-5.452817E-04
5.388012E+03	4.155154E-05	-5.366294E-04
5.388210E+03	4.091902E-05	-5.280843E-04
5.388408E+03	4.029122E-05	-5.196120E-04
5.388804E+03	3.955869E-05	-5.094395E-04
5.389002E+03	3.893622E-05	-5.010674E-04
5.389200E+03	3.832106E-05	-4.928010E-04
5.390588E+03	3.710376E-05	-4.747847E-04
5.391182E+03	3.630065E-05	-4.635241E-04
5.391380E+03	3.570710E-05	-4.556236E-04
5.391578E+03	3.511839E-05	-4.477959E-04
5.392172E+03	3.433578E-05	-4.368928E-04
5.392370E+03	3.375845E-05	-4.292447E-04
5.392568E+03	3.318818E-05	-4.216972E-04
5.392964E+03	3.252347E-05	-4.126713E-04
5.393162E+03	3.196368E-05	-4.052840E-04
5.393558E+03	3.131786E-05	-3.965389E-04
