#wls	flux	fluxerr
1.584409E+03	3.551505E-05	-4.337782E-04
1.624020E+03	3.870992E-05	-4.184900E-04
1.663630E+03	4.153337E-05	-4.017287E-04
1.703240E+03	4.394947E-05	-3.836828E-04
1.742850E+03	4.591392E-05	-3.644293E-04
1.782461E+03	4.702259E-05	-3.428467E-04
1.822071E+03	4.767155E-05	-3.207489E-04
1.861681E+03	4.785342E-05	-2.983037E-04
1.901291E+03	4.756153E-05	-2.756468E-04
1.940902E+03	4.650450E-05	-2.523164E-04
1.980512E+03	4.505277E-05	-2.293483E-04
2.020122E+03	4.322365E-05	-2.068652E-04
2.059732E+03	4.103704E-05	-1.849750E-04
2.099342E+03	3.837762E-05	-1.638042E-04
2.138953E+03	3.550134E-05	-1.436378E-04
2.178563E+03	3.243750E-05	-1.245287E-04
2.218173E+03	2.922338E-05	-1.065441E-04
2.257783E+03	2.595157E-05	-9.027208E-05
2.297394E+03	2.271007E-05	-7.539949E-05
2.337004E+03	1.955302E-05	-6.198251E-05
2.376614E+03	1.652353E-05	-5.002488E-05
2.416224E+03	1.382693E-05	-4.015159E-05
2.455835E+03	1.134884E-05	-3.160726E-05
2.495445E+03	9.096638E-06	-2.429539E-05
2.535055E+03	7.073148E-06	-1.811322E-05
2.574665E+03	5.498157E-06	-1.355727E-05
2.614276E+03	4.135351E-06	-9.813933E-06
2.653886E+03	2.972632E-06	-6.786329E-06
2.693496E+03	1.996760E-06	-4.382814E-06
2.733106E+03	1.384432E-06	-2.934425E-06
2.772716E+03	8.919095E-07	-1.824122E-06
2.812327E+03	5.053321E-07	-9.963842E-07
2.851937E+03	2.113726E-07	-4.014458E-07
2.891547E+03	1.055717E-07	-1.939270E-07
2.931157E+03	3.020577E-08	-5.360479E-08
2.970768E+03	-2.036346E-08	3.487091E-08
2.980670E+03	-2.973460E-08	5.045590E-08
2.990573E+03	-2.772162E-08	4.664791E-08
3.000475E+03	-2.581475E-08	4.307329E-08
3.010378E+03	-2.401078E-08	3.972236E-08
3.020280E+03	-2.230486E-08	3.658290E-08
3.030183E+03	-1.666343E-08	2.710428E-08
3.040086E+03	-1.163456E-08	1.876627E-08
3.049988E+03	-7.177650E-09	1.147952E-08
3.059891E+03	-3.252955E-09	5.158113E-09
3.069793E+03	3.363662E-09	-5.289897E-09
3.079696E+03	9.070171E-09	-1.414585E-08
3.089598E+03	1.393684E-08	-2.155322E-08
3.099501E+03	1.803038E-08	-2.764660E-08
3.109403E+03	2.386847E-08	-3.630006E-08
3.119306E+03	2.867896E-08	-4.325587E-08
3.129209E+03	3.255281E-08	-4.868793E-08
3.139111E+03	3.557477E-08	-5.275663E-08
3.149014E+03	3.966536E-08	-5.834620E-08
3.158916E+03	4.275473E-08	-6.237364E-08
3.168819E+03	4.494436E-08	-6.502138E-08
3.178721E+03	4.633003E-08	-6.645912E-08
3.188624E+03	4.834075E-08	-6.878420E-08
3.198526E+03	4.948073E-08	-6.982972E-08
3.208429E+03	4.985124E-08	-6.976749E-08
3.218332E+03	4.955115E-08	-6.876168E-08
3.228234E+03	4.962224E-08	-6.830714E-08
3.238137E+03	4.901365E-08	-6.691832E-08
3.248039E+03	4.782391E-08	-6.475166E-08
3.257942E+03	4.614298E-08	-6.194797E-08
3.267844E+03	4.471988E-08	-5.955657E-08
3.277747E+03	4.283468E-08	-5.658073E-08
3.287650E+03	4.057491E-08	-5.315071E-08
3.297552E+03	3.802140E-08	-4.938450E-08
3.307455E+03	3.570163E-08	-4.600081E-08
3.317357E+03	3.313351E-08	-4.234391E-08
3.327260E+03	3.038931E-08	-3.851406E-08
3.337162E+03	2.753419E-08	-3.459970E-08
3.347065E+03	2.493821E-08	-3.108740E-08
3.356967E+03	2.227795E-08	-2.754474E-08
3.366870E+03	1.960835E-08	-2.404204E-08
3.376773E+03	1.697687E-08	-2.063836E-08
3.386675E+03	1.464098E-08	-1.765662E-08
3.396578E+03	1.237798E-08	-1.480559E-08
3.406480E+03	1.022434E-08	-1.212735E-08
3.416383E+03	8.210311E-09	-9.655111E-09
3.426285E+03	6.508576E-09	-7.592792E-09
3.436188E+03	4.960260E-09	-5.739173E-09
3.446090E+03	3.583832E-09	-4.111777E-09
3.455993E+03	2.392838E-09	-2.721674E-09
3.465896E+03	1.491385E-09	-1.682773E-09
3.475798E+03	7.636771E-10	-8.545969E-10
3.485701E+03	2.123764E-10	-2.356526E-10
3.495603E+03	-1.637906E-10	1.801622E-10
3.505506E+03	-3.238747E-10	3.533918E-10
3.515408E+03	-3.444560E-10	3.727446E-10
3.525311E+03	-2.355795E-10	2.527560E-10
3.535213E+03	-1.021387E-11	1.086234E-11
3.545116E+03	3.180877E-10	-3.355631E-10
3.555019E+03	7.108924E-10	-7.437166E-10
3.564921E+03	1.149138E-09	-1.191867E-09
3.574824E+03	1.611842E-09	-1.656912E-09
3.584726E+03	2.047368E-09	-2.087634E-09
3.594629E+03	2.446410E-09	-2.473648E-09
3.604531E+03	2.784987E-09	-2.791536E-09
3.614434E+03	3.038129E-09	-3.017803E-09
3.624337E+03	3.131566E-09	-3.085408E-09
3.634239E+03	3.078258E-09	-3.007293E-09
3.644142E+03	2.853678E-09	-2.763370E-09
3.654044E+03	2.433361E-09	-2.334736E-09
3.663947E+03	1.732921E-09	-1.649150E-09
3.673849E+03	7.839401E-10	-7.396891E-10
3.683752E+03	-4.342438E-10	4.060760E-10
3.693654E+03	-1.941365E-09	1.798448E-09
3.703557E+03	-3.824787E-09	3.514246E-09
3.713460E+03	-6.033448E-09	5.495869E-09
3.723362E+03	-8.579967E-09	7.744593E-09
3.733265E+03	-1.147519E-08	1.025874E-08
3.743167E+03	-1.481072E-08	1.313200E-08
3.753070E+03	-1.850776E-08	1.626717E-08
3.762972E+03	-2.256690E-08	1.965153E-08
3.772875E+03	-2.698597E-08	2.326847E-08
3.782777E+03	-3.187000E-08	2.725364E-08
3.792680E+03	-3.709557E-08	3.144298E-08
3.802583E+03	-4.264592E-08	3.580607E-08
3.812485E+03	-4.850099E-08	4.030818E-08
3.822388E+03	-5.479374E-08	4.516384E-08
3.832290E+03	-6.132816E-08	5.009973E-08
3.842193E+03	-6.806324E-08	5.506321E-08
3.852095E+03	-7.495336E-08	5.999627E-08
3.861998E+03	-8.216537E-08	6.523322E-08
3.871900E+03	-8.939827E-08	7.033769E-08
3.881803E+03	-9.657533E-08	7.522734E-08
3.891706E+03	-1.036106E-07	7.981077E-08
3.901608E+03	-1.106777E-07	8.457554E-08
3.911511E+03	-1.173463E-07	8.886261E-08
3.921413E+03	-1.234795E-07	9.254386E-08
3.931316E+03	-1.289253E-07	9.547782E-08
3.941218E+03	-1.337615E-07	9.831484E-08
3.951121E+03	-1.374318E-07	1.001135E-07
3.961024E+03	-1.396965E-07	1.006740E-07
3.970926E+03	-1.402944E-07	9.977851E-08
3.980829E+03	-1.389458E-07	9.819272E-08
3.990731E+03	-1.350425E-07	9.464915E-08
4.000634E+03	-1.281772E-07	8.884022E-08
4.010536E+03	-1.179008E-07	8.042746E-08
4.020439E+03	-1.030178E-07	7.014037E-08
4.030341E+03	-8.310648E-08	5.639373E-08
4.040244E+03	-5.746744E-08	3.870671E-08
4.050147E+03	-2.534007E-08	1.655645E-08
4.060049E+03	1.643770E-08	3.656120E-08
4.069952E+03	6.759314E-08	6.064262E-08
4.079854E+03	1.293130E-07	8.930043E-08
4.089757E+03	2.028861E-07	1.230776E-07
4.099659E+03	2.952057E-07	1.730192E-07
4.109562E+03	4.043953E-07	2.318986E-07
4.119464E+03	5.324467E-07	3.007625E-07
4.129367E+03	6.815143E-07	3.807427E-07
4.139270E+03	8.651954E-07	4.697259E-07
4.149172E+03	1.078391E-06	5.723028E-07
4.159075E+03	1.324363E-06	6.899384E-07
4.168977E+03	1.606673E-06	8.242333E-07
4.178880E+03	1.950456E-06	9.738164E-07
4.188782E+03	2.344582E-06	1.143582E-06
4.198685E+03	2.794355E-06	1.335562E-06
4.208587E+03	3.305438E-06	1.551916E-06
4.218490E+03	3.922123E-06	1.792595E-06
4.228393E+03	4.622692E-06	2.062467E-06
4.238295E+03	5.415492E-06	2.364228E-06
4.248198E+03	6.309462E-06	2.700753E-06
4.258100E+03	7.379348E-06	3.073799E-06
4.268003E+03	8.585804E-06	3.487838E-06
4.277905E+03	9.941566E-06	3.946276E-06
4.287808E+03	1.146059E-05	4.452872E-06
4.297711E+03	1.326442E-05	5.011390E-06
4.307613E+03	1.528539E-05	5.625533E-06
4.317516E+03	1.754273E-05	6.299492E-06
4.327418E+03	2.005724E-05	7.037824E-06
4.337321E+03	2.302191E-05	7.846491E-06
4.347223E+03	2.632472E-05	8.728055E-06
4.357126E+03	2.999453E-05	9.687563E-06
4.367028E+03	3.406203E-05	1.073033E-05
4.376931E+03	3.882488E-05	1.186352E-05
4.386834E+03	4.410342E-05	1.308840E-05
4.396736E+03	4.993938E-05	1.441050E-05
4.406639E+03	5.637596E-05	1.583535E-05
4.416541E+03	6.386148E-05	1.736928E-05
4.426444E+03	7.211540E-05	1.901253E-05
4.436346E+03	8.119532E-05	2.077031E-05
4.446249E+03	9.116133E-05	2.264790E-05
4.456151E+03	1.026706E-04	2.464650E-05
4.466054E+03	1.152965E-04	2.676648E-05
4.475957E+03	1.291161E-04	2.901175E-05
4.485859E+03	1.442067E-04	3.138556E-05
4.495762E+03	1.614938E-04	3.387493E-05
4.505664E+03	1.803542E-04	3.648484E-05
4.515567E+03	2.008855E-04	3.921627E-05
4.525469E+03	2.231855E-04	4.206944E-05
4.535372E+03	2.484321E-04	4.499211E-05
4.545274E+03	2.758107E-04	4.801236E-05
4.555177E+03	3.054311E-04	5.112557E-05
4.565080E+03	3.374137E-04	5.432812E-05
4.574982E+03	3.731604E-04	5.751102E-05
4.584885E+03	4.116579E-04	6.073660E-05
4.594787E+03	4.530307E-04	6.399515E-05
4.604690E+03	4.973982E-04	6.727562E-05
4.614592E+03	5.461683E-04	7.039131E-05
4.624495E+03	5.982928E-04	7.346104E-05
4.634398E+03	6.538744E-04	7.646713E-05
4.644300E+03	7.130064E-04	7.939095E-05
4.654203E+03	7.755315E-04	8.186133E-05
4.664105E+03	8.416931E-04	8.416882E-05
4.674008E+03	9.115468E-04	8.629202E-05
4.683910E+03	9.851192E-04	8.820788E-05
4.693813E+03	1.059038E-03	8.944287E-05
4.703715E+03	1.136390E-03	9.042155E-05
4.713618E+03	1.217167E-03	9.112487E-05
4.723521E+03	1.301407E-03	9.153851E-05
4.733423E+03	1.381127E-03	9.146156E-05
4.743326E+03	1.463515E-03	9.111462E-05
4.753228E+03	1.548564E-03	9.049017E-05
4.763131E+03	1.636190E-03	8.957707E-05
4.773033E+03	1.712762E-03	8.913980E-05
4.782936E+03	1.790736E-03	8.852623E-05
4.792838E+03	1.870068E-03	8.773618E-05
4.802741E+03	1.950635E-03	8.676643E-05
4.812644E+03	2.013834E-03	8.794570E-05
4.822546E+03	2.076963E-03	8.907492E-05
4.832449E+03	2.139948E-03	9.015342E-05
4.842351E+03	2.202694E-03	9.117976E-05
4.852254E+03	2.245086E-03	9.512184E-05
4.862156E+03	2.286143E-03	9.901945E-05
4.872059E+03	2.325794E-03	1.028652E-04
4.881961E+03	2.363994E-03	1.066529E-04
4.891864E+03	2.380437E-03	1.118070E-04
4.901767E+03	2.394707E-03	1.167853E-04
4.911669E+03	2.406740E-03	1.215762E-04
4.921572E+03	2.416546E-03	1.261719E-04
4.931474E+03	2.404263E-03	1.304659E-04
4.941377E+03	2.389404E-03	1.344270E-04
4.951279E+03	2.372017E-03	1.380509E-04
4.961182E+03	2.352175E-03	1.413354E-04
4.971085E+03	2.310921E-03	1.433401E-04
4.980987E+03	2.267258E-03	1.449132E-04
4.990890E+03	2.221277E-03	1.460586E-04
5.000792E+03	2.173123E-03	1.467841E-04
5.010695E+03	2.105251E-03	1.457936E-04
5.020597E+03	2.035588E-03	1.443558E-04
5.030500E+03	1.964334E-03	1.424887E-04
5.040402E+03	1.891667E-03	1.402096E-04
5.050305E+03	1.801776E-03	1.361350E-04
5.060208E+03	1.711150E-03	1.316858E-04
5.070110E+03	1.620046E-03	1.268907E-04
5.080013E+03	1.528652E-03	1.217736E-04
5.089915E+03	1.423089E-03	1.150207E-04
5.099818E+03	1.318140E-03	1.080367E-04
5.109720E+03	1.214047E-03	1.008535E-04
5.119623E+03	1.111037E-03	9.350217E-05
5.129525E+03	9.972152E-04	8.482612E-05
5.139428E+03	8.854487E-04	7.610278E-05
5.149331E+03	7.759840E-04	6.736631E-05
5.159233E+03	6.690315E-04	5.864795E-05
5.169136E+03	5.545827E-04	4.898595E-05
5.179038E+03	4.436097E-04	3.947396E-05
5.188941E+03	3.363148E-04	3.014184E-05
5.198843E+03	2.328733E-04	2.101701E-05
5.208746E+03	1.250032E-04	1.133867E-05
5.218648E+03	2.183655E-05	1.990487E-06
5.228551E+03	-7.649238E-05	-7.006066E-06
5.238454E+03	-1.698636E-04	-1.563096E-05
5.248356E+03	-2.650334E-04	-2.446019E-05
5.258259E+03	-3.545843E-04	-3.281889E-05
5.268161E+03	-4.384549E-04	-4.069553E-05
5.278064E+03	-5.166051E-04	-4.808073E-05
5.285209E+03	-1.325392E-03	-1.235140E-04
5.285407E+03	-1.325975E-03	-1.235727E-04
5.285605E+03	-1.326478E-03	-1.236239E-04
5.285803E+03	-1.326901E-03	-1.236678E-04
5.286001E+03	-1.327271E-03	-1.237062E-04
5.286199E+03	-1.327661E-03	-1.237466E-04
5.286397E+03	-1.327971E-03	-1.237794E-04
5.286595E+03	-1.328199E-03	-1.238047E-04
5.286992E+03	-1.331570E-03	-1.241266E-04
5.287190E+03	-1.331772E-03	-1.241493E-04
5.287586E+03	-1.334935E-03	-1.244519E-04
5.288576E+03	-1.346898E-03	-1.255866E-04
5.288774E+03	-1.346876E-03	-1.255884E-04
5.288973E+03	-1.346833E-03	-1.255881E-04
5.289369E+03	-1.349583E-03	-1.258520E-04
5.289567E+03	-1.349527E-03	-1.258506E-04
5.289765E+03	-1.349249E-03	-1.258283E-04
5.290755E+03	-1.360452E-03	-1.268912E-04
5.290953E+03	-1.360204E-03	-1.268717E-04
5.291349E+03	-1.362583E-03	-1.271010E-04
5.291943E+03	-1.367780E-03	-1.275961E-04
5.292340E+03	-1.370087E-03	-1.278182E-04
5.293331E+03	-1.380474E-03	-1.288046E-04
5.294123E+03	-1.387962E-03	-1.295172E-04
5.294321E+03	-1.387202E-03	-1.294496E-04
5.294519E+03	-1.386464E-03	-1.293840E-04
5.294717E+03	-1.385684E-03	-1.293145E-04
5.294915E+03	-1.384773E-03	-1.292328E-04
5.295311E+03	-1.386421E-03	-1.293930E-04
5.295707E+03	-1.388012E-03	-1.295479E-04
5.295905E+03	-1.387015E-03	-1.294581E-04
5.296103E+03	-1.385998E-03	-1.293664E-04
5.296697E+03	-1.389949E-03	-1.297443E-04
5.297094E+03	-1.391350E-03	-1.298812E-04
5.297490E+03	-1.392607E-03	-1.300046E-04
5.298282E+03	-1.398787E-03	-1.305939E-04
5.298678E+03	-1.399850E-03	-1.306988E-04
5.299272E+03	-1.403313E-03	-1.310307E-04
5.300064E+03	-1.409026E-03	-1.315756E-04
5.300460E+03	-1.409882E-03	-1.316613E-04
5.300659E+03	-1.408309E-03	-1.315172E-04
5.301055E+03	-1.408975E-03	-1.315848E-04
5.301253E+03	-1.407254E-03	-1.314268E-04
5.301451E+03	-1.405583E-03	-1.312734E-04
5.301649E+03	-1.403803E-03	-1.311098E-04
5.302045E+03	-1.404228E-03	-1.311546E-04
5.302441E+03	-1.404669E-03	-1.312010E-04
5.302640E+03	-1.402835E-03	-1.310323E-04
5.302838E+03	-1.400881E-03	-1.308523E-04
5.303036E+03	-1.398905E-03	-1.306702E-04
5.303234E+03	-1.396767E-03	-1.304729E-04
5.303828E+03	-1.399061E-03	-1.306947E-04
5.304224E+03	-1.399140E-03	-1.307067E-04
5.304422E+03	-1.396831E-03	-1.304934E-04
5.304621E+03	-1.394550E-03	-1.302827E-04
5.304819E+03	-1.392345E-03	-1.300791E-04
5.305017E+03	-1.390005E-03	-1.298627E-04
5.305611E+03	-1.391768E-03	-1.300342E-04
5.305809E+03	-1.389335E-03	-1.298091E-04
5.306007E+03	-1.386833E-03	-1.295776E-04
5.306403E+03	-1.386308E-03	-1.295328E-04
5.306601E+03	-1.383757E-03	-1.292965E-04
5.306799E+03	-1.381111E-03	-1.290514E-04
5.306997E+03	-1.378372E-03	-1.287976E-04
5.307195E+03	-1.375619E-03	-1.285423E-04
5.308186E+03	-1.380885E-03	-1.290444E-04
5.308583E+03	-1.380022E-03	-1.289677E-04
5.309176E+03	-1.381001E-03	-1.290651E-04
5.309374E+03	-1.378033E-03	-1.287895E-04
5.311156E+03	-1.390151E-03	-1.299380E-04
5.311354E+03	-1.387013E-03	-1.296465E-04
5.311552E+03	-1.383804E-03	-1.293484E-04
5.311750E+03	-1.380583E-03	-1.290489E-04
5.311948E+03	-1.377291E-03	-1.287428E-04
5.312146E+03	-1.373953E-03	-1.284324E-04
5.312345E+03	-1.370596E-03	-1.281202E-04
5.312741E+03	-1.368954E-03	-1.279697E-04
5.313534E+03	-1.370774E-03	-1.281458E-04
5.314128E+03	-1.370689E-03	-1.281423E-04
5.314326E+03	-1.367105E-03	-1.278087E-04
5.314524E+03	-1.363483E-03	-1.274714E-04
5.314920E+03	-1.361539E-03	-1.272922E-04
5.315316E+03	-1.359518E-03	-1.271059E-04
5.316307E+03	-1.362377E-03	-1.273797E-04
5.316703E+03	-1.360191E-03	-1.271775E-04
5.317891E+03	-1.364413E-03	-1.275790E-04
5.318287E+03	-1.362057E-03	-1.273609E-04
5.318485E+03	-1.358087E-03	-1.269908E-04
5.318684E+03	-1.354091E-03	-1.266180E-04
5.319674E+03	-1.356492E-03	-1.268469E-04
5.321456E+03	-1.364707E-03	-1.276231E-04
5.321654E+03	-1.360481E-03	-1.272288E-04
5.321852E+03	-1.356247E-03	-1.268334E-04
5.322446E+03	-1.355210E-03	-1.267384E-04
5.324032E+03	-1.361315E-03	-1.273144E-04
5.324230E+03	-1.356966E-03	-1.269082E-04
5.324428E+03	-1.352716E-03	-1.265112E-04
5.324824E+03	-1.349897E-03	-1.262485E-04
5.325814E+03	-1.351164E-03	-1.263692E-04
5.326012E+03	-1.346673E-03	-1.259496E-04
5.326210E+03	-1.342308E-03	-1.255417E-04
5.326408E+03	-1.337757E-03	-1.251164E-04
5.326606E+03	-1.333217E-03	-1.246921E-04
5.326804E+03	-1.328659E-03	-1.242662E-04
5.327795E+03	-1.329604E-03	-1.243555E-04
5.327993E+03	-1.325110E-03	-1.239354E-04
5.328587E+03	-1.323334E-03	-1.237698E-04
5.329380E+03	-1.322669E-03	-1.237085E-04
5.329578E+03	-1.317882E-03	-1.232607E-04
5.331955E+03	-1.327989E-03	-1.242053E-04
5.332153E+03	-1.323060E-03	-1.237442E-04
5.333142E+03	-1.323281E-03	-1.237646E-04
5.333340E+03	-1.318340E-03	-1.233022E-04
5.333538E+03	-1.313249E-03	-1.228258E-04
5.333737E+03	-1.308150E-03	-1.223487E-04
5.333934E+03	-1.303043E-03	-1.218709E-04
5.334727E+03	-1.301730E-03	-1.217467E-04
5.335321E+03	-1.299209E-03	-1.215099E-04
5.335519E+03	-1.294031E-03	-1.210253E-04
5.335718E+03	-1.288749E-03	-1.205310E-04
5.335916E+03	-1.283397E-03	-1.200300E-04
5.336114E+03	-1.278109E-03	-1.195349E-04
5.337302E+03	-1.279005E-03	-1.196160E-04
5.337500E+03	-1.273778E-03	-1.191267E-04
5.337698E+03	-1.268393E-03	-1.186224E-04
5.337896E+03	-1.263022E-03	-1.181196E-04
5.339878E+03	-1.268497E-03	-1.186254E-04
5.340076E+03	-1.262912E-03	-1.181025E-04
5.340274E+03	-1.257286E-03	-1.175757E-04
5.340472E+03	-1.251678E-03	-1.170504E-04
5.340868E+03	-1.247241E-03	-1.166340E-04
5.341660E+03	-1.245043E-03	-1.164255E-04
5.342452E+03	-1.242815E-03	-1.162136E-04
5.342650E+03	-1.237277E-03	-1.156949E-04
5.343244E+03	-1.233902E-03	-1.153768E-04
5.343443E+03	-1.228071E-03	-1.148307E-04
5.343641E+03	-1.222319E-03	-1.142919E-04
5.344235E+03	-1.218802E-03	-1.139602E-04
5.344433E+03	-1.213014E-03	-1.134180E-04
5.344631E+03	-1.207118E-03	-1.128658E-04
5.344829E+03	-1.201361E-03	-1.123265E-04
5.345424E+03	-1.197699E-03	-1.119811E-04
5.345621E+03	-1.191746E-03	-1.114235E-04
5.345819E+03	-1.185723E-03	-1.108593E-04
5.346017E+03	-1.179779E-03	-1.103025E-04
5.346215E+03	-1.173899E-03	-1.097517E-04
5.346611E+03	-1.169078E-03	-1.092989E-04
5.347007E+03	-1.164280E-03	-1.088482E-04
5.347800E+03	-1.161426E-03	-1.085767E-04
5.347998E+03	-1.155457E-03	-1.080176E-04
5.348196E+03	-1.149318E-03	-1.074425E-04
5.348790E+03	-1.145353E-03	-1.070684E-04
5.348988E+03	-1.139320E-03	-1.065033E-04
5.349186E+03	-1.133254E-03	-1.059350E-04
5.349384E+03	-1.127110E-03	-1.053594E-04
5.349582E+03	-1.120918E-03	-1.047795E-04
5.349780E+03	-1.114714E-03	-1.041983E-04
5.350573E+03	-1.111487E-03	-1.038917E-04
5.350771E+03	-1.105174E-03	-1.033003E-04
5.351168E+03	-1.100011E-03	-1.028153E-04
5.351366E+03	-1.093755E-03	-1.022292E-04
5.351960E+03	-1.089354E-03	-1.018140E-04
5.352158E+03	-1.083033E-03	-1.012219E-04
5.352356E+03	-1.076665E-03	-1.006254E-04
5.352554E+03	-1.070411E-03	-1.000395E-04
5.352752E+03	-1.064099E-03	-9.944826E-05
5.354336E+03	-1.064368E-03	-9.946242E-05
5.354534E+03	-1.058057E-03	-9.887135E-05
5.355129E+03	-1.053440E-03	-9.843558E-05
5.355327E+03	-1.047043E-03	-9.783634E-05
5.355525E+03	-1.040726E-03	-9.724468E-05
5.355724E+03	-1.034239E-03	-9.663710E-05
5.356516E+03	-1.030496E-03	-9.628142E-05
5.356714E+03	-1.024026E-03	-9.567538E-05
5.356911E+03	-1.017470E-03	-9.506139E-05
5.357110E+03	-1.010845E-03	-9.444101E-05
5.357308E+03	-1.004267E-03	-9.382490E-05
5.357506E+03	-9.977826E-04	-9.321758E-05
5.358495E+03	-9.947719E-04	-9.292876E-05
5.358693E+03	-9.882224E-04	-9.231543E-05
5.358892E+03	-9.814982E-04	-9.168573E-05
5.359090E+03	-9.748367E-04	-9.106191E-05
5.359486E+03	-9.692603E-04	-9.053794E-05
5.359684E+03	-9.627550E-04	-8.992876E-05
5.359882E+03	-9.560738E-04	-8.930313E-05
5.360278E+03	-9.501913E-04	-8.875057E-05
5.360476E+03	-9.435846E-04	-8.813194E-05
5.360674E+03	-9.369302E-04	-8.750888E-05
5.362061E+03	-9.351723E-04	-8.733342E-05
5.362655E+03	-9.301265E-04	-8.685741E-05
5.362854E+03	-9.233138E-04	-8.621964E-05
5.363250E+03	-9.174003E-04	-8.566428E-05
5.363448E+03	-9.105861E-04	-8.502632E-05
5.364636E+03	-9.077999E-04	-8.475618E-05
5.364834E+03	-9.010957E-04	-8.412860E-05
5.365230E+03	-8.952337E-04	-8.357803E-05
5.365428E+03	-8.885287E-04	-8.295034E-05
5.365626E+03	-8.817590E-04	-8.231666E-05
5.366221E+03	-8.765114E-04	-8.182169E-05
5.367014E+03	-8.719741E-04	-8.139144E-05
5.367212E+03	-8.650210E-04	-8.074072E-05
5.367410E+03	-8.581313E-04	-8.009593E-05
5.367608E+03	-8.514287E-04	-7.946864E-05
5.367806E+03	-8.446448E-04	-7.883379E-05
5.368004E+03	-8.377468E-04	-7.818827E-05
5.368202E+03	-8.308414E-04	-7.754210E-05
5.368598E+03	-8.247555E-04	-7.697076E-05
5.368796E+03	-8.180497E-04	-7.634329E-05
5.368994E+03	-8.110949E-04	-7.569254E-05
5.369588E+03	-8.056774E-04	-7.518191E-05
5.369983E+03	-7.994960E-04	-7.460176E-05
5.370578E+03	-7.938835E-04	-7.407308E-05
5.370776E+03	-7.869122E-04	-7.342092E-05
5.371569E+03	-7.821966E-04	-7.297417E-05
5.371767E+03	-7.754249E-04	-7.234073E-05
5.371965E+03	-7.686737E-04	-7.170923E-05
5.372163E+03	-7.619102E-04	-7.107658E-05
5.372361E+03	-7.551430E-04	-7.044361E-05
5.372955E+03	-7.496917E-04	-6.993008E-05
5.373153E+03	-7.429161E-04	-6.929641E-05
5.373549E+03	-7.368121E-04	-6.872370E-05
5.373747E+03	-7.300823E-04	-6.809433E-05
5.373945E+03	-7.233734E-04	-6.746695E-05
5.374341E+03	-7.172528E-04	-6.689284E-05
5.375134E+03	-7.123249E-04	-6.642658E-05
5.375332E+03	-7.055909E-04	-6.579697E-05
5.375530E+03	-6.989129E-04	-6.517260E-05
