#wls	flux	fluxerr
1.584409E+03	4.194389E-03	7.471065E-04
1.624020E+03	4.317583E-03	7.690235E-04
1.663630E+03	4.433343E-03	7.896136E-04
1.703240E+03	4.540869E-03	8.087338E-04
1.742850E+03	4.637484E-03	8.259076E-04
1.782461E+03	4.723079E-03	8.411157E-04
1.822071E+03	4.794877E-03	8.538636E-04
1.861681E+03	4.852230E-03	8.640359E-04
1.901291E+03	4.893632E-03	8.713647E-04
1.940902E+03	4.916845E-03	8.754521E-04
1.980512E+03	4.921352E-03	8.762061E-04
2.020122E+03	4.905601E-03	8.733511E-04
2.059732E+03	4.868342E-03	8.666650E-04
2.099342E+03	4.808665E-03	8.559866E-04
2.138953E+03	4.725480E-03	8.411224E-04
2.178563E+03	4.617188E-03	8.217890E-04
2.218173E+03	4.482374E-03	7.977354E-04
2.257783E+03	4.321590E-03	7.690613E-04
2.297394E+03	4.138115E-03	7.363510E-04
2.337004E+03	3.937713E-03	7.006317E-04
2.376614E+03	3.724940E-03	6.627149E-04
2.416224E+03	3.503891E-03	6.233300E-04
2.455835E+03	3.277466E-03	5.829937E-04
2.495445E+03	3.048712E-03	5.422486E-04
2.535055E+03	2.820059E-03	5.015274E-04
2.574665E+03	2.594029E-03	4.612792E-04
2.614276E+03	2.372637E-03	4.218624E-04
2.653886E+03	2.157771E-03	3.836130E-04
2.693496E+03	1.951154E-03	3.468373E-04
2.733106E+03	1.754129E-03	3.117739E-04
2.772716E+03	1.567894E-03	2.786354E-04
2.812327E+03	1.393402E-03	2.475912E-04
2.851937E+03	1.231458E-03	2.187839E-04
2.891547E+03	1.082685E-03	1.923233E-04
2.931157E+03	9.474260E-04	1.682701E-04
2.970768E+03	8.257548E-04	1.466363E-04
2.980670E+03	7.974361E-04	1.416016E-04
2.990573E+03	7.699300E-04	1.367115E-04
3.000475E+03	7.432582E-04	1.319699E-04
3.010378E+03	7.173718E-04	1.273681E-04
3.020280E+03	6.922896E-04	1.229095E-04
3.030183E+03	6.679949E-04	1.185910E-04
3.040086E+03	6.444853E-04	1.144121E-04
3.049988E+03	6.217167E-04	1.103652E-04
3.059891E+03	5.997121E-04	1.064542E-04
3.069793E+03	5.784289E-04	1.026715E-04
3.079696E+03	5.578739E-04	9.901843E-05
3.089598E+03	5.380286E-04	9.549159E-05
3.099501E+03	5.188656E-04	9.208611E-05
3.109403E+03	5.003873E-04	8.880245E-05
3.119306E+03	4.825663E-04	8.563569E-05
3.129209E+03	4.653948E-04	8.258446E-05
3.139111E+03	4.488549E-04	7.964556E-05
3.149014E+03	4.329293E-04	7.681589E-05
3.158916E+03	4.176085E-04	7.409379E-05
3.168819E+03	4.028756E-04	7.147623E-05
3.178721E+03	3.887067E-04	6.895896E-05
3.188624E+03	3.750999E-04	6.654161E-05
3.198526E+03	3.620326E-04	6.422020E-05
3.208429E+03	3.494960E-04	6.199311E-05
3.218332E+03	3.374746E-04	5.985762E-05
3.228234E+03	3.259478E-04	5.781005E-05
3.238137E+03	3.149120E-04	5.584975E-05
3.248039E+03	3.043421E-04	5.397225E-05
3.257942E+03	2.942326E-04	5.217657E-05
3.267844E+03	2.845683E-04	5.046001E-05
3.277747E+03	2.753259E-04	4.881842E-05
3.287650E+03	2.664990E-04	4.725065E-05
3.297552E+03	2.580734E-04	4.575418E-05
3.307455E+03	2.500302E-04	4.432565E-05
3.317357E+03	2.423560E-04	4.296268E-05
3.327260E+03	2.350373E-04	4.166285E-05
3.337162E+03	2.280607E-04	4.042379E-05
3.347065E+03	2.214133E-04	3.924321E-05
3.356967E+03	2.150824E-04	3.811885E-05
3.366870E+03	2.090532E-04	3.704805E-05
3.376773E+03	2.033112E-04	3.602827E-05
3.386675E+03	1.978505E-04	3.505844E-05
3.396578E+03	1.926527E-04	3.413528E-05
3.406480E+03	1.877098E-04	3.325738E-05
3.416383E+03	1.830096E-04	3.242258E-05
3.426285E+03	1.785426E-04	3.162917E-05
3.436188E+03	1.742955E-04	3.087481E-05
3.446090E+03	1.702581E-04	3.015765E-05
3.455993E+03	1.664222E-04	2.947627E-05
3.465896E+03	1.627768E-04	2.882870E-05
3.475798E+03	1.593147E-04	2.821367E-05
3.485701E+03	1.560226E-04	2.762879E-05
3.495603E+03	1.528946E-04	2.707303E-05
3.505506E+03	1.499204E-04	2.654456E-05
3.515408E+03	1.470918E-04	2.604195E-05
3.525311E+03	1.444015E-04	2.556385E-05
3.535213E+03	1.418394E-04	2.510851E-05
3.545116E+03	1.394021E-04	2.467530E-05
3.555019E+03	1.370819E-04	2.426288E-05
3.564921E+03	1.348719E-04	2.386998E-05
3.574824E+03	1.327692E-04	2.349613E-05
3.584726E+03	1.307663E-04	2.313997E-05
3.594629E+03	1.288583E-04	2.280065E-05
3.604531E+03	1.270409E-04	2.247738E-05
3.614434E+03	1.253098E-04	2.216942E-05
3.624337E+03	1.236610E-04	2.187606E-05
3.634239E+03	1.220908E-04	2.159663E-05
3.644142E+03	1.205967E-04	2.133068E-05
3.654044E+03	1.191762E-04	2.107778E-05
3.663947E+03	1.178260E-04	2.083732E-05
3.673849E+03	1.165468E-04	2.060946E-05
3.683752E+03	1.153342E-04	2.039340E-05
3.693654E+03	1.141881E-04	2.018910E-05
3.703557E+03	1.131060E-04	1.999616E-05
3.713460E+03	1.120868E-04	1.981434E-05
3.723362E+03	1.111310E-04	1.964373E-05
3.733265E+03	1.102343E-04	1.948360E-05
3.743167E+03	1.093972E-04	1.933401E-05
3.753070E+03	1.086193E-04	1.919489E-05
3.762972E+03	1.078973E-04	1.906565E-05
3.772875E+03	1.072315E-04	1.894637E-05
3.782777E+03	1.066214E-04	1.883692E-05
3.792680E+03	1.060647E-04	1.873691E-05
3.802583E+03	1.055600E-04	1.864609E-05
3.812485E+03	1.051083E-04	1.856464E-05
3.822388E+03	1.047066E-04	1.849202E-05
3.832290E+03	1.043552E-04	1.842827E-05
3.842193E+03	1.040526E-04	1.837314E-05
3.852095E+03	1.037983E-04	1.832653E-05
3.861998E+03	1.035918E-04	1.828835E-05
3.871900E+03	1.034308E-04	1.825821E-05
3.881803E+03	1.033149E-04	1.823601E-05
3.891706E+03	1.032444E-04	1.822181E-05
3.901608E+03	1.032179E-04	1.821537E-05
3.911511E+03	1.032342E-04	1.821647E-05
3.921413E+03	1.032929E-04	1.822502E-05
3.931316E+03	1.033926E-04	1.824080E-05
3.941218E+03	1.035329E-04	1.826373E-05
3.951121E+03	1.037134E-04	1.829373E-05
3.961024E+03	1.039338E-04	1.833073E-05
3.970926E+03	1.041920E-04	1.837439E-05
3.980829E+03	1.044878E-04	1.842463E-05
3.990731E+03	1.048207E-04	1.848141E-05
4.000634E+03	1.051906E-04	1.854467E-05
4.010536E+03	1.055963E-04	1.861422E-05
4.020439E+03	1.060369E-04	1.868987E-05
4.030341E+03	1.065121E-04	1.877161E-05
4.040244E+03	1.070210E-04	1.885923E-05
4.050147E+03	1.075633E-04	1.895272E-05
4.060049E+03	1.081382E-04	1.905190E-05
4.069952E+03	1.087454E-04	1.915675E-05
4.079854E+03	1.093841E-04	1.926708E-05
4.089757E+03	1.100532E-04	1.938274E-05
4.099659E+03	1.107526E-04	1.950370E-05
4.109562E+03	1.114815E-04	1.962979E-05
4.119464E+03	1.122398E-04	1.976100E-05
4.129367E+03	1.130256E-04	1.989702E-05
4.139270E+03	1.138390E-04	2.003784E-05
4.149172E+03	1.146781E-04	2.018314E-05
4.159075E+03	1.155439E-04	2.033307E-05
4.168977E+03	1.164346E-04	2.048732E-05
4.178880E+03	1.173501E-04	2.064589E-05
4.188782E+03	1.182878E-04	2.080830E-05
4.198685E+03	1.192486E-04	2.097471E-05
4.208587E+03	1.202297E-04	2.114463E-05
4.218490E+03	1.212320E-04	2.131820E-05
4.228393E+03	1.222526E-04	2.149494E-05
4.238295E+03	1.232896E-04	2.167449E-05
4.248198E+03	1.243439E-04	2.185701E-05
4.258100E+03	1.254115E-04	2.204181E-05
4.268003E+03	1.264935E-04	2.222905E-05
4.277905E+03	1.275857E-04	2.241802E-05
4.287808E+03	1.286892E-04	2.260889E-05
4.297711E+03	1.298018E-04	2.280129E-05
4.307613E+03	1.309215E-04	2.299487E-05
4.317516E+03	1.320483E-04	2.318959E-05
4.327418E+03	1.331809E-04	2.338526E-05
4.337321E+03	1.343204E-04	2.358208E-05
4.347223E+03	1.354647E-04	2.377965E-05
4.357126E+03	1.366159E-04	2.397835E-05
4.367028E+03	1.377741E-04	2.417818E-05
4.376931E+03	1.389393E-04	2.437917E-05
4.386834E+03	1.401117E-04	2.458132E-05
4.396736E+03	1.412924E-04	2.478486E-05
4.406639E+03	1.424807E-04	2.498963E-05
4.416541E+03	1.436778E-04	2.519587E-05
4.426444E+03	1.448841E-04	2.540361E-05
4.436346E+03	1.460998E-04	2.561292E-05
4.446249E+03	1.473241E-04	2.582364E-05
4.456151E+03	1.485573E-04	2.603581E-05
4.466054E+03	1.497983E-04	2.624927E-05
4.475957E+03	1.510489E-04	2.646429E-05
4.485859E+03	1.523066E-04	2.668048E-05
4.495762E+03	1.535718E-04	2.689787E-05
4.505664E+03	1.548448E-04	2.711652E-05
4.515567E+03	1.561232E-04	2.733601E-05
4.525469E+03	1.574085E-04	2.755661E-05
4.535372E+03	1.586985E-04	2.777792E-05
4.545274E+03	1.599934E-04	2.799999E-05
4.555177E+03	1.612909E-04	2.822240E-05
4.565080E+03	1.625928E-04	2.844546E-05
4.574982E+03	1.638982E-04	2.866903E-05
4.584885E+03	1.652048E-04	2.889269E-05
4.594787E+03	1.665132E-04	2.911656E-05
4.604690E+03	1.678242E-04	2.934075E-05
4.614592E+03	1.691369E-04	2.956513E-05
4.624495E+03	1.704492E-04	2.978933E-05
4.634398E+03	1.717650E-04	3.001401E-05
4.644300E+03	1.730853E-04	3.023936E-05
4.654203E+03	1.744082E-04	3.046504E-05
4.664105E+03	1.757347E-04	3.069123E-05
4.674008E+03	1.770662E-04	3.091816E-05
4.683910E+03	1.783991E-04	3.114522E-05
4.693813E+03	1.797349E-04	3.137264E-05
4.703715E+03	1.810716E-04	3.160010E-05
4.713618E+03	1.824107E-04	3.182784E-05
4.723521E+03	1.837521E-04	3.205584E-05
4.733423E+03	1.850938E-04	3.228379E-05
4.743326E+03	1.864377E-04	3.251196E-05
4.753228E+03	1.877818E-04	3.274004E-05
4.763131E+03	1.891279E-04	3.296833E-05
4.773033E+03	1.904743E-04	3.319653E-05
4.782936E+03	1.918209E-04	3.342463E-05
4.792838E+03	1.931678E-04	3.365264E-05
4.802741E+03	1.945168E-04	3.388086E-05
4.812644E+03	1.958660E-04	3.410899E-05
4.822546E+03	1.972155E-04	3.433701E-05
4.832449E+03	1.985634E-04	3.456460E-05
4.842351E+03	1.999131E-04	3.479237E-05
4.852254E+03	2.012628E-04	3.501998E-05
4.862156E+03	2.026121E-04	3.524739E-05
4.872059E+03	2.039590E-04	3.547420E-05
4.881961E+03	2.053048E-04	3.570069E-05
4.891864E+03	2.066474E-04	3.592644E-05
4.901767E+03	2.079861E-04	3.615137E-05
4.911669E+03	2.093224E-04	3.637572E-05
4.921572E+03	2.106537E-04	3.659905E-05
4.931474E+03	2.119794E-04	3.682126E-05
4.941377E+03	2.132969E-04	3.704186E-05
4.951279E+03	2.146074E-04	3.726109E-05
4.961182E+03	2.159101E-04	3.747880E-05
4.971085E+03	2.172020E-04	3.769448E-05
4.980987E+03	2.184822E-04	3.790797E-05
4.990890E+03	2.197497E-04	3.811908E-05
5.000792E+03	2.210013E-04	3.832726E-05
5.010695E+03	2.222378E-04	3.853268E-05
5.020597E+03	2.234583E-04	3.873514E-05
5.030500E+03	2.246572E-04	3.893371E-05
5.040402E+03	2.258357E-04	3.912856E-05
5.050305E+03	2.269926E-04	3.931950E-05
5.060208E+03	2.281247E-04	3.950599E-05
5.070110E+03	2.292310E-04	3.968785E-05
5.080013E+03	2.303106E-04	3.986493E-05
5.089915E+03	2.313627E-04	4.003709E-05
5.099818E+03	2.323842E-04	4.020379E-05
5.109720E+03	2.333765E-04	4.036528E-05
5.119623E+03	2.343342E-04	4.052063E-05
5.129525E+03	2.352589E-04	4.067010E-05
5.139428E+03	2.361467E-04	4.081306E-05
5.149331E+03	2.369969E-04	4.094935E-05
5.159233E+03	2.378081E-04	4.107877E-05
5.169136E+03	2.385790E-04	4.120107E-05
5.179038E+03	2.393034E-04	4.131520E-05
5.188941E+03	2.399839E-04	4.142160E-05
5.198843E+03	2.406164E-04	4.151959E-05
5.208746E+03	2.411989E-04	4.160881E-05
5.218648E+03	2.417268E-04	4.168849E-05
5.228551E+03	2.421980E-04	4.175825E-05
5.238454E+03	2.426102E-04	4.181772E-05
5.248356E+03	2.429612E-04	4.186652E-05
5.258259E+03	2.432489E-04	4.190432E-05
5.268161E+03	2.434693E-04	4.193040E-05
5.278064E+03	2.436257E-04	4.194537E-05
5.287966E+03	2.437122E-04	4.194820E-05
5.297869E+03	2.437274E-04	4.193867E-05
5.307772E+03	2.436758E-04	4.191758E-05
5.317674E+03	2.435520E-04	4.188399E-05
5.327577E+03	2.433613E-04	4.183881E-05
5.337479E+03	2.431014E-04	4.178169E-05
5.347382E+03	2.427749E-04	4.171307E-05
5.357284E+03	2.423805E-04	4.163272E-05
5.367187E+03	2.419239E-04	4.154166E-05
5.377089E+03	2.414044E-04	4.143975E-05
5.386992E+03	2.408257E-04	4.132766E-05
5.396895E+03	2.401849E-04	4.120489E-05
5.406797E+03	2.394868E-04	4.107227E-05
5.416700E+03	2.387312E-04	4.092979E-05
5.426602E+03	2.379187E-04	4.077755E-05
5.436505E+03	2.370544E-04	4.061644E-05
5.446407E+03	2.361369E-04	4.044621E-05
5.456310E+03	2.351670E-04	4.026704E-05
5.466212E+03	2.341482E-04	4.007952E-05
5.476115E+03	2.330796E-04	3.988350E-05
5.486018E+03	2.319672E-04	3.968002E-05
5.495920E+03	2.308080E-04	3.946857E-05
5.505823E+03	2.296101E-04	3.925057E-05
5.515725E+03	2.283754E-04	3.902631E-05
5.525628E+03	2.271050E-04	3.879602E-05
5.535530E+03	2.258028E-04	3.856037E-05
5.545433E+03	2.244725E-04	3.831996E-05
5.555335E+03	2.231151E-04	3.807502E-05
5.565238E+03	2.217386E-04	3.782690E-05
5.575141E+03	2.203417E-04	3.757536E-05
5.585043E+03	2.189317E-04	3.732168E-05
5.594946E+03	2.175071E-04	3.706560E-05
5.604848E+03	2.160750E-04	3.680832E-05
5.614751E+03	2.146377E-04	3.655026E-05
5.624653E+03	2.131955E-04	3.629145E-05
5.634556E+03	2.117527E-04	3.603263E-05
5.644459E+03	2.103113E-04	3.577414E-05
5.654361E+03	2.088752E-04	3.551666E-05
5.664264E+03	2.074463E-04	3.526049E-05
5.674166E+03	2.060240E-04	3.500555E-05
5.684069E+03	2.046141E-04	3.475281E-05
5.693971E+03	2.032181E-04	3.450253E-05
5.703874E+03	2.018352E-04	3.425456E-05
5.713776E+03	2.004688E-04	3.400950E-05
5.723679E+03	1.991223E-04	3.376792E-05
5.733582E+03	1.977970E-04	3.353002E-05
5.743484E+03	1.964921E-04	3.329566E-05
5.753387E+03	1.952106E-04	3.306538E-05
5.763289E+03	1.939561E-04	3.283975E-05
5.773192E+03	1.927297E-04	3.261896E-05
5.783094E+03	1.915306E-04	3.240286E-05
5.792997E+03	1.903620E-04	3.219202E-05
5.802899E+03	1.892252E-04	3.198664E-05
5.812802E+03	1.881236E-04	3.178727E-05
5.822705E+03	1.870583E-04	3.159412E-05
5.832607E+03	1.860286E-04	3.140705E-05
5.842510E+03	1.850378E-04	3.122660E-05
5.852412E+03	1.840849E-04	3.105260E-05
5.862315E+03	1.831771E-04	3.088627E-05
5.872217E+03	1.823092E-04	3.072672E-05
5.882120E+03	1.814841E-04	3.057441E-05
5.892022E+03	1.807044E-04	3.042980E-05
5.901925E+03	1.799688E-04	3.029264E-05
5.911828E+03	1.792775E-04	3.016298E-05
5.921730E+03	1.786331E-04	3.004121E-05
5.931633E+03	1.780336E-04	2.992701E-05
5.941535E+03	1.774812E-04	2.982073E-05
5.951438E+03	1.769718E-04	2.972168E-05
5.961340E+03	1.765094E-04	2.963052E-05
5.971243E+03	1.760897E-04	2.954652E-05
5.981146E+03	1.757166E-04	2.947031E-05
5.991048E+03	1.753836E-04	2.940081E-05
6.000951E+03	1.750945E-04	2.933862E-05
6.010853E+03	1.748466E-04	2.928331E-05
6.020756E+03	1.746396E-04	2.923481E-05
6.030658E+03	1.744687E-04	2.919229E-05
6.040561E+03	1.743375E-04	2.915635E-05
6.050463E+03	1.742389E-04	2.912581E-05
6.060366E+03	1.741765E-04	2.910126E-05
6.070269E+03	1.741432E-04	2.908149E-05
6.080171E+03	1.741381E-04	2.906635E-05
6.090074E+03	1.741582E-04	2.905534E-05
6.099976E+03	1.742026E-04	2.904828E-05
6.109879E+03	1.742637E-04	2.904392E-05
6.119781E+03	1.743404E-04	2.904208E-05
6.129684E+03	1.744293E-04	2.904217E-05
6.139586E+03	1.745293E-04	2.904399E-05
6.149489E+03	1.746389E-04	2.904733E-05
6.159392E+03	1.747615E-04	2.905272E-05
6.169294E+03	1.749025E-04	2.906105E-05
6.179197E+03	1.750630E-04	2.907253E-05
6.189099E+03	1.752466E-04	2.908773E-05
6.199002E+03	1.754569E-04	2.910724E-05
6.208904E+03	1.756954E-04	2.913130E-05
6.218807E+03	1.759660E-04	2.916055E-05
6.228709E+03	1.762703E-04	2.919525E-05
6.238612E+03	1.766102E-04	2.923571E-05
6.248515E+03	1.769901E-04	2.928262E-05
6.258417E+03	1.774095E-04	2.933592E-05
6.268320E+03	1.778730E-04	2.939636E-05
6.278222E+03	1.783782E-04	2.946349E-05
6.288125E+03	1.789273E-04	2.953770E-05
6.298027E+03	1.795202E-04	2.961895E-05
6.307930E+03	1.801596E-04	2.970767E-05
6.317833E+03	1.808430E-04	2.980342E-05
6.327735E+03	1.815704E-04	2.990621E-05
6.337638E+03	1.823394E-04	3.001561E-05
6.347540E+03	1.831447E-04	3.013075E-05
6.357443E+03	1.839836E-04	3.025117E-05
6.367345E+03	1.848559E-04	3.037684E-05
6.377248E+03	1.857616E-04	3.050773E-05
6.387150E+03	1.867006E-04	3.064381E-05
6.397053E+03	1.876757E-04	3.078553E-05
6.406956E+03	1.886897E-04	3.093335E-05
6.416858E+03	1.897428E-04	3.108729E-05
6.426761E+03	1.908324E-04	3.124689E-05
6.436663E+03	1.919644E-04	3.141312E-05
6.446566E+03	1.931392E-04	3.158602E-05
6.456468E+03	1.943541E-04	3.176515E-05
6.466371E+03	1.956124E-04	3.195104E-05
6.476273E+03	1.969147E-04	3.214375E-05
6.486176E+03	1.982582E-04	3.234281E-05
6.496079E+03	1.996433E-04	3.254827E-05
6.505981E+03	2.010767E-04	3.276122E-05
6.515884E+03	2.025492E-04	3.298016E-05
6.525786E+03	2.040679E-04	3.320618E-05
6.535689E+03	2.056331E-04	3.343937E-05
6.545591E+03	2.072387E-04	3.367868E-05
6.555494E+03	2.088919E-04	3.392527E-05
6.565396E+03	2.105862E-04	3.417808E-05
6.575299E+03	2.123291E-04	3.443831E-05
6.585202E+03	2.141137E-04	3.470483E-05
6.595104E+03	2.159445E-04	3.497833E-05
6.605007E+03	2.178214E-04	3.525880E-05
6.614909E+03	2.197417E-04	3.554576E-05
6.624812E+03	2.217053E-04	3.583919E-05
6.634714E+03	2.237167E-04	3.613980E-05
6.644617E+03	2.257721E-04	3.644698E-05
6.654520E+03	2.278725E-04	3.676083E-05
6.664422E+03	2.300180E-04	3.708139E-05
6.674325E+03	2.322088E-04	3.740865E-05
6.684227E+03	2.344456E-04	3.774271E-05
6.694130E+03	2.367286E-04	3.808358E-05
6.704032E+03	2.390545E-04	3.843071E-05
6.713935E+03	2.414274E-04	3.878475E-05
6.723837E+03	2.438478E-04	3.914576E-05
6.733740E+03	2.463120E-04	3.951313E-05
6.743643E+03	2.488247E-04	3.988756E-05
6.753545E+03	2.513816E-04	4.026840E-05
6.763448E+03	2.539834E-04	4.065569E-05
6.773350E+03	2.566299E-04	4.104940E-05
6.783253E+03	2.593218E-04	4.144965E-05
6.793155E+03	2.620641E-04	4.185717E-05
6.803058E+03	2.648476E-04	4.227049E-05
6.812960E+03	2.676772E-04	4.269039E-05
6.822863E+03	2.705534E-04	4.311691E-05
6.832766E+03	2.734712E-04	4.354925E-05
6.842668E+03	2.764360E-04	4.398823E-05
6.852571E+03	2.794481E-04	4.443388E-05
6.862473E+03	2.825026E-04	4.488541E-05
6.872376E+03	2.855992E-04	4.534276E-05
6.882278E+03	2.887438E-04	4.580684E-05
6.892181E+03	2.919308E-04	4.627673E-05
6.902083E+03	2.951605E-04	4.675247E-05
6.911986E+03	2.984325E-04	4.723398E-05
6.921889E+03	3.017473E-04	4.772130E-05
6.931791E+03	3.050982E-04	4.821338E-05
6.941694E+03	3.084975E-04	4.871212E-05
6.951596E+03	3.119331E-04	4.921560E-05
6.961499E+03	3.154106E-04	4.972469E-05
6.971401E+03	3.189236E-04	5.023835E-05
6.981304E+03	3.224720E-04	5.075656E-05
6.991207E+03	3.260616E-04	5.128020E-05
7.001109E+03	3.296858E-04	5.180823E-05
7.011012E+03	3.333374E-04	5.233950E-05
7.020914E+03	3.370293E-04	5.287602E-05
7.030817E+03	3.407543E-04	5.341662E-05
7.040719E+03	3.445051E-04	5.396015E-05
7.050622E+03	3.482877E-04	5.450757E-05
7.060524E+03	3.520945E-04	5.505763E-05
7.070427E+03	3.559320E-04	5.561136E-05
7.080330E+03	3.597922E-04	5.616747E-05
7.090232E+03	3.636815E-04	5.672698E-05
7.100135E+03	3.675844E-04	5.728744E-05
7.110037E+03	3.715071E-04	5.784980E-05
7.119940E+03	3.754565E-04	5.841514E-05
7.129842E+03	3.794164E-04	5.898091E-05
7.139745E+03	3.833847E-04	5.954680E-05
7.149647E+03	3.873690E-04	6.011396E-05
7.159550E+03	3.913679E-04	6.068217E-05
7.169453E+03	3.953721E-04	6.124999E-05
7.179355E+03	3.993883E-04	6.181844E-05
7.189258E+03	4.034067E-04	6.238602E-05
7.199160E+03	4.074260E-04	6.295250E-05
7.209063E+03	4.114529E-04	6.351892E-05
7.218965E+03	4.154772E-04	6.408370E-05
7.228868E+03	4.195061E-04	6.464796E-05
7.238770E+03	4.235284E-04	6.520996E-05
7.248673E+03	4.275424E-04	6.576945E-05
7.258576E+03	4.315647E-04	6.632897E-05
7.268478E+03	4.355745E-04	6.688533E-05
7.278381E+03	4.395896E-04	6.744126E-05
7.288283E+03	4.435983E-04	6.799497E-05
7.298186E+03	4.476095E-04	6.854782E-05
7.308088E+03	4.516319E-04	6.910114E-05
7.317991E+03	4.556546E-04	6.965326E-05
7.327894E+03	4.596978E-04	7.020726E-05
7.337796E+03	4.637614E-04	7.076312E-05
7.347699E+03	4.678562E-04	7.132248E-05
7.357601E+03	4.719832E-04	7.188548E-05
7.367504E+03	4.761431E-04	7.245221E-05
7.377406E+03	4.803482E-04	7.302452E-05
7.387309E+03	4.845775E-04	7.359922E-05
7.397211E+03	4.888318E-04	7.417639E-05
7.407114E+03	4.931005E-04	7.475445E-05
7.417017E+03	4.973960E-04	7.533526E-05
7.426919E+03	5.017077E-04	7.591719E-05
7.436822E+03	5.060249E-04	7.649864E-05
7.446724E+03	5.103477E-04	7.707961E-05
7.456627E+03	5.146770E-04	7.766025E-05
7.466529E+03	5.190015E-04	7.823884E-05
7.476432E+03	5.233338E-04	7.881729E-05
7.486334E+03	5.276499E-04	7.939198E-05
7.496237E+03	5.319756E-04	7.996682E-05
7.506140E+03	5.362993E-04	8.054003E-05
7.516042E+03	5.406214E-04	8.111172E-05
7.525945E+03	5.449289E-04	8.167991E-05
7.535847E+03	5.492351E-04	8.224661E-05
7.545750E+03	5.535395E-04	8.281177E-05
7.555652E+03	5.578413E-04	8.337525E-05
7.565555E+03	5.621252E-04	8.393478E-05
7.575457E+03	5.664030E-04	8.449213E-05
7.585360E+03	5.706576E-04	8.504477E-05
7.595263E+03	5.749146E-04	8.559651E-05
7.605165E+03	5.791271E-04	8.614039E-05
7.615068E+03	5.833342E-04	8.668224E-05
7.624970E+03	5.875171E-04	8.721927E-05
7.634873E+03	5.916559E-04	8.774855E-05
7.644775E+03	5.957602E-04	8.827154E-05
7.654678E+03	5.998244E-04	8.878740E-05
7.664581E+03	6.038428E-04	8.929535E-05
7.674483E+03	6.078093E-04	8.979449E-05
7.684386E+03	6.117336E-04	9.028630E-05
