#wls	flux	fluxerr
1.584409E+03	2.169083E-03	7.421563E-04
1.624020E+03	2.243401E-03	7.671013E-04
1.663630E+03	2.315979E-03	7.914063E-04
1.703240E+03	2.385799E-03	8.147242E-04
1.742850E+03	2.452682E-03	8.369939E-04
1.782461E+03	2.515468E-03	8.578203E-04
1.822071E+03	2.573391E-03	8.769441E-04
1.861681E+03	2.626072E-03	8.942387E-04
1.901291E+03	2.672202E-03	9.092609E-04
1.940902E+03	2.711107E-03	9.217858E-04
1.980512E+03	2.741690E-03	9.314448E-04
2.020122E+03	2.763283E-03	9.380179E-04
2.059732E+03	2.774499E-03	9.410405E-04
2.099342E+03	2.774302E-03	9.401700E-04
2.138953E+03	2.761673E-03	9.350715E-04
2.178563E+03	2.735046E-03	9.252257E-04
2.218173E+03	2.693180E-03	9.102265E-04
2.257783E+03	2.635970E-03	8.900528E-04
2.297394E+03	2.564260E-03	8.650056E-04
2.337004E+03	2.480524E-03	8.359336E-04
2.376614E+03	2.386807E-03	8.035390E-04
2.416224E+03	2.284924E-03	7.684443E-04
2.455835E+03	2.176767E-03	7.312958E-04
2.495445E+03	2.063531E-03	6.925038E-04
2.535055E+03	1.946598E-03	6.525391E-04
2.574665E+03	1.827157E-03	6.118068E-04
2.614276E+03	1.706468E-03	5.707341E-04
2.653886E+03	1.585579E-03	5.296750E-04
2.693496E+03	1.465561E-03	4.889899E-04
2.733106E+03	1.347429E-03	4.490192E-04
2.772716E+03	1.232139E-03	4.100815E-04
2.812327E+03	1.120609E-03	3.724809E-04
2.851937E+03	1.013731E-03	3.365118E-04
2.891547E+03	9.123042E-04	3.024357E-04
2.931157E+03	8.170252E-04	2.704783E-04
2.970768E+03	7.284107E-04	2.408045E-04
2.980670E+03	7.073591E-04	2.337621E-04
2.990573E+03	6.867310E-04	2.268642E-04
3.000475E+03	6.665571E-04	2.201208E-04
3.010378E+03	6.468197E-04	2.135259E-04
3.020280E+03	6.275310E-04	2.070834E-04
3.030183E+03	6.087011E-04	2.007966E-04
3.040086E+03	5.903001E-04	1.946553E-04
3.049988E+03	5.723621E-04	1.886708E-04
3.059891E+03	5.548579E-04	1.828333E-04
3.069793E+03	5.378067E-04	1.771490E-04
3.079696E+03	5.211926E-04	1.716125E-04
3.089598E+03	5.050120E-04	1.662224E-04
3.099501E+03	4.892807E-04	1.609839E-04
3.109403E+03	4.739760E-04	1.558894E-04
3.119306E+03	4.591218E-04	1.509465E-04
3.129209E+03	4.446881E-04	1.461453E-04
3.139111E+03	4.306964E-04	1.414927E-04
3.149014E+03	4.171264E-04	1.369819E-04
3.158916E+03	4.039891E-04	1.326163E-04
3.168819E+03	3.912715E-04	1.283916E-04
3.178721E+03	3.789757E-04	1.243082E-04
3.188624E+03	3.670958E-04	1.203642E-04
3.198526E+03	3.556259E-04	1.165574E-04
3.208429E+03	3.445549E-04	1.128841E-04
3.218332E+03	3.338878E-04	1.093458E-04
3.228234E+03	3.236125E-04	1.059383E-04
3.238137E+03	3.137270E-04	1.026609E-04
3.248039E+03	3.042185E-04	9.950927E-05
3.257942E+03	2.950793E-04	9.648071E-05
3.267844E+03	2.863055E-04	9.357388E-05
3.277747E+03	2.778838E-04	9.078421E-05
3.287650E+03	2.698094E-04	8.811010E-05
3.297552E+03	2.620725E-04	8.554818E-05
3.307455E+03	2.546567E-04	8.309296E-05
3.317357E+03	2.475596E-04	8.074361E-05
3.327260E+03	2.407685E-04	7.849575E-05
3.337162E+03	2.342741E-04	7.634636E-05
3.347065E+03	2.280670E-04	7.429220E-05
3.356967E+03	2.221322E-04	7.232827E-05
3.366870E+03	2.164670E-04	7.045364E-05
3.376773E+03	2.110597E-04	6.866435E-05
3.386675E+03	2.058989E-04	6.695662E-05
3.396578E+03	2.009764E-04	6.532770E-05
3.406480E+03	1.962846E-04	6.377500E-05
3.416383E+03	1.918107E-04	6.229428E-05
3.426285E+03	1.875500E-04	6.088391E-05
3.436188E+03	1.834907E-04	5.954005E-05
3.446090E+03	1.796266E-04	5.826055E-05
3.455993E+03	1.759494E-04	5.704263E-05
3.465896E+03	1.724511E-04	5.588366E-05
3.475798E+03	1.691244E-04	5.478120E-05
3.485701E+03	1.659623E-04	5.373292E-05
3.495603E+03	1.629566E-04	5.273605E-05
3.505506E+03	1.600994E-04	5.178801E-05
3.515408E+03	1.573851E-04	5.088695E-05
3.525311E+03	1.548069E-04	5.003057E-05
3.535213E+03	1.523597E-04	4.921723E-05
3.545116E+03	1.500359E-04	4.844435E-05
3.555019E+03	1.478313E-04	4.771053E-05
3.564921E+03	1.457403E-04	4.701394E-05
3.574824E+03	1.437605E-04	4.635378E-05
3.584726E+03	1.418855E-04	4.572791E-05
3.594629E+03	1.401119E-04	4.513520E-05
3.604531E+03	1.384325E-04	4.457330E-05
3.614434E+03	1.368446E-04	4.404126E-05
3.624337E+03	1.353441E-04	4.353775E-05
3.634239E+03	1.339272E-04	4.306152E-05
3.644142E+03	1.325916E-04	4.261178E-05
3.654044E+03	1.313349E-04	4.218773E-05
3.663947E+03	1.301537E-04	4.178825E-05
3.673849E+03	1.290470E-04	4.141296E-05
3.683752E+03	1.280114E-04	4.106077E-05
3.693654E+03	1.270470E-04	4.073169E-05
3.703557E+03	1.261518E-04	4.042500E-05
3.713460E+03	1.253235E-04	4.013996E-05
3.723362E+03	1.245611E-04	3.987622E-05
3.733265E+03	1.238647E-04	3.963375E-05
3.743167E+03	1.232319E-04	3.941184E-05
3.753070E+03	1.226629E-04	3.921044E-05
3.762972E+03	1.221556E-04	3.902886E-05
3.772875E+03	1.217089E-04	3.886675E-05
3.782777E+03	1.213229E-04	3.872411E-05
3.792680E+03	1.209976E-04	3.860090E-05
3.802583E+03	1.207311E-04	3.849648E-05
3.812485E+03	1.205244E-04	3.841115E-05
3.822388E+03	1.203745E-04	3.834396E-05
3.832290E+03	1.202837E-04	3.829553E-05
3.842193E+03	1.202488E-04	3.826492E-05
3.852095E+03	1.202720E-04	3.825271E-05
3.861998E+03	1.203513E-04	3.825828E-05
3.871900E+03	1.204867E-04	3.828159E-05
3.881803E+03	1.206771E-04	3.832231E-05
3.891706E+03	1.209227E-04	3.838040E-05
3.901608E+03	1.212223E-04	3.845551E-05
3.911511E+03	1.215769E-04	3.854791E-05
3.921413E+03	1.219846E-04	3.865695E-05
3.931316E+03	1.224452E-04	3.878257E-05
3.941218E+03	1.229577E-04	3.892444E-05
3.951121E+03	1.235231E-04	3.908280E-05
3.961024E+03	1.241403E-04	3.925732E-05
3.970926E+03	1.248082E-04	3.944763E-05
3.980829E+03	1.255259E-04	3.965337E-05
3.990731E+03	1.262942E-04	3.987482E-05
4.000634E+03	1.271112E-04	4.011132E-05
4.010536E+03	1.279779E-04	4.036316E-05
4.020439E+03	1.288922E-04	4.062970E-05
4.030341E+03	1.298543E-04	4.091091E-05
4.040244E+03	1.308642E-04	4.120681E-05
4.050147E+03	1.319210E-04	4.151710E-05
4.060049E+03	1.330239E-04	4.184148E-05
4.069952E+03	1.341720E-04	4.217964E-05
4.079854E+03	1.353665E-04	4.253195E-05
4.089757E+03	1.366056E-04	4.289781E-05
4.099659E+03	1.378895E-04	4.327725E-05
4.109562E+03	1.392163E-04	4.366966E-05
4.119464E+03	1.405862E-04	4.407509E-05
4.129367E+03	1.419995E-04	4.449361E-05
4.139270E+03	1.434542E-04	4.492458E-05
4.149172E+03	1.449509E-04	4.536811E-05
4.159075E+03	1.464873E-04	4.582354E-05
4.168977E+03	1.480640E-04	4.629097E-05
4.178880E+03	1.496789E-04	4.676977E-05
4.188782E+03	1.513325E-04	4.726002E-05
4.198685E+03	1.530227E-04	4.776108E-05
4.208587E+03	1.547486E-04	4.827268E-05
4.218490E+03	1.565083E-04	4.879414E-05
4.228393E+03	1.583019E-04	4.932554E-05
4.238295E+03	1.601275E-04	4.986620E-05
4.248198E+03	1.619838E-04	5.041577E-05
4.258100E+03	1.638686E-04	5.097352E-05
4.268003E+03	1.657795E-04	5.153865E-05
4.277905E+03	1.677150E-04	5.211074E-05
4.287808E+03	1.696738E-04	5.268935E-05
4.297711E+03	1.716530E-04	5.327357E-05
4.307613E+03	1.736510E-04	5.386289E-05
4.317516E+03	1.756646E-04	5.445630E-05
4.327418E+03	1.776934E-04	5.505366E-05
4.337321E+03	1.797353E-04	5.565435E-05
4.347223E+03	1.817928E-04	5.625908E-05
4.357126E+03	1.838637E-04	5.686724E-05
4.367028E+03	1.859491E-04	5.747909E-05
4.376931E+03	1.880483E-04	5.809446E-05
4.386834E+03	1.901641E-04	5.871416E-05
4.396736E+03	1.922944E-04	5.933756E-05
4.406639E+03	1.944391E-04	5.996464E-05
4.416541E+03	1.965991E-04	6.059563E-05
4.426444E+03	1.987748E-04	6.123067E-05
4.436346E+03	2.009657E-04	6.186960E-05
4.446249E+03	2.031702E-04	6.251188E-05
4.456151E+03	2.053899E-04	6.315806E-05
4.466054E+03	2.076228E-04	6.380750E-05
4.475957E+03	2.098693E-04	6.446028E-05
4.485859E+03	2.121290E-04	6.511632E-05
4.495762E+03	2.143985E-04	6.577452E-05
4.505664E+03	2.166796E-04	6.643547E-05
4.515567E+03	2.189705E-04	6.709857E-05
4.525469E+03	2.212714E-04	6.776389E-05
4.535372E+03	2.235785E-04	6.843030E-05
4.545274E+03	2.258946E-04	6.909858E-05
4.555177E+03	2.282157E-04	6.976755E-05
4.565080E+03	2.305447E-04	7.043808E-05
4.574982E+03	2.328779E-04	7.110906E-05
4.584885E+03	2.352166E-04	7.178084E-05
4.594787E+03	2.375593E-04	7.245296E-05
4.604690E+03	2.399093E-04	7.312646E-05
4.614592E+03	2.422638E-04	7.380047E-05
4.624495E+03	2.446266E-04	7.447610E-05
4.634398E+03	2.469967E-04	7.515312E-05
4.644300E+03	2.493740E-04	7.583140E-05
4.654203E+03	2.517627E-04	7.651231E-05
4.664105E+03	2.541601E-04	7.719495E-05
4.674008E+03	2.565689E-04	7.788016E-05
4.683910E+03	2.589864E-04	7.856709E-05
4.693813E+03	2.614156E-04	7.925669E-05
4.703715E+03	2.638516E-04	7.994744E-05
4.713618E+03	2.662974E-04	8.064025E-05
4.723521E+03	2.687510E-04	8.133450E-05
4.733423E+03	2.712151E-04	8.203099E-05
4.743326E+03	2.736875E-04	8.272908E-05
4.753228E+03	2.761688E-04	8.342893E-05
4.763131E+03	2.786589E-04	8.413050E-05
4.773033E+03	2.811584E-04	8.483394E-05
4.782936E+03	2.836671E-04	8.553926E-05
4.792838E+03	2.861827E-04	8.624568E-05
4.802741E+03	2.887080E-04	8.695409E-05
4.812644E+03	2.912433E-04	8.766454E-05
4.822546E+03	2.937862E-04	8.837631E-05
4.832449E+03	2.963364E-04	8.908935E-05
4.842351E+03	2.988975E-04	8.980465E-05
4.852254E+03	3.014636E-04	9.052049E-05
4.862156E+03	3.040408E-04	9.123871E-05
4.872059E+03	3.066262E-04	9.195840E-05
4.881961E+03	3.092167E-04	9.267862E-05
4.891864E+03	3.118150E-04	9.340019E-05
4.901767E+03	3.144203E-04	9.412287E-05
4.911669E+03	3.170293E-04	9.484564E-05
4.921572E+03	3.196439E-04	9.556909E-05
4.931474E+03	3.222563E-04	9.629091E-05
4.941377E+03	3.248718E-04	9.701262E-05
4.951279E+03	3.274854E-04	9.773275E-05
4.961182E+03	3.300915E-04	9.844969E-05
4.971085E+03	3.326913E-04	9.916372E-05
4.980987E+03	3.352792E-04	9.987317E-05
4.990890E+03	3.378520E-04	1.005772E-04
5.000792E+03	3.404065E-04	1.012747E-04
5.010695E+03	3.429394E-04	1.019649E-04
5.020597E+03	3.454435E-04	1.026455E-04
5.030500E+03	3.479180E-04	1.033163E-04
5.040402E+03	3.503552E-04	1.039751E-04
5.050305E+03	3.527505E-04	1.046206E-04
5.060208E+03	3.550958E-04	1.052503E-04
5.070110E+03	3.573898E-04	1.058639E-04
5.080013E+03	3.596208E-04	1.064579E-04
5.089915E+03	3.617909E-04	1.070331E-04
5.099818E+03	3.638889E-04	1.075861E-04
5.109720E+03	3.659133E-04	1.081165E-04
5.119623E+03	3.678566E-04	1.086222E-04
5.129525E+03	3.697101E-04	1.091007E-04
5.139428E+03	3.714732E-04	1.095517E-04
5.149331E+03	3.731375E-04	1.099730E-04
5.159233E+03	3.746986E-04	1.103632E-04
5.169136E+03	3.761513E-04	1.107209E-04
5.179038E+03	3.774875E-04	1.110437E-04
5.188941E+03	3.787018E-04	1.113302E-04
5.198843E+03	3.797858E-04	1.115779E-04
5.208746E+03	3.807380E-04	1.117865E-04
5.218648E+03	3.815494E-04	1.119534E-04
5.228551E+03	3.822147E-04	1.120771E-04
5.238454E+03	3.827286E-04	1.121562E-04
5.248356E+03	3.830822E-04	1.121881E-04
5.258259E+03	3.832704E-04	1.121715E-04
5.268161E+03	3.832882E-04	1.121049E-04
5.278064E+03	3.831313E-04	1.119873E-04
5.287966E+03	3.827916E-04	1.118163E-04
5.297869E+03	3.822695E-04	1.115923E-04
5.307772E+03	3.815620E-04	1.113143E-04
5.317674E+03	3.806675E-04	1.109820E-04
5.327577E+03	3.795808E-04	1.105941E-04
5.337479E+03	3.783104E-04	1.101531E-04
5.347382E+03	3.768535E-04	1.096583E-04
5.357284E+03	3.752214E-04	1.091132E-04
5.367187E+03	3.734148E-04	1.085179E-04
5.377089E+03	3.714437E-04	1.078756E-04
5.386992E+03	3.693161E-04	1.071886E-04
5.396895E+03	3.670489E-04	1.064619E-04
5.406797E+03	3.646495E-04	1.056978E-04
5.416700E+03	3.621266E-04	1.048988E-04
5.426602E+03	3.594874E-04	1.040672E-04
5.436505E+03	3.567472E-04	1.032073E-04
5.446407E+03	3.539157E-04	1.023221E-04
5.456310E+03	3.510069E-04	1.014157E-04
5.466212E+03	3.480363E-04	1.004925E-04
5.476115E+03	3.450193E-04	9.955713E-05
5.486018E+03	3.419722E-04	9.861423E-05
5.495920E+03	3.389150E-04	9.766959E-05
5.505823E+03	3.358636E-04	9.672784E-05
5.515725E+03	3.328412E-04	9.579562E-05
5.525628E+03	3.298603E-04	9.487650E-05
5.535530E+03	3.269456E-04	9.397760E-05
5.545433E+03	3.241083E-04	9.310207E-05
5.555335E+03	3.213682E-04	9.225555E-05
5.565238E+03	3.187430E-04	9.144308E-05
5.575141E+03	3.162399E-04	9.066669E-05
5.585043E+03	3.138802E-04	8.993235E-05
5.594946E+03	3.116708E-04	8.924203E-05
5.604848E+03	3.096167E-04	8.859704E-05
5.614751E+03	3.077344E-04	8.800198E-05
5.624653E+03	3.060223E-04	8.745640E-05
5.634556E+03	3.044880E-04	8.696228E-05
5.644459E+03	3.031363E-04	8.652094E-05
5.654361E+03	3.019691E-04	8.613284E-05
5.664264E+03	3.009862E-04	8.579779E-05
5.674166E+03	3.001874E-04	8.551565E-05
5.684069E+03	2.995749E-04	8.528696E-05
5.693971E+03	2.991506E-04	8.511217E-05
5.703874E+03	2.989070E-04	8.498902E-05
5.713776E+03	2.988531E-04	8.491997E-05
5.723679E+03	2.989817E-04	8.490294E-05
5.733582E+03	2.992994E-04	8.493962E-05
5.743484E+03	2.998042E-04	8.502940E-05
5.753387E+03	3.004999E-04	8.517327E-05
5.763289E+03	3.013885E-04	8.537167E-05
5.773192E+03	3.024750E-04	8.562595E-05
5.783094E+03	3.037583E-04	8.593566E-05
5.792997E+03	3.052408E-04	8.630142E-05
5.802899E+03	3.069276E-04	8.672457E-05
5.812802E+03	3.088244E-04	8.720660E-05
5.822705E+03	3.109271E-04	8.774625E-05
5.832607E+03	3.132438E-04	8.834572E-05
5.842510E+03	3.157738E-04	8.900473E-05
5.852412E+03	3.185221E-04	8.972456E-05
5.862315E+03	3.214906E-04	9.050562E-05
5.872217E+03	3.246770E-04	9.134721E-05
5.882120E+03	3.280857E-04	9.225049E-05
5.892022E+03	3.317171E-04	9.321538E-05
5.901925E+03	3.355671E-04	9.424073E-05
5.911828E+03	3.396428E-04	9.532836E-05
5.921730E+03	3.439345E-04	9.647550E-05
5.931633E+03	3.484443E-04	9.768263E-05
5.941535E+03	3.531687E-04	9.894867E-05
5.951438E+03	3.580998E-04	1.002713E-04
5.961340E+03	3.632368E-04	1.016503E-04
5.971243E+03	3.685652E-04	1.030815E-04
5.981146E+03	3.740865E-04	1.045652E-04
5.991048E+03	3.797834E-04	1.060965E-04
6.000951E+03	3.856513E-04	1.076741E-04
6.010853E+03	3.916740E-04	1.092934E-04
6.020756E+03	3.978397E-04	1.109511E-04
6.030658E+03	4.041295E-04	1.126418E-04
6.040561E+03	4.105229E-04	1.143598E-04
6.050463E+03	4.170078E-04	1.161018E-04
6.060366E+03	4.235503E-04	1.178583E-04
6.070269E+03	4.301349E-04	1.196249E-04
6.080171E+03	4.367295E-04	1.213928E-04
6.090074E+03	4.433108E-04	1.231556E-04
6.099976E+03	4.498328E-04	1.249005E-04
6.109879E+03	4.562767E-04	1.266222E-04
6.119781E+03	4.626008E-04	1.283095E-04
6.129684E+03	4.687768E-04	1.299544E-04
6.139586E+03	4.747735E-04	1.315484E-04
6.149489E+03	4.805878E-04	1.330909E-04
6.159392E+03	4.862272E-04	1.345839E-04
6.169294E+03	4.917032E-04	1.360308E-04
6.179197E+03	4.970299E-04	1.374356E-04
6.189099E+03	5.022053E-04	1.387979E-04
6.199002E+03	5.072609E-04	1.401263E-04
6.208904E+03	5.121908E-04	1.414194E-04
6.218807E+03	5.170157E-04	1.426831E-04
6.228709E+03	5.217519E-04	1.439217E-04
6.238612E+03	5.263946E-04	1.451342E-04
6.248515E+03	5.309606E-04	1.463251E-04
6.258417E+03	5.354603E-04	1.474975E-04
6.268320E+03	5.399042E-04	1.486541E-04
6.278222E+03	5.442883E-04	1.497939E-04
6.288125E+03	5.486237E-04	1.509201E-04
6.298027E+03	5.529140E-04	1.520337E-04
6.307930E+03	5.571633E-04	1.531358E-04
6.317833E+03	5.613673E-04	1.542252E-04
6.327735E+03	5.655219E-04	1.553009E-04
6.337638E+03	5.696226E-04	1.563616E-04
6.347540E+03	5.736724E-04	1.574083E-04
6.357443E+03	5.776667E-04	1.584396E-04
6.367345E+03	5.815829E-04	1.594493E-04
6.377248E+03	5.854487E-04	1.604453E-04
6.387150E+03	5.892673E-04	1.614283E-04
6.397053E+03	5.930502E-04	1.624015E-04
6.406956E+03	5.968184E-04	1.633706E-04
6.416858E+03	6.005671E-04	1.643345E-04
6.426761E+03	6.043173E-04	1.652988E-04
6.436663E+03	6.080734E-04	1.662647E-04
6.446566E+03	6.118480E-04	1.672358E-04
6.456468E+03	6.156265E-04	1.682080E-04
6.466371E+03	6.194404E-04	1.691899E-04
6.476273E+03	6.232741E-04	1.701773E-04
6.486176E+03	6.271407E-04	1.711738E-04
6.496079E+03	6.310433E-04	1.721802E-04
6.505981E+03	6.349751E-04	1.731946E-04
6.515884E+03	6.389489E-04	1.742206E-04
6.525786E+03	6.429678E-04	1.752589E-04
6.535689E+03	6.470246E-04	1.763077E-04
6.545591E+03	6.511215E-04	1.773676E-04
6.555494E+03	6.552615E-04	1.784392E-04
6.565396E+03	6.594574E-04	1.795263E-04
6.575299E+03	6.636901E-04	1.806235E-04
6.585202E+03	6.679721E-04	1.817342E-04
6.595104E+03	6.723053E-04	1.828590E-04
6.605007E+03	6.766796E-04	1.839951E-04
6.614909E+03	6.811074E-04	1.851459E-04
6.624812E+03	6.855781E-04	1.863085E-04
6.634714E+03	6.901038E-04	1.874863E-04
6.644617E+03	6.946616E-04	1.886729E-04
6.654520E+03	6.992634E-04	1.898717E-04
6.664422E+03	7.039217E-04	1.910860E-04
6.674325E+03	7.086127E-04	1.923095E-04
6.684227E+03	7.133490E-04	1.935454E-04
6.694130E+03	7.181187E-04	1.947906E-04
6.704032E+03	7.229346E-04	1.960487E-04
6.713935E+03	7.277847E-04	1.973162E-04
6.723837E+03	7.326699E-04	1.985936E-04
6.733740E+03	7.376037E-04	1.998844E-04
6.743643E+03	7.425606E-04	2.011818E-04
6.753545E+03	7.475677E-04	2.024931E-04
6.763448E+03	7.525991E-04	2.038114E-04
6.773350E+03	7.576818E-04	2.051439E-04
6.783253E+03	7.627888E-04	2.064833E-04
6.793155E+03	7.679190E-04	2.078295E-04
6.803058E+03	7.730857E-04	2.091859E-04
6.812960E+03	7.782879E-04	2.105524E-04
6.822863E+03	7.834947E-04	2.119206E-04
6.832766E+03	7.887327E-04	2.132977E-04
6.842668E+03	7.939845E-04	2.146791E-04
6.852571E+03	7.992622E-04	2.160680E-04
6.862473E+03	8.045320E-04	2.174553E-04
6.872376E+03	8.098048E-04	2.188441E-04
6.882278E+03	8.150769E-04	2.202332E-04
6.892181E+03	8.203281E-04	2.216174E-04
6.902083E+03	8.255696E-04	2.229996E-04
6.911986E+03	8.307970E-04	2.243787E-04
6.921889E+03	8.359900E-04	2.257492E-04
6.931791E+03	8.411441E-04	2.271100E-04
6.941694E+03	8.462548E-04	2.284600E-04
6.951596E+03	8.513351E-04	2.298025E-04
6.961499E+03	8.563480E-04	2.311277E-04
6.971401E+03	8.613237E-04	2.324438E-04
6.981304E+03	8.662256E-04	2.337409E-04
6.991207E+03	8.710682E-04	2.350229E-04
7.001109E+03	8.758317E-04	2.362847E-04
7.011012E+03	8.805318E-04	2.375303E-04
7.020914E+03	8.851678E-04	2.387598E-04
7.030817E+03	8.897205E-04	2.399679E-04
7.040719E+03	8.941717E-04	2.411498E-04
7.050622E+03	8.985573E-04	2.423152E-04
7.060524E+03	9.028594E-04	2.434593E-04
7.070427E+03	9.070786E-04	2.445823E-04
7.080330E+03	9.112161E-04	2.456846E-04
7.090232E+03	9.152546E-04	2.467615E-04
7.100135E+03	9.192140E-04	2.478185E-04
7.110037E+03	9.230773E-04	2.488510E-04
7.119940E+03	9.268466E-04	2.498595E-04
7.129842E+03	9.305435E-04	2.508501E-04
7.139745E+03	9.341511E-04	2.518181E-04
7.149647E+03	9.376918E-04	2.527695E-04
7.159550E+03	9.411284E-04	2.536946E-04
7.169453E+03	9.444827E-04	2.545990E-04
7.179355E+03	9.477564E-04	2.554834E-04
7.189258E+03	9.509499E-04	2.563478E-04
7.199160E+03	9.540640E-04	2.571926E-04
7.209063E+03	9.570978E-04	2.580175E-04
7.218965E+03	9.600300E-04	2.588168E-04
7.228868E+03	9.628785E-04	2.595953E-04
7.238770E+03	9.656412E-04	2.603526E-04
7.248673E+03	9.683154E-04	2.610879E-04
7.258576E+03	9.708766E-04	2.617947E-04
7.268478E+03	9.733432E-04	2.624779E-04
7.278381E+03	9.757336E-04	2.631425E-04
7.288283E+03	9.780022E-04	2.637763E-04
7.298186E+03	9.801680E-04	2.643844E-04
7.308088E+03	9.822289E-04	2.649663E-04
7.317991E+03	9.842049E-04	2.655274E-04
7.327894E+03	9.860738E-04	2.660617E-04
7.337796E+03	9.878570E-04	2.665750E-04
7.347699E+03	9.895775E-04	2.670736E-04
7.357601E+03	9.912147E-04	2.675520E-04
7.367504E+03	9.928164E-04	2.680230E-04
7.377406E+03	9.943414E-04	2.684756E-04
7.387309E+03	9.958166E-04	2.689170E-04
7.397211E+03	9.972244E-04	2.693425E-04
7.407114E+03	9.985938E-04	2.697600E-04
7.417017E+03	9.998844E-04	2.701586E-04
7.426919E+03	1.001125E-03	2.705462E-04
7.436822E+03	1.002321E-03	2.709241E-04
7.446724E+03	1.003454E-03	2.712873E-04
7.456627E+03	1.004574E-03	2.716495E-04
7.466529E+03	1.005636E-03	2.719987E-04
7.476432E+03	1.006667E-03	2.723419E-04
7.486334E+03	1.007646E-03	2.726735E-04
7.496237E+03	1.008600E-03	2.730005E-04
7.506140E+03	1.009506E-03	2.733172E-04
7.516042E+03	1.010392E-03	2.736307E-04
7.525945E+03	1.011237E-03	2.739354E-04
7.535847E+03	1.012042E-03	2.742317E-04
7.545750E+03	1.012834E-03	2.745266E-04
7.555652E+03	1.013589E-03	2.748138E-04
7.565555E+03	1.014308E-03	2.750935E-04
7.575457E+03	1.015015E-03	2.753722E-04
7.585360E+03	1.015685E-03	2.756428E-04
7.595263E+03	1.016340E-03	2.759118E-04
7.605165E+03	1.016930E-03	2.761649E-04
7.615068E+03	1.017501E-03	2.764149E-04
7.624970E+03	1.018049E-03	2.766610E-04
7.634873E+03	1.018548E-03	2.768957E-04
7.644775E+03	1.019019E-03	2.771246E-04
7.654678E+03	1.019433E-03	2.773401E-04
7.664581E+03	1.019787E-03	2.775411E-04
7.674483E+03	1.020102E-03	2.777334E-04
7.684386E+03	1.020375E-03	2.779160E-04
