#wls	flux	fluxerr
1.584409E+03	2.908176E-03	1.481369E-03
1.624020E+03	2.967676E-03	1.512175E-03
1.663630E+03	3.018444E-03	1.538551E-03
1.703240E+03	3.059336E-03	1.559907E-03
1.742850E+03	3.088855E-03	1.575476E-03
1.782461E+03	3.105778E-03	1.584627E-03
1.822071E+03	3.108607E-03	1.586589E-03
1.861681E+03	3.096453E-03	1.580901E-03
1.901291E+03	3.068219E-03	1.566995E-03
1.940902E+03	3.022698E-03	1.544246E-03
1.980512E+03	2.959395E-03	1.512392E-03
2.020122E+03	2.877592E-03	1.471056E-03
2.059732E+03	2.776954E-03	1.420060E-03
2.099342E+03	2.657964E-03	1.359640E-03
2.138953E+03	2.520649E-03	1.289801E-03
2.178563E+03	2.365777E-03	1.210929E-03
2.218173E+03	2.194480E-03	1.123594E-03
2.257783E+03	2.008003E-03	1.028427E-03
2.297394E+03	1.811182E-03	9.279004E-04
2.337004E+03	1.608745E-03	8.244312E-04
2.376614E+03	1.404761E-03	7.201054E-04
2.416224E+03	1.202890E-03	6.167987E-04
2.455835E+03	1.006549E-03	5.162674E-04
2.495445E+03	8.188306E-04	4.201006E-04
2.535055E+03	6.424548E-04	3.297000E-04
2.574665E+03	4.798409E-04	2.463134E-04
2.614276E+03	3.329575E-04	1.709587E-04
2.653886E+03	2.032803E-04	1.044014E-04
2.693496E+03	9.175386E-05	4.713471E-05
2.733106E+03	-1.239600E-06	-6.369424E-07
2.772716E+03	-7.589881E-05	-3.900786E-05
2.812327E+03	-1.329608E-04	-6.834954E-05
2.851937E+03	-1.736881E-04	-8.930435E-05
2.891547E+03	-1.998042E-04	-1.027529E-04
2.931157E+03	-2.134057E-04	-1.097685E-04
2.970768E+03	-2.167978E-04	-1.115331E-04
2.980670E+03	-2.163241E-04	-1.112942E-04
2.990573E+03	-2.153939E-04	-1.108204E-04
3.000475E+03	-2.140459E-04	-1.101314E-04
3.010378E+03	-2.123129E-04	-1.092442E-04
3.020280E+03	-2.102273E-04	-1.081754E-04
3.030183E+03	-2.078249E-04	-1.069434E-04
3.040086E+03	-2.051317E-04	-1.055616E-04
3.049988E+03	-2.021860E-04	-1.040497E-04
3.059891E+03	-1.990117E-04	-1.024199E-04
3.069793E+03	-1.956402E-04	-1.006884E-04
3.079696E+03	-1.920973E-04	-9.886851E-05
3.089598E+03	-1.884116E-04	-9.697492E-05
3.099501E+03	-1.846065E-04	-9.501968E-05
3.109403E+03	-1.807046E-04	-9.301441E-05
3.119306E+03	-1.767307E-04	-9.097183E-05
3.129209E+03	-1.727014E-04	-8.890056E-05
3.139111E+03	-1.686423E-04	-8.681372E-05
3.149014E+03	-1.645677E-04	-8.471870E-05
3.158916E+03	-1.604970E-04	-8.262552E-05
3.168819E+03	-1.564447E-04	-8.054164E-05
3.178721E+03	-1.524244E-04	-7.847400E-05
3.188624E+03	-1.484505E-04	-7.643010E-05
3.198526E+03	-1.445338E-04	-7.441547E-05
3.208429E+03	-1.406812E-04	-7.243365E-05
3.218332E+03	-1.369081E-04	-7.049264E-05
3.228234E+03	-1.332148E-04	-6.859254E-05
3.238137E+03	-1.296137E-04	-6.673978E-05
3.248039E+03	-1.261059E-04	-6.493490E-05
3.257942E+03	-1.226974E-04	-6.318102E-05
3.267844E+03	-1.193932E-04	-6.148071E-05
3.277747E+03	-1.161921E-04	-5.983341E-05
3.287650E+03	-1.130994E-04	-5.824180E-05
3.297552E+03	-1.101162E-04	-5.670645E-05
3.307455E+03	-1.072412E-04	-5.522673E-05
3.317357E+03	-1.044746E-04	-5.380270E-05
3.327260E+03	-1.018160E-04	-5.243425E-05
3.337162E+03	-9.926616E-05	-5.112170E-05
3.347065E+03	-9.682124E-05	-4.986310E-05
3.356967E+03	-9.448260E-05	-4.865916E-05
3.366870E+03	-9.224614E-05	-4.750777E-05
3.376773E+03	-9.011021E-05	-4.640807E-05
3.386675E+03	-8.807407E-05	-4.535972E-05
3.396578E+03	-8.613244E-05	-4.435996E-05
3.406480E+03	-8.428547E-05	-4.340891E-05
3.416383E+03	-8.252998E-05	-4.250491E-05
3.426285E+03	-8.086095E-05	-4.164539E-05
3.436188E+03	-7.927829E-05	-4.083030E-05
3.446090E+03	-7.777718E-05	-4.005716E-05
3.455993E+03	-7.635573E-05	-3.932500E-05
3.465896E+03	-7.501116E-05	-3.863240E-05
3.475798E+03	-7.373839E-05	-3.797673E-05
3.485701E+03	-7.253590E-05	-3.735722E-05
3.495603E+03	-7.139985E-05	-3.677188E-05
3.505506E+03	-7.032668E-05	-3.621889E-05
3.515408E+03	-6.931378E-05	-3.569690E-05
3.525311E+03	-6.835725E-05	-3.520392E-05
3.535213E+03	-6.745417E-05	-3.473842E-05
3.545116E+03	-6.660109E-05	-3.429863E-05
3.555019E+03	-6.579611E-05	-3.388359E-05
3.564921E+03	-6.503674E-05	-3.349200E-05
3.574824E+03	-6.432001E-05	-3.312233E-05
3.584726E+03	-6.364432E-05	-3.277377E-05
3.594629E+03	-6.300809E-05	-3.244550E-05
3.604531E+03	-6.240861E-05	-3.213612E-05
3.614434E+03	-6.184617E-05	-3.184577E-05
3.624337E+03	-6.131809E-05	-3.157309E-05
3.634239E+03	-6.082404E-05	-3.131790E-05
3.644142E+03	-6.036308E-05	-3.107972E-05
3.654044E+03	-5.993428E-05	-3.085806E-05
3.663947E+03	-5.953712E-05	-3.065266E-05
3.673849E+03	-5.917169E-05	-3.046355E-05
3.683752E+03	-5.883589E-05	-3.028968E-05
3.693654E+03	-5.853070E-05	-3.013152E-05
3.703557E+03	-5.825443E-05	-2.998822E-05
3.713460E+03	-5.800694E-05	-2.985970E-05
3.723362E+03	-5.778797E-05	-2.974582E-05
3.733265E+03	-5.759583E-05	-2.964571E-05
3.743167E+03	-5.743121E-05	-2.955973E-05
3.753070E+03	-5.729287E-05	-2.948723E-05
3.762972E+03	-5.718053E-05	-2.942807E-05
3.772875E+03	-5.709345E-05	-2.938187E-05
3.782777E+03	-5.703138E-05	-2.934850E-05
3.792680E+03	-5.699362E-05	-2.932758E-05
3.802583E+03	-5.697991E-05	-2.931900E-05
3.812485E+03	-5.698961E-05	-2.932241E-05
3.822388E+03	-5.702302E-05	-2.933797E-05
3.832290E+03	-5.707950E-05	-2.936535E-05
3.842193E+03	-5.715847E-05	-2.940424E-05
3.852095E+03	-5.725975E-05	-2.945455E-05
3.861998E+03	-5.738277E-05	-2.951598E-05
3.871900E+03	-5.752775E-05	-2.958865E-05
3.881803E+03	-5.769411E-05	-2.967225E-05
3.891706E+03	-5.788162E-05	-2.976666E-05
3.901608E+03	-5.808962E-05	-2.987154E-05
3.911511E+03	-5.831748E-05	-2.998656E-05
3.921413E+03	-5.856587E-05	-3.011206E-05
3.931316E+03	-5.883323E-05	-3.024725E-05
3.941218E+03	-5.911984E-05	-3.039224E-05
3.951121E+03	-5.942506E-05	-3.054672E-05
3.961024E+03	-5.974869E-05	-3.071058E-05
3.970926E+03	-6.009058E-05	-3.088373E-05
3.980829E+03	-6.044960E-05	-3.106559E-05
3.990731E+03	-6.082605E-05	-3.125633E-05
4.000634E+03	-6.121931E-05	-3.145559E-05
4.010536E+03	-6.162915E-05	-3.166328E-05
4.020439E+03	-6.205489E-05	-3.187903E-05
4.030341E+03	-6.249590E-05	-3.210252E-05
4.040244E+03	-6.295242E-05	-3.233386E-05
4.050147E+03	-6.342332E-05	-3.257247E-05
4.060049E+03	-6.390848E-05	-3.281829E-05
4.069952E+03	-6.440779E-05	-3.307124E-05
4.079854E+03	-6.492010E-05	-3.333075E-05
4.089757E+03	-6.544594E-05	-3.359707E-05
4.099659E+03	-6.598425E-05	-3.386966E-05
4.109562E+03	-6.653497E-05	-3.414848E-05
4.119464E+03	-6.709810E-05	-3.443353E-05
4.129367E+03	-6.767253E-05	-3.472423E-05
4.139270E+03	-6.825875E-05	-3.502083E-05
4.149172E+03	-6.885513E-05	-3.532249E-05
4.159075E+03	-6.946266E-05	-3.562971E-05
4.168977E+03	-7.007971E-05	-3.594165E-05
4.178880E+03	-7.070624E-05	-3.625828E-05
4.188782E+03	-7.134170E-05	-3.657932E-05
4.198685E+03	-7.198603E-05	-3.690474E-05
4.208587E+03	-7.263765E-05	-3.723370E-05
4.218490E+03	-7.329712E-05	-3.756651E-05
4.228393E+03	-7.396337E-05	-3.790261E-05
4.238295E+03	-7.463532E-05	-3.824144E-05
4.248198E+03	-7.531302E-05	-3.858301E-05
4.258100E+03	-7.599595E-05	-3.892706E-05
4.268003E+03	-7.668233E-05	-3.927267E-05
4.277905E+03	-7.737164E-05	-3.961957E-05
4.287808E+03	-7.806320E-05	-3.996741E-05
4.297711E+03	-7.875633E-05	-4.031583E-05
4.307613E+03	-7.945034E-05	-4.066448E-05
4.317516E+03	-8.014510E-05	-4.101330E-05
4.327418E+03	-8.083981E-05	-4.136185E-05
4.337321E+03	-8.153364E-05	-4.170972E-05
4.347223E+03	-8.222765E-05	-4.205744E-05
4.357126E+03	-8.292098E-05	-4.240458E-05
4.367028E+03	-8.361333E-05	-4.275097E-05
4.376931E+03	-8.430504E-05	-4.309679E-05
4.386834E+03	-8.499586E-05	-4.344190E-05
4.396736E+03	-8.568469E-05	-4.378573E-05
4.406639E+03	-8.637188E-05	-4.412846E-05
4.416541E+03	-8.705633E-05	-4.446953E-05
4.426444E+03	-8.773769E-05	-4.480875E-05
4.436346E+03	-8.841559E-05	-4.514593E-05
4.446249E+03	-8.908824E-05	-4.548016E-05
4.456151E+03	-8.975605E-05	-4.581164E-05
4.466054E+03	-9.041806E-05	-4.613987E-05
4.475957E+03	-9.107333E-05	-4.646438E-05
4.485859E+03	-9.172172E-05	-4.678509E-05
4.495762E+03	-9.236150E-05	-4.710111E-05
4.505664E+03	-9.299259E-05	-4.741241E-05
4.515567E+03	-9.361493E-05	-4.771894E-05
4.525469E+03	-9.422760E-05	-4.802025E-05
4.535372E+03	-9.482909E-05	-4.831555E-05
4.545274E+03	-9.541930E-05	-4.860480E-05
4.555177E+03	-9.599756E-05	-4.888765E-05
4.565080E+03	-9.656305E-05	-4.916369E-05
4.574982E+03	-9.711597E-05	-4.943301E-05
4.584885E+03	-9.765478E-05	-4.969484E-05
4.594787E+03	-9.817976E-05	-4.994932E-05
4.604690E+03	-9.869031E-05	-5.019614E-05
4.614592E+03	-9.918591E-05	-5.043503E-05
4.624495E+03	-9.966614E-05	-5.066580E-05
4.634398E+03	-1.001306E-04	-5.088822E-05
4.644300E+03	-1.005789E-04	-5.110210E-05
4.654203E+03	-1.010124E-04	-5.130816E-05
4.664105E+03	-1.014308E-04	-5.150626E-05
4.674008E+03	-1.018340E-04	-5.169626E-05
4.683910E+03	-1.022234E-04	-5.187895E-05
4.693813E+03	-1.025979E-04	-5.205378E-05
4.703715E+03	-1.029574E-04	-5.222070E-05
4.713618E+03	-1.033028E-04	-5.238010E-05
4.723521E+03	-1.036339E-04	-5.253196E-05
4.733423E+03	-1.039499E-04	-5.267579E-05
4.743326E+03	-1.042514E-04	-5.281204E-05
4.753228E+03	-1.045387E-04	-5.294069E-05
4.763131E+03	-1.048106E-04	-5.306127E-05
4.773033E+03	-1.050682E-04	-5.317427E-05
4.782936E+03	-1.053114E-04	-5.327967E-05
4.792838E+03	-1.055401E-04	-5.337746E-05
4.802741E+03	-1.057544E-04	-5.346762E-05
4.812644E+03	-1.059532E-04	-5.354963E-05
4.822546E+03	-1.061383E-04	-5.362439E-05
4.832449E+03	-1.063077E-04	-5.369090E-05
4.842351E+03	-1.064611E-04	-5.374905E-05
4.852254E+03	-1.065994E-04	-5.379926E-05
4.862156E+03	-1.067225E-04	-5.384149E-05
4.872059E+03	-1.068302E-04	-5.387562E-05
4.881961E+03	-1.069201E-04	-5.390051E-05
4.891864E+03	-1.069941E-04	-5.391706E-05
4.901767E+03	-1.070507E-04	-5.392460E-05
4.911669E+03	-1.070896E-04	-5.392291E-05
4.921572E+03	-1.071106E-04	-5.391188E-05
4.931474E+03	-1.071130E-04	-5.389127E-05
4.941377E+03	-1.070956E-04	-5.386040E-05
4.951279E+03	-1.070578E-04	-5.381900E-05
4.961182E+03	-1.069999E-04	-5.376726E-05
4.971085E+03	-1.069203E-04	-5.370431E-05
4.980987E+03	-1.068171E-04	-5.362928E-05
4.990890E+03	-1.066915E-04	-5.354276E-05
5.000792E+03	-1.065394E-04	-5.344274E-05
5.010695E+03	-1.063620E-04	-5.332981E-05
5.020597E+03	-1.061584E-04	-5.320349E-05
5.030500E+03	-1.059244E-04	-5.306175E-05
5.040402E+03	-1.056620E-04	-5.290563E-05
5.050305E+03	-1.053682E-04	-5.273358E-05
5.060208E+03	-1.050417E-04	-5.254506E-05
5.070110E+03	-1.046826E-04	-5.234005E-05
5.080013E+03	-1.042876E-04	-5.211697E-05
5.089915E+03	-1.038555E-04	-5.187525E-05
5.099818E+03	-1.033861E-04	-5.161484E-05
5.109720E+03	-1.028772E-04	-5.133462E-05
5.119623E+03	-1.023275E-04	-5.103402E-05
5.129525E+03	-1.017349E-04	-5.071197E-05
5.139428E+03	-1.010990E-04	-5.036839E-05
5.149331E+03	-1.004168E-04	-5.000175E-05
5.159233E+03	-9.968898E-05	-4.961248E-05
5.169136E+03	-9.891351E-05	-4.919958E-05
5.179038E+03	-9.808834E-05	-4.876209E-05
5.188941E+03	-9.721240E-05	-4.829951E-05
5.198843E+03	-9.628566E-05	-4.781188E-05
5.208746E+03	-9.530529E-05	-4.729785E-05
5.218648E+03	-9.427139E-05	-4.675752E-05
5.228551E+03	-9.318407E-05	-4.619100E-05
5.238454E+03	-9.203984E-05	-4.559662E-05
5.248356E+03	-9.084082E-05	-4.497548E-05
5.258259E+03	-8.958372E-05	-4.432602E-05
5.268161E+03	-8.827072E-05	-4.364937E-05
5.278064E+03	-8.689877E-05	-4.294409E-05
5.287966E+03	-8.546928E-05	-4.221095E-05
5.297869E+03	-8.398201E-05	-4.144989E-05
5.307772E+03	-8.243606E-05	-4.066054E-05
5.317674E+03	-8.083316E-05	-3.984381E-05
5.327577E+03	-7.917110E-05	-3.899870E-05
5.337479E+03	-7.745267E-05	-3.812665E-05
5.347382E+03	-7.567762E-05	-3.722760E-05
5.357284E+03	-7.384660E-05	-3.630196E-05
5.367187E+03	-7.196046E-05	-3.535021E-05
5.377089E+03	-7.002018E-05	-3.437290E-05
5.386992E+03	-6.802611E-05	-3.337030E-05
5.396895E+03	-6.597945E-05	-3.234306E-05
5.406797E+03	-6.388147E-05	-3.129188E-05
5.416700E+03	-6.173338E-05	-3.021743E-05
5.426602E+03	-5.953576E-05	-2.912007E-05
5.436505E+03	-5.728922E-05	-2.800018E-05
5.446407E+03	-5.499554E-05	-2.685871E-05
5.456310E+03	-5.265533E-05	-2.569602E-05
5.466212E+03	-5.026920E-05	-2.451250E-05
5.476115E+03	-4.783784E-05	-2.330857E-05
5.486018E+03	-4.536287E-05	-2.208509E-05
5.495920E+03	-4.284444E-05	-2.084221E-05
5.505823E+03	-4.028406E-05	-1.958074E-05
5.515725E+03	-3.768190E-05	-1.830086E-05
5.525628E+03	-3.503900E-05	-1.700314E-05
5.535530E+03	-3.235663E-05	-1.568829E-05
5.545433E+03	-2.963500E-05	-1.435648E-05
5.555335E+03	-2.687526E-05	-1.300835E-05
5.565238E+03	-2.407816E-05	-1.164435E-05
5.575141E+03	-2.124418E-05	-1.026480E-05
5.585043E+03	-1.837408E-05	-8.870135E-06
5.594946E+03	-1.546874E-05	-7.460872E-06
5.604848E+03	-1.252881E-05	-6.037403E-06
5.614751E+03	-9.554833E-06	-4.600072E-06
5.624653E+03	-6.547609E-06	-3.149352E-06
5.634556E+03	-3.507842E-06	-1.685665E-06
5.644459E+03	-4.361021E-07	-2.093667E-07
5.654361E+03	2.666854E-06	1.279094E-06
5.664264E+03	5.800383E-06	2.779323E-06
5.674166E+03	8.963868E-06	4.290942E-06
5.684069E+03	1.215668E-05	5.813560E-06
5.693971E+03	1.537815E-05	7.346779E-06
5.703874E+03	1.862761E-05	8.890187E-06
5.713776E+03	2.190458E-05	1.044347E-05
5.723679E+03	2.520814E-05	1.200611E-05
5.733582E+03	2.853813E-05	1.357793E-05
5.743484E+03	3.189357E-05	1.515840E-05
5.753387E+03	3.527373E-05	1.674706E-05
5.763289E+03	3.867862E-05	1.834384E-05
5.773192E+03	4.210674E-05	1.994795E-05
5.783094E+03	4.555773E-05	2.155912E-05
5.792997E+03	4.903137E-05	2.317716E-05
5.802899E+03	5.252644E-05	2.480141E-05
5.812802E+03	5.604284E-05	2.643173E-05
5.822705E+03	5.957934E-05	2.806746E-05
5.832607E+03	6.313671E-05	2.970888E-05
5.842510E+03	6.671408E-05	3.135548E-05
5.852412E+03	7.031132E-05	3.300711E-05
5.862315E+03	7.392920E-05	3.466405E-05
5.872217E+03	7.756697E-05	3.632584E-05
5.882120E+03	8.122558E-05	3.799286E-05
5.892022E+03	8.490425E-05	3.966463E-05
5.901925E+03	8.860412E-05	4.134159E-05
5.911828E+03	9.232539E-05	4.302375E-05
5.921730E+03	9.606835E-05	4.471113E-05
5.931633E+03	9.983213E-05	4.640324E-05
5.941535E+03	1.036180E-04	4.810057E-05
5.951438E+03	1.074264E-04	4.980317E-05
5.961340E+03	1.112561E-04	5.151046E-05
5.971243E+03	1.151087E-04	5.322298E-05
5.981146E+03	1.189829E-04	5.494010E-05
5.991048E+03	1.228773E-04	5.666106E-05
6.000951E+03	1.267949E-04	5.838705E-05
6.010853E+03	1.307325E-04	6.011659E-05
6.020756E+03	1.346915E-04	6.185019E-05
6.030658E+03	1.386684E-04	6.358609E-05
6.040561E+03	1.426643E-04	6.532473E-05
6.050463E+03	1.466770E-04	6.706497E-05
6.060366E+03	1.507055E-04	6.880632E-05
6.070269E+03	1.547493E-04	7.054833E-05
6.080171E+03	1.588052E-04	7.228955E-05
6.090074E+03	1.628721E-04	7.402931E-05
6.099976E+03	1.669486E-04	7.576693E-05
6.109879E+03	1.710333E-04	7.750165E-05
6.119781E+03	1.751246E-04	7.923269E-05
6.129684E+03	1.792187E-04	8.095820E-05
6.139586E+03	1.833159E-04	8.267827E-05
6.149489E+03	1.874145E-04	8.439199E-05
6.159392E+03	1.915123E-04	8.609840E-05
6.169294E+03	1.956101E-04	8.779768E-05
6.179197E+03	1.997085E-04	8.949009E-05
6.189099E+03	2.038084E-04	9.117593E-05
6.199002E+03	2.079109E-04	9.285562E-05
6.208904E+03	2.120174E-04	9.452966E-05
6.218807E+03	2.161323E-04	9.620000E-05
6.228709E+03	2.202516E-04	9.786471E-05
6.238612E+03	2.243864E-04	9.952865E-05
6.248515E+03	2.285331E-04	1.011901E-04
6.258417E+03	2.326975E-04	1.028515E-04
6.268320E+03	2.368826E-04	1.045141E-04
6.278222E+03	2.410919E-04	1.061793E-04
6.288125E+03	2.453255E-04	1.078470E-04
6.298027E+03	2.495873E-04	1.095187E-04
6.307930E+03	2.538812E-04	1.111960E-04
6.317833E+03	2.582080E-04	1.128792E-04
6.327735E+03	2.625684E-04	1.145683E-04
6.337638E+03	2.669673E-04	1.162653E-04
6.347540E+03	2.713976E-04	1.179670E-04
6.357443E+03	2.758601E-04	1.196735E-04
6.367345E+03	2.803512E-04	1.213831E-04
6.377248E+03	2.848628E-04	1.230922E-04
6.387150E+03	2.893992E-04	1.248024E-04
6.397053E+03	2.939517E-04	1.265099E-04
6.406956E+03	2.985245E-04	1.282164E-04
6.416858E+03	3.031177E-04	1.299217E-04
6.426761E+03	3.077267E-04	1.316237E-04
6.436663E+03	3.123511E-04	1.333222E-04
6.446566E+03	3.169910E-04	1.350170E-04
6.456468E+03	3.216462E-04	1.367079E-04
6.466371E+03	3.263165E-04	1.383948E-04
6.476273E+03	3.310071E-04	1.400796E-04
6.486176E+03	3.357128E-04	1.417601E-04
6.496079E+03	3.404283E-04	1.434339E-04
6.505981E+03	3.451641E-04	1.451053E-04
6.515884E+03	3.499093E-04	1.467694E-04
6.525786E+03	3.546691E-04	1.484286E-04
6.535689E+03	3.594435E-04	1.500826E-04
6.545591E+03	3.642325E-04	1.517311E-04
6.555494E+03	3.690360E-04	1.533742E-04
6.565396E+03	3.738475E-04	1.550090E-04
6.575299E+03	3.786732E-04	1.566378E-04
6.585202E+03	3.835063E-04	1.582579E-04
6.595104E+03	3.883531E-04	1.598716E-04
6.605007E+03	3.932067E-04	1.614760E-04
6.614909E+03	3.980668E-04	1.630709E-04
6.624812E+03	4.029398E-04	1.646588E-04
6.634714E+03	4.078258E-04	1.662396E-04
6.644617E+03	4.127106E-04	1.678074E-04
6.654520E+03	4.176082E-04	1.693677E-04
6.664422E+03	4.225039E-04	1.709146E-04
6.674325E+03	4.274124E-04	1.724539E-04
6.684227E+03	4.323264E-04	1.739826E-04
6.694130E+03	4.372383E-04	1.754973E-04
6.704032E+03	4.421636E-04	1.770044E-04
6.713935E+03	4.470869E-04	1.784976E-04
6.723837E+03	4.520164E-04	1.799799E-04
6.733740E+03	4.569524E-04	1.814516E-04
6.743643E+03	4.618955E-04	1.829126E-04
6.753545E+03	4.668376E-04	1.843597E-04
6.763448E+03	4.717875E-04	1.857963E-04
6.773350E+03	4.767371E-04	1.872190E-04
6.783253E+03	4.816952E-04	1.886314E-04
6.793155E+03	4.866535E-04	1.900300E-04
6.803058E+03	4.916120E-04	1.914149E-04
6.812960E+03	4.965801E-04	1.927894E-04
6.822863E+03	5.015397E-04	1.941467E-04
6.832766E+03	5.065093E-04	1.954937E-04
6.842668E+03	5.114797E-04	1.968267E-04
6.852571E+03	5.164513E-04	1.981461E-04
6.862473E+03	5.214246E-04	1.994517E-04
6.872376E+03	5.263986E-04	2.007433E-04
6.882278E+03	5.313644E-04	2.020173E-04
6.892181E+03	5.363319E-04	2.032775E-04
6.902083E+03	5.413015E-04	2.045240E-04
6.911986E+03	5.462728E-04	2.057566E-04
6.921889E+03	5.512261E-04	2.069678E-04
6.931791E+03	5.561919E-04	2.081690E-04
6.941694E+03	5.611394E-04	2.093488E-04
6.951596E+03	5.660895E-04	2.105148E-04
6.961499E+03	5.710317E-04	2.116631E-04
6.971401E+03	5.759669E-04	2.127942E-04
6.981304E+03	5.808939E-04	2.139075E-04
6.991207E+03	5.858143E-04	2.150036E-04
7.001109E+03	5.907164E-04	2.160782E-04
7.011012E+03	5.956122E-04	2.171357E-04
7.020914E+03	6.005024E-04	2.181766E-04
7.030817E+03	6.053761E-04	2.191966E-04
7.040719E+03	6.102457E-04	2.202005E-04
7.050622E+03	6.150994E-04	2.211839E-04
7.060524E+03	6.199382E-04	2.221473E-04
7.070427E+03	6.247629E-04	2.230911E-04
7.080330E+03	6.295866E-04	2.240198E-04
7.090232E+03	6.343842E-04	2.249247E-04
7.100135E+03	6.391562E-04	2.258060E-04
7.110037E+03	6.439297E-04	2.266733E-04
7.119940E+03	6.486782E-04	2.275175E-04
7.129842E+03	6.534027E-04	2.283389E-04
7.139745E+03	6.581169E-04	2.291424E-04
7.149647E+03	6.628072E-04	2.299234E-04
7.159550E+03	6.674748E-04	2.306825E-04
7.169453E+03	6.721190E-04	2.314195E-04
7.179355E+03	6.767401E-04	2.321346E-04
7.189258E+03	6.813526E-04	2.328329E-04
7.199160E+03	6.859268E-04	2.335044E-04
7.209063E+03	6.904919E-04	2.341593E-04
7.218965E+03	6.950318E-04	2.347921E-04
7.228868E+03	6.995449E-04	2.354025E-04
7.238770E+03	7.040453E-04	2.359953E-04
7.248673E+03	7.085156E-04	2.365650E-04
7.258576E+03	7.129691E-04	2.371161E-04
7.268478E+03	7.174033E-04	2.376479E-04
7.278381E+03	7.218327E-04	2.381655E-04
7.288283E+03	7.262540E-04	2.386676E-04
7.298186E+03	7.306818E-04	2.391595E-04
7.308088E+03	7.350968E-04	2.396347E-04
7.317991E+03	7.395457E-04	2.401086E-04
7.327894E+03	7.440278E-04	2.405810E-04
7.337796E+03	7.485223E-04	2.410451E-04
7.347699E+03	7.530793E-04	2.415171E-04
7.357601E+03	7.576790E-04	2.419905E-04
7.367504E+03	7.623373E-04	2.424704E-04
7.377406E+03	7.670329E-04	2.429498E-04
7.387309E+03	7.717813E-04	2.434338E-04
7.397211E+03	7.765244E-04	2.439039E-04
7.407114E+03	7.812943E-04	2.443704E-04
7.417017E+03	7.860302E-04	2.448144E-04
7.426919E+03	7.907458E-04	2.452405E-04
7.436822E+03	7.954159E-04	2.456410E-04
7.446724E+03	8.000177E-04	2.460094E-04
7.456627E+03	8.045703E-04	2.463519E-04
7.466529E+03	8.090143E-04	2.466508E-04
7.476432E+03	8.133886E-04	2.469184E-04
7.486334E+03	8.176717E-04	2.471489E-04
7.496237E+03	8.218634E-04	2.473427E-04
7.506140E+03	8.259414E-04	2.474935E-04
7.516042E+03	8.299244E-04	2.476075E-04
7.525945E+03	8.337891E-04	2.476778E-04
7.535847E+03	8.375328E-04	2.477042E-04
7.545750E+03	8.411746E-04	2.476925E-04
