#wls	flux	fluxerr
1.584409E+03	1.983552E-03	5.124591E-04
1.624020E+03	2.051897E-03	5.292022E-04
1.663630E+03	2.118586E-03	5.454342E-04
1.703240E+03	2.182678E-03	5.609128E-04
1.742850E+03	2.243996E-03	5.755936E-04
1.782461E+03	2.301471E-03	5.892047E-04
1.822071E+03	2.354394E-03	6.015674E-04
1.861681E+03	2.402411E-03	6.125961E-04
1.901291E+03	2.444319E-03	6.219903E-04
1.940902E+03	2.479503E-03	6.296008E-04
1.980512E+03	2.506957E-03	6.351824E-04
2.020122E+03	2.526082E-03	6.385947E-04
2.059732E+03	2.535617E-03	6.395321E-04
2.099342E+03	2.534630E-03	6.377764E-04
2.138953E+03	2.522210E-03	6.331171E-04
2.178563E+03	2.496953E-03	6.252233E-04
2.218173E+03	2.457751E-03	6.138430E-04
2.257783E+03	2.404544E-03	5.989887E-04
2.297394E+03	2.338138E-03	5.808904E-04
2.337004E+03	2.260821E-03	5.601434E-04
2.376614E+03	2.174490E-03	5.372417E-04
2.416224E+03	2.080824E-03	5.126213E-04
2.455835E+03	1.981570E-03	4.867310E-04
2.495445E+03	1.877836E-03	4.598584E-04
2.535055E+03	1.770888E-03	4.323271E-04
2.574665E+03	1.661817E-03	4.044146E-04
2.614276E+03	1.551768E-03	3.764086E-04
2.653886E+03	1.441689E-03	3.485457E-04
2.693496E+03	1.332541E-03	3.210628E-04
2.733106E+03	1.225231E-03	2.941806E-04
2.772716E+03	1.120609E-03	2.681025E-04
2.812327E+03	1.019482E-03	2.430197E-04
2.851937E+03	9.226380E-04	2.191149E-04
2.891547E+03	8.307783E-04	1.965474E-04
2.931157E+03	7.445103E-04	1.754515E-04
2.970768E+03	6.642805E-04	1.559207E-04
2.980670E+03	6.452187E-04	1.512933E-04
2.990573E+03	6.265386E-04	1.467638E-04
3.000475E+03	6.082680E-04	1.423382E-04
3.010378E+03	5.903906E-04	1.380128E-04
3.020280E+03	5.729174E-04	1.337897E-04
3.030183E+03	5.558570E-04	1.296708E-04
3.040086E+03	5.391821E-04	1.256494E-04
3.049988E+03	5.229236E-04	1.217325E-04
3.059891E+03	5.070542E-04	1.179136E-04
3.069793E+03	4.915904E-04	1.141961E-04
3.079696E+03	4.765167E-04	1.105763E-04
3.089598E+03	4.618281E-04	1.070528E-04
3.099501E+03	4.475382E-04	1.036284E-04
3.109403E+03	4.336281E-04	1.002986E-04
3.119306E+03	4.201219E-04	9.706858E-05
3.129209E+03	4.069935E-04	9.393219E-05
3.139111E+03	3.942639E-04	9.089395E-05
3.149014E+03	3.819146E-04	8.794939E-05
3.158916E+03	3.699561E-04	8.510062E-05
3.168819E+03	3.583761E-04	8.234459E-05
3.178721E+03	3.471757E-04	7.968127E-05
3.188624E+03	3.363491E-04	7.710910E-05
3.198526E+03	3.258925E-04	7.462693E-05
3.208429E+03	3.157970E-04	7.223246E-05
3.218332E+03	3.060688E-04	6.992690E-05
3.228234E+03	2.966974E-04	6.770753E-05
3.238137E+03	2.876815E-04	6.557388E-05
3.248039E+03	2.790101E-04	6.352311E-05
3.257942E+03	2.706758E-04	6.155335E-05
3.267844E+03	2.626751E-04	5.966356E-05
3.277747E+03	2.549963E-04	5.785080E-05
3.287650E+03	2.476345E-04	5.611375E-05
3.297552E+03	2.405813E-04	5.445028E-05
3.307455E+03	2.338209E-04	5.285657E-05
3.317357E+03	2.273516E-04	5.133205E-05
3.327260E+03	2.211620E-04	4.987389E-05
3.337162E+03	2.152430E-04	4.847988E-05
3.347065E+03	2.095869E-04	4.714803E-05
3.356967E+03	2.041794E-04	4.587497E-05
3.366870E+03	1.990184E-04	4.466002E-05
3.376773E+03	1.940931E-04	4.350058E-05
3.386675E+03	1.893931E-04	4.239412E-05
3.396578E+03	1.849110E-04	4.133882E-05
3.406480E+03	1.806393E-04	4.033286E-05
3.416383E+03	1.765669E-04	3.937356E-05
3.426285E+03	1.726887E-04	3.845965E-05
3.436188E+03	1.689945E-04	3.758872E-05
3.446090E+03	1.654784E-04	3.675928E-05
3.455993E+03	1.621326E-04	3.596948E-05
3.465896E+03	1.589500E-04	3.521762E-05
3.475798E+03	1.559241E-04	3.450210E-05
3.485701E+03	1.530485E-04	3.382141E-05
3.495603E+03	1.503157E-04	3.317375E-05
3.505506E+03	1.477187E-04	3.255746E-05
3.515408E+03	1.452524E-04	3.197134E-05
3.525311E+03	1.429106E-04	3.141389E-05
3.535213E+03	1.406889E-04	3.088404E-05
3.545116E+03	1.385801E-04	3.038013E-05
3.555019E+03	1.365804E-04	2.990122E-05
3.564921E+03	1.346848E-04	2.944614E-05
3.574824E+03	1.328911E-04	2.901431E-05
3.584726E+03	1.311934E-04	2.860437E-05
3.594629E+03	1.295886E-04	2.821556E-05
3.604531E+03	1.280702E-04	2.784638E-05
3.614434E+03	1.266356E-04	2.749619E-05
3.624337E+03	1.252813E-04	2.716416E-05
3.634239E+03	1.240037E-04	2.684947E-05
3.644142E+03	1.228008E-04	2.655160E-05
3.654044E+03	1.216706E-04	2.627004E-05
3.663947E+03	1.206099E-04	2.600407E-05
3.673849E+03	1.196180E-04	2.575344E-05
3.683752E+03	1.186917E-04	2.551745E-05
3.693654E+03	1.178314E-04	2.529608E-05
3.703557E+03	1.170350E-04	2.508885E-05
3.713460E+03	1.163005E-04	2.489528E-05
3.723362E+03	1.156271E-04	2.471512E-05
3.733265E+03	1.150147E-04	2.454831E-05
3.743167E+03	1.144614E-04	2.439438E-05
3.753070E+03	1.139671E-04	2.425328E-05
3.762972E+03	1.135300E-04	2.412454E-05
3.772875E+03	1.131492E-04	2.400794E-05
3.782777E+03	1.128247E-04	2.390344E-05
3.792680E+03	1.125568E-04	2.381102E-05
3.802583E+03	1.123437E-04	2.373027E-05
3.812485E+03	1.121866E-04	2.366138E-05
3.822388E+03	1.120828E-04	2.360373E-05
3.832290E+03	1.120343E-04	2.355771E-05
3.842193E+03	1.120387E-04	2.352273E-05
3.852095E+03	1.120978E-04	2.349915E-05
3.861998E+03	1.122098E-04	2.348653E-05
3.871900E+03	1.123750E-04	2.348487E-05
3.881803E+03	1.125923E-04	2.349392E-05
3.891706E+03	1.128619E-04	2.351364E-05
3.901608E+03	1.131828E-04	2.354380E-05
3.911511E+03	1.135561E-04	2.358455E-05
3.921413E+03	1.139798E-04	2.363545E-05
3.931316E+03	1.144541E-04	2.369649E-05
3.941218E+03	1.149781E-04	2.376742E-05
3.951121E+03	1.155527E-04	2.384838E-05
3.961024E+03	1.161770E-04	2.393914E-05
3.970926E+03	1.168501E-04	2.403946E-05
3.980829E+03	1.175710E-04	2.414910E-05
3.990731E+03	1.183406E-04	2.426821E-05
4.000634E+03	1.191571E-04	2.439634E-05
4.010536E+03	1.200215E-04	2.453367E-05
4.020439E+03	1.209320E-04	2.467977E-05
4.030341E+03	1.218887E-04	2.483463E-05
4.040244E+03	1.228917E-04	2.499824E-05
4.050147E+03	1.239405E-04	2.517040E-05
4.060049E+03	1.250342E-04	2.535093E-05
4.069952E+03	1.261721E-04	2.553964E-05
4.079854E+03	1.273556E-04	2.573673E-05
4.089757E+03	1.285828E-04	2.594183E-05
4.099659E+03	1.298542E-04	2.615495E-05
4.109562E+03	1.311680E-04	2.637569E-05
4.119464E+03	1.325244E-04	2.660408E-05
4.129367E+03	1.339238E-04	2.684013E-05
4.139270E+03	1.353644E-04	2.708346E-05
4.149172E+03	1.368466E-04	2.733409E-05
4.159075E+03	1.383687E-04	2.759164E-05
4.168977E+03	1.399311E-04	2.785614E-05
4.178880E+03	1.415319E-04	2.812721E-05
4.188782E+03	1.431715E-04	2.840488E-05
4.198685E+03	1.448482E-04	2.868875E-05
4.208587E+03	1.465612E-04	2.897865E-05
4.218490E+03	1.483087E-04	2.927417E-05
4.228393E+03	1.500910E-04	2.957536E-05
4.238295E+03	1.519062E-04	2.988179E-05
4.248198E+03	1.537535E-04	3.019328E-05
4.258100E+03	1.556305E-04	3.050935E-05
4.268003E+03	1.575352E-04	3.082955E-05
4.277905E+03	1.594663E-04	3.115361E-05
4.287808E+03	1.614224E-04	3.148125E-05
4.297711E+03	1.634010E-04	3.181194E-05
4.307613E+03	1.654004E-04	3.214534E-05
4.317516E+03	1.674176E-04	3.248083E-05
4.327418E+03	1.694520E-04	3.281832E-05
4.337321E+03	1.715018E-04	3.315741E-05
4.347223E+03	1.735692E-04	3.349853E-05
4.357126E+03	1.756524E-04	3.384131E-05
4.367028E+03	1.777520E-04	3.418588E-05
4.376931E+03	1.798674E-04	3.453208E-05
4.386834E+03	1.820012E-04	3.488041E-05
4.396736E+03	1.841515E-04	3.523048E-05
4.406639E+03	1.863180E-04	3.558225E-05
4.416541E+03	1.885020E-04	3.593593E-05
4.426444E+03	1.907034E-04	3.629151E-05
4.436346E+03	1.929225E-04	3.664901E-05
4.446249E+03	1.951575E-04	3.700808E-05
4.456151E+03	1.974099E-04	3.736902E-05
4.466054E+03	1.996782E-04	3.773151E-05
4.475957E+03	2.019622E-04	3.809552E-05
4.485859E+03	2.042620E-04	3.846104E-05
4.495762E+03	2.065739E-04	3.882737E-05
4.505664E+03	2.088995E-04	3.919479E-05
4.515567E+03	2.112371E-04	3.956298E-05
4.525469E+03	2.135866E-04	3.993189E-05
4.535372E+03	2.159448E-04	4.030094E-05
4.545274E+03	2.183135E-04	4.067043E-05
4.555177E+03	2.206895E-04	4.103976E-05
4.565080E+03	2.230751E-04	4.140935E-05
4.574982E+03	2.254670E-04	4.177859E-05
4.584885E+03	2.278659E-04	4.214758E-05
4.594787E+03	2.302709E-04	4.251619E-05
4.604690E+03	2.326848E-04	4.288487E-05
4.614592E+03	2.351051E-04	4.325319E-05
4.624495E+03	2.375352E-04	4.362177E-05
4.634398E+03	2.399748E-04	4.399051E-05
4.644300E+03	2.424233E-04	4.435932E-05
4.654203E+03	2.448847E-04	4.472892E-05
4.664105E+03	2.473568E-04	4.509889E-05
4.674008E+03	2.498413E-04	4.546951E-05
4.683910E+03	2.523359E-04	4.584037E-05
4.693813E+03	2.548436E-04	4.621200E-05
4.703715E+03	2.573598E-04	4.658357E-05
4.713618E+03	2.598877E-04	4.695560E-05
4.723521E+03	2.624255E-04	4.732779E-05
4.733423E+03	2.649757E-04	4.770058E-05
4.743326E+03	2.675366E-04	4.807364E-05
4.753228E+03	2.701080E-04	4.844693E-05
4.763131E+03	2.726906E-04	4.882055E-05
4.773033E+03	2.752844E-04	4.919448E-05
4.782936E+03	2.778894E-04	4.956874E-05
4.792838E+03	2.805026E-04	4.994277E-05
4.802741E+03	2.831273E-04	5.031713E-05
4.812644E+03	2.857630E-04	5.069174E-05
4.822546E+03	2.884076E-04	5.106621E-05
4.832449E+03	2.910614E-04	5.144055E-05
4.842351E+03	2.937276E-04	5.181534E-05
4.852254E+03	2.964007E-04	5.218959E-05
4.862156E+03	2.990871E-04	5.256439E-05
4.872059E+03	3.017841E-04	5.293926E-05
4.881961E+03	3.044892E-04	5.331376E-05
4.891864E+03	3.072047E-04	5.368827E-05
4.901767E+03	3.099303E-04	5.406270E-05
4.911669E+03	3.126627E-04	5.443647E-05
4.921572E+03	3.154035E-04	5.480985E-05
4.931474E+03	3.181459E-04	5.518165E-05
4.941377E+03	3.208943E-04	5.555262E-05
4.951279E+03	3.236445E-04	5.592201E-05
4.961182E+03	3.263909E-04	5.628884E-05
4.971085E+03	3.291345E-04	5.665332E-05
4.980987E+03	3.318697E-04	5.701444E-05
4.990890E+03	3.345940E-04	5.737178E-05
5.000792E+03	3.373046E-04	5.772486E-05
5.010695E+03	3.399979E-04	5.807309E-05
5.020597E+03	3.426669E-04	5.841528E-05
5.030500E+03	3.453109E-04	5.875133E-05
5.040402E+03	3.479220E-04	5.907990E-05
5.050305E+03	3.504950E-04	5.940016E-05
5.060208E+03	3.530213E-04	5.971066E-05
5.070110E+03	3.554995E-04	6.001122E-05
5.080013E+03	3.579178E-04	6.029986E-05
5.089915E+03	3.602787E-04	6.057710E-05
5.099818E+03	3.625706E-04	6.084102E-05
5.109720E+03	3.647935E-04	6.109170E-05
5.119623E+03	3.669397E-04	6.132788E-05
5.129525E+03	3.690014E-04	6.154836E-05
5.139428E+03	3.709775E-04	6.175302E-05
5.149331E+03	3.728601E-04	6.194065E-05
5.159233E+03	3.746447E-04	6.211055E-05
5.169136E+03	3.763269E-04	6.226213E-05
5.179038E+03	3.778981E-04	6.239405E-05
5.188941E+03	3.793536E-04	6.250565E-05
5.198843E+03	3.806846E-04	6.259558E-05
5.208746E+03	3.818895E-04	6.266371E-05
5.218648E+03	3.829593E-04	6.270868E-05
5.228551E+03	3.838878E-04	6.272964E-05
5.238454E+03	3.846697E-04	6.272584E-05
5.248356E+03	3.852950E-04	6.269581E-05
5.258259E+03	3.857578E-04	6.263875E-05
5.268161E+03	3.860523E-04	6.255388E-05
5.278064E+03	3.861730E-04	6.244048E-05
5.287966E+03	3.861105E-04	6.229724E-05
5.297869E+03	3.858645E-04	6.212426E-05
5.307772E+03	3.854298E-04	6.192093E-05
5.317674E+03	3.848030E-04	6.168687E-05
5.327577E+03	3.839766E-04	6.142111E-05
5.337479E+03	3.829576E-04	6.112495E-05
5.347382E+03	3.817421E-04	6.079800E-05
5.357284E+03	3.803386E-04	6.044178E-05
5.367187E+03	3.787477E-04	6.005662E-05
5.377089E+03	3.769783E-04	5.964412E-05
5.386992E+03	3.750368E-04	5.920547E-05
5.396895E+03	3.729404E-04	5.874357E-05
5.406797E+03	3.706951E-04	5.825955E-05
5.416700E+03	3.683090E-04	5.775481E-05
5.426602E+03	3.657891E-04	5.723062E-05
5.436505E+03	3.631511E-04	5.668958E-05
5.446407E+03	3.604043E-04	5.613326E-05
5.456310E+03	3.575641E-04	5.556418E-05
5.466212E+03	3.546471E-04	5.498502E-05
5.476115E+03	3.516693E-04	5.439835E-05
5.486018E+03	3.486477E-04	5.380685E-05
5.495920E+03	3.456028E-04	5.321374E-05
5.505823E+03	3.425511E-04	5.262158E-05
5.515725E+03	3.395174E-04	5.203418E-05
5.525628E+03	3.365159E-04	5.145372E-05
5.535530E+03	3.335739E-04	5.088432E-05
5.545433E+03	3.307033E-04	5.032775E-05
5.555335E+03	3.279264E-04	4.978730E-05
5.565238E+03	3.252633E-04	4.926592E-05
5.575141E+03	3.227210E-04	4.876458E-05
5.585043E+03	3.203223E-04	4.828658E-05
5.594946E+03	3.180747E-04	4.783290E-05
5.604848E+03	3.159830E-04	4.740410E-05
5.614751E+03	3.140639E-04	4.700251E-05
5.624653E+03	3.123163E-04	4.662780E-05
5.634556E+03	3.107459E-04	4.628063E-05
5.644459E+03	3.093578E-04	4.596156E-05
5.654361E+03	3.081529E-04	4.567055E-05
5.664264E+03	3.071300E-04	4.540723E-05
5.674166E+03	3.062866E-04	4.517102E-05
5.684069E+03	3.056240E-04	4.496194E-05
5.693971E+03	3.051425E-04	4.477982E-05
5.703874E+03	3.048319E-04	4.462301E-05
5.713776E+03	3.047000E-04	4.449243E-05
5.723679E+03	3.047396E-04	4.438686E-05
5.733582E+03	3.049576E-04	4.430712E-05
5.743484E+03	3.053518E-04	4.425271E-05
5.753387E+03	3.059273E-04	4.422415E-05
5.763289E+03	3.066868E-04	4.422167E-05
5.773192E+03	3.076360E-04	4.424588E-05
5.783094E+03	3.087745E-04	4.429652E-05
5.792997E+03	3.101048E-04	4.437376E-05
5.802899E+03	3.116326E-04	4.447820E-05
5.812802E+03	3.133636E-04	4.461044E-05
5.822705E+03	3.152926E-04	4.476953E-05
5.832607E+03	3.174283E-04	4.495650E-05
5.842510E+03	3.197698E-04	4.517099E-05
5.852412E+03	3.223229E-04	4.541361E-05
5.862315E+03	3.250906E-04	4.568455E-05
5.872217E+03	3.280697E-04	4.598317E-05
5.882120E+03	3.312653E-04	4.630992E-05
5.892022E+03	3.346775E-04	4.666461E-05
5.901925E+03	3.383023E-04	4.704646E-05
5.911828E+03	3.421456E-04	4.745607E-05
5.921730E+03	3.461990E-04	4.789204E-05
5.931633E+03	3.504628E-04	4.835422E-05
5.941535E+03	3.549341E-04	4.884200E-05
5.951438E+03	3.596051E-04	4.935407E-05
5.961340E+03	3.644740E-04	4.989001E-05
5.971243E+03	3.695271E-04	5.044774E-05
5.981146E+03	3.747650E-04	5.102719E-05
5.991048E+03	3.801713E-04	5.162594E-05
6.000951E+03	3.857402E-04	5.224304E-05
6.010853E+03	3.914570E-04	5.287636E-05
6.020756E+03	3.973091E-04	5.352408E-05
6.030658E+03	4.032779E-04	5.418357E-05
6.040561E+03	4.093433E-04	5.485206E-05
6.050463E+03	4.154934E-04	5.552788E-05
6.060366E+03	4.216946E-04	5.620649E-05
6.070269E+03	4.279322E-04	5.688593E-05
6.080171E+03	4.341739E-04	5.756191E-05
6.090074E+03	4.403971E-04	5.823148E-05
6.099976E+03	4.465555E-04	5.888859E-05
6.109879E+03	4.526281E-04	5.953058E-05
6.119781E+03	4.585704E-04	6.015177E-05
6.129684E+03	4.643482E-04	6.074785E-05
6.139586E+03	4.699287E-04	6.131477E-05
6.149489E+03	4.753150E-04	6.185318E-05
6.159392E+03	4.805200E-04	6.236500E-05
6.169294E+03	4.855581E-04	6.285233E-05
6.179197E+03	4.904456E-04	6.331749E-05
6.189099E+03	4.951816E-04	6.376057E-05
6.199002E+03	4.997975E-04	6.418582E-05
6.208904E+03	5.042881E-04	6.459273E-05
6.218807E+03	5.086743E-04	6.498416E-05
6.228709E+03	5.129717E-04	6.536223E-05
6.238612E+03	5.171762E-04	6.572651E-05
6.248515E+03	5.213039E-04	6.607916E-05
6.258417E+03	5.253651E-04	6.642153E-05
6.268320E+03	5.293688E-04	6.675486E-05
6.278222E+03	5.333115E-04	6.707872E-05
6.288125E+03	5.372031E-04	6.739444E-05
6.298027E+03	5.410471E-04	6.770250E-05
6.307930E+03	5.448464E-04	6.800331E-05
6.317833E+03	5.485976E-04	6.829649E-05
6.327735E+03	5.522962E-04	6.858152E-05
6.337638E+03	5.559379E-04	6.885793E-05
6.347540E+03	5.595261E-04	6.912618E-05
6.357443E+03	5.630556E-04	6.938569E-05
6.367345E+03	5.665049E-04	6.963387E-05
6.377248E+03	5.699013E-04	6.987413E-05
6.387150E+03	5.732470E-04	7.010681E-05
6.397053E+03	5.765539E-04	7.033339E-05
6.406956E+03	5.798420E-04	7.055634E-05
6.416858E+03	5.831065E-04	7.077512E-05
6.426761E+03	5.863682E-04	7.099225E-05
6.436663E+03	5.896308E-04	7.120819E-05
6.446566E+03	5.929072E-04	7.142448E-05
6.456468E+03	5.961819E-04	7.163928E-05
6.466371E+03	5.994860E-04	7.185631E-05
6.476273E+03	6.028040E-04	7.207368E-05
6.486176E+03	6.061479E-04	7.229284E-05
6.496079E+03	6.095205E-04	7.251409E-05
6.505981E+03	6.129147E-04	7.273659E-05
6.515884E+03	6.163423E-04	7.296170E-05
6.525786E+03	6.198061E-04	7.318976E-05
6.535689E+03	6.232993E-04	7.341994E-05
6.545591E+03	6.268245E-04	7.365253E-05
6.555494E+03	6.303841E-04	7.388780E-05
6.565396E+03	6.339911E-04	7.412727E-05
6.575299E+03	6.376271E-04	7.436875E-05
6.585202E+03	6.413042E-04	7.461366E-05
6.595104E+03	6.450240E-04	7.486216E-05
6.605007E+03	6.487769E-04	7.511313E-05
6.614909E+03	6.525742E-04	7.536789E-05
6.624812E+03	6.564054E-04	7.562520E-05
6.634714E+03	6.602816E-04	7.588635E-05
6.644617E+03	6.641808E-04	7.614879E-05
6.654520E+03	6.681139E-04	7.641382E-05
6.664422E+03	6.720928E-04	7.668275E-05
6.674325E+03	6.760947E-04	7.695304E-05
6.684227E+03	6.801314E-04	7.722603E-05
6.694130E+03	6.841918E-04	7.750047E-05
6.704032E+03	6.882881E-04	7.777776E-05
6.713935E+03	6.924093E-04	7.805669E-05
6.723837E+03	6.965558E-04	7.833735E-05
6.733740E+03	7.007417E-04	7.862135E-05
6.743643E+03	7.049431E-04	7.890601E-05
6.753545E+03	7.091867E-04	7.919439E-05
6.763448E+03	7.134482E-04	7.948381E-05
6.773350E+03	7.177544E-04	7.977728E-05
6.783253E+03	7.220802E-04	8.007207E-05
6.793155E+03	7.264248E-04	8.036815E-05
6.803058E+03	7.308014E-04	8.066704E-05
6.812960E+03	7.352089E-04	8.096865E-05
6.822863E+03	7.396187E-04	8.126991E-05
6.832766E+03	7.440559E-04	8.157367E-05
6.842668E+03	7.485041E-04	8.187820E-05
6.852571E+03	7.529744E-04	8.218479E-05
6.862473E+03	7.574354E-04	8.249010E-05
6.872376E+03	7.618969E-04	8.279531E-05
6.882278E+03	7.663552E-04	8.310014E-05
6.892181E+03	7.707914E-04	8.340262E-05
6.902083E+03	7.752157E-04	8.370401E-05
6.911986E+03	7.796241E-04	8.400399E-05
6.921889E+03	7.839967E-04	8.430057E-05
6.931791E+03	7.883295E-04	8.459345E-05
6.941694E+03	7.926184E-04	8.488235E-05
6.951596E+03	7.968755E-04	8.516873E-05
6.961499E+03	8.010663E-04	8.544908E-05
6.971401E+03	8.052194E-04	8.572660E-05
6.981304E+03	8.093009E-04	8.599788E-05
6.991207E+03	8.133236E-04	8.626447E-05
7.001109E+03	8.172703E-04	8.652471E-05
7.011012E+03	8.211553E-04	8.678034E-05
7.020914E+03	8.249779E-04	8.703146E-05
7.030817E+03	8.287210E-04	8.727650E-05
7.040719E+03	8.323683E-04	8.751390E-05
7.050622E+03	8.359525E-04	8.774738E-05
7.060524E+03	8.394584E-04	8.797550E-05
7.070427E+03	8.428866E-04	8.819856E-05
7.080330E+03	8.462386E-04	8.841693E-05
7.090232E+03	8.494982E-04	8.862914E-05
7.100135E+03	8.526843E-04	8.883739E-05
7.110037E+03	8.557809E-04	8.904022E-05
7.119940E+03	8.587906E-04	8.923815E-05
7.129842E+03	8.617340E-04	8.943352E-05
7.139745E+03	8.645967E-04	8.962509E-05
7.149647E+03	8.673998E-04	8.981523E-05
7.159550E+03	8.701108E-04	9.000084E-05
7.169453E+03	8.727503E-04	9.018426E-05
7.179355E+03	8.753209E-04	9.036598E-05
7.189258E+03	8.778241E-04	9.054639E-05
7.199160E+03	8.802609E-04	9.072580E-05
7.209063E+03	8.826299E-04	9.090432E-05
7.218965E+03	8.849109E-04	9.108006E-05
7.228868E+03	8.871202E-04	9.125495E-05
7.238770E+03	8.892546E-04	9.142886E-05
7.248673E+03	8.913104E-04	9.160165E-05
7.258576E+03	8.932644E-04	9.177116E-05
7.268478E+03	8.951328E-04	9.193925E-05
7.278381E+03	8.969322E-04	9.210786E-05
7.288283E+03	8.986204E-04	9.227286E-05
7.298186E+03	9.002146E-04	9.243622E-05
7.308088E+03	9.017125E-04	9.259791E-05
7.317991E+03	9.031322E-04	9.276000E-05
7.327894E+03	9.044523E-04	9.292047E-05
7.337796E+03	9.056923E-04	9.308152E-05
7.347699E+03	9.068722E-04	9.324539E-05
7.357601E+03	9.079740E-04	9.341042E-05
7.367504E+03	9.090411E-04	9.358123E-05
7.377406E+03	9.100359E-04	9.375414E-05
7.387309E+03	9.109846E-04	9.393201E-05
7.397211E+03	9.118721E-04	9.411346E-05
7.407114E+03	9.127261E-04	9.430150E-05
7.417017E+03	9.135128E-04	9.449279E-05
7.426919E+03	9.142625E-04	9.469062E-05
7.436822E+03	9.149838E-04	9.489603E-05
7.446724E+03	9.156615E-04	9.510758E-05
7.456627E+03	9.163367E-04	9.532969E-05
7.466529E+03	9.169658E-04	9.555778E-05
7.476432E+03	9.175707E-04	9.579404E-05
7.486334E+03	9.181317E-04	9.603624E-05
7.496237E+03	9.186719E-04	9.628667E-05
7.506140E+03	9.191734E-04	9.654329E-05
7.516042E+03	9.196619E-04	9.680867E-05
7.525945E+03	9.201190E-04	9.708069E-05
7.535847E+03	9.205471E-04	9.735945E-05
7.545750E+03	9.209700E-04	9.764732E-05
7.555652E+03	9.213670E-04	9.794192E-05
7.565555E+03	9.217386E-04	9.824315E-05
7.575457E+03	9.221065E-04	9.855315E-05
7.585360E+03	9.224479E-04	9.886932E-05
7.595263E+03	9.227828E-04	9.919363E-05
7.605165E+03	9.230630E-04	9.952071E-05
7.615068E+03	9.233307E-04	9.985492E-05
7.624970E+03	9.235826E-04	1.001957E-04
7.634873E+03	9.237927E-04	1.005401E-04
7.644775E+03	9.239803E-04	1.008900E-04
7.654678E+03	9.241198E-04	1.012423E-04
7.664581E+03	9.242082E-04	1.015966E-04
7.674483E+03	9.242663E-04	1.019550E-04
7.684386E+03	9.242902E-04	1.023167E-04
