#wls	flux	fluxerr
1.584409E+03	3.509942E-03	1.422475E-03
1.624020E+03	3.621238E-03	1.467003E-03
1.663630E+03	3.730187E-03	1.510515E-03
1.703240E+03	3.836395E-03	1.552851E-03
1.742850E+03	3.938258E-03	1.593357E-03
1.782461E+03	4.035132E-03	1.631775E-03
1.822071E+03	4.125544E-03	1.667506E-03
1.861681E+03	4.208617E-03	1.700198E-03
1.901291E+03	4.283024E-03	1.729317E-03
1.940902E+03	4.347364E-03	1.754300E-03
1.980512E+03	4.399556E-03	1.774311E-03
2.020122E+03	4.438205E-03	1.788796E-03
2.059732E+03	4.461660E-03	1.797096E-03
2.099342E+03	4.467557E-03	1.798270E-03
2.138953E+03	4.453872E-03	1.791518E-03
2.178563E+03	4.418231E-03	1.775901E-03
2.218173E+03	4.358672E-03	1.750650E-03
2.257783E+03	4.274913E-03	1.715675E-03
2.297394E+03	4.167673E-03	1.671288E-03
2.337004E+03	4.040117E-03	1.618784E-03
2.376614E+03	3.895067E-03	1.559317E-03
2.416224E+03	3.735070E-03	1.493927E-03
2.455835E+03	3.562924E-03	1.423754E-03
2.495445E+03	3.380824E-03	1.349693E-03
2.535055E+03	3.190712E-03	1.272536E-03
2.574665E+03	2.994954E-03	1.193242E-03
2.614276E+03	2.795339E-03	1.112538E-03
2.653886E+03	2.593972E-03	1.031271E-03
2.693496E+03	2.392655E-03	9.501669E-04
2.733106E+03	2.193511E-03	8.700761E-04
2.772716E+03	1.998365E-03	7.917255E-04
2.812327E+03	1.809144E-03	7.158799E-04
2.851937E+03	1.627677E-03	6.432608E-04
2.891547E+03	1.455639E-03	5.745248E-04
2.931157E+03	1.294476E-03	5.102340E-04
2.970768E+03	1.145316E-03	4.508225E-04
2.980670E+03	1.109988E-03	4.367645E-04
2.990573E+03	1.075478E-03	4.230368E-04
3.000475E+03	1.041762E-03	4.096303E-04
3.010378E+03	1.008888E-03	3.965628E-04
3.020280E+03	9.768290E-04	3.838242E-04
3.030183E+03	9.455842E-04	3.714135E-04
3.040086E+03	9.151511E-04	3.593296E-04
3.049988E+03	8.855637E-04	3.475855E-04
3.059891E+03	8.567783E-04	3.361639E-04
3.069793E+03	8.288244E-04	3.250759E-04
3.079696E+03	8.016774E-04	3.143118E-04
3.089598E+03	7.753451E-04	3.038741E-04
3.099501E+03	7.498180E-04	2.937590E-04
3.109403E+03	7.250860E-04	2.839622E-04
3.119306E+03	7.011393E-04	2.744796E-04
3.129209E+03	6.779793E-04	2.653113E-04
3.139111E+03	6.555816E-04	2.564477E-04
3.149014E+03	6.339461E-04	2.478883E-04
3.158916E+03	6.130593E-04	2.396276E-04
3.168819E+03	5.929073E-04	2.316599E-04
3.178721E+03	5.734861E-04	2.239832E-04
3.188624E+03	5.547606E-04	2.165837E-04
3.198526E+03	5.367447E-04	2.094665E-04
3.208429E+03	5.193945E-04	2.026142E-04
3.218332E+03	5.027210E-04	1.960308E-04
3.228234E+03	4.866903E-04	1.897027E-04
3.238137E+03	4.712943E-04	1.836266E-04
3.248039E+03	4.565159E-04	1.777955E-04
3.257942E+03	4.423314E-04	1.722001E-04
3.267844E+03	4.287379E-04	1.668388E-04
3.277747E+03	4.157049E-04	1.616996E-04
3.287650E+03	4.032164E-04	1.567760E-04
3.297552E+03	3.912678E-04	1.520660E-04
3.307455E+03	3.798307E-04	1.475584E-04
3.317357E+03	3.688894E-04	1.432466E-04
3.327260E+03	3.584281E-04	1.391246E-04
3.337162E+03	3.484363E-04	1.351880E-04
3.347065E+03	3.388890E-04	1.314268E-04
3.356967E+03	3.297714E-04	1.278351E-04
3.366870E+03	3.210738E-04	1.244089E-04
3.376773E+03	3.127775E-04	1.211410E-04
3.386675E+03	3.048689E-04	1.180256E-04
3.396578E+03	2.973268E-04	1.150546E-04
3.406480E+03	2.901430E-04	1.122246E-04
3.416383E+03	2.833047E-04	1.095304E-04
3.426285E+03	2.767933E-04	1.069646E-04
3.436188E+03	2.705978E-04	1.045230E-04
3.446090E+03	2.647045E-04	1.022000E-04
3.455993E+03	2.591062E-04	9.999271E-05
3.465896E+03	2.537842E-04	9.789379E-05
3.475798E+03	2.487326E-04	9.590083E-05
3.485701E+03	2.439370E-04	9.400814E-05
3.495603E+03	2.393865E-04	9.221142E-05
3.505506E+03	2.350711E-04	9.050670E-05
3.515408E+03	2.309788E-04	8.888919E-05
3.525311E+03	2.271032E-04	8.735634E-05
3.535213E+03	2.234307E-04	8.590288E-05
3.545116E+03	2.199538E-04	8.452571E-05
3.555019E+03	2.166672E-04	8.322279E-05
3.564921E+03	2.135616E-04	8.199042E-05
3.574824E+03	2.106302E-04	8.082588E-05
3.584726E+03	2.078648E-04	7.972595E-05
3.594629E+03	2.052570E-04	7.868737E-05
3.604531E+03	2.028019E-04	7.770809E-05
3.614434E+03	2.004899E-04	7.678442E-05
3.624337E+03	1.983183E-04	7.591524E-05
3.634239E+03	1.962787E-04	7.509724E-05
3.644142E+03	1.943670E-04	7.432879E-05
3.654044E+03	1.925807E-04	7.360887E-05
3.663947E+03	1.909121E-04	7.293452E-05
3.673849E+03	1.893578E-04	7.230430E-05
3.683752E+03	1.879176E-04	7.171809E-05
3.693654E+03	1.865858E-04	7.117368E-05
3.703557E+03	1.853592E-04	7.066982E-05
3.713460E+03	1.842376E-04	7.020628E-05
3.723362E+03	1.832158E-04	6.978111E-05
3.733265E+03	1.822923E-04	6.939363E-05
3.743167E+03	1.814667E-04	6.904369E-05
3.753070E+03	1.807358E-04	6.872995E-05
3.762972E+03	1.800979E-04	6.845175E-05
3.772875E+03	1.795511E-04	6.820835E-05
3.782777E+03	1.790940E-04	6.799908E-05
3.792680E+03	1.787261E-04	6.782377E-05
3.802583E+03	1.784446E-04	6.768125E-05
3.812485E+03	1.782490E-04	6.757135E-05
3.822388E+03	1.781392E-04	6.749394E-05
3.832290E+03	1.781123E-04	6.744787E-05
3.842193E+03	1.781665E-04	6.743243E-05
3.852095E+03	1.783031E-04	6.744804E-05
3.861998E+03	1.785207E-04	6.749413E-05
3.871900E+03	1.788158E-04	6.756933E-05
3.881803E+03	1.791899E-04	6.767417E-05
3.891706E+03	1.796428E-04	6.780856E-05
3.901608E+03	1.801697E-04	6.797057E-05
3.911511E+03	1.807718E-04	6.816065E-05
3.921413E+03	1.814487E-04	6.837860E-05
3.931316E+03	1.821988E-04	6.862377E-05
3.941218E+03	1.830184E-04	6.889472E-05
3.951121E+03	1.839102E-04	6.919244E-05
3.961024E+03	1.848707E-04	6.951556E-05
3.970926E+03	1.858978E-04	6.986325E-05
3.980829E+03	1.869926E-04	7.023586E-05
3.990731E+03	1.881513E-04	7.063198E-05
4.000634E+03	1.893750E-04	7.105192E-05
4.010536E+03	1.906584E-04	7.149368E-05
4.020439E+03	1.920040E-04	7.195814E-05
4.030341E+03	1.934081E-04	7.244394E-05
4.040244E+03	1.948687E-04	7.295022E-05
4.050147E+03	1.963866E-04	7.347734E-05
4.060049E+03	1.979567E-04	7.402325E-05
4.069952E+03	1.995816E-04	7.458895E-05
4.079854E+03	2.012561E-04	7.517242E-05
4.089757E+03	2.029797E-04	7.577351E-05
4.099659E+03	2.047521E-04	7.639205E-05
4.109562E+03	2.065696E-04	7.702662E-05
4.119464E+03	2.084320E-04	7.767714E-05
4.129367E+03	2.103375E-04	7.834290E-05
4.139270E+03	2.122824E-04	7.902246E-05
4.149172E+03	2.142681E-04	7.971638E-05
4.159075E+03	2.162895E-04	8.042275E-05
4.168977E+03	2.183482E-04	8.114208E-05
4.178880E+03	2.204391E-04	8.187248E-05
4.188782E+03	2.225619E-04	8.261384E-05
4.198685E+03	2.247148E-04	8.336547E-05
4.208587E+03	2.268926E-04	8.412541E-05
4.218490E+03	2.290971E-04	8.489432E-05
4.228393E+03	2.313246E-04	8.567082E-05
4.238295E+03	2.335715E-04	8.645358E-05
4.248198E+03	2.358340E-04	8.724116E-05
4.258100E+03	2.381124E-04	8.803365E-05
4.268003E+03	2.404047E-04	8.883039E-05
4.277905E+03	2.427036E-04	8.962858E-05
4.287808E+03	2.450110E-04	9.042898E-05
4.297711E+03	2.473194E-04	9.122881E-05
4.307613E+03	2.496308E-04	9.202882E-05
4.317516E+03	2.519398E-04	9.282701E-05
4.327418E+03	2.542465E-04	9.362342E-05
4.337321E+03	2.565514E-04	9.441825E-05
4.347223E+03	2.588550E-04	9.521170E-05
4.357126E+03	2.611579E-04	9.600395E-05
4.367028E+03	2.634624E-04	9.679590E-05
4.376931E+03	2.657711E-04	9.758852E-05
4.386834E+03	2.680848E-04	9.838207E-05
4.396736E+03	2.704062E-04	9.917756E-05
4.406639E+03	2.727339E-04	9.997446E-05
4.416541E+03	2.750735E-04	1.007748E-04
4.426444E+03	2.774235E-04	1.015782E-04
4.436346E+03	2.797854E-04	1.023850E-04
4.446249E+03	2.821600E-04	1.031956E-04
4.456151E+03	2.845488E-04	1.040105E-04
4.466054E+03	2.869531E-04	1.048301E-04
4.475957E+03	2.893741E-04	1.056551E-04
4.485859E+03	2.918084E-04	1.064839E-04
4.495762E+03	2.942621E-04	1.073189E-04
4.505664E+03	2.967319E-04	1.081589E-04
4.515567E+03	2.992190E-04	1.090043E-04
4.525469E+03	3.017223E-04	1.098547E-04
4.535372E+03	3.042459E-04	1.107115E-04
4.545274E+03	3.067889E-04	1.115744E-04
4.555177E+03	3.093475E-04	1.124420E-04
4.565080E+03	3.119284E-04	1.133168E-04
4.574982E+03	3.145281E-04	1.141974E-04
4.584885E+03	3.171450E-04	1.150832E-04
4.594787E+03	3.197841E-04	1.159761E-04
4.604690E+03	3.224471E-04	1.168767E-04
4.614592E+03	3.251271E-04	1.177824E-04
4.624495E+03	3.278320E-04	1.186960E-04
4.634398E+03	3.305610E-04	1.196173E-04
4.644300E+03	3.333132E-04	1.205460E-04
4.654203E+03	3.360915E-04	1.214830E-04
4.664105E+03	3.388950E-04	1.224280E-04
4.674008E+03	3.417270E-04	1.233822E-04
4.683910E+03	3.445811E-04	1.243432E-04
4.693813E+03	3.474603E-04	1.253122E-04
4.703715E+03	3.503683E-04	1.262903E-04
4.713618E+03	3.532955E-04	1.272743E-04
4.723521E+03	3.562491E-04	1.282665E-04
4.733423E+03	3.592262E-04	1.292660E-04
4.743326E+03	3.622237E-04	1.302716E-04
4.753228E+03	3.652490E-04	1.312859E-04
4.763131E+03	3.682920E-04	1.323054E-04
4.773033E+03	3.713637E-04	1.333339E-04
4.782936E+03	3.744536E-04	1.343677E-04
4.792838E+03	3.775689E-04	1.354093E-04
4.802741E+03	3.807027E-04	1.364562E-04
4.812644E+03	3.838623E-04	1.375110E-04
4.822546E+03	3.870399E-04	1.385710E-04
4.832449E+03	3.902396E-04	1.396374E-04
4.842351E+03	3.934608E-04	1.407102E-04
4.852254E+03	3.966998E-04	1.417880E-04
4.862156E+03	3.999559E-04	1.428705E-04
4.872059E+03	4.032289E-04	1.439576E-04
4.881961E+03	4.065222E-04	1.450504E-04
4.891864E+03	4.098275E-04	1.461461E-04
4.901767E+03	4.131519E-04	1.472472E-04
4.911669E+03	4.164866E-04	1.483504E-04
4.921572E+03	4.198348E-04	1.494569E-04
4.931474E+03	4.231911E-04	1.505648E-04
4.941377E+03	4.265539E-04	1.516735E-04
4.951279E+03	4.299218E-04	1.527825E-04
4.961182E+03	4.332966E-04	1.538924E-04
4.971085E+03	4.366676E-04	1.549993E-04
4.980987E+03	4.400361E-04	1.561038E-04
4.990890E+03	4.433948E-04	1.572033E-04
5.000792E+03	4.467443E-04	1.582979E-04
5.010695E+03	4.500761E-04	1.593846E-04
5.020597E+03	4.533812E-04	1.604604E-04
5.030500E+03	4.566591E-04	1.615249E-04
5.040402E+03	4.599045E-04	1.625763E-04
5.050305E+03	4.631069E-04	1.636110E-04
5.060208E+03	4.662556E-04	1.646251E-04
5.070110E+03	4.693530E-04	1.656196E-04
5.080013E+03	4.723828E-04	1.665887E-04
5.089915E+03	4.753380E-04	1.675299E-04
5.099818E+03	4.782106E-04	1.684406E-04
5.109720E+03	4.809928E-04	1.693179E-04
5.119623E+03	4.836720E-04	1.701576E-04
5.129525E+03	4.862444E-04	1.709583E-04
5.139428E+03	4.886921E-04	1.717138E-04
5.149331E+03	4.910112E-04	1.724228E-04
5.159233E+03	4.931832E-04	1.730789E-04
5.169136E+03	4.952087E-04	1.736825E-04
5.179038E+03	4.970691E-04	1.742269E-04
5.188941E+03	4.987598E-04	1.747108E-04
5.198843E+03	5.002617E-04	1.751276E-04
5.208746E+03	5.015705E-04	1.754758E-04
5.218648E+03	5.026764E-04	1.757522E-04
5.228551E+03	5.035605E-04	1.759504E-04
5.238454E+03	5.042135E-04	1.760671E-04
5.248356E+03	5.046318E-04	1.761013E-04
5.258259E+03	5.048023E-04	1.760486E-04
5.268161E+03	5.047126E-04	1.759047E-04
5.278064E+03	5.043559E-04	1.756676E-04
5.287966E+03	5.037271E-04	1.753357E-04
5.297869E+03	5.028219E-04	1.749075E-04
5.307772E+03	5.016328E-04	1.743807E-04
5.317674E+03	5.001644E-04	1.737571E-04
5.327577E+03	4.984128E-04	1.730354E-04
5.337479E+03	4.963865E-04	1.722190E-04
5.347382E+03	4.940866E-04	1.713083E-04
5.357284E+03	4.915314E-04	1.703098E-04
5.367187E+03	4.887365E-04	1.692292E-04
5.377089E+03	4.857108E-04	1.680696E-04
5.386992E+03	4.824848E-04	1.668418E-04
5.396895E+03	4.790769E-04	1.655524E-04
5.406797E+03	4.754887E-04	1.642019E-04
5.416700E+03	4.717575E-04	1.628035E-04
5.426602E+03	4.678988E-04	1.613625E-04
5.436505E+03	4.639295E-04	1.598848E-04
5.446407E+03	4.598729E-04	1.583787E-04
5.456310E+03	4.557484E-04	1.568507E-04
5.466212E+03	4.515764E-04	1.553081E-04
5.476115E+03	4.473870E-04	1.537611E-04
5.486018E+03	4.432007E-04	1.522169E-04
5.495920E+03	4.390520E-04	1.506873E-04
5.505823E+03	4.349697E-04	1.491821E-04
5.515725E+03	4.309778E-04	1.477095E-04
5.525628E+03	4.271073E-04	1.462801E-04
5.535530E+03	4.233834E-04	1.449025E-04
5.545433E+03	4.198298E-04	1.435846E-04
5.555335E+03	4.164722E-04	1.423350E-04
5.565238E+03	4.133293E-04	1.411602E-04
5.575141E+03	4.104182E-04	1.400656E-04
5.585043E+03	4.077569E-04	1.390574E-04
5.594946E+03	4.053570E-04	1.381392E-04
5.604848E+03	4.032313E-04	1.373152E-04
5.614751E+03	4.013864E-04	1.365876E-04
5.624653E+03	3.998260E-04	1.359573E-04
5.634556E+03	3.985558E-04	1.354260E-04
5.644459E+03	3.975756E-04	1.349936E-04
5.654361E+03	3.968831E-04	1.346589E-04
5.664264E+03	3.964791E-04	1.344221E-04
5.674166E+03	3.963589E-04	1.342813E-04
5.684069E+03	3.965215E-04	1.342360E-04
5.693971E+03	3.969567E-04	1.342825E-04
5.703874E+03	3.976671E-04	1.344215E-04
5.713776E+03	3.986428E-04	1.346494E-04
5.723679E+03	3.998785E-04	1.349643E-04
5.733582E+03	4.013779E-04	1.353671E-04
5.743484E+03	4.031282E-04	1.358534E-04
5.753387E+03	4.051347E-04	1.364247E-04
5.763289E+03	4.073947E-04	1.370799E-04
5.773192E+03	4.099063E-04	1.378183E-04
5.783094E+03	4.126633E-04	1.386374E-04
5.792997E+03	4.156739E-04	1.395399E-04
5.802899E+03	4.189328E-04	1.405238E-04
5.812802E+03	4.224441E-04	1.415902E-04
5.822705E+03	4.262078E-04	1.427390E-04
5.832607E+03	4.302190E-04	1.439683E-04
5.842510E+03	4.344819E-04	1.452792E-04
5.852412E+03	4.390010E-04	1.466732E-04
5.862315E+03	4.437657E-04	1.481464E-04
5.872217E+03	4.487800E-04	1.496999E-04
5.882120E+03	4.540419E-04	1.513330E-04
5.892022E+03	4.595547E-04	1.530464E-04
5.901925E+03	4.653055E-04	1.548356E-04
5.911828E+03	4.713010E-04	1.567028E-04
5.921730E+03	4.775270E-04	1.586430E-04
5.931633E+03	4.839838E-04	1.606560E-04
5.941535E+03	4.906662E-04	1.627400E-04
5.951438E+03	4.975622E-04	1.648908E-04
5.961340E+03	5.046705E-04	1.671077E-04
5.971243E+03	5.119714E-04	1.693840E-04
5.981146E+03	5.194681E-04	1.717208E-04
5.991048E+03	5.271329E-04	1.741085E-04
6.000951E+03	5.349671E-04	1.765475E-04
6.010853E+03	5.429467E-04	1.790298E-04
6.020756E+03	5.510659E-04	1.815533E-04
6.030658E+03	5.592979E-04	1.841090E-04
6.040561E+03	5.676286E-04	1.866923E-04
6.050463E+03	5.760355E-04	1.892956E-04
6.060366E+03	5.845027E-04	1.919136E-04
6.070269E+03	5.929992E-04	1.945361E-04
6.080171E+03	6.014998E-04	1.971548E-04
6.090074E+03	6.099863E-04	1.997638E-04
6.099976E+03	6.184327E-04	2.023545E-04
6.109879E+03	6.267974E-04	2.049134E-04
6.119781E+03	6.350613E-04	2.074343E-04
6.129684E+03	6.431978E-04	2.099086E-04
6.139586E+03	6.511890E-04	2.123306E-04
6.149489E+03	6.590258E-04	2.146975E-04
6.159392E+03	6.667014E-04	2.170070E-04
6.169294E+03	6.742190E-04	2.192606E-04
6.179197E+03	6.816016E-04	2.214657E-04
6.189099E+03	6.888492E-04	2.236225E-04
6.199002E+03	6.959545E-04	2.257287E-04
6.208904E+03	7.029477E-04	2.277942E-04
6.218807E+03	7.098342E-04	2.298210E-04
6.228709E+03	7.166018E-04	2.318051E-04
6.238612E+03	7.232870E-04	2.337585E-04
6.248515E+03	7.298700E-04	2.356748E-04
6.258417E+03	7.363805E-04	2.375637E-04
6.268320E+03	7.428098E-04	2.394224E-04
6.278222E+03	7.491695E-04	2.412548E-04
6.288125E+03	7.554617E-04	2.430616E-04
6.298027E+03	7.616890E-04	2.448437E-04
6.307930E+03	7.678537E-04	2.466018E-04
6.317833E+03	7.739479E-04	2.483335E-04
6.327735E+03	7.799631E-04	2.500361E-04
6.337638E+03	7.859124E-04	2.517139E-04
6.347540E+03	7.917757E-04	2.533605E-04
6.357443E+03	7.975664E-04	2.549802E-04
6.367345E+03	8.032750E-04	2.565701E-04
6.377248E+03	8.089035E-04	2.581309E-04
6.387150E+03	8.144659E-04	2.596672E-04
6.397053E+03	8.199893E-04	2.611875E-04
6.406956E+03	8.254770E-04	2.626931E-04
6.416858E+03	8.309454E-04	2.641890E-04
6.426761E+03	8.364114E-04	2.656809E-04
6.436663E+03	8.418669E-04	2.671660E-04
6.446566E+03	8.473424E-04	2.686540E-04
6.456468E+03	8.528430E-04	2.701466E-04
6.466371E+03	8.583608E-04	2.716413E-04
6.476273E+03	8.639274E-04	2.731479E-04
6.486176E+03	8.695348E-04	2.746641E-04
6.496079E+03	8.751740E-04	2.761868E-04
6.505981E+03	8.808773E-04	2.777262E-04
6.515884E+03	8.866357E-04	2.792796E-04
6.525786E+03	8.924533E-04	2.808480E-04
6.535689E+03	8.983490E-04	2.824375E-04
6.545591E+03	9.042975E-04	2.840400E-04
6.555494E+03	9.103019E-04	2.856564E-04
6.565396E+03	9.163944E-04	2.872969E-04
6.575299E+03	9.225482E-04	2.889529E-04
6.585202E+03	9.287648E-04	2.906249E-04
6.595104E+03	9.350611E-04	2.923181E-04
6.605007E+03	9.414225E-04	2.940279E-04
6.614909E+03	9.478494E-04	2.957545E-04
6.624812E+03	9.543581E-04	2.975028E-04
6.634714E+03	9.609154E-04	2.992625E-04
6.644617E+03	9.675199E-04	3.010330E-04
6.654520E+03	9.742032E-04	3.028243E-04
6.664422E+03	9.809300E-04	3.046252E-04
6.674325E+03	9.876974E-04	3.064350E-04
6.684227E+03	9.945198E-04	3.082580E-04
6.694130E+03	1.001376E-03	3.100878E-04
6.704032E+03	1.008263E-03	3.119231E-04
6.713935E+03	1.015177E-03	3.137629E-04
6.723837E+03	1.022112E-03	3.156055E-04
6.733740E+03	1.029045E-03	3.174440E-04
6.743643E+03	1.035991E-03	3.192825E-04
6.753545E+03	1.042944E-03	3.211195E-04
6.763448E+03	1.049879E-03	3.229475E-04
6.773350E+03	1.056810E-03	3.247707E-04
6.783253E+03	1.063714E-03	3.265818E-04
6.793155E+03	1.070582E-03	3.283788E-04
6.803058E+03	1.077411E-03	3.301601E-04
6.812960E+03	1.084174E-03	3.319180E-04
6.822863E+03	1.090906E-03	3.336630E-04
6.832766E+03	1.097581E-03	3.353876E-04
6.842668E+03	1.104174E-03	3.370839E-04
6.852571E+03	1.110699E-03	3.387566E-04
6.862473E+03	1.117131E-03	3.403980E-04
6.872376E+03	1.123464E-03	3.420065E-04
6.882278E+03	1.129715E-03	3.435874E-04
6.892181E+03	1.135857E-03	3.451328E-04
6.902083E+03	1.141887E-03	3.466416E-04
6.911986E+03	1.147800E-03	3.481126E-04
6.921889E+03	1.153592E-03	3.495449E-04
6.931791E+03	1.159238E-03	3.509308E-04
6.941694E+03	1.164780E-03	3.522833E-04
6.951596E+03	1.170169E-03	3.535880E-04
6.961499E+03	1.175404E-03	3.548447E-04
6.971401E+03	1.180507E-03	3.560599E-04
6.981304E+03	1.185454E-03	3.572268E-04
6.991207E+03	1.190244E-03	3.583456E-04
7.001109E+03	1.194880E-03	3.594168E-04
7.011012E+03	1.199361E-03	3.604409E-04
7.020914E+03	1.203716E-03	3.614263E-04
7.030817E+03	1.207900E-03	3.623599E-04
7.040719E+03	1.211916E-03	3.632429E-04
7.050622E+03	1.215794E-03	3.640845E-04
7.060524E+03	1.219540E-03	3.648867E-04
7.070427E+03	1.223137E-03	3.656444E-04
7.080330E+03	1.226617E-03	3.663675E-04
7.090232E+03	1.229938E-03	3.670438E-04
7.100135E+03	1.233160E-03	3.676910E-04
7.110037E+03	1.236266E-03	3.683045E-04
7.119940E+03	1.239266E-03	3.688875E-04
7.129842E+03	1.242144E-03	3.694352E-04
7.139745E+03	1.244961E-03	3.699660E-04
7.149647E+03	1.247675E-03	3.704676E-04
7.159550E+03	1.250320E-03	3.709502E-04
7.169453E+03	1.252878E-03	3.714088E-04
7.179355E+03	1.255383E-03	3.718533E-04
7.189258E+03	1.257814E-03	3.722779E-04
7.199160E+03	1.260176E-03	3.726840E-04
7.209063E+03	1.262499E-03	3.730807E-04
7.218965E+03	1.264757E-03	3.734607E-04
7.228868E+03	1.266980E-03	3.738324E-04
7.238770E+03	1.269110E-03	3.741796E-04
7.248673E+03	1.271174E-03	3.745098E-04
7.258576E+03	1.273196E-03	3.748303E-04
7.268478E+03	1.275117E-03	3.751242E-04
7.278381E+03	1.276960E-03	3.753982E-04
7.288283E+03	1.278694E-03	3.756432E-04
7.298186E+03	1.280342E-03	3.758663E-04
7.308088E+03	1.281871E-03	3.760582E-04
7.317991E+03	1.283280E-03	3.762183E-04
7.327894E+03	1.284566E-03	3.763462E-04
7.337796E+03	1.285700E-03	3.764335E-04
7.347699E+03	1.286682E-03	3.764806E-04
7.357601E+03	1.287515E-03	3.764881E-04
7.367504E+03	1.288202E-03	3.764573E-04
7.377406E+03	1.288777E-03	3.763984E-04
7.387309E+03	1.289217E-03	3.763049E-04
7.397211E+03	1.289588E-03	3.761960E-04
7.407114E+03	1.289900E-03	3.760747E-04
7.417017E+03	1.290160E-03	3.759435E-04
7.426919E+03	1.290378E-03	3.758052E-04
7.436822E+03	1.290561E-03	3.756620E-04
7.446724E+03	1.290773E-03	3.755325E-04
7.456627E+03	1.290956E-03	3.753999E-04
7.466529E+03	1.291138E-03	3.752725E-04
7.476432E+03	1.291317E-03	3.751496E-04
7.486334E+03	1.291521E-03	3.750391E-04
7.496237E+03	1.291688E-03	3.749230E-04
7.506140E+03	1.291844E-03	3.748090E-04
7.516042E+03	1.291989E-03	3.746966E-04
7.525945E+03	1.292149E-03	3.745939E-04
7.535847E+03	1.292265E-03	3.744832E-04
7.545750E+03	1.292396E-03	3.743818E-04
7.555652E+03	1.292512E-03	3.742810E-04
7.565555E+03	1.292584E-03	3.741721E-04
7.575457E+03	1.292674E-03	3.740730E-04
7.585360E+03	1.292752E-03	3.739755E-04
7.595263E+03	1.292821E-03	3.738798E-04
7.605165E+03	1.292882E-03	3.737865E-04
7.615068E+03	1.292937E-03	3.736959E-04
7.624970E+03	1.292988E-03	3.736086E-04
7.634873E+03	1.293067E-03	3.735338E-04
7.644775E+03	1.293111E-03	3.734533E-04
7.654678E+03	1.293184E-03	3.733855E-04
7.664581E+03	1.293253E-03	3.733209E-04
7.674483E+03	1.293318E-03	3.732591E-04
7.684386E+03	1.293375E-03	3.731993E-04
