#wls	flux	fluxerr
1.584409E+03	4.827219E-03	9.663206E-04
1.624020E+03	4.935645E-03	9.848628E-04
1.663630E+03	5.041665E-03	1.002696E-03
1.703240E+03	5.146343E-03	1.020029E-03
1.742850E+03	5.248210E-03	1.036565E-03
1.782461E+03	5.346655E-03	1.052183E-03
1.822071E+03	5.441415E-03	1.066831E-03
1.861681E+03	5.531182E-03	1.080252E-03
1.901291E+03	5.615035E-03	1.092272E-03
1.940902E+03	5.691951E-03	1.102698E-03
1.980512E+03	5.760028E-03	1.111173E-03
2.020122E+03	5.818597E-03	1.117583E-03
2.059732E+03	5.865020E-03	1.121442E-03
2.099342E+03	5.896873E-03	1.122314E-03
2.138953E+03	5.912373E-03	1.119894E-03
2.178563E+03	5.908986E-03	1.113747E-03
2.218173E+03	5.883699E-03	1.103358E-03
2.257783E+03	5.836648E-03	1.088815E-03
2.297394E+03	5.767626E-03	1.070143E-03
2.337004E+03	5.678966E-03	1.047842E-03
2.376614E+03	5.573101E-03	1.022424E-03
2.416224E+03	5.452247E-03	9.943539E-04
2.455835E+03	5.318632E-03	9.640904E-04
2.495445E+03	5.173381E-03	9.318877E-04
2.535055E+03	5.018391E-03	8.981346E-04
2.574665E+03	4.854448E-03	8.630153E-04
2.614276E+03	4.682578E-03	8.267553E-04
2.653886E+03	4.503549E-03	7.895306E-04
2.693496E+03	4.318411E-03	7.515648E-04
2.733106E+03	4.128051E-03	7.130487E-04
2.772716E+03	3.933401E-03	6.741782E-04
2.812327E+03	3.735788E-03	6.352121E-04
2.851937E+03	3.536520E-03	5.963997E-04
2.891547E+03	3.337219E-03	5.580361E-04
2.931157E+03	3.139609E-03	5.204249E-04
2.970768E+03	2.945444E-03	4.838641E-04
2.980670E+03	2.897626E-03	4.749186E-04
2.990573E+03	2.850163E-03	4.660617E-04
3.000475E+03	2.803067E-03	4.572950E-04
3.010378E+03	2.756416E-03	4.486313E-04
3.020280E+03	2.710164E-03	4.400627E-04
3.030183E+03	2.664327E-03	4.315917E-04
3.040086E+03	2.619035E-03	4.232390E-04
3.049988E+03	2.574190E-03	4.149887E-04
3.059891E+03	2.529918E-03	4.068604E-04
3.069793E+03	2.486180E-03	3.988477E-04
3.079696E+03	2.442994E-03	3.909530E-04
3.089598E+03	2.400475E-03	3.831941E-04
3.099501E+03	2.358541E-03	3.755578E-04
3.109403E+03	2.317260E-03	3.680540E-04
3.119306E+03	2.276650E-03	3.606854E-04
3.129209E+03	2.236775E-03	3.534611E-04
3.139111E+03	2.197611E-03	3.463771E-04
3.149014E+03	2.159221E-03	3.394425E-04
3.158916E+03	2.121626E-03	3.326598E-04
3.168819E+03	2.084812E-03	3.260261E-04
3.178721E+03	2.048840E-03	3.195501E-04
3.188624E+03	2.013769E-03	3.132402E-04
3.198526E+03	1.979551E-03	3.070881E-04
3.208429E+03	1.946278E-03	3.011069E-04
3.218332E+03	1.913904E-03	2.952889E-04
3.228234E+03	1.882547E-03	2.896510E-04
3.238137E+03	1.852131E-03	2.841807E-04
3.248039E+03	1.822706E-03	2.788843E-04
3.257942E+03	1.794317E-03	2.737678E-04
3.267844E+03	1.766948E-03	2.688275E-04
3.277747E+03	1.740640E-03	2.640684E-04
3.287650E+03	1.715347E-03	2.594826E-04
3.297552E+03	1.691108E-03	2.550745E-04
3.307455E+03	1.667929E-03	2.508439E-04
3.317357E+03	1.645816E-03	2.467904E-04
3.327260E+03	1.624774E-03	2.429134E-04
3.337162E+03	1.604782E-03	2.392086E-04
3.347065E+03	1.585845E-03	2.356753E-04
3.356967E+03	1.567964E-03	2.323126E-04
3.366870E+03	1.551140E-03	2.291192E-04
3.376773E+03	1.535353E-03	2.260909E-04
3.386675E+03	1.520605E-03	2.232264E-04
3.396578E+03	1.506895E-03	2.205245E-04
3.406480E+03	1.494203E-03	2.179808E-04
3.416383E+03	1.482528E-03	2.155942E-04
3.426285E+03	1.471872E-03	2.133630E-04
3.436188E+03	1.462195E-03	2.112806E-04
3.446090E+03	1.453516E-03	2.093483E-04
3.455993E+03	1.445817E-03	2.075621E-04
3.465896E+03	1.439081E-03	2.059182E-04
3.475798E+03	1.433306E-03	2.044152E-04
3.485701E+03	1.428459E-03	2.030470E-04
3.495603E+03	1.424541E-03	2.018125E-04
3.505506E+03	1.421536E-03	2.007081E-04
3.515408E+03	1.419429E-03	1.997304E-04
3.525311E+03	1.418204E-03	1.988759E-04
3.535213E+03	1.417847E-03	1.981415E-04
3.545116E+03	1.418327E-03	1.975216E-04
3.555019E+03	1.419647E-03	1.970152E-04
3.564921E+03	1.421776E-03	1.966171E-04
3.574824E+03	1.424716E-03	1.963262E-04
3.584726E+03	1.428422E-03	1.961352E-04
3.594629E+03	1.432910E-03	1.960453E-04
3.604531E+03	1.438121E-03	1.960471E-04
3.614434E+03	1.444056E-03	1.961397E-04
3.624337E+03	1.450683E-03	1.963178E-04
3.634239E+03	1.458003E-03	1.965803E-04
3.644142E+03	1.465970E-03	1.969201E-04
3.654044E+03	1.474580E-03	1.973359E-04
3.663947E+03	1.483803E-03	1.978222E-04
3.673849E+03	1.493633E-03	1.983777E-04
3.683752E+03	1.504037E-03	1.989969E-04
3.693654E+03	1.515021E-03	1.996798E-04
3.703557E+03	1.526535E-03	2.004189E-04
3.713460E+03	1.538585E-03	2.012140E-04
3.723362E+03	1.551144E-03	2.020610E-04
3.733265E+03	1.564202E-03	2.029577E-04
3.743167E+03	1.577731E-03	2.038996E-04
3.753070E+03	1.591730E-03	2.048860E-04
3.762972E+03	1.606156E-03	2.059105E-04
3.772875E+03	1.621006E-03	2.069720E-04
3.782777E+03	1.636261E-03	2.080676E-04
3.792680E+03	1.651902E-03	2.091941E-04
3.802583E+03	1.667908E-03	2.103483E-04
3.812485E+03	1.684243E-03	2.115251E-04
3.822388E+03	1.700914E-03	2.127248E-04
3.832290E+03	1.717898E-03	2.139440E-04
3.842193E+03	1.735155E-03	2.151771E-04
3.852095E+03	1.752673E-03	2.164226E-04
3.861998E+03	1.770428E-03	2.176767E-04
3.871900E+03	1.788406E-03	2.189377E-04
3.881803E+03	1.806566E-03	2.201998E-04
3.891706E+03	1.824909E-03	2.214633E-04
3.901608E+03	1.843390E-03	2.227222E-04
3.911511E+03	1.862013E-03	2.239768E-04
3.921413E+03	1.880730E-03	2.252214E-04
3.931316E+03	1.899513E-03	2.264521E-04
3.941218E+03	1.918361E-03	2.276691E-04
3.951121E+03	1.937229E-03	2.288668E-04
3.961024E+03	1.956102E-03	2.300435E-04
3.970926E+03	1.974948E-03	2.311955E-04
3.980829E+03	1.993753E-03	2.323214E-04
3.990731E+03	2.012487E-03	2.334176E-04
4.000634E+03	2.031119E-03	2.344808E-04
4.010536E+03	2.049636E-03	2.355098E-04
4.020439E+03	2.068025E-03	2.365033E-04
4.030341E+03	2.086222E-03	2.374543E-04
4.040244E+03	2.104250E-03	2.383659E-04
4.050147E+03	2.122045E-03	2.392312E-04
4.060049E+03	2.139615E-03	2.400515E-04
4.069952E+03	2.156912E-03	2.408220E-04
4.079854E+03	2.173927E-03	2.415422E-04
4.089757E+03	2.190631E-03	2.422096E-04
4.099659E+03	2.206995E-03	2.428216E-04
4.109562E+03	2.222992E-03	2.433757E-04
4.119464E+03	2.238591E-03	2.438695E-04
4.129367E+03	2.253780E-03	2.443025E-04
4.139270E+03	2.268529E-03	2.446721E-04
4.149172E+03	2.282785E-03	2.449736E-04
4.159075E+03	2.296514E-03	2.452044E-04
4.168977E+03	2.309679E-03	2.453615E-04
4.178880E+03	2.322260E-03	2.454438E-04
4.188782E+03	2.334195E-03	2.454462E-04
4.198685E+03	2.345440E-03	2.453650E-04
4.208587E+03	2.355927E-03	2.451945E-04
4.218490E+03	2.365622E-03	2.449328E-04
4.228393E+03	2.374450E-03	2.445735E-04
4.238295E+03	2.382350E-03	2.441119E-04
4.248198E+03	2.389258E-03	2.435433E-04
4.258100E+03	2.395066E-03	2.428585E-04
4.268003E+03	2.399743E-03	2.420563E-04
4.277905E+03	2.403176E-03	2.411273E-04
4.287808E+03	2.405290E-03	2.400665E-04
4.297711E+03	2.405994E-03	2.388668E-04
4.307613E+03	2.405260E-03	2.375282E-04
4.317516E+03	2.402969E-03	2.360414E-04
4.327418E+03	2.399119E-03	2.344087E-04
4.337321E+03	2.393686E-03	2.326306E-04
4.347223E+03	2.386694E-03	2.307120E-04
4.357126E+03	2.378218E-03	2.286626E-04
4.367028E+03	2.368340E-03	2.264929E-04
4.376931E+03	2.357210E-03	2.242193E-04
4.386834E+03	2.344915E-03	2.218519E-04
4.396736E+03	2.331630E-03	2.194093E-04
4.406639E+03	2.317479E-03	2.169045E-04
4.416541E+03	2.302603E-03	2.143520E-04
4.426444E+03	2.287182E-03	2.117697E-04
4.436346E+03	2.271289E-03	2.091653E-04
4.446249E+03	2.255114E-03	2.065566E-04
4.456151E+03	2.238716E-03	2.039497E-04
4.466054E+03	2.222249E-03	2.013589E-04
4.475957E+03	2.205796E-03	1.987918E-04
4.485859E+03	2.189456E-03	1.962573E-04
4.495762E+03	2.173316E-03	1.937629E-04
4.505664E+03	2.157420E-03	1.913125E-04
4.515567E+03	2.141882E-03	1.889155E-04
4.525469E+03	2.126729E-03	1.865741E-04
4.535372E+03	2.112025E-03	1.842932E-04
4.545274E+03	2.097825E-03	1.820771E-04
4.555177E+03	2.084180E-03	1.799295E-04
4.565080E+03	2.071117E-03	1.778519E-04
4.574982E+03	2.058659E-03	1.758455E-04
4.584885E+03	2.046841E-03	1.739127E-04
4.594787E+03	2.035698E-03	1.720555E-04
4.604690E+03	2.025260E-03	1.702755E-04
4.614592E+03	2.015515E-03	1.685710E-04
4.624495E+03	2.006507E-03	1.669447E-04
4.634398E+03	1.998237E-03	1.653960E-04
4.644300E+03	1.990708E-03	1.639240E-04
4.654203E+03	1.983937E-03	1.625294E-04
4.664105E+03	1.977923E-03	1.612112E-04
4.674008E+03	1.972662E-03	1.599683E-04
4.683910E+03	1.968151E-03	1.587995E-04
4.693813E+03	1.964384E-03	1.577032E-04
4.703715E+03	1.961354E-03	1.566780E-04
4.713618E+03	1.959055E-03	1.557221E-04
4.723521E+03	1.957477E-03	1.548339E-04
4.733423E+03	1.956593E-03	1.540103E-04
4.743326E+03	1.956412E-03	1.532510E-04
4.753228E+03	1.956882E-03	1.525512E-04
4.763131E+03	1.958028E-03	1.519120E-04
4.773033E+03	1.959797E-03	1.513282E-04
4.782936E+03	1.962191E-03	1.507996E-04
4.792838E+03	1.965192E-03	1.503237E-04
4.802741E+03	1.968743E-03	1.498957E-04
4.812644E+03	1.972862E-03	1.495162E-04
4.822546E+03	1.977507E-03	1.491815E-04
4.832449E+03	1.982679E-03	1.488910E-04
4.842351E+03	1.988294E-03	1.486379E-04
4.852254E+03	1.994391E-03	1.484246E-04
4.862156E+03	2.000907E-03	1.482459E-04
4.872059E+03	2.007839E-03	1.481013E-04
4.881961E+03	2.015144E-03	1.479872E-04
4.891864E+03	2.022821E-03	1.479030E-04
4.901767E+03	2.030807E-03	1.478440E-04
4.911669E+03	2.039100E-03	1.478097E-04
4.921572E+03	2.047700E-03	1.477997E-04
4.931474E+03	2.056546E-03	1.478096E-04
4.941377E+03	2.065616E-03	1.478375E-04
4.951279E+03	2.074911E-03	1.478834E-04
4.961182E+03	2.084413E-03	1.479458E-04
4.971085E+03	2.094060E-03	1.480202E-04
4.980987E+03	2.103855E-03	1.481069E-04
4.990890E+03	2.113779E-03	1.482043E-04
5.000792E+03	2.123814E-03	1.483112E-04
5.010695E+03	2.133919E-03	1.484248E-04
5.020597E+03	2.144076E-03	1.485438E-04
5.030500E+03	2.154285E-03	1.486683E-04
5.040402E+03	2.164483E-03	1.487941E-04
5.050305E+03	2.174670E-03	1.489213E-04
5.060208E+03	2.184802E-03	1.490469E-04
5.070110E+03	2.194853E-03	1.491695E-04
5.080013E+03	2.204799E-03	1.492874E-04
5.089915E+03	2.214610E-03	1.493991E-04
5.099818E+03	2.224236E-03	1.495013E-04
5.109720E+03	2.233665E-03	1.495935E-04
5.119623E+03	2.242819E-03	1.496709E-04
5.129525E+03	2.251683E-03	1.497327E-04
5.139428E+03	2.260195E-03	1.497753E-04
5.149331E+03	2.268311E-03	1.497962E-04
5.159233E+03	2.275988E-03	1.497929E-04
5.169136E+03	2.283176E-03	1.497627E-04
5.179038E+03	2.289780E-03	1.496999E-04
5.188941E+03	2.295792E-03	1.496045E-04
5.198843E+03	2.301089E-03	1.494691E-04
5.208746E+03	2.305660E-03	1.492936E-04
5.218648E+03	2.309402E-03	1.490719E-04
5.228551E+03	2.312278E-03	1.488024E-04
5.238454E+03	2.314207E-03	1.484806E-04
5.248356E+03	2.315107E-03	1.481020E-04
5.258259E+03	2.314947E-03	1.476653E-04
5.268161E+03	2.313624E-03	1.471647E-04
5.278064E+03	2.311113E-03	1.465993E-04
5.287966E+03	2.307343E-03	1.459656E-04
5.297869E+03	2.302251E-03	1.452602E-04
5.307772E+03	2.295804E-03	1.444819E-04
5.317674E+03	2.287974E-03	1.436297E-04
5.327577E+03	2.278745E-03	1.427032E-04
5.337479E+03	2.268063E-03	1.416999E-04
5.347382E+03	2.255953E-03	1.406219E-04
5.357284E+03	2.242406E-03	1.394693E-04
5.367187E+03	2.227470E-03	1.382456E-04
5.377089E+03	2.211138E-03	1.369511E-04
5.386992E+03	2.193526E-03	1.355932E-04
5.396895E+03	2.174718E-03	1.341776E-04
5.406797E+03	2.154918E-03	1.327171E-04
5.416700E+03	2.134167E-03	1.312145E-04
5.426602E+03	2.112418E-03	1.296669E-04
5.436505E+03	2.089689E-03	1.280752E-04
5.446407E+03	2.066083E-03	1.264452E-04
5.456310E+03	2.041798E-03	1.247885E-04
5.466212E+03	2.016944E-03	1.231114E-04
5.476115E+03	1.991758E-03	1.214276E-04
5.486018E+03	1.966376E-03	1.197451E-04
5.495920E+03	1.940996E-03	1.180751E-04
5.505823E+03	1.915808E-03	1.164285E-04
5.515725E+03	1.890992E-03	1.148156E-04
5.525628E+03	1.866682E-03	1.132439E-04
5.535530E+03	1.843037E-03	1.117225E-04
5.545433E+03	1.820204E-03	1.102595E-04
5.555335E+03	1.798296E-03	1.088612E-04
5.565238E+03	1.777413E-03	1.075330E-04
5.575141E+03	1.757674E-03	1.062815E-04
5.585043E+03	1.739130E-03	1.051093E-04
5.594946E+03	1.721849E-03	1.040200E-04
5.604848E+03	1.705869E-03	1.030154E-04
5.614751E+03	1.691229E-03	1.020974E-04
5.624653E+03	1.677936E-03	1.012660E-04
5.634556E+03	1.665984E-03	1.005205E-04
5.644459E+03	1.655374E-03	9.986060E-05
5.654361E+03	1.646095E-03	9.928535E-05
5.664264E+03	1.638094E-03	9.879124E-05
5.674166E+03	1.631346E-03	9.837653E-05
5.684069E+03	1.625804E-03	9.803814E-05
5.693971E+03	1.621416E-03	9.777285E-05
5.703874E+03	1.618167E-03	9.757943E-05
5.713776E+03	1.615969E-03	9.745254E-05
5.723679E+03	1.614806E-03	9.739105E-05
5.733582E+03	1.614613E-03	9.739092E-05
5.743484E+03	1.615361E-03	9.745031E-05
5.753387E+03	1.617008E-03	9.756661E-05
5.763289E+03	1.619514E-03	9.773738E-05
5.773192E+03	1.622863E-03	9.796152E-05
5.783094E+03	1.627005E-03	9.823604E-05
5.792997E+03	1.631929E-03	9.856026E-05
5.802899E+03	1.637611E-03	9.893269E-05
5.812802E+03	1.644011E-03	9.935091E-05
5.822705E+03	1.651145E-03	9.981594E-05
5.832607E+03	1.658961E-03	1.003246E-04
5.842510E+03	1.667478E-03	1.008781E-04
5.852412E+03	1.676666E-03	1.014746E-04
5.862315E+03	1.686511E-03	1.021135E-04
5.872217E+03	1.697018E-03	1.027950E-04
5.882120E+03	1.708139E-03	1.035163E-04
5.892022E+03	1.719880E-03	1.042778E-04
5.901925E+03	1.732245E-03	1.050800E-04
5.911828E+03	1.745184E-03	1.059198E-04
5.921730E+03	1.758700E-03	1.067975E-04
5.931633E+03	1.772777E-03	1.077125E-04
5.941535E+03	1.787378E-03	1.086624E-04
5.951438E+03	1.802483E-03	1.096462E-04
5.961340E+03	1.818072E-03	1.106629E-04
5.971243E+03	1.834101E-03	1.117100E-04
5.981146E+03	1.850543E-03	1.127859E-04
5.991048E+03	1.867394E-03	1.138907E-04
6.000951E+03	1.884557E-03	1.150185E-04
6.010853E+03	1.902041E-03	1.161702E-04
6.020756E+03	1.919742E-03	1.173394E-04
6.030658E+03	1.937661E-03	1.185267E-04
6.040561E+03	1.955682E-03	1.197249E-04
6.050463E+03	1.973776E-03	1.209327E-04
6.060366E+03	1.991838E-03	1.221436E-04
6.070269E+03	2.009831E-03	1.233557E-04
6.080171E+03	2.027639E-03	1.245621E-04
6.090074E+03	2.045171E-03	1.257571E-04
6.099976E+03	2.062381E-03	1.269384E-04
6.109879E+03	2.079154E-03	1.280990E-04
6.119781E+03	2.095455E-03	1.292367E-04
6.129684E+03	2.111235E-03	1.303489E-04
6.139586E+03	2.126461E-03	1.314336E-04
6.149489E+03	2.141113E-03	1.324896E-04
6.159392E+03	2.155239E-03	1.335200E-04
6.169294E+03	2.168846E-03	1.345255E-04
6.179197E+03	2.181977E-03	1.355089E-04
6.189099E+03	2.194681E-03	1.364732E-04
6.199002E+03	2.207065E-03	1.374251E-04
6.208904E+03	2.219126E-03	1.383638E-04
6.218807E+03	2.230915E-03	1.392923E-04
6.228709E+03	2.242511E-03	1.402153E-04
6.238612E+03	2.253964E-03	1.411356E-04
6.248515E+03	2.265293E-03	1.420539E-04
6.258417E+03	2.276510E-03	1.429708E-04
6.268320E+03	2.287690E-03	1.438907E-04
6.278222E+03	2.298805E-03	1.448116E-04
6.288125E+03	2.309893E-03	1.457354E-04
6.298027E+03	2.320954E-03	1.466620E-04
6.307930E+03	2.331983E-03	1.475907E-04
6.317833E+03	2.342975E-03	1.485209E-04
6.327735E+03	2.353914E-03	1.494513E-04
6.337638E+03	2.364792E-03	1.503811E-04
6.347540E+03	2.375554E-03	1.513064E-04
6.357443E+03	2.386214E-03	1.522278E-04
6.367345E+03	2.396749E-03	1.531436E-04
6.377248E+03	2.407172E-03	1.540542E-04
6.387150E+03	2.417494E-03	1.549600E-04
6.397053E+03	2.427653E-03	1.558568E-04
6.406956E+03	2.437697E-03	1.567473E-04
6.416858E+03	2.447606E-03	1.576298E-04
6.426761E+03	2.457394E-03	1.585050E-04
6.436663E+03	2.467001E-03	1.593686E-04
6.446566E+03	2.476485E-03	1.602242E-04
6.456468E+03	2.485789E-03	1.610678E-04
6.466371E+03	2.494938E-03	1.619006E-04
6.476273E+03	2.503880E-03	1.627189E-04
6.486176E+03	2.512641E-03	1.635241E-04
6.496079E+03	2.521254E-03	1.643182E-04
6.505981E+03	2.529630E-03	1.650950E-04
6.515884E+03	2.537802E-03	1.658563E-04
6.525786E+03	2.545809E-03	1.666045E-04
6.535689E+03	2.553564E-03	1.673337E-04
6.545591E+03	2.561146E-03	1.680486E-04
6.555494E+03	2.568472E-03	1.687437E-04
6.565396E+03	2.575626E-03	1.694242E-04
6.575299E+03	2.582515E-03	1.700837E-04
6.585202E+03	2.589185E-03	1.707251E-04
6.595104E+03	2.595631E-03	1.713478E-04
6.605007E+03	2.601806E-03	1.719485E-04
6.614909E+03	2.607751E-03	1.725297E-04
6.624812E+03	2.613417E-03	1.730881E-04
6.634714E+03	2.618800E-03	1.736230E-04
6.644617E+03	2.623939E-03	1.741370E-04
6.654520E+03	2.628786E-03	1.746268E-04
6.664422E+03	2.633291E-03	1.750888E-04
6.674325E+03	2.637537E-03	1.755284E-04
6.684227E+03	2.641433E-03	1.759396E-04
6.694130E+03	2.645022E-03	1.763249E-04
6.704032E+03	2.648297E-03	1.766840E-04
6.713935E+03	2.651211E-03	1.770135E-04
6.723837E+03	2.653759E-03	1.773130E-04
6.733740E+03	2.655942E-03	1.775826E-04
6.743643E+03	2.657802E-03	1.778250E-04
6.753545E+03	2.659293E-03	1.780371E-04
6.763448E+03	2.660365E-03	1.782156E-04
6.773350E+03	2.661063E-03	1.783634E-04
6.783253E+03	2.661389E-03	1.784807E-04
6.793155E+03	2.661345E-03	1.785677E-04
6.803058E+03	2.660879E-03	1.786210E-04
6.812960E+03	2.659995E-03	1.786408E-04
6.822863E+03	2.658748E-03	1.786308E-04
6.832766E+03	2.657087E-03	1.785879E-04
6.842668E+03	2.655016E-03	1.785122E-04
6.852571E+03	2.652543E-03	1.784046E-04
6.862473E+03	2.649669E-03	1.782652E-04
6.872376E+03	2.646403E-03	1.780947E-04
6.882278E+03	2.642751E-03	1.778937E-04
6.892181E+03	2.638671E-03	1.776594E-04
6.902083E+03	2.634172E-03	1.773928E-04
6.911986E+03	2.629310E-03	1.770978E-04
6.921889E+03	2.624102E-03	1.767757E-04
6.931791E+03	2.618455E-03	1.764203E-04
6.941694E+03	2.612485E-03	1.760400E-04
6.951596E+03	2.606155E-03	1.756323E-04
6.961499E+03	2.599483E-03	1.751987E-04
6.971401E+03	2.592432E-03	1.747369E-04
6.981304E+03	2.585073E-03	1.742521E-04
6.991207E+03	2.577425E-03	1.737457E-04
7.001109E+03	2.569509E-03	1.732195E-04
7.011012E+03	2.561295E-03	1.726717E-04
7.020914E+03	2.552806E-03	1.721042E-04
7.030817E+03	2.544119E-03	1.715224E-04
7.040719E+03	2.535206E-03	1.709248E-04
7.050622E+03	2.526041E-03	1.703100E-04
7.060524E+03	2.516758E-03	1.696871E-04
7.070427E+03	2.507329E-03	1.690549E-04
7.080330E+03	2.497789E-03	1.684157E-04
7.090232E+03	2.488115E-03	1.677686E-04
7.100135E+03	2.478390E-03	1.671192E-04
7.110037E+03	2.468651E-03	1.664706E-04
7.119940E+03	2.458879E-03	1.658216E-04
7.129842E+03	2.449107E-03	1.651750E-04
7.139745E+03	2.439425E-03	1.645370E-04
7.149647E+03	2.429816E-03	1.639070E-04
7.159550E+03	2.420313E-03	1.632873E-04
7.169453E+03	2.410947E-03	1.626805E-04
7.179355E+03	2.401754E-03	1.620892E-04
7.189258E+03	2.392707E-03	1.615121E-04
7.199160E+03	2.383934E-03	1.609580E-04
7.209063E+03	2.375406E-03	1.604254E-04
7.218965E+03	2.367037E-03	1.599089E-04
7.228868E+03	2.358995E-03	1.594200E-04
7.238770E+03	2.351133E-03	1.589493E-04
7.248673E+03	2.343554E-03	1.585040E-04
7.258576E+03	2.336209E-03	1.580812E-04
7.268478E+03	2.329089E-03	1.576805E-04
7.278381E+03	2.322130E-03	1.572981E-04
7.288283E+03	2.315318E-03	1.569332E-04
7.298186E+03	2.308630E-03	1.565847E-04
7.308088E+03	2.302036E-03	1.562509E-04
7.317991E+03	2.295408E-03	1.559235E-04
7.327894E+03	2.288758E-03	1.556033E-04
7.337796E+03	2.281947E-03	1.552816E-04
7.347699E+03	2.274885E-03	1.549522E-04
7.357601E+03	2.267469E-03	1.546084E-04
7.367504E+03	2.259704E-03	1.542507E-04
7.377406E+03	2.251535E-03	1.538756E-04
7.387309E+03	2.243010E-03	1.534865E-04
7.397211E+03	2.234175E-03	1.530867E-04
7.407114E+03	2.224934E-03	1.526694E-04
7.417017E+03	2.215301E-03	1.522351E-04
7.426919E+03	2.205353E-03	1.517886E-04
7.436822E+03	2.194986E-03	1.513222E-04
7.446724E+03	2.184324E-03	1.508437E-04
7.456627E+03	2.173410E-03	1.503557E-04
7.466529E+03	2.162309E-03	1.498619E-04
7.476432E+03	2.151096E-03	1.493673E-04
7.486334E+03	2.139854E-03	1.488771E-04
7.496237E+03	2.128714E-03	1.483998E-04
7.506140E+03	2.117707E-03	1.479373E-04
7.516042E+03	2.106954E-03	1.474978E-04
7.525945E+03	2.096473E-03	1.470821E-04
7.535847E+03	2.086370E-03	1.466974E-04
7.545750E+03	2.076694E-03	1.463469E-04
7.555652E+03	2.067437E-03	1.460299E-04
7.565555E+03	2.058678E-03	1.457519E-04
7.575457E+03	2.050444E-03	1.455145E-04
7.585360E+03	2.042702E-03	1.453154E-04
7.595263E+03	2.035513E-03	1.451588E-04
7.605165E+03	2.028833E-03	1.450416E-04
7.615068E+03	2.022759E-03	1.449707E-04
7.624970E+03	2.017191E-03	1.449388E-04
7.634873E+03	2.012170E-03	1.449490E-04
7.644775E+03	2.007636E-03	1.449968E-04
7.654678E+03	2.003624E-03	1.450849E-04
7.664581E+03	2.000117E-03	1.452120E-04
7.674483E+03	1.997098E-03	1.453770E-04
7.684386E+03	1.994500E-03	1.455749E-04
