#wls	flux	fluxerr
1.584409E+03	4.270332E-03	1.389105E-03
1.624020E+03	4.396049E-03	1.427675E-03
1.663630E+03	4.518541E-03	1.464983E-03
1.703240E+03	4.637373E-03	1.500884E-03
1.742850E+03	4.750664E-03	1.534767E-03
1.782461E+03	4.857701E-03	1.566404E-03
1.822071E+03	4.956776E-03	1.595248E-03
1.861681E+03	5.046917E-03	1.620992E-03
1.901291E+03	5.126610E-03	1.643162E-03
1.940902E+03	5.194261E-03	1.661261E-03
1.980512E+03	5.247477E-03	1.674543E-03
2.020122E+03	5.284689E-03	1.682533E-03
2.059732E+03	5.304027E-03	1.684668E-03
2.099342E+03	5.302777E-03	1.680125E-03
2.138953E+03	5.278644E-03	1.668225E-03
2.178563E+03	5.228914E-03	1.648166E-03
2.218173E+03	5.151366E-03	1.619316E-03
2.257783E+03	5.045762E-03	1.581675E-03
2.297394E+03	4.913034E-03	1.535614E-03
2.337004E+03	4.756973E-03	1.482397E-03
2.376614E+03	4.580947E-03	1.423145E-03
2.416224E+03	4.387973E-03	1.358864E-03
2.455835E+03	4.181341E-03	1.290632E-03
2.495445E+03	3.963624E-03	1.219299E-03
2.535055E+03	3.737081E-03	1.145608E-03
2.574665E+03	3.504469E-03	1.070447E-03
2.614276E+03	3.267854E-03	9.944855E-04
2.653886E+03	3.029677E-03	9.184950E-04
2.693496E+03	2.792011E-03	8.431281E-04
2.733106E+03	2.557317E-03	7.691428E-04
2.772716E+03	2.327695E-03	6.971784E-04
2.812327E+03	2.105369E-03	6.278990E-04
2.851937E+03	1.892445E-03	5.619222E-04
2.891547E+03	1.690838E-03	4.997962E-04
2.931157E+03	1.502195E-03	4.419786E-04
2.970768E+03	1.327784E-03	3.888046E-04
2.980670E+03	1.286499E-03	3.762591E-04
2.990573E+03	1.246178E-03	3.640220E-04
3.000475E+03	1.206792E-03	3.520844E-04
3.010378E+03	1.168396E-03	3.404610E-04
3.020280E+03	1.130958E-03	3.291421E-04
3.030183E+03	1.094476E-03	3.181262E-04
3.040086E+03	1.058947E-03	3.074114E-04
3.049988E+03	1.024409E-03	2.970079E-04
3.059891E+03	9.908101E-04	2.868999E-04
3.069793E+03	9.581843E-04	2.770964E-04
3.079696E+03	9.265020E-04	2.675880E-04
3.089598E+03	8.957721E-04	2.583762E-04
3.099501E+03	8.659835E-04	2.494570E-04
3.109403E+03	8.371249E-04	2.408263E-04
3.119306E+03	8.091853E-04	2.324800E-04
3.129209E+03	7.821671E-04	2.244179E-04
3.139111E+03	7.560426E-04	2.166311E-04
3.149014E+03	7.308119E-04	2.091189E-04
3.158916E+03	7.064599E-04	2.018760E-04
3.168819E+03	6.829706E-04	1.948969E-04
3.178721E+03	6.603391E-04	1.881794E-04
3.188624E+03	6.385252E-04	1.817112E-04
3.198526E+03	6.175444E-04	1.754958E-04
3.208429E+03	5.973463E-04	1.695180E-04
3.218332E+03	5.779423E-04	1.637804E-04
3.228234E+03	5.592936E-04	1.582709E-04
3.238137E+03	5.413901E-04	1.529860E-04
3.248039E+03	5.242117E-04	1.479193E-04
3.257942E+03	5.077304E-04	1.430620E-04
3.267844E+03	4.919421E-04	1.384121E-04
3.277747E+03	4.768112E-04	1.339591E-04
3.287650E+03	4.623188E-04	1.296968E-04
3.297552E+03	4.484585E-04	1.256227E-04
3.307455E+03	4.351974E-04	1.217269E-04
3.317357E+03	4.225168E-04	1.180036E-04
3.327260E+03	4.103978E-04	1.144468E-04
3.337162E+03	3.988280E-04	1.110523E-04
3.347065E+03	3.877777E-04	1.078114E-04
3.356967E+03	3.772298E-04	1.047187E-04
3.366870E+03	3.671723E-04	1.017702E-04
3.376773E+03	3.575831E-04	9.895930E-05
3.386675E+03	3.484457E-04	9.628086E-05
3.396578E+03	3.397353E-04	9.372751E-05
3.406480E+03	3.314414E-04	9.129586E-05
3.416383E+03	3.235492E-04	8.898138E-05
3.426285E+03	3.160363E-04	8.677736E-05
3.436188E+03	3.088896E-04	8.467981E-05
3.446090E+03	3.020929E-04	8.268382E-05
3.455993E+03	2.956375E-04	8.078664E-05
3.465896E+03	2.895017E-04	7.898189E-05
3.475798E+03	2.836782E-04	7.726717E-05
3.485701E+03	2.781503E-04	7.563762E-05
3.495603E+03	2.729055E-04	7.408943E-05
3.505506E+03	2.679323E-04	7.261914E-05
3.515408E+03	2.632163E-04	7.122255E-05
3.525311E+03	2.587502E-04	6.989731E-05
3.535213E+03	2.545185E-04	6.863896E-05
3.545116E+03	2.505120E-04	6.744475E-05
3.555019E+03	2.467248E-04	6.631274E-05
3.564921E+03	2.431458E-04	6.523974E-05
3.574824E+03	2.397672E-04	6.422338E-05
3.584726E+03	2.365792E-04	6.326075E-05
3.594629E+03	2.335723E-04	6.234911E-05
3.604531E+03	2.307404E-04	6.148659E-05
3.614434E+03	2.280730E-04	6.067014E-05
3.624337E+03	2.255663E-04	5.989859E-05
3.634239E+03	2.232111E-04	5.916924E-05
3.644142E+03	2.210023E-04	5.848059E-05
3.654044E+03	2.189374E-04	5.783174E-05
3.663947E+03	2.170078E-04	5.722027E-05
3.673849E+03	2.152091E-04	5.664485E-05
3.683752E+03	2.135413E-04	5.610528E-05
3.693654E+03	2.119984E-04	5.559980E-05
3.703557E+03	2.105763E-04	5.512722E-05
3.713460E+03	2.092748E-04	5.468731E-05
3.723362E+03	2.080880E-04	5.427832E-05
3.733265E+03	2.070139E-04	5.389965E-05
3.743167E+03	2.060521E-04	5.355099E-05
3.753070E+03	2.051989E-04	5.323127E-05
3.762972E+03	2.044519E-04	5.293969E-05
3.772875E+03	2.038092E-04	5.267562E-05
3.782777E+03	2.032687E-04	5.243839E-05
3.792680E+03	2.028303E-04	5.222782E-05
3.802583E+03	2.024902E-04	5.204283E-05
3.812485E+03	2.022484E-04	5.188322E-05
3.822388E+03	2.021047E-04	5.174886E-05
3.832290E+03	2.020553E-04	5.163865E-05
3.842193E+03	2.020989E-04	5.155210E-05
3.852095E+03	2.022369E-04	5.148942E-05
3.861998E+03	2.024673E-04	5.145002E-05
3.871900E+03	2.027869E-04	5.143296E-05
3.881803E+03	2.031970E-04	5.143841E-05
3.891706E+03	2.036976E-04	5.146627E-05
3.901608E+03	2.042831E-04	5.151502E-05
3.911511E+03	2.049552E-04	5.158494E-05
3.921413E+03	2.057132E-04	5.167574E-05
3.931316E+03	2.065550E-04	5.178681E-05
3.941218E+03	2.074766E-04	5.191699E-05
3.951121E+03	2.084809E-04	5.206693E-05
3.961024E+03	2.095633E-04	5.223538E-05
3.970926E+03	2.107217E-04	5.242168E-05
3.980829E+03	2.119567E-04	5.262590E-05
3.990731E+03	2.132640E-04	5.284688E-05
4.000634E+03	2.146443E-04	5.308468E-05
4.010536E+03	2.160913E-04	5.333768E-05
4.020439E+03	2.176077E-04	5.360643E-05
4.030341E+03	2.191891E-04	5.388977E-05
4.040244E+03	2.208326E-04	5.418690E-05
4.050147E+03	2.225391E-04	5.449797E-05
4.060049E+03	2.243024E-04	5.482143E-05
4.069952E+03	2.261254E-04	5.515784E-05
4.079854E+03	2.280018E-04	5.550566E-05
4.089757E+03	2.299308E-04	5.586461E-05
4.099659E+03	2.319121E-04	5.623455E-05
4.109562E+03	2.339412E-04	5.661436E-05
4.119464E+03	2.360175E-04	5.700382E-05
4.129367E+03	2.381389E-04	5.740238E-05
4.139270E+03	2.403009E-04	5.780893E-05
4.149172E+03	2.425053E-04	5.822385E-05
4.159075E+03	2.447461E-04	5.864568E-05
4.168977E+03	2.470249E-04	5.907474E-05
4.178880E+03	2.493354E-04	5.950954E-05
4.188782E+03	2.516776E-04	5.995005E-05
4.198685E+03	2.540493E-04	6.039569E-05
4.208587E+03	2.564439E-04	6.084492E-05
4.218490E+03	2.588635E-04	6.129819E-05
4.228393E+03	2.613033E-04	6.175443E-05
4.238295E+03	2.637592E-04	6.221259E-05
4.248198E+03	2.662264E-04	6.267161E-05
4.258100E+03	2.687047E-04	6.313144E-05
4.268003E+03	2.711920E-04	6.359158E-05
4.277905E+03	2.736789E-04	6.404988E-05
4.287808E+03	2.761677E-04	6.450692E-05
4.297711E+03	2.786494E-04	6.496060E-05
4.307613E+03	2.811264E-04	6.541153E-05
4.317516E+03	2.835917E-04	6.585814E-05
4.327418E+03	2.860459E-04	6.630060E-05
4.337321E+03	2.884893E-04	6.673906E-05
4.347223E+03	2.909229E-04	6.717381E-05
4.357126E+03	2.933476E-04	6.760506E-05
4.367028E+03	2.957659E-04	6.803348E-05
4.376931E+03	2.981813E-04	6.845990E-05
4.386834E+03	3.005949E-04	6.888462E-05
4.396736E+03	3.030107E-04	6.930859E-05
4.406639E+03	3.054275E-04	6.973161E-05
4.416541E+03	3.078522E-04	7.015527E-05
4.426444E+03	3.102841E-04	7.057945E-05
4.436346E+03	3.127249E-04	7.100457E-05
4.446249E+03	3.151767E-04	7.143111E-05
4.456151E+03	3.176413E-04	7.185955E-05
4.466054E+03	3.201206E-04	7.229029E-05
4.475957E+03	3.226165E-04	7.272377E-05
4.485859E+03	3.251253E-04	7.315914E-05
4.495762E+03	3.276544E-04	7.359807E-05
4.505664E+03	3.302004E-04	7.403974E-05
4.515567E+03	3.327650E-04	7.448459E-05
4.525469E+03	3.353474E-04	7.493238E-05
4.535372E+03	3.379526E-04	7.538422E-05
4.545274E+03	3.405795E-04	7.583987E-05
4.555177E+03	3.432242E-04	7.629844E-05
4.565080E+03	3.458946E-04	7.676168E-05
4.574982E+03	3.485867E-04	7.722866E-05
4.584885E+03	3.512991E-04	7.769907E-05
4.594787E+03	3.540367E-04	7.817400E-05
4.604690E+03	3.568017E-04	7.865388E-05
4.614592E+03	3.595863E-04	7.913700E-05
4.624495E+03	3.623990E-04	7.962521E-05
4.634398E+03	3.652384E-04	8.011817E-05
4.644300E+03	3.681036E-04	8.061567E-05
4.654203E+03	3.709968E-04	8.111819E-05
4.664105E+03	3.739172E-04	8.162551E-05
4.674008E+03	3.768680E-04	8.213831E-05
4.683910E+03	3.798418E-04	8.265499E-05
4.693813E+03	3.828428E-04	8.317641E-05
4.703715E+03	3.858756E-04	8.370356E-05
4.713618E+03	3.889305E-04	8.423432E-05
4.723521E+03	3.920157E-04	8.477046E-05
4.733423E+03	3.951290E-04	8.531147E-05
4.743326E+03	3.982676E-04	8.585673E-05
4.753228E+03	4.014399E-04	8.640802E-05
4.763131E+03	4.046351E-04	8.696302E-05
4.773033E+03	4.078654E-04	8.752432E-05
4.782936E+03	4.111192E-04	8.808944E-05
4.792838E+03	4.144047E-04	8.866007E-05
4.802741E+03	4.177135E-04	8.923443E-05
4.812644E+03	4.210538E-04	8.981423E-05
4.822546E+03	4.244169E-04	9.039764E-05
4.832449E+03	4.278068E-04	9.098545E-05
4.842351E+03	4.312233E-04	9.157761E-05
4.852254E+03	4.346617E-04	9.217313E-05
4.862156E+03	4.381216E-04	9.277190E-05
4.872059E+03	4.416026E-04	9.337384E-05
4.881961E+03	4.451091E-04	9.397983E-05
4.891864E+03	4.486318E-04	9.458794E-05
4.901767E+03	4.521793E-04	9.519996E-05
4.911669E+03	4.557427E-04	9.581399E-05
4.921572E+03	4.593261E-04	9.643092E-05
4.931474E+03	4.629243E-04	9.704964E-05
4.941377E+03	4.665367E-04	9.767001E-05
4.951279E+03	4.701620E-04	9.829177E-05
4.961182E+03	4.738034E-04	9.891557E-05
4.971085E+03	4.774493E-04	9.953902E-05
4.980987E+03	4.811020E-04	1.001626E-04
4.990890E+03	4.847532E-04	1.007846E-04
5.000792E+03	4.884043E-04	1.014052E-04
5.010695E+03	4.920463E-04	1.020228E-04
5.020597E+03	4.956694E-04	1.026352E-04
5.030500E+03	4.992735E-04	1.032424E-04
5.040402E+03	5.028523E-04	1.038433E-04
5.050305E+03	5.063950E-04	1.044355E-04
5.060208E+03	5.098892E-04	1.050166E-04
5.070110E+03	5.133378E-04	1.055873E-04
5.080013E+03	5.167224E-04	1.061438E-04
5.089915E+03	5.200350E-04	1.066845E-04
5.099818E+03	5.232668E-04	1.072078E-04
5.109720E+03	5.264094E-04	1.077119E-04
5.119623E+03	5.294485E-04	1.081940E-04
5.129525E+03	5.323810E-04	1.086537E-04
5.139428E+03	5.351872E-04	1.090870E-04
5.149331E+03	5.378641E-04	1.094933E-04
5.159233E+03	5.403919E-04	1.098689E-04
5.169136E+03	5.427724E-04	1.102141E-04
5.179038E+03	5.449853E-04	1.105251E-04
5.188941E+03	5.470263E-04	1.108010E-04
5.198843E+03	5.488739E-04	1.110377E-04
5.208746E+03	5.505229E-04	1.112342E-04
5.218648E+03	5.519619E-04	1.113885E-04
5.228551E+03	5.531681E-04	1.114962E-04
5.238454E+03	5.541297E-04	1.115549E-04
5.248356E+03	5.548401E-04	1.115637E-04
5.258259E+03	5.552816E-04	1.115191E-04
5.268161E+03	5.554376E-04	1.114180E-04
5.278064E+03	5.552965E-04	1.112584E-04
5.287966E+03	5.548485E-04	1.110384E-04
5.297869E+03	5.540846E-04	1.107565E-04
5.307772E+03	5.529916E-04	1.104102E-04
5.317674E+03	5.515694E-04	1.099999E-04
5.327577E+03	5.498090E-04	1.095239E-04
5.337479E+03	5.477151E-04	1.089834E-04
5.347382E+03	5.452840E-04	1.083780E-04
5.357284E+03	5.425325E-04	1.077110E-04
5.367187E+03	5.394749E-04	1.069857E-04
5.377089E+03	5.361191E-04	1.062038E-04
5.386992E+03	5.324981E-04	1.053719E-04
5.396895E+03	5.286324E-04	1.044944E-04
5.406797E+03	5.245255E-04	1.035720E-04
5.416700E+03	5.202214E-04	1.026135E-04
5.426602E+03	5.157404E-04	1.016232E-04
5.436505E+03	5.111059E-04	1.006056E-04
5.446407E+03	5.063481E-04	9.956677E-05
5.456310E+03	5.014931E-04	9.851194E-05
5.466212E+03	4.965678E-04	9.744642E-05
5.476115E+03	4.916103E-04	9.637764E-05
5.486018E+03	4.866489E-04	9.531113E-05
5.495920E+03	4.817269E-04	9.425527E-05
5.505823E+03	4.768824E-04	9.321744E-05
5.515725E+03	4.721477E-04	9.220381E-05
5.525628E+03	4.675635E-04	9.122222E-05
5.535530E+03	4.631644E-04	9.027927E-05
5.545433E+03	4.589824E-04	8.938103E-05
5.555335E+03	4.550518E-04	8.853399E-05
5.565238E+03	4.513985E-04	8.774301E-05
5.575141E+03	4.480454E-04	8.701235E-05
5.585043E+03	4.450152E-04	8.634619E-05
5.594946E+03	4.423225E-04	8.574717E-05
5.604848E+03	4.399816E-04	8.521783E-05
5.614751E+03	4.379981E-04	8.475904E-05
5.624653E+03	4.363735E-04	8.437086E-05
5.634556E+03	4.351100E-04	8.405350E-05
5.644459E+03	4.342020E-04	8.380570E-05
5.654361E+03	4.336407E-04	8.362552E-05
5.664264E+03	4.334199E-04	8.351157E-05
5.674166E+03	4.335270E-04	8.346124E-05
5.684069E+03	4.339531E-04	8.347262E-05
5.693971E+03	4.346797E-04	8.354200E-05
5.703874E+03	4.357032E-04	8.366849E-05
5.713776E+03	4.370073E-04	8.384882E-05
5.723679E+03	4.385817E-04	8.408086E-05
5.733582E+03	4.404279E-04	8.436475E-05
5.743484E+03	4.425307E-04	8.469741E-05
5.753387E+03	4.448952E-04	8.507968E-05
5.763289E+03	4.475194E-04	8.551106E-05
5.773192E+03	4.504021E-04	8.599118E-05
5.783094E+03	4.535385E-04	8.651895E-05
5.792997E+03	4.569390E-04	8.709626E-05
5.802899E+03	4.606000E-04	8.772225E-05
5.812802E+03	4.645275E-04	8.839796E-05
5.822705E+03	4.687232E-04	8.912355E-05
5.832607E+03	4.731831E-04	8.989811E-05
5.842510E+03	4.779134E-04	9.072272E-05
5.852412E+03	4.829205E-04	9.159840E-05
5.862315E+03	4.881939E-04	9.252304E-05
5.872217E+03	4.937385E-04	9.349745E-05
5.882120E+03	4.995533E-04	9.452128E-05
5.892022E+03	5.056420E-04	9.559510E-05
5.901925E+03	5.119906E-04	9.671611E-05
5.911828E+03	5.186070E-04	9.788569E-05
5.921730E+03	5.254754E-04	9.910068E-05
5.931633E+03	5.325960E-04	1.003610E-04
5.941535E+03	5.399631E-04	1.016655E-04
5.951438E+03	5.475634E-04	1.030115E-04
5.961340E+03	5.553958E-04	1.043987E-04
5.971243E+03	5.634385E-04	1.058228E-04
5.981146E+03	5.716950E-04	1.072844E-04
5.991048E+03	5.801347E-04	1.087777E-04
6.000951E+03	5.887596E-04	1.103029E-04
6.010853E+03	5.975431E-04	1.118549E-04
6.020756E+03	6.064784E-04	1.134325E-04
6.030658E+03	6.155365E-04	1.150300E-04
6.040561E+03	6.247009E-04	1.166444E-04
6.050463E+03	6.339466E-04	1.182709E-04
6.060366E+03	6.432545E-04	1.199059E-04
6.070269E+03	6.525892E-04	1.215427E-04
6.080171E+03	6.619208E-04	1.231759E-04
6.090074E+03	6.712268E-04	1.248011E-04
6.099976E+03	6.804757E-04	1.264126E-04
6.109879E+03	6.896187E-04	1.280013E-04
6.119781E+03	6.986321E-04	1.295628E-04
6.129684E+03	7.074844E-04	1.310915E-04
6.139586E+03	7.161549E-04	1.325834E-04
6.149489E+03	7.246351E-04	1.340373E-04
6.159392E+03	7.329188E-04	1.354519E-04
6.169294E+03	7.410129E-04	1.368286E-04
6.179197E+03	7.489453E-04	1.381728E-04
6.189099E+03	7.567193E-04	1.394851E-04
6.199002E+03	7.643298E-04	1.407646E-04
6.208904E+03	7.718127E-04	1.420180E-04
6.218807E+03	7.791767E-04	1.432471E-04
6.228709E+03	7.864104E-04	1.444497E-04
6.238612E+03	7.935555E-04	1.456337E-04
6.248515E+03	8.005926E-04	1.467953E-04
6.258417E+03	8.075549E-04	1.479409E-04
6.268320E+03	8.144341E-04	1.490688E-04
6.278222E+03	8.212440E-04	1.501815E-04
6.288125E+03	8.279870E-04	1.512796E-04
6.298027E+03	8.346663E-04	1.523635E-04
6.307930E+03	8.412847E-04	1.534338E-04
6.317833E+03	8.478327E-04	1.544888E-04
6.327735E+03	8.543009E-04	1.555266E-04
6.337638E+03	8.607029E-04	1.565499E-04
6.347540E+03	8.670156E-04	1.575544E-04
6.357443E+03	8.732526E-04	1.585426E-04
6.367345E+03	8.794025E-04	1.595124E-04
6.377248E+03	8.854659E-04	1.604640E-04
6.387150E+03	8.914570E-04	1.613999E-04
6.397053E+03	8.974041E-04	1.623253E-04
6.406956E+03	9.033104E-04	1.632407E-04
6.416858E+03	9.091925E-04	1.641492E-04
6.426761E+03	9.150688E-04	1.650540E-04
6.436663E+03	9.209300E-04	1.659534E-04
6.446566E+03	9.268087E-04	1.668533E-04
6.456468E+03	9.327106E-04	1.677548E-04
6.466371E+03	9.386265E-04	1.686560E-04
6.476273E+03	9.445904E-04	1.695631E-04
6.486176E+03	9.505932E-04	1.704745E-04
6.496079E+03	9.566247E-04	1.713882E-04
6.505981E+03	9.627196E-04	1.723104E-04
6.515884E+03	9.688677E-04	1.732393E-04
6.525786E+03	9.750734E-04	1.741757E-04
6.535689E+03	9.813570E-04	1.751231E-04
6.545591E+03	9.876909E-04	1.760765E-04
6.555494E+03	9.940779E-04	1.770364E-04
6.565396E+03	1.000554E-03	1.780092E-04
6.575299E+03	1.007088E-03	1.789894E-04
6.585202E+03	1.013682E-03	1.799773E-04
6.595104E+03	1.020354E-03	1.809759E-04
6.605007E+03	1.027088E-03	1.819825E-04
6.614909E+03	1.033882E-03	1.829967E-04
6.624812E+03	1.040753E-03	1.840215E-04
6.634714E+03	1.047665E-03	1.850504E-04
6.644617E+03	1.054614E-03	1.860830E-04
6.654520E+03	1.061635E-03	1.871252E-04
6.664422E+03	1.068688E-03	1.881700E-04
6.674325E+03	1.075768E-03	1.892166E-04
6.684227E+03	1.082890E-03	1.902677E-04
6.694130E+03	1.090032E-03	1.913192E-04
6.704032E+03	1.097187E-03	1.923702E-04
6.713935E+03	1.104349E-03	1.934197E-04
6.723837E+03	1.111514E-03	1.944668E-04
6.733740E+03	1.118654E-03	1.955069E-04
6.743643E+03	1.125783E-03	1.965424E-04
6.753545E+03	1.132896E-03	1.975724E-04
6.763448E+03	1.139964E-03	1.985921E-04
6.773350E+03	1.147001E-03	1.996042E-04
6.783253E+03	1.153980E-03	2.006037E-04
6.793155E+03	1.160893E-03	2.015897E-04
6.803058E+03	1.167735E-03	2.025612E-04
6.812960E+03	1.174476E-03	2.035132E-04
6.822863E+03	1.181154E-03	2.044526E-04
6.832766E+03	1.187741E-03	2.053747E-04
6.842668E+03	1.194211E-03	2.062747E-04
6.852571E+03	1.200578E-03	2.071558E-04
6.862473E+03	1.206816E-03	2.080135E-04
6.872376E+03	1.212920E-03	2.088468E-04
6.882278E+03	1.218906E-03	2.096591E-04
6.892181E+03	1.224747E-03	2.104458E-04
6.902083E+03	1.230438E-03	2.112063E-04
6.911986E+03	1.235974E-03	2.119400E-04
6.921889E+03	1.241352E-03	2.126464E-04
6.931791E+03	1.246543E-03	2.133211E-04
6.941694E+03	1.251593E-03	2.139719E-04
6.951596E+03	1.256450E-03	2.145905E-04
6.961499E+03	1.261114E-03	2.151768E-04
6.971401E+03	1.265607E-03	2.157351E-04
6.981304E+03	1.269904E-03	2.162613E-04
6.991207E+03	1.274006E-03	2.167559E-04
7.001109E+03	1.277914E-03	2.172194E-04
7.011012E+03	1.281632E-03	2.176525E-04
7.020914E+03	1.285188E-03	2.180606E-04
7.030817E+03	1.288537E-03	2.184361E-04
7.040719E+03	1.291685E-03	2.187803E-04
7.050622E+03	1.294665E-03	2.190992E-04
7.060524E+03	1.297487E-03	2.193946E-04
7.070427E+03	1.300134E-03	2.196642E-04
7.080330E+03	1.302644E-03	2.199145E-04
7.090232E+03	1.304978E-03	2.201391E-04
7.100135E+03	1.307201E-03	2.203495E-04
7.110037E+03	1.309301E-03	2.205437E-04
7.119940E+03	1.311292E-03	2.207247E-04
7.129842E+03	1.313164E-03	2.208906E-04
7.139745E+03	1.314987E-03	2.210535E-04
7.149647E+03	1.316720E-03	2.212072E-04
7.159550E+03	1.318408E-03	2.213590E-04
7.169453E+03	1.320035E-03	2.215069E-04
7.179355E+03	1.321644E-03	2.216580E-04
7.189258E+03	1.323215E-03	2.218095E-04
7.199160E+03	1.324759E-03	2.219632E-04
7.209063E+03	1.326307E-03	2.221249E-04
7.218965E+03	1.327836E-03	2.222906E-04
7.228868E+03	1.329373E-03	2.224652E-04
7.238770E+03	1.330858E-03	2.226392E-04
7.248673E+03	1.332315E-03	2.228164E-04
7.258576E+03	1.333763E-03	2.230008E-04
7.268478E+03	1.335138E-03	2.231814E-04
7.278381E+03	1.336457E-03	2.233617E-04
7.288283E+03	1.337682E-03	2.235353E-04
7.298186E+03	1.338829E-03	2.237055E-04
7.308088E+03	1.339862E-03	2.238663E-04
7.317991E+03	1.340771E-03	2.240163E-04
7.327894E+03	1.341550E-03	2.241547E-04
7.337796E+03	1.342165E-03	2.242761E-04
7.347699E+03	1.342612E-03	2.243804E-04
7.357601E+03	1.342893E-03	2.244677E-04
7.367504E+03	1.343010E-03	2.245388E-04
7.377406E+03	1.342998E-03	2.245997E-04
7.387309E+03	1.342836E-03	2.246471E-04
7.397211E+03	1.342594E-03	2.246929E-04
7.407114E+03	1.342285E-03	2.247393E-04
7.417017E+03	1.341921E-03	2.247890E-04
7.426919E+03	1.341517E-03	2.248443E-04
7.436822E+03	1.341087E-03	2.249078E-04
7.446724E+03	1.340699E-03	2.249911E-04
7.456627E+03	1.340292E-03	2.250840E-04
7.466529E+03	1.339894E-03	2.251910E-04
7.476432E+03	1.339502E-03	2.253113E-04
7.486334E+03	1.339143E-03	2.254492E-04
7.496237E+03	1.338752E-03	2.255937E-04
7.506140E+03	1.338357E-03	2.257492E-04
7.516042E+03	1.337955E-03	2.259152E-04
7.525945E+03	1.337580E-03	2.260969E-04
7.535847E+03	1.337167E-03	2.262835E-04
7.545750E+03	1.336782E-03	2.264857E-04
7.555652E+03	1.336396E-03	2.266985E-04
7.565555E+03	1.335981E-03	2.269168E-04
7.575457E+03	1.335605E-03	2.271520E-04
7.585360E+03	1.335241E-03	2.273992E-04
7.595263E+03	1.334893E-03	2.276593E-04
7.605165E+03	1.334568E-03	2.279329E-04
7.615068E+03	1.334270E-03	2.282205E-04
7.624970E+03	1.334003E-03	2.285229E-04
7.634873E+03	1.333803E-03	2.288459E-04
7.644775E+03	1.333608E-03	2.291786E-04
7.654678E+03	1.333483E-03	2.295322E-04
7.664581E+03	1.333397E-03	2.299009E-04
7.674483E+03	1.333346E-03	2.302843E-04
7.684386E+03	1.333328E-03	2.306816E-04
