#wls	flux	fluxerr
1.584409E+03	1.894755E-03	6.940098E-04
1.624020E+03	1.962601E-03	7.182916E-04
1.663630E+03	2.029257E-03	7.420849E-04
1.703240E+03	2.093840E-03	7.650670E-04
1.742850E+03	2.156194E-03	7.871810E-04
1.782461E+03	2.215303E-03	8.080566E-04
1.822071E+03	2.270483E-03	8.274461E-04
1.861681E+03	2.321387E-03	8.452254E-04
1.901291E+03	2.366841E-03	8.609703E-04
1.940902E+03	2.406219E-03	8.744575E-04
1.980512E+03	2.438509E-03	8.853246E-04
2.020122E+03	2.463074E-03	8.933471E-04
2.059732E+03	2.478620E-03	8.980635E-04
2.099342E+03	2.484151E-03	8.991227E-04
2.138953E+03	2.478674E-03	8.961768E-04
2.178563E+03	2.460687E-03	8.886954E-04
2.218173E+03	2.428962E-03	8.762512E-04
2.257783E+03	2.383283E-03	8.587832E-04
2.297394E+03	2.324291E-03	8.365401E-04
2.337004E+03	2.254102E-03	8.103018E-04
2.376614E+03	2.174480E-03	7.807166E-04
2.416224E+03	2.086977E-03	7.483560E-04
2.455835E+03	1.993248E-03	7.138260E-04
2.495445E+03	1.894325E-03	6.775062E-04
2.535055E+03	1.791424E-03	6.398410E-04
2.574665E+03	1.685606E-03	6.012173E-04
2.614276E+03	1.578006E-03	5.620470E-04
2.653886E+03	1.469587E-03	5.226782E-04
2.693496E+03	1.361346E-03	4.834694E-04
2.733106E+03	1.254244E-03	4.447646E-04
2.772716E+03	1.149203E-03	4.068910E-04
2.812327E+03	1.047118E-03	3.701656E-04
2.851937E+03	9.488774E-04	3.348999E-04
2.891547E+03	8.552903E-04	3.013756E-04
2.931157E+03	7.670780E-04	2.698415E-04
2.970768E+03	6.848040E-04	2.404888E-04
2.980670E+03	6.652302E-04	2.335141E-04
2.990573E+03	6.460406E-04	2.266796E-04
3.000475E+03	6.272651E-04	2.199957E-04
3.010378E+03	6.088887E-04	2.134571E-04
3.020280E+03	5.909244E-04	2.070680E-04
3.030183E+03	5.733825E-04	2.008321E-04
3.040086E+03	5.562365E-04	1.947399E-04
3.049988E+03	5.395199E-04	1.888028E-04
3.059891E+03	5.232069E-04	1.830118E-04
3.069793E+03	5.073163E-04	1.773732E-04
3.079696E+03	4.918342E-04	1.718821E-04
3.089598E+03	4.767584E-04	1.665375E-04
3.099501E+03	4.621041E-04	1.613445E-04
3.109403E+03	4.478495E-04	1.562953E-04
3.119306E+03	4.340167E-04	1.513976E-04
3.129209E+03	4.205767E-04	1.466410E-04
3.139111E+03	4.075496E-04	1.420323E-04
3.149014E+03	3.949155E-04	1.375646E-04
3.158916E+03	3.826847E-04	1.332410E-04
3.168819E+03	3.708449E-04	1.290574E-04
3.178721E+03	3.593975E-04	1.250138E-04
3.188624E+03	3.483367E-04	1.211083E-04
3.198526E+03	3.376566E-04	1.173384E-04
3.208429E+03	3.273456E-04	1.137001E-04
3.218332E+03	3.174086E-04	1.101949E-04
3.228234E+03	3.078332E-04	1.068183E-04
3.238137E+03	2.986173E-04	1.035694E-04
3.248039E+03	2.897489E-04	1.004439E-04
3.257942E+03	2.812207E-04	9.743912E-05
3.267844E+03	2.730290E-04	9.455359E-05
3.277747E+03	2.651617E-04	9.178299E-05
3.287650E+03	2.576148E-04	8.912579E-05
3.297552E+03	2.503798E-04	8.657887E-05
3.307455E+03	2.434410E-04	8.413665E-05
3.317357E+03	2.367973E-04	8.179864E-05
3.327260E+03	2.304368E-04	7.956062E-05
3.337162E+03	2.243512E-04	7.741952E-05
3.347065E+03	2.185325E-04	7.537250E-05
3.356967E+03	2.129666E-04	7.341451E-05
3.366870E+03	2.076515E-04	7.154480E-05
3.376773E+03	2.025767E-04	6.975963E-05
3.386675E+03	1.977319E-04	6.805525E-05
3.396578E+03	1.931099E-04	6.642917E-05
3.406480E+03	1.887037E-04	6.487883E-05
3.416383E+03	1.845018E-04	6.340015E-05
3.426285E+03	1.805001E-04	6.199166E-05
3.436188E+03	1.766879E-04	6.064958E-05
3.446090E+03	1.730596E-04	5.937184E-05
3.455993E+03	1.696074E-04	5.815574E-05
3.465896E+03	1.663243E-04	5.699873E-05
3.475798E+03	1.632034E-04	5.589839E-05
3.485701E+03	1.602382E-04	5.485242E-05
3.495603E+03	1.574210E-04	5.385808E-05
3.505506E+03	1.547445E-04	5.291280E-05
3.515408E+03	1.522035E-04	5.201474E-05
3.525311E+03	1.497915E-04	5.116159E-05
3.535213E+03	1.475040E-04	5.035176E-05
3.545116E+03	1.453336E-04	4.958266E-05
3.555019E+03	1.432764E-04	4.885291E-05
3.564921E+03	1.413274E-04	4.816070E-05
3.574824E+03	1.394844E-04	4.750525E-05
3.584726E+03	1.377413E-04	4.688444E-05
3.594629E+03	1.360950E-04	4.629714E-05
3.604531E+03	1.345387E-04	4.574099E-05
3.614434E+03	1.330698E-04	4.521504E-05
3.624337E+03	1.316844E-04	4.471797E-05
3.634239E+03	1.303792E-04	4.424852E-05
3.644142E+03	1.291517E-04	4.380589E-05
3.654044E+03	1.279998E-04	4.338928E-05
3.663947E+03	1.269202E-04	4.299755E-05
3.673849E+03	1.259121E-04	4.263035E-05
3.683752E+03	1.249723E-04	4.228656E-05
3.693654E+03	1.241009E-04	4.196622E-05
3.703557E+03	1.232960E-04	4.166863E-05
3.713460E+03	1.225556E-04	4.139305E-05
3.723362E+03	1.218788E-04	4.113915E-05
3.733265E+03	1.212658E-04	4.090694E-05
3.743167E+03	1.207145E-04	4.069572E-05
3.753070E+03	1.202250E-04	4.050547E-05
3.762972E+03	1.197954E-04	4.033551E-05
3.772875E+03	1.194248E-04	4.018548E-05
3.782777E+03	1.191132E-04	4.005538E-05
3.792680E+03	1.188608E-04	3.994520E-05
3.802583E+03	1.186656E-04	3.985426E-05
3.812485E+03	1.185287E-04	3.978288E-05
3.822388E+03	1.184472E-04	3.973007E-05
3.832290E+03	1.184231E-04	3.969645E-05
3.842193E+03	1.184537E-04	3.968104E-05
3.852095E+03	1.185408E-04	3.968448E-05
3.861998E+03	1.186826E-04	3.970609E-05
3.871900E+03	1.188791E-04	3.974586E-05
3.881803E+03	1.191295E-04	3.980344E-05
3.891706E+03	1.194337E-04	3.987882E-05
3.901608E+03	1.197909E-04	3.997163E-05
3.911511E+03	1.202020E-04	4.008218E-05
3.921413E+03	1.206651E-04	4.020980E-05
3.931316E+03	1.211802E-04	4.035446E-05
3.941218E+03	1.217464E-04	4.051581E-05
3.951121E+03	1.223648E-04	4.069415E-05
3.961024E+03	1.230343E-04	4.088913E-05
3.970926E+03	1.237540E-04	4.110041E-05
3.980829E+03	1.245231E-04	4.132764E-05
3.990731E+03	1.253424E-04	4.157113E-05
4.000634E+03	1.262103E-04	4.183022E-05
4.010536E+03	1.271276E-04	4.210523E-05
4.020439E+03	1.280926E-04	4.239551E-05
4.030341E+03	1.291053E-04	4.270105E-05
4.040244E+03	1.301660E-04	4.302189E-05
4.050147E+03	1.312738E-04	4.335770E-05
4.060049E+03	1.324278E-04	4.370817E-05
4.069952E+03	1.336272E-04	4.407301E-05
4.079854E+03	1.348733E-04	4.445259E-05
4.089757E+03	1.361643E-04	4.484628E-05
4.099659E+03	1.375005E-04	4.525414E-05
4.109562E+03	1.388799E-04	4.567552E-05
4.119464E+03	1.403029E-04	4.611049E-05
4.129367E+03	1.417699E-04	4.655913E-05
4.139270E+03	1.432789E-04	4.702079E-05
4.149172E+03	1.448304E-04	4.749557E-05
4.159075E+03	1.464224E-04	4.798280E-05
4.168977E+03	1.480553E-04	4.848259E-05
4.178880E+03	1.497272E-04	4.899426E-05
4.188782E+03	1.514384E-04	4.951792E-05
4.198685E+03	1.531871E-04	5.005288E-05
4.208587E+03	1.549723E-04	5.059885E-05
4.218490E+03	1.567920E-04	5.115511E-05
4.228393E+03	1.586464E-04	5.172173E-05
4.238295E+03	1.605334E-04	5.229797E-05
4.248198E+03	1.624520E-04	5.288348E-05
4.258100E+03	1.643998E-04	5.347747E-05
4.268003E+03	1.663742E-04	5.407908E-05
4.277905E+03	1.683741E-04	5.468789E-05
4.287808E+03	1.703980E-04	5.530342E-05
4.297711E+03	1.724430E-04	5.592474E-05
4.307613E+03	1.745077E-04	5.655132E-05
4.317516E+03	1.765889E-04	5.718213E-05
4.327418E+03	1.786862E-04	5.781704E-05
4.337321E+03	1.807978E-04	5.845544E-05
4.347223E+03	1.829262E-04	5.909811E-05
4.357126E+03	1.850694E-04	5.974442E-05
4.367028E+03	1.872285E-04	6.039472E-05
4.376931E+03	1.894032E-04	6.104884E-05
4.386834E+03	1.915961E-04	6.170767E-05
4.396736E+03	1.938054E-04	6.237061E-05
4.406639E+03	1.960310E-04	6.303755E-05
4.416541E+03	1.982742E-04	6.370897E-05
4.426444E+03	2.005348E-04	6.438472E-05
4.436346E+03	2.028128E-04	6.506485E-05
4.446249E+03	2.051065E-04	6.574877E-05
4.456151E+03	2.074176E-04	6.643702E-05
4.466054E+03	2.097446E-04	6.712908E-05
4.475957E+03	2.120873E-04	6.782490E-05
4.485859E+03	2.144457E-04	6.852447E-05
4.495762E+03	2.168168E-04	6.922680E-05
4.505664E+03	2.192024E-04	6.993244E-05
4.515567E+03	2.216010E-04	7.064095E-05
4.525469E+03	2.240126E-04	7.135228E-05
4.535372E+03	2.264344E-04	7.206552E-05
4.545274E+03	2.288682E-04	7.278125E-05
4.555177E+03	2.313111E-04	7.349852E-05
4.565080E+03	2.337654E-04	7.421808E-05
4.574982E+03	2.362282E-04	7.493898E-05
4.584885E+03	2.387003E-04	7.566148E-05
4.594787E+03	2.411805E-04	7.638518E-05
4.604690E+03	2.436723E-04	7.711117E-05
4.614592E+03	2.461729E-04	7.783855E-05
4.624495E+03	2.486856E-04	7.856840E-05
4.634398E+03	2.512099E-04	7.930052E-05
4.644300E+03	2.537459E-04	8.003491E-05
4.654203E+03	2.562973E-04	8.077276E-05
4.664105E+03	2.588618E-04	8.151333E-05
4.674008E+03	2.614419E-04	8.225735E-05
4.683910E+03	2.640350E-04	8.300408E-05
4.693813E+03	2.666438E-04	8.375426E-05
4.703715E+03	2.692633E-04	8.450638E-05
4.713618E+03	2.718967E-04	8.526137E-05
4.723521E+03	2.745412E-04	8.601841E-05
4.733423E+03	2.771996E-04	8.677831E-05
4.743326E+03	2.798699E-04	8.754045E-05
4.753228E+03	2.825520E-04	8.830481E-05
4.763131E+03	2.852463E-04	8.907152E-05
4.773033E+03	2.879530E-04	8.984057E-05
4.782936E+03	2.906724E-04	9.061208E-05
4.792838E+03	2.934021E-04	9.138528E-05
4.802741E+03	2.961445E-04	9.216094E-05
4.812644E+03	2.989000E-04	9.293916E-05
4.822546E+03	3.016661E-04	9.371913E-05
4.832449E+03	3.044427E-04	9.450084E-05
4.842351E+03	3.072327E-04	9.528516E-05
4.852254E+03	3.100299E-04	9.607019E-05
4.862156E+03	3.128401E-04	9.685770E-05
4.872059E+03	3.156602E-04	9.764672E-05
4.881961E+03	3.184868E-04	9.843618E-05
4.891864E+03	3.213220E-04	9.922675E-05
4.901767E+03	3.241650E-04	1.000182E-04
4.911669E+03	3.270119E-04	1.008093E-04
4.921572E+03	3.298644E-04	1.016005E-04
4.931474E+03	3.327149E-04	1.023895E-04
4.941377E+03	3.355678E-04	1.031778E-04
4.951279E+03	3.384180E-04	1.039636E-04
4.961182E+03	3.412600E-04	1.047454E-04
4.971085E+03	3.440944E-04	1.055233E-04
4.980987E+03	3.469151E-04	1.062955E-04
4.990890E+03	3.497190E-04	1.070610E-04
5.000792E+03	3.525026E-04	1.078188E-04
5.010695E+03	3.552624E-04	1.085678E-04
5.020597E+03	3.579907E-04	1.093057E-04
5.030500E+03	3.606870E-04	1.100324E-04
5.040402E+03	3.633435E-04	1.107456E-04
5.050305E+03	3.659551E-04	1.114436E-04
5.060208E+03	3.685138E-04	1.121242E-04
5.070110E+03	3.710182E-04	1.127869E-04
5.080013E+03	3.734559E-04	1.134280E-04
5.089915E+03	3.758287E-04	1.140482E-04
5.099818E+03	3.781245E-04	1.146438E-04
5.109720E+03	3.803412E-04	1.152142E-04
5.119623E+03	3.824703E-04	1.157570E-04
5.129525E+03	3.845020E-04	1.162693E-04
5.139428E+03	3.864350E-04	1.167507E-04
5.149331E+03	3.882597E-04	1.171985E-04
5.159233E+03	3.899707E-04	1.176110E-04
5.169136E+03	3.915625E-04	1.179869E-04
5.179038E+03	3.930254E-04	1.183231E-04
5.188941E+03	3.943543E-04	1.186184E-04
5.198843E+03	3.955393E-04	1.188698E-04
5.208746E+03	3.965791E-04	1.190771E-04
5.218648E+03	3.974644E-04	1.192376E-04
5.228551E+03	3.981900E-04	1.193498E-04
5.238454E+03	3.987508E-04	1.194125E-04
5.248356E+03	3.991384E-04	1.194232E-04
5.258259E+03	3.993487E-04	1.193808E-04
5.268161E+03	3.993777E-04	1.192843E-04
5.278064E+03	3.992219E-04	1.191329E-04
5.287966E+03	3.988755E-04	1.189248E-04
5.297869E+03	3.983401E-04	1.186608E-04
5.307772E+03	3.976150E-04	1.183408E-04
5.317674E+03	3.967007E-04	1.179651E-04
5.327577E+03	3.955942E-04	1.175329E-04
5.337479E+03	3.943057E-04	1.170476E-04
5.347382E+03	3.928357E-04	1.165092E-04
5.357284E+03	3.911962E-04	1.159216E-04
5.367187E+03	3.893905E-04	1.152859E-04
5.377089E+03	3.874301E-04	1.146056E-04
5.386992E+03	3.853242E-04	1.138836E-04
5.396895E+03	3.830909E-04	1.131252E-04
5.406797E+03	3.807383E-04	1.123331E-04
5.416700E+03	3.782757E-04	1.115100E-04
5.426602E+03	3.757098E-04	1.106580E-04
5.436505E+03	3.730559E-04	1.097816E-04
5.446407E+03	3.703231E-04	1.088837E-04
5.456310E+03	3.675245E-04	1.079682E-04
5.466212E+03	3.646746E-04	1.070393E-04
5.476115E+03	3.617876E-04	1.061012E-04
5.486018E+03	3.588783E-04	1.051584E-04
5.495920E+03	3.559658E-04	1.042164E-04
5.505823E+03	3.530646E-04	1.032795E-04
5.515725E+03	3.501964E-04	1.023540E-04
5.525628E+03	3.473717E-04	1.014429E-04
5.535530E+03	3.446141E-04	1.005532E-04
5.545433E+03	3.419332E-04	9.968753E-05
5.555335E+03	3.393469E-04	9.885108E-05
5.565238E+03	3.368732E-04	9.804901E-05
5.575141E+03	3.345173E-04	9.728275E-05
5.585043E+03	3.323015E-04	9.655872E-05
5.594946E+03	3.302320E-04	9.587861E-05
5.604848E+03	3.283146E-04	9.524402E-05
5.614751E+03	3.265672E-04	9.465997E-05
5.624653E+03	3.249891E-04	9.412622E-05
5.634556E+03	3.235892E-04	9.364519E-05
5.644459E+03	3.223749E-04	9.321890E-05
5.654361E+03	3.213502E-04	9.284837E-05
5.664264E+03	3.205170E-04	9.253405E-05
5.674166E+03	3.198776E-04	9.227646E-05
5.684069E+03	3.194369E-04	9.207688E-05
5.693971E+03	3.191995E-04	9.193654E-05
5.703874E+03	3.191594E-04	9.185357E-05
5.713776E+03	3.193278E-04	9.183105E-05
5.723679E+03	3.196989E-04	9.186718E-05
5.733582E+03	3.202801E-04	9.196402E-05
5.743484E+03	3.210695E-04	9.212084E-05
5.753387E+03	3.220715E-04	9.233880E-05
5.763289E+03	3.232878E-04	9.261828E-05
5.773192E+03	3.247231E-04	9.296049E-05
5.783094E+03	3.263760E-04	9.336490E-05
5.792997E+03	3.282479E-04	9.383183E-05
5.802899E+03	3.303445E-04	9.436274E-05
5.812802E+03	3.326712E-04	9.495910E-05
5.822705E+03	3.352223E-04	9.561916E-05
5.832607E+03	3.380069E-04	9.634540E-05
5.842510E+03	3.410230E-04	9.713710E-05
5.852412E+03	3.442758E-04	9.799567E-05
5.862315E+03	3.477664E-04	9.892133E-05
5.872217E+03	3.514914E-04	9.991298E-05
5.882120E+03	3.554554E-04	1.009718E-04
5.892022E+03	3.596583E-04	1.020978E-04
5.901925E+03	3.640950E-04	1.032892E-04
5.911828E+03	3.687728E-04	1.045482E-04
5.921730E+03	3.736814E-04	1.058717E-04
5.931633E+03	3.788219E-04	1.072600E-04
5.941535E+03	3.841910E-04	1.087120E-04
5.951438E+03	3.897799E-04	1.102252E-04
5.961340E+03	3.955873E-04	1.117991E-04
5.971243E+03	4.015973E-04	1.134293E-04
5.981146E+03	4.078112E-04	1.151160E-04
5.991048E+03	4.142110E-04	1.168541E-04
6.000951E+03	4.207905E-04	1.186418E-04
6.010853E+03	4.275335E-04	1.204746E-04
6.020756E+03	4.344268E-04	1.223488E-04
6.030658E+03	4.414504E-04	1.242587E-04
6.040561E+03	4.485831E-04	1.261983E-04
6.050463E+03	4.558124E-04	1.281642E-04
6.060366E+03	4.631030E-04	1.301465E-04
6.070269E+03	4.704398E-04	1.321410E-04
6.080171E+03	4.777900E-04	1.341386E-04
6.090074E+03	4.851307E-04	1.361329E-04
6.099976E+03	4.924150E-04	1.381108E-04
6.109879E+03	4.996243E-04	1.400674E-04
6.119781E+03	5.067157E-04	1.419905E-04
6.129684E+03	5.136592E-04	1.438721E-04
6.139586E+03	5.204205E-04	1.457025E-04
6.149489E+03	5.269966E-04	1.474812E-04
6.159392E+03	5.333940E-04	1.492101E-04
6.169294E+03	5.396225E-04	1.508921E-04
6.179197E+03	5.456951E-04	1.525310E-04
6.189099E+03	5.516058E-04	1.541252E-04
6.199002E+03	5.573859E-04	1.556836E-04
6.208904E+03	5.630261E-04	1.572038E-04
6.218807E+03	5.685475E-04	1.586917E-04
6.228709E+03	5.739651E-04	1.601517E-04
6.238612E+03	5.792725E-04	1.615821E-04
6.248515E+03	5.844870E-04	1.629877E-04
6.258417E+03	5.896189E-04	1.643716E-04
6.268320E+03	5.946796E-04	1.657368E-04
6.278222E+03	5.996644E-04	1.670823E-04
6.288125E+03	6.045850E-04	1.684112E-04
6.298027E+03	6.094458E-04	1.697248E-04
6.307930E+03	6.142509E-04	1.710243E-04
6.317833E+03	6.189955E-04	1.723085E-04
6.327735E+03	6.236753E-04	1.735761E-04
6.337638E+03	6.282849E-04	1.748257E-04
6.347540E+03	6.328280E-04	1.760584E-04
6.357443E+03	6.372987E-04	1.772724E-04
6.367345E+03	6.416721E-04	1.784611E-04
6.377248E+03	6.459792E-04	1.796329E-04
6.387150E+03	6.502230E-04	1.807887E-04
6.397053E+03	6.544164E-04	1.819322E-04
6.406956E+03	6.585828E-04	1.830698E-04
6.416858E+03	6.627161E-04	1.842000E-04
6.426761E+03	6.668401E-04	1.853293E-04
6.436663E+03	6.709598E-04	1.864591E-04
6.446566E+03	6.750891E-04	1.875934E-04
6.456468E+03	6.792119E-04	1.887276E-04
6.466371E+03	6.833635E-04	1.898715E-04
6.476273E+03	6.875268E-04	1.910205E-04
6.486176E+03	6.917166E-04	1.921786E-04
6.496079E+03	6.959368E-04	1.933469E-04
6.505981E+03	7.001800E-04	1.945234E-04
6.515884E+03	7.044605E-04	1.957121E-04
6.525786E+03	7.087821E-04	1.969141E-04
6.535689E+03	7.131364E-04	1.981269E-04
6.545591E+03	7.175263E-04	1.993515E-04
6.555494E+03	7.219542E-04	2.005885E-04
6.565396E+03	7.264350E-04	2.018420E-04
6.575299E+03	7.309468E-04	2.031061E-04
6.585202E+03	7.355036E-04	2.043845E-04
6.595104E+03	7.401073E-04	2.056778E-04
6.605007E+03	7.447474E-04	2.069832E-04
6.614909E+03	7.494370E-04	2.083043E-04
6.624812E+03	7.541654E-04	2.096380E-04
6.634714E+03	7.589460E-04	2.109883E-04
6.644617E+03	7.637538E-04	2.123480E-04
6.654520E+03	7.686021E-04	2.137209E-04
6.664422E+03	7.735052E-04	2.151111E-04
6.674325E+03	7.784363E-04	2.165111E-04
6.684227E+03	7.834097E-04	2.179248E-04
6.694130E+03	7.884114E-04	2.193484E-04
6.704032E+03	7.934559E-04	2.207860E-04
6.713935E+03	7.985290E-04	2.222335E-04
6.723837E+03	8.036306E-04	2.236911E-04
6.733740E+03	8.087751E-04	2.251627E-04
6.743643E+03	8.139335E-04	2.266402E-04
6.753545E+03	8.191345E-04	2.281317E-04
6.763448E+03	8.243483E-04	2.296288E-04
6.773350E+03	8.296035E-04	2.311396E-04
6.783253E+03	8.348696E-04	2.326556E-04
6.793155E+03	8.401447E-04	2.341762E-04
6.803058E+03	8.454424E-04	2.357053E-04
6.812960E+03	8.507612E-04	2.372424E-04
6.822863E+03	8.560671E-04	2.387781E-04
6.832766E+03	8.613892E-04	2.403205E-04
6.842668E+03	8.667082E-04	2.418643E-04
6.852571E+03	8.720377E-04	2.434132E-04
6.862473E+03	8.773411E-04	2.449570E-04
6.872376E+03	8.826312E-04	2.464993E-04
6.882278E+03	8.879042E-04	2.480391E-04
6.892181E+03	8.931389E-04	2.495705E-04
6.902083E+03	8.983482E-04	2.510969E-04
6.911986E+03	9.035283E-04	2.526175E-04
6.921889E+03	9.086576E-04	2.541261E-04
6.931791E+03	9.137319E-04	2.556215E-04
6.941694E+03	9.187477E-04	2.571029E-04
6.951596E+03	9.237189E-04	2.585740E-04
6.961499E+03	9.286063E-04	2.600239E-04
6.971401E+03	9.334432E-04	2.614619E-04
6.981304E+03	9.381904E-04	2.628769E-04
6.991207E+03	9.428635E-04	2.642735E-04
7.001109E+03	9.474421E-04	2.656458E-04
7.011012E+03	9.519431E-04	2.669985E-04
7.020914E+03	9.563655E-04	2.683313E-04
7.030817E+03	9.606895E-04	2.696388E-04
7.040719E+03	9.648947E-04	2.709150E-04
7.050622E+03	9.690201E-04	2.721710E-04
7.060524E+03	9.730466E-04	2.734014E-04
7.070427E+03	9.769743E-04	2.746061E-04
7.080330E+03	9.808047E-04	2.757856E-04
7.090232E+03	9.845186E-04	2.769345E-04
7.100135E+03	9.881375E-04	2.780586E-04
7.110037E+03	9.916425E-04	2.791528E-04
7.119940E+03	9.950355E-04	2.802175E-04
7.129842E+03	9.983390E-04	2.812590E-04
7.139745E+03	1.001534E-03	2.822720E-04
7.149647E+03	1.004643E-03	2.832628E-04
7.159550E+03	1.007627E-03	2.842200E-04
7.169453E+03	1.010507E-03	2.851500E-04
7.179355E+03	1.013284E-03	2.860530E-04
7.189258E+03	1.015960E-03	2.869292E-04
7.199160E+03	1.018536E-03	2.877790E-04
7.209063E+03	1.021010E-03	2.886020E-04
7.218965E+03	1.023363E-03	2.893924E-04
7.228868E+03	1.025613E-03	2.901558E-04
7.238770E+03	1.027762E-03	2.908921E-04
7.248673E+03	1.029808E-03	2.916012E-04
7.258576E+03	1.031728E-03	2.922762E-04
7.268478E+03	1.033543E-03	2.929232E-04
7.278381E+03	1.035274E-03	2.935483E-04
7.288283E+03	1.036876E-03	2.941382E-04
7.298186E+03	1.038371E-03	2.946994E-04
7.308088E+03	1.039758E-03	2.952317E-04
7.317991E+03	1.041060E-03	2.957414E-04
7.327894E+03	1.042255E-03	2.962222E-04
7.337796E+03	1.043367E-03	2.966811E-04
7.347699E+03	1.044422E-03	2.971252E-04
7.357601E+03	1.045398E-03	2.975483E-04
7.367504E+03	1.046345E-03	2.979648E-04
7.377406E+03	1.047220E-03	2.983621E-04
7.387309E+03	1.048049E-03	2.987479E-04
7.397211E+03	1.048813E-03	2.991167E-04
7.407114E+03	1.049541E-03	2.994764E-04
7.417017E+03	1.050188E-03	2.998144E-04
7.426919E+03	1.050781E-03	3.001387E-04
7.436822E+03	1.051326E-03	3.004504E-04
7.446724E+03	1.051801E-03	3.007438E-04
7.456627E+03	1.052260E-03	3.010338E-04
7.466529E+03	1.052658E-03	3.013075E-04
7.476432E+03	1.053021E-03	3.015728E-04
7.486334E+03	1.053329E-03	3.018234E-04
7.496237E+03	1.053610E-03	3.020674E-04
7.506140E+03	1.053840E-03	3.022981E-04
7.516042E+03	1.054046E-03	3.025234E-04
7.525945E+03	1.054207E-03	3.027365E-04
7.535847E+03	1.054323E-03	3.029379E-04
7.545750E+03	1.054421E-03	3.031350E-04
7.555652E+03	1.054475E-03	3.033207E-04
7.565555E+03	1.054487E-03	3.034951E-04
7.575457E+03	1.054480E-03	3.036654E-04
7.585360E+03	1.054430E-03	3.038238E-04
7.595263E+03	1.054360E-03	3.039774E-04
7.605165E+03	1.054216E-03	3.041109E-04
7.615068E+03	1.054050E-03	3.042385E-04
7.624970E+03	1.053858E-03	3.043595E-04
7.634873E+03	1.053612E-03	3.044655E-04
7.644775E+03	1.053334E-03	3.045632E-04
7.654678E+03	1.052995E-03	3.046441E-04
7.664581E+03	1.052592E-03	3.047068E-04
7.674483E+03	1.052147E-03	3.047580E-04
7.684386E+03	1.051656E-03	3.047965E-04
