#wls	flux	fluxerr
1.584409E+03	5.107335E-03	1.013955E-03
1.624020E+03	5.254591E-03	1.043154E-03
1.663630E+03	5.392241E-03	1.070441E-03
1.703240E+03	5.519247E-03	1.095611E-03
1.742850E+03	5.632310E-03	1.118008E-03
1.782461E+03	5.731256E-03	1.137599E-03
1.822071E+03	5.812671E-03	1.153705E-03
1.861681E+03	5.875738E-03	1.166165E-03
1.901291E+03	5.918607E-03	1.174611E-03
1.940902E+03	5.938577E-03	1.178509E-03
1.980512E+03	5.935021E-03	1.177735E-03
2.020122E+03	5.906117E-03	1.171927E-03
2.059732E+03	5.850408E-03	1.160797E-03
2.099342E+03	5.766908E-03	1.144151E-03
2.138953E+03	5.654431E-03	1.121755E-03
2.178563E+03	5.511242E-03	1.093266E-03
2.218173E+03	5.335899E-03	1.058398E-03
2.257783E+03	5.129335E-03	1.017341E-03
2.297394E+03	4.895786E-03	9.709340E-04
2.337004E+03	4.642414E-03	9.206006E-04
2.376614E+03	4.374912E-03	8.674708E-04
2.416224E+03	4.098415E-03	8.125640E-04
2.455835E+03	3.816614E-03	7.566134E-04
2.495445E+03	3.533345E-03	7.003803E-04
2.535055E+03	3.251688E-03	6.444757E-04
2.574665E+03	2.974797E-03	5.895255E-04
2.614276E+03	2.705180E-03	5.360268E-04
2.653886E+03	2.445153E-03	4.844392E-04
2.693496E+03	2.196784E-03	4.351718E-04
2.733106E+03	1.961641E-03	3.885355E-04
2.772716E+03	1.741069E-03	3.447960E-04
2.812327E+03	1.536073E-03	3.041516E-04
2.851937E+03	1.347423E-03	2.667544E-04
2.891547E+03	1.175626E-03	2.327037E-04
2.931157E+03	1.020831E-03	2.020278E-04
2.970768E+03	8.828457E-04	1.746877E-04
2.980670E+03	8.509157E-04	1.683618E-04
2.990573E+03	8.199736E-04	1.622319E-04
3.000475E+03	7.900370E-04	1.563015E-04
3.010378E+03	7.610501E-04	1.505594E-04
3.020280E+03	7.330275E-04	1.450085E-04
3.030183E+03	7.059463E-04	1.396444E-04
3.040086E+03	6.797992E-04	1.344654E-04
3.049988E+03	6.545345E-04	1.294615E-04
3.059891E+03	6.301720E-04	1.246364E-04
3.069793E+03	6.066615E-04	1.199803E-04
3.079696E+03	5.840058E-04	1.154937E-04
3.089598E+03	5.621808E-04	1.111717E-04
3.099501E+03	5.411526E-04	1.070077E-04
3.109403E+03	5.209201E-04	1.030014E-04
3.119306E+03	5.014496E-04	9.914611E-05
3.129209E+03	4.827288E-04	9.543943E-05
3.139111E+03	4.647347E-04	9.187680E-05
3.149014E+03	4.474455E-04	8.845384E-05
3.158916E+03	4.308474E-04	8.516784E-05
3.168819E+03	4.149178E-04	8.201430E-05
3.178721E+03	3.996296E-04	7.898784E-05
3.188624E+03	3.849761E-04	7.608714E-05
3.198526E+03	3.709311E-04	7.330698E-05
3.208429E+03	3.574818E-04	7.064484E-05
3.218332E+03	3.446088E-04	6.809684E-05
3.228234E+03	3.322887E-04	6.565838E-05
3.238137E+03	3.205140E-04	6.332793E-05
3.248039E+03	3.092558E-04	6.109976E-05
3.257942E+03	2.985065E-04	5.897236E-05
3.267844E+03	2.882471E-04	5.694199E-05
3.277747E+03	2.784515E-04	5.500343E-05
3.287650E+03	2.691108E-04	5.315495E-05
3.297552E+03	2.602075E-04	5.139307E-05
3.307455E+03	2.517209E-04	4.971367E-05
3.317357E+03	2.436349E-04	4.811357E-05
3.327260E+03	2.359336E-04	4.658963E-05
3.337162E+03	2.286017E-04	4.513880E-05
3.347065E+03	2.216243E-04	4.375813E-05
3.356967E+03	2.149869E-04	4.244473E-05
3.366870E+03	2.086726E-04	4.119528E-05
3.376773E+03	2.026657E-04	4.000665E-05
3.386675E+03	1.969584E-04	3.887731E-05
3.396578E+03	1.915310E-04	3.780332E-05
3.406480E+03	1.863742E-04	3.678288E-05
3.416383E+03	1.814744E-04	3.581329E-05
3.426285E+03	1.768211E-04	3.489245E-05
3.436188E+03	1.723998E-04	3.401750E-05
3.446090E+03	1.681992E-04	3.318620E-05
3.455993E+03	1.642105E-04	3.239680E-05
3.465896E+03	1.604215E-04	3.164689E-05
3.475798E+03	1.568244E-04	3.093493E-05
3.485701E+03	1.534051E-04	3.025812E-05
3.495603E+03	1.501570E-04	2.961517E-05
3.505506E+03	1.470692E-04	2.900391E-05
3.515408E+03	1.441331E-04	2.842264E-05
3.525311E+03	1.413407E-04	2.786977E-05
3.535213E+03	1.386816E-04	2.734327E-05
3.545116E+03	1.361518E-04	2.684231E-05
3.555019E+03	1.337434E-04	2.636533E-05
3.564921E+03	1.314489E-04	2.591088E-05
3.574824E+03	1.292652E-04	2.547832E-05
3.584726E+03	1.271844E-04	2.506608E-05
3.594629E+03	1.252013E-04	2.467317E-05
3.604531E+03	1.233114E-04	2.429865E-05
3.614434E+03	1.215101E-04	2.394164E-05
3.624337E+03	1.197932E-04	2.360131E-05
3.634239E+03	1.181568E-04	2.327685E-05
3.644142E+03	1.165980E-04	2.296773E-05
3.654044E+03	1.151142E-04	2.267343E-05
3.663947E+03	1.137018E-04	2.239323E-05
3.673849E+03	1.123614E-04	2.212723E-05
3.683752E+03	1.110884E-04	2.187454E-05
3.693654E+03	1.098824E-04	2.163506E-05
3.703557E+03	1.087409E-04	2.140831E-05
3.713460E+03	1.076624E-04	2.119398E-05
3.723362E+03	1.066471E-04	2.099213E-05
3.733265E+03	1.056909E-04	2.080193E-05
3.743167E+03	1.047940E-04	2.062341E-05
3.753070E+03	1.039557E-04	2.045643E-05
3.762972E+03	1.031726E-04	2.030034E-05
3.772875E+03	1.024450E-04	2.015518E-05
3.782777E+03	1.017721E-04	2.002079E-05
3.792680E+03	1.011516E-04	1.989670E-05
3.802583E+03	1.005817E-04	1.978260E-05
3.812485E+03	1.000636E-04	1.967868E-05
3.822388E+03	9.959407E-05	1.958431E-05
3.832290E+03	9.917316E-05	1.949950E-05
3.842193E+03	9.879942E-05	1.942397E-05
3.852095E+03	9.847217E-05	1.935757E-05
3.861998E+03	9.819076E-05	1.930018E-05
3.871900E+03	9.795295E-05	1.925136E-05
3.881803E+03	9.775816E-05	1.921098E-05
3.891706E+03	9.760654E-05	1.917908E-05
3.901608E+03	9.749672E-05	1.915537E-05
3.911511E+03	9.742733E-05	1.913960E-05
3.921413E+03	9.739787E-05	1.913165E-05
3.931316E+03	9.740700E-05	1.913126E-05
3.941218E+03	9.745420E-05	1.913834E-05
3.951121E+03	9.753895E-05	1.915276E-05
3.961024E+03	9.766079E-05	1.917445E-05
3.970926E+03	9.781776E-05	1.920301E-05
3.980829E+03	9.800946E-05	1.923835E-05
3.990731E+03	9.823544E-05	1.928040E-05
4.000634E+03	9.849542E-05	1.932909E-05
4.010536E+03	9.878824E-05	1.938420E-05
4.020439E+03	9.911291E-05	1.944551E-05
4.030341E+03	9.946910E-05	1.951298E-05
4.040244E+03	9.985587E-05	1.958641E-05
4.050147E+03	1.002729E-04	1.966574E-05
4.060049E+03	1.007194E-04	1.975078E-05
4.069952E+03	1.011949E-04	1.984149E-05
4.079854E+03	1.016986E-04	1.993767E-05
4.089757E+03	1.022295E-04	2.003914E-05
4.099659E+03	1.027874E-04	2.014586E-05
4.109562E+03	1.033714E-04	2.025764E-05
4.119464E+03	1.039814E-04	2.037446E-05
4.129367E+03	1.046157E-04	2.049598E-05
4.139270E+03	1.052741E-04	2.062218E-05
4.149172E+03	1.059550E-04	2.075272E-05
4.159075E+03	1.066592E-04	2.088776E-05
4.168977E+03	1.073849E-04	2.102696E-05
4.178880E+03	1.081322E-04	2.117031E-05
4.188782E+03	1.088985E-04	2.131732E-05
4.198685E+03	1.096846E-04	2.146813E-05
4.208587E+03	1.104878E-04	2.162224E-05
4.218490E+03	1.113091E-04	2.177980E-05
4.228393E+03	1.121457E-04	2.194029E-05
4.238295E+03	1.129959E-04	2.210336E-05
4.248198E+03	1.138604E-04	2.226916E-05
4.258100E+03	1.147357E-04	2.243699E-05
4.268003E+03	1.156225E-04	2.260700E-05
4.277905E+03	1.165173E-04	2.277848E-05
4.287808E+03	1.174208E-04	2.295159E-05
4.297711E+03	1.183313E-04	2.312598E-05
4.307613E+03	1.192469E-04	2.330127E-05
4.317516E+03	1.201674E-04	2.347745E-05
4.327418E+03	1.210919E-04	2.365433E-05
4.337321E+03	1.220215E-04	2.383210E-05
4.347223E+03	1.229540E-04	2.401037E-05
4.357126E+03	1.238916E-04	2.418952E-05
4.367028E+03	1.248342E-04	2.436957E-05
4.376931E+03	1.257820E-04	2.455055E-05
4.386834E+03	1.267351E-04	2.473246E-05
4.396736E+03	1.276947E-04	2.491554E-05
4.406639E+03	1.286599E-04	2.509963E-05
4.416541E+03	1.296320E-04	2.528497E-05
4.426444E+03	1.306114E-04	2.547162E-05
4.436346E+03	1.315982E-04	2.565963E-05
4.446249E+03	1.325918E-04	2.584884E-05
4.456151E+03	1.335924E-04	2.603933E-05
4.466054E+03	1.345992E-04	2.623092E-05
4.475957E+03	1.356137E-04	2.642389E-05
4.485859E+03	1.366337E-04	2.661785E-05
4.495762E+03	1.376597E-04	2.681285E-05
4.505664E+03	1.386919E-04	2.700895E-05
4.515567E+03	1.397281E-04	2.720573E-05
4.525469E+03	1.407699E-04	2.740347E-05
4.535372E+03	1.418152E-04	2.760178E-05
4.545274E+03	1.428643E-04	2.780072E-05
4.555177E+03	1.439152E-04	2.799987E-05
4.565080E+03	1.449694E-04	2.819957E-05
4.574982E+03	1.460263E-04	2.839967E-05
4.584885E+03	1.470839E-04	2.859978E-05
4.594787E+03	1.481428E-04	2.880001E-05
4.604690E+03	1.492035E-04	2.900049E-05
4.614592E+03	1.502657E-04	2.920110E-05
4.624495E+03	1.513273E-04	2.940149E-05
4.634398E+03	1.523919E-04	2.960233E-05
4.644300E+03	1.534604E-04	2.980380E-05
4.654203E+03	1.545312E-04	3.000559E-05
4.664105E+03	1.556054E-04	3.020789E-05
4.674008E+03	1.566841E-04	3.041094E-05
4.683910E+03	1.577643E-04	3.061415E-05
4.693813E+03	1.588474E-04	3.081777E-05
4.703715E+03	1.599316E-04	3.102148E-05
4.713618E+03	1.610184E-04	3.122555E-05
4.723521E+03	1.621077E-04	3.142996E-05
4.733423E+03	1.631981E-04	3.163443E-05
4.743326E+03	1.642910E-04	3.183926E-05
4.753228E+03	1.653850E-04	3.204414E-05
4.763131E+03	1.664817E-04	3.224941E-05
4.773033E+03	1.675797E-04	3.245476E-05
4.782936E+03	1.686791E-04	3.266024E-05
4.792838E+03	1.697799E-04	3.286586E-05
4.802741E+03	1.708840E-04	3.307195E-05
4.812644E+03	1.719899E-04	3.327823E-05
4.822546E+03	1.730977E-04	3.348472E-05
4.832449E+03	1.742059E-04	3.369112E-05
4.842351E+03	1.753177E-04	3.389807E-05
4.852254E+03	1.764316E-04	3.410525E-05
4.862156E+03	1.775476E-04	3.431267E-05
4.872059E+03	1.786638E-04	3.451997E-05
4.881961E+03	1.797817E-04	3.472745E-05
4.891864E+03	1.808996E-04	3.493474E-05
4.901767E+03	1.820171E-04	3.514178E-05
4.911669E+03	1.831358E-04	3.534887E-05
4.921572E+03	1.842535E-04	3.555561E-05
4.931474E+03	1.853699E-04	3.576194E-05
4.941377E+03	1.864830E-04	3.596742E-05
4.951279E+03	1.875940E-04	3.617235E-05
4.961182E+03	1.887025E-04	3.637661E-05
4.971085E+03	1.898063E-04	3.657977E-05
4.980987E+03	1.909046E-04	3.678169E-05
4.990890E+03	1.919968E-04	3.698228E-05
5.000792E+03	1.930804E-04	3.718101E-05
5.010695E+03	1.941565E-04	3.737811E-05
5.020597E+03	1.952245E-04	3.757346E-05
5.030500E+03	1.962797E-04	3.776617E-05
5.040402E+03	1.973234E-04	3.795648E-05
5.050305E+03	1.983548E-04	3.814425E-05
5.060208E+03	1.993715E-04	3.832899E-05
5.070110E+03	2.003729E-04	3.851061E-05
5.080013E+03	2.013585E-04	3.868900E-05
5.089915E+03	2.023277E-04	3.886406E-05
5.099818E+03	2.032782E-04	3.903534E-05
5.109720E+03	2.042115E-04	3.920313E-05
5.119623E+03	2.051231E-04	3.936657E-05
5.129525E+03	2.060143E-04	3.952592E-05
5.139428E+03	2.068826E-04	3.968069E-05
5.149331E+03	2.077270E-04	3.983070E-05
5.159233E+03	2.085468E-04	3.997580E-05
5.169136E+03	2.093407E-04	4.011576E-05
5.179038E+03	2.101033E-04	4.024956E-05
5.188941E+03	2.108375E-04	4.037772E-05
5.198843E+03	2.115393E-04	4.049953E-05
5.208746E+03	2.122071E-04	4.061464E-05
5.218648E+03	2.128368E-04	4.072230E-05
5.228551E+03	2.134263E-04	4.082211E-05
5.238454E+03	2.139736E-04	4.091367E-05
5.248356E+03	2.144765E-04	4.099660E-05
5.258259E+03	2.149330E-04	4.107052E-05
5.268161E+03	2.153393E-04	4.113469E-05
5.278064E+03	2.156978E-04	4.118958E-05
5.287966E+03	2.160028E-04	4.123414E-05
5.297869E+03	2.162531E-04	4.126812E-05
5.307772E+03	2.164519E-04	4.129215E-05
5.317674E+03	2.165943E-04	4.130529E-05
5.327577E+03	2.166838E-04	4.130826E-05
5.337479E+03	2.167180E-04	4.130056E-05
5.347382E+03	2.166989E-04	4.128260E-05
5.357284E+03	2.166242E-04	4.125398E-05
5.367187E+03	2.164986E-04	4.121556E-05
5.377089E+03	2.163202E-04	4.116703E-05
5.386992E+03	2.160919E-04	4.110894E-05
5.396895E+03	2.158103E-04	4.104062E-05
5.406797E+03	2.154786E-04	4.096273E-05
5.416700E+03	2.150958E-04	4.087508E-05
5.426602E+03	2.146615E-04	4.077759E-05
5.436505E+03	2.141794E-04	4.067099E-05
5.446407E+03	2.136471E-04	4.055483E-05
5.456310E+03	2.130646E-04	4.042913E-05
5.466212E+03	2.124341E-04	4.029429E-05
5.476115E+03	2.117536E-04	4.014997E-05
5.486018E+03	2.110278E-04	3.999705E-05
5.495920E+03	2.102527E-04	3.983480E-05
5.505823E+03	2.094351E-04	3.966453E-05
5.515725E+03	2.085756E-04	3.948633E-05
5.525628E+03	2.076745E-04	3.930030E-05
5.535530E+03	2.067344E-04	3.910692E-05
5.545433E+03	2.057579E-04	3.890669E-05
5.555335E+03	2.047452E-04	3.869967E-05
5.565238E+03	2.037029E-04	3.848711E-05
5.575141E+03	2.026290E-04	3.826864E-05
5.585043E+03	2.015299E-04	3.804547E-05
5.594946E+03	2.004033E-04	3.781719E-05
5.604848E+03	1.992553E-04	3.758495E-05
5.614751E+03	1.980877E-04	3.734910E-05
5.624653E+03	1.969003E-04	3.710959E-05
5.634556E+03	1.956966E-04	3.686711E-05
5.644459E+03	1.944783E-04	3.662197E-05
5.654361E+03	1.932488E-04	3.637482E-05
5.664264E+03	1.920096E-04	3.612594E-05
5.674166E+03	1.907600E-04	3.587521E-05
5.684069E+03	1.895053E-04	3.562364E-05
5.693971E+03	1.882469E-04	3.537148E-05
5.703874E+03	1.869841E-04	3.511859E-05
5.713776E+03	1.857202E-04	3.486562E-05
5.723679E+03	1.844585E-04	3.461317E-05
5.733582E+03	1.832002E-04	3.436148E-05
5.743484E+03	1.819448E-04	3.411045E-05
5.753387E+03	1.806956E-04	3.386071E-05
5.763289E+03	1.794560E-04	3.361288E-05
5.773192E+03	1.782274E-04	3.336723E-05
5.783094E+03	1.770094E-04	3.312368E-05
5.792997E+03	1.758055E-04	3.288288E-05
5.802899E+03	1.746172E-04	3.264512E-05
5.812802E+03	1.734480E-04	3.241105E-05
5.822705E+03	1.722996E-04	3.218098E-05
5.832607E+03	1.711717E-04	3.195486E-05
5.842510E+03	1.700678E-04	3.173332E-05
5.852412E+03	1.689876E-04	3.151630E-05
5.862315E+03	1.679382E-04	3.130512E-05
5.872217E+03	1.669152E-04	3.109898E-05
5.882120E+03	1.659219E-04	3.089845E-05
5.892022E+03	1.649611E-04	3.070409E-05
5.901925E+03	1.640321E-04	3.051572E-05
5.911828E+03	1.631358E-04	3.033350E-05
5.921730E+03	1.622747E-04	3.015791E-05
5.931633E+03	1.614476E-04	2.998872E-05
5.941535E+03	1.606571E-04	2.982637E-05
5.951438E+03	1.598997E-04	2.967025E-05
5.961340E+03	1.591797E-04	2.952110E-05
5.971243E+03	1.584936E-04	2.937829E-05
5.981146E+03	1.578452E-04	2.924253E-05
5.991048E+03	1.572293E-04	2.911280E-05
6.000951E+03	1.566496E-04	2.898981E-05
6.010853E+03	1.561043E-04	2.887320E-05
6.020756E+03	1.555932E-04	2.876295E-05
6.030658E+03	1.551127E-04	2.865835E-05
6.040561E+03	1.546662E-04	2.856004E-05
6.050463E+03	1.542480E-04	2.846696E-05
6.060366E+03	1.538615E-04	2.837973E-05
6.070269E+03	1.535009E-04	2.829726E-05
6.080171E+03	1.531658E-04	2.821945E-05
6.090074E+03	1.528538E-04	2.814590E-05
6.099976E+03	1.525645E-04	2.807649E-05
6.109879E+03	1.522916E-04	2.801008E-05
6.119781E+03	1.520347E-04	2.794656E-05
6.129684E+03	1.517910E-04	2.788545E-05
6.139586E+03	1.515598E-04	2.782660E-05
6.149489E+03	1.513405E-04	2.776988E-05
6.159392E+03	1.511360E-04	2.771583E-05
6.169294E+03	1.509514E-04	2.766539E-05
6.179197E+03	1.507880E-04	2.761876E-05
6.189099E+03	1.506488E-04	2.757653E-05
6.199002E+03	1.505372E-04	2.753929E-05
6.208904E+03	1.504547E-04	2.750729E-05
6.218807E+03	1.504045E-04	2.748113E-05
6.228709E+03	1.503883E-04	2.746110E-05
6.238612E+03	1.504076E-04	2.744745E-05
6.248515E+03	1.504661E-04	2.744087E-05
6.258417E+03	1.505635E-04	2.744126E-05
6.268320E+03	1.507037E-04	2.744934E-05
6.278222E+03	1.508845E-04	2.746468E-05
6.288125E+03	1.511077E-04	2.748761E-05
6.298027E+03	1.513733E-04	2.751809E-05
6.307930E+03	1.516834E-04	2.755649E-05
6.317833E+03	1.520357E-04	2.760241E-05
6.327735E+03	1.524303E-04	2.765582E-05
6.337638E+03	1.528651E-04	2.771631E-05
6.347540E+03	1.533354E-04	2.778306E-05
6.357443E+03	1.538391E-04	2.785563E-05
6.367345E+03	1.543758E-04	2.793397E-05
6.377248E+03	1.549455E-04	2.801805E-05
6.387150E+03	1.555481E-04	2.810783E-05
6.397053E+03	1.561858E-04	2.820370E-05
6.406956E+03	1.568609E-04	2.830607E-05
6.416858E+03	1.575734E-04	2.841493E-05
6.426761E+03	1.583211E-04	2.852985E-05
6.436663E+03	1.591089E-04	2.865169E-05
6.446566E+03	1.599369E-04	2.878049E-05
6.456468E+03	1.608030E-04	2.891580E-05
6.466371E+03	1.617097E-04	2.905811E-05
6.476273E+03	1.626573E-04	2.920744E-05
6.486176E+03	1.636436E-04	2.936335E-05
6.496079E+03	1.646688E-04	2.952588E-05
6.505981E+03	1.657384E-04	2.969600E-05
6.515884E+03	1.668449E-04	2.987233E-05
6.525786E+03	1.679937E-04	3.005585E-05
6.535689E+03	1.691853E-04	3.024662E-05
6.545591E+03	1.704146E-04	3.044369E-05
6.555494E+03	1.716873E-04	3.064809E-05
6.565396E+03	1.729983E-04	3.085886E-05
6.575299E+03	1.743535E-04	3.107705E-05
6.585202E+03	1.757475E-04	3.130169E-05
6.595104E+03	1.771836E-04	3.153332E-05
6.605007E+03	1.786621E-04	3.177199E-05
6.614909E+03	1.801803E-04	3.201722E-05
6.624812E+03	1.817386E-04	3.226902E-05
6.634714E+03	1.833404E-04	3.252800E-05
6.644617E+03	1.849828E-04	3.279364E-05
6.654520E+03	1.866664E-04	3.306599E-05
6.664422E+03	1.883914E-04	3.334508E-05
6.674325E+03	1.901582E-04	3.363097E-05
6.684227E+03	1.919671E-04	3.392369E-05
6.694130E+03	1.938187E-04	3.422331E-05
6.704032E+03	1.957097E-04	3.452926E-05
6.713935E+03	1.976442E-04	3.484219E-05
6.723837E+03	1.996224E-04	3.516216E-05
6.733740E+03	2.016413E-04	3.548859E-05
6.743643E+03	2.037047E-04	3.582216E-05
6.753545E+03	2.058095E-04	3.616229E-05
6.763448E+03	2.079560E-04	3.650898E-05
6.773350E+03	2.101446E-04	3.686231E-05
6.783253E+03	2.123755E-04	3.722229E-05
6.793155E+03	2.146530E-04	3.758965E-05
6.803058E+03	2.169697E-04	3.796307E-05
6.812960E+03	2.193298E-04	3.834326E-05
6.822863E+03	2.217338E-04	3.873027E-05
6.832766E+03	2.241777E-04	3.912342E-05
6.842668E+03	2.266661E-04	3.952345E-05
6.852571E+03	2.291994E-04	3.993041E-05
6.862473E+03	2.317734E-04	4.034358E-05
6.872376E+03	2.343885E-04	4.076298E-05
6.882278E+03	2.370493E-04	4.118938E-05
6.892181E+03	2.397515E-04	4.162203E-05
6.902083E+03	2.424955E-04	4.206095E-05
6.911986E+03	2.452811E-04	4.250611E-05
6.921889E+03	2.481086E-04	4.295752E-05
6.931791E+03	2.509732E-04	4.341435E-05
6.941694E+03	2.538846E-04	4.387822E-05
6.951596E+03	2.568330E-04	4.434744E-05
6.961499E+03	2.598237E-04	4.482289E-05
6.971401E+03	2.628511E-04	4.530359E-05
6.981304E+03	2.659154E-04	4.578955E-05
6.991207E+03	2.690216E-04	4.628160E-05
7.001109E+03	2.721640E-04	4.677875E-05
7.011012E+03	2.753373E-04	4.728007E-05
7.020914E+03	2.785520E-04	4.778732E-05
7.030817E+03	2.818023E-04	4.829952E-05
7.040719E+03	2.850822E-04	4.881559E-05
7.050622E+03	2.883972E-04	4.933647E-05
7.060524E+03	2.917405E-04	4.986096E-05
7.070427E+03	2.951178E-04	5.039005E-05
7.080330E+03	2.985227E-04	5.092259E-05
7.090232E+03	3.019606E-04	5.145950E-05
7.100135E+03	3.054185E-04	5.199855E-05
7.110037E+03	3.089016E-04	5.254063E-05
7.119940E+03	3.124157E-04	5.308666E-05
7.129842E+03	3.159473E-04	5.363438E-05
7.139745E+03	3.194953E-04	5.418356E-05
7.149647E+03	3.230653E-04	5.473515E-05
7.159550E+03	3.266563E-04	5.528898E-05
7.169453E+03	3.302606E-04	5.584372E-05
7.179355E+03	3.338839E-04	5.640032E-05
7.189258E+03	3.375182E-04	5.695744E-05
7.199160E+03	3.411617E-04	5.751474E-05
7.209063E+03	3.448205E-04	5.807325E-05
7.218965E+03	3.484857E-04	5.863148E-05
7.228868E+03	3.521634E-04	5.919044E-05
7.238770E+03	3.558441E-04	5.974852E-05
7.248673E+03	3.595260E-04	6.030543E-05
7.258576E+03	3.632230E-04	6.086349E-05
7.268478E+03	3.669180E-04	6.141983E-05
7.278381E+03	3.706250E-04	6.197679E-05
7.288283E+03	3.743347E-04	6.253281E-05
7.298186E+03	3.780539E-04	6.308901E-05
7.308088E+03	3.817901E-04	6.364667E-05
7.317991E+03	3.855338E-04	6.420416E-05
7.327894E+03	3.893020E-04	6.476433E-05
7.337796E+03	3.930942E-04	6.532708E-05
7.347699E+03	3.969199E-04	6.589397E-05
7.357601E+03	4.007792E-04	6.646502E-05
7.367504E+03	4.046732E-04	6.704036E-05
7.377406E+03	4.086116E-04	6.762161E-05
7.387309E+03	4.125766E-04	6.820579E-05
7.397211E+03	4.165686E-04	6.879295E-05
7.407114E+03	4.205787E-04	6.938162E-05
7.417017E+03	4.246170E-04	6.997346E-05
7.426919E+03	4.286743E-04	7.056694E-05
7.436822E+03	4.327409E-04	7.116046E-05
7.446724E+03	4.368171E-04	7.175404E-05
7.456627E+03	4.409035E-04	7.234782E-05
7.466529E+03	4.449897E-04	7.294008E-05
7.476432E+03	4.490873E-04	7.353270E-05
7.486334E+03	4.531753E-04	7.412226E-05
7.496237E+03	4.572756E-04	7.471235E-05
7.506140E+03	4.613780E-04	7.530131E-05
7.516042E+03	4.654831E-04	7.588924E-05
7.525945E+03	4.695799E-04	7.647432E-05
7.535847E+03	4.736795E-04	7.705841E-05
7.545750E+03	4.777813E-04	7.764140E-05
7.555652E+03	4.818848E-04	7.822320E-05
7.565555E+03	4.859768E-04	7.880170E-05
7.575457E+03	4.900671E-04	7.937849E-05
7.585360E+03	4.941412E-04	7.995121E-05
7.595263E+03	4.982210E-04	8.052344E-05
7.605165E+03	5.022659E-04	8.108861E-05
7.615068E+03	5.063096E-04	8.165219E-05
7.624970E+03	5.103358E-04	8.221155E-05
7.634873E+03	5.143272E-04	8.276394E-05
7.644775E+03	5.182923E-04	8.331072E-05
7.654678E+03	5.222257E-04	8.385109E-05
7.664581E+03	5.261228E-04	8.438429E-05
7.674483E+03	5.299784E-04	8.490954E-05
7.684386E+03	5.338003E-04	8.542811E-05
