#wls	flux	fluxerr
1.584409E+03	2.960865E-03	1.378424E-03
1.624020E+03	3.058692E-03	1.423717E-03
1.663630E+03	3.154637E-03	1.468102E-03
1.703240E+03	3.248334E-03	1.511406E-03
1.742850E+03	3.338397E-03	1.552984E-03
1.782461E+03	3.424245E-03	1.592563E-03
1.822071E+03	3.504596E-03	1.629548E-03
1.861681E+03	3.578670E-03	1.663576E-03
1.901291E+03	3.645301E-03	1.694104E-03
1.940902E+03	3.703262E-03	1.720564E-03
1.980512E+03	3.750745E-03	1.742118E-03
2.020122E+03	3.786526E-03	1.758200E-03
2.059732E+03	3.809165E-03	1.768145E-03
2.099342E+03	3.816616E-03	1.771008E-03
2.138953E+03	3.807124E-03	1.765983E-03
2.178563E+03	3.778642E-03	1.752127E-03
2.218173E+03	3.729473E-03	1.728664E-03
2.257783E+03	3.659370E-03	1.695490E-03
2.297394E+03	3.568947E-03	1.652904E-03
2.337004E+03	3.460919E-03	1.602175E-03
2.376614E+03	3.337720E-03	1.544442E-03
2.416224E+03	3.201553E-03	1.480736E-03
2.455835E+03	3.054837E-03	1.412187E-03
2.495445E+03	2.899477E-03	1.339685E-03
2.535055E+03	2.737161E-03	1.264020E-03
2.574665E+03	2.569938E-03	1.186147E-03
2.614276E+03	2.399353E-03	1.106785E-03
2.653886E+03	2.227224E-03	1.026780E-03
2.693496E+03	2.055098E-03	9.468515E-04
2.733106E+03	1.884797E-03	8.678416E-04
2.772716E+03	1.717876E-03	7.904692E-04
2.812327E+03	1.555979E-03	7.154921E-04
2.851937E+03	1.400670E-03	6.436286E-04
2.891547E+03	1.253378E-03	5.755328E-04
2.931157E+03	1.115341E-03	5.117701E-04
2.970768E+03	9.875384E-04	4.527831E-04
2.980670E+03	9.572623E-04	4.388165E-04
2.990573E+03	9.276845E-04	4.251747E-04
3.000475E+03	8.987856E-04	4.118487E-04
3.010378E+03	8.706058E-04	3.988567E-04
3.020280E+03	8.431234E-04	3.861889E-04
3.030183E+03	8.163373E-04	3.738444E-04
3.040086E+03	7.902457E-04	3.618222E-04
3.049988E+03	7.648778E-04	3.501358E-04
3.059891E+03	7.401963E-04	3.387677E-04
3.069793E+03	7.162267E-04	3.277296E-04
3.079696E+03	6.929474E-04	3.170114E-04
3.089598E+03	6.703655E-04	3.066161E-04
3.099501E+03	6.484725E-04	2.965398E-04
3.109403E+03	6.272596E-04	2.867783E-04
3.119306E+03	6.067178E-04	2.773272E-04
3.129209E+03	5.868487E-04	2.681872E-04
3.139111E+03	5.676304E-04	2.593481E-04
3.149014E+03	5.490629E-04	2.508098E-04
3.158916E+03	5.311343E-04	2.425666E-04
3.168819E+03	5.138326E-04	2.346129E-04
3.178721E+03	4.971541E-04	2.269469E-04
3.188624E+03	4.810687E-04	2.195546E-04
3.198526E+03	4.655882E-04	2.124414E-04
3.208429E+03	4.506750E-04	2.055898E-04
3.218332E+03	4.363386E-04	1.990041E-04
3.228234E+03	4.225499E-04	1.926709E-04
3.238137E+03	4.093024E-04	1.865870E-04
3.248039E+03	3.965814E-04	1.807456E-04
3.257942E+03	3.843666E-04	1.751374E-04
3.267844E+03	3.726560E-04	1.697612E-04
3.277747E+03	3.614235E-04	1.646050E-04
3.287650E+03	3.506555E-04	1.596626E-04
3.297552E+03	3.403486E-04	1.549321E-04
3.307455E+03	3.304786E-04	1.504026E-04
3.317357E+03	3.210320E-04	1.460676E-04
3.327260E+03	3.119958E-04	1.419213E-04
3.337162E+03	3.033612E-04	1.379594E-04
3.347065E+03	2.951066E-04	1.341720E-04
3.356967E+03	2.872202E-04	1.305536E-04
3.366870E+03	2.796936E-04	1.271004E-04
3.376773E+03	2.725111E-04	1.238051E-04
3.386675E+03	2.656611E-04	1.206622E-04
3.396578E+03	2.591259E-04	1.176638E-04
3.406480E+03	2.528985E-04	1.148064E-04
3.416383E+03	2.469684E-04	1.120852E-04
3.426285E+03	2.413195E-04	1.094928E-04
3.436188E+03	2.359428E-04	1.070251E-04
3.446090E+03	2.308266E-04	1.046767E-04
3.455993E+03	2.259651E-04	1.024448E-04
3.465896E+03	2.213420E-04	1.003220E-04
3.475798E+03	2.169524E-04	9.830601E-05
3.485701E+03	2.127841E-04	9.639118E-05
3.495603E+03	2.088278E-04	9.457322E-05
3.505506E+03	2.050751E-04	9.284830E-05
3.515408E+03	2.015153E-04	9.121151E-05
3.525311E+03	1.981431E-04	8.966036E-05
3.535213E+03	1.949471E-04	8.818961E-05
3.545116E+03	1.919205E-04	8.679616E-05
3.555019E+03	1.890590E-04	8.547802E-05
3.564921E+03	1.863545E-04	8.423141E-05
3.574824E+03	1.838013E-04	8.305378E-05
3.584726E+03	1.813920E-04	8.194169E-05
3.594629E+03	1.791199E-04	8.089205E-05
3.604531E+03	1.769803E-04	7.990270E-05
3.614434E+03	1.749651E-04	7.896998E-05
3.624337E+03	1.730720E-04	7.809274E-05
3.634239E+03	1.712938E-04	7.726772E-05
3.644142E+03	1.696265E-04	7.649309E-05
3.654044E+03	1.680684E-04	7.576801E-05
3.663947E+03	1.666127E-04	7.508943E-05
3.673849E+03	1.652563E-04	7.445582E-05
3.683752E+03	1.639988E-04	7.386707E-05
3.693654E+03	1.628359E-04	7.332110E-05
3.703557E+03	1.617643E-04	7.281648E-05
3.713460E+03	1.607839E-04	7.235308E-05
3.723362E+03	1.598904E-04	7.192896E-05
3.733265E+03	1.590821E-04	7.154331E-05
3.743167E+03	1.583593E-04	7.119619E-05
3.753070E+03	1.577187E-04	7.088615E-05
3.762972E+03	1.571590E-04	7.061254E-05
3.772875E+03	1.566788E-04	7.037469E-05
3.782777E+03	1.562764E-04	7.017186E-05
3.792680E+03	1.559520E-04	7.000400E-05
3.802583E+03	1.557025E-04	6.986980E-05
3.812485E+03	1.555281E-04	6.976923E-05
3.822388E+03	1.554284E-04	6.970216E-05
3.832290E+03	1.554008E-04	6.966732E-05
3.842193E+03	1.554438E-04	6.966402E-05
3.852095E+03	1.555586E-04	6.969282E-05
3.861998E+03	1.557436E-04	6.975295E-05
3.871900E+03	1.559963E-04	6.984319E-05
3.881803E+03	1.563175E-04	6.996397E-05
3.891706E+03	1.567073E-04	7.011527E-05
3.901608E+03	1.571615E-04	7.029514E-05
3.911511E+03	1.576811E-04	7.050408E-05
3.921413E+03	1.582661E-04	7.074196E-05
3.931316E+03	1.589149E-04	7.100808E-05
3.941218E+03	1.596243E-04	7.130104E-05
3.951121E+03	1.603971E-04	7.162196E-05
3.961024E+03	1.612301E-04	7.196946E-05
3.970926E+03	1.621219E-04	7.234283E-05
3.980829E+03	1.630733E-04	7.274247E-05
3.990731E+03	1.640816E-04	7.316707E-05
4.000634E+03	1.651476E-04	7.361704E-05
4.010536E+03	1.662671E-04	7.409040E-05
4.020439E+03	1.674424E-04	7.458817E-05
4.030341E+03	1.686705E-04	7.510905E-05
4.040244E+03	1.699498E-04	7.565224E-05
4.050147E+03	1.712815E-04	7.621825E-05
4.060049E+03	1.726611E-04	7.680505E-05
4.069952E+03	1.740911E-04	7.741379E-05
4.079854E+03	1.755673E-04	7.804249E-05
4.089757E+03	1.770893E-04	7.869101E-05
4.099659E+03	1.786571E-04	7.935933E-05
4.109562E+03	1.802677E-04	8.004602E-05
4.119464E+03	1.819210E-04	8.075110E-05
4.129367E+03	1.836154E-04	8.147381E-05
4.139270E+03	1.853480E-04	8.221286E-05
4.149172E+03	1.871204E-04	8.296889E-05
4.159075E+03	1.889281E-04	8.373989E-05
4.168977E+03	1.907726E-04	8.452655E-05
4.178880E+03	1.926494E-04	8.532685E-05
4.188782E+03	1.945586E-04	8.614080E-05
4.198685E+03	1.964990E-04	8.696783E-05
4.208587E+03	1.984656E-04	8.780580E-05
4.218490E+03	2.004606E-04	8.865555E-05
4.228393E+03	2.024809E-04	8.951575E-05
4.238295E+03	2.045232E-04	9.038495E-05
4.248198E+03	2.065847E-04	9.126187E-05
4.258100E+03	2.086653E-04	9.214647E-05
4.268003E+03	2.107640E-04	9.303827E-05
4.277905E+03	2.128738E-04	9.393420E-05
4.287808E+03	2.149969E-04	9.483523E-05
4.297711E+03	2.171264E-04	9.573830E-05
4.307613E+03	2.192643E-04	9.664427E-05
4.317516E+03	2.214055E-04	9.755090E-05
4.327418E+03	2.235500E-04	9.845822E-05
4.337321E+03	2.256982E-04	9.936635E-05
4.347223E+03	2.278503E-04	1.002754E-04
4.357126E+03	2.300064E-04	1.011854E-04
4.367028E+03	2.321686E-04	1.020973E-04
4.376931E+03	2.343391E-04	1.030120E-04
4.386834E+03	2.365181E-04	1.039297E-04
4.396736E+03	2.387080E-04	1.048513E-04
4.406639E+03	2.409073E-04	1.057763E-04
4.416541E+03	2.431207E-04	1.067066E-04
4.426444E+03	2.453467E-04	1.076416E-04
4.436346E+03	2.475861E-04	1.085817E-04
4.446249E+03	2.498396E-04	1.095271E-04
4.456151E+03	2.521079E-04	1.104782E-04
4.466054E+03	2.543922E-04	1.114354E-04
4.475957E+03	2.566932E-04	1.123991E-04
4.485859E+03	2.590076E-04	1.133678E-04
4.495762E+03	2.613408E-04	1.143438E-04
4.505664E+03	2.636893E-04	1.153257E-04
4.515567E+03	2.660545E-04	1.163139E-04
4.525469E+03	2.684348E-04	1.173079E-04
4.535372E+03	2.708340E-04	1.183092E-04
4.545274E+03	2.732511E-04	1.193173E-04
4.555177E+03	2.756825E-04	1.203308E-04
4.565080E+03	2.781343E-04	1.213522E-04
4.574982E+03	2.806032E-04	1.223802E-04
4.584885E+03	2.830883E-04	1.234142E-04
4.594787E+03	2.855935E-04	1.244561E-04
4.604690E+03	2.881206E-04	1.255064E-04
4.614592E+03	2.906637E-04	1.265628E-04
4.624495E+03	2.932301E-04	1.276282E-04
4.634398E+03	2.958189E-04	1.287024E-04
4.644300E+03	2.984298E-04	1.297851E-04
4.654203E+03	3.010651E-04	1.308773E-04
4.664105E+03	3.037247E-04	1.319791E-04
4.674008E+03	3.064110E-04	1.330914E-04
4.683910E+03	3.091184E-04	1.342117E-04
4.693813E+03	3.118497E-04	1.353413E-04
4.703715E+03	3.146079E-04	1.364814E-04
4.713618E+03	3.173842E-04	1.376282E-04
4.723521E+03	3.201849E-04	1.387845E-04
4.733423E+03	3.230069E-04	1.399487E-04
4.743326E+03	3.258477E-04	1.411199E-04
4.753228E+03	3.287130E-04	1.423006E-04
4.763131E+03	3.315943E-04	1.434869E-04
4.773033E+03	3.345007E-04	1.446829E-04
4.782936E+03	3.374231E-04	1.458845E-04
4.792838E+03	3.403678E-04	1.470945E-04
4.802741E+03	3.433284E-04	1.483100E-04
4.812644E+03	3.463115E-04	1.495340E-04
4.822546E+03	3.493102E-04	1.507634E-04
4.832449E+03	3.523278E-04	1.519997E-04
4.842351E+03	3.553642E-04	1.532426E-04
4.852254E+03	3.584153E-04	1.544907E-04
4.862156E+03	3.614811E-04	1.557436E-04
4.872059E+03	3.645607E-04	1.570011E-04
4.881961E+03	3.676571E-04	1.582644E-04
4.891864E+03	3.707622E-04	1.595301E-04
4.901767E+03	3.738825E-04	1.608008E-04
4.911669E+03	3.770096E-04	1.620730E-04
4.921572E+03	3.801456E-04	1.633477E-04
4.931474E+03	3.832854E-04	1.646225E-04
4.941377E+03	3.864272E-04	1.658966E-04
4.951279E+03	3.895689E-04	1.671692E-04
4.961182E+03	3.927120E-04	1.684409E-04
4.971085E+03	3.958461E-04	1.697073E-04
4.980987E+03	3.989723E-04	1.709687E-04
4.990890E+03	4.020833E-04	1.722222E-04
5.000792E+03	4.051793E-04	1.734677E-04
5.010695E+03	4.082526E-04	1.747019E-04
5.020597E+03	4.112947E-04	1.759213E-04
5.030500E+03	4.143049E-04	1.771254E-04
5.040402E+03	4.172782E-04	1.783124E-04
5.050305E+03	4.202051E-04	1.794779E-04
5.060208E+03	4.230757E-04	1.806180E-04
5.070110E+03	4.258922E-04	1.817334E-04
5.080013E+03	4.286399E-04	1.828180E-04
5.089915E+03	4.313120E-04	1.838690E-04
5.099818E+03	4.339017E-04	1.848834E-04
5.109720E+03	4.364017E-04	1.858582E-04
5.119623E+03	4.388003E-04	1.867884E-04
5.129525E+03	4.410942E-04	1.876727E-04
5.139428E+03	4.432670E-04	1.885042E-04
5.149331E+03	4.453152E-04	1.892815E-04
5.159233E+03	4.472220E-04	1.899974E-04
5.169136E+03	4.489884E-04	1.906526E-04
5.179038E+03	4.505972E-04	1.912398E-04
5.188941E+03	4.520453E-04	1.917577E-04
5.198843E+03	4.533159E-04	1.921994E-04
5.208746E+03	4.544058E-04	1.925636E-04
5.218648E+03	4.553079E-04	1.928474E-04
5.228551E+03	4.560063E-04	1.930442E-04
5.238454E+03	4.564946E-04	1.931514E-04
5.248356E+03	4.567716E-04	1.931686E-04
5.258259E+03	4.568277E-04	1.930919E-04
5.268161E+03	4.566544E-04	1.929179E-04
5.278064E+03	4.562486E-04	1.926454E-04
5.287966E+03	4.556082E-04	1.922738E-04
5.297869E+03	4.547328E-04	1.918028E-04
5.307772E+03	4.536185E-04	1.912312E-04
5.317674E+03	4.522722E-04	1.905619E-04
5.327577E+03	4.506933E-04	1.897948E-04
5.337479E+03	4.488918E-04	1.889345E-04
5.347382E+03	4.468710E-04	1.879822E-04
5.357284E+03	4.446485E-04	1.869457E-04
5.367187E+03	4.422400E-04	1.858317E-04
5.377089E+03	4.396536E-04	1.846436E-04
5.386992E+03	4.369167E-04	1.833932E-04
5.396895E+03	4.340448E-04	1.820870E-04
5.406797E+03	4.310382E-04	1.807253E-04
5.416700E+03	4.279280E-04	1.793212E-04
5.426602E+03	4.247258E-04	1.778797E-04
5.436505E+03	4.214435E-04	1.764057E-04
5.446407E+03	4.180987E-04	1.749068E-04
5.456310E+03	4.147052E-04	1.733887E-04
5.466212E+03	4.112773E-04	1.718576E-04
5.476115E+03	4.078381E-04	1.703229E-04
5.486018E+03	4.044019E-04	1.687908E-04
5.495920E+03	4.009956E-04	1.672725E-04
5.505823E+03	3.976410E-04	1.657769E-04
5.515725E+03	3.943550E-04	1.643113E-04
5.525628E+03	3.911621E-04	1.628856E-04
5.535530E+03	3.880811E-04	1.615078E-04
5.545433E+03	3.851299E-04	1.601850E-04
5.555335E+03	3.823287E-04	1.589257E-04
5.565238E+03	3.796923E-04	1.577359E-04
5.575141E+03	3.772337E-04	1.566210E-04
5.585043E+03	3.749687E-04	1.555872E-04
5.594946E+03	3.729073E-04	1.546386E-04
5.604848E+03	3.710614E-04	1.537800E-04
5.614751E+03	3.694381E-04	1.530143E-04
5.624653E+03	3.680428E-04	1.523433E-04
5.634556E+03	3.668834E-04	1.517703E-04
5.644459E+03	3.659624E-04	1.512962E-04
5.654361E+03	3.652817E-04	1.509214E-04
5.664264E+03	3.648459E-04	1.506478E-04
5.674166E+03	3.646549E-04	1.504751E-04
5.684069E+03	3.647117E-04	1.504044E-04
5.693971E+03	3.650114E-04	1.504334E-04
5.703874E+03	3.655603E-04	1.505646E-04
5.713776E+03	3.663527E-04	1.507953E-04
5.723679E+03	3.673866E-04	1.511247E-04
5.733582E+03	3.686682E-04	1.515550E-04
5.743484E+03	3.701878E-04	1.520821E-04
5.753387E+03	3.719518E-04	1.527084E-04
5.763289E+03	3.739587E-04	1.534331E-04
5.773192E+03	3.762072E-04	1.542555E-04
5.783094E+03	3.786921E-04	1.551731E-04
5.792997E+03	3.814206E-04	1.561889E-04
5.802899E+03	3.843877E-04	1.573005E-04
5.812802E+03	3.875968E-04	1.585092E-04
5.822705E+03	3.910474E-04	1.598145E-04
5.832607E+03	3.947340E-04	1.612139E-04
5.842510E+03	3.986604E-04	1.627089E-04
5.852412E+03	4.028296E-04	1.643004E-04
5.862315E+03	4.072318E-04	1.659843E-04
5.872217E+03	4.118696E-04	1.677614E-04
5.882120E+03	4.167412E-04	1.696307E-04
5.892022E+03	4.218491E-04	1.715931E-04
5.901925E+03	4.271808E-04	1.736434E-04
5.911828E+03	4.327428E-04	1.757838E-04
5.921730E+03	4.385216E-04	1.780088E-04
5.931633E+03	4.445174E-04	1.803183E-04
5.941535E+03	4.507252E-04	1.827099E-04
5.951438E+03	4.571341E-04	1.851792E-04
5.961340E+03	4.637428E-04	1.877254E-04
5.971243E+03	4.705333E-04	1.903411E-04
5.981146E+03	4.775085E-04	1.930272E-04
5.991048E+03	4.846428E-04	1.957732E-04
6.000951E+03	4.919377E-04	1.985797E-04
6.010853E+03	4.993713E-04	2.014376E-04
6.020756E+03	5.069383E-04	2.043446E-04
6.030658E+03	5.146145E-04	2.072909E-04
6.040561E+03	5.223873E-04	2.102713E-04
6.050463E+03	5.302365E-04	2.132776E-04
6.060366E+03	5.381481E-04	2.163040E-04
6.070269E+03	5.460942E-04	2.193394E-04
6.080171E+03	5.540526E-04	2.223747E-04
6.090074E+03	5.620074E-04	2.254036E-04
6.099976E+03	5.699353E-04	2.284167E-04
6.109879E+03	5.777990E-04	2.313991E-04
6.119781E+03	5.855811E-04	2.343439E-04
6.129684E+03	5.932574E-04	2.372415E-04
6.139586E+03	6.008113E-04	2.400852E-04
6.149489E+03	6.082338E-04	2.428717E-04
6.159392E+03	6.155173E-04	2.455981E-04
6.169294E+03	6.226638E-04	2.482651E-04
6.179197E+03	6.296927E-04	2.508807E-04
6.189099E+03	6.366024E-04	2.534444E-04
6.199002E+03	6.433841E-04	2.559526E-04
6.208904E+03	6.500640E-04	2.584161E-04
6.218807E+03	6.566451E-04	2.608361E-04
6.228709E+03	6.631147E-04	2.632075E-04
6.238612E+03	6.695048E-04	2.655432E-04
6.248515E+03	6.757957E-04	2.678355E-04
6.258417E+03	6.820136E-04	2.700948E-04
6.268320E+03	6.881492E-04	2.723175E-04
6.278222E+03	6.942127E-04	2.745077E-04
6.288125E+03	7.002053E-04	2.766659E-04
6.298027E+03	7.061286E-04	2.787929E-04
6.307930E+03	7.119849E-04	2.808895E-04
6.317833E+03	7.177665E-04	2.829528E-04
6.327735E+03	7.234656E-04	2.849797E-04
6.337638E+03	7.290943E-04	2.869753E-04
6.347540E+03	7.346346E-04	2.889323E-04
6.357443E+03	7.400992E-04	2.908558E-04
6.367345E+03	7.454797E-04	2.927427E-04
6.377248E+03	7.507785E-04	2.945940E-04
6.387150E+03	7.560091E-04	2.964149E-04
6.397053E+03	7.611970E-04	2.982156E-04
6.406956E+03	7.663460E-04	2.999976E-04
6.416858E+03	7.714718E-04	3.017671E-04
6.426761E+03	7.765904E-04	3.035302E-04
6.436663E+03	7.816946E-04	3.052844E-04
6.446566E+03	7.868130E-04	3.070406E-04
6.456468E+03	7.919509E-04	3.088010E-04
6.466371E+03	7.971011E-04	3.105627E-04
6.476273E+03	8.022930E-04	3.123372E-04
6.486176E+03	8.075196E-04	3.141217E-04
6.496079E+03	8.127726E-04	3.159129E-04
6.505981E+03	8.180824E-04	3.177227E-04
6.515884E+03	8.234406E-04	3.195477E-04
6.525786E+03	8.288514E-04	3.213895E-04
6.535689E+03	8.343323E-04	3.232548E-04
6.545591E+03	8.398601E-04	3.251347E-04
6.555494E+03	8.454378E-04	3.270302E-04
6.565396E+03	8.510961E-04	3.289531E-04
6.575299E+03	8.568096E-04	3.308936E-04
6.585202E+03	8.625806E-04	3.328525E-04
6.595104E+03	8.684252E-04	3.348360E-04
6.605007E+03	8.743302E-04	3.368389E-04
6.614909E+03	8.802967E-04	3.388617E-04
6.624812E+03	8.863403E-04	3.409101E-04
6.634714E+03	8.924311E-04	3.429728E-04
6.644617E+03	8.985684E-04	3.450494E-04
6.654520E+03	9.047824E-04	3.471514E-04
6.664422E+03	9.110411E-04	3.492666E-04
6.674325E+03	9.173429E-04	3.513942E-04
6.684227E+03	9.237017E-04	3.535396E-04
6.694130E+03	9.300994E-04	3.556959E-04
6.704032E+03	9.365334E-04	3.578619E-04
6.713935E+03	9.430008E-04	3.600366E-04
6.723837E+03	9.494982E-04	3.622187E-04
6.733740E+03	9.560055E-04	3.644005E-04
6.743643E+03	9.625356E-04	3.665869E-04
6.753545E+03	9.690850E-04	3.687765E-04
6.763448E+03	9.756320E-04	3.709612E-04
6.773350E+03	9.821899E-04	3.731461E-04
6.783253E+03	9.887368E-04	3.753227E-04
6.793155E+03	9.952679E-04	3.774894E-04
6.803058E+03	1.001778E-03	3.796443E-04
6.812960E+03	1.008245E-03	3.817788E-04
6.822863E+03	1.014701E-03	3.839051E-04
6.832766E+03	1.021122E-03	3.860146E-04
6.842668E+03	1.027485E-03	3.880985E-04
6.852571E+03	1.033804E-03	3.901621E-04
6.862473E+03	1.040055E-03	3.921966E-04
6.872376E+03	1.046235E-03	3.942003E-04
6.882278E+03	1.052357E-03	3.961792E-04
6.892181E+03	1.058400E-03	3.981244E-04
6.902083E+03	1.064357E-03	4.000345E-04
6.911986E+03	1.070227E-03	4.019083E-04
6.921889E+03	1.076005E-03	4.037446E-04
6.931791E+03	1.081667E-03	4.055347E-04
6.941694E+03	1.087254E-03	4.072933E-04
6.951596E+03	1.092720E-03	4.090040E-04
6.961499E+03	1.098063E-03	4.106662E-04
6.971401E+03	1.103304E-03	4.122875E-04
6.981304E+03	1.108421E-03	4.138598E-04
6.991207E+03	1.113412E-03	4.153829E-04
7.001109E+03	1.118278E-03	4.168573E-04
7.011012E+03	1.123020E-03	4.182833E-04
7.020914E+03	1.127662E-03	4.196700E-04
7.030817E+03	1.132161E-03	4.210015E-04
7.040719E+03	1.136518E-03	4.222790E-04
7.050622E+03	1.140760E-03	4.235120E-04
7.060524E+03	1.144892E-03	4.247025E-04
7.070427E+03	1.148893E-03	4.258432E-04
7.080330E+03	1.152792E-03	4.269448E-04
7.090232E+03	1.156546E-03	4.279920E-04
7.100135E+03	1.160208E-03	4.290041E-04
7.110037E+03	1.163760E-03	4.299747E-04
7.119940E+03	1.167208E-03	4.309060E-04
7.129842E+03	1.170533E-03	4.317912E-04
7.139745E+03	1.173788E-03	4.326505E-04
7.149647E+03	1.176931E-03	4.334681E-04
7.159550E+03	1.179992E-03	4.342549E-04
7.169453E+03	1.182949E-03	4.350037E-04
7.179355E+03	1.185832E-03	4.357253E-04
7.189258E+03	1.188620E-03	4.364120E-04
7.199160E+03	1.191316E-03	4.370651E-04
7.209063E+03	1.193947E-03	4.376948E-04
7.218965E+03	1.196491E-03	4.382928E-04
7.228868E+03	1.198973E-03	4.388688E-04
7.238770E+03	1.201343E-03	4.394047E-04
7.248673E+03	1.203628E-03	4.399099E-04
7.258576E+03	1.205852E-03	4.403940E-04
7.268478E+03	1.207963E-03	4.408381E-04
7.278381E+03	1.209988E-03	4.412516E-04
7.288283E+03	1.211899E-03	4.416248E-04
7.298186E+03	1.213723E-03	4.419674E-04
7.308088E+03	1.215431E-03	4.422698E-04
7.317991E+03	1.217026E-03	4.425324E-04
7.327894E+03	1.218508E-03	4.427556E-04
7.337796E+03	1.219851E-03	4.429303E-04
7.347699E+03	1.221057E-03	4.430575E-04
7.357601E+03	1.222130E-03	4.431384E-04
7.367504E+03	1.223072E-03	4.431744E-04
7.377406E+03	1.223916E-03	4.431770E-04
7.387309E+03	1.224639E-03	4.431385E-04
7.397211E+03	1.225302E-03	4.430809E-04
7.407114E+03	1.225912E-03	4.430066E-04
7.417017E+03	1.226473E-03	4.429180E-04
7.426919E+03	1.226994E-03	4.428175E-04
7.436822E+03	1.227479E-03	4.427073E-04
7.446724E+03	1.227988E-03	4.426087E-04
7.456627E+03	1.228465E-03	4.425017E-04
7.466529E+03	1.228936E-03	4.423960E-04
7.476432E+03	1.229402E-03	4.422911E-04
7.486334E+03	1.229887E-03	4.421967E-04
7.496237E+03	1.230334E-03	4.420914E-04
7.506140E+03	1.230769E-03	4.419849E-04
7.516042E+03	1.231190E-03	4.418765E-04
7.525945E+03	1.231625E-03	4.417758E-04
7.535847E+03	1.232013E-03	4.416617E-04
7.545750E+03	1.232413E-03	4.415546E-04
7.555652E+03	1.232793E-03	4.414435E-04
7.565555E+03	1.233124E-03	4.413178E-04
7.575457E+03	1.233463E-03	4.411981E-04
7.585360E+03	1.233782E-03	4.410740E-04
7.595263E+03	1.234080E-03	4.409451E-04
7.605165E+03	1.234356E-03	4.408113E-04
7.615068E+03	1.234609E-03	4.406726E-04
7.624970E+03	1.234841E-03	4.405287E-04
7.634873E+03	1.235078E-03	4.403901E-04
7.644775E+03	1.235262E-03	4.402349E-04
7.654678E+03	1.235450E-03	4.400843E-04
7.664581E+03	1.235611E-03	4.399269E-04
7.674483E+03	1.235743E-03	4.397619E-04
7.684386E+03	1.235844E-03	4.395886E-04
