#wls	flux	fluxerr
1.584409E+03	4.456724E+01	1.441488E+02
1.624020E+03	4.394767E+01	1.429032E+02
1.663630E+03	4.320674E+01	1.412556E+02
1.703240E+03	4.229325E+01	1.390241E+02
1.742850E+03	4.125892E+01	1.363774E+02
1.782461E+03	4.005627E+01	1.331418E+02
1.822071E+03	3.873898E+01	1.294955E+02
1.861681E+03	3.726837E+01	1.252911E+02
1.901291E+03	3.570218E+01	1.207243E+02
1.940902E+03	3.400136E+01	1.156440E+02
1.980512E+03	3.222715E+01	1.102622E+02
2.020122E+03	3.034843E+01	1.044529E+02
2.059732E+03	2.842130E+01	9.841544E+01
2.099342E+03	2.642784E+01	9.206890E+01
2.138953E+03	2.441777E+01	8.559515E+01
2.178563E+03	2.237450E+01	7.891872E+01
2.218173E+03	2.034579E+01	7.221868E+01
2.257783E+03	1.831621E+01	6.542518E+01
2.297394E+03	1.635182E+01	5.878674E+01
2.337004E+03	1.446262E+01	5.232917E+01
2.376614E+03	1.269095E+01	4.622220E+01
2.416224E+03	1.103354E+01	4.044857E+01
2.455835E+03	9.515366E+00	3.511784E+01
2.495445E+03	8.128212E+00	3.019789E+01
2.535055E+03	6.884083E+00	2.575108E+01
2.574665E+03	5.772248E+00	2.173801E+01
2.614276E+03	4.796222E+00	1.818843E+01
2.653886E+03	3.943563E+00	1.505761E+01
2.693496E+03	3.211359E+00	1.234897E+01
2.733106E+03	2.586820E+00	1.001670E+01
2.772716E+03	2.062796E+00	8.045321E+00
2.812327E+03	1.626638E+00	6.389129E+00
2.851937E+03	1.269653E+00	5.023662E+00
2.891547E+03	9.804236E-01	3.907173E+00
2.931157E+03	7.499500E-01	3.011103E+00
2.964700E+03	8.901620E-01	3.596468E+00
2.977178E+03	8.607951E-01	3.486118E+00
2.994409E+03	8.204461E-01	3.333538E+00
2.997776E+03	8.134666E-01	3.307306E+00
2.998766E+03	8.120155E-01	3.302026E+00
3.003718E+03	8.012540E-01	3.261331E+00
3.006094E+03	7.962278E-01	3.242334E+00
3.010650E+03	7.863332E-01	3.204822E+00
3.013423E+03	7.804192E-01	3.182399E+00
3.013819E+03	7.799890E-01	3.180885E+00
3.015403E+03	7.769440E-01	3.169423E+00
3.018176E+03	7.711911E-01	3.147620E+00
3.018374E+03	7.712612E-01	3.148025E+00
3.018572E+03	7.709896E-01	3.147035E+00
3.018770E+03	7.707177E-01	3.146044E+00
3.021543E+03	7.646555E-01	3.122951E+00
3.021741E+03	7.643285E-01	3.121734E+00
3.022335E+03	7.630101E-01	3.116703E+00
3.023326E+03	7.612073E-01	3.109928E+00
3.024119E+03	7.594549E-01	3.103238E+00
3.026099E+03	7.549753E-01	3.086101E+00
3.026891E+03	7.531779E-01	3.079221E+00
3.027089E+03	7.526875E-01	3.077333E+00
3.027684E+03	7.513284E-01	3.072126E+00
3.027882E+03	7.507280E-01	3.069787E+00
3.028476E+03	7.494821E-01	3.065041E+00
3.029466E+03	7.474274E-01	3.057217E+00
3.030257E+03	7.453706E-01	3.049266E+00
3.031447E+03	7.423430E-01	3.037572E+00
3.032635E+03	7.396004E-01	3.027039E+00
3.032833E+03	7.387893E-01	3.023834E+00
3.033229E+03	7.375503E-01	3.018992E+00
3.034813E+03	7.339139E-01	3.005019E+00
3.035606E+03	7.318841E-01	2.997164E+00
3.036200E+03	7.300674E-01	2.990065E+00
3.036992E+03	7.279922E-01	2.982019E+00
3.037586E+03	7.260753E-01	2.974506E+00
3.038181E+03	7.242141E-01	2.967220E+00
3.039172E+03	7.214094E-01	2.956291E+00
3.039766E+03	7.194528E-01	2.948609E+00
3.040360E+03	7.174466E-01	2.940722E+00
3.040558E+03	7.162807E-01	2.936055E+00
3.043924E+03	7.084594E-01	2.905874E+00
3.044122E+03	7.072526E-01	2.901035E+00
3.044320E+03	7.060470E-01	2.896200E+00
3.044518E+03	7.048425E-01	2.891369E+00
3.045112E+03	7.027622E-01	2.883165E+00
3.045905E+03	7.002215E-01	2.873180E+00
3.046103E+03	6.989185E-01	2.867942E+00
3.046301E+03	6.976169E-01	2.862710E+00
3.047292E+03	6.946316E-01	2.851003E+00
3.048282E+03	6.916041E-01	2.839118E+00
3.049074E+03	6.889397E-01	2.828612E+00
3.049470E+03	6.870907E-01	2.821236E+00
3.050460E+03	6.839327E-01	2.808804E+00
3.050659E+03	6.823392E-01	2.802367E+00
3.050857E+03	6.807471E-01	2.795935E+00
3.051055E+03	6.791049E-01	2.789297E+00
3.051253E+03	6.774643E-01	2.782664E+00
3.051847E+03	6.749782E-01	2.772770E+00
3.052045E+03	6.732912E-01	2.765946E+00
3.052441E+03	6.711585E-01	2.757395E+00
3.052639E+03	6.694244E-01	2.750375E+00
3.053035E+03	6.672469E-01	2.741638E+00
3.054620E+03	6.626717E-01	2.723671E+00
3.054818E+03	6.608483E-01	2.716281E+00
3.055412E+03	6.582486E-01	2.705905E+00
3.055808E+03	6.560940E-01	2.697255E+00
3.056006E+03	6.542281E-01	2.689686E+00
3.056600E+03	6.515932E-01	2.679161E+00
3.056798E+03	6.495298E-01	2.670779E+00
3.056996E+03	6.476210E-01	2.663032E+00
3.058184E+03	6.439076E-01	2.648370E+00
3.058383E+03	6.419069E-01	2.640242E+00
3.058581E+03	6.400599E-01	2.632746E+00
3.060166E+03	6.354198E-01	2.614461E+00
3.060364E+03	6.334834E-01	2.606593E+00
3.060760E+03	6.310237E-01	2.596670E+00
3.060958E+03	6.288411E-01	2.587788E+00
3.061552E+03	6.258676E-01	2.575848E+00
3.062741E+03	6.217430E-01	2.559460E+00
3.062939E+03	6.196761E-01	2.551049E+00
3.063137E+03	6.174117E-01	2.541825E+00
3.063731E+03	6.148173E-01	2.531435E+00
3.063929E+03	6.125101E-01	2.522032E+00
3.064325E+03	6.100417E-01	2.512060E+00
3.064918E+03	6.070694E-01	2.500108E+00
3.065314E+03	6.043642E-01	2.489158E+00
3.065512E+03	6.018740E-01	2.478996E+00
3.066503E+03	5.983551E-01	2.464976E+00
3.066701E+03	5.960239E-01	2.455466E+00
3.066899E+03	5.935965E-01	2.445560E+00
3.067097E+03	5.910731E-01	2.435257E+00
3.067295E+03	5.887497E-01	2.425777E+00
3.067493E+03	5.861823E-01	2.415292E+00
3.067890E+03	5.832189E-01	2.403266E+00
3.068484E+03	5.800153E-01	2.390340E+00
3.068682E+03	5.773136E-01	2.379297E+00
3.069276E+03	5.740759E-01	2.366226E+00
3.069474E+03	5.715790E-01	2.356025E+00
3.069870E+03	5.686960E-01	2.344321E+00
3.070069E+03	5.662061E-01	2.334147E+00
3.071257E+03	5.617925E-01	2.316486E+00
3.071455E+03	5.590232E-01	2.305155E+00
3.071653E+03	5.561597E-01	2.293435E+00
3.072049E+03	5.529684E-01	2.280451E+00
3.072247E+03	5.501615E-01	2.268962E+00
3.073237E+03	5.459511E-01	2.252031E+00
3.073435E+03	5.430602E-01	2.240192E+00
3.073633E+03	5.401726E-01	2.228366E+00
3.073831E+03	5.372881E-01	2.216551E+00
3.075219E+03	5.324856E-01	2.197331E+00
3.075813E+03	5.289822E-01	2.183126E+00
3.076604E+03	5.251274E-01	2.167550E+00
3.076803E+03	5.221769E-01	2.155454E+00
3.078189E+03	5.174109E-01	2.136357E+00
3.078585E+03	5.141693E-01	2.123135E+00
3.078981E+03	5.108871E-01	2.109745E+00
3.079179E+03	5.079174E-01	2.097562E+00
3.079971E+03	5.040397E-01	2.081869E+00
3.080169E+03	5.010820E-01	2.069732E+00
3.080367E+03	4.981749E-01	2.057804E+00
3.080565E+03	4.952712E-01	2.045888E+00
3.080763E+03	4.921814E-01	2.033203E+00
3.080961E+03	4.890478E-01	2.020336E+00
3.081952E+03	4.849357E-01	2.003734E+00
3.082745E+03	4.808965E-01	1.987351E+00
3.083933E+03	4.764862E-01	1.969581E+00
3.084131E+03	4.736229E-01	1.957821E+00
3.084329E+03	4.706691E-01	1.945686E+00
3.085121E+03	4.667870E-01	1.929935E+00
3.085319E+03	4.635466E-01	1.916612E+00
3.086706E+03	4.587203E-01	1.897169E+00
3.087300E+03	4.550261E-01	1.882109E+00
3.087498E+03	4.519372E-01	1.869404E+00
3.088883E+03	4.473108E-01	1.850768E+00
3.090667E+03	4.418704E-01	1.828894E+00
3.090865E+03	4.387396E-01	1.816006E+00
3.091063E+03	4.354474E-01	1.802449E+00
3.093242E+03	4.296567E-01	1.779236E+00
3.094430E+03	4.251313E-01	1.760905E+00
3.094628E+03	4.219975E-01	1.747992E+00
3.095024E+03	4.185893E-01	1.734009E+00
3.095222E+03	4.154102E-01	1.720906E+00
3.096410E+03	4.109477E-01	1.702815E+00
3.096608E+03	4.077314E-01	1.689554E+00
3.097004E+03	4.042449E-01	1.675236E+00
3.098986E+03	3.987881E-01	1.653264E+00
3.099184E+03	3.955261E-01	1.639804E+00
3.099976E+03	3.915219E-01	1.623454E+00
3.100174E+03	3.882109E-01	1.609788E+00
3.100569E+03	3.846384E-01	1.595097E+00
3.101165E+03	3.808113E-01	1.579410E+00
3.101363E+03	3.775092E-01	1.565776E+00
3.101560E+03	3.740743E-01	1.551589E+00
3.102748E+03	3.695168E-01	1.533042E+00
3.103144E+03	3.661707E-01	1.519278E+00
3.103936E+03	3.621490E-01	1.502825E+00
3.104729E+03	3.580464E-01	1.486031E+00
3.104928E+03	3.547122E-01	1.472250E+00
3.105126E+03	3.516452E-01	1.459578E+00
3.105324E+03	3.483099E-01	1.445790E+00
3.105522E+03	3.449960E-01	1.432090E+00
3.106710E+03	3.404754E-01	1.413654E+00
3.106908E+03	3.370353E-01	1.399425E+00
3.109087E+03	3.314988E-01	1.377026E+00
3.109483E+03	3.281064E-01	1.363040E+00
3.110869E+03	3.234669E-01	1.344133E+00
3.111265E+03	3.199150E-01	1.329477E+00
3.112454E+03	3.156839E-01	1.312201E+00
3.113048E+03	3.118362E-01	1.296358E+00
3.113445E+03	3.082972E-01	1.281746E+00
3.113840E+03	3.048279E-01	1.267421E+00
3.114434E+03	3.012176E-01	1.252556E+00
3.115424E+03	2.971829E-01	1.236020E+00
3.115622E+03	2.939780E-01	1.222738E+00
3.116414E+03	2.901519E-01	1.207012E+00
3.116613E+03	2.870285E-01	1.194066E+00
3.117009E+03	2.837155E-01	1.180376E+00
3.117603E+03	2.800592E-01	1.165300E+00
3.118989E+03	2.757207E-01	1.147562E+00
3.119386E+03	2.721821E-01	1.132923E+00
3.120376E+03	2.683611E-01	1.117236E+00
3.120575E+03	2.649272E-01	1.102984E+00
3.121367E+03	2.611890E-01	1.087590E+00
3.121763E+03	2.579049E-01	1.073999E+00
3.121961E+03	2.546373E-01	1.060433E+00
3.122951E+03	2.505858E-01	1.043765E+00
3.123149E+03	2.475998E-01	1.031368E+00
3.123347E+03	2.443353E-01	1.017809E+00
3.123743E+03	2.407340E-01	1.002886E+00
3.125723E+03	2.363678E-01	9.850822E-01
3.126317E+03	2.327824E-01	9.702536E-01
3.128100E+03	2.283457E-01	9.520972E-01
3.130675E+03	2.233329E-01	9.316706E-01
3.130873E+03	2.201030E-01	9.182328E-01
3.131071E+03	2.171200E-01	9.058238E-01
3.131269E+03	2.138089E-01	8.920449E-01
3.132062E+03	2.101826E-01	8.770530E-01
3.132656E+03	2.068515E-01	8.632546E-01
3.133250E+03	2.033471E-01	8.487295E-01
3.133448E+03	2.001105E-01	8.352535E-01
3.133646E+03	1.968538E-01	8.216925E-01
3.134043E+03	1.936913E-01	8.085553E-01
3.134637E+03	1.902169E-01	7.941452E-01
3.135033E+03	1.869285E-01	7.804775E-01
3.135231E+03	1.836516E-01	7.668260E-01
3.135429E+03	1.806303E-01	7.542400E-01
3.135627E+03	1.774253E-01	7.408864E-01
3.136222E+03	1.739849E-01	7.266060E-01
3.136816E+03	1.707355E-01	7.131198E-01
3.137211E+03	1.676038E-01	7.000944E-01
3.137410E+03	1.644833E-01	6.870870E-01
3.138003E+03	1.610691E-01	6.729043E-01
3.138597E+03	1.577417E-01	6.590812E-01
3.138795E+03	1.545660E-01	6.458378E-01
3.140380E+03	1.509973E-01	6.311250E-01
3.141371E+03	1.477982E-01	6.178754E-01
3.141569E+03	1.447966E-01	6.053510E-01
3.141965E+03	1.418028E-01	5.928814E-01
3.142559E+03	1.387168E-01	5.800474E-01
3.142757E+03	1.356421E-01	5.672130E-01
3.143351E+03	1.324930E-01	5.541099E-01
3.143549E+03	1.294415E-01	5.413693E-01
3.143946E+03	1.264963E-01	5.290931E-01
3.144144E+03	1.236172E-01	5.170713E-01
3.144738E+03	1.205034E-01	5.041065E-01
3.145530E+03	1.174695E-01	4.914919E-01
3.146124E+03	1.143683E-01	4.785734E-01
3.146322E+03	1.114584E-01	4.664155E-01
3.146520E+03	1.085638E-01	4.543203E-01
3.147114E+03	1.056462E-01	4.421631E-01
3.147312E+03	1.027662E-01	4.301263E-01
3.147907E+03	9.987792E-02	4.180870E-01
3.148500E+03	9.714213E-02	4.066832E-01
3.148699E+03	9.446327E-02	3.954839E-01
3.149293E+03	9.178585E-02	3.843201E-01
3.149491E+03	8.901049E-02	3.727140E-01
3.149887E+03	8.616846E-02	3.608421E-01
3.152264E+03	8.295886E-02	3.475664E-01
3.152462E+03	8.048697E-02	3.372235E-01
3.153452E+03	7.781163E-02	3.260789E-01
3.154244E+03	7.512148E-02	3.148554E-01
3.154640E+03	7.251464E-02	3.039535E-01
3.155433E+03	6.982117E-02	2.927098E-01
3.155631E+03	6.725869E-02	2.819784E-01
3.155829E+03	6.471443E-02	2.713225E-01
3.156424E+03	6.211228E-02	2.604437E-01
3.157018E+03	5.953867E-02	2.496819E-01
3.157612E+03	5.698579E-02	2.390046E-01
3.158008E+03	5.449964E-02	2.285956E-01
3.158206E+03	5.207167E-02	2.184203E-01
3.158404E+03	4.966534E-02	2.083349E-01
3.158998E+03	4.721995E-02	1.981006E-01
3.159197E+03	4.486346E-02	1.882220E-01
3.159593E+03	4.250484E-02	1.783407E-01
3.159989E+03	4.017064E-02	1.685603E-01
3.160187E+03	3.789615E-02	1.590226E-01
3.160978E+03	3.557887E-02	1.493224E-01
3.161176E+03	3.336412E-02	1.400328E-01
3.161375E+03	3.117854E-02	1.308649E-01
3.161968E+03	2.898507E-02	1.216727E-01
3.162562E+03	2.682798E-02	1.126312E-01
3.162760E+03	2.474121E-02	1.038745E-01
3.163554E+03	2.264249E-02	9.507831E-02
3.163752E+03	2.062119E-02	8.659407E-02
3.164940E+03	1.857021E-02	7.800005E-02
3.165138E+03	1.677239E-02	7.045151E-02
3.166326E+03	1.477615E-02	6.208126E-02
3.166524E+03	1.294872E-02	5.440558E-02
3.166722E+03	1.107855E-02	4.654967E-02
3.166921E+03	9.207531E-03	3.868960E-02
3.167317E+03	7.449805E-03	3.130621E-02
3.167911E+03	5.875182E-03	2.469215E-02
3.168109E+03	4.081552E-03	1.715459E-02
3.168703E+03	2.336007E-03	9.819309E-03
3.169099E+03	6.192269E-04	2.603102E-03
3.169297E+03	-9.370074E-04	-3.939143E-03
3.169495E+03	-2.543265E-03	-1.069221E-02
3.170287E+03	-4.122881E-03	-1.733589E-02
3.170883E+03	-5.710540E-03	-2.401456E-02
3.171675E+03	-6.978010E-03	-2.934934E-02
3.172467E+03	-8.357162E-03	-3.515563E-02
3.172664E+03	-9.834814E-03	-4.137324E-02
3.172863E+03	-1.124646E-02	-4.731366E-02
3.173061E+03	-1.260929E-02	-5.304917E-02
3.173258E+03	-1.386828E-02	-5.834828E-02
3.173852E+03	-1.522621E-02	-6.406917E-02
3.174050E+03	-1.627512E-02	-6.848553E-02
3.174843E+03	-1.750223E-02	-7.366099E-02
3.175239E+03	-1.876230E-02	-7.897053E-02
3.175635E+03	-1.987428E-02	-8.365755E-02
3.175833E+03	-2.107757E-02	-8.872613E-02
3.176031E+03	-2.224391E-02	-9.363961E-02
3.176229E+03	-2.314287E-02	-9.742781E-02
3.176625E+03	-2.410255E-02	-1.014760E-01
3.176823E+03	-2.506797E-02	-1.055449E-01
3.177021E+03	-2.606110E-02	-1.097306E-01
3.177417E+03	-2.683145E-02	-1.129833E-01
3.177615E+03	-2.764871E-02	-1.164293E-01
3.177813E+03	-2.855678E-02	-1.202580E-01
3.178012E+03	-2.942355E-02	-1.239131E-01
3.178210E+03	-3.011897E-02	-1.268469E-01
3.178408E+03	-3.083708E-02	-1.298764E-01
3.178805E+03	-3.149587E-02	-1.326616E-01
3.179003E+03	-3.213641E-02	-1.353651E-01
3.179201E+03	-3.273903E-02	-1.379089E-01
3.179993E+03	-3.323660E-02	-1.400273E-01
3.180191E+03	-3.376187E-02	-1.422460E-01
3.180389E+03	-3.424641E-02	-1.442933E-01
3.180587E+03	-3.468858E-02	-1.461621E-01
3.180785E+03	-3.509327E-02	-1.478733E-01
3.181181E+03	-3.542949E-02	-1.493020E-01
3.181973E+03	-3.568371E-02	-1.503974E-01
3.182369E+03	-3.595591E-02	-1.515568E-01
3.182964E+03	-3.614546E-02	-1.523741E-01
3.183162E+03	-3.626544E-02	-1.528860E-01
3.183360E+03	-3.639206E-02	-1.534260E-01
3.183558E+03	-3.646728E-02	-1.537493E-01
3.184547E+03	-3.632778E-02	-1.531918E-01
3.184746E+03	-3.636509E-02	-1.533553E-01
3.185736E+03	-3.620881E-02	-1.527270E-01
3.185934E+03	-3.613087E-02	-1.524043E-01
3.186529E+03	-3.599558E-02	-1.518520E-01
3.186727E+03	-3.572529E-02	-1.507178E-01
3.186925E+03	-3.533375E-02	-1.490719E-01
3.187717E+03	-3.499184E-02	-1.476532E-01
3.187915E+03	-3.461543E-02	-1.460707E-01
3.188707E+03	-3.412172E-02	-1.440105E-01
3.188905E+03	-3.369670E-02	-1.422225E-01
3.189103E+03	-3.307643E-02	-1.396101E-01
3.189301E+03	-3.253167E-02	-1.373163E-01
3.190093E+03	-3.184034E-02	-1.344198E-01
3.191084E+03	-3.120412E-02	-1.317605E-01
3.191480E+03	-3.048913E-02	-1.287517E-01
3.192669E+03	-2.966398E-02	-1.252976E-01
3.192867E+03	-2.896235E-02	-1.223389E-01
3.193461E+03	-2.815531E-02	-1.189443E-01
3.194848E+03	-2.707720E-02	-1.144220E-01
3.195046E+03	-2.616426E-02	-1.105686E-01
3.195244E+03	-2.527057E-02	-1.067962E-01
3.195442E+03	-2.433669E-02	-1.028537E-01
3.195640E+03	-2.317537E-02	-9.794959E-02
3.195838E+03	-2.203820E-02	-9.314716E-02
3.196036E+03	-2.087368E-02	-8.822875E-02
3.197619E+03	-1.954634E-02	-8.264504E-02
3.197817E+03	-1.824080E-02	-7.712810E-02
3.198016E+03	-1.690344E-02	-7.147622E-02
3.198412E+03	-1.560305E-02	-6.598284E-02
3.198610E+03	-1.408135E-02	-5.955020E-02
3.198808E+03	-1.254997E-02	-5.307614E-02
3.199006E+03	-1.109361E-02	-4.691884E-02
3.199204E+03	-9.552291E-03	-4.040167E-02
3.199402E+03	-7.976401E-03	-3.373776E-02
3.199600E+03	-6.233281E-03	-2.636596E-02
3.200195E+03	-4.472602E-03	-1.892082E-02
3.200393E+03	-2.689885E-03	-1.137971E-02
3.201581E+03	-8.896334E-04	-3.764556E-03
3.201779E+03	1.024859E-03	4.336950E-03
3.201978E+03	2.917217E-03	1.234544E-02
3.202770E+03	4.860491E-03	2.057256E-02
3.202968E+03	6.896964E-03	2.919334E-02
3.203166E+03	9.096110E-03	3.850340E-02
3.204552E+03	1.120689E-02	4.745169E-02
3.205741E+03	1.341352E-02	5.680874E-02
3.206137E+03	1.572284E-02	6.659454E-02
3.206335E+03	1.811397E-02	7.672535E-02
3.206533E+03	2.046996E-02	8.670811E-02
3.206731E+03	2.288632E-02	9.694747E-02
3.206929E+03	2.535979E-02	1.074295E-01
3.207722E+03	2.783088E-02	1.179168E-01
3.207920E+03	3.045895E-02	1.290569E-01
3.208315E+03	3.317503E-02	1.405765E-01
3.208909E+03	3.582268E-02	1.518142E-01
3.209108E+03	3.862063E-02	1.636785E-01
3.209305E+03	4.149968E-02	1.758873E-01
3.210494E+03	4.427027E-02	1.876756E-01
3.210692E+03	4.727528E-02	2.004230E-01
3.210890E+03	5.027937E-02	2.131674E-01
3.211088E+03	5.337907E-02	2.263183E-01
3.212870E+03	5.622225E-02	2.384603E-01
3.213068E+03	5.948881E-02	2.523253E-01
3.213266E+03	6.275715E-02	2.661990E-01
3.213663E+03	6.602929E-02	2.801013E-01
3.214257E+03	6.935695E-02	2.942535E-01
3.214456E+03	7.283605E-02	3.090266E-01
3.214654E+03	7.644606E-02	3.243562E-01
3.214852E+03	8.010040E-02	3.398752E-01
3.215446E+03	8.361280E-02	3.548221E-01
3.215842E+03	8.725810E-02	3.703216E-01
3.216238E+03	9.096381E-02	3.860801E-01
3.216436E+03	9.481480E-02	4.024414E-01
3.216634E+03	9.869113E-02	4.189115E-01
3.217030E+03	1.025451E-01	4.353060E-01
3.217228E+03	1.065486E-01	4.523195E-01
3.217625E+03	1.106276E-01	4.696739E-01
3.218021E+03	1.147380E-01	4.871646E-01
3.218417E+03	9.968722E-02	4.232951E-01
3.219011E+03	8.569298E-02	3.639169E-01
3.219209E+03	8.657759E-02	3.676887E-01
3.219407E+03	8.916272E-02	3.786830E-01
3.219605E+03	7.069265E-02	3.002510E-01
3.219803E+03	7.047567E-02	2.993417E-01
3.220001E+03	7.291215E-02	3.097032E-01
3.220198E+03	7.510700E-02	3.190390E-01
3.220594E+03	7.094951E-02	3.014035E-01
3.220792E+03	6.878298E-02	2.922117E-01
3.220991E+03	6.839301E-02	2.905669E-01
3.221189E+03	6.951184E-02	2.953323E-01
3.221387E+03	6.856866E-02	2.913370E-01
3.221586E+03	6.746717E-02	2.866687E-01
3.222180E+03	6.832045E-02	2.903300E-01
3.222576E+03	6.510091E-02	2.766711E-01
3.223566E+03	6.346018E-02	2.697534E-01
3.223962E+03	6.024399E-02	2.561031E-01
3.224160E+03	5.882082E-02	2.500633E-01
3.224556E+03	5.829497E-02	2.478481E-01
3.225151E+03	5.952771E-02	2.531204E-01
3.225745E+03	6.094477E-02	2.591778E-01
3.225943E+03	6.172376E-02	2.625013E-01
3.226339E+03	6.264560E-02	2.664436E-01
3.226537E+03	6.415758E-02	2.728856E-01
3.226933E+03	6.178346E-02	2.628091E-01
3.227527E+03	6.154298E-02	2.618184E-01
3.227725E+03	5.875816E-02	2.499814E-01
3.227923E+03	5.878007E-02	2.500849E-01
3.228121E+03	5.817292E-02	2.475119E-01
3.228319E+03	5.801300E-02	2.468416E-01
3.228517E+03	5.836695E-02	2.483578E-01
3.229113E+03	5.798430E-02	2.467601E-01
3.229509E+03	5.865150E-02	2.496199E-01
3.229707E+03	5.982188E-02	2.546115E-01
3.230697E+03	5.752122E-02	2.448698E-01
3.230895E+03	5.600020E-02	2.384046E-01
3.231093E+03	5.508056E-02	2.344992E-01
3.231291E+03	5.204264E-02	2.215747E-01
3.231489E+03	5.090898E-02	2.167570E-01
3.231687E+03	5.027332E-02	2.140593E-01
3.232875E+03	5.090990E-02	2.168233E-01
3.233074E+03	4.994458E-02	2.127208E-01
3.233469E+03	4.978723E-02	2.120681E-01
3.233667E+03	5.004167E-02	2.131606E-01
3.233865E+03	4.989517E-02	2.125453E-01
3.234063E+03	4.939461E-02	2.104217E-01
3.234459E+03	4.820278E-02	2.053614E-01
3.234657E+03	4.873032E-02	2.076175E-01
3.234855E+03	4.908765E-02	2.091485E-01
3.235053E+03	4.882168E-02	2.080239E-01
3.235251E+03	4.877688E-02	2.078416E-01
3.236242E+03	4.647528E-02	1.980751E-01
3.236638E+03	4.638324E-02	1.976992E-01
3.236837E+03	4.692203E-02	2.000039E-01
3.237035E+03	4.655645E-02	1.984538E-01
3.237431E+03	4.503537E-02	1.919858E-01
3.237629E+03	4.520654E-02	1.927235E-01
3.238421E+03	4.538082E-02	1.934984E-01
3.238619E+03	4.534976E-02	1.933740E-01
3.238817E+03	4.565867E-02	1.946992E-01
3.239411E+03	4.581372E-02	1.953846E-01
3.239609E+03	4.577669E-02	1.952347E-01
3.240798E+03	4.580259E-02	1.953937E-01
3.241590E+03	4.592115E-02	1.959319E-01
3.241788E+03	4.543260E-02	1.938554E-01
3.242184E+03	4.376298E-02	1.867468E-01
3.242382E+03	4.343633E-02	1.853605E-01
3.242976E+03	4.253429E-02	1.815337E-01
3.243373E+03	4.224984E-02	1.803347E-01
3.243967E+03	4.258020E-02	1.817674E-01
3.244165E+03	4.249809E-02	1.814243E-01
3.244760E+03	4.283228E-02	1.828737E-01
3.245156E+03	4.297566E-02	1.835011E-01
3.245551E+03	4.177367E-02	1.783835E-01
3.245947E+03	4.188475E-02	1.788727E-01
