#wls	flux	fluxerr
1.584409E+03	2.195934E-03	8.027948E-05
1.624020E+03	2.269479E-03	8.296614E-05
1.663630E+03	2.340884E-03	8.557444E-05
1.703240E+03	2.409097E-03	8.806582E-05
1.742850E+03	2.473913E-03	9.043288E-05
1.782461E+03	2.534144E-03	9.263219E-05
1.822071E+03	2.589010E-03	9.463519E-05
1.861681E+03	2.638125E-03	9.642786E-05
1.901291E+03	2.680181E-03	9.796232E-05
1.940902E+03	2.714518E-03	9.921455E-05
1.980512E+03	2.740067E-03	1.001455E-04
2.020122E+03	2.756208E-03	1.007324E-04
2.059732E+03	2.761610E-03	1.009268E-04
2.099342E+03	2.755322E-03	1.006939E-04
2.138953E+03	2.736426E-03	1.000002E-04
2.178563E+03	2.703480E-03	9.879303E-05
2.218173E+03	2.655396E-03	9.703271E-05
2.257783E+03	2.592215E-03	9.472084E-05
2.297394E+03	2.514932E-03	9.189375E-05
2.337004E+03	2.426119E-03	8.864556E-05
2.376614E+03	2.327919E-03	8.505454E-05
2.416224E+03	2.222221E-03	8.118978E-05
2.455835E+03	2.110971E-03	7.712244E-05
2.495445E+03	1.995415E-03	7.289804E-05
2.535055E+03	1.876958E-03	6.856791E-05
2.574665E+03	1.756798E-03	6.417586E-05
2.614276E+03	1.636179E-03	5.976734E-05
2.653886E+03	1.516119E-03	5.537954E-05
2.693496E+03	1.397637E-03	5.104970E-05
2.733106E+03	1.281681E-03	4.681244E-05
2.772716E+03	1.169124E-03	4.269963E-05
2.812327E+03	1.060786E-03	3.874124E-05
2.851937E+03	9.574537E-04	3.496595E-05
2.891547E+03	8.598154E-04	3.139890E-05
2.931157E+03	7.684550E-04	2.806138E-05
2.970768E+03	6.837878E-04	2.496854E-05
2.980670E+03	6.637155E-04	2.423534E-05
2.990573E+03	6.440631E-04	2.351748E-05
3.000475E+03	6.248575E-04	2.281595E-05
3.010378E+03	6.060818E-04	2.213013E-05
3.020280E+03	5.877466E-04	2.146042E-05
3.030183E+03	5.698597E-04	2.080708E-05
3.040086E+03	5.523927E-04	2.016909E-05
3.049988E+03	5.353764E-04	1.954757E-05
3.059891E+03	5.187833E-04	1.894151E-05
3.069793E+03	5.026299E-04	1.835153E-05
3.079696E+03	4.869006E-04	1.777704E-05
3.089598E+03	4.715916E-04	1.721790E-05
3.099501E+03	4.567170E-04	1.667464E-05
3.109403E+03	4.422543E-04	1.614643E-05
3.119306E+03	4.282253E-04	1.563406E-05
3.129209E+03	4.146006E-04	1.513647E-05
3.139111E+03	4.014001E-04	1.465437E-05
3.149014E+03	3.886036E-04	1.418703E-05
3.158916E+03	3.762206E-04	1.373480E-05
3.168819E+03	3.642389E-04	1.329723E-05
3.178721E+03	3.526594E-04	1.287435E-05
3.188624E+03	3.414762E-04	1.246595E-05
3.198526E+03	3.306830E-04	1.207179E-05
3.208429E+03	3.202686E-04	1.169147E-05
3.218332E+03	3.102375E-04	1.132516E-05
3.228234E+03	3.005778E-04	1.097240E-05
3.238137E+03	2.912866E-04	1.063312E-05
3.248039E+03	2.823519E-04	1.030684E-05
3.257942E+03	2.737660E-04	9.993312E-06
3.267844E+03	2.655248E-04	9.692369E-06
3.277747E+03	2.576157E-04	9.403557E-06
3.287650E+03	2.500338E-04	9.126692E-06
3.297552E+03	2.427697E-04	8.861436E-06
3.307455E+03	2.358076E-04	8.607209E-06
3.317357E+03	2.291453E-04	8.363931E-06
3.327260E+03	2.227708E-04	8.131163E-06
3.337162E+03	2.166746E-04	7.908561E-06
3.347065E+03	2.108485E-04	7.695819E-06
3.356967E+03	2.052779E-04	7.492406E-06
3.366870E+03	1.999598E-04	7.298218E-06
3.376773E+03	1.948837E-04	7.112863E-06
3.386675E+03	1.900384E-04	6.935937E-06
3.396578E+03	1.854166E-04	6.767172E-06
3.406480E+03	1.810104E-04	6.606281E-06
3.416383E+03	1.768082E-04	6.452840E-06
3.426285E+03	1.728053E-04	6.306674E-06
3.436188E+03	1.689910E-04	6.167396E-06
3.446090E+03	1.653589E-04	6.034767E-06
3.455993E+03	1.619013E-04	5.908512E-06
3.465896E+03	1.586107E-04	5.788357E-06
3.475798E+03	1.554803E-04	5.674047E-06
3.485701E+03	1.525034E-04	5.565342E-06
3.495603E+03	1.496722E-04	5.461957E-06
3.505506E+03	1.469793E-04	5.363622E-06
3.515408E+03	1.444195E-04	5.270146E-06
3.525311E+03	1.419862E-04	5.181291E-06
3.535213E+03	1.396749E-04	5.096887E-06
3.545116E+03	1.374782E-04	5.016668E-06
3.555019E+03	1.353922E-04	4.940488E-06
3.564921E+03	1.334116E-04	4.868158E-06
3.574824E+03	1.315342E-04	4.799596E-06
3.584726E+03	1.297540E-04	4.734580E-06
3.594629E+03	1.280677E-04	4.672994E-06
3.604531E+03	1.264687E-04	4.614593E-06
3.614434E+03	1.249542E-04	4.559280E-06
3.624337E+03	1.235207E-04	4.506918E-06
3.634239E+03	1.221643E-04	4.457377E-06
3.644142E+03	1.208830E-04	4.410574E-06
3.654044E+03	1.196745E-04	4.366428E-06
3.663947E+03	1.185356E-04	4.324821E-06
3.673849E+03	1.174652E-04	4.285716E-06
3.683752E+03	1.164602E-04	4.248999E-06
3.693654E+03	1.155207E-04	4.214671E-06
3.703557E+03	1.146446E-04	4.182658E-06
3.713460E+03	1.138298E-04	4.152885E-06
3.723362E+03	1.130755E-04	4.125314E-06
3.733265E+03	1.123814E-04	4.099944E-06
3.743167E+03	1.117456E-04	4.076700E-06
3.753070E+03	1.111680E-04	4.055579E-06
3.762972E+03	1.106466E-04	4.036511E-06
3.772875E+03	1.101805E-04	4.019459E-06
3.782777E+03	1.097695E-04	4.004421E-06
3.792680E+03	1.094138E-04	3.991396E-06
3.802583E+03	1.091113E-04	3.980316E-06
3.812485E+03	1.088631E-04	3.971214E-06
3.822388E+03	1.086663E-04	3.963990E-06
3.832290E+03	1.085228E-04	3.958709E-06
3.842193E+03	1.084299E-04	3.955273E-06
3.852095E+03	1.083892E-04	3.953745E-06
3.861998E+03	1.083991E-04	3.954059E-06
3.871900E+03	1.084594E-04	3.956212E-06
3.881803E+03	1.085691E-04	3.960170E-06
3.891706E+03	1.087283E-04	3.965929E-06
3.901608E+03	1.089358E-04	3.973455E-06
3.911511E+03	1.091926E-04	3.982774E-06
3.921413E+03	1.094967E-04	3.993822E-06
3.931316E+03	1.098481E-04	4.006594E-06
3.941218E+03	1.102458E-04	4.021054E-06
3.951121E+03	1.106906E-04	4.037230E-06
3.961024E+03	1.111814E-04	4.055086E-06
3.970926E+03	1.117173E-04	4.074586E-06
3.980829E+03	1.122973E-04	4.095696E-06
3.990731E+03	1.129223E-04	4.118443E-06
4.000634E+03	1.135903E-04	4.142760E-06
4.010536E+03	1.143022E-04	4.168680E-06
4.020439E+03	1.150563E-04	4.196133E-06
4.030341E+03	1.158524E-04	4.225123E-06
4.040244E+03	1.166907E-04	4.255648E-06
4.050147E+03	1.175703E-04	4.287679E-06
4.060049E+03	1.184903E-04	4.321184E-06
4.069952E+03	1.194499E-04	4.356134E-06
4.079854E+03	1.204503E-04	4.392567E-06
4.089757E+03	1.214895E-04	4.430419E-06
4.099659E+03	1.225679E-04	4.469696E-06
4.109562E+03	1.236835E-04	4.510333E-06
4.119464E+03	1.248366E-04	4.552335E-06
4.129367E+03	1.260275E-04	4.595712E-06
4.139270E+03	1.272542E-04	4.640396E-06
4.149172E+03	1.285169E-04	4.686396E-06
4.159075E+03	1.298141E-04	4.733646E-06
4.168977E+03	1.311457E-04	4.782154E-06
4.178880E+03	1.325100E-04	4.831855E-06
4.188782E+03	1.339073E-04	4.882755E-06
4.198685E+03	1.353356E-04	4.934788E-06
4.208587E+03	1.367942E-04	4.987922E-06
4.218490E+03	1.382810E-04	5.042086E-06
4.228393E+03	1.397963E-04	5.097287E-06
4.238295E+03	1.413380E-04	5.153450E-06
4.248198E+03	1.429051E-04	5.210538E-06
4.258100E+03	1.444954E-04	5.268471E-06
4.268003E+03	1.461065E-04	5.327164E-06
4.277905E+03	1.477372E-04	5.386570E-06
4.287808E+03	1.493862E-04	5.446640E-06
4.297711E+03	1.510507E-04	5.507276E-06
4.307613E+03	1.527291E-04	5.568421E-06
4.317516E+03	1.544187E-04	5.629969E-06
4.327418E+03	1.561187E-04	5.691897E-06
4.337321E+03	1.578273E-04	5.754141E-06
4.347223E+03	1.595465E-04	5.816768E-06
4.357126E+03	1.612745E-04	5.879713E-06
4.367028E+03	1.630118E-04	5.943001E-06
4.376931E+03	1.647581E-04	6.006613E-06
4.386834E+03	1.665154E-04	6.070629E-06
4.396736E+03	1.682822E-04	6.134988E-06
4.406639E+03	1.700579E-04	6.199672E-06
4.416541E+03	1.718437E-04	6.264722E-06
4.426444E+03	1.736394E-04	6.330131E-06
4.436346E+03	1.754447E-04	6.395895E-06
4.446249E+03	1.772581E-04	6.461951E-06
4.456151E+03	1.790809E-04	6.528349E-06
4.466054E+03	1.809116E-04	6.595034E-06
4.475957E+03	1.827500E-04	6.661999E-06
4.485859E+03	1.845959E-04	6.729239E-06
4.495762E+03	1.864464E-04	6.796643E-06
4.505664E+03	1.883027E-04	6.864261E-06
4.515567E+03	1.901637E-04	6.932050E-06
4.525469E+03	1.920292E-04	7.000004E-06
4.535372E+03	1.938961E-04	7.068006E-06
4.545274E+03	1.957665E-04	7.136137E-06
4.555177E+03	1.976373E-04	7.204279E-06
4.565080E+03	1.995106E-04	7.272513E-06
4.574982E+03	2.013835E-04	7.340735E-06
4.584885E+03	2.032568E-04	7.408969E-06
4.594787E+03	2.051294E-04	7.477179E-06
4.604690E+03	2.070043E-04	7.545468E-06
4.614592E+03	2.088786E-04	7.613738E-06
4.624495E+03	2.107557E-04	7.682113E-06
4.634398E+03	2.126349E-04	7.750560E-06
4.644300E+03	2.145162E-04	7.819081E-06
4.654203E+03	2.164029E-04	7.887803E-06
4.664105E+03	2.182930E-04	7.956648E-06
4.674008E+03	2.201883E-04	8.025681E-06
4.683910E+03	2.220870E-04	8.094837E-06
4.693813E+03	2.239913E-04	8.164200E-06
4.703715E+03	2.258970E-04	8.233612E-06
4.713618E+03	2.278069E-04	8.303177E-06
4.723521E+03	2.297187E-04	8.372809E-06
4.733423E+03	2.316350E-04	8.442606E-06
4.743326E+03	2.335539E-04	8.512500E-06
4.753228E+03	2.354758E-04	8.582498E-06
4.763131E+03	2.374005E-04	8.652600E-06
4.773033E+03	2.393285E-04	8.722824E-06
4.782936E+03	2.412599E-04	8.793171E-06
4.792838E+03	2.431925E-04	8.863560E-06
4.802741E+03	2.451287E-04	8.934083E-06
4.812644E+03	2.470689E-04	9.004747E-06
4.822546E+03	2.490109E-04	9.075478E-06
4.832449E+03	2.509545E-04	9.146270E-06
4.842351E+03	2.529029E-04	9.217233E-06
4.852254E+03	2.548509E-04	9.288184E-06
4.862156E+03	2.568039E-04	9.359312E-06
4.872059E+03	2.587591E-04	9.430525E-06
4.881961E+03	2.607144E-04	9.501738E-06
4.891864E+03	2.626717E-04	9.573025E-06
4.901767E+03	2.646308E-04	9.644379E-06
4.911669E+03	2.665886E-04	9.715685E-06
4.921572E+03	2.685468E-04	9.787002E-06
4.931474E+03	2.704996E-04	9.858124E-06
4.941377E+03	2.724509E-04	9.929192E-06
4.951279E+03	2.743967E-04	1.000006E-05
4.961182E+03	2.763331E-04	1.007058E-05
4.971085E+03	2.782607E-04	1.014078E-05
4.980987E+03	2.801752E-04	1.021051E-05
4.990890E+03	2.820741E-04	1.027967E-05
5.000792E+03	2.839552E-04	1.034817E-05
5.010695E+03	2.858158E-04	1.041593E-05
5.020597E+03	2.876505E-04	1.048275E-05
5.030500E+03	2.894586E-04	1.054859E-05
5.040402E+03	2.912343E-04	1.061326E-05
5.050305E+03	2.929742E-04	1.067662E-05
5.060208E+03	2.946720E-04	1.073844E-05
5.070110E+03	2.963267E-04	1.079870E-05
5.080013E+03	2.979295E-04	1.085706E-05
5.089915E+03	2.994824E-04	1.091361E-05
5.099818E+03	3.009763E-04	1.096800E-05
5.109720E+03	3.024108E-04	1.102023E-05
5.119623E+03	3.037796E-04	1.107006E-05
5.129525E+03	3.050763E-04	1.111727E-05
5.139428E+03	3.063006E-04	1.116184E-05
5.149331E+03	3.074461E-04	1.120354E-05
5.159233E+03	3.085093E-04	1.124224E-05
5.169136E+03	3.094866E-04	1.127780E-05
5.179038E+03	3.103713E-04	1.131000E-05
5.188941E+03	3.111598E-04	1.133869E-05
5.198843E+03	3.118453E-04	1.136362E-05
5.208746E+03	3.124265E-04	1.138475E-05
5.218648E+03	3.128970E-04	1.140185E-05
5.228551E+03	3.132520E-04	1.141474E-05
5.238454E+03	3.134880E-04	1.142330E-05
5.248356E+03	3.135974E-04	1.142724E-05
5.258259E+03	3.135767E-04	1.142644E-05
5.268161E+03	3.134216E-04	1.142074E-05
5.278064E+03	3.131288E-04	1.141003E-05
5.287966E+03	3.126918E-04	1.139406E-05
5.297869E+03	3.121109E-04	1.137285E-05
5.307772E+03	3.113840E-04	1.134632E-05
5.317674E+03	3.105091E-04	1.131439E-05
5.327577E+03	3.094826E-04	1.127695E-05
5.337479E+03	3.083104E-04	1.123419E-05
5.347382E+03	3.069908E-04	1.118607E-05
5.357284E+03	3.055325E-04	1.113289E-05
5.367187E+03	3.039352E-04	1.107464E-05
5.377089E+03	3.022072E-04	1.101164E-05
5.386992E+03	3.003545E-04	1.094409E-05
5.396895E+03	2.983898E-04	1.087246E-05
5.406797E+03	2.963190E-04	1.079696E-05
5.416700E+03	2.941483E-04	1.071783E-05
5.426602E+03	2.918829E-04	1.063524E-05
5.436505E+03	2.895344E-04	1.054963E-05
5.446407E+03	2.871100E-04	1.046126E-05
5.456310E+03	2.846206E-04	1.037051E-05
5.466212E+03	2.820775E-04	1.027781E-05
5.476115E+03	2.794930E-04	1.018360E-05
5.486018E+03	2.768790E-04	1.008832E-05
5.495920E+03	2.742512E-04	9.992539E-06
5.505823E+03	2.716220E-04	9.896703E-06
5.515725E+03	2.690093E-04	9.801471E-06
5.525628E+03	2.664222E-04	9.707173E-06
5.535530E+03	2.638805E-04	9.614529E-06
5.545433E+03	2.613921E-04	9.523826E-06
5.555335E+03	2.589723E-04	9.435624E-06
5.565238E+03	2.566350E-04	9.350431E-06
5.575141E+03	2.543853E-04	9.268430E-06
5.585043E+03	2.522400E-04	9.190230E-06
5.594946E+03	2.502038E-04	9.116009E-06
5.604848E+03	2.482807E-04	9.045907E-06
5.614751E+03	2.464830E-04	8.980375E-06
5.624653E+03	2.448097E-04	8.919378E-06
5.634556E+03	2.432659E-04	8.863097E-06
5.644459E+03	2.418557E-04	8.811685E-06
5.654361E+03	2.405798E-04	8.765167E-06
5.664264E+03	2.394383E-04	8.723543E-06
5.674166E+03	2.384305E-04	8.686794E-06
5.684069E+03	2.375581E-04	8.654976E-06
5.693971E+03	2.368221E-04	8.628130E-06
5.703874E+03	2.362168E-04	8.606044E-06
5.713776E+03	2.357485E-04	8.588949E-06
5.723679E+03	2.354115E-04	8.576638E-06
5.733582E+03	2.352106E-04	8.569288E-06
5.743484E+03	2.351434E-04	8.566807E-06
5.753387E+03	2.352131E-04	8.569311E-06
5.763289E+03	2.354200E-04	8.576819E-06
5.773192E+03	2.357679E-04	8.589458E-06
5.783094E+03	2.362554E-04	8.607186E-06
5.792997E+03	2.368832E-04	8.630027E-06
5.802899E+03	2.376554E-04	8.658127E-06
5.812802E+03	2.385759E-04	8.691628E-06
5.822705E+03	2.396402E-04	8.730370E-06
5.832607E+03	2.408548E-04	8.774584E-06
5.842510E+03	2.422181E-04	8.824218E-06
5.852412E+03	2.437337E-04	8.879397E-06
5.862315E+03	2.454021E-04	8.940147E-06
5.872217E+03	2.472212E-04	9.006382E-06
5.882120E+03	2.491940E-04	9.078219E-06
5.892022E+03	2.513201E-04	9.155639E-06
5.901925E+03	2.535960E-04	9.238513E-06
5.911828E+03	2.560266E-04	9.327025E-06
5.921730E+03	2.586046E-04	9.420906E-06
5.931633E+03	2.613308E-04	9.520187E-06
5.941535E+03	2.642028E-04	9.624776E-06
5.951438E+03	2.672145E-04	9.734454E-06
5.961340E+03	2.703654E-04	9.849202E-06
5.971243E+03	2.736448E-04	9.968630E-06
5.981146E+03	2.770540E-04	1.009279E-05
5.991048E+03	2.805808E-04	1.022123E-05
6.000951E+03	2.842222E-04	1.035384E-05
6.010853E+03	2.879673E-04	1.049023E-05
6.020756E+03	2.918082E-04	1.063011E-05
6.030658E+03	2.957324E-04	1.077302E-05
6.040561E+03	2.997263E-04	1.091847E-05
6.050463E+03	3.037829E-04	1.106620E-05
6.060366E+03	3.078795E-04	1.121539E-05
6.070269E+03	3.120075E-04	1.136572E-05
6.080171E+03	3.161462E-04	1.151645E-05
6.090074E+03	3.202816E-04	1.166705E-05
6.099976E+03	3.243842E-04	1.181645E-05
6.109879E+03	3.284434E-04	1.196427E-05
6.119781E+03	3.324337E-04	1.210958E-05
6.129684E+03	3.363378E-04	1.225176E-05
6.139586E+03	3.401360E-04	1.239007E-05
6.149489E+03	3.438270E-04	1.252448E-05
6.159392E+03	3.474166E-04	1.265519E-05
6.169294E+03	3.509128E-04	1.278250E-05
6.179197E+03	3.543257E-04	1.290677E-05
6.189099E+03	3.576536E-04	1.302795E-05
6.199002E+03	3.609185E-04	1.314683E-05
6.208904E+03	3.641158E-04	1.326325E-05
6.218807E+03	3.672605E-04	1.337775E-05
6.228709E+03	3.703632E-04	1.349073E-05
6.238612E+03	3.734210E-04	1.360206E-05
6.248515E+03	3.764449E-04	1.371216E-05
6.258417E+03	3.794422E-04	1.382129E-05
6.268320E+03	3.824204E-04	1.392973E-05
6.278222E+03	3.853764E-04	1.403736E-05
6.288125E+03	3.883178E-04	1.414445E-05
6.298027E+03	3.912468E-04	1.425110E-05
6.307930E+03	3.941665E-04	1.435740E-05
6.317833E+03	3.970735E-04	1.446324E-05
6.327735E+03	3.999647E-04	1.456850E-05
6.337638E+03	4.028367E-04	1.467307E-05
6.347540E+03	4.056915E-04	1.477701E-05
6.357443E+03	4.085257E-04	1.488019E-05
6.367345E+03	4.113227E-04	1.498202E-05
6.377248E+03	4.141023E-04	1.508322E-05
6.387150E+03	4.168662E-04	1.518385E-05
6.397053E+03	4.196228E-04	1.528421E-05
6.406956E+03	4.223862E-04	1.538481E-05
6.416858E+03	4.251528E-04	1.548554E-05
6.426761E+03	4.279377E-04	1.558693E-05
6.436663E+03	4.307434E-04	1.568907E-05
6.446566E+03	4.335787E-04	1.579230E-05
6.456468E+03	4.364332E-04	1.589622E-05
6.466371E+03	4.393291E-04	1.600165E-05
6.476273E+03	4.422549E-04	1.610818E-05
6.486176E+03	4.452202E-04	1.621613E-05
6.496079E+03	4.482270E-04	1.632561E-05
6.505981E+03	4.512702E-04	1.643640E-05
6.515884E+03	4.543590E-04	1.654886E-05
6.525786E+03	4.574953E-04	1.666305E-05
6.535689E+03	4.606744E-04	1.677879E-05
6.545591E+03	4.638976E-04	1.689614E-05
6.555494E+03	4.671669E-04	1.701517E-05
6.565396E+03	4.704916E-04	1.713622E-05
6.575299E+03	4.738579E-04	1.725878E-05
6.585202E+03	4.772751E-04	1.738320E-05
6.595104E+03	4.807445E-04	1.750952E-05
6.605007E+03	4.842591E-04	1.763748E-05
6.614909E+03	4.878277E-04	1.776741E-05
6.624812E+03	4.914432E-04	1.789905E-05
6.634714E+03	4.951143E-04	1.803272E-05
6.644617E+03	4.988248E-04	1.816782E-05
6.654520E+03	5.025836E-04	1.830467E-05
6.664422E+03	5.064001E-04	1.844363E-05
6.674325E+03	5.102572E-04	1.858407E-05
6.684227E+03	5.141644E-04	1.872633E-05
6.694130E+03	5.181132E-04	1.887011E-05
6.704032E+03	5.221135E-04	1.901576E-05
6.713935E+03	5.261567E-04	1.916298E-05
6.723837E+03	5.302437E-04	1.931179E-05
6.733740E+03	5.343847E-04	1.946257E-05
6.743643E+03	5.385615E-04	1.961465E-05
6.753545E+03	5.427941E-04	1.976877E-05
6.763448E+03	5.470638E-04	1.992423E-05
6.773350E+03	5.513909E-04	2.008179E-05
6.783253E+03	5.557559E-04	2.024073E-05
6.793155E+03	5.601583E-04	2.040103E-05
6.803058E+03	5.646083E-04	2.056306E-05
6.812960E+03	5.691054E-04	2.072681E-05
6.822863E+03	5.736273E-04	2.089146E-05
6.832766E+03	5.781941E-04	2.105775E-05
6.842668E+03	5.827934E-04	2.122523E-05
6.852571E+03	5.874341E-04	2.139421E-05
6.862473E+03	5.920923E-04	2.156383E-05
6.872376E+03	5.967762E-04	2.173439E-05
6.882278E+03	6.014831E-04	2.190578E-05
6.892181E+03	6.061987E-04	2.207749E-05
6.902083E+03	6.109313E-04	2.224983E-05
6.911986E+03	6.156780E-04	2.242267E-05
6.921889E+03	6.204241E-04	2.259550E-05
6.931791E+03	6.251662E-04	2.276818E-05
6.941694E+03	6.299012E-04	2.294060E-05
6.951596E+03	6.346385E-04	2.311311E-05
6.961499E+03	6.393510E-04	2.328471E-05
6.971401E+03	6.440608E-04	2.345622E-05
6.981304E+03	6.487404E-04	2.362663E-05
6.991207E+03	6.534007E-04	2.379634E-05
7.001109E+03	6.580266E-04	2.396479E-05
7.011012E+03	6.626295E-04	2.413242E-05
7.020914E+03	6.672087E-04	2.429917E-05
7.030817E+03	6.717494E-04	2.446453E-05
7.040719E+03	6.762373E-04	2.462797E-05
7.050622E+03	6.806990E-04	2.479045E-05
7.060524E+03	6.851206E-04	2.495148E-05
7.070427E+03	6.895021E-04	2.511105E-05
7.080330E+03	6.938438E-04	2.526916E-05
7.090232E+03	6.981317E-04	2.542532E-05
7.100135E+03	7.023807E-04	2.558007E-05
7.110037E+03	7.065769E-04	2.573290E-05
7.119940E+03	7.107211E-04	2.588383E-05
7.129842E+03	7.148294E-04	2.603346E-05
7.139745E+03	7.188877E-04	2.618127E-05
7.149647E+03	7.229128E-04	2.632787E-05
7.159550E+03	7.268750E-04	2.647219E-05
7.169453E+03	7.307901E-04	2.661479E-05
7.179355E+03	7.346586E-04	2.675570E-05
7.189258E+03	7.384804E-04	2.689491E-05
7.199160E+03	7.422548E-04	2.703239E-05
7.209063E+03	7.459809E-04	2.716812E-05
7.218965E+03	7.496408E-04	2.730145E-05
7.228868E+03	7.532483E-04	2.743286E-05
7.238770E+03	7.568008E-04	2.756228E-05
7.248673E+03	7.602953E-04	2.768959E-05
7.258576E+03	7.637124E-04	2.781408E-05
7.268478E+03	7.670655E-04	2.793624E-05
7.278381E+03	7.703685E-04	2.805658E-05
7.288283E+03	7.735847E-04	2.817377E-05
7.298186E+03	7.767285E-04	2.828832E-05
7.308088E+03	7.797972E-04	2.840014E-05
7.317991E+03	7.828066E-04	2.850980E-05
7.327894E+03	7.857378E-04	2.861661E-05
7.337796E+03	7.886076E-04	2.872120E-05
7.347699E+03	7.914336E-04	2.882420E-05
7.357601E+03	7.941993E-04	2.892500E-05
7.367504E+03	7.969420E-04	2.902497E-05
7.377406E+03	7.996286E-04	2.912290E-05
7.387309E+03	8.022803E-04	2.921956E-05
7.397211E+03	8.048828E-04	2.931443E-05
7.407114E+03	8.074584E-04	2.940833E-05
7.417017E+03	8.099748E-04	2.950008E-05
7.426919E+03	8.124547E-04	2.959050E-05
7.436822E+03	8.149021E-04	2.967974E-05
7.446724E+03	8.173011E-04	2.976723E-05
7.456627E+03	8.196920E-04	2.985442E-05
7.466529E+03	8.220382E-04	2.993999E-05
7.476432E+03	8.243601E-04	3.002468E-05
7.486334E+03	8.266400E-04	3.010785E-05
7.496237E+03	8.288985E-04	3.019024E-05
7.506140E+03	8.311175E-04	3.027120E-05
7.516042E+03	8.333183E-04	3.035150E-05
7.525945E+03	8.354826E-04	3.043047E-05
7.535847E+03	8.376114E-04	3.050815E-05
7.545750E+03	8.397253E-04	3.058530E-05
7.555652E+03	8.418051E-04	3.066121E-05
7.565555E+03	8.438503E-04	3.073587E-05
7.575457E+03	8.458807E-04	3.080999E-05
7.585360E+03	8.478748E-04	3.088279E-05
7.595263E+03	8.498514E-04	3.095496E-05
7.605165E+03	8.517666E-04	3.102490E-05
7.615068E+03	8.536599E-04	3.109404E-05
7.624970E+03	8.555285E-04	3.116229E-05
7.634873E+03	8.573480E-04	3.122876E-05
7.644775E+03	8.591369E-04	3.129411E-05
7.654678E+03	8.608704E-04	3.135745E-05
7.664581E+03	8.625447E-04	3.141864E-05
7.674483E+03	8.641778E-04	3.147833E-05
7.684386E+03	8.657659E-04	3.153639E-05
