#wls	flux	fluxerr
1.584409E+03	5.146023E-03	7.880558E-04
1.624020E+03	5.292737E-03	8.104768E-04
1.663630E+03	5.429819E-03	8.314170E-04
1.703240E+03	5.556262E-03	8.507229E-04
1.742850E+03	5.668786E-03	8.678916E-04
1.782461E+03	5.767253E-03	8.829025E-04
1.822071E+03	5.848268E-03	8.952361E-04
1.861681E+03	5.911057E-03	9.047739E-04
1.901291E+03	5.953800E-03	9.112380E-04
1.940902E+03	5.973816E-03	9.142186E-04
1.980512E+03	5.970520E-03	9.136268E-04
2.020122E+03	5.942097E-03	9.091860E-04
2.059732E+03	5.887110E-03	9.006773E-04
2.099342E+03	5.804575E-03	8.879515E-04
2.138953E+03	5.693301E-03	8.708276E-04
2.178563E+03	5.551524E-03	8.490377E-04
2.218173E+03	5.377744E-03	8.223545E-04
2.257783E+03	5.172850E-03	7.909158E-04
2.297394E+03	4.941022E-03	7.553631E-04
2.337004E+03	4.689389E-03	7.167883E-04
2.376614E+03	4.423604E-03	6.760576E-04
2.416224E+03	4.148738E-03	6.339471E-04
2.455835E+03	3.868420E-03	5.910130E-04
2.495445E+03	3.586421E-03	5.478325E-04
2.535055E+03	3.305752E-03	5.048664E-04
2.574665E+03	3.029510E-03	4.625882E-04
2.614276E+03	2.760150E-03	4.213735E-04
2.653886E+03	2.499952E-03	3.815705E-04
2.693496E+03	2.250959E-03	3.434910E-04
2.733106E+03	2.014733E-03	3.073731E-04
2.772716E+03	1.792627E-03	2.734228E-04
2.812327E+03	1.585675E-03	2.417971E-04
2.851937E+03	1.394698E-03	2.126202E-04
2.891547E+03	1.220270E-03	1.859787E-04
2.931157E+03	1.062618E-03	1.619058E-04
2.970768E+03	9.216325E-04	1.403836E-04
2.980670E+03	8.889392E-04	1.353936E-04
2.990573E+03	8.572299E-04	1.305541E-04
3.000475E+03	8.265255E-04	1.258683E-04
3.010378E+03	7.967688E-04	1.213274E-04
3.020280E+03	7.679773E-04	1.169341E-04
3.030183E+03	7.401287E-04	1.126849E-04
3.040086E+03	7.132173E-04	1.085790E-04
3.049988E+03	6.871907E-04	1.046084E-04
3.059891E+03	6.620712E-04	1.007764E-04
3.069793E+03	6.378082E-04	9.707531E-05
3.079696E+03	6.144059E-04	9.350573E-05
3.089598E+03	5.918408E-04	9.006407E-05
3.099501E+03	5.700783E-04	8.674504E-05
3.109403E+03	5.491201E-04	8.354887E-05
3.119306E+03	5.289335E-04	8.047057E-05
3.129209E+03	5.095073E-04	7.750841E-05
3.139111E+03	4.908188E-04	7.465891E-05
3.149014E+03	4.728466E-04	7.191879E-05
3.158916E+03	4.555766E-04	6.928589E-05
3.168819E+03	4.389869E-04	6.675685E-05
3.178721E+03	4.230472E-04	6.432706E-05
3.188624E+03	4.077527E-04	6.199575E-05
3.198526E+03	3.930781E-04	5.975905E-05
3.208429E+03	3.790139E-04	5.761551E-05
3.218332E+03	3.655427E-04	5.556244E-05
3.228234E+03	3.526414E-04	5.359635E-05
3.238137E+03	3.403044E-04	5.171633E-05
3.248039E+03	3.285030E-04	4.991802E-05
3.257942E+03	3.172292E-04	4.820017E-05
3.267844E+03	3.064645E-04	4.655996E-05
3.277747E+03	2.961817E-04	4.499325E-05
3.287650E+03	2.863722E-04	4.349870E-05
3.297552E+03	2.770180E-04	4.207355E-05
3.307455E+03	2.680980E-04	4.071460E-05
3.317357E+03	2.595955E-04	3.941929E-05
3.327260E+03	2.514947E-04	3.818520E-05
3.337162E+03	2.437799E-04	3.700992E-05
3.347065E+03	2.364357E-04	3.589113E-05
3.356967E+03	2.294473E-04	3.482654E-05
3.366870E+03	2.227975E-04	3.381354E-05
3.376773E+03	2.164697E-04	3.284957E-05
3.386675E+03	2.104562E-04	3.193350E-05
3.396578E+03	2.047364E-04	3.106213E-05
3.406480E+03	1.993005E-04	3.023401E-05
3.416383E+03	1.941346E-04	2.944699E-05
3.426285E+03	1.892276E-04	2.869939E-05
3.436188E+03	1.845644E-04	2.798889E-05
3.446090E+03	1.801330E-04	2.731369E-05
3.455993E+03	1.759242E-04	2.667237E-05
3.465896E+03	1.719254E-04	2.606299E-05
3.475798E+03	1.681283E-04	2.548432E-05
3.485701E+03	1.645181E-04	2.493408E-05
3.495603E+03	1.610881E-04	2.441124E-05
3.505506E+03	1.578267E-04	2.391406E-05
3.515408E+03	1.547250E-04	2.344117E-05
3.525311E+03	1.517747E-04	2.299130E-05
3.535213E+03	1.489647E-04	2.256278E-05
3.545116E+03	1.462910E-04	2.215497E-05
3.555019E+03	1.437451E-04	2.176661E-05
3.564921E+03	1.413193E-04	2.139650E-05
3.574824E+03	1.390104E-04	2.104414E-05
3.584726E+03	1.368097E-04	2.070825E-05
3.594629E+03	1.347121E-04	2.038802E-05
3.604531E+03	1.327125E-04	2.008268E-05
3.614434E+03	1.308063E-04	1.979153E-05
3.624337E+03	1.289890E-04	1.951389E-05
3.634239E+03	1.272565E-04	1.924912E-05
3.644142E+03	1.256060E-04	1.899680E-05
3.654044E+03	1.240347E-04	1.875652E-05
3.663947E+03	1.225391E-04	1.852771E-05
3.673849E+03	1.211198E-04	1.831048E-05
3.683752E+03	1.197720E-04	1.810411E-05
3.693654E+03	1.184956E-04	1.790855E-05
3.703557E+03	1.172877E-04	1.772340E-05
3.713460E+03	1.161471E-04	1.754842E-05
3.723362E+03	1.150741E-04	1.738369E-05
3.733265E+03	1.140640E-04	1.722850E-05
3.743167E+03	1.131173E-04	1.708291E-05
3.753070E+03	1.122333E-04	1.694679E-05
3.762972E+03	1.114084E-04	1.681962E-05
3.772875E+03	1.106428E-04	1.670142E-05
3.782777E+03	1.099358E-04	1.659207E-05
3.792680E+03	1.092849E-04	1.649120E-05
3.802583E+03	1.086884E-04	1.639856E-05
3.812485E+03	1.081474E-04	1.631428E-05
3.822388E+03	1.076586E-04	1.623788E-05
3.832290E+03	1.072220E-04	1.616936E-05
3.842193E+03	1.068361E-04	1.610849E-05
3.852095E+03	1.065002E-04	1.605515E-05
3.861998E+03	1.062136E-04	1.600923E-05
3.871900E+03	1.059740E-04	1.597039E-05
3.881803E+03	1.057807E-04	1.593851E-05
3.891706E+03	1.056340E-04	1.591363E-05
3.901608E+03	1.055323E-04	1.589553E-05
3.911511E+03	1.054744E-04	1.588400E-05
3.921413E+03	1.054595E-04	1.587893E-05
3.931316E+03	1.054864E-04	1.588012E-05
3.941218E+03	1.055544E-04	1.588747E-05
3.951121E+03	1.056630E-04	1.590090E-05
3.961024E+03	1.058116E-04	1.592032E-05
3.970926E+03	1.059981E-04	1.594542E-05
3.980829E+03	1.062220E-04	1.597611E-05
3.990731E+03	1.064831E-04	1.601234E-05
4.000634E+03	1.067808E-04	1.605404E-05
4.010536E+03	1.071140E-04	1.610104E-05
4.020439E+03	1.074816E-04	1.615316E-05
4.030341E+03	1.078835E-04	1.621038E-05
4.040244E+03	1.083184E-04	1.627252E-05
4.050147E+03	1.087863E-04	1.633956E-05
4.060049E+03	1.092861E-04	1.641133E-05
4.069952E+03	1.098176E-04	1.648780E-05
4.079854E+03	1.103796E-04	1.656880E-05
4.089757E+03	1.109712E-04	1.665417E-05
4.099659E+03	1.115921E-04	1.674388E-05
4.109562E+03	1.122413E-04	1.683776E-05
4.119464E+03	1.129187E-04	1.693580E-05
4.129367E+03	1.136223E-04	1.703770E-05
4.139270E+03	1.143522E-04	1.714346E-05
4.149172E+03	1.151064E-04	1.725280E-05
4.159075E+03	1.158859E-04	1.736584E-05
4.168977E+03	1.166888E-04	1.748232E-05
4.178880E+03	1.175152E-04	1.760223E-05
4.188782E+03	1.183624E-04	1.772514E-05
4.198685E+03	1.192311E-04	1.785121E-05
4.208587E+03	1.201186E-04	1.797999E-05
4.218490E+03	1.210256E-04	1.811161E-05
4.228393E+03	1.219494E-04	1.824563E-05
4.238295E+03	1.228878E-04	1.838174E-05
4.248198E+03	1.238416E-04	1.852006E-05
4.258100E+03	1.248069E-04	1.866000E-05
4.268003E+03	1.257846E-04	1.880168E-05
4.277905E+03	1.267708E-04	1.894453E-05
4.287808E+03	1.277663E-04	1.908866E-05
4.297711E+03	1.287693E-04	1.923379E-05
4.307613E+03	1.297776E-04	1.937961E-05
4.317516E+03	1.307914E-04	1.952614E-05
4.327418E+03	1.318095E-04	1.967320E-05
4.337321E+03	1.328331E-04	1.982096E-05
4.347223E+03	1.338601E-04	1.996910E-05
4.357126E+03	1.348925E-04	2.011794E-05
4.367028E+03	1.359305E-04	2.026749E-05
4.376931E+03	1.369741E-04	2.041776E-05
4.386834E+03	1.380234E-04	2.056875E-05
4.396736E+03	1.390797E-04	2.072066E-05
4.406639E+03	1.401420E-04	2.087333E-05
4.416541E+03	1.412117E-04	2.102699E-05
4.426444E+03	1.422893E-04	2.118168E-05
4.436346E+03	1.433751E-04	2.133745E-05
4.446249E+03	1.444682E-04	2.149419E-05
4.456151E+03	1.455692E-04	2.165195E-05
4.466054E+03	1.466770E-04	2.181060E-05
4.475957E+03	1.477931E-04	2.197034E-05
4.485859E+03	1.489155E-04	2.213086E-05
4.495762E+03	1.500442E-04	2.229219E-05
4.505664E+03	1.511795E-04	2.245435E-05
4.515567E+03	1.523190E-04	2.261698E-05
4.525469E+03	1.534642E-04	2.278030E-05
4.535372E+03	1.546126E-04	2.294396E-05
4.545274E+03	1.557647E-04	2.310799E-05
4.555177E+03	1.569179E-04	2.327205E-05
4.565080E+03	1.580741E-04	2.343639E-05
4.574982E+03	1.592325E-04	2.360089E-05
4.584885E+03	1.603908E-04	2.376522E-05
4.594787E+03	1.615497E-04	2.392947E-05
4.604690E+03	1.627098E-04	2.409375E-05
4.614592E+03	1.638706E-04	2.425795E-05
4.624495E+03	1.650299E-04	2.442177E-05
4.634398E+03	1.661914E-04	2.458575E-05
4.644300E+03	1.673562E-04	2.475004E-05
4.654203E+03	1.685224E-04	2.491436E-05
4.664105E+03	1.696911E-04	2.507889E-05
4.674008E+03	1.708636E-04	2.524379E-05
4.683910E+03	1.720366E-04	2.540858E-05
4.693813E+03	1.732113E-04	2.557346E-05
4.703715E+03	1.743860E-04	2.573815E-05
4.713618E+03	1.755622E-04	2.590286E-05
4.723521E+03	1.767397E-04	2.606759E-05
4.733423E+03	1.779168E-04	2.623208E-05
4.743326E+03	1.790952E-04	2.639656E-05
4.753228E+03	1.802732E-04	2.656080E-05
4.763131E+03	1.814525E-04	2.672503E-05
4.773033E+03	1.826315E-04	2.688904E-05
4.782936E+03	1.838105E-04	2.705284E-05
4.792838E+03	1.849895E-04	2.721644E-05
4.802741E+03	1.861704E-04	2.738012E-05
4.812644E+03	1.873516E-04	2.754363E-05
4.822546E+03	1.885331E-04	2.770699E-05
4.832449E+03	1.897132E-04	2.786994E-05
4.842351E+03	1.908957E-04	2.803303E-05
4.852254E+03	1.920786E-04	2.819598E-05
4.862156E+03	1.932620E-04	2.835877E-05
4.872059E+03	1.944436E-04	2.852110E-05
4.881961E+03	1.956251E-04	2.868320E-05
4.891864E+03	1.968042E-04	2.884472E-05
4.901767E+03	1.979803E-04	2.900559E-05
4.911669E+03	1.991549E-04	2.916602E-05
4.921572E+03	2.003258E-04	2.932567E-05
4.931474E+03	2.014925E-04	2.948449E-05
4.941377E+03	2.026527E-04	2.964213E-05
4.951279E+03	2.038077E-04	2.979879E-05
4.961182E+03	2.049571E-04	2.995440E-05
4.971085E+03	2.060982E-04	3.010856E-05
4.980987E+03	2.072300E-04	3.026115E-05
4.990890E+03	2.083519E-04	3.041204E-05
5.000792E+03	2.094606E-04	3.056079E-05
5.010695E+03	2.105573E-04	3.070754E-05
5.020597E+03	2.116408E-04	3.085214E-05
5.030500E+03	2.127059E-04	3.099384E-05
5.040402E+03	2.137539E-04	3.113279E-05
5.050305E+03	2.147836E-04	3.126886E-05
5.060208E+03	2.157923E-04	3.140163E-05
5.070110E+03	2.167792E-04	3.153100E-05
5.080013E+03	2.177438E-04	3.165691E-05
5.089915E+03	2.186856E-04	3.177927E-05
5.099818E+03	2.196023E-04	3.189775E-05
5.109720E+03	2.204956E-04	3.201260E-05
5.119623E+03	2.213609E-04	3.212318E-05
5.129525E+03	2.221999E-04	3.222970E-05
5.139428E+03	2.230097E-04	3.233177E-05
5.149331E+03	2.237897E-04	3.242930E-05
5.159233E+03	2.245388E-04	3.252214E-05
5.169136E+03	2.252559E-04	3.261014E-05
5.179038E+03	2.259356E-04	3.269251E-05
5.188941E+03	2.265806E-04	3.276965E-05
5.198843E+03	2.271869E-04	3.284100E-05
5.208746E+03	2.277527E-04	3.290629E-05
5.218648E+03	2.282732E-04	3.296484E-05
5.228551E+03	2.287459E-04	3.301629E-05
5.238454E+03	2.291680E-04	3.306027E-05
5.248356E+03	2.295371E-04	3.309642E-05
5.258259E+03	2.298509E-04	3.312443E-05
5.268161E+03	2.301048E-04	3.314366E-05
5.278064E+03	2.303019E-04	3.315454E-05
5.287966E+03	2.304362E-04	3.315622E-05
5.297869E+03	2.305063E-04	3.314856E-05
5.307772E+03	2.305165E-04	3.313213E-05
5.317674E+03	2.304617E-04	3.310626E-05
5.327577E+03	2.303465E-04	3.307158E-05
5.337479E+03	2.301684E-04	3.302779E-05
5.347382E+03	2.299299E-04	3.297524E-05
5.357284E+03	2.296290E-04	3.291366E-05
5.367187E+03	2.292710E-04	3.284381E-05
5.377089E+03	2.288542E-04	3.276549E-05
5.386992E+03	2.283820E-04	3.267919E-05
5.396895E+03	2.278513E-04	3.258446E-05
5.406797E+03	2.272660E-04	3.248190E-05
5.416700E+03	2.266258E-04	3.237146E-05
5.426602E+03	2.259304E-04	3.225313E-05
5.436505E+03	2.251846E-04	3.212760E-05
5.446407E+03	2.243864E-04	3.199459E-05
5.456310E+03	2.235365E-04	3.185421E-05
5.466212E+03	2.226377E-04	3.170691E-05
5.476115E+03	2.216890E-04	3.155252E-05
5.486018E+03	2.206955E-04	3.139181E-05
5.495920E+03	2.196541E-04	3.122433E-05
5.505823E+03	2.185724E-04	3.105117E-05
5.515725E+03	2.174514E-04	3.087251E-05
5.525628E+03	2.162922E-04	3.068851E-05
5.535530E+03	2.150981E-04	3.049963E-05
5.545433E+03	2.138721E-04	3.030633E-05
5.555335E+03	2.126152E-04	3.010874E-05
5.565238E+03	2.113347E-04	2.990792E-05
5.575141E+03	2.100287E-04	2.970360E-05
5.585043E+03	2.087040E-04	2.949676E-05
5.594946E+03	2.073587E-04	2.928713E-05
5.604848E+03	2.059992E-04	2.907562E-05
5.614751E+03	2.046275E-04	2.886253E-05
5.624653E+03	2.032436E-04	2.864784E-05
5.634556E+03	2.018512E-04	2.843212E-05
5.644459E+03	2.004521E-04	2.821559E-05
5.654361E+03	1.990500E-04	2.799878E-05
5.664264E+03	1.976461E-04	2.778188E-05
5.674166E+03	1.962399E-04	2.756480E-05
5.684069E+03	1.948367E-04	2.734831E-05
5.693971E+03	1.934379E-04	2.713258E-05
5.703874E+03	1.920427E-04	2.691751E-05
5.713776E+03	1.906542E-04	2.670355E-05
5.723679E+03	1.892759E-04	2.649118E-05
5.733582E+03	1.879088E-04	2.628053E-05
5.743484E+03	1.865521E-04	2.607149E-05
5.753387E+03	1.852091E-04	2.586454E-05
5.763289E+03	1.838832E-04	2.566013E-05
5.773192E+03	1.825757E-04	2.545844E-05
5.783094E+03	1.812859E-04	2.525938E-05
5.792997E+03	1.800172E-04	2.506341E-05
5.802899E+03	1.787709E-04	2.487070E-05
5.812802E+03	1.775505E-04	2.468176E-05
5.822705E+03	1.763579E-04	2.449681E-05
5.832607E+03	1.751924E-04	2.431577E-05
5.842510E+03	1.740578E-04	2.413917E-05
5.852412E+03	1.729538E-04	2.396692E-05
5.862315E+03	1.718876E-04	2.380004E-05
5.872217E+03	1.708546E-04	2.363787E-05
5.882120E+03	1.698577E-04	2.348082E-05
5.892022E+03	1.688999E-04	2.332928E-05
5.901925E+03	1.679800E-04	2.318307E-05
5.911828E+03	1.670987E-04	2.304226E-05
5.921730E+03	1.662583E-04	2.290719E-05
5.931633E+03	1.654572E-04	2.277762E-05
5.941535E+03	1.646978E-04	2.265384E-05
5.951438E+03	1.639765E-04	2.253536E-05
5.961340E+03	1.632970E-04	2.242269E-05
5.971243E+03	1.626557E-04	2.231530E-05
5.981146E+03	1.620564E-04	2.221370E-05
5.991048E+03	1.614931E-04	2.211707E-05
6.000951E+03	1.609696E-04	2.202589E-05
6.010853E+03	1.604836E-04	2.193988E-05
6.020756E+03	1.600350E-04	2.185896E-05
6.030658E+03	1.596196E-04	2.178257E-05
6.040561E+03	1.592407E-04	2.171115E-05
6.050463E+03	1.588923E-04	2.164386E-05
6.060366E+03	1.585775E-04	2.158113E-05
6.070269E+03	1.582903E-04	2.152209E-05
6.080171E+03	1.580299E-04	2.146667E-05
6.090074E+03	1.577937E-04	2.141449E-05
6.099976E+03	1.575812E-04	2.136545E-05
6.109879E+03	1.573856E-04	2.131865E-05
6.119781E+03	1.572061E-04	2.127397E-05
6.129684E+03	1.570400E-04	2.123102E-05
6.139586E+03	1.568861E-04	2.118966E-05
6.149489E+03	1.567437E-04	2.114976E-05
6.159392E+03	1.566156E-04	2.111172E-05
6.169294E+03	1.565069E-04	2.107622E-05
6.179197E+03	1.564189E-04	2.104340E-05
6.189099E+03	1.563546E-04	2.101369E-05
6.199002E+03	1.563174E-04	2.098751E-05
6.208904E+03	1.563087E-04	2.096504E-05
6.218807E+03	1.563319E-04	2.094674E-05
6.228709E+03	1.563885E-04	2.093278E-05
6.238612E+03	1.564801E-04	2.092338E-05
6.248515E+03	1.566105E-04	2.091901E-05
6.258417E+03	1.567794E-04	2.091962E-05
6.268320E+03	1.569907E-04	2.092573E-05
6.278222E+03	1.572422E-04	2.093700E-05
6.288125E+03	1.575358E-04	2.095368E-05
6.298027E+03	1.578713E-04	2.097573E-05
6.307930E+03	1.582509E-04	2.100342E-05
6.317833E+03	1.586725E-04	2.103643E-05
6.327735E+03	1.591358E-04	2.107474E-05
6.337638E+03	1.596386E-04	2.111802E-05
6.347540E+03	1.601764E-04	2.116564E-05
6.357443E+03	1.607466E-04	2.121726E-05
6.367345E+03	1.613490E-04	2.127283E-05
6.377248E+03	1.619834E-04	2.133233E-05
6.387150E+03	1.626498E-04	2.139572E-05
6.397053E+03	1.633505E-04	2.146328E-05
6.406956E+03	1.640879E-04	2.153533E-05
6.416858E+03	1.648622E-04	2.161185E-05
6.426761E+03	1.656708E-04	2.169251E-05
6.436663E+03	1.665188E-04	2.177796E-05
6.446566E+03	1.674067E-04	2.186821E-05
6.456468E+03	1.683319E-04	2.196293E-05
6.466371E+03	1.692972E-04	2.206247E-05
6.476273E+03	1.703030E-04	2.216684E-05
6.486176E+03	1.713469E-04	2.227571E-05
6.496079E+03	1.724291E-04	2.238909E-05
6.505981E+03	1.735553E-04	2.250771E-05
6.515884E+03	1.747177E-04	2.263052E-05
6.525786E+03	1.759221E-04	2.275825E-05
6.535689E+03	1.771688E-04	2.289094E-05
6.545591E+03	1.784526E-04	2.302785E-05
6.555494E+03	1.797794E-04	2.316977E-05
6.565396E+03	1.811439E-04	2.331596E-05
6.575299E+03	1.825522E-04	2.346719E-05
6.585202E+03	1.839987E-04	2.362272E-05
6.595104E+03	1.854867E-04	2.378296E-05
6.605007E+03	1.870165E-04	2.394792E-05
6.614909E+03	1.885855E-04	2.411721E-05
6.624812E+03	1.901937E-04	2.429086E-05
6.634714E+03	1.918448E-04	2.446928E-05
6.644617E+03	1.935359E-04	2.465209E-05
6.654520E+03	1.952672E-04	2.483930E-05
6.664422E+03	1.970392E-04	2.503092E-05
6.674325E+03	1.988520E-04	2.522698E-05
6.684227E+03	2.007063E-04	2.542750E-05
6.694130E+03	2.026023E-04	2.563251E-05
6.704032E+03	2.045369E-04	2.584158E-05
6.713935E+03	2.065139E-04	2.605517E-05
6.723837E+03	2.085339E-04	2.627333E-05
6.733740E+03	2.105935E-04	2.649559E-05
6.743643E+03	2.126967E-04	2.672245E-05
6.753545E+03	2.148402E-04	2.695345E-05
6.763448E+03	2.170241E-04	2.718861E-05
6.773350E+03	2.192489E-04	2.742792E-05
6.783253E+03	2.215148E-04	2.767140E-05
6.793155E+03	2.238265E-04	2.791960E-05
6.803058E+03	2.261756E-04	2.817148E-05
6.812960E+03	2.285667E-04	2.842754E-05
6.822863E+03	2.310004E-04	2.868786E-05
6.832766E+03	2.334725E-04	2.895186E-05
6.842668E+03	2.359876E-04	2.922013E-05
6.852571E+03	2.385460E-04	2.949263E-05
6.862473E+03	2.411438E-04	2.976887E-05
6.872376E+03	2.437807E-04	3.004881E-05
6.882278E+03	2.464620E-04	3.033302E-05
6.892181E+03	2.491829E-04	3.062093E-05
6.902083E+03	2.519435E-04	3.091251E-05
6.911986E+03	2.547443E-04	3.120778E-05
6.921889E+03	2.575848E-04	3.150667E-05
6.931791E+03	2.604603E-04	3.180857E-05
6.941694E+03	2.633806E-04	3.211466E-05
6.951596E+03	2.663358E-04	3.242368E-05
6.961499E+03	2.693309E-04	3.273624E-05
6.971401E+03	2.723606E-04	3.305164E-05
6.981304E+03	2.754245E-04	3.336984E-05
6.991207E+03	2.785280E-04	3.369144E-05
7.001109E+03	2.816656E-04	3.401577E-05
7.011012E+03	2.848310E-04	3.434202E-05
7.020914E+03	2.880355E-04	3.467155E-05
7.030817E+03	2.912730E-04	3.500361E-05
7.040719E+03	2.945374E-04	3.533741E-05
7.050622E+03	2.978340E-04	3.567358E-05
7.060524E+03	3.011560E-04	3.601130E-05
7.070427E+03	3.045096E-04	3.635126E-05
7.080330E+03	3.078874E-04	3.669259E-05
7.090232E+03	3.112956E-04	3.703596E-05
7.100135E+03	3.147205E-04	3.737977E-05
7.110037E+03	3.181676E-04	3.772464E-05
7.119940E+03	3.216430E-04	3.807126E-05
7.129842E+03	3.251327E-04	3.841798E-05
7.139745E+03	3.286354E-04	3.876462E-05
7.149647E+03	3.321572E-04	3.911188E-05
7.159550E+03	3.356974E-04	3.945967E-05
7.169453E+03	3.392478E-04	3.980702E-05
7.179355E+03	3.428146E-04	4.015466E-05
7.189258E+03	3.463898E-04	4.050160E-05
7.199160E+03	3.499717E-04	4.084766E-05
7.209063E+03	3.535666E-04	4.119356E-05
7.218965E+03	3.571654E-04	4.153825E-05
7.228868E+03	3.607743E-04	4.188242E-05
7.238770E+03	3.643841E-04	4.222500E-05
7.248673E+03	3.679922E-04	4.256570E-05
7.258576E+03	3.716134E-04	4.290623E-05
7.268478E+03	3.752295E-04	4.324447E-05
7.278381E+03	3.788551E-04	4.358210E-05
7.288283E+03	3.824806E-04	4.391802E-05
7.298186E+03	3.861126E-04	4.425299E-05
7.308088E+03	3.897593E-04	4.458794E-05
7.317991E+03	3.934112E-04	4.492176E-05
7.327894E+03	3.970853E-04	4.525640E-05
7.337796E+03	4.007816E-04	4.559185E-05
7.347699E+03	4.045099E-04	4.592921E-05
7.357601E+03	4.082707E-04	4.626849E-05
7.367504E+03	4.120645E-04	4.660977E-05
7.377406E+03	4.159021E-04	4.695421E-05
7.387309E+03	4.197654E-04	4.729976E-05
7.397211E+03	4.236549E-04	4.764647E-05
7.407114E+03	4.275614E-04	4.799328E-05
7.417017E+03	4.314957E-04	4.834140E-05
7.426919E+03	4.354485E-04	4.868976E-05
7.436822E+03	4.394105E-04	4.903733E-05
7.446724E+03	4.433817E-04	4.938411E-05
7.456627E+03	4.473630E-04	4.973018E-05
7.466529E+03	4.513437E-04	5.007437E-05
7.476432E+03	4.553356E-04	5.041798E-05
7.486334E+03	4.593180E-04	5.075872E-05
7.496237E+03	4.633141E-04	5.109916E-05
7.506140E+03	4.673140E-04	5.143821E-05
7.516042E+03	4.713196E-04	5.177608E-05
7.525945E+03	4.753204E-04	5.211164E-05
7.535847E+03	4.793282E-04	5.244616E-05
7.545750E+03	4.833433E-04	5.277970E-05
7.555652E+03	4.873657E-04	5.311224E-05
7.565555E+03	4.913816E-04	5.344231E-05
7.575457E+03	4.954015E-04	5.377102E-05
7.585360E+03	4.994107E-04	5.409681E-05
7.595263E+03	5.034308E-04	5.442202E-05
7.605165E+03	5.074202E-04	5.474213E-05
7.615068E+03	5.114130E-04	5.506088E-05
7.624970E+03	5.153924E-04	5.537644E-05
7.634873E+03	5.193406E-04	5.568693E-05
7.644775E+03	5.232663E-04	5.599329E-05
7.654678E+03	5.271643E-04	5.629498E-05
7.664581E+03	5.310294E-04	5.659150E-05
7.674483E+03	5.348560E-04	5.688226E-05
7.684386E+03	5.386524E-04	5.716819E-05
