#wls	flux	fluxerr
1.584409E+03	-1.240627E+02	-2.665338E+02
1.624020E+03	-1.205340E+02	-2.590504E+02
1.663630E+03	-1.167053E+02	-2.509165E+02
1.703240E+03	-1.125959E+02	-2.421729E+02
1.742850E+03	-1.082162E+02	-2.328410E+02
1.782461E+03	-1.035002E+02	-2.227789E+02
1.822071E+03	-9.856206E+01	-2.122307E+02
1.861681E+03	-9.344083E+01	-2.012802E+02
1.901291E+03	-8.816771E+01	-1.899941E+02
1.940902E+03	-8.271036E+01	-1.783026E+02
1.980512E+03	-7.717934E+01	-1.664434E+02
2.020122E+03	-7.160796E+01	-1.544880E+02
2.059732E+03	-6.603384E+01	-1.425174E+02
2.099342E+03	-6.047609E+01	-1.305733E+02
2.138953E+03	-5.499969E+01	-1.187957E+02
2.178563E+03	-4.964110E+01	-1.072634E+02
2.218173E+03	-4.443314E+01	-9.604783E+01
2.257783E+03	-3.939175E+01	-8.518386E+01
2.297394E+03	-3.460700E+01	-7.486657E+01
2.337004E+03	-3.013850E+01	-6.522558E+01
2.376614E+03	-2.601976E+01	-5.633421E+01
2.416224E+03	-2.227239E+01	-4.824030E+01
2.455835E+03	-1.889544E+01	-4.094253E+01
2.495445E+03	-1.588425E+01	-3.443176E+01
2.535055E+03	-1.322640E+01	-2.868202E+01
2.574665E+03	-1.091499E+01	-2.367929E+01
2.614276E+03	-8.917043E+00	-1.935282E+01
2.653886E+03	-7.208946E+00	-1.565213E+01
2.693496E+03	-5.765145E+00	-1.252248E+01
2.733106E+03	-4.567524E+00	-9.925269E+00
2.772716E+03	-3.577784E+00	-7.777811E+00
2.812327E+03	-2.769984E+00	-6.024245E+00
2.851937E+03	-2.119392E+00	-4.611258E+00
2.891547E+03	-1.607099E+00	-3.498135E+00
2.931157E+03	-1.205099E+00	-2.624235E+00
2.970768E+03	-8.940342E-01	-1.947695E+00
2.980670E+03	-8.283865E-01	-1.804872E+00
2.990573E+03	-7.675177E-01	-1.672435E+00
3.000475E+03	-7.107015E-01	-1.548800E+00
3.010378E+03	-6.577038E-01	-1.433461E+00
3.020280E+03	-6.083010E-01	-1.325932E+00
3.030183E+03	-5.624743E-01	-1.226177E+00
3.040086E+03	-5.198027E-01	-1.133278E+00
3.049988E+03	-4.801156E-01	-1.046867E+00
3.059891E+03	-4.432176E-01	-9.665192E-01
3.069793E+03	-4.090918E-01	-8.922001E-01
3.079696E+03	-3.774032E-01	-8.231806E-01
3.089598E+03	-3.480015E-01	-7.591345E-01
3.099501E+03	-3.207372E-01	-6.997375E-01
3.109403E+03	-2.955923E-01	-6.449519E-01
3.119306E+03	-2.723014E-01	-5.941999E-01
3.129209E+03	-2.507350E-01	-5.472000E-01
3.139111E+03	-2.307855E-01	-5.037189E-01
3.149014E+03	-2.124372E-01	-4.637236E-01
3.158916E+03	-1.954775E-01	-4.267509E-01
3.168819E+03	-1.798088E-01	-3.925885E-01
3.178721E+03	-1.653398E-01	-3.610380E-01
3.188624E+03	-1.520683E-01	-3.320958E-01
3.198526E+03	-1.398218E-01	-3.053860E-01
3.208429E+03	-1.285236E-01	-2.807415E-01
3.218332E+03	-1.181103E-01	-2.580244E-01
3.228234E+03	-1.085758E-01	-2.372226E-01
3.238137E+03	-9.979075E-02	-2.180535E-01
3.248039E+03	-9.169541E-02	-2.003873E-01
3.257942E+03	-8.423891E-02	-1.841134E-01
3.267844E+03	-7.742694E-02	-1.692447E-01
3.277747E+03	-7.115166E-02	-1.555458E-01
3.287650E+03	-6.537377E-02	-1.429313E-01
3.297552E+03	-6.005451E-02	-1.313166E-01
3.307455E+03	-5.520069E-02	-1.207173E-01
3.317357E+03	-5.073050E-02	-1.109545E-01
3.327260E+03	-4.661393E-02	-1.019630E-01
3.337162E+03	-4.282379E-02	-9.368346E-02
3.347065E+03	-3.936875E-02	-8.613525E-02
3.356967E+03	-3.618637E-02	-7.918188E-02
3.366870E+03	-3.325416E-02	-7.277435E-02
3.376773E+03	-3.055238E-02	-6.686962E-02
3.386675E+03	-2.809243E-02	-6.149293E-02
3.396578E+03	-2.582379E-02	-5.653376E-02
3.406480E+03	-2.373203E-02	-5.196069E-02
3.416383E+03	-2.180287E-02	-4.774259E-02
3.426285E+03	-2.004704E-02	-4.390310E-02
3.436188E+03	-1.842635E-02	-4.035867E-02
3.446090E+03	-1.692960E-02	-3.708489E-02
3.455993E+03	-1.554718E-02	-3.406078E-02
3.465896E+03	-1.429027E-02	-3.131100E-02
3.475798E+03	-1.312774E-02	-2.876733E-02
3.485701E+03	-1.205241E-02	-2.641416E-02
3.495603E+03	-1.105728E-02	-2.423621E-02
3.505506E+03	-1.015299E-02	-2.225689E-02
3.515408E+03	-9.315095E-03	-2.042264E-02
3.525311E+03	-8.538335E-03	-1.872198E-02
3.535213E+03	-7.818030E-03	-1.714470E-02
3.545116E+03	-7.164180E-03	-1.571281E-02
3.555019E+03	-6.557144E-03	-1.438324E-02
3.564921E+03	-5.993442E-03	-1.314841E-02
3.574824E+03	-5.469840E-03	-1.200125E-02
3.584726E+03	-4.995653E-03	-1.096224E-02
3.594629E+03	-4.554845E-03	-9.996231E-03
3.604531E+03	-4.144984E-03	-9.097899E-03
3.614434E+03	-3.764022E-03	-8.262776E-03
3.624337E+03	-3.420242E-03	-7.509082E-03
3.634239E+03	-3.100461E-03	-6.807892E-03
3.644142E+03	-2.803040E-03	-6.155622E-03
3.654044E+03	-2.526453E-03	-5.548943E-03
3.663947E+03	-2.278177E-03	-5.004302E-03
3.673849E+03	-2.047203E-03	-4.497532E-03
3.683752E+03	-1.832318E-03	-4.025977E-03
3.693654E+03	-1.632488E-03	-3.587381E-03
3.703557E+03	-1.454289E-03	-3.196217E-03
3.713460E+03	-1.288469E-03	-2.832157E-03
3.723362E+03	-1.134207E-03	-2.493410E-03
3.733265E+03	-9.907123E-04	-2.178247E-03
3.743167E+03	-8.638596E-04	-1.899597E-03
3.753070E+03	-7.458092E-04	-1.640231E-03
3.762972E+03	-6.359857E-04	-1.398890E-03
3.772875E+03	-5.338477E-04	-1.174390E-03
3.782777E+03	-4.445785E-04	-9.781452E-04
3.792680E+03	-3.615262E-04	-7.955263E-04
3.802583E+03	-2.842917E-04	-6.256606E-04
3.812485E+03	-2.125009E-04	-4.677301E-04
3.822388E+03	-1.507464E-04	-3.318502E-04
3.832290E+03	-9.334178E-05	-2.055096E-04
3.842193E+03	-4.001298E-05	-8.810849E-05
3.852095E+03	9.494138E-06	2.090900E-05
3.861998E+03	5.111011E-05	1.125761E-04
3.871900E+03	8.972340E-05	1.976547E-04
3.881803E+03	1.255168E-04	2.765444E-04
3.891706E+03	1.586609E-04	3.496189E-04
3.901608E+03	1.855432E-04	4.089148E-04
3.911511E+03	2.103882E-04	4.637375E-04
3.921413E+03	2.333185E-04	5.143548E-04
3.931316E+03	2.544393E-04	5.609976E-04
3.941218E+03	2.705429E-04	5.965911E-04
3.951121E+03	2.853008E-04	6.292275E-04
3.961024E+03	2.987872E-04	6.590687E-04
3.970926E+03	3.110718E-04	6.862675E-04
3.980829E+03	3.192930E-04	7.045102E-04
3.990731E+03	3.266631E-04	7.208801E-04
4.000634E+03	3.332233E-04	7.354676E-04
4.010536E+03	3.390147E-04	7.483624E-04
4.020439E+03	3.414938E-04	7.539500E-04
4.030341E+03	3.434702E-04	7.584294E-04
4.040244E+03	3.449701E-04	7.618579E-04
4.050147E+03	3.460109E-04	7.642734E-04
4.060049E+03	3.444233E-04	7.608848E-04
4.069952E+03	3.425824E-04	7.569359E-04
4.079854E+03	3.404944E-04	7.524396E-04
4.089757E+03	3.381730E-04	7.474261E-04
4.099659E+03	3.338268E-04	7.379370E-04
4.109562E+03	3.293954E-04	7.282568E-04
4.119464E+03	3.248825E-04	7.183934E-04
4.129367E+03	3.202866E-04	7.083431E-04
4.139270E+03	3.141331E-04	6.948463E-04
4.149172E+03	3.080063E-04	6.814043E-04
4.159075E+03	3.019099E-04	6.680253E-04
4.168977E+03	2.958361E-04	6.546921E-04
4.178880E+03	2.885633E-04	6.387023E-04
4.188782E+03	2.813975E-04	6.229444E-04
4.198685E+03	2.743360E-04	6.074120E-04
4.208587E+03	2.673696E-04	5.920854E-04
4.218490E+03	2.594894E-04	5.747314E-04
4.228393E+03	2.517691E-04	5.577258E-04
4.238295E+03	2.442013E-04	5.410524E-04
4.248198E+03	2.367825E-04	5.247038E-04
4.258100E+03	2.286741E-04	5.068226E-04
4.268003E+03	2.207593E-04	4.893645E-04
4.277905E+03	2.130323E-04	4.723170E-04
4.287808E+03	2.054884E-04	4.556696E-04
4.297711E+03	1.974330E-04	4.378833E-04
4.307613E+03	1.895972E-04	4.205780E-04
4.317516E+03	1.819771E-04	4.037453E-04
4.327418E+03	1.745672E-04	3.873731E-04
4.337321E+03	1.667919E-04	3.701854E-04
4.347223E+03	1.592578E-04	3.535270E-04
4.357126E+03	1.519589E-04	3.373851E-04
4.367028E+03	1.448907E-04	3.217495E-04
4.376931E+03	1.375753E-04	3.055603E-04
4.386834E+03	1.305125E-04	2.899265E-04
4.396736E+03	1.236961E-04	2.748341E-04
4.406639E+03	1.171219E-04	2.602749E-04
4.416541E+03	1.103861E-04	2.453518E-04
4.426444E+03	1.039062E-04	2.309919E-04
4.436346E+03	9.767716E-05	2.171845E-04
4.446249E+03	9.169232E-05	2.039152E-04
4.456151E+03	8.561245E-05	1.904301E-04
4.466054E+03	7.978709E-05	1.775061E-04
4.475957E+03	7.421070E-05	1.651313E-04
4.485859E+03	6.887859E-05	1.532954E-04
4.495762E+03	6.350143E-05	1.413552E-04
4.505664E+03	5.837398E-05	1.299664E-04
4.515567E+03	5.349135E-05	1.191183E-04
4.525469E+03	4.884821E-05	1.087996E-04
4.535372E+03	4.419903E-05	9.846368E-05
4.545274E+03	3.979206E-05	8.866340E-05
4.555177E+03	3.562202E-05	7.938736E-05
4.565080E+03	3.168371E-05	7.062422E-05
4.574982E+03	2.776890E-05	6.191019E-05
4.584885E+03	2.408623E-05	5.371039E-05
4.594787E+03	2.063072E-05	4.601399E-05
4.604690E+03	1.739713E-05	3.880960E-05
4.614592E+03	1.420799E-05	3.170160E-05
4.624495E+03	1.123939E-05	2.508294E-05
4.634398E+03	8.486128E-06	1.894229E-05
4.644300E+03	5.942988E-06	1.326830E-05
4.654203E+03	3.459267E-06	7.724718E-06
4.664105E+03	1.183003E-06	2.642241E-06
4.674008E+03	-8.910278E-07	-1.990519E-06
4.683910E+03	-2.768074E-06	-6.185021E-06
4.693813E+03	-4.575865E-06	-1.022648E-05
4.703715E+03	-6.190264E-06	-1.383730E-05
4.713618E+03	-7.616378E-06	-1.702864E-05
4.723521E+03	-8.859238E-06	-1.981150E-05
4.733423E+03	-1.002616E-05	-2.242570E-05
4.743326E+03	-1.101369E-05	-2.463964E-05
4.753228E+03	-1.182659E-05	-2.646375E-05
4.763131E+03	-1.246945E-05	-2.790808E-05
4.773033E+03	-1.303177E-05	-2.917273E-05
4.782936E+03	-1.342792E-05	-3.006588E-05
4.792838E+03	-1.366231E-05	-3.059713E-05
4.802741E+03	-1.373928E-05	-3.077598E-05
4.812644E+03	-1.373197E-05	-3.076613E-05
4.822546E+03	-1.357074E-05	-3.041134E-05
4.832449E+03	-1.325931E-05	-2.971977E-05
4.842351E+03	-1.280162E-05	-2.869999E-05
4.852254E+03	-1.225659E-05	-2.748396E-05
4.862156E+03	-1.156821E-05	-2.594591E-05
4.872059E+03	-1.074000E-05	-2.409350E-05
4.881961E+03	-9.775206E-06	-2.193385E-05
4.891864E+03	-8.719766E-06	-1.956985E-05
4.901767E+03	-7.529900E-06	-1.690307E-05
4.911669E+03	-6.208637E-06	-1.394012E-05
4.921572E+03	-4.758936E-06	-1.068745E-05
4.931474E+03	-3.214786E-06	-7.221224E-06
4.941377E+03	-1.543388E-06	-3.467594E-06
4.951279E+03	2.526960E-07	5.678664E-07
4.961182E+03	2.170992E-06	4.879785E-06
4.971085E+03	4.188002E-06	9.415523E-06
4.980987E+03	6.326717E-06	1.422693E-05
4.990890E+03	8.585095E-06	1.930959E-05
5.000792E+03	1.096081E-05	2.465846E-05
5.010695E+03	1.343968E-05	3.024182E-05
5.020597E+03	1.603615E-05	3.609232E-05
5.030500E+03	1.874788E-05	4.220487E-05
5.040402E+03	2.157347E-05	4.857653E-05
5.050305E+03	2.450615E-05	5.519220E-05
5.060208E+03	2.755267E-05	6.206727E-05
5.070110E+03	3.071157E-05	6.919862E-05
5.080013E+03	3.398061E-05	7.658135E-05
5.089915E+03	3.735987E-05	8.421585E-05
5.099818E+03	4.084990E-05	9.210353E-05
5.109720E+03	4.444868E-05	1.002400E-04
5.119623E+03	4.815450E-05	1.086215E-04
5.129525E+03	5.197229E-05	1.172595E-04
5.139428E+03	5.589733E-05	1.261434E-04
5.149331E+03	5.992681E-05	1.352670E-04
5.159233E+03	6.406004E-05	1.446290E-04
5.169136E+03	6.830582E-05	1.542493E-04
5.179038E+03	7.265393E-05	1.641052E-04
5.188941E+03	7.710234E-05	1.741921E-04
5.198843E+03	8.164984E-05	1.845075E-04
5.208746E+03	8.630648E-05	1.950742E-04
5.218648E+03	9.106022E-05	2.058652E-04
5.228551E+03	9.590972E-05	2.168777E-04
5.238454E+03	1.008498E-04	2.281000E-04
5.248356E+03	1.058956E-04	2.395665E-04
5.258259E+03	1.110292E-04	2.512371E-04
5.268161E+03	1.162509E-04	2.631123E-04
5.278064E+03	1.215541E-04	2.751774E-04
5.285807E+03	3.157202E-03	7.148624E-03
5.286401E+03	3.154971E-03	7.143668E-03
5.286797E+03	3.150291E-03	7.133135E-03
5.286995E+03	3.143180E-03	7.117066E-03
5.287589E+03	3.140584E-03	7.111285E-03
5.288975E+03	3.146809E-03	7.125607E-03
5.289769E+03	3.146515E-03	7.125070E-03
5.290363E+03	3.143454E-03	7.118236E-03
5.290759E+03	3.138205E-03	7.106413E-03
5.291155E+03	3.133069E-03	7.094848E-03
5.291353E+03	3.125539E-03	7.077829E-03
5.291749E+03	3.119943E-03	7.065220E-03
5.292145E+03	3.114273E-03	7.052444E-03
5.293532E+03	3.119721E-03	7.065005E-03
5.293928E+03	3.114102E-03	7.052344E-03
5.294324E+03	3.108455E-03	7.039619E-03
5.294721E+03	3.102466E-03	7.026121E-03
5.295909E+03	3.105324E-03	7.032784E-03
5.297098E+03	3.108287E-03	7.039686E-03
5.297493E+03	3.102280E-03	7.026144E-03
5.297691E+03	3.094136E-03	7.007731E-03
5.298087E+03	3.088423E-03	6.994855E-03
5.299671E+03	3.095328E-03	7.010749E-03
5.300464E+03	3.093211E-03	7.006080E-03
5.300662E+03	3.084365E-03	6.986078E-03
5.300861E+03	3.075554E-03	6.966152E-03
5.301059E+03	3.066823E-03	6.946407E-03
5.303039E+03	3.077168E-03	6.970154E-03
5.303237E+03	3.068435E-03	6.950406E-03
5.303435E+03	3.059882E-03	6.931062E-03
5.304425E+03	3.059385E-03	6.930094E-03
5.304822E+03	3.052195E-03	6.913869E-03
5.305020E+03	3.043079E-03	6.893251E-03
5.306407E+03	3.046255E-03	6.900665E-03
5.307001E+03	3.040826E-03	6.888459E-03
5.307199E+03	3.031508E-03	6.867383E-03
5.307397E+03	3.022029E-03	6.845941E-03
5.307595E+03	3.012342E-03	6.824028E-03
5.307793E+03	3.002786E-03	6.802410E-03
5.308586E+03	2.999470E-03	6.795022E-03
5.309378E+03	2.996046E-03	6.787388E-03
5.309575E+03	2.986387E-03	6.765536E-03
5.310566E+03	2.984747E-03	6.761975E-03
5.310764E+03	2.974839E-03	6.739559E-03
5.311358E+03	2.968867E-03	6.726121E-03
5.311754E+03	2.960809E-03	6.707925E-03
5.311952E+03	2.950683E-03	6.685014E-03
5.312547E+03	2.944447E-03	6.670978E-03
5.313537E+03	2.942007E-03	6.665601E-03
5.314527E+03	2.939448E-03	6.659954E-03
5.315319E+03	2.934752E-03	6.649433E-03
5.316112E+03	2.929999E-03	6.638786E-03
5.317697E+03	2.932991E-03	6.645806E-03
5.317895E+03	2.922268E-03	6.621538E-03
5.318093E+03	2.911527E-03	6.597232E-03
5.318291E+03	2.900821E-03	6.573001E-03
5.318885E+03	2.893920E-03	6.557453E-03
5.319083E+03	2.883164E-03	6.533112E-03
5.320073E+03	2.879976E-03	6.526036E-03
5.320272E+03	2.869104E-03	6.501429E-03
5.320865E+03	2.862016E-03	6.485456E-03
5.321658E+03	2.856775E-03	6.473697E-03
5.322450E+03	2.851408E-03	6.461652E-03
5.323044E+03	2.844118E-03	6.445220E-03
5.323242E+03	2.833183E-03	6.420469E-03
5.323440E+03	2.821875E-03	6.394871E-03
5.323638E+03	2.810600E-03	6.369350E-03
5.323836E+03	2.799001E-03	6.343092E-03
5.324233E+03	2.789252E-03	6.321056E-03
5.324629E+03	2.779419E-03	6.298830E-03
5.324827E+03	2.767752E-03	6.272418E-03
5.325421E+03	2.759702E-03	6.254259E-03
5.327798E+03	2.767611E-03	6.272526E-03
5.327997E+03	2.755832E-03	6.245858E-03
5.328195E+03	2.743983E-03	6.219032E-03
5.328393E+03	2.732117E-03	6.192167E-03
5.328789E+03	2.721933E-03	6.169141E-03
5.328987E+03	2.710025E-03	6.142180E-03
5.329185E+03	2.698099E-03	6.115178E-03
5.330373E+03	2.694682E-03	6.107599E-03
5.331561E+03	2.691320E-03	6.100144E-03
5.331760E+03	2.679317E-03	6.072967E-03
5.332553E+03	2.672342E-03	6.057268E-03
5.332751E+03	2.660112E-03	6.029573E-03
5.333741E+03	2.654445E-03	6.016865E-03
5.334136E+03	2.643602E-03	5.992341E-03
5.334334E+03	2.631329E-03	5.964548E-03
5.335126E+03	2.623964E-03	5.947962E-03
5.335324E+03	2.611309E-03	5.919304E-03
5.335919E+03	2.602404E-03	5.899196E-03
5.336117E+03	2.589963E-03	5.871023E-03
5.336315E+03	2.577505E-03	5.842808E-03
5.336513E+03	2.565189E-03	5.814916E-03
5.336909E+03	2.554145E-03	5.789933E-03
5.337504E+03	2.544458E-03	5.768054E-03
5.337702E+03	2.532064E-03	5.739983E-03
5.337900E+03	2.519169E-03	5.710778E-03
5.338098E+03	2.506258E-03	5.681534E-03
5.338692E+03	2.496565E-03	5.659638E-03
5.339286E+03	2.486981E-03	5.637988E-03
5.339484E+03	2.473978E-03	5.608537E-03
5.340079E+03	2.464092E-03	5.586200E-03
5.340277E+03	2.451252E-03	5.557117E-03
5.340673E+03	2.439971E-03	5.531591E-03
5.340871E+03	2.427032E-03	5.502284E-03
5.341069E+03	2.413914E-03	5.472569E-03
5.341861E+03	2.405481E-03	5.453550E-03
5.342059E+03	2.392789E-03	5.424799E-03
5.342258E+03	2.379869E-03	5.395532E-03
5.342654E+03	2.368122E-03	5.368950E-03
5.343645E+03	2.360614E-03	5.352048E-03
5.344437E+03	2.351946E-03	5.332492E-03
5.344635E+03	2.338712E-03	5.302511E-03
5.345031E+03	2.327225E-03	5.276517E-03
5.345624E+03	2.317124E-03	5.253685E-03
5.345823E+03	2.303597E-03	5.223039E-03
5.346218E+03	2.291502E-03	5.195662E-03
5.346416E+03	2.278088E-03	5.165272E-03
5.347010E+03	2.267219E-03	5.140697E-03
5.347208E+03	2.253585E-03	5.109808E-03
5.348398E+03	2.246863E-03	5.094704E-03
5.348596E+03	2.233147E-03	5.063627E-03
5.348992E+03	2.221159E-03	5.036489E-03
5.349586E+03	2.210091E-03	5.011462E-03
5.349784E+03	2.196461E-03	4.980577E-03
5.350972E+03	2.189463E-03	4.964844E-03
5.351170E+03	2.175918E-03	4.934152E-03
5.351369E+03	2.162412E-03	4.903547E-03
5.351567E+03	2.148552E-03	4.872140E-03
5.351765E+03	2.134786E-03	4.840946E-03
5.351963E+03	2.120889E-03	4.809455E-03
5.352161E+03	2.107480E-03	4.779068E-03
5.352359E+03	2.094052E-03	4.748641E-03
5.352557E+03	2.080383E-03	4.717664E-03
5.352954E+03	2.067727E-03	4.689007E-03
5.353350E+03	2.055253E-03	4.660763E-03
5.353548E+03	2.041680E-03	4.630004E-03
5.353746E+03	2.027752E-03	4.598439E-03
5.354538E+03	2.017619E-03	4.575543E-03
5.354736E+03	2.003796E-03	4.544217E-03
5.354934E+03	1.989956E-03	4.512850E-03
5.355132E+03	1.976154E-03	4.481571E-03
5.355727E+03	1.964808E-03	4.455900E-03
5.356321E+03	1.953350E-03	4.429977E-03
5.356519E+03	1.939402E-03	4.398364E-03
5.356717E+03	1.925551E-03	4.366970E-03
5.356915E+03	1.911738E-03	4.335663E-03
5.357706E+03	1.901137E-03	4.311700E-03
5.357905E+03	1.887211E-03	4.280135E-03
5.358104E+03	1.873781E-03	4.249695E-03
5.359490E+03	1.866811E-03	4.234023E-03
5.360282E+03	1.856191E-03	4.210012E-03
5.360480E+03	1.842337E-03	4.178609E-03
5.360678E+03	1.828236E-03	4.146646E-03
5.362658E+03	1.823973E-03	4.137164E-03
5.362856E+03	1.810103E-03	4.105723E-03
5.363055E+03	1.796158E-03	4.074111E-03
5.364046E+03	1.786461E-03	4.052209E-03
5.364244E+03	1.772563E-03	4.020701E-03
5.364838E+03	1.760538E-03	3.993480E-03
5.365432E+03	1.748518E-03	3.966270E-03
5.365630E+03	1.734416E-03	3.934298E-03
5.366026E+03	1.721653E-03	3.905383E-03
5.366422E+03	1.708857E-03	3.876391E-03
5.366620E+03	1.695094E-03	3.845188E-03
5.366819E+03	1.681021E-03	3.813282E-03
5.367611E+03	1.669792E-03	3.787878E-03
5.367809E+03	1.655951E-03	3.756498E-03
5.368007E+03	1.642034E-03	3.724945E-03
5.368205E+03	1.627984E-03	3.693088E-03
5.369789E+03	1.620550E-03	3.676358E-03
5.369987E+03	1.606817E-03	3.645221E-03
5.370780E+03	1.595539E-03	3.619700E-03
5.370978E+03	1.581688E-03	3.588295E-03
5.371572E+03	1.569573E-03	3.560858E-03
5.371770E+03	1.555493E-03	3.528930E-03
5.372562E+03	1.544121E-03	3.503196E-03
5.372760E+03	1.530220E-03	3.471673E-03
5.372958E+03	1.516301E-03	3.440110E-03
5.373156E+03	1.502484E-03	3.408779E-03
5.373354E+03	1.488830E-03	3.377817E-03
5.373552E+03	1.475160E-03	3.346818E-03
5.373750E+03	1.461354E-03	3.315508E-03
5.373949E+03	1.447594E-03	3.284306E-03
5.374147E+03	1.433933E-03	3.253327E-03
5.375138E+03	1.423634E-03	3.230034E-03
5.375336E+03	1.409848E-03	3.198768E-03
5.375534E+03	1.396224E-03	3.167873E-03
5.375732E+03	1.382585E-03	3.136941E-03
5.376128E+03	1.369832E-03	3.108034E-03
5.376722E+03	1.357880E-03	3.080959E-03
5.377316E+03	1.345941E-03	3.053910E-03
5.377514E+03	1.332315E-03	3.023009E-03
5.378306E+03	1.321107E-03	2.997630E-03
5.378901E+03	1.309213E-03	2.970683E-03
5.379099E+03	1.295741E-03	2.940129E-03
5.379298E+03	1.282197E-03	2.909409E-03
5.379892E+03	1.270192E-03	2.882208E-03
5.380882E+03	1.259804E-03	2.858702E-03
5.381080E+03	1.246526E-03	2.828585E-03
5.381278E+03	1.233416E-03	2.798849E-03
5.381476E+03	1.220168E-03	2.768799E-03
5.381674E+03	1.206905E-03	2.738715E-03
5.382268E+03	1.195153E-03	2.712085E-03
5.382664E+03	1.182810E-03	2.684100E-03
5.383852E+03	1.172947E-03	2.661790E-03
5.384050E+03	1.159743E-03	2.631838E-03
5.384248E+03	1.146832E-03	2.602551E-03
5.384446E+03	1.133783E-03	2.572950E-03
5.385239E+03	1.122602E-03	2.547623E-03
5.385437E+03	1.109747E-03	2.518461E-03
5.386031E+03	1.097977E-03	2.491784E-03
5.386230E+03	1.085014E-03	2.462377E-03
5.386626E+03	1.072758E-03	2.434585E-03
5.387616E+03	1.062366E-03	2.411055E-03
5.387814E+03	1.049632E-03	2.382167E-03
5.388012E+03	1.036884E-03	2.353245E-03
5.388210E+03	1.024245E-03	2.324571E-03
5.388408E+03	1.011655E-03	2.296007E-03
5.388804E+03	9.994783E-04	2.268392E-03
5.389002E+03	9.868510E-04	2.239744E-03
5.389200E+03	9.743346E-04	2.211347E-03
5.390588E+03	9.649980E-04	2.190226E-03
5.391182E+03	9.535844E-04	2.164351E-03
5.391380E+03	9.411553E-04	2.136150E-03
5.391578E+03	9.287756E-04	2.108061E-03
5.392172E+03	9.174521E-04	2.082389E-03
5.392370E+03	9.051557E-04	2.054488E-03
5.392568E+03	8.929718E-04	2.026843E-03
5.392964E+03	8.812569E-04	2.000271E-03
5.393162E+03	8.691646E-04	1.972833E-03
5.393558E+03	8.577179E-04	1.946869E-03
5.393756E+03	8.458443E-04	1.919926E-03
5.393953E+03	8.340184E-04	1.893092E-03
5.394152E+03	8.221183E-04	1.866089E-03
