#wls	flux	fluxerr
1.584409E+03	1.983392E-03	5.124100E-04
1.624020E+03	2.051733E-03	5.291518E-04
1.663630E+03	2.118418E-03	5.453825E-04
1.703240E+03	2.182506E-03	5.608602E-04
1.742850E+03	2.243822E-03	5.755405E-04
1.782461E+03	2.301294E-03	5.891505E-04
1.822071E+03	2.354216E-03	6.015130E-04
1.861681E+03	2.402232E-03	6.125415E-04
1.901291E+03	2.444142E-03	6.219362E-04
1.940902E+03	2.479327E-03	6.295472E-04
1.980512E+03	2.506784E-03	6.351296E-04
2.020122E+03	2.525914E-03	6.385430E-04
2.059732E+03	2.535453E-03	6.394819E-04
2.099342E+03	2.534473E-03	6.377280E-04
2.138953E+03	2.522061E-03	6.330708E-04
2.178563E+03	2.496809E-03	6.251787E-04
2.218173E+03	2.457617E-03	6.138012E-04
2.257783E+03	2.404420E-03	5.989500E-04
2.297394E+03	2.338024E-03	5.808543E-04
2.337004E+03	2.260717E-03	5.601103E-04
2.376614E+03	2.174397E-03	5.372119E-04
2.416224E+03	2.080741E-03	5.125944E-04
2.455835E+03	1.981497E-03	4.867069E-04
2.495445E+03	1.877772E-03	4.598369E-04
2.535055E+03	1.770834E-03	4.323084E-04
2.574665E+03	1.661771E-03	4.043984E-04
2.614276E+03	1.551729E-03	3.763946E-04
2.653886E+03	1.441656E-03	3.485337E-04
2.693496E+03	1.332514E-03	3.210526E-04
2.733106E+03	1.225210E-03	2.941719E-04
2.772716E+03	1.120591E-03	2.680952E-04
2.812327E+03	1.019468E-03	2.430136E-04
2.851937E+03	9.226269E-04	2.191098E-04
2.891547E+03	8.307695E-04	1.965432E-04
2.931157E+03	7.445032E-04	1.754479E-04
2.970768E+03	6.642750E-04	1.559178E-04
2.980670E+03	6.452134E-04	1.512905E-04
2.990573E+03	6.265336E-04	1.467611E-04
3.000475E+03	6.082633E-04	1.423357E-04
3.010378E+03	5.903862E-04	1.380103E-04
3.020280E+03	5.729131E-04	1.337873E-04
3.030183E+03	5.558531E-04	1.296686E-04
3.040086E+03	5.391784E-04	1.256473E-04
3.049988E+03	5.229199E-04	1.217305E-04
3.059891E+03	5.070507E-04	1.179116E-04
3.069793E+03	4.915871E-04	1.141942E-04
3.079696E+03	4.765136E-04	1.105745E-04
3.089598E+03	4.618252E-04	1.070511E-04
3.099501E+03	4.475352E-04	1.036267E-04
3.109403E+03	4.336253E-04	1.002969E-04
3.119306E+03	4.201192E-04	9.706701E-05
3.129209E+03	4.069910E-04	9.393069E-05
3.139111E+03	3.942614E-04	9.089249E-05
3.149014E+03	3.819123E-04	8.794800E-05
3.158916E+03	3.699538E-04	8.509927E-05
3.168819E+03	3.583740E-04	8.234331E-05
3.178721E+03	3.471736E-04	7.968004E-05
3.188624E+03	3.363471E-04	7.710791E-05
3.198526E+03	3.258906E-04	7.462578E-05
3.208429E+03	3.157951E-04	7.223136E-05
3.218332E+03	3.060671E-04	6.992584E-05
3.228234E+03	2.966957E-04	6.770653E-05
3.238137E+03	2.876798E-04	6.557289E-05
3.248039E+03	2.790083E-04	6.352213E-05
3.257942E+03	2.706741E-04	6.155242E-05
3.267844E+03	2.626737E-04	5.966268E-05
3.277747E+03	2.549949E-04	5.784995E-05
3.287650E+03	2.476330E-04	5.611291E-05
3.297552E+03	2.405798E-04	5.444945E-05
3.307455E+03	2.338194E-04	5.285576E-05
3.317357E+03	2.273503E-04	5.133130E-05
3.327260E+03	2.211605E-04	4.987313E-05
3.337162E+03	2.152418E-04	4.847918E-05
3.347065E+03	2.095857E-04	4.714735E-05
3.356967E+03	2.041782E-04	4.587431E-05
3.366870E+03	1.990173E-04	4.465939E-05
3.376773E+03	1.940919E-04	4.349994E-05
3.386675E+03	1.893919E-04	4.239350E-05
3.396578E+03	1.849098E-04	4.133822E-05
3.406480E+03	1.806383E-04	4.033229E-05
3.416383E+03	1.765657E-04	3.937297E-05
3.426285E+03	1.726878E-04	3.845914E-05
3.436188E+03	1.689935E-04	3.758820E-05
3.446090E+03	1.654774E-04	3.675876E-05
3.455993E+03	1.621316E-04	3.596897E-05
3.465896E+03	1.589491E-04	3.521712E-05
3.475798E+03	1.559231E-04	3.450161E-05
3.485701E+03	1.530476E-04	3.382093E-05
3.495603E+03	1.503148E-04	3.317329E-05
3.505506E+03	1.477178E-04	3.255701E-05
3.515408E+03	1.452515E-04	3.197090E-05
3.525311E+03	1.429098E-04	3.141346E-05
3.535213E+03	1.406880E-04	3.088362E-05
3.545116E+03	1.385792E-04	3.037971E-05
3.555019E+03	1.365796E-04	2.990082E-05
3.564921E+03	1.346840E-04	2.944574E-05
3.574824E+03	1.328903E-04	2.901392E-05
3.584726E+03	1.311926E-04	2.860399E-05
3.594629E+03	1.295879E-04	2.821519E-05
3.604531E+03	1.280695E-04	2.784601E-05
3.614434E+03	1.266349E-04	2.749584E-05
3.624337E+03	1.252805E-04	2.716381E-05
3.634239E+03	1.240030E-04	2.684913E-05
3.644142E+03	1.228001E-04	2.655126E-05
3.654044E+03	1.216699E-04	2.626971E-05
3.663947E+03	1.206092E-04	2.600374E-05
3.673849E+03	1.196173E-04	2.575312E-05
3.683752E+03	1.186911E-04	2.551713E-05
3.693654E+03	1.178307E-04	2.529576E-05
3.703557E+03	1.170343E-04	2.508854E-05
3.713460E+03	1.162999E-04	2.489497E-05
3.723362E+03	1.156265E-04	2.471481E-05
3.733265E+03	1.150141E-04	2.454801E-05
3.743167E+03	1.144607E-04	2.439409E-05
3.753070E+03	1.139665E-04	2.425299E-05
3.762972E+03	1.135294E-04	2.412425E-05
3.772875E+03	1.131485E-04	2.400766E-05
3.782777E+03	1.128241E-04	2.390316E-05
3.792680E+03	1.125562E-04	2.381075E-05
3.802583E+03	1.123431E-04	2.373000E-05
3.812485E+03	1.121860E-04	2.366110E-05
3.822388E+03	1.120822E-04	2.360345E-05
3.832290E+03	1.120337E-04	2.355744E-05
3.842193E+03	1.120381E-04	2.352246E-05
3.852095E+03	1.120971E-04	2.349888E-05
3.861998E+03	1.122092E-04	2.348626E-05
3.871900E+03	1.123743E-04	2.348460E-05
3.881803E+03	1.125917E-04	2.349365E-05
3.891706E+03	1.128612E-04	2.351337E-05
3.901608E+03	1.131822E-04	2.354353E-05
3.911511E+03	1.135554E-04	2.358428E-05
3.921413E+03	1.139791E-04	2.363519E-05
3.931316E+03	1.144534E-04	2.369622E-05
3.941218E+03	1.149774E-04	2.376714E-05
3.951121E+03	1.155520E-04	2.384810E-05
3.961024E+03	1.161763E-04	2.393886E-05
3.970926E+03	1.168493E-04	2.403918E-05
3.980829E+03	1.175702E-04	2.414882E-05
3.990731E+03	1.183398E-04	2.426792E-05
4.000634E+03	1.191563E-04	2.439606E-05
4.010536E+03	1.200207E-04	2.453338E-05
4.020439E+03	1.209311E-04	2.467947E-05
4.030341E+03	1.218878E-04	2.483433E-05
4.040244E+03	1.228908E-04	2.499793E-05
4.050147E+03	1.239395E-04	2.517009E-05
4.060049E+03	1.250332E-04	2.535061E-05
4.069952E+03	1.261711E-04	2.553931E-05
4.079854E+03	1.273545E-04	2.573640E-05
4.089757E+03	1.285817E-04	2.594149E-05
4.099659E+03	1.298531E-04	2.615460E-05
4.109562E+03	1.311667E-04	2.637533E-05
4.119464E+03	1.325231E-04	2.660371E-05
4.129367E+03	1.339224E-04	2.683975E-05
4.139270E+03	1.353630E-04	2.708307E-05
4.149172E+03	1.368452E-04	2.733369E-05
4.159075E+03	1.383672E-04	2.759123E-05
4.168977E+03	1.399295E-04	2.785572E-05
4.178880E+03	1.415303E-04	2.812677E-05
4.188782E+03	1.431699E-04	2.840443E-05
4.198685E+03	1.448465E-04	2.868829E-05
4.208587E+03	1.465594E-04	2.897817E-05
4.218490E+03	1.483068E-04	2.927368E-05
4.228393E+03	1.500891E-04	2.957485E-05
4.238295E+03	1.519042E-04	2.988127E-05
4.248198E+03	1.537513E-04	3.019274E-05
4.258100E+03	1.556283E-04	3.050879E-05
4.268003E+03	1.575328E-04	3.082897E-05
4.277905E+03	1.594638E-04	3.115302E-05
4.287808E+03	1.614199E-04	3.148065E-05
4.297711E+03	1.633984E-04	3.181132E-05
4.307613E+03	1.653977E-04	3.214470E-05
4.317516E+03	1.674147E-04	3.248017E-05
4.327418E+03	1.694491E-04	3.281764E-05
4.337321E+03	1.714987E-04	3.315671E-05
4.347223E+03	1.735661E-04	3.349782E-05
4.357126E+03	1.756491E-04	3.384058E-05
4.367028E+03	1.777486E-04	3.418512E-05
4.376931E+03	1.798640E-04	3.453131E-05
4.386834E+03	1.819975E-04	3.487959E-05
4.396736E+03	1.841478E-04	3.522967E-05
4.406639E+03	1.863140E-04	3.558138E-05
4.416541E+03	1.884981E-04	3.593508E-05
4.426444E+03	1.906994E-04	3.629063E-05
4.436346E+03	1.929184E-04	3.664811E-05
4.446249E+03	1.951533E-04	3.700719E-05
4.456151E+03	1.974056E-04	3.736811E-05
4.466054E+03	1.996738E-04	3.773057E-05
4.475957E+03	2.019576E-04	3.809455E-05
4.485859E+03	2.042573E-04	3.846004E-05
4.495762E+03	2.065688E-04	3.882632E-05
4.505664E+03	2.088945E-04	3.919374E-05
4.515567E+03	2.112319E-04	3.956190E-05
4.525469E+03	2.135814E-04	3.993083E-05
4.535372E+03	2.159393E-04	4.029981E-05
4.545274E+03	2.183081E-04	4.066931E-05
4.555177E+03	2.206839E-04	4.103861E-05
4.565080E+03	2.230693E-04	4.140816E-05
4.574982E+03	2.254610E-04	4.177738E-05
4.584885E+03	2.278599E-04	4.214638E-05
4.594787E+03	2.302646E-04	4.251491E-05
4.604690E+03	2.326785E-04	4.288360E-05
4.614592E+03	2.350986E-04	4.325189E-05
4.624495E+03	2.375285E-04	4.362044E-05
4.634398E+03	2.399679E-04	4.398914E-05
4.644300E+03	2.424162E-04	4.435792E-05
4.654203E+03	2.448776E-04	4.472753E-05
4.664105E+03	2.473495E-04	4.509746E-05
4.674008E+03	2.498340E-04	4.546808E-05
4.683910E+03	2.523284E-04	4.583891E-05
4.693813E+03	2.548359E-04	4.621050E-05
4.703715E+03	2.573521E-04	4.658207E-05
4.713618E+03	2.598798E-04	4.695407E-05
4.723521E+03	2.624173E-04	4.732622E-05
4.733423E+03	2.649675E-04	4.769901E-05
4.743326E+03	2.675282E-04	4.807203E-05
4.753228E+03	2.700996E-04	4.844531E-05
4.763131E+03	2.726820E-04	4.881890E-05
4.773033E+03	2.752757E-04	4.919282E-05
4.782936E+03	2.778803E-04	4.956701E-05
4.792838E+03	2.804934E-04	4.994103E-05
4.802741E+03	2.831179E-04	5.031535E-05
4.812644E+03	2.857537E-04	5.068999E-05
4.822546E+03	2.883981E-04	5.106442E-05
4.832449E+03	2.910517E-04	5.143873E-05
4.842351E+03	2.937176E-04	5.181347E-05
4.852254E+03	2.963907E-04	5.218772E-05
4.862156E+03	2.990770E-04	5.256250E-05
4.872059E+03	3.017737E-04	5.293734E-05
4.881961E+03	3.044785E-04	5.331179E-05
4.891864E+03	3.071940E-04	5.368629E-05
4.901767E+03	3.099195E-04	5.406071E-05
4.911669E+03	3.126516E-04	5.443443E-05
4.921572E+03	3.153923E-04	5.480781E-05
4.931474E+03	3.181344E-04	5.517956E-05
4.941377E+03	3.208830E-04	5.555055E-05
4.951279E+03	3.236327E-04	5.591986E-05
4.961182E+03	3.263790E-04	5.628669E-05
4.971085E+03	3.291224E-04	5.665112E-05
4.980987E+03	3.318575E-04	5.701222E-05
4.990890E+03	3.345817E-04	5.736955E-05
5.000792E+03	3.372922E-04	5.772262E-05
5.010695E+03	3.399852E-04	5.807080E-05
5.020597E+03	3.426541E-04	5.841298E-05
5.030500E+03	3.452980E-04	5.874901E-05
5.040402E+03	3.479088E-04	5.907754E-05
5.050305E+03	3.504816E-04	5.939776E-05
5.060208E+03	3.530077E-04	5.970824E-05
5.070110E+03	3.554857E-04	6.000875E-05
5.080013E+03	3.579038E-04	6.029738E-05
5.089915E+03	3.602644E-04	6.057458E-05
5.099818E+03	3.625562E-04	6.083849E-05
5.109720E+03	3.647789E-04	6.108912E-05
5.119623E+03	3.669250E-04	6.132529E-05
5.129525E+03	3.689864E-04	6.154572E-05
5.139428E+03	3.709622E-04	6.175035E-05
5.149331E+03	3.728446E-04	6.193793E-05
5.159233E+03	3.746291E-04	6.210783E-05
5.169136E+03	3.763109E-04	6.225934E-05
5.179038E+03	3.778820E-04	6.239125E-05
5.188941E+03	3.793371E-04	6.250278E-05
5.198843E+03	3.806679E-04	6.259268E-05
5.208746E+03	3.818725E-04	6.266077E-05
5.218648E+03	3.829420E-04	6.270571E-05
5.228551E+03	3.838704E-04	6.272664E-05
5.238454E+03	3.846519E-04	6.272278E-05
5.248356E+03	3.852770E-04	6.269272E-05
5.258259E+03	3.857395E-04	6.263563E-05
5.268161E+03	3.860337E-04	6.255070E-05
5.278064E+03	3.861540E-04	6.243725E-05
5.287966E+03	3.860916E-04	6.229402E-05
5.297869E+03	3.858450E-04	6.212096E-05
5.307772E+03	3.854102E-04	6.191761E-05
5.317674E+03	3.847830E-04	6.168350E-05
5.327577E+03	3.839565E-04	6.141773E-05
5.337479E+03	3.829372E-04	6.112153E-05
5.347382E+03	3.817215E-04	6.079454E-05
5.357284E+03	3.803179E-04	6.043832E-05
5.367187E+03	3.787266E-04	6.005310E-05
5.377089E+03	3.769571E-04	5.964059E-05
5.386992E+03	3.750156E-04	5.920195E-05
5.396895E+03	3.729188E-04	5.873999E-05
5.406797E+03	3.706735E-04	5.825597E-05
5.416700E+03	3.682872E-04	5.775122E-05
5.426602E+03	3.657671E-04	5.722700E-05
5.436505E+03	3.631292E-04	5.668598E-05
5.446407E+03	3.603820E-04	5.612961E-05
5.456310E+03	3.575419E-04	5.556054E-05
5.466212E+03	3.546248E-04	5.498137E-05
5.476115E+03	3.516471E-04	5.439472E-05
5.486018E+03	3.486255E-04	5.380324E-05
5.495920E+03	3.455805E-04	5.321012E-05
5.505823E+03	3.425290E-04	5.261799E-05
5.515725E+03	3.394953E-04	5.203061E-05
5.525628E+03	3.364939E-04	5.145017E-05
5.535530E+03	3.335520E-04	5.088079E-05
5.545433E+03	3.306816E-04	5.032424E-05
5.555335E+03	3.279050E-04	4.978385E-05
5.565238E+03	3.252419E-04	4.926249E-05
5.575141E+03	3.226999E-04	4.876120E-05
5.585043E+03	3.203013E-04	4.828322E-05
5.594946E+03	3.180540E-04	4.782959E-05
5.604848E+03	3.159626E-04	4.740084E-05
5.614751E+03	3.140437E-04	4.699929E-05
5.624653E+03	3.122964E-04	4.662463E-05
5.634556E+03	3.107264E-04	4.627752E-05
5.644459E+03	3.093387E-04	4.595853E-05
5.654361E+03	3.081343E-04	4.566759E-05
5.664264E+03	3.071116E-04	4.540430E-05
5.674166E+03	3.062688E-04	4.516819E-05
5.684069E+03	3.056067E-04	4.495917E-05
5.693971E+03	3.051255E-04	4.477712E-05
5.703874E+03	3.048155E-04	4.462039E-05
5.713776E+03	3.046840E-04	4.448987E-05
5.723679E+03	3.047242E-04	4.438439E-05
5.733582E+03	3.049427E-04	4.430472E-05
5.743484E+03	3.053375E-04	4.425040E-05
5.753387E+03	3.059137E-04	4.422195E-05
5.763289E+03	3.066737E-04	4.421954E-05
5.773192E+03	3.076237E-04	4.424387E-05
5.783094E+03	3.087626E-04	4.429458E-05
5.792997E+03	3.100936E-04	4.437191E-05
5.802899E+03	3.116224E-04	4.447648E-05
5.812802E+03	3.133540E-04	4.460882E-05
5.822705E+03	3.152837E-04	4.476800E-05
5.832607E+03	3.174203E-04	4.495509E-05
5.842510E+03	3.197624E-04	4.516966E-05
5.852412E+03	3.223165E-04	4.541243E-05
5.862315E+03	3.250850E-04	4.568349E-05
5.872217E+03	3.280650E-04	4.598221E-05
5.882120E+03	3.312615E-04	4.630909E-05
5.892022E+03	3.346747E-04	4.666392E-05
5.901925E+03	3.383005E-04	4.704590E-05
5.911828E+03	3.421450E-04	4.745567E-05
5.921730E+03	3.461990E-04	4.789174E-05
5.931633E+03	3.504642E-04	4.835409E-05
5.941535E+03	3.549367E-04	4.884201E-05
5.951438E+03	3.596088E-04	4.935423E-05
5.961340E+03	3.644790E-04	4.989035E-05
5.971243E+03	3.695332E-04	5.044821E-05
5.981146E+03	3.747724E-04	5.102783E-05
5.991048E+03	3.801800E-04	5.162673E-05
6.000951E+03	3.857502E-04	5.224400E-05
6.010853E+03	3.914684E-04	5.287751E-05
6.020756E+03	3.973218E-04	5.352538E-05
6.030658E+03	4.032920E-04	5.418505E-05
6.040561E+03	4.093589E-04	5.485372E-05
6.050463E+03	4.155105E-04	5.552972E-05
6.060366E+03	4.217133E-04	5.620853E-05
6.070269E+03	4.279522E-04	5.688812E-05
6.080171E+03	4.341954E-04	5.756428E-05
6.090074E+03	4.404200E-04	5.823402E-05
6.099976E+03	4.465799E-04	5.889131E-05
6.109879E+03	4.526537E-04	5.953344E-05
6.119781E+03	4.585975E-04	6.015482E-05
6.129684E+03	4.643768E-04	6.075107E-05
6.139586E+03	4.699584E-04	6.131811E-05
6.149489E+03	4.753460E-04	6.185667E-05
6.159392E+03	4.805522E-04	6.236862E-05
6.169294E+03	4.855914E-04	6.285608E-05
6.179197E+03	4.904799E-04	6.332134E-05
6.189099E+03	4.952168E-04	6.376453E-05
6.199002E+03	4.998338E-04	6.418988E-05
6.208904E+03	5.043253E-04	6.459689E-05
6.218807E+03	5.087126E-04	6.498843E-05
6.228709E+03	5.130108E-04	6.536658E-05
6.238612E+03	5.172160E-04	6.573095E-05
6.248515E+03	5.213448E-04	6.608370E-05
6.258417E+03	5.254066E-04	6.642613E-05
6.268320E+03	5.294112E-04	6.675954E-05
6.278222E+03	5.333544E-04	6.708345E-05
6.288125E+03	5.372467E-04	6.739923E-05
6.298027E+03	5.410913E-04	6.770735E-05
6.307930E+03	5.448913E-04	6.800822E-05
6.317833E+03	5.486429E-04	6.830143E-05
6.327735E+03	5.523422E-04	6.858653E-05
6.337638E+03	5.559845E-04	6.886299E-05
6.347540E+03	5.595730E-04	6.913125E-05
6.357443E+03	5.631030E-04	6.939080E-05
6.367345E+03	5.665530E-04	6.963904E-05
6.377248E+03	5.699496E-04	6.987931E-05
6.387150E+03	5.732959E-04	7.011203E-05
6.397053E+03	5.766031E-04	7.033863E-05
6.406956E+03	5.798914E-04	7.056160E-05
6.416858E+03	5.831564E-04	7.078041E-05
6.426761E+03	5.864185E-04	7.099756E-05
6.436663E+03	5.896814E-04	7.121352E-05
6.446566E+03	5.929578E-04	7.142980E-05
6.456468E+03	5.962328E-04	7.164461E-05
6.466371E+03	5.995371E-04	7.186163E-05
6.476273E+03	6.028554E-04	7.207902E-05
6.486176E+03	6.061994E-04	7.229818E-05
6.496079E+03	6.095723E-04	7.251944E-05
6.505981E+03	6.129667E-04	7.274193E-05
6.515884E+03	6.163943E-04	7.296704E-05
6.525786E+03	6.198585E-04	7.319512E-05
6.535689E+03	6.233518E-04	7.342529E-05
6.545591E+03	6.268771E-04	7.365788E-05
6.555494E+03	6.304368E-04	7.389315E-05
6.565396E+03	6.340440E-04	7.413260E-05
6.575299E+03	6.376801E-04	7.437408E-05
6.585202E+03	6.413573E-04	7.461899E-05
6.595104E+03	6.450772E-04	7.486748E-05
6.605007E+03	6.488300E-04	7.511843E-05
6.614909E+03	6.526277E-04	7.537321E-05
6.624812E+03	6.564588E-04	7.563049E-05
6.634714E+03	6.603352E-04	7.589164E-05
6.644617E+03	6.642342E-04	7.615406E-05
6.654520E+03	6.681674E-04	7.641906E-05
6.664422E+03	6.721464E-04	7.668800E-05
6.674325E+03	6.761482E-04	7.695826E-05
6.684227E+03	6.801851E-04	7.723125E-05
6.694130E+03	6.842453E-04	7.750564E-05
6.704032E+03	6.883417E-04	7.778294E-05
6.713935E+03	6.924628E-04	7.806185E-05
6.723837E+03	6.966093E-04	7.834250E-05
6.733740E+03	7.007950E-04	7.862645E-05
6.743643E+03	7.049964E-04	7.891109E-05
6.753545E+03	7.092400E-04	7.919946E-05
6.763448E+03	7.135013E-04	7.948884E-05
6.773350E+03	7.178075E-04	7.978230E-05
6.783253E+03	7.221330E-04	8.007705E-05
6.793155E+03	7.264775E-04	8.037310E-05
6.803058E+03	7.308539E-04	8.067195E-05
6.812960E+03	7.352612E-04	8.097353E-05
6.822863E+03	7.396708E-04	8.127476E-05
6.832766E+03	7.441076E-04	8.157846E-05
6.842668E+03	7.485557E-04	8.188297E-05
6.852571E+03	7.530258E-04	8.218953E-05
6.862473E+03	7.574864E-04	8.249479E-05
6.872376E+03	7.619475E-04	8.279995E-05
6.882278E+03	7.664056E-04	8.310473E-05
6.892181E+03	7.708414E-04	8.340717E-05
6.902083E+03	7.752654E-04	8.370852E-05
6.911986E+03	7.796732E-04	8.400843E-05
6.921889E+03	7.840456E-04	8.430497E-05
6.931791E+03	7.883777E-04	8.459777E-05
6.941694E+03	7.926661E-04	8.488662E-05
6.951596E+03	7.969229E-04	8.517297E-05
6.961499E+03	8.011131E-04	8.545324E-05
6.971401E+03	8.052658E-04	8.573072E-05
6.981304E+03	8.093464E-04	8.600190E-05
6.991207E+03	8.133685E-04	8.626842E-05
7.001109E+03	8.173146E-04	8.652860E-05
7.011012E+03	8.211991E-04	8.678417E-05
7.020914E+03	8.250208E-04	8.703521E-05
7.030817E+03	8.287632E-04	8.728016E-05
7.040719E+03	8.324095E-04	8.751747E-05
7.050622E+03	8.359930E-04	8.775087E-05
7.060524E+03	8.394982E-04	8.797891E-05
7.070427E+03	8.429257E-04	8.820191E-05
7.080330E+03	8.462768E-04	8.842019E-05
7.090232E+03	8.495355E-04	8.863231E-05
7.100135E+03	8.527205E-04	8.884045E-05
7.110037E+03	8.558163E-04	8.904321E-05
7.119940E+03	8.588249E-04	8.924103E-05
7.129842E+03	8.617674E-04	8.943633E-05
7.139745E+03	8.646290E-04	8.962777E-05
7.149647E+03	8.674312E-04	8.981785E-05
7.159550E+03	8.701410E-04	9.000335E-05
7.169453E+03	8.727796E-04	9.018668E-05
7.179355E+03	8.753492E-04	9.036831E-05
7.189258E+03	8.778512E-04	9.054861E-05
7.199160E+03	8.802868E-04	9.072792E-05
7.209063E+03	8.826550E-04	9.090635E-05
7.218965E+03	8.849348E-04	9.108199E-05
7.228868E+03	8.871429E-04	9.125677E-05
7.238770E+03	8.892761E-04	9.143058E-05
7.248673E+03	8.913308E-04	9.160328E-05
7.258576E+03	8.932836E-04	9.177267E-05
7.268478E+03	8.951509E-04	9.194067E-05
7.278381E+03	8.969492E-04	9.210918E-05
7.288283E+03	8.986363E-04	9.227408E-05
7.298186E+03	9.002294E-04	9.243735E-05
7.308088E+03	9.017261E-04	9.259894E-05
7.317991E+03	9.031444E-04	9.276090E-05
7.327894E+03	9.044635E-04	9.292129E-05
7.337796E+03	9.057023E-04	9.308224E-05
7.347699E+03	9.068810E-04	9.324601E-05
7.357601E+03	9.079815E-04	9.341091E-05
7.367504E+03	9.090476E-04	9.358165E-05
7.377406E+03	9.100413E-04	9.375446E-05
7.387309E+03	9.109886E-04	9.393221E-05
7.397211E+03	9.118749E-04	9.411357E-05
7.407114E+03	9.127277E-04	9.430149E-05
7.417017E+03	9.135134E-04	9.449271E-05
7.426919E+03	9.142617E-04	9.469042E-05
7.436822E+03	9.149819E-04	9.489573E-05
7.446724E+03	9.156584E-04	9.510718E-05
7.456627E+03	9.163325E-04	9.532918E-05
7.466529E+03	9.169602E-04	9.555716E-05
7.476432E+03	9.175641E-04	9.579333E-05
7.486334E+03	9.181237E-04	9.603541E-05
7.496237E+03	9.186629E-04	9.628575E-05
7.506140E+03	9.191631E-04	9.654225E-05
7.516042E+03	9.196504E-04	9.680751E-05
7.525945E+03	9.201064E-04	9.707943E-05
7.535847E+03	9.205333E-04	9.735809E-05
7.545750E+03	9.209551E-04	9.764584E-05
7.555652E+03	9.213510E-04	9.794034E-05
7.565555E+03	9.217213E-04	9.824145E-05
7.575457E+03	9.220882E-04	9.855135E-05
7.585360E+03	9.224285E-04	9.886742E-05
7.595263E+03	9.227623E-04	9.919162E-05
7.605165E+03	9.230415E-04	9.951859E-05
7.615068E+03	9.233081E-04	9.985269E-05
7.624970E+03	9.235590E-04	1.001934E-04
7.634873E+03	9.237680E-04	1.005377E-04
7.644775E+03	9.239545E-04	1.008874E-04
7.654678E+03	9.240930E-04	1.012397E-04
7.664581E+03	9.241804E-04	1.015939E-04
7.674483E+03	9.242373E-04	1.019521E-04
7.684386E+03	9.242604E-04	1.023137E-04
