#wls	flux	fluxerr
1.584409E+03	5.212672E-03	1.210028E-03
1.624020E+03	5.379738E-03	1.246730E-03
1.663630E+03	5.546093E-03	1.283089E-03
1.703240E+03	5.712699E-03	1.319324E-03
1.742850E+03	5.877714E-03	1.355004E-03
1.782461E+03	6.040189E-03	1.389907E-03
1.822071E+03	6.199509E-03	1.423890E-03
1.861681E+03	6.353853E-03	1.456534E-03
1.901291E+03	6.501754E-03	1.487504E-03
1.940902E+03	6.641587E-03	1.516433E-03
1.980512E+03	6.770637E-03	1.542708E-03
2.020122E+03	6.887580E-03	1.566038E-03
2.059732E+03	6.988694E-03	1.585593E-03
2.099342E+03	7.070465E-03	1.600595E-03
2.138953E+03	7.130069E-03	1.610432E-03
2.178563E+03	7.163764E-03	1.614292E-03
2.218173E+03	7.167197E-03	1.611235E-03
2.257783E+03	7.139881E-03	1.601199E-03
2.297394E+03	7.080974E-03	1.584047E-03
2.337004E+03	6.992880E-03	1.560368E-03
2.376614E+03	6.878266E-03	1.530808E-03
2.416224E+03	6.739671E-03	1.495979E-03
2.455835E+03	6.579784E-03	1.456523E-03
2.495445E+03	6.400052E-03	1.412804E-03
2.535055E+03	6.203000E-03	1.365418E-03
2.574665E+03	5.989883E-03	1.314681E-03
2.614276E+03	5.762363E-03	1.260995E-03
2.653886E+03	5.521885E-03	1.204709E-03
2.693496E+03	5.270329E-03	1.146268E-03
2.733106E+03	5.009448E-03	1.086082E-03
2.772716E+03	4.741116E-03	1.024587E-03
2.812327E+03	4.467726E-03	9.623206E-04
2.851937E+03	4.191637E-03	8.998123E-04
2.891547E+03	3.915572E-03	8.376603E-04
2.931157E+03	3.642304E-03	7.764659E-04
2.970768E+03	3.374544E-03	7.168090E-04
2.980670E+03	3.308748E-03	7.021949E-04
2.990573E+03	3.243500E-03	6.877198E-04
3.000475E+03	3.178822E-03	6.733881E-04
3.010378E+03	3.114808E-03	6.592198E-04
3.020280E+03	3.051415E-03	6.452051E-04
3.030183E+03	2.988663E-03	6.313486E-04
3.040086E+03	2.926707E-03	6.176824E-04
3.049988E+03	2.865441E-03	6.041838E-04
3.059891E+03	2.805006E-03	5.908822E-04
3.069793E+03	2.745366E-03	5.777700E-04
3.079696E+03	2.686543E-03	5.648513E-04
3.089598E+03	2.628663E-03	5.521524E-04
3.099501E+03	2.571644E-03	5.396552E-04
3.109403E+03	2.515555E-03	5.273741E-04
3.119306E+03	2.460416E-03	5.153130E-04
3.129209E+03	2.406300E-03	5.034862E-04
3.139111E+03	2.353179E-03	4.918880E-04
3.149014E+03	2.301116E-03	4.805308E-04
3.158916E+03	2.250135E-03	4.694188E-04
3.168819E+03	2.200213E-03	4.585470E-04
3.178721E+03	2.151415E-03	4.479283E-04
3.188624E+03	2.103795E-03	4.375733E-04
3.198526E+03	2.057297E-03	4.274700E-04
3.208429E+03	2.012013E-03	4.176363E-04
3.218332E+03	1.967887E-03	4.080605E-04
3.228234E+03	1.925033E-03	3.987654E-04
3.238137E+03	1.883364E-03	3.897323E-04
3.248039E+03	1.842923E-03	3.809692E-04
3.257942E+03	1.803744E-03	3.724829E-04
3.267844E+03	1.765802E-03	3.642672E-04
3.277747E+03	1.729126E-03	3.563272E-04
3.287650E+03	1.693660E-03	3.486511E-04
3.297552E+03	1.659430E-03	3.412432E-04
3.307455E+03	1.626429E-03	3.341016E-04
3.317357E+03	1.594653E-03	3.272243E-04
3.327260E+03	1.564090E-03	3.206087E-04
3.337162E+03	1.534709E-03	3.142474E-04
3.347065E+03	1.506501E-03	3.081376E-04
3.356967E+03	1.479452E-03	3.022764E-04
3.366870E+03	1.453552E-03	2.966604E-04
3.376773E+03	1.428767E-03	2.912822E-04
3.386675E+03	1.405083E-03	2.861384E-04
3.396578E+03	1.382488E-03	2.812256E-04
3.406480E+03	1.360948E-03	2.765365E-04
3.416383E+03	1.340450E-03	2.720676E-04
3.426285E+03	1.320980E-03	2.678154E-04
3.436188E+03	1.302490E-03	2.637697E-04
3.446090E+03	1.284983E-03	2.599304E-04
3.455993E+03	1.268430E-03	2.562910E-04
3.465896E+03	1.252803E-03	2.528450E-04
3.475798E+03	1.238089E-03	2.495894E-04
3.485701E+03	1.224246E-03	2.465153E-04
3.495603E+03	1.211264E-03	2.436199E-04
3.505506E+03	1.199118E-03	2.408976E-04
3.515408E+03	1.187785E-03	2.383432E-04
3.525311E+03	1.177241E-03	2.359514E-04
3.535213E+03	1.167464E-03	2.337176E-04
3.545116E+03	1.158422E-03	2.316344E-04
3.555019E+03	1.150107E-03	2.296999E-04
3.564921E+03	1.142488E-03	2.279074E-04
3.574824E+03	1.135559E-03	2.262553E-04
3.584726E+03	1.129278E-03	2.247348E-04
3.594629E+03	1.123653E-03	2.233469E-04
3.604531E+03	1.118634E-03	2.220811E-04
3.614434E+03	1.114216E-03	2.209363E-04
3.624337E+03	1.110374E-03	2.199071E-04
3.634239E+03	1.107106E-03	2.189925E-04
3.644142E+03	1.104376E-03	2.181851E-04
3.654044E+03	1.102183E-03	2.174843E-04
3.663947E+03	1.100502E-03	2.168850E-04
3.673849E+03	1.099333E-03	2.163864E-04
3.683752E+03	1.098653E-03	2.159839E-04
3.693654E+03	1.098470E-03	2.156787E-04
3.703557E+03	1.098751E-03	2.154641E-04
3.713460E+03	1.099506E-03	2.153414E-04
3.723362E+03	1.100722E-03	2.153078E-04
3.733265E+03	1.102395E-03	2.153626E-04
3.743167E+03	1.104515E-03	2.155029E-04
3.753070E+03	1.107089E-03	2.157300E-04
3.762972E+03	1.110092E-03	2.160388E-04
3.772875E+03	1.113532E-03	2.164306E-04
3.782777E+03	1.117406E-03	2.169042E-04
3.792680E+03	1.121710E-03	2.174586E-04
3.802583E+03	1.126440E-03	2.180928E-04
3.812485E+03	1.131581E-03	2.188037E-04
3.822388E+03	1.137149E-03	2.195939E-04
3.832290E+03	1.143140E-03	2.204622E-04
3.842193E+03	1.149538E-03	2.214053E-04
3.852095E+03	1.156347E-03	2.224238E-04
3.861998E+03	1.163562E-03	2.235164E-04
3.871900E+03	1.171187E-03	2.246833E-04
3.881803E+03	1.179204E-03	2.259211E-04
3.891706E+03	1.187628E-03	2.272320E-04
3.901608E+03	1.196440E-03	2.286124E-04
3.911511E+03	1.205653E-03	2.300642E-04
3.921413E+03	1.215248E-03	2.315837E-04
3.931316E+03	1.225215E-03	2.331688E-04
3.941218E+03	1.235567E-03	2.348213E-04
3.951121E+03	1.246282E-03	2.365370E-04
3.961024E+03	1.257360E-03	2.383154E-04
3.970926E+03	1.268789E-03	2.401543E-04
3.980829E+03	1.280567E-03	2.420528E-04
3.990731E+03	1.292682E-03	2.440084E-04
4.000634E+03	1.305119E-03	2.460181E-04
4.010536E+03	1.317876E-03	2.480810E-04
4.020439E+03	1.330946E-03	2.501961E-04
4.030341E+03	1.344293E-03	2.523558E-04
4.040244E+03	1.357931E-03	2.545629E-04
4.050147E+03	1.371821E-03	2.568097E-04
4.060049E+03	1.385965E-03	2.590965E-04
4.069952E+03	1.400331E-03	2.614171E-04
4.079854E+03	1.414909E-03	2.637695E-04
4.089757E+03	1.429676E-03	2.661491E-04
4.099659E+03	1.444607E-03	2.685513E-04
4.109562E+03	1.459676E-03	2.709710E-04
4.119464E+03	1.474854E-03	2.734029E-04
4.129367E+03	1.490125E-03	2.758439E-04
4.139270E+03	1.505458E-03	2.782881E-04
4.149172E+03	1.520807E-03	2.807270E-04
4.159075E+03	1.536137E-03	2.831544E-04
4.168977E+03	1.551411E-03	2.855634E-04
4.178880E+03	1.566605E-03	2.879494E-04
4.188782E+03	1.581664E-03	2.903028E-04
4.198685E+03	1.596547E-03	2.926159E-04
4.208587E+03	1.611198E-03	2.948787E-04
4.218490E+03	1.625583E-03	2.970853E-04
4.228393E+03	1.639645E-03	2.992253E-04
4.238295E+03	1.653334E-03	3.012901E-04
4.248198E+03	1.666603E-03	3.032714E-04
4.258100E+03	1.679375E-03	3.051556E-04
4.268003E+03	1.691630E-03	3.069393E-04
4.277905E+03	1.703290E-03	3.086091E-04
4.287808E+03	1.714308E-03	3.101568E-04
4.297711E+03	1.724623E-03	3.115720E-04
4.307613E+03	1.734221E-03	3.128527E-04
4.317516E+03	1.743018E-03	3.139844E-04
4.327418E+03	1.751007E-03	3.149664E-04
4.337321E+03	1.758158E-03	3.157942E-04
4.347223E+03	1.764465E-03	3.164672E-04
4.357126E+03	1.769947E-03	3.169897E-04
4.367028E+03	1.774620E-03	3.173652E-04
4.376931E+03	1.778540E-03	3.176041E-04
4.386834E+03	1.781707E-03	3.177073E-04
4.396736E+03	1.784190E-03	3.176877E-04
4.406639E+03	1.786015E-03	3.175503E-04
4.416541E+03	1.787228E-03	3.173040E-04
4.426444E+03	1.787909E-03	3.169631E-04
4.436346E+03	1.788061E-03	3.165288E-04
4.446249E+03	1.787784E-03	3.160189E-04
4.456151E+03	1.787082E-03	3.154349E-04
4.466054E+03	1.786041E-03	3.147918E-04
4.475957E+03	1.784698E-03	3.140965E-04
4.485859E+03	1.783104E-03	3.133582E-04
4.495762E+03	1.781312E-03	3.125864E-04
4.505664E+03	1.779340E-03	3.117843E-04
4.515567E+03	1.777268E-03	3.109662E-04
4.525469E+03	1.775112E-03	3.101348E-04
4.535372E+03	1.772917E-03	3.092981E-04
4.545274E+03	1.770727E-03	3.084637E-04
4.555177E+03	1.768585E-03	3.076389E-04
4.565080E+03	1.766513E-03	3.068279E-04
4.574982E+03	1.764533E-03	3.060341E-04
4.584885E+03	1.762682E-03	3.052639E-04
4.594787E+03	1.760993E-03	3.045230E-04
4.604690E+03	1.759499E-03	3.038168E-04
4.614592E+03	1.758197E-03	3.031448E-04
4.624495E+03	1.757134E-03	3.025147E-04
4.634398E+03	1.756319E-03	3.019282E-04
4.644300E+03	1.755763E-03	3.013867E-04
4.654203E+03	1.755491E-03	3.008943E-04
4.664105E+03	1.755508E-03	3.004518E-04
4.674008E+03	1.755821E-03	3.000600E-04
4.683910E+03	1.756433E-03	2.997193E-04
4.693813E+03	1.757347E-03	2.994299E-04
4.703715E+03	1.758563E-03	2.991917E-04
4.713618E+03	1.760083E-03	2.990046E-04
4.723521E+03	1.761903E-03	2.988679E-04
4.733423E+03	1.764005E-03	2.987781E-04
4.743326E+03	1.766401E-03	2.987371E-04
4.753228E+03	1.769052E-03	2.987381E-04
4.763131E+03	1.771985E-03	2.987855E-04
4.773033E+03	1.775159E-03	2.988720E-04
4.782936E+03	1.778580E-03	2.989986E-04
4.792838E+03	1.782239E-03	2.991636E-04
4.802741E+03	1.786090E-03	2.993590E-04
4.812644E+03	1.790156E-03	2.995885E-04
4.822546E+03	1.794406E-03	2.998469E-04
4.832449E+03	1.798845E-03	3.001347E-04
4.842351E+03	1.803406E-03	3.004407E-04
4.852254E+03	1.808127E-03	3.007712E-04
4.862156E+03	1.812960E-03	3.011177E-04
4.872059E+03	1.817906E-03	3.014808E-04
4.881961E+03	1.822933E-03	3.018550E-04
4.891864E+03	1.828045E-03	3.022407E-04
4.901767E+03	1.833191E-03	3.026296E-04
4.911669E+03	1.838374E-03	3.030221E-04
4.921572E+03	1.843600E-03	3.034190E-04
4.931474E+03	1.848817E-03	3.038120E-04
4.941377E+03	1.854011E-03	3.041988E-04
4.951279E+03	1.859189E-03	3.045803E-04
4.961182E+03	1.864336E-03	3.049544E-04
4.971085E+03	1.869404E-03	3.053130E-04
4.980987E+03	1.874398E-03	3.056572E-04
4.990890E+03	1.879305E-03	3.059848E-04
5.000792E+03	1.884113E-03	3.062939E-04
5.010695E+03	1.888789E-03	3.065796E-04
5.020597E+03	1.893321E-03	3.068396E-04
5.030500E+03	1.897714E-03	3.070749E-04
5.040402E+03	1.901915E-03	3.072773E-04
5.050305E+03	1.905928E-03	3.074475E-04
5.060208E+03	1.909719E-03	3.075800E-04
5.070110E+03	1.913269E-03	3.076723E-04
5.080013E+03	1.916562E-03	3.077216E-04
5.089915E+03	1.919578E-03	3.077252E-04
5.099818E+03	1.922277E-03	3.076768E-04
5.109720E+03	1.924657E-03	3.075764E-04
5.119623E+03	1.926656E-03	3.074144E-04
5.129525E+03	1.928269E-03	3.071901E-04
5.139428E+03	1.929450E-03	3.068968E-04
5.149331E+03	1.930173E-03	3.065304E-04
5.159233E+03	1.930408E-03	3.060868E-04
5.169136E+03	1.930127E-03	3.055617E-04
5.179038E+03	1.929259E-03	3.049445E-04
5.188941E+03	1.927812E-03	3.042369E-04
5.198843E+03	1.925697E-03	3.034251E-04
5.208746E+03	1.922921E-03	3.025109E-04
5.218648E+03	1.919414E-03	3.014838E-04
5.228551E+03	1.915164E-03	3.003427E-04
5.238454E+03	1.910125E-03	2.990805E-04
5.248356E+03	1.904250E-03	2.976909E-04
5.258259E+03	1.897535E-03	2.961737E-04
5.268161E+03	1.889922E-03	2.945205E-04
5.278064E+03	1.881414E-03	2.927326E-04
5.287966E+03	1.871982E-03	2.908059E-04
5.297869E+03	1.861602E-03	2.887377E-04
5.307772E+03	1.850277E-03	2.865289E-04
5.317674E+03	1.838015E-03	2.841817E-04
5.327577E+03	1.824834E-03	2.816994E-04
5.337479E+03	1.810722E-03	2.790810E-04
5.347382E+03	1.795733E-03	2.763353E-04
5.357284E+03	1.779892E-03	2.734669E-04
5.367187E+03	1.763269E-03	2.704872E-04
5.377089E+03	1.745890E-03	2.674008E-04
5.386992E+03	1.727878E-03	2.642268E-04
5.396895E+03	1.709325E-03	2.609799E-04
5.406797E+03	1.690415E-03	2.576887E-04
5.416700E+03	1.671200E-03	2.543610E-04
5.426602E+03	1.651654E-03	2.509934E-04
5.436505E+03	1.631792E-03	2.475881E-04
5.446407E+03	1.611682E-03	2.441556E-04
5.456310E+03	1.591457E-03	2.407163E-04
5.466212E+03	1.571170E-03	2.372782E-04
5.476115E+03	1.550969E-03	2.338635E-04
5.486018E+03	1.530922E-03	2.304824E-04
5.495920E+03	1.511140E-03	2.271515E-04
5.505823E+03	1.491734E-03	2.238871E-04
5.515725E+03	1.472809E-03	2.207048E-04
5.525628E+03	1.454437E-03	2.176148E-04
5.535530E+03	1.436713E-03	2.146310E-04
5.545433E+03	1.419726E-03	2.117661E-04
5.555335E+03	1.403543E-03	2.090297E-04
5.565238E+03	1.388224E-03	2.064299E-04
5.575141E+03	1.373849E-03	2.039780E-04
5.585043E+03	1.360443E-03	2.016774E-04
5.594946E+03	1.348055E-03	1.995341E-04
5.604848E+03	1.336706E-03	1.975509E-04
5.614751E+03	1.326423E-03	1.957309E-04
5.624653E+03	1.317212E-03	1.940741E-04
5.634556E+03	1.309066E-03	1.925792E-04
5.644459E+03	1.301989E-03	1.912454E-04
5.654361E+03	1.295975E-03	1.900715E-04
5.664264E+03	1.290985E-03	1.890512E-04
5.674166E+03	1.287006E-03	1.881815E-04
5.684069E+03	1.284005E-03	1.874571E-04
5.693971E+03	1.281948E-03	1.868725E-04
5.703874E+03	1.280829E-03	1.864260E-04
5.713776E+03	1.280586E-03	1.861080E-04
5.723679E+03	1.281212E-03	1.859171E-04
5.733582E+03	1.282662E-03	1.858461E-04
5.743484E+03	1.284920E-03	1.858920E-04
5.753387E+03	1.287959E-03	1.860506E-04
5.763289E+03	1.291754E-03	1.863176E-04
5.773192E+03	1.296295E-03	1.866914E-04
5.783094E+03	1.301550E-03	1.871665E-04
5.792997E+03	1.307514E-03	1.877421E-04
5.802899E+03	1.314171E-03	1.884152E-04
5.812802E+03	1.321492E-03	1.891815E-04
5.822705E+03	1.329494E-03	1.900428E-04
5.832607E+03	1.338134E-03	1.909927E-04
5.842510E+03	1.347432E-03	1.920335E-04
5.852412E+03	1.357360E-03	1.931610E-04
5.862315E+03	1.367908E-03	1.943735E-04
5.872217E+03	1.379080E-03	1.956709E-04
5.882120E+03	1.390833E-03	1.970470E-04
5.892022E+03	1.403169E-03	1.985016E-04
5.901925E+03	1.416089E-03	2.000348E-04
5.911828E+03	1.429547E-03	2.016395E-04
5.921730E+03	1.443543E-03	2.033155E-04
5.931633E+03	1.458058E-03	2.050600E-04
5.941535E+03	1.473058E-03	2.068677E-04
5.951438E+03	1.488522E-03	2.087357E-04
5.961340E+03	1.504430E-03	2.106608E-04
5.971243E+03	1.520742E-03	2.126372E-04
5.981146E+03	1.537436E-03	2.146617E-04
5.991048E+03	1.554506E-03	2.167334E-04
6.000951E+03	1.571874E-03	2.188411E-04
6.010853E+03	1.589552E-03	2.209866E-04
6.020756E+03	1.607458E-03	2.231582E-04
6.030658E+03	1.625603E-03	2.253575E-04
6.040561E+03	1.643903E-03	2.275727E-04
6.050463E+03	1.662348E-03	2.298025E-04
6.060366E+03	1.680867E-03	2.320373E-04
6.070269E+03	1.699451E-03	2.342755E-04
6.080171E+03	1.718024E-03	2.365071E-04
6.090074E+03	1.736531E-03	2.387243E-04
6.099976E+03	1.754953E-03	2.409250E-04
6.109879E+03	1.773211E-03	2.430983E-04
6.119781E+03	1.791285E-03	2.452416E-04
6.129684E+03	1.809137E-03	2.473501E-04
6.139586E+03	1.826733E-03	2.494192E-04
6.149489E+03	1.844043E-03	2.514453E-04
6.159392E+03	1.861091E-03	2.534317E-04
6.169294E+03	1.877851E-03	2.553754E-04
6.179197E+03	1.894327E-03	2.572770E-04
6.189099E+03	1.910522E-03	2.591372E-04
6.199002E+03	1.926490E-03	2.609637E-04
6.208904E+03	1.942194E-03	2.627516E-04
6.218807E+03	1.957637E-03	2.645016E-04
6.228709E+03	1.972859E-03	2.662191E-04
6.238612E+03	1.987873E-03	2.679061E-04
6.248515E+03	2.002673E-03	2.695616E-04
6.258417E+03	2.017243E-03	2.711839E-04
6.268320E+03	2.031629E-03	2.727793E-04
6.278222E+03	2.045800E-03	2.743433E-04
6.288125E+03	2.059769E-03	2.758782E-04
6.298027E+03	2.073531E-03	2.773831E-04
6.307930E+03	2.087076E-03	2.788569E-04
6.317833E+03	2.100394E-03	2.802984E-04
6.327735E+03	2.113479E-03	2.817066E-04
6.337638E+03	2.126313E-03	2.830797E-04
6.347540E+03	2.138857E-03	2.844121E-04
6.357443E+03	2.151127E-03	2.857064E-04
6.367345E+03	2.163111E-03	2.869610E-04
6.377248E+03	2.174823E-03	2.881779E-04
6.387150E+03	2.186285E-03	2.893600E-04
6.397053E+03	2.197451E-03	2.905014E-04
6.406956E+03	2.208374E-03	2.916091E-04
6.416858E+03	2.219041E-03	2.926818E-04
6.426761E+03	2.229478E-03	2.937226E-04
6.436663E+03	2.239643E-03	2.947264E-04
6.446566E+03	2.249596E-03	2.957011E-04
6.456468E+03	2.259300E-03	2.966416E-04
6.466371E+03	2.268782E-03	2.975520E-04
6.476273E+03	2.278006E-03	2.984275E-04
6.486176E+03	2.287006E-03	2.992725E-04
6.496079E+03	2.295821E-03	3.000923E-04
6.505981E+03	2.304377E-03	3.008773E-04
6.515884E+03	2.312714E-03	3.016328E-04
6.525786E+03	2.320871E-03	3.023641E-04
6.535689E+03	2.328782E-03	3.030623E-04
6.545591E+03	2.336520E-03	3.037373E-04
6.555494E+03	2.344017E-03	3.043804E-04
6.565396E+03	2.351351E-03	3.050015E-04
6.575299E+03	2.358449E-03	3.055914E-04
6.585202E+03	2.365349E-03	3.061552E-04
6.595104E+03	2.372055E-03	3.066933E-04
6.605007E+03	2.378524E-03	3.072003E-04
6.614909E+03	2.384796E-03	3.076815E-04
6.624812E+03	2.390830E-03	3.081317E-04
6.634714E+03	2.396621E-03	3.085504E-04
6.644617E+03	2.402207E-03	3.089423E-04
6.654520E+03	2.407542E-03	3.093020E-04
6.664422E+03	2.412583E-03	3.096238E-04
6.674325E+03	2.417404E-03	3.099175E-04
6.684227E+03	2.421920E-03	3.101721E-04
6.694130E+03	2.426164E-03	3.103923E-04
6.704032E+03	2.430136E-03	3.105778E-04
6.713935E+03	2.433784E-03	3.107225E-04
6.723837E+03	2.437105E-03	3.108259E-04
6.733740E+03	2.440090E-03	3.108871E-04
6.743643E+03	2.442780E-03	3.109116E-04
6.753545E+03	2.445126E-03	3.108931E-04
6.763448E+03	2.447077E-03	3.108253E-04
6.773350E+03	2.448671E-03	3.107133E-04
6.783253E+03	2.449903E-03	3.105567E-04
6.793155E+03	2.450771E-03	3.103553E-04
6.803058E+03	2.451222E-03	3.101026E-04
6.812960E+03	2.451252E-03	3.097984E-04
6.822863E+03	2.450905E-03	3.094483E-04
6.832766E+03	2.450127E-03	3.090458E-04
6.842668E+03	2.448920E-03	3.085913E-04
6.852571E+03	2.447279E-03	3.080843E-04
6.862473E+03	2.445201E-03	3.075249E-04
6.872376E+03	2.442686E-03	3.069130E-04
6.882278E+03	2.439732E-03	3.062487E-04
6.892181E+03	2.436293E-03	3.055265E-04
6.902083E+03	2.432369E-03	3.047464E-04
6.911986E+03	2.428007E-03	3.039149E-04
6.921889E+03	2.423212E-03	3.030325E-04
6.931791E+03	2.417889E-03	3.020876E-04
6.941694E+03	2.412141E-03	3.010934E-04
6.951596E+03	2.405923E-03	3.000446E-04
6.961499E+03	2.399245E-03	2.989423E-04
6.971401E+03	2.392065E-03	2.977819E-04
6.981304E+03	2.384441E-03	2.965704E-04
6.991207E+03	2.376382E-03	2.953095E-04
7.001109E+03	2.367900E-03	2.940008E-04
7.011012E+03	2.358961E-03	2.926402E-04
7.020914E+03	2.349578E-03	2.912295E-04
7.030817E+03	2.339811E-03	2.897763E-04
7.040719E+03	2.329631E-03	2.882774E-04
7.050622E+03	2.319007E-03	2.867290E-04
7.060524E+03	2.308053E-03	2.851454E-04
7.070427E+03	2.296740E-03	2.835231E-04
7.080330E+03	2.285092E-03	2.818653E-04
7.090232E+03	2.273082E-03	2.801687E-04
7.100135E+03	2.260783E-03	2.784426E-04
7.110037E+03	2.248221E-03	2.766902E-04
7.119940E+03	2.235376E-03	2.749093E-04
7.129842E+03	2.222275E-03	2.731032E-04
7.139745E+03	2.208995E-03	2.712815E-04
7.149647E+03	2.195519E-03	2.694423E-04
7.159550E+03	2.181877E-03	2.675892E-04
7.169453E+03	2.168099E-03	2.657260E-04
7.179355E+03	2.154213E-03	2.638564E-04
7.189258E+03	2.140203E-03	2.619782E-04
7.199160E+03	2.126189E-03	2.601062E-04
7.209063E+03	2.112148E-03	2.582377E-04
7.218965E+03	2.098020E-03	2.563653E-04
7.228868E+03	2.083957E-03	2.545078E-04
7.238770E+03	2.069854E-03	2.526522E-04
7.248673E+03	2.055816E-03	2.508114E-04
7.258576E+03	2.041825E-03	2.489831E-04
7.268478E+03	2.027897E-03	2.471695E-04
7.278381E+03	2.014014E-03	2.453682E-04
7.288283E+03	2.000200E-03	2.435822E-04
7.298186E+03	1.986478E-03	2.418142E-04
7.308088E+03	1.972874E-03	2.400676E-04
7.317991E+03	1.959334E-03	2.383356E-04
7.327894E+03	1.945936E-03	2.366277E-04
7.337796E+03	1.932630E-03	2.349378E-04
7.347699E+03	1.919413E-03	2.332657E-04
7.357601E+03	1.906290E-03	2.316117E-04
7.367504E+03	1.893346E-03	2.299864E-04
7.377406E+03	1.880630E-03	2.283955E-04
7.387309E+03	1.868270E-03	2.268547E-04
7.397211E+03	1.856391E-03	2.253789E-04
7.407114E+03	1.844995E-03	2.239682E-04
7.417017E+03	1.834157E-03	2.226314E-04
7.426919E+03	1.823984E-03	2.213815E-04
7.436822E+03	1.814416E-03	2.202107E-04
7.446724E+03	1.805539E-03	2.191293E-04
7.456627E+03	1.797347E-03	2.181365E-04
7.466529E+03	1.789828E-03	2.172306E-04
7.476432E+03	1.782956E-03	2.164082E-04
7.486334E+03	1.776708E-03	2.156665E-04
7.496237E+03	1.771089E-03	2.150060E-04
7.506140E+03	1.766029E-03	2.144178E-04
7.516042E+03	1.761533E-03	2.139027E-04
7.525945E+03	1.757526E-03	2.134514E-04
7.535847E+03	1.754015E-03	2.130645E-04
7.545750E+03	1.750968E-03	2.127382E-04
7.555652E+03	1.748311E-03	2.124634E-04
7.565555E+03	1.746056E-03	2.122413E-04
7.575457E+03	1.744174E-03	2.120686E-04
7.585360E+03	1.742597E-03	2.119367E-04
7.595263E+03	1.741336E-03	2.118471E-04
7.605165E+03	1.740330E-03	2.117920E-04
7.615068E+03	1.739634E-03	2.117783E-04
7.624970E+03	1.739145E-03	2.117933E-04
7.634873E+03	1.738879E-03	2.118389E-04
7.644775E+03	1.738776E-03	2.119078E-04
7.654678E+03	1.738859E-03	2.120026E-04
7.664581E+03	1.739105E-03	2.121206E-04
7.674483E+03	1.739498E-03	2.122596E-04
7.684386E+03	1.739978E-03	2.124124E-04
