#wls	flux	fluxerr
1.584409E+03	5.685203E-03	1.698959E-03
1.624020E+03	5.852015E-03	1.748787E-03
1.663630E+03	6.007966E-03	1.795367E-03
1.703240E+03	6.151820E-03	1.838330E-03
1.742850E+03	6.279804E-03	1.876547E-03
1.782461E+03	6.391611E-03	1.909928E-03
1.822071E+03	6.483326E-03	1.937302E-03
1.861681E+03	6.553930E-03	1.958365E-03
1.901291E+03	6.601239E-03	1.972465E-03
1.940902E+03	6.622133E-03	1.978670E-03
1.980512E+03	6.615815E-03	1.976743E-03
2.020122E+03	6.580160E-03	1.966047E-03
2.059732E+03	6.513486E-03	1.946083E-03
2.099342E+03	6.414656E-03	1.916509E-03
2.138953E+03	6.282360E-03	1.876937E-03
2.178563E+03	6.114721E-03	1.826805E-03
2.218173E+03	5.910251E-03	1.765671E-03
2.257783E+03	5.670188E-03	1.693905E-03
2.297394E+03	5.399465E-03	1.612982E-03
2.337004E+03	5.106283E-03	1.525352E-03
2.376614E+03	4.797234E-03	1.432987E-03
2.416224E+03	4.478290E-03	1.337669E-03
2.455835E+03	4.153850E-03	1.240715E-03
2.495445E+03	3.828447E-03	1.143478E-03
2.535055E+03	3.505793E-03	1.047067E-03
2.574665E+03	3.189631E-03	9.526015E-04
2.614276E+03	2.882972E-03	8.609800E-04
2.653886E+03	2.588570E-03	7.730252E-04
2.693496E+03	2.308841E-03	6.894584E-04
2.733106E+03	2.045603E-03	6.108222E-04
2.772716E+03	1.800353E-03	5.375633E-04
2.812327E+03	1.574149E-03	4.699974E-04
2.851937E+03	1.367722E-03	4.083423E-04
2.891547E+03	1.181449E-03	3.527096E-04
2.931157E+03	1.015264E-03	3.030793E-04
2.970768E+03	8.686994E-04	2.593108E-04
2.980670E+03	8.350263E-04	2.492554E-04
2.990573E+03	8.024916E-04	2.395401E-04
3.000475E+03	7.711066E-04	2.301682E-04
3.010378E+03	7.408110E-04	2.211218E-04
3.020280E+03	7.116125E-04	2.124030E-04
3.030183E+03	6.834833E-04	2.040037E-04
3.040086E+03	6.564092E-04	1.959195E-04
3.049988E+03	6.303351E-04	1.881340E-04
3.059891E+03	6.052724E-04	1.806507E-04
3.069793E+03	5.811677E-04	1.734534E-04
3.079696E+03	5.580161E-04	1.665409E-04
3.089598E+03	5.357884E-04	1.599042E-04
3.099501E+03	5.144452E-04	1.535318E-04
3.109403E+03	4.939790E-04	1.474213E-04
3.119306E+03	4.743515E-04	1.415612E-04
3.129209E+03	4.555437E-04	1.359460E-04
3.139111E+03	4.375274E-04	1.305671E-04
3.149014E+03	4.202757E-04	1.254166E-04
3.158916E+03	4.037693E-04	1.204887E-04
3.168819E+03	3.879805E-04	1.157750E-04
3.178721E+03	3.728771E-04	1.112660E-04
3.188624E+03	3.584468E-04	1.069580E-04
3.198526E+03	3.446574E-04	1.028414E-04
3.208429E+03	3.314908E-04	9.891078E-05
3.218332E+03	3.189223E-04	9.515876E-05
3.228234E+03	3.069238E-04	9.157690E-05
3.238137E+03	2.954823E-04	8.816137E-05
3.248039E+03	2.845661E-04	8.490270E-05
3.257942E+03	2.741630E-04	8.179722E-05
3.267844E+03	2.642516E-04	7.883853E-05
3.277747E+03	2.548035E-04	7.601819E-05
3.287650E+03	2.458073E-04	7.333273E-05
3.297552E+03	2.372436E-04	7.077642E-05
3.307455E+03	2.290905E-04	6.834270E-05
3.317357E+03	2.213306E-04	6.602638E-05
3.327260E+03	2.139472E-04	6.382242E-05
3.337162E+03	2.069239E-04	6.172599E-05
3.347065E+03	2.002452E-04	5.973241E-05
3.356967E+03	1.938959E-04	5.783718E-05
3.366870E+03	1.878592E-04	5.603526E-05
3.376773E+03	1.821192E-04	5.432192E-05
3.386675E+03	1.766676E-04	5.269465E-05
3.396578E+03	1.714852E-04	5.114774E-05
3.406480E+03	1.665625E-04	4.967834E-05
3.416383E+03	1.618863E-04	4.828252E-05
3.426285E+03	1.574460E-04	4.695710E-05
3.436188E+03	1.532278E-04	4.569798E-05
3.446090E+03	1.492206E-04	4.450185E-05
3.455993E+03	1.454158E-04	4.336611E-05
3.465896E+03	1.418018E-04	4.228731E-05
3.475798E+03	1.383708E-04	4.126313E-05
3.485701E+03	1.351094E-04	4.028960E-05
3.495603E+03	1.320115E-04	3.936481E-05
3.505506E+03	1.290663E-04	3.848563E-05
3.515408E+03	1.262659E-04	3.764964E-05
3.525311E+03	1.236024E-04	3.685451E-05
3.535213E+03	1.210662E-04	3.609738E-05
3.545116E+03	1.186532E-04	3.537698E-05
3.555019E+03	1.163558E-04	3.469110E-05
3.564921E+03	1.141670E-04	3.403764E-05
3.574824E+03	1.120837E-04	3.341563E-05
3.584726E+03	1.100984E-04	3.282286E-05
3.594629E+03	1.082062E-04	3.225788E-05
3.604531E+03	1.064025E-04	3.171933E-05
3.614434E+03	1.046831E-04	3.120590E-05
3.624337E+03	1.030437E-04	3.071636E-05
3.634239E+03	1.014805E-04	3.024953E-05
3.644142E+03	9.999051E-05	2.980456E-05
3.654044E+03	9.857103E-05	2.938061E-05
3.663947E+03	9.721850E-05	2.897664E-05
3.673849E+03	9.593280E-05	2.859260E-05
3.683752E+03	9.470968E-05	2.822723E-05
3.693654E+03	9.354825E-05	2.788026E-05
3.703557E+03	9.244600E-05	2.755094E-05
3.713460E+03	9.140126E-05	2.723878E-05
3.723362E+03	9.041393E-05	2.694373E-05
3.733265E+03	8.948003E-05	2.666461E-05
3.743167E+03	8.859946E-05	2.640140E-05
3.753070E+03	8.777137E-05	2.615383E-05
3.762972E+03	8.699266E-05	2.592099E-05
3.772875E+03	8.626322E-05	2.570283E-05
3.782777E+03	8.558218E-05	2.549910E-05
3.792680E+03	8.494734E-05	2.530915E-05
3.802583E+03	8.435717E-05	2.513250E-05
3.812485E+03	8.381225E-05	2.496934E-05
3.822388E+03	8.330975E-05	2.481883E-05
3.832290E+03	8.284959E-05	2.468093E-05
3.842193E+03	8.243035E-05	2.455522E-05
3.852095E+03	8.205131E-05	2.444149E-05
3.861998E+03	8.171179E-05	2.433953E-05
3.871900E+03	8.140975E-05	2.424873E-05
3.881803E+03	8.114459E-05	2.416892E-05
3.891706E+03	8.091631E-05	2.410009E-05
3.901608E+03	8.072364E-05	2.404187E-05
3.911511E+03	8.056536E-05	2.399388E-05
3.921413E+03	8.044095E-05	2.395598E-05
3.931316E+03	8.034917E-05	2.392779E-05
3.941218E+03	8.028960E-05	2.390918E-05
3.951121E+03	8.026170E-05	2.390001E-05
3.961024E+03	8.026503E-05	2.390012E-05
3.970926E+03	8.029786E-05	2.390901E-05
3.980829E+03	8.035981E-05	2.392657E-05
3.990731E+03	8.045044E-05	2.395265E-05
4.000634E+03	8.056944E-05	2.398717E-05
4.010536E+03	8.071579E-05	2.402982E-05
4.020439E+03	8.088858E-05	2.408034E-05
4.030341E+03	8.108745E-05	2.413860E-05
4.040244E+03	8.131152E-05	2.420436E-05
4.050147E+03	8.156051E-05	2.427752E-05
4.060049E+03	8.183358E-05	2.435783E-05
4.069952E+03	8.213043E-05	2.444521E-05
4.079854E+03	8.245027E-05	2.453942E-05
4.089757E+03	8.279224E-05	2.464019E-05
4.099659E+03	8.315618E-05	2.474749E-05
4.109562E+03	8.354128E-05	2.486107E-05
4.119464E+03	8.394742E-05	2.498089E-05
4.129367E+03	8.437315E-05	2.510652E-05
4.139270E+03	8.481832E-05	2.523792E-05
4.149172E+03	8.528157E-05	2.537468E-05
4.159075E+03	8.576341E-05	2.551694E-05
4.168977E+03	8.626245E-05	2.566431E-05
4.178880E+03	8.677860E-05	2.581674E-05
4.188782E+03	8.730980E-05	2.597363E-05
4.198685E+03	8.785661E-05	2.613514E-05
4.208587E+03	8.841696E-05	2.630065E-05
4.218490E+03	8.899142E-05	2.647034E-05
4.228393E+03	8.957793E-05	2.664358E-05
4.238295E+03	9.017498E-05	2.681994E-05
4.248198E+03	9.078319E-05	2.699958E-05
4.258100E+03	9.139963E-05	2.718165E-05
4.268003E+03	9.202496E-05	2.736634E-05
4.277905E+03	9.265616E-05	2.755274E-05
4.287808E+03	9.329387E-05	2.774105E-05
4.297711E+03	9.393649E-05	2.793080E-05
4.307613E+03	9.458239E-05	2.812148E-05
4.317516E+03	9.523150E-05	2.831310E-05
4.327418E+03	9.588288E-05	2.850536E-05
4.337321E+03	9.653717E-05	2.869846E-05
4.347223E+03	9.719275E-05	2.889190E-05
4.357126E+03	9.785111E-05	2.908615E-05
4.367028E+03	9.851218E-05	2.928117E-05
4.376931E+03	9.917596E-05	2.947696E-05
4.386834E+03	9.984246E-05	2.967353E-05
4.396736E+03	1.005126E-04	2.987114E-05
4.406639E+03	1.011855E-04	3.006956E-05
4.416541E+03	1.018623E-04	3.026909E-05
4.426444E+03	1.025430E-04	3.046974E-05
4.436346E+03	1.032278E-04	3.067159E-05
4.446249E+03	1.039161E-04	3.087443E-05
4.456151E+03	1.046081E-04	3.107834E-05
4.466054E+03	1.053031E-04	3.128313E-05
4.475957E+03	1.060024E-04	3.148913E-05
4.485859E+03	1.067044E-04	3.169592E-05
4.495762E+03	1.074095E-04	3.190359E-05
4.505664E+03	1.081181E-04	3.211225E-05
4.515567E+03	1.088287E-04	3.232145E-05
4.525469E+03	1.095426E-04	3.253162E-05
4.535372E+03	1.102583E-04	3.274231E-05
4.545274E+03	1.109765E-04	3.295367E-05
4.555177E+03	1.116957E-04	3.316527E-05
4.565080E+03	1.124172E-04	3.337756E-05
4.574982E+03	1.131408E-04	3.359040E-05
4.584885E+03	1.138652E-04	3.380343E-05
4.594787E+03	1.145908E-04	3.401679E-05
4.604690E+03	1.153184E-04	3.423071E-05
4.614592E+03	1.160478E-04	3.444510E-05
4.624495E+03	1.167775E-04	3.465957E-05
4.634398E+03	1.175106E-04	3.487497E-05
4.644300E+03	1.182478E-04	3.509158E-05
4.654203E+03	1.189881E-04	3.530904E-05
4.664105E+03	1.197324E-04	3.552764E-05
4.674008E+03	1.204817E-04	3.574770E-05
4.683910E+03	1.212338E-04	3.596855E-05
4.693813E+03	1.219900E-04	3.619054E-05
4.703715E+03	1.227489E-04	3.641331E-05
4.713618E+03	1.235119E-04	3.663724E-05
4.723521E+03	1.242789E-04	3.686231E-05
4.733423E+03	1.250490E-04	3.708824E-05
4.743326E+03	1.258233E-04	3.731537E-05
4.753228E+03	1.266008E-04	3.754340E-05
4.763131E+03	1.273828E-04	3.777272E-05
4.773033E+03	1.281682E-04	3.800301E-05
4.782936E+03	1.289573E-04	3.823432E-05
4.792838E+03	1.297501E-04	3.846668E-05
4.802741E+03	1.305480E-04	3.870052E-05
4.812644E+03	1.313501E-04	3.893552E-05
4.822546E+03	1.321564E-04	3.917174E-05
4.832449E+03	1.329659E-04	3.940883E-05
4.842351E+03	1.337812E-04	3.964761E-05
4.852254E+03	1.346013E-04	3.988773E-05
4.862156E+03	1.354263E-04	4.012926E-05
4.872059E+03	1.362551E-04	4.037186E-05
4.881961E+03	1.370891E-04	4.061594E-05
4.891864E+03	1.379271E-04	4.086115E-05
4.901767E+03	1.387693E-04	4.110753E-05
4.911669E+03	1.396170E-04	4.135549E-05
4.921572E+03	1.404690E-04	4.160466E-05
4.931474E+03	1.413253E-04	4.185505E-05
4.941377E+03	1.421847E-04	4.210626E-05
4.951279E+03	1.430484E-04	4.235871E-05
4.961182E+03	1.439164E-04	4.261238E-05
4.971085E+03	1.447874E-04	4.286687E-05
4.980987E+03	1.456613E-04	4.312212E-05
4.990890E+03	1.465379E-04	4.337814E-05
5.000792E+03	1.474158E-04	4.363445E-05
5.010695E+03	1.482961E-04	4.389143E-05
5.020597E+03	1.491788E-04	4.414902E-05
5.030500E+03	1.500607E-04	4.440632E-05
5.040402E+03	1.509429E-04	4.466365E-05
5.050305E+03	1.518253E-04	4.492097E-05
5.060208E+03	1.527061E-04	4.517773E-05
5.070110E+03	1.535849E-04	4.543381E-05
5.080013E+03	1.544612E-04	4.568911E-05
5.089915E+03	1.553347E-04	4.594349E-05
5.099818E+03	1.562034E-04	4.619639E-05
5.109720E+03	1.570683E-04	4.644808E-05
5.119623E+03	1.579258E-04	4.669752E-05
5.129525E+03	1.587768E-04	4.694496E-05
5.139428E+03	1.596191E-04	4.718975E-05
5.149331E+03	1.604520E-04	4.743170E-05
5.159233E+03	1.612748E-04	4.767058E-05
5.169136E+03	1.620867E-04	4.790616E-05
5.179038E+03	1.628836E-04	4.813726E-05
5.188941E+03	1.636680E-04	4.836455E-05
5.198843E+03	1.644372E-04	4.858731E-05
5.208746E+03	1.651904E-04	4.880526E-05
5.218648E+03	1.659250E-04	4.901763E-05
5.228551E+03	1.666400E-04	4.922414E-05
5.238454E+03	1.673344E-04	4.942448E-05
5.248356E+03	1.680071E-04	4.961837E-05
5.258259E+03	1.686573E-04	4.980552E-05
5.268161E+03	1.692822E-04	4.998513E-05
5.278064E+03	1.698842E-04	5.015790E-05
5.287966E+03	1.704590E-04	5.032259E-05
5.297869E+03	1.710057E-04	5.047893E-05
5.307772E+03	1.715269E-04	5.062764E-05
5.317674E+03	1.720182E-04	5.076751E-05
5.327577E+03	1.724825E-04	5.089931E-05
5.337479E+03	1.729173E-04	5.102234E-05
5.347382E+03	1.733237E-04	5.113693E-05
5.357284E+03	1.736994E-04	5.124242E-05
5.367187E+03	1.740474E-04	5.133968E-05
5.377089E+03	1.743657E-04	5.142810E-05
5.386992E+03	1.746555E-04	5.150808E-05
5.396895E+03	1.749133E-04	5.157855E-05
5.406797E+03	1.751405E-04	5.163997E-05
5.416700E+03	1.753354E-04	5.169179E-05
5.426602E+03	1.754961E-04	5.173350E-05
5.436505E+03	1.756244E-04	5.176562E-05
5.446407E+03	1.757170E-04	5.178716E-05
5.456310E+03	1.757723E-04	5.179766E-05
5.466212E+03	1.757905E-04	5.179717E-05
5.476115E+03	1.757683E-04	5.178477E-05
5.486018E+03	1.757080E-04	5.176109E-05
5.495920E+03	1.756046E-04	5.172469E-05
5.505823E+03	1.754622E-04	5.167675E-05
5.515725E+03	1.752795E-04	5.161693E-05
5.525628E+03	1.750553E-04	5.154488E-05
5.535530E+03	1.747904E-04	5.146080E-05
5.545433E+03	1.744853E-04	5.136489E-05
5.555335E+03	1.741391E-04	5.125685E-05
5.565238E+03	1.737561E-04	5.113796E-05
5.575141E+03	1.733335E-04	5.100743E-05
5.585043E+03	1.728758E-04	5.086653E-05
5.594946E+03	1.723803E-04	5.071450E-05
5.604848E+03	1.718513E-04	5.055265E-05
5.614751E+03	1.712900E-04	5.038128E-05
5.624653E+03	1.706955E-04	5.020013E-05
5.634556E+03	1.700705E-04	5.001003E-05
5.644459E+03	1.694161E-04	4.981129E-05
5.654361E+03	1.687351E-04	4.960475E-05
5.664264E+03	1.680286E-04	4.939073E-05
5.674166E+03	1.672960E-04	4.916903E-05
5.684069E+03	1.665418E-04	4.894103E-05
5.693971E+03	1.657674E-04	4.870709E-05
5.703874E+03	1.649721E-04	4.846704E-05
5.713776E+03	1.641589E-04	4.822176E-05
5.723679E+03	1.633309E-04	4.797213E-05
5.733582E+03	1.624892E-04	4.771852E-05
5.743484E+03	1.616335E-04	4.746083E-05
5.753387E+03	1.607669E-04	4.719995E-05
5.763289E+03	1.598923E-04	4.693678E-05
5.773192E+03	1.590112E-04	4.667173E-05
5.783094E+03	1.581233E-04	4.640469E-05
5.792997E+03	1.572315E-04	4.613658E-05
5.802899E+03	1.563374E-04	4.586781E-05
5.812802E+03	1.554441E-04	4.559929E-05
5.822705E+03	1.545529E-04	4.533143E-05
5.832607E+03	1.536634E-04	4.506414E-05
5.842510E+03	1.527789E-04	4.479831E-05
5.852412E+03	1.518988E-04	4.453384E-05
5.862315E+03	1.510297E-04	4.427261E-05
5.872217E+03	1.501678E-04	4.401351E-05
5.882120E+03	1.493159E-04	4.375742E-05
5.892022E+03	1.484771E-04	4.350517E-05
5.901925E+03	1.476508E-04	4.325662E-05
5.911828E+03	1.468381E-04	4.301211E-05
5.921730E+03	1.460418E-04	4.277244E-05
5.931633E+03	1.452614E-04	4.253743E-05
5.941535E+03	1.444994E-04	4.230785E-05
5.951438E+03	1.437535E-04	4.208301E-05
5.961340E+03	1.430278E-04	4.186414E-05
5.971243E+03	1.423199E-04	4.165050E-05
5.981146E+03	1.416339E-04	4.144329E-05
5.991048E+03	1.409656E-04	4.124126E-05
6.000951E+03	1.403189E-04	4.104559E-05
6.010853E+03	1.396927E-04	4.085595E-05
6.020756E+03	1.390877E-04	4.067252E-05
6.030658E+03	1.385010E-04	4.049448E-05
6.040561E+03	1.379364E-04	4.032289E-05
6.050463E+03	1.373893E-04	4.015645E-05
6.060366E+03	1.368634E-04	3.999621E-05
6.070269E+03	1.363539E-04	3.984081E-05
6.080171E+03	1.358612E-04	3.969029E-05
6.090074E+03	1.353837E-04	3.954424E-05
6.099976E+03	1.349215E-04	3.940268E-05
6.109879E+03	1.344698E-04	3.926416E-05
6.119781E+03	1.340284E-04	3.912867E-05
6.129684E+03	1.335956E-04	3.899572E-05
6.139586E+03	1.331713E-04	3.886525E-05
6.149489E+03	1.327553E-04	3.873721E-05
6.159392E+03	1.323508E-04	3.861251E-05
6.169294E+03	1.319626E-04	3.849258E-05
6.179197E+03	1.315921E-04	3.837783E-05
6.189099E+03	1.312425E-04	3.826918E-05
6.199002E+03	1.309170E-04	3.816754E-05
6.208904E+03	1.306172E-04	3.807338E-05
6.218807E+03	1.303461E-04	3.798759E-05
6.228709E+03	1.301053E-04	3.791065E-05
6.238612E+03	1.298965E-04	3.784299E-05
6.248515E+03	1.297230E-04	3.778559E-05
6.258417E+03	1.295845E-04	3.773841E-05
6.268320E+03	1.294847E-04	3.770245E-05
6.278222E+03	1.294217E-04	3.767718E-05
6.288125E+03	1.293972E-04	3.766308E-05
6.298027E+03	1.294112E-04	3.766016E-05
6.307930E+03	1.294655E-04	3.766893E-05
6.317833E+03	1.295584E-04	3.768889E-05
6.327735E+03	1.296898E-04	3.772000E-05
6.337638E+03	1.298580E-04	3.776177E-05
6.347540E+03	1.300592E-04	3.781306E-05
6.357443E+03	1.302914E-04	3.787332E-05
6.367345E+03	1.305546E-04	3.794252E-05
6.377248E+03	1.308486E-04	3.802063E-05
6.387150E+03	1.311735E-04	3.810762E-05
6.397053E+03	1.315310E-04	3.820403E-05
6.406956E+03	1.319233E-04	3.831043E-05
6.416858E+03	1.323502E-04	3.842684E-05
6.426761E+03	1.328099E-04	3.855266E-05
6.436663E+03	1.333065E-04	3.868911E-05
6.446566E+03	1.338402E-04	3.883622E-05
6.456468E+03	1.344090E-04	3.899341E-05
6.466371E+03	1.350151E-04	3.916135E-05
6.476273E+03	1.356589E-04	3.934008E-05
6.486176E+03	1.363383E-04	3.952903E-05
6.496079E+03	1.370535E-04	3.972826E-05
6.505981E+03	1.378092E-04	3.993908E-05
6.515884E+03	1.385989E-04	4.015965E-05
6.525786E+03	1.394275E-04	4.039133E-05
6.535689E+03	1.402951E-04	4.063418E-05
6.545591E+03	1.411975E-04	4.088698E-05
6.555494E+03	1.421396E-04	4.115111E-05
6.565396E+03	1.431171E-04	4.142532E-05
6.575299E+03	1.441349E-04	4.171103E-05
6.585202E+03	1.451885E-04	4.200697E-05
6.595104E+03	1.462808E-04	4.231391E-05
6.605007E+03	1.474120E-04	4.263194E-05
6.614909E+03	1.485801E-04	4.296044E-05
6.624812E+03	1.497852E-04	4.329947E-05
6.634714E+03	1.510303E-04	4.364987E-05
6.644617E+03	1.523133E-04	4.401099E-05
6.654520E+03	1.536343E-04	4.438293E-05
6.664422E+03	1.549938E-04	4.476576E-05
6.674325E+03	1.563922E-04	4.515959E-05
6.684227E+03	1.578297E-04	4.556452E-05
6.694130E+03	1.593068E-04	4.598065E-05
6.704032E+03	1.608211E-04	4.640725E-05
6.713935E+03	1.623756E-04	4.684525E-05
6.723837E+03	1.639709E-04	4.729474E-05
6.733740E+03	1.656044E-04	4.775500E-05
6.743643E+03	1.672793E-04	4.822697E-05
6.753545E+03	1.689932E-04	4.870990E-05
6.763448E+03	1.707463E-04	4.920385E-05
6.773350E+03	1.725391E-04	4.970895E-05
6.783253E+03	1.743717E-04	5.022526E-05
6.793155E+03	1.762479E-04	5.075381E-05
6.803058E+03	1.781615E-04	5.129285E-05
6.812960E+03	1.801161E-04	5.184339E-05
6.822863E+03	1.821121E-04	5.240552E-05
6.832766E+03	1.841464E-04	5.297835E-05
6.842668E+03	1.862227E-04	5.356294E-05
6.852571E+03	1.883413E-04	5.415938E-05
6.862473E+03	1.904991E-04	5.476675E-05
6.872376E+03	1.926963E-04	5.538508E-05
6.882278E+03	1.949367E-04	5.601550E-05
6.892181E+03	1.972170E-04	5.665702E-05
6.902083E+03	1.995374E-04	5.730968E-05
6.911986E+03	2.018980E-04	5.797354E-05
6.921889E+03	2.042991E-04	5.864863E-05
6.931791E+03	2.067369E-04	5.933385E-05
6.941694E+03	2.092193E-04	6.003151E-05
6.951596E+03	2.117386E-04	6.073934E-05
6.961499E+03	2.142989E-04	6.145851E-05
6.971401E+03	2.168960E-04	6.218784E-05
6.981304E+03	2.195298E-04	6.292728E-05
6.991207E+03	2.222048E-04	6.367807E-05
7.001109E+03	2.249164E-04	6.443895E-05
7.011012E+03	2.276601E-04	6.520855E-05
7.020914E+03	2.304446E-04	6.598942E-05
7.030817E+03	2.332655E-04	6.678023E-05
7.040719E+03	2.361176E-04	6.757954E-05
7.050622E+03	2.390054E-04	6.838860E-05
7.060524E+03	2.419238E-04	6.920593E-05
7.070427E+03	2.448773E-04	7.003282E-05
7.080330E+03	2.478605E-04	7.086772E-05
7.090232E+03	2.508780E-04	7.171195E-05
7.100135E+03	2.539191E-04	7.256240E-05
7.110037E+03	2.569880E-04	7.342034E-05
7.119940E+03	2.600898E-04	7.428714E-05
7.129842E+03	2.632129E-04	7.515951E-05
7.139745E+03	2.663563E-04	7.603719E-05
7.149647E+03	2.695248E-04	7.692150E-05
7.159550E+03	2.727175E-04	7.781220E-05
7.169453E+03	2.759279E-04	7.870740E-05
7.179355E+03	2.791606E-04	7.960846E-05
7.189258E+03	2.824089E-04	8.051341E-05
7.199160E+03	2.856715E-04	8.142189E-05
7.209063E+03	2.889533E-04	8.233533E-05
7.218965E+03	2.922472E-04	8.325166E-05
7.228868E+03	2.955581E-04	8.417230E-05
7.238770E+03	2.988786E-04	8.509512E-05
7.248673E+03	3.022073E-04	8.601971E-05
7.258576E+03	3.055563E-04	8.694953E-05
7.268478E+03	3.089111E-04	8.788044E-05
7.278381E+03	3.122842E-04	8.881601E-05
7.288283E+03	3.156674E-04	8.975390E-05
7.298186E+03	3.190674E-04	9.069599E-05
7.308088E+03	3.224900E-04	9.164395E-05
7.317991E+03	3.259278E-04	9.259565E-05
7.327894E+03	3.293945E-04	9.355498E-05
7.337796E+03	3.328906E-04	9.452211E-05
7.347699E+03	3.364228E-04	9.549888E-05
7.357601E+03	3.399922E-04	9.648563E-05
7.367504E+03	3.435984E-04	9.748227E-05
7.377406E+03	3.472503E-04	9.849125E-05
7.387309E+03	3.509320E-04	9.950806E-05
7.397211E+03	3.546436E-04	1.005328E-04
7.407114E+03	3.583764E-04	1.015629E-04
7.417017E+03	3.621391E-04	1.026008E-04
7.426919E+03	3.659229E-04	1.036442E-04
7.436822E+03	3.697187E-04	1.046903E-04
7.446724E+03	3.735260E-04	1.057390E-04
7.456627E+03	3.773440E-04	1.067902E-04
7.466529E+03	3.811632E-04	1.078410E-04
7.476432E+03	3.849911E-04	1.088938E-04
7.486334E+03	3.888090E-04	1.099430E-04
7.496237E+03	3.926337E-04	1.109936E-04
7.506140E+03	3.964550E-04	1.120426E-04
7.516042E+03	4.002713E-04	1.130896E-04
7.525945E+03	4.040718E-04	1.141315E-04
7.535847E+03	4.078640E-04	1.151705E-04
7.545750E+03	4.116467E-04	1.162062E-04
7.555652E+03	4.154179E-04	1.172380E-04
7.565555E+03	4.191653E-04	1.182625E-04
7.575457E+03	4.228970E-04	1.192821E-04
7.585360E+03	4.266004E-04	1.202930E-04
7.595263E+03	4.302940E-04	1.213006E-04
7.605165E+03	4.339434E-04	1.222952E-04
7.615068E+03	4.375781E-04	1.232852E-04
7.624970E+03	4.411846E-04	1.242665E-04
7.634873E+03	4.447491E-04	1.252356E-04
7.644775E+03	4.482795E-04	1.261945E-04
7.654678E+03	4.517724E-04	1.271423E-04
7.664581E+03	4.552251E-04	1.280782E-04
7.674483E+03	4.586344E-04	1.290015E-04
7.684386E+03	4.620084E-04	1.299143E-04
