#wls	flux	fluxerr
1.584409E+03	2.322329E-03	2.977655E-04
1.624020E+03	2.405463E-03	3.083671E-04
1.663630E+03	2.486894E-03	3.187449E-04
1.703240E+03	2.565846E-03	3.287991E-04
1.742850E+03	2.641715E-03	3.384523E-04
1.782461E+03	2.713567E-03	3.475850E-04
1.822071E+03	2.780645E-03	3.561003E-04
1.861681E+03	2.842132E-03	3.638935E-04
1.901291E+03	2.896893E-03	3.708201E-04
1.940902E+03	2.944009E-03	3.767626E-04
1.980512E+03	2.982538E-03	3.816009E-04
2.020122E+03	3.011530E-03	3.852142E-04
2.059732E+03	3.029829E-03	3.874554E-04
2.099342E+03	3.036582E-03	3.882164E-04
2.138953E+03	3.030605E-03	3.873470E-04
2.178563E+03	3.010917E-03	3.847229E-04
2.218173E+03	2.976033E-03	3.801560E-04
2.257783E+03	2.924919E-03	3.735160E-04
2.297394E+03	2.858854E-03	3.649681E-04
2.337004E+03	2.779746E-03	3.547577E-04
2.376614E+03	2.689068E-03	3.430741E-04
2.416224E+03	2.587947E-03	3.300633E-04
2.455835E+03	2.477428E-03	3.158597E-04
2.495445E+03	2.358735E-03	3.006211E-04
2.535055E+03	2.232944E-03	2.844858E-04
2.574665E+03	2.101422E-03	2.676296E-04
2.614276E+03	1.965430E-03	2.502141E-04
2.653886E+03	1.826190E-03	2.323960E-04
2.693496E+03	1.685194E-03	2.143661E-04
2.733106E+03	1.543815E-03	1.962997E-04
2.772716E+03	1.403472E-03	1.783780E-04
2.812327E+03	1.265556E-03	1.607781E-04
2.851937E+03	1.131490E-03	1.436806E-04
2.891547E+03	1.002804E-03	1.272799E-04
2.931157E+03	8.810445E-04	1.117718E-04
2.970768E+03	7.674106E-04	9.730756E-05
2.980670E+03	7.403658E-04	9.386643E-05
2.990573E+03	7.139161E-04	9.050151E-05
3.000475E+03	6.880298E-04	8.720879E-05
3.010378E+03	6.627269E-04	8.399078E-05
3.020280E+03	6.380393E-04	8.085149E-05
3.030183E+03	6.139382E-04	7.778725E-05
3.040086E+03	5.904517E-04	7.480161E-05
3.049988E+03	5.675782E-04	7.189432E-05
3.059891E+03	5.453158E-04	6.906514E-05
3.069793E+03	5.236647E-04	6.631406E-05
3.079696E+03	5.026525E-04	6.364457E-05
3.089598E+03	4.822737E-04	6.105591E-05
3.099501E+03	4.625411E-04	5.854972E-05
3.109403E+03	4.434573E-04	5.612626E-05
3.119306E+03	4.250234E-04	5.378566E-05
3.129209E+03	4.072452E-04	5.152863E-05
3.139111E+03	3.901249E-04	4.935543E-05
3.149014E+03	3.736404E-04	4.726320E-05
3.158916E+03	3.578036E-04	4.525345E-05
3.168819E+03	3.425959E-04	4.332379E-05
3.178721E+03	3.280105E-04	4.147332E-05
3.188624E+03	3.140330E-04	3.970020E-05
3.198526E+03	3.006437E-04	3.800191E-05
3.208429E+03	2.878425E-04	3.637841E-05
3.218332E+03	2.755980E-04	3.482569E-05
3.228234E+03	2.639076E-04	3.334342E-05
3.238137E+03	2.527531E-04	3.192925E-05
3.248039E+03	2.421085E-04	3.057988E-05
3.257942E+03	2.319674E-04	2.929449E-05
3.267844E+03	2.223039E-04	2.806975E-05
3.277747E+03	2.131031E-04	2.690379E-05
3.287650E+03	2.043466E-04	2.579424E-05
3.297552E+03	1.960194E-04	2.473920E-05
3.307455E+03	1.881000E-04	2.373592E-05
3.317357E+03	1.805714E-04	2.278224E-05
3.327260E+03	1.734163E-04	2.187596E-05
3.337162E+03	1.666203E-04	2.101524E-05
3.347065E+03	1.601649E-04	2.019773E-05
3.356967E+03	1.540345E-04	1.942143E-05
3.366870E+03	1.482141E-04	1.868445E-05
3.376773E+03	1.426874E-04	1.798472E-05
3.386675E+03	1.374408E-04	1.732051E-05
3.396578E+03	1.324613E-04	1.669014E-05
3.406480E+03	1.277346E-04	1.609183E-05
3.416383E+03	1.232490E-04	1.552406E-05
3.426285E+03	1.189918E-04	1.498522E-05
3.436188E+03	1.149509E-04	1.447380E-05
3.446090E+03	1.111151E-04	1.398837E-05
3.455993E+03	1.074728E-04	1.352743E-05
3.465896E+03	1.040152E-04	1.308990E-05
3.475798E+03	1.007321E-04	1.267445E-05
3.485701E+03	9.761275E-05	1.227974E-05
3.495603E+03	9.464619E-05	1.190437E-05
3.505506E+03	9.182546E-05	1.154746E-05
3.515408E+03	8.914111E-05	1.120782E-05
3.525311E+03	8.658272E-05	1.088412E-05
3.535213E+03	8.414333E-05	1.057549E-05
3.545116E+03	8.181571E-05	1.028100E-05
3.555019E+03	7.959224E-05	9.999694E-06
3.564921E+03	7.746519E-05	9.730594E-06
3.574824E+03	7.543039E-05	9.473170E-06
3.584726E+03	7.348235E-05	9.226725E-06
3.594629E+03	7.161599E-05	8.990618E-06
3.604531E+03	6.982973E-05	8.764645E-06
3.614434E+03	6.811985E-05	8.548334E-06
3.624337E+03	6.648343E-05	8.341312E-06
3.634239E+03	6.491811E-05	8.143281E-06
3.644142E+03	6.342149E-05	7.953934E-06
3.654044E+03	6.199062E-05	7.772896E-06
3.663947E+03	6.062419E-05	7.600000E-06
3.673849E+03	5.931866E-05	7.434796E-06
3.683752E+03	5.807216E-05	7.277047E-06
3.693654E+03	5.688325E-05	7.126568E-06
3.703557E+03	5.574810E-05	6.982875E-06
3.713460E+03	5.466628E-05	6.845912E-06
3.723362E+03	5.363413E-05	6.715214E-06
3.733265E+03	5.265079E-05	6.590674E-06
3.743167E+03	5.171407E-05	6.472011E-06
3.753070E+03	5.082192E-05	6.358966E-06
3.762972E+03	4.997275E-05	6.251337E-06
3.772875E+03	4.916462E-05	6.148879E-06
3.782777E+03	4.839610E-05	6.051410E-06
3.792680E+03	4.766580E-05	5.958753E-06
3.802583E+03	4.697207E-05	5.870697E-06
3.812485E+03	4.631367E-05	5.787088E-06
3.822388E+03	4.568942E-05	5.707772E-06
3.832290E+03	4.509790E-05	5.632573E-06
3.842193E+03	4.453807E-05	5.561355E-06
3.852095E+03	4.400897E-05	5.493997E-06
3.861998E+03	4.350932E-05	5.430338E-06
3.871900E+03	4.303826E-05	5.370268E-06
3.881803E+03	4.259460E-05	5.313634E-06
3.891706E+03	4.217785E-05	5.260375E-06
3.901608E+03	4.178688E-05	5.210347E-06
3.911511E+03	4.142091E-05	5.163451E-06
3.921413E+03	4.107858E-05	5.119515E-06
3.931316E+03	4.075977E-05	5.078522E-06
3.941218E+03	4.046315E-05	5.040304E-06
3.951121E+03	4.018801E-05	5.004772E-06
3.961024E+03	3.993336E-05	4.971799E-06
3.970926E+03	3.969890E-05	4.941346E-06
3.980829E+03	3.948338E-05	4.913258E-06
3.990731E+03	3.928653E-05	4.887498E-06
4.000634E+03	3.910723E-05	4.863924E-06
4.010536E+03	3.894521E-05	4.842502E-06
4.020439E+03	3.879938E-05	4.823095E-06
4.030341E+03	3.866927E-05	4.805642E-06
4.040244E+03	3.855443E-05	4.790086E-06
4.050147E+03	3.845440E-05	4.776370E-06
4.060049E+03	3.836820E-05	4.764369E-06
4.069952E+03	3.829549E-05	4.754039E-06
4.079854E+03	3.823555E-05	4.745292E-06
4.089757E+03	3.818812E-05	4.738090E-06
4.099659E+03	3.815283E-05	4.732390E-06
4.109562E+03	3.812881E-05	4.728081E-06
4.119464E+03	3.811610E-05	4.725166E-06
4.129367E+03	3.811387E-05	4.723543E-06
4.139270E+03	3.812188E-05	4.723178E-06
4.149172E+03	3.813992E-05	4.724048E-06
4.159075E+03	3.816722E-05	4.726053E-06
4.168977E+03	3.820360E-05	4.729171E-06
4.178880E+03	3.824863E-05	4.733347E-06
4.188782E+03	3.830248E-05	4.738602E-06
4.198685E+03	3.836415E-05	4.744811E-06
4.208587E+03	3.843385E-05	4.751999E-06
4.218490E+03	3.851090E-05	4.760082E-06
4.228393E+03	3.859556E-05	4.769088E-06
4.238295E+03	3.868689E-05	4.778902E-06
4.248198E+03	3.878485E-05	4.789518E-06
4.258100E+03	3.888941E-05	4.800933E-06
4.268003E+03	3.899966E-05	4.813031E-06
4.277905E+03	3.911589E-05	4.825848E-06
4.287808E+03	3.923685E-05	4.839229E-06
4.297711E+03	3.936284E-05	4.853212E-06
4.307613E+03	3.949229E-05	4.867600E-06
4.317516E+03	3.962513E-05	4.882384E-06
4.327418E+03	3.976227E-05	4.897679E-06
4.337321E+03	3.990368E-05	4.913475E-06
4.347223E+03	4.004963E-05	4.929810E-06
4.357126E+03	4.020016E-05	4.946685E-06
4.367028E+03	4.035462E-05	4.964021E-06
4.376931E+03	4.051366E-05	4.981896E-06
4.386834E+03	4.067664E-05	5.000230E-06
4.396736E+03	4.084364E-05	5.019034E-06
4.406639E+03	4.101431E-05	5.038263E-06
4.416541E+03	4.118873E-05	5.057927E-06
4.426444E+03	4.136630E-05	5.077949E-06
4.436346E+03	4.154741E-05	5.098381E-06
4.446249E+03	4.173144E-05	5.119142E-06
4.456151E+03	4.191816E-05	5.140205E-06
4.466054E+03	4.210799E-05	5.161622E-06
4.475957E+03	4.230007E-05	5.183285E-06
4.485859E+03	4.249458E-05	5.205215E-06
4.495762E+03	4.269169E-05	5.227435E-06
4.505664E+03	4.289103E-05	5.249896E-06
4.515567E+03	4.309298E-05	5.272646E-06
4.525469E+03	4.329718E-05	5.295640E-06
4.535372E+03	4.350406E-05	5.318930E-06
4.545274E+03	4.371375E-05	5.342530E-06
4.555177E+03	4.392629E-05	5.366446E-06
4.565080E+03	4.414144E-05	5.390647E-06
4.574982E+03	4.436003E-05	5.415234E-06
4.584885E+03	4.458141E-05	5.440126E-06
4.594787E+03	4.480603E-05	5.465379E-06
4.604690E+03	4.503397E-05	5.491000E-06
4.614592E+03	4.526491E-05	5.516951E-06
4.624495E+03	4.549969E-05	5.543332E-06
4.634398E+03	4.573760E-05	5.570058E-06
4.644300E+03	4.597911E-05	5.597182E-06
4.654203E+03	4.622509E-05	5.624811E-06
4.664105E+03	4.647522E-05	5.652906E-06
4.674008E+03	4.673002E-05	5.681527E-06
4.683910E+03	4.699000E-05	5.710737E-06
4.693813E+03	4.725529E-05	5.740550E-06
4.703715E+03	4.752603E-05	5.770981E-06
4.713618E+03	4.780317E-05	5.802144E-06
4.723521E+03	4.808603E-05	5.833956E-06
4.733423E+03	4.837554E-05	5.866529E-06
4.743326E+03	4.867187E-05	5.899880E-06
4.753228E+03	4.897467E-05	5.933968E-06
4.763131E+03	4.928497E-05	5.968914E-06
4.773033E+03	4.960247E-05	6.004680E-06
4.782936E+03	4.992736E-05	6.041289E-06
4.792838E+03	5.025982E-05	6.078761E-06
4.802741E+03	5.060009E-05	6.117122E-06
4.812644E+03	5.094934E-05	6.156512E-06
4.822546E+03	5.130647E-05	6.196796E-06
4.832449E+03	5.167265E-05	6.238115E-06
4.842351E+03	5.204770E-05	6.280443E-06
4.852254E+03	5.243240E-05	6.323873E-06
4.862156E+03	5.282655E-05	6.368380E-06
4.872059E+03	5.323044E-05	6.413995E-06
4.881961E+03	5.364486E-05	6.460811E-06
4.891864E+03	5.406911E-05	6.508741E-06
4.901767E+03	5.450398E-05	6.557880E-06
4.911669E+03	5.494973E-05	6.608254E-06
4.921572E+03	5.540665E-05	6.659897E-06
4.931474E+03	5.587444E-05	6.712770E-06
4.941377E+03	5.635334E-05	6.766899E-06
4.951279E+03	5.684410E-05	6.822371E-06
4.961182E+03	5.734584E-05	6.879077E-06
4.971085E+03	5.785982E-05	6.937167E-06
4.980987E+03	5.838512E-05	6.996527E-06
4.990890E+03	5.892193E-05	7.057177E-06
5.000792E+03	5.947095E-05	7.119197E-06
5.010695E+03	6.003172E-05	7.182530E-06
5.020597E+03	6.060439E-05	7.247191E-06
5.030500E+03	6.118847E-05	7.313117E-06
5.040402E+03	6.178460E-05	7.380382E-06
5.050305E+03	6.239284E-05	7.448990E-06
5.060208E+03	6.301205E-05	7.518802E-06
5.070110E+03	6.364282E-05	7.589885E-06
5.080013E+03	6.428513E-05	7.662234E-06
5.089915E+03	6.493896E-05	7.735843E-06
5.099818E+03	6.560373E-05	7.810639E-06
5.109720E+03	6.627939E-05	7.886613E-06
5.119623E+03	6.696531E-05	7.963687E-06
5.129525E+03	6.766285E-05	8.042021E-06
5.139428E+03	6.837083E-05	8.121469E-06
5.149331E+03	6.908932E-05	8.202037E-06
5.159233E+03	6.981847E-05	8.283740E-06
5.169136E+03	7.055906E-05	8.366667E-06
5.179038E+03	7.130983E-05	8.450664E-06
5.188941E+03	7.207087E-05	8.535739E-06
5.198843E+03	7.284361E-05	8.622059E-06
5.208746E+03	7.362596E-05	8.709372E-06
5.218648E+03	7.441935E-05	8.797843E-06
5.228551E+03	7.522299E-05	8.887377E-06
5.238454E+03	7.603681E-05	8.977960E-06
5.248356E+03	7.686146E-05	9.069666E-06
5.258259E+03	7.769534E-05	9.162303E-06
5.268161E+03	7.853907E-05	9.255940E-06
5.278064E+03	7.939248E-05	9.350555E-06
5.287966E+03	8.025539E-05	9.446121E-06
5.297869E+03	8.112841E-05	9.542708E-06
5.307772E+03	8.200966E-05	9.640090E-06
5.317674E+03	8.289965E-05	9.738323E-06
5.327577E+03	8.379797E-05	9.837358E-06
5.337479E+03	8.470328E-05	9.937030E-06
5.347382E+03	8.561655E-05	1.003745E-05
5.357284E+03	8.653628E-05	1.013845E-05
5.367187E+03	8.746078E-05	1.023981E-05
5.377089E+03	8.838911E-05	1.034144E-05
5.386992E+03	8.932124E-05	1.044331E-05
5.396895E+03	9.025439E-05	1.054511E-05
5.406797E+03	9.118843E-05	1.064681E-05
5.416700E+03	9.212227E-05	1.074829E-05
5.426602E+03	9.305297E-05	1.084921E-05
5.436505E+03	9.397928E-05	1.094941E-05
5.446407E+03	9.490088E-05	1.104886E-05
5.456310E+03	9.581533E-05	1.114728E-05
5.466212E+03	9.672011E-05	1.124436E-05
5.476115E+03	9.761254E-05	1.133981E-05
5.486018E+03	9.849280E-05	1.143364E-05
5.495920E+03	9.935596E-05	1.152529E-05
5.505823E+03	1.002010E-04	1.161464E-05
5.515725E+03	1.010249E-04	1.170133E-05
5.525628E+03	1.018255E-04	1.178512E-05
5.535530E+03	1.026004E-04	1.186576E-05
5.545433E+03	1.033465E-04	1.194286E-05
5.555335E+03	1.040623E-04	1.201629E-05
5.565238E+03	1.047445E-04	1.208564E-05
5.575141E+03	1.053894E-04	1.215052E-05
5.585043E+03	1.059966E-04	1.221089E-05
5.594946E+03	1.065628E-04	1.226635E-05
5.604848E+03	1.070844E-04	1.231654E-05
5.614751E+03	1.075608E-04	1.236136E-05
5.624653E+03	1.079910E-04	1.240074E-05
5.634556E+03	1.083714E-04	1.243426E-05
5.644459E+03	1.087017E-04	1.246189E-05
5.654361E+03	1.089817E-04	1.248364E-05
5.664264E+03	1.092096E-04	1.249931E-05
5.674166E+03	1.093856E-04	1.250896E-05
5.684069E+03	1.095083E-04	1.251240E-05
5.693971E+03	1.095785E-04	1.250976E-05
5.703874E+03	1.095961E-04	1.250105E-05
5.713776E+03	1.095623E-04	1.248641E-05
5.723679E+03	1.094748E-04	1.246559E-05
5.733582E+03	1.093372E-04	1.243904E-05
5.743484E+03	1.091476E-04	1.240652E-05
5.753387E+03	1.089075E-04	1.236826E-05
5.763289E+03	1.086176E-04	1.232432E-05
5.773192E+03	1.082786E-04	1.227480E-05
5.783094E+03	1.078926E-04	1.221997E-05
5.792997E+03	1.074606E-04	1.215995E-05
5.802899E+03	1.069839E-04	1.209489E-05
5.812802E+03	1.064629E-04	1.202487E-05
5.822705E+03	1.059020E-04	1.195039E-05
5.832607E+03	1.053020E-04	1.187154E-05
5.842510E+03	1.046665E-04	1.178878E-05
5.852412E+03	1.039973E-04	1.170227E-05
5.862315E+03	1.032979E-04	1.161246E-05
5.872217E+03	1.025711E-04	1.151965E-05
5.882120E+03	1.018192E-04	1.142413E-05
5.892022E+03	1.010448E-04	1.132617E-05
5.901925E+03	1.002502E-04	1.122606E-05
5.911828E+03	9.943881E-05	1.112418E-05
5.921730E+03	9.861053E-05	1.102053E-05
5.931633E+03	9.776975E-05	1.091561E-05
5.941535E+03	9.691736E-05	1.080952E-05
5.951438E+03	9.605530E-05	1.070248E-05
5.961340E+03	9.518657E-05	1.059483E-05
5.971243E+03	9.431064E-05	1.048651E-05
5.981146E+03	9.343148E-05	1.037797E-05
5.991048E+03	9.254841E-05	1.026915E-05
6.000951E+03	9.166410E-05	1.016032E-05
6.010853E+03	9.077993E-05	1.005166E-05
6.020756E+03	8.989615E-05	9.943192E-06
6.030658E+03	8.901406E-05	9.835056E-06
6.040561E+03	8.813485E-05	9.727388E-06
6.050463E+03	8.725963E-05	9.620309E-06
6.060366E+03	8.638943E-05	9.513934E-06
6.070269E+03	8.552525E-05	9.408374E-06
6.080171E+03	8.466796E-05	9.303721E-06
6.090074E+03	8.381841E-05	9.200069E-06
6.099976E+03	8.297842E-05	9.097616E-06
6.109879E+03	8.214969E-05	8.996548E-06
6.119781E+03	8.133392E-05	8.897045E-06
6.129684E+03	8.053164E-05	8.799163E-06
6.139586E+03	7.974332E-05	8.702950E-06
6.149489E+03	7.896838E-05	8.608339E-06
6.159392E+03	7.820722E-05	8.515369E-06
6.169294E+03	7.746016E-05	8.424073E-06
6.179197E+03	7.672654E-05	8.334372E-06
6.189099E+03	7.600763E-05	8.246404E-06
6.199002E+03	7.530571E-05	8.160407E-06
6.208904E+03	7.461990E-05	8.076285E-06
6.218807E+03	7.395143E-05	7.994163E-06
6.228709E+03	7.330240E-05	7.914263E-06
6.238612E+03	7.267186E-05	7.836476E-06
6.248515E+03	7.206290E-05	7.761128E-06
6.258417E+03	7.147650E-05	7.688319E-06
6.268320E+03	7.091169E-05	7.617933E-06
6.278222E+03	7.037143E-05	7.550284E-06
6.288125E+03	6.985668E-05	7.485463E-06
6.298027E+03	6.936737E-05	7.423455E-06
6.307930E+03	6.890445E-05	7.364350E-06
6.317833E+03	6.847086E-05	7.308453E-06
6.327735E+03	6.806555E-05	7.255639E-06
6.337638E+03	6.768943E-05	7.205995E-06
6.347540E+03	6.734446E-05	7.159719E-06
6.357443E+03	6.702761E-05	7.116474E-06
6.367345E+03	6.673685E-05	7.076036E-06
6.377248E+03	6.647116E-05	7.038284E-06
6.387150E+03	6.622950E-05	7.003098E-06
6.397053E+03	6.600986E-05	6.970257E-06
6.406956E+03	6.581220E-05	6.939747E-06
6.416858E+03	6.563552E-05	6.911452E-06
6.426761E+03	6.547981E-05	6.885364E-06
6.436663E+03	6.534403E-05	6.861363E-06
6.446566E+03	6.522817E-05	6.839440E-06
6.456468E+03	6.513222E-05	6.819586E-06
6.466371E+03	6.505517E-05	6.801685E-06
6.476273E+03	6.499799E-05	6.785831E-06
6.486176E+03	6.496075E-05	6.772021E-06
6.496079E+03	6.494237E-05	6.760134E-06
6.505981E+03	6.494390E-05	6.750270E-06
6.515884E+03	6.496430E-05	6.742313E-06
6.525786E+03	6.500359E-05	6.736255E-06
6.535689E+03	6.506280E-05	6.732194E-06
6.545591E+03	6.513988E-05	6.729907E-06
6.555494E+03	6.523801E-05	6.729716E-06
6.565396E+03	6.535399E-05	6.731280E-06
6.575299E+03	6.549004E-05	6.734816E-06
6.585202E+03	6.564509E-05	6.740208E-06
6.595104E+03	6.581916E-05	6.747446E-06
6.605007E+03	6.601342E-05	6.756639E-06
6.614909E+03	6.622678E-05	6.767669E-06
6.624812E+03	6.645933E-05	6.780531E-06
6.634714E+03	6.671107E-05	6.795218E-06
6.644617E+03	6.698322E-05	6.811842E-06
6.654520E+03	6.727356E-05	6.830167E-06
6.664422E+03	6.758446E-05	6.850424E-06
6.674325E+03	6.791482E-05	6.872490E-06
6.684227E+03	6.826474E-05	6.896364E-06
6.694130E+03	6.863427E-05	6.922041E-06
6.704032E+03	6.902349E-05	6.949519E-06
6.713935E+03	6.943375E-05	6.978920E-06
6.723837E+03	6.986266E-05	7.009993E-06
6.733740E+03	7.031154E-05	7.042862E-06
6.743643E+03	7.078049E-05	7.077521E-06
6.753545E+03	7.126961E-05	7.113973E-06
6.763448E+03	7.177901E-05	7.152213E-06
6.773350E+03	7.230878E-05	7.192240E-06
6.783253E+03	7.285907E-05	7.234057E-06
6.793155E+03	7.342858E-05	7.277522E-06
6.803058E+03	7.401877E-05	7.322768E-06
6.812960E+03	7.462970E-05	7.369788E-06
6.822863E+03	7.526010E-05	7.418444E-06
6.832766E+03	7.591139E-05	7.468865E-06
6.842668E+03	7.658368E-05	7.521046E-06
6.852571E+03	7.727557E-05	7.574839E-06
6.862473E+03	7.798711E-05	7.630235E-06
6.872376E+03	7.871981E-05	7.687369E-06
6.882278E+03	7.947222E-05	7.746086E-06
6.892181E+03	8.024434E-05	7.806374E-06
6.902083E+03	8.103777E-05	7.868375E-06
6.911986E+03	8.185098E-05	7.931926E-06
6.921889E+03	8.268403E-05	7.997021E-06
6.931791E+03	8.353531E-05	8.063489E-06
6.941694E+03	8.440806E-05	8.131632E-06
6.951596E+03	8.530075E-05	8.201286E-06
6.961499E+03	8.621339E-05	8.272441E-06
6.971401E+03	8.714433E-05	8.344923E-06
6.981304E+03	8.809526E-05	8.418883E-06
6.991207E+03	8.906444E-05	8.494138E-06
7.001109E+03	9.005544E-05	8.571018E-06
7.011012E+03	9.106292E-05	8.648997E-06
7.020914E+03	9.209039E-05	8.728398E-06
7.030817E+03	9.313607E-05	8.809038E-06
7.040719E+03	9.420177E-05	8.891075E-06
7.050622E+03	9.528369E-05	8.974134E-06
7.060524E+03	9.638559E-05	9.058559E-06
7.070427E+03	9.750353E-05	9.143965E-06
7.080330E+03	9.863939E-05	9.230516E-06
7.090232E+03	9.979310E-05	9.318191E-06
7.100135E+03	1.009646E-04	9.406972E-06
7.110037E+03	1.021517E-04	9.496641E-06
7.119940E+03	1.033543E-04	9.587170E-06
7.129842E+03	1.045742E-04	9.678731E-06
7.139745E+03	1.058093E-04	9.771099E-06
7.149647E+03	1.070616E-04	9.864451E-06
7.159550E+03	1.083264E-04	9.958342E-06
7.169453E+03	1.096081E-04	1.005317E-05
7.179355E+03	1.109041E-04	1.014868E-05
7.189258E+03	1.122143E-04	1.024484E-05
7.199160E+03	1.135384E-04	1.034163E-05
7.209063E+03	1.148762E-04	1.043901E-05
7.218965E+03	1.162274E-04	1.053695E-05
7.228868E+03	1.175943E-04	1.063564E-05
7.238770E+03	1.189715E-04	1.073457E-05
7.248673E+03	1.203666E-04	1.083442E-05
7.258576E+03	1.217767E-04	1.093493E-05
7.268478E+03	1.231988E-04	1.103580E-05
7.278381E+03	1.246410E-04	1.113776E-05
7.288283E+03	1.260976E-04	1.124027E-05
7.298186E+03	1.275770E-04	1.134407E-05
7.308088E+03	1.290763E-04	1.144889E-05
7.317991E+03	1.305983E-04	1.155497E-05
7.327894E+03	1.321463E-04	1.166256E-05
7.337796E+03	1.337205E-04	1.177167E-05
7.347699E+03	1.353273E-04	1.188284E-05
7.357601E+03	1.369705E-04	1.199639E-05
7.367504E+03	1.386476E-04	1.211205E-05
7.377406E+03	1.403590E-04	1.222986E-05
7.387309E+03	1.421055E-04	1.234983E-05
7.397211E+03	1.438841E-04	1.247170E-05
7.407114E+03	1.456919E-04	1.259518E-05
7.417017E+03	1.475255E-04	1.271996E-05
7.426919E+03	1.493850E-04	1.284603E-05
7.436822E+03	1.512669E-04	1.297307E-05
7.446724E+03	1.531673E-04	1.310072E-05
7.456627E+03	1.550896E-04	1.322926E-05
7.466529E+03	1.570258E-04	1.335799E-05
7.476432E+03	1.589756E-04	1.348688E-05
7.486334E+03	1.609386E-04	1.361587E-05
7.496237E+03	1.629142E-04	1.374491E-05
7.506140E+03	1.649021E-04	1.387397E-05
7.516042E+03	1.668977E-04	1.400263E-05
7.525945E+03	1.689003E-04	1.413085E-05
7.535847E+03	1.709135E-04	1.425891E-05
7.545750E+03	1.729323E-04	1.438638E-05
7.555652E+03	1.749604E-04	1.451357E-05
7.565555E+03	1.769878E-04	1.463964E-05
7.575457E+03	1.790225E-04	1.476525E-05
7.585360E+03	1.810588E-04	1.488994E-05
7.595263E+03	1.830956E-04	1.501359E-05
7.605165E+03	1.851314E-04	1.513610E-05
7.615068E+03	1.871697E-04	1.525774E-05
7.624970E+03	1.892042E-04	1.537800E-05
7.634873E+03	1.912333E-04	1.549676E-05
7.644775E+03	1.932603E-04	1.561427E-05
7.654678E+03	1.952835E-04	1.573043E-05
7.664581E+03	1.972962E-04	1.584466E-05
7.674483E+03	1.993014E-04	1.595724E-05
7.684386E+03	2.012976E-04	1.606805E-05
