#wls	flux	fluxerr
1.584409E+03	3.253751E-03	6.437965E-04
1.624020E+03	3.352322E-03	6.632972E-04
1.663630E+03	3.445607E-03	6.817512E-04
1.703240E+03	3.533002E-03	6.990395E-04
1.742850E+03	3.612461E-03	7.147567E-04
1.782461E+03	3.683915E-03	7.288894E-04
1.822071E+03	3.745218E-03	7.410127E-04
1.861681E+03	3.795868E-03	7.510278E-04
1.901291E+03	3.834682E-03	7.587000E-04
1.940902E+03	3.859899E-03	7.636816E-04
1.980512E+03	3.871075E-03	7.658842E-04
2.020122E+03	3.866950E-03	7.650587E-04
2.059732E+03	3.846463E-03	7.609957E-04
2.099342E+03	3.808816E-03	7.535369E-04
2.138953E+03	3.753022E-03	7.424875E-04
2.178563E+03	3.677669E-03	7.275680E-04
2.218173E+03	3.581442E-03	7.085189E-04
2.257783E+03	3.464559E-03	6.853833E-04
2.297394E+03	3.329401E-03	6.586326E-04
2.337004E+03	3.180357E-03	6.291351E-04
2.376614E+03	3.020871E-03	5.975726E-04
2.416224E+03	2.854048E-03	5.645593E-04
2.455835E+03	2.682044E-03	5.305220E-04
2.495445E+03	2.507157E-03	4.959157E-04
2.535055E+03	2.331213E-03	4.611011E-04
2.574665E+03	2.156137E-03	4.264595E-04
2.614276E+03	1.983472E-03	3.922964E-04
2.653886E+03	1.814693E-03	3.589032E-04
2.693496E+03	1.651173E-03	3.265518E-04
2.733106E+03	1.494012E-03	2.954595E-04
2.772716E+03	1.344228E-03	2.658280E-04
2.812327E+03	1.202681E-03	2.378269E-04
2.851937E+03	1.070149E-03	2.116103E-04
2.891547E+03	9.472991E-04	1.873100E-04
2.931157E+03	8.346049E-04	1.650194E-04
2.970768E+03	7.323401E-04	1.447926E-04
2.980670E+03	7.084099E-04	1.400596E-04
2.990573E+03	6.851173E-04	1.354528E-04
3.000475E+03	6.624854E-04	1.309767E-04
3.010378E+03	6.404753E-04	1.266235E-04
3.020280E+03	6.191070E-04	1.223974E-04
3.030183E+03	5.983694E-04	1.182961E-04
3.040086E+03	5.782642E-04	1.143198E-04
3.049988E+03	5.587559E-04	1.104617E-04
3.059891E+03	5.398688E-04	1.067265E-04
3.069793E+03	5.215681E-04	1.031072E-04
3.079696E+03	5.038638E-04	9.960593E-05
3.089598E+03	4.867424E-04	9.621999E-05
3.099501E+03	4.701821E-04	9.294503E-05
3.109403E+03	4.541888E-04	8.978223E-05
3.119306E+03	4.387406E-04	8.672726E-05
3.129209E+03	4.238333E-04	8.377928E-05
3.139111E+03	4.094532E-04	8.093559E-05
3.149014E+03	3.955879E-04	7.819373E-05
3.158916E+03	3.822314E-04	7.555250E-05
3.168819E+03	3.693700E-04	7.300921E-05
3.178721E+03	3.569849E-04	7.056012E-05
3.188624E+03	3.450753E-04	6.820507E-05
3.198526E+03	3.336223E-04	6.594034E-05
3.208429E+03	3.226187E-04	6.376448E-05
3.218332E+03	3.120517E-04	6.167498E-05
3.228234E+03	3.019032E-04	5.966826E-05
3.238137E+03	2.921712E-04	5.774388E-05
3.248039E+03	2.828333E-04	5.589747E-05
3.257942E+03	2.738865E-04	5.412838E-05
3.267844E+03	2.653184E-04	5.243419E-05
3.277747E+03	2.571089E-04	5.081091E-05
3.287650E+03	2.492540E-04	4.925777E-05
3.297552E+03	2.417419E-04	4.777241E-05
3.307455E+03	2.345577E-04	4.635188E-05
3.317357E+03	2.276903E-04	4.499400E-05
3.327260E+03	2.211290E-04	4.369665E-05
3.337162E+03	2.148631E-04	4.245770E-05
3.347065E+03	2.088822E-04	4.127511E-05
3.356967E+03	2.031762E-04	4.014687E-05
3.366870E+03	1.977327E-04	3.907054E-05
3.376773E+03	1.925399E-04	3.804379E-05
3.386675E+03	1.875938E-04	3.706580E-05
3.396578E+03	1.828785E-04	3.613343E-05
3.406480E+03	1.783879E-04	3.524550E-05
3.416383E+03	1.741120E-04	3.440002E-05
3.426285E+03	1.700431E-04	3.359546E-05
3.436188E+03	1.661699E-04	3.282958E-05
3.446090E+03	1.624838E-04	3.210070E-05
3.455993E+03	1.589785E-04	3.140754E-05
3.465896E+03	1.556441E-04	3.074819E-05
3.475798E+03	1.524752E-04	3.012154E-05
3.485701E+03	1.494597E-04	2.952522E-05
3.495603E+03	1.465930E-04	2.895831E-05
3.505506E+03	1.438659E-04	2.841900E-05
3.515408E+03	1.412715E-04	2.790590E-05
3.525311E+03	1.388032E-04	2.741774E-05
3.535213E+03	1.364520E-04	2.695274E-05
3.545116E+03	1.342154E-04	2.651036E-05
3.555019E+03	1.320864E-04	2.608926E-05
3.564921E+03	1.300588E-04	2.568821E-05
3.574824E+03	1.281305E-04	2.530678E-05
3.584726E+03	1.262945E-04	2.494359E-05
3.594629E+03	1.245467E-04	2.459783E-05
3.604531E+03	1.228831E-04	2.426871E-05
3.614434E+03	1.213000E-04	2.395549E-05
3.624337E+03	1.197938E-04	2.365747E-05
3.634239E+03	1.183610E-04	2.337397E-05
3.644142E+03	1.169995E-04	2.310455E-05
3.654044E+03	1.157071E-04	2.284876E-05
3.663947E+03	1.144805E-04	2.260600E-05
3.673849E+03	1.133208E-04	2.237645E-05
3.683752E+03	1.122237E-04	2.215927E-05
3.693654E+03	1.111892E-04	2.195445E-05
3.703557E+03	1.102152E-04	2.176157E-05
3.713460E+03	1.093005E-04	2.158040E-05
3.723362E+03	1.084457E-04	2.141109E-05
3.733265E+03	1.076470E-04	2.125283E-05
3.743167E+03	1.069049E-04	2.110577E-05
3.753070E+03	1.062191E-04	2.096982E-05
3.762972E+03	1.055867E-04	2.084441E-05
3.772875E+03	1.050081E-04	2.072962E-05
3.782777E+03	1.044829E-04	2.062539E-05
3.792680E+03	1.040091E-04	2.053129E-05
3.802583E+03	1.035854E-04	2.044709E-05
3.812485E+03	1.032131E-04	2.037303E-05
3.822388E+03	1.028893E-04	2.030854E-05
3.832290E+03	1.026144E-04	2.025370E-05
3.842193E+03	1.023872E-04	2.020828E-05
3.852095E+03	1.022074E-04	2.017219E-05
3.861998E+03	1.020744E-04	2.014535E-05
3.871900E+03	1.019863E-04	2.012738E-05
3.881803E+03	1.019428E-04	2.011819E-05
3.891706E+03	1.019443E-04	2.011789E-05
3.901608E+03	1.019897E-04	2.012623E-05
3.911511E+03	1.020778E-04	2.014300E-05
3.921413E+03	1.022084E-04	2.016814E-05
3.931316E+03	1.023803E-04	2.020143E-05
3.941218E+03	1.025932E-04	2.024281E-05
3.951121E+03	1.028470E-04	2.029224E-05
3.961024E+03	1.031413E-04	2.034966E-05
3.970926E+03	1.034744E-04	2.041472E-05
3.980829E+03	1.038460E-04	2.048736E-05
3.990731E+03	1.042559E-04	2.056756E-05
4.000634E+03	1.047041E-04	2.065529E-05
4.010536E+03	1.051894E-04	2.075035E-05
4.020439E+03	1.057111E-04	2.085256E-05
4.030341E+03	1.062690E-04	2.096189E-05
4.040244E+03	1.068621E-04	2.107816E-05
4.050147E+03	1.074904E-04	2.120136E-05
4.060049E+03	1.081530E-04	2.133131E-05
4.069952E+03	1.088498E-04	2.146800E-05
4.079854E+03	1.095801E-04	2.161125E-05
4.089757E+03	1.103428E-04	2.176091E-05
4.099659E+03	1.111381E-04	2.191695E-05
4.109562E+03	1.119650E-04	2.207922E-05
4.119464E+03	1.128236E-04	2.224772E-05
4.129367E+03	1.137122E-04	2.242211E-05
4.139270E+03	1.146307E-04	2.260239E-05
4.149172E+03	1.155776E-04	2.278823E-05
4.159075E+03	1.165536E-04	2.297979E-05
4.168977E+03	1.175570E-04	2.317674E-05
4.178880E+03	1.185879E-04	2.337909E-05
4.188782E+03	1.196436E-04	2.358631E-05
4.198685E+03	1.207251E-04	2.379857E-05
4.208587E+03	1.218295E-04	2.401534E-05
4.218490E+03	1.229579E-04	2.423680E-05
4.228393E+03	1.241073E-04	2.446239E-05
4.238295E+03	1.252759E-04	2.469172E-05
4.248198E+03	1.264645E-04	2.492498E-05
4.258100E+03	1.276692E-04	2.516139E-05
4.268003E+03	1.288910E-04	2.540112E-05
4.277905E+03	1.301255E-04	2.564335E-05
4.287808E+03	1.313738E-04	2.588825E-05
4.297711E+03	1.326337E-04	2.613540E-05
4.307613E+03	1.339028E-04	2.638435E-05
4.317516E+03	1.351809E-04	2.663504E-05
4.327418E+03	1.364668E-04	2.688723E-05
4.337321E+03	1.377614E-04	2.714111E-05
4.347223E+03	1.390622E-04	2.739619E-05
4.357126E+03	1.403715E-04	2.765289E-05
4.367028E+03	1.416891E-04	2.791119E-05
4.376931E+03	1.430149E-04	2.817109E-05
4.386834E+03	1.443490E-04	2.843258E-05
4.396736E+03	1.456925E-04	2.869590E-05
4.406639E+03	1.470445E-04	2.896083E-05
4.416541E+03	1.484060E-04	2.922764E-05
4.426444E+03	1.497774E-04	2.949633E-05
4.436346E+03	1.511589E-04	2.976697E-05
4.446249E+03	1.525493E-04	3.003934E-05
4.456151E+03	1.539489E-04	3.031349E-05
4.466054E+03	1.553568E-04	3.058922E-05
4.475957E+03	1.567744E-04	3.086684E-05
4.485859E+03	1.581996E-04	3.114589E-05
4.495762E+03	1.596325E-04	3.142644E-05
4.505664E+03	1.610736E-04	3.170855E-05
4.515567E+03	1.625205E-04	3.199177E-05
4.525469E+03	1.639750E-04	3.227643E-05
4.535372E+03	1.654348E-04	3.256209E-05
4.545274E+03	1.669002E-04	3.284884E-05
4.555177E+03	1.683690E-04	3.313619E-05
4.565080E+03	1.698431E-04	3.342455E-05
4.574982E+03	1.713217E-04	3.371375E-05
4.584885E+03	1.728025E-04	3.400332E-05
4.594787E+03	1.742860E-04	3.429340E-05
4.604690E+03	1.757731E-04	3.458413E-05
4.614592E+03	1.772631E-04	3.487538E-05
4.624495E+03	1.787536E-04	3.516669E-05
4.634398E+03	1.802488E-04	3.545887E-05
4.644300E+03	1.817498E-04	3.575214E-05
4.654203E+03	1.832545E-04	3.604610E-05
4.664105E+03	1.847641E-04	3.634096E-05
4.674008E+03	1.862799E-04	3.663701E-05
4.683910E+03	1.877983E-04	3.693351E-05
4.693813E+03	1.893206E-04	3.723073E-05
4.703715E+03	1.908448E-04	3.752827E-05
4.713618E+03	1.923724E-04	3.782643E-05
4.723521E+03	1.939032E-04	3.812515E-05
4.733423E+03	1.954351E-04	3.842405E-05
4.743326E+03	1.969698E-04	3.872343E-05
4.753228E+03	1.985053E-04	3.902291E-05
4.763131E+03	2.000431E-04	3.932280E-05
4.773033E+03	2.015813E-04	3.962272E-05
4.782936E+03	2.031197E-04	3.992262E-05
4.792838E+03	2.046580E-04	4.022243E-05
4.802741E+03	2.061981E-04	4.052254E-05
4.812644E+03	2.077377E-04	4.082250E-05
4.822546E+03	2.092769E-04	4.112231E-05
4.832449E+03	2.108128E-04	4.142142E-05
4.842351E+03	2.123496E-04	4.172066E-05
4.852254E+03	2.138848E-04	4.201950E-05
4.862156E+03	2.154179E-04	4.231787E-05
4.872059E+03	2.169465E-04	4.261530E-05
4.881961E+03	2.184722E-04	4.291210E-05
4.891864E+03	2.199924E-04	4.320776E-05
4.901767E+03	2.215060E-04	4.350207E-05
4.911669E+03	2.230152E-04	4.379544E-05
4.921572E+03	2.245165E-04	4.408719E-05
4.931474E+03	2.260093E-04	4.437720E-05
4.941377E+03	2.274905E-04	4.466489E-05
4.951279E+03	2.289614E-04	4.495048E-05
4.961182E+03	2.304210E-04	4.523379E-05
4.971085E+03	2.318657E-04	4.551410E-05
4.980987E+03	2.332946E-04	4.579126E-05
4.990890E+03	2.347065E-04	4.606500E-05
5.000792E+03	2.360976E-04	4.633460E-05
5.010695E+03	2.374690E-04	4.660027E-05
5.020597E+03	2.388191E-04	4.686169E-05
5.030500E+03	2.401423E-04	4.711777E-05
5.040402E+03	2.414390E-04	4.736859E-05
5.050305E+03	2.427077E-04	4.761383E-05
5.060208E+03	2.439447E-04	4.785280E-05
5.070110E+03	2.451480E-04	4.808510E-05
5.080013E+03	2.463164E-04	4.831048E-05
5.089915E+03	2.474477E-04	4.852853E-05
5.099818E+03	2.485383E-04	4.873852E-05
5.109720E+03	2.495885E-04	4.894054E-05
5.119623E+03	2.505918E-04	4.913329E-05
5.129525E+03	2.515486E-04	4.931687E-05
5.139428E+03	2.524548E-04	4.949046E-05
5.149331E+03	2.533083E-04	4.965368E-05
5.159233E+03	2.541074E-04	4.980618E-05
5.169136E+03	2.548503E-04	4.994758E-05
5.179038E+03	2.555296E-04	5.007649E-05
5.188941E+03	2.561487E-04	5.019354E-05
5.198843E+03	2.567034E-04	5.029792E-05
5.208746E+03	2.571916E-04	5.038921E-05
5.218648E+03	2.576090E-04	5.046661E-05
5.228551E+03	2.579543E-04	5.052981E-05
5.238454E+03	2.582256E-04	5.057849E-05
5.248356E+03	2.584218E-04	5.061241E-05
5.258259E+03	2.585418E-04	5.063136E-05
5.268161E+03	2.585818E-04	5.063462E-05
5.278064E+03	2.585464E-04	5.062310E-05
5.287966E+03	2.584301E-04	5.059568E-05
5.297869E+03	2.582325E-04	5.055234E-05
5.307772E+03	2.579593E-04	5.049415E-05
5.317674E+03	2.576052E-04	5.042011E-05
5.327577E+03	2.571764E-04	5.033145E-05
5.337479E+03	2.566715E-04	5.022787E-05
5.347382E+03	2.560942E-04	5.011009E-05
5.357284E+03	2.554437E-04	4.997801E-05
5.367187E+03	2.547275E-04	4.983304E-05
5.377089E+03	2.539449E-04	4.967508E-05
5.386992E+03	2.531011E-04	4.950516E-05
5.396895E+03	2.521941E-04	4.932286E-05
5.406797E+03	2.512296E-04	4.912932E-05
5.416700E+03	2.502084E-04	4.892472E-05
5.426602E+03	2.491319E-04	4.870929E-05
5.436505E+03	2.480062E-04	4.848425E-05
5.446407E+03	2.468305E-04	4.824947E-05
5.456310E+03	2.456068E-04	4.800529E-05
5.466212E+03	2.443391E-04	4.775255E-05
5.476115E+03	2.430272E-04	4.749117E-05
5.486018E+03	2.416781E-04	4.722257E-05
5.495920E+03	2.402891E-04	4.694617E-05
5.505823E+03	2.388699E-04	4.666391E-05
5.515725E+03	2.374227E-04	4.637619E-05
5.525628E+03	2.359496E-04	4.608345E-05
5.535530E+03	2.344552E-04	4.578657E-05
5.545433E+03	2.329440E-04	4.548646E-05
5.555335E+03	2.314179E-04	4.518346E-05
5.565238E+03	2.298858E-04	4.487932E-05
5.575141E+03	2.283470E-04	4.457392E-05
5.585043E+03	2.268102E-04	4.426892E-05
5.594946E+03	2.252740E-04	4.396410E-05
5.604848E+03	2.237471E-04	4.366111E-05
5.614751E+03	2.222321E-04	4.336048E-05
5.624653E+03	2.207303E-04	4.306246E-05
5.634556E+03	2.192466E-04	4.276800E-05
5.644459E+03	2.177834E-04	4.247759E-05
5.654361E+03	2.163458E-04	4.219220E-05
5.664264E+03	2.149359E-04	4.191224E-05
5.674166E+03	2.135536E-04	4.163770E-05
5.684069E+03	2.122053E-04	4.136982E-05
5.693971E+03	2.108926E-04	4.110893E-05
5.703874E+03	2.096151E-04	4.085490E-05
5.713776E+03	2.083763E-04	4.060846E-05
5.723679E+03	2.071798E-04	4.037029E-05
5.733582E+03	2.060270E-04	4.014064E-05
5.743484E+03	2.049166E-04	3.991929E-05
5.753387E+03	2.038517E-04	3.970683E-05
5.763289E+03	2.028357E-04	3.950390E-05
5.773192E+03	2.018693E-04	3.931065E-05
5.783094E+03	2.009510E-04	3.912679E-05
5.792997E+03	2.000836E-04	3.895285E-05
5.802899E+03	1.992676E-04	3.878894E-05
5.812802E+03	1.985062E-04	3.863565E-05
5.822705E+03	1.977994E-04	3.849300E-05
5.832607E+03	1.971453E-04	3.836061E-05
5.842510E+03	1.965468E-04	3.823903E-05
5.852412E+03	1.960016E-04	3.812783E-05
5.862315E+03	1.955165E-04	3.802831E-05
5.872217E+03	1.950849E-04	3.793921E-05
5.882120E+03	1.947092E-04	3.786095E-05
5.892022E+03	1.943913E-04	3.779392E-05
5.901925E+03	1.941289E-04	3.773766E-05
5.911828E+03	1.939217E-04	3.769211E-05
5.921730E+03	1.937715E-04	3.765764E-05
5.931633E+03	1.936758E-04	3.763371E-05
5.941535E+03	1.936362E-04	3.762066E-05
5.951438E+03	1.936477E-04	3.761751E-05
5.961340E+03	1.937140E-04	3.762497E-05
5.971243E+03	1.938300E-04	3.764204E-05
5.981146E+03	1.939993E-04	3.766943E-05
5.991048E+03	1.942142E-04	3.770563E-05
6.000951E+03	1.944783E-04	3.775134E-05
6.010853E+03	1.947883E-04	3.780590E-05
6.020756E+03	1.951432E-04	3.786913E-05
6.030658E+03	1.955369E-04	3.793984E-05
6.040561E+03	1.959732E-04	3.801875E-05
6.050463E+03	1.964436E-04	3.810421E-05
6.060366E+03	1.969515E-04	3.819690E-05
6.070269E+03	1.974885E-04	3.829515E-05
6.080171E+03	1.980528E-04	3.839865E-05
6.090074E+03	1.986406E-04	3.850663E-05
6.099976E+03	1.992502E-04	3.861875E-05
6.109879E+03	1.998728E-04	3.873334E-05
6.119781E+03	2.005061E-04	3.884991E-05
6.129684E+03	2.011462E-04	3.896774E-05
6.139586E+03	2.017907E-04	3.908635E-05
6.149489E+03	2.024380E-04	3.920541E-05
6.159392E+03	2.030910E-04	3.932551E-05
6.169294E+03	2.037561E-04	3.944788E-05
6.179197E+03	2.044340E-04	3.957266E-05
6.189099E+03	2.051287E-04	3.970060E-05
6.199002E+03	2.058446E-04	3.983257E-05
6.208904E+03	2.065828E-04	3.996877E-05
6.218807E+03	2.073482E-04	4.011014E-05
6.228709E+03	2.081426E-04	4.025704E-05
6.238612E+03	2.089680E-04	4.040985E-05
6.248515E+03	2.098302E-04	4.056968E-05
6.258417E+03	2.107283E-04	4.073635E-05
6.268320E+03	2.116681E-04	4.091100E-05
6.278222E+03	2.126467E-04	4.109304E-05
6.288125E+03	2.136673E-04	4.128310E-05
6.298027E+03	2.147297E-04	4.148112E-05
6.307930E+03	2.158375E-04	4.168781E-05
6.317833E+03	2.169878E-04	4.190259E-05
6.327735E+03	2.181810E-04	4.212552E-05
6.337638E+03	2.194144E-04	4.235611E-05
6.347540E+03	2.206818E-04	4.259315E-05
6.357443E+03	2.219802E-04	4.283603E-05
6.367345E+03	2.233097E-04	4.308478E-05
6.377248E+03	2.246705E-04	4.333944E-05
6.387150E+03	2.260623E-04	4.359994E-05
6.397053E+03	2.274890E-04	4.386703E-05
6.406956E+03	2.289543E-04	4.414144E-05
6.416858E+03	2.304585E-04	4.442319E-05
6.426761E+03	2.319986E-04	4.471171E-05
6.436663E+03	2.335821E-04	4.500844E-05
6.446566E+03	2.352097E-04	4.531351E-05
6.456468E+03	2.368782E-04	4.562633E-05
6.466371E+03	2.385922E-04	4.594771E-05
6.476273E+03	2.403523E-04	4.627781E-05
6.486176E+03	2.421551E-04	4.661597E-05
6.496079E+03	2.440014E-04	4.696233E-05
6.505981E+03	2.458997E-04	4.731850E-05
6.515884E+03	2.478389E-04	4.768236E-05
6.525786E+03	2.498276E-04	4.805556E-05
6.535689E+03	2.518668E-04	4.843827E-05
6.545591E+03	2.539484E-04	4.882896E-05
6.555494E+03	2.560820E-04	4.922941E-05
6.565396E+03	2.582595E-04	4.963811E-05
6.575299E+03	2.604901E-04	5.005681E-05
6.585202E+03	2.627660E-04	5.048398E-05
6.595104E+03	2.650920E-04	5.092056E-05
6.605007E+03	2.674688E-04	5.136668E-05
6.614909E+03	2.698926E-04	5.182159E-05
6.624812E+03	2.723638E-04	5.228536E-05
6.634714E+03	2.748876E-04	5.275898E-05
6.644617E+03	2.774601E-04	5.324172E-05
6.654520E+03	2.800816E-04	5.373359E-05
6.664422E+03	2.827527E-04	5.423472E-05
6.674325E+03	2.854739E-04	5.474520E-05
6.684227E+03	2.882456E-04	5.526510E-05
6.694130E+03	2.910684E-04	5.579454E-05
6.704032E+03	2.939375E-04	5.633256E-05
6.713935E+03	2.968586E-04	5.688027E-05
6.723837E+03	2.998321E-04	5.743772E-05
6.733740E+03	3.028531E-04	5.800399E-05
6.743643E+03	3.059274E-04	5.858016E-05
6.753545E+03	3.090497E-04	5.916523E-05
6.763448E+03	3.122204E-04	5.975925E-05
6.773350E+03	3.154396E-04	6.036223E-05
6.783253E+03	3.187077E-04	6.097425E-05
6.793155E+03	3.220307E-04	6.159644E-05
6.803058E+03	3.253971E-04	6.222661E-05
6.812960E+03	3.288129E-04	6.286591E-05
6.822863E+03	3.322780E-04	6.351427E-05
6.832766E+03	3.357868E-04	6.417064E-05
6.842668E+03	3.393451E-04	6.483613E-05
6.852571E+03	3.429531E-04	6.551074E-05
6.862473E+03	3.466047E-04	6.619332E-05
6.872376E+03	3.502992E-04	6.688373E-05
6.882278E+03	3.540434E-04	6.758326E-05
6.892181E+03	3.578307E-04	6.829063E-05
6.902083E+03	3.616604E-04	6.900572E-05
6.911986E+03	3.655325E-04	6.972851E-05
6.921889E+03	3.694468E-04	7.045895E-05
6.931791E+03	3.733956E-04	7.119559E-05
6.941694E+03	3.773931E-04	7.194108E-05
6.951596E+03	3.814242E-04	7.269260E-05
6.961499E+03	3.854961E-04	7.345147E-05
6.971401E+03	3.896005E-04	7.421612E-05
6.981304E+03	3.937368E-04	7.498644E-05
6.991207E+03	3.979123E-04	7.576379E-05
7.001109E+03	4.021183E-04	7.654652E-05
7.011012E+03	4.063462E-04	7.733299E-05
7.020914E+03	4.106114E-04	7.812613E-05
7.030817E+03	4.149050E-04	7.892423E-05
7.040719E+03	4.192178E-04	7.972554E-05
7.050622E+03	4.235575E-04	8.053152E-05
7.060524E+03	4.279142E-04	8.134029E-05
7.070427E+03	4.322957E-04	8.215332E-05
7.080330E+03	4.366924E-04	8.296878E-05
7.090232E+03	4.411121E-04	8.378816E-05
7.100135E+03	4.455356E-04	8.460781E-05
7.110037E+03	4.499705E-04	8.542916E-05
7.119940E+03	4.544251E-04	8.625378E-05
7.129842E+03	4.588793E-04	8.707788E-05
7.139745E+03	4.633313E-04	8.790111E-05
7.149647E+03	4.677897E-04	8.872506E-05
7.159550E+03	4.722528E-04	8.954946E-05
7.169453E+03	4.767093E-04	9.037214E-05
7.179355E+03	4.811675E-04	9.119469E-05
7.189258E+03	4.856160E-04	9.201491E-05
7.199160E+03	4.900525E-04	9.283243E-05
7.209063E+03	4.944862E-04	9.364894E-05
7.218965E+03	4.989048E-04	9.446211E-05
7.228868E+03	5.033173E-04	9.527368E-05
7.238770E+03	5.077111E-04	9.608126E-05
7.248673E+03	5.120845E-04	9.688452E-05
7.258576E+03	5.164585E-04	9.768744E-05
7.268478E+03	5.208089E-04	9.848543E-05
7.278381E+03	5.251574E-04	9.928263E-05
7.288283E+03	5.294912E-04	1.000766E-04
7.298186E+03	5.338213E-04	1.008694E-04
7.308088E+03	5.381590E-04	1.016632E-04
7.317991E+03	5.424917E-04	1.024556E-04
7.327894E+03	5.468439E-04	1.032512E-04
7.337796E+03	5.512162E-04	1.040502E-04
7.347699E+03	5.556215E-04	1.048550E-04
7.357601E+03	5.600612E-04	1.056657E-04
7.367504E+03	5.645366E-04	1.064828E-04
7.377406E+03	5.690620E-04	1.073089E-04
7.387309E+03	5.736132E-04	1.081393E-04
7.397211E+03	5.781908E-04	1.089743E-04
7.407114E+03	5.827826E-04	1.098115E-04
7.417017E+03	5.874034E-04	1.106537E-04
7.426919E+03	5.920403E-04	1.114984E-04
7.436822E+03	5.966803E-04	1.123433E-04
7.446724E+03	6.013237E-04	1.131883E-04
7.456627E+03	6.059708E-04	1.140336E-04
7.466529E+03	6.106075E-04	1.148765E-04
7.476432E+03	6.152479E-04	1.157196E-04
7.486334E+03	6.198628E-04	1.165574E-04
7.496237E+03	6.244812E-04	1.173955E-04
7.506140E+03	6.290878E-04	1.182309E-04
7.516042E+03	6.336815E-04	1.190634E-04
7.525945E+03	6.382461E-04	1.198900E-04
7.535847E+03	6.427956E-04	1.207134E-04
7.545750E+03	6.473284E-04	1.215332E-04
7.555652E+03	6.518426E-04	1.223490E-04
7.565555E+03	6.563198E-04	1.231575E-04
7.575457E+03	6.607735E-04	1.239612E-04
7.585360E+03	6.651843E-04	1.247564E-04
7.595263E+03	6.695819E-04	1.255488E-04
7.605165E+03	6.739127E-04	1.263282E-04
7.615068E+03	6.782229E-04	1.271033E-04
7.624970E+03	6.824912E-04	1.278702E-04
7.634873E+03	6.866959E-04	1.286249E-04
7.644775E+03	6.908494E-04	1.293695E-04
7.654678E+03	6.949459E-04	1.301031E-04
7.664581E+03	6.989803E-04	1.308248E-04
7.674483E+03	7.029469E-04	1.315334E-04
7.684386E+03	7.068580E-04	1.322313E-04
