#wls	flux	fluxerr
1.584409E+03	2.338264E-03	1.185242E-03
1.624020E+03	2.418606E-03	1.225784E-03
1.663630E+03	2.497405E-03	1.265524E-03
1.703240E+03	2.574338E-03	1.304295E-03
1.742850E+03	2.648266E-03	1.341521E-03
1.782461E+03	2.718691E-03	1.376948E-03
1.822071E+03	2.784557E-03	1.410041E-03
1.861681E+03	2.845208E-03	1.440470E-03
1.901291E+03	2.899689E-03	1.467750E-03
1.940902E+03	2.946995E-03	1.491374E-03
1.980512E+03	2.985670E-03	1.510606E-03
2.020122E+03	3.014725E-03	1.524949E-03
2.059732E+03	3.033011E-03	1.533824E-03
2.099342E+03	3.038905E-03	1.536413E-03
2.138953E+03	3.031032E-03	1.532027E-03
2.178563E+03	3.007789E-03	1.519860E-03
2.218173E+03	2.967876E-03	1.499262E-03
2.257783E+03	2.911147E-03	1.470167E-03
2.297394E+03	2.838159E-03	1.432864E-03
2.337004E+03	2.751143E-03	1.388487E-03
2.376614E+03	2.652102E-03	1.338057E-03
2.416224E+03	2.542860E-03	1.282499E-03
2.455835E+03	2.425396E-03	1.222819E-03
2.495445E+03	2.301280E-03	1.159814E-03
2.535055E+03	2.171891E-03	1.094184E-03
2.574665E+03	2.038881E-03	1.026768E-03
2.614276E+03	1.903487E-03	9.581915E-04
2.653886E+03	1.767142E-03	8.891806E-04
2.693496E+03	1.631050E-03	8.203435E-04
2.733106E+03	1.496613E-03	7.523883E-04
2.772716E+03	1.365011E-03	6.859083E-04
2.812327E+03	1.237484E-03	6.215282E-04
2.851937E+03	1.115203E-03	5.598347E-04
2.891547E+03	9.992364E-04	5.013628E-04
2.931157E+03	8.905132E-04	4.465762E-04
2.970768E+03	7.897666E-04	3.958389E-04
2.980670E+03	7.658828E-04	3.838151E-04
2.990573E+03	7.425425E-04	3.720666E-04
3.000475E+03	7.197297E-04	3.605852E-04
3.010378E+03	6.974766E-04	3.493871E-04
3.020280E+03	6.757656E-04	3.384633E-04
3.030183E+03	6.545960E-04	3.278134E-04
3.040086E+03	6.339661E-04	3.174365E-04
3.049988E+03	6.138996E-04	3.073443E-04
3.059891E+03	5.943669E-04	2.975219E-04
3.069793E+03	5.753883E-04	2.879794E-04
3.079696E+03	5.569468E-04	2.787082E-04
3.089598E+03	5.390485E-04	2.697112E-04
3.099501E+03	5.216867E-04	2.609851E-04
3.109403E+03	5.048548E-04	2.525263E-04
3.119306E+03	4.885458E-04	2.443314E-04
3.129209E+03	4.727614E-04	2.364010E-04
3.139111E+03	4.574846E-04	2.287266E-04
3.149014E+03	4.427157E-04	2.213083E-04
3.158916E+03	4.284458E-04	2.141414E-04
3.168819E+03	4.146657E-04	2.072213E-04
3.178721E+03	4.013729E-04	2.005466E-04
3.188624E+03	3.885439E-04	1.941056E-04
3.198526E+03	3.761889E-04	1.879031E-04
3.208429E+03	3.642781E-04	1.819243E-04
3.218332E+03	3.528200E-04	1.761733E-04
3.228234E+03	3.417917E-04	1.706386E-04
3.238137E+03	3.311885E-04	1.653176E-04
3.248039E+03	3.209995E-04	1.602050E-04
3.257942E+03	3.112088E-04	1.552926E-04
3.267844E+03	3.018155E-04	1.505800E-04
3.277747E+03	2.927992E-04	1.460569E-04
3.287650E+03	2.841495E-04	1.417180E-04
3.297552E+03	2.758644E-04	1.375622E-04
3.307455E+03	2.679247E-04	1.335799E-04
3.317357E+03	2.603202E-04	1.297660E-04
3.327260E+03	2.530410E-04	1.261153E-04
3.337162E+03	2.460805E-04	1.226246E-04
3.347065E+03	2.394216E-04	1.192852E-04
3.356967E+03	2.330553E-04	1.160927E-04
3.366870E+03	2.269753E-04	1.130437E-04
3.376773E+03	2.211692E-04	1.101321E-04
3.386675E+03	2.156283E-04	1.073535E-04
3.396578E+03	2.103385E-04	1.047007E-04
3.406480E+03	2.052943E-04	1.021711E-04
3.416383E+03	2.004878E-04	9.976051E-05
3.426285E+03	1.959064E-04	9.746267E-05
3.436188E+03	1.915427E-04	9.527389E-05
3.446090E+03	1.873878E-04	9.318964E-05
3.455993E+03	1.834370E-04	9.120756E-05
3.465896E+03	1.796776E-04	8.932128E-05
3.475798E+03	1.761056E-04	8.752880E-05
3.485701E+03	1.727116E-04	8.582529E-05
3.495603E+03	1.694879E-04	8.420700E-05
3.505506E+03	1.664280E-04	8.267057E-05
3.515408E+03	1.635234E-04	8.121178E-05
3.525311E+03	1.607699E-04	7.982850E-05
3.535213E+03	1.581582E-04	7.851610E-05
3.545116E+03	1.556832E-04	7.727191E-05
3.555019E+03	1.533412E-04	7.609416E-05
3.564921E+03	1.511259E-04	7.497968E-05
3.574824E+03	1.490326E-04	7.392608E-05
3.584726E+03	1.470557E-04	7.293050E-05
3.594629E+03	1.451894E-04	7.199014E-05
3.604531E+03	1.434301E-04	7.110309E-05
3.614434E+03	1.417715E-04	7.026622E-05
3.624337E+03	1.402115E-04	6.947846E-05
3.634239E+03	1.387442E-04	6.873693E-05
3.644142E+03	1.373667E-04	6.804005E-05
3.654044E+03	1.360774E-04	6.738709E-05
3.663947E+03	1.348708E-04	6.677530E-05
3.673849E+03	1.337446E-04	6.620342E-05
3.683752E+03	1.326984E-04	6.567135E-05
3.693654E+03	1.317285E-04	6.517719E-05
3.703557E+03	1.308325E-04	6.471968E-05
3.713460E+03	1.300103E-04	6.429883E-05
3.723362E+03	1.292583E-04	6.391277E-05
3.733265E+03	1.285754E-04	6.356095E-05
3.743167E+03	1.279614E-04	6.324328E-05
3.753070E+03	1.274140E-04	6.295860E-05
3.762972E+03	1.269321E-04	6.270632E-05
3.772875E+03	1.265145E-04	6.248583E-05
3.782777E+03	1.261600E-04	6.229650E-05
3.792680E+03	1.258686E-04	6.213833E-05
3.802583E+03	1.256379E-04	6.201018E-05
3.812485E+03	1.254679E-04	6.191192E-05
3.822388E+03	1.253587E-04	6.184360E-05
3.832290E+03	1.253078E-04	6.180400E-05
3.842193E+03	1.253142E-04	6.179260E-05
3.852095E+03	1.253788E-04	6.180985E-05
3.861998E+03	1.255005E-04	6.185512E-05
3.871900E+03	1.256770E-04	6.192735E-05
3.881803E+03	1.259096E-04	6.202703E-05
3.891706E+03	1.261979E-04	6.215404E-05
3.901608E+03	1.265386E-04	6.230677E-05
3.911511E+03	1.269329E-04	6.248568E-05
3.921413E+03	1.273807E-04	6.269076E-05
3.931316E+03	1.278807E-04	6.292137E-05
3.941218E+03	1.284310E-04	6.317648E-05
3.951121E+03	1.290334E-04	6.345703E-05
3.961024E+03	1.296857E-04	6.376191E-05
3.970926E+03	1.303870E-04	6.409064E-05
3.980829E+03	1.311381E-04	6.444362E-05
3.990731E+03	1.319370E-04	6.481976E-05
4.000634E+03	1.327847E-04	6.521965E-05
4.010536E+03	1.336778E-04	6.564156E-05
4.020439E+03	1.346186E-04	6.608657E-05
4.030341E+03	1.356050E-04	6.655361E-05
4.040244E+03	1.366357E-04	6.704210E-05
4.050147E+03	1.377120E-04	6.755264E-05
4.060049E+03	1.388305E-04	6.808352E-05
4.069952E+03	1.399937E-04	6.863591E-05
4.079854E+03	1.411980E-04	6.920811E-05
4.089757E+03	1.424438E-04	6.980025E-05
4.099659E+03	1.437310E-04	7.041223E-05
4.109562E+03	1.450575E-04	7.104310E-05
4.119464E+03	1.464235E-04	7.169286E-05
4.129367E+03	1.478279E-04	7.236098E-05
4.139270E+03	1.492686E-04	7.304639E-05
4.149172E+03	1.507469E-04	7.374976E-05
4.159075E+03	1.522594E-04	7.446939E-05
4.168977E+03	1.538075E-04	7.520596E-05
4.178880E+03	1.553880E-04	7.595779E-05
4.188782E+03	1.570008E-04	7.672498E-05
4.198685E+03	1.586451E-04	7.750700E-05
4.208587E+03	1.603172E-04	7.830208E-05
4.218490E+03	1.620186E-04	7.911093E-05
4.228393E+03	1.637471E-04	7.993242E-05
4.238295E+03	1.655001E-04	8.076534E-05
4.248198E+03	1.672752E-04	8.160848E-05
4.258100E+03	1.690724E-04	8.246183E-05
4.268003E+03	1.708908E-04	8.332490E-05
4.277905E+03	1.727248E-04	8.419497E-05
4.287808E+03	1.745757E-04	8.507269E-05
4.297711E+03	1.764381E-04	8.595539E-05
4.307613E+03	1.783132E-04	8.684367E-05
4.317516E+03	1.801965E-04	8.773535E-05
4.327418E+03	1.820879E-04	8.863031E-05
4.337321E+03	1.839873E-04	8.952856E-05
4.347223E+03	1.858945E-04	9.042995E-05
4.357126E+03	1.878094E-04	9.133444E-05
4.367028E+03	1.897334E-04	9.224269E-05
4.376931E+03	1.916679E-04	9.315543E-05
4.386834E+03	1.936130E-04	9.407264E-05
4.396736E+03	1.955704E-04	9.499517E-05
4.406639E+03	1.975386E-04	9.592228E-05
4.416541E+03	1.995210E-04	9.685559E-05
4.426444E+03	2.015163E-04	9.779448E-05
4.436346E+03	2.035245E-04	9.873897E-05
4.446249E+03	2.055462E-04	9.968933E-05
4.456151E+03	2.075818E-04	1.006457E-04
4.466054E+03	2.096316E-04	1.016082E-04
4.475957E+03	2.116961E-04	1.025772E-04
4.485859E+03	2.137723E-04	1.035511E-04
4.495762E+03	2.158644E-04	1.045319E-04
4.505664E+03	2.179694E-04	1.055183E-04
4.515567E+03	2.200880E-04	1.065105E-04
4.525469E+03	2.222188E-04	1.075079E-04
4.535372E+03	2.243649E-04	1.085119E-04
4.545274E+03	2.265252E-04	1.095220E-04
4.555177E+03	2.286966E-04	1.105366E-04
4.565080E+03	2.308842E-04	1.115583E-04
4.574982E+03	2.330853E-04	1.125857E-04
4.584885E+03	2.352987E-04	1.136183E-04
4.594787E+03	2.375281E-04	1.146578E-04
4.604690E+03	2.397748E-04	1.157048E-04
4.614592E+03	2.420341E-04	1.167570E-04
4.624495E+03	2.443119E-04	1.178173E-04
4.634398E+03	2.466078E-04	1.188856E-04
4.644300E+03	2.489216E-04	1.199615E-04
4.654203E+03	2.512552E-04	1.210461E-04
4.664105E+03	2.536084E-04	1.221393E-04
4.674008E+03	2.559836E-04	1.232422E-04
4.683910E+03	2.583759E-04	1.243524E-04
4.693813E+03	2.607878E-04	1.254710E-04
4.703715E+03	2.632216E-04	1.265994E-04
4.713618E+03	2.656702E-04	1.277338E-04
4.723521E+03	2.681384E-04	1.288768E-04
4.733423E+03	2.706238E-04	1.300270E-04
4.743326E+03	2.731239E-04	1.311834E-04
4.753228E+03	2.756440E-04	1.323483E-04
4.763131E+03	2.781762E-04	1.335181E-04
4.773033E+03	2.807286E-04	1.346965E-04
4.782936E+03	2.832930E-04	1.358797E-04
4.792838E+03	2.858750E-04	1.370703E-04
4.802741E+03	2.884688E-04	1.382655E-04
4.812644E+03	2.910800E-04	1.394680E-04
4.822546E+03	2.937029E-04	1.406750E-04
4.832449E+03	2.963398E-04	1.418877E-04
4.842351E+03	2.989906E-04	1.431059E-04
4.852254E+03	3.016518E-04	1.443280E-04
4.862156E+03	3.043229E-04	1.455537E-04
4.872059E+03	3.070033E-04	1.467828E-04
4.881961E+03	3.096950E-04	1.480161E-04
4.891864E+03	3.123911E-04	1.492505E-04
4.901767E+03	3.150966E-04	1.504881E-04
4.911669E+03	3.178040E-04	1.517255E-04
4.921572E+03	3.205149E-04	1.529635E-04
4.931474E+03	3.232245E-04	1.541996E-04
4.941377E+03	3.259309E-04	1.554330E-04
4.951279E+03	3.286318E-04	1.566627E-04
4.961182E+03	3.313283E-04	1.578890E-04
4.971085E+03	3.340111E-04	1.591077E-04
4.980987E+03	3.366807E-04	1.603189E-04
4.990890E+03	3.393307E-04	1.615195E-04
5.000792E+03	3.419610E-04	1.627096E-04
5.010695E+03	3.445647E-04	1.638859E-04
5.020597E+03	3.471345E-04	1.650448E-04
5.030500E+03	3.496694E-04	1.661860E-04
5.040402E+03	3.521653E-04	1.673075E-04
5.050305E+03	3.546139E-04	1.684053E-04
5.060208E+03	3.570068E-04	1.694756E-04
5.070110E+03	3.593461E-04	1.705192E-04
5.080013E+03	3.616191E-04	1.715304E-04
5.089915E+03	3.638205E-04	1.725064E-04
5.099818E+03	3.659444E-04	1.734447E-04
5.109720E+03	3.679852E-04	1.743424E-04
5.119623E+03	3.699331E-04	1.751952E-04
5.129525E+03	3.717859E-04	1.760020E-04
5.139428E+03	3.735302E-04	1.767564E-04
5.149331E+03	3.751636E-04	1.774575E-04
5.159233E+03	3.766726E-04	1.780988E-04
5.169136E+03	3.780588E-04	1.786812E-04
5.179038E+03	3.793090E-04	1.791986E-04
5.188941E+03	3.804215E-04	1.796502E-04
5.198843E+03	3.813835E-04	1.800300E-04
5.208746E+03	3.821939E-04	1.803376E-04
5.218648E+03	3.828482E-04	1.805711E-04
5.228551E+03	3.833349E-04	1.807250E-04
5.238454E+03	3.836506E-04	1.807978E-04
5.248356E+03	3.837964E-04	1.807901E-04
5.258259E+03	3.837665E-04	1.806995E-04
5.268161E+03	3.835558E-04	1.805234E-04
5.278064E+03	3.831640E-04	1.802620E-04
5.287966E+03	3.825917E-04	1.799155E-04
5.297869E+03	3.818405E-04	1.794849E-04
5.307772E+03	3.809091E-04	1.789697E-04
5.317674E+03	3.798051E-04	1.783735E-04
5.327577E+03	3.785295E-04	1.776969E-04
5.337479E+03	3.770918E-04	1.769446E-04
5.347382E+03	3.754952E-04	1.761180E-04
5.357284E+03	3.737555E-04	1.752247E-04
5.367187E+03	3.718850E-04	1.742706E-04
5.377089E+03	3.698904E-04	1.732588E-04
5.386992E+03	3.677932E-04	1.721995E-04
5.396895E+03	3.656054E-04	1.710985E-04
5.406797E+03	3.633245E-04	1.699546E-04
5.416700E+03	3.609748E-04	1.687792E-04
5.426602E+03	3.585628E-04	1.675754E-04
5.436505E+03	3.560954E-04	1.663466E-04
5.446407E+03	3.535842E-04	1.650980E-04
5.456310E+03	3.510367E-04	1.638333E-04
5.466212E+03	3.484615E-04	1.625566E-04
5.476115E+03	3.458739E-04	1.612749E-04
5.486018E+03	3.432824E-04	1.599923E-04
5.495920E+03	3.407055E-04	1.587174E-04
5.505823E+03	3.381581E-04	1.574571E-04
5.515725E+03	3.356510E-04	1.562164E-04
5.525628E+03	3.332015E-04	1.550033E-04
5.535530E+03	3.308227E-04	1.538240E-04
5.545433E+03	3.285271E-04	1.526842E-04
5.555335E+03	3.263298E-04	1.515908E-04
5.565238E+03	3.242416E-04	1.505488E-04
5.575141E+03	3.222727E-04	1.495629E-04
5.585043E+03	3.204357E-04	1.486388E-04
5.594946E+03	3.187390E-04	1.477804E-04
5.604848E+03	3.171935E-04	1.469926E-04
5.614751E+03	3.158062E-04	1.462785E-04
5.624653E+03	3.145830E-04	1.456408E-04
5.634556E+03	3.135325E-04	1.450834E-04
5.644459E+03	3.126596E-04	1.446084E-04
5.654361E+03	3.119684E-04	1.442175E-04
5.664264E+03	3.114655E-04	1.439138E-04
5.674166E+03	3.111541E-04	1.436986E-04
5.684069E+03	3.110399E-04	1.435743E-04
5.693971E+03	3.111219E-04	1.435403E-04
5.703874E+03	3.114084E-04	1.436005E-04
5.713776E+03	3.118978E-04	1.437538E-04
5.723679E+03	3.125912E-04	1.440007E-04
5.733582E+03	3.134965E-04	1.443446E-04
5.743484E+03	3.146078E-04	1.447827E-04
5.753387E+03	3.159327E-04	1.453182E-04
5.763289E+03	3.174717E-04	1.459514E-04
5.773192E+03	3.192253E-04	1.466824E-04
5.783094E+03	3.211906E-04	1.475095E-04
5.792997E+03	3.233749E-04	1.484360E-04
5.802899E+03	3.257748E-04	1.494602E-04
5.812802E+03	3.283940E-04	1.505836E-04
5.822705E+03	3.312325E-04	1.518061E-04
5.832607E+03	3.342865E-04	1.531257E-04
5.842510E+03	3.375593E-04	1.545438E-04
5.852412E+03	3.410540E-04	1.560618E-04
5.862315E+03	3.447625E-04	1.576756E-04
5.872217E+03	3.486872E-04	1.593862E-04
5.882120E+03	3.528268E-04	1.611930E-04
5.892022E+03	3.571834E-04	1.630967E-04
5.901925E+03	3.617471E-04	1.650925E-04
5.911828E+03	3.665230E-04	1.671827E-04
5.921730E+03	3.715000E-04	1.693621E-04
5.931633E+03	3.766785E-04	1.716307E-04
5.941535E+03	3.820541E-04	1.739862E-04
5.951438E+03	3.876175E-04	1.764245E-04
5.961340E+03	3.933678E-04	1.789448E-04
5.971243E+03	3.992894E-04	1.815400E-04
5.981146E+03	4.053846E-04	1.842109E-04
5.991048E+03	4.116315E-04	1.869476E-04
6.000951E+03	4.180311E-04	1.897502E-04
6.010853E+03	4.245641E-04	1.926101E-04
6.020756E+03	4.312256E-04	1.955247E-04
6.030658E+03	4.379945E-04	1.984845E-04
6.040561E+03	4.448591E-04	2.014841E-04
6.050463E+03	4.518017E-04	2.045154E-04
6.060366E+03	4.588092E-04	2.075724E-04
6.070269E+03	4.658568E-04	2.106438E-04
6.080171E+03	4.729248E-04	2.137207E-04
6.090074E+03	4.799979E-04	2.167962E-04
6.099976E+03	4.870554E-04	2.198609E-04
6.109879E+03	4.940637E-04	2.228997E-04
6.119781E+03	5.010070E-04	2.259054E-04
6.129684E+03	5.078628E-04	2.288681E-04
6.139586E+03	5.146156E-04	2.317807E-04
6.149489E+03	5.212566E-04	2.346394E-04
6.159392E+03	5.277780E-04	2.374408E-04
6.169294E+03	5.341801E-04	2.401851E-04
6.179197E+03	5.404786E-04	2.428794E-04
6.189099E+03	5.466710E-04	2.455227E-04
6.199002E+03	5.527486E-04	2.481113E-04
6.208904E+03	5.587331E-04	2.506547E-04
6.218807E+03	5.646263E-04	2.531541E-04
6.228709E+03	5.704162E-04	2.556041E-04
6.238612E+03	5.761298E-04	2.580169E-04
6.248515E+03	5.817494E-04	2.603845E-04
6.258417E+03	5.872971E-04	2.627170E-04
6.268320E+03	5.927645E-04	2.650106E-04
6.278222E+03	5.981599E-04	2.672691E-04
6.288125E+03	6.034842E-04	2.694930E-04
6.298027E+03	6.087387E-04	2.716829E-04
6.307930E+03	6.139251E-04	2.738396E-04
6.317833E+03	6.190371E-04	2.759603E-04
6.327735E+03	6.240678E-04	2.780421E-04
6.337638E+03	6.290283E-04	2.800899E-04
6.347540E+03	6.339029E-04	2.820968E-04
6.357443E+03	6.387029E-04	2.840678E-04
6.367345E+03	6.434216E-04	2.860002E-04
6.377248E+03	6.480615E-04	2.878949E-04
6.387150E+03	6.526343E-04	2.897574E-04
6.397053E+03	6.571627E-04	2.915977E-04
6.406956E+03	6.616503E-04	2.934174E-04
6.416858E+03	6.661108E-04	2.952226E-04
6.426761E+03	6.705585E-04	2.970198E-04
6.436663E+03	6.749876E-04	2.988063E-04
6.446566E+03	6.794232E-04	3.005932E-04
6.456468E+03	6.838697E-04	3.023826E-04
6.466371E+03	6.883214E-04	3.041718E-04
6.476273E+03	6.928039E-04	3.059722E-04
6.486176E+03	6.973113E-04	3.077811E-04
6.496079E+03	7.018367E-04	3.095955E-04
6.505981E+03	7.064065E-04	3.114270E-04
6.515884E+03	7.110136E-04	3.132725E-04
6.525786E+03	7.156619E-04	3.151336E-04
6.535689E+03	7.203666E-04	3.170170E-04
6.545591E+03	7.251083E-04	3.189141E-04
6.555494E+03	7.298895E-04	3.208260E-04
6.565396E+03	7.347371E-04	3.227645E-04
6.575299E+03	7.396301E-04	3.247203E-04
6.585202E+03	7.445704E-04	3.266942E-04
6.595104E+03	7.495726E-04	3.286926E-04
6.605007E+03	7.546263E-04	3.307109E-04
6.614909E+03	7.597329E-04	3.327496E-04
6.624812E+03	7.649066E-04	3.348150E-04
6.634714E+03	7.701227E-04	3.368962E-04
6.644617E+03	7.753816E-04	3.389932E-04
6.654520E+03	7.807102E-04	3.411180E-04
6.664422E+03	7.860822E-04	3.432589E-04
6.674325E+03	7.914972E-04	3.454157E-04
6.684227E+03	7.969688E-04	3.475943E-04
6.694130E+03	8.024825E-04	3.497883E-04
6.704032E+03	8.080375E-04	3.519975E-04
6.713935E+03	8.136324E-04	3.542211E-04
6.723837E+03	8.192662E-04	3.564587E-04
6.733740E+03	8.249224E-04	3.587032E-04
6.743643E+03	8.306140E-04	3.609601E-04
6.753545E+03	8.363391E-04	3.632286E-04
6.763448E+03	8.420806E-04	3.655012E-04
6.773350E+03	8.478512E-04	3.677836E-04
6.783253E+03	8.536332E-04	3.700679E-04
6.793155E+03	8.594239E-04	3.723530E-04
6.803058E+03	8.652202E-04	3.746377E-04
6.812960E+03	8.710031E-04	3.769136E-04
6.822863E+03	8.768018E-04	3.791935E-04
6.832766E+03	8.825973E-04	3.814691E-04
6.842668E+03	8.883695E-04	3.837317E-04
6.852571E+03	8.941323E-04	3.859874E-04
6.862473E+03	8.998652E-04	3.882274E-04
6.872376E+03	9.055648E-04	3.904503E-04
6.882278E+03	9.112452E-04	3.926622E-04
6.892181E+03	9.168861E-04	3.948542E-04
6.902083E+03	9.224842E-04	3.970252E-04
6.911986E+03	9.280366E-04	3.991739E-04
6.921889E+03	9.335405E-04	4.012991E-04
6.931791E+03	9.389751E-04	4.033920E-04
6.941694E+03	9.443744E-04	4.054673E-04
6.951596E+03	9.496996E-04	4.075083E-04
6.961499E+03	9.549484E-04	4.095141E-04
6.971401E+03	9.601377E-04	4.114922E-04
6.981304E+03	9.652473E-04	4.134338E-04
6.991207E+03	9.702757E-04	4.153384E-04
7.001109E+03	9.752220E-04	4.172058E-04
7.011012E+03	9.800855E-04	4.190357E-04
7.020914E+03	9.848855E-04	4.208366E-04
7.030817E+03	9.895835E-04	4.225918E-04
7.040719E+03	9.941773E-04	4.243008E-04
7.050622E+03	9.986904E-04	4.259736E-04
7.060524E+03	1.003121E-03	4.276094E-04
7.070427E+03	1.007450E-03	4.292007E-04
7.080330E+03	1.011702E-03	4.307571E-04
7.090232E+03	1.015834E-03	4.322612E-04
7.100135E+03	1.019890E-03	4.337318E-04
7.110037E+03	1.023851E-03	4.351605E-04
7.119940E+03	1.027720E-03	4.365487E-04
7.129842E+03	1.031475E-03	4.378876E-04
7.139745E+03	1.035163E-03	4.391970E-04
7.149647E+03	1.038741E-03	4.404588E-04
7.159550E+03	1.042234E-03	4.416836E-04
7.169453E+03	1.045622E-03	4.428630E-04
7.179355E+03	1.048928E-03	4.440072E-04
7.189258E+03	1.052133E-03	4.451077E-04
7.199160E+03	1.055236E-03	4.461648E-04
7.209063E+03	1.058264E-03	4.471896E-04
7.218965E+03	1.061193E-03	4.481722E-04
7.228868E+03	1.064050E-03	4.491239E-04
7.238770E+03	1.066790E-03	4.500260E-04
7.248673E+03	1.069436E-03	4.508885E-04
7.258576E+03	1.072014E-03	4.517224E-04
7.268478E+03	1.074478E-03	4.525081E-04
7.278381E+03	1.076854E-03	4.532568E-04
7.288283E+03	1.079119E-03	4.539590E-04
7.298186E+03	1.081298E-03	4.546252E-04
7.308088E+03	1.083370E-03	4.552471E-04
7.317991E+03	1.085336E-03	4.558248E-04
7.327894E+03	1.087199E-03	4.563599E-04
7.337796E+03	1.088937E-03	4.568428E-04
7.347699E+03	1.090551E-03	4.572745E-04
7.357601E+03	1.092044E-03	4.576567E-04
7.367504E+03	1.093418E-03	4.579897E-04
7.377406E+03	1.094702E-03	4.582860E-04
7.387309E+03	1.095873E-03	4.585361E-04
7.397211E+03	1.096982E-03	4.587617E-04
7.407114E+03	1.098036E-03	4.589652E-04
7.417017E+03	1.099035E-03	4.591474E-04
7.426919E+03	1.099984E-03	4.593098E-04
7.436822E+03	1.100885E-03	4.594536E-04
7.446724E+03	1.101792E-03	4.596014E-04
7.456627E+03	1.102653E-03	4.597320E-04
7.466529E+03	1.103497E-03	4.598566E-04
7.476432E+03	1.104323E-03	4.599757E-04
7.486334E+03	1.105158E-03	4.600997E-04
7.496237E+03	1.105949E-03	4.602073E-04
7.506140E+03	1.106723E-03	4.603093E-04
7.516042E+03	1.107479E-03	4.604053E-04
7.525945E+03	1.108242E-03	4.605061E-04
7.535847E+03	1.108961E-03	4.605896E-04
7.545750E+03	1.109683E-03	4.606766E-04
7.555652E+03	1.110387E-03	4.607572E-04
7.565555E+03	1.111040E-03	4.608187E-04
7.575457E+03	1.111698E-03	4.608833E-04
7.585360E+03	1.112329E-03	4.609389E-04
7.595263E+03	1.112934E-03	4.609850E-04
7.605165E+03	1.113511E-03	4.610212E-04
7.615068E+03	1.114057E-03	4.610462E-04
7.624970E+03	1.114571E-03	4.610596E-04
7.634873E+03	1.115079E-03	4.610719E-04
7.644775E+03	1.115521E-03	4.610591E-04
7.654678E+03	1.115951E-03	4.610427E-04
7.664581E+03	1.116340E-03	4.610108E-04
7.674483E+03	1.116684E-03	4.609622E-04
7.684386E+03	1.116979E-03	4.608952E-04
