#wls	flux	fluxerr
1.584409E+03	4.936028E-03	1.360332E-03
1.624020E+03	5.100678E-03	1.405690E-03
1.663630E+03	5.258990E-03	1.449299E-03
1.703240E+03	5.409538E-03	1.490767E-03
1.742850E+03	5.550204E-03	1.529510E-03
1.782461E+03	5.679257E-03	1.565051E-03
1.822071E+03	5.794308E-03	1.596732E-03
1.861681E+03	5.893914E-03	1.624155E-03
1.901291E+03	5.976031E-03	1.646758E-03
1.940902E+03	6.038083E-03	1.663830E-03
1.980512E+03	6.078535E-03	1.674948E-03
2.020122E+03	6.094965E-03	1.679447E-03
2.059732E+03	6.085189E-03	1.676723E-03
2.099342E+03	6.048194E-03	1.666500E-03
2.138953E+03	5.981242E-03	1.648021E-03
2.178563E+03	5.882370E-03	1.620748E-03
2.218173E+03	5.749461E-03	1.584097E-03
2.257783E+03	5.579376E-03	1.537205E-03
2.297394E+03	5.377806E-03	1.481638E-03
2.337004E+03	5.150685E-03	1.419034E-03
2.376614E+03	4.902667E-03	1.350675E-03
2.416224E+03	4.637674E-03	1.277642E-03
2.455835E+03	4.359547E-03	1.200993E-03
2.495445E+03	4.071837E-03	1.121707E-03
2.535055E+03	3.777751E-03	1.040667E-03
2.574665E+03	3.480739E-03	9.588251E-04
2.614276E+03	3.184095E-03	8.770878E-04
2.653886E+03	2.890990E-03	7.963289E-04
2.693496E+03	2.604456E-03	7.173835E-04
2.733106E+03	2.327515E-03	6.410844E-04
2.772716E+03	2.062624E-03	5.681075E-04
2.812327E+03	1.812111E-03	4.990946E-04
2.851937E+03	1.578168E-03	4.346491E-04
2.891547E+03	1.362617E-03	3.752720E-04
2.931157E+03	1.166900E-03	3.213606E-04
2.970768E+03	9.918010E-04	2.731303E-04
2.980670E+03	9.512611E-04	2.619640E-04
2.990573E+03	9.120077E-04	2.511522E-04
3.000475E+03	8.740468E-04	2.406964E-04
3.010378E+03	8.373598E-04	2.305916E-04
3.020280E+03	8.019284E-04	2.208327E-04
3.030183E+03	7.677495E-04	2.114189E-04
3.040086E+03	7.347849E-04	2.023396E-04
3.049988E+03	7.030434E-04	1.935972E-04
3.059891E+03	6.724844E-04	1.851806E-04
3.069793E+03	6.430972E-04	1.770868E-04
3.079696E+03	6.148546E-04	1.693084E-04
3.089598E+03	5.877412E-04	1.618409E-04
3.099501E+03	5.617275E-04	1.546764E-04
3.109403E+03	5.367842E-04	1.478068E-04
3.119306E+03	5.128912E-04	1.412265E-04
3.129209E+03	4.900085E-04	1.349245E-04
3.139111E+03	4.681240E-04	1.288974E-04
3.149014E+03	4.471968E-04	1.231340E-04
3.158916E+03	4.272039E-04	1.176280E-04
3.168819E+03	4.081135E-04	1.123706E-04
3.178721E+03	3.898945E-04	1.073531E-04
3.188624E+03	3.725219E-04	1.025689E-04
3.198526E+03	3.559645E-04	9.800910E-05
3.208429E+03	3.401851E-04	9.366363E-05
3.218332E+03	3.251705E-04	8.952880E-05
3.228234E+03	3.108737E-04	8.559168E-05
3.238137E+03	2.972805E-04	8.184836E-05
3.248039E+03	2.843521E-04	7.828813E-05
3.257942E+03	2.720649E-04	7.490447E-05
3.267844E+03	2.603949E-04	7.169084E-05
3.277747E+03	2.493072E-04	6.863756E-05
3.287650E+03	2.387834E-04	6.573956E-05
3.297552E+03	2.287974E-04	6.298970E-05
3.307455E+03	2.193212E-04	6.038025E-05
3.317357E+03	2.103313E-04	5.790470E-05
3.327260E+03	2.018048E-04	5.555679E-05
3.337162E+03	1.937226E-04	5.333122E-05
3.347065E+03	1.860581E-04	5.122070E-05
3.356967E+03	1.787963E-04	4.922106E-05
3.366870E+03	1.719127E-04	4.732561E-05
3.376773E+03	1.653894E-04	4.552933E-05
3.386675E+03	1.592106E-04	4.382794E-05
3.396578E+03	1.533536E-04	4.221517E-05
3.406480E+03	1.478066E-04	4.068776E-05
3.416383E+03	1.425524E-04	3.924100E-05
3.426285E+03	1.375719E-04	3.786959E-05
3.436188E+03	1.328550E-04	3.657078E-05
3.446090E+03	1.283844E-04	3.533978E-05
3.455993E+03	1.241483E-04	3.417338E-05
3.465896E+03	1.201343E-04	3.306811E-05
3.475798E+03	1.163266E-04	3.201965E-05
3.485701E+03	1.127158E-04	3.102543E-05
3.495603E+03	1.092895E-04	3.008199E-05
3.505506E+03	1.060361E-04	2.918616E-05
3.515408E+03	1.029460E-04	2.833529E-05
3.525311E+03	1.000081E-04	2.752634E-05
3.535213E+03	9.721327E-05	2.675680E-05
3.545116E+03	9.455213E-05	2.602406E-05
3.555019E+03	9.201779E-05	2.532623E-05
3.564921E+03	8.960279E-05	2.466126E-05
3.574824E+03	8.729942E-05	2.402703E-05
3.584726E+03	8.510213E-05	2.342200E-05
3.594629E+03	8.300556E-05	2.284471E-05
3.604531E+03	8.100317E-05	2.229335E-05
3.614434E+03	7.909251E-05	2.176725E-05
3.624337E+03	7.726749E-05	2.126473E-05
3.634239E+03	7.552515E-05	2.078497E-05
3.644142E+03	7.386190E-05	2.032699E-05
3.654044E+03	7.227424E-05	1.988982E-05
3.663947E+03	7.075945E-05	1.947271E-05
3.673849E+03	6.931539E-05	1.907508E-05
3.683752E+03	6.793759E-05	1.869569E-05
3.693654E+03	6.662528E-05	1.833433E-05
3.703557E+03	6.537472E-05	1.798996E-05
3.713460E+03	6.418407E-05	1.766210E-05
3.723362E+03	6.305143E-05	1.735020E-05
3.733265E+03	6.197337E-05	1.705332E-05
3.743167E+03	6.094922E-05	1.677129E-05
3.753070E+03	5.997621E-05	1.650334E-05
3.762972E+03	5.905268E-05	1.624900E-05
3.772875E+03	5.817652E-05	1.600771E-05
3.782777E+03	5.734623E-05	1.577904E-05
3.792680E+03	5.655985E-05	1.556246E-05
3.802583E+03	5.581590E-05	1.535756E-05
3.812485E+03	5.511256E-05	1.516383E-05
3.822388E+03	5.444898E-05	1.498105E-05
3.832290E+03	5.382339E-05	1.480873E-05
3.842193E+03	5.323415E-05	1.464641E-05
3.852095E+03	5.268011E-05	1.449377E-05
3.861998E+03	5.215969E-05	1.435039E-05
3.871900E+03	5.167230E-05	1.421610E-05
3.881803E+03	5.121643E-05	1.409049E-05
3.891706E+03	5.079117E-05	1.397330E-05
3.901608E+03	5.039511E-05	1.386414E-05
3.911511E+03	5.002705E-05	1.376269E-05
3.921413E+03	4.968686E-05	1.366890E-05
3.931316E+03	4.937261E-05	1.358226E-05
3.941218E+03	4.908388E-05	1.350264E-05
3.951121E+03	4.881960E-05	1.342974E-05
3.961024E+03	4.857902E-05	1.336336E-05
3.970926E+03	4.836149E-05	1.330333E-05
3.980829E+03	4.816569E-05	1.324927E-05
3.990731E+03	4.799131E-05	1.320110E-05
4.000634E+03	4.783748E-05	1.315859E-05
4.010536E+03	4.770362E-05	1.312157E-05
4.020439E+03	4.758886E-05	1.308981E-05
4.030341E+03	4.749236E-05	1.306307E-05
4.040244E+03	4.741400E-05	1.304131E-05
4.050147E+03	4.735266E-05	1.302424E-05
4.060049E+03	4.730789E-05	1.301173E-05
4.069952E+03	4.727930E-05	1.300366E-05
4.079854E+03	4.726586E-05	1.299976E-05
4.089757E+03	4.726751E-05	1.300001E-05
4.099659E+03	4.728326E-05	1.300413E-05
4.109562E+03	4.731277E-05	1.301204E-05
4.119464E+03	4.735578E-05	1.302366E-05
4.129367E+03	4.741126E-05	1.303871E-05
4.139270E+03	4.747932E-05	1.305721E-05
4.149172E+03	4.755868E-05	1.307882E-05
4.159075E+03	4.764982E-05	1.310367E-05
4.168977E+03	4.775144E-05	1.313140E-05
4.178880E+03	4.786332E-05	1.316195E-05
4.188782E+03	4.798496E-05	1.319517E-05
4.198685E+03	4.811614E-05	1.323102E-05
4.208587E+03	4.825563E-05	1.326916E-05
4.218490E+03	4.840364E-05	1.330963E-05
4.228393E+03	4.855926E-05	1.335219E-05
4.238295E+03	4.872166E-05	1.339661E-05
4.248198E+03	4.889067E-05	1.344285E-05
4.258100E+03	4.906578E-05	1.349077E-05
4.268003E+03	4.924576E-05	1.354002E-05
4.277905E+03	4.943010E-05	1.359046E-05
4.287808E+03	4.961828E-05	1.364196E-05
4.297711E+03	4.980985E-05	1.369438E-05
4.307613E+03	5.000426E-05	1.374758E-05
4.317516E+03	5.020143E-05	1.380154E-05
4.327418E+03	5.040090E-05	1.385613E-05
4.337321E+03	5.060216E-05	1.391121E-05
4.347223E+03	5.080600E-05	1.396699E-05
4.357126E+03	5.101190E-05	1.402333E-05
4.367028E+03	5.121988E-05	1.408025E-05
4.376931E+03	5.143033E-05	1.413783E-05
4.386834E+03	5.164328E-05	1.419611E-05
4.396736E+03	5.185830E-05	1.425494E-05
4.406639E+03	5.207593E-05	1.431449E-05
4.416541E+03	5.229576E-05	1.437464E-05
4.426444E+03	5.251797E-05	1.443544E-05
4.436346E+03	5.274256E-05	1.449690E-05
4.446249E+03	5.296892E-05	1.455883E-05
4.456151E+03	5.319755E-05	1.462139E-05
4.466054E+03	5.342827E-05	1.468451E-05
4.475957E+03	5.366082E-05	1.474813E-05
4.485859E+03	5.389540E-05	1.481231E-05
4.495762E+03	5.413137E-05	1.487687E-05
4.505664E+03	5.436902E-05	1.494188E-05
4.515567E+03	5.460864E-05	1.500743E-05
4.525469E+03	5.485011E-05	1.507348E-05
4.535372E+03	5.509280E-05	1.513986E-05
4.545274E+03	5.533711E-05	1.520669E-05
4.555177E+03	5.558290E-05	1.527391E-05
4.565080E+03	5.583018E-05	1.534155E-05
4.574982E+03	5.607931E-05	1.540968E-05
4.584885E+03	5.632985E-05	1.547820E-05
4.594787E+03	5.658220E-05	1.554721E-05
4.604690E+03	5.683641E-05	1.561673E-05
4.614592E+03	5.709248E-05	1.568675E-05
4.624495E+03	5.735046E-05	1.575729E-05
4.634398E+03	5.761041E-05	1.582837E-05
4.644300E+03	5.787236E-05	1.589999E-05
4.654203E+03	5.813747E-05	1.597248E-05
4.664105E+03	5.840580E-05	1.604584E-05
4.674008E+03	5.867748E-05	1.612012E-05
4.683910E+03	5.895374E-05	1.619566E-05
4.693813E+03	5.923422E-05	1.627234E-05
4.703715E+03	5.951905E-05	1.635022E-05
4.713618E+03	5.980900E-05	1.642950E-05
4.723521E+03	6.010425E-05	1.651022E-05
4.733423E+03	6.040450E-05	1.659232E-05
4.743326E+03	6.071051E-05	1.667599E-05
4.753228E+03	6.102251E-05	1.676130E-05
4.763131E+03	6.134020E-05	1.684816E-05
4.773033E+03	6.166440E-05	1.693681E-05
4.782936E+03	6.199535E-05	1.702731E-05
4.792838E+03	6.233333E-05	1.711973E-05
4.802741E+03	6.267867E-05	1.721416E-05
4.812644E+03	6.303103E-05	1.731051E-05
4.822546E+03	6.339186E-05	1.740919E-05
4.832449E+03	6.376033E-05	1.750995E-05
4.842351E+03	6.413670E-05	1.761288E-05
4.852254E+03	6.452191E-05	1.771822E-05
4.862156E+03	6.491620E-05	1.782606E-05
4.872059E+03	6.531997E-05	1.793648E-05
4.881961E+03	6.573228E-05	1.804925E-05
4.891864E+03	6.615463E-05	1.816476E-05
4.901767E+03	6.658677E-05	1.828295E-05
4.911669E+03	6.702896E-05	1.840390E-05
4.921572E+03	6.748154E-05	1.852768E-05
4.931474E+03	6.794480E-05	1.865439E-05
4.941377E+03	6.841836E-05	1.878392E-05
4.951279E+03	6.890255E-05	1.891635E-05
4.961182E+03	6.939828E-05	1.905195E-05
4.971085E+03	6.990518E-05	1.919060E-05
4.980987E+03	7.042283E-05	1.933219E-05
4.990890E+03	7.095283E-05	1.947716E-05
5.000792E+03	7.149341E-05	1.962503E-05
5.010695E+03	7.204613E-05	1.977621E-05
5.020597E+03	7.261127E-05	1.993080E-05
5.030500E+03	7.318693E-05	2.008825E-05
5.040402E+03	7.377536E-05	2.024921E-05
5.050305E+03	7.437540E-05	2.041333E-05
5.060208E+03	7.498720E-05	2.058067E-05
5.070110E+03	7.561162E-05	2.075147E-05
5.080013E+03	7.624735E-05	2.092535E-05
5.089915E+03	7.689451E-05	2.110236E-05
5.099818E+03	7.755394E-05	2.128272E-05
5.109720E+03	7.822497E-05	2.146625E-05
5.119623E+03	7.890768E-05	2.165297E-05
5.129525E+03	7.960136E-05	2.184269E-05
5.139428E+03	8.030674E-05	2.203560E-05
5.149331E+03	8.102231E-05	2.223129E-05
5.159233E+03	8.174961E-05	2.243019E-05
5.169136E+03	8.248777E-05	2.263205E-05
5.179038E+03	8.323594E-05	2.283664E-05
5.188941E+03	8.399400E-05	2.304393E-05
5.198843E+03	8.476259E-05	2.325409E-05
5.208746E+03	8.553992E-05	2.346663E-05
5.218648E+03	8.632657E-05	2.368171E-05
5.228551E+03	8.712317E-05	2.389950E-05
5.238454E+03	8.792691E-05	2.411923E-05
5.248356E+03	8.874000E-05	2.434151E-05
5.258259E+03	8.955948E-05	2.456553E-05
5.268161E+03	9.038765E-05	2.479191E-05
5.278064E+03	9.122133E-05	2.501978E-05
5.287966E+03	9.206188E-05	2.524952E-05
5.297869E+03	9.290876E-05	2.548097E-05
5.307772E+03	9.376048E-05	2.571374E-05
5.317674E+03	9.461833E-05	2.594816E-05
5.327577E+03	9.547878E-05	2.618328E-05
5.337479E+03	9.634405E-05	2.641969E-05
5.347382E+03	9.721236E-05	2.665692E-05
5.357284E+03	9.808301E-05	2.689477E-05
5.367187E+03	9.895508E-05	2.713300E-05
5.377089E+03	9.982771E-05	2.737135E-05
5.386992E+03	1.006990E-04	2.760930E-05
5.396895E+03	1.015678E-04	2.784658E-05
5.406797E+03	1.024332E-04	2.808287E-05
5.416700E+03	1.032939E-04	2.831788E-05
5.426602E+03	1.041478E-04	2.855099E-05
5.436505E+03	1.049926E-04	2.878157E-05
5.446407E+03	1.058279E-04	2.900956E-05
5.456310E+03	1.066515E-04	2.923429E-05
5.466212E+03	1.074607E-04	2.945508E-05
5.476115E+03	1.082531E-04	2.967122E-05
5.486018E+03	1.090283E-04	2.988262E-05
5.495920E+03	1.097824E-04	3.008822E-05
5.505823E+03	1.105150E-04	3.028792E-05
5.515725E+03	1.112223E-04	3.048065E-05
5.525628E+03	1.119026E-04	3.066598E-05
5.535530E+03	1.125554E-04	3.084375E-05
5.545433E+03	1.131769E-04	3.101293E-05
5.555335E+03	1.137666E-04	3.117337E-05
5.565238E+03	1.143230E-04	3.132464E-05
5.575141E+03	1.148433E-04	3.146604E-05
5.585043E+03	1.153261E-04	3.159712E-05
5.594946E+03	1.157711E-04	3.171784E-05
5.604848E+03	1.161770E-04	3.182783E-05
5.614751E+03	1.165413E-04	3.192643E-05
5.624653E+03	1.168641E-04	3.201363E-05
5.634556E+03	1.171455E-04	3.208949E-05
5.644459E+03	1.173822E-04	3.215306E-05
5.654361E+03	1.175745E-04	3.220447E-05
5.664264E+03	1.177229E-04	3.224385E-05
5.674166E+03	1.178268E-04	3.227103E-05
5.684069E+03	1.178857E-04	3.228590E-05
5.693971E+03	1.178994E-04	3.228837E-05
5.703874E+03	1.178677E-04	3.227839E-05
5.713776E+03	1.177918E-04	3.225629E-05
5.723679E+03	1.176704E-04	3.222176E-05
5.733582E+03	1.175065E-04	3.217555E-05
5.743484E+03	1.172990E-04	3.211743E-05
5.753387E+03	1.170486E-04	3.204753E-05
5.763289E+03	1.167583E-04	3.196673E-05
5.773192E+03	1.164265E-04	3.187457E-05
5.783094E+03	1.160553E-04	3.177162E-05
5.792997E+03	1.156471E-04	3.165853E-05
5.802899E+03	1.152016E-04	3.153524E-05
5.812802E+03	1.147214E-04	3.140247E-05
5.822705E+03	1.142067E-04	3.126023E-05
5.832607E+03	1.136612E-04	3.110960E-05
5.842510E+03	1.130853E-04	3.095064E-05
5.852412E+03	1.124806E-04	3.078380E-05
5.862315E+03	1.118499E-04	3.060985E-05
5.872217E+03	1.111936E-04	3.042892E-05
5.882120E+03	1.105148E-04	3.024182E-05
5.892022E+03	1.098138E-04	3.004867E-05
5.901925E+03	1.090938E-04	2.985031E-05
5.911828E+03	1.083564E-04	2.964723E-05
5.921730E+03	1.076034E-04	2.943989E-05
5.931633E+03	1.068354E-04	2.922844E-05
5.941535E+03	1.060553E-04	2.901370E-05
5.951438E+03	1.052648E-04	2.879613E-05
5.961340E+03	1.044644E-04	2.857586E-05
5.971243E+03	1.036569E-04	2.835367E-05
5.981146E+03	1.028428E-04	2.812968E-05
5.991048E+03	1.020223E-04	2.790398E-05
6.000951E+03	1.011995E-04	2.767763E-05
6.010853E+03	1.003733E-04	2.745038E-05
6.020756E+03	9.954632E-05	2.722294E-05
6.030658E+03	9.871762E-05	2.699504E-05
6.040561E+03	9.788960E-05	2.676734E-05
6.050463E+03	9.706234E-05	2.653986E-05
6.060366E+03	9.623702E-05	2.631293E-05
6.070269E+03	9.541469E-05	2.608683E-05
6.080171E+03	9.459527E-05	2.586154E-05
6.090074E+03	9.377971E-05	2.563733E-05
6.099976E+03	9.296898E-05	2.541444E-05
6.109879E+03	9.216393E-05	2.519313E-05
6.119781E+03	9.136534E-05	2.497360E-05
6.129684E+03	9.057280E-05	2.475574E-05
6.139586E+03	8.978813E-05	2.454005E-05
6.149489E+03	8.901198E-05	2.432670E-05
6.159392E+03	8.824489E-05	2.411584E-05
6.169294E+03	8.748849E-05	2.390792E-05
6.179197E+03	8.674436E-05	2.370337E-05
6.189099E+03	8.601405E-05	2.350261E-05
6.199002E+03	8.529901E-05	2.330604E-05
6.208904E+03	8.460067E-05	2.311404E-05
6.218807E+03	8.392148E-05	2.292729E-05
6.228709E+03	8.326051E-05	2.274553E-05
6.238612E+03	8.262245E-05	2.257005E-05
6.248515E+03	8.200628E-05	2.240056E-05
6.258417E+03	8.141434E-05	2.223769E-05
6.268320E+03	8.084779E-05	2.208178E-05
6.278222E+03	8.030781E-05	2.193313E-05
6.288125E+03	7.979445E-05	2.179176E-05
6.298027E+03	7.930883E-05	2.165798E-05
6.307930E+03	7.885212E-05	2.153210E-05
6.317833E+03	7.842424E-05	2.141410E-05
6.327735E+03	7.802527E-05	2.130400E-05
6.337638E+03	7.765629E-05	2.120210E-05
6.347540E+03	7.731507E-05	2.110778E-05
6.357443E+03	7.700157E-05	2.102104E-05
6.367345E+03	7.671468E-05	2.094156E-05
6.377248E+03	7.645213E-05	2.086874E-05
6.387150E+03	7.621501E-05	2.080285E-05
6.397053E+03	7.600104E-05	2.074329E-05
6.406956E+03	7.581133E-05	2.069035E-05
6.416858E+03	7.564586E-05	2.064403E-05
6.426761E+03	7.550350E-05	2.060401E-05
6.436663E+03	7.538421E-05	2.057029E-05
6.446566E+03	7.528796E-05	2.054285E-05
6.456468E+03	7.521476E-05	2.052171E-05
6.466371E+03	7.516461E-05	2.050684E-05
6.476273E+03	7.513866E-05	2.049858E-05
6.486176E+03	7.513579E-05	2.049661E-05
6.496079E+03	7.515479E-05	2.050060E-05
6.505981E+03	7.519803E-05	2.051120E-05
6.515884E+03	7.526317E-05	2.052776E-05
6.525786E+03	7.535144E-05	2.055062E-05
6.535689E+03	7.546285E-05	2.057979E-05
6.545591E+03	7.559747E-05	2.061528E-05
6.555494E+03	7.575535E-05	2.065711E-05
6.565396E+03	7.593525E-05	2.070493E-05
6.575299E+03	7.613853E-05	2.075911E-05
6.585202E+03	7.636397E-05	2.081932E-05
6.595104E+03	7.661290E-05	2.088592E-05
6.605007E+03	7.688412E-05	2.095859E-05
6.614909E+03	7.717771E-05	2.103734E-05
6.624812E+03	7.749505E-05	2.112255E-05
6.634714E+03	7.783622E-05	2.121424E-05
6.644617E+03	7.819871E-05	2.131173E-05
6.654520E+03	7.858529E-05	2.141576E-05
6.664422E+03	7.899332E-05	2.152562E-05
6.674325E+03	7.942567E-05	2.164209E-05
6.684227E+03	7.988108E-05	2.176482E-05
6.694130E+03	8.035824E-05	2.189346E-05
6.704032E+03	8.086014E-05	2.202882E-05
6.713935E+03	8.138404E-05	2.217015E-05
6.723837E+03	8.193148E-05	2.231787E-05
6.733740E+03	8.250260E-05	2.247201E-05
6.743643E+03	8.309758E-05	2.263263E-05
6.753545E+03	8.371505E-05	2.279935E-05
6.763448E+03	8.435663E-05	2.297261E-05
6.773350E+03	8.502095E-05	2.315203E-05
6.783253E+03	8.570967E-05	2.333807E-05
6.793155E+03	8.642142E-05	2.353035E-05
6.803058E+03	8.715628E-05	2.372889E-05
6.812960E+03	8.791601E-05	2.393418E-05
6.822863E+03	8.869746E-05	2.414534E-05
6.832766E+03	8.950409E-05	2.436333E-05
6.842668E+03	9.033435E-05	2.458771E-05
6.852571E+03	9.118838E-05	2.481853E-05
6.862473E+03	9.206631E-05	2.505582E-05
6.872376E+03	9.296825E-05	2.529960E-05
6.882278E+03	9.389253E-05	2.554943E-05
6.892181E+03	9.484102E-05	2.580580E-05
6.902083E+03	9.581390E-05	2.606877E-05
6.911986E+03	9.681121E-05	2.633835E-05
6.921889E+03	9.782932E-05	2.661355E-05
6.931791E+03	9.887399E-05	2.689593E-05
6.941694E+03	9.993953E-05	2.718394E-05
6.951596E+03	1.010298E-04	2.747865E-05
6.961499E+03	1.021431E-04	2.777954E-05
6.971401E+03	1.032792E-04	2.808663E-05
6.981304E+03	1.044383E-04	2.839990E-05
6.991207E+03	1.056204E-04	2.871938E-05
7.001109E+03	1.068234E-04	2.904447E-05
7.011012E+03	1.080492E-04	2.937576E-05
7.020914E+03	1.092980E-04	2.971323E-05
7.030817E+03	1.105675E-04	3.005627E-05
7.040719E+03	1.118599E-04	3.040546E-05
7.050622E+03	1.131728E-04	3.076020E-05
7.060524E+03	1.145061E-04	3.112042E-05
7.070427E+03	1.158596E-04	3.148608E-05
7.080330E+03	1.172357E-04	3.185782E-05
7.090232E+03	1.186294E-04	3.223427E-05
7.100135E+03	1.200403E-04	3.261537E-05
7.110037E+03	1.214733E-04	3.300240E-05
7.119940E+03	1.229232E-04	3.339393E-05
7.129842E+03	1.243895E-04	3.378989E-05
7.139745E+03	1.258745E-04	3.419089E-05
7.149647E+03	1.273755E-04	3.459613E-05
7.159550E+03	1.288919E-04	3.500551E-05
7.169453E+03	1.304234E-04	3.541891E-05
7.179355E+03	1.319695E-04	3.583623E-05
7.189258E+03	1.335327E-04	3.625812E-05
7.199160E+03	1.351067E-04	3.668290E-05
7.209063E+03	1.366970E-04	3.711201E-05
7.218965E+03	1.383001E-04	3.754454E-05
7.228868E+03	1.399155E-04	3.798034E-05
7.238770E+03	1.415458E-04	3.842010E-05
7.248673E+03	1.431873E-04	3.886286E-05
7.258576E+03	1.448427E-04	3.930933E-05
7.268478E+03	1.465116E-04	3.975937E-05
7.278381E+03	1.481967E-04	4.021376E-05
7.288283E+03	1.498978E-04	4.067239E-05
7.298186E+03	1.516179E-04	4.113613E-05
7.308088E+03	1.533534E-04	4.160395E-05
7.317991E+03	1.551144E-04	4.207864E-05
7.327894E+03	1.569010E-04	4.256021E-05
7.337796E+03	1.587098E-04	4.304771E-05
7.347699E+03	1.605518E-04	4.354415E-05
7.357601E+03	1.624237E-04	4.404861E-05
7.367504E+03	1.643296E-04	4.456221E-05
7.377406E+03	1.662660E-04	4.508402E-05
7.387309E+03	1.682372E-04	4.561518E-05
7.397211E+03	1.702316E-04	4.615253E-05
7.407114E+03	1.722571E-04	4.669826E-05
7.417017E+03	1.743017E-04	4.724907E-05
7.426919E+03	1.763692E-04	4.780599E-05
7.436822E+03	1.784551E-04	4.836784E-05
7.446724E+03	1.805549E-04	4.893335E-05
7.456627E+03	1.826722E-04	4.950353E-05
7.466529E+03	1.847933E-04	5.007465E-05
7.476432E+03	1.869262E-04	5.064888E-05
7.486334E+03	1.890656E-04	5.122480E-05
7.496237E+03	1.912107E-04	5.180217E-05
7.506140E+03	1.933558E-04	5.237944E-05
7.516042E+03	1.955045E-04	5.295761E-05
7.525945E+03	1.976509E-04	5.353508E-05
7.535847E+03	1.997938E-04	5.411152E-05
7.545750E+03	2.019370E-04	5.468795E-05
7.555652E+03	2.040743E-04	5.526269E-05
7.565555E+03	2.062095E-04	5.583677E-05
7.575457E+03	2.083309E-04	5.640704E-05
7.585360E+03	2.104475E-04	5.697594E-05
7.595263E+03	2.125527E-04	5.754166E-05
7.605165E+03	2.146505E-04	5.810530E-05
7.615068E+03	2.167340E-04	5.866500E-05
7.624970E+03	2.188018E-04	5.922034E-05
7.634873E+03	2.208521E-04	5.977089E-05
7.644775E+03	2.228950E-04	6.031935E-05
7.654678E+03	2.249117E-04	6.086065E-05
7.664581E+03	2.269181E-04	6.139909E-05
7.674483E+03	2.289010E-04	6.193109E-05
7.684386E+03	2.308648E-04	6.245786E-05
