#wls	flux	fluxerr
1.584409E+03	4.994736E-04	3.920013E-04
1.624020E+03	4.978807E-04	3.910268E-04
1.663630E+03	4.934795E-04	3.878453E-04
1.703240E+03	4.860464E-04	3.822761E-04
1.742850E+03	4.753188E-04	3.741073E-04
1.782461E+03	4.611019E-04	3.631798E-04
1.822071E+03	4.431877E-04	3.493234E-04
1.861681E+03	4.214912E-04	3.324645E-04
1.901291E+03	3.959322E-04	3.125330E-04
1.940902E+03	3.664647E-04	2.894856E-04
1.980512E+03	3.331866E-04	2.633925E-04
2.020122E+03	2.962278E-04	2.343495E-04
2.059732E+03	2.558358E-04	2.025457E-04
2.099342E+03	2.124131E-04	1.682935E-04
2.138953E+03	1.664087E-04	1.319433E-04
2.178563E+03	1.184426E-04	9.398223E-05
2.218173E+03	6.927943E-05	5.501346E-05
2.257783E+03	1.984457E-05	1.577008E-05
2.297394E+03	-2.877100E-05	-2.288101E-05
2.337004E+03	-7.558082E-05	-6.015338E-05
2.376614E+03	-1.197008E-04	-9.533972E-05
2.416224E+03	-1.603295E-04	-1.277965E-04
2.455835E+03	-1.967614E-04	-1.569545E-04
2.495445E+03	-2.283914E-04	-1.823231E-04
2.535055E+03	-2.547161E-04	-2.034914E-04
2.574665E+03	-2.753809E-04	-2.201661E-04
2.614276E+03	-2.901775E-04	-2.321703E-04
2.653886E+03	-2.990566E-04	-2.394538E-04
2.693496E+03	-3.021365E-04	-2.421005E-04
2.733106E+03	-2.997250E-04	-2.403468E-04
2.772716E+03	-2.922509E-04	-2.345268E-04
2.812327E+03	-2.803047E-04	-2.251056E-04
2.851937E+03	-2.646309E-04	-2.126738E-04
2.891547E+03	-2.460783E-04	-1.979073E-04
2.931157E+03	-2.255715E-04	-1.815455E-04
2.970768E+03	-2.040247E-04	-1.643213E-04
2.980670E+03	-1.985744E-04	-1.599600E-04
2.990573E+03	-1.931236E-04	-1.555968E-04
3.000475E+03	-1.876872E-04	-1.512434E-04
3.010378E+03	-1.822746E-04	-1.469076E-04
3.020280E+03	-1.768955E-04	-1.425973E-04
3.030183E+03	-1.715628E-04	-1.383227E-04
3.040086E+03	-1.662812E-04	-1.340878E-04
3.049988E+03	-1.610661E-04	-1.299050E-04
3.059891E+03	-1.559215E-04	-1.257776E-04
3.069793E+03	-1.508580E-04	-1.217140E-04
3.079696E+03	-1.458821E-04	-1.177197E-04
3.089598E+03	-1.410027E-04	-1.138019E-04
3.099501E+03	-1.362252E-04	-1.099649E-04
3.109403E+03	-1.315546E-04	-1.062127E-04
3.119306E+03	-1.269977E-04	-1.025512E-04
3.129209E+03	-1.225560E-04	-9.898121E-05
3.139111E+03	-1.182372E-04	-9.550935E-05
3.149014E+03	-1.140417E-04	-9.213581E-05
3.158916E+03	-1.099736E-04	-8.886405E-05
3.168819E+03	-1.060342E-04	-8.569514E-05
3.178721E+03	-1.022245E-04	-8.262996E-05
3.188624E+03	-9.854637E-05	-7.967011E-05
3.198526E+03	-9.499970E-05	-7.681548E-05
3.208429E+03	-9.158216E-05	-7.406430E-05
3.218332E+03	-8.829715E-05	-7.141935E-05
3.228234E+03	-8.513862E-05	-6.887580E-05
3.238137E+03	-8.210895E-05	-6.643564E-05
3.248039E+03	-7.920298E-05	-6.409474E-05
3.257942E+03	-7.641962E-05	-6.185227E-05
3.267844E+03	-7.375717E-05	-5.970692E-05
3.277747E+03	-7.121046E-05	-5.765453E-05
3.287650E+03	-6.877842E-05	-5.569430E-05
3.297552E+03	-6.645775E-05	-5.382360E-05
3.307455E+03	-6.424407E-05	-5.203894E-05
3.317357E+03	-6.213401E-05	-5.033762E-05
3.327260E+03	-6.012417E-05	-4.871693E-05
3.337162E+03	-5.821190E-05	-4.717477E-05
3.347065E+03	-5.639219E-05	-4.570711E-05
3.356967E+03	-5.466318E-05	-4.431248E-05
3.366870E+03	-5.302003E-05	-4.298700E-05
3.376773E+03	-5.145955E-05	-4.172812E-05
3.386675E+03	-4.997920E-05	-4.053381E-05
3.396578E+03	-4.857401E-05	-3.940006E-05
3.406480E+03	-4.724228E-05	-3.832553E-05
3.416383E+03	-4.598051E-05	-3.730741E-05
3.426285E+03	-4.478434E-05	-3.634220E-05
3.436188E+03	-4.365228E-05	-3.542869E-05
3.446090E+03	-4.258033E-05	-3.456368E-05
3.455993E+03	-4.156619E-05	-3.374531E-05
3.465896E+03	-4.060718E-05	-3.297144E-05
3.475798E+03	-3.969949E-05	-3.223899E-05
3.485701E+03	-3.884127E-05	-3.154648E-05
3.495603E+03	-3.802954E-05	-3.089150E-05
3.505506E+03	-3.726153E-05	-3.027183E-05
3.515408E+03	-3.653506E-05	-2.968570E-05
3.525311E+03	-3.584735E-05	-2.913087E-05
3.535213E+03	-3.519615E-05	-2.860554E-05
3.545116E+03	-3.457905E-05	-2.810776E-05
3.555019E+03	-3.399450E-05	-2.763626E-05
3.564921E+03	-3.344063E-05	-2.718956E-05
3.574824E+03	-3.291543E-05	-2.676602E-05
3.584726E+03	-3.241759E-05	-2.636458E-05
3.594629E+03	-3.194586E-05	-2.598425E-05
3.604531E+03	-3.149847E-05	-2.562359E-05
3.614434E+03	-3.107514E-05	-2.528238E-05
3.624337E+03	-3.067417E-05	-2.495925E-05
3.634239E+03	-3.029503E-05	-2.465377E-05
3.644142E+03	-2.993691E-05	-2.436528E-05
3.654044E+03	-2.959899E-05	-2.409315E-05
3.663947E+03	-2.928074E-05	-2.383693E-05
3.673849E+03	-2.898186E-05	-2.359638E-05
3.683752E+03	-2.870105E-05	-2.337045E-05
3.693654E+03	-2.843848E-05	-2.315930E-05
3.703557E+03	-2.819310E-05	-2.296206E-05
3.713460E+03	-2.796460E-05	-2.277850E-05
3.723362E+03	-2.775266E-05	-2.260835E-05
3.733265E+03	-2.755623E-05	-2.245077E-05
3.743167E+03	-2.737548E-05	-2.230589E-05
3.753070E+03	-2.720962E-05	-2.217309E-05
3.762972E+03	-2.705834E-05	-2.205210E-05
3.772875E+03	-2.692112E-05	-2.194252E-05
3.782777E+03	-2.679768E-05	-2.184412E-05
3.792680E+03	-2.668752E-05	-2.175648E-05
3.802583E+03	-2.659040E-05	-2.167941E-05
3.812485E+03	-2.650583E-05	-2.161254E-05
3.822388E+03	-2.643379E-05	-2.155583E-05
3.832290E+03	-2.637384E-05	-2.150894E-05
3.842193E+03	-2.632558E-05	-2.147153E-05
3.852095E+03	-2.628878E-05	-2.144343E-05
3.861998E+03	-2.626304E-05	-2.142430E-05
3.871900E+03	-2.624837E-05	-2.141417E-05
3.881803E+03	-2.624439E-05	-2.141272E-05
3.891706E+03	-2.625091E-05	-2.141980E-05
3.901608E+03	-2.626754E-05	-2.143509E-05
3.911511E+03	-2.629393E-05	-2.145831E-05
3.921413E+03	-2.633029E-05	-2.148962E-05
3.931316E+03	-2.637584E-05	-2.152841E-05
3.941218E+03	-2.643064E-05	-2.157470E-05
3.951121E+03	-2.649432E-05	-2.162821E-05
3.961024E+03	-2.656672E-05	-2.168880E-05
3.970926E+03	-2.664768E-05	-2.175635E-05
3.980829E+03	-2.673664E-05	-2.183040E-05
3.990731E+03	-2.683367E-05	-2.191099E-05
4.000634E+03	-2.693841E-05	-2.199785E-05
4.010536E+03	-2.705071E-05	-2.209084E-05
4.020439E+03	-2.717022E-05	-2.218969E-05
4.030341E+03	-2.729662E-05	-2.229413E-05
4.040244E+03	-2.742996E-05	-2.240421E-05
4.050147E+03	-2.756973E-05	-2.251949E-05
4.060049E+03	-2.771580E-05	-2.263988E-05
4.069952E+03	-2.786805E-05	-2.276528E-05
4.079854E+03	-2.802596E-05	-2.289526E-05
4.089757E+03	-2.818965E-05	-2.302993E-05
4.099659E+03	-2.835861E-05	-2.316885E-05
4.109562E+03	-2.853274E-05	-2.331196E-05
4.119464E+03	-2.871197E-05	-2.345919E-05
4.129367E+03	-2.889581E-05	-2.361013E-05
4.139270E+03	-2.908438E-05	-2.376490E-05
4.149172E+03	-2.927699E-05	-2.392291E-05
4.159075E+03	-2.947400E-05	-2.408447E-05
4.168977E+03	-2.967469E-05	-2.424899E-05
4.178880E+03	-2.987903E-05	-2.441642E-05
4.188782E+03	-3.008673E-05	-2.458655E-05
4.198685E+03	-3.029777E-05	-2.475935E-05
4.208587E+03	-3.051142E-05	-2.493422E-05
4.218490E+03	-3.072788E-05	-2.511132E-05
4.228393E+03	-3.094665E-05	-2.529025E-05
4.238295E+03	-3.116722E-05	-2.547058E-05
4.248198E+03	-3.138959E-05	-2.565232E-05
4.258100E+03	-3.161347E-05	-2.583521E-05
4.268003E+03	-3.183808E-05	-2.601863E-05
4.277905E+03	-3.206316E-05	-2.620235E-05
4.287808E+03	-3.228837E-05	-2.638610E-05
4.297711E+03	-3.251341E-05	-2.656963E-05
4.307613E+03	-3.273795E-05	-2.675267E-05
4.317516E+03	-3.296190E-05	-2.693513E-05
4.327418E+03	-3.318492E-05	-2.711675E-05
4.337321E+03	-3.340663E-05	-2.729721E-05
4.347223E+03	-3.362746E-05	-2.747686E-05
4.357126E+03	-3.384703E-05	-2.765538E-05
4.367028E+03	-3.406524E-05	-2.783268E-05
4.376931E+03	-3.428221E-05	-2.800888E-05
4.386834E+03	-3.449784E-05	-2.818387E-05
4.396736E+03	-3.471175E-05	-2.835735E-05
4.406639E+03	-3.492408E-05	-2.852943E-05
4.416541E+03	-3.513445E-05	-2.869980E-05
4.426444E+03	-3.534274E-05	-2.886835E-05
4.436346E+03	-3.554887E-05	-2.903503E-05
4.446249E+03	-3.575216E-05	-2.919926E-05
4.456151E+03	-3.595282E-05	-2.936121E-05
4.466054E+03	-3.615050E-05	-2.952061E-05
4.475957E+03	-3.634486E-05	-2.967717E-05
4.485859E+03	-3.653587E-05	-2.983087E-05
4.495762E+03	-3.672291E-05	-2.998118E-05
4.505664E+03	-3.690597E-05	-3.012810E-05
4.515567E+03	-3.708508E-05	-3.027167E-05
4.525469E+03	-3.725996E-05	-3.041163E-05
4.535372E+03	-3.743005E-05	-3.054754E-05
4.545274E+03	-3.759541E-05	-3.067944E-05
4.555177E+03	-3.775581E-05	-3.080714E-05
4.565080E+03	-3.791103E-05	-3.093046E-05
4.574982E+03	-3.806120E-05	-3.104951E-05
4.584885E+03	-3.820577E-05	-3.116384E-05
4.594787E+03	-3.834493E-05	-3.127359E-05
4.604690E+03	-3.847851E-05	-3.137863E-05
4.614592E+03	-3.860635E-05	-3.147882E-05
4.624495E+03	-3.872830E-05	-3.157405E-05
4.634398E+03	-3.884424E-05	-3.166420E-05
4.644300E+03	-3.895404E-05	-3.174919E-05
4.654203E+03	-3.905826E-05	-3.182946E-05
4.664105E+03	-3.915682E-05	-3.190494E-05
4.674008E+03	-3.924959E-05	-3.197553E-05
4.683910E+03	-3.933722E-05	-3.204176E-05
4.693813E+03	-3.941925E-05	-3.210325E-05
4.703715E+03	-3.949561E-05	-3.215995E-05
4.713618E+03	-3.956657E-05	-3.221207E-05
4.723521E+03	-3.963207E-05	-3.225957E-05
4.733423E+03	-3.969167E-05	-3.230208E-05
4.743326E+03	-3.974567E-05	-3.233985E-05
4.753228E+03	-3.979400E-05	-3.237282E-05
4.763131E+03	-3.983620E-05	-3.240063E-05
4.773033E+03	-3.987255E-05	-3.242350E-05
4.782936E+03	-3.990299E-05	-3.244137E-05
4.792838E+03	-3.992740E-05	-3.245416E-05
4.802741E+03	-3.994570E-05	-3.246179E-05
4.812644E+03	-3.995742E-05	-3.246389E-05
4.822546E+03	-3.996314E-05	-3.246093E-05
4.832449E+03	-3.996201E-05	-3.245223E-05
4.842351E+03	-3.995390E-05	-3.243767E-05
4.852254E+03	-3.993902E-05	-3.241743E-05
4.862156E+03	-3.991718E-05	-3.239136E-05
4.872059E+03	-3.988821E-05	-3.235932E-05
4.881961E+03	-3.985118E-05	-3.232057E-05
4.891864E+03	-3.980660E-05	-3.227551E-05
4.901767E+03	-3.975386E-05	-3.222367E-05
4.911669E+03	-3.969271E-05	-3.216483E-05
4.921572E+03	-3.962288E-05	-3.209879E-05
4.931474E+03	-3.954405E-05	-3.202529E-05
4.941377E+03	-3.945555E-05	-3.194379E-05
4.951279E+03	-3.935701E-05	-3.185401E-05
4.961182E+03	-3.924843E-05	-3.175594E-05
4.971085E+03	-3.912905E-05	-3.164899E-05
4.980987E+03	-3.899805E-05	-3.153249E-05
4.990890E+03	-3.885574E-05	-3.140671E-05
5.000792E+03	-3.870051E-05	-3.127035E-05
5.010695E+03	-3.853263E-05	-3.112365E-05
5.020597E+03	-3.835157E-05	-3.096619E-05
5.030500E+03	-3.815569E-05	-3.079665E-05
5.040402E+03	-3.794554E-05	-3.061550E-05
5.050305E+03	-3.771982E-05	-3.042169E-05
5.060208E+03	-3.747795E-05	-3.021479E-05
5.070110E+03	-3.721970E-05	-2.999462E-05
5.080013E+03	-3.694373E-05	-2.976012E-05
5.089915E+03	-3.664946E-05	-2.951084E-05
5.099818E+03	-3.633659E-05	-2.924657E-05
5.109720E+03	-3.600419E-05	-2.896656E-05
5.119623E+03	-3.565159E-05	-2.867033E-05
5.129525E+03	-3.527784E-05	-2.835712E-05
5.139428E+03	-3.488266E-05	-2.802674E-05
5.149331E+03	-3.446475E-05	-2.767816E-05
5.159233E+03	-3.402417E-05	-2.731148E-05
5.169136E+03	-3.355997E-05	-2.692596E-05
5.179038E+03	-3.307122E-05	-2.652089E-05
5.188941E+03	-3.255732E-05	-2.609583E-05
5.198843E+03	-3.201802E-05	-2.565061E-05
5.208746E+03	-3.145212E-05	-2.518431E-05
5.218648E+03	-3.085936E-05	-2.469676E-05
5.228551E+03	-3.023949E-05	-2.418783E-05
5.238454E+03	-2.959109E-05	-2.365639E-05
5.248356E+03	-2.891450E-05	-2.310279E-05
5.258259E+03	-2.820837E-05	-2.252599E-05
5.268161E+03	-2.747303E-05	-2.192632E-05
5.278064E+03	-2.670720E-05	-2.130279E-05
5.287966E+03	-2.591096E-05	-2.065554E-05
5.297869E+03	-2.508386E-05	-1.998426E-05
5.307772E+03	-2.422525E-05	-1.928850E-05
5.317674E+03	-2.333521E-05	-1.856838E-05
5.327577E+03	-2.241266E-05	-1.782311E-05
5.337479E+03	-2.145796E-05	-1.705304E-05
5.347382E+03	-2.047052E-05	-1.625778E-05
5.357284E+03	-1.945005E-05	-1.543716E-05
5.367187E+03	-1.839624E-05	-1.459102E-05
5.377089E+03	-1.730881E-05	-1.371921E-05
5.386992E+03	-1.618734E-05	-1.282147E-05
5.396895E+03	-1.503158E-05	-1.189771E-05
5.406797E+03	-1.384132E-05	-1.094781E-05
5.416700E+03	-1.261633E-05	-9.971700E-06
5.426602E+03	-1.135626E-05	-8.969192E-06
5.436505E+03	-1.006083E-05	-7.940149E-06
5.446407E+03	-8.729974E-06	-6.884612E-06
5.456310E+03	-7.363422E-06	-5.802472E-06
5.466212E+03	-5.960964E-06	-4.693660E-06
5.476115E+03	-4.522446E-06	-3.558158E-06
5.486018E+03	-3.047844E-06	-2.396051E-06
5.495920E+03	-1.537039E-06	-1.207354E-06
5.505823E+03	9.955810E-09	7.813891E-09
5.515725E+03	1.593118E-06	1.249322E-06
5.525628E+03	3.212340E-06	2.516972E-06
5.535530E+03	4.867532E-06	3.810576E-06
5.545433E+03	6.558435E-06	5.129812E-06
5.555335E+03	8.284866E-06	6.474417E-06
5.565238E+03	1.004656E-05	7.844062E-06
5.575141E+03	1.184310E-05	9.238285E-06
5.585043E+03	1.367404E-05	1.065663E-05
5.594946E+03	1.553908E-05	1.209872E-05
5.604848E+03	1.743773E-05	1.356405E-05
5.614751E+03	1.936924E-05	1.505190E-05
5.624653E+03	2.133319E-05	1.656182E-05
5.634556E+03	2.332915E-05	1.809333E-05
5.644459E+03	2.535594E-05	1.964539E-05
5.654361E+03	2.741301E-05	2.121742E-05
5.664264E+03	2.949983E-05	2.280890E-05
5.674166E+03	3.161559E-05	2.441905E-05
5.684069E+03	3.375942E-05	2.604707E-05
5.693971E+03	3.593041E-05	2.769210E-05
5.703874E+03	3.812759E-05	2.935327E-05
5.713776E+03	4.035039E-05	3.102999E-05
5.723679E+03	4.259735E-05	3.272100E-05
5.733582E+03	4.486834E-05	3.442608E-05
5.743484E+03	4.716189E-05	3.614394E-05
5.753387E+03	4.947689E-05	3.787361E-05
5.763289E+03	5.181338E-05	3.961496E-05
5.773192E+03	5.416919E-05	4.136621E-05
5.783094E+03	5.654385E-05	4.312685E-05
5.792997E+03	5.893694E-05	4.489644E-05
5.802899E+03	6.134689E-05	4.667363E-05
5.812802E+03	6.377341E-05	4.845808E-05
5.822705E+03	6.621493E-05	5.024844E-05
5.832607E+03	6.867210E-05	5.204509E-05
5.842510E+03	7.114351E-05	5.384681E-05
5.852412E+03	7.362850E-05	5.565297E-05
5.862315E+03	7.612733E-05	5.746362E-05
5.872217E+03	7.863869E-05	5.927766E-05
5.882120E+03	8.116301E-05	6.109525E-05
5.892022E+03	8.369903E-05	6.291532E-05
5.901925E+03	8.624732E-05	6.473815E-05
5.911828E+03	8.880765E-05	6.656343E-05
5.921730E+03	9.137977E-05	6.839085E-05
5.931633E+03	9.396239E-05	7.021927E-05
5.941535E+03	9.655632E-05	7.204919E-05
5.951438E+03	9.916139E-05	7.388031E-05
5.961340E+03	1.017762E-04	7.571145E-05
5.971243E+03	1.044017E-04	7.754317E-05
5.981146E+03	1.070363E-04	7.937423E-05
5.991048E+03	1.096786E-04	8.120326E-05
6.000951E+03	1.123306E-04	8.303176E-05
6.010853E+03	1.149893E-04	8.485737E-05
6.020756E+03	1.176557E-04	8.668057E-05
6.030658E+03	1.203263E-04	8.849878E-05
6.040561E+03	1.230020E-04	9.031241E-05
6.050463E+03	1.256805E-04	9.211972E-05
6.060366E+03	1.283611E-04	9.391999E-05
6.070269E+03	1.310428E-04	9.571244E-05
6.080171E+03	1.337231E-04	9.749508E-05
6.090074E+03	1.364008E-04	9.926699E-05
6.099976E+03	1.390748E-04	1.010272E-04
6.109879E+03	1.417439E-04	1.027747E-04
6.119781E+03	1.444069E-04	1.045085E-04
6.129684E+03	1.470603E-04	1.062262E-04
6.139586E+03	1.497049E-04	1.079280E-04
6.149489E+03	1.523389E-04	1.096127E-04
6.159392E+03	1.549610E-04	1.112793E-04
6.169294E+03	1.575716E-04	1.129279E-04
6.179197E+03	1.601715E-04	1.145590E-04
6.189099E+03	1.627614E-04	1.161731E-04
6.199002E+03	1.653422E-04	1.177708E-04
6.208904E+03	1.679151E-04	1.193527E-04
6.218807E+03	1.704836E-04	1.209214E-04
6.228709E+03	1.730446E-04	1.224745E-04
6.238612E+03	1.756067E-04	1.240180E-04
6.248515E+03	1.781673E-04	1.255499E-04
6.258417E+03	1.807306E-04	1.270732E-04
6.268320E+03	1.832992E-04	1.285893E-04
6.278222E+03	1.858756E-04	1.301000E-04
6.288125E+03	1.884597E-04	1.316050E-04
6.298027E+03	1.910545E-04	1.331063E-04
6.307930E+03	1.936631E-04	1.346058E-04
6.317833E+03	1.962858E-04	1.361036E-04
6.327735E+03	1.989231E-04	1.375997E-04
6.337638E+03	2.015786E-04	1.390965E-04
6.347540E+03	2.042468E-04	1.405901E-04
6.357443E+03	2.069282E-04	1.420804E-04
6.367345E+03	2.096202E-04	1.435656E-04
6.377248E+03	2.123165E-04	1.450411E-04
6.387150E+03	2.150205E-04	1.465092E-04
6.397053E+03	2.177257E-04	1.479651E-04
6.406956E+03	2.204353E-04	1.494111E-04
6.416858E+03	2.231493E-04	1.508468E-04
6.426761E+03	2.258642E-04	1.522699E-04
6.436663E+03	2.285801E-04	1.536801E-04
6.446566E+03	2.312968E-04	1.550774E-04
6.456468E+03	2.340141E-04	1.564614E-04
6.466371E+03	2.367322E-04	1.578320E-04
6.476273E+03	2.394547E-04	1.591916E-04
6.486176E+03	2.421779E-04	1.605376E-04
6.496079E+03	2.448980E-04	1.618673E-04
6.505981E+03	2.476226E-04	1.631857E-04
6.515884E+03	2.503439E-04	1.644873E-04
6.525786E+03	2.530657E-04	1.657748E-04
6.535689E+03	2.557881E-04	1.670479E-04
6.545591E+03	2.585110E-04	1.683066E-04
6.555494E+03	2.612345E-04	1.695507E-04
6.565396E+03	2.639542E-04	1.707772E-04
6.575299E+03	2.666744E-04	1.719889E-04
6.585202E+03	2.693904E-04	1.731827E-04
6.595104E+03	2.721068E-04	1.743614E-04
6.605007E+03	2.748189E-04	1.755218E-04
6.614909E+03	2.775265E-04	1.766638E-04
6.624812E+03	2.802343E-04	1.777903E-04
6.634714E+03	2.829422E-04	1.789012E-04
6.644617E+03	2.856407E-04	1.799903E-04
6.654520E+03	2.883394E-04	1.810635E-04
6.664422E+03	2.910283E-04	1.821147E-04
6.674325E+03	2.937174E-04	1.831501E-04
6.684227E+03	2.964018E-04	1.841663E-04
6.694130E+03	2.990762E-04	1.851602E-04
6.704032E+03	3.017512E-04	1.861383E-04
6.713935E+03	3.044164E-04	1.870940E-04
6.723837E+03	3.070770E-04	1.880307E-04
6.733740E+03	3.097333E-04	1.889484E-04
6.743643E+03	3.123855E-04	1.898471E-04
6.753545E+03	3.150280E-04	1.907236E-04
6.763448E+03	3.176667E-04	1.915813E-04
6.773350E+03	3.202960E-04	1.924169E-04
6.783253E+03	3.229218E-04	1.932339E-04
6.793155E+03	3.255383E-04	1.940289E-04
6.803058E+03	3.281457E-04	1.948020E-04
6.812960E+03	3.307500E-04	1.955569E-04
6.822863E+03	3.333393E-04	1.962863E-04
6.832766E+03	3.359259E-04	1.969978E-04
6.842668E+03	3.385037E-04	1.976878E-04
6.852571E+03	3.410730E-04	1.983564E-04
6.862473E+03	3.436339E-04	1.990037E-04
6.872376E+03	3.461865E-04	1.996301E-04
6.882278E+03	3.487245E-04	2.002318E-04
6.892181E+03	3.512545E-04	2.008128E-04
6.902083E+03	3.537770E-04	2.013735E-04
6.911986E+03	3.562923E-04	2.019140E-04
6.921889E+03	3.587869E-04	2.024270E-04
6.931791E+03	3.612818E-04	2.029245E-04
6.941694E+03	3.637567E-04	2.033950E-04
6.951596E+03	3.662260E-04	2.038469E-04
6.961499E+03	3.686832E-04	2.042767E-04
6.971401E+03	3.711288E-04	2.046848E-04
6.981304E+03	3.735635E-04	2.050718E-04
6.991207E+03	3.759880E-04	2.054383E-04
7.001109E+03	3.783957E-04	2.057808E-04
7.011012E+03	3.807947E-04	2.061042E-04
7.020914E+03	3.831863E-04	2.064090E-04
7.030817E+03	3.855636E-04	2.066921E-04
7.040719E+03	3.879356E-04	2.069583E-04
7.050622E+03	3.902956E-04	2.072044E-04
7.060524E+03	3.926447E-04	2.074312E-04
7.070427E+03	3.949842E-04	2.076396E-04
7.080330E+03	3.973236E-04	2.078349E-04
7.090232E+03	3.996480E-04	2.080095E-04
7.100135E+03	4.019585E-04	2.081645E-04
7.110037E+03	4.042733E-04	2.083093E-04
7.119940E+03	4.065771E-04	2.084366E-04
7.129842E+03	4.088713E-04	2.085472E-04
7.139745E+03	4.111660E-04	2.086466E-04
7.149647E+03	4.134540E-04	2.087317E-04
7.159550E+03	4.157369E-04	2.088033E-04
7.169453E+03	4.180160E-04	2.088627E-04
7.179355E+03	4.202927E-04	2.089107E-04
7.189258E+03	4.225775E-04	2.089530E-04
7.199160E+03	4.248536E-04	2.089816E-04
7.209063E+03	4.271406E-04	2.090065E-04
7.218965E+03	4.294300E-04	2.090238E-04
7.228868E+03	4.317239E-04	2.090349E-04
7.238770E+03	4.340318E-04	2.090448E-04
7.248673E+03	4.363455E-04	2.090499E-04
7.258576E+03	4.386752E-04	2.090554E-04
7.268478E+03	4.410217E-04	2.090620E-04
7.278381E+03	4.433955E-04	2.090750E-04
7.288283E+03	4.457976E-04	2.090951E-04
7.298186E+03	4.482380E-04	2.091274E-04
7.308088E+03	4.507076E-04	2.091676E-04
7.317991E+03	4.532372E-04	2.092305E-04
7.327894E+03	4.558278E-04	2.093166E-04
7.337796E+03	4.584696E-04	2.094215E-04
7.347699E+03	4.611944E-04	2.095597E-04
7.357601E+03	4.639924E-04	2.097270E-04
7.367504E+03	4.668746E-04	2.099284E-04
7.377406E+03	4.698306E-04	2.101592E-04
7.387309E+03	4.728712E-04	2.104243E-04
7.397211E+03	4.759627E-04	2.107089E-04
7.407114E+03	4.791262E-04	2.110227E-04
7.417017E+03	4.823275E-04	2.113508E-04
7.426919E+03	4.855759E-04	2.116978E-04
7.436822E+03	4.888580E-04	2.120583E-04
7.446724E+03	4.921609E-04	2.124272E-04
7.456627E+03	4.954937E-04	2.128091E-04
7.466529E+03	4.988189E-04	2.131885E-04
7.476432E+03	5.021580E-04	2.135754E-04
7.486334E+03	5.054962E-04	2.139641E-04
7.496237E+03	5.088308E-04	2.143544E-04
7.506140E+03	5.121470E-04	2.147409E-04
7.516042E+03	5.154536E-04	2.151281E-04
7.525945E+03	5.187353E-04	2.155105E-04
7.535847E+03	5.219879E-04	2.158864E-04
7.545750E+03	5.252205E-04	2.162595E-04
