#wls	flux	fluxerr
1.584409E+03	4.941898E-03	3.857683E-04
1.624020E+03	5.111003E-03	3.987937E-04
1.663630E+03	5.279035E-03	4.117188E-04
1.703240E+03	5.445608E-03	4.245129E-04
1.742850E+03	5.608621E-03	4.370121E-04
1.782461E+03	5.767315E-03	4.491569E-04
1.822071E+03	5.919724E-03	4.607942E-04
1.861681E+03	6.064698E-03	4.718346E-04
1.901291E+03	6.200405E-03	4.821360E-04
1.940902E+03	6.324855E-03	4.915444E-04
1.980512E+03	6.434997E-03	4.998234E-04
2.020122E+03	6.528689E-03	5.068083E-04
2.059732E+03	6.603326E-03	5.122987E-04
2.099342E+03	6.655125E-03	5.160034E-04
2.138953E+03	6.680659E-03	5.176598E-04
2.178563E+03	6.675816E-03	5.169530E-04
2.218173E+03	6.636909E-03	5.136021E-04
2.257783E+03	6.562626E-03	5.075109E-04
2.297394E+03	6.453090E-03	4.986943E-04
2.337004E+03	6.312142E-03	4.874551E-04
2.376614E+03	6.143157E-03	4.740593E-04
2.416224E+03	5.949128E-03	4.587430E-04
2.455835E+03	5.733510E-03	4.417774E-04
2.495445E+03	5.498887E-03	4.233660E-04
2.535055E+03	5.247495E-03	4.036852E-04
2.574665E+03	4.982362E-03	3.829719E-04
2.614276E+03	4.705661E-03	3.613967E-04
2.653886E+03	4.420224E-03	3.391803E-04
2.693496E+03	4.128504E-03	3.165137E-04
2.733106E+03	3.833668E-03	2.936421E-04
2.772716E+03	3.538546E-03	2.707840E-04
2.812327E+03	3.246345E-03	2.481861E-04
2.851937E+03	2.960321E-03	2.260978E-04
2.891547E+03	2.683673E-03	2.047631E-04
2.931157E+03	2.419406E-03	1.844103E-04
2.970768E+03	2.170143E-03	1.652376E-04
2.980670E+03	2.110410E-03	1.606466E-04
2.990573E+03	2.051795E-03	1.561430E-04
3.000475E+03	1.994267E-03	1.517241E-04
3.010378E+03	1.937926E-03	1.473978E-04
3.020280E+03	1.882739E-03	1.431612E-04
3.030183E+03	1.828714E-03	1.390152E-04
3.040086E+03	1.775861E-03	1.349602E-04
3.049988E+03	1.724259E-03	1.310023E-04
3.059891E+03	1.673837E-03	1.271360E-04
3.069793E+03	1.624669E-03	1.233669E-04
3.079696E+03	1.576719E-03	1.196921E-04
3.089598E+03	1.530018E-03	1.161140E-04
3.099501E+03	1.484561E-03	1.126322E-04
3.109403E+03	1.440345E-03	1.092462E-04
3.119306E+03	1.397362E-03	1.059556E-04
3.129209E+03	1.355633E-03	1.027616E-04
3.139111E+03	1.315122E-03	9.966172E-05
3.149014E+03	1.275844E-03	9.665683E-05
3.158916E+03	1.237786E-03	9.374596E-05
3.168819E+03	1.200935E-03	9.092808E-05
3.178721E+03	1.165297E-03	8.820348E-05
3.188624E+03	1.130815E-03	8.556786E-05
3.198526E+03	1.097531E-03	8.302429E-05
3.208429E+03	1.065370E-03	8.056700E-05
3.218332E+03	1.034366E-03	7.819859E-05
3.228234E+03	1.004465E-03	7.591479E-05
3.238137E+03	9.756615E-04	7.371523E-05
3.248039E+03	9.479332E-04	7.159808E-05
3.257942E+03	9.212434E-04	6.956055E-05
3.267844E+03	8.955978E-04	6.760297E-05
3.277747E+03	8.709445E-04	6.572138E-05
3.287650E+03	8.472612E-04	6.391404E-05
3.297552E+03	8.245496E-04	6.218101E-05
3.307455E+03	8.027600E-04	6.051847E-05
3.317357E+03	7.818694E-04	5.892464E-05
3.327260E+03	7.618550E-04	5.739775E-05
3.337162E+03	7.427032E-04	5.593671E-05
3.347065E+03	7.243700E-04	5.453815E-05
3.356967E+03	7.068335E-04	5.320037E-05
3.366870E+03	6.900803E-04	5.192231E-05
3.376773E+03	6.740792E-04	5.070157E-05
3.386675E+03	6.588083E-04	4.953645E-05
3.396578E+03	6.442298E-04	4.842407E-05
3.406480E+03	6.303322E-04	4.736350E-05
3.416383E+03	6.170954E-04	4.635320E-05
3.426285E+03	6.044853E-04	4.539055E-05
3.436188E+03	5.924840E-04	4.447418E-05
3.446090E+03	5.810673E-04	4.360221E-05
3.455993E+03	5.702260E-04	4.277394E-05
3.465896E+03	5.599237E-04	4.198657E-05
3.475798E+03	5.501524E-04	4.123947E-05
3.485701E+03	5.408857E-04	4.053064E-05
3.495603E+03	5.321043E-04	3.985857E-05
3.505506E+03	5.237905E-04	3.922191E-05
3.515408E+03	5.159211E-04	3.861891E-05
3.525311E+03	5.084865E-04	3.804879E-05
3.535213E+03	5.014603E-04	3.750956E-05
3.545116E+03	4.948286E-04	3.700014E-05
3.555019E+03	4.885838E-04	3.651995E-05
3.564921E+03	4.827075E-04	3.606756E-05
3.574824E+03	4.771884E-04	3.564212E-05
3.584726E+03	4.720102E-04	3.524237E-05
3.594629E+03	4.671576E-04	3.486715E-05
3.604531E+03	4.626208E-04	3.451571E-05
3.614434E+03	4.583815E-04	3.418664E-05
3.624337E+03	4.544362E-04	3.387968E-05
3.634239E+03	4.507675E-04	3.359350E-05
3.644142E+03	4.473679E-04	3.332752E-05
3.654044E+03	4.442344E-04	3.308149E-05
3.663947E+03	4.413517E-04	3.285425E-05
3.673849E+03	4.387131E-04	3.264528E-05
3.683752E+03	4.363198E-04	3.245466E-05
3.693654E+03	4.341619E-04	3.228163E-05
3.703557E+03	4.322321E-04	3.212562E-05
3.713460E+03	4.305326E-04	3.198678E-05
3.723362E+03	4.290529E-04	3.186431E-05
3.733265E+03	4.277905E-04	3.175801E-05
3.743167E+03	4.267469E-04	3.166796E-05
3.753070E+03	4.259152E-04	3.159365E-05
3.762972E+03	4.252933E-04	3.153489E-05
3.772875E+03	4.248783E-04	3.149144E-05
3.782777E+03	4.246677E-04	3.146312E-05
3.792680E+03	4.246626E-04	3.144997E-05
3.802583E+03	4.248567E-04	3.145153E-05
3.812485E+03	4.252509E-04	3.146782E-05
3.822388E+03	4.258462E-04	3.149891E-05
3.832290E+03	4.266363E-04	3.154432E-05
3.842193E+03	4.276181E-04	3.160379E-05
3.852095E+03	4.287964E-04	3.167768E-05
3.861998E+03	4.301681E-04	3.176572E-05
3.871900E+03	4.317269E-04	3.186743E-05
3.881803E+03	4.334767E-04	3.198309E-05
3.891706E+03	4.354182E-04	3.211272E-05
3.901608E+03	4.375406E-04	3.225552E-05
3.911511E+03	4.398476E-04	3.241174E-05
3.921413E+03	4.423395E-04	3.258137E-05
3.931316E+03	4.450124E-04	3.276412E-05
3.941218E+03	4.478585E-04	3.295940E-05
3.951121E+03	4.508847E-04	3.316769E-05
3.961024E+03	4.540832E-04	3.338840E-05
3.970926E+03	4.574489E-04	3.362115E-05
3.980829E+03	4.609847E-04	3.386611E-05
3.990731E+03	4.646822E-04	3.412268E-05
4.000634E+03	4.685432E-04	3.439094E-05
4.010536E+03	4.725556E-04	3.467001E-05
4.020439E+03	4.767248E-04	3.496027E-05
4.030341E+03	4.810416E-04	3.526101E-05
4.040244E+03	4.855002E-04	3.557180E-05
4.050147E+03	4.901026E-04	3.589278E-05
4.060049E+03	4.948347E-04	3.622289E-05
4.069952E+03	4.997028E-04	3.656257E-05
4.079854E+03	5.046921E-04	3.691075E-05
4.089757E+03	5.098003E-04	3.726722E-05
4.099659E+03	5.150255E-04	3.763184E-05
4.109562E+03	5.203559E-04	3.800374E-05
4.119464E+03	5.257893E-04	3.838273E-05
4.129367E+03	5.313187E-04	3.876831E-05
4.139270E+03	5.369323E-04	3.915959E-05
4.149172E+03	5.426314E-04	3.955667E-05
4.159075E+03	5.483994E-04	3.995832E-05
4.168977E+03	5.542369E-04	4.036457E-05
4.178880E+03	5.601271E-04	4.077420E-05
4.188782E+03	5.660654E-04	4.118687E-05
4.198685E+03	5.720433E-04	4.160193E-05
4.208587E+03	5.780418E-04	4.201803E-05
4.218490E+03	5.840604E-04	4.243510E-05
4.228393E+03	5.900845E-04	4.285210E-05
4.238295E+03	5.960986E-04	4.326788E-05
4.248198E+03	6.020869E-04	4.368131E-05
4.258100E+03	6.080431E-04	4.409193E-05
4.268003E+03	6.139552E-04	4.449888E-05
4.277905E+03	6.197971E-04	4.490025E-05
4.287808E+03	6.255660E-04	4.529587E-05
4.297711E+03	6.312348E-04	4.568377E-05
4.307613E+03	6.368015E-04	4.606382E-05
4.317516E+03	6.422441E-04	4.643443E-05
4.327418E+03	6.475567E-04	4.679520E-05
4.337321E+03	6.527350E-04	4.714583E-05
4.347223E+03	6.577758E-04	4.748610E-05
4.357126E+03	6.626789E-04	4.781601E-05
4.367028E+03	6.674503E-04	4.813600E-05
4.376931E+03	6.720994E-04	4.844677E-05
4.386834E+03	6.766310E-04	4.874867E-05
4.396736E+03	6.810566E-04	4.904256E-05
4.406639E+03	6.853776E-04	4.932853E-05
4.416541E+03	6.896135E-04	4.960801E-05
4.426444E+03	6.937662E-04	4.988113E-05
4.436346E+03	6.978444E-04	5.014854E-05
4.446249E+03	7.018568E-04	5.041086E-05
4.456151E+03	7.058121E-04	5.066873E-05
4.466054E+03	7.097189E-04	5.092277E-05
4.475957E+03	7.135862E-04	5.117363E-05
4.485859E+03	7.174104E-04	5.142105E-05
4.495762E+03	7.212124E-04	5.166654E-05
4.505664E+03	7.249886E-04	5.190984E-05
4.515567E+03	7.287467E-04	5.215150E-05
4.525469E+03	7.324889E-04	5.239168E-05
4.535372E+03	7.362292E-04	5.263140E-05
4.545274E+03	7.399699E-04	5.287079E-05
4.555177E+03	7.437050E-04	5.310945E-05
4.565080E+03	7.474554E-04	5.334886E-05
4.574982E+03	7.512152E-04	5.358859E-05
4.584885E+03	7.549849E-04	5.382869E-05
4.594787E+03	7.587787E-04	5.407016E-05
4.604690E+03	7.626032E-04	5.431347E-05
4.614592E+03	7.664453E-04	5.455769E-05
4.624495E+03	7.703258E-04	5.480428E-05
4.634398E+03	7.742452E-04	5.505328E-05
4.644300E+03	7.782034E-04	5.530468E-05
4.654203E+03	7.822080E-04	5.555902E-05
4.664105E+03	7.862595E-04	5.581633E-05
4.674008E+03	7.903662E-04	5.607717E-05
4.683910E+03	7.945139E-04	5.634055E-05
4.693813E+03	7.987116E-04	5.660710E-05
4.703715E+03	8.029673E-04	5.687738E-05
4.713618E+03	8.072607E-04	5.714993E-05
4.723521E+03	8.116073E-04	5.742587E-05
4.733423E+03	8.160010E-04	5.770474E-05
4.743326E+03	8.204350E-04	5.798606E-05
4.753228E+03	8.249259E-04	5.827100E-05
4.763131E+03	8.294508E-04	5.855793E-05
4.773033E+03	8.340339E-04	5.884857E-05
4.782936E+03	8.386513E-04	5.914121E-05
4.792838E+03	8.433186E-04	5.943695E-05
4.802741E+03	8.480197E-04	5.973466E-05
4.812644E+03	8.527698E-04	6.003539E-05
4.822546E+03	8.575516E-04	6.033793E-05
4.832449E+03	8.623727E-04	6.064281E-05
4.842351E+03	8.672313E-04	6.094988E-05
4.852254E+03	8.721179E-04	6.125850E-05
4.862156E+03	8.770308E-04	6.156852E-05
4.872059E+03	8.819683E-04	6.187984E-05
4.881961E+03	8.869366E-04	6.219288E-05
4.891864E+03	8.919167E-04	6.250630E-05
4.901767E+03	8.969237E-04	6.282118E-05
4.911669E+03	9.019374E-04	6.313607E-05
4.921572E+03	9.069632E-04	6.345137E-05
4.931474E+03	9.119896E-04	6.376627E-05
4.941377E+03	9.170124E-04	6.408048E-05
4.951279E+03	9.220266E-04	6.439365E-05
4.961182E+03	9.270368E-04	6.470610E-05
4.971085E+03	9.320193E-04	6.501618E-05
4.980987E+03	9.369761E-04	6.532404E-05
4.990890E+03	9.418908E-04	6.562854E-05
5.000792E+03	9.467653E-04	6.592980E-05
5.010695E+03	9.515809E-04	6.622655E-05
5.020597E+03	9.563187E-04	6.651747E-05
5.030500E+03	9.609776E-04	6.680250E-05
5.040402E+03	9.655464E-04	6.708087E-05
5.050305E+03	9.700037E-04	6.735111E-05
5.060208E+03	9.743273E-04	6.761168E-05
5.070110E+03	9.785229E-04	6.786302E-05
5.080013E+03	9.825577E-04	6.810286E-05
5.089915E+03	9.864169E-04	6.833019E-05
5.099818E+03	9.900857E-04	6.854401E-05
5.109720E+03	9.935494E-04	6.874334E-05
5.119623E+03	9.967824E-04	6.892643E-05
5.129525E+03	9.997794E-04	6.909295E-05
5.139428E+03	1.002504E-03	6.924043E-05
5.149331E+03	1.004952E-03	6.936852E-05
5.159233E+03	1.007085E-03	6.947476E-05
5.169136E+03	1.008908E-03	6.955946E-05
5.179038E+03	1.010386E-03	6.962017E-05
5.188941E+03	1.011510E-03	6.965649E-05
5.198843E+03	1.012246E-03	6.966595E-05
5.208746E+03	1.012586E-03	6.964816E-05
5.218648E+03	1.012514E-03	6.960208E-05
5.228551E+03	1.011995E-03	6.952529E-05
5.238454E+03	1.011014E-03	6.941681E-05
5.248356E+03	1.009565E-03	6.927638E-05
5.258259E+03	1.007626E-03	6.910248E-05
5.268161E+03	1.005175E-03	6.889367E-05
5.278064E+03	1.002203E-03	6.864934E-05
5.287966E+03	9.987001E-04	6.836904E-05
5.297869E+03	9.946630E-04	6.805247E-05
5.307772E+03	9.900784E-04	6.769884E-05
5.317674E+03	9.849577E-04	6.730900E-05
5.327577E+03	9.792958E-04	6.688265E-05
5.337479E+03	9.731112E-04	6.642113E-05
5.347382E+03	9.664074E-04	6.592475E-05
5.357284E+03	9.592206E-04	6.539603E-05
5.367187E+03	9.515827E-04	6.483721E-05
5.377089E+03	9.435100E-04	6.424946E-05
5.386992E+03	9.350618E-04	6.363686E-05
5.396895E+03	9.262725E-04	6.300180E-05
5.406797E+03	9.171449E-04	6.234452E-05
5.416700E+03	9.077501E-04	6.166987E-05
5.426602E+03	8.981176E-04	6.097991E-05
5.436505E+03	8.882809E-04	6.027693E-05
5.446407E+03	8.782871E-04	5.956415E-05
5.456310E+03	8.681772E-04	5.884436E-05
5.466212E+03	8.579954E-04	5.812057E-05
5.476115E+03	8.478036E-04	5.739696E-05
5.486018E+03	8.376473E-04	5.667664E-05
5.495920E+03	8.275954E-04	5.596423E-05
5.505823E+03	8.177072E-04	5.526374E-05
5.515725E+03	8.080301E-04	5.457835E-05
5.525628E+03	7.986247E-04	5.391211E-05
5.535530E+03	7.895387E-04	5.326823E-05
5.545433E+03	7.808165E-04	5.264964E-05
5.555335E+03	7.725043E-04	5.205941E-05
5.565238E+03	7.646356E-04	5.149977E-05
5.575141E+03	7.572385E-04	5.097253E-05
5.585043E+03	7.503436E-04	5.047971E-05
5.594946E+03	7.439678E-04	5.002239E-05
5.604848E+03	7.381307E-04	4.960181E-05
5.614751E+03	7.328389E-04	4.921837E-05
5.624653E+03	7.280943E-04	4.887211E-05
5.634556E+03	7.239021E-04	4.856334E-05
5.644459E+03	7.202559E-04	4.829156E-05
5.654361E+03	7.171465E-04	4.805609E-05
5.664264E+03	7.145688E-04	4.785652E-05
5.674166E+03	7.125092E-04	4.769189E-05
5.684069E+03	7.109595E-04	4.756159E-05
5.693971E+03	7.098960E-04	4.746397E-05
5.703874E+03	7.093175E-04	4.739890E-05
5.713776E+03	7.092006E-04	4.736478E-05
5.723679E+03	7.095304E-04	4.736055E-05
5.733582E+03	7.103079E-04	4.738622E-05
5.743484E+03	7.115050E-04	4.743989E-05
5.753387E+03	7.131262E-04	4.752179E-05
5.763289E+03	7.151610E-04	4.763119E-05
5.773192E+03	7.176014E-04	4.776751E-05
5.783094E+03	7.204315E-04	4.792966E-05
5.792997E+03	7.236609E-04	4.811822E-05
5.802899E+03	7.272757E-04	4.833223E-05
5.812802E+03	7.312792E-04	4.857188E-05
5.822705E+03	7.356664E-04	4.883678E-05
5.832607E+03	7.404254E-04	4.912612E-05
5.842510E+03	7.455596E-04	4.944008E-05
5.852412E+03	7.510735E-04	4.977891E-05
5.862315E+03	7.569458E-04	5.014118E-05
5.872217E+03	7.631803E-04	5.052710E-05
5.882120E+03	7.697717E-04	5.093628E-05
5.892022E+03	7.767234E-04	5.136891E-05
5.901925E+03	7.840118E-04	5.182341E-05
5.911828E+03	7.916479E-04	5.230046E-05
5.921730E+03	7.996065E-04	5.279837E-05
5.931633E+03	8.078891E-04	5.331721E-05
5.941535E+03	8.164866E-04	5.385635E-05
5.951438E+03	8.253804E-04	5.441454E-05
5.961340E+03	8.345704E-04	5.499174E-05
5.971243E+03	8.440261E-04	5.558593E-05
5.981146E+03	8.537553E-04	5.619758E-05
5.991048E+03	8.637155E-04	5.682390E-05
6.000951E+03	8.739130E-04	5.746526E-05
6.010853E+03	8.843128E-04	5.811936E-05
6.020756E+03	8.949093E-04	5.878581E-05
6.030658E+03	9.056638E-04	5.946207E-05
6.040561E+03	9.165583E-04	6.014694E-05
6.050463E+03	9.275613E-04	6.083834E-05
6.060366E+03	9.386514E-04	6.153487E-05
6.070269E+03	9.497837E-04	6.223360E-05
6.080171E+03	9.609216E-04	6.293213E-05
6.090074E+03	9.720406E-04	6.362886E-05
6.099976E+03	9.831022E-04	6.432128E-05
6.109879E+03	9.940445E-04	6.500536E-05
6.119781E+03	1.004841E-03	6.567938E-05
6.129684E+03	1.015453E-03	6.634088E-05
6.139586E+03	1.025859E-03	6.698839E-05
6.149489E+03	1.036050E-03	6.762143E-05
6.159392E+03	1.046022E-03	6.823974E-05
6.169294E+03	1.055786E-03	6.884413E-05
6.179197E+03	1.065386E-03	6.943737E-05
6.189099E+03	1.074826E-03	7.001984E-05
6.199002E+03	1.084099E-03	7.059109E-05
6.208904E+03	1.093256E-03	7.115446E-05
6.218807E+03	1.102307E-03	7.171064E-05
6.228709E+03	1.111235E-03	7.225851E-05
6.238612E+03	1.120097E-03	7.280175E-05
6.248515E+03	1.128860E-03	7.333834E-05
6.258417E+03	1.137569E-03	7.387112E-05
6.268320E+03	1.146208E-03	7.439908E-05
6.278222E+03	1.154791E-03	7.492317E-05
6.288125E+03	1.163318E-03	7.544337E-05
6.298027E+03	1.171788E-03	7.595966E-05
6.307930E+03	1.180201E-03	7.647199E-05
6.317833E+03	1.188538E-03	7.697922E-05
6.327735E+03	1.196782E-03	7.748021E-05
6.337638E+03	1.204948E-03	7.797590E-05
6.347540E+03	1.212998E-03	7.846396E-05
6.357443E+03	1.220948E-03	7.894538E-05
6.367345E+03	1.228779E-03	7.941887E-05
6.377248E+03	1.236487E-03	7.988429E-05
6.387150E+03	1.244088E-03	8.034267E-05
6.397053E+03	1.251618E-03	8.079632E-05
6.406956E+03	1.259078E-03	8.124530E-05
6.416858E+03	1.266485E-03	8.169082E-05
6.426761E+03	1.273863E-03	8.213426E-05
6.436663E+03	1.281191E-03	8.257448E-05
6.446566E+03	1.288514E-03	8.301418E-05
6.456468E+03	1.295832E-03	8.345356E-05
6.466371E+03	1.303131E-03	8.389156E-05
6.476273E+03	1.310452E-03	8.433098E-05
6.486176E+03	1.317780E-03	8.477074E-05
6.496079E+03	1.325098E-03	8.520974E-05
6.505981E+03	1.332449E-03	8.565088E-05
6.515884E+03	1.339816E-03	8.609299E-05
6.525786E+03	1.347202E-03	8.653626E-05
6.535689E+03	1.354632E-03	8.698231E-05
6.545591E+03	1.362064E-03	8.742843E-05
6.555494E+03	1.369499E-03	8.787472E-05
6.565396E+03	1.376983E-03	8.832416E-05
6.575299E+03	1.384471E-03	8.877386E-05
6.585202E+03	1.391963E-03	8.922381E-05
6.595104E+03	1.399483E-03	8.967549E-05
6.605007E+03	1.407004E-03	9.012729E-05
6.614909E+03	1.414525E-03	9.057910E-05
6.624812E+03	1.422067E-03	9.103226E-05
6.634714E+03	1.429578E-03	9.148351E-05
6.644617E+03	1.437054E-03	9.193252E-05
6.654520E+03	1.444539E-03	9.238219E-05
6.664422E+03	1.451978E-03	9.282900E-05
6.674325E+03	1.459366E-03	9.327257E-05
6.684227E+03	1.466720E-03	9.371410E-05
6.694130E+03	1.474009E-03	9.415155E-05
6.704032E+03	1.481225E-03	9.458444E-05
6.713935E+03	1.488360E-03	9.501228E-05
6.723837E+03	1.495406E-03	9.543456E-05
6.733740E+03	1.502327E-03	9.584905E-05
6.743643E+03	1.509142E-03	9.625690E-05
6.753545E+03	1.515841E-03	9.665759E-05
6.763448E+03	1.522389E-03	9.704882E-05
6.773350E+03	1.528805E-03	9.743181E-05
6.783253E+03	1.535051E-03	9.780424E-05
6.793155E+03	1.541119E-03	9.816557E-05
6.803058E+03	1.547001E-03	9.851527E-05
6.812960E+03	1.552659E-03	9.885098E-05
6.822863E+03	1.558142E-03	9.917589E-05
6.832766E+03	1.563415E-03	9.948774E-05
6.842668E+03	1.568441E-03	9.978421E-05
6.852571E+03	1.573243E-03	1.000668E-04
6.862473E+03	1.577784E-03	1.003331E-04
6.872376E+03	1.582060E-03	1.005829E-04
6.882278E+03	1.586093E-03	1.008178E-04
6.892181E+03	1.589850E-03	1.010355E-04
6.902083E+03	1.593327E-03	1.012358E-04
6.911986E+03	1.596520E-03	1.014186E-04
6.921889E+03	1.599427E-03	1.015836E-04
6.931791E+03	1.602015E-03	1.017289E-04
6.941694E+03	1.604345E-03	1.018584E-04
6.951596E+03	1.606357E-03	1.019681E-04
6.961499E+03	1.608050E-03	1.020582E-04
6.971401E+03	1.609459E-03	1.021308E-04
6.981304E+03	1.610557E-03	1.021842E-04
6.991207E+03	1.611348E-03	1.022189E-04
7.001109E+03	1.611841E-03	1.022351E-04
7.011012E+03	1.612041E-03	1.022335E-04
7.020914E+03	1.611993E-03	1.022167E-04
7.030817E+03	1.611641E-03	1.021813E-04
7.040719E+03	1.611000E-03	1.021283E-04
7.050622E+03	1.610115E-03	1.020605E-04
7.060524E+03	1.609002E-03	1.019789E-04
7.070427E+03	1.607646E-03	1.018826E-04
7.080330E+03	1.606098E-03	1.017748E-04
7.090232E+03	1.604310E-03	1.016526E-04
7.100135E+03	1.602370E-03	1.015215E-04
7.110037E+03	1.600266E-03	1.013808E-04
7.119940E+03	1.598019E-03	1.012317E-04
7.129842E+03	1.595618E-03	1.010737E-04
7.139745E+03	1.593153E-03	1.009123E-04
7.149647E+03	1.590577E-03	1.007447E-04
7.159550E+03	1.587948E-03	1.005745E-04
7.169453E+03	1.585251E-03	1.004008E-04
7.179355E+03	1.582539E-03	1.002270E-04
7.189258E+03	1.579799E-03	1.000521E-04
7.199160E+03	1.577045E-03	9.987725E-05
7.209063E+03	1.574327E-03	9.970544E-05
7.218965E+03	1.571625E-03	9.953545E-05
7.228868E+03	1.568982E-03	9.937006E-05
7.238770E+03	1.566342E-03	9.920566E-05
7.248673E+03	1.563744E-03	9.904479E-05
7.258576E+03	1.561228E-03	9.888997E-05
7.268478E+03	1.558731E-03	9.873716E-05
7.278381E+03	1.556288E-03	9.858867E-05
7.288283E+03	1.553866E-03	9.844238E-05
7.298186E+03	1.551499E-03	9.830044E-05
7.308088E+03	1.549151E-03	9.816058E-05
7.317991E+03	1.546819E-03	9.802263E-05
7.327894E+03	1.544499E-03	9.788631E-05
7.337796E+03	1.542151E-03	9.774916E-05
7.347699E+03	1.539768E-03	9.761071E-05
7.357601E+03	1.537343E-03	9.747044E-05
7.367504E+03	1.534864E-03	9.732774E-05
7.377406E+03	1.532355E-03	9.718403E-05
7.387309E+03	1.529769E-03	9.703638E-05
7.397211E+03	1.527160E-03	9.688826E-05
7.407114E+03	1.524517E-03	9.673886E-05
7.417017E+03	1.521827E-03	9.658746E-05
7.426919E+03	1.519083E-03	9.643355E-05
7.436822E+03	1.516282E-03	9.627696E-05
7.446724E+03	1.513498E-03	9.612239E-05
7.456627E+03	1.510673E-03	9.596614E-05
7.466529E+03	1.507861E-03	9.581152E-05
7.476432E+03	1.505081E-03	9.565986E-05
7.486334E+03	1.502390E-03	9.551472E-05
7.496237E+03	1.499740E-03	9.537303E-05
7.506140E+03	1.497186E-03	9.523819E-05
7.516042E+03	1.494743E-03	9.511129E-05
7.525945E+03	1.492462E-03	9.499548E-05
7.535847E+03	1.490284E-03	9.488698E-05
7.545750E+03	1.488288E-03	9.479086E-05
7.555652E+03	1.486445E-03	9.470529E-05
7.565555E+03	1.484726E-03	9.462833E-05
7.575457E+03	1.483203E-03	9.456460E-05
7.585360E+03	1.481842E-03	9.451195E-05
7.595263E+03	1.480642E-03	9.447029E-05
7.605165E+03	1.479600E-03	9.443950E-05
7.615068E+03	1.478714E-03	9.441933E-05
7.624970E+03	1.477978E-03	9.440947E-05
7.634873E+03	1.477423E-03	9.441186E-05
7.644775E+03	1.476969E-03	9.442142E-05
7.654678E+03	1.476680E-03	9.444226E-05
7.664581E+03	1.476511E-03	9.447146E-05
7.674483E+03	1.476453E-03	9.450840E-05
7.684386E+03	1.476493E-03	9.455235E-05
