#wls	flux	fluxerr
1.584409E+03	3.774837E-03	2.045344E-03
1.624020E+03	3.884914E-03	2.104747E-03
1.663630E+03	3.988139E-03	2.160425E-03
1.703240E+03	4.083656E-03	2.211891E-03
1.742850E+03	4.169148E-03	2.257915E-03
1.782461E+03	4.244384E-03	2.298346E-03
1.822071E+03	4.306963E-03	2.331912E-03
1.861681E+03	4.356170E-03	2.358200E-03
1.901291E+03	4.390763E-03	2.376569E-03
1.940902E+03	4.408603E-03	2.385833E-03
1.980512E+03	4.409357E-03	2.385848E-03
2.020122E+03	4.391514E-03	2.375766E-03
2.059732E+03	4.354109E-03	2.355107E-03
2.099342E+03	4.296231E-03	2.323344E-03
2.138953E+03	4.217093E-03	2.280099E-03
2.178563E+03	4.115196E-03	2.224527E-03
2.218173E+03	3.989512E-03	2.156124E-03
2.257783E+03	3.840504E-03	2.075106E-03
2.297394E+03	3.671358E-03	1.983248E-03
2.337004E+03	3.487188E-03	1.883279E-03
2.376614E+03	3.292284E-03	1.777565E-03
2.416224E+03	3.090274E-03	1.668031E-03
2.455835E+03	2.883953E-03	1.556232E-03
2.495445E+03	2.676002E-03	1.443579E-03
2.535055E+03	2.468768E-03	1.331382E-03
2.574665E+03	2.264459E-03	1.220797E-03
2.614276E+03	2.065005E-03	1.112901E-03
2.653886E+03	1.872032E-03	1.008538E-03
2.693496E+03	1.687162E-03	9.086141E-04
2.733106E+03	1.511507E-03	8.136976E-04
2.772716E+03	1.346171E-03	7.244080E-04
2.812327E+03	1.191893E-03	6.411145E-04
2.851937E+03	1.049372E-03	5.642132E-04
2.891547E+03	9.190209E-04	4.938994E-04
2.931157E+03	8.010865E-04	4.303204E-04
2.965050E+03	5.712537E-03	3.067322E-03
2.967228E+03	5.719572E-03	3.071016E-03
2.967823E+03	5.726887E-03	3.074921E-03
2.968021E+03	5.733908E-03	3.078683E-03
2.968417E+03	5.739990E-03	3.081933E-03
2.968615E+03	5.746107E-03	3.085210E-03
2.969407E+03	5.751938E-03	3.088310E-03
2.971586E+03	5.757518E-03	3.091221E-03
2.971982E+03	5.762696E-03	3.093985E-03
2.972180E+03	5.767726E-03	3.096678E-03
2.972378E+03	5.772576E-03	3.099274E-03
2.972576E+03	5.776701E-03	3.101481E-03
2.976538E+03	5.779607E-03	3.102885E-03
2.978716E+03	5.782831E-03	3.104530E-03
2.979113E+03	5.786377E-03	3.106417E-03
2.979509E+03	5.789563E-03	3.108112E-03
2.981093E+03	5.792531E-03	3.109643E-03
2.982479E+03	5.794632E-03	3.110715E-03
2.983668E+03	5.796767E-03	3.111814E-03
2.984856E+03	5.798359E-03	3.112622E-03
2.985252E+03	5.799555E-03	3.113248E-03
2.986044E+03	5.800676E-03	3.113818E-03
2.987234E+03	5.801364E-03	3.114139E-03
2.988818E+03	5.801437E-03	3.114115E-03
2.991393E+03	5.801149E-03	3.113857E-03
2.991591E+03	5.800931E-03	3.113732E-03
2.994958E+03	5.799955E-03	3.113072E-03
2.998127E+03	5.798834E-03	3.112342E-03
2.998325E+03	5.797894E-03	3.111830E-03
2.998722E+03	5.796375E-03	3.110998E-03
2.998920E+03	5.794713E-03	3.110098E-03
3.001098E+03	5.792326E-03	3.108729E-03
3.001890E+03	5.789831E-03	3.107358E-03
3.004070E+03	5.786901E-03	3.105697E-03
3.005257E+03	5.784334E-03	3.104271E-03
3.006446E+03	5.781043E-03	3.102456E-03
3.008228E+03	5.777284E-03	3.100366E-03
3.008625E+03	5.773235E-03	3.098177E-03
3.008823E+03	5.769222E-03	3.096015E-03
3.009417E+03	5.764776E-03	3.093605E-03
3.009615E+03	5.760584E-03	3.091347E-03
3.011002E+03	5.755632E-03	3.088634E-03
3.011794E+03	5.750247E-03	3.085712E-03
3.011992E+03	5.744607E-03	3.082677E-03
3.012190E+03	5.738970E-03	3.079644E-03
3.013576E+03	5.733116E-03	3.076446E-03
3.013775E+03	5.727297E-03	3.073316E-03
3.014964E+03	5.720213E-03	3.069466E-03
3.015162E+03	5.713492E-03	3.065852E-03
3.015360E+03	5.706228E-03	3.061946E-03
3.015954E+03	5.698532E-03	3.057792E-03
3.016745E+03	5.690618E-03	3.053514E-03
3.017142E+03	5.682779E-03	3.049291E-03
3.017339E+03	5.674249E-03	3.044706E-03
3.017538E+03	5.666265E-03	3.040414E-03
3.018132E+03	5.657485E-03	3.035679E-03
3.018924E+03	5.647766E-03	3.030432E-03
3.019123E+03	5.638337E-03	3.025364E-03
3.019915E+03	5.628258E-03	3.019925E-03
3.020113E+03	5.618105E-03	3.014469E-03
3.020707E+03	5.608242E-03	3.009153E-03
3.022094E+03	5.597877E-03	3.003536E-03
3.022490E+03	5.587329E-03	2.997861E-03
3.023282E+03	5.576350E-03	2.991938E-03
3.024272E+03	5.564973E-03	2.985794E-03
3.024471E+03	5.553197E-03	2.979468E-03
3.025858E+03	5.541030E-03	2.972885E-03
3.026056E+03	5.528710E-03	2.966267E-03
3.026650E+03	5.515963E-03	2.959405E-03
3.026848E+03	5.502922E-03	2.952400E-03
3.027442E+03	5.489452E-03	2.945150E-03
3.027838E+03	5.475656E-03	2.937733E-03
3.029421E+03	5.461290E-03	2.929962E-03
3.033780E+03	5.446261E-03	2.921728E-03
3.033978E+03	5.431779E-03	2.913951E-03
3.034176E+03	5.416756E-03	2.905884E-03
3.034770E+03	5.401666E-03	2.897766E-03
3.035563E+03	5.386179E-03	2.889427E-03
3.035761E+03	5.370435E-03	2.880973E-03
3.036751E+03	5.354555E-03	2.872416E-03
3.036949E+03	5.338270E-03	2.863672E-03
3.037346E+03	5.321589E-03	2.854708E-03
3.038336E+03	5.304448E-03	2.845475E-03
3.039326E+03	5.287127E-03	2.836145E-03
3.040514E+03	5.269592E-03	2.826693E-03
3.041109E+03	5.251979E-03	2.817223E-03
3.041307E+03	5.234071E-03	2.807609E-03
3.041506E+03	5.215803E-03	2.797802E-03
3.041901E+03	5.197502E-03	2.787970E-03
3.042099E+03	5.179055E-03	2.778068E-03
3.042495E+03	5.160213E-03	2.767946E-03
3.043089E+03	5.141519E-03	2.757897E-03
3.043683E+03	5.122104E-03	2.747460E-03
3.044277E+03	5.102149E-03	2.736734E-03
3.044673E+03	5.082588E-03	2.726227E-03
3.045070E+03	5.062304E-03	2.715332E-03
3.045268E+03	5.041874E-03	2.704367E-03
3.045862E+03	5.021378E-03	2.693351E-03
3.046061E+03	5.000406E-03	2.682095E-03
3.046259E+03	4.978893E-03	2.670549E-03
3.047051E+03	4.957646E-03	2.659124E-03
3.047843E+03	4.936040E-03	2.647506E-03
3.048239E+03	4.913955E-03	2.635646E-03
3.048833E+03	4.891661E-03	2.623667E-03
3.049626E+03	4.869153E-03	2.611566E-03
3.050418E+03	4.846469E-03	2.599371E-03
3.052994E+03	4.822963E-03	2.586673E-03
3.053983E+03	4.800069E-03	2.574359E-03
3.054577E+03	4.776518E-03	2.561707E-03
3.054775E+03	4.753027E-03	2.549102E-03
3.054973E+03	4.728813E-03	2.536109E-03
3.056161E+03	4.704451E-03	2.523001E-03
3.056359E+03	4.679878E-03	2.509816E-03
3.056955E+03	4.655246E-03	2.496585E-03
3.057945E+03	4.630197E-03	2.483118E-03
3.058341E+03	4.605055E-03	2.469621E-03
3.058737E+03	4.579553E-03	2.455931E-03
3.058935E+03	4.554084E-03	2.442266E-03
3.059133E+03	4.528431E-03	2.428502E-03
3.059331E+03	4.502600E-03	2.414642E-03
3.060123E+03	4.476501E-03	2.400620E-03
3.061510E+03	4.449959E-03	2.386340E-03
3.061708E+03	4.423407E-03	2.372095E-03
3.061906E+03	4.396858E-03	2.357851E-03
3.062105E+03	4.369946E-03	2.343413E-03
3.062303E+03	4.342856E-03	2.328880E-03
3.062501E+03	4.315585E-03	2.314249E-03
3.062699E+03	4.287952E-03	2.299424E-03
3.063095E+03	4.260113E-03	2.284483E-03
3.063293E+03	4.232122E-03	2.269467E-03
3.063689E+03	4.203924E-03	2.254333E-03
3.063887E+03	4.175391E-03	2.239026E-03
3.065075E+03	4.146727E-03	2.223618E-03
3.065274E+03	4.117837E-03	2.208120E-03
3.065867E+03	4.088711E-03	2.192484E-03
3.066065E+03	4.059460E-03	2.176793E-03
3.066263E+03	4.030031E-03	2.161006E-03
3.066461E+03	4.000420E-03	2.145122E-03
3.066857E+03	3.970603E-03	2.129122E-03
3.067055E+03	3.941175E-03	2.113336E-03
3.067650E+03	3.910974E-03	2.097124E-03
3.067848E+03	3.880824E-03	2.080951E-03
3.068839E+03	3.850756E-03	2.064800E-03
3.069631E+03	3.820353E-03	2.048475E-03
3.069829E+03	3.789485E-03	2.031918E-03
3.070423E+03	3.758748E-03	2.015420E-03
3.070621E+03	3.728060E-03	1.998960E-03
3.071215E+03	3.696965E-03	1.982270E-03
3.071413E+03	3.665558E-03	1.965425E-03
3.071611E+03	3.633971E-03	1.948483E-03
3.072007E+03	3.602360E-03	1.931523E-03
3.072404E+03	3.571292E-03	1.914854E-03
3.072800E+03	3.539321E-03	1.897701E-03
3.072999E+03	3.507375E-03	1.880567E-03
3.073593E+03	3.475385E-03	1.863399E-03
3.073791E+03	3.443622E-03	1.846364E-03
3.074187E+03	3.411294E-03	1.829020E-03
3.074583E+03	3.378427E-03	1.811388E-03
3.074781E+03	3.345762E-03	1.793869E-03
3.075177E+03	3.313257E-03	1.776431E-03
3.075375E+03	3.280054E-03	1.758624E-03
3.075573E+03	3.246668E-03	1.740719E-03
3.075771E+03	3.213105E-03	1.722720E-03
3.076366E+03	3.179860E-03	1.704881E-03
3.076762E+03	3.146097E-03	1.686769E-03
3.076959E+03	3.112716E-03	1.668868E-03
3.077157E+03	3.079514E-03	1.651062E-03
3.077356E+03	3.045592E-03	1.632870E-03
3.077553E+03	3.011670E-03	1.614679E-03
3.077949E+03	2.978090E-03	1.596666E-03
3.078346E+03	2.943609E-03	1.578171E-03
3.078544E+03	2.909689E-03	1.559981E-03
3.078742E+03	2.875410E-03	1.541598E-03
3.078940E+03	2.841131E-03	1.523216E-03
3.079138E+03	2.806311E-03	1.504544E-03
3.079930E+03	2.771435E-03	1.485829E-03
3.080129E+03	2.736617E-03	1.467158E-03
3.080327E+03	2.701621E-03	1.448392E-03
3.080723E+03	2.666424E-03	1.429514E-03
3.080921E+03	2.631607E-03	1.410844E-03
3.081119E+03	2.596610E-03	1.392078E-03
3.081317E+03	2.561615E-03	1.373313E-03
3.081713E+03	2.526240E-03	1.354340E-03
3.081911E+03	2.491065E-03	1.335479E-03
3.082109E+03	2.455891E-03	1.316618E-03
3.082505E+03	2.420699E-03	1.297744E-03
3.082703E+03	2.385345E-03	1.278787E-03
3.083297E+03	2.349961E-03	1.259807E-03
3.083495E+03	2.314608E-03	1.240851E-03
3.083694E+03	2.279255E-03	1.221895E-03
3.083892E+03	2.243903E-03	1.202940E-03
3.084091E+03	2.208553E-03	1.183985E-03
3.084289E+03	2.173021E-03	1.164934E-03
3.085081E+03	2.137629E-03	1.145948E-03
3.085279E+03	2.102100E-03	1.126898E-03
3.085477E+03	2.066931E-03	1.108041E-03
3.085873E+03	2.031389E-03	1.088982E-03
3.086071E+03	1.995320E-03	1.069643E-03
3.086269E+03	1.959612E-03	1.050498E-03
3.087259E+03	1.923494E-03	1.031121E-03
3.087655E+03	1.887415E-03	1.011775E-03
3.088250E+03	1.851866E-03	9.927097E-04
3.088448E+03	1.816342E-03	9.736640E-04
3.089241E+03	1.780314E-03	9.543404E-04
3.089834E+03	1.744282E-03	9.350175E-04
3.090032E+03	1.708364E-03	9.157611E-04
3.090626E+03	1.672533E-03	8.965462E-04
3.091022E+03	1.636768E-03	8.773697E-04
3.091220E+03	1.601609E-03	8.585207E-04
3.091616E+03	1.565755E-03	8.392969E-04
3.092013E+03	1.529992E-03	8.201224E-04
3.092211E+03	1.494619E-03	8.011589E-04
3.092607E+03	1.459633E-03	7.824009E-04
3.092805E+03	1.424297E-03	7.634576E-04
3.093003E+03	1.389051E-03	7.445629E-04
3.093201E+03	1.353626E-03	7.255720E-04
3.093399E+03	1.318615E-03	7.068037E-04
3.093597E+03	1.283407E-03	6.879294E-04
3.093993E+03	1.248047E-03	6.689720E-04
3.094588E+03	1.212517E-03	6.499220E-04
3.094984E+03	1.177754E-03	6.312850E-04
3.096371E+03	1.142990E-03	6.126391E-04
3.096569E+03	1.107823E-03	5.937877E-04
3.097361E+03	1.072923E-03	5.750749E-04
3.097955E+03	1.037779E-03	5.562336E-04
3.099143E+03	1.003194E-03	5.376872E-04
3.099739E+03	9.684502E-04	5.190609E-04
3.100135E+03	9.334077E-04	5.002763E-04
3.100333E+03	8.984620E-04	4.815452E-04
3.101125E+03	8.641487E-04	4.631491E-04
3.101520E+03	8.294153E-04	4.445309E-04
3.101718E+03	7.951568E-04	4.261686E-04
3.101916E+03	7.614932E-04	4.081252E-04
3.102114E+03	7.272896E-04	3.897925E-04
3.102312E+03	6.935368E-04	3.717016E-04
3.102510E+03	6.594239E-04	3.534178E-04
3.102708E+03	6.261586E-04	3.355882E-04
3.102906E+03	5.926954E-04	3.176528E-04
3.103104E+03	5.594671E-04	2.998434E-04
3.103897E+03	5.262827E-04	2.820551E-04
3.104293E+03	4.928902E-04	2.641573E-04
3.104887E+03	4.595677E-04	2.462965E-04
3.105284E+03	4.263935E-04	2.285161E-04
3.105482E+03	3.938353E-04	2.110666E-04
3.105680E+03	3.611515E-04	1.935499E-04
3.106472E+03	3.286417E-04	1.761251E-04
3.107066E+03	2.962797E-04	1.587804E-04
3.107265E+03	2.641747E-04	1.415745E-04
3.107463E+03	2.327546E-04	1.247357E-04
3.107661E+03	2.010289E-04	1.077332E-04
3.108057E+03	1.695833E-04	9.088073E-05
3.108453E+03	1.382233E-04	7.407426E-05
3.108849E+03	1.074441E-04	5.757929E-05
3.109245E+03	7.644061E-05	4.096427E-05
3.110235E+03	4.579369E-05	2.454034E-05
3.110434E+03	1.570669E-05	8.417016E-06
3.110830E+03	-1.455040E-05	-7.797333E-06
3.111227E+03	-4.459612E-05	-2.389822E-05
3.111425E+03	-7.402317E-05	-3.966751E-05
3.112019E+03	-1.037096E-04	-5.557541E-05
3.113008E+03	-1.331716E-04	-7.136232E-05
3.113206E+03	-1.620398E-04	-8.683156E-05
3.113405E+03	-1.911561E-04	-1.024337E-04
3.114394E+03	-2.196791E-04	-1.177164E-04
3.114592E+03	-2.477744E-04	-1.327711E-04
3.114790E+03	-2.755273E-04	-1.476422E-04
3.115583E+03	-3.034538E-04	-1.626048E-04
3.115782E+03	-3.310973E-04	-1.774170E-04
3.115980E+03	-3.576598E-04	-1.916498E-04
3.116178E+03	-3.839697E-04	-2.057472E-04
3.116376E+03	-4.100632E-04	-2.197286E-04
3.116574E+03	-4.358864E-04	-2.335650E-04
3.116772E+03	-4.614748E-04	-2.472756E-04
3.116970E+03	-4.867750E-04	-2.608316E-04
3.117366E+03	-5.118012E-04	-2.742400E-04
3.117564E+03	-5.365962E-04	-2.875251E-04
3.118158E+03	-5.610774E-04	-3.006402E-04
3.118356E+03	-5.852772E-04	-3.136063E-04
3.119347E+03	-6.091722E-04	-3.264050E-04
3.120139E+03	-6.327819E-04	-3.390516E-04
3.120535E+03	-6.560750E-04	-3.515302E-04
3.120733E+03	-6.790836E-04	-3.638573E-04
3.120932E+03	-7.018039E-04	-3.760299E-04
3.121130E+03	-7.241997E-04	-3.880286E-04
3.121328E+03	-7.462533E-04	-3.998438E-04
3.121526E+03	-7.679641E-04	-4.114753E-04
3.121724E+03	-7.893509E-04	-4.229330E-04
3.122120E+03	-8.103536E-04	-4.341837E-04
3.122318E+03	-8.310372E-04	-4.452646E-04
3.122516E+03	-8.513427E-04	-4.561428E-04
3.122913E+03	-8.712638E-04	-4.668137E-04
3.123309E+03	-8.908241E-04	-4.772911E-04
3.123705E+03	-9.100060E-04	-4.875656E-04
3.123903E+03	-9.292655E-04	-4.978830E-04
3.124497E+03	-9.479900E-04	-5.079108E-04
3.124694E+03	-9.662226E-04	-5.176779E-04
3.125288E+03	-9.841176E-04	-5.272609E-04
3.125487E+03	-1.001503E-03	-5.365740E-04
3.125684E+03	-1.018618E-03	-5.457422E-04
3.126279E+03	-1.035089E-03	-5.545619E-04
3.126477E+03	-1.051484E-03	-5.633439E-04
3.126676E+03	-1.067230E-03	-5.717783E-04
3.126874E+03	-1.082760E-03	-5.800968E-04
3.127072E+03	-1.096867E-03	-5.876532E-04
3.127468E+03	-1.111399E-03	-5.954352E-04
3.127666E+03	-1.124948E-03	-6.026923E-04
3.127864E+03	-1.138100E-03	-6.097370E-04
3.128062E+03	-1.151235E-03	-6.167720E-04
3.129448E+03	-1.163386E-03	-6.232693E-04
3.129646E+03	-1.174774E-03	-6.293681E-04
3.130438E+03	-1.185957E-03	-6.353520E-04
3.130637E+03	-1.196732E-03	-6.411223E-04
3.130835E+03	-1.207128E-03	-6.466902E-04
3.131033E+03	-1.217165E-03	-6.520651E-04
3.131231E+03	-1.226787E-03	-6.572181E-04
3.131429E+03	-1.235833E-03	-6.620623E-04
3.131826E+03	-1.244439E-03	-6.666686E-04
3.132222E+03	-1.252343E-03	-6.708987E-04
3.132618E+03	-1.259742E-03	-6.748585E-04
3.132816E+03	-1.266519E-03	-6.784873E-04
3.133014E+03	-1.272721E-03	-6.818075E-04
3.133212E+03	-1.278526E-03	-6.849155E-04
3.133806E+03	-1.283540E-03	-6.875954E-04
3.134202E+03	-1.288167E-03	-6.900699E-04
3.134400E+03	-1.292244E-03	-6.922519E-04
3.134599E+03	-1.295475E-03	-6.939808E-04
3.134995E+03	-1.297456E-03	-6.950376E-04
3.135193E+03	-1.298905E-03	-6.958119E-04
3.135589E+03	-1.299823E-03	-6.962998E-04
3.135787E+03	-1.300229E-03	-6.965148E-04
3.136183E+03	-1.300049E-03	-6.964147E-04
3.136975E+03	-1.299331E-03	-6.960214E-04
3.137372E+03	-1.298018E-03	-6.953138E-04
3.137569E+03	-1.296137E-03	-6.943044E-04
3.137767E+03	-1.293699E-03	-6.929963E-04
3.138163E+03	-1.290622E-03	-6.913442E-04
3.138362E+03	-1.286997E-03	-6.893999E-04
3.138758E+03	-1.282732E-03	-6.871115E-04
3.138956E+03	-1.277918E-03	-6.845309E-04
3.139154E+03	-1.272547E-03	-6.816518E-04
3.139352E+03	-1.266654E-03	-6.784930E-04
3.139550E+03	-1.259807E-03	-6.748234E-04
3.139748E+03	-1.252241E-03	-6.707683E-04
3.139946E+03	-1.243684E-03	-6.661832E-04
3.141332E+03	-1.234521E-03	-6.612609E-04
3.141728E+03	-1.225147E-03	-6.562361E-04
3.141926E+03	-1.215062E-03	-6.508321E-04
3.142522E+03	-1.204260E-03	-6.450401E-04
3.142720E+03	-1.192376E-03	-6.386727E-04
3.142918E+03	-1.179322E-03	-6.316789E-04
3.143710E+03	-1.165849E-03	-6.244552E-04
3.144106E+03	-1.152159E-03	-6.171187E-04
3.144502E+03	-1.137678E-03	-6.093585E-04
3.144898E+03	-1.122423E-03	-6.011842E-04
3.145096E+03	-1.106366E-03	-5.925821E-04
3.145492E+03	-1.089493E-03	-5.835411E-04
3.145888E+03	-1.071810E-03	-5.740667E-04
3.146681E+03	-1.053340E-03	-5.641674E-04
3.146879E+03	-1.034047E-03	-5.538321E-04
3.147870E+03	-1.013916E-03	-5.430421E-04
3.148464E+03	-9.929552E-04	-5.318108E-04
3.149057E+03	-9.711494E-04	-5.201273E-04
3.149651E+03	-9.485349E-04	-5.080109E-04
3.150444E+03	-9.251955E-04	-4.955049E-04
3.150642E+03	-9.011562E-04	-4.826288E-04
3.150840E+03	-8.759297E-04	-4.691169E-04
3.151236E+03	-8.501762E-04	-4.553215E-04
3.151632E+03	-8.235062E-04	-4.410354E-04
3.151830E+03	-7.959426E-04	-4.262722E-04
3.152226E+03	-7.676188E-04	-4.111007E-04
3.152622E+03	-7.381266E-04	-3.953037E-04
3.152820E+03	-7.082083E-04	-3.792798E-04
3.153415E+03	-6.772018E-04	-3.626711E-04
3.153811E+03	-6.450320E-04	-3.454406E-04
3.154010E+03	-6.122556E-04	-3.278865E-04
3.154208E+03	-5.782204E-04	-3.096585E-04
3.154406E+03	-5.435564E-04	-2.910937E-04
3.154604E+03	-5.075616E-04	-2.718164E-04
3.155396E+03	-4.705686E-04	-2.520023E-04
3.155792E+03	-4.328280E-04	-2.317898E-04
3.155990E+03	-3.946236E-04	-2.113298E-04
3.156980E+03	-3.549172E-04	-1.900633E-04
3.157178E+03	-3.145026E-04	-1.684201E-04
3.158169E+03	-2.735417E-04	-1.464829E-04
3.158368E+03	-2.312051E-04	-1.238110E-04
3.158764E+03	-1.879865E-04	-1.006667E-04
3.158962E+03	-1.435507E-04	-7.687111E-05
3.159556E+03	-9.804056E-05	-5.250005E-05
3.160150E+03	-5.208810E-05	-2.789257E-05
3.160347E+03	-4.835988E-06	-2.589607E-06
3.160942E+03	4.342627E-05	2.325398E-05
3.162328E+03	9.266912E-05	4.962157E-05
3.162526E+03	1.426072E-04	7.636168E-05
3.162922E+03	1.936779E-04	1.037078E-04
3.163120E+03	2.457683E-04	1.316000E-04
3.163318E+03	2.989190E-04	1.600598E-04
3.163715E+03	3.530735E-04	1.890564E-04
3.164507E+03	4.083000E-04	2.186252E-04
3.164903E+03	4.645905E-04	2.487646E-04
3.165894E+03	5.219656E-04	2.794817E-04
3.166488E+03	5.804234E-04	3.107795E-04
3.167082E+03	6.399755E-04	3.426627E-04
3.167280E+03	7.006494E-04	3.751483E-04
3.167676E+03	7.624321E-04	4.082260E-04
3.168468E+03	8.253164E-04	4.418905E-04
3.169261E+03	8.893118E-04	4.761490E-04
3.169658E+03	9.544674E-04	5.110311E-04
3.169856E+03	1.020779E-03	5.465330E-04
3.170648E+03	1.088199E-03	5.826235E-04
3.171044E+03	1.156801E-03	6.193489E-04
3.171638E+03	1.226560E-03	6.566919E-04
3.172232E+03	1.297503E-03	6.946678E-04
3.172429E+03	1.369630E-03	7.332816E-04
3.173618E+03	1.442930E-03	7.725109E-04
3.174807E+03	1.511154E-03	8.090218E-04
3.175005E+03	1.585161E-03	8.486398E-04
3.175797E+03	1.661990E-03	8.897605E-04
3.175995E+03	1.732506E-03	9.275091E-04
3.176193E+03	1.809366E-03	9.686536E-04
3.176391E+03	1.886818E-03	1.010115E-03
3.176589E+03	1.732992E-03	9.277606E-04
3.176787E+03	1.767938E-03	9.464658E-04
3.177184E+03	1.707004E-03	9.138394E-04
3.177580E+03	1.517624E-03	8.124503E-04
3.178174E+03	1.549062E-03	8.292727E-04
3.178372E+03	1.589740E-03	8.510464E-04
3.178570E+03	1.546705E-03	8.280055E-04
3.178966E+03	1.318715E-03	7.059500E-04
3.179561E+03	1.110384E-03	5.944184E-04
3.179759E+03	1.047298E-03	5.606451E-04
3.180353E+03	1.062516E-03	5.687862E-04
3.180551E+03	1.072266E-03	5.740042E-04
3.181146E+03	1.102345E-03	5.901001E-04
3.181740E+03	8.567466E-04	4.586239E-04
3.181938E+03	7.152115E-04	3.828577E-04
3.182928E+03	6.741637E-04	3.608789E-04
3.183126E+03	5.787079E-04	3.097806E-04
3.183324E+03	4.849427E-04	2.595876E-04
3.183522E+03	4.342497E-04	2.324511E-04
3.183720E+03	4.418295E-04	2.365078E-04
3.183918E+03	4.161495E-04	2.227608E-04
3.184511E+03	4.051264E-04	2.168582E-04
3.184710E+03	4.034706E-04	2.159712E-04
3.185503E+03	3.872350E-04	2.072780E-04
3.185701E+03	3.775481E-04	2.020921E-04
3.185899E+03	2.976272E-04	1.593120E-04
3.186097E+03	2.767834E-04	1.481544E-04
3.186889E+03	2.812495E-04	1.505431E-04
3.187879E+03	2.751672E-04	1.472851E-04
3.188473E+03	2.718738E-04	1.455210E-04
3.188671E+03	2.619730E-04	1.402211E-04
3.189266E+03	2.672674E-04	1.430536E-04
3.189464E+03	2.574566E-04	1.378020E-04
3.189860E+03	2.605071E-04	1.394339E-04
3.190455E+03	2.515555E-04	1.346413E-04
3.190653E+03	2.258827E-04	1.209000E-04
3.191643E+03	2.176836E-04	1.165097E-04
3.192237E+03	2.203197E-04	1.179195E-04
3.192633E+03	2.240171E-04	1.198976E-04
3.192832E+03	2.213032E-04	1.184447E-04
3.193030E+03	2.185354E-04	1.169630E-04
3.193426E+03	2.116707E-04	1.132882E-04
3.193624E+03	2.124236E-04	1.136909E-04
3.193822E+03	2.122066E-04	1.135744E-04
3.194020E+03	2.076967E-04	1.111602E-04
3.194218E+03	2.111440E-04	1.130049E-04
3.194614E+03	2.133683E-04	1.141947E-04
3.195208E+03	2.058381E-04	1.101634E-04
3.195605E+03	2.097508E-04	1.122568E-04
3.196001E+03	2.103586E-04	1.125813E-04
