#wls	flux	fluxerr
1.584409E+03	4.478449E-03	4.885433E-04
1.624020E+03	4.632614E-03	5.051261E-04
1.663630E+03	4.785557E-03	5.215537E-04
1.703240E+03	4.936883E-03	5.377824E-04
1.742850E+03	5.084637E-03	5.535990E-04
1.782461E+03	5.228072E-03	5.689220E-04
1.822071E+03	5.365356E-03	5.835522E-04
1.861681E+03	5.495395E-03	5.973708E-04
1.901291E+03	5.616481E-03	6.101931E-04
1.940902E+03	5.726756E-03	6.218181E-04
1.980512E+03	5.823419E-03	6.319432E-04
2.020122E+03	5.904499E-03	6.403568E-04
2.059732E+03	5.967616E-03	6.468032E-04
2.099342E+03	6.009345E-03	6.509149E-04
2.138953E+03	6.026611E-03	6.523628E-04
2.178563E+03	6.015733E-03	6.507538E-04
2.218173E+03	5.973460E-03	6.457423E-04
2.257783E+03	5.898720E-03	6.372194E-04
2.297394E+03	5.791740E-03	6.252175E-04
2.337004E+03	5.656126E-03	6.101333E-04
2.376614E+03	5.495063E-03	5.923174E-04
2.416224E+03	5.311407E-03	5.720843E-04
2.455835E+03	5.108417E-03	5.497913E-04
2.495445E+03	4.888590E-03	5.257128E-04
2.535055E+03	4.654106E-03	5.000885E-04
2.574665E+03	4.407849E-03	4.732331E-04
2.614276E+03	4.151944E-03	4.453791E-04
2.653886E+03	3.889088E-03	4.168194E-04
2.693496E+03	3.621628E-03	3.878089E-04
2.733106E+03	3.352518E-03	3.586663E-04
2.772716E+03	3.084386E-03	3.296747E-04
2.812327E+03	2.820159E-03	3.011477E-04
2.851937E+03	2.562757E-03	2.733973E-04
2.891547E+03	2.314994E-03	2.467228E-04
2.931157E+03	2.079457E-03	2.213978E-04
2.970768E+03	1.858340E-03	1.976533E-04
2.980670E+03	1.805506E-03	1.919842E-04
2.990573E+03	1.753718E-03	1.864290E-04
3.000475E+03	1.702948E-03	1.809846E-04
3.010378E+03	1.653279E-03	1.756598E-04
3.020280E+03	1.604679E-03	1.704511E-04
3.030183E+03	1.557154E-03	1.653591E-04
3.040086E+03	1.510709E-03	1.603842E-04
3.049988E+03	1.465407E-03	1.555332E-04
3.059891E+03	1.421187E-03	1.507993E-04
3.069793E+03	1.378106E-03	1.461886E-04
3.079696E+03	1.336132E-03	1.416977E-04
3.089598E+03	1.295289E-03	1.373289E-04
3.099501E+03	1.255571E-03	1.330815E-04
3.109403E+03	1.216972E-03	1.289549E-04
3.119306E+03	1.179486E-03	1.249483E-04
3.129209E+03	1.143128E-03	1.210631E-04
3.139111E+03	1.107867E-03	1.172961E-04
3.149014E+03	1.073713E-03	1.136483E-04
3.158916E+03	1.040655E-03	1.101183E-04
3.168819E+03	1.008679E-03	1.067046E-04
3.178721E+03	9.777876E-04	1.034075E-04
3.188624E+03	9.479315E-04	1.002215E-04
3.198526E+03	9.191427E-04	9.714999E-05
3.208429E+03	8.913560E-04	9.418604E-05
3.218332E+03	8.645982E-04	9.133234E-05
3.228234E+03	8.388196E-04	8.858358E-05
3.238137E+03	8.140143E-04	8.593906E-05
3.248039E+03	7.901609E-04	8.339643E-05
3.257942E+03	7.672257E-04	8.095207E-05
3.267844E+03	7.452104E-04	7.860606E-05
3.277747E+03	7.240692E-04	7.635351E-05
3.287650E+03	7.037808E-04	7.419209E-05
3.297552E+03	6.843440E-04	7.212162E-05
3.307455E+03	6.657148E-04	7.013737E-05
3.317357E+03	6.478721E-04	6.823707E-05
3.327260E+03	6.307940E-04	6.641831E-05
3.337162E+03	6.144672E-04	6.467966E-05
3.347065E+03	5.988530E-04	6.301697E-05
3.356967E+03	5.839305E-04	6.142797E-05
3.366870E+03	5.696874E-04	5.991131E-05
3.376773E+03	5.560945E-04	5.846386E-05
3.386675E+03	5.431321E-04	5.708350E-05
3.396578E+03	5.307666E-04	5.576664E-05
3.406480E+03	5.189862E-04	5.451196E-05
3.416383E+03	5.077724E-04	5.331751E-05
3.426285E+03	4.970950E-04	5.218004E-05
3.436188E+03	4.869379E-04	5.109780E-05
3.446090E+03	4.772786E-04	5.006842E-05
3.455993E+03	4.681086E-04	4.909093E-05
3.465896E+03	4.593963E-04	4.816199E-05
3.475798E+03	4.511341E-04	4.728076E-05
3.485701E+03	4.432994E-04	4.644480E-05
3.495603E+03	4.358747E-04	4.565228E-05
3.505506E+03	4.288449E-04	4.490156E-05
3.515408E+03	4.221904E-04	4.419055E-05
3.525311E+03	4.159022E-04	4.351827E-05
3.535213E+03	4.099577E-04	4.288233E-05
3.545116E+03	4.043447E-04	4.228142E-05
3.555019E+03	3.990565E-04	4.171480E-05
3.564921E+03	3.940772E-04	4.118079E-05
3.574824E+03	3.893964E-04	4.067826E-05
3.584726E+03	3.850001E-04	4.020572E-05
3.594629E+03	3.808755E-04	3.976182E-05
3.604531E+03	3.770140E-04	3.934561E-05
3.614434E+03	3.734001E-04	3.895548E-05
3.624337E+03	3.700298E-04	3.859097E-05
3.634239E+03	3.668892E-04	3.825060E-05
3.644142E+03	3.639720E-04	3.793371E-05
3.654044E+03	3.612751E-04	3.763993E-05
3.663947E+03	3.587861E-04	3.736797E-05
3.673849E+03	3.564991E-04	3.711718E-05
3.683752E+03	3.544151E-04	3.688765E-05
3.693654E+03	3.525257E-04	3.667848E-05
3.703557E+03	3.508255E-04	3.648910E-05
3.713460E+03	3.493148E-04	3.631951E-05
3.723362E+03	3.479854E-04	3.616884E-05
3.733265E+03	3.468349E-04	3.603683E-05
3.743167E+03	3.458641E-04	3.592353E-05
3.753070E+03	3.450669E-04	3.582830E-05
3.762972E+03	3.444412E-04	3.575091E-05
3.772875E+03	3.439845E-04	3.569106E-05
3.782777E+03	3.436944E-04	3.564850E-05
3.792680E+03	3.435712E-04	3.562325E-05
3.802583E+03	3.436097E-04	3.561473E-05
3.812485E+03	3.438110E-04	3.562305E-05
3.822388E+03	3.441751E-04	3.564820E-05
3.832290E+03	3.446970E-04	3.568964E-05
3.842193E+03	3.453747E-04	3.574714E-05
3.852095E+03	3.462115E-04	3.582102E-05
3.861998E+03	3.472050E-04	3.591103E-05
3.871900E+03	3.483505E-04	3.601665E-05
3.881803E+03	3.496506E-04	3.613815E-05
3.891706E+03	3.511060E-04	3.627558E-05
3.901608E+03	3.527082E-04	3.642804E-05
3.911511E+03	3.544602E-04	3.659582E-05
3.921413E+03	3.563615E-04	3.677886E-05
3.931316E+03	3.584092E-04	3.697684E-05
3.941218E+03	3.605966E-04	3.718906E-05
3.951121E+03	3.629293E-04	3.741607E-05
3.961024E+03	3.653999E-04	3.765710E-05
3.970926E+03	3.680049E-04	3.791177E-05
3.980829E+03	3.707456E-04	3.818022E-05
3.990731E+03	3.736149E-04	3.846166E-05
4.000634E+03	3.766139E-04	3.875623E-05
4.010536E+03	3.797324E-04	3.906284E-05
4.020439E+03	3.829745E-04	3.938191E-05
4.030341E+03	3.863327E-04	3.971266E-05
4.040244E+03	3.898017E-04	4.005452E-05
4.050147E+03	3.933831E-04	4.040766E-05
4.060049E+03	3.970659E-04	4.077092E-05
4.069952E+03	4.008545E-04	4.114474E-05
4.079854E+03	4.047375E-04	4.152795E-05
4.089757E+03	4.087132E-04	4.192037E-05
4.099659E+03	4.127799E-04	4.232180E-05
4.109562E+03	4.169291E-04	4.273136E-05
4.119464E+03	4.211592E-04	4.314889E-05
4.129367E+03	4.254651E-04	4.357385E-05
4.139270E+03	4.298381E-04	4.400535E-05
4.149172E+03	4.342798E-04	4.444353E-05
4.159075E+03	4.387786E-04	4.488720E-05
4.168977E+03	4.433354E-04	4.533646E-05
4.178880E+03	4.479377E-04	4.579001E-05
4.188782E+03	4.525835E-04	4.624767E-05
4.198685E+03	4.572668E-04	4.670879E-05
4.208587E+03	4.619741E-04	4.717199E-05
4.218490E+03	4.667062E-04	4.763736E-05
4.228393E+03	4.714527E-04	4.810385E-05
4.238295E+03	4.762029E-04	4.857036E-05
4.248198E+03	4.809460E-04	4.903577E-05
4.258100E+03	4.856785E-04	4.949974E-05
4.268003E+03	4.903927E-04	4.996149E-05
4.277905E+03	4.950692E-04	5.041905E-05
4.287808E+03	4.997087E-04	5.087249E-05
4.297711E+03	5.042906E-04	5.131972E-05
4.307613E+03	5.088155E-04	5.176081E-05
4.317516E+03	5.132673E-04	5.219413E-05
4.327418E+03	5.176425E-04	5.261933E-05
4.337321E+03	5.219381E-04	5.303613E-05
4.347223E+03	5.261515E-04	5.344426E-05
4.357126E+03	5.302831E-04	5.384379E-05
4.367028E+03	5.343395E-04	5.423538E-05
4.376931E+03	5.383287E-04	5.461986E-05
4.386834E+03	5.422549E-04	5.499766E-05
4.396736E+03	5.461271E-04	5.536972E-05
4.406639E+03	5.499456E-04	5.573606E-05
4.416541E+03	5.537248E-04	5.609816E-05
4.426444E+03	5.574656E-04	5.645610E-05
4.436346E+03	5.611732E-04	5.681043E-05
4.446249E+03	5.648533E-04	5.716173E-05
4.456151E+03	5.685111E-04	5.751052E-05
4.466054E+03	5.721524E-04	5.785738E-05
4.475957E+03	5.757823E-04	5.820285E-05
4.485859E+03	5.793967E-04	5.854650E-05
4.495762E+03	5.830111E-04	5.888991E-05
4.505664E+03	5.866204E-04	5.923256E-05
4.515567E+03	5.902302E-04	5.957500E-05
4.525469E+03	5.938407E-04	5.991727E-05
4.535372E+03	5.974624E-04	6.026041E-05
4.545274E+03	6.010950E-04	6.060440E-05
4.555177E+03	6.047330E-04	6.094868E-05
4.565080E+03	6.083921E-04	6.129484E-05
4.574982E+03	6.120662E-04	6.164225E-05
4.584885E+03	6.157541E-04	6.199079E-05
4.594787E+03	6.194663E-04	6.234151E-05
4.604690E+03	6.232069E-04	6.269483E-05
4.614592E+03	6.269634E-04	6.304948E-05
4.624495E+03	6.307519E-04	6.340708E-05
4.634398E+03	6.345707E-04	6.376745E-05
4.644300E+03	6.384190E-04	6.413051E-05
4.654203E+03	6.423011E-04	6.449669E-05
4.664105E+03	6.462168E-04	6.486596E-05
4.674008E+03	6.501713E-04	6.523883E-05
4.683910E+03	6.541534E-04	6.561420E-05
4.693813E+03	6.581700E-04	6.599272E-05
4.703715E+03	6.622288E-04	6.637518E-05
4.713618E+03	6.663136E-04	6.675995E-05
4.723521E+03	6.704391E-04	6.714849E-05
4.733423E+03	6.746004E-04	6.754032E-05
4.743326E+03	6.787935E-04	6.793502E-05
4.753228E+03	6.830323E-04	6.833398E-05
4.763131E+03	6.872983E-04	6.873534E-05
4.773033E+03	6.916120E-04	6.914115E-05
4.782936E+03	6.959538E-04	6.954945E-05
4.792838E+03	7.003364E-04	6.996150E-05
4.802741E+03	7.047466E-04	7.037597E-05
4.812644E+03	7.091967E-04	7.079409E-05
4.822546E+03	7.136725E-04	7.121444E-05
4.832449E+03	7.181798E-04	7.163759E-05
4.842351E+03	7.227175E-04	7.206343E-05
4.852254E+03	7.272780E-04	7.249119E-05
4.862156E+03	7.318602E-04	7.292077E-05
4.872059E+03	7.364628E-04	7.335203E-05
4.881961E+03	7.410920E-04	7.378559E-05
4.891864E+03	7.457329E-04	7.421995E-05
4.901767E+03	7.503988E-04	7.465644E-05
4.911669E+03	7.550747E-04	7.509356E-05
4.921572E+03	7.597666E-04	7.553191E-05
4.931474E+03	7.644660E-04	7.597064E-05
4.941377E+03	7.691713E-04	7.640959E-05
4.951279E+03	7.738798E-04	7.684849E-05
4.961182E+03	7.785965E-04	7.728783E-05
4.971085E+03	7.833021E-04	7.772570E-05
4.980987E+03	7.879998E-04	7.816243E-05
4.990890E+03	7.926766E-04	7.859670E-05
5.000792E+03	7.973338E-04	7.902866E-05
5.010695E+03	8.019568E-04	7.945687E-05
5.020597E+03	8.065297E-04	7.987975E-05
5.030500E+03	8.110520E-04	8.029725E-05
5.040402E+03	8.155143E-04	8.070847E-05
5.050305E+03	8.198983E-04	8.111157E-05
5.060208E+03	8.241848E-04	8.150468E-05
5.070110E+03	8.283783E-04	8.188826E-05
5.080013E+03	8.324503E-04	8.225948E-05
5.089915E+03	8.363879E-04	8.261712E-05
5.099818E+03	8.401776E-04	8.295982E-05
5.109720E+03	8.438063E-04	8.328631E-05
5.119623E+03	8.472529E-04	8.359456E-05
5.129525E+03	8.505123E-04	8.388405E-05
5.139428E+03	8.535547E-04	8.415189E-05
5.149331E+03	8.563761E-04	8.439768E-05
5.159233E+03	8.589464E-04	8.461850E-05
5.169136E+03	8.612696E-04	8.481478E-05
5.179038E+03	8.633152E-04	8.498352E-05
5.188941E+03	8.650775E-04	8.512422E-05
5.198843E+03	8.665246E-04	8.523375E-05
5.208746E+03	8.676494E-04	8.531147E-05
5.218648E+03	8.684360E-04	8.535584E-05
5.228551E+03	8.688506E-04	8.536357E-05
5.238454E+03	8.688762E-04	8.533305E-05
5.248356E+03	8.685043E-04	8.526349E-05
5.258259E+03	8.677100E-04	8.515249E-05
5.268161E+03	8.664683E-04	8.499763E-05
5.278064E+03	8.647644E-04	8.479753E-05
5.287966E+03	8.625844E-04	8.455088E-05
5.297869E+03	8.599163E-04	8.425655E-05
5.307772E+03	8.567422E-04	8.391285E-05
5.317674E+03	8.530633E-04	8.351997E-05
5.327577E+03	8.488679E-04	8.307679E-05
5.337479E+03	8.441647E-04	8.258424E-05
5.347382E+03	8.389502E-04	8.204204E-05
5.357284E+03	8.332507E-04	8.145282E-05
5.367187E+03	8.270900E-04	8.081896E-05
5.377089E+03	8.204807E-04	8.014175E-05
5.386992E+03	8.134741E-04	7.942624E-05
5.396895E+03	8.061025E-04	7.867563E-05
5.406797E+03	7.983710E-04	7.789047E-05
5.416700E+03	7.903467E-04	7.707735E-05
5.426602E+03	7.820608E-04	7.623934E-05
5.436505E+03	7.735483E-04	7.537988E-05
5.446407E+03	7.648564E-04	7.450359E-05
5.456310E+03	7.560275E-04	7.361463E-05
5.466212E+03	7.471069E-04	7.271742E-05
5.476115E+03	7.381553E-04	7.181787E-05
5.486018E+03	7.292183E-04	7.092042E-05
5.495920E+03	7.203639E-04	7.003169E-05
5.505823E+03	7.116505E-04	6.915732E-05
5.515725E+03	7.031281E-04	6.830218E-05
5.525628E+03	6.948581E-04	6.747218E-05
5.535530E+03	6.868916E-04	6.667228E-05
5.545433E+03	6.792762E-04	6.590704E-05
5.555335E+03	6.720608E-04	6.518117E-05
5.565238E+03	6.652830E-04	6.449828E-05
5.575141E+03	6.589736E-04	6.386129E-05
5.585043E+03	6.531644E-04	6.327322E-05
5.594946E+03	6.478731E-04	6.273575E-05
5.604848E+03	6.431183E-04	6.225060E-05
5.614751E+03	6.389043E-04	6.181813E-05
5.624653E+03	6.352301E-04	6.143819E-05
5.634556E+03	6.320951E-04	6.111065E-05
5.644459E+03	6.294877E-04	6.083433E-05
5.654361E+03	6.273916E-04	6.060758E-05
5.664264E+03	6.257937E-04	6.042910E-05
5.674166E+03	6.246724E-04	6.029673E-05
5.684069E+03	6.240113E-04	6.020885E-05
5.693971E+03	6.237809E-04	6.016254E-05
5.703874E+03	6.239720E-04	6.015688E-05
5.713776E+03	6.245581E-04	6.018926E-05
5.723679E+03	6.255220E-04	6.025798E-05
5.733582E+03	6.268623E-04	6.036285E-05
5.743484E+03	6.285542E-04	6.050146E-05
5.753387E+03	6.306030E-04	6.067426E-05
5.763289E+03	6.330020E-04	6.088058E-05
5.773192E+03	6.357476E-04	6.112002E-05
5.783094E+03	6.388301E-04	6.139162E-05
5.792997E+03	6.422615E-04	6.169648E-05
5.802899E+03	6.460344E-04	6.203386E-05
5.812802E+03	6.501547E-04	6.240430E-05
5.822705E+03	6.546222E-04	6.280771E-05
5.832607E+03	6.594297E-04	6.324338E-05
5.842510E+03	6.645833E-04	6.371183E-05
5.852412E+03	6.700900E-04	6.421373E-05
5.862315E+03	6.759331E-04	6.474742E-05
5.872217E+03	6.821182E-04	6.531340E-05
5.882120E+03	6.886424E-04	6.591135E-05
5.892022E+03	6.955094E-04	6.654157E-05
5.901925E+03	7.026985E-04	6.720208E-05
5.911828E+03	7.102203E-04	6.789383E-05
5.921730E+03	7.180519E-04	6.861459E-05
5.931633E+03	7.261940E-04	6.936441E-05
5.941535E+03	7.346381E-04	7.014243E-05
5.951438E+03	7.433667E-04	7.094696E-05
5.961340E+03	7.523784E-04	7.177782E-05
5.971243E+03	7.616445E-04	7.263224E-05
5.981146E+03	7.711707E-04	7.351074E-05
5.991048E+03	7.809170E-04	7.440949E-05
6.000951E+03	7.908871E-04	7.532881E-05
6.010853E+03	8.010474E-04	7.626548E-05
6.020756E+03	8.113901E-04	7.721873E-05
6.030658E+03	8.218782E-04	7.818503E-05
6.040561E+03	8.324918E-04	7.916248E-05
6.050463E+03	8.431995E-04	8.014806E-05
6.060366E+03	8.539779E-04	8.113956E-05
6.070269E+03	8.647820E-04	8.213270E-05
6.080171E+03	8.755744E-04	8.312392E-05
6.090074E+03	8.863271E-04	8.411058E-05
6.099976E+03	8.970009E-04	8.508895E-05
6.109879E+03	9.075332E-04	8.605312E-05
6.119781E+03	9.178950E-04	8.700036E-05
6.129684E+03	9.280469E-04	8.792697E-05
6.139586E+03	9.379646E-04	8.883066E-05
6.149489E+03	9.476413E-04	8.971083E-05
6.159392E+03	9.570733E-04	9.056716E-05
6.169294E+03	9.662733E-04	9.140088E-05
6.179197E+03	9.752819E-04	9.221587E-05
6.189099E+03	9.841066E-04	9.301285E-05
6.199002E+03	9.927435E-04	9.379149E-05
6.208904E+03	1.001242E-03	9.455650E-05
6.218807E+03	1.009615E-03	9.530909E-05
6.228709E+03	1.017850E-03	9.604810E-05
6.238612E+03	1.026002E-03	9.677870E-05
6.248515E+03	1.034045E-03	9.749854E-05
6.258417E+03	1.042023E-03	9.821170E-05
6.268320E+03	1.049923E-03	9.891710E-05
6.278222E+03	1.057764E-03	9.961634E-05
6.288125E+03	1.065546E-03	1.003096E-04
6.298027E+03	1.073273E-03	1.009971E-04
6.307930E+03	1.080945E-03	1.016790E-04
6.317833E+03	1.088549E-03	1.023541E-04
6.327735E+03	1.096071E-03	1.030210E-04
6.337638E+03	1.103526E-03	1.036811E-04
6.347540E+03	1.110882E-03	1.043315E-04
6.357443E+03	1.118153E-03	1.049735E-04
6.367345E+03	1.125323E-03	1.056056E-04
6.377248E+03	1.132391E-03	1.062277E-04
6.387150E+03	1.139371E-03	1.068412E-04
6.397053E+03	1.146298E-03	1.074492E-04
6.406956E+03	1.153172E-03	1.080521E-04
6.416858E+03	1.160014E-03	1.086514E-04
6.426761E+03	1.166843E-03	1.092493E-04
6.436663E+03	1.173646E-03	1.098443E-04
6.446566E+03	1.180462E-03	1.104402E-04
6.456468E+03	1.187295E-03	1.110373E-04
6.466371E+03	1.194133E-03	1.116345E-04
6.476273E+03	1.201015E-03	1.122356E-04
6.486176E+03	1.207927E-03	1.128392E-04
6.496079E+03	1.214856E-03	1.134439E-04
6.505981E+03	1.221843E-03	1.140538E-04
6.515884E+03	1.228874E-03	1.146674E-04
6.525786E+03	1.235951E-03	1.152851E-04
6.535689E+03	1.243099E-03	1.159090E-04
6.545591E+03	1.250281E-03	1.165358E-04
6.555494E+03	1.257499E-03	1.171656E-04
6.565396E+03	1.264796E-03	1.178026E-04
6.575299E+03	1.272133E-03	1.184429E-04
6.585202E+03	1.279510E-03	1.190866E-04
6.595104E+03	1.286947E-03	1.197357E-04
6.605007E+03	1.294423E-03	1.203881E-04
6.614909E+03	1.301935E-03	1.210437E-04
6.624812E+03	1.309503E-03	1.217041E-04
6.634714E+03	1.317079E-03	1.223650E-04
6.644617E+03	1.324658E-03	1.230259E-04
6.654520E+03	1.332282E-03	1.236908E-04
6.664422E+03	1.339899E-03	1.243548E-04
6.674325E+03	1.347503E-03	1.250174E-04
6.684227E+03	1.355112E-03	1.256802E-04
6.694130E+03	1.362694E-03	1.263404E-04
6.704032E+03	1.370243E-03	1.269972E-04
6.713935E+03	1.377750E-03	1.276501E-04
6.723837E+03	1.385207E-03	1.282981E-04
6.733740E+03	1.392580E-03	1.289382E-04
6.743643E+03	1.399886E-03	1.295720E-04
6.753545E+03	1.407115E-03	1.301986E-04
6.763448E+03	1.414234E-03	1.308149E-04
6.773350E+03	1.421259E-03	1.314225E-04
6.783253E+03	1.428155E-03	1.320180E-04
6.793155E+03	1.434913E-03	1.326008E-04
6.803058E+03	1.441525E-03	1.331701E-04
6.812960E+03	1.447955E-03	1.337226E-04
6.822863E+03	1.454249E-03	1.342627E-04
6.832766E+03	1.460374E-03	1.347871E-04
6.842668E+03	1.466295E-03	1.352929E-04
6.852571E+03	1.472034E-03	1.357819E-04
6.862473E+03	1.477556E-03	1.362511E-04
6.872376E+03	1.482856E-03	1.367000E-04
6.882278E+03	1.487955E-03	1.371305E-04
6.892181E+03	1.492820E-03	1.375398E-04
6.902083E+03	1.497447E-03	1.379274E-04
6.911986E+03	1.501830E-03	1.382928E-04
6.921889E+03	1.505967E-03	1.386358E-04
6.931791E+03	1.509824E-03	1.389534E-04
6.941694E+03	1.513458E-03	1.392508E-04
6.951596E+03	1.516809E-03	1.395226E-04
6.961499E+03	1.519877E-03	1.397688E-04
6.971401E+03	1.522692E-03	1.399922E-04
6.981304E+03	1.525226E-03	1.401902E-04
6.991207E+03	1.527483E-03	1.403633E-04
7.001109E+03	1.529467E-03	1.405118E-04
7.011012E+03	1.531184E-03	1.406364E-04
7.020914E+03	1.532672E-03	1.407405E-04
7.030817E+03	1.533880E-03	1.408195E-04
7.040719E+03	1.534819E-03	1.408744E-04
7.050622E+03	1.535531E-03	1.409092E-04
7.060524E+03	1.536032E-03	1.409253E-04
7.070427E+03	1.536307E-03	1.409213E-04
7.080330E+03	1.536404E-03	1.409018E-04
7.090232E+03	1.536280E-03	1.408628E-04
7.100135E+03	1.536017E-03	1.408118E-04
7.110037E+03	1.535607E-03	1.407480E-04
7.119940E+03	1.535070E-03	1.406735E-04
7.129842E+03	1.534397E-03	1.405873E-04
7.139745E+03	1.533677E-03	1.404976E-04
7.149647E+03	1.532867E-03	1.404006E-04
7.159550E+03	1.532023E-03	1.403014E-04
7.169453E+03	1.531135E-03	1.401989E-04
7.179355E+03	1.530253E-03	1.400979E-04
7.189258E+03	1.529363E-03	1.399971E-04
7.199160E+03	1.528481E-03	1.398979E-04
7.209063E+03	1.527648E-03	1.398042E-04
7.218965E+03	1.526842E-03	1.397138E-04
7.228868E+03	1.526100E-03	1.396303E-04
7.238770E+03	1.525356E-03	1.395476E-04
7.248673E+03	1.524643E-03	1.394686E-04
7.258576E+03	1.523986E-03	1.393959E-04
7.268478E+03	1.523315E-03	1.393228E-04
7.278381E+03	1.522652E-03	1.392515E-04
7.288283E+03	1.521955E-03	1.391781E-04
7.298186E+03	1.521245E-03	1.391046E-04
7.308088E+03	1.520478E-03	1.390270E-04
7.317991E+03	1.519644E-03	1.389442E-04
7.327894E+03	1.518731E-03	1.388554E-04
7.337796E+03	1.517697E-03	1.387566E-04
7.347699E+03	1.516534E-03	1.386471E-04
7.357601E+03	1.515234E-03	1.385263E-04
7.367504E+03	1.513792E-03	1.383936E-04
7.377406E+03	1.512237E-03	1.382518E-04
7.387309E+03	1.510533E-03	1.380974E-04
7.397211E+03	1.508746E-03	1.379367E-04
7.407114E+03	1.506876E-03	1.377696E-04
7.417017E+03	1.504924E-03	1.375962E-04
7.426919E+03	1.502891E-03	1.374166E-04
7.436822E+03	1.500778E-03	1.372309E-04
7.446724E+03	1.498659E-03	1.370459E-04
7.456627E+03	1.496481E-03	1.368567E-04
7.466529E+03	1.494291E-03	1.366674E-04
7.476432E+03	1.492099E-03	1.364792E-04
7.486334E+03	1.489950E-03	1.362961E-04
7.496237E+03	1.487787E-03	1.361127E-04
7.506140E+03	1.485654E-03	1.359331E-04
7.516042E+03	1.483559E-03	1.357581E-04
7.525945E+03	1.481547E-03	1.355918E-04
7.535847E+03	1.479559E-03	1.354287E-04
7.545750E+03	1.477672E-03	1.352758E-04
7.555652E+03	1.475859E-03	1.351308E-04
7.565555E+03	1.474093E-03	1.349910E-04
7.575457E+03	1.472452E-03	1.348636E-04
7.585360E+03	1.470907E-03	1.347459E-04
7.595263E+03	1.469462E-03	1.346385E-04
7.605165E+03	1.468124E-03	1.345417E-04
7.615068E+03	1.466896E-03	1.344559E-04
7.624970E+03	1.465779E-03	1.343812E-04
7.634873E+03	1.464811E-03	1.343210E-04
7.644775E+03	1.463918E-03	1.342687E-04
7.654678E+03	1.463169E-03	1.342304E-04
7.664581E+03	1.462525E-03	1.342026E-04
7.674483E+03	1.461979E-03	1.341846E-04
7.684386E+03	1.461523E-03	1.341758E-04
