#wls	flux	fluxerr
1.584409E+03	4.308967E-03	1.549818E-04
1.624020E+03	4.375368E-03	1.572390E-04
1.663630E+03	4.439931E-03	1.594234E-04
1.703240E+03	4.501979E-03	1.615107E-04
1.742850E+03	4.561185E-03	1.634891E-04
1.782461E+03	4.616746E-03	1.653301E-04
1.822071E+03	4.668583E-03	1.670312E-04
1.861681E+03	4.716137E-03	1.685724E-04
1.901291E+03	4.758426E-03	1.699191E-04
1.940902E+03	4.794460E-03	1.710364E-04
1.980512E+03	4.823268E-03	1.718902E-04
2.020122E+03	4.844229E-03	1.724592E-04
2.059732E+03	4.855173E-03	1.726669E-04
2.099342E+03	4.855102E-03	1.724790E-04
2.138953E+03	4.842599E-03	1.718465E-04
2.178563E+03	4.815440E-03	1.706919E-04
2.218173E+03	4.773191E-03	1.690017E-04
2.257783E+03	4.715184E-03	1.667542E-04
2.297394E+03	4.642247E-03	1.639808E-04
2.337004E+03	4.555734E-03	1.607312E-04
2.376614E+03	4.457364E-03	1.570678E-04
2.416224E+03	4.349302E-03	1.530688E-04
2.455835E+03	4.232714E-03	1.487765E-04
2.495445E+03	4.109201E-03	1.442487E-04
2.535055E+03	3.980010E-03	1.395301E-04
2.574665E+03	3.845830E-03	1.346461E-04
2.614276E+03	3.707502E-03	1.296271E-04
2.653886E+03	3.565612E-03	1.244944E-04
2.693496E+03	3.420928E-03	1.192757E-04
2.733106E+03	3.274055E-03	1.139927E-04
2.772716E+03	3.125714E-03	1.086712E-04
2.812327E+03	2.976637E-03	1.033371E-04
2.851937E+03	2.828001E-03	9.803178E-05
2.891547E+03	2.680916E-03	9.279376E-05
2.931157E+03	2.536553E-03	8.766368E-05
2.970768E+03	2.396446E-03	8.269433E-05
2.980670E+03	2.362275E-03	8.148361E-05
2.990573E+03	2.328468E-03	8.028631E-05
3.000475E+03	2.295044E-03	7.910305E-05
3.010378E+03	2.262074E-03	7.793624E-05
3.020280E+03	2.229573E-03	7.678640E-05
3.030183E+03	2.197558E-03	7.565409E-05
3.040086E+03	2.166047E-03	7.453994E-05
3.049988E+03	2.135061E-03	7.344462E-05
3.059891E+03	2.104619E-03	7.236880E-05
3.069793E+03	2.074782E-03	7.131456E-05
3.079696E+03	2.045568E-03	7.028246E-05
3.089598E+03	2.016957E-03	6.927181E-05
3.099501E+03	1.989047E-03	6.828594E-05
3.109403E+03	1.961778E-03	6.732280E-05
3.119306E+03	1.935208E-03	6.638434E-05
3.129209E+03	1.909394E-03	6.547249E-05
3.139111E+03	1.884318E-03	6.458660E-05
3.149014E+03	1.860033E-03	6.372842E-05
3.158916E+03	1.836523E-03	6.289746E-05
3.168819E+03	1.813839E-03	6.209536E-05
3.178721E+03	1.792002E-03	6.132283E-05
3.188624E+03	1.770995E-03	6.057926E-05
3.198526E+03	1.750868E-03	5.986635E-05
3.208429E+03	1.731642E-03	5.918475E-05
3.218332E+03	1.713334E-03	5.853500E-05
3.228234E+03	1.695962E-03	5.791769E-05
3.238137E+03	1.679544E-03	5.733342E-05
3.248039E+03	1.664098E-03	5.678277E-05
3.257942E+03	1.649620E-03	5.626549E-05
3.267844E+03	1.636182E-03	5.578406E-05
3.277747E+03	1.623750E-03	5.533728E-05
3.287650E+03	1.612372E-03	5.492674E-05
3.297552E+03	1.602047E-03	5.455233E-05
3.307455E+03	1.592822E-03	5.421563E-05
3.317357E+03	1.584717E-03	5.391727E-05
3.327260E+03	1.577710E-03	5.365648E-05
3.337162E+03	1.571873E-03	5.343565E-05
3.347065E+03	1.567187E-03	5.325405E-05
3.356967E+03	1.563700E-03	5.311331E-05
3.366870E+03	1.561443E-03	5.301441E-05
3.376773E+03	1.560399E-03	5.295672E-05
3.386675E+03	1.560643E-03	5.294274E-05
3.396578E+03	1.562164E-03	5.297204E-05
3.406480E+03	1.564993E-03	5.304566E-05
3.416383E+03	1.569169E-03	5.316478E-05
3.426285E+03	1.574704E-03	5.332980E-05
3.436188E+03	1.581657E-03	5.354269E-05
3.446090E+03	1.590027E-03	5.380328E-05
3.455993E+03	1.599853E-03	5.411289E-05
3.465896E+03	1.611158E-03	5.447224E-05
3.475798E+03	1.624004E-03	5.488332E-05
3.485701E+03	1.638398E-03	5.534633E-05
3.495603E+03	1.654362E-03	5.586195E-05
3.505506E+03	1.671967E-03	5.643249E-05
3.515408E+03	1.691197E-03	5.705736E-05
3.525311E+03	1.712102E-03	5.773818E-05
3.535213E+03	1.734729E-03	5.847646E-05
3.545116E+03	1.759089E-03	5.927249E-05
3.555019E+03	1.785227E-03	6.012771E-05
3.564921E+03	1.813151E-03	6.104231E-05
3.574824E+03	1.842886E-03	6.201712E-05
3.584726E+03	1.874475E-03	6.305344E-05
3.594629E+03	1.907899E-03	6.415056E-05
3.604531E+03	1.943216E-03	6.531039E-05
3.614434E+03	1.980416E-03	6.653253E-05
3.624337E+03	2.019514E-03	6.781734E-05
3.634239E+03	2.060487E-03	6.916401E-05
3.644142E+03	2.103356E-03	7.057317E-05
3.654044E+03	2.148109E-03	7.204435E-05
3.663947E+03	2.194708E-03	7.357618E-05
3.673849E+03	2.243151E-03	7.516852E-05
3.683752E+03	2.293400E-03	7.682004E-05
3.693654E+03	2.345389E-03	7.852844E-05
3.703557E+03	2.399132E-03	8.029415E-05
3.713460E+03	2.454516E-03	8.211330E-05
3.723362E+03	2.511488E-03	8.398406E-05
3.733265E+03	2.570007E-03	8.590502E-05
3.743167E+03	2.629925E-03	8.787116E-05
3.753070E+03	2.691201E-03	8.988106E-05
3.762972E+03	2.753690E-03	9.192982E-05
3.772875E+03	2.817303E-03	9.401442E-05
3.782777E+03	2.881920E-03	9.613087E-05
3.792680E+03	2.947384E-03	9.827387E-05
3.802583E+03	3.013551E-03	1.004386E-04
3.812485E+03	3.080297E-03	1.026209E-04
3.822388E+03	3.147433E-03	1.048145E-04
3.832290E+03	3.214820E-03	1.070147E-04
3.842193E+03	3.282254E-03	1.092149E-04
3.852095E+03	3.349585E-03	1.114098E-04
3.861998E+03	3.416627E-03	1.135935E-04
3.871900E+03	3.483192E-03	1.157597E-04
3.881803E+03	3.549123E-03	1.179032E-04
3.891706E+03	3.614197E-03	1.200166E-04
3.901608E+03	3.678259E-03	1.220949E-04
3.911511E+03	3.741153E-03	1.241329E-04
3.921413E+03	3.802632E-03	1.261226E-04
3.931316E+03	3.862615E-03	1.280612E-04
3.941218E+03	3.920897E-03	1.299420E-04
3.951121E+03	3.977313E-03	1.317598E-04
3.961024E+03	4.031734E-03	1.335102E-04
3.970926E+03	4.083975E-03	1.351874E-04
3.980829E+03	4.133963E-03	1.367888E-04
3.990731E+03	4.181562E-03	1.383103E-04
4.000634E+03	4.226644E-03	1.397475E-04
4.010536E+03	4.269057E-03	1.410957E-04
4.020439E+03	4.308761E-03	1.423536E-04
4.030341E+03	4.345656E-03	1.435180E-04
4.040244E+03	4.379653E-03	1.445862E-04
4.050147E+03	4.410667E-03	1.455553E-04
4.060049E+03	4.438626E-03	1.464233E-04
4.069952E+03	4.463509E-03	1.471895E-04
4.079854E+03	4.485223E-03	1.478509E-04
4.089757E+03	4.503771E-03	1.484079E-04
4.099659E+03	4.519126E-03	1.488596E-04
4.109562E+03	4.531277E-03	1.492058E-04
4.119464E+03	4.540227E-03	1.494467E-04
4.129367E+03	4.545996E-03	1.495832E-04
4.139270E+03	4.548662E-03	1.496178E-04
4.149172E+03	4.548201E-03	1.495500E-04
4.159075E+03	4.544728E-03	1.493836E-04
4.168977E+03	4.538378E-03	1.491231E-04
4.178880E+03	4.529187E-03	1.487699E-04
4.188782E+03	4.517330E-03	1.483298E-04
4.198685E+03	4.502928E-03	1.478069E-04
4.208587E+03	4.486198E-03	1.472084E-04
4.218490E+03	4.467300E-03	1.465396E-04
4.228393E+03	4.446417E-03	1.458065E-04
4.238295E+03	4.423867E-03	1.450198E-04
4.248198E+03	4.399796E-03	1.441841E-04
4.258100E+03	4.374557E-03	1.433112E-04
4.268003E+03	4.348408E-03	1.424095E-04
4.277905E+03	4.321660E-03	1.414892E-04
4.287808E+03	4.294601E-03	1.405598E-04
4.297711E+03	4.267600E-03	1.396333E-04
4.307613E+03	4.240988E-03	1.387205E-04
4.317516E+03	4.215059E-03	1.378312E-04
4.327418E+03	4.190228E-03	1.369788E-04
4.337321E+03	4.166730E-03	1.361709E-04
4.347223E+03	4.144850E-03	1.354168E-04
4.357126E+03	4.124592E-03	1.347167E-04
4.367028E+03	4.105844E-03	1.340667E-04
4.376931E+03	4.088338E-03	1.334582E-04
4.386834E+03	4.071938E-03	1.328865E-04
4.396736E+03	4.056392E-03	1.323435E-04
4.406639E+03	4.041467E-03	1.318215E-04
4.416541E+03	4.027052E-03	1.313169E-04
4.426444E+03	4.012960E-03	1.308235E-04
4.436346E+03	3.999069E-03	1.303373E-04
4.446249E+03	3.985277E-03	1.298551E-04
4.456151E+03	3.971521E-03	1.293747E-04
4.466054E+03	3.957723E-03	1.288936E-04
4.475957E+03	3.943898E-03	1.284123E-04
4.485859E+03	3.930054E-03	1.279310E-04
4.495762E+03	3.916174E-03	1.274492E-04
4.505664E+03	3.902261E-03	1.269669E-04
4.515567E+03	3.888400E-03	1.264869E-04
4.525469E+03	3.874646E-03	1.260110E-04
4.535372E+03	3.860993E-03	1.255390E-04
4.545274E+03	3.847580E-03	1.250753E-04
4.555177E+03	3.834370E-03	1.246189E-04
4.565080E+03	3.821467E-03	1.241729E-04
4.574982E+03	3.808942E-03	1.237398E-04
4.584885E+03	3.796823E-03	1.233205E-04
4.594787E+03	3.785180E-03	1.229170E-04
4.604690E+03	3.774005E-03	1.225293E-04
4.614592E+03	3.763435E-03	1.221617E-04
4.624495E+03	3.753430E-03	1.218129E-04
4.634398E+03	3.744094E-03	1.214864E-04
4.644300E+03	3.735465E-03	1.211831E-04
4.654203E+03	3.727615E-03	1.209056E-04
4.664105E+03	3.720553E-03	1.206540E-04
4.674008E+03	3.714351E-03	1.204307E-04
4.683910E+03	3.709008E-03	1.202357E-04
4.693813E+03	3.704620E-03	1.200719E-04
4.703715E+03	3.701135E-03	1.199378E-04
4.713618E+03	3.698611E-03	1.198352E-04
4.723521E+03	3.697072E-03	1.197647E-04
4.733423E+03	3.696504E-03	1.197260E-04
4.743326E+03	3.696976E-03	1.197213E-04
4.753228E+03	3.698474E-03	1.197500E-04
4.763131E+03	3.701027E-03	1.198131E-04
4.773033E+03	3.704658E-03	1.199114E-04
4.782936E+03	3.709380E-03	1.200451E-04
4.792838E+03	3.715166E-03	1.202136E-04
4.802741E+03	3.722094E-03	1.204191E-04
4.812644E+03	3.730042E-03	1.206577E-04
4.822546E+03	3.739065E-03	1.209314E-04
4.832449E+03	3.749100E-03	1.212378E-04
4.842351E+03	3.760147E-03	1.215772E-04
4.852254E+03	3.772086E-03	1.219454E-04
4.862156E+03	3.784901E-03	1.223421E-04
4.872059E+03	3.798530E-03	1.227652E-04
4.881961E+03	3.812871E-03	1.232113E-04
4.891864E+03	3.827894E-03	1.236796E-04
4.901767E+03	3.843485E-03	1.241663E-04
4.911669E+03	3.859614E-03	1.246704E-04
4.921572E+03	3.876131E-03	1.251871E-04
4.931474E+03	3.893042E-03	1.257166E-04
4.941377E+03	3.910202E-03	1.262541E-04
4.951279E+03	3.927591E-03	1.267991E-04
4.961182E+03	3.945110E-03	1.273482E-04
4.971085E+03	3.962749E-03	1.279013E-04
4.980987E+03	3.980467E-03	1.284570E-04
4.990890E+03	3.998146E-03	1.290114E-04
5.000792E+03	4.015798E-03	1.295649E-04
5.010695E+03	4.033401E-03	1.301169E-04
5.020597E+03	4.050940E-03	1.306668E-04
5.030500E+03	4.068324E-03	1.312117E-04
5.040402E+03	4.085629E-03	1.317542E-04
5.050305E+03	4.102855E-03	1.322940E-04
5.060208E+03	4.119879E-03	1.328274E-04
5.070110E+03	4.136827E-03	1.333583E-04
5.080013E+03	4.153616E-03	1.338841E-04
5.089915E+03	4.170244E-03	1.344047E-04
5.099818E+03	4.186702E-03	1.349198E-04
5.109720E+03	4.202936E-03	1.354277E-04
5.119623E+03	4.218966E-03	1.359290E-04
5.129525E+03	4.234717E-03	1.364214E-04
5.139428E+03	4.250146E-03	1.369033E-04
5.149331E+03	4.265198E-03	1.373732E-04
5.159233E+03	4.279717E-03	1.378258E-04
5.169136E+03	4.293710E-03	1.382616E-04
5.179038E+03	4.307038E-03	1.386759E-04
5.188941E+03	4.319545E-03	1.390638E-04
5.198843E+03	4.331115E-03	1.394215E-04
5.208746E+03	4.341609E-03	1.397446E-04
5.218648E+03	4.350844E-03	1.400272E-04
5.228551E+03	4.358710E-03	1.402658E-04
5.238454E+03	4.364963E-03	1.404525E-04
5.248356E+03	4.369487E-03	1.405837E-04
5.258259E+03	4.372035E-03	1.406513E-04
5.268161E+03	4.372499E-03	1.406519E-04
5.278064E+03	4.370683E-03	1.405792E-04
5.287966E+03	4.366460E-03	1.404293E-04
5.297869E+03	4.359706E-03	1.401980E-04
5.307772E+03	4.350241E-03	1.398797E-04
5.317674E+03	4.338033E-03	1.394733E-04
5.327577E+03	4.322996E-03	1.389761E-04
5.337479E+03	4.305120E-03	1.383878E-04
5.347382E+03	4.284339E-03	1.377063E-04
5.357284E+03	4.260802E-03	1.369364E-04
5.367187E+03	4.234481E-03	1.360773E-04
5.377089E+03	4.205515E-03	1.351333E-04
5.386992E+03	4.174082E-03	1.341104E-04
5.396895E+03	4.140195E-03	1.330088E-04
5.406797E+03	4.103904E-03	1.318303E-04
5.416700E+03	4.065302E-03	1.305778E-04
5.426602E+03	4.024875E-03	1.292671E-04
5.436505E+03	3.983090E-03	1.279129E-04
5.446407E+03	3.940335E-03	1.265280E-04
5.456310E+03	3.896995E-03	1.251245E-04
5.466212E+03	3.853451E-03	1.237148E-04
5.476115E+03	3.810015E-03	1.223088E-04
5.486018E+03	3.767144E-03	1.209213E-04
5.495920E+03	3.725142E-03	1.195620E-04
5.505823E+03	3.684331E-03	1.182412E-04
5.515725E+03	3.645103E-03	1.169714E-04
5.525628E+03	3.607707E-03	1.157607E-04
5.535530E+03	3.572453E-03	1.146189E-04
5.545433E+03	3.539609E-03	1.135548E-04
5.555335E+03	3.509386E-03	1.125749E-04
5.565238E+03	3.481988E-03	1.116858E-04
5.575141E+03	3.457551E-03	1.108919E-04
5.585043E+03	3.436168E-03	1.101961E-04
5.594946E+03	3.417933E-03	1.096014E-04
5.604848E+03	3.402825E-03	1.091070E-04
5.614751E+03	3.390925E-03	1.087156E-04
5.624653E+03	3.382102E-03	1.084230E-04
5.634556E+03	3.376328E-03	1.082282E-04
5.644459E+03	3.373473E-03	1.081270E-04
5.654361E+03	3.373338E-03	1.081130E-04
5.664264E+03	3.375805E-03	1.081824E-04
5.674166E+03	3.380626E-03	1.083272E-04
5.684069E+03	3.387606E-03	1.085412E-04
5.693971E+03	3.396501E-03	1.088166E-04
5.703874E+03	3.407092E-03	1.091463E-04
5.713776E+03	3.419088E-03	1.095209E-04
5.723679E+03	3.432304E-03	1.099346E-04
5.733582E+03	3.446416E-03	1.103769E-04
5.743484E+03	3.461219E-03	1.108413E-04
5.753387E+03	3.476521E-03	1.113216E-04
5.763289E+03	3.492112E-03	1.118111E-04
5.773192E+03	3.507756E-03	1.123022E-04
5.783094E+03	3.523320E-03	1.127908E-04
5.792997E+03	3.538691E-03	1.132730E-04
5.802899E+03	3.553656E-03	1.137423E-04
5.812802E+03	3.568147E-03	1.141963E-04
5.822705E+03	3.582109E-03	1.146334E-04
5.832607E+03	3.595394E-03	1.150488E-04
5.842510E+03	3.608027E-03	1.154432E-04
5.852412E+03	3.619970E-03	1.158156E-04
5.862315E+03	3.631118E-03	1.161625E-04
5.872217E+03	3.641502E-03	1.164849E-04
5.882120E+03	3.651166E-03	1.167843E-04
5.892022E+03	3.660037E-03	1.170584E-04
5.901925E+03	3.668181E-03	1.173092E-04
5.911828E+03	3.675627E-03	1.175377E-04
5.921730E+03	3.682373E-03	1.177438E-04
5.931633E+03	3.688470E-03	1.179292E-04
5.941535E+03	3.693969E-03	1.180955E-04
5.951438E+03	3.698895E-03	1.182435E-04
5.961340E+03	3.703361E-03	1.183769E-04
5.971243E+03	3.707410E-03	1.184969E-04
5.981146E+03	3.711130E-03	1.186065E-04
5.991048E+03	3.714539E-03	1.187062E-04
6.000951E+03	3.717835E-03	1.188024E-04
6.010853E+03	3.721009E-03	1.188947E-04
6.020756E+03	3.724287E-03	1.189904E-04
6.030658E+03	3.727680E-03	1.190898E-04
6.040561E+03	3.731440E-03	1.192011E-04
6.050463E+03	3.735602E-03	1.193252E-04
6.060366E+03	3.740395E-03	1.194696E-04
6.070269E+03	3.746015E-03	1.196405E-04
6.080171E+03	3.752620E-03	1.198428E-04
6.090074E+03	3.760374E-03	1.200820E-04
6.099976E+03	3.769533E-03	1.203660E-04
6.109879E+03	3.780295E-03	1.207014E-04
6.119781E+03	3.792841E-03	1.210937E-04
6.129684E+03	3.807313E-03	1.215476E-04
6.139586E+03	3.823845E-03	1.220673E-04
6.149489E+03	3.842373E-03	1.226508E-04
6.159392E+03	3.862638E-03	1.232898E-04
6.169294E+03	3.884540E-03	1.239810E-04
6.179197E+03	3.907821E-03	1.247163E-04
6.189099E+03	3.932257E-03	1.254886E-04
6.199002E+03	3.957734E-03	1.262940E-04
6.208904E+03	3.984037E-03	1.271259E-04
6.218807E+03	4.011015E-03	1.279793E-04
6.228709E+03	4.038475E-03	1.288481E-04
6.238612E+03	4.066231E-03	1.297263E-04
6.248515E+03	4.094278E-03	1.306139E-04
6.258417E+03	4.122348E-03	1.315022E-04
6.268320E+03	4.150403E-03	1.323901E-04
6.278222E+03	4.178250E-03	1.332713E-04
6.288125E+03	4.205878E-03	1.341455E-04
6.298027E+03	4.233110E-03	1.350071E-04
6.307930E+03	4.259901E-03	1.358547E-04
6.317833E+03	4.286209E-03	1.366869E-04
6.327735E+03	4.311823E-03	1.374969E-04
6.337638E+03	4.336778E-03	1.382860E-04
6.347540E+03	4.360999E-03	1.390517E-04
6.357443E+03	4.384413E-03	1.397916E-04
6.367345E+03	4.407020E-03	1.405059E-04
6.377248E+03	4.428825E-03	1.411946E-04
6.387150E+03	4.449842E-03	1.418582E-04
6.397053E+03	4.470027E-03	1.424953E-04
6.406956E+03	4.489337E-03	1.431045E-04
6.416858E+03	4.507805E-03	1.436869E-04
6.426761E+03	4.525261E-03	1.442371E-04
6.436663E+03	4.541817E-03	1.447585E-04
6.446566E+03	4.557447E-03	1.452506E-04
6.456468E+03	4.572139E-03	1.457127E-04
6.466371E+03	4.585878E-03	1.461446E-04
6.476273E+03	4.598653E-03	1.465457E-04
6.486176E+03	4.610536E-03	1.469184E-04
6.496079E+03	4.621454E-03	1.472605E-04
6.505981E+03	4.631483E-03	1.475742E-04
6.515884E+03	4.640634E-03	1.478600E-04
6.525786E+03	4.648842E-03	1.481158E-04
6.535689E+03	4.656199E-03	1.483445E-04
6.545591E+03	4.662719E-03	1.485465E-04
6.555494E+03	4.668423E-03	1.487227E-04
6.565396E+03	4.673330E-03	1.488735E-04
6.575299E+03	4.677464E-03	1.489997E-04
6.585202E+03	4.680842E-03	1.491018E-04
6.595104E+03	4.683409E-03	1.491782E-04
6.605007E+03	4.685262E-03	1.492319E-04
6.614909E+03	4.686340E-03	1.492610E-04
6.624812E+03	4.686739E-03	1.492685E-04
6.634714E+03	4.686475E-03	1.492549E-04
6.644617E+03	4.685479E-03	1.492180E-04
6.654520E+03	4.683762E-03	1.491583E-04
6.664422E+03	4.681412E-03	1.490784E-04
6.674325E+03	4.678272E-03	1.489735E-04
6.684227E+03	4.674509E-03	1.488487E-04
6.694130E+03	4.670043E-03	1.487017E-04
6.704032E+03	4.664792E-03	1.485297E-04
6.713935E+03	4.658840E-03	1.483354E-04
6.723837E+03	4.652185E-03	1.481189E-04
6.733740E+03	4.644743E-03	1.478773E-04
6.743643E+03	4.636597E-03	1.476135E-04
6.753545E+03	4.627665E-03	1.473246E-04
6.763448E+03	4.618032E-03	1.470135E-04
6.773350E+03	4.607532E-03	1.466749E-04
6.783253E+03	4.596339E-03	1.463143E-04
6.793155E+03	4.584291E-03	1.459266E-04
6.803058E+03	4.571566E-03	1.455174E-04
6.812960E+03	4.558004E-03	1.450817E-04
6.822863E+03	4.543705E-03	1.446226E-04
6.832766E+03	4.528598E-03	1.441378E-04
6.842668E+03	4.512784E-03	1.436307E-04
6.852571E+03	4.496200E-03	1.430991E-04
6.862473E+03	4.478947E-03	1.425464E-04
6.872376E+03	4.460879E-03	1.419677E-04
6.882278E+03	4.442189E-03	1.413695E-04
6.892181E+03	4.422814E-03	1.407495E-04
6.902083E+03	4.402694E-03	1.401059E-04
6.911986E+03	4.382025E-03	1.394450E-04
6.921889E+03	4.360664E-03	1.387621E-04
6.931791E+03	4.338721E-03	1.380608E-04
6.941694E+03	4.316138E-03	1.373394E-04
6.951596E+03	4.293029E-03	1.366012E-04
6.961499E+03	4.269336E-03	1.358446E-04
6.971401E+03	4.245173E-03	1.350732E-04
6.981304E+03	4.220402E-03	1.342826E-04
6.991207E+03	4.195221E-03	1.334790E-04
7.001109E+03	4.169494E-03	1.326582E-04
7.011012E+03	4.143422E-03	1.318266E-04
7.020914E+03	4.116870E-03	1.309798E-04
7.030817E+03	4.089956E-03	1.301216E-04
7.040719E+03	4.062634E-03	1.292506E-04
7.050622E+03	4.035021E-03	1.283704E-04
7.060524E+03	4.007154E-03	1.274823E-04
7.070427E+03	3.978909E-03	1.265824E-04
7.080330E+03	3.950489E-03	1.256770E-04
7.090232E+03	3.921926E-03	1.247671E-04
7.100135E+03	3.893103E-03	1.238492E-04
7.110037E+03	3.864138E-03	1.229269E-04
7.119940E+03	3.835069E-03	1.220014E-04
7.129842E+03	3.805854E-03	1.210714E-04
7.139745E+03	3.776683E-03	1.201430E-04
7.149647E+03	3.747439E-03	1.192124E-04
7.159550E+03	3.718151E-03	1.182805E-04
7.169453E+03	3.688930E-03	1.173509E-04
7.179355E+03	3.659651E-03	1.164196E-04
7.189258E+03	3.630493E-03	1.154923E-04
7.199160E+03	3.601406E-03	1.145675E-04
7.209063E+03	3.572414E-03	1.136457E-04
7.218965E+03	3.543466E-03	1.127256E-04
7.228868E+03	3.514585E-03	1.118077E-04
7.238770E+03	3.485867E-03	1.108951E-04
7.248673E+03	3.457265E-03	1.099864E-04
7.258576E+03	3.428732E-03	1.090800E-04
7.268478E+03	3.400298E-03	1.081770E-04
7.278381E+03	3.372000E-03	1.072784E-04
7.288283E+03	3.343876E-03	1.063855E-04
7.298186E+03	3.315903E-03	1.054975E-04
7.308088E+03	3.288065E-03	1.046140E-04
7.317991E+03	3.260429E-03	1.037371E-04
7.327894E+03	3.232930E-03	1.028646E-04
7.337796E+03	3.205795E-03	1.020039E-04
7.347699E+03	3.178917E-03	1.011515E-04
7.357601E+03	3.152411E-03	1.003112E-04
7.367504E+03	3.126474E-03	9.948901E-05
7.377406E+03	3.101311E-03	9.869166E-05
7.387309E+03	3.077008E-03	9.792181E-05
7.397211E+03	3.053858E-03	9.718882E-05
7.407114E+03	3.032028E-03	9.649795E-05
7.417017E+03	3.011813E-03	9.585864E-05
7.426919E+03	2.993293E-03	9.527341E-05
7.436822E+03	2.976725E-03	9.475046E-05
7.446724E+03	2.962121E-03	9.429013E-05
7.456627E+03	2.949350E-03	9.388830E-05
7.466529E+03	2.938319E-03	9.354200E-05
7.476432E+03	2.928798E-03	9.324394E-05
7.486334E+03	2.920757E-03	9.299309E-05
7.496237E+03	2.913974E-03	9.278248E-05
7.506140E+03	2.908312E-03	9.260768E-05
7.516042E+03	2.903713E-03	9.246687E-05
7.525945E+03	2.900070E-03	9.235665E-05
7.535847E+03	2.897291E-03	9.227409E-05
7.545750E+03	2.895230E-03	9.221455E-05
7.555652E+03	2.893952E-03	9.218009E-05
7.565555E+03	2.893265E-03	9.216461E-05
7.575457E+03	2.893253E-03	9.217078E-05
7.585360E+03	2.893739E-03	9.219297E-05
7.595263E+03	2.894819E-03	9.223423E-05
7.605165E+03	2.896323E-03	9.228915E-05
7.615068E+03	2.898355E-03	9.236102E-05
7.624970E+03	2.900818E-03	9.244682E-05
7.634873E+03	2.903683E-03	9.254555E-05
7.644775E+03	2.906857E-03	9.265430E-05
7.654678E+03	2.910449E-03	9.277655E-05
7.664581E+03	2.914365E-03	9.290926E-05
7.674483E+03	2.918579E-03	9.305164E-05
7.684386E+03	2.923000E-03	9.320077E-05
