#wls	flux	fluxerr
1.584409E+03	4.681953E-03	6.838472E-04
1.624020E+03	4.796960E-03	6.991385E-04
1.663630E+03	4.910303E-03	7.140811E-04
1.703240E+03	5.023037E-03	7.288265E-04
1.742850E+03	5.133753E-03	7.431684E-04
1.782461E+03	5.241872E-03	7.570223E-04
1.822071E+03	5.347139E-03	7.703512E-04
1.861681E+03	5.448295E-03	7.829740E-04
1.901291E+03	5.544424E-03	7.947610E-04
1.940902E+03	5.634517E-03	8.055708E-04
1.980512E+03	5.716684E-03	8.151377E-04
2.020122E+03	5.790237E-03	8.233704E-04
2.059732E+03	5.852502E-03	8.298975E-04
2.099342E+03	5.901010E-03	8.343813E-04
2.138953E+03	5.933887E-03	8.365726E-04
2.178563E+03	5.948473E-03	8.361153E-04
2.218173E+03	5.941590E-03	8.325866E-04
2.257783E+03	5.913197E-03	8.260083E-04
2.297394E+03	5.862884E-03	8.163518E-04
2.337004E+03	5.792815E-03	8.039476E-04
2.376614E+03	5.705276E-03	7.891406E-04
2.416224E+03	5.602339E-03	7.722429E-04
2.455835E+03	5.486110E-03	7.535678E-04
2.495445E+03	5.357560E-03	7.332706E-04
2.535055E+03	5.218487E-03	7.116178E-04
2.574665E+03	5.069513E-03	6.887133E-04
2.614276E+03	4.911540E-03	6.646982E-04
2.653886E+03	4.745182E-03	6.396737E-04
2.693496E+03	4.571368E-03	6.137822E-04
2.733106E+03	4.390851E-03	5.871412E-04
2.772716E+03	4.204466E-03	5.598779E-04
2.812327E+03	4.013481E-03	5.321755E-04
2.851937E+03	3.819191E-03	5.042180E-04
2.891547E+03	3.623296E-03	4.762400E-04
2.931157E+03	3.427690E-03	4.484978E-04
2.970768E+03	3.234378E-03	4.212574E-04
2.980670E+03	3.186630E-03	4.145547E-04
2.990573E+03	3.139190E-03	4.079048E-04
3.000475E+03	3.092079E-03	4.013103E-04
3.010378E+03	3.045383E-03	3.947824E-04
3.020280E+03	2.999055E-03	3.883149E-04
3.030183E+03	2.953119E-03	3.819106E-04
3.040086E+03	2.907720E-03	3.755883E-04
3.049988E+03	2.862755E-03	3.693346E-04
3.059891E+03	2.818366E-03	3.631676E-04
3.069793E+03	2.774515E-03	3.570823E-04
3.079696E+03	2.731227E-03	3.510816E-04
3.089598E+03	2.688632E-03	3.451820E-04
3.099501E+03	2.646645E-03	3.393724E-04
3.109403E+03	2.605344E-03	3.336626E-04
3.119306E+03	2.564752E-03	3.280553E-04
3.129209E+03	2.524943E-03	3.225596E-04
3.139111E+03	2.485893E-03	3.171721E-04
3.149014E+03	2.447672E-03	3.119017E-04
3.158916E+03	2.410307E-03	3.067512E-04
3.168819E+03	2.373779E-03	3.017179E-04
3.178721E+03	2.338157E-03	2.968103E-04
3.188624E+03	2.303506E-03	2.920362E-04
3.198526E+03	2.269772E-03	2.873883E-04
3.208429E+03	2.237057E-03	2.828792E-04
3.218332E+03	2.205309E-03	2.785019E-04
3.228234E+03	2.174662E-03	2.742729E-04
3.238137E+03	2.145029E-03	2.701806E-04
3.248039E+03	2.116469E-03	2.662320E-04
3.257942E+03	2.089035E-03	2.624333E-04
3.267844E+03	2.062712E-03	2.587822E-04
3.277747E+03	2.037549E-03	2.552844E-04
3.287650E+03	2.013502E-03	2.519334E-04
3.297552E+03	1.990616E-03	2.487349E-04
3.307455E+03	1.968908E-03	2.456900E-04
3.317357E+03	1.948390E-03	2.427999E-04
3.327260E+03	1.929074E-03	2.400655E-04
3.337162E+03	1.910945E-03	2.374843E-04
3.347065E+03	1.894014E-03	2.350571E-04
3.356967E+03	1.878294E-03	2.327848E-04
3.366870E+03	1.863793E-03	2.306681E-04
3.376773E+03	1.850496E-03	2.287043E-04
3.386675E+03	1.838414E-03	2.268943E-04
3.396578E+03	1.827556E-03	2.252384E-04
3.406480E+03	1.817906E-03	2.237344E-04
3.416383E+03	1.809476E-03	2.223827E-04
3.426285E+03	1.802272E-03	2.211839E-04
3.436188E+03	1.796260E-03	2.201329E-04
3.446090E+03	1.791472E-03	2.192330E-04
3.455993E+03	1.787895E-03	2.184820E-04
3.465896E+03	1.785516E-03	2.178779E-04
3.475798E+03	1.784346E-03	2.174212E-04
3.485701E+03	1.784351E-03	2.171073E-04
3.495603E+03	1.785543E-03	2.169369E-04
3.505506E+03	1.787910E-03	2.169080E-04
3.515408E+03	1.791443E-03	2.170188E-04
3.525311E+03	1.796130E-03	2.172675E-04
3.535213E+03	1.801963E-03	2.176522E-04
3.545116E+03	1.808911E-03	2.181687E-04
3.555019E+03	1.816983E-03	2.188176E-04
3.564921E+03	1.826149E-03	2.195946E-04
3.574824E+03	1.836418E-03	2.205001E-04
3.584726E+03	1.847738E-03	2.215274E-04
3.594629E+03	1.860136E-03	2.226791E-04
3.604531E+03	1.873539E-03	2.239460E-04
3.614434E+03	1.887952E-03	2.253281E-04
3.624337E+03	1.903340E-03	2.268206E-04
3.634239E+03	1.919703E-03	2.284231E-04
3.644142E+03	1.936984E-03	2.301282E-04
3.654044E+03	1.955179E-03	2.319351E-04
3.663947E+03	1.974246E-03	2.338381E-04
3.673849E+03	1.994177E-03	2.358359E-04
3.683752E+03	2.014925E-03	2.379225E-04
3.693654E+03	2.036496E-03	2.400982E-04
3.703557E+03	2.058819E-03	2.423540E-04
3.713460E+03	2.081895E-03	2.446898E-04
3.723362E+03	2.105684E-03	2.471005E-04
3.733265E+03	2.130164E-03	2.495830E-04
3.743167E+03	2.155290E-03	2.521319E-04
3.753070E+03	2.181053E-03	2.547455E-04
3.762972E+03	2.207382E-03	2.574155E-04
3.772875E+03	2.234264E-03	2.601398E-04
3.782777E+03	2.261662E-03	2.629139E-04
3.792680E+03	2.289537E-03	2.657332E-04
3.802583E+03	2.317849E-03	2.685925E-04
3.812485E+03	2.346532E-03	2.714842E-04
3.822388E+03	2.375583E-03	2.744076E-04
3.832290E+03	2.404955E-03	2.773571E-04
3.842193E+03	2.434575E-03	2.803243E-04
3.852095E+03	2.464414E-03	2.833056E-04
3.861998E+03	2.494419E-03	2.862949E-04
3.871900E+03	2.524557E-03	2.892883E-04
3.881803E+03	2.554751E-03	2.922769E-04
3.891706E+03	2.584987E-03	2.952592E-04
3.901608E+03	2.615187E-03	2.982263E-04
3.911511E+03	2.645337E-03	3.011767E-04
3.921413E+03	2.675356E-03	3.041011E-04
3.931316E+03	2.705186E-03	3.069933E-04
3.941218E+03	2.734814E-03	3.098517E-04
3.951121E+03	2.764160E-03	3.126674E-04
3.961024E+03	2.793188E-03	3.154368E-04
3.970926E+03	2.821842E-03	3.181536E-04
3.980829E+03	2.850089E-03	3.208144E-04
3.990731E+03	2.877875E-03	3.234135E-04
4.000634E+03	2.905148E-03	3.259451E-04
4.010536E+03	2.931877E-03	3.284063E-04
4.020439E+03	2.958040E-03	3.307949E-04
4.030341E+03	2.983537E-03	3.331003E-04
4.040244E+03	3.008398E-03	3.353259E-04
4.050147E+03	3.032527E-03	3.374618E-04
4.060049E+03	3.055933E-03	3.395093E-04
4.069952E+03	3.078551E-03	3.414615E-04
4.079854E+03	3.100368E-03	3.433177E-04
4.089757E+03	3.121347E-03	3.450742E-04
4.099659E+03	3.141456E-03	3.467279E-04
4.109562E+03	3.160660E-03	3.482757E-04
4.119464E+03	3.178929E-03	3.497148E-04
4.129367E+03	3.196259E-03	3.510454E-04
4.139270E+03	3.212623E-03	3.522648E-04
4.149172E+03	3.227964E-03	3.533677E-04
4.159075E+03	3.242256E-03	3.543516E-04
4.168977E+03	3.255469E-03	3.552141E-04
4.178880E+03	3.267600E-03	3.559555E-04
4.188782E+03	3.278591E-03	3.565700E-04
4.198685E+03	3.288409E-03	3.570548E-04
4.208587E+03	3.296991E-03	3.574038E-04
4.218490E+03	3.304323E-03	3.576161E-04
4.228393E+03	3.310333E-03	3.576848E-04
4.238295E+03	3.314972E-03	3.576051E-04
4.248198E+03	3.318183E-03	3.573720E-04
4.258100E+03	3.319849E-03	3.569735E-04
4.268003E+03	3.319956E-03	3.564091E-04
4.277905E+03	3.318373E-03	3.556655E-04
4.287808E+03	3.315017E-03	3.547348E-04
4.297711E+03	3.309773E-03	3.536059E-04
4.307613E+03	3.302607E-03	3.522759E-04
4.317516E+03	3.293348E-03	3.507277E-04
4.327418E+03	3.281968E-03	3.489596E-04
4.337321E+03	3.268402E-03	3.469656E-04
4.347223E+03	3.252635E-03	3.447453E-04
4.357126E+03	3.234792E-03	3.423129E-04
4.367028E+03	3.215070E-03	3.396905E-04
4.376931E+03	3.193742E-03	3.369074E-04
4.386834E+03	3.170977E-03	3.339823E-04
4.396736E+03	3.147051E-03	3.309448E-04
4.406639E+03	3.122150E-03	3.278150E-04
4.416541E+03	3.096479E-03	3.246148E-04
4.426444E+03	3.070282E-03	3.213700E-04
4.436346E+03	3.043656E-03	3.180909E-04
4.446249E+03	3.016844E-03	3.148031E-04
4.456151E+03	2.989915E-03	3.115137E-04
4.466054E+03	2.963059E-03	3.082425E-04
4.475957E+03	2.936375E-03	3.049995E-04
4.485859E+03	2.909974E-03	3.017964E-04
4.495762E+03	2.883960E-03	2.986435E-04
4.505664E+03	2.858375E-03	2.955451E-04
4.515567E+03	2.833356E-03	2.925147E-04
4.525469E+03	2.808928E-03	2.895551E-04
4.535372E+03	2.785163E-03	2.866729E-04
4.545274E+03	2.762124E-03	2.838744E-04
4.555177E+03	2.739871E-03	2.811654E-04
4.565080E+03	2.718430E-03	2.785481E-04
4.574982E+03	2.697826E-03	2.760246E-04
4.584885E+03	2.678102E-03	2.735990E-04
4.594787E+03	2.659299E-03	2.712748E-04
4.604690E+03	2.641451E-03	2.690552E-04
4.614592E+03	2.624542E-03	2.669380E-04
4.624495E+03	2.608623E-03	2.649280E-04
4.634398E+03	2.593696E-03	2.630249E-04
4.644300E+03	2.579756E-03	2.612277E-04
4.654203E+03	2.566823E-03	2.595378E-04
4.664105E+03	2.554886E-03	2.579539E-04
4.674008E+03	2.543934E-03	2.564741E-04
4.683910E+03	2.533956E-03	2.550970E-04
4.693813E+03	2.524948E-03	2.538217E-04
4.703715E+03	2.516903E-03	2.526471E-04
4.713618E+03	2.509815E-03	2.515719E-04
4.723521E+03	2.503672E-03	2.505947E-04
4.733423E+03	2.498436E-03	2.497110E-04
4.743326E+03	2.494116E-03	2.489216E-04
4.753228E+03	2.490645E-03	2.482192E-04
4.763131E+03	2.488053E-03	2.476063E-04
4.773033E+03	2.486268E-03	2.470755E-04
4.782936E+03	2.485292E-03	2.466266E-04
4.792838E+03	2.485100E-03	2.462567E-04
4.802741E+03	2.485618E-03	2.459581E-04
4.812644E+03	2.486866E-03	2.457327E-04
4.822546E+03	2.488794E-03	2.455749E-04
4.832449E+03	2.491397E-03	2.454841E-04
4.842351E+03	2.494574E-03	2.454500E-04
4.852254E+03	2.498369E-03	2.454767E-04
4.862156E+03	2.502705E-03	2.455564E-04
4.872059E+03	2.507577E-03	2.456883E-04
4.881961E+03	2.512932E-03	2.458669E-04
4.891864E+03	2.518765E-03	2.460918E-04
4.901767E+03	2.524999E-03	2.463551E-04
4.911669E+03	2.531632E-03	2.466562E-04
4.921572E+03	2.538659E-03	2.469949E-04
4.931474E+03	2.546005E-03	2.473634E-04
4.941377E+03	2.553642E-03	2.477590E-04
4.951279E+03	2.561569E-03	2.481815E-04
4.961182E+03	2.569762E-03	2.486283E-04
4.971085E+03	2.578141E-03	2.490918E-04
4.980987E+03	2.586709E-03	2.495719E-04
4.990890E+03	2.595439E-03	2.500662E-04
5.000792E+03	2.604305E-03	2.505720E-04
5.010695E+03	2.613256E-03	2.510844E-04
5.020597E+03	2.622266E-03	2.516008E-04
5.030500E+03	2.631334E-03	2.521212E-04
5.040402E+03	2.640378E-03	2.526377E-04
5.050305E+03	2.649397E-03	2.531501E-04
5.060208E+03	2.658335E-03	2.536531E-04
5.070110E+03	2.667158E-03	2.541436E-04
5.080013E+03	2.675833E-03	2.546185E-04
5.089915E+03	2.684325E-03	2.550745E-04
5.099818E+03	2.692569E-03	2.555056E-04
5.109720E+03	2.700553E-03	2.559106E-04
5.119623E+03	2.708179E-03	2.562805E-04
5.129525E+03	2.715431E-03	2.566138E-04
5.139428E+03	2.722234E-03	2.569037E-04
5.149331E+03	2.728539E-03	2.571456E-04
5.159233E+03	2.734294E-03	2.573350E-04
5.169136E+03	2.739444E-03	2.574669E-04
5.179038E+03	2.743880E-03	2.575313E-04
5.188941E+03	2.747598E-03	2.575282E-04
5.198843E+03	2.750459E-03	2.574447E-04
5.208746E+03	2.752459E-03	2.572809E-04
5.218648E+03	2.753484E-03	2.570264E-04
5.228551E+03	2.753503E-03	2.566789E-04
5.238454E+03	2.752433E-03	2.562308E-04
5.248356E+03	2.750192E-03	2.556752E-04
5.258259E+03	2.746758E-03	2.550103E-04
5.268161E+03	2.742029E-03	2.542271E-04
5.278064E+03	2.735991E-03	2.533250E-04
5.287966E+03	2.728583E-03	2.522986E-04
5.297869E+03	2.719749E-03	2.511435E-04
5.307772E+03	2.709470E-03	2.498583E-04
5.317674E+03	2.697734E-03	2.484427E-04
5.327577E+03	2.684540E-03	2.468969E-04
5.337479E+03	2.669844E-03	2.452175E-04
5.347382E+03	2.653692E-03	2.434092E-04
5.357284E+03	2.636087E-03	2.414730E-04
5.367187E+03	2.617099E-03	2.394156E-04
5.377089E+03	2.596726E-03	2.372376E-04
5.386992E+03	2.575111E-03	2.349524E-04
5.396895E+03	2.552352E-03	2.325694E-04
5.406797E+03	2.528683E-03	2.301102E-04
5.416700E+03	2.504142E-03	2.275786E-04
5.426602E+03	2.478653E-03	2.249682E-04
5.436505E+03	2.452206E-03	2.222782E-04
5.446407E+03	2.424891E-03	2.195169E-04
5.456310E+03	2.396943E-03	2.167061E-04
5.466212E+03	2.368486E-03	2.138569E-04
5.476115E+03	2.339785E-03	2.109934E-04
5.486018E+03	2.310983E-03	2.081285E-04
5.495920E+03	2.282286E-03	2.052808E-04
5.505823E+03	2.253890E-03	2.024678E-04
5.515725E+03	2.225981E-03	1.997059E-04
5.525628E+03	2.198686E-03	1.970064E-04
5.535530E+03	2.172164E-03	1.943832E-04
5.545433E+03	2.146560E-03	1.918489E-04
5.555335E+03	2.121981E-03	1.894129E-04
5.565238E+03	2.098521E-03	1.870830E-04
5.575141E+03	2.076300E-03	1.848695E-04
5.585043E+03	2.055359E-03	1.827757E-04
5.594946E+03	2.035769E-03	1.808074E-04
5.604848E+03	2.017564E-03	1.789670E-04
5.614751E+03	2.000786E-03	1.772579E-04
5.624653E+03	1.985444E-03	1.756803E-04
5.634556E+03	1.971534E-03	1.742335E-04
5.644459E+03	1.959066E-03	1.729178E-04
5.654361E+03	1.948037E-03	1.717324E-04
5.664264E+03	1.938397E-03	1.706724E-04
5.674166E+03	1.930129E-03	1.697360E-04
5.684069E+03	1.923192E-03	1.689191E-04
5.693971E+03	1.917538E-03	1.682170E-04
5.703874E+03	1.913161E-03	1.676287E-04
5.713776E+03	1.909967E-03	1.671456E-04
5.723679E+03	1.907945E-03	1.667664E-04
5.733582E+03	1.907022E-03	1.664845E-04
5.743484E+03	1.907167E-03	1.662966E-04
5.753387E+03	1.908329E-03	1.661981E-04
5.763289E+03	1.910461E-03	1.661845E-04
5.773192E+03	1.913536E-03	1.662532E-04
5.783094E+03	1.917489E-03	1.663983E-04
5.792997E+03	1.922300E-03	1.666178E-04
5.802899E+03	1.927932E-03	1.669082E-04
5.812802E+03	1.934325E-03	1.672642E-04
5.822705E+03	1.941491E-03	1.676865E-04
5.832607E+03	1.949357E-03	1.681687E-04
5.842510E+03	1.957937E-03	1.687117E-04
5.852412E+03	1.967185E-03	1.693115E-04
5.862315E+03	1.977077E-03	1.699658E-04
5.872217E+03	1.987616E-03	1.706746E-04
5.882120E+03	1.998736E-03	1.714323E-04
5.892022E+03	2.010444E-03	1.722392E-04
5.901925E+03	2.022744E-03	1.730956E-04
5.911828E+03	2.035578E-03	1.739963E-04
5.921730E+03	2.048952E-03	1.749419E-04
5.931633E+03	2.062855E-03	1.759311E-04
5.941535E+03	2.077250E-03	1.769608E-04
5.951438E+03	2.092125E-03	1.780298E-04
5.961340E+03	2.107465E-03	1.791370E-04
5.971243E+03	2.123235E-03	1.802790E-04
5.981146E+03	2.139419E-03	1.814546E-04
5.991048E+03	2.156028E-03	1.826646E-04
6.000951E+03	2.172969E-03	1.839012E-04
6.010853E+03	2.190274E-03	1.851670E-04
6.020756E+03	2.207844E-03	1.864535E-04
6.030658E+03	2.225704E-03	1.877629E-04
6.040561E+03	2.243744E-03	1.890861E-04
6.050463E+03	2.261956E-03	1.904222E-04
6.060366E+03	2.280243E-03	1.917632E-04
6.070269E+03	2.298583E-03	1.931074E-04
6.080171E+03	2.316866E-03	1.944455E-04
6.090074E+03	2.334999E-03	1.957697E-04
6.099976E+03	2.352939E-03	1.970768E-04
6.109879E+03	2.370551E-03	1.983556E-04
6.119781E+03	2.387782E-03	1.996016E-04
6.129684E+03	2.404548E-03	2.008082E-04
6.139586E+03	2.420802E-03	2.019717E-04
6.149489E+03	2.436564E-03	2.030938E-04
6.159392E+03	2.451920E-03	2.041820E-04
6.169294E+03	2.466896E-03	2.052387E-04
6.179197E+03	2.481549E-03	2.062687E-04
6.189099E+03	2.495930E-03	2.072764E-04
6.199002E+03	2.510155E-03	2.082715E-04
6.208904E+03	2.524204E-03	2.092524E-04
6.218807E+03	2.538119E-03	2.102226E-04
6.228709E+03	2.551970E-03	2.111878E-04
6.238612E+03	2.565794E-03	2.121510E-04
6.248515E+03	2.579587E-03	2.131120E-04
6.258417E+03	2.593342E-03	2.140701E-04
6.268320E+03	2.607119E-03	2.150303E-04
6.278222E+03	2.620870E-03	2.159886E-04
6.288125E+03	2.634614E-03	2.169465E-04
6.298027E+03	2.648334E-03	2.179025E-04
6.307930E+03	2.662005E-03	2.188547E-04
6.317833E+03	2.675609E-03	2.198014E-04
6.327735E+03	2.689116E-03	2.207403E-04
6.337638E+03	2.702497E-03	2.216689E-04
6.347540E+03	2.715690E-03	2.225821E-04
6.357443E+03	2.728696E-03	2.234800E-04
6.367345E+03	2.741489E-03	2.243605E-04
6.377248E+03	2.754072E-03	2.252239E-04
6.387150E+03	2.766461E-03	2.260714E-04
6.397053E+03	2.778583E-03	2.268972E-04
6.406956E+03	2.790492E-03	2.277054E-04
6.416858E+03	2.802157E-03	2.284939E-04
6.426761E+03	2.813600E-03	2.292641E-04
6.436663E+03	2.824754E-03	2.300109E-04
6.446566E+03	2.835679E-03	2.307390E-04
6.456468E+03	2.846318E-03	2.314437E-04
6.466371E+03	2.856691E-03	2.321268E-04
6.476273E+03	2.866740E-03	2.327836E-04
6.486176E+03	2.876495E-03	2.334165E-04
6.496079E+03	2.885991E-03	2.340284E-04
6.505981E+03	2.895123E-03	2.346107E-04
6.515884E+03	2.903931E-03	2.351667E-04
6.525786E+03	2.912451E-03	2.356995E-04
6.535689E+03	2.920585E-03	2.362011E-04
6.545591E+03	2.928422E-03	2.366786E-04
6.555494E+03	2.935862E-03	2.371241E-04
6.565396E+03	2.942998E-03	2.375451E-04
6.575299E+03	2.949732E-03	2.379337E-04
6.585202E+03	2.956107E-03	2.382934E-04
6.595104E+03	2.962123E-03	2.386244E-04
6.605007E+03	2.967730E-03	2.389224E-04
6.614909E+03	2.972969E-03	2.391911E-04
6.624812E+03	2.977796E-03	2.394267E-04
6.634714E+03	2.982206E-03	2.396291E-04
6.644617E+03	2.986246E-03	2.398019E-04
6.654520E+03	2.989866E-03	2.399413E-04
6.664422E+03	2.993012E-03	2.400431E-04
6.674325E+03	2.995787E-03	2.401153E-04
6.684227E+03	2.998085E-03	2.401497E-04
6.694130E+03	2.999960E-03	2.401507E-04
6.704032E+03	3.001410E-03	2.401181E-04
6.713935E+03	3.002380E-03	2.400476E-04
6.723837E+03	3.002874E-03	2.399397E-04
6.733740E+03	3.002891E-03	2.397942E-04
6.743643E+03	3.002485E-03	2.396156E-04
6.753545E+03	3.001605E-03	2.394000E-04
6.763448E+03	3.000199E-03	2.391431E-04
6.773350E+03	2.998324E-03	2.388497E-04
6.783253E+03	2.995980E-03	2.385199E-04
6.793155E+03	2.993178E-03	2.381546E-04
6.803058E+03	2.989861E-03	2.377493E-04
6.812960E+03	2.986036E-03	2.373047E-04
6.822863E+03	2.981768E-03	2.368261E-04
6.832766E+03	2.977004E-03	2.363093E-04
6.842668E+03	2.971755E-03	2.357553E-04
6.852571E+03	2.966029E-03	2.351649E-04
6.862473E+03	2.959835E-03	2.345387E-04
6.872376E+03	2.953182E-03	2.338778E-04
6.882278E+03	2.946084E-03	2.331832E-04
6.892181E+03	2.938499E-03	2.324516E-04
6.902083E+03	2.930437E-03	2.316841E-04
6.911986E+03	2.921972E-03	2.308865E-04
6.921889E+03	2.913116E-03	2.300600E-04
6.931791E+03	2.903777E-03	2.291973E-04
6.941694E+03	2.894085E-03	2.283086E-04
6.951596E+03	2.884003E-03	2.273913E-04
6.961499E+03	2.873552E-03	2.264472E-04
6.971401E+03	2.862695E-03	2.254732E-04
6.981304E+03	2.851513E-03	2.244760E-04
6.991207E+03	2.840030E-03	2.234575E-04
7.001109E+03	2.828271E-03	2.224197E-04
7.011012E+03	2.816207E-03	2.213604E-04
7.020914E+03	2.803863E-03	2.202817E-04
7.030817E+03	2.791325E-03	2.191904E-04
7.040719E+03	2.778568E-03	2.180846E-04
7.050622E+03	2.765562E-03	2.169620E-04
7.060524E+03	2.752453E-03	2.158341E-04
7.070427E+03	2.739215E-03	2.146991E-04
7.080330E+03	2.725884E-03	2.135596E-04
7.090232E+03	2.712437E-03	2.124139E-04
7.100135E+03	2.698961E-03	2.112691E-04
7.110037E+03	2.685492E-03	2.101278E-04
7.119940E+03	2.672006E-03	2.089884E-04
7.129842E+03	2.658544E-03	2.078540E-04
7.139745E+03	2.645189E-03	2.067311E-04
7.149647E+03	2.631922E-03	2.056183E-04
7.159550E+03	2.618774E-03	2.045181E-04
7.169453E+03	2.605776E-03	2.034329E-04
7.179355E+03	2.592959E-03	2.023652E-04
7.189258E+03	2.580294E-03	2.013127E-04
7.199160E+03	2.567919E-03	2.002863E-04
7.209063E+03	2.555799E-03	1.992831E-04
7.218965E+03	2.543848E-03	1.982967E-04
7.228868E+03	2.532244E-03	1.973407E-04
7.238770E+03	2.520844E-03	1.964042E-04
7.248673E+03	2.509763E-03	1.954962E-04
7.258576E+03	2.498957E-03	1.946131E-04
7.268478E+03	2.488430E-03	1.937555E-04
7.278381E+03	2.478130E-03	1.929192E-04
7.288283E+03	2.468053E-03	1.921040E-04
7.298186E+03	2.458194E-03	1.913095E-04
7.308088E+03	2.448539E-03	1.905347E-04
7.317991E+03	2.438969E-03	1.897704E-04
7.327894E+03	2.429514E-03	1.890190E-04
7.337796E+03	2.420044E-03	1.882703E-04
7.347699E+03	2.410474E-03	1.875178E-04
7.357601E+03	2.400714E-03	1.867546E-04
7.367504E+03	2.390772E-03	1.859813E-04
7.377406E+03	2.380597E-03	1.851940E-04
7.387309E+03	2.370234E-03	1.843963E-04
7.397211E+03	2.359725E-03	1.835913E-04
7.407114E+03	2.348947E-03	1.827694E-04
7.417017E+03	2.337879E-03	1.819289E-04
7.426919E+03	2.326553E-03	1.810721E-04
7.436822E+03	2.314797E-03	1.801855E-04
7.446724E+03	2.302721E-03	1.792774E-04
7.456627E+03	2.290428E-03	1.783558E-04
7.466529E+03	2.278028E-03	1.774289E-04
7.476432E+03	2.265625E-03	1.765049E-04
7.486334E+03	2.253319E-03	1.755914E-04
7.496237E+03	2.241251E-03	1.746991E-04
7.506140E+03	2.229448E-03	1.738303E-04
7.516042E+03	2.218030E-03	1.729940E-04
7.525945E+03	2.207003E-03	1.721906E-04
7.535847E+03	2.196466E-03	1.714279E-04
7.545750E+03	2.186458E-03	1.707086E-04
7.555652E+03	2.176955E-03	1.700311E-04
7.565555E+03	2.168031E-03	1.694009E-04
7.575457E+03	2.159701E-03	1.688191E-04
7.585360E+03	2.151922E-03	1.682824E-04
7.595263E+03	2.144748E-03	1.677950E-04
7.605165E+03	2.138127E-03	1.673527E-04
7.615068E+03	2.132155E-03	1.669631E-04
7.624970E+03	2.126722E-03	1.666175E-04
7.634873E+03	2.121867E-03	1.663188E-04
7.644775E+03	2.117524E-03	1.660622E-04
7.654678E+03	2.113728E-03	1.658501E-04
7.664581E+03	2.110461E-03	1.656812E-04
7.674483E+03	2.107704E-03	1.655541E-04
7.684386E+03	2.105387E-03	1.654632E-04
