#wls	flux	fluxerr
1.584409E+03	5.194534E-03	1.264993E-03
1.624020E+03	5.345459E-03	1.301724E-03
1.663630E+03	5.486540E-03	1.336054E-03
1.703240E+03	5.616694E-03	1.367721E-03
1.742850E+03	5.732533E-03	1.395898E-03
1.782461E+03	5.833827E-03	1.420531E-03
1.822071E+03	5.917072E-03	1.440765E-03
1.861681E+03	5.981395E-03	1.456389E-03
1.901291E+03	6.024878E-03	1.466935E-03
1.940902E+03	6.044722E-03	1.471722E-03
1.980512E+03	6.040267E-03	1.470591E-03
2.020122E+03	6.009622E-03	1.463081E-03
2.059732E+03	5.951298E-03	1.448830E-03
2.099342E+03	5.864270E-03	1.427589E-03
2.138953E+03	5.747350E-03	1.399071E-03
2.178563E+03	5.598797E-03	1.362852E-03
2.218173E+03	5.417182E-03	1.318585E-03
2.257783E+03	5.203539E-03	1.266524E-03
2.297394E+03	4.962252E-03	1.207736E-03
2.337004E+03	4.700685E-03	1.144016E-03
2.376614E+03	4.424724E-03	1.076796E-03
2.416224E+03	4.139680E-03	1.007371E-03
2.455835E+03	3.849404E-03	9.366782E-04
2.495445E+03	3.557895E-03	8.656911E-04
2.535055E+03	3.268376E-03	7.951944E-04
2.574665E+03	2.984126E-03	7.259870E-04
2.614276E+03	2.707772E-03	6.587075E-04
2.653886E+03	2.441724E-03	5.939426E-04
2.693496E+03	2.188117E-03	5.322116E-04
2.733106E+03	1.948565E-03	4.739070E-04
2.772716E+03	1.724430E-03	4.193595E-04
2.812327E+03	1.516705E-03	3.688106E-04
2.851937E+03	1.326129E-03	3.224388E-04
2.891547E+03	1.153146E-03	2.803519E-04
2.931157E+03	9.978265E-04	2.425662E-04
2.970768E+03	8.598896E-04	2.090123E-04
2.980670E+03	8.280499E-04	2.012676E-04
2.990573E+03	7.972269E-04	1.937704E-04
3.000475E+03	7.674362E-04	1.865244E-04
3.010378E+03	7.386211E-04	1.795160E-04
3.020280E+03	7.107936E-04	1.727478E-04
3.030183E+03	6.839302E-04	1.662143E-04
3.040086E+03	6.580212E-04	1.599131E-04
3.049988E+03	6.330149E-04	1.538315E-04
3.059891E+03	6.089285E-04	1.479739E-04
3.069793E+03	5.857115E-04	1.423277E-04
3.079696E+03	5.633642E-04	1.368932E-04
3.089598E+03	5.418615E-04	1.316642E-04
3.099501E+03	5.211684E-04	1.266322E-04
3.109403E+03	5.012816E-04	1.217964E-04
3.119306E+03	4.821669E-04	1.171485E-04
3.129209E+03	4.638100E-04	1.126848E-04
3.139111E+03	4.461870E-04	1.083998E-04
3.149014E+03	4.292747E-04	1.042876E-04
3.158916E+03	4.130578E-04	1.003447E-04
3.168819E+03	3.975136E-04	9.656530E-05
3.178721E+03	3.826129E-04	9.294250E-05
3.188624E+03	3.683479E-04	8.947431E-05
3.198526E+03	3.546901E-04	8.615381E-05
3.208429E+03	3.416249E-04	8.297747E-05
3.218332E+03	3.291315E-04	7.994018E-05
3.228234E+03	3.171849E-04	7.703586E-05
3.238137E+03	3.057749E-04	7.426207E-05
3.248039E+03	2.948732E-04	7.161187E-05
3.257942E+03	2.844697E-04	6.908285E-05
3.267844E+03	2.745457E-04	6.667041E-05
3.277747E+03	2.650746E-04	6.436810E-05
3.287650E+03	2.560471E-04	6.217364E-05
3.297552E+03	2.474453E-04	6.008272E-05
3.307455E+03	2.392489E-04	5.809034E-05
3.317357E+03	2.314416E-04	5.619256E-05
3.327260E+03	2.240077E-04	5.438557E-05
3.337162E+03	2.169319E-04	5.266564E-05
3.347065E+03	2.101995E-04	5.102918E-05
3.356967E+03	2.037960E-04	4.947268E-05
3.366870E+03	1.977051E-04	4.799217E-05
3.376773E+03	1.919113E-04	4.658386E-05
3.386675E+03	1.864069E-04	4.524591E-05
3.396578E+03	1.811728E-04	4.397364E-05
3.406480E+03	1.761998E-04	4.276486E-05
3.416383E+03	1.714750E-04	4.161638E-05
3.426285E+03	1.669879E-04	4.052567E-05
3.436188E+03	1.627248E-04	3.948938E-05
3.446090E+03	1.586746E-04	3.850483E-05
3.455993E+03	1.548287E-04	3.756995E-05
3.465896E+03	1.511756E-04	3.668189E-05
3.475798E+03	1.477076E-04	3.583881E-05
3.485701E+03	1.444111E-04	3.503741E-05
3.495603E+03	1.412798E-04	3.427614E-05
3.505506E+03	1.383031E-04	3.355245E-05
3.515408E+03	1.354728E-04	3.286431E-05
3.525311E+03	1.327811E-04	3.220983E-05
3.535213E+03	1.302181E-04	3.158662E-05
3.545116E+03	1.277798E-04	3.099370E-05
3.555019E+03	1.254585E-04	3.042922E-05
3.564921E+03	1.232472E-04	2.989144E-05
3.574824E+03	1.211427E-04	2.937961E-05
3.584726E+03	1.191375E-04	2.889190E-05
3.594629E+03	1.172268E-04	2.842713E-05
3.604531E+03	1.154059E-04	2.798417E-05
3.614434E+03	1.136705E-04	2.756198E-05
3.624337E+03	1.120165E-04	2.715954E-05
3.634239E+03	1.104399E-04	2.677593E-05
3.644142E+03	1.089381E-04	2.641045E-05
3.654044E+03	1.075084E-04	2.606248E-05
3.663947E+03	1.061472E-04	2.573115E-05
3.673849E+03	1.048549E-04	2.541652E-05
3.683752E+03	1.036270E-04	2.511754E-05
3.693654E+03	1.024629E-04	2.483404E-05
3.703557E+03	1.013602E-04	2.456544E-05
3.713460E+03	1.003174E-04	2.431137E-05
3.723362E+03	9.933457E-05	2.407185E-05
3.733265E+03	9.840769E-05	2.384591E-05
3.743167E+03	9.753688E-05	2.363356E-05
3.753070E+03	9.672138E-05	2.343463E-05
3.762972E+03	9.595808E-05	2.324835E-05
3.772875E+03	9.524703E-05	2.307474E-05
3.782777E+03	9.458749E-05	2.291362E-05
3.792680E+03	9.397717E-05	2.276443E-05
3.802583E+03	9.341461E-05	2.262681E-05
3.812485E+03	9.290056E-05	2.250094E-05
3.822388E+03	9.243205E-05	2.238611E-05
3.832290E+03	9.200917E-05	2.228233E-05
3.842193E+03	9.163046E-05	2.218925E-05
3.852095E+03	9.129524E-05	2.210670E-05
3.861998E+03	9.100286E-05	2.203452E-05
3.871900E+03	9.075123E-05	2.197220E-05
3.881803E+03	9.053974E-05	2.191960E-05
3.891706E+03	9.036851E-05	2.187673E-05
3.901608E+03	9.023620E-05	2.184329E-05
3.911511E+03	9.014159E-05	2.181896E-05
3.921413E+03	9.008410E-05	2.180360E-05
3.931316E+03	9.006252E-05	2.179692E-05
3.941218E+03	9.007636E-05	2.179881E-05
3.951121E+03	9.012515E-05	2.180914E-05
3.961024E+03	9.020840E-05	2.182779E-05
3.970926E+03	9.032432E-05	2.185433E-05
3.980829E+03	9.047249E-05	2.188866E-05
3.990731E+03	9.065253E-05	2.193068E-05
4.000634E+03	9.086411E-05	2.198031E-05
4.010536E+03	9.110618E-05	2.203729E-05
4.020439E+03	9.137775E-05	2.210139E-05
4.030341E+03	9.167851E-05	2.217253E-05
4.040244E+03	9.200751E-05	2.225047E-05
4.050147E+03	9.236450E-05	2.233515E-05
4.060049E+03	9.274856E-05	2.242635E-05
4.069952E+03	9.315946E-05	2.252402E-05
4.079854E+03	9.359631E-05	2.262793E-05
4.089757E+03	9.405824E-05	2.273787E-05
4.099659E+03	9.454506E-05	2.285379E-05
4.109562E+03	9.505592E-05	2.297550E-05
4.119464E+03	9.559071E-05	2.310295E-05
4.129367E+03	9.614783E-05	2.323576E-05
4.139270E+03	9.672719E-05	2.337392E-05
4.149172E+03	9.732723E-05	2.351703E-05
4.159075E+03	9.794861E-05	2.366526E-05
4.168977E+03	9.858977E-05	2.381822E-05
4.178880E+03	9.925067E-05	2.397592E-05
4.188782E+03	9.992895E-05	2.413777E-05
4.198685E+03	1.006253E-04	2.430394E-05
4.208587E+03	1.013374E-04	2.447387E-05
4.218490E+03	1.020660E-04	2.464774E-05
4.228393E+03	1.028087E-04	2.482495E-05
4.238295E+03	1.035637E-04	2.500511E-05
4.248198E+03	1.043320E-04	2.518840E-05
4.258100E+03	1.051100E-04	2.537403E-05
4.268003E+03	1.058988E-04	2.556216E-05
4.277905E+03	1.066948E-04	2.575201E-05
4.287808E+03	1.074988E-04	2.594372E-05
4.297711E+03	1.083090E-04	2.613690E-05
4.307613E+03	1.091238E-04	2.633111E-05
4.317516E+03	1.099430E-04	2.652632E-05
4.327418E+03	1.107656E-04	2.672231E-05
4.337321E+03	1.115925E-04	2.691928E-05
4.347223E+03	1.124218E-04	2.711678E-05
4.357126E+03	1.132554E-04	2.731525E-05
4.367028E+03	1.140933E-04	2.751468E-05
4.376931E+03	1.149355E-04	2.771511E-05
4.386834E+03	1.157821E-04	2.791654E-05
4.396736E+03	1.166343E-04	2.811924E-05
4.406639E+03	1.174911E-04	2.832300E-05
4.416541E+03	1.183538E-04	2.852811E-05
4.426444E+03	1.192225E-04	2.873462E-05
4.436346E+03	1.200976E-04	2.894258E-05
4.446249E+03	1.209782E-04	2.915181E-05
4.456151E+03	1.218646E-04	2.936238E-05
4.466054E+03	1.227561E-04	2.957410E-05
4.475957E+03	1.236540E-04	2.978731E-05
4.485859E+03	1.245566E-04	3.000155E-05
4.495762E+03	1.254641E-04	3.021692E-05
4.505664E+03	1.263768E-04	3.043349E-05
4.515567E+03	1.272931E-04	3.065082E-05
4.525469E+03	1.282143E-04	3.086926E-05
4.535372E+03	1.291386E-04	3.108839E-05
4.545274E+03	1.300665E-04	3.130829E-05
4.555177E+03	1.309961E-04	3.152854E-05
4.565080E+03	1.319291E-04	3.174952E-05
4.574982E+03	1.328648E-04	3.197109E-05
4.584885E+03	1.338016E-04	3.219282E-05
4.594787E+03	1.347399E-04	3.241486E-05
4.604690E+03	1.356806E-04	3.263737E-05
4.614592E+03	1.366231E-04	3.286023E-05
4.624495E+03	1.375657E-04	3.308305E-05
4.634398E+03	1.385118E-04	3.330661E-05
4.644300E+03	1.394622E-04	3.353113E-05
4.654203E+03	1.404155E-04	3.375626E-05
4.664105E+03	1.413727E-04	3.398224E-05
4.674008E+03	1.423350E-04	3.420935E-05
4.683910E+03	1.432996E-04	3.443694E-05
4.693813E+03	1.442678E-04	3.466528E-05
4.703715E+03	1.452381E-04	3.489406E-05
4.713618E+03	1.462119E-04	3.512357E-05
4.723521E+03	1.471891E-04	3.535382E-05
4.733423E+03	1.481684E-04	3.558448E-05
4.743326E+03	1.491513E-04	3.581588E-05
4.753228E+03	1.501363E-04	3.604772E-05
4.763131E+03	1.511250E-04	3.628035E-05
4.773033E+03	1.521161E-04	3.651345E-05
4.782936E+03	1.531098E-04	3.674705E-05
4.792838E+03	1.541060E-04	3.698118E-05
4.802741E+03	1.551064E-04	3.721620E-05
4.812644E+03	1.561096E-04	3.745181E-05
4.822546E+03	1.571159E-04	3.768802E-05
4.832449E+03	1.581237E-04	3.792452E-05
4.842351E+03	1.591361E-04	3.816201E-05
4.852254E+03	1.601518E-04	3.840017E-05
4.862156E+03	1.611707E-04	3.863900E-05
4.872059E+03	1.621914E-04	3.887814E-05
4.881961E+03	1.632153E-04	3.911795E-05
4.891864E+03	1.642409E-04	3.935805E-05
4.901767E+03	1.652681E-04	3.959841E-05
4.911669E+03	1.662983E-04	3.983937E-05
4.921572E+03	1.673297E-04	4.008053E-05
4.931474E+03	1.683623E-04	4.032185E-05
4.941377E+03	1.693942E-04	4.056287E-05
4.951279E+03	1.704268E-04	4.080392E-05
4.961182E+03	1.714596E-04	4.104495E-05
4.971085E+03	1.724909E-04	4.128547E-05
4.980987E+03	1.735203E-04	4.152539E-05
4.990890E+03	1.745472E-04	4.176463E-05
5.000792E+03	1.755698E-04	4.200268E-05
5.010695E+03	1.765891E-04	4.223985E-05
5.020597E+03	1.776048E-04	4.247601E-05
5.030500E+03	1.786129E-04	4.271023E-05
5.040402E+03	1.796148E-04	4.294283E-05
5.050305E+03	1.806098E-04	4.317367E-05
5.060208E+03	1.815958E-04	4.340221E-05
5.070110E+03	1.825722E-04	4.362834E-05
5.080013E+03	1.835385E-04	4.385194E-05
5.089915E+03	1.844942E-04	4.407286E-05
5.099818E+03	1.854369E-04	4.429056E-05
5.109720E+03	1.863679E-04	4.450531E-05
5.119623E+03	1.872828E-04	4.471611E-05
5.129525E+03	1.881828E-04	4.492320E-05
5.139428E+03	1.890652E-04	4.512598E-05
5.149331E+03	1.899292E-04	4.532421E-05
5.159233E+03	1.907737E-04	4.551768E-05
5.169136E+03	1.915977E-04	4.570615E-05
5.179038E+03	1.923963E-04	4.588842E-05
5.188941E+03	1.931721E-04	4.606511E-05
5.198843E+03	1.939217E-04	4.623544E-05
5.208746E+03	1.946438E-04	4.639908E-05
5.218648E+03	1.953349E-04	4.655522E-05
5.228551E+03	1.959935E-04	4.670349E-05
5.238454E+03	1.966181E-04	4.684353E-05
5.248356E+03	1.972070E-04	4.697497E-05
5.258259E+03	1.977588E-04	4.709745E-05
5.268161E+03	1.982700E-04	4.721016E-05
5.278064E+03	1.987433E-04	4.731370E-05
5.287966E+03	1.991732E-04	4.740685E-05
5.297869E+03	1.995588E-04	4.748933E-05
5.307772E+03	1.999028E-04	4.756182E-05
5.317674E+03	2.002005E-04	4.762319E-05
5.327577E+03	2.004550E-04	4.767420E-05
5.337479E+03	2.006638E-04	4.771426E-05
5.347382E+03	2.008285E-04	4.774373E-05
5.357284E+03	2.009467E-04	4.776208E-05
5.367187E+03	2.010223E-04	4.777024E-05
5.377089E+03	2.010535E-04	4.776776E-05
5.386992E+03	2.010425E-04	4.775517E-05
5.396895E+03	2.009856E-04	4.773163E-05
5.406797E+03	2.008853E-04	4.769773E-05
5.416700E+03	2.007404E-04	4.765319E-05
5.426602E+03	2.005497E-04	4.759772E-05
5.436505E+03	2.003163E-04	4.753206E-05
5.446407E+03	2.000372E-04	4.745552E-05
5.456310E+03	1.997117E-04	4.736793E-05
5.466212E+03	1.993412E-04	4.726964E-05
5.476115E+03	1.989232E-04	4.716005E-05
5.486018E+03	1.984612E-04	4.704000E-05
5.495920E+03	1.979508E-04	4.690848E-05
5.505823E+03	1.973978E-04	4.676686E-05
5.515725E+03	1.968020E-04	4.661507E-05
5.525628E+03	1.961631E-04	4.645308E-05
5.535530E+03	1.954829E-04	4.628130E-05
5.545433E+03	1.947633E-04	4.610019E-05
5.555335E+03	1.940039E-04	4.590969E-05
5.565238E+03	1.932106E-04	4.571117E-05
5.575141E+03	1.923810E-04	4.550411E-05
5.585043E+03	1.915209E-04	4.528984E-05
5.594946E+03	1.906279E-04	4.506783E-05
5.604848E+03	1.897077E-04	4.483939E-05
5.614751E+03	1.887616E-04	4.460490E-05
5.624653E+03	1.877893E-04	4.436426E-05
5.634556E+03	1.867943E-04	4.411828E-05
5.644459E+03	1.857780E-04	4.386732E-05
5.654361E+03	1.847436E-04	4.361216E-05
5.664264E+03	1.836927E-04	4.335315E-05
5.674166E+03	1.826247E-04	4.309015E-05
5.684069E+03	1.815448E-04	4.282439E-05
5.693971E+03	1.804543E-04	4.255621E-05
5.703874E+03	1.793526E-04	4.228546E-05
5.713776E+03	1.782431E-04	4.201294E-05
5.723679E+03	1.771291E-04	4.173941E-05
5.733582E+03	1.760119E-04	4.146520E-05
5.743484E+03	1.748911E-04	4.119021E-05
5.753387E+03	1.737699E-04	4.091521E-05
5.763289E+03	1.726518E-04	4.064101E-05
5.773192E+03	1.715382E-04	4.036794E-05
5.783094E+03	1.704287E-04	4.009592E-05
5.792997E+03	1.693268E-04	3.982575E-05
5.802899E+03	1.682340E-04	3.955779E-05
5.812802E+03	1.671536E-04	3.929284E-05
5.822705E+03	1.660872E-04	3.903124E-05
5.832607E+03	1.650345E-04	3.877292E-05
5.842510E+03	1.639987E-04	3.851866E-05
5.852412E+03	1.629794E-04	3.826836E-05
5.862315E+03	1.619836E-04	3.802364E-05
5.872217E+03	1.610072E-04	3.778351E-05
5.882120E+03	1.600530E-04	3.754869E-05
5.892022E+03	1.591243E-04	3.731990E-05
5.901925E+03	1.582202E-04	3.709695E-05
5.911828E+03	1.573418E-04	3.688008E-05
5.921730E+03	1.564918E-04	3.666993E-05
5.931633E+03	1.556694E-04	3.646626E-05
5.941535E+03	1.548769E-04	3.626969E-05
5.951438E+03	1.541116E-04	3.607951E-05
5.961340E+03	1.533776E-04	3.589671E-05
5.971243E+03	1.526719E-04	3.572058E-05
5.981146E+03	1.519985E-04	3.555203E-05
5.991048E+03	1.513525E-04	3.538993E-05
6.000951E+03	1.507378E-04	3.523516E-05
6.010853E+03	1.501527E-04	3.508737E-05
6.020756E+03	1.495977E-04	3.494658E-05
6.030658E+03	1.490691E-04	3.481202E-05
6.040561E+03	1.485707E-04	3.468451E-05
6.050463E+03	1.480972E-04	3.456282E-05
6.060366E+03	1.476521E-04	3.444776E-05
6.070269E+03	1.472299E-04	3.433806E-05
6.080171E+03	1.468306E-04	3.423368E-05
6.090074E+03	1.464521E-04	3.413415E-05
6.099976E+03	1.460942E-04	3.403942E-05
6.109879E+03	1.457511E-04	3.394814E-05
6.119781E+03	1.454225E-04	3.386021E-05
6.129684E+03	1.451061E-04	3.377511E-05
6.139586E+03	1.448013E-04	3.369272E-05
6.149489E+03	1.445077E-04	3.361290E-05
6.159392E+03	1.442284E-04	3.353638E-05
6.169294E+03	1.439683E-04	3.346430E-05
6.179197E+03	1.437286E-04	3.339697E-05
6.189099E+03	1.435127E-04	3.333513E-05
6.199002E+03	1.433238E-04	3.327952E-05
6.208904E+03	1.431633E-04	3.323047E-05
6.218807E+03	1.430345E-04	3.318874E-05
6.228709E+03	1.429389E-04	3.315468E-05
6.238612E+03	1.428782E-04	3.312866E-05
6.248515E+03	1.428558E-04	3.311148E-05
6.258417E+03	1.428717E-04	3.310308E-05
6.268320E+03	1.429294E-04	3.310432E-05
6.278222E+03	1.430269E-04	3.311470E-05
6.288125E+03	1.431661E-04	3.313464E-05
6.298027E+03	1.433468E-04	3.316411E-05
6.307930E+03	1.435712E-04	3.320357E-05
6.317833E+03	1.438371E-04	3.325252E-05
6.327735E+03	1.441445E-04	3.331098E-05
6.337638E+03	1.444915E-04	3.337844E-05
6.347540E+03	1.448738E-04	3.345392E-05
6.357443E+03	1.452892E-04	3.353692E-05
6.367345E+03	1.457375E-04	3.362738E-05
6.377248E+03	1.462187E-04	3.372528E-05
6.387150E+03	1.467326E-04	3.383057E-05
6.397053E+03	1.472814E-04	3.394373E-05
6.406956E+03	1.478672E-04	3.406526E-05
6.416858E+03	1.484902E-04	3.419517E-05
6.426761E+03	1.491480E-04	3.433293E-05
6.436663E+03	1.498455E-04	3.447960E-05
6.446566E+03	1.505826E-04	3.463522E-05
6.456468E+03	1.513574E-04	3.479927E-05
6.466371E+03	1.521722E-04	3.497233E-05
6.476273E+03	1.530275E-04	3.515446E-05
6.486176E+03	1.539210E-04	3.534512E-05
6.496079E+03	1.548529E-04	3.554436E-05
6.505981E+03	1.558284E-04	3.575337E-05
6.515884E+03	1.568404E-04	3.597050E-05
6.525786E+03	1.578942E-04	3.619693E-05
6.535689E+03	1.589902E-04	3.643274E-05
6.545591E+03	1.601234E-04	3.667681E-05
6.555494E+03	1.612994E-04	3.693039E-05
6.565396E+03	1.625133E-04	3.719233E-05
6.575299E+03	1.637708E-04	3.746391E-05
6.585202E+03	1.650667E-04	3.774397E-05
6.595104E+03	1.664041E-04	3.803320E-05
6.605007E+03	1.677835E-04	3.833166E-05
6.614909E+03	1.692023E-04	3.863878E-05
6.624812E+03	1.706609E-04	3.895462E-05
6.634714E+03	1.721625E-04	3.927990E-05
6.644617E+03	1.737046E-04	3.961404E-05
6.654520E+03	1.752876E-04	3.995709E-05
6.664422E+03	1.769118E-04	4.030914E-05
6.674325E+03	1.785776E-04	4.067023E-05
6.684227E+03	1.802853E-04	4.104048E-05
6.694130E+03	1.820355E-04	4.141993E-05
6.704032E+03	1.838252E-04	4.180793E-05
6.713935E+03	1.856581E-04	4.220529E-05
6.723837E+03	1.875346E-04	4.261210E-05
6.733740E+03	1.894517E-04	4.302767E-05
6.743643E+03	1.914134E-04	4.345285E-05
6.753545E+03	1.934165E-04	4.388693E-05
6.763448E+03	1.954614E-04	4.432998E-05
6.773350E+03	1.975485E-04	4.478207E-05
6.783253E+03	1.996781E-04	4.524326E-05
6.793155E+03	2.018543E-04	4.571446E-05
6.803058E+03	2.040701E-04	4.619407E-05
6.812960E+03	2.063296E-04	4.668298E-05
6.822863E+03	2.086331E-04	4.718128E-05
6.832766E+03	2.109771E-04	4.768814E-05
6.842668E+03	2.133659E-04	4.820450E-05
6.852571E+03	2.157997E-04	4.873043E-05
6.862473E+03	2.182749E-04	4.926507E-05
6.872376E+03	2.207918E-04	4.980845E-05
6.882278E+03	2.233546E-04	5.036155E-05
6.892181E+03	2.259596E-04	5.092349E-05
6.902083E+03	2.286069E-04	5.149427E-05
6.911986E+03	2.312966E-04	5.207393E-05
6.921889E+03	2.340290E-04	5.266248E-05
6.931791E+03	2.367995E-04	5.325890E-05
6.941694E+03	2.396175E-04	5.386526E-05
6.951596E+03	2.424739E-04	5.447950E-05
6.961499E+03	2.453733E-04	5.510265E-05
6.971401E+03	2.483109E-04	5.573362E-05
6.981304E+03	2.512866E-04	5.637237E-05
6.991207E+03	2.543054E-04	5.701998E-05
7.001109E+03	2.573621E-04	5.767530E-05
7.011012E+03	2.604514E-04	5.833709E-05
7.020914E+03	2.635834E-04	5.900764E-05
7.030817E+03	2.667525E-04	5.968566E-05
7.040719E+03	2.699534E-04	6.036994E-05
7.050622E+03	2.731910E-04	6.106157E-05
7.060524E+03	2.764592E-04	6.175919E-05
7.070427E+03	2.797631E-04	6.246388E-05
7.080330E+03	2.830970E-04	6.317439E-05
7.090232E+03	2.864656E-04	6.389175E-05
7.100135E+03	2.898569E-04	6.461325E-05
7.110037E+03	2.932757E-04	6.533999E-05
7.119940E+03	2.967277E-04	6.607318E-05
7.129842E+03	3.001998E-04	6.680993E-05
7.139745E+03	3.036912E-04	6.755001E-05
7.149647E+03	3.072066E-04	6.829450E-05
7.159550E+03	3.107456E-04	6.904327E-05
7.169453E+03	3.143003E-04	6.979458E-05
7.179355E+03	3.178762E-04	7.054963E-05
7.189258E+03	3.214657E-04	7.130672E-05
7.199160E+03	3.250671E-04	7.206545E-05
7.209063E+03	3.286861E-04	7.282714E-05
7.218965E+03	3.323144E-04	7.358987E-05
7.228868E+03	3.359573E-04	7.435485E-05
7.238770E+03	3.396065E-04	7.512024E-05
7.248673E+03	3.432603E-04	7.588562E-05
7.258576E+03	3.469320E-04	7.665399E-05
7.268478E+03	3.506052E-04	7.742166E-05
7.278381E+03	3.542938E-04	7.819173E-05
7.288283E+03	3.579890E-04	7.896225E-05
7.298186E+03	3.616970E-04	7.973459E-05
7.308088E+03	3.654254E-04	8.051040E-05
7.317991E+03	3.691651E-04	8.128767E-05
7.327894E+03	3.729324E-04	8.207000E-05
7.337796E+03	3.767268E-04	8.285725E-05
7.347699E+03	3.805571E-04	8.365135E-05
7.357601E+03	3.844239E-04	8.445244E-05
7.367504E+03	3.883274E-04	8.526052E-05
7.377406E+03	3.922772E-04	8.607770E-05
7.387309E+03	3.962561E-04	8.690018E-05
7.397211E+03	4.002645E-04	8.772806E-05
7.407114E+03	4.042934E-04	8.855934E-05
7.417017E+03	4.083523E-04	8.939610E-05
7.426919E+03	4.124325E-04	9.023642E-05
7.436822E+03	4.165242E-04	9.107814E-05
7.446724E+03	4.206274E-04	9.192127E-05
7.456627E+03	4.247420E-04	9.276581E-05
7.466529E+03	4.288584E-04	9.360962E-05
7.476432E+03	4.329863E-04	9.445484E-05
7.486334E+03	4.371049E-04	9.529693E-05
7.496237E+03	4.412351E-04	9.614046E-05
7.506140E+03	4.453656E-04	9.698294E-05
7.516042E+03	4.494964E-04	9.782440E-05
7.525945E+03	4.536155E-04	9.866223E-05
7.535847E+03	4.577332E-04	9.949866E-05
7.545750E+03	4.618485E-04	1.003335E-04
7.555652E+03	4.659597E-04	1.011664E-04
7.565555E+03	4.700540E-04	1.019945E-04
7.575457E+03	4.741406E-04	1.028199E-04
7.585360E+03	4.782055E-04	1.036395E-04
7.595263E+03	4.822697E-04	1.044580E-04
7.605165E+03	4.862945E-04	1.052668E-04
7.615068E+03	4.903128E-04	1.060733E-04
7.624970E+03	4.943088E-04	1.068739E-04
7.634873E+03	4.982665E-04	1.076652E-04
7.644775E+03	5.021942E-04	1.084490E-04
7.654678E+03	5.060875E-04	1.092244E-04
7.664581E+03	5.099420E-04	1.099905E-04
7.674483E+03	5.137530E-04	1.107463E-04
7.684386E+03	5.175295E-04	1.114937E-04
