#wls	flux	fluxerr
1.584409E+03	5.378065E-03	1.484727E-03
1.624020E+03	5.535056E-03	1.528049E-03
1.663630E+03	5.681795E-03	1.568538E-03
1.703240E+03	5.817136E-03	1.605877E-03
1.742850E+03	5.937538E-03	1.639090E-03
1.782461E+03	6.042743E-03	1.668105E-03
1.822071E+03	6.129073E-03	1.691907E-03
1.861681E+03	6.195602E-03	1.710240E-03
1.901291E+03	6.240301E-03	1.722545E-03
1.940902E+03	6.260250E-03	1.728015E-03
1.980512E+03	6.254735E-03	1.726454E-03
2.020122E+03	6.221769E-03	1.717314E-03
2.059732E+03	6.159795E-03	1.700165E-03
2.099342E+03	6.067743E-03	1.674714E-03
2.138953E+03	5.944394E-03	1.640623E-03
2.178563E+03	5.787960E-03	1.597401E-03
2.218173E+03	5.597009E-03	1.544653E-03
2.257783E+03	5.372664E-03	1.482690E-03
2.297394E+03	5.119539E-03	1.412787E-03
2.337004E+03	4.845328E-03	1.337067E-03
2.376614E+03	4.556199E-03	1.257234E-03
2.416224E+03	4.257727E-03	1.174827E-03
2.455835E+03	3.953986E-03	1.090971E-03
2.495445E+03	3.649194E-03	1.006830E-03
2.535055E+03	3.346769E-03	9.233468E-04
2.574665E+03	3.050179E-03	8.414793E-04
2.614276E+03	2.762204E-03	7.619949E-04
2.653886E+03	2.485390E-03	6.855955E-04
2.693496E+03	2.221978E-03	6.128996E-04
2.733106E+03	1.973660E-03	5.443734E-04
2.772716E+03	1.741840E-03	4.804041E-04
2.812327E+03	1.527529E-03	4.212700E-04
2.851937E+03	1.331446E-03	3.671694E-04
2.891547E+03	1.153997E-03	3.182129E-04
2.931157E+03	9.951824E-04	2.744005E-04
2.970768E+03	8.546335E-04	2.356296E-04
2.980670E+03	8.222671E-04	2.267016E-04
2.990573E+03	7.909644E-04	2.180672E-04
3.000475E+03	7.607394E-04	2.097301E-04
3.010378E+03	7.315336E-04	2.016744E-04
3.020280E+03	7.033576E-04	1.939028E-04
3.030183E+03	6.761857E-04	1.864082E-04
3.040086E+03	6.500062E-04	1.791876E-04
3.049988E+03	6.247663E-04	1.722261E-04
3.059891E+03	6.004804E-04	1.655279E-04
3.069793E+03	5.770968E-04	1.590787E-04
3.079696E+03	5.546142E-04	1.528781E-04
3.089598E+03	5.330049E-04	1.469184E-04
3.099501E+03	5.122328E-04	1.411897E-04
3.109403E+03	4.922923E-04	1.356905E-04
3.119306E+03	4.731476E-04	1.304108E-04
3.129209E+03	4.547824E-04	1.253461E-04
3.139111E+03	4.371713E-04	1.204895E-04
3.149014E+03	4.202892E-04	1.158340E-04
3.158916E+03	4.041188E-04	1.113748E-04
3.168819E+03	3.886359E-04	1.071052E-04
3.178721E+03	3.738095E-04	1.030168E-04
3.188624E+03	3.596298E-04	9.910676E-05
3.198526E+03	3.460672E-04	9.536691E-05
3.208429E+03	3.331048E-04	9.179263E-05
3.218332E+03	3.207203E-04	8.837773E-05
3.228234E+03	3.088873E-04	8.511496E-05
3.238137E+03	2.975945E-04	8.200118E-05
3.248039E+03	2.868119E-04	7.902810E-05
3.257942E+03	2.765288E-04	7.619276E-05
3.267844E+03	2.667249E-04	7.348963E-05
3.277747E+03	2.573735E-04	7.091124E-05
3.287650E+03	2.484640E-04	6.845474E-05
3.297552E+03	2.399783E-04	6.611510E-05
3.307455E+03	2.318953E-04	6.388654E-05
3.317357E+03	2.241987E-04	6.176448E-05
3.327260E+03	2.168722E-04	5.974451E-05
3.337162E+03	2.099004E-04	5.782234E-05
3.347065E+03	2.032683E-04	5.599383E-05
3.356967E+03	1.969614E-04	5.425499E-05
3.366870E+03	1.909633E-04	5.260129E-05
3.376773E+03	1.852585E-04	5.102844E-05
3.386675E+03	1.798391E-04	4.953430E-05
3.396578E+03	1.746863E-04	4.811364E-05
3.406480E+03	1.697909E-04	4.676395E-05
3.416383E+03	1.651399E-04	4.548164E-05
3.426285E+03	1.607230E-04	4.426386E-05
3.436188E+03	1.565266E-04	4.310688E-05
3.446090E+03	1.525398E-04	4.200768E-05
3.455993E+03	1.487542E-04	4.096391E-05
3.465896E+03	1.451581E-04	3.997241E-05
3.475798E+03	1.417442E-04	3.903111E-05
3.485701E+03	1.384991E-04	3.813634E-05
3.495603E+03	1.354165E-04	3.728635E-05
3.505506E+03	1.324860E-04	3.647830E-05
3.515408E+03	1.296995E-04	3.570993E-05
3.525311E+03	1.270493E-04	3.497913E-05
3.535213E+03	1.245258E-04	3.428325E-05
3.545116E+03	1.221250E-04	3.362117E-05
3.555019E+03	1.198394E-04	3.299083E-05
3.564921E+03	1.176619E-04	3.239031E-05
3.574824E+03	1.155896E-04	3.181876E-05
3.584726E+03	1.136149E-04	3.127411E-05
3.594629E+03	1.117330E-04	3.075505E-05
3.604531E+03	1.099395E-04	3.026032E-05
3.614434E+03	1.082301E-04	2.978876E-05
3.624337E+03	1.066006E-04	2.933922E-05
3.634239E+03	1.050471E-04	2.891064E-05
3.644142E+03	1.035669E-04	2.850224E-05
3.654044E+03	1.021573E-04	2.811329E-05
3.663947E+03	1.008148E-04	2.774282E-05
3.673849E+03	9.953946E-05	2.739085E-05
3.683752E+03	9.832698E-05	2.705619E-05
3.693654E+03	9.717663E-05	2.673865E-05
3.703557E+03	9.608595E-05	2.643754E-05
3.713460E+03	9.505337E-05	2.615243E-05
3.723362E+03	9.407889E-05	2.588331E-05
3.733265E+03	9.315852E-05	2.562910E-05
3.743167E+03	9.229232E-05	2.538980E-05
3.753070E+03	9.147944E-05	2.516517E-05
3.762972E+03	9.071684E-05	2.495439E-05
3.772875E+03	9.000451E-05	2.475744E-05
3.782777E+03	8.934163E-05	2.457410E-05
3.792680E+03	8.872597E-05	2.440376E-05
3.802583E+03	8.815607E-05	2.424600E-05
3.812485E+03	8.763260E-05	2.410102E-05
3.822388E+03	8.715268E-05	2.396802E-05
3.832290E+03	8.671629E-05	2.384700E-05
3.842193E+03	8.632209E-05	2.373757E-05
3.852095E+03	8.596930E-05	2.363953E-05
3.861998E+03	8.565729E-05	2.355271E-05
3.871900E+03	8.538407E-05	2.347655E-05
3.881803E+03	8.514898E-05	2.341087E-05
3.891706E+03	8.495208E-05	2.335569E-05
3.901608E+03	8.479215E-05	2.331067E-05
3.911511E+03	8.466788E-05	2.327544E-05
3.921413E+03	8.457885E-05	2.324990E-05
3.931316E+03	8.452375E-05	2.323368E-05
3.941218E+03	8.450217E-05	2.322666E-05
3.951121E+03	8.451363E-05	2.322871E-05
3.961024E+03	8.455762E-05	2.323970E-05
3.970926E+03	8.463246E-05	2.325915E-05
3.980829E+03	8.473775E-05	2.328696E-05
3.990731E+03	8.487306E-05	2.332301E-05
4.000634E+03	8.503808E-05	2.336721E-05
4.010536E+03	8.523178E-05	2.341927E-05
4.020439E+03	8.545319E-05	2.347894E-05
4.030341E+03	8.570208E-05	2.354613E-05
4.040244E+03	8.597745E-05	2.362059E-05
4.050147E+03	8.627906E-05	2.370223E-05
4.060049E+03	8.660601E-05	2.379082E-05
4.069952E+03	8.695810E-05	2.388629E-05
4.079854E+03	8.733448E-05	2.398842E-05
4.089757E+03	8.773427E-05	2.409696E-05
4.099659E+03	8.815732E-05	2.421185E-05
4.109562E+03	8.860279E-05	2.433289E-05
4.119464E+03	8.907060E-05	2.446003E-05
4.129367E+03	8.955918E-05	2.459286E-05
4.139270E+03	9.006846E-05	2.473134E-05
4.149172E+03	9.059698E-05	2.487508E-05
4.159075E+03	9.114534E-05	2.502423E-05
4.168977E+03	9.171204E-05	2.517840E-05
4.178880E+03	9.229704E-05	2.533755E-05
4.188782E+03	9.289813E-05	2.550110E-05
4.198685E+03	9.351598E-05	2.566921E-05
4.208587E+03	9.414835E-05	2.584128E-05
4.218490E+03	9.479594E-05	2.601749E-05
4.228393E+03	9.545648E-05	2.619723E-05
4.238295E+03	9.612847E-05	2.638007E-05
4.248198E+03	9.681252E-05	2.656618E-05
4.258100E+03	9.750562E-05	2.675474E-05
4.268003E+03	9.820842E-05	2.694593E-05
4.277905E+03	9.891779E-05	2.713889E-05
4.287808E+03	9.963437E-05	2.733378E-05
4.297711E+03	1.003565E-04	2.753017E-05
4.307613E+03	1.010826E-04	2.772758E-05
4.317516E+03	1.018124E-04	2.792599E-05
4.327418E+03	1.025451E-04	2.812515E-05
4.337321E+03	1.032813E-04	2.832523E-05
4.347223E+03	1.040195E-04	2.852580E-05
4.357126E+03	1.047610E-04	2.872727E-05
4.367028E+03	1.055061E-04	2.892966E-05
4.376931E+03	1.062547E-04	2.913297E-05
4.386834E+03	1.070068E-04	2.933720E-05
4.396736E+03	1.077634E-04	2.954262E-05
4.406639E+03	1.085237E-04	2.974902E-05
4.416541E+03	1.092888E-04	2.995668E-05
4.426444E+03	1.100589E-04	3.016565E-05
4.436346E+03	1.108341E-04	3.037598E-05
4.446249E+03	1.116137E-04	3.058750E-05
4.456151E+03	1.123981E-04	3.080025E-05
4.466054E+03	1.131865E-04	3.101407E-05
4.475957E+03	1.139802E-04	3.122928E-05
4.485859E+03	1.147775E-04	3.144544E-05
4.495762E+03	1.155789E-04	3.166265E-05
4.505664E+03	1.163846E-04	3.188101E-05
4.515567E+03	1.171930E-04	3.210006E-05
4.525469E+03	1.180056E-04	3.232019E-05
4.535372E+03	1.188207E-04	3.254097E-05
4.545274E+03	1.196389E-04	3.276253E-05
4.555177E+03	1.204585E-04	3.298442E-05
4.565080E+03	1.212810E-04	3.320708E-05
4.574982E+03	1.221061E-04	3.343036E-05
4.584885E+03	1.229321E-04	3.365385E-05
4.594787E+03	1.237597E-04	3.387771E-05
4.604690E+03	1.245895E-04	3.410213E-05
4.614592E+03	1.254212E-04	3.432701E-05
4.624495E+03	1.262534E-04	3.455194E-05
4.634398E+03	1.270890E-04	3.477777E-05
4.644300E+03	1.279290E-04	3.500474E-05
4.654203E+03	1.287720E-04	3.523248E-05
4.664105E+03	1.296192E-04	3.546128E-05
4.674008E+03	1.304715E-04	3.569143E-05
4.683910E+03	1.313265E-04	3.592227E-05
4.693813E+03	1.321854E-04	3.615409E-05
4.703715E+03	1.330469E-04	3.638658E-05
4.713618E+03	1.339123E-04	3.662005E-05
4.723521E+03	1.347815E-04	3.685451E-05
4.733423E+03	1.356535E-04	3.708964E-05
4.743326E+03	1.365293E-04	3.732579E-05
4.753228E+03	1.374081E-04	3.756264E-05
4.763131E+03	1.382910E-04	3.780056E-05
4.773033E+03	1.391769E-04	3.803924E-05
4.782936E+03	1.400659E-04	3.827871E-05
4.792838E+03	1.409582E-04	3.851900E-05
4.802741E+03	1.418552E-04	3.876050E-05
4.812644E+03	1.427558E-04	3.900288E-05
4.822546E+03	1.436600E-04	3.924621E-05
4.832449E+03	1.445666E-04	3.949011E-05
4.842351E+03	1.454785E-04	3.973538E-05
4.852254E+03	1.463945E-04	3.998167E-05
4.862156E+03	1.473145E-04	4.022900E-05
4.872059E+03	1.482373E-04	4.047703E-05
4.881961E+03	1.491645E-04	4.072614E-05
4.891864E+03	1.500945E-04	4.097597E-05
4.901767E+03	1.510274E-04	4.122650E-05
4.911669E+03	1.519647E-04	4.147813E-05
4.921572E+03	1.529048E-04	4.173047E-05
4.931474E+03	1.538477E-04	4.198349E-05
4.941377E+03	1.547919E-04	4.223677E-05
4.951279E+03	1.557387E-04	4.249067E-05
4.961182E+03	1.566881E-04	4.274517E-05
4.971085E+03	1.576382E-04	4.299980E-05
4.980987E+03	1.585889E-04	4.325452E-05
4.990890E+03	1.595401E-04	4.350925E-05
5.000792E+03	1.604899E-04	4.376352E-05
5.010695E+03	1.614395E-04	4.401767E-05
5.020597E+03	1.623888E-04	4.427161E-05
5.030500E+03	1.633341E-04	4.452441E-05
5.040402E+03	1.642768E-04	4.477638E-05
5.050305E+03	1.652165E-04	4.502743E-05
5.060208E+03	1.661511E-04	4.527702E-05
5.070110E+03	1.670803E-04	4.552502E-05
5.080013E+03	1.680034E-04	4.577128E-05
5.089915E+03	1.689201E-04	4.601570E-05
5.099818E+03	1.698281E-04	4.625765E-05
5.109720E+03	1.707285E-04	4.649744E-05
5.119623E+03	1.716174E-04	4.673398E-05
5.129525E+03	1.724956E-04	4.696754E-05
5.139428E+03	1.733608E-04	4.719744E-05
5.149331E+03	1.742121E-04	4.742348E-05
5.159233E+03	1.750487E-04	4.764541E-05
5.169136E+03	1.758696E-04	4.786297E-05
5.179038E+03	1.766704E-04	4.807496E-05
5.188941E+03	1.774535E-04	4.828204E-05
5.198843E+03	1.782160E-04	4.848342E-05
5.208746E+03	1.789568E-04	4.867881E-05
5.218648E+03	1.796730E-04	4.886740E-05
5.228551E+03	1.803633E-04	4.904887E-05
5.238454E+03	1.810265E-04	4.922286E-05
5.248356E+03	1.816613E-04	4.938907E-05
5.258259E+03	1.822667E-04	4.954715E-05
5.268161E+03	1.828394E-04	4.969631E-05
5.278064E+03	1.833822E-04	4.983721E-05
5.287966E+03	1.838901E-04	4.996857E-05
5.297869E+03	1.843622E-04	5.009012E-05
5.307772E+03	1.848013E-04	5.020260E-05
5.317674E+03	1.852027E-04	5.030479E-05
5.327577E+03	1.855694E-04	5.039747E-05
5.337479E+03	1.858989E-04	5.047998E-05
5.347382E+03	1.861926E-04	5.055266E-05
5.357284E+03	1.864480E-04	5.061491E-05
5.367187E+03	1.866686E-04	5.066765E-05
5.377089E+03	1.868524E-04	5.071032E-05
5.386992E+03	1.870011E-04	5.074342E-05
5.396895E+03	1.871111E-04	5.076593E-05
5.406797E+03	1.871843E-04	5.077842E-05
5.416700E+03	1.872191E-04	5.078044E-05
5.426602E+03	1.872141E-04	5.077160E-05
5.436505E+03	1.871715E-04	5.075253E-05
5.446407E+03	1.870882E-04	5.072237E-05
5.456310E+03	1.869630E-04	5.068080E-05
5.466212E+03	1.867965E-04	5.062802E-05
5.476115E+03	1.865860E-04	5.056325E-05
5.486018E+03	1.863341E-04	5.048726E-05
5.495920E+03	1.860362E-04	5.039876E-05
5.505823E+03	1.856972E-04	5.029910E-05
5.515725E+03	1.853162E-04	5.018805E-05
5.525628E+03	1.848925E-04	5.006541E-05
5.535530E+03	1.844273E-04	4.993152E-05
5.545433E+03	1.839218E-04	4.978671E-05
5.555335E+03	1.833753E-04	4.963081E-05
5.565238E+03	1.827929E-04	4.946519E-05
5.575141E+03	1.821721E-04	4.928916E-05
5.585043E+03	1.815179E-04	4.910412E-05
5.594946E+03	1.808279E-04	4.890937E-05
5.604848E+03	1.801070E-04	4.870629E-05
5.614751E+03	1.793565E-04	4.849522E-05
5.624653E+03	1.785758E-04	4.827602E-05
5.634556E+03	1.777681E-04	4.804953E-05
5.644459E+03	1.769346E-04	4.781609E-05
5.654361E+03	1.760785E-04	4.757657E-05
5.664264E+03	1.752011E-04	4.733131E-05
5.674166E+03	1.743018E-04	4.708016E-05
5.684069E+03	1.733855E-04	4.682447E-05
5.693971E+03	1.724535E-04	4.656460E-05
5.703874E+03	1.715055E-04	4.630041E-05
5.713776E+03	1.705445E-04	4.603276E-05
5.723679E+03	1.695737E-04	4.576251E-05
5.733582E+03	1.685945E-04	4.549002E-05
5.743484E+03	1.676064E-04	4.521519E-05
5.753387E+03	1.666127E-04	4.493890E-05
5.763289E+03	1.656166E-04	4.466200E-05
5.773192E+03	1.646195E-04	4.438489E-05
5.783094E+03	1.636211E-04	4.410747E-05
5.792997E+03	1.626246E-04	4.383062E-05
5.802899E+03	1.616315E-04	4.355474E-05
5.812802E+03	1.606451E-04	4.328070E-05
5.822705E+03	1.596666E-04	4.300886E-05
5.832607E+03	1.586960E-04	4.273916E-05
5.842510E+03	1.577361E-04	4.247245E-05
5.852412E+03	1.567868E-04	4.220860E-05
5.862315E+03	1.558546E-04	4.194941E-05
5.872217E+03	1.549355E-04	4.169380E-05
5.882120E+03	1.540325E-04	4.144258E-05
5.892022E+03	1.531486E-04	4.119653E-05
5.901925E+03	1.522831E-04	4.095550E-05
5.911828E+03	1.514372E-04	4.071977E-05
5.921730E+03	1.506136E-04	4.049007E-05
5.931633E+03	1.498115E-04	4.026621E-05
5.941535E+03	1.490335E-04	4.004885E-05
5.951438E+03	1.482771E-04	3.983732E-05
5.961340E+03	1.475463E-04	3.963273E-05
5.971243E+03	1.468385E-04	3.943434E-05
5.981146E+03	1.461577E-04	3.924323E-05
5.991048E+03	1.454994E-04	3.905817E-05
6.000951E+03	1.448674E-04	3.888023E-05
6.010853E+03	1.442606E-04	3.870906E-05
6.020756E+03	1.436793E-04	3.854475E-05
6.030658E+03	1.431204E-04	3.838648E-05
6.040561E+03	1.425876E-04	3.823522E-05
6.050463E+03	1.420761E-04	3.808968E-05
6.060366E+03	1.415893E-04	3.795080E-05
6.070269E+03	1.411223E-04	3.781722E-05
6.080171E+03	1.406752E-04	3.768897E-05
6.090074E+03	1.402462E-04	3.756558E-05
6.099976E+03	1.398352E-04	3.744702E-05
6.109879E+03	1.394369E-04	3.733187E-05
6.119781E+03	1.390513E-04	3.722009E-05
6.129684E+03	1.386761E-04	3.711114E-05
6.139586E+03	1.383112E-04	3.700492E-05
6.149489E+03	1.379562E-04	3.690134E-05
6.159392E+03	1.376142E-04	3.680124E-05
6.169294E+03	1.372900E-04	3.670591E-05
6.179197E+03	1.369852E-04	3.661573E-05
6.189099E+03	1.367027E-04	3.653154E-05
6.199002E+03	1.364459E-04	3.645418E-05
6.208904E+03	1.362162E-04	3.638404E-05
6.218807E+03	1.360168E-04	3.632199E-05
6.228709E+03	1.358493E-04	3.626843E-05
6.238612E+03	1.357153E-04	3.622377E-05
6.248515E+03	1.356181E-04	3.618892E-05
6.258417E+03	1.355576E-04	3.616383E-05
6.268320E+03	1.355374E-04	3.614944E-05
6.278222E+03	1.355555E-04	3.614524E-05
6.288125E+03	1.356138E-04	3.615168E-05
6.298027E+03	1.357121E-04	3.616875E-05
6.307930E+03	1.358525E-04	3.619694E-05
6.317833E+03	1.360329E-04	3.623575E-05
6.327735E+03	1.362534E-04	3.628517E-05
6.337638E+03	1.365121E-04	3.634468E-05
6.347540E+03	1.368051E-04	3.641322E-05
6.357443E+03	1.371302E-04	3.649022E-05
6.367345E+03	1.374873E-04	3.657565E-05
6.377248E+03	1.378764E-04	3.666949E-05
6.387150E+03	1.382974E-04	3.677170E-05
6.397053E+03	1.387522E-04	3.688279E-05
6.406956E+03	1.392429E-04	3.700332E-05
6.416858E+03	1.397697E-04	3.713329E-05
6.426761E+03	1.403303E-04	3.727216E-05
6.436663E+03	1.409293E-04	3.742106E-05
6.446566E+03	1.415666E-04	3.758002E-05
6.456468E+03	1.422405E-04	3.774852E-05
6.466371E+03	1.429531E-04	3.792717E-05
6.476273E+03	1.437048E-04	3.811602E-05
6.486176E+03	1.444935E-04	3.831453E-05
6.496079E+03	1.453194E-04	3.852273E-05
6.505981E+03	1.461874E-04	3.874191E-05
6.515884E+03	1.470908E-04	3.897030E-05
6.525786E+03	1.480346E-04	3.920918E-05
6.535689E+03	1.490190E-04	3.945864E-05
6.545591E+03	1.500396E-04	3.971747E-05
6.555494E+03	1.511015E-04	3.998703E-05
6.565396E+03	1.522001E-04	4.026608E-05
6.575299E+03	1.533407E-04	4.055602E-05
6.585202E+03	1.545186E-04	4.085560E-05
6.595104E+03	1.557367E-04	4.116557E-05
6.605007E+03	1.569954E-04	4.148602E-05
6.614909E+03	1.582924E-04	4.181632E-05
6.624812E+03	1.596278E-04	4.215654E-05
6.634714E+03	1.610050E-04	4.250750E-05
6.644617E+03	1.624215E-04	4.286857E-05
6.654520E+03	1.638776E-04	4.323981E-05
6.664422E+03	1.653736E-04	4.362130E-05
6.674325E+03	1.669101E-04	4.401317E-05
6.684227E+03	1.684874E-04	4.441546E-05
6.694130E+03	1.701058E-04	4.482830E-05
6.704032E+03	1.717628E-04	4.525097E-05
6.713935E+03	1.734617E-04	4.568436E-05
6.723837E+03	1.752029E-04	4.612857E-05
6.733740E+03	1.769838E-04	4.658288E-05
6.743643E+03	1.788079E-04	4.704819E-05
6.753545E+03	1.806725E-04	4.752378E-05
6.763448E+03	1.825778E-04	4.800971E-05
6.773350E+03	1.845242E-04	4.850608E-05
6.783253E+03	1.865121E-04	4.901296E-05
6.793155E+03	1.885453E-04	4.953136E-05
6.803058E+03	1.906173E-04	5.005953E-05
6.812960E+03	1.927319E-04	5.059848E-05
6.822863E+03	1.948895E-04	5.114829E-05
6.832766E+03	1.970867E-04	5.170808E-05
6.842668E+03	1.993277E-04	5.227888E-05
6.852571E+03	2.016126E-04	5.286078E-05
6.862473E+03	2.039381E-04	5.345285E-05
6.872376E+03	2.063045E-04	5.405515E-05
6.882278E+03	2.087158E-04	5.466876E-05
6.892181E+03	2.111684E-04	5.529271E-05
6.902083E+03	2.136626E-04	5.592703E-05
6.911986E+03	2.161985E-04	5.657177E-05
6.921889E+03	2.187763E-04	5.722695E-05
6.931791E+03	2.213919E-04	5.789150E-05
6.941694E+03	2.240540E-04	5.856767E-05
6.951596E+03	2.267540E-04	5.925321E-05
6.961499E+03	2.294964E-04	5.994930E-05
6.971401E+03	2.322769E-04	6.065473E-05
6.981304E+03	2.350952E-04	6.136950E-05
6.991207E+03	2.379560E-04	6.209477E-05
7.001109E+03	2.408545E-04	6.282931E-05
7.011012E+03	2.437858E-04	6.357180E-05
7.020914E+03	2.467594E-04	6.432470E-05
7.030817E+03	2.497702E-04	6.508671E-05
7.040719E+03	2.528130E-04	6.585642E-05
7.050622E+03	2.558924E-04	6.663505E-05
7.060524E+03	2.590030E-04	6.742115E-05
7.070427E+03	2.621495E-04	6.821597E-05
7.080330E+03	2.653263E-04	6.901799E-05
7.090232E+03	2.685382E-04	6.982850E-05
7.100135E+03	2.717736E-04	7.064446E-05
7.110037E+03	2.750374E-04	7.146711E-05
7.119940E+03	2.783346E-04	7.229778E-05
7.129842E+03	2.816530E-04	7.313327E-05
7.139745E+03	2.849916E-04	7.397329E-05
7.149647E+03	2.883552E-04	7.481912E-05
7.159550E+03	2.917434E-04	7.567060E-05
7.169453E+03	2.951487E-04	7.652585E-05
7.179355E+03	2.985762E-04	7.738611E-05
7.189258E+03	3.020186E-04	7.824952E-05
7.199160E+03	3.054749E-04	7.911580E-05
7.209063E+03	3.089498E-04	7.998618E-05
7.218965E+03	3.124356E-04	8.085867E-05
7.228868E+03	3.159381E-04	8.173474E-05
7.238770E+03	3.194488E-04	8.261216E-05
7.248673E+03	3.229664E-04	8.349066E-05
7.258576E+03	3.265035E-04	8.437345E-05
7.268478E+03	3.300450E-04	8.525664E-05
7.278381E+03	3.336038E-04	8.614353E-05
7.288283E+03	3.371715E-04	8.703199E-05
7.298186E+03	3.407547E-04	8.792370E-05
7.308088E+03	3.443600E-04	8.882034E-05
7.317991E+03	3.479794E-04	8.971985E-05
7.327894E+03	3.516276E-04	9.062604E-05
7.337796E+03	3.553046E-04	9.153889E-05
7.347699E+03	3.590190E-04	9.246058E-05
7.357601E+03	3.627704E-04	9.339102E-05
7.367504E+03	3.665596E-04	9.433042E-05
7.377406E+03	3.703955E-04	9.528102E-05
7.387309E+03	3.742615E-04	9.623858E-05
7.397211E+03	3.781580E-04	9.720315E-05
7.407114E+03	3.820765E-04	9.817256E-05
7.417017E+03	3.860253E-04	9.914896E-05
7.426919E+03	3.899964E-04	1.001302E-04
7.436822E+03	3.939798E-04	1.011139E-04
7.446724E+03	3.979755E-04	1.020998E-04
7.456627E+03	4.019830E-04	1.030880E-04
7.466529E+03	4.059923E-04	1.040758E-04
7.476432E+03	4.100126E-04	1.050656E-04
7.486334E+03	4.140235E-04	1.060521E-04
7.496237E+03	4.180439E-04	1.070403E-04
7.506140E+03	4.220632E-04	1.080273E-04
7.516042E+03	4.260801E-04	1.090130E-04
7.525945E+03	4.300833E-04	1.099943E-04
7.535847E+03	4.340817E-04	1.109736E-04
7.545750E+03	4.380739E-04	1.119505E-04
7.555652E+03	4.420580E-04	1.129245E-04
7.565555E+03	4.460216E-04	1.138925E-04
7.575457E+03	4.499730E-04	1.148566E-04
7.585360E+03	4.538992E-04	1.158134E-04
7.595263E+03	4.578199E-04	1.167681E-04
7.605165E+03	4.616982E-04	1.177113E-04
7.615068E+03	4.655656E-04	1.186508E-04
7.624970E+03	4.694076E-04	1.195832E-04
7.634873E+03	4.732088E-04	1.205044E-04
7.644775E+03	4.769776E-04	1.214167E-04
7.654678E+03	4.807106E-04	1.223191E-04
7.664581E+03	4.844038E-04	1.232106E-04
7.674483E+03	4.880532E-04	1.240904E-04
7.684386E+03	4.916677E-04	1.249606E-04
