#wls	flux	fluxerr
1.584409E+03	5.810185E-03	1.859572E-03
1.624020E+03	5.997349E-03	1.919447E-03
1.663630E+03	6.175914E-03	1.976567E-03
1.703240E+03	6.344132E-03	2.030374E-03
1.742850E+03	6.499448E-03	2.080049E-03
1.782461E+03	6.639778E-03	2.124926E-03
1.822071E+03	6.762293E-03	2.164099E-03
1.861681E+03	6.865289E-03	2.197023E-03
1.901291E+03	6.946383E-03	2.222936E-03
1.940902E+03	7.002629E-03	2.240897E-03
1.980512E+03	7.032314E-03	2.250355E-03
2.020122E+03	7.032753E-03	2.250454E-03
2.059732E+03	7.001598E-03	2.240442E-03
2.099342E+03	6.937889E-03	2.220013E-03
2.138953E+03	6.838772E-03	2.188253E-03
2.178563E+03	6.702352E-03	2.144558E-03
2.218173E+03	6.526639E-03	2.088291E-03
2.257783E+03	6.308599E-03	2.018483E-03
2.297394E+03	6.055237E-03	1.937375E-03
2.337004E+03	5.773811E-03	1.847291E-03
2.376614E+03	5.470071E-03	1.750071E-03
2.416224E+03	5.148913E-03	1.647282E-03
2.455835E+03	4.815094E-03	1.540447E-03
2.495445E+03	4.472998E-03	1.430967E-03
2.535055E+03	4.126571E-03	1.320107E-03
2.574665E+03	3.779949E-03	1.209190E-03
2.614276E+03	3.437029E-03	1.099461E-03
2.653886E+03	3.101465E-03	9.920916E-04
2.693496E+03	2.776668E-03	8.881710E-04
2.733106E+03	2.465918E-03	7.887489E-04
2.772716E+03	2.171772E-03	6.946425E-04
2.812327E+03	1.896533E-03	6.065888E-04
2.851937E+03	1.642238E-03	5.252384E-04
2.891547E+03	1.410416E-03	4.510803E-04
2.931157E+03	1.202105E-03	3.844455E-04
2.970768E+03	1.017588E-03	3.254241E-04
2.980670E+03	9.751245E-04	3.118417E-04
2.990573E+03	9.341026E-04	2.987205E-04
3.000475E+03	8.945193E-04	2.860595E-04
3.010378E+03	8.563475E-04	2.738502E-04
3.020280E+03	8.195599E-04	2.620836E-04
3.030183E+03	7.841450E-04	2.507562E-04
3.040086E+03	7.500562E-04	2.398531E-04
3.049988E+03	7.172943E-04	2.293745E-04
3.059891E+03	6.858111E-04	2.193049E-04
3.069793E+03	6.555882E-04	2.096385E-04
3.079696E+03	6.265918E-04	2.003645E-04
3.089598E+03	5.987998E-04	1.914757E-04
3.099501E+03	5.721758E-04	1.829606E-04
3.109403E+03	5.466850E-04	1.748080E-04
3.119306E+03	5.223017E-04	1.670096E-04
3.129209E+03	4.989802E-04	1.595509E-04
3.139111E+03	4.767040E-04	1.524266E-04
3.149014E+03	4.554270E-04	1.456219E-04
3.158916E+03	4.351232E-04	1.391284E-04
3.168819E+03	4.157561E-04	1.329346E-04
3.178721E+03	3.972910E-04	1.270293E-04
3.188624E+03	3.797004E-04	1.214038E-04
3.198526E+03	3.629492E-04	1.160467E-04
3.208429E+03	3.469982E-04	1.109456E-04
3.218332E+03	3.318317E-04	1.060953E-04
3.228234E+03	3.174001E-04	1.014802E-04
3.238137E+03	3.036879E-04	9.709508E-05
3.248039E+03	2.906537E-04	9.292687E-05
3.257942E+03	2.782726E-04	8.896753E-05
3.267844E+03	2.665193E-04	8.520899E-05
3.277747E+03	2.553574E-04	8.163955E-05
3.287650E+03	2.447672E-04	7.825300E-05
3.297552E+03	2.347219E-04	7.504072E-05
3.307455E+03	2.251924E-04	7.199338E-05
3.317357E+03	2.161543E-04	6.910320E-05
3.327260E+03	2.075842E-04	6.636268E-05
3.337162E+03	1.994622E-04	6.376548E-05
3.347065E+03	1.917611E-04	6.130289E-05
3.356967E+03	1.844656E-04	5.897000E-05
3.366870E+03	1.775507E-04	5.675885E-05
3.376773E+03	1.709981E-04	5.466352E-05
3.386675E+03	1.647918E-04	5.267896E-05
3.396578E+03	1.589087E-04	5.079775E-05
3.406480E+03	1.533369E-04	4.901609E-05
3.416383E+03	1.480590E-04	4.732845E-05
3.426285E+03	1.430557E-04	4.572856E-05
3.436188E+03	1.383168E-04	4.421326E-05
3.446090E+03	1.338248E-04	4.277690E-05
3.455993E+03	1.295680E-04	4.141574E-05
3.465896E+03	1.255337E-04	4.012573E-05
3.475798E+03	1.217060E-04	3.890181E-05
3.485701E+03	1.180757E-04	3.774098E-05
3.495603E+03	1.146299E-04	3.663918E-05
3.505506E+03	1.113572E-04	3.559271E-05
3.515408E+03	1.082480E-04	3.459849E-05
3.525311E+03	1.052909E-04	3.365294E-05
3.535213E+03	1.024768E-04	3.275313E-05
3.545116E+03	9.979629E-05	3.189601E-05
3.555019E+03	9.724235E-05	3.107937E-05
3.564921E+03	9.480764E-05	3.030085E-05
3.574824E+03	9.248434E-05	2.955795E-05
3.584726E+03	9.026690E-05	2.884891E-05
3.594629E+03	8.815009E-05	2.817204E-05
3.604531E+03	8.612725E-05	2.752521E-05
3.614434E+03	8.419615E-05	2.690772E-05
3.624337E+03	8.235061E-05	2.631758E-05
3.634239E+03	8.058780E-05	2.575390E-05
3.644142E+03	7.890422E-05	2.521555E-05
3.654044E+03	7.729647E-05	2.470144E-05
3.663947E+03	7.576186E-05	2.421072E-05
3.673849E+03	7.429842E-05	2.374275E-05
3.683752E+03	7.290163E-05	2.329609E-05
3.693654E+03	7.157094E-05	2.287056E-05
3.703557E+03	7.030259E-05	2.246496E-05
3.713460E+03	6.909481E-05	2.207872E-05
3.723362E+03	6.794575E-05	2.171126E-05
3.733265E+03	6.685205E-05	2.136149E-05
3.743167E+03	6.581312E-05	2.102924E-05
3.753070E+03	6.482617E-05	2.071360E-05
3.762972E+03	6.388965E-05	2.041407E-05
3.772875E+03	6.300146E-05	2.013000E-05
3.782777E+03	6.216011E-05	1.986090E-05
3.792680E+03	6.136366E-05	1.960616E-05
3.802583E+03	6.061072E-05	1.936532E-05
3.812485E+03	5.989944E-05	1.913779E-05
3.822388E+03	5.922903E-05	1.892333E-05
3.832290E+03	5.859775E-05	1.872137E-05
3.842193E+03	5.800396E-05	1.853140E-05
3.852095E+03	5.744649E-05	1.835303E-05
3.861998E+03	5.692383E-05	1.818579E-05
3.871900E+03	5.643537E-05	1.802947E-05
3.881803E+03	5.597964E-05	1.788362E-05
3.891706E+03	5.555567E-05	1.774791E-05
3.901608E+03	5.516214E-05	1.762193E-05
3.911511E+03	5.479773E-05	1.750526E-05
3.921413E+03	5.446244E-05	1.739789E-05
3.931316E+03	5.415421E-05	1.729916E-05
3.941218E+03	5.387271E-05	1.720898E-05
3.951121E+03	5.361675E-05	1.712695E-05
3.961024E+03	5.338567E-05	1.705288E-05
3.970926E+03	5.317877E-05	1.698653E-05
3.980829E+03	5.299466E-05	1.692746E-05
3.990731E+03	5.283307E-05	1.687558E-05
4.000634E+03	5.269310E-05	1.683060E-05
4.010536E+03	5.257417E-05	1.679235E-05
4.020439E+03	5.247534E-05	1.676052E-05
4.030341E+03	5.239575E-05	1.673483E-05
4.040244E+03	5.233534E-05	1.671527E-05
4.050147E+03	5.229285E-05	1.670143E-05
4.060049E+03	5.226788E-05	1.669318E-05
4.069952E+03	5.226007E-05	1.669041E-05
4.079854E+03	5.226821E-05	1.669274E-05
4.089757E+03	5.229239E-05	1.670018E-05
4.099659E+03	5.233152E-05	1.671240E-05
4.109562E+03	5.238520E-05	1.672927E-05
4.119464E+03	5.245326E-05	1.675072E-05
4.129367E+03	5.253456E-05	1.677640E-05
4.139270E+03	5.262927E-05	1.680636E-05
4.149172E+03	5.273596E-05	1.684014E-05
4.159075E+03	5.285526E-05	1.687794E-05
4.168977E+03	5.298570E-05	1.691930E-05
4.178880E+03	5.312709E-05	1.696415E-05
4.188782E+03	5.327893E-05	1.701234E-05
4.198685E+03	5.344098E-05	1.706378E-05
4.208587E+03	5.361191E-05	1.711806E-05
4.218490E+03	5.379198E-05	1.717525E-05
4.228393E+03	5.398024E-05	1.723505E-05
4.238295E+03	5.417575E-05	1.729716E-05
4.248198E+03	5.437834E-05	1.736153E-05
4.258100E+03	5.458755E-05	1.742801E-05
4.268003E+03	5.480196E-05	1.749614E-05
4.277905E+03	5.502105E-05	1.756576E-05
4.287808E+03	5.524426E-05	1.763670E-05
4.297711E+03	5.547107E-05	1.770878E-05
4.307613E+03	5.570091E-05	1.778182E-05
4.317516E+03	5.593373E-05	1.785581E-05
4.327418E+03	5.616896E-05	1.793056E-05
4.337321E+03	5.640605E-05	1.800590E-05
4.347223E+03	5.664583E-05	1.808210E-05
4.357126E+03	5.688778E-05	1.815898E-05
4.367028E+03	5.713187E-05	1.823654E-05
4.376931E+03	5.737848E-05	1.831490E-05
4.386834E+03	5.762764E-05	1.839407E-05
4.396736E+03	5.787887E-05	1.847390E-05
4.406639E+03	5.813268E-05	1.855454E-05
4.416541E+03	5.838860E-05	1.863585E-05
4.426444E+03	5.864676E-05	1.871787E-05
4.436346E+03	5.890720E-05	1.880062E-05
4.446249E+03	5.916907E-05	1.888381E-05
4.456151E+03	5.943302E-05	1.896766E-05
4.466054E+03	5.969872E-05	1.905207E-05
4.475957E+03	5.996582E-05	1.913692E-05
4.485859E+03	6.023454E-05	1.922228E-05
4.495762E+03	6.050414E-05	1.930791E-05
4.505664E+03	6.077488E-05	1.939390E-05
4.515567E+03	6.104701E-05	1.948033E-05
4.525469E+03	6.132038E-05	1.956715E-05
4.535372E+03	6.159429E-05	1.965413E-05
4.545274E+03	6.186908E-05	1.974139E-05
4.555177E+03	6.214469E-05	1.982890E-05
4.565080E+03	6.242093E-05	1.991661E-05
4.574982E+03	6.269827E-05	2.000467E-05
4.584885E+03	6.297615E-05	2.009288E-05
4.594787E+03	6.325505E-05	2.018142E-05
4.604690E+03	6.353494E-05	2.027027E-05
4.614592E+03	6.381582E-05	2.035943E-05
4.624495E+03	6.409772E-05	2.044891E-05
4.634398E+03	6.438069E-05	2.053871E-05
4.644300E+03	6.466471E-05	2.062885E-05
4.654203E+03	6.495105E-05	2.071973E-05
4.664105E+03	6.523980E-05	2.081136E-05
4.674008E+03	6.553112E-05	2.090381E-05
4.683910E+03	6.582625E-05	2.099746E-05
4.693813E+03	6.612481E-05	2.109220E-05
4.703715E+03	6.642694E-05	2.118808E-05
4.713618E+03	6.673347E-05	2.128535E-05
4.723521E+03	6.704463E-05	2.138408E-05
4.733423E+03	6.736001E-05	2.148416E-05
4.743326E+03	6.768043E-05	2.158584E-05
4.753228E+03	6.800620E-05	2.168922E-05
4.763131E+03	6.833694E-05	2.179417E-05
4.773033E+03	6.867352E-05	2.190097E-05
4.782936E+03	6.901625E-05	2.200973E-05
4.792838E+03	6.936540E-05	2.212053E-05
4.802741E+03	6.972131E-05	2.223347E-05
4.812644E+03	7.008365E-05	2.234846E-05
4.822546E+03	7.045402E-05	2.246600E-05
4.832449E+03	7.083149E-05	2.258579E-05
4.842351E+03	7.121634E-05	2.270792E-05
4.852254E+03	7.160960E-05	2.283273E-05
4.862156E+03	7.201164E-05	2.296033E-05
4.872059E+03	7.242277E-05	2.309082E-05
4.881961E+03	7.284203E-05	2.322389E-05
4.891864E+03	7.327112E-05	2.336008E-05
4.901767E+03	7.370971E-05	2.349929E-05
4.911669E+03	7.415813E-05	2.364162E-05
4.921572E+03	7.461671E-05	2.378718E-05
4.931474E+03	7.508581E-05	2.393608E-05
4.941377E+03	7.556502E-05	2.408819E-05
4.951279E+03	7.605471E-05	2.424363E-05
4.961182E+03	7.655582E-05	2.440270E-05
4.971085E+03	7.706799E-05	2.456528E-05
4.980987E+03	7.759071E-05	2.473121E-05
4.990890E+03	7.812576E-05	2.490106E-05
5.000792E+03	7.867117E-05	2.507420E-05
5.010695E+03	7.922860E-05	2.525115E-05
5.020597E+03	7.979838E-05	2.543203E-05
5.030500E+03	8.037833E-05	2.561613E-05
5.040402E+03	8.097100E-05	2.580427E-05
5.050305E+03	8.157501E-05	2.599601E-05
5.060208E+03	8.219045E-05	2.619138E-05
5.070110E+03	8.281835E-05	2.639070E-05
5.080013E+03	8.345719E-05	2.659349E-05
5.089915E+03	8.410705E-05	2.679978E-05
5.099818E+03	8.476881E-05	2.700984E-05
5.109720E+03	8.544180E-05	2.722346E-05
5.119623E+03	8.612595E-05	2.744063E-05
5.129525E+03	8.682053E-05	2.766109E-05
5.139428E+03	8.752631E-05	2.788511E-05
5.149331E+03	8.824162E-05	2.811214E-05
5.159233E+03	8.896803E-05	2.834269E-05
5.169136E+03	8.970465E-05	2.857648E-05
5.179038E+03	9.045046E-05	2.881317E-05
5.188941E+03	9.120531E-05	2.905272E-05
5.198843E+03	9.196990E-05	2.929536E-05
5.208746E+03	9.274221E-05	2.954043E-05
5.218648E+03	9.352285E-05	2.978814E-05
5.228551E+03	9.431244E-05	3.003867E-05
5.238454E+03	9.510794E-05	3.029107E-05
5.248356E+03	9.591167E-05	3.054606E-05
5.258259E+03	9.672040E-05	3.080263E-05
5.268161E+03	9.753658E-05	3.106154E-05
5.278064E+03	9.835678E-05	3.132171E-05
5.287966E+03	9.918239E-05	3.158359E-05
5.297869E+03	1.000129E-04	3.184699E-05
5.307772E+03	1.008466E-04	3.211140E-05
5.317674E+03	1.016849E-04	3.237726E-05
5.327577E+03	1.025242E-04	3.264340E-05
5.337479E+03	1.033668E-04	3.291054E-05
5.347382E+03	1.042108E-04	3.317813E-05
5.357284E+03	1.050556E-04	3.344593E-05
5.367187E+03	1.059002E-04	3.371368E-05
5.377089E+03	1.067440E-04	3.398112E-05
5.386992E+03	1.075849E-04	3.424762E-05
5.396895E+03	1.084220E-04	3.451289E-05
5.406797E+03	1.092543E-04	3.477660E-05
5.416700E+03	1.100809E-04	3.503845E-05
5.426602E+03	1.108994E-04	3.529773E-05
5.436505E+03	1.117078E-04	3.555374E-05
5.446407E+03	1.125059E-04	3.580648E-05
5.456310E+03	1.132915E-04	3.605519E-05
5.466212E+03	1.140621E-04	3.629911E-05
5.476115E+03	1.148153E-04	3.653747E-05
5.486018E+03	1.155509E-04	3.677020E-05
5.495920E+03	1.162651E-04	3.699611E-05
5.505823E+03	1.169579E-04	3.721517E-05
5.515725E+03	1.176253E-04	3.742615E-05
5.525628E+03	1.182660E-04	3.762857E-05
5.535530E+03	1.188797E-04	3.782239E-05
5.545433E+03	1.194625E-04	3.800637E-05
5.555335E+03	1.200142E-04	3.818043E-05
5.565238E+03	1.205334E-04	3.834415E-05
5.575141E+03	1.210176E-04	3.849668E-05
5.585043E+03	1.214654E-04	3.863763E-05
5.594946E+03	1.218768E-04	3.876696E-05
5.604848E+03	1.222505E-04	3.888431E-05
5.614751E+03	1.225843E-04	3.898892E-05
5.624653E+03	1.228782E-04	3.908085E-05
5.634556E+03	1.231327E-04	3.916022E-05
5.644459E+03	1.233443E-04	3.922594E-05
5.654361E+03	1.235134E-04	3.927816E-05
5.664264E+03	1.236409E-04	3.931711E-05
5.674166E+03	1.237262E-04	3.934260E-05
5.684069E+03	1.237687E-04	3.935451E-05
5.693971E+03	1.237682E-04	3.935274E-05
5.703874E+03	1.237246E-04	3.933724E-05
5.713776E+03	1.236391E-04	3.930842E-05
5.723679E+03	1.235105E-04	3.926589E-05
5.733582E+03	1.233416E-04	3.921053E-05
5.743484E+03	1.231313E-04	3.914204E-05
5.753387E+03	1.228803E-04	3.906058E-05
5.763289E+03	1.225917E-04	3.896718E-05
5.773192E+03	1.222636E-04	3.886120E-05
5.783094E+03	1.218980E-04	3.874334E-05
5.792997E+03	1.214974E-04	3.861432E-05
5.802899E+03	1.210613E-04	3.847406E-05
5.812802E+03	1.205924E-04	3.832335E-05
5.822705E+03	1.200905E-04	3.816217E-05
5.832607E+03	1.195597E-04	3.799179E-05
5.842510E+03	1.190000E-04	3.781226E-05
5.852412E+03	1.184129E-04	3.762404E-05
5.862315E+03	1.178014E-04	3.742806E-05
5.872217E+03	1.171658E-04	3.722442E-05
5.882120E+03	1.165089E-04	3.701405E-05
5.892022E+03	1.158313E-04	3.679708E-05
5.901925E+03	1.151358E-04	3.657446E-05
5.911828E+03	1.144243E-04	3.634676E-05
5.921730E+03	1.136983E-04	3.611449E-05
5.931633E+03	1.129584E-04	3.587779E-05
5.941535E+03	1.122074E-04	3.563760E-05
5.951438E+03	1.114471E-04	3.539445E-05
5.961340E+03	1.106777E-04	3.514845E-05
5.971243E+03	1.099022E-04	3.490051E-05
5.981146E+03	1.091208E-04	3.465070E-05
5.991048E+03	1.083337E-04	3.439911E-05
6.000951E+03	1.075448E-04	3.414698E-05
6.010853E+03	1.067531E-04	3.389396E-05
6.020756E+03	1.059612E-04	3.364089E-05
6.030658E+03	1.051677E-04	3.338736E-05
6.040561E+03	1.043753E-04	3.313415E-05
6.050463E+03	1.035837E-04	3.288125E-05
6.060366E+03	1.027942E-04	3.262900E-05
6.070269E+03	1.020077E-04	3.237775E-05
6.080171E+03	1.012240E-04	3.212739E-05
6.090074E+03	1.004441E-04	3.187825E-05
6.099976E+03	9.966883E-05	3.163059E-05
6.109879E+03	9.889894E-05	3.138467E-05
6.119781E+03	9.813524E-05	3.114073E-05
6.129684E+03	9.737721E-05	3.089861E-05
6.139586E+03	9.662669E-05	3.065888E-05
6.149489E+03	9.588428E-05	3.042175E-05
6.159392E+03	9.515051E-05	3.018737E-05
6.169294E+03	9.442713E-05	2.995631E-05
6.179197E+03	9.371571E-05	2.972906E-05
6.189099E+03	9.301793E-05	2.950615E-05
6.199002E+03	9.233527E-05	2.928806E-05
6.208904E+03	9.166929E-05	2.907527E-05
6.218807E+03	9.102262E-05	2.886862E-05
6.228709E+03	9.039426E-05	2.866779E-05
6.238612E+03	8.978926E-05	2.847439E-05
6.248515E+03	8.920656E-05	2.828807E-05
6.258417E+03	8.864867E-05	2.810964E-05
6.268320E+03	8.811693E-05	2.793950E-05
6.278222E+03	8.761262E-05	2.777808E-05
6.288125E+03	8.713583E-05	2.762539E-05
6.298027E+03	8.668782E-05	2.748183E-05
6.307930E+03	8.626987E-05	2.734782E-05
6.317833E+03	8.588204E-05	2.722336E-05
6.327735E+03	8.552435E-05	2.710846E-05
6.337638E+03	8.519811E-05	2.700353E-05
6.347540E+03	8.490087E-05	2.690780E-05
6.357443E+03	8.463266E-05	2.682128E-05
6.367345E+03	8.439231E-05	2.674359E-05
6.377248E+03	8.417731E-05	2.667393E-05
6.387150E+03	8.398895E-05	2.661271E-05
6.397053E+03	8.382473E-05	2.655915E-05
6.406956E+03	8.368592E-05	2.651363E-05
6.416858E+03	8.357255E-05	2.647618E-05
6.426761E+03	8.348337E-05	2.644638E-05
6.436663E+03	8.341841E-05	2.642426E-05
6.446566E+03	8.337765E-05	2.640979E-05
6.456468E+03	8.336111E-05	2.640300E-05
6.466371E+03	8.336884E-05	2.640388E-05
6.476273E+03	8.340217E-05	2.641286E-05
6.486176E+03	8.345984E-05	2.642955E-05
6.496079E+03	8.354055E-05	2.645352E-05
6.505981E+03	8.364698E-05	2.648563E-05
6.515884E+03	8.377656E-05	2.652506E-05
6.525786E+03	8.393060E-05	2.657222E-05
6.535689E+03	8.410923E-05	2.662715E-05
6.545591E+03	8.431254E-05	2.668988E-05
6.555494E+03	8.454051E-05	2.676041E-05
6.565396E+03	8.479190E-05	2.683833E-05
6.575299E+03	8.506814E-05	2.692410E-05
6.585202E+03	8.536790E-05	2.701730E-05
6.595104E+03	8.569276E-05	2.711842E-05
6.605007E+03	8.604129E-05	2.722702E-05
6.614909E+03	8.641363E-05	2.734312E-05
6.624812E+03	8.681133E-05	2.746723E-05
6.634714E+03	8.723452E-05	2.759939E-05
6.644617E+03	8.768033E-05	2.773868E-05
6.654520E+03	8.815189E-05	2.788609E-05
6.664422E+03	8.864630E-05	2.804070E-05
6.674325E+03	8.916670E-05	2.820351E-05
6.684227E+03	8.971173E-05	2.837408E-05
6.694130E+03	9.027995E-05	2.855195E-05
6.704032E+03	9.087464E-05	2.873817E-05
6.713935E+03	9.149278E-05	2.893177E-05
6.723837E+03	9.213608E-05	2.913330E-05
6.733740E+03	9.280473E-05	2.934281E-05
6.743643E+03	9.349887E-05	2.956034E-05
6.753545E+03	9.421702E-05	2.978543E-05
6.763448E+03	9.496095E-05	3.001863E-05
6.773350E+03	9.572918E-05	3.025948E-05
6.783253E+03	9.652351E-05	3.050853E-05
6.793155E+03	9.734239E-05	3.076531E-05
6.803058E+03	9.818593E-05	3.102984E-05
6.812960E+03	9.905610E-05	3.130274E-05
6.822863E+03	9.994940E-05	3.158291E-05
6.832766E+03	1.008696E-04	3.187154E-05
6.842668E+03	1.018150E-04	3.216808E-05
6.852571E+03	1.027858E-04	3.247258E-05
6.862473E+03	1.037820E-04	3.278507E-05
6.872376E+03	1.048037E-04	3.310560E-05
6.882278E+03	1.058492E-04	3.343356E-05
6.892181E+03	1.069205E-04	3.376961E-05
6.902083E+03	1.080177E-04	3.411379E-05
6.911986E+03	1.091408E-04	3.446613E-05
6.921889E+03	1.102858E-04	3.482531E-05
6.931791E+03	1.114592E-04	3.519337E-05
6.941694E+03	1.126544E-04	3.556828E-05
6.951596E+03	1.138759E-04	3.595144E-05
6.961499E+03	1.151215E-04	3.634214E-05
6.971401E+03	1.163912E-04	3.674039E-05
6.981304E+03	1.176850E-04	3.714619E-05
6.991207E+03	1.190029E-04	3.755954E-05
7.001109E+03	1.203425E-04	3.797966E-05
7.011012E+03	1.217061E-04	3.840727E-05
7.020914E+03	1.230936E-04	3.884237E-05
7.030817E+03	1.245025E-04	3.928416E-05
7.040719E+03	1.259352E-04	3.973338E-05
7.050622E+03	1.273890E-04	4.018919E-05
7.060524E+03	1.288637E-04	4.065154E-05
7.070427E+03	1.303592E-04	4.112035E-05
7.080330E+03	1.318779E-04	4.159641E-05
7.090232E+03	1.334142E-04	4.207795E-05
7.100135E+03	1.349677E-04	4.256485E-05
7.110037E+03	1.365438E-04	4.305879E-05
7.119940E+03	1.381365E-04	4.355788E-05
7.129842E+03	1.397454E-04	4.406200E-05
7.139745E+03	1.413730E-04	4.457195E-05
7.149647E+03	1.430160E-04	4.508666E-05
7.159550E+03	1.446739E-04	4.560598E-05
7.169453E+03	1.463461E-04	4.612975E-05
7.179355E+03	1.480322E-04	4.665780E-05
7.189258E+03	1.497348E-04	4.719097E-05
7.199160E+03	1.514469E-04	4.772705E-05
7.209063E+03	1.531745E-04	4.826793E-05
7.218965E+03	1.549136E-04	4.881235E-05
7.228868E+03	1.566637E-04	4.936013E-05
7.238770E+03	1.584275E-04	4.991215E-05
7.248673E+03	1.602009E-04	5.046713E-05
7.258576E+03	1.619869E-04	5.102597E-05
7.268478E+03	1.637848E-04	5.158847E-05
7.278381E+03	1.655978E-04	5.215563E-05
7.288283E+03	1.674254E-04	5.272731E-05
7.298186E+03	1.692709E-04	5.330454E-05
7.308088E+03	1.711302E-04	5.388602E-05
7.317991E+03	1.730147E-04	5.447532E-05
7.327894E+03	1.749243E-04	5.507245E-05
7.337796E+03	1.768549E-04	5.567612E-05
7.347699E+03	1.788190E-04	5.629019E-05
7.357601E+03	1.808126E-04	5.691348E-05
7.367504E+03	1.828401E-04	5.754735E-05
7.377406E+03	1.848977E-04	5.819059E-05
7.387309E+03	1.869900E-04	5.884463E-05
7.397211E+03	1.891038E-04	5.950536E-05
7.407114E+03	1.912482E-04	6.017559E-05
7.417017E+03	1.934093E-04	6.085099E-05
7.426919E+03	1.955915E-04	6.153291E-05
7.436822E+03	1.977897E-04	6.221976E-05
7.446724E+03	1.999987E-04	6.290988E-05
7.456627E+03	2.022224E-04	6.360456E-05
7.466529E+03	2.044457E-04	6.429899E-05
7.476432E+03	2.066773E-04	6.499592E-05
7.486334E+03	2.089113E-04	6.569349E-05
7.496237E+03	2.111467E-04	6.639141E-05
7.506140E+03	2.133772E-04	6.708767E-05
7.516042E+03	2.156067E-04	6.778352E-05
7.525945E+03	2.178288E-04	6.847694E-05
7.535847E+03	2.200421E-04	6.916748E-05
7.545750E+03	2.222507E-04	6.985644E-05
7.555652E+03	2.244478E-04	7.054169E-05
7.565555E+03	2.266376E-04	7.122454E-05
7.575457E+03	2.288074E-04	7.190100E-05
7.585360E+03	2.309671E-04	7.257418E-05
7.595263E+03	2.331095E-04	7.324182E-05
7.605165E+03	2.352390E-04	7.390532E-05
7.615068E+03	2.373482E-04	7.456235E-05
7.624970E+03	2.394356E-04	7.521243E-05
7.634873E+03	2.414995E-04	7.585504E-05
7.644775E+03	2.435509E-04	7.649367E-05
7.654678E+03	2.455697E-04	7.712192E-05
7.664581E+03	2.475733E-04	7.774532E-05
7.674483E+03	2.495474E-04	7.835937E-05
7.684386E+03	2.514971E-04	7.896568E-05
