#wls	flux	fluxerr
1.584409E+03	3.410704E-03	5.564376E-04
1.624020E+03	3.527810E-03	5.755334E-04
1.663630E+03	3.641543E-03	5.940781E-04
1.703240E+03	3.750694E-03	6.118742E-04
1.742850E+03	3.854320E-03	6.287682E-04
1.782461E+03	3.950990E-03	6.445268E-04
1.822071E+03	4.039562E-03	6.589633E-04
1.861681E+03	4.118804E-03	6.718769E-04
1.901291E+03	4.187046E-03	6.829954E-04
1.940902E+03	4.242960E-03	6.921022E-04
1.980512E+03	4.285201E-03	6.989780E-04
2.020122E+03	4.312448E-03	7.034074E-04
2.059732E+03	4.323126E-03	7.051337E-04
2.099342E+03	4.316127E-03	7.039763E-04
2.138953E+03	4.289919E-03	6.996857E-04
2.178563E+03	4.243314E-03	6.920681E-04
2.218173E+03	4.174474E-03	6.808239E-04
2.257783E+03	4.082266E-03	6.657691E-04
2.297394E+03	3.968844E-03	6.472549E-04
2.337004E+03	3.837232E-03	6.257745E-04
2.376614E+03	3.689830E-03	6.017202E-04
2.416224E+03	3.528574E-03	5.754074E-04
2.455835E+03	3.355269E-03	5.471309E-04
2.495445E+03	3.171959E-03	5.172243E-04
2.535055E+03	2.980473E-03	4.859858E-04
2.574665E+03	2.783012E-03	4.537746E-04
2.614276E+03	2.581588E-03	4.209189E-04
2.653886E+03	2.378140E-03	3.877349E-04
2.693496E+03	2.174899E-03	3.545864E-04
2.733106E+03	1.973888E-03	3.218035E-04
2.772716E+03	1.777116E-03	2.897136E-04
2.812327E+03	1.586485E-03	2.586269E-04
2.851937E+03	1.403853E-03	2.288461E-04
2.891547E+03	1.231130E-03	2.006824E-04
2.931157E+03	1.070156E-03	1.744359E-04
2.970768E+03	9.222807E-04	1.503262E-04
2.980670E+03	8.874565E-04	1.446486E-04
2.990573E+03	8.535433E-04	1.391196E-04
3.000475E+03	8.204990E-04	1.337323E-04
3.010378E+03	7.883434E-04	1.284900E-04
3.020280E+03	7.571096E-04	1.233980E-04
3.030183E+03	7.267591E-04	1.184501E-04
3.040086E+03	6.973205E-04	1.136509E-04
3.049988E+03	6.687883E-04	1.089995E-04
3.059891E+03	6.411556E-04	1.044948E-04
3.069793E+03	6.144164E-04	1.001358E-04
3.079696E+03	5.885883E-04	9.592537E-05
3.089598E+03	5.636484E-04	9.185978E-05
3.099501E+03	5.395981E-04	8.793927E-05
3.109403E+03	5.164255E-04	8.416187E-05
3.119306E+03	4.941179E-04	8.052551E-05
3.129209E+03	4.726708E-04	7.702947E-05
3.139111E+03	4.520765E-04	7.367246E-05
3.149014E+03	4.323007E-04	7.044893E-05
3.158916E+03	4.133503E-04	6.735995E-05
3.168819E+03	3.951967E-04	6.440090E-05
3.178721E+03	3.778263E-04	6.156952E-05
3.188624E+03	3.612169E-04	5.886223E-05
3.198526E+03	3.453404E-04	5.627441E-05
3.208429E+03	3.301915E-04	5.380522E-05
3.218332E+03	3.157294E-04	5.144799E-05
3.228234E+03	3.019468E-04	4.920154E-05
3.238137E+03	2.888184E-04	4.706175E-05
3.248039E+03	2.763110E-04	4.502317E-05
3.257942E+03	2.644137E-04	4.308406E-05
3.267844E+03	2.530937E-04	4.123907E-05
3.277747E+03	2.423318E-04	3.948504E-05
3.287650E+03	2.321045E-04	3.781816E-05
3.297552E+03	2.223917E-04	3.623516E-05
3.307455E+03	2.131679E-04	3.473185E-05
3.317357E+03	2.044111E-04	3.330467E-05
3.327260E+03	1.961002E-04	3.195017E-05
3.337162E+03	1.882173E-04	3.066544E-05
3.347065E+03	1.807398E-04	2.944679E-05
3.356967E+03	1.736485E-04	2.829110E-05
3.366870E+03	1.669252E-04	2.719537E-05
3.376773E+03	1.605500E-04	2.615639E-05
3.386675E+03	1.545064E-04	2.517145E-05
3.396578E+03	1.487783E-04	2.423794E-05
3.406480E+03	1.433487E-04	2.335308E-05
3.416383E+03	1.382033E-04	2.251453E-05
3.426285E+03	1.333267E-04	2.171979E-05
3.436188E+03	1.287044E-04	2.096652E-05
3.446090E+03	1.243230E-04	2.025249E-05
3.455993E+03	1.201683E-04	1.957541E-05
3.465896E+03	1.162298E-04	1.893358E-05
3.475798E+03	1.124950E-04	1.832494E-05
3.485701E+03	1.089512E-04	1.774741E-05
3.495603E+03	1.055853E-04	1.719889E-05
3.505506E+03	1.023888E-04	1.667797E-05
3.515408E+03	9.935042E-05	1.618283E-05
3.525311E+03	9.645799E-05	1.571147E-05
3.535213E+03	9.370316E-05	1.526253E-05
3.545116E+03	9.107732E-05	1.483461E-05
3.555019E+03	8.857161E-05	1.442628E-05
3.564921E+03	8.617709E-05	1.403606E-05
3.574824E+03	8.388868E-05	1.366314E-05
3.584726E+03	8.170004E-05	1.330647E-05
3.594629E+03	7.960513E-05	1.296508E-05
3.604531E+03	7.760190E-05	1.263863E-05
3.614434E+03	7.568602E-05	1.232641E-05
3.624337E+03	7.385399E-05	1.202786E-05
3.634239E+03	7.210300E-05	1.174252E-05
3.644142E+03	7.043019E-05	1.146991E-05
3.654044E+03	6.883212E-05	1.120948E-05
3.663947E+03	6.730723E-05	1.096098E-05
3.673849E+03	6.585150E-05	1.072375E-05
3.683752E+03	6.446278E-05	1.049743E-05
3.693654E+03	6.313948E-05	1.028178E-05
3.703557E+03	6.187725E-05	1.007607E-05
3.713460E+03	6.067565E-05	9.880244E-06
3.723362E+03	5.953053E-05	9.693620E-06
3.733265E+03	5.844096E-05	9.516046E-06
3.743167E+03	5.740450E-05	9.347125E-06
3.753070E+03	5.641880E-05	9.186473E-06
3.762972E+03	5.548208E-05	9.033800E-06
3.772875E+03	5.459215E-05	8.888751E-06
3.782777E+03	5.374738E-05	8.751058E-06
3.792680E+03	5.294615E-05	8.620457E-06
3.802583E+03	5.218654E-05	8.496637E-06
3.812485E+03	5.146712E-05	8.379363E-06
3.822388E+03	5.078647E-05	8.268405E-06
3.832290E+03	5.014290E-05	8.163486E-06
3.842193E+03	4.953513E-05	8.064399E-06
3.852095E+03	4.896200E-05	7.970952E-06
3.861998E+03	4.842197E-05	7.882898E-06
3.871900E+03	4.791397E-05	7.800058E-06
3.881803E+03	4.743657E-05	7.722204E-06
3.891706E+03	4.698919E-05	7.649238E-06
3.901608E+03	4.657047E-05	7.580939E-06
3.911511E+03	4.617954E-05	7.517166E-06
3.921413E+03	4.581482E-05	7.457659E-06
3.931316E+03	4.547618E-05	7.402400E-06
3.941218E+03	4.516212E-05	7.351144E-06
3.951121E+03	4.487188E-05	7.303765E-06
3.961024E+03	4.460438E-05	7.260088E-06
3.970926E+03	4.435930E-05	7.220061E-06
3.980829E+03	4.413527E-05	7.183461E-06
3.990731E+03	4.393197E-05	7.150236E-06
4.000634E+03	4.374818E-05	7.120186E-06
4.010536E+03	4.358361E-05	7.093265E-06
4.020439E+03	4.343706E-05	7.069276E-06
4.030341E+03	4.330800E-05	7.048135E-06
4.040244E+03	4.319593E-05	7.029758E-06
4.050147E+03	4.310041E-05	7.014073E-06
4.060049E+03	4.302031E-05	7.000900E-06
4.069952E+03	4.295519E-05	6.990163E-06
4.079854E+03	4.290438E-05	6.981753E-06
4.089757E+03	4.286746E-05	6.975605E-06
4.099659E+03	4.284411E-05	6.971662E-06
4.109562E+03	4.283334E-05	6.969768E-06
4.119464E+03	4.283515E-05	6.969919E-06
4.129367E+03	4.284864E-05	6.971968E-06
4.139270E+03	4.287349E-05	6.975867E-06
4.149172E+03	4.290951E-05	6.981581E-06
4.159075E+03	4.295580E-05	6.988965E-06
4.168977E+03	4.301214E-05	6.997983E-06
4.178880E+03	4.307802E-05	7.008551E-06
4.188782E+03	4.315361E-05	7.020698E-06
4.198685E+03	4.323777E-05	7.034238E-06
4.208587E+03	4.333067E-05	7.049199E-06
4.218490E+03	4.343154E-05	7.065453E-06
4.228393E+03	4.354058E-05	7.083037E-06
4.238295E+03	4.365674E-05	7.101775E-06
4.248198E+03	4.377986E-05	7.121645E-06
4.258100E+03	4.390991E-05	7.142639E-06
4.268003E+03	4.404575E-05	7.164575E-06
4.277905E+03	4.418771E-05	7.187503E-06
4.287808E+03	4.433432E-05	7.211186E-06
4.297711E+03	4.448587E-05	7.235670E-06
4.307613E+03	4.464056E-05	7.260663E-06
4.317516E+03	4.479831E-05	7.286150E-06
4.327418E+03	4.496011E-05	7.312296E-06
4.337321E+03	4.512592E-05	7.339090E-06
4.347223E+03	4.529611E-05	7.366594E-06
4.357126E+03	4.547063E-05	7.394801E-06
4.367028E+03	4.564877E-05	7.423594E-06
4.376931E+03	4.583129E-05	7.453097E-06
4.386834E+03	4.601749E-05	7.483196E-06
4.396736E+03	4.620740E-05	7.513895E-06
4.406639E+03	4.640072E-05	7.545147E-06
4.416541E+03	4.659753E-05	7.576962E-06
4.426444E+03	4.679716E-05	7.609235E-06
4.436346E+03	4.700010E-05	7.642041E-06
4.446249E+03	4.720570E-05	7.675279E-06
4.456151E+03	4.741375E-05	7.708912E-06
4.466054E+03	4.762484E-05	7.743035E-06
4.475957E+03	4.783796E-05	7.777486E-06
4.485859E+03	4.805337E-05	7.812307E-06
4.495762E+03	4.827132E-05	7.847537E-06
4.505664E+03	4.849128E-05	7.883092E-06
4.515567E+03	4.871363E-05	7.919031E-06
4.525469E+03	4.893788E-05	7.955276E-06
4.535372E+03	4.916437E-05	7.991883E-06
4.545274E+03	4.939313E-05	8.028855E-06
4.555177E+03	4.962414E-05	8.066189E-06
4.565080E+03	4.985701E-05	8.103822E-06
4.574982E+03	5.009259E-05	8.141893E-06
4.584885E+03	5.033011E-05	8.180275E-06
4.594787E+03	5.057002E-05	8.219044E-06
4.604690E+03	5.081239E-05	8.258207E-06
4.614592E+03	5.105684E-05	8.297706E-06
4.624495E+03	5.130433E-05	8.337695E-06
4.634398E+03	5.155404E-05	8.378041E-06
4.644300E+03	5.180650E-05	8.418829E-06
4.654203E+03	5.206271E-05	8.460225E-06
4.664105E+03	5.232232E-05	8.502168E-06
4.674008E+03	5.258589E-05	8.544751E-06
4.683910E+03	5.285399E-05	8.588065E-06
4.693813E+03	5.312679E-05	8.632140E-06
4.703715E+03	5.340441E-05	8.676994E-06
4.713618E+03	5.368797E-05	8.722810E-06
4.723521E+03	5.397665E-05	8.769452E-06
4.733423E+03	5.427160E-05	8.817108E-06
4.743326E+03	5.457298E-05	8.865806E-06
4.753228E+03	5.488054E-05	8.915503E-06
4.763131E+03	5.519543E-05	8.966385E-06
4.773033E+03	5.551740E-05	9.018412E-06
4.782936E+03	5.584662E-05	9.071613E-06
4.792838E+03	5.618337E-05	9.126032E-06
4.802741E+03	5.652791E-05	9.181710E-06
4.812644E+03	5.688146E-05	9.238848E-06
4.822546E+03	5.724279E-05	9.297243E-06
4.832449E+03	5.761319E-05	9.357106E-06
4.842351E+03	5.799240E-05	9.418396E-06
4.852254E+03	5.838130E-05	9.481251E-06
4.862156E+03	5.877957E-05	9.545625E-06
4.872059E+03	5.918758E-05	9.611571E-06
4.881961E+03	5.960609E-05	9.679219E-06
4.891864E+03	6.003433E-05	9.748440E-06
4.901767E+03	6.047315E-05	9.819372E-06
4.911669E+03	6.092279E-05	9.892053E-06
4.921572E+03	6.138355E-05	9.966534E-06
4.931474E+03	6.185512E-05	1.004276E-05
4.941377E+03	6.233775E-05	1.012078E-05
4.951279E+03	6.283225E-05	1.020072E-05
4.961182E+03	6.333770E-05	1.028243E-05
4.971085E+03	6.385551E-05	1.036613E-05
4.980987E+03	6.438465E-05	1.045167E-05
4.990890E+03	6.492537E-05	1.053908E-05
5.000792E+03	6.547840E-05	1.062848E-05
5.010695E+03	6.604333E-05	1.071980E-05
5.020597E+03	6.662032E-05	1.081307E-05
5.030500E+03	6.720883E-05	1.090820E-05
5.040402E+03	6.780968E-05	1.100533E-05
5.050305E+03	6.842292E-05	1.110446E-05
5.060208E+03	6.904742E-05	1.120540E-05
5.070110E+03	6.968388E-05	1.130828E-05
5.080013E+03	7.033239E-05	1.141310E-05
5.089915E+03	7.099305E-05	1.151988E-05
5.099818E+03	7.166523E-05	1.162852E-05
5.109720E+03	7.234903E-05	1.173904E-05
5.119623E+03	7.304377E-05	1.185132E-05
5.129525E+03	7.375092E-05	1.196560E-05
5.139428E+03	7.446915E-05	1.208167E-05
5.149331E+03	7.519849E-05	1.219953E-05
5.159233E+03	7.593895E-05	1.231918E-05
5.169136E+03	7.669133E-05	1.244076E-05
5.179038E+03	7.745416E-05	1.256401E-05
5.188941E+03	7.822742E-05	1.268895E-05
5.198843E+03	7.901260E-05	1.281581E-05
5.208746E+03	7.980739E-05	1.294421E-05
5.218648E+03	8.061328E-05	1.307440E-05
5.228551E+03	8.142935E-05	1.320623E-05
5.238454E+03	8.225552E-05	1.333968E-05
5.248356E+03	8.309243E-05	1.347486E-05
5.258259E+03	8.393827E-05	1.361147E-05
5.268161E+03	8.479360E-05	1.374961E-05
5.278064E+03	8.565817E-05	1.388923E-05
5.287966E+03	8.653167E-05	1.403029E-05
5.297869E+03	8.741456E-05	1.417285E-05
5.307772E+03	8.830471E-05	1.431657E-05
5.317674E+03	8.920253E-05	1.446153E-05
5.327577E+03	9.010744E-05	1.460761E-05
5.337479E+03	9.101795E-05	1.475459E-05
5.347382E+03	9.193519E-05	1.490264E-05
5.357284E+03	9.285747E-05	1.505150E-05
5.367187E+03	9.378309E-05	1.520087E-05
5.377089E+03	9.471114E-05	1.535063E-05
5.386992E+03	9.564154E-05	1.550075E-05
5.396895E+03	9.657134E-05	1.565075E-05
5.406797E+03	9.750039E-05	1.580062E-05
5.416700E+03	9.842741E-05	1.595014E-05
5.426602E+03	9.934918E-05	1.609879E-05
5.436505E+03	1.002642E-04	1.624633E-05
5.446407E+03	1.011721E-04	1.639270E-05
5.456310E+03	1.020702E-04	1.653746E-05
5.466212E+03	1.029558E-04	1.668019E-05
5.476115E+03	1.038262E-04	1.682042E-05
5.486018E+03	1.046815E-04	1.695821E-05
5.495920E+03	1.055168E-04	1.709272E-05
5.505823E+03	1.063310E-04	1.722381E-05
5.515725E+03	1.071210E-04	1.735096E-05
5.525628E+03	1.078848E-04	1.747385E-05
5.535530E+03	1.086201E-04	1.759211E-05
5.545433E+03	1.093237E-04	1.770523E-05
5.555335E+03	1.099947E-04	1.781303E-05
5.565238E+03	1.106296E-04	1.791498E-05
5.575141E+03	1.112252E-04	1.801056E-05
5.585043E+03	1.117818E-04	1.809981E-05
5.594946E+03	1.122962E-04	1.818221E-05
5.604848E+03	1.127654E-04	1.825727E-05
5.614751E+03	1.131888E-04	1.832491E-05
5.624653E+03	1.135659E-04	1.838503E-05
5.634556E+03	1.138928E-04	1.843704E-05
5.644459E+03	1.141695E-04	1.848089E-05
5.654361E+03	1.143959E-04	1.851661E-05
5.664264E+03	1.145700E-04	1.854384E-05
5.674166E+03	1.146922E-04	1.856266E-05
5.684069E+03	1.147605E-04	1.857277E-05
5.693971E+03	1.147760E-04	1.857430E-05
5.703874E+03	1.147382E-04	1.856722E-05
5.713776E+03	1.146484E-04	1.855173E-05
5.723679E+03	1.145044E-04	1.852743E-05
5.733582E+03	1.143100E-04	1.849500E-05
5.743484E+03	1.140633E-04	1.845411E-05
5.753387E+03	1.137662E-04	1.840506E-05
5.763289E+03	1.134196E-04	1.834800E-05
5.773192E+03	1.130245E-04	1.828309E-05
5.783094E+03	1.125833E-04	1.821073E-05
5.792997E+03	1.120973E-04	1.813114E-05
5.802899E+03	1.115682E-04	1.804456E-05
5.812802E+03	1.109963E-04	1.795108E-05
5.822705E+03	1.103860E-04	1.785138E-05
5.832607E+03	1.097380E-04	1.774559E-05
5.842510E+03	1.090555E-04	1.763424E-05
5.852412E+03	1.083394E-04	1.751747E-05
5.862315E+03	1.075933E-04	1.739585E-05
5.872217E+03	1.068194E-04	1.726974E-05
5.882120E+03	1.060199E-04	1.713951E-05
5.892022E+03	1.051972E-04	1.700553E-05
5.901925E+03	1.043535E-04	1.686816E-05
5.911828E+03	1.034922E-04	1.672797E-05
5.921730E+03	1.026133E-04	1.658493E-05
5.931633E+03	1.017210E-04	1.643976E-05
5.941535E+03	1.008165E-04	1.629262E-05
5.951438E+03	9.990169E-05	1.614382E-05
5.961340E+03	9.897967E-05	1.599387E-05
5.971243E+03	9.804998E-05	1.584270E-05
5.981146E+03	9.711673E-05	1.569096E-05
5.991048E+03	9.617931E-05	1.553857E-05
6.000951E+03	9.524051E-05	1.538596E-05
6.010853E+03	9.430186E-05	1.523339E-05
6.020756E+03	9.336363E-05	1.508091E-05
6.030658E+03	9.242725E-05	1.492874E-05
6.040561E+03	9.149399E-05	1.477708E-05
6.050463E+03	9.056509E-05	1.462615E-05
6.060366E+03	8.964164E-05	1.447611E-05
6.070269E+03	8.872474E-05	1.432714E-05
6.080171E+03	8.781536E-05	1.417940E-05
6.090074E+03	8.691439E-05	1.403303E-05
6.099976E+03	8.602378E-05	1.388835E-05
6.109879E+03	8.514535E-05	1.374565E-05
6.119781E+03	8.428088E-05	1.360522E-05
6.129684E+03	8.343094E-05	1.346715E-05
6.139586E+03	8.259608E-05	1.333152E-05
6.149489E+03	8.177569E-05	1.319825E-05
6.159392E+03	8.097021E-05	1.306739E-05
6.169294E+03	8.018004E-05	1.293902E-05
6.179197E+03	7.940443E-05	1.281301E-05
6.189099E+03	7.864476E-05	1.268958E-05
6.199002E+03	7.790336E-05	1.256912E-05
6.208904E+03	7.717939E-05	1.245148E-05
6.218807E+03	7.647403E-05	1.233685E-05
6.228709E+03	7.578951E-05	1.222560E-05
6.238612E+03	7.512486E-05	1.211756E-05
6.248515E+03	7.448323E-05	1.201325E-05
6.258417E+03	7.386568E-05	1.191283E-05
6.268320E+03	7.327115E-05	1.181613E-05
6.278222E+03	7.270270E-05	1.172365E-05
6.288125E+03	7.216132E-05	1.163554E-05
6.298027E+03	7.164694E-05	1.155180E-05
6.307930E+03	7.116052E-05	1.147256E-05
6.317833E+03	7.070508E-05	1.139834E-05
6.327735E+03	7.027949E-05	1.132893E-05
6.337638E+03	6.988473E-05	1.126449E-05
6.347540E+03	6.952278E-05	1.120535E-05
6.357443E+03	6.919052E-05	1.115100E-05
6.367345E+03	6.888578E-05	1.110109E-05
6.377248E+03	6.860754E-05	1.105546E-05
6.387150E+03	6.835470E-05	1.101392E-05
6.397053E+03	6.812515E-05	1.097613E-05
6.406956E+03	6.791888E-05	1.094210E-05
6.416858E+03	6.773478E-05	1.091164E-05
6.426761E+03	6.757284E-05	1.088475E-05
6.436663E+03	6.743196E-05	1.086125E-05
6.446566E+03	6.731215E-05	1.084115E-05
6.456468E+03	6.721333E-05	1.082443E-05
6.466371E+03	6.713447E-05	1.081092E-05
6.476273E+03	6.707655E-05	1.080078E-05
6.486176E+03	6.703957E-05	1.079401E-05
6.496079E+03	6.702245E-05	1.079044E-05
6.505981E+03	6.702625E-05	1.079023E-05
6.515884E+03	6.704987E-05	1.079320E-05
6.525786E+03	6.709332E-05	1.079937E-05
6.535689E+03	6.715766E-05	1.080890E-05
6.545591E+03	6.724074E-05	1.082143E-05
6.555494E+03	6.734583E-05	1.083750E-05
6.565396E+03	6.746964E-05	1.085658E-05
6.575299E+03	6.761441E-05	1.087903E-05
6.585202E+03	6.777905E-05	1.090466E-05
6.595104E+03	6.796357E-05	1.093349E-05
6.605007E+03	6.816912E-05	1.096569E-05
6.614909E+03	6.839467E-05	1.100110E-05
6.624812E+03	6.864019E-05	1.103971E-05
6.634714E+03	6.890575E-05	1.108154E-05
6.644617E+03	6.919258E-05	1.112677E-05
6.654520E+03	6.949837E-05	1.117505E-05
6.664422E+03	6.982555E-05	1.122675E-05
6.674325E+03	7.017301E-05	1.128170E-05
6.684227E+03	7.054081E-05	1.133991E-05
6.694130E+03	7.092901E-05	1.140138E-05
6.704032E+03	7.133769E-05	1.146614E-05
6.713935E+03	7.176821E-05	1.153439E-05
6.723837E+03	7.221810E-05	1.160574E-05
6.733740E+03	7.268874E-05	1.168040E-05
6.743643E+03	7.318019E-05	1.175840E-05
6.753545E+03	7.369255E-05	1.183974E-05
6.763448E+03	7.422593E-05	1.192444E-05
6.773350E+03	7.478039E-05	1.201250E-05
6.783253E+03	7.535607E-05	1.210396E-05
6.793155E+03	7.595162E-05	1.219859E-05
6.803058E+03	7.656855E-05	1.229663E-05
6.812960E+03	7.720694E-05	1.239810E-05
6.822863E+03	7.786541E-05	1.250278E-05
6.832766E+03	7.854551E-05	1.261090E-05
6.842668E+03	7.924731E-05	1.272249E-05
6.852571E+03	7.996940E-05	1.283731E-05
6.862473E+03	8.071181E-05	1.295537E-05
6.872376E+03	8.147615E-05	1.307693E-05
6.882278E+03	8.226090E-05	1.320174E-05
6.892181E+03	8.306614E-05	1.332981E-05
6.902083E+03	8.389345E-05	1.346139E-05
6.911986E+03	8.474134E-05	1.359625E-05
6.921889E+03	8.560981E-05	1.373439E-05
6.931791E+03	8.649722E-05	1.387553E-05
6.941694E+03	8.740692E-05	1.402023E-05
6.951596E+03	8.833730E-05	1.416821E-05
6.961499E+03	8.928836E-05	1.431948E-05
6.971401E+03	9.025836E-05	1.447375E-05
6.981304E+03	9.124903E-05	1.463131E-05
6.991207E+03	9.225860E-05	1.479187E-05
7.001109E+03	9.329067E-05	1.495600E-05
7.011012E+03	9.433971E-05	1.512282E-05
7.020914E+03	9.540942E-05	1.529291E-05
7.030817E+03	9.649782E-05	1.546597E-05
7.040719E+03	9.760683E-05	1.564230E-05
7.050622E+03	9.873245E-05	1.582125E-05
7.060524E+03	9.987856E-05	1.600346E-05
7.070427E+03	1.010410E-04	1.618824E-05
7.080330E+03	1.022218E-04	1.637592E-05
7.090232E+03	1.034207E-04	1.656647E-05
7.100135E+03	1.046377E-04	1.675987E-05
7.110037E+03	1.058704E-04	1.695576E-05
7.119940E+03	1.071186E-04	1.715408E-05
7.129842E+03	1.083844E-04	1.735518E-05
7.139745E+03	1.096652E-04	1.755865E-05
7.149647E+03	1.109633E-04	1.776484E-05
7.159550E+03	1.122735E-04	1.797294E-05
7.169453E+03	1.136005E-04	1.818367E-05
7.179355E+03	1.149416E-04	1.839661E-05
7.189258E+03	1.162964E-04	1.861171E-05
7.199160E+03	1.176646E-04	1.882891E-05
7.209063E+03	1.190458E-04	1.904815E-05
7.218965E+03	1.204398E-04	1.926939E-05
7.228868E+03	1.218488E-04	1.949298E-05
7.238770E+03	1.232671E-04	1.971801E-05
7.248673E+03	1.247024E-04	1.994573E-05
7.258576E+03	1.261518E-04	2.017565E-05
7.268478E+03	1.276121E-04	2.040726E-05
7.278381E+03	1.290915E-04	2.064188E-05
7.288283E+03	1.305840E-04	2.087856E-05
7.298186E+03	1.320983E-04	2.111867E-05
7.308088E+03	1.336314E-04	2.136173E-05
7.317991E+03	1.351862E-04	2.160822E-05
7.327894E+03	1.367660E-04	2.185865E-05
7.337796E+03	1.383710E-04	2.211305E-05
7.347699E+03	1.400078E-04	2.237249E-05
7.357601E+03	1.416803E-04	2.263758E-05
7.367504E+03	1.433858E-04	2.290789E-05
7.377406E+03	1.451249E-04	2.318350E-05
7.387309E+03	1.468979E-04	2.346449E-05
7.397211E+03	1.487020E-04	2.375039E-05
7.407114E+03	1.505339E-04	2.404066E-05
7.417017E+03	1.523902E-04	2.433477E-05
7.426919E+03	1.542708E-04	2.463271E-05
7.436822E+03	1.561721E-04	2.493388E-05
7.446724E+03	1.580900E-04	2.523765E-05
7.456627E+03	1.600280E-04	2.554459E-05
7.466529E+03	1.619782E-04	2.585338E-05
7.476432E+03	1.639398E-04	2.616396E-05
7.486334E+03	1.659124E-04	2.647622E-05
7.496237E+03	1.678954E-04	2.679007E-05
7.506140E+03	1.698880E-04	2.710541E-05
7.516042E+03	1.718855E-04	2.742145E-05
7.525945E+03	1.738868E-04	2.773804E-05
7.535847E+03	1.758954E-04	2.805575E-05
7.545750E+03	1.779062E-04	2.837373E-05
7.555652E+03	1.799225E-04	2.869254E-05
7.565555E+03	1.819344E-04	2.901057E-05
7.575457E+03	1.839497E-04	2.932909E-05
7.585360E+03	1.859627E-04	2.964719E-05
7.595263E+03	1.879722E-04	2.996465E-05
7.605165E+03	1.899767E-04	3.028127E-05
7.615068E+03	1.919797E-04	3.059759E-05
7.624970E+03	1.939750E-04	3.091263E-05
7.634873E+03	1.959610E-04	3.122611E-05
7.644775E+03	1.979411E-04	3.153861E-05
7.654678E+03	1.999140E-04	3.184990E-05
7.664581E+03	2.018727E-04	3.215886E-05
7.674483E+03	2.038208E-04	3.246609E-05
7.684386E+03	2.057566E-04	3.277130E-05
