#wls	flux	fluxerr
1.584409E+03	4.827222E-03	9.663216E-04
1.624020E+03	4.935648E-03	9.848637E-04
1.663630E+03	5.041669E-03	1.002697E-03
1.703240E+03	5.146347E-03	1.020030E-03
1.742850E+03	5.248213E-03	1.036566E-03
1.782461E+03	5.346662E-03	1.052185E-03
1.822071E+03	5.441418E-03	1.066831E-03
1.861681E+03	5.531188E-03	1.080254E-03
1.901291E+03	5.615038E-03	1.092273E-03
1.940902E+03	5.691954E-03	1.102699E-03
1.980512E+03	5.760031E-03	1.111174E-03
2.020122E+03	5.818603E-03	1.117585E-03
2.059732E+03	5.865023E-03	1.121443E-03
2.099342E+03	5.896876E-03	1.122315E-03
2.138953E+03	5.912376E-03	1.119895E-03
2.178563E+03	5.908992E-03	1.113749E-03
2.218173E+03	5.883705E-03	1.103360E-03
2.257783E+03	5.836654E-03	1.088816E-03
2.297394E+03	5.767632E-03	1.070144E-03
2.337004E+03	5.678969E-03	1.047843E-03
2.376614E+03	5.573104E-03	1.022425E-03
2.416224E+03	5.452253E-03	9.943552E-04
2.455835E+03	5.318637E-03	9.640917E-04
2.495445E+03	5.173384E-03	9.318885E-04
2.535055E+03	5.018397E-03	8.981359E-04
2.574665E+03	4.854450E-03	8.630161E-04
2.614276E+03	4.682581E-03	8.267560E-04
2.653886E+03	4.503555E-03	7.895318E-04
2.693496E+03	4.318417E-03	7.515660E-04
2.733106E+03	4.128054E-03	7.130494E-04
2.772716E+03	3.933404E-03	6.741789E-04
2.812327E+03	3.735794E-03	6.352133E-04
2.851937E+03	3.536523E-03	5.964003E-04
2.891547E+03	3.337221E-03	5.580367E-04
2.931157E+03	3.139612E-03	5.204255E-04
2.970768E+03	2.945447E-03	4.838647E-04
2.980670E+03	2.897629E-03	4.749192E-04
2.990573E+03	2.850166E-03	4.660623E-04
3.000475E+03	2.803069E-03	4.572955E-04
3.010378E+03	2.756418E-03	4.486318E-04
3.020280E+03	2.710166E-03	4.400631E-04
3.030183E+03	2.664329E-03	4.315921E-04
3.040086E+03	2.619037E-03	4.232395E-04
3.049988E+03	2.574192E-03	4.149891E-04
3.059891E+03	2.529920E-03	4.068608E-04
3.069793E+03	2.486182E-03	3.988481E-04
3.079696E+03	2.442996E-03	3.909533E-04
3.089598E+03	2.400476E-03	3.831945E-04
3.099501E+03	2.358543E-03	3.755581E-04
3.109403E+03	2.317261E-03	3.680543E-04
3.119306E+03	2.276652E-03	3.606857E-04
3.129209E+03	2.236776E-03	3.534615E-04
3.139111E+03	2.197612E-03	3.463774E-04
3.149014E+03	2.159222E-03	3.394428E-04
3.158916E+03	2.121628E-03	3.326602E-04
3.168819E+03	2.084814E-03	3.260264E-04
3.178721E+03	2.048842E-03	3.195504E-04
3.188624E+03	2.013771E-03	3.132405E-04
3.198526E+03	1.979552E-03	3.070883E-04
3.208429E+03	1.946279E-03	3.011071E-04
3.218332E+03	1.913905E-03	2.952892E-04
3.228234E+03	1.882548E-03	2.896513E-04
3.238137E+03	1.852132E-03	2.841809E-04
3.248039E+03	1.822707E-03	2.788846E-04
3.257942E+03	1.794318E-03	2.737680E-04
3.267844E+03	1.766949E-03	2.688278E-04
3.277747E+03	1.740641E-03	2.640686E-04
3.287650E+03	1.715348E-03	2.594828E-04
3.297552E+03	1.691109E-03	2.550747E-04
3.307455E+03	1.667930E-03	2.508440E-04
3.317357E+03	1.645817E-03	2.467905E-04
3.327260E+03	1.624775E-03	2.429135E-04
3.337162E+03	1.604783E-03	2.392088E-04
3.347065E+03	1.585845E-03	2.356755E-04
3.356967E+03	1.567964E-03	2.323128E-04
3.366870E+03	1.551141E-03	2.291194E-04
3.376773E+03	1.535354E-03	2.260911E-04
3.386675E+03	1.520606E-03	2.232266E-04
3.396578E+03	1.506895E-03	2.205246E-04
3.406480E+03	1.494203E-03	2.179810E-04
3.416383E+03	1.482529E-03	2.155943E-04
3.426285E+03	1.471872E-03	2.133631E-04
3.436188E+03	1.462195E-03	2.112807E-04
3.446090E+03	1.453517E-03	2.093484E-04
3.455993E+03	1.445818E-03	2.075622E-04
3.465896E+03	1.439081E-03	2.059183E-04
3.475798E+03	1.433306E-03	2.044153E-04
3.485701E+03	1.428459E-03	2.030472E-04
3.495603E+03	1.424541E-03	2.018126E-04
3.505506E+03	1.421536E-03	2.007082E-04
3.515408E+03	1.419429E-03	1.997305E-04
3.525311E+03	1.418204E-03	1.988760E-04
3.535213E+03	1.417847E-03	1.981415E-04
3.545116E+03	1.418327E-03	1.975216E-04
3.555019E+03	1.419647E-03	1.970153E-04
3.564921E+03	1.421776E-03	1.966171E-04
3.574824E+03	1.424716E-03	1.963262E-04
3.584726E+03	1.428422E-03	1.961353E-04
3.594629E+03	1.432911E-03	1.960454E-04
3.604531E+03	1.438122E-03	1.960472E-04
3.614434E+03	1.444056E-03	1.961397E-04
3.624337E+03	1.450683E-03	1.963178E-04
3.634239E+03	1.458003E-03	1.965804E-04
3.644142E+03	1.465969E-03	1.969202E-04
3.654044E+03	1.474580E-03	1.973359E-04
3.663947E+03	1.483803E-03	1.978223E-04
3.673849E+03	1.493633E-03	1.983778E-04
3.683752E+03	1.504037E-03	1.989969E-04
3.693654E+03	1.515021E-03	1.996798E-04
3.703557E+03	1.526535E-03	2.004189E-04
3.713460E+03	1.538584E-03	2.012140E-04
3.723362E+03	1.551144E-03	2.020611E-04
3.733265E+03	1.564202E-03	2.029577E-04
3.743167E+03	1.577731E-03	2.038996E-04
3.753070E+03	1.591730E-03	2.048860E-04
3.762972E+03	1.606156E-03	2.059105E-04
3.772875E+03	1.621005E-03	2.069720E-04
3.782777E+03	1.636260E-03	2.080676E-04
3.792680E+03	1.651901E-03	2.091941E-04
3.802583E+03	1.667908E-03	2.103483E-04
3.812485E+03	1.684243E-03	2.115251E-04
3.822388E+03	1.700914E-03	2.127248E-04
3.832290E+03	1.717898E-03	2.139440E-04
3.842193E+03	1.735154E-03	2.151771E-04
3.852095E+03	1.752672E-03	2.164226E-04
3.861998E+03	1.770427E-03	2.176767E-04
3.871900E+03	1.788405E-03	2.189376E-04
3.881803E+03	1.806565E-03	2.201998E-04
3.891706E+03	1.824908E-03	2.214632E-04
3.901608E+03	1.843390E-03	2.227222E-04
3.911511E+03	1.862012E-03	2.239768E-04
3.921413E+03	1.880730E-03	2.252213E-04
3.931316E+03	1.899512E-03	2.264521E-04
3.941218E+03	1.918361E-03	2.276691E-04
3.951121E+03	1.937229E-03	2.288668E-04
3.961024E+03	1.956101E-03	2.300435E-04
3.970926E+03	1.974947E-03	2.311955E-04
3.980829E+03	1.993752E-03	2.323213E-04
3.990731E+03	2.012486E-03	2.334176E-04
4.000634E+03	2.031118E-03	2.344808E-04
4.010536E+03	2.049635E-03	2.355097E-04
4.020439E+03	2.068024E-03	2.365032E-04
4.030341E+03	2.086221E-03	2.374543E-04
4.040244E+03	2.104249E-03	2.383659E-04
4.050147E+03	2.122045E-03	2.392312E-04
4.060049E+03	2.139614E-03	2.400515E-04
4.069952E+03	2.156911E-03	2.408220E-04
4.079854E+03	2.173926E-03	2.415422E-04
4.089757E+03	2.190630E-03	2.422096E-04
4.099659E+03	2.206995E-03	2.428215E-04
4.109562E+03	2.222991E-03	2.433757E-04
4.119464E+03	2.238590E-03	2.438695E-04
4.129367E+03	2.253780E-03	2.443025E-04
4.139270E+03	2.268528E-03	2.446721E-04
4.149172E+03	2.282784E-03	2.449736E-04
4.159075E+03	2.296513E-03	2.452044E-04
4.168977E+03	2.309678E-03	2.453614E-04
4.178880E+03	2.322259E-03	2.454438E-04
4.188782E+03	2.334194E-03	2.454461E-04
4.198685E+03	2.345439E-03	2.453650E-04
4.208587E+03	2.355926E-03	2.451945E-04
4.218490E+03	2.365621E-03	2.449328E-04
4.228393E+03	2.374449E-03	2.445735E-04
4.238295E+03	2.382349E-03	2.441119E-04
4.248198E+03	2.389258E-03	2.435433E-04
4.258100E+03	2.395066E-03	2.428585E-04
4.268003E+03	2.399743E-03	2.420563E-04
4.277905E+03	2.403175E-03	2.411273E-04
4.287808E+03	2.405290E-03	2.400665E-04
4.297711E+03	2.405993E-03	2.388668E-04
4.307613E+03	2.405259E-03	2.375282E-04
4.317516E+03	2.402969E-03	2.360414E-04
4.327418E+03	2.399119E-03	2.344087E-04
4.337321E+03	2.393686E-03	2.326306E-04
4.347223E+03	2.386694E-03	2.307120E-04
4.357126E+03	2.378217E-03	2.286626E-04
4.367028E+03	2.368340E-03	2.264929E-04
4.376931E+03	2.357210E-03	2.242193E-04
4.386834E+03	2.344914E-03	2.218519E-04
4.396736E+03	2.331630E-03	2.194093E-04
4.406639E+03	2.317479E-03	2.169045E-04
4.416541E+03	2.302603E-03	2.143521E-04
4.426444E+03	2.287181E-03	2.117697E-04
4.436346E+03	2.271289E-03	2.091653E-04
4.446249E+03	2.255114E-03	2.065566E-04
4.456151E+03	2.238716E-03	2.039498E-04
4.466054E+03	2.222249E-03	2.013589E-04
4.475957E+03	2.205796E-03	1.987919E-04
4.485859E+03	2.189456E-03	1.962573E-04
4.495762E+03	2.173316E-03	1.937630E-04
4.505664E+03	2.157420E-03	1.913125E-04
4.515567E+03	2.141882E-03	1.889155E-04
4.525469E+03	2.126729E-03	1.865742E-04
4.535372E+03	2.112025E-03	1.842933E-04
4.545274E+03	2.097825E-03	1.820771E-04
4.555177E+03	2.084181E-03	1.799295E-04
4.565080E+03	2.071118E-03	1.778519E-04
4.574982E+03	2.058659E-03	1.758455E-04
4.584885E+03	2.046841E-03	1.739127E-04
4.594787E+03	2.035698E-03	1.720555E-04
4.604690E+03	2.025260E-03	1.702755E-04
4.614592E+03	2.015515E-03	1.685711E-04
4.624495E+03	2.006507E-03	1.669448E-04
4.634398E+03	1.998238E-03	1.653960E-04
4.644300E+03	1.990709E-03	1.639241E-04
4.654203E+03	1.983938E-03	1.625295E-04
4.664105E+03	1.977923E-03	1.612112E-04
4.674008E+03	1.972662E-03	1.599683E-04
4.683910E+03	1.968151E-03	1.587995E-04
4.693813E+03	1.964384E-03	1.577033E-04
4.703715E+03	1.961355E-03	1.566780E-04
4.713618E+03	1.959055E-03	1.557221E-04
4.723521E+03	1.957477E-03	1.548339E-04
4.733423E+03	1.956594E-03	1.540104E-04
4.743326E+03	1.956412E-03	1.532511E-04
4.753228E+03	1.956882E-03	1.525513E-04
4.763131E+03	1.958028E-03	1.519120E-04
4.773033E+03	1.959797E-03	1.513283E-04
4.782936E+03	1.962191E-03	1.507996E-04
4.792838E+03	1.965193E-03	1.503238E-04
4.802741E+03	1.968743E-03	1.498957E-04
4.812644E+03	1.972862E-03	1.495162E-04
4.822546E+03	1.977508E-03	1.491816E-04
4.832449E+03	1.982679E-03	1.488910E-04
4.842351E+03	1.988295E-03	1.486380E-04
4.852254E+03	1.994391E-03	1.484246E-04
4.862156E+03	2.000907E-03	1.482460E-04
4.872059E+03	2.007839E-03	1.481013E-04
4.881961E+03	2.015144E-03	1.479872E-04
4.891864E+03	2.022821E-03	1.479030E-04
4.901767E+03	2.030807E-03	1.478440E-04
4.911669E+03	2.039101E-03	1.478097E-04
4.921572E+03	2.047701E-03	1.477998E-04
4.931474E+03	2.056546E-03	1.478096E-04
4.941377E+03	2.065616E-03	1.478375E-04
4.951279E+03	2.074911E-03	1.478834E-04
4.961182E+03	2.084413E-03	1.479458E-04
4.971085E+03	2.094060E-03	1.480202E-04
4.980987E+03	2.103855E-03	1.481069E-04
4.990890E+03	2.113780E-03	1.482043E-04
5.000792E+03	2.123814E-03	1.483112E-04
5.010695E+03	2.133919E-03	1.484248E-04
5.020597E+03	2.144076E-03	1.485438E-04
5.030500E+03	2.154285E-03	1.486684E-04
5.040402E+03	2.164483E-03	1.487942E-04
5.050305E+03	2.174671E-03	1.489213E-04
5.060208E+03	2.184802E-03	1.490469E-04
5.070110E+03	2.194854E-03	1.491695E-04
5.080013E+03	2.204799E-03	1.492874E-04
5.089915E+03	2.214610E-03	1.493991E-04
5.099818E+03	2.224236E-03	1.495013E-04
5.109720E+03	2.233665E-03	1.495935E-04
5.119623E+03	2.242819E-03	1.496709E-04
5.129525E+03	2.251683E-03	1.497328E-04
5.139428E+03	2.260195E-03	1.497753E-04
5.149331E+03	2.268312E-03	1.497962E-04
5.159233E+03	2.275988E-03	1.497929E-04
5.169136E+03	2.283176E-03	1.497627E-04
5.179038E+03	2.289780E-03	1.496999E-04
5.188941E+03	2.295792E-03	1.496045E-04
5.198843E+03	2.301089E-03	1.494691E-04
5.208746E+03	2.305661E-03	1.492936E-04
5.218648E+03	2.309402E-03	1.490719E-04
5.228551E+03	2.312278E-03	1.488024E-04
5.238454E+03	2.314207E-03	1.484806E-04
5.248356E+03	2.315108E-03	1.481020E-04
5.258259E+03	2.314947E-03	1.476653E-04
5.268161E+03	2.313624E-03	1.471647E-04
5.278064E+03	2.311113E-03	1.465993E-04
5.287966E+03	2.307343E-03	1.459656E-04
5.297869E+03	2.302251E-03	1.452603E-04
5.307772E+03	2.295804E-03	1.444819E-04
5.317674E+03	2.287974E-03	1.436297E-04
5.327577E+03	2.278746E-03	1.427033E-04
5.337479E+03	2.268063E-03	1.416999E-04
5.347382E+03	2.255953E-03	1.406219E-04
5.357284E+03	2.242406E-03	1.394693E-04
5.367187E+03	2.227470E-03	1.382456E-04
5.377089E+03	2.211138E-03	1.369511E-04
5.386992E+03	2.193526E-03	1.355932E-04
5.396895E+03	2.174718E-03	1.341776E-04
5.406797E+03	2.154918E-03	1.327171E-04
5.416700E+03	2.134167E-03	1.312145E-04
5.426602E+03	2.112418E-03	1.296669E-04
5.436505E+03	2.089689E-03	1.280752E-04
5.446407E+03	2.066083E-03	1.264451E-04
5.456310E+03	2.041798E-03	1.247885E-04
5.466212E+03	2.016944E-03	1.231114E-04
5.476115E+03	1.991757E-03	1.214276E-04
5.486018E+03	1.966376E-03	1.197451E-04
5.495920E+03	1.940996E-03	1.180751E-04
5.505823E+03	1.915808E-03	1.164285E-04
5.515725E+03	1.890992E-03	1.148156E-04
5.525628E+03	1.866681E-03	1.132439E-04
5.535530E+03	1.843037E-03	1.117225E-04
5.545433E+03	1.820204E-03	1.102595E-04
5.555335E+03	1.798296E-03	1.088612E-04
5.565238E+03	1.777413E-03	1.075330E-04
5.575141E+03	1.757674E-03	1.062815E-04
5.585043E+03	1.739130E-03	1.051093E-04
5.594946E+03	1.721849E-03	1.040200E-04
5.604848E+03	1.705869E-03	1.030154E-04
5.614751E+03	1.691228E-03	1.020974E-04
5.624653E+03	1.677935E-03	1.012660E-04
5.634556E+03	1.665984E-03	1.005205E-04
5.644459E+03	1.655374E-03	9.986059E-05
5.654361E+03	1.646095E-03	9.928533E-05
5.664264E+03	1.638094E-03	9.879124E-05
5.674166E+03	1.631346E-03	9.837652E-05
5.684069E+03	1.625803E-03	9.803814E-05
5.693971E+03	1.621416E-03	9.777284E-05
5.703874E+03	1.618167E-03	9.757943E-05
5.713776E+03	1.615969E-03	9.745253E-05
5.723679E+03	1.614806E-03	9.739105E-05
5.733582E+03	1.614613E-03	9.739091E-05
5.743484E+03	1.615361E-03	9.745031E-05
5.753387E+03	1.617008E-03	9.756660E-05
5.763289E+03	1.619514E-03	9.773737E-05
5.773192E+03	1.622863E-03	9.796151E-05
5.783094E+03	1.627005E-03	9.823603E-05
5.792997E+03	1.631929E-03	9.856027E-05
5.802899E+03	1.637611E-03	9.893270E-05
5.812802E+03	1.644011E-03	9.935091E-05
5.822705E+03	1.651145E-03	9.981593E-05
5.832607E+03	1.658961E-03	1.003246E-04
5.842510E+03	1.667478E-03	1.008781E-04
5.852412E+03	1.676666E-03	1.014746E-04
5.862315E+03	1.686510E-03	1.021135E-04
5.872217E+03	1.697018E-03	1.027950E-04
5.882120E+03	1.708139E-03	1.035163E-04
5.892022E+03	1.719879E-03	1.042778E-04
5.901925E+03	1.732245E-03	1.050800E-04
5.911828E+03	1.745184E-03	1.059198E-04
5.921730E+03	1.758700E-03	1.067976E-04
5.931633E+03	1.772777E-03	1.077125E-04
5.941535E+03	1.787378E-03	1.086624E-04
5.951438E+03	1.802483E-03	1.096462E-04
5.961340E+03	1.818072E-03	1.106629E-04
5.971243E+03	1.834101E-03	1.117100E-04
5.981146E+03	1.850544E-03	1.127860E-04
5.991048E+03	1.867394E-03	1.138907E-04
6.000951E+03	1.884557E-03	1.150185E-04
6.010853E+03	1.902041E-03	1.161702E-04
6.020756E+03	1.919742E-03	1.173395E-04
6.030658E+03	1.937661E-03	1.185267E-04
6.040561E+03	1.955682E-03	1.197250E-04
6.050463E+03	1.973776E-03	1.209327E-04
6.060366E+03	1.991839E-03	1.221437E-04
6.070269E+03	2.009831E-03	1.233557E-04
6.080171E+03	2.027640E-03	1.245621E-04
6.090074E+03	2.045171E-03	1.257572E-04
6.099976E+03	2.062381E-03	1.269385E-04
6.109879E+03	2.079154E-03	1.280990E-04
6.119781E+03	2.095455E-03	1.292368E-04
6.129684E+03	2.111236E-03	1.303490E-04
6.139586E+03	2.126461E-03	1.314336E-04
6.149489E+03	2.141113E-03	1.324896E-04
6.159392E+03	2.155239E-03	1.335201E-04
6.169294E+03	2.168846E-03	1.345256E-04
6.179197E+03	2.181977E-03	1.355089E-04
6.189099E+03	2.194681E-03	1.364733E-04
6.199002E+03	2.207066E-03	1.374251E-04
6.208904E+03	2.219127E-03	1.383638E-04
6.218807E+03	2.230915E-03	1.392924E-04
6.228709E+03	2.242511E-03	1.402153E-04
6.238612E+03	2.253964E-03	1.411355E-04
6.248515E+03	2.265293E-03	1.420539E-04
6.258417E+03	2.276510E-03	1.429708E-04
6.268320E+03	2.287689E-03	1.438907E-04
6.278222E+03	2.298805E-03	1.448116E-04
6.288125E+03	2.309894E-03	1.457355E-04
6.298027E+03	2.320954E-03	1.466620E-04
6.307930E+03	2.331984E-03	1.475908E-04
6.317833E+03	2.342975E-03	1.485209E-04
6.327735E+03	2.353916E-03	1.494514E-04
6.337638E+03	2.364792E-03	1.503810E-04
6.347540E+03	2.375554E-03	1.513064E-04
6.357443E+03	2.386213E-03	1.522278E-04
6.367345E+03	2.396749E-03	1.531436E-04
6.377248E+03	2.407171E-03	1.540542E-04
6.387150E+03	2.417493E-03	1.549600E-04
6.397053E+03	2.427653E-03	1.558568E-04
6.406956E+03	2.437699E-03	1.567474E-04
6.416858E+03	2.447608E-03	1.576299E-04
6.426761E+03	2.457393E-03	1.585049E-04
6.436663E+03	2.467002E-03	1.593688E-04
6.446566E+03	2.476484E-03	1.602242E-04
6.456468E+03	2.485789E-03	1.610678E-04
6.466371E+03	2.494938E-03	1.619006E-04
6.476273E+03	2.503879E-03	1.627189E-04
6.486176E+03	2.512643E-03	1.635242E-04
6.496079E+03	2.521253E-03	1.643182E-04
6.505981E+03	2.529629E-03	1.650949E-04
6.515884E+03	2.537801E-03	1.658563E-04
6.525786E+03	2.545808E-03	1.666045E-04
6.535689E+03	2.553563E-03	1.673337E-04
6.545591E+03	2.561145E-03	1.680486E-04
6.555494E+03	2.568472E-03	1.687437E-04
6.565396E+03	2.575625E-03	1.694242E-04
6.575299E+03	2.582516E-03	1.700838E-04
6.585202E+03	2.589185E-03	1.707251E-04
6.595104E+03	2.595630E-03	1.713478E-04
6.605007E+03	2.601807E-03	1.719486E-04
6.614909E+03	2.607751E-03	1.725297E-04
6.624812E+03	2.613417E-03	1.730880E-04
6.634714E+03	2.618799E-03	1.736229E-04
6.644617E+03	2.623939E-03	1.741370E-04
6.654520E+03	2.628786E-03	1.746268E-04
6.664422E+03	2.633290E-03	1.750887E-04
6.674325E+03	2.637538E-03	1.755286E-04
6.684227E+03	2.641433E-03	1.759396E-04
6.694130E+03	2.645021E-03	1.763249E-04
6.704032E+03	2.648296E-03	1.766840E-04
6.713935E+03	2.651210E-03	1.770134E-04
6.723837E+03	2.653759E-03	1.773130E-04
6.733740E+03	2.655941E-03	1.775826E-04
6.743643E+03	2.657801E-03	1.778250E-04
6.753545E+03	2.659292E-03	1.780371E-04
6.763448E+03	2.660364E-03	1.782155E-04
6.773350E+03	2.661062E-03	1.783634E-04
6.783253E+03	2.661388E-03	1.784807E-04
6.793155E+03	2.661344E-03	1.785677E-04
6.803058E+03	2.660879E-03	1.786210E-04
6.812960E+03	2.659997E-03	1.786409E-04
6.822863E+03	2.658747E-03	1.786308E-04
6.832766E+03	2.657086E-03	1.785878E-04
6.842668E+03	2.655015E-03	1.785122E-04
6.852571E+03	2.652542E-03	1.784046E-04
6.862473E+03	2.649668E-03	1.782652E-04
6.872376E+03	2.646403E-03	1.780947E-04
6.882278E+03	2.642750E-03	1.778936E-04
6.892181E+03	2.638672E-03	1.776595E-04
6.902083E+03	2.634171E-03	1.773928E-04
6.911986E+03	2.629312E-03	1.770979E-04
6.921889E+03	2.624102E-03	1.767756E-04
6.931791E+03	2.618456E-03	1.764205E-04
6.941694E+03	2.612485E-03	1.760400E-04
6.951596E+03	2.606156E-03	1.756324E-04
6.961499E+03	2.599483E-03	1.751987E-04
6.971401E+03	2.592431E-03	1.747369E-04
6.981304E+03	2.585072E-03	1.742520E-04
6.991207E+03	2.577424E-03	1.737457E-04
7.001109E+03	2.569508E-03	1.732195E-04
7.011012E+03	2.561296E-03	1.726718E-04
7.020914E+03	2.552807E-03	1.721043E-04
7.030817E+03	2.544120E-03	1.715225E-04
7.040719E+03	2.535205E-03	1.709248E-04
7.050622E+03	2.526043E-03	1.703101E-04
7.060524E+03	2.516757E-03	1.696871E-04
7.070427E+03	2.507330E-03	1.690550E-04
7.080330E+03	2.497788E-03	1.684157E-04
7.090232E+03	2.488114E-03	1.677685E-04
7.100135E+03	2.478391E-03	1.671193E-04
7.110037E+03	2.468650E-03	1.664705E-04
7.119940E+03	2.458878E-03	1.658216E-04
7.129842E+03	2.449108E-03	1.651751E-04
7.139745E+03	2.439426E-03	1.645372E-04
7.149647E+03	2.429815E-03	1.639069E-04
7.159550E+03	2.420312E-03	1.632872E-04
7.169453E+03	2.410949E-03	1.626806E-04
7.179355E+03	2.401754E-03	1.620892E-04
7.189258E+03	2.392708E-03	1.615122E-04
7.199160E+03	2.383935E-03	1.609581E-04
7.209063E+03	2.375405E-03	1.604254E-04
7.218965E+03	2.367037E-03	1.599089E-04
7.228868E+03	2.358994E-03	1.594200E-04
7.238770E+03	2.351132E-03	1.589493E-04
7.248673E+03	2.343554E-03	1.585040E-04
7.258576E+03	2.336208E-03	1.580811E-04
7.268478E+03	2.329089E-03	1.576805E-04
7.278381E+03	2.322132E-03	1.572982E-04
7.288283E+03	2.315319E-03	1.569333E-04
7.298186E+03	2.308629E-03	1.565847E-04
7.308088E+03	2.302035E-03	1.562509E-04
7.317991E+03	2.295408E-03	1.559234E-04
7.327894E+03	2.288759E-03	1.556034E-04
7.337796E+03	2.281949E-03	1.552817E-04
7.347699E+03	2.274884E-03	1.549521E-04
7.357601E+03	2.267471E-03	1.546085E-04
7.367504E+03	2.259705E-03	1.542508E-04
7.377406E+03	2.251536E-03	1.538757E-04
7.387309E+03	2.243009E-03	1.534865E-04
7.397211E+03	2.234174E-03	1.530866E-04
7.407114E+03	2.224933E-03	1.526694E-04
7.417017E+03	2.215302E-03	1.522352E-04
7.426919E+03	2.205352E-03	1.517886E-04
7.436822E+03	2.194986E-03	1.513222E-04
7.446724E+03	2.184324E-03	1.508437E-04
7.456627E+03	2.173410E-03	1.503557E-04
7.466529E+03	2.162309E-03	1.498620E-04
7.476432E+03	2.151096E-03	1.493674E-04
7.486334E+03	2.139854E-03	1.488771E-04
7.496237E+03	2.128714E-03	1.483998E-04
7.506140E+03	2.117707E-03	1.479374E-04
7.516042E+03	2.106954E-03	1.474978E-04
7.525945E+03	2.096473E-03	1.470821E-04
7.535847E+03	2.086371E-03	1.466974E-04
7.545750E+03	2.076694E-03	1.463469E-04
7.555652E+03	2.067437E-03	1.460299E-04
7.565555E+03	2.058679E-03	1.457519E-04
7.575457E+03	2.050444E-03	1.455145E-04
7.585360E+03	2.042702E-03	1.453154E-04
7.595263E+03	2.035513E-03	1.451588E-04
7.605165E+03	2.028833E-03	1.450416E-04
7.615068E+03	2.022759E-03	1.449707E-04
7.624970E+03	2.017191E-03	1.449389E-04
7.634873E+03	2.012170E-03	1.449490E-04
7.644775E+03	2.007636E-03	1.449968E-04
7.654678E+03	2.003624E-03	1.450849E-04
7.664581E+03	2.000117E-03	1.452120E-04
7.674483E+03	1.997098E-03	1.453770E-04
7.684386E+03	1.994500E-03	1.455749E-04
