#wls	flux	fluxerr
1.584409E+03	6.511617E-03	2.209252E-03
1.624020E+03	6.713462E-03	2.277697E-03
1.663630E+03	6.904412E-03	2.342443E-03
1.703240E+03	7.082443E-03	2.402804E-03
1.742850E+03	7.244649E-03	2.457792E-03
1.782461E+03	7.388664E-03	2.506606E-03
1.822071E+03	7.511323E-03	2.548173E-03
1.861681E+03	7.610750E-03	2.581856E-03
1.901291E+03	7.684343E-03	2.606772E-03
1.940902E+03	7.728917E-03	2.621843E-03
1.980512E+03	7.742703E-03	2.626467E-03
2.020122E+03	7.722917E-03	2.619703E-03
2.059732E+03	7.667205E-03	2.600750E-03
2.099342E+03	7.574799E-03	2.569351E-03
2.138953E+03	7.442923E-03	2.524564E-03
2.178563E+03	7.269939E-03	2.465834E-03
2.218173E+03	7.054183E-03	2.392599E-03
2.257783E+03	6.792948E-03	2.303940E-03
2.297394E+03	6.494421E-03	2.202637E-03
2.337004E+03	6.166982E-03	2.091532E-03
2.376614E+03	5.817327E-03	1.972896E-03
2.416224E+03	5.451185E-03	1.848674E-03
2.455835E+03	5.074059E-03	1.720733E-03
2.495445E+03	4.690990E-03	1.590782E-03
2.535055E+03	4.306466E-03	1.460343E-03
2.574665E+03	3.925092E-03	1.330979E-03
2.614276E+03	3.551112E-03	1.204129E-03
2.653886E+03	3.188409E-03	1.081109E-03
2.693496E+03	2.840494E-03	9.631104E-04
2.733106E+03	2.510625E-03	8.512365E-04
2.772716E+03	2.201200E-03	7.463008E-04
2.812327E+03	1.914255E-03	6.489926E-04
2.851937E+03	1.651457E-03	5.598768E-04
2.891547E+03	1.413885E-03	4.793184E-04
2.931157E+03	1.202074E-03	4.074980E-04
2.970768E+03	1.015783E-03	3.443336E-04
2.980670E+03	9.730866E-04	3.298572E-04
2.990573E+03	9.319008E-04	3.158931E-04
3.000475E+03	8.922158E-04	3.024379E-04
3.010378E+03	8.539972E-04	2.894801E-04
3.020280E+03	8.172113E-04	2.770080E-04
3.030183E+03	7.818408E-04	2.650160E-04
3.040086E+03	7.478324E-04	2.534860E-04
3.049988E+03	7.151823E-04	2.424165E-04
3.059891E+03	6.838369E-04	2.317895E-04
3.069793E+03	6.537735E-04	2.215972E-04
3.079696E+03	6.249535E-04	2.118265E-04
3.089598E+03	5.973508E-04	2.024686E-04
3.099501E+03	5.709270E-04	1.935105E-04
3.109403E+03	5.456437E-04	1.849391E-04
3.119306E+03	5.214735E-04	1.767451E-04
3.129209E+03	4.983687E-04	1.689124E-04
3.139111E+03	4.763114E-04	1.614349E-04
3.149014E+03	4.552551E-04	1.542967E-04
3.158916E+03	4.351714E-04	1.474883E-04
3.168819E+03	4.160247E-04	1.409977E-04
3.178721E+03	3.977786E-04	1.348123E-04
3.188624E+03	3.804049E-04	1.289228E-04
3.198526E+03	3.638683E-04	1.233171E-04
3.208429E+03	3.481289E-04	1.179817E-04
3.218332E+03	3.331706E-04	1.129110E-04
3.228234E+03	3.189435E-04	1.080883E-04
3.238137E+03	3.054314E-04	1.035080E-04
3.248039E+03	2.925930E-04	9.915611E-05
3.257942E+03	2.804028E-04	9.502394E-05
3.267844E+03	2.688352E-04	9.110287E-05
3.277747E+03	2.578533E-04	8.738034E-05
3.287650E+03	2.474374E-04	8.384971E-05
3.297552E+03	2.375604E-04	8.050177E-05
3.307455E+03	2.281930E-04	7.732655E-05
3.317357E+03	2.193106E-04	7.431576E-05
3.327260E+03	2.108896E-04	7.146142E-05
3.337162E+03	2.029105E-04	6.875682E-05
3.347065E+03	1.953457E-04	6.619273E-05
3.356967E+03	1.881802E-04	6.376395E-05
3.366870E+03	1.813891E-04	6.146209E-05
3.376773E+03	1.749539E-04	5.928087E-05
3.386675E+03	1.688590E-04	5.721501E-05
3.396578E+03	1.630813E-04	5.525667E-05
3.406480E+03	1.576091E-04	5.340190E-05
3.416383E+03	1.524254E-04	5.164491E-05
3.426285E+03	1.475106E-04	4.997906E-05
3.436188E+03	1.428552E-04	4.840113E-05
3.446090E+03	1.384416E-04	4.690518E-05
3.455993E+03	1.342585E-04	4.548733E-05
3.465896E+03	1.302933E-04	4.414337E-05
3.475798E+03	1.265305E-04	4.286797E-05
3.485701E+03	1.229608E-04	4.165805E-05
3.495603E+03	1.195718E-04	4.050938E-05
3.505506E+03	1.163521E-04	3.941807E-05
3.515408E+03	1.132921E-04	3.838092E-05
3.525311E+03	1.103810E-04	3.739419E-05
3.535213E+03	1.076095E-04	3.645482E-05
3.545116E+03	1.049683E-04	3.555961E-05
3.555019E+03	1.024508E-04	3.470630E-05
3.564921E+03	1.000496E-04	3.389242E-05
3.574824E+03	9.775703E-05	3.311535E-05
3.584726E+03	9.556775E-05	3.237329E-05
3.594629E+03	9.347668E-05	3.166452E-05
3.604531E+03	9.147733E-05	3.098684E-05
3.614434E+03	8.956770E-05	3.033956E-05
3.624337E+03	8.774177E-05	2.972064E-05
3.634239E+03	8.599692E-05	2.912921E-05
3.644142E+03	8.432987E-05	2.856414E-05
3.654044E+03	8.273733E-05	2.802433E-05
3.663947E+03	8.121691E-05	2.750895E-05
3.673849E+03	7.976687E-05	2.701743E-05
3.683752E+03	7.838272E-05	2.654823E-05
3.693654E+03	7.706408E-05	2.610124E-05
3.703557E+03	7.580731E-05	2.567520E-05
3.713460E+03	7.461070E-05	2.526956E-05
3.723362E+03	7.347262E-05	2.488374E-05
3.733265E+03	7.238961E-05	2.451659E-05
3.743167E+03	7.136121E-05	2.416794E-05
3.753070E+03	7.038474E-05	2.383688E-05
3.762972E+03	6.945869E-05	2.352291E-05
3.772875E+03	6.858096E-05	2.322531E-05
3.782777E+03	6.775024E-05	2.294363E-05
3.792680E+03	6.696453E-05	2.267721E-05
3.802583E+03	6.622266E-05	2.242564E-05
3.812485E+03	6.552280E-05	2.218830E-05
3.822388E+03	6.486428E-05	2.196496E-05
3.832290E+03	6.424548E-05	2.175507E-05
3.842193E+03	6.366478E-05	2.155810E-05
3.852095E+03	6.312120E-05	2.137370E-05
3.861998E+03	6.261323E-05	2.120136E-05
3.871900E+03	6.214041E-05	2.104092E-05
3.881803E+03	6.170129E-05	2.089190E-05
3.891706E+03	6.129499E-05	2.075399E-05
3.901608E+03	6.092023E-05	2.062677E-05
3.911511E+03	6.057560E-05	2.050974E-05
3.921413E+03	6.026132E-05	2.040300E-05
3.931316E+03	5.997517E-05	2.030579E-05
3.941218E+03	5.971693E-05	2.021802E-05
3.951121E+03	5.948536E-05	2.013928E-05
3.961024E+03	5.927976E-05	2.006934E-05
3.970926E+03	5.909958E-05	2.000800E-05
3.980829E+03	5.894319E-05	1.995471E-05
3.990731E+03	5.881048E-05	1.990944E-05
4.000634E+03	5.870041E-05	1.987184E-05
4.010536E+03	5.861240E-05	1.984171E-05
4.020439E+03	5.854551E-05	1.981872E-05
4.030341E+03	5.849883E-05	1.980257E-05
4.040244E+03	5.847227E-05	1.979323E-05
4.050147E+03	5.846455E-05	1.979027E-05
4.060049E+03	5.847525E-05	1.979354E-05
4.069952E+03	5.850402E-05	1.980292E-05
4.079854E+03	5.854960E-05	1.981800E-05
4.089757E+03	5.861214E-05	1.983881E-05
4.099659E+03	5.869049E-05	1.986497E-05
4.109562E+03	5.878427E-05	1.989634E-05
4.119464E+03	5.889332E-05	1.993289E-05
4.129367E+03	5.901645E-05	1.997419E-05
4.139270E+03	5.915389E-05	2.002034E-05
4.149172E+03	5.930407E-05	2.007079E-05
4.159075E+03	5.946764E-05	2.012577E-05
4.168977E+03	5.964310E-05	2.018477E-05
4.178880E+03	5.983027E-05	2.024773E-05
4.188782E+03	6.002856E-05	2.031444E-05
4.198685E+03	6.023774E-05	2.038484E-05
4.208587E+03	6.045643E-05	2.045845E-05
4.218490E+03	6.068495E-05	2.053538E-05
4.228393E+03	6.092224E-05	2.061528E-05
4.238295E+03	6.116735E-05	2.069781E-05
4.248198E+03	6.142025E-05	2.078297E-05
4.258100E+03	6.168035E-05	2.087057E-05
4.268003E+03	6.194623E-05	2.096012E-05
4.277905E+03	6.221732E-05	2.105142E-05
4.287808E+03	6.249308E-05	2.114430E-05
4.297711E+03	6.277297E-05	2.123856E-05
4.307613E+03	6.305645E-05	2.133404E-05
4.317516E+03	6.334344E-05	2.143069E-05
4.327418E+03	6.363333E-05	2.152833E-05
4.337321E+03	6.392551E-05	2.162673E-05
4.347223E+03	6.422093E-05	2.172622E-05
4.357126E+03	6.451899E-05	2.182659E-05
4.367028E+03	6.481952E-05	2.192779E-05
4.376931E+03	6.512303E-05	2.203000E-05
4.386834E+03	6.542932E-05	2.213314E-05
4.396736E+03	6.573790E-05	2.223704E-05
4.406639E+03	6.604911E-05	2.234183E-05
4.416541E+03	6.636245E-05	2.244734E-05
4.426444E+03	6.667785E-05	2.255353E-05
4.436346E+03	6.699530E-05	2.266040E-05
4.446249E+03	6.731377E-05	2.276762E-05
4.456151E+03	6.763387E-05	2.287538E-05
4.466054E+03	6.795514E-05	2.298352E-05
4.475957E+03	6.827720E-05	2.309193E-05
4.485859E+03	6.860019E-05	2.320064E-05
4.495762E+03	6.892325E-05	2.330937E-05
4.505664E+03	6.924658E-05	2.341818E-05
4.515567E+03	6.957048E-05	2.352718E-05
4.525469E+03	6.989477E-05	2.363630E-05
4.535372E+03	7.021855E-05	2.374524E-05
4.545274E+03	7.054230E-05	2.385416E-05
4.555177E+03	7.086576E-05	2.396297E-05
4.565080E+03	7.118889E-05	2.407167E-05
4.574982E+03	7.151212E-05	2.418039E-05
4.584885E+03	7.183482E-05	2.428892E-05
4.594787E+03	7.215747E-05	2.439742E-05
4.604690E+03	7.248009E-05	2.450591E-05
4.614592E+03	7.280269E-05	2.461439E-05
4.624495E+03	7.312527E-05	2.472284E-05
4.634398E+03	7.344787E-05	2.483130E-05
4.644300E+03	7.377049E-05	2.493975E-05
4.654203E+03	7.409447E-05	2.504865E-05
4.664105E+03	7.441997E-05	2.515806E-05
4.674008E+03	7.474706E-05	2.526800E-05
4.683910E+03	7.507714E-05	2.537894E-05
4.693813E+03	7.540974E-05	2.549072E-05
4.703715E+03	7.574502E-05	2.560339E-05
4.713618E+03	7.608382E-05	2.571725E-05
4.723521E+03	7.642629E-05	2.583234E-05
4.733423E+03	7.677206E-05	2.594853E-05
4.743326E+03	7.712196E-05	2.606611E-05
4.753228E+03	7.747628E-05	2.618517E-05
4.763131E+03	7.783458E-05	2.630557E-05
4.773033E+03	7.819782E-05	2.642763E-05
4.782936E+03	7.856629E-05	2.655144E-05
4.792838E+03	7.894033E-05	2.667712E-05
4.802741E+03	7.932020E-05	2.680477E-05
4.812644E+03	7.970559E-05	2.693427E-05
4.822546E+03	8.009825E-05	2.706621E-05
4.832449E+03	8.049710E-05	2.720023E-05
4.842351E+03	8.090255E-05	2.733647E-05
4.852254E+03	8.131569E-05	2.747530E-05
4.862156E+03	8.173694E-05	2.761686E-05
4.872059E+03	8.216677E-05	2.776130E-05
4.881961E+03	8.260401E-05	2.790823E-05
4.891864E+03	8.305060E-05	2.805831E-05
4.901767E+03	8.350627E-05	2.821144E-05
4.911669E+03	8.397136E-05	2.836774E-05
4.921572E+03	8.444634E-05	2.852737E-05
4.931474E+03	8.493159E-05	2.869046E-05
4.941377E+03	8.542669E-05	2.885685E-05
4.951279E+03	8.593203E-05	2.902669E-05
4.961182E+03	8.644868E-05	2.920034E-05
4.971085E+03	8.697615E-05	2.937763E-05
4.980987E+03	8.751386E-05	2.955835E-05
4.990890E+03	8.806366E-05	2.974315E-05
5.000792E+03	8.862323E-05	2.993123E-05
5.010695E+03	8.919448E-05	3.012323E-05
5.020597E+03	8.977751E-05	3.031920E-05
5.030500E+03	9.036989E-05	3.051831E-05
5.040402E+03	9.097433E-05	3.072147E-05
5.050305E+03	9.158921E-05	3.092814E-05
5.060208E+03	9.221456E-05	3.113833E-05
5.070110E+03	9.285143E-05	3.135238E-05
5.080013E+03	9.349801E-05	3.156970E-05
5.089915E+03	9.415438E-05	3.179030E-05
5.099818E+03	9.482146E-05	3.201450E-05
5.109720E+03	9.549837E-05	3.224199E-05
5.119623E+03	9.618506E-05	3.247277E-05
5.129525E+03	9.688066E-05	3.270653E-05
5.139428E+03	9.758601E-05	3.294357E-05
5.149331E+03	9.829923E-05	3.318323E-05
5.159233E+03	9.902208E-05	3.342613E-05
5.169136E+03	9.975357E-05	3.367192E-05
5.179038E+03	1.004926E-04	3.392024E-05
5.188941E+03	1.012390E-04	3.417101E-05
5.198843E+03	1.019935E-04	3.442450E-05
5.208746E+03	1.027540E-04	3.467997E-05
5.218648E+03	1.035210E-04	3.493764E-05
5.228551E+03	1.042953E-04	3.519774E-05
5.238454E+03	1.050735E-04	3.545910E-05
5.248356E+03	1.058580E-04	3.572262E-05
5.258259E+03	1.066454E-04	3.598704E-05
5.268161E+03	1.074381E-04	3.625324E-05
5.278064E+03	1.082323E-04	3.651994E-05
5.287966E+03	1.090295E-04	3.678760E-05
5.297869E+03	1.098290E-04	3.705600E-05
5.307772E+03	1.106288E-04	3.732451E-05
5.317674E+03	1.114306E-04	3.759364E-05
5.327577E+03	1.122302E-04	3.786201E-05
5.337479E+03	1.130302E-04	3.813050E-05
5.347382E+03	1.138289E-04	3.839850E-05
5.357284E+03	1.146254E-04	3.866574E-05
5.367187E+03	1.154192E-04	3.893204E-05
5.377089E+03	1.162095E-04	3.919713E-05
5.386992E+03	1.169945E-04	3.946040E-05
5.396895E+03	1.177735E-04	3.972163E-05
5.406797E+03	1.185457E-04	3.998054E-05
5.416700E+03	1.193105E-04	4.023691E-05
5.426602E+03	1.200658E-04	4.049003E-05
5.436505E+03	1.208094E-04	4.073924E-05
5.446407E+03	1.215418E-04	4.098460E-05
5.456310E+03	1.222608E-04	4.122539E-05
5.466212E+03	1.229639E-04	4.146083E-05
5.476115E+03	1.236489E-04	4.169014E-05
5.486018E+03	1.243160E-04	4.191336E-05
5.495920E+03	1.249613E-04	4.212923E-05
5.505823E+03	1.255850E-04	4.233779E-05
5.515725E+03	1.261833E-04	4.253776E-05
5.525628E+03	1.267550E-04	4.272872E-05
5.535530E+03	1.273001E-04	4.291068E-05
5.545433E+03	1.278146E-04	4.308234E-05
5.555335E+03	1.282987E-04	4.324369E-05
5.565238E+03	1.287510E-04	4.339433E-05
5.575141E+03	1.291690E-04	4.353337E-05
5.585043E+03	1.295514E-04	4.366038E-05
5.594946E+03	1.298983E-04	4.377544E-05
5.604848E+03	1.302086E-04	4.387813E-05
5.614751E+03	1.304800E-04	4.396768E-05
5.624653E+03	1.307128E-04	4.404422E-05
5.634556E+03	1.309076E-04	4.410793E-05
5.644459E+03	1.310609E-04	4.415764E-05
5.654361E+03	1.311735E-04	4.419363E-05
5.664264E+03	1.312461E-04	4.421615E-05
5.674166E+03	1.312786E-04	4.422511E-05
5.684069E+03	1.312705E-04	4.422042E-05
5.693971E+03	1.312218E-04	4.420202E-05
5.703874E+03	1.311323E-04	4.416988E-05
5.713776E+03	1.310034E-04	4.412446E-05
5.723679E+03	1.308339E-04	4.406535E-05
5.733582E+03	1.306266E-04	4.399351E-05
5.743484E+03	1.303806E-04	4.390861E-05
5.753387E+03	1.300960E-04	4.381076E-05
5.763289E+03	1.297763E-04	4.370103E-05
5.773192E+03	1.294190E-04	4.357869E-05
5.783094E+03	1.290264E-04	4.344444E-05
5.792997E+03	1.286007E-04	4.329904E-05
5.802899E+03	1.281414E-04	4.314233E-05
5.812802E+03	1.276509E-04	4.297517E-05
5.822705E+03	1.271294E-04	4.279751E-05
5.832607E+03	1.265808E-04	4.261079E-05
5.842510E+03	1.260055E-04	4.241505E-05
5.852412E+03	1.254051E-04	4.221090E-05
5.862315E+03	1.247828E-04	4.199937E-05
5.872217E+03	1.241390E-04	4.178063E-05
5.882120E+03	1.234771E-04	4.155577E-05
5.892022E+03	1.227973E-04	4.132493E-05
5.901925E+03	1.221029E-04	4.108920E-05
5.911828E+03	1.213958E-04	4.084919E-05
5.921730E+03	1.206776E-04	4.060547E-05
5.931633E+03	1.199488E-04	4.035818E-05
5.941535E+03	1.192122E-04	4.010831E-05
5.951438E+03	1.184696E-04	3.985643E-05
5.961340E+03	1.177212E-04	3.960258E-05
5.971243E+03	1.169697E-04	3.934774E-05
5.981146E+03	1.162154E-04	3.909195E-05
5.991048E+03	1.154581E-04	3.883519E-05
6.000951E+03	1.147020E-04	3.857885E-05
6.010853E+03	1.139456E-04	3.832242E-05
6.020756E+03	1.131915E-04	3.806678E-05
6.030658E+03	1.124381E-04	3.781140E-05
6.040561E+03	1.116879E-04	3.755709E-05
6.050463E+03	1.109406E-04	3.730377E-05
6.060366E+03	1.101970E-04	3.705173E-05
6.070269E+03	1.094581E-04	3.680130E-05
6.080171E+03	1.087235E-04	3.655232E-05
6.090074E+03	1.079939E-04	3.630504E-05
6.099976E+03	1.072701E-04	3.605973E-05
6.109879E+03	1.065527E-04	3.581660E-05
6.119781E+03	1.058425E-04	3.557587E-05
6.129684E+03	1.051385E-04	3.533728E-05
6.139586E+03	1.044428E-04	3.510147E-05
6.149489E+03	1.037557E-04	3.486859E-05
6.159392E+03	1.030777E-04	3.463878E-05
6.169294E+03	1.024106E-04	3.441263E-05
6.179197E+03	1.017559E-04	3.419069E-05
6.189099E+03	1.011153E-04	3.397351E-05
6.199002E+03	1.004905E-04	3.376161E-05
6.208904E+03	9.988291E-05	3.355554E-05
6.218807E+03	9.929545E-05	3.335624E-05
6.228709E+03	9.872694E-05	3.316332E-05
6.238612E+03	9.818283E-05	3.297862E-05
6.248515E+03	9.766189E-05	3.280170E-05
6.258417E+03	9.716694E-05	3.263353E-05
6.268320E+03	9.669935E-05	3.247456E-05
6.278222E+03	9.626061E-05	3.232528E-05
6.288125E+03	9.585070E-05	3.218570E-05
6.298027E+03	9.547112E-05	3.205631E-05
6.307930E+03	9.512323E-05	3.193756E-05
6.317833E+03	9.480711E-05	3.182949E-05
6.327735E+03	9.452289E-05	3.173213E-05
6.337638E+03	9.427195E-05	3.164595E-05
6.347540E+03	9.405166E-05	3.157006E-05
6.357443E+03	9.386212E-05	3.150449E-05
6.367345E+03	9.370201E-05	3.144879E-05
6.377248E+03	9.356862E-05	3.140207E-05
6.387150E+03	9.346338E-05	3.136479E-05
6.397053E+03	9.338352E-05	3.133602E-05
6.406956E+03	9.333055E-05	3.131626E-05
6.416858E+03	9.330446E-05	3.130553E-05
6.426761E+03	9.330395E-05	3.130336E-05
6.436663E+03	9.332906E-05	3.130979E-05
6.446566E+03	9.337978E-05	3.132479E-05
6.456468E+03	9.345625E-05	3.134843E-05
6.466371E+03	9.355845E-05	3.138068E-05
6.476273E+03	9.368799E-05	3.142209E-05
6.486176E+03	9.384342E-05	3.147217E-05
6.496079E+03	9.402337E-05	3.153045E-05
6.505981E+03	9.423088E-05	3.159797E-05
6.515884E+03	9.446303E-05	3.167373E-05
6.525786E+03	9.472140E-05	3.175826E-05
6.535689E+03	9.500607E-05	3.185159E-05
6.545591E+03	9.531717E-05	3.195375E-05
6.555494E+03	9.565476E-05	3.206478E-05
6.565396E+03	9.601742E-05	3.218419E-05
6.575299E+03	9.640679E-05	3.231252E-05
6.585202E+03	9.682138E-05	3.244928E-05
6.595104E+03	9.726287E-05	3.259503E-05
6.605007E+03	9.772984E-05	3.274929E-05
6.614909E+03	9.822227E-05	3.291205E-05
6.624812E+03	9.874204E-05	3.308395E-05
6.634714E+03	9.928926E-05	3.326500E-05
6.644617E+03	9.986072E-05	3.345415E-05
6.654520E+03	1.004599E-04	3.365253E-05
6.664422E+03	1.010835E-04	3.385908E-05
6.674325E+03	1.017352E-04	3.407500E-05
6.684227E+03	1.024134E-04	3.429974E-05
6.694130E+03	1.031164E-04	3.453276E-05
6.704032E+03	1.038481E-04	3.477534E-05
6.713935E+03	1.046049E-04	3.502629E-05
6.723837E+03	1.053889E-04	3.528629E-05
6.733740E+03	1.062002E-04	3.555540E-05
6.743643E+03	1.070391E-04	3.583369E-05
6.753545E+03	1.079037E-04	3.612057E-05
6.763448E+03	1.087963E-04	3.641674E-05
6.773350E+03	1.097151E-04	3.672161E-05
6.783253E+03	1.106620E-04	3.703588E-05
6.793155E+03	1.116355E-04	3.735896E-05
6.803058E+03	1.126355E-04	3.769087E-05
6.812960E+03	1.136643E-04	3.803236E-05
6.822863E+03	1.147179E-04	3.838208E-05
6.832766E+03	1.158006E-04	3.874148E-05
6.842668E+03	1.169105E-04	3.910991E-05
6.852571E+03	1.180476E-04	3.948738E-05
6.862473E+03	1.192121E-04	3.987396E-05
6.872376E+03	1.204041E-04	4.026966E-05
6.882278E+03	1.216214E-04	4.067375E-05
6.892181E+03	1.228664E-04	4.108703E-05
6.902083E+03	1.241391E-04	4.150953E-05
6.911986E+03	1.254397E-04	4.194125E-05
6.921889E+03	1.267634E-04	4.238062E-05
6.931791E+03	1.281174E-04	4.283008E-05
6.941694E+03	1.294945E-04	4.328717E-05
6.951596E+03	1.308996E-04	4.375354E-05
6.961499E+03	1.323303E-04	4.422835E-05
6.971401E+03	1.337863E-04	4.471159E-05
6.981304E+03	1.352678E-04	4.520322E-05
6.991207E+03	1.367746E-04	4.570326E-05
7.001109E+03	1.383039E-04	4.621074E-05
7.011012E+03	1.398584E-04	4.672651E-05
7.020914E+03	1.414379E-04	4.725057E-05
7.030817E+03	1.430395E-04	4.778192E-05
7.040719E+03	1.446659E-04	4.832144E-05
7.050622E+03	1.463139E-04	4.886811E-05
7.060524E+03	1.479834E-04	4.942184E-05
7.070427E+03	1.496740E-04	4.998253E-05
7.080330E+03	1.513885E-04	5.055113E-05
7.090232E+03	1.531205E-04	5.112546E-05
7.100135E+03	1.548695E-04	5.170536E-05
7.110037E+03	1.566416E-04	5.229284E-05
7.119940E+03	1.584298E-04	5.288563E-05
7.129842E+03	1.602336E-04	5.348353E-05
7.139745E+03	1.620559E-04	5.408750E-05
7.149647E+03	1.638928E-04	5.469624E-05
7.159550E+03	1.657438E-04	5.530956E-05
7.169453E+03	1.676081E-04	5.592722E-05
7.179355E+03	1.694852E-04	5.654903E-05
7.189258E+03	1.713780E-04	5.717599E-05
7.199160E+03	1.732785E-04	5.780540E-05
7.209063E+03	1.751933E-04	5.843950E-05
7.218965E+03	1.771182E-04	5.907681E-05
7.228868E+03	1.790522E-04	5.971707E-05
7.238770E+03	1.809985E-04	6.036134E-05
7.248673E+03	1.829524E-04	6.100801E-05
7.258576E+03	1.849171E-04	6.165819E-05
7.268478E+03	1.868920E-04	6.231162E-05
7.278381E+03	1.888804E-04	6.296948E-05
7.288283E+03	1.908819E-04	6.363156E-05
7.298186E+03	1.929001E-04	6.429912E-05
7.308088E+03	1.949303E-04	6.497054E-05
7.317991E+03	1.969854E-04	6.565013E-05
7.327894E+03	1.990652E-04	6.633786E-05
7.337796E+03	2.011650E-04	6.703215E-05
7.347699E+03	2.032988E-04	6.773764E-05
7.357601E+03	2.054621E-04	6.845283E-05
7.367504E+03	2.076599E-04	6.917940E-05
7.377406E+03	2.098876E-04	6.991580E-05
7.387309E+03	2.121504E-04	7.066375E-05
7.397211E+03	2.144333E-04	7.141829E-05
7.407114E+03	2.167464E-04	7.218273E-05
7.417017E+03	2.190740E-04	7.295189E-05
7.426919E+03	2.214209E-04	7.372735E-05
7.436822E+03	2.237813E-04	7.450718E-05
7.446724E+03	2.261493E-04	7.528938E-05
7.456627E+03	2.285294E-04	7.607549E-05
7.466529E+03	2.309042E-04	7.685971E-05
7.476432E+03	2.332837E-04	7.764535E-05
7.486334E+03	2.356611E-04	7.843018E-05
7.496237E+03	2.380353E-04	7.921382E-05
7.506140E+03	2.403993E-04	7.999391E-05
7.516042E+03	2.427574E-04	8.077192E-05
7.525945E+03	2.451024E-04	8.154545E-05
7.535847E+03	2.474328E-04	8.231398E-05
7.545750E+03	2.497532E-04	8.307907E-05
7.555652E+03	2.520560E-04	8.383819E-05
7.565555E+03	2.543461E-04	8.459295E-05
7.575457E+03	2.566092E-04	8.533861E-05
7.585360E+03	2.588566E-04	8.607891E-05
7.595263E+03	2.610802E-04	8.681121E-05
7.605165E+03	2.632852E-04	8.753721E-05
7.615068E+03	2.654634E-04	8.825418E-05
7.624970E+03	2.676132E-04	8.896158E-05
7.634873E+03	2.697329E-04	8.965887E-05
7.644775E+03	2.718350E-04	9.035020E-05
7.654678E+03	2.738969E-04	9.102808E-05
7.664581E+03	2.759384E-04	9.169908E-05
7.674483E+03	2.779438E-04	9.235797E-05
7.684386E+03	2.799189E-04	9.300668E-05
