#wls	flux	fluxerr
1.584409E+03	-4.629267E-05	-2.736314E-05
1.624020E+03	1.783647E-06	1.045225E-06
1.663630E+03	-4.077036E-05	-2.368531E-05
1.703240E+03	-1.883495E-04	-1.084723E-04
1.742850E+03	-4.557808E-04	-2.602053E-04
1.782461E+03	-8.309371E-04	-4.701146E-04
1.822071E+03	-1.338829E-03	-7.506170E-04
1.861681E+03	-1.991368E-03	-1.106330E-03
1.901291E+03	-2.799203E-03	-1.540952E-03
1.940902E+03	-3.694186E-03	-2.014450E-03
1.980512E+03	-4.733477E-03	-2.556695E-03
2.020122E+03	-5.918100E-03	-3.166061E-03
2.059732E+03	-7.245120E-03	-3.838818E-03
2.099342E+03	-8.553391E-03	-4.487039E-03
2.138953E+03	-9.949932E-03	-5.167533E-03
2.178563E+03	-1.141338E-02	-5.868011E-03
2.218173E+03	-1.291638E-02	-6.573579E-03
2.257783E+03	-1.418767E-02	-7.145048E-03
2.297394E+03	-1.541385E-02	-7.680756E-03
2.337004E+03	-1.657586E-02	-8.172084E-03
2.376614E+03	-1.765477E-02	-8.610870E-03
2.416224E+03	-1.831251E-02	-8.832946E-03
2.455835E+03	-1.884635E-02	-8.989096E-03
2.495445E+03	-1.924711E-02	-9.077008E-03
2.535055E+03	-1.950640E-02	-9.094927E-03
2.574665E+03	-1.926061E-02	-8.875247E-03
2.614276E+03	-1.888368E-02	-8.598743E-03
2.653886E+03	-1.838285E-02	-8.270795E-03
2.693496E+03	-1.776570E-02	-7.896780E-03
2.733106E+03	-1.669524E-02	-7.328941E-03
2.772716E+03	-1.557539E-02	-6.751608E-03
2.812327E+03	-1.442512E-02	-6.173699E-03
2.851937E+03	-1.326393E-02	-5.603918E-03
2.891547E+03	-1.184986E-02	-4.940714E-03
2.931157E+03	-1.051125E-02	-4.324299E-03
2.970768E+03	-9.261784E-03	-3.758950E-03
2.980670E+03	-8.964506E-03	-3.625886E-03
2.990573E+03	-8.641802E-03	-3.483338E-03
3.000475E+03	-8.327218E-03	-3.344951E-03
3.010378E+03	-8.021117E-03	-3.210836E-03
3.020280E+03	-7.723294E-03	-3.080876E-03
3.030183E+03	-7.419729E-03	-2.949448E-03
3.040086E+03	-7.125259E-03	-2.822468E-03
3.049988E+03	-6.840092E-03	-2.699982E-03
3.059891E+03	-6.563840E-03	-2.581797E-03
3.069793E+03	-6.283970E-03	-2.462954E-03
3.079696E+03	-6.013752E-03	-2.348662E-03
3.089598E+03	-5.753136E-03	-2.238860E-03
3.099501E+03	-5.501951E-03	-2.133442E-03
3.109403E+03	-5.248578E-03	-2.027875E-03
3.119306E+03	-5.005058E-03	-1.926807E-03
3.129209E+03	-4.771260E-03	-1.830147E-03
3.139111E+03	-4.546860E-03	-1.737732E-03
3.149014E+03	-4.321447E-03	-1.645557E-03
3.158916E+03	-4.105739E-03	-1.557692E-03
3.168819E+03	-3.899443E-03	-1.473986E-03
3.178721E+03	-3.702328E-03	-1.394312E-03
3.188624E+03	-3.504787E-03	-1.315032E-03
3.198526E+03	-3.316520E-03	-1.239769E-03
3.208429E+03	-3.137011E-03	-1.168291E-03
3.218332E+03	-2.966082E-03	-1.100498E-03
3.228234E+03	-2.795105E-03	-1.033168E-03
3.238137E+03	-2.632559E-03	-9.694179E-04
3.248039E+03	-2.478080E-03	-9.090796E-04
3.257942E+03	-2.331271E-03	-8.519744E-04
3.267844E+03	-2.184543E-03	-7.953134E-04
3.277747E+03	-2.045300E-03	-7.417748E-04
3.287650E+03	-1.913180E-03	-6.911962E-04
3.297552E+03	-1.787881E-03	-6.434399E-04
3.307455E+03	-1.662463E-03	-5.959952E-04
3.317357E+03	-1.543573E-03	-5.512299E-04
3.327260E+03	-1.430861E-03	-5.089915E-04
3.337162E+03	-1.324003E-03	-4.691399E-04
3.347065E+03	-1.216770E-03	-4.294586E-04
3.356967E+03	-1.115100E-03	-3.920297E-04
3.366870E+03	-1.018679E-03	-3.567202E-04
3.376773E+03	-9.271762E-04	-3.233926E-04
3.386675E+03	-8.350128E-04	-2.900940E-04
3.396578E+03	-7.474947E-04	-2.586570E-04
3.406480E+03	-6.643363E-04	-2.289639E-04
3.416383E+03	-5.852537E-04	-2.008993E-04
3.426285E+03	-5.051932E-04	-1.727224E-04
3.436188E+03	-4.289670E-04	-1.460711E-04
3.446090E+03	-3.563086E-04	-1.208393E-04
3.455993E+03	-2.869744E-04	-9.693006E-05
3.465896E+03	-2.163872E-04	-7.279203E-05
3.475798E+03	-1.489191E-04	-4.989207E-05
3.485701E+03	-8.433848E-05	-2.814023E-05
3.495603E+03	-2.243099E-05	-7.453545E-06
3.505506E+03	4.090792E-05	1.353753E-05
3.515408E+03	1.017384E-04	3.352947E-05
3.525311E+03	1.602540E-04	5.259586E-05
3.535213E+03	2.166317E-04	7.080393E-05
3.545116E+03	2.743320E-04	8.929183E-05
3.555019E+03	3.300314E-04	1.069749E-04
3.564921E+03	3.838874E-04	1.239119E-04
3.574824E+03	4.360495E-04	1.401583E-04
3.584726E+03	4.893375E-04	1.566300E-04
3.594629E+03	5.410289E-04	1.724493E-04
3.604531E+03	5.912535E-04	1.876637E-04
3.614434E+03	6.401205E-04	2.023136E-04
3.624337E+03	6.898874E-04	2.171251E-04
3.634239E+03	7.383635E-04	2.313990E-04
3.644142E+03	7.856525E-04	2.451727E-04
3.654044E+03	8.318581E-04	2.584830E-04
3.663947E+03	8.786969E-04	2.718801E-04
3.673849E+03	9.244813E-04	2.848281E-04
3.683752E+03	9.693117E-04	2.973618E-04
3.693654E+03	1.013255E-03	3.095053E-04
3.703557E+03	1.057560E-03	3.216619E-04
3.713460E+03	1.101015E-03	3.334441E-04
3.723362E+03	1.143669E-03	3.448708E-04
3.733265E+03	1.185590E-03	3.559646E-04
3.743167E+03	1.227592E-03	3.669980E-04
3.753070E+03	1.268869E-03	3.777058E-04
3.762972E+03	1.309472E-03	3.881064E-04
3.772875E+03	1.349451E-03	3.982168E-04
3.782777E+03	1.389185E-03	4.081828E-04
3.792680E+03	1.428288E-03	4.178618E-04
3.802583E+03	1.466784E-03	4.272632E-04
3.812485E+03	1.504719E-03	4.364023E-04
3.822388E+03	1.542103E-03	4.453233E-04
3.832290E+03	1.578882E-03	4.539756E-04
3.842193E+03	1.615081E-03	4.623677E-04
3.852095E+03	1.650744E-03	4.705147E-04
3.861998E+03	1.685508E-03	4.783624E-04
3.871900E+03	1.719657E-03	4.859492E-04
3.881803E+03	1.753229E-03	4.932875E-04
3.891706E+03	1.786243E-03	5.003848E-04
3.901608E+03	1.817963E-03	5.070935E-04
3.911511E+03	1.849038E-03	5.135443E-04
3.921413E+03	1.879478E-03	5.197423E-04
3.931316E+03	1.909273E-03	5.256872E-04
3.941218E+03	1.937379E-03	5.311591E-04
3.951121E+03	1.964765E-03	5.363656E-04
3.961024E+03	1.991395E-03	5.412998E-04
3.970926E+03	2.017252E-03	5.459591E-04
3.980829E+03	2.041035E-03	5.500696E-04
3.990731E+03	2.063937E-03	5.538861E-04
4.000634E+03	2.085966E-03	5.574139E-04
4.010536E+03	2.107061E-03	5.606399E-04
4.020439E+03	2.125667E-03	5.632372E-04
4.030341E+03	2.143248E-03	5.655199E-04
4.040244E+03	2.159778E-03	5.674839E-04
4.050147E+03	2.175260E-03	5.691335E-04
4.060049E+03	2.187811E-03	5.700735E-04
4.069952E+03	2.199222E-03	5.706869E-04
4.079854E+03	2.209430E-03	5.709616E-04
4.089757E+03	2.218431E-03	5.709001E-04
4.099659E+03	2.224182E-03	5.700824E-04
4.109562E+03	2.228634E-03	5.689175E-04
4.119464E+03	2.231787E-03	5.674097E-04
4.129367E+03	2.233626E-03	5.655590E-04
4.139270E+03	2.231901E-03	5.629086E-04
4.149172E+03	2.228822E-03	5.599180E-04
4.159075E+03	2.224344E-03	5.565797E-04
4.168977E+03	2.218494E-03	5.529048E-04
4.178880E+03	2.208877E-03	5.484140E-04
4.188782E+03	2.197848E-03	5.435884E-04
4.198685E+03	2.185404E-03	5.384316E-04
4.208587E+03	2.171511E-03	5.329391E-04
4.218490E+03	2.153753E-03	5.266315E-04
4.228393E+03	2.134568E-03	5.200048E-04
4.238295E+03	2.113945E-03	5.130603E-04
4.248198E+03	2.091872E-03	5.057994E-04
4.258100E+03	2.065891E-03	4.977313E-04
4.268003E+03	2.038517E-03	4.893703E-04
4.277905E+03	2.009714E-03	4.807116E-04
4.287808E+03	1.979527E-03	4.717698E-04
4.297711E+03	1.945592E-03	4.620747E-04
4.307613E+03	1.910339E-03	4.521206E-04
4.317516E+03	1.873759E-03	4.419088E-04
4.327418E+03	1.835892E-03	4.314519E-04
4.337321E+03	1.794771E-03	4.203695E-04
4.347223E+03	1.752513E-03	4.090837E-04
4.357126E+03	1.709169E-03	3.976095E-04
4.367028E+03	1.664809E-03	3.859654E-04
4.376931E+03	1.617891E-03	3.738613E-04
4.386834E+03	1.570166E-03	3.616400E-04
4.396736E+03	1.521704E-03	3.493193E-04
4.406639E+03	1.472547E-03	3.369108E-04
4.416541E+03	1.421644E-03	3.242264E-04
4.426444E+03	1.370270E-03	3.115069E-04
4.436346E+03	1.318484E-03	2.987667E-04
4.446249E+03	1.266344E-03	2.860207E-04
4.456151E+03	1.213292E-03	2.731810E-04
4.466054E+03	1.160110E-03	2.603852E-04
4.475957E+03	1.106866E-03	2.476488E-04
4.485859E+03	1.053607E-03	2.349831E-04
4.495762E+03	1.000300E-03	2.224074E-04
4.505664E+03	9.472161E-04	2.099525E-04
4.515567E+03	8.944300E-04	1.976352E-04
4.525469E+03	8.420123E-04	1.854703E-04
4.535372E+03	7.903547E-04	1.735617E-04
4.545274E+03	7.393082E-04	1.618549E-04
4.555177E+03	6.889423E-04	1.503640E-04
4.565080E+03	6.393541E-04	1.391092E-04
4.574982E+03	5.912825E-04	1.282608E-04
4.584885E+03	5.442068E-04	1.176901E-04
4.594787E+03	4.982158E-04	1.074145E-04
4.604690E+03	4.533918E-04	9.744977E-05
4.614592E+03	4.107828E-04	8.802511E-05
4.624495E+03	3.695385E-04	7.894662E-05
4.634398E+03	3.297288E-04	7.022677E-05
4.644300E+03	2.914211E-04	6.187726E-05
4.654203E+03	2.559069E-04	5.417214E-05
4.664105E+03	2.220299E-04	4.685780E-05
4.674008E+03	1.898431E-04	3.994238E-05
4.683910E+03	1.593897E-04	3.343182E-05
4.693813E+03	1.320994E-04	2.762334E-05
4.703715E+03	1.065929E-04	2.222140E-05
4.713618E+03	8.288995E-05	1.722681E-05
4.723521E+03	6.100749E-05	1.263974E-05
4.733423E+03	4.239935E-05	8.757430E-06
4.743326E+03	2.554915E-05	5.260759E-06
4.753228E+03	1.044647E-05	2.144312E-06
4.763131E+03	-2.927446E-06	-5.990262E-07
4.773033E+03	-1.322944E-05	-2.698633E-06
4.782936E+03	-2.195686E-05	-4.464881E-06
4.792838E+03	-2.914856E-05	-5.908615E-06
4.802741E+03	-3.484824E-05	-7.041582E-06
4.812644E+03	-3.797372E-05	-7.648882E-06
4.822546E+03	-3.981240E-05	-7.993745E-06
4.832449E+03	-4.042114E-05	-8.090011E-06
4.842351E+03	-3.985984E-05	-7.951997E-06
4.852254E+03	-3.728498E-05	-7.414434E-06
4.862156E+03	-3.376720E-05	-6.693203E-06
4.872059E+03	-2.937030E-05	-5.802744E-06
4.881961E+03	-2.415939E-05	-4.757606E-06
4.891864E+03	-1.748136E-05	-3.431298E-06
4.901767E+03	-1.021565E-05	-1.998579E-06
4.911669E+03	-2.423189E-06	-4.725042E-07
4.921572E+03	5.835437E-06	1.134086E-06
4.931474E+03	1.502942E-05	2.911211E-06
4.941377E+03	2.448184E-05	4.726348E-06
4.951279E+03	3.414168E-05	6.569124E-06
4.961182E+03	4.396042E-05	8.429777E-06
4.971085E+03	5.416176E-05	1.035111E-05
4.980987E+03	6.434790E-05	1.225629E-05
4.990890E+03	7.448255E-05	1.413841E-05
5.000792E+03	8.453323E-05	1.599137E-05
5.010695E+03	9.450595E-05	1.781733E-05
5.020597E+03	1.042657E-04	1.959029E-05
5.030500E+03	1.137942E-04	2.130719E-05
5.040402E+03	1.230752E-04	2.296538E-05
5.050305E+03	1.319449E-04	2.453654E-05
5.060208E+03	1.404862E-04	2.603530E-05
5.070110E+03	1.486980E-04	2.746204E-05
5.080013E+03	1.565757E-04	2.881650E-05
5.089915E+03	1.638354E-04	3.004997E-05
5.099818E+03	1.707266E-04	3.120668E-05
5.109720E+03	1.772573E-04	3.228874E-05
5.119623E+03	1.834349E-04	3.329815E-05
5.129525E+03	1.889004E-04	3.417468E-05
5.139428E+03	1.940115E-04	3.498028E-05
5.149331E+03	1.987856E-04	3.571872E-05
5.159233E+03	2.032355E-04	3.639288E-05
5.169136E+03	2.069631E-04	3.693794E-05
5.179038E+03	2.103902E-04	3.742478E-05
5.188941E+03	2.135387E-04	3.785782E-05
5.198843E+03	2.164238E-04	3.824023E-05
5.208746E+03	2.186331E-04	3.850723E-05
5.218648E+03	2.206181E-04	3.873203E-05
5.228551E+03	2.223945E-04	3.891774E-05
5.238454E+03	2.239817E-04	3.906810E-05
5.248356E+03	2.249766E-04	3.912264E-05
5.258259E+03	2.258239E-04	3.915022E-05
5.268161E+03	2.265396E-04	3.915385E-05
5.278064E+03	2.271413E-04	3.913676E-05
5.285209E+03	1.492659E-03	2.566424E-04
5.285407E+03	1.489960E-03	2.561632E-04
5.285605E+03	1.487192E-03	2.556723E-04
5.285803E+03	1.484357E-03	2.551698E-04
5.286001E+03	1.481446E-03	2.546545E-04
5.286199E+03	1.478580E-03	2.541470E-04
5.286397E+03	1.475644E-03	2.536277E-04
5.286595E+03	1.472640E-03	2.530966E-04
5.286992E+03	1.469873E-03	2.525916E-04
5.287190E+03	1.466888E-03	2.520639E-04
5.287586E+03	1.464002E-03	2.515387E-04
5.288576E+03	1.461436E-03	2.510248E-04
5.288774E+03	1.458327E-03	2.504764E-04
5.288973E+03	1.455216E-03	2.499275E-04
5.289369E+03	1.452108E-03	2.493648E-04
5.289567E+03	1.449040E-03	2.488235E-04
5.289765E+03	1.445743E-03	2.482431E-04
5.290755E+03	1.442931E-03	2.476887E-04
5.290953E+03	1.439765E-03	2.471309E-04
5.291349E+03	1.436523E-03	2.465460E-04
5.291943E+03	1.433419E-03	2.459708E-04
5.292340E+03	1.430186E-03	2.453877E-04
5.293331E+03	1.427152E-03	2.447967E-04
5.294123E+03	1.424052E-03	2.442087E-04
5.294321E+03	1.420593E-03	2.436017E-04
5.294519E+03	1.417179E-03	2.430022E-04
5.294717E+03	1.413741E-03	2.423988E-04
5.294915E+03	1.410188E-03	2.417759E-04
5.295311E+03	1.406653E-03	2.411421E-04
5.295707E+03	1.403113E-03	2.405078E-04
5.295905E+03	1.399555E-03	2.398842E-04
5.296103E+03	1.395996E-03	2.392606E-04
5.296697E+03	1.392431E-03	2.386089E-04
5.297094E+03	1.388856E-03	2.379691E-04
5.297490E+03	1.385206E-03	2.373166E-04
5.298282E+03	1.381679E-03	2.366585E-04
5.298678E+03	1.377950E-03	2.359929E-04
5.299272E+03	1.374283E-03	2.353251E-04
5.300064E+03	1.370607E-03	2.346424E-04
5.300460E+03	1.366886E-03	2.339788E-04
5.300659E+03	1.363099E-03	2.333173E-04
5.301055E+03	1.359257E-03	2.326335E-04
5.301253E+03	1.355376E-03	2.319562E-04
5.301451E+03	1.351562E-03	2.312904E-04
5.301649E+03	1.347656E-03	2.306089E-04
5.302045E+03	1.343714E-03	2.299085E-04
5.302441E+03	1.339835E-03	2.292191E-04
5.302640E+03	1.335949E-03	2.285412E-04
5.302838E+03	1.331969E-03	2.278476E-04
5.303036E+03	1.327988E-03	2.271538E-04
5.303234E+03	1.323870E-03	2.264368E-04
5.303828E+03	1.319848E-03	2.257107E-04
5.304224E+03	1.315839E-03	2.250000E-04
5.304422E+03	1.311648E-03	2.242708E-04
5.304621E+03	1.307503E-03	2.235494E-04
5.304819E+03	1.303446E-03	2.228433E-04
5.305017E+03	1.299274E-03	2.221178E-04
5.305611E+03	1.295045E-03	2.213576E-04
5.305809E+03	1.290849E-03	2.206281E-04
5.306007E+03	1.286605E-03	2.198905E-04
5.306403E+03	1.282306E-03	2.191313E-04
5.306601E+03	1.278060E-03	2.183935E-04
5.306799E+03	1.273746E-03	2.176442E-04
5.306997E+03	1.269363E-03	2.168831E-04
5.307195E+03	1.264977E-03	2.161218E-04
5.308186E+03	1.260687E-03	2.153290E-04
5.308583E+03	1.256324E-03	2.145601E-04
5.309176E+03	1.251940E-03	2.137757E-04
5.309374E+03	1.247499E-03	2.130057E-04
5.311156E+03	1.243038E-03	2.121385E-04
5.311354E+03	1.238570E-03	2.113643E-04
5.311552E+03	1.234056E-03	2.105825E-04
5.311750E+03	1.229540E-03	2.098003E-04
5.311948E+03	1.224979E-03	2.090105E-04
5.312146E+03	1.220394E-03	2.082168E-04
5.312345E+03	1.215809E-03	2.074230E-04
5.312741E+03	1.211165E-03	2.066081E-04
5.313534E+03	1.206491E-03	2.057658E-04
5.314128E+03	1.201804E-03	2.049326E-04
5.314326E+03	1.197144E-03	2.041269E-04
5.314524E+03	1.192460E-03	2.033171E-04
5.314920E+03	1.187756E-03	2.024930E-04
5.315316E+03	1.183028E-03	2.016649E-04
5.316307E+03	1.178232E-03	2.007926E-04
5.316703E+03	1.173471E-03	1.999596E-04
5.317891E+03	1.168598E-03	1.990645E-04
5.318287E+03	1.163808E-03	1.982271E-04
5.318485E+03	1.159046E-03	1.974053E-04
5.318684E+03	1.154259E-03	1.965794E-04
5.319674E+03	1.149428E-03	1.957039E-04
5.321456E+03	1.144408E-03	1.947550E-04
5.321654E+03	1.139572E-03	1.939215E-04
5.321852E+03	1.134732E-03	1.930877E-04
5.322446E+03	1.129922E-03	1.922383E-04
5.324032E+03	1.124745E-03	1.912759E-04
5.324230E+03	1.119903E-03	1.904423E-04
5.324428E+03	1.115150E-03	1.896239E-04
5.324824E+03	1.110303E-03	1.887797E-04
5.325814E+03	1.105146E-03	1.878530E-04
5.326012E+03	1.100256E-03	1.870119E-04
5.326210E+03	1.095478E-03	1.861900E-04
5.326408E+03	1.090543E-03	1.853414E-04
5.326606E+03	1.085631E-03	1.844967E-04
5.326804E+03	1.080718E-03	1.836521E-04
5.327795E+03	1.075537E-03	1.827237E-04
5.327993E+03	1.070713E-03	1.818946E-04
5.328587E+03	1.065754E-03	1.810236E-04
5.329380E+03	1.060599E-03	1.801100E-04
5.329578E+03	1.055614E-03	1.792541E-04
5.331955E+03	1.049901E-03	1.781726E-04
5.332153E+03	1.044894E-03	1.773135E-04
5.333142E+03	1.039599E-03	1.763691E-04
5.333340E+03	1.034635E-03	1.755178E-04
5.333538E+03	1.029537E-03	1.746440E-04
5.333737E+03	1.024441E-03	1.737705E-04
5.333934E+03	1.019364E-03	1.729005E-04
5.334727E+03	1.014036E-03	1.719613E-04
5.335321E+03	1.008868E-03	1.710585E-04
5.335519E+03	1.003794E-03	1.701893E-04
5.335718E+03	9.986517E-04	1.693087E-04
5.335916E+03	9.934635E-04	1.684205E-04
5.336114E+03	9.883219E-04	1.675403E-04
5.337302E+03	9.828252E-04	1.665572E-04
5.337500E+03	9.777968E-04	1.656966E-04
5.337698E+03	9.726544E-04	1.648168E-04
5.337896E+03	9.675140E-04	1.639374E-04
5.339878E+03	9.616868E-04	1.628671E-04
5.340076E+03	9.564796E-04	1.619769E-04
5.340274E+03	9.512489E-04	1.610830E-04
5.340472E+03	9.460206E-04	1.601896E-04
5.340868E+03	9.407175E-04	1.592755E-04
5.341660E+03	9.352178E-04	1.583123E-04
5.342452E+03	9.297555E-04	1.573560E-04
5.342650E+03	9.246648E-04	1.564866E-04
5.343244E+03	9.193295E-04	1.555602E-04
5.343443E+03	9.140599E-04	1.546607E-04
5.343641E+03	9.088574E-04	1.537728E-04
5.344235E+03	9.034783E-04	1.528397E-04
5.344433E+03	8.982780E-04	1.519524E-04
5.344631E+03	8.930107E-04	1.510538E-04
5.344829E+03	8.878558E-04	1.501744E-04
5.345424E+03	8.824566E-04	1.492388E-04
5.345621E+03	8.771901E-04	1.483408E-04
5.345819E+03	8.718809E-04	1.474356E-04
5.346017E+03	8.666390E-04	1.465419E-04
5.346215E+03	8.614438E-04	1.456562E-04
5.346611E+03	8.561723E-04	1.447506E-04
5.347007E+03	8.509460E-04	1.438527E-04
5.347800E+03	8.454713E-04	1.428990E-04
5.347998E+03	8.402798E-04	1.420145E-04
5.348196E+03	8.349767E-04	1.411113E-04
5.348790E+03	8.296092E-04	1.401834E-04
5.348988E+03	8.244191E-04	1.392995E-04
5.349186E+03	8.192082E-04	1.384123E-04
5.349384E+03	8.139532E-04	1.375176E-04
5.349582E+03	8.086764E-04	1.366194E-04
5.349780E+03	8.033998E-04	1.357213E-04
5.350573E+03	7.978727E-04	1.347612E-04
5.350771E+03	7.925543E-04	1.338564E-04
5.351168E+03	7.872945E-04	1.329550E-04
5.351366E+03	7.820441E-04	1.320619E-04
5.351960E+03	7.765766E-04	1.311195E-04
5.352158E+03	7.713074E-04	1.302235E-04
5.352356E+03	7.660162E-04	1.293238E-04
5.352554E+03	7.608145E-04	1.284395E-04
5.352752E+03	7.555708E-04	1.275480E-04
5.354336E+03	7.498020E-04	1.265252E-04
5.354534E+03	7.446286E-04	1.256461E-04
5.355129E+03	7.392119E-04	1.247142E-04
5.355327E+03	7.339970E-04	1.238284E-04
5.355525E+03	7.288500E-04	1.229541E-04
5.355724E+03	7.235917E-04	1.220612E-04
5.356516E+03	7.181536E-04	1.211207E-04
5.356714E+03	7.129432E-04	1.202362E-04
5.356911E+03	7.076880E-04	1.193442E-04
5.357110E+03	7.023910E-04	1.184452E-04
5.357308E+03	6.971376E-04	1.175537E-04
5.357506E+03	6.919535E-04	1.166740E-04
5.358495E+03	6.865020E-04	1.157273E-04
5.358693E+03	6.813206E-04	1.148484E-04
5.358892E+03	6.760279E-04	1.139508E-04
5.359090E+03	6.707820E-04	1.130612E-04
5.359486E+03	6.656447E-04	1.121847E-04
5.359684E+03	6.605347E-04	1.113182E-04
5.359882E+03	6.553135E-04	1.104330E-04
5.360278E+03	6.500039E-04	1.095279E-04
5.360476E+03	6.448534E-04	1.086549E-04
5.360674E+03	6.396817E-04	1.077785E-04
5.362061E+03	6.341591E-04	1.068129E-04
5.362655E+03	6.289004E-04	1.059123E-04
5.362854E+03	6.236905E-04	1.050300E-04
5.363250E+03	6.185028E-04	1.041466E-04
5.363448E+03	6.133164E-04	1.032685E-04
5.364636E+03	6.078879E-04	1.023260E-04
5.364834E+03	6.028180E-04	1.014678E-04
5.365230E+03	5.977491E-04	1.006053E-04
5.365428E+03	5.927028E-04	9.975136E-05
5.365626E+03	5.876154E-04	9.889059E-05
5.366221E+03	5.824215E-04	9.800294E-05
5.367014E+03	5.771865E-04	9.710416E-05
5.367212E+03	5.720365E-04	9.623332E-05
5.367410E+03	5.669331E-04	9.537042E-05
5.367608E+03	5.619640E-04	9.453017E-05
5.367806E+03	5.569513E-04	9.368267E-05
5.368004E+03	5.518728E-04	9.282419E-05
5.368202E+03	5.467961E-04	9.196611E-05
5.368598E+03	5.417481E-04	9.110876E-05
5.368796E+03	5.368289E-04	9.027735E-05
5.368994E+03	5.317549E-04	8.942001E-05
5.369588E+03	5.266764E-04	8.855395E-05
5.369983E+03	5.216356E-04	8.769847E-05
5.370578E+03	5.164940E-04	8.682222E-05
5.370776E+03	5.114711E-04	8.597401E-05
5.371569E+03	5.064563E-04	8.511568E-05
5.371767E+03	5.015932E-04	8.429458E-05
5.371965E+03	4.967532E-04	8.347744E-05
5.372163E+03	4.919136E-04	8.266047E-05
5.372361E+03	4.870766E-04	8.184399E-05
5.372955E+03	4.821756E-04	8.100958E-05
5.373153E+03	4.773632E-04	8.019746E-05
5.373549E+03	4.725412E-04	7.938028E-05
5.373747E+03	4.677767E-04	7.857639E-05
5.373945E+03	4.630351E-04	7.777644E-05
5.374341E+03	4.582426E-04	7.696458E-05
5.375134E+03	4.533684E-04	7.613242E-05
5.375332E+03	4.486543E-04	7.533746E-05
5.375530E+03	4.439851E-04	7.455011E-05
5.375926E+03	4.392007E-04	7.374022E-05
5.376124E+03	4.344892E-04	7.294596E-05
5.376322E+03	4.297796E-04	7.215209E-05
5.376520E+03	4.250931E-04	7.136217E-05
5.376718E+03	4.203854E-04	7.056875E-05
5.376917E+03	4.156781E-04	6.977547E-05
5.377313E+03	4.109485E-04	6.897551E-05
5.377511E+03	4.062667E-04	6.818670E-05
5.377709E+03	4.015639E-04	6.739443E-05
5.377907E+03	3.968835E-04	6.660602E-05
5.378105E+03	3.922056E-04	6.581810E-05
