#wls	flux	fluxerr
1.584409E+03	2.476499E-05	1.825202E-05
1.624020E+03	2.239335E-05	1.648842E-05
1.663630E+03	2.016040E-05	1.482871E-05
1.703240E+03	1.806224E-05	1.327015E-05
1.742850E+03	1.609664E-05	1.181117E-05
1.782461E+03	1.426194E-05	1.045060E-05
1.822071E+03	1.255130E-05	9.183443E-06
1.861681E+03	1.096389E-05	8.009086E-06
1.901291E+03	9.495162E-06	6.924163E-06
1.940902E+03	8.140947E-06	5.925553E-06
1.980512E+03	6.896835E-06	5.009946E-06
2.020122E+03	5.759307E-06	4.174652E-06
2.059732E+03	4.724193E-06	3.416484E-06
2.099342E+03	3.787292E-06	2.732214E-06
2.138953E+03	2.945536E-06	2.119403E-06
2.178563E+03	2.194999E-06	1.574973E-06
2.218173E+03	1.532071E-06	1.096051E-06
2.257783E+03	9.530389E-07	6.796658E-07
2.297394E+03	4.536774E-07	3.224643E-07
2.337004E+03	2.909468E-08	2.060682E-08
2.376614E+03	-3.263129E-07	-2.302524E-07
2.416224E+03	-6.186130E-07	-4.347778E-07
2.455835E+03	-8.541823E-07	-5.978318E-07
2.495445E+03	-1.039342E-06	-7.242107E-07
2.535055E+03	-1.180304E-06	-8.186003E-07
2.574665E+03	-1.282856E-06	-8.853532E-07
2.614276E+03	-1.352444E-06	-9.285456E-07
2.653886E+03	-1.394008E-06	-9.518622E-07
2.693496E+03	-1.412059E-06	-9.586529E-07
2.733106E+03	-1.410690E-06	-9.519390E-07
2.772716E+03	-1.393538E-06	-9.343931E-07
2.812327E+03	-1.363853E-06	-9.083852E-07
2.851937E+03	-1.324581E-06	-8.760421E-07
2.891547E+03	-1.278224E-06	-8.391578E-07
2.931157E+03	-1.227094E-06	-7.993649E-07
2.970768E+03	-1.173053E-06	-7.579637E-07
2.980670E+03	-1.159316E-06	-7.475180E-07
2.990573E+03	-1.145503E-06	-7.370446E-07
3.000475E+03	-1.131634E-06	-7.265584E-07
3.010378E+03	-1.117776E-06	-7.161026E-07
3.020280E+03	-1.103922E-06	-7.056725E-07
3.030183E+03	-1.090084E-06	-6.952770E-07
3.040086E+03	-1.076300E-06	-6.849405E-07
3.049988E+03	-1.062562E-06	-6.746573E-07
3.059891E+03	-1.048879E-06	-6.644353E-07
3.069793E+03	-1.035309E-06	-6.543094E-07
3.079696E+03	-1.021817E-06	-6.442586E-07
3.089598E+03	-1.008433E-06	-6.343024E-07
3.099501E+03	-9.951483E-07	-6.244340E-07
3.109403E+03	-9.820285E-07	-6.146954E-07
3.119306E+03	-9.690220E-07	-6.050541E-07
3.129209E+03	-9.561554E-07	-5.955264E-07
3.139111E+03	-9.434530E-07	-5.861272E-07
3.149014E+03	-9.309191E-07	-5.768592E-07
3.158916E+03	-9.185236E-07	-5.677032E-07
3.168819E+03	-9.063226E-07	-5.586937E-07
3.178721E+03	-8.942855E-07	-5.498113E-07
3.188624E+03	-8.824320E-07	-5.410680E-07
3.198526E+03	-8.707490E-07	-5.324551E-07
3.208429E+03	-8.592547E-07	-5.239835E-07
3.218332E+03	-8.479507E-07	-5.156536E-07
3.228234E+03	-8.368382E-07	-5.074657E-07
3.238137E+03	-8.259042E-07	-4.994113E-07
3.248039E+03	-8.151641E-07	-4.914992E-07
3.257942E+03	-8.046181E-07	-4.837291E-07
3.267844E+03	-7.942532E-07	-4.760925E-07
3.277747E+03	-7.840830E-07	-4.685970E-07
3.287650E+03	-7.740945E-07	-4.612343E-07
3.297552E+03	-7.642999E-07	-4.540111E-07
3.307455E+03	-7.546863E-07	-4.469191E-07
3.317357E+03	-7.452536E-07	-4.399576E-07
3.327260E+03	-7.360011E-07	-4.331256E-07
3.337162E+03	-7.269276E-07	-4.264218E-07
3.347065E+03	-7.180323E-07	-4.198452E-07
3.356967E+03	-7.093034E-07	-4.133882E-07
3.366870E+03	-7.007502E-07	-4.070556E-07
3.376773E+03	-6.923510E-07	-4.008343E-07
3.386675E+03	-6.841248E-07	-3.947347E-07
3.396578E+03	-6.760504E-07	-3.887439E-07
3.406480E+03	-6.681268E-07	-3.828609E-07
3.416383E+03	-6.603529E-07	-3.770844E-07
3.426285E+03	-6.527181E-07	-3.714080E-07
3.436188E+03	-6.452301E-07	-3.658354E-07
3.446090E+03	-6.378788E-07	-3.603604E-07
3.455993E+03	-6.306542E-07	-3.549768E-07
3.465896E+03	-6.235554E-07	-3.496838E-07
3.475798E+03	-6.165731E-07	-3.444756E-07
3.485701E+03	-6.097140E-07	-3.393555E-07
3.495603E+03	-6.029539E-07	-3.343097E-07
3.505506E+03	-5.962994E-07	-3.293416E-07
3.515408E+03	-5.897426E-07	-3.244463E-07
3.525311E+03	-5.832823E-07	-3.196229E-07
3.535213E+03	-5.769037E-07	-3.148630E-07
3.545116E+03	-5.705997E-07	-3.101626E-07
3.555019E+03	-5.643765E-07	-3.055248E-07
3.564921E+03	-5.582141E-07	-3.009384E-07
3.574824E+03	-5.521189E-07	-2.964070E-07
3.584726E+03	-5.460840E-07	-2.919265E-07
3.594629E+03	-5.400970E-07	-2.874904E-07
3.604531E+03	-5.341524E-07	-2.830956E-07
3.614434E+03	-5.282501E-07	-2.787422E-07
3.624337E+03	-5.223789E-07	-2.744241E-07
3.634239E+03	-5.165449E-07	-2.701447E-07
3.644142E+03	-5.107316E-07	-2.658953E-07
3.654044E+03	-5.049394E-07	-2.616765E-07
3.663947E+03	-4.991636E-07	-2.574858E-07
3.673849E+03	-4.934045E-07	-2.533235E-07
3.683752E+03	-4.876521E-07	-2.491849E-07
3.693654E+03	-4.819070E-07	-2.450702E-07
3.703557E+03	-4.761642E-07	-2.409774E-07
3.713460E+03	-4.704241E-07	-2.369068E-07
3.723362E+03	-4.646817E-07	-2.328563E-07
3.733265E+03	-4.589368E-07	-2.288259E-07
3.743167E+03	-4.531843E-07	-2.248136E-07
3.753070E+03	-4.474194E-07	-2.208173E-07
3.762972E+03	-4.416496E-07	-2.168410E-07
3.772875E+03	-4.358610E-07	-2.128783E-07
3.782777E+03	-4.300561E-07	-2.089308E-07
3.792680E+03	-4.242371E-07	-2.050001E-07
3.802583E+03	-4.183934E-07	-2.010814E-07
3.812485E+03	-4.125222E-07	-1.971738E-07
3.822388E+03	-4.066240E-07	-1.932782E-07
3.832290E+03	-4.006946E-07	-1.893931E-07
3.842193E+03	-3.947291E-07	-1.855166E-07
3.852095E+03	-3.887187E-07	-1.816453E-07
3.861998E+03	-3.826604E-07	-1.777785E-07
3.871900E+03	-3.765470E-07	-1.739135E-07
3.881803E+03	-3.703702E-07	-1.700473E-07
3.891706E+03	-3.641206E-07	-1.661763E-07
3.901608E+03	-3.577876E-07	-1.622967E-07
3.911511E+03	-3.513622E-07	-1.584054E-07
3.921413E+03	-3.448305E-07	-1.544974E-07
3.931316E+03	-3.381740E-07	-1.505654E-07
3.941218E+03	-3.313810E-07	-1.466059E-07
3.951121E+03	-3.244288E-07	-1.426102E-07
3.961024E+03	-3.172980E-07	-1.385715E-07
3.970926E+03	-3.099630E-07	-1.344807E-07
3.980829E+03	-3.023928E-07	-1.303264E-07
3.990731E+03	-2.945607E-07	-1.260996E-07
4.000634E+03	-2.864278E-07	-1.217864E-07
4.010536E+03	-2.779560E-07	-1.173736E-07
4.020439E+03	-2.690990E-07	-1.128452E-07
4.030341E+03	-2.598049E-07	-1.081834E-07
4.040244E+03	-2.500150E-07	-1.033681E-07
4.050147E+03	-2.396652E-07	-9.837783E-08
4.060049E+03	-2.286784E-07	-9.318654E-08
4.069952E+03	-2.169698E-07	-8.776614E-08
4.079854E+03	-2.044473E-07	-8.208653E-08
4.089757E+03	-1.909982E-07	-7.611067E-08
4.099659E+03	-1.765010E-07	-6.979934E-08
4.109562E+03	-1.608155E-07	-6.310763E-08
4.119464E+03	-1.437826E-07	-5.598494E-08
4.129367E+03	-1.252210E-07	-4.837426E-08
4.139270E+03	-1.049249E-07	-4.021130E-08
4.149172E+03	-8.265938E-08	-3.142345E-08
4.159075E+03	-5.815666E-08	-2.192869E-08
4.168977E+03	-3.111102E-08	-1.163424E-08
4.178880E+03	-1.173136E-09	-4.350517E-10
4.188782E+03	3.205630E-08	1.178779E-08
4.198685E+03	6.903379E-08	2.516892E-08
4.208587E+03	1.102833E-07	3.986143E-08
4.218490E+03	1.564057E-07	5.603922E-08
4.228393E+03	2.080870E-07	7.389866E-08
4.238295E+03	2.661186E-07	9.366422E-08
4.248198E+03	3.314087E-07	1.155909E-07
4.258100E+03	4.050015E-07	1.399688E-07
4.268003E+03	4.880974E-07	1.671280E-07
4.277905E+03	5.820734E-07	1.974426E-07
4.287808E+03	6.885271E-07	2.313431E-07
4.297711E+03	8.092755E-07	2.693118E-07
4.307613E+03	9.464333E-07	3.119055E-07
4.317516E+03	1.102418E-06	3.597521E-07
4.327418E+03	1.280022E-06	4.135683E-07
4.337321E+03	1.482434E-06	4.741621E-07
4.347223E+03	1.713330E-06	5.424526E-07
4.357126E+03	1.976905E-06	6.194735E-07
4.367028E+03	2.277993E-06	7.064022E-07
4.376931E+03	2.622086E-06	8.045529E-07
4.386834E+03	3.015439E-06	9.154006E-07
4.396736E+03	3.465233E-06	1.040615E-06
4.406639E+03	3.979580E-06	1.182048E-06
4.416541E+03	4.567714E-06	1.341775E-06
4.426444E+03	5.240151E-06	1.522120E-06
4.436346E+03	6.008636E-06	1.725624E-06
4.446249E+03	6.886565E-06	1.955141E-06
4.456151E+03	7.888965E-06	2.213807E-06
4.466054E+03	9.032624E-06	2.505049E-06
4.475957E+03	1.033638E-05	2.832637E-06
4.485859E+03	1.182127E-05	3.200683E-06
4.495762E+03	1.351064E-05	3.613655E-06
4.505664E+03	1.543039E-05	4.076379E-06
4.515567E+03	1.760893E-05	4.594002E-06
4.525469E+03	2.007740E-05	5.172005E-06
4.535372E+03	2.287044E-05	5.816358E-06
4.545274E+03	2.602495E-05	6.533149E-06
4.555177E+03	2.958101E-05	7.328779E-06
4.565080E+03	3.358230E-05	8.210015E-06
4.574982E+03	3.807542E-05	9.183769E-06
4.584885E+03	4.310875E-05	1.025679E-05
4.594787E+03	4.873582E-05	1.143641E-05
4.604690E+03	5.500981E-05	1.272922E-05
4.614592E+03	6.198894E-05	1.414230E-05
4.624495E+03	6.973205E-05	1.568213E-05
4.634398E+03	7.829963E-05	1.735485E-05
4.644300E+03	8.775308E-05	1.916605E-05
4.654203E+03	9.815454E-05	2.112075E-05
4.664105E+03	1.095683E-04	2.322367E-05
4.674008E+03	1.220556E-04	2.547818E-05
4.683910E+03	1.356781E-04	2.788696E-05
4.693813E+03	1.504974E-04	3.045203E-05
4.703715E+03	1.665688E-04	3.317350E-05
4.713618E+03	1.839538E-04	3.605205E-05
4.723521E+03	2.027008E-04	3.908521E-05
4.733423E+03	2.228643E-04	4.227117E-05
4.743326E+03	2.444918E-04	4.560632E-05
4.753228E+03	2.676216E-04	4.908491E-05
4.763131E+03	2.922944E-04	5.270139E-05
4.773033E+03	3.185473E-04	5.644915E-05
4.782936E+03	3.464029E-04	6.031893E-05
4.792838E+03	3.758876E-04	6.430202E-05
4.802741E+03	4.070192E-04	6.838820E-05
4.812644E+03	4.398055E-04	7.256566E-05
4.822546E+03	4.742518E-04	7.682237E-05
4.832449E+03	5.103626E-04	8.114643E-05
4.842351E+03	5.481271E-04	8.552377E-05
4.852254E+03	5.875341E-04	8.994081E-05
4.862156E+03	6.285431E-04	9.437998E-05
4.872059E+03	6.711234E-04	9.882605E-05
4.881961E+03	7.152314E-04	1.032627E-04
4.891864E+03	7.608090E-04	1.076723E-04
4.901767E+03	8.078065E-04	1.120397E-04
4.911669E+03	8.561524E-04	1.163476E-04
4.921572E+03	9.057867E-04	1.205816E-04
4.931474E+03	9.566263E-04	1.247252E-04
4.941377E+03	1.008592E-03	1.287642E-04
4.951279E+03	1.061591E-03	1.326835E-04
4.961182E+03	1.115557E-03	1.364731E-04
4.971085E+03	1.170371E-03	1.401178E-04
4.980987E+03	1.225929E-03	1.436056E-04
4.990890E+03	1.282132E-03	1.469270E-04
5.000792E+03	1.338844E-03	1.500699E-04
5.010695E+03	1.395934E-03	1.530242E-04
5.020597E+03	1.453254E-03	1.557798E-04
5.030500E+03	1.510646E-03	1.583272E-04
5.040402E+03	1.567929E-03	1.606557E-04
5.050305E+03	1.624929E-03	1.627576E-04
5.060208E+03	1.681492E-03	1.646288E-04
5.070110E+03	1.737408E-03	1.662613E-04
5.080013E+03	1.792537E-03	1.676558E-04
5.089915E+03	1.846651E-03	1.688060E-04
5.099818E+03	1.899618E-03	1.697163E-04
5.109720E+03	1.951253E-03	1.703871E-04
5.119623E+03	2.001393E-03	1.708224E-04
5.129525E+03	2.049879E-03	1.710275E-04
5.139428E+03	2.096536E-03	1.710079E-04
5.149331E+03	2.141213E-03	1.707718E-04
5.159233E+03	2.183747E-03	1.703277E-04
5.169136E+03	2.224045E-03	1.696903E-04
5.179038E+03	2.261912E-03	1.688671E-04
5.188941E+03	2.297249E-03	1.678737E-04
5.198843E+03	2.329947E-03	1.667249E-04
5.208746E+03	2.359904E-03	1.654367E-04
5.218648E+03	2.386982E-03	1.640224E-04
5.228551E+03	2.411123E-03	1.625009E-04
5.238454E+03	2.432234E-03	1.608883E-04
5.248356E+03	2.450257E-03	1.592028E-04
5.258259E+03	2.465118E-03	1.574607E-04
5.268161E+03	2.476808E-03	1.556815E-04
5.278064E+03	2.485254E-03	1.538795E-04
5.287966E+03	2.490456E-03	1.520720E-04
5.297869E+03	2.492408E-03	1.502746E-04
5.307772E+03	2.491168E-03	1.485046E-04
5.317674E+03	2.486702E-03	1.467716E-04
5.327577E+03	2.479090E-03	1.450899E-04
5.337479E+03	2.468367E-03	1.434686E-04
5.347382E+03	2.454586E-03	1.419151E-04
5.357284E+03	2.437775E-03	1.404328E-04
5.367187E+03	2.418067E-03	1.390245E-04
5.377089E+03	2.395633E-03	1.376857E-04
5.386992E+03	2.370551E-03	1.364042E-04
5.396895E+03	2.342999E-03	1.351719E-04
5.406797E+03	2.313087E-03	1.339758E-04
5.416700E+03	2.280969E-03	1.328050E-04
5.426602E+03	2.246915E-03	1.316549E-04
5.436505E+03	2.211092E-03	1.305153E-04
5.446407E+03	2.173754E-03	1.293816E-04
5.456310E+03	2.135098E-03	1.282467E-04
5.466212E+03	2.095376E-03	1.271077E-04
5.476115E+03	2.054722E-03	1.259559E-04
5.486018E+03	2.013326E-03	1.247874E-04
5.495920E+03	1.971324E-03	1.235963E-04
5.505823E+03	1.928905E-03	1.223812E-04
5.515725E+03	1.886170E-03	1.211368E-04
5.525628E+03	1.843247E-03	1.198609E-04
5.535530E+03	1.800243E-03	1.185511E-04
5.545433E+03	1.757290E-03	1.172081E-04
5.555335E+03	1.714459E-03	1.158295E-04
5.565238E+03	1.671848E-03	1.144163E-04
5.575141E+03	1.629552E-03	1.129698E-04
5.585043E+03	1.587636E-03	1.114909E-04
5.594946E+03	1.546181E-03	1.099819E-04
5.604848E+03	1.505224E-03	1.084433E-04
5.614751E+03	1.464833E-03	1.068783E-04
5.624653E+03	1.425068E-03	1.052902E-04
5.634556E+03	1.385968E-03	1.036816E-04
5.644459E+03	1.347566E-03	1.020552E-04
5.654361E+03	1.309893E-03	1.004136E-04
5.664264E+03	1.273003E-03	9.876204E-05
5.674166E+03	1.236888E-03	9.710120E-05
5.684069E+03	1.201593E-03	9.543620E-05
5.693971E+03	1.167131E-03	9.376996E-05
5.703874E+03	1.133499E-03	9.210433E-05
5.713776E+03	1.100720E-03	9.044329E-05
5.723679E+03	1.068808E-03	8.879045E-05
5.733582E+03	1.037755E-03	8.714765E-05
5.743484E+03	1.007560E-03	8.551743E-05
5.753387E+03	9.782432E-04	8.390421E-05
5.763289E+03	9.497789E-04	8.230843E-05
5.773192E+03	9.221724E-04	8.073330E-05
5.783094E+03	8.954176E-04	7.918103E-05
5.792997E+03	8.695052E-04	7.765356E-05
5.802899E+03	8.444359E-04	7.615369E-05
5.812802E+03	8.201806E-04	7.468148E-05
5.822705E+03	7.967474E-04	7.324036E-05
5.832607E+03	7.741156E-04	7.183104E-05
5.842510E+03	7.522731E-04	7.045498E-05
5.852412E+03	7.312079E-04	6.911359E-05
5.862315E+03	7.109078E-04	6.780816E-05
5.872217E+03	6.913671E-04	6.654059E-05
5.882120E+03	6.725579E-04	6.531052E-05
5.892022E+03	6.544688E-04	6.411912E-05
5.901925E+03	6.370937E-04	6.296801E-05
5.911828E+03	6.204210E-04	6.185820E-05
5.921730E+03	6.044246E-04	6.078918E-05
5.931633E+03	5.891073E-04	5.976326E-05
5.941535E+03	5.744370E-04	5.877915E-05
5.951438E+03	5.604245E-04	5.783986E-05
5.961340E+03	5.470394E-04	5.694410E-05
5.971243E+03	5.342730E-04	5.609277E-05
5.981146E+03	5.221233E-04	5.528739E-05
5.991048E+03	5.105760E-04	5.452818E-05
6.000951E+03	4.996234E-04	5.381562E-05
6.010853E+03	4.892453E-04	5.314842E-05
6.020756E+03	4.794447E-04	5.252778E-05
6.030658E+03	4.701954E-04	5.195173E-05
6.040561E+03	4.614993E-04	5.142137E-05
6.050463E+03	4.533409E-04	5.093591E-05
6.060366E+03	4.457042E-04	5.049448E-05
6.070269E+03	4.385785E-04	5.009681E-05
6.080171E+03	4.319577E-04	4.974312E-05
6.090074E+03	4.258244E-04	4.943237E-05
6.099976E+03	4.201667E-04	4.916406E-05
6.109879E+03	4.149825E-04	4.893888E-05
6.119781E+03	4.102481E-04	4.875494E-05
6.129684E+03	4.059547E-04	4.861203E-05
6.139586E+03	4.020924E-04	4.850982E-05
6.149489E+03	3.986504E-04	4.844782E-05
6.159392E+03	3.956067E-04	4.842412E-05
6.169294E+03	3.929440E-04	4.843734E-05
6.179197E+03	3.906498E-04	4.848658E-05
6.189099E+03	3.887012E-04	4.856964E-05
6.199002E+03	3.870858E-04	4.868552E-05
6.208904E+03	3.857864E-04	4.883255E-05
6.218807E+03	3.847916E-04	4.900977E-05
6.228709E+03	3.840857E-04	4.921556E-05
6.238612E+03	3.836537E-04	4.944835E-05
6.248515E+03	3.834866E-04	4.970732E-05
6.258417E+03	3.835766E-04	4.999168E-05
6.268320E+03	3.839061E-04	5.029939E-05
6.278222E+03	3.844690E-04	5.062981E-05
6.288125E+03	3.852602E-04	5.098241E-05
6.298027E+03	3.862647E-04	5.135529E-05
6.307930E+03	3.874844E-04	5.174876E-05
6.317833E+03	3.889112E-04	5.216178E-05
6.327735E+03	3.905378E-04	5.259336E-05
6.337638E+03	3.923574E-04	5.304254E-05
6.347540E+03	3.943752E-04	5.350995E-05
6.357443E+03	3.965800E-04	5.399398E-05
6.367345E+03	3.989785E-04	5.449540E-05
6.377248E+03	4.015667E-04	5.501350E-05
6.387150E+03	4.043405E-04	5.554756E-05
6.397053E+03	4.073029E-04	5.609774E-05
6.406956E+03	4.104510E-04	5.666343E-05
6.416858E+03	4.137887E-04	5.724488E-05
6.426761E+03	4.173012E-04	5.783975E-05
6.436663E+03	4.209996E-04	5.844922E-05
6.446566E+03	4.248824E-04	5.907274E-05
6.456468E+03	4.289420E-04	5.970885E-05
6.466371E+03	4.331839E-04	6.035789E-05
6.476273E+03	4.376075E-04	6.101933E-05
6.486176E+03	4.422124E-04	6.169262E-05
6.496079E+03	4.469983E-04	6.237721E-05
6.505981E+03	4.519723E-04	6.307355E-05
6.515884E+03	4.571275E-04	6.378010E-05
6.525786E+03	4.624639E-04	6.449625E-05
6.535689E+03	4.679896E-04	6.522249E-05
6.545591E+03	4.737052E-04	6.595824E-05
6.555494E+03	4.796036E-04	6.670182E-05
6.565396E+03	4.856936E-04	6.745369E-05
6.575299E+03	4.919678E-04	6.821209E-05
6.585202E+03	4.984437E-04	6.897865E-05
6.595104E+03	5.051059E-04	6.975038E-05
6.605007E+03	5.119548E-04	7.052650E-05
6.614909E+03	5.190005E-04	7.130752E-05
6.624812E+03	5.262435E-04	7.209258E-05
6.634714E+03	5.336763E-04	7.287969E-05
6.644617E+03	5.412997E-04	7.366800E-05
6.654520E+03	5.491237E-04	7.445785E-05
6.664422E+03	5.571398E-04	7.524706E-05
6.674325E+03	5.653580E-04	7.603591E-05
6.684227E+03	5.737602E-04	7.682086E-05
6.694130E+03	5.823656E-04	7.760338E-05
6.704032E+03	5.911547E-04	7.837975E-05
6.713935E+03	6.001486E-04	7.915159E-05
6.723837E+03	6.093257E-04	7.991486E-05
6.733740E+03	6.186972E-04	8.066987E-05
6.743643E+03	6.282621E-04	8.141522E-05
6.753545E+03	6.380082E-04	8.214815E-05
6.763448E+03	6.479468E-04	8.286887E-05
6.773350E+03	6.580646E-04	8.357440E-05
6.783253E+03	6.683725E-04	8.426491E-05
6.793155E+03	6.788442E-04	8.493581E-05
6.803058E+03	6.895013E-04	8.558858E-05
6.812960E+03	7.003307E-04	8.622032E-05
6.822863E+03	7.113279E-04	8.682927E-05
6.832766E+03	7.224773E-04	8.741232E-05
6.842668E+03	7.338017E-04	8.797101E-05
6.852571E+03	7.452560E-04	8.849878E-05
6.862473E+03	7.568785E-04	8.899909E-05
6.872376E+03	7.686342E-04	8.946667E-05
6.882278E+03	7.805189E-04	8.990002E-05
6.892181E+03	7.925415E-04	9.029918E-05
6.902083E+03	8.046801E-04	9.066069E-05
6.911986E+03	8.169278E-04	9.098294E-05
6.921889E+03	8.292770E-04	9.126431E-05
6.931791E+03	8.417198E-04	9.150324E-05
6.941694E+03	8.542472E-04	9.169816E-05
6.951596E+03	8.668343E-04	9.184593E-05
6.961499E+03	8.795036E-04	9.194860E-05
6.971401E+03	8.921945E-04	9.199959E-05
6.981304E+03	9.049476E-04	9.200305E-05
6.991207E+03	9.176971E-04	9.195238E-05
7.001109E+03	9.304679E-04	9.185040E-05
7.011012E+03	9.432278E-04	9.169439E-05
7.020914E+03	9.559630E-04	9.148371E-05
7.030817E+03	9.686784E-04	9.121975E-05
7.040719E+03	9.813212E-04	9.089870E-05
7.050622E+03	9.938936E-04	9.052226E-05
7.060524E+03	1.006360E-03	9.008898E-05
7.070427E+03	1.018723E-03	8.960118E-05
7.080330E+03	1.030965E-03	8.905978E-05
7.090232E+03	1.043047E-03	8.846417E-05
7.100135E+03	1.054972E-03	8.781774E-05
7.110037E+03	1.066676E-03	8.711893E-05
7.119940E+03	1.078183E-03	8.637376E-05
7.129842E+03	1.089451E-03	8.558347E-05
7.139745E+03	1.100436E-03	8.474967E-05
7.149647E+03	1.111138E-03	8.387811E-05
7.159550E+03	1.121535E-03	8.297345E-05
7.169453E+03	1.131584E-03	8.203919E-05
7.179355E+03	1.141259E-03	8.108111E-05
7.189258E+03	1.150537E-03	8.010581E-05
7.199160E+03	1.159396E-03	7.912044E-05
7.209063E+03	1.167813E-03	7.813295E-05
7.218965E+03	1.175715E-03	7.714870E-05
7.228868E+03	1.183126E-03	7.618012E-05
7.238770E+03	1.190000E-03	7.523546E-05
7.248673E+03	1.196288E-03	7.432359E-05
7.258576E+03	1.201992E-03	7.345693E-05
7.268478E+03	1.207040E-03	7.264357E-05
7.278381E+03	1.211409E-03	7.189488E-05
7.288283E+03	1.215078E-03	7.122211E-05
7.298186E+03	1.218001E-03	7.063480E-05
7.308088E+03	1.220184E-03	7.014481E-05
7.317991E+03	1.221532E-03	6.975731E-05
7.327894E+03	1.222079E-03	6.948368E-05
7.337796E+03	1.221760E-03	6.932804E-05
7.347699E+03	1.220588E-03	6.929719E-05
7.357601E+03	1.218530E-03	6.939227E-05
7.367504E+03	1.215584E-03	6.960924E-05
7.377406E+03	1.211779E-03	6.994260E-05
7.387309E+03	1.207089E-03	7.038221E-05
7.397211E+03	1.201601E-03	7.092266E-05
7.407114E+03	1.195270E-03	7.154994E-05
7.417017E+03	1.188158E-03	7.225538E-05
7.426919E+03	1.180254E-03	7.302527E-05
7.436822E+03	1.171650E-03	7.385209E-05
7.446724E+03	1.162340E-03	7.472201E-05
7.456627E+03	1.152345E-03	7.562311E-05
7.466529E+03	1.141711E-03	7.654545E-05
7.476432E+03	1.130463E-03	7.747804E-05
7.486334E+03	1.118679E-03	7.841410E-05
7.496237E+03	1.106334E-03	7.934057E-05
7.506140E+03	1.093482E-03	8.025036E-05
7.516042E+03	1.080175E-03	8.113712E-05
7.525945E+03	1.066420E-03	8.199182E-05
7.535847E+03	1.052270E-03	8.280974E-05
7.545750E+03	1.037730E-03	8.358316E-05
7.555652E+03	1.022877E-03	8.431082E-05
7.565555E+03	1.007695E-03	8.498446E-05
7.575457E+03	9.922575E-04	8.560407E-05
7.585360E+03	9.765486E-04	8.616270E-05
7.595263E+03	9.606418E-04	8.666165E-05
7.605165E+03	9.445198E-04	8.709482E-05
7.615068E+03	9.282525E-04	8.746452E-05
