#wls	flux	fluxerr
1.584409E+03	1.707068E-03	3.345750E-03
1.624020E+03	1.681914E-03	3.305181E-03
1.663630E+03	1.655139E-03	3.261228E-03
1.703240E+03	1.626002E-03	3.212448E-03
1.742850E+03	1.595285E-03	3.160302E-03
1.782461E+03	1.562250E-03	3.103324E-03
1.822071E+03	1.527644E-03	3.042932E-03
1.861681E+03	1.490883E-03	2.977942E-03
1.901291E+03	1.452789E-03	2.909948E-03
1.940902E+03	1.412540E-03	2.837264E-03
1.980512E+03	1.371034E-03	2.761672E-03
2.020122E+03	1.327524E-03	2.681600E-03
2.059732E+03	1.282671E-03	2.598386E-03
2.099342E+03	1.236034E-03	2.511051E-03
2.138953E+03	1.188028E-03	2.420459E-03
2.178563E+03	1.137995E-03	2.325164E-03
2.218173E+03	1.086324E-03	2.225998E-03
2.257783E+03	1.032098E-03	2.120949E-03
2.297394E+03	9.769369E-04	2.013400E-03
2.337004E+03	9.214150E-04	1.904410E-03
2.376614E+03	8.665865E-04	1.796262E-03
2.416224E+03	8.125012E-04	1.688948E-03
2.455835E+03	7.598225E-04	1.583981E-03
2.495445E+03	7.084716E-04	1.481093E-03
2.535055E+03	6.588337E-04	1.381240E-03
2.574665E+03	6.108066E-04	1.284104E-03
2.614276E+03	5.646833E-04	1.190465E-03
2.653886E+03	5.203539E-04	1.099988E-03
2.693496E+03	4.780154E-04	1.013260E-03
2.733106E+03	4.376209E-04	9.300806E-04
2.772716E+03	3.992723E-04	8.508400E-04
2.812327E+03	3.629262E-04	7.753504E-04
2.851937E+03	3.287055E-04	7.040448E-04
2.891547E+03	2.966515E-04	6.369247E-04
2.931157E+03	2.668791E-04	5.744031E-04
2.964700E+03	1.481991E-03	3.195928E-03
2.977178E+03	1.467857E-03	3.167769E-03
2.994409E+03	1.446933E-03	3.125663E-03
2.997776E+03	1.444182E-03	3.120317E-03
2.998766E+03	1.444433E-03	3.121032E-03
3.003718E+03	1.439360E-03	3.110934E-03
3.006094E+03	1.437115E-03	3.106491E-03
3.010650E+03	1.432235E-03	3.096728E-03
3.013423E+03	1.429392E-03	3.091054E-03
3.013819E+03	1.429741E-03	3.091877E-03
3.015403E+03	1.428706E-03	3.089908E-03
3.018176E+03	1.426074E-03	3.084688E-03
3.018374E+03	1.426775E-03	3.086237E-03
3.018572E+03	1.426842E-03	3.086416E-03
3.018770E+03	1.426910E-03	3.086597E-03
3.021543E+03	1.423648E-03	3.080009E-03
3.021741E+03	1.423611E-03	3.079962E-03
3.022335E+03	1.422868E-03	3.078454E-03
3.023326E+03	1.422363E-03	3.077528E-03
3.024119E+03	1.421372E-03	3.075519E-03
3.026099E+03	1.418689E-03	3.070045E-03
3.026891E+03	1.417596E-03	3.067812E-03
3.027089E+03	1.417245E-03	3.067086E-03
3.027684E+03	1.416400E-03	3.065356E-03
3.027882E+03	1.415840E-03	3.064176E-03
3.028476E+03	1.415204E-03	3.062899E-03
3.029466E+03	1.414180E-03	3.060848E-03
3.030257E+03	1.412570E-03	3.057494E-03
3.031447E+03	1.410258E-03	3.052688E-03
3.032635E+03	1.408471E-03	3.049016E-03
3.032833E+03	1.407498E-03	3.046941E-03
3.033229E+03	1.406279E-03	3.044367E-03
3.034813E+03	1.403902E-03	3.039482E-03
3.035606E+03	1.402300E-03	3.036143E-03
3.036200E+03	1.400528E-03	3.032404E-03
3.036992E+03	1.398825E-03	3.028846E-03
3.037586E+03	1.396850E-03	3.024667E-03
3.038181E+03	1.394978E-03	3.020710E-03
3.039172E+03	1.392417E-03	3.015324E-03
3.039766E+03	1.390343E-03	3.010930E-03
3.040360E+03	1.388168E-03	3.006315E-03
3.040558E+03	1.386479E-03	3.002689E-03
3.043924E+03	1.380926E-03	2.991201E-03
3.044122E+03	1.379139E-03	2.987363E-03
3.044320E+03	1.377354E-03	2.983528E-03
3.044518E+03	1.375569E-03	2.979693E-03
3.045112E+03	1.373201E-03	2.974659E-03
3.045905E+03	1.370492E-03	2.968916E-03
3.046103E+03	1.368505E-03	2.964643E-03
3.046301E+03	1.366518E-03	2.960369E-03
3.047292E+03	1.363475E-03	2.953932E-03
3.048282E+03	1.360334E-03	2.947283E-03
3.049074E+03	1.357331E-03	2.940901E-03
3.049470E+03	1.354806E-03	2.935492E-03
3.050460E+03	1.351368E-03	2.928197E-03
3.050659E+03	1.348777E-03	2.922613E-03
3.050857E+03	1.346187E-03	2.917031E-03
3.051055E+03	1.343495E-03	2.911228E-03
3.051253E+03	1.340804E-03	2.905427E-03
3.051847E+03	1.337543E-03	2.898452E-03
3.052045E+03	1.334752E-03	2.892435E-03
3.052441E+03	1.331626E-03	2.885722E-03
3.052639E+03	1.328737E-03	2.879490E-03
3.053035E+03	1.325512E-03	2.872563E-03
3.054620E+03	1.320800E-03	2.862589E-03
3.054818E+03	1.317712E-03	2.855928E-03
3.055412E+03	1.314165E-03	2.848328E-03
3.055808E+03	1.310953E-03	2.841426E-03
3.056006E+03	1.307768E-03	2.834553E-03
3.056600E+03	1.304127E-03	2.826751E-03
3.056798E+03	1.300538E-03	2.819000E-03
3.056996E+03	1.297256E-03	2.811915E-03
3.058184E+03	1.293045E-03	2.802962E-03
3.058383E+03	1.289564E-03	2.795446E-03
3.058581E+03	1.286390E-03	2.788594E-03
3.060166E+03	1.281336E-03	2.777870E-03
3.060364E+03	1.277965E-03	2.770591E-03
3.060760E+03	1.274067E-03	2.762196E-03
3.060958E+03	1.270191E-03	2.753822E-03
3.061552E+03	1.265771E-03	2.744324E-03
3.062741E+03	1.260590E-03	2.733262E-03
3.062939E+03	1.256926E-03	2.725345E-03
3.063137E+03	1.252857E-03	2.716552E-03
3.063731E+03	1.249162E-03	2.708623E-03
3.063929E+03	1.244996E-03	2.699618E-03
3.064325E+03	1.241019E-03	2.691049E-03
3.064918E+03	1.236525E-03	2.681389E-03
3.065314E+03	1.232048E-03	2.671735E-03
3.065512E+03	1.227488E-03	2.661873E-03
3.066503E+03	1.222876E-03	2.652010E-03
3.066701E+03	1.218625E-03	2.642816E-03
3.066899E+03	1.214172E-03	2.633187E-03
3.067097E+03	1.209519E-03	2.623122E-03
3.067295E+03	1.205271E-03	2.613938E-03
3.067493E+03	1.200521E-03	2.603662E-03
3.067890E+03	1.195459E-03	2.592738E-03
3.068484E+03	1.190396E-03	2.581836E-03
3.068682E+03	1.185350E-03	2.570919E-03
3.069276E+03	1.180193E-03	2.559813E-03
3.069474E+03	1.175556E-03	2.549782E-03
3.069870E+03	1.170613E-03	2.539113E-03
3.070069E+03	1.165980E-03	2.529089E-03
3.071257E+03	1.159825E-03	2.515894E-03
3.071455E+03	1.154596E-03	2.504575E-03
3.071653E+03	1.149167E-03	2.492825E-03
3.072049E+03	1.143540E-03	2.480668E-03
3.072247E+03	1.138216E-03	2.469144E-03
3.073237E+03	1.131897E-03	2.455562E-03
3.073435E+03	1.126380E-03	2.443619E-03
3.073633E+03	1.120865E-03	2.431680E-03
3.073831E+03	1.115352E-03	2.419744E-03
3.075219E+03	1.108669E-03	2.405417E-03
3.075813E+03	1.102778E-03	2.392708E-03
3.076604E+03	1.096600E-03	2.379401E-03
3.076803E+03	1.090905E-03	2.367068E-03
3.078189E+03	1.084168E-03	2.352617E-03
3.078585E+03	1.078293E-03	2.339916E-03
3.078981E+03	1.072322E-03	2.327006E-03
3.079179E+03	1.066542E-03	2.314488E-03
3.079971E+03	1.060206E-03	2.300830E-03
3.080169E+03	1.054434E-03	2.288327E-03
3.080367E+03	1.048763E-03	2.276044E-03
3.080565E+03	1.043096E-03	2.263767E-03
3.080763E+03	1.037031E-03	2.250627E-03
3.080961E+03	1.030868E-03	2.237275E-03
3.081952E+03	1.024384E-03	2.223316E-03
3.082745E+03	1.017592E-03	2.208662E-03
3.083933E+03	1.010851E-03	2.194165E-03
3.084131E+03	1.005207E-03	2.181935E-03
3.084329E+03	9.993650E-04	2.169277E-03
3.085121E+03	9.928222E-04	2.155161E-03
3.085319E+03	9.863534E-04	2.141141E-03
3.086706E+03	9.790188E-04	2.125369E-03
3.087300E+03	9.723867E-04	2.111034E-03
3.087498E+03	9.662001E-04	2.097625E-03
3.088883E+03	9.591901E-04	2.082552E-03
3.090667E+03	9.512064E-04	2.065404E-03
3.090865E+03	9.448739E-04	2.051674E-03
3.091063E+03	9.381880E-04	2.037177E-03
3.093242E+03	9.301188E-04	2.019877E-03
3.094430E+03	9.227140E-04	2.003916E-03
3.094628E+03	9.163084E-04	1.990024E-03
3.095024E+03	9.096956E-04	1.975702E-03
3.095222E+03	9.031775E-04	1.961565E-03
3.096410E+03	8.958024E-04	1.945664E-03
3.096608E+03	8.891766E-04	1.931292E-03
3.097004E+03	8.823389E-04	1.916478E-03
3.098986E+03	8.742196E-04	1.899030E-03
3.099184E+03	8.674460E-04	1.884335E-03
3.099976E+03	8.601597E-04	1.868581E-03
3.100174E+03	8.532574E-04	1.853605E-03
3.100569E+03	8.461399E-04	1.838179E-03
3.101165E+03	8.388184E-04	1.822328E-03
3.101363E+03	8.319076E-04	1.807332E-03
3.101560E+03	8.246962E-04	1.791682E-03
3.102748E+03	8.167841E-04	1.774598E-03
3.103144E+03	8.100945E-04	1.760098E-03
3.103936E+03	8.025988E-04	1.743880E-03
3.104729E+03	7.948977E-04	1.727215E-03
3.104928E+03	7.878400E-04	1.711897E-03
3.105126E+03	7.813699E-04	1.697854E-03
3.105324E+03	7.742975E-04	1.682503E-03
3.105522E+03	7.672667E-04	1.667242E-03
3.106710E+03	7.592059E-04	1.649823E-03
3.106908E+03	7.518648E-04	1.633886E-03
3.109087E+03	7.430939E-04	1.614999E-03
3.109483E+03	7.361362E-04	1.599909E-03
3.110869E+03	7.279659E-04	1.582259E-03
3.111265E+03	7.206070E-04	1.566295E-03
3.112454E+03	7.129609E-04	1.549766E-03
3.113048E+03	7.052026E-04	1.532946E-03
3.113445E+03	6.978164E-04	1.516919E-03
3.113840E+03	6.905721E-04	1.501200E-03
3.114434E+03	6.832983E-04	1.485431E-03
3.115424E+03	6.756380E-04	1.468849E-03
3.115622E+03	6.686476E-04	1.453666E-03
3.116414E+03	6.611151E-04	1.437346E-03
3.116613E+03	6.542877E-04	1.422516E-03
3.117009E+03	6.473096E-04	1.407371E-03
3.117603E+03	6.398177E-04	1.391123E-03
3.118989E+03	6.318663E-04	1.373927E-03
3.119386E+03	6.243126E-04	1.357528E-03
3.120376E+03	6.169181E-04	1.341514E-03
3.120575E+03	6.092949E-04	1.324949E-03
3.121367E+03	6.017680E-04	1.308632E-03
3.121763E+03	5.947312E-04	1.293354E-03
3.121961E+03	5.874576E-04	1.277548E-03
3.122951E+03	5.794007E-04	1.260087E-03
3.123149E+03	5.727517E-04	1.245639E-03
3.123347E+03	5.654524E-04	1.229776E-03
3.123743E+03	5.576155E-04	1.212755E-03
3.125723E+03	5.499530E-04	1.196203E-03
3.126317E+03	5.423383E-04	1.179674E-03
3.128100E+03	5.341525E-04	1.161968E-03
3.130675E+03	5.254849E-04	1.143253E-03
3.130873E+03	5.181183E-04	1.127237E-03
3.131071E+03	5.113262E-04	1.112470E-03
3.131269E+03	5.037551E-04	1.096008E-03
3.132062E+03	4.961034E-04	1.079401E-03
3.132656E+03	4.889011E-04	1.063761E-03
3.133250E+03	4.812688E-04	1.047184E-03
3.133448E+03	4.738222E-04	1.030991E-03
3.133646E+03	4.663212E-04	1.014679E-03
3.134043E+03	4.592448E-04	9.992997E-04
3.134637E+03	4.516183E-04	9.827325E-04
3.135033E+03	4.442118E-04	9.666337E-04
3.135231E+03	4.366221E-04	9.501269E-04
3.135429E+03	4.296332E-04	9.349272E-04
3.135627E+03	4.222006E-04	9.187617E-04
3.136222E+03	4.145759E-04	9.021948E-04
3.136816E+03	4.073859E-04	8.865727E-04
3.137211E+03	4.002748E-04	8.711135E-04
3.137410E+03	3.930010E-04	8.552916E-04
3.138003E+03	3.853660E-04	8.386991E-04
3.138597E+03	3.779186E-04	8.225137E-04
3.138795E+03	3.704782E-04	8.063277E-04
3.140380E+03	3.632412E-04	7.906355E-04
3.141371E+03	3.563552E-04	7.756833E-04
3.141569E+03	3.492769E-04	7.602828E-04
3.141965E+03	3.423667E-04	7.452549E-04
3.142559E+03	3.353734E-04	7.300525E-04
3.142757E+03	3.280893E-04	7.142028E-04
3.143351E+03	3.209105E-04	6.985950E-04
3.143549E+03	3.136625E-04	6.828229E-04
3.143946E+03	3.068053E-04	6.679075E-04
3.144144E+03	2.999591E-04	6.530096E-04
3.144738E+03	2.928041E-04	6.374507E-04
3.145530E+03	2.859538E-04	6.225602E-04
3.146124E+03	2.787866E-04	6.069731E-04
3.146322E+03	2.718177E-04	5.918059E-04
3.146520E+03	2.648794E-04	5.767051E-04
3.147114E+03	2.581149E-04	5.619926E-04
3.147312E+03	2.511935E-04	5.469276E-04
3.147907E+03	2.444691E-04	5.323011E-04
3.148500E+03	2.380993E-04	5.184458E-04
3.148699E+03	2.316399E-04	5.043857E-04
3.149293E+03	2.253842E-04	4.907776E-04
3.149491E+03	2.186695E-04	4.761606E-04
3.149887E+03	2.118819E-04	4.613887E-04
3.152264E+03	2.051176E-04	4.467080E-04
3.152462E+03	1.990974E-04	4.336010E-04
3.153452E+03	1.929232E-04	4.201737E-04
3.154244E+03	1.865970E-04	4.064105E-04
3.154640E+03	1.802880E-04	3.926765E-04
3.155433E+03	1.739121E-04	3.788032E-04
3.155631E+03	1.676068E-04	3.650727E-04
3.155829E+03	1.613410E-04	3.514281E-04
3.156424E+03	1.550687E-04	3.377751E-04
3.157018E+03	1.488498E-04	3.242376E-04
3.157612E+03	1.426652E-04	3.107743E-04
3.158008E+03	1.365675E-04	2.974967E-04
3.158206E+03	1.305438E-04	2.843774E-04
3.158404E+03	1.245688E-04	2.713637E-04
3.158998E+03	1.186000E-04	2.583683E-04
3.159197E+03	1.127336E-04	2.455905E-04
3.159593E+03	1.069060E-04	2.328992E-04
3.159989E+03	1.011288E-04	2.203174E-04
3.160187E+03	9.544711E-05	2.079412E-04
3.160978E+03	8.977700E-05	1.955953E-04
3.161176E+03	8.422763E-05	1.835067E-04
3.161375E+03	7.874687E-05	1.715673E-04
3.161968E+03	7.330884E-05	1.597236E-04
3.162562E+03	6.794787E-05	1.480472E-04
3.162760E+03	6.269183E-05	1.365964E-04
3.163554E+03	5.748094E-05	1.252471E-04
3.163752E+03	5.237396E-05	1.141204E-04
3.164940E+03	4.729693E-05	1.030633E-04
3.165138E+03	4.273796E-05	9.312978E-05
3.166326E+03	3.775690E-05	8.228001E-05
3.166524E+03	3.310282E-05	7.213847E-05
3.166722E+03	2.833503E-05	6.174892E-05
3.166921E+03	2.356063E-05	5.134481E-05
3.167317E+03	1.908072E-05	4.158263E-05
3.167911E+03	1.506886E-05	3.284046E-05
3.168109E+03	1.047340E-05	2.282550E-05
3.168703E+03	6.002696E-06	1.308249E-05
3.169099E+03	1.592681E-06	3.471208E-06
3.169297E+03	-2.411157E-06	-5.255103E-06
3.169495E+03	-6.547530E-06	-1.427043E-05
3.170287E+03	-1.063411E-05	-2.317800E-05
3.170883E+03	-1.474993E-05	-3.214965E-05
3.171675E+03	-1.805759E-05	-3.936058E-05
3.172467E+03	-2.166723E-05	-4.723026E-05
3.172664E+03	-2.551020E-05	-5.560766E-05
3.172863E+03	-2.918561E-05	-6.361996E-05
3.173061E+03	-3.273766E-05	-7.136349E-05
3.173258E+03	-3.602329E-05	-7.852638E-05
3.173852E+03	-3.960641E-05	-8.633943E-05
3.174050E+03	-4.235477E-05	-9.233147E-05
3.174843E+03	-4.563418E-05	-9.948391E-05
3.175239E+03	-4.896574E-05	-1.067487E-04
3.175635E+03	-5.191674E-05	-1.131841E-04
3.175833E+03	-5.508600E-05	-1.200944E-04
3.176031E+03	-5.816168E-05	-1.268009E-04
3.176229E+03	-6.054074E-05	-1.319887E-04
3.176625E+03	-6.311081E-05	-1.375943E-04
3.176823E+03	-6.566971E-05	-1.431745E-04
3.177021E+03	-6.830362E-05	-1.489183E-04
3.177417E+03	-7.038911E-05	-1.534678E-04
3.177615E+03	-7.256741E-05	-1.582185E-04
3.177813E+03	-7.498617E-05	-1.634936E-04
3.178012E+03	-7.729895E-05	-1.685376E-04
3.178210E+03	-7.916330E-05	-1.726040E-04
3.178408E+03	-8.108913E-05	-1.768045E-04
3.178805E+03	-8.289991E-05	-1.807559E-04
3.179003E+03	-8.462586E-05	-1.845208E-04
3.179201E+03	-8.625360E-05	-1.880716E-04
3.179993E+03	-8.773062E-05	-1.912988E-04
3.180191E+03	-8.915937E-05	-1.944159E-04
3.180389E+03	-9.048182E-05	-1.973012E-04
3.180587E+03	-9.169351E-05	-1.999451E-04
3.180785E+03	-9.280723E-05	-2.023754E-04
3.181181E+03	-9.378538E-05	-2.045119E-04
3.181973E+03	-9.463785E-05	-2.063780E-04
3.182369E+03	-9.545037E-05	-2.081535E-04
3.182964E+03	-9.609054E-05	-2.095549E-04
3.183162E+03	-9.645532E-05	-2.103523E-04
3.183360E+03	-9.683811E-05	-2.111889E-04
3.183558E+03	-9.708443E-05	-2.117279E-04
3.184547E+03	-9.694325E-05	-2.114291E-04
3.184746E+03	-9.708929E-05	-2.117494E-04
3.185736E+03	-9.690271E-05	-2.113515E-04
3.185934E+03	-9.674026E-05	-2.109990E-04
3.186529E+03	-9.651607E-05	-2.105155E-04
3.186727E+03	-9.583704E-05	-2.090362E-04
3.186925E+03	-9.483202E-05	-2.068459E-04
3.187717E+03	-9.409394E-05	-2.052430E-04
3.187915E+03	-9.312631E-05	-2.031341E-04
3.188707E+03	-9.197380E-05	-2.006270E-04
3.188905E+03	-9.087166E-05	-1.982245E-04
3.189103E+03	-8.924161E-05	-1.946704E-04
3.189301E+03	-8.781385E-05	-1.915576E-04
3.190093E+03	-8.611249E-05	-1.878526E-04
3.191084E+03	-8.459434E-05	-1.845486E-04
3.191480E+03	-8.273538E-05	-1.804962E-04
3.192669E+03	-8.072859E-05	-1.761271E-04
3.192867E+03	-7.885709E-05	-1.720455E-04
3.193461E+03	-7.677033E-05	-1.674970E-04
3.194848E+03	-7.407979E-05	-1.616363E-04
3.195046E+03	-7.161656E-05	-1.562631E-04
3.195244E+03	-6.920370E-05	-1.509996E-04
3.195442E+03	-6.667836E-05	-1.454907E-04
3.195640E+03	-6.352716E-05	-1.386160E-04
3.195838E+03	-6.043912E-05	-1.318790E-04
3.196036E+03	-5.727308E-05	-1.249717E-04
3.197619E+03	-5.383846E-05	-1.174851E-04
3.197817E+03	-5.026673E-05	-1.096919E-04
3.198016E+03	-4.660386E-05	-1.016996E-04
3.198412E+03	-4.306019E-05	-9.396815E-05
3.198610E+03	-3.887951E-05	-8.484557E-05
3.198808E+03	-3.466805E-05	-7.565566E-05
3.199006E+03	-3.065981E-05	-6.690909E-05
3.199204E+03	-2.641278E-05	-5.764125E-05
3.199402E+03	-2.206601E-05	-4.815559E-05
3.199600E+03	-1.725217E-05	-3.765045E-05
3.200195E+03	-1.239707E-05	-2.705555E-05
3.200393E+03	-7.459382E-06	-1.627960E-05
3.201581E+03	-2.474249E-06	-5.400153E-06
3.201779E+03	2.851722E-06	6.224055E-06
3.201978E+03	8.121247E-06	1.772526E-05
3.202770E+03	1.355742E-05	2.959112E-05
3.202968E+03	1.924712E-05	4.201010E-05
3.203166E+03	2.539655E-05	5.543272E-05
3.204552E+03	3.139657E-05	6.853285E-05
3.205741E+03	3.768848E-05	8.227100E-05
3.206137E+03	4.422017E-05	9.653075E-05
3.206335E+03	5.097001E-05	1.112663E-04
3.206533E+03	5.762749E-05	1.258004E-04
3.206731E+03	6.446153E-05	1.407202E-04
3.206929E+03	7.146312E-05	1.560061E-04
3.207722E+03	7.858008E-05	1.715482E-04
3.207920E+03	8.604240E-05	1.878408E-04
3.208315E+03	9.380628E-05	2.047936E-04
3.208909E+03	1.014414E-04	2.214678E-04
3.209108E+03	1.094183E-04	2.388849E-04
3.209305E+03	1.176323E-04	2.568201E-04
3.210494E+03	1.258547E-04	2.747851E-04
3.210692E+03	1.344634E-04	2.935832E-04
3.210890E+03	1.430779E-04	3.123944E-04
3.211088E+03	1.519731E-04	3.318187E-04
3.212870E+03	1.607760E-04	3.510646E-04
3.213068E+03	1.702007E-04	3.716472E-04
3.213266E+03	1.796398E-04	3.922614E-04
3.213663E+03	1.891920E-04	4.131262E-04
3.214257E+03	1.990200E-04	4.345974E-04
3.214456E+03	2.091066E-04	4.566272E-04
3.214654E+03	2.195786E-04	4.794990E-04
3.214852E+03	2.301883E-04	5.026716E-04
3.215446E+03	2.406371E-04	5.255018E-04
3.215842E+03	2.513757E-04	5.489616E-04
3.216238E+03	2.623096E-04	5.728485E-04
3.216436E+03	2.735494E-04	5.973994E-04
3.216634E+03	2.848734E-04	6.221347E-04
3.217030E+03	2.962900E-04	6.470779E-04
3.217228E+03	3.080094E-04	6.726778E-04
3.217625E+03	3.201168E-04	6.991309E-04
3.218021E+03	3.323388E-04	7.258353E-04
3.218417E+03	2.890294E-04	6.312566E-04
3.219011E+03	2.488236E-04	5.434579E-04
3.219209E+03	2.515165E-04	5.493440E-04
3.219407E+03	2.591546E-04	5.660312E-04
3.219605E+03	2.055724E-04	4.490034E-04
3.219803E+03	2.050428E-04	4.478502E-04
3.220001E+03	2.122365E-04	4.635662E-04
3.220198E+03	2.187330E-04	4.777598E-04
3.220594E+03	2.068299E-04	4.517679E-04
3.220792E+03	2.006134E-04	4.381931E-04
3.220991E+03	1.995753E-04	4.359292E-04
3.221189E+03	2.029401E-04	4.432824E-04
3.221387E+03	2.002857E-04	4.374878E-04
3.221586E+03	1.971665E-04	4.306780E-04
3.222180E+03	1.999574E-04	4.367846E-04
3.222576E+03	1.907237E-04	4.166211E-04
3.223566E+03	1.863790E-04	4.071466E-04
3.223962E+03	1.771090E-04	3.869024E-04
3.224160E+03	1.730111E-04	3.779534E-04
3.224556E+03	1.716350E-04	3.749530E-04
3.225151E+03	1.755262E-04	3.834628E-04
3.225745E+03	1.799731E-04	3.931872E-04
3.225943E+03	1.823643E-04	3.984143E-04
3.226339E+03	1.852724E-04	4.047740E-04
3.226537E+03	1.898386E-04	4.147533E-04
3.226933E+03	1.829960E-04	3.998102E-04
3.227527E+03	1.825566E-04	3.988596E-04
3.227725E+03	1.743829E-04	3.810043E-04
3.227923E+03	1.745350E-04	3.813396E-04
3.228121E+03	1.728184E-04	3.775920E-04
3.228319E+03	1.724295E-04	3.767451E-04
3.228517E+03	1.735681E-04	3.792358E-04
3.229113E+03	1.726892E-04	3.773244E-04
3.229509E+03	1.748510E-04	3.820539E-04
3.229707E+03	1.784292E-04	3.898755E-04
3.230697E+03	1.719968E-04	3.758351E-04
3.230895E+03	1.675326E-04	3.660831E-04
3.231093E+03	1.648640E-04	3.602545E-04
3.231291E+03	1.558490E-04	3.405580E-04
3.231489E+03	1.525305E-04	3.333091E-04
3.231687E+03	1.507015E-04	3.293148E-04
3.232875E+03	1.530692E-04	3.345043E-04
3.233074E+03	1.502425E-04	3.283296E-04
3.233469E+03	1.499193E-04	3.276284E-04
3.233667E+03	1.507611E-04	3.294706E-04
3.233865E+03	1.503952E-04	3.286735E-04
3.234063E+03	1.489613E-04	3.255424E-04
3.234459E+03	1.455132E-04	3.180118E-04
3.234657E+03	1.471796E-04	3.216561E-04
3.234855E+03	1.483335E-04	3.241804E-04
3.235053E+03	1.476039E-04	3.225885E-04
3.235251E+03	1.475427E-04	3.224572E-04
3.236242E+03	1.409353E-04	3.080284E-04
3.236638E+03	1.407979E-04	3.077329E-04
3.236837E+03	1.425052E-04	3.114668E-04
3.237035E+03	1.414662E-04	3.091984E-04
3.237431E+03	1.369823E-04	2.994025E-04
3.237629E+03	1.375723E-04	3.006944E-04
3.238421E+03	1.383817E-04	3.024728E-04
3.238619E+03	1.383568E-04	3.024207E-04
3.238817E+03	1.393696E-04	3.046368E-04
3.239411E+03	1.400549E-04	3.061419E-04
3.239609E+03	1.400124E-04	3.060513E-04
3.240798E+03	1.405175E-04	3.071693E-04
3.241590E+03	1.411668E-04	3.085981E-04
3.241788E+03	1.397356E-04	3.054719E-04
3.242184E+03	1.347369E-04	2.945488E-04
3.242382E+03	1.337991E-04	2.925007E-04
3.242976E+03	1.312200E-04	2.868691E-04
3.243373E+03	1.304751E-04	2.852449E-04
3.243967E+03	1.316957E-04	2.879200E-04
3.244165E+03	1.315085E-04	2.875129E-04
3.244760E+03	1.327449E-04	2.902225E-04
3.245156E+03	1.333247E-04	2.914947E-04
3.245551E+03	1.297273E-04	2.836337E-04
3.245947E+03	1.302047E-04	2.846818E-04
