#wls	flux	fluxerr
1.584409E+03	3.336074E-03	4.870123E-04
1.624020E+03	3.450728E-03	5.037395E-04
1.663630E+03	3.562103E-03	5.199869E-04
1.703240E+03	3.669015E-03	5.355819E-04
1.742850E+03	3.770543E-03	5.503900E-04
1.782461E+03	3.865294E-03	5.642078E-04
1.822071E+03	3.952145E-03	5.768715E-04
1.861681E+03	4.029889E-03	5.882049E-04
1.901291E+03	4.096900E-03	5.979709E-04
1.940902E+03	4.151875E-03	6.059793E-04
1.980512E+03	4.193498E-03	6.120381E-04
2.020122E+03	4.220475E-03	6.159587E-04
2.059732E+03	4.231263E-03	6.175160E-04
2.099342E+03	4.224771E-03	6.165510E-04
2.138953E+03	4.199501E-03	6.128452E-04
2.178563E+03	4.154284E-03	6.062282E-04
2.218173E+03	4.087311E-03	5.964365E-04
2.257783E+03	3.997473E-03	5.833085E-04
2.297394E+03	3.886863E-03	5.671499E-04
2.337004E+03	3.758440E-03	5.483927E-04
2.376614E+03	3.614544E-03	5.273788E-04
2.416224E+03	3.457066E-03	5.043842E-04
2.455835E+03	3.287760E-03	4.796652E-04
2.495445E+03	3.108627E-03	4.535139E-04
2.535055E+03	2.921448E-03	4.261904E-04
2.574665E+03	2.728369E-03	3.980078E-04
2.614276E+03	2.531364E-03	3.692543E-04
2.653886E+03	2.332318E-03	3.402052E-04
2.693496E+03	2.133420E-03	3.111796E-04
2.733106E+03	1.936645E-03	2.824658E-04
2.772716E+03	1.743961E-03	2.543509E-04
2.812327E+03	1.557233E-03	2.271068E-04
2.851937E+03	1.378282E-03	2.009991E-04
2.891547E+03	1.208983E-03	1.763012E-04
2.931157E+03	1.051146E-03	1.532769E-04
2.970768E+03	9.060973E-04	1.321194E-04
2.980670E+03	8.719307E-04	1.271359E-04
2.990573E+03	8.386542E-04	1.222823E-04
3.000475E+03	8.062271E-04	1.175526E-04
3.010378E+03	7.746689E-04	1.129498E-04
3.020280E+03	7.440120E-04	1.084784E-04
3.030183E+03	7.142187E-04	1.041331E-04
3.040086E+03	6.853179E-04	9.991804E-05
3.049988E+03	6.573037E-04	9.583233E-05
3.059891E+03	6.301703E-04	9.187513E-05
3.069793E+03	6.039113E-04	8.804552E-05
3.079696E+03	5.785444E-04	8.434607E-05
3.089598E+03	5.540481E-04	8.077364E-05
3.099501E+03	5.304233E-04	7.732835E-05
3.109403E+03	5.076589E-04	7.400857E-05
3.119306E+03	4.857426E-04	7.081253E-05
3.129209E+03	4.646700E-04	6.773956E-05
3.139111E+03	4.444342E-04	6.478866E-05
3.149014E+03	4.250019E-04	6.195497E-05
3.158916E+03	4.063792E-04	5.923937E-05
3.168819E+03	3.885388E-04	5.663788E-05
3.178721E+03	3.714673E-04	5.414856E-05
3.188624E+03	3.551433E-04	5.176825E-05
3.198526E+03	3.395388E-04	4.949290E-05
3.208429E+03	3.246491E-04	4.732178E-05
3.218332E+03	3.104339E-04	4.524905E-05
3.228234E+03	2.968862E-04	4.327368E-05
3.238137E+03	2.839812E-04	4.139204E-05
3.248039E+03	2.716866E-04	3.959942E-05
3.257942E+03	2.599913E-04	3.789420E-05
3.267844E+03	2.488634E-04	3.627173E-05
3.277747E+03	2.382839E-04	3.472921E-05
3.287650E+03	2.282294E-04	3.326329E-05
3.297552E+03	2.186811E-04	3.187116E-05
3.307455E+03	2.096131E-04	3.054908E-05
3.317357E+03	2.010041E-04	2.929393E-05
3.327260E+03	1.928334E-04	2.810270E-05
3.337162E+03	1.850834E-04	2.697281E-05
3.347065E+03	1.777318E-04	2.590101E-05
3.356967E+03	1.707599E-04	2.488458E-05
3.366870E+03	1.641496E-04	2.392087E-05
3.376773E+03	1.578815E-04	2.300706E-05
3.386675E+03	1.519393E-04	2.214077E-05
3.396578E+03	1.463072E-04	2.131970E-05
3.406480E+03	1.409686E-04	2.054142E-05
3.416383E+03	1.359093E-04	1.980385E-05
3.426285E+03	1.311142E-04	1.910481E-05
3.436188E+03	1.265691E-04	1.844223E-05
3.446090E+03	1.222608E-04	1.781416E-05
3.455993E+03	1.181754E-04	1.721859E-05
3.465896E+03	1.143025E-04	1.665401E-05
3.475798E+03	1.106299E-04	1.611862E-05
3.485701E+03	1.071450E-04	1.561059E-05
3.495603E+03	1.038351E-04	1.512807E-05
3.505506E+03	1.006916E-04	1.466983E-05
3.515408E+03	9.770370E-05	1.423425E-05
3.525311E+03	9.485923E-05	1.381960E-05
3.535213E+03	9.215008E-05	1.342467E-05
3.545116E+03	8.956773E-05	1.304822E-05
3.555019E+03	8.710352E-05	1.268900E-05
3.564921E+03	8.474864E-05	1.234571E-05
3.574824E+03	8.249811E-05	1.201764E-05
3.584726E+03	8.034568E-05	1.170387E-05
3.594629E+03	7.828544E-05	1.140354E-05
3.604531E+03	7.631535E-05	1.111635E-05
3.614434E+03	7.443115E-05	1.084168E-05
3.624337E+03	7.262939E-05	1.057903E-05
3.634239E+03	7.090734E-05	1.032800E-05
3.644142E+03	6.926219E-05	1.008817E-05
3.654044E+03	6.769055E-05	9.859064E-06
3.663947E+03	6.619083E-05	9.640439E-06
3.673849E+03	6.475916E-05	9.431731E-06
3.683752E+03	6.339339E-05	9.232629E-06
3.693654E+03	6.209191E-05	9.042897E-06
3.703557E+03	6.085055E-05	8.861927E-06
3.713460E+03	5.966873E-05	8.689635E-06
3.723362E+03	5.854251E-05	8.525445E-06
3.733265E+03	5.747088E-05	8.369210E-06
3.743167E+03	5.645148E-05	8.220586E-06
3.753070E+03	5.548197E-05	8.079233E-06
3.762972E+03	5.456062E-05	7.944898E-06
3.772875E+03	5.368529E-05	7.817268E-06
3.782777E+03	5.285435E-05	7.696107E-06
3.792680E+03	5.206621E-05	7.581182E-06
3.802583E+03	5.131901E-05	7.472221E-06
3.812485E+03	5.061128E-05	7.369012E-06
3.822388E+03	4.994172E-05	7.271362E-06
3.832290E+03	4.930857E-05	7.179017E-06
3.842193E+03	4.871067E-05	7.091808E-06
3.852095E+03	4.814679E-05	7.009554E-06
3.861998E+03	4.761549E-05	6.932047E-06
3.871900E+03	4.711565E-05	6.859123E-06
3.881803E+03	4.664594E-05	6.790586E-06
3.891706E+03	4.620572E-05	6.726345E-06
3.901608E+03	4.579374E-05	6.666216E-06
3.911511E+03	4.540905E-05	6.610062E-06
3.921413E+03	4.505014E-05	6.557662E-06
3.931316E+03	4.471688E-05	6.508998E-06
3.941218E+03	4.440781E-05	6.463856E-06
3.951121E+03	4.412215E-05	6.422122E-06
3.961024E+03	4.385889E-05	6.383650E-06
3.970926E+03	4.361765E-05	6.348384E-06
3.980829E+03	4.339712E-05	6.316132E-06
3.990731E+03	4.319702E-05	6.286855E-06
4.000634E+03	4.301605E-05	6.260362E-06
4.010536E+03	4.285401E-05	6.236624E-06
4.020439E+03	4.270968E-05	6.215464E-06
4.030341E+03	4.258257E-05	6.196810E-06
4.040244E+03	4.247218E-05	6.180589E-06
4.050147E+03	4.237804E-05	6.166732E-06
4.060049E+03	4.229906E-05	6.155081E-06
4.069952E+03	4.223484E-05	6.145578E-06
4.079854E+03	4.218466E-05	6.138117E-06
4.089757E+03	4.214817E-05	6.132647E-06
4.099659E+03	4.212501E-05	6.129117E-06
4.109562E+03	4.211419E-05	6.127381E-06
4.119464E+03	4.211579E-05	6.127450E-06
4.129367E+03	4.212884E-05	6.129185E-06
4.139270E+03	4.215309E-05	6.132547E-06
4.149172E+03	4.218831E-05	6.137506E-06
4.159075E+03	4.223361E-05	6.143928E-06
4.168977E+03	4.228882E-05	6.151792E-06
4.178880E+03	4.235341E-05	6.161017E-06
4.188782E+03	4.242755E-05	6.171631E-06
4.198685E+03	4.251012E-05	6.183469E-06
4.208587E+03	4.260129E-05	6.196556E-06
4.218490E+03	4.270030E-05	6.210782E-06
4.228393E+03	4.280735E-05	6.226176E-06
4.238295E+03	4.292137E-05	6.242581E-06
4.248198E+03	4.304229E-05	6.259987E-06
4.258100E+03	4.317002E-05	6.278382E-06
4.268003E+03	4.330347E-05	6.297608E-06
4.277905E+03	4.344293E-05	6.317703E-06
4.287808E+03	4.358698E-05	6.338466E-06
4.297711E+03	4.373591E-05	6.359934E-06
4.307613E+03	4.388792E-05	6.381848E-06
4.317516E+03	4.404296E-05	6.404201E-06
4.327418E+03	4.420199E-05	6.427131E-06
4.337321E+03	4.436500E-05	6.450638E-06
4.347223E+03	4.453230E-05	6.474764E-06
4.357126E+03	4.470388E-05	6.499513E-06
4.367028E+03	4.487906E-05	6.524780E-06
4.376931E+03	4.505856E-05	6.550673E-06
4.386834E+03	4.524167E-05	6.577088E-06
4.396736E+03	4.542844E-05	6.604032E-06
4.406639E+03	4.561859E-05	6.631463E-06
4.416541E+03	4.581216E-05	6.659391E-06
4.426444E+03	4.600854E-05	6.687722E-06
4.436346E+03	4.620816E-05	6.716521E-06
4.446249E+03	4.641044E-05	6.745705E-06
4.456151E+03	4.661512E-05	6.775234E-06
4.466054E+03	4.682277E-05	6.805192E-06
4.475957E+03	4.703246E-05	6.835441E-06
4.485859E+03	4.724438E-05	6.866013E-06
4.495762E+03	4.745882E-05	6.896947E-06
4.505664E+03	4.767527E-05	6.928169E-06
4.515567E+03	4.789405E-05	6.959726E-06
4.525469E+03	4.811472E-05	6.991555E-06
4.535372E+03	4.833762E-05	7.023704E-06
4.545274E+03	4.856274E-05	7.056173E-06
4.555177E+03	4.879009E-05	7.088961E-06
4.565080E+03	4.901930E-05	7.122014E-06
4.574982E+03	4.925121E-05	7.155458E-06
4.584885E+03	4.948502E-05	7.189173E-06
4.594787E+03	4.972123E-05	7.223234E-06
4.604690E+03	4.995987E-05	7.257643E-06
4.614592E+03	5.020061E-05	7.292352E-06
4.624495E+03	5.044432E-05	7.327490E-06
4.634398E+03	5.069028E-05	7.362951E-06
4.644300E+03	5.093896E-05	7.398802E-06
4.654203E+03	5.119135E-05	7.435187E-06
4.664105E+03	5.144710E-05	7.472055E-06
4.674008E+03	5.170677E-05	7.509490E-06
4.683910E+03	5.197096E-05	7.547575E-06
4.693813E+03	5.223978E-05	7.586330E-06
4.703715E+03	5.251335E-05	7.625769E-06
4.713618E+03	5.279281E-05	7.666058E-06
4.723521E+03	5.307732E-05	7.707076E-06
4.733423E+03	5.336803E-05	7.748989E-06
4.743326E+03	5.366510E-05	7.791820E-06
4.753228E+03	5.396825E-05	7.835530E-06
4.763131E+03	5.427865E-05	7.880287E-06
4.773033E+03	5.459600E-05	7.926047E-06
4.782936E+03	5.492056E-05	7.972848E-06
4.792838E+03	5.525253E-05	8.020719E-06
4.802741E+03	5.559215E-05	8.069695E-06
4.812644E+03	5.594069E-05	8.119960E-06
4.822546E+03	5.629689E-05	8.171329E-06
4.832449E+03	5.666204E-05	8.223993E-06
4.842351E+03	5.703592E-05	8.277916E-06
4.852254E+03	5.741928E-05	8.333211E-06
4.862156E+03	5.781195E-05	8.389848E-06
4.872059E+03	5.821417E-05	8.447865E-06
4.881961E+03	5.862678E-05	8.507382E-06
4.891864E+03	5.904900E-05	8.568286E-06
4.901767E+03	5.948162E-05	8.630693E-06
4.911669E+03	5.992494E-05	8.694644E-06
4.921572E+03	6.037921E-05	8.760177E-06
4.931474E+03	6.084416E-05	8.827251E-06
4.941377E+03	6.131999E-05	8.895894E-06
4.951279E+03	6.180756E-05	8.966232E-06
4.961182E+03	6.230593E-05	9.038130E-06
4.971085E+03	6.281647E-05	9.111783E-06
4.980987E+03	6.333820E-05	9.187050E-06
4.990890E+03	6.387133E-05	9.263963E-06
5.000792E+03	6.441662E-05	9.342627E-06
5.010695E+03	6.497364E-05	9.422986E-06
5.020597E+03	6.554253E-05	9.505054E-06
5.030500E+03	6.612281E-05	9.588764E-06
5.040402E+03	6.671522E-05	9.674222E-06
5.050305E+03	6.731986E-05	9.761445E-06
5.060208E+03	6.793559E-05	9.850264E-06
5.070110E+03	6.856310E-05	9.940779E-06
5.080013E+03	6.920250E-05	1.003301E-05
5.089915E+03	6.985385E-05	1.012696E-05
5.099818E+03	7.051656E-05	1.022254E-05
5.109720E+03	7.119069E-05	1.031977E-05
5.119623E+03	7.187564E-05	1.041855E-05
5.129525E+03	7.257281E-05	1.051909E-05
5.139428E+03	7.328086E-05	1.062120E-05
5.149331E+03	7.399987E-05	1.072488E-05
5.159233E+03	7.472986E-05	1.083014E-05
5.169136E+03	7.547156E-05	1.093708E-05
5.179038E+03	7.622360E-05	1.104551E-05
5.188941E+03	7.698589E-05	1.115541E-05
5.198843E+03	7.775998E-05	1.126700E-05
5.208746E+03	7.854352E-05	1.137995E-05
5.218648E+03	7.933801E-05	1.149446E-05
5.228551E+03	8.014254E-05	1.161042E-05
5.238454E+03	8.095706E-05	1.172781E-05
5.248356E+03	8.178216E-05	1.184672E-05
5.258259E+03	8.261609E-05	1.196689E-05
5.268161E+03	8.345943E-05	1.208841E-05
5.278064E+03	8.431187E-05	1.221122E-05
5.287966E+03	8.517315E-05	1.233530E-05
5.297869E+03	8.604370E-05	1.246071E-05
5.307772E+03	8.692150E-05	1.258715E-05
5.317674E+03	8.780686E-05	1.271466E-05
5.327577E+03	8.869925E-05	1.284318E-05
5.337479E+03	8.959721E-05	1.297248E-05
5.347382E+03	9.050182E-05	1.310273E-05
5.357284E+03	9.141151E-05	1.323370E-05
5.367187E+03	9.232450E-05	1.336512E-05
5.377089E+03	9.323993E-05	1.349688E-05
5.386992E+03	9.415776E-05	1.362896E-05
5.396895E+03	9.507504E-05	1.376095E-05
5.406797E+03	9.599164E-05	1.389282E-05
5.416700E+03	9.690629E-05	1.402439E-05
5.426602E+03	9.781583E-05	1.415519E-05
5.436505E+03	9.871881E-05	1.428503E-05
5.446407E+03	9.961478E-05	1.441384E-05
5.456310E+03	1.005012E-04	1.454124E-05
5.466212E+03	1.013754E-04	1.466685E-05
5.476115E+03	1.022346E-04	1.479027E-05
5.486018E+03	1.030790E-04	1.491155E-05
5.495920E+03	1.039037E-04	1.502994E-05
5.505823E+03	1.047077E-04	1.514533E-05
5.515725E+03	1.054880E-04	1.525726E-05
5.525628E+03	1.062424E-04	1.536543E-05
5.535530E+03	1.069688E-04	1.546953E-05
5.545433E+03	1.076641E-04	1.556911E-05
5.555335E+03	1.083271E-04	1.566401E-05
5.565238E+03	1.089546E-04	1.575376E-05
5.575141E+03	1.095434E-04	1.583790E-05
5.585043E+03	1.100938E-04	1.591646E-05
5.594946E+03	1.106025E-04	1.598899E-05
5.604848E+03	1.110666E-04	1.605506E-05
5.614751E+03	1.114856E-04	1.611458E-05
5.624653E+03	1.118588E-04	1.616748E-05
5.634556E+03	1.121826E-04	1.621323E-05
5.644459E+03	1.124569E-04	1.625179E-05
5.654361E+03	1.126815E-04	1.628319E-05
5.664264E+03	1.128545E-04	1.630711E-05
5.674166E+03	1.129763E-04	1.632362E-05
5.684069E+03	1.130450E-04	1.633245E-05
5.693971E+03	1.130614E-04	1.633372E-05
5.703874E+03	1.130253E-04	1.632741E-05
5.713776E+03	1.129379E-04	1.631367E-05
5.723679E+03	1.127970E-04	1.629220E-05
5.733582E+03	1.126063E-04	1.626354E-05
5.743484E+03	1.123640E-04	1.622743E-05
5.753387E+03	1.120721E-04	1.618414E-05
5.763289E+03	1.117312E-04	1.613379E-05
5.773192E+03	1.113424E-04	1.607652E-05
5.783094E+03	1.109081E-04	1.601269E-05
5.792997E+03	1.104297E-04	1.594248E-05
5.802899E+03	1.099086E-04	1.586612E-05
5.812802E+03	1.093453E-04	1.578368E-05
5.822705E+03	1.087441E-04	1.569576E-05
5.832607E+03	1.081056E-04	1.560248E-05
5.842510E+03	1.074331E-04	1.550429E-05
5.852412E+03	1.067275E-04	1.540134E-05
5.862315E+03	1.059923E-04	1.529412E-05
5.872217E+03	1.052296E-04	1.518294E-05
5.882120E+03	1.044417E-04	1.506814E-05
5.892022E+03	1.036308E-04	1.495005E-05
5.901925E+03	1.027993E-04	1.482898E-05
5.911828E+03	1.019505E-04	1.470543E-05
5.921730E+03	1.010843E-04	1.457938E-05
5.931633E+03	1.002050E-04	1.445146E-05
5.941535E+03	9.931358E-05	1.432181E-05
5.951438E+03	9.841203E-05	1.419070E-05
5.961340E+03	9.750344E-05	1.405860E-05
5.971243E+03	9.658728E-05	1.392542E-05
5.981146E+03	9.566766E-05	1.379176E-05
5.991048E+03	9.474395E-05	1.365753E-05
6.000951E+03	9.381887E-05	1.352311E-05
6.010853E+03	9.289397E-05	1.338873E-05
6.020756E+03	9.196953E-05	1.325444E-05
6.030658E+03	9.104689E-05	1.312042E-05
6.040561E+03	9.012736E-05	1.298687E-05
6.050463E+03	8.921212E-05	1.285395E-05
6.060366E+03	8.830230E-05	1.272183E-05
6.070269E+03	8.739894E-05	1.259065E-05
6.080171E+03	8.650298E-05	1.246056E-05
6.090074E+03	8.561534E-05	1.233168E-05
6.099976E+03	8.473789E-05	1.220429E-05
6.109879E+03	8.387248E-05	1.207865E-05
6.119781E+03	8.302081E-05	1.195500E-05
6.129684E+03	8.218348E-05	1.183343E-05
6.139586E+03	8.136099E-05	1.171402E-05
6.149489E+03	8.055276E-05	1.159667E-05
6.159392E+03	7.975924E-05	1.148146E-05
6.169294E+03	7.898080E-05	1.136843E-05
6.179197E+03	7.821670E-05	1.125748E-05
6.189099E+03	7.746830E-05	1.114880E-05
6.199002E+03	7.673794E-05	1.104274E-05
6.208904E+03	7.602470E-05	1.093915E-05
6.218807E+03	7.532984E-05	1.083822E-05
6.228709E+03	7.465549E-05	1.074025E-05
6.238612E+03	7.400072E-05	1.064511E-05
6.248515E+03	7.336862E-05	1.055325E-05
6.258417E+03	7.276024E-05	1.046481E-05
6.268320E+03	7.217453E-05	1.037964E-05
6.278222E+03	7.161453E-05	1.029818E-05
6.288125E+03	7.108119E-05	1.022056E-05
6.298027E+03	7.057444E-05	1.014678E-05
6.307930E+03	7.009524E-05	1.007697E-05
6.317833E+03	6.964653E-05	1.001155E-05
6.327735E+03	6.922725E-05	9.950363E-06
6.337638E+03	6.883832E-05	9.893548E-06
6.347540E+03	6.848172E-05	9.841386E-06
6.357443E+03	6.815437E-05	9.793432E-06
6.367345E+03	6.785413E-05	9.749379E-06
6.377248E+03	6.757998E-05	9.709078E-06
6.387150E+03	6.733083E-05	9.672373E-06
6.397053E+03	6.710465E-05	9.638970E-06
6.406956E+03	6.690139E-05	9.608861E-06
6.416858E+03	6.671999E-05	9.581892E-06
6.426761E+03	6.656039E-05	9.558057E-06
6.436663E+03	6.642155E-05	9.537203E-06
6.446566E+03	6.630346E-05	9.519327E-06
6.456468E+03	6.620605E-05	9.504421E-06
6.466371E+03	6.612829E-05	9.492334E-06
6.476273E+03	6.607116E-05	9.483205E-06
6.486176E+03	6.603467E-05	9.477038E-06
6.496079E+03	6.601774E-05	9.473676E-06
6.505981E+03	6.602141E-05	9.473265E-06
6.515884E+03	6.604462E-05	9.475654E-06
6.525786E+03	6.608738E-05	9.480843E-06
6.535689E+03	6.615071E-05	9.488979E-06
6.545591E+03	6.623248E-05	9.499754E-06
6.555494E+03	6.633594E-05	9.513634E-06
6.565396E+03	6.645785E-05	9.530153E-06
6.575299E+03	6.660041E-05	9.549625E-06
6.585202E+03	6.676253E-05	9.571895E-06
6.595104E+03	6.694426E-05	9.596967E-06
6.605007E+03	6.714674E-05	9.625004E-06
6.614909E+03	6.736886E-05	9.655847E-06
6.624812E+03	6.761070E-05	9.689506E-06
6.634714E+03	6.787228E-05	9.725983E-06
6.644617E+03	6.815479E-05	9.765447E-06
6.654520E+03	6.845602E-05	9.807581E-06
6.664422E+03	6.877830E-05	9.852718E-06
6.674325E+03	6.912056E-05	9.900704E-06
6.684227E+03	6.948288E-05	9.951549E-06
6.694130E+03	6.986529E-05	1.000526E-05
6.704032E+03	7.026789E-05	1.006184E-05
6.713935E+03	7.069200E-05	1.012149E-05
6.723837E+03	7.113524E-05	1.018385E-05
6.733740E+03	7.159889E-05	1.024913E-05
6.743643E+03	7.208305E-05	1.031732E-05
6.753545E+03	7.258783E-05	1.038844E-05
6.763448E+03	7.311332E-05	1.046251E-05
6.773350E+03	7.365959E-05	1.053953E-05
6.783253E+03	7.422675E-05	1.061952E-05
6.793155E+03	7.481354E-05	1.070229E-05
6.803058E+03	7.542136E-05	1.078805E-05
6.812960E+03	7.605034E-05	1.087682E-05
6.822863E+03	7.669915E-05	1.096840E-05
6.832766E+03	7.736923E-05	1.106299E-05
6.842668E+03	7.806071E-05	1.116062E-05
6.852571E+03	7.877220E-05	1.126108E-05
6.862473E+03	7.950373E-05	1.136438E-05
6.872376E+03	8.025683E-05	1.147074E-05
6.882278E+03	8.103009E-05	1.157995E-05
6.892181E+03	8.182354E-05	1.169201E-05
6.902083E+03	8.263874E-05	1.180716E-05
6.911986E+03	8.347420E-05	1.192517E-05
6.921889E+03	8.432998E-05	1.204605E-05
6.931791E+03	8.520442E-05	1.216956E-05
6.941694E+03	8.610083E-05	1.229618E-05
6.951596E+03	8.701761E-05	1.242567E-05
6.961499E+03	8.795480E-05	1.255805E-05
6.971401E+03	8.891065E-05	1.269305E-05
6.981304E+03	8.988688E-05	1.283093E-05
6.991207E+03	9.088171E-05	1.297142E-05
7.001109E+03	9.189875E-05	1.311505E-05
7.011012E+03	9.293253E-05	1.326103E-05
7.020914E+03	9.398666E-05	1.340987E-05
7.030817E+03	9.505924E-05	1.356131E-05
7.040719E+03	9.615214E-05	1.371561E-05
7.050622E+03	9.726141E-05	1.387220E-05
7.060524E+03	9.839089E-05	1.403163E-05
7.070427E+03	9.953651E-05	1.419332E-05
7.080330E+03	1.007002E-04	1.435754E-05
7.090232E+03	1.018817E-04	1.452427E-05
7.100135E+03	1.030811E-04	1.469349E-05
7.110037E+03	1.042960E-04	1.486489E-05
7.119940E+03	1.055262E-04	1.503841E-05
7.129842E+03	1.067737E-04	1.521436E-05
7.139745E+03	1.080361E-04	1.539238E-05
7.149647E+03	1.093155E-04	1.557278E-05
7.159550E+03	1.106070E-04	1.575484E-05
7.169453E+03	1.119149E-04	1.593921E-05
7.179355E+03	1.132367E-04	1.612551E-05
7.189258E+03	1.145721E-04	1.631369E-05
7.199160E+03	1.159208E-04	1.650370E-05
7.209063E+03	1.172824E-04	1.669551E-05
7.218965E+03	1.186565E-04	1.688905E-05
7.228868E+03	1.200455E-04	1.708465E-05
7.238770E+03	1.214436E-04	1.728151E-05
7.248673E+03	1.228586E-04	1.748071E-05
7.258576E+03	1.242876E-04	1.768184E-05
7.268478E+03	1.257272E-04	1.788445E-05
7.278381E+03	1.271858E-04	1.808969E-05
7.288283E+03	1.286574E-04	1.829672E-05
7.298186E+03	1.301504E-04	1.850675E-05
7.308088E+03	1.316620E-04	1.871937E-05
7.317991E+03	1.331952E-04	1.893499E-05
7.327894E+03	1.347529E-04	1.915405E-05
7.337796E+03	1.363355E-04	1.937659E-05
7.347699E+03	1.379496E-04	1.960354E-05
7.357601E+03	1.395989E-04	1.983543E-05
7.367504E+03	1.412807E-04	2.007189E-05
7.377406E+03	1.429957E-04	2.031299E-05
7.387309E+03	1.447442E-04	2.055880E-05
7.397211E+03	1.465234E-04	2.080889E-05
7.407114E+03	1.483300E-04	2.106282E-05
7.417017E+03	1.501607E-04	2.132010E-05
7.426919E+03	1.520155E-04	2.158073E-05
7.436822E+03	1.538907E-04	2.184419E-05
7.446724E+03	1.557824E-04	2.210992E-05
7.456627E+03	1.576940E-04	2.237841E-05
7.466529E+03	1.596176E-04	2.264853E-05
7.476432E+03	1.615526E-04	2.292020E-05
7.486334E+03	1.634985E-04	2.319335E-05
7.496237E+03	1.654546E-04	2.346788E-05
7.506140E+03	1.674205E-04	2.374371E-05
7.516042E+03	1.693910E-04	2.402014E-05
7.525945E+03	1.713656E-04	2.429707E-05
7.535847E+03	1.733475E-04	2.457496E-05
7.545750E+03	1.753315E-04	2.485310E-05
7.555652E+03	1.773212E-04	2.513196E-05
7.565555E+03	1.793065E-04	2.541013E-05
7.575457E+03	1.812954E-04	2.568874E-05
7.585360E+03	1.832821E-04	2.596697E-05
7.595263E+03	1.852654E-04	2.624464E-05
7.605165E+03	1.872439E-04	2.652158E-05
7.615068E+03	1.892212E-04	2.679826E-05
7.624970E+03	1.911909E-04	2.707380E-05
7.634873E+03	1.931515E-04	2.734799E-05
7.644775E+03	1.951065E-04	2.762132E-05
7.654678E+03	1.970544E-04	2.789358E-05
7.664581E+03	1.989884E-04	2.816381E-05
7.674483E+03	2.009121E-04	2.843251E-05
7.684386E+03	2.028238E-04	2.869945E-05
