#wls	flux	fluxerr
1.584409E+03	6.848490E-03	5.323228E-03
1.624020E+03	7.024422E-03	5.455942E-03
1.663630E+03	7.186719E-03	5.577870E-03
1.703240E+03	7.334170E-03	5.688092E-03
1.742850E+03	7.462589E-03	5.783393E-03
1.782461E+03	7.570740E-03	5.862349E-03
1.822071E+03	7.655525E-03	5.923085E-03
1.861681E+03	7.716139E-03	5.965022E-03
1.901291E+03	7.750412E-03	5.986531E-03
1.940902E+03	7.753830E-03	5.983624E-03
1.980512E+03	7.727152E-03	5.957504E-03
2.020122E+03	7.668302E-03	5.906637E-03
2.059732E+03	7.575715E-03	5.829886E-03
2.099342E+03	7.447174E-03	5.725041E-03
2.138953E+03	7.282734E-03	5.592828E-03
2.178563E+03	7.080473E-03	5.431855E-03
2.218173E+03	6.838806E-03	5.241002E-03
2.257783E+03	6.558086E-03	5.020076E-03
2.297394E+03	6.245142E-03	4.775003E-03
2.337004E+03	5.909234E-03	4.512941E-03
2.376614E+03	5.557656E-03	4.239516E-03
2.416224E+03	5.196002E-03	3.958553E-03
2.455835E+03	4.829882E-03	3.674896E-03
2.495445E+03	4.464014E-03	3.392144E-03
2.535055E+03	4.102119E-03	3.113119E-03
2.574665E+03	3.747318E-03	2.839807E-03
2.614276E+03	3.403326E-03	2.575436E-03
2.653886E+03	3.072823E-03	2.322000E-03
2.693496E+03	2.758169E-03	2.081237E-03
2.733106E+03	2.460672E-03	1.853818E-03
2.772716E+03	2.182335E-03	1.641517E-03
2.812327E+03	1.924210E-03	1.445058E-03
2.851937E+03	1.687085E-03	1.264960E-03
2.891547E+03	1.471202E-03	1.101176E-03
2.931157E+03	1.276920E-03	9.540919E-04
2.970768E+03	1.103887E-03	8.233629E-04
2.980670E+03	1.063862E-03	7.931618E-04
2.990573E+03	1.025056E-03	7.638784E-04
3.000475E+03	9.875156E-04	7.355641E-04
3.010378E+03	9.511703E-04	7.081653E-04
3.020280E+03	9.160362E-04	6.816928E-04
3.030183E+03	8.820759E-04	6.561105E-04
3.040086E+03	8.492889E-04	6.314243E-04
3.049988E+03	8.176104E-04	6.075848E-04
3.059891E+03	7.870635E-04	5.846081E-04
3.069793E+03	7.575769E-04	5.624338E-04
3.079696E+03	7.291624E-04	5.410763E-04
3.089598E+03	7.017886E-04	5.205110E-04
3.099501E+03	6.754125E-04	5.007049E-04
3.109403E+03	6.500262E-04	4.816459E-04
3.119306E+03	6.255959E-04	4.633136E-04
3.129209E+03	6.021057E-04	4.456950E-04
3.139111E+03	5.795275E-04	4.287684E-04
3.149014E+03	5.578262E-04	4.125023E-04
3.158916E+03	5.369903E-04	3.968921E-04
3.168819E+03	5.169914E-04	3.819159E-04
3.178721E+03	4.977924E-04	3.675452E-04
3.188624E+03	4.793791E-04	3.537648E-04
3.198526E+03	4.617260E-04	3.405593E-04
3.208429E+03	4.448203E-04	3.279183E-04
3.218332E+03	4.286389E-04	3.158240E-04
3.228234E+03	4.131491E-04	3.042480E-04
3.238137E+03	3.983468E-04	2.931901E-04
3.248039E+03	3.841968E-04	2.826237E-04
3.257942E+03	3.706883E-04	2.725400E-04
3.267844E+03	3.577939E-04	2.629152E-04
3.277747E+03	3.454844E-04	2.537302E-04
3.287650E+03	3.337480E-04	2.449759E-04
3.297552E+03	3.225627E-04	2.366352E-04
3.307455E+03	3.118987E-04	2.286831E-04
3.317357E+03	3.017391E-04	2.211094E-04
3.327260E+03	2.920640E-04	2.138988E-04
3.337162E+03	2.828540E-04	2.070367E-04
3.347065E+03	2.740871E-04	2.005037E-04
3.356967E+03	2.657479E-04	1.942910E-04
3.366870E+03	2.578156E-04	1.883824E-04
3.376773E+03	2.502697E-04	1.827628E-04
3.386675E+03	2.430978E-04	1.774203E-04
3.396578E+03	2.362777E-04	1.723405E-04
3.406480E+03	2.297975E-04	1.675144E-04
3.416383E+03	2.236399E-04	1.629289E-04
3.426285E+03	2.177891E-04	1.585700E-04
3.436188E+03	2.122293E-04	1.544280E-04
3.446090E+03	2.069459E-04	1.504919E-04
3.455993E+03	2.019277E-04	1.467532E-04
3.465896E+03	1.971573E-04	1.431970E-04
3.475798E+03	1.926268E-04	1.398193E-04
3.485701E+03	1.883185E-04	1.366068E-04
3.495603E+03	1.842242E-04	1.335533E-04
3.505506E+03	1.803282E-04	1.306454E-04
3.515408E+03	1.766217E-04	1.278783E-04
3.525311E+03	1.730946E-04	1.252444E-04
3.535213E+03	1.697340E-04	1.227342E-04
3.545116E+03	1.665330E-04	1.203408E-04
3.555019E+03	1.634834E-04	1.180597E-04
3.564921E+03	1.605760E-04	1.158840E-04
3.574824E+03	1.578065E-04	1.138106E-04
3.584726E+03	1.551634E-04	1.118293E-04
3.594629E+03	1.526421E-04	1.099382E-04
3.604531E+03	1.502365E-04	1.081328E-04
3.614434E+03	1.479410E-04	1.064090E-04
3.624337E+03	1.457488E-04	1.047601E-04
3.634239E+03	1.436565E-04	1.031851E-04
3.644142E+03	1.416606E-04	1.016814E-04
3.654044E+03	1.397578E-04	1.002464E-04
3.663947E+03	1.379423E-04	9.887442E-05
3.673849E+03	1.362161E-04	9.756821E-05
3.683752E+03	1.345737E-04	9.632366E-05
3.693654E+03	1.330144E-04	9.514023E-05
3.703557E+03	1.315337E-04	9.401317E-05
3.713460E+03	1.301312E-04	9.294344E-05
3.723362E+03	1.288070E-04	9.193106E-05
3.733265E+03	1.275559E-04	9.097212E-05
3.743167E+03	1.263767E-04	9.006433E-05
3.753070E+03	1.252697E-04	8.920921E-05
3.762972E+03	1.242308E-04	8.840371E-05
3.772875E+03	1.232600E-04	8.764774E-05
3.782777E+03	1.223552E-04	8.693825E-05
3.792680E+03	1.215144E-04	8.627524E-05
3.802583E+03	1.207358E-04	8.565722E-05
3.812485E+03	1.200204E-04	8.508480E-05
3.822388E+03	1.193629E-04	8.455287E-05
3.832290E+03	1.187647E-04	8.406360E-05
3.842193E+03	1.182239E-04	8.361551E-05
3.852095E+03	1.177394E-04	8.320784E-05
3.861998E+03	1.173092E-04	8.283769E-05
3.871900E+03	1.169316E-04	8.250518E-05
3.881803E+03	1.166060E-04	8.220966E-05
3.891706E+03	1.163323E-04	8.195109E-05
3.901608E+03	1.161077E-04	8.172602E-05
3.911511E+03	1.159317E-04	8.153533E-05
3.921413E+03	1.158033E-04	8.137836E-05
3.931316E+03	1.157211E-04	8.125388E-05
3.941218E+03	1.156830E-04	8.115910E-05
3.951121E+03	1.156894E-04	8.109560E-05
3.961024E+03	1.157398E-04	8.106278E-05
3.970926E+03	1.158315E-04	8.105885E-05
3.980829E+03	1.159629E-04	8.108116E-05
3.990731E+03	1.161345E-04	8.113137E-05
4.000634E+03	1.163459E-04	8.120910E-05
4.010536E+03	1.165955E-04	8.131327E-05
4.020439E+03	1.168811E-04	8.144073E-05
4.030341E+03	1.172033E-04	8.159333E-05
4.040244E+03	1.175609E-04	8.177014E-05
4.050147E+03	1.179536E-04	8.197087E-05
4.060049E+03	1.183791E-04	8.219241E-05
4.069952E+03	1.188380E-04	8.243660E-05
4.079854E+03	1.193292E-04	8.270257E-05
4.089757E+03	1.198514E-04	8.298937E-05
4.099659E+03	1.204032E-04	8.329447E-05
4.109562E+03	1.209845E-04	8.361919E-05
4.119464E+03	1.215950E-04	8.396334E-05
4.129367E+03	1.222326E-04	8.432542E-05
4.139270E+03	1.228961E-04	8.470295E-05
4.149172E+03	1.235846E-04	8.509675E-05
4.159075E+03	1.242988E-04	8.550739E-05
4.168977E+03	1.250369E-04	8.593344E-05
4.178880E+03	1.257976E-04	8.637240E-05
4.188782E+03	1.265790E-04	8.682456E-05
4.198685E+03	1.273820E-04	8.729043E-05
4.208587E+03	1.282035E-04	8.776788E-05
4.218490E+03	1.290432E-04	8.825499E-05
4.228393E+03	1.298991E-04	8.875196E-05
4.238295E+03	1.307689E-04	8.925727E-05
4.248198E+03	1.316535E-04	8.977144E-05
4.258100E+03	1.325475E-04	9.028904E-05
4.268003E+03	1.334529E-04	9.081316E-05
4.277905E+03	1.343655E-04	9.134087E-05
4.287808E+03	1.352863E-04	9.187284E-05
4.297711E+03	1.362120E-04	9.240504E-05
4.307613E+03	1.371417E-04	9.293857E-05
4.317516E+03	1.380753E-04	9.347342E-05
4.327418E+03	1.390118E-04	9.400884E-05
4.337321E+03	1.399510E-04	9.454290E-05
4.347223E+03	1.408919E-04	9.507672E-05
4.357126E+03	1.418368E-04	9.561181E-05
4.367028E+03	1.427857E-04	9.614819E-05
4.376931E+03	1.437375E-04	9.668317E-05
4.386834E+03	1.446935E-04	9.721949E-05
4.396736E+03	1.456549E-04	9.775803E-05
4.406639E+03	1.466207E-04	9.829809E-05
4.416541E+03	1.475913E-04	9.883785E-05
4.426444E+03	1.485682E-04	9.938030E-05
4.436346E+03	1.495517E-04	9.992570E-05
4.446249E+03	1.505411E-04	1.004735E-04
4.456151E+03	1.515354E-04	1.010209E-04
4.466054E+03	1.525349E-04	1.015702E-04
4.475957E+03	1.535412E-04	1.021224E-04
4.485859E+03	1.545519E-04	1.026760E-04
4.495762E+03	1.555661E-04	1.032282E-04
4.505664E+03	1.565852E-04	1.037819E-04
4.515567E+03	1.576066E-04	1.043355E-04
4.525469E+03	1.586319E-04	1.048901E-04
4.535372E+03	1.596574E-04	1.054409E-04
4.545274E+03	1.606846E-04	1.059911E-04
4.555177E+03	1.617110E-04	1.065390E-04
4.565080E+03	1.627385E-04	1.070860E-04
4.574982E+03	1.637650E-04	1.076284E-04
4.584885E+03	1.647895E-04	1.081676E-04
4.594787E+03	1.658125E-04	1.087042E-04
4.604690E+03	1.668348E-04	1.092386E-04
4.614592E+03	1.678547E-04	1.097672E-04
4.624495E+03	1.688710E-04	1.102917E-04
4.634398E+03	1.698877E-04	1.108147E-04
4.644300E+03	1.709056E-04	1.113369E-04
4.654203E+03	1.719219E-04	1.118536E-04
4.664105E+03	1.729388E-04	1.123689E-04
4.674008E+03	1.739575E-04	1.128837E-04
4.683910E+03	1.749746E-04	1.133956E-04
4.693813E+03	1.759905E-04	1.139023E-04
4.703715E+03	1.770044E-04	1.144059E-04
4.713618E+03	1.780177E-04	1.149073E-04
4.723521E+03	1.790303E-04	1.154065E-04
4.733423E+03	1.800396E-04	1.158990E-04
4.743326E+03	1.810481E-04	1.163891E-04
4.753228E+03	1.820543E-04	1.168759E-04
4.763131E+03	1.830597E-04	1.173604E-04
4.773033E+03	1.840620E-04	1.178381E-04
4.782936E+03	1.850622E-04	1.183127E-04
4.792838E+03	1.860604E-04	1.187841E-04
4.802741E+03	1.870584E-04	1.192537E-04
4.812644E+03	1.880539E-04	1.197167E-04
4.822546E+03	1.890477E-04	1.201768E-04
4.832449E+03	1.900381E-04	1.206329E-04
4.842351E+03	1.910288E-04	1.210873E-04
4.852254E+03	1.920173E-04	1.215353E-04
4.862156E+03	1.930041E-04	1.219803E-04
4.872059E+03	1.939872E-04	1.224212E-04
4.881961E+03	1.949682E-04	1.228588E-04
4.891864E+03	1.959440E-04	1.232880E-04
4.901767E+03	1.969150E-04	1.237123E-04
4.911669E+03	1.978823E-04	1.241325E-04
4.921572E+03	1.988440E-04	1.245471E-04
4.931474E+03	1.997989E-04	1.249524E-04
4.941377E+03	2.007454E-04	1.253505E-04
4.951279E+03	2.016848E-04	1.257423E-04
4.961182E+03	2.026167E-04	1.261275E-04
4.971085E+03	2.035379E-04	1.265008E-04
4.980987E+03	2.044481E-04	1.268654E-04
4.990890E+03	2.053464E-04	1.272208E-04
5.000792E+03	2.062300E-04	1.275652E-04
5.010695E+03	2.070994E-04	1.278956E-04
5.020597E+03	2.079539E-04	1.282150E-04
5.030500E+03	2.087887E-04	1.285204E-04
5.040402E+03	2.096047E-04	1.288126E-04
5.050305E+03	2.104008E-04	1.290873E-04
5.060208E+03	2.111746E-04	1.293466E-04
5.070110E+03	2.119254E-04	1.295902E-04
5.080013E+03	2.126528E-04	1.298178E-04
5.089915E+03	2.133561E-04	1.300256E-04
5.099818E+03	2.140332E-04	1.302160E-04
5.109720E+03	2.146862E-04	1.303901E-04
5.119623E+03	2.153104E-04	1.305454E-04
5.129525E+03	2.159075E-04	1.306792E-04
5.139428E+03	2.164749E-04	1.307937E-04
5.149331E+03	2.170121E-04	1.308886E-04
5.159233E+03	2.175181E-04	1.309636E-04
5.169136E+03	2.179920E-04	1.310143E-04
5.179038E+03	2.184285E-04	1.310415E-04
5.188941E+03	2.188304E-04	1.310469E-04
5.198843E+03	2.191941E-04	1.310285E-04
5.208746E+03	2.195179E-04	1.309816E-04
5.218648E+03	2.197972E-04	1.309075E-04
5.228551E+03	2.200298E-04	1.308048E-04
5.238454E+03	2.202131E-04	1.306723E-04
5.248356E+03	2.203452E-04	1.305051E-04
5.258259E+03	2.204238E-04	1.303058E-04
5.268161E+03	2.204448E-04	1.300723E-04
5.278064E+03	2.204110E-04	1.298064E-04
5.285588E+03	8.626739E-04	5.073149E-04
5.285984E+03	8.629761E-04	5.074536E-04
5.286182E+03	8.629799E-04	5.074364E-04
5.286380E+03	8.628898E-04	5.073640E-04
5.286578E+03	8.627997E-04	5.072915E-04
5.286974E+03	8.629569E-04	5.073450E-04
5.287568E+03	8.633191E-04	5.074994E-04
5.287766E+03	8.632699E-04	5.074510E-04
5.288559E+03	8.639166E-04	5.077530E-04
5.289153E+03	8.642150E-04	5.078698E-04
5.289351E+03	8.639918E-04	5.077190E-04
5.289549E+03	8.638222E-04	5.075999E-04
5.289747E+03	8.635849E-04	5.074409E-04
5.290738E+03	8.643175E-04	5.077735E-04
5.290936E+03	8.639736E-04	5.075519E-04
5.291926E+03	8.646481E-04	5.078503E-04
5.292124E+03	8.642754E-04	5.076119E-04
5.292323E+03	8.639049E-04	5.073747E-04
5.292719E+03	8.638107E-04	5.072803E-04
5.293709E+03	8.643695E-04	5.075105E-04
5.293907E+03	8.640376E-04	5.072961E-04
5.294303E+03	8.638627E-04	5.071542E-04
5.294501E+03	8.633959E-04	5.068607E-04
5.294699E+03	8.629696E-04	5.065908E-04
5.294897E+03	8.624476E-04	5.062648E-04
5.295095E+03	8.619266E-04	5.059395E-04
5.295294E+03	8.614335E-04	5.056304E-04
5.295888E+03	8.613718E-04	5.055356E-04
5.296086E+03	8.607813E-04	5.051696E-04
5.296878E+03	8.609893E-04	5.052136E-04
5.297076E+03	8.603990E-04	5.048477E-04
5.297472E+03	8.600327E-04	5.045937E-04
5.298858E+03	8.609481E-04	5.049940E-04
5.299056E+03	8.602340E-04	5.045556E-04
5.299452E+03	8.598537E-04	5.042935E-04
5.299650E+03	8.591518E-04	5.038623E-04
5.299848E+03	8.583400E-04	5.033668E-04
5.300047E+03	8.576515E-04	5.029435E-04
5.300245E+03	8.568942E-04	5.024799E-04
5.300443E+03	8.561090E-04	5.020000E-04
5.300641E+03	8.552413E-04	5.014718E-04
5.300840E+03	8.543206E-04	5.009124E-04
5.301038E+03	8.534113E-04	5.003599E-04
5.301632E+03	8.529779E-04	5.000476E-04
5.301830E+03	8.520256E-04	4.994700E-04
5.303018E+03	8.523277E-04	4.995308E-04
5.303612E+03	8.518389E-04	4.991862E-04
5.304009E+03	8.511090E-04	4.987197E-04
5.304801E+03	8.508678E-04	4.985009E-04
5.304999E+03	8.498853E-04	4.979060E-04
5.305197E+03	8.488468E-04	4.972782E-04
5.305395E+03	8.477664E-04	4.966260E-04
5.306584E+03	8.478961E-04	4.965859E-04
5.308169E+03	8.485631E-04	4.968219E-04
5.308366E+03	8.473955E-04	4.961190E-04
5.308960E+03	8.467085E-04	4.956589E-04
5.310544E+03	8.473305E-04	4.958684E-04
5.311138E+03	8.467018E-04	4.954425E-04
5.311535E+03	8.457459E-04	4.948444E-04
5.312130E+03	8.450427E-04	4.943751E-04
5.313120E+03	8.448201E-04	4.941484E-04
5.313318E+03	8.435466E-04	4.933842E-04
5.313714E+03	8.425153E-04	4.927426E-04
5.313912E+03	8.411836E-04	4.919445E-04
5.314704E+03	8.406046E-04	4.915290E-04
5.315100E+03	8.395011E-04	4.908453E-04
5.315893E+03	8.388667E-04	4.903977E-04
5.316487E+03	8.379442E-04	4.898009E-04
5.316685E+03	8.364788E-04	4.889252E-04
5.316884E+03	8.350018E-04	4.880427E-04
5.317874E+03	8.345347E-04	4.876742E-04
5.318270E+03	8.333500E-04	4.869437E-04
5.318468E+03	8.318941E-04	4.860740E-04
5.318666E+03	8.303681E-04	4.851633E-04
5.318864E+03	8.288271E-04	4.842439E-04
5.319260E+03	8.275119E-04	4.834376E-04
5.319459E+03	8.259820E-04	4.825250E-04
5.319657E+03	8.243403E-04	4.815470E-04
5.319855E+03	8.227535E-04	4.806012E-04
5.321240E+03	8.226072E-04	4.803839E-04
5.321438E+03	8.209442E-04	4.793939E-04
5.322627E+03	8.205440E-04	4.790472E-04
5.322825E+03	8.188064E-04	4.780140E-04
5.323023E+03	8.170114E-04	4.769473E-04
5.323222E+03	8.152859E-04	4.759213E-04
5.323420E+03	8.135606E-04	4.748955E-04
5.323618E+03	8.118058E-04	4.738526E-04
5.324014E+03	8.102599E-04	4.729130E-04
5.324410E+03	8.086686E-04	4.719471E-04
5.325598E+03	8.081316E-04	4.715224E-04
5.325796E+03	8.063545E-04	4.704669E-04
5.325994E+03	8.044199E-04	4.693197E-04
5.326192E+03	8.025691E-04	4.682215E-04
5.326786E+03	8.010946E-04	4.673060E-04
5.327381E+03	7.997010E-04	4.664380E-04
5.327579E+03	7.977031E-04	4.652543E-04
5.327976E+03	7.959116E-04	4.641727E-04
5.328174E+03	7.938687E-04	4.629631E-04
5.329164E+03	7.928523E-04	4.622792E-04
5.329362E+03	7.908608E-04	4.610998E-04
5.329560E+03	7.887821E-04	4.598697E-04
5.330154E+03	7.871877E-04	4.588858E-04
5.330352E+03	7.851062E-04	4.576543E-04
5.330946E+03	7.834326E-04	4.566246E-04
5.331145E+03	7.813178E-04	4.553741E-04
5.331343E+03	7.791596E-04	4.540983E-04
5.331541E+03	7.769715E-04	4.528051E-04
5.331739E+03	7.747245E-04	4.514778E-04
5.331937E+03	7.725046E-04	4.501663E-04
5.332333E+03	7.705437E-04	4.489881E-04
5.333126E+03	7.690550E-04	4.480497E-04
5.333323E+03	7.667423E-04	4.466847E-04
5.333521E+03	7.643989E-04	4.453019E-04
5.333719E+03	7.620553E-04	4.439191E-04
5.334313E+03	7.601659E-04	4.427659E-04
5.334511E+03	7.577886E-04	4.413637E-04
5.334908E+03	7.556212E-04	4.400665E-04
5.335106E+03	7.532126E-04	4.386464E-04
5.336690E+03	7.524864E-04	4.380846E-04
5.337086E+03	7.502791E-04	4.367649E-04
5.337284E+03	7.478150E-04	4.353132E-04
5.338076E+03	7.460719E-04	4.342296E-04
5.338274E+03	7.435894E-04	4.327675E-04
5.338870E+03	7.415685E-04	4.315399E-04
5.339860E+03	7.400156E-04	4.305507E-04
5.340454E+03	7.379576E-04	4.293022E-04
5.341048E+03	7.358938E-04	4.280506E-04
5.341246E+03	7.333226E-04	4.265380E-04
5.341444E+03	7.307059E-04	4.249991E-04
5.342038E+03	7.286345E-04	4.237437E-04
5.342434E+03	7.262636E-04	4.223313E-04
5.342831E+03	7.239038E-04	4.209256E-04
5.343623E+03	7.220214E-04	4.197642E-04
5.344614E+03	7.202430E-04	4.186468E-04
5.344811E+03	7.175497E-04	4.170647E-04
5.345208E+03	7.150865E-04	4.155999E-04
5.345603E+03	7.125906E-04	4.141163E-04
5.345801E+03	7.098322E-04	4.124968E-04
5.345999E+03	7.071012E-04	4.108935E-04
5.346197E+03	7.044123E-04	4.093146E-04
5.346792E+03	7.020028E-04	4.078657E-04
5.346990E+03	6.991326E-04	4.061819E-04
5.347188E+03	6.962603E-04	4.044970E-04
5.347386E+03	6.933713E-04	4.028025E-04
5.347584E+03	6.904656E-04	4.010985E-04
5.347782E+03	6.875587E-04	3.993939E-04
5.347980E+03	6.846497E-04	3.976883E-04
5.348178E+03	6.817093E-04	3.959644E-04
5.348772E+03	6.792105E-04	3.944658E-04
5.348970E+03	6.762648E-04	3.927393E-04
5.349168E+03	6.733022E-04	3.910032E-04
5.349367E+03	6.703385E-04	3.892665E-04
5.349961E+03	6.677942E-04	3.877425E-04
5.350754E+03	6.654826E-04	3.863385E-04
5.352338E+03	6.639898E-04	3.853485E-04
5.352536E+03	6.609463E-04	3.835668E-04
5.352932E+03	6.581015E-04	3.818853E-04
5.353130E+03	6.550244E-04	3.800845E-04
5.353328E+03	6.519449E-04	3.782824E-04
5.353526E+03	6.488487E-04	3.764708E-04
5.354120E+03	6.461762E-04	3.748751E-04
5.355310E+03	6.441270E-04	3.735963E-04
5.355508E+03	6.409877E-04	3.717606E-04
5.355706E+03	6.378462E-04	3.699237E-04
5.356498E+03	6.353169E-04	3.683977E-04
5.356696E+03	6.321391E-04	3.665403E-04
5.356894E+03	6.289590E-04	3.646817E-04
5.357092E+03	6.257315E-04	3.627958E-04
5.357290E+03	6.225169E-04	3.609175E-04
5.358280E+03	6.201419E-04	3.594683E-04
5.358874E+03	6.173148E-04	3.577865E-04
5.359270E+03	6.142766E-04	3.559969E-04
5.359864E+03	6.114364E-04	3.543082E-04
5.360063E+03	6.081584E-04	3.523945E-04
5.360261E+03	6.048773E-04	3.504791E-04
5.360459E+03	6.015786E-04	3.485538E-04
5.361053E+03	5.986762E-04	3.468302E-04
5.361251E+03	5.953563E-04	3.448930E-04
5.361449E+03	5.920188E-04	3.429458E-04
5.361845E+03	5.888755E-04	3.410975E-04
5.362043E+03	5.855169E-04	3.391384E-04
5.362242E+03	5.821417E-04	3.371698E-04
5.362440E+03	5.787639E-04	3.351999E-04
5.362638E+03	5.754290E-04	3.332550E-04
5.362836E+03	5.721070E-04	3.313178E-04
5.363232E+03	5.689140E-04	3.294421E-04
5.364420E+03	5.664451E-04	3.279331E-04
5.364816E+03	5.632376E-04	3.260498E-04
5.365212E+03	5.599646E-04	3.241289E-04
5.365410E+03	5.565173E-04	3.221205E-04
5.366204E+03	5.536113E-04	3.203867E-04
5.366798E+03	5.504793E-04	3.185355E-04
5.366996E+03	5.469728E-04	3.164937E-04
5.367194E+03	5.434645E-04	3.144510E-04
5.367392E+03	5.400146E-04	3.124422E-04
5.367590E+03	5.365014E-04	3.103970E-04
5.367788E+03	5.329706E-04	3.083418E-04
5.368382E+03	5.297804E-04	3.064589E-04
5.368976E+03	5.266588E-04	3.046162E-04
5.369570E+03	5.235450E-04	3.027785E-04
5.369767E+03	5.200126E-04	3.007235E-04
5.370165E+03	5.166229E-04	2.987390E-04
5.370362E+03	5.130548E-04	2.966637E-04
5.371353E+03	5.101435E-04	2.949206E-04
5.371551E+03	5.065803E-04	2.928488E-04
5.371749E+03	5.030307E-04	2.907850E-04
5.371947E+03	4.994018E-04	2.886756E-04
5.372343E+03	4.959999E-04	2.866859E-04
5.372541E+03	4.924567E-04	2.846264E-04
5.372937E+03	4.890008E-04	2.826060E-04
5.373135E+03	4.853904E-04	2.805081E-04
5.373531E+03	4.819255E-04	2.784831E-04
5.373730E+03	4.782628E-04	2.763554E-04
5.373928E+03	4.746284E-04	2.742442E-04
5.374126E+03	4.710223E-04	2.721495E-04
5.374324E+03	4.673523E-04	2.700181E-04
5.374522E+03	4.637409E-04	2.679207E-04
5.374720E+03	4.601124E-04	2.658136E-04
5.374918E+03	4.564658E-04	2.636962E-04
5.375116E+03	4.528011E-04	2.615685E-04
5.375908E+03	4.495610E-04	2.596546E-04
5.376106E+03	4.459036E-04	2.575317E-04
5.377097E+03	4.428018E-04	2.556882E-04
5.377692E+03	4.394176E-04	2.537031E-04
5.378286E+03	4.360564E-04	2.517318E-04
5.378484E+03	4.324408E-04	2.496343E-04
5.378682E+03	4.287296E-04	2.474819E-04
5.378880E+03	4.250312E-04	2.453370E-04
5.379078E+03	4.213302E-04	2.431908E-04
5.380662E+03	4.186294E-04	2.415532E-04
5.380860E+03	4.149146E-04	2.394000E-04
5.381454E+03	4.115091E-04	2.374060E-04
5.381654E+03	4.078651E-04	2.352941E-04
5.381852E+03	4.041405E-04	2.331359E-04
5.382445E+03	4.006883E-04	2.311161E-04
5.382841E+03	3.970606E-04	2.290050E-04
5.383237E+03	3.934902E-04	2.269273E-04
5.384029E+03	3.901528E-04	2.249658E-04
5.384227E+03	3.864220E-04	2.228055E-04
5.384623E+03	3.828513E-04	2.207287E-04
5.385217E+03	3.794053E-04	2.187151E-04
5.385416E+03	3.756161E-04	2.165218E-04
5.385614E+03	3.718712E-04	2.143544E-04
