#wls	flux	fluxerr
1.584409E+03	5.221305E-03	1.161664E-03
1.624020E+03	5.393718E-03	1.198258E-03
1.663630E+03	5.565438E-03	1.234543E-03
1.703240E+03	5.737375E-03	1.270718E-03
1.742850E+03	5.907622E-03	1.306354E-03
1.782461E+03	6.075146E-03	1.341221E-03
1.822071E+03	6.239257E-03	1.375166E-03
1.861681E+03	6.398035E-03	1.407764E-03
1.901291E+03	6.549913E-03	1.438672E-03
1.940902E+03	6.693154E-03	1.467514E-03
1.980512E+03	6.824925E-03	1.493672E-03
2.020122E+03	6.943777E-03	1.516843E-03
2.059732E+03	7.045860E-03	1.536196E-03
2.099342E+03	7.127523E-03	1.550955E-03
2.138953E+03	7.185829E-03	1.560505E-03
2.178563E+03	7.216925E-03	1.564040E-03
2.218173E+03	7.216370E-03	1.560632E-03
2.257783E+03	7.183638E-03	1.550211E-03
2.297394E+03	7.117887E-03	1.532641E-03
2.337004E+03	7.021561E-03	1.508494E-03
2.376614E+03	6.897400E-03	1.478404E-03
2.416224E+03	6.748037E-03	1.442979E-03
2.455835E+03	6.576272E-03	1.402858E-03
2.495445E+03	6.383687E-03	1.358416E-03
2.535055E+03	6.172970E-03	1.310262E-03
2.574665E+03	5.945552E-03	1.258735E-03
2.614276E+03	5.703307E-03	1.204264E-03
2.653886E+03	5.447905E-03	1.147233E-03
2.693496E+03	5.181474E-03	1.088119E-03
2.733106E+03	4.906027E-03	1.027371E-03
2.772716E+03	4.623719E-03	9.654648E-04
2.812327E+03	4.337214E-03	9.029755E-04
2.851937E+03	4.049150E-03	8.404681E-04
2.891547E+03	3.762516E-03	7.785737E-04
2.931157E+03	3.480342E-03	7.179245E-04
2.970768E+03	3.205566E-03	6.591253E-04
2.980670E+03	3.138337E-03	6.447775E-04
2.990573E+03	3.071785E-03	6.305888E-04
3.000475E+03	3.005939E-03	6.165652E-04
3.010378E+03	2.940892E-03	6.027252E-04
3.020280E+03	2.876601E-03	5.890600E-04
3.030183E+03	2.813092E-03	5.755746E-04
3.040086E+03	2.750512E-03	5.622986E-04
3.049988E+03	2.688763E-03	5.492121E-04
3.059891E+03	2.627980E-03	5.363419E-04
3.069793E+03	2.568130E-03	5.236811E-04
3.079696E+03	2.509232E-03	5.112331E-04
3.089598E+03	2.451407E-03	4.990224E-04
3.099501E+03	2.394574E-03	4.870320E-04
3.109403E+03	2.338799E-03	4.752746E-04
3.119306E+03	2.284100E-03	4.637538E-04
3.129209E+03	2.230534E-03	4.524806E-04
3.139111E+03	2.178076E-03	4.414495E-04
3.149014E+03	2.126777E-03	4.306702E-04
3.158916E+03	2.076653E-03	4.201455E-04
3.168819E+03	2.027676E-03	4.098695E-04
3.178721E+03	1.979898E-03	3.998515E-04
3.188624E+03	1.933358E-03	3.900994E-04
3.198526E+03	1.887997E-03	3.806006E-04
3.208429E+03	1.843888E-03	3.713692E-04
3.218332E+03	1.800973E-03	3.623930E-04
3.228234E+03	1.759345E-03	3.536901E-04
3.238137E+03	1.718916E-03	3.452423E-04
3.248039E+03	1.679718E-03	3.370550E-04
3.257942E+03	1.641773E-03	3.291326E-04
3.267844E+03	1.605051E-03	3.214681E-04
3.277747E+03	1.569571E-03	3.140649E-04
3.287650E+03	1.535276E-03	3.069109E-04
3.297552E+03	1.502184E-03	3.000089E-04
3.307455E+03	1.470284E-03	2.933564E-04
3.317357E+03	1.439564E-03	2.869503E-04
3.327260E+03	1.410012E-03	2.807875E-04
3.337162E+03	1.381593E-03	2.748605E-04
3.347065E+03	1.354294E-03	2.691662E-04
3.356967E+03	1.328101E-03	2.637011E-04
3.366870E+03	1.302999E-03	2.584616E-04
3.376773E+03	1.278954E-03	2.534404E-04
3.386675E+03	1.255950E-03	2.486340E-04
3.396578E+03	1.233971E-03	2.440385E-04
3.406480E+03	1.212986E-03	2.396471E-04
3.416383E+03	1.192978E-03	2.354561E-04
3.426285E+03	1.173932E-03	2.314619E-04
3.436188E+03	1.155803E-03	2.276550E-04
3.446090E+03	1.138590E-03	2.240348E-04
3.455993E+03	1.122264E-03	2.205952E-04
3.465896E+03	1.106797E-03	2.173301E-04
3.475798E+03	1.092176E-03	2.142364E-04
3.485701E+03	1.078362E-03	2.113059E-04
3.495603E+03	1.065342E-03	2.085359E-04
3.505506E+03	1.053093E-03	2.059211E-04
3.515408E+03	1.041591E-03	2.034567E-04
3.525311E+03	1.030815E-03	2.011379E-04
3.535213E+03	1.020744E-03	1.989602E-04
3.545116E+03	1.011346E-03	1.969171E-04
3.555019E+03	1.002614E-03	1.950068E-04
3.564921E+03	9.945188E-04	1.932231E-04
3.574824E+03	9.870541E-04	1.915645E-04
3.584726E+03	9.801824E-04	1.900234E-04
3.594629E+03	9.739087E-04	1.886003E-04
3.604531E+03	9.681878E-04	1.872861E-04
3.614434E+03	9.630158E-04	1.860798E-04
3.624337E+03	9.583697E-04	1.849765E-04
3.634239E+03	9.542463E-04	1.839754E-04
3.644142E+03	9.506142E-04	1.830699E-04
3.654044E+03	9.474709E-04	1.822595E-04
3.663947E+03	9.447958E-04	1.815397E-04
3.673849E+03	9.425866E-04	1.809099E-04
3.683752E+03	9.408235E-04	1.803660E-04
3.693654E+03	9.395134E-04	1.799089E-04
3.703557E+03	9.386275E-04	1.795330E-04
3.713460E+03	9.381730E-04	1.792392E-04
3.723362E+03	9.381388E-04	1.790253E-04
3.733265E+03	9.385232E-04	1.788905E-04
3.743167E+03	9.393147E-04	1.788325E-04
3.753070E+03	9.405197E-04	1.788522E-04
3.762972E+03	9.421189E-04	1.789456E-04
3.772875E+03	9.441176E-04	1.791135E-04
3.782777E+03	9.465133E-04	1.793551E-04
3.792680E+03	9.493029E-04	1.796696E-04
3.802583E+03	9.524829E-04	1.800561E-04
3.812485E+03	9.560416E-04	1.805121E-04
3.822388E+03	9.599924E-04	1.810398E-04
3.832290E+03	9.643311E-04	1.816382E-04
3.842193E+03	9.690452E-04	1.823046E-04
3.852095E+03	9.741390E-04	1.830397E-04
3.861998E+03	9.796080E-04	1.838423E-04
3.871900E+03	9.854553E-04	1.847128E-04
3.881803E+03	9.916677E-04	1.856483E-04
3.891706E+03	9.982564E-04	1.866507E-04
3.901608E+03	1.005207E-03	1.877172E-04
3.911511E+03	1.012531E-03	1.888494E-04
3.921413E+03	1.020213E-03	1.900443E-04
3.931316E+03	1.028245E-03	1.913004E-04
3.941218E+03	1.036639E-03	1.926192E-04
3.951121E+03	1.045376E-03	1.939974E-04
3.961024E+03	1.054458E-03	1.954348E-04
3.970926E+03	1.063876E-03	1.969295E-04
3.980829E+03	1.073628E-03	1.984812E-04
3.990731E+03	1.083706E-03	2.000876E-04
4.000634E+03	1.094097E-03	2.017467E-04
4.010536E+03	1.104800E-03	2.034577E-04
4.020439E+03	1.115812E-03	2.052198E-04
4.030341E+03	1.127101E-03	2.070271E-04
4.040244E+03	1.138682E-03	2.088818E-04
4.050147E+03	1.150520E-03	2.107778E-04
4.060049E+03	1.162619E-03	2.127153E-04
4.069952E+03	1.174953E-03	2.146894E-04
4.079854E+03	1.187513E-03	2.166984E-04
4.089757E+03	1.200281E-03	2.187386E-04
4.099659E+03	1.213237E-03	2.208063E-04
4.109562E+03	1.226358E-03	2.228974E-04
4.119464E+03	1.239623E-03	2.250076E-04
4.129367E+03	1.253017E-03	2.271343E-04
4.139270E+03	1.266514E-03	2.292728E-04
4.149172E+03	1.280078E-03	2.314161E-04
4.159075E+03	1.293679E-03	2.335592E-04
4.168977E+03	1.307287E-03	2.356965E-04
4.178880E+03	1.320883E-03	2.378244E-04
4.188782E+03	1.334420E-03	2.399347E-04
4.198685E+03	1.347867E-03	2.420217E-04
4.208587E+03	1.361175E-03	2.440767E-04
4.218490E+03	1.374319E-03	2.460954E-04
4.228393E+03	1.387249E-03	2.480690E-04
4.238295E+03	1.399927E-03	2.499908E-04
4.248198E+03	1.412313E-03	2.518538E-04
4.258100E+03	1.424344E-03	2.536471E-04
4.268003E+03	1.436002E-03	2.553679E-04
4.277905E+03	1.447225E-03	2.570053E-04
4.287808E+03	1.457974E-03	2.585526E-04
4.297711E+03	1.468198E-03	2.600014E-04
4.307613E+03	1.477886E-03	2.613499E-04
4.317516E+03	1.486967E-03	2.625862E-04
4.327418E+03	1.495435E-03	2.637097E-04
4.337321E+03	1.503265E-03	2.647161E-04
4.347223E+03	1.510446E-03	2.656044E-04
4.357126E+03	1.516991E-03	2.663773E-04
4.367028E+03	1.522911E-03	2.670370E-04
4.376931E+03	1.528247E-03	2.675913E-04
4.386834E+03	1.532992E-03	2.680395E-04
4.396736E+03	1.537198E-03	2.683909E-04
4.406639E+03	1.540878E-03	2.686485E-04
4.416541E+03	1.544064E-03	2.688180E-04
4.426444E+03	1.546815E-03	2.689103E-04
4.436346E+03	1.549128E-03	2.689249E-04
4.446249E+03	1.551080E-03	2.688756E-04
4.456151E+03	1.552669E-03	2.687621E-04
4.466054E+03	1.553960E-03	2.685962E-04
4.475957E+03	1.554979E-03	2.683826E-04
4.485859E+03	1.555767E-03	2.681282E-04
4.495762E+03	1.556361E-03	2.678399E-04
4.505664E+03	1.556773E-03	2.675198E-04
4.515567E+03	1.557069E-03	2.671792E-04
4.525469E+03	1.557259E-03	2.668200E-04
4.535372E+03	1.557378E-03	2.664482E-04
4.545274E+03	1.557462E-03	2.660701E-04
4.555177E+03	1.557545E-03	2.656915E-04
4.565080E+03	1.557645E-03	2.653155E-04
4.574982E+03	1.557781E-03	2.649452E-04
4.584885E+03	1.557983E-03	2.645856E-04
4.594787E+03	1.558280E-03	2.642416E-04
4.604690E+03	1.558699E-03	2.639179E-04
4.614592E+03	1.559240E-03	2.636141E-04
4.624495E+03	1.559941E-03	2.633367E-04
4.634398E+03	1.560813E-03	2.630874E-04
4.644300E+03	1.561865E-03	2.628675E-04
4.654203E+03	1.563119E-03	2.626805E-04
4.664105E+03	1.564580E-03	2.625275E-04
4.674008E+03	1.566256E-03	2.624090E-04
4.683910E+03	1.568148E-03	2.623256E-04
4.693813E+03	1.570261E-03	2.622775E-04
4.703715E+03	1.572595E-03	2.622650E-04
4.713618E+03	1.575152E-03	2.622878E-04
4.723521E+03	1.577931E-03	2.623458E-04
4.733423E+03	1.580915E-03	2.624360E-04
4.743326E+03	1.584117E-03	2.625603E-04
4.753228E+03	1.587503E-03	2.627130E-04
4.763131E+03	1.591099E-03	2.628981E-04
4.773033E+03	1.594869E-03	2.631096E-04
4.782936E+03	1.598822E-03	2.633488E-04
4.792838E+03	1.602951E-03	2.636145E-04
4.802741E+03	1.607218E-03	2.639001E-04
4.812644E+03	1.611644E-03	2.642093E-04
4.822546E+03	1.616205E-03	2.645377E-04
4.832449E+03	1.620908E-03	2.648864E-04
4.842351E+03	1.625694E-03	2.652458E-04
4.852254E+03	1.630601E-03	2.656218E-04
4.862156E+03	1.635585E-03	2.660074E-04
4.872059E+03	1.640652E-03	2.664033E-04
4.881961E+03	1.645773E-03	2.668049E-04
4.891864E+03	1.650954E-03	2.672129E-04
4.901767E+03	1.656148E-03	2.676200E-04
4.911669E+03	1.661361E-03	2.680268E-04
4.921572E+03	1.666596E-03	2.684340E-04
4.931474E+03	1.671808E-03	2.688342E-04
4.941377E+03	1.676983E-03	2.692254E-04
4.951279E+03	1.682127E-03	2.696083E-04
4.961182E+03	1.687225E-03	2.699807E-04
4.971085E+03	1.692231E-03	2.703353E-04
4.980987E+03	1.697148E-03	2.706725E-04
4.990890E+03	1.701961E-03	2.709903E-04
5.000792E+03	1.706657E-03	2.712864E-04
5.010695E+03	1.711205E-03	2.715560E-04
5.020597E+03	1.715588E-03	2.717967E-04
5.030500E+03	1.719807E-03	2.720088E-04
5.040402E+03	1.723813E-03	2.721845E-04
5.050305E+03	1.727605E-03	2.723240E-04
5.060208E+03	1.731147E-03	2.724218E-04
5.070110E+03	1.734421E-03	2.724753E-04
5.080013E+03	1.737407E-03	2.724815E-04
5.089915E+03	1.740085E-03	2.724375E-04
5.099818E+03	1.742416E-03	2.723375E-04
5.109720E+03	1.744395E-03	2.721811E-04
5.119623E+03	1.745964E-03	2.719595E-04
5.129525E+03	1.747118E-03	2.716722E-04
5.139428E+03	1.747813E-03	2.713129E-04
5.149331E+03	1.748026E-03	2.708782E-04
5.159233E+03	1.747732E-03	2.703646E-04
5.169136E+03	1.746904E-03	2.697688E-04
5.179038E+03	1.745484E-03	2.690817E-04
5.188941E+03	1.743480E-03	2.683057E-04
5.198843E+03	1.740818E-03	2.674293E-04
5.208746E+03	1.737509E-03	2.664551E-04
5.218648E+03	1.733497E-03	2.653750E-04
5.228551E+03	1.728781E-03	2.641892E-04
5.238454E+03	1.723326E-03	2.628933E-04
5.248356E+03	1.717100E-03	2.614831E-04
5.258259E+03	1.710112E-03	2.599602E-04
5.268161E+03	1.702320E-03	2.583192E-04
5.278064E+03	1.693740E-03	2.565630E-04
5.287966E+03	1.684358E-03	2.546902E-04
5.297869E+03	1.674166E-03	2.527003E-04
5.307772E+03	1.663178E-03	2.505962E-04
5.317674E+03	1.651415E-03	2.483816E-04
5.327577E+03	1.638906E-03	2.460614E-04
5.337479E+03	1.625651E-03	2.436363E-04
5.347382E+03	1.611708E-03	2.411158E-04
5.357284E+03	1.597109E-03	2.385049E-04
5.367187E+03	1.581925E-03	2.358150E-04
5.377089E+03	1.566185E-03	2.330508E-04
5.386992E+03	1.550002E-03	2.302297E-04
5.396895E+03	1.533464E-03	2.273649E-04
5.406797E+03	1.516736E-03	2.244811E-04
5.416700E+03	1.499862E-03	2.215852E-04
5.426602E+03	1.482816E-03	2.186733E-04
5.436505E+03	1.465603E-03	2.157464E-04
5.446407E+03	1.448276E-03	2.128123E-04
5.456310E+03	1.430939E-03	2.098863E-04
5.466212E+03	1.413623E-03	2.069729E-04
5.476115E+03	1.396440E-03	2.040887E-04
5.486018E+03	1.379433E-03	2.012395E-04
5.495920E+03	1.362682E-03	1.984371E-04
5.505823E+03	1.346267E-03	1.956927E-04
5.515725E+03	1.330262E-03	1.930169E-04
5.525628E+03	1.314713E-03	1.904159E-04
5.535530E+03	1.299690E-03	1.878995E-04
5.545433E+03	1.285255E-03	1.854763E-04
5.555335E+03	1.271455E-03	1.831525E-04
5.565238E+03	1.258331E-03	1.809335E-04
5.575141E+03	1.245944E-03	1.788276E-04
5.585043E+03	1.234312E-03	1.768366E-04
5.594946E+03	1.223470E-03	1.749652E-04
5.604848E+03	1.213439E-03	1.732155E-04
5.614751E+03	1.204242E-03	1.715903E-04
5.624653E+03	1.195887E-03	1.700901E-04
5.634556E+03	1.188378E-03	1.687146E-04
5.644459E+03	1.181723E-03	1.674646E-04
5.654361E+03	1.175929E-03	1.663403E-04
5.664264E+03	1.170974E-03	1.653378E-04
5.674166E+03	1.166857E-03	1.644563E-04
5.684069E+03	1.163562E-03	1.636932E-04
5.693971E+03	1.161072E-03	1.630452E-04
5.703874E+03	1.159392E-03	1.625125E-04
5.713776E+03	1.158477E-03	1.620882E-04
5.723679E+03	1.158332E-03	1.617724E-04
5.733582E+03	1.158924E-03	1.615599E-04
5.743484E+03	1.160243E-03	1.614489E-04
5.753387E+03	1.162270E-03	1.614361E-04
5.763289E+03	1.164986E-03	1.615182E-04
5.773192E+03	1.168383E-03	1.616939E-04
5.783094E+03	1.172432E-03	1.619584E-04
5.792997E+03	1.177127E-03	1.623107E-04
5.802899E+03	1.182452E-03	1.627478E-04
5.812802E+03	1.188378E-03	1.632655E-04
5.822705E+03	1.194915E-03	1.638648E-04
5.832607E+03	1.202022E-03	1.645395E-04
5.842510E+03	1.209710E-03	1.652909E-04
5.852412E+03	1.217953E-03	1.661147E-04
5.862315E+03	1.226736E-03	1.670088E-04
5.872217E+03	1.236058E-03	1.679725E-04
5.882120E+03	1.245876E-03	1.689999E-04
5.892022E+03	1.256190E-03	1.700904E-04
5.901925E+03	1.266999E-03	1.712435E-04
5.911828E+03	1.278258E-03	1.724530E-04
5.921730E+03	1.289965E-03	1.737184E-04
5.931633E+03	1.302104E-03	1.750372E-04
5.941535E+03	1.314643E-03	1.764048E-04
5.951438E+03	1.327566E-03	1.778188E-04
5.961340E+03	1.340854E-03	1.792765E-04
5.971243E+03	1.354474E-03	1.807734E-04
5.981146E+03	1.368409E-03	1.823068E-04
5.991048E+03	1.382657E-03	1.838766E-04
6.000951E+03	1.397152E-03	1.854737E-04
6.010853E+03	1.411912E-03	1.871004E-04
6.020756E+03	1.426870E-03	1.887478E-04
6.030658E+03	1.442046E-03	1.904183E-04
6.040561E+03	1.457375E-03	1.921035E-04
6.050463E+03	1.472862E-03	1.938040E-04
6.060366E+03	1.488463E-03	1.955139E-04
6.070269E+03	1.504188E-03	1.972345E-04
6.080171E+03	1.519994E-03	1.989603E-04
6.090074E+03	1.535858E-03	2.006884E-04
6.099976E+03	1.551796E-03	2.024208E-04
6.109879E+03	1.567765E-03	2.041520E-04
6.119781E+03	1.583778E-03	2.058838E-04
6.129684E+03	1.599822E-03	2.076145E-04
6.139586E+03	1.615875E-03	2.093415E-04
6.149489E+03	1.631907E-03	2.110611E-04
6.159392E+03	1.647923E-03	2.127737E-04
6.169294E+03	1.663879E-03	2.144742E-04
6.179197E+03	1.679755E-03	2.161599E-04
6.189099E+03	1.695529E-03	2.178283E-04
6.199002E+03	1.711225E-03	2.194827E-04
6.208904E+03	1.726787E-03	2.211159E-04
6.218807E+03	1.742202E-03	2.227266E-04
6.228709E+03	1.757482E-03	2.243164E-04
6.238612E+03	1.772628E-03	2.258853E-04
6.248515E+03	1.787611E-03	2.274301E-04
6.258417E+03	1.802414E-03	2.289486E-04
6.268320E+03	1.817064E-03	2.304442E-04
6.278222E+03	1.831521E-03	2.319120E-04
6.288125E+03	1.845791E-03	2.333532E-04
6.298027E+03	1.859864E-03	2.347662E-04
6.307930E+03	1.873723E-03	2.361493E-04
6.317833E+03	1.887357E-03	2.375012E-04
6.327735E+03	1.900755E-03	2.388205E-04
6.337638E+03	1.913904E-03	2.401059E-04
6.347540E+03	1.926763E-03	2.413525E-04
6.357443E+03	1.939352E-03	2.425627E-04
6.367345E+03	1.951659E-03	2.437353E-04
6.377248E+03	1.963699E-03	2.448724E-04
6.387150E+03	1.975496E-03	2.459770E-04
6.397053E+03	1.987010E-03	2.470444E-04
6.406956E+03	1.998295E-03	2.480813E-04
6.416858E+03	2.009343E-03	2.490871E-04
6.426761E+03	2.020179E-03	2.500648E-04
6.436663E+03	2.030770E-03	2.510105E-04
6.446566E+03	2.041173E-03	2.519314E-04
6.456468E+03	2.051355E-03	2.528236E-04
6.466371E+03	2.061346E-03	2.536909E-04
6.476273E+03	2.071114E-03	2.545293E-04
6.486176E+03	2.080691E-03	2.553430E-04
6.496079E+03	2.090108E-03	2.561361E-04
6.505981E+03	2.099305E-03	2.569010E-04
6.515884E+03	2.108314E-03	2.576419E-04
6.525786E+03	2.117172E-03	2.583634E-04
6.535689E+03	2.125811E-03	2.590573E-04
6.545591E+03	2.134304E-03	2.597327E-04
6.555494E+03	2.142581E-03	2.603811E-04
6.565396E+03	2.150716E-03	2.610116E-04
6.575299E+03	2.158638E-03	2.616157E-04
6.585202E+03	2.166385E-03	2.621982E-04
6.595104E+03	2.173956E-03	2.627590E-04
6.605007E+03	2.181316E-03	2.632939E-04
6.614909E+03	2.188499E-03	2.638073E-04
6.624812E+03	2.195464E-03	2.642944E-04
6.634714E+03	2.202214E-03	2.647555E-04
6.644617E+03	2.208780E-03	2.651947E-04
6.654520E+03	2.215124E-03	2.656073E-04
6.664422E+03	2.221200E-03	2.659881E-04
6.674325E+03	2.227083E-03	2.663462E-04
6.684227E+03	2.232688E-03	2.666717E-04
6.694130E+03	2.238054E-03	2.669691E-04
6.704032E+03	2.243170E-03	2.672376E-04
6.713935E+03	2.247994E-03	2.674722E-04
6.723837E+03	2.252519E-03	2.676722E-04
6.733740E+03	2.256737E-03	2.678370E-04
6.743643E+03	2.260684E-03	2.679709E-04
6.753545E+03	2.264314E-03	2.680686E-04
6.763448E+03	2.267577E-03	2.681246E-04
6.773350E+03	2.270507E-03	2.681429E-04
6.783253E+03	2.273101E-03	2.681235E-04
6.793155E+03	2.275349E-03	2.680653E-04
6.803058E+03	2.277207E-03	2.679634E-04
6.812960E+03	2.278663E-03	2.678168E-04
6.822863E+03	2.279760E-03	2.676305E-04
6.832766E+03	2.280446E-03	2.673987E-04
6.842668E+03	2.280719E-03	2.671214E-04
6.852571E+03	2.280572E-03	2.667981E-04
6.862473E+03	2.280002E-03	2.664286E-04
6.872376E+03	2.279006E-03	2.660129E-04
6.882278E+03	2.277582E-03	2.655509E-04
6.892181E+03	2.275684E-03	2.650375E-04
6.902083E+03	2.273309E-03	2.644726E-04
6.911986E+03	2.270502E-03	2.638618E-04
6.921889E+03	2.267263E-03	2.632051E-04
6.931791E+03	2.263506E-03	2.624930E-04
6.941694E+03	2.259321E-03	2.617360E-04
6.951596E+03	2.254669E-03	2.609299E-04
6.961499E+03	2.249552E-03	2.600752E-04
6.971401E+03	2.243932E-03	2.591678E-04
6.981304E+03	2.237860E-03	2.582136E-04
6.991207E+03	2.231343E-03	2.572138E-04
7.001109E+03	2.224392E-03	2.561699E-04
7.011012E+03	2.216972E-03	2.550780E-04
7.020914E+03	2.209095E-03	2.539397E-04
7.030817E+03	2.200815E-03	2.527615E-04
7.040719E+03	2.192104E-03	2.515402E-04
7.050622E+03	2.182931E-03	2.502726E-04
7.060524E+03	2.173400E-03	2.489707E-04
7.070427E+03	2.163484E-03	2.476317E-04
7.080330E+03	2.153204E-03	2.462580E-04
7.090232E+03	2.142532E-03	2.448466E-04
7.100135E+03	2.131532E-03	2.434050E-04
7.110037E+03	2.120228E-03	2.419360E-04
7.119940E+03	2.108595E-03	2.404368E-04
7.129842E+03	2.096658E-03	2.389107E-04
7.139745E+03	2.084481E-03	2.373647E-04
7.149647E+03	2.072048E-03	2.357972E-04
7.159550E+03	2.059380E-03	2.342107E-04
7.169453E+03	2.046503E-03	2.326082E-04
7.179355E+03	2.033442E-03	2.309926E-04
7.189258E+03	2.020176E-03	2.293616E-04
7.199160E+03	2.006817E-03	2.277279E-04
7.209063E+03	1.993348E-03	2.260895E-04
7.218965E+03	1.979706E-03	2.244396E-04
7.228868E+03	1.966044E-03	2.227952E-04
7.238770E+03	1.952262E-03	2.211452E-04
7.248673E+03	1.938471E-03	2.195021E-04
7.258576E+03	1.924655E-03	2.178640E-04
7.268478E+03	1.910842E-03	2.162342E-04
7.278381E+03	1.897024E-03	2.146116E-04
7.288283E+03	1.883232E-03	2.129999E-04
7.298186E+03	1.869503E-03	2.114032E-04
7.308088E+03	1.855877E-03	2.098259E-04
7.317991E+03	1.842315E-03	2.082635E-04
7.327894E+03	1.828905E-03	2.067260E-04
7.337796E+03	1.815618E-03	2.052102E-04
7.347699E+03	1.802475E-03	2.037183E-04
7.357601E+03	1.789496E-03	2.022525E-04
7.367504E+03	1.776790E-03	2.008251E-04
7.377406E+03	1.764424E-03	1.994438E-04
7.387309E+03	1.752552E-03	1.981256E-04
7.397211E+03	1.741325E-03	1.968879E-04
7.407114E+03	1.730775E-03	1.957341E-04
7.417017E+03	1.721008E-03	1.946759E-04
7.426919E+03	1.712153E-03	1.937278E-04
7.436822E+03	1.704168E-03	1.928848E-04
7.446724E+03	1.697134E-03	1.921559E-04
7.456627E+03	1.691017E-03	1.915373E-04
7.466529E+03	1.685765E-03	1.910230E-04
7.476432E+03	1.681314E-03	1.906056E-04
7.486334E+03	1.677598E-03	1.902777E-04
7.496237E+03	1.674583E-03	1.900353E-04
7.506140E+03	1.672167E-03	1.898669E-04
7.516042E+03	1.670324E-03	1.897694E-04
7.525945E+03	1.668958E-03	1.897319E-04
7.535847E+03	1.668057E-03	1.897529E-04
7.545750E+03	1.667569E-03	1.898267E-04
7.555652E+03	1.667414E-03	1.899441E-04
7.565555E+03	1.667594E-03	1.901050E-04
7.575457E+03	1.668069E-03	1.903052E-04
7.585360E+03	1.668769E-03	1.905366E-04
7.595263E+03	1.669707E-03	1.908003E-04
7.605165E+03	1.670811E-03	1.910884E-04
7.615068E+03	1.672139E-03	1.914073E-04
7.624970E+03	1.673587E-03	1.917453E-04
7.634873E+03	1.675176E-03	1.921044E-04
7.644775E+03	1.676843E-03	1.924777E-04
7.654678E+03	1.678612E-03	1.928674E-04
7.664581E+03	1.680464E-03	1.932717E-04
7.674483E+03	1.682384E-03	1.936887E-04
7.684386E+03	1.684316E-03	1.941117E-04
