#wls	flux	fluxerr
1.584409E+03	5.358078E-03	1.614274E-03
1.624020E+03	5.534046E-03	1.667266E-03
1.663630E+03	5.702651E-03	1.718038E-03
1.703240E+03	5.862314E-03	1.766115E-03
1.742850E+03	6.010716E-03	1.810796E-03
1.782461E+03	6.145943E-03	1.851507E-03
1.822071E+03	6.265400E-03	1.887464E-03
1.861681E+03	6.367516E-03	1.918197E-03
1.901291E+03	6.450075E-03	1.943035E-03
1.940902E+03	6.510321E-03	1.961151E-03
1.980512E+03	6.546611E-03	1.972049E-03
2.020122E+03	6.556394E-03	1.974961E-03
2.059732E+03	6.537387E-03	1.969200E-03
2.099342E+03	6.488582E-03	1.954462E-03
2.138953E+03	6.407162E-03	1.929901E-03
2.178563E+03	6.291173E-03	1.894926E-03
2.218173E+03	6.138522E-03	1.848910E-03
2.257783E+03	5.946084E-03	1.790912E-03
2.297394E+03	5.720171E-03	1.722832E-03
2.337004E+03	5.467343E-03	1.646648E-03
2.376614E+03	5.192765E-03	1.563916E-03
2.416224E+03	4.900823E-03	1.475958E-03
2.455835E+03	4.595792E-03	1.384061E-03
2.495445E+03	4.281622E-03	1.289415E-03
2.535055E+03	3.961874E-03	1.193094E-03
2.574665E+03	3.640343E-03	1.096239E-03
2.614276E+03	3.320620E-03	9.999332E-04
2.653886E+03	3.006126E-03	9.052062E-04
2.693496E+03	2.700103E-03	8.130342E-04
2.733106E+03	2.405725E-03	7.243732E-04
2.772716E+03	2.125529E-03	6.399870E-04
2.812327E+03	1.861869E-03	5.605839E-04
2.851937E+03	1.616902E-03	4.868128E-04
2.891547E+03	1.392343E-03	4.191904E-04
2.931157E+03	1.189476E-03	3.581023E-04
2.970768E+03	1.008868E-03	3.037189E-04
2.980670E+03	9.671784E-04	2.911659E-04
2.990573E+03	9.268578E-04	2.790252E-04
3.000475E+03	8.879079E-04	2.672973E-04
3.010378E+03	8.503068E-04	2.559757E-04
3.020280E+03	8.140314E-04	2.450533E-04
3.030183E+03	7.790744E-04	2.345280E-04
3.040086E+03	7.453937E-04	2.243870E-04
3.049988E+03	7.129939E-04	2.146318E-04
3.059891E+03	6.818310E-04	2.052491E-04
3.069793E+03	6.518901E-04	1.962344E-04
3.079696E+03	6.231404E-04	1.875785E-04
3.089598E+03	5.955630E-04	1.792755E-04
3.099501E+03	5.691254E-04	1.713158E-04
3.109403E+03	5.437951E-04	1.636895E-04
3.119306E+03	5.195489E-04	1.563897E-04
3.129209E+03	4.963436E-04	1.494033E-04
3.139111E+03	4.741646E-04	1.427260E-04
3.149014E+03	4.529688E-04	1.363447E-04
3.158916E+03	4.327308E-04	1.302518E-04
3.168819E+03	4.134171E-04	1.244372E-04
3.178721E+03	3.949934E-04	1.188907E-04
3.188624E+03	3.774343E-04	1.136044E-04
3.198526E+03	3.607060E-04	1.085684E-04
3.208429E+03	3.447701E-04	1.037708E-04
3.218332E+03	3.296122E-04	9.920759E-05
3.228234E+03	3.151835E-04	9.486390E-05
3.238137E+03	3.014694E-04	9.073534E-05
3.248039E+03	2.884294E-04	8.680977E-05
3.257942E+03	2.760392E-04	8.307983E-05
3.267844E+03	2.642740E-04	7.953809E-05
3.277747E+03	2.530981E-04	7.617374E-05
3.287650E+03	2.424924E-04	7.298106E-05
3.297552E+03	2.324303E-04	6.995205E-05
3.307455E+03	2.228831E-04	6.707807E-05
3.317357E+03	2.138269E-04	6.435188E-05
3.327260E+03	2.052383E-04	6.176650E-05
3.337162E+03	1.970979E-04	5.931603E-05
3.347065E+03	1.893786E-04	5.699236E-05
3.356967E+03	1.820652E-04	5.479086E-05
3.366870E+03	1.751330E-04	5.270415E-05
3.376773E+03	1.685636E-04	5.072664E-05
3.386675E+03	1.623413E-04	4.885362E-05
3.396578E+03	1.564430E-04	4.707813E-05
3.406480E+03	1.508568E-04	4.539658E-05
3.416383E+03	1.455653E-04	4.380379E-05
3.426285E+03	1.405492E-04	4.229388E-05
3.436188E+03	1.357985E-04	4.086385E-05
3.446090E+03	1.312955E-04	3.950840E-05
3.455993E+03	1.270285E-04	3.822399E-05
3.465896E+03	1.229849E-04	3.700682E-05
3.475798E+03	1.191488E-04	3.585211E-05
3.485701E+03	1.155107E-04	3.475703E-05
3.495603E+03	1.120582E-04	3.371778E-05
3.505506E+03	1.087794E-04	3.273085E-05
3.515408E+03	1.056648E-04	3.179333E-05
3.525311E+03	1.027032E-04	3.090187E-05
3.535213E+03	9.988547E-05	3.005370E-05
3.545116E+03	9.720197E-05	2.924595E-05
3.555019E+03	9.464584E-05	2.847653E-05
3.564921E+03	9.220958E-05	2.774320E-05
3.574824E+03	8.988544E-05	2.704361E-05
3.584726E+03	8.766781E-05	2.637608E-05
3.594629E+03	8.555140E-05	2.573903E-05
3.604531E+03	8.352955E-05	2.513043E-05
3.614434E+03	8.159990E-05	2.454958E-05
3.624337E+03	7.975628E-05	2.399463E-05
3.634239E+03	7.799579E-05	2.346470E-05
3.644142E+03	7.631486E-05	2.295872E-05
3.654044E+03	7.470999E-05	2.247563E-05
3.663947E+03	7.317847E-05	2.201462E-05
3.673849E+03	7.171825E-05	2.157506E-05
3.683752E+03	7.032481E-05	2.115560E-05
3.693654E+03	6.899742E-05	2.075603E-05
3.703557E+03	6.773237E-05	2.037521E-05
3.713460E+03	6.652781E-05	2.001260E-05
3.723362E+03	6.538186E-05	1.966762E-05
3.733265E+03	6.429112E-05	1.933927E-05
3.743167E+03	6.325494E-05	1.902733E-05
3.753070E+03	6.227054E-05	1.873097E-05
3.762972E+03	6.133627E-05	1.844970E-05
3.772875E+03	6.045008E-05	1.818289E-05
3.782777E+03	5.961040E-05	1.793008E-05
3.792680E+03	5.881527E-05	1.769068E-05
3.802583E+03	5.806327E-05	1.746425E-05
3.812485E+03	5.735255E-05	1.725025E-05
3.822388E+03	5.668225E-05	1.704841E-05
3.832290E+03	5.605064E-05	1.685821E-05
3.842193E+03	5.545608E-05	1.667915E-05
3.852095E+03	5.489733E-05	1.651087E-05
3.861998E+03	5.437293E-05	1.635292E-05
3.871900E+03	5.388218E-05	1.620510E-05
3.881803E+03	5.342365E-05	1.606696E-05
3.891706E+03	5.299636E-05	1.593823E-05
3.901608E+03	5.259895E-05	1.581849E-05
3.911511E+03	5.223014E-05	1.570735E-05
3.921413E+03	5.188985E-05	1.560478E-05
3.931316E+03	5.157609E-05	1.551020E-05
3.941218E+03	5.128851E-05	1.542349E-05
3.951121E+03	5.102593E-05	1.534430E-05
3.961024E+03	5.078767E-05	1.527242E-05
3.970926E+03	5.057307E-05	1.520766E-05
3.980829E+03	5.038072E-05	1.514959E-05
3.990731E+03	5.021038E-05	1.509814E-05
4.000634E+03	5.006108E-05	1.505302E-05
4.010536E+03	4.993235E-05	1.501408E-05
4.020439E+03	4.982323E-05	1.498104E-05
4.030341E+03	4.973286E-05	1.495364E-05
4.040244E+03	4.966117E-05	1.493185E-05
4.050147E+03	4.960696E-05	1.491532E-05
4.060049E+03	4.956981E-05	1.490391E-05
4.069952E+03	4.954936E-05	1.489753E-05
4.079854E+03	4.954442E-05	1.489580E-05
4.089757E+03	4.955512E-05	1.489878E-05
4.099659E+03	4.958028E-05	1.490611E-05
4.109562E+03	4.961965E-05	1.491770E-05
4.119464E+03	4.967291E-05	1.493347E-05
4.129367E+03	4.973908E-05	1.495312E-05
4.139270E+03	4.981823E-05	1.497666E-05
4.149172E+03	4.990903E-05	1.500371E-05
4.159075E+03	5.001200E-05	1.503442E-05
4.168977E+03	5.012578E-05	1.506837E-05
4.178880E+03	5.025021E-05	1.510551E-05
4.188782E+03	5.038469E-05	1.514568E-05
4.198685E+03	5.052904E-05	1.518882E-05
4.208587E+03	5.068200E-05	1.523453E-05
4.218490E+03	5.084376E-05	1.528289E-05
4.228393E+03	5.101340E-05	1.533362E-05
4.238295E+03	5.119003E-05	1.538644E-05
4.248198E+03	5.137351E-05	1.544132E-05
4.258100E+03	5.156333E-05	1.549810E-05
4.268003E+03	5.175815E-05	1.555638E-05
4.277905E+03	5.195746E-05	1.561600E-05
4.287808E+03	5.216073E-05	1.567681E-05
4.297711E+03	5.236745E-05	1.573866E-05
4.307613E+03	5.257713E-05	1.580139E-05
4.317516E+03	5.278961E-05	1.586496E-05
4.327418E+03	5.300444E-05	1.592922E-05
4.337321E+03	5.322106E-05	1.599403E-05
4.347223E+03	5.344029E-05	1.605961E-05
4.357126E+03	5.366163E-05	1.612583E-05
4.367028E+03	5.388503E-05	1.619265E-05
4.376931E+03	5.411093E-05	1.626023E-05
4.386834E+03	5.433935E-05	1.632856E-05
4.396736E+03	5.456985E-05	1.639751E-05
4.406639E+03	5.480289E-05	1.646722E-05
4.416541E+03	5.503815E-05	1.653759E-05
4.426444E+03	5.527569E-05	1.660864E-05
4.436346E+03	5.551561E-05	1.668040E-05
4.446249E+03	5.575716E-05	1.675265E-05
4.456151E+03	5.600093E-05	1.682555E-05
4.466054E+03	5.624662E-05	1.689904E-05
4.475957E+03	5.649398E-05	1.697301E-05
4.485859E+03	5.674324E-05	1.704756E-05
4.495762E+03	5.699370E-05	1.712246E-05
4.505664E+03	5.724564E-05	1.719779E-05
4.515567E+03	5.749931E-05	1.727365E-05
4.525469E+03	5.775458E-05	1.734998E-05
4.535372E+03	5.801080E-05	1.742659E-05
4.545274E+03	5.826836E-05	1.750359E-05
4.555177E+03	5.852711E-05	1.758095E-05
4.565080E+03	5.878703E-05	1.765865E-05
4.574982E+03	5.904849E-05	1.773682E-05
4.584885E+03	5.931097E-05	1.781528E-05
4.594787E+03	5.957499E-05	1.789420E-05
4.604690E+03	5.984044E-05	1.797354E-05
4.614592E+03	6.010744E-05	1.805334E-05
4.624495E+03	6.037597E-05	1.813360E-05
4.634398E+03	6.064607E-05	1.821432E-05
4.644300E+03	6.091778E-05	1.829552E-05
4.654203E+03	6.119229E-05	1.837756E-05
4.664105E+03	6.146970E-05	1.846046E-05
4.674008E+03	6.175011E-05	1.854425E-05
4.683910E+03	6.203479E-05	1.862932E-05
4.693813E+03	6.232337E-05	1.871556E-05
4.703715E+03	6.261597E-05	1.880299E-05
4.713618E+03	6.291341E-05	1.889188E-05
4.723521E+03	6.321587E-05	1.898226E-05
4.733423E+03	6.352302E-05	1.907405E-05
4.743326E+03	6.383564E-05	1.916747E-05
4.753228E+03	6.415398E-05	1.926260E-05
4.763131E+03	6.447774E-05	1.935935E-05
4.773033E+03	6.480771E-05	1.945796E-05
4.782936E+03	6.514425E-05	1.955853E-05
4.792838E+03	6.548760E-05	1.966114E-05
4.802741E+03	6.583804E-05	1.976587E-05
4.812644E+03	6.619528E-05	1.987264E-05
4.822546E+03	6.656086E-05	1.998190E-05
4.832449E+03	6.693386E-05	2.009338E-05
4.842351E+03	6.731457E-05	2.020717E-05
4.852254E+03	6.770397E-05	2.032355E-05
4.862156E+03	6.810235E-05	2.044262E-05
4.872059E+03	6.851007E-05	2.056449E-05
4.881961E+03	6.892619E-05	2.068887E-05
4.891864E+03	6.935230E-05	2.081624E-05
4.901767E+03	6.978808E-05	2.094650E-05
4.911669E+03	7.023385E-05	2.107975E-05
4.921572E+03	7.068993E-05	2.121608E-05
4.931474E+03	7.115666E-05	2.135560E-05
4.941377E+03	7.163367E-05	2.149820E-05
4.951279E+03	7.212124E-05	2.164395E-05
4.961182E+03	7.262032E-05	2.179315E-05
4.971085E+03	7.313057E-05	2.194568E-05
4.980987E+03	7.365153E-05	2.210142E-05
4.990890E+03	7.418486E-05	2.226086E-05
5.000792E+03	7.472873E-05	2.242345E-05
5.010695E+03	7.528476E-05	2.258967E-05
5.020597E+03	7.585318E-05	2.275960E-05
5.030500E+03	7.643206E-05	2.293266E-05
5.040402E+03	7.702374E-05	2.310954E-05
5.050305E+03	7.762697E-05	2.328988E-05
5.060208E+03	7.824194E-05	2.347371E-05
5.070110E+03	7.886950E-05	2.366132E-05
5.080013E+03	7.950827E-05	2.385227E-05
5.089915E+03	8.015841E-05	2.404662E-05
5.099818E+03	8.082073E-05	2.424461E-05
5.109720E+03	8.149456E-05	2.444604E-05
5.119623E+03	8.217995E-05	2.465091E-05
5.129525E+03	8.287613E-05	2.485901E-05
5.139428E+03	8.358394E-05	2.507058E-05
5.149331E+03	8.430170E-05	2.528511E-05
5.159233E+03	8.503099E-05	2.550309E-05
5.169136E+03	8.577095E-05	2.572425E-05
5.179038E+03	8.652062E-05	2.594831E-05
5.188941E+03	8.727989E-05	2.617522E-05
5.198843E+03	8.804943E-05	2.640520E-05
5.208746E+03	8.882732E-05	2.663766E-05
5.218648E+03	8.961416E-05	2.687279E-05
5.228551E+03	9.041059E-05	2.711077E-05
5.238454E+03	9.121366E-05	2.735072E-05
5.248356E+03	9.202567E-05	2.759334E-05
5.258259E+03	9.284354E-05	2.783769E-05
5.268161E+03	9.366954E-05	2.808446E-05
5.278064E+03	9.450049E-05	2.833269E-05
5.287966E+03	9.533772E-05	2.858279E-05
5.297869E+03	9.618068E-05	2.883458E-05
5.307772E+03	9.702784E-05	2.908760E-05
5.317674E+03	9.788047E-05	2.934225E-05
5.327577E+03	9.873506E-05	2.959746E-05
5.337479E+03	9.959379E-05	2.985389E-05
5.347382E+03	1.004549E-04	3.011102E-05
5.357284E+03	1.013177E-04	3.036862E-05
5.367187E+03	1.021813E-04	3.062642E-05
5.377089E+03	1.030447E-04	3.088419E-05
5.386992E+03	1.039062E-04	3.114131E-05
5.396895E+03	1.047646E-04	3.139750E-05
5.406797E+03	1.056189E-04	3.165244E-05
5.416700E+03	1.064680E-04	3.190581E-05
5.426602E+03	1.073097E-04	3.215693E-05
5.436505E+03	1.081418E-04	3.240514E-05
5.446407E+03	1.089640E-04	3.265038E-05
5.456310E+03	1.097741E-04	3.289193E-05
5.466212E+03	1.105694E-04	3.312906E-05
5.476115E+03	1.113475E-04	3.336101E-05
5.486018E+03	1.121081E-04	3.358769E-05
5.495920E+03	1.128475E-04	3.380798E-05
5.505823E+03	1.135652E-04	3.402177E-05
5.515725E+03	1.142576E-04	3.422793E-05
5.525628E+03	1.149229E-04	3.442597E-05
5.535530E+03	1.155609E-04	3.461581E-05
5.545433E+03	1.161676E-04	3.479626E-05
5.555335E+03	1.167428E-04	3.496724E-05
5.565238E+03	1.172849E-04	3.512830E-05
5.575141E+03	1.177914E-04	3.527866E-05
5.585043E+03	1.182607E-04	3.541788E-05
5.594946E+03	1.186928E-04	3.554593E-05
5.604848E+03	1.190865E-04	3.566244E-05
5.614751E+03	1.194391E-04	3.576667E-05
5.624653E+03	1.197510E-04	3.585868E-05
5.634556E+03	1.200223E-04	3.593852E-05
5.644459E+03	1.202497E-04	3.600519E-05
5.654361E+03	1.204335E-04	3.605881E-05
5.664264E+03	1.205744E-04	3.609955E-05
5.674166E+03	1.206718E-04	3.612726E-05
5.684069E+03	1.207252E-04	3.614180E-05
5.693971E+03	1.207343E-04	3.614308E-05
5.703874E+03	1.206990E-04	3.613105E-05
5.713776E+03	1.206205E-04	3.610609E-05
5.723679E+03	1.204976E-04	3.606782E-05
5.733582E+03	1.203331E-04	3.601710E-05
5.743484E+03	1.201261E-04	3.595365E-05
5.753387E+03	1.198770E-04	3.587761E-05
5.763289E+03	1.195891E-04	3.578995E-05
5.773192E+03	1.192605E-04	3.569012E-05
5.783094E+03	1.188935E-04	3.557877E-05
5.792997E+03	1.184902E-04	3.545657E-05
5.802899E+03	1.180504E-04	3.532348E-05
5.812802E+03	1.175768E-04	3.518024E-05
5.822705E+03	1.170692E-04	3.502685E-05
5.832607E+03	1.165316E-04	3.486450E-05
5.842510E+03	1.159642E-04	3.469324E-05
5.852412E+03	1.153685E-04	3.451353E-05
5.862315E+03	1.147475E-04	3.432622E-05
5.872217E+03	1.141014E-04	3.413143E-05
5.882120E+03	1.134331E-04	3.393002E-05
5.892022E+03	1.127432E-04	3.372214E-05
5.901925E+03	1.120345E-04	3.350869E-05
5.911828E+03	1.113089E-04	3.329017E-05
5.921730E+03	1.105681E-04	3.306710E-05
5.931633E+03	1.098125E-04	3.283962E-05
5.941535E+03	1.090450E-04	3.260862E-05
5.951438E+03	1.082674E-04	3.237460E-05
5.961340E+03	1.074801E-04	3.213768E-05
5.971243E+03	1.066858E-04	3.189870E-05
5.981146E+03	1.058850E-04	3.165779E-05
5.991048E+03	1.050779E-04	3.141502E-05
6.000951E+03	1.042686E-04	3.117158E-05
6.010853E+03	1.034559E-04	3.092716E-05
6.020756E+03	1.026425E-04	3.068255E-05
6.030658E+03	1.018272E-04	3.043739E-05
6.040561E+03	1.010126E-04	3.019244E-05
6.050463E+03	1.001986E-04	2.994769E-05
6.060366E+03	9.938642E-05	2.970350E-05
6.070269E+03	9.857713E-05	2.946019E-05
6.080171E+03	9.777051E-05	2.921770E-05
6.090074E+03	9.696759E-05	2.897633E-05
6.099976E+03	9.616927E-05	2.873635E-05
6.109879E+03	9.537641E-05	2.849802E-05
6.119781E+03	9.458980E-05	2.826158E-05
6.129684E+03	9.380896E-05	2.802688E-05
6.139586E+03	9.303573E-05	2.779446E-05
6.149489E+03	9.227081E-05	2.756455E-05
6.159392E+03	9.151465E-05	2.733727E-05
6.169294E+03	9.076904E-05	2.711316E-05
6.179197E+03	9.003551E-05	2.689267E-05
6.189099E+03	8.931567E-05	2.667629E-05
6.199002E+03	8.861104E-05	2.646446E-05
6.208904E+03	8.792309E-05	2.625764E-05
6.218807E+03	8.725436E-05	2.605657E-05
6.228709E+03	8.660391E-05	2.586097E-05
6.238612E+03	8.597659E-05	2.567229E-05
6.248515E+03	8.537134E-05	2.549022E-05
6.258417E+03	8.479063E-05	2.531549E-05
6.268320E+03	8.423569E-05	2.514846E-05
6.278222E+03	8.370775E-05	2.498950E-05
6.288125E+03	8.320689E-05	2.483864E-05
6.298027E+03	8.273426E-05	2.469622E-05
6.307930E+03	8.229110E-05	2.456260E-05
6.317833E+03	8.187744E-05	2.443780E-05
6.327735E+03	8.149329E-05	2.432182E-05
6.337638E+03	8.113983E-05	2.421499E-05
6.347540E+03	8.081473E-05	2.411664E-05
6.357443E+03	8.051804E-05	2.402677E-05
6.367345E+03	8.024856E-05	2.394502E-05
6.377248E+03	8.000393E-05	2.387069E-05
6.387150E+03	7.978530E-05	2.380413E-05
6.397053E+03	7.959036E-05	2.374463E-05
6.406956E+03	7.942022E-05	2.369253E-05
6.416858E+03	7.927495E-05	2.364784E-05
6.426761E+03	7.915333E-05	2.361022E-05
6.436663E+03	7.905532E-05	2.357963E-05
6.446566E+03	7.898094E-05	2.355609E-05
6.456468E+03	7.893023E-05	2.353961E-05
6.466371E+03	7.890312E-05	2.353016E-05
6.476273E+03	7.890092E-05	2.352813E-05
6.486176E+03	7.892239E-05	2.353316E-05
6.496079E+03	7.896634E-05	2.354488E-05
6.505981E+03	7.903523E-05	2.356404E-05
6.515884E+03	7.912663E-05	2.358989E-05
6.525786E+03	7.924184E-05	2.362284E-05
6.535689E+03	7.938089E-05	2.366288E-05
6.545591E+03	7.954383E-05	2.371003E-05
6.555494E+03	7.973072E-05	2.376431E-05
6.565396E+03	7.994031E-05	2.382535E-05
6.575299E+03	8.017403E-05	2.389356E-05
6.585202E+03	8.043055E-05	2.396855E-05
6.595104E+03	8.071129E-05	2.405075E-05
6.605007E+03	8.101505E-05	2.413979E-05
6.614909E+03	8.134185E-05	2.423568E-05
6.624812E+03	8.169320E-05	2.433886E-05
6.634714E+03	8.206917E-05	2.444936E-05
6.644617E+03	8.246712E-05	2.456639E-05
6.654520E+03	8.288995E-05	2.469081E-05
6.664422E+03	8.333489E-05	2.482180E-05
6.674325E+03	8.380497E-05	2.496025E-05
6.684227E+03	8.429887E-05	2.510577E-05
6.694130E+03	8.481521E-05	2.525795E-05
6.704032E+03	8.535713E-05	2.541773E-05
6.713935E+03	8.592173E-05	2.558422E-05
6.723837E+03	8.651070E-05	2.575796E-05
6.733740E+03	8.712411E-05	2.593894E-05
6.743643E+03	8.776220E-05	2.612723E-05
6.753545E+03	8.842349E-05	2.632241E-05
6.763448E+03	8.910973E-05	2.652497E-05
6.773350E+03	8.981940E-05	2.673449E-05
6.783253E+03	9.055434E-05	2.695149E-05
6.793155E+03	9.131305E-05	2.717553E-05
6.803058E+03	9.209560E-05	2.740663E-05
6.812960E+03	9.290385E-05	2.764534E-05
6.822863E+03	9.373453E-05	2.789069E-05
6.832766E+03	9.459122E-05	2.814374E-05
6.842668E+03	9.547230E-05	2.840400E-05
6.852571E+03	9.637792E-05	2.867153E-05
6.862473E+03	9.730818E-05	2.894634E-05
6.872376E+03	9.826323E-05	2.922849E-05
6.882278E+03	9.924133E-05	2.951745E-05
6.892181E+03	1.002444E-04	2.981378E-05
6.902083E+03	1.012725E-04	3.011753E-05
6.911986E+03	1.023259E-04	3.042874E-05
6.921889E+03	1.034007E-04	3.074626E-05
6.931791E+03	1.045028E-04	3.107187E-05
6.941694E+03	1.056263E-04	3.140379E-05
6.951596E+03	1.067754E-04	3.174325E-05
6.961499E+03	1.079480E-04	3.208966E-05
6.971401E+03	1.091441E-04	3.244300E-05
6.981304E+03	1.103638E-04	3.280329E-05
6.991207E+03	1.116071E-04	3.317053E-05
7.001109E+03	1.128716E-04	3.354405E-05
7.011012E+03	1.141597E-04	3.392449E-05
7.020914E+03	1.154712E-04	3.431184E-05
7.030817E+03	1.168038E-04	3.470540E-05
7.040719E+03	1.181598E-04	3.510585E-05
7.050622E+03	1.195366E-04	3.551243E-05
7.060524E+03	1.209343E-04	3.592512E-05
7.070427E+03	1.223524E-04	3.634384E-05
7.080330E+03	1.237935E-04	3.676932E-05
7.090232E+03	1.252523E-04	3.719998E-05
7.100135E+03	1.267284E-04	3.763574E-05
7.110037E+03	1.282269E-04	3.807806E-05
7.119940E+03	1.297423E-04	3.852530E-05
7.129842E+03	1.312741E-04	3.897738E-05
7.139745E+03	1.328247E-04	3.943497E-05
7.149647E+03	1.343911E-04	3.989716E-05
7.159550E+03	1.359727E-04	4.036383E-05
7.169453E+03	1.375693E-04	4.083483E-05
7.179355E+03	1.391801E-04	4.131002E-05
7.189258E+03	1.408080E-04	4.179016E-05
7.199160E+03	1.424461E-04	4.227330E-05
7.209063E+03	1.441003E-04	4.276110E-05
7.218965E+03	1.457668E-04	4.325250E-05
7.228868E+03	1.474450E-04	4.374731E-05
7.238770E+03	1.491377E-04	4.424633E-05
7.248673E+03	1.508411E-04	4.474842E-05
7.258576E+03	1.525578E-04	4.525441E-05
7.268478E+03	1.542874E-04	4.576414E-05
7.278381E+03	1.560328E-04	4.627847E-05
7.288283E+03	1.577936E-04	4.679730E-05
7.298186E+03	1.595731E-04	4.732158E-05
7.308088E+03	1.613673E-04	4.785015E-05
7.317991E+03	1.631869E-04	4.838617E-05
7.327894E+03	1.650321E-04	4.892969E-05
7.337796E+03	1.668991E-04	4.947958E-05
7.347699E+03	1.687994E-04	5.003927E-05
7.357601E+03	1.707295E-04	5.060772E-05
7.367504E+03	1.726937E-04	5.118618E-05
7.377406E+03	1.746884E-04	5.177357E-05
7.387309E+03	1.767179E-04	5.237118E-05
7.397211E+03	1.787698E-04	5.297539E-05
7.407114E+03	1.808528E-04	5.358868E-05
7.417017E+03	1.829539E-04	5.420725E-05
7.426919E+03	1.850772E-04	5.483228E-05
7.436822E+03	1.872179E-04	5.546240E-05
7.446724E+03	1.893711E-04	5.609611E-05
7.456627E+03	1.915407E-04	5.673460E-05
7.466529E+03	1.937123E-04	5.737356E-05
7.476432E+03	1.958941E-04	5.801548E-05
7.486334E+03	1.980807E-04	5.865871E-05
7.496237E+03	2.002711E-04	5.930297E-05
7.506140E+03	2.024594E-04	5.994648E-05
7.516042E+03	2.046492E-04	6.059038E-05
7.525945E+03	2.068345E-04	6.123283E-05
7.535847E+03	2.090139E-04	6.187345E-05
7.545750E+03	2.111914E-04	6.251341E-05
7.555652E+03	2.133605E-04	6.315078E-05
7.565555E+03	2.155251E-04	6.378675E-05
7.575457E+03	2.176732E-04	6.441771E-05
7.585360E+03	2.198141E-04	6.504646E-05
7.595263E+03	2.219409E-04	6.567096E-05
7.605165E+03	2.240579E-04	6.629244E-05
7.615068E+03	2.261578E-04	6.690881E-05
7.624970E+03	2.282392E-04	6.751961E-05
7.634873E+03	2.303005E-04	6.812435E-05
7.644775E+03	2.323520E-04	6.872614E-05
7.654678E+03	2.343744E-04	6.931922E-05
7.664581E+03	2.363842E-04	6.990851E-05
7.674483E+03	2.383679E-04	7.048996E-05
7.684386E+03	2.403299E-04	7.106497E-05
