#wls	flux	fluxerr
1.584409E+03	2.038876E-03	0.000000E+00
1.624020E+03	2.113895E-03	0.000000E+00
1.663630E+03	2.188216E-03	0.000000E+00
1.703240E+03	2.261259E-03	0.000000E+00
1.742850E+03	2.332590E-03	0.000000E+00
1.782461E+03	2.401481E-03	0.000000E+00
1.822071E+03	2.467358E-03	0.000000E+00
1.861681E+03	2.529579E-03	0.000000E+00
1.901291E+03	2.587209E-03	0.000000E+00
1.940902E+03	2.639486E-03	0.000000E+00
1.980512E+03	2.685603E-03	0.000000E+00
2.020122E+03	2.724714E-03	0.000000E+00
2.059732E+03	2.755756E-03	0.000000E+00
2.099342E+03	2.777890E-03	0.000000E+00
2.138953E+03	2.789934E-03	0.000000E+00
2.178563E+03	2.790823E-03	0.000000E+00
2.218173E+03	2.778959E-03	0.000000E+00
2.257783E+03	2.753076E-03	0.000000E+00
2.297394E+03	2.714010E-03	0.000000E+00
2.337004E+03	2.663190E-03	0.000000E+00
2.376614E+03	2.601612E-03	0.000000E+00
2.416224E+03	2.529952E-03	0.000000E+00
2.455835E+03	2.448781E-03	0.000000E+00
2.495445E+03	2.358848E-03	0.000000E+00
2.535055E+03	2.260749E-03	0.000000E+00
2.574665E+03	2.155397E-03	0.000000E+00
2.614276E+03	2.043615E-03	0.000000E+00
2.653886E+03	1.926222E-03	0.000000E+00
2.693496E+03	1.804373E-03	0.000000E+00
2.733106E+03	1.679171E-03	0.000000E+00
2.772716E+03	1.551849E-03	0.000000E+00
2.812327E+03	1.423719E-03	0.000000E+00
2.851937E+03	1.296244E-03	0.000000E+00
2.891547E+03	1.171154E-03	0.000000E+00
2.931157E+03	1.050368E-03	0.000000E+00
2.970768E+03	9.355601E-04	0.000000E+00
2.980670E+03	9.079467E-04	0.000000E+00
2.990573E+03	8.808395E-04	0.000000E+00
3.000475E+03	8.542045E-04	0.000000E+00
3.010378E+03	8.280709E-04	0.000000E+00
3.020280E+03	8.024819E-04	0.000000E+00
3.030183E+03	7.774062E-04	0.000000E+00
3.040086E+03	7.528830E-04	0.000000E+00
3.049988E+03	7.289150E-04	0.000000E+00
3.059891E+03	7.055037E-04	0.000000E+00
3.069793E+03	6.826508E-04	0.000000E+00
3.079696E+03	6.603851E-04	0.000000E+00
3.089598E+03	6.386904E-04	0.000000E+00
3.099501E+03	6.175778E-04	0.000000E+00
3.109403E+03	5.970440E-04	0.000000E+00
3.119306E+03	5.770853E-04	0.000000E+00
3.129209E+03	5.577080E-04	0.000000E+00
3.139111E+03	5.389161E-04	0.000000E+00
3.149014E+03	5.206827E-04	0.000000E+00
3.158916E+03	5.030301E-04	0.000000E+00
3.168819E+03	4.859393E-04	0.000000E+00
3.178721E+03	4.694101E-04	0.000000E+00
3.188624E+03	4.534325E-04	0.000000E+00
3.198526E+03	4.379883E-04	0.000000E+00
3.208429E+03	4.230894E-04	0.000000E+00
3.218332E+03	4.087027E-04	0.000000E+00
3.228234E+03	3.948371E-04	0.000000E+00
3.238137E+03	3.814799E-04	0.000000E+00
3.248039E+03	3.686061E-04	0.000000E+00
3.257942E+03	3.562208E-04	0.000000E+00
3.267844E+03	3.442998E-04	0.000000E+00
3.277747E+03	3.328357E-04	0.000000E+00
3.287650E+03	3.218154E-04	0.000000E+00
3.297552E+03	3.112304E-04	0.000000E+00
3.307455E+03	3.010628E-04	0.000000E+00
3.317357E+03	2.913000E-04	0.000000E+00
3.327260E+03	2.819293E-04	0.000000E+00
3.337162E+03	2.729419E-04	0.000000E+00
3.347065E+03	2.643218E-04	0.000000E+00
3.356967E+03	2.560563E-04	0.000000E+00
3.366870E+03	2.481339E-04	0.000000E+00
3.376773E+03	2.405398E-04	0.000000E+00
3.386675E+03	2.332631E-04	0.000000E+00
3.396578E+03	2.262928E-04	0.000000E+00
3.406480E+03	2.196159E-04	0.000000E+00
3.416383E+03	2.132220E-04	0.000000E+00
3.426285E+03	2.070989E-04	0.000000E+00
3.436188E+03	2.012353E-04	0.000000E+00
3.446090E+03	1.956198E-04	0.000000E+00
3.455993E+03	1.902402E-04	0.000000E+00
3.465896E+03	1.850884E-04	0.000000E+00
3.475798E+03	1.801534E-04	0.000000E+00
3.485701E+03	1.754222E-04	0.000000E+00
3.495603E+03	1.708818E-04	0.000000E+00
3.505506E+03	1.665250E-04	0.000000E+00
3.515408E+03	1.623402E-04	0.000000E+00
3.525311E+03	1.583134E-04	0.000000E+00
3.535213E+03	1.544367E-04	0.000000E+00
3.545116E+03	1.507011E-04	0.000000E+00
3.555019E+03	1.470971E-04	0.000000E+00
3.564921E+03	1.436144E-04	0.000000E+00
3.574824E+03	1.402489E-04	0.000000E+00
3.584726E+03	1.369943E-04	0.000000E+00
3.594629E+03	1.338443E-04	0.000000E+00
3.604531E+03	1.307993E-04	0.000000E+00
3.614434E+03	1.278553E-04	0.000000E+00
3.624337E+03	1.250100E-04	0.000000E+00
3.634239E+03	1.222617E-04	0.000000E+00
3.644142E+03	1.196087E-04	0.000000E+00
3.654044E+03	1.170479E-04	0.000000E+00
3.663947E+03	1.145794E-04	0.000000E+00
3.673849E+03	1.121990E-04	0.000000E+00
3.683752E+03	1.099053E-04	0.000000E+00
3.693654E+03	1.076978E-04	0.000000E+00
3.703557E+03	1.055713E-04	0.000000E+00
3.713460E+03	1.035268E-04	0.000000E+00
3.723362E+03	1.015594E-04	0.000000E+00
3.733265E+03	9.966881E-05	0.000000E+00
3.743167E+03	9.785258E-05	0.000000E+00
3.753070E+03	9.610812E-05	0.000000E+00
3.762972E+03	9.443364E-05	0.000000E+00
3.772875E+03	9.282661E-05	0.000000E+00
3.782777E+03	9.128529E-05	0.000000E+00
3.792680E+03	8.980793E-05	0.000000E+00
3.802583E+03	8.839207E-05	0.000000E+00
3.812485E+03	8.703603E-05	0.000000E+00
3.822388E+03	8.573816E-05	0.000000E+00
3.832290E+03	8.449615E-05	0.000000E+00
3.842193E+03	8.330841E-05	0.000000E+00
3.852095E+03	8.217340E-05	0.000000E+00
3.861998E+03	8.108900E-05	0.000000E+00
3.871900E+03	8.005375E-05	0.000000E+00
3.881803E+03	7.906561E-05	0.000000E+00
3.891706E+03	7.812388E-05	0.000000E+00
3.901608E+03	7.722661E-05	0.000000E+00
3.911511E+03	7.637254E-05	0.000000E+00
3.921413E+03	7.555930E-05	0.000000E+00
3.931316E+03	7.478687E-05	0.000000E+00
3.941218E+03	7.405298E-05	0.000000E+00
3.951121E+03	7.335658E-05	0.000000E+00
3.961024E+03	7.269606E-05	0.000000E+00
3.970926E+03	7.207101E-05	0.000000E+00
3.980829E+03	7.147940E-05	0.000000E+00
3.990731E+03	7.092085E-05	0.000000E+00
4.000634E+03	7.039348E-05	0.000000E+00
4.010536E+03	6.989695E-05	0.000000E+00
4.020439E+03	6.942949E-05	0.000000E+00
4.030341E+03	6.899033E-05	0.000000E+00
4.040244E+03	6.857880E-05	0.000000E+00
4.050147E+03	6.819423E-05	0.000000E+00
4.060049E+03	6.783497E-05	0.000000E+00
4.069952E+03	6.750043E-05	0.000000E+00
4.079854E+03	6.718957E-05	0.000000E+00
4.089757E+03	6.690187E-05	0.000000E+00
4.099659E+03	6.663684E-05	0.000000E+00
4.109562E+03	6.639302E-05	0.000000E+00
4.119464E+03	6.617048E-05	0.000000E+00
4.129367E+03	6.596783E-05	0.000000E+00
4.139270E+03	6.578473E-05	0.000000E+00
4.149172E+03	6.562082E-05	0.000000E+00
4.159075E+03	6.547480E-05	0.000000E+00
4.168977E+03	6.534638E-05	0.000000E+00
4.178880E+03	6.523483E-05	0.000000E+00
4.188782E+03	6.514038E-05	0.000000E+00
4.198685E+03	6.506136E-05	0.000000E+00
4.208587E+03	6.499806E-05	0.000000E+00
4.218490E+03	6.494933E-05	0.000000E+00
4.228393E+03	6.491554E-05	0.000000E+00
4.238295E+03	6.489505E-05	0.000000E+00
4.248198E+03	6.488778E-05	0.000000E+00
4.258100E+03	6.489362E-05	0.000000E+00
4.268003E+03	6.491100E-05	0.000000E+00
4.277905E+03	6.494040E-05	0.000000E+00
4.287808E+03	6.497974E-05	0.000000E+00
4.297711E+03	6.502951E-05	0.000000E+00
4.307613E+03	6.508717E-05	0.000000E+00
4.317516E+03	6.515268E-05	0.000000E+00
4.327418E+03	6.522762E-05	0.000000E+00
4.337321E+03	6.531204E-05	0.000000E+00
4.347223E+03	6.540648E-05	0.000000E+00
4.357126E+03	6.551109E-05	0.000000E+00
4.367028E+03	6.562492E-05	0.000000E+00
4.376931E+03	6.574914E-05	0.000000E+00
4.386834E+03	6.588287E-05	0.000000E+00
4.396736E+03	6.602628E-05	0.000000E+00
4.406639E+03	6.617905E-05	0.000000E+00
4.416541E+03	6.634141E-05	0.000000E+00
4.426444E+03	6.651249E-05	0.000000E+00
4.436346E+03	6.669311E-05	0.000000E+00
4.446249E+03	6.688249E-05	0.000000E+00
4.456151E+03	6.708037E-05	0.000000E+00
4.466054E+03	6.728763E-05	0.000000E+00
4.475957E+03	6.750294E-05	0.000000E+00
4.485859E+03	6.772669E-05	0.000000E+00
4.495762E+03	6.795925E-05	0.000000E+00
4.505664E+03	6.819992E-05	0.000000E+00
4.515567E+03	6.844913E-05	0.000000E+00
4.525469E+03	6.870618E-05	0.000000E+00
4.535372E+03	6.897153E-05	0.000000E+00
4.545274E+03	6.924510E-05	0.000000E+00
4.555177E+03	6.952682E-05	0.000000E+00
4.565080E+03	6.981604E-05	0.000000E+00
4.574982E+03	7.011387E-05	0.000000E+00
4.584885E+03	7.041910E-05	0.000000E+00
4.594787E+03	7.073229E-05	0.000000E+00
4.604690E+03	7.105342E-05	0.000000E+00
4.614592E+03	7.138190E-05	0.000000E+00
4.624495E+03	7.171892E-05	0.000000E+00
4.634398E+03	7.206327E-05	0.000000E+00
4.644300E+03	7.241559E-05	0.000000E+00
4.654203E+03	7.277719E-05	0.000000E+00
4.664105E+03	7.314746E-05	0.000000E+00
4.674008E+03	7.352714E-05	0.000000E+00
4.683910E+03	7.391695E-05	0.000000E+00
4.693813E+03	7.431699E-05	0.000000E+00
4.703715E+03	7.472738E-05	0.000000E+00
4.713618E+03	7.514956E-05	0.000000E+00
4.723521E+03	7.558235E-05	0.000000E+00
4.733423E+03	7.602727E-05	0.000000E+00
4.743326E+03	7.648446E-05	0.000000E+00
4.753228E+03	7.695342E-05	0.000000E+00
4.763131E+03	7.743570E-05	0.000000E+00
4.773033E+03	7.793084E-05	0.000000E+00
4.782936E+03	7.843903E-05	0.000000E+00
4.792838E+03	7.896045E-05	0.000000E+00
4.802741E+03	7.949534E-05	0.000000E+00
4.812644E+03	8.004538E-05	0.000000E+00
4.822546E+03	8.060859E-05	0.000000E+00
4.832449E+03	8.118668E-05	0.000000E+00
4.842351E+03	8.177917E-05	0.000000E+00
4.852254E+03	8.238700E-05	0.000000E+00
4.862156E+03	8.300970E-05	0.000000E+00
4.872059E+03	8.364750E-05	0.000000E+00
4.881961E+03	8.430141E-05	0.000000E+00
4.891864E+03	8.497010E-05	0.000000E+00
4.901767E+03	8.565460E-05	0.000000E+00
4.911669E+03	8.635514E-05	0.000000E+00
4.921572E+03	8.707194E-05	0.000000E+00
4.931474E+03	8.780445E-05	0.000000E+00
4.941377E+03	8.855285E-05	0.000000E+00
4.951279E+03	8.931817E-05	0.000000E+00
4.961182E+03	9.009894E-05	0.000000E+00
4.971085E+03	9.089708E-05	0.000000E+00
4.980987E+03	9.171102E-05	0.000000E+00
4.990890E+03	9.254095E-05	0.000000E+00
5.000792E+03	9.338788E-05	0.000000E+00
5.010695E+03	9.425108E-05	0.000000E+00
5.020597E+03	9.513071E-05	0.000000E+00
5.030500E+03	9.602594E-05	0.000000E+00
5.040402E+03	9.693782E-05	0.000000E+00
5.050305E+03	9.786643E-05	0.000000E+00
5.060208E+03	9.881000E-05	0.000000E+00
5.070110E+03	9.976946E-05	0.000000E+00
5.080013E+03	1.007449E-04	0.000000E+00
5.089915E+03	1.017363E-04	0.000000E+00
5.099818E+03	1.027428E-04	0.000000E+00
5.109720E+03	1.037642E-04	0.000000E+00
5.119623E+03	1.047996E-04	0.000000E+00
5.129525E+03	1.058509E-04	0.000000E+00
5.139428E+03	1.069159E-04	0.000000E+00
5.149331E+03	1.079946E-04	0.000000E+00
5.159233E+03	1.090867E-04	0.000000E+00
5.169136E+03	1.101933E-04	0.000000E+00
5.179038E+03	1.113119E-04	0.000000E+00
5.188941E+03	1.124423E-04	0.000000E+00
5.198843E+03	1.135864E-04	0.000000E+00
5.208746E+03	1.147406E-04	0.000000E+00
5.218648E+03	1.159068E-04	0.000000E+00
5.228551E+03	1.170835E-04	0.000000E+00
5.238454E+03	1.182702E-04	0.000000E+00
5.248356E+03	1.194677E-04	0.000000E+00
5.258259E+03	1.206732E-04	0.000000E+00
5.268161E+03	1.218872E-04	0.000000E+00
5.278064E+03	1.231091E-04	0.000000E+00
5.287966E+03	1.243383E-04	0.000000E+00
5.297869E+03	1.255754E-04	0.000000E+00
5.307772E+03	1.268171E-04	0.000000E+00
5.317674E+03	1.280639E-04	0.000000E+00
5.327577E+03	1.293149E-04	0.000000E+00
5.337479E+03	1.305679E-04	0.000000E+00
5.347382E+03	1.318244E-04	0.000000E+00
5.357284E+03	1.330823E-04	0.000000E+00
5.367187E+03	1.343391E-04	0.000000E+00
5.377089E+03	1.355935E-04	0.000000E+00
5.386992E+03	1.368458E-04	0.000000E+00
5.396895E+03	1.380917E-04	0.000000E+00
5.406797E+03	1.393315E-04	0.000000E+00
5.416700E+03	1.405635E-04	0.000000E+00
5.426602E+03	1.417835E-04	0.000000E+00
5.436505E+03	1.429900E-04	0.000000E+00
5.446407E+03	1.441825E-04	0.000000E+00
5.456310E+03	1.453581E-04	0.000000E+00
5.466212E+03	1.465135E-04	0.000000E+00
5.476115E+03	1.476454E-04	0.000000E+00
5.486018E+03	1.487548E-04	0.000000E+00
5.495920E+03	1.498354E-04	0.000000E+00
5.505823E+03	1.508868E-04	0.000000E+00
5.515725E+03	1.519055E-04	0.000000E+00
5.525628E+03	1.528895E-04	0.000000E+00
5.535530E+03	1.538368E-04	0.000000E+00
5.545433E+03	1.547440E-04	0.000000E+00
5.555335E+03	1.556107E-04	0.000000E+00
5.565238E+03	1.564334E-04	0.000000E+00
5.575141E+03	1.572088E-04	0.000000E+00
5.585043E+03	1.579381E-04	0.000000E+00
5.594946E+03	1.586183E-04	0.000000E+00
5.604848E+03	1.592460E-04	0.000000E+00
5.614751E+03	1.598213E-04	0.000000E+00
5.624653E+03	1.603446E-04	0.000000E+00
5.634556E+03	1.608112E-04	0.000000E+00
5.644459E+03	1.612217E-04	0.000000E+00
5.654361E+03	1.615767E-04	0.000000E+00
5.664264E+03	1.618737E-04	0.000000E+00
5.674166E+03	1.621138E-04	0.000000E+00
5.684069E+03	1.622945E-04	0.000000E+00
5.693971E+03	1.624172E-04	0.000000E+00
5.703874E+03	1.624818E-04	0.000000E+00
5.713776E+03	1.624898E-04	0.000000E+00
5.723679E+03	1.624379E-04	0.000000E+00
5.733582E+03	1.623315E-04	0.000000E+00
5.743484E+03	1.621675E-04	0.000000E+00
5.753387E+03	1.619484E-04	0.000000E+00
5.763289E+03	1.616746E-04	0.000000E+00
5.773192E+03	1.613473E-04	0.000000E+00
5.783094E+03	1.609690E-04	0.000000E+00
5.792997E+03	1.605409E-04	0.000000E+00
5.802899E+03	1.600643E-04	0.000000E+00
5.812802E+03	1.595388E-04	0.000000E+00
5.822705E+03	1.589694E-04	0.000000E+00
5.832607E+03	1.583558E-04	0.000000E+00
5.842510E+03	1.577017E-04	0.000000E+00
5.852412E+03	1.570068E-04	0.000000E+00
5.862315E+03	1.562748E-04	0.000000E+00
5.872217E+03	1.555075E-04	0.000000E+00
5.882120E+03	1.547068E-04	0.000000E+00
5.892022E+03	1.538747E-04	0.000000E+00
5.901925E+03	1.530132E-04	0.000000E+00
5.911828E+03	1.521258E-04	0.000000E+00
5.921730E+03	1.512112E-04	0.000000E+00
5.931633E+03	1.502746E-04	0.000000E+00
5.941535E+03	1.493165E-04	0.000000E+00
5.951438E+03	1.483386E-04	0.000000E+00
5.961340E+03	1.473445E-04	0.000000E+00
5.971243E+03	1.463327E-04	0.000000E+00
5.981146E+03	1.453085E-04	0.000000E+00
5.991048E+03	1.442701E-04	0.000000E+00
6.000951E+03	1.432209E-04	0.000000E+00
6.010853E+03	1.421626E-04	0.000000E+00
6.020756E+03	1.410951E-04	0.000000E+00
6.030658E+03	1.400199E-04	0.000000E+00
6.040561E+03	1.389385E-04	0.000000E+00
6.050463E+03	1.378523E-04	0.000000E+00
6.060366E+03	1.367625E-04	0.000000E+00
6.070269E+03	1.356705E-04	0.000000E+00
6.080171E+03	1.345775E-04	0.000000E+00
6.090074E+03	1.334845E-04	0.000000E+00
6.099976E+03	1.323944E-04	0.000000E+00
6.109879E+03	1.313098E-04	0.000000E+00
6.119781E+03	1.302332E-04	0.000000E+00
6.129684E+03	1.291655E-04	0.000000E+00
6.139586E+03	1.281075E-04	0.000000E+00
6.149489E+03	1.270583E-04	0.000000E+00
6.159392E+03	1.260183E-04	0.000000E+00
6.169294E+03	1.249884E-04	0.000000E+00
6.179197E+03	1.239673E-04	0.000000E+00
6.189099E+03	1.229573E-04	0.000000E+00
6.199002E+03	1.219621E-04	0.000000E+00
6.208904E+03	1.209805E-04	0.000000E+00
6.218807E+03	1.200144E-04	0.000000E+00
6.228709E+03	1.190675E-04	0.000000E+00
6.238612E+03	1.181385E-04	0.000000E+00
6.248515E+03	1.172324E-04	0.000000E+00
6.258417E+03	1.163512E-04	0.000000E+00
6.268320E+03	1.154933E-04	0.000000E+00
6.278222E+03	1.146639E-04	0.000000E+00
6.288125E+03	1.138646E-04	0.000000E+00
6.298027E+03	1.130957E-04	0.000000E+00
6.307930E+03	1.123587E-04	0.000000E+00
6.317833E+03	1.116588E-04	0.000000E+00
6.327735E+03	1.109943E-04	0.000000E+00
6.337638E+03	1.103670E-04	0.000000E+00
6.347540E+03	1.097802E-04	0.000000E+00
6.357443E+03	1.092291E-04	0.000000E+00
6.367345E+03	1.087106E-04	0.000000E+00
6.377248E+03	1.082231E-04	0.000000E+00
6.387150E+03	1.077650E-04	0.000000E+00
6.397053E+03	1.073334E-04	0.000000E+00
6.406956E+03	1.069281E-04	0.000000E+00
6.416858E+03	1.065476E-04	0.000000E+00
6.426761E+03	1.061921E-04	0.000000E+00
6.436663E+03	1.058600E-04	0.000000E+00
6.446566E+03	1.055513E-04	0.000000E+00
6.456468E+03	1.052660E-04	0.000000E+00
6.466371E+03	1.050027E-04	0.000000E+00
6.476273E+03	1.047631E-04	0.000000E+00
6.486176E+03	1.045470E-04	0.000000E+00
6.496079E+03	1.043531E-04	0.000000E+00
6.505981E+03	1.041828E-04	0.000000E+00
6.515884E+03	1.040348E-04	0.000000E+00
6.525786E+03	1.039088E-04	0.000000E+00
6.535689E+03	1.038068E-04	0.000000E+00
6.545591E+03	1.037252E-04	0.000000E+00
6.555494E+03	1.036693E-04	0.000000E+00
6.565396E+03	1.036339E-04	0.000000E+00
6.575299E+03	1.036224E-04	0.000000E+00
6.585202E+03	1.036332E-04	0.000000E+00
6.595104E+03	1.036662E-04	0.000000E+00
6.605007E+03	1.037232E-04	0.000000E+00
6.614909E+03	1.038023E-04	0.000000E+00
6.624812E+03	1.039037E-04	0.000000E+00
6.634714E+03	1.040272E-04	0.000000E+00
6.644617E+03	1.041746E-04	0.000000E+00
6.654520E+03	1.043424E-04	0.000000E+00
6.664422E+03	1.045339E-04	0.000000E+00
6.674325E+03	1.047475E-04	0.000000E+00
6.684227E+03	1.049830E-04	0.000000E+00
6.694130E+03	1.052404E-04	0.000000E+00
6.704032E+03	1.055196E-04	0.000000E+00
6.713935E+03	1.058224E-04	0.000000E+00
6.723837E+03	1.061450E-04	0.000000E+00
6.733740E+03	1.064892E-04	0.000000E+00
6.743643E+03	1.068548E-04	0.000000E+00
6.753545E+03	1.072419E-04	0.000000E+00
6.763448E+03	1.076501E-04	0.000000E+00
6.773350E+03	1.080796E-04	0.000000E+00
6.783253E+03	1.085301E-04	0.000000E+00
6.793155E+03	1.089995E-04	0.000000E+00
6.803058E+03	1.094896E-04	0.000000E+00
6.812960E+03	1.100005E-04	0.000000E+00
6.822863E+03	1.105298E-04	0.000000E+00
6.832766E+03	1.110794E-04	0.000000E+00
6.842668E+03	1.116493E-04	0.000000E+00
6.852571E+03	1.122372E-04	0.000000E+00
6.862473E+03	1.128429E-04	0.000000E+00
6.872376E+03	1.134684E-04	0.000000E+00
6.882278E+03	1.141113E-04	0.000000E+00
6.892181E+03	1.147716E-04	0.000000E+00
6.902083E+03	1.154512E-04	0.000000E+00
6.911986E+03	1.161479E-04	0.000000E+00
6.921889E+03	1.168614E-04	0.000000E+00
6.931791E+03	1.175893E-04	0.000000E+00
6.941694E+03	1.183360E-04	0.000000E+00
6.951596E+03	1.190992E-04	0.000000E+00
6.961499E+03	1.198786E-04	0.000000E+00
6.971401E+03	1.206719E-04	0.000000E+00
6.981304E+03	1.214811E-04	0.000000E+00
6.991207E+03	1.223039E-04	0.000000E+00
7.001109E+03	1.231449E-04	0.000000E+00
7.011012E+03	1.239967E-04	0.000000E+00
7.020914E+03	1.248640E-04	0.000000E+00
7.030817E+03	1.257444E-04	0.000000E+00
7.040719E+03	1.266402E-04	0.000000E+00
7.050622E+03	1.275463E-04	0.000000E+00
7.060524E+03	1.284675E-04	0.000000E+00
7.070427E+03	1.293987E-04	0.000000E+00
7.080330E+03	1.303423E-04	0.000000E+00
7.090232E+03	1.312982E-04	0.000000E+00
7.100135E+03	1.322664E-04	0.000000E+00
7.110037E+03	1.332439E-04	0.000000E+00
7.119940E+03	1.342305E-04	0.000000E+00
7.129842E+03	1.352290E-04	0.000000E+00
7.139745E+03	1.362363E-04	0.000000E+00
7.149647E+03	1.372551E-04	0.000000E+00
7.159550E+03	1.382795E-04	0.000000E+00
7.169453E+03	1.393152E-04	0.000000E+00
7.179355E+03	1.403589E-04	0.000000E+00
7.189258E+03	1.414105E-04	0.000000E+00
7.199160E+03	1.424697E-04	0.000000E+00
7.209063E+03	1.435363E-04	0.000000E+00
7.218965E+03	1.446100E-04	0.000000E+00
7.228868E+03	1.456937E-04	0.000000E+00
7.238770E+03	1.467808E-04	0.000000E+00
7.248673E+03	1.478808E-04	0.000000E+00
7.258576E+03	1.489900E-04	0.000000E+00
7.268478E+03	1.501051E-04	0.000000E+00
7.278381E+03	1.512358E-04	0.000000E+00
7.288283E+03	1.523753E-04	0.000000E+00
7.298186E+03	1.535336E-04	0.000000E+00
7.308088E+03	1.547075E-04	0.000000E+00
7.317991E+03	1.559004E-04	0.000000E+00
7.327894E+03	1.571159E-04	0.000000E+00
7.337796E+03	1.583543E-04	0.000000E+00
7.347699E+03	1.596232E-04	0.000000E+00
7.357601E+03	1.609267E-04	0.000000E+00
7.367504E+03	1.622617E-04	0.000000E+00
7.377406E+03	1.636284E-04	0.000000E+00
7.387309E+03	1.650274E-04	0.000000E+00
7.397211E+03	1.664549E-04	0.000000E+00
7.407114E+03	1.679072E-04	0.000000E+00
7.417017E+03	1.693802E-04	0.000000E+00
7.426919E+03	1.708738E-04	0.000000E+00
7.436822E+03	1.723837E-04	0.000000E+00
7.446724E+03	1.739051E-04	0.000000E+00
7.456627E+03	1.754421E-04	0.000000E+00
7.466529E+03	1.769854E-04	0.000000E+00
7.476432E+03	1.785340E-04	0.000000E+00
7.486334E+03	1.800876E-04	0.000000E+00
7.496237E+03	1.816448E-04	0.000000E+00
7.506140E+03	1.832050E-04	0.000000E+00
7.516042E+03	1.847625E-04	0.000000E+00
7.525945E+03	1.863163E-04	0.000000E+00
7.535847E+03	1.878696E-04	0.000000E+00
7.545750E+03	1.894169E-04	0.000000E+00
7.555652E+03	1.909615E-04	0.000000E+00
7.565555E+03	1.924926E-04	0.000000E+00
7.575457E+03	1.940185E-04	0.000000E+00
7.585360E+03	1.955329E-04	0.000000E+00
7.595263E+03	1.970341E-04	0.000000E+00
7.605165E+03	1.985210E-04	0.000000E+00
7.615068E+03	1.999969E-04	0.000000E+00
7.624970E+03	2.014552E-04	0.000000E+00
7.634873E+03	2.028945E-04	0.000000E+00
7.644775E+03	2.043181E-04	0.000000E+00
7.654678E+03	2.057246E-04	0.000000E+00
7.664581E+03	2.071072E-04	0.000000E+00
7.674483E+03	2.084694E-04	0.000000E+00
7.684386E+03	2.098096E-04	0.000000E+00
