#wls	flux	fluxerr
1.584409E+03	2.146146E-03	0.000000E+00
1.624020E+03	2.224822E-03	0.000000E+00
1.663630E+03	2.302618E-03	0.000000E+00
1.703240E+03	2.378902E-03	0.000000E+00
1.742850E+03	2.453199E-03	0.000000E+00
1.782461E+03	2.524725E-03	0.000000E+00
1.822071E+03	2.592857E-03	0.000000E+00
1.861681E+03	2.656903E-03	0.000000E+00
1.901291E+03	2.715867E-03	0.000000E+00
1.940902E+03	2.768934E-03	0.000000E+00
1.980512E+03	2.815250E-03	0.000000E+00
2.020122E+03	2.853922E-03	0.000000E+00
2.059732E+03	2.883839E-03	0.000000E+00
2.099342E+03	2.904130E-03	0.000000E+00
2.138953E+03	2.913575E-03	0.000000E+00
2.178563E+03	2.911085E-03	0.000000E+00
2.218173E+03	2.895028E-03	0.000000E+00
2.257783E+03	2.864137E-03	0.000000E+00
2.297394E+03	2.819343E-03	0.000000E+00
2.337004E+03	2.762189E-03	0.000000E+00
2.376614E+03	2.693781E-03	0.000000E+00
2.416224E+03	2.614883E-03	0.000000E+00
2.455835E+03	2.526161E-03	0.000000E+00
2.495445E+03	2.428460E-03	0.000000E+00
2.535055E+03	2.322473E-03	0.000000E+00
2.574665E+03	2.209215E-03	0.000000E+00
2.614276E+03	2.089597E-03	0.000000E+00
2.653886E+03	1.964532E-03	0.000000E+00
2.693496E+03	1.835263E-03	0.000000E+00
2.733106E+03	1.702968E-03	0.000000E+00
2.772716E+03	1.568947E-03	0.000000E+00
2.812327E+03	1.434562E-03	0.000000E+00
2.851937E+03	1.301318E-03	0.000000E+00
2.891547E+03	1.170972E-03	0.000000E+00
2.931157E+03	1.045456E-03	0.000000E+00
2.970768E+03	9.264534E-04	0.000000E+00
2.980670E+03	8.978759E-04	0.000000E+00
2.990573E+03	8.698385E-04	0.000000E+00
3.000475E+03	8.423084E-04	0.000000E+00
3.010378E+03	8.153147E-04	0.000000E+00
3.020280E+03	7.889007E-04	0.000000E+00
3.030183E+03	7.630362E-04	0.000000E+00
3.040086E+03	7.377606E-04	0.000000E+00
3.049988E+03	7.130767E-04	0.000000E+00
3.059891E+03	6.889874E-04	0.000000E+00
3.069793E+03	6.654948E-04	0.000000E+00
3.079696E+03	6.426270E-04	0.000000E+00
3.089598E+03	6.203695E-04	0.000000E+00
3.099501E+03	5.987330E-04	0.000000E+00
3.109403E+03	5.777147E-04	0.000000E+00
3.119306E+03	5.573110E-04	0.000000E+00
3.129209E+03	5.375283E-04	0.000000E+00
3.139111E+03	5.183698E-04	0.000000E+00
3.149014E+03	4.998093E-04	0.000000E+00
3.158916E+03	4.818674E-04	0.000000E+00
3.168819E+03	4.645254E-04	0.000000E+00
3.178721E+03	4.477817E-04	0.000000E+00
3.188624E+03	4.316252E-04	0.000000E+00
3.198526E+03	4.160376E-04	0.000000E+00
3.208429E+03	4.010284E-04	0.000000E+00
3.218332E+03	3.865642E-04	0.000000E+00
3.228234E+03	3.726518E-04	0.000000E+00
3.238137E+03	3.592765E-04	0.000000E+00
3.248039E+03	3.464130E-04	0.000000E+00
3.257942E+03	3.340640E-04	0.000000E+00
3.267844E+03	3.222037E-04	0.000000E+00
3.277747E+03	3.108232E-04	0.000000E+00
3.287650E+03	2.999077E-04	0.000000E+00
3.297552E+03	2.894468E-04	0.000000E+00
3.307455E+03	2.794210E-04	0.000000E+00
3.317357E+03	2.698165E-04	0.000000E+00
3.327260E+03	2.606189E-04	0.000000E+00
3.337162E+03	2.518176E-04	0.000000E+00
3.347065E+03	2.433951E-04	0.000000E+00
3.356967E+03	2.353378E-04	0.000000E+00
3.366870E+03	2.276327E-04	0.000000E+00
3.376773E+03	2.202639E-04	0.000000E+00
3.386675E+03	2.132191E-04	0.000000E+00
3.396578E+03	2.064863E-04	0.000000E+00
3.406480E+03	2.000514E-04	0.000000E+00
3.416383E+03	1.939033E-04	0.000000E+00
3.426285E+03	1.880290E-04	0.000000E+00
3.436188E+03	1.824164E-04	0.000000E+00
3.446090E+03	1.770536E-04	0.000000E+00
3.455993E+03	1.719275E-04	0.000000E+00
3.465896E+03	1.670298E-04	0.000000E+00
3.475798E+03	1.623487E-04	0.000000E+00
3.485701E+03	1.578715E-04	0.000000E+00
3.495603E+03	1.535849E-04	0.000000E+00
3.505506E+03	1.494814E-04	0.000000E+00
3.515408E+03	1.455493E-04	0.000000E+00
3.525311E+03	1.417751E-04	0.000000E+00
3.535213E+03	1.381506E-04	0.000000E+00
3.545116E+03	1.346669E-04	0.000000E+00
3.555019E+03	1.313145E-04	0.000000E+00
3.564921E+03	1.280834E-04	0.000000E+00
3.574824E+03	1.249692E-04	0.000000E+00
3.584726E+03	1.219655E-04	0.000000E+00
3.594629E+03	1.190660E-04	0.000000E+00
3.604531E+03	1.162701E-04	0.000000E+00
3.614434E+03	1.135740E-04	0.000000E+00
3.624337E+03	1.109747E-04	0.000000E+00
3.634239E+03	1.084701E-04	0.000000E+00
3.644142E+03	1.060582E-04	0.000000E+00
3.654044E+03	1.037357E-04	0.000000E+00
3.663947E+03	1.015020E-04	0.000000E+00
3.673849E+03	9.935298E-05	0.000000E+00
3.683752E+03	9.728691E-05	0.000000E+00
3.693654E+03	9.530289E-05	0.000000E+00
3.703557E+03	9.339589E-05	0.000000E+00
3.713460E+03	9.156644E-05	0.000000E+00
3.723362E+03	8.980959E-05	0.000000E+00
3.733265E+03	8.812501E-05	0.000000E+00
3.743167E+03	8.651005E-05	0.000000E+00
3.753070E+03	8.496213E-05	0.000000E+00
3.762972E+03	8.347939E-05	0.000000E+00
3.772875E+03	8.205933E-05	0.000000E+00
3.782777E+03	8.070016E-05	0.000000E+00
3.792680E+03	7.940011E-05	0.000000E+00
3.802583E+03	7.815681E-05	0.000000E+00
3.812485E+03	7.696858E-05	0.000000E+00
3.822388E+03	7.583378E-05	0.000000E+00
3.832290E+03	7.475021E-05	0.000000E+00
3.842193E+03	7.371633E-05	0.000000E+00
3.852095E+03	7.273066E-05	0.000000E+00
3.861998E+03	7.179116E-05	0.000000E+00
3.871900E+03	7.089648E-05	0.000000E+00
3.881803E+03	7.004471E-05	0.000000E+00
3.891706E+03	6.923508E-05	0.000000E+00
3.901608E+03	6.846584E-05	0.000000E+00
3.911511E+03	6.773577E-05	0.000000E+00
3.921413E+03	6.704273E-05	0.000000E+00
3.931316E+03	6.638659E-05	0.000000E+00
3.941218E+03	6.576531E-05	0.000000E+00
3.951121E+03	6.517788E-05	0.000000E+00
3.961024E+03	6.462284E-05	0.000000E+00
3.970926E+03	6.409976E-05	0.000000E+00
3.980829E+03	6.360679E-05	0.000000E+00
3.990731E+03	6.314356E-05	0.000000E+00
4.000634E+03	6.270832E-05	0.000000E+00
4.010536E+03	6.230079E-05	0.000000E+00
4.020439E+03	6.191929E-05	0.000000E+00
4.030341E+03	6.156316E-05	0.000000E+00
4.040244E+03	6.123173E-05	0.000000E+00
4.050147E+03	6.092441E-05	0.000000E+00
4.060049E+03	6.063964E-05	0.000000E+00
4.069952E+03	6.037694E-05	0.000000E+00
4.079854E+03	6.013530E-05	0.000000E+00
4.089757E+03	5.991425E-05	0.000000E+00
4.099659E+03	5.971335E-05	0.000000E+00
4.109562E+03	5.953124E-05	0.000000E+00
4.119464E+03	5.936800E-05	0.000000E+00
4.129367E+03	5.922238E-05	0.000000E+00
4.139270E+03	5.909400E-05	0.000000E+00
4.149172E+03	5.898259E-05	0.000000E+00
4.159075E+03	5.888693E-05	0.000000E+00
4.168977E+03	5.880678E-05	0.000000E+00
4.178880E+03	5.874146E-05	0.000000E+00
4.188782E+03	5.869119E-05	0.000000E+00
4.198685E+03	5.865443E-05	0.000000E+00
4.208587E+03	5.863148E-05	0.000000E+00
4.218490E+03	5.862125E-05	0.000000E+00
4.228393E+03	5.862410E-05	0.000000E+00
4.238295E+03	5.863853E-05	0.000000E+00
4.248198E+03	5.866447E-05	0.000000E+00
4.258100E+03	5.870182E-05	0.000000E+00
4.268003E+03	5.874917E-05	0.000000E+00
4.277905E+03	5.880690E-05	0.000000E+00
4.287808E+03	5.887316E-05	0.000000E+00
4.297711E+03	5.894837E-05	0.000000E+00
4.307613E+03	5.903022E-05	0.000000E+00
4.317516E+03	5.911865E-05	0.000000E+00
4.327418E+03	5.921510E-05	0.000000E+00
4.337321E+03	5.931957E-05	0.000000E+00
4.347223E+03	5.943259E-05	0.000000E+00
4.357126E+03	5.955423E-05	0.000000E+00
4.367028E+03	5.968362E-05	0.000000E+00
4.376931E+03	5.982187E-05	0.000000E+00
4.386834E+03	5.996808E-05	0.000000E+00
4.396736E+03	6.012246E-05	0.000000E+00
4.406639E+03	6.028466E-05	0.000000E+00
4.416541E+03	6.045489E-05	0.000000E+00
4.426444E+03	6.063238E-05	0.000000E+00
4.436346E+03	6.081784E-05	0.000000E+00
4.446249E+03	6.101053E-05	0.000000E+00
4.456151E+03	6.121024E-05	0.000000E+00
4.466054E+03	6.141776E-05	0.000000E+00
4.475957E+03	6.163189E-05	0.000000E+00
4.485859E+03	6.185295E-05	0.000000E+00
4.495762E+03	6.208132E-05	0.000000E+00
4.505664E+03	6.231636E-05	0.000000E+00
4.515567E+03	6.255846E-05	0.000000E+00
4.525469E+03	6.280701E-05	0.000000E+00
4.535372E+03	6.306244E-05	0.000000E+00
4.545274E+03	6.332470E-05	0.000000E+00
4.555177E+03	6.359373E-05	0.000000E+00
4.565080E+03	6.386897E-05	0.000000E+00
4.574982E+03	6.415145E-05	0.000000E+00
4.584885E+03	6.444012E-05	0.000000E+00
4.594787E+03	6.473547E-05	0.000000E+00
4.604690E+03	6.503755E-05	0.000000E+00
4.614592E+03	6.534579E-05	0.000000E+00
4.624495E+03	6.566137E-05	0.000000E+00
4.634398E+03	6.598317E-05	0.000000E+00
4.644300E+03	6.631181E-05	0.000000E+00
4.654203E+03	6.664850E-05	0.000000E+00
4.664105E+03	6.699274E-05	0.000000E+00
4.674008E+03	6.734520E-05	0.000000E+00
4.683910E+03	6.770658E-05	0.000000E+00
4.693813E+03	6.807698E-05	0.000000E+00
4.703715E+03	6.845653E-05	0.000000E+00
4.713618E+03	6.884661E-05	0.000000E+00
4.723521E+03	6.924614E-05	0.000000E+00
4.733423E+03	6.965650E-05	0.000000E+00
4.743326E+03	7.007787E-05	0.000000E+00
4.753228E+03	7.050984E-05	0.000000E+00
4.763131E+03	7.095382E-05	0.000000E+00
4.773033E+03	7.140943E-05	0.000000E+00
4.782936E+03	7.187685E-05	0.000000E+00
4.792838E+03	7.235629E-05	0.000000E+00
4.802741E+03	7.284801E-05	0.000000E+00
4.812644E+03	7.335353E-05	0.000000E+00
4.822546E+03	7.387110E-05	0.000000E+00
4.832449E+03	7.440232E-05	0.000000E+00
4.842351E+03	7.494677E-05	0.000000E+00
4.852254E+03	7.550534E-05	0.000000E+00
4.862156E+03	7.607763E-05	0.000000E+00
4.872059E+03	7.666388E-05	0.000000E+00
4.881961E+03	7.726506E-05	0.000000E+00
4.891864E+03	7.787997E-05	0.000000E+00
4.901767E+03	7.850959E-05	0.000000E+00
4.911669E+03	7.915415E-05	0.000000E+00
4.921572E+03	7.981391E-05	0.000000E+00
4.931474E+03	8.048835E-05	0.000000E+00
4.941377E+03	8.117768E-05	0.000000E+00
4.951279E+03	8.188290E-05	0.000000E+00
4.961182E+03	8.260265E-05	0.000000E+00
4.971085E+03	8.333871E-05	0.000000E+00
4.980987E+03	8.408968E-05	0.000000E+00
4.990890E+03	8.485575E-05	0.000000E+00
5.000792E+03	8.563788E-05	0.000000E+00
5.010695E+03	8.643541E-05	0.000000E+00
5.020597E+03	8.724846E-05	0.000000E+00
5.030500E+03	8.807636E-05	0.000000E+00
5.040402E+03	8.892005E-05	0.000000E+00
5.050305E+03	8.977961E-05	0.000000E+00
5.060208E+03	9.065345E-05	0.000000E+00
5.070110E+03	9.154246E-05	0.000000E+00
5.080013E+03	9.244672E-05	0.000000E+00
5.089915E+03	9.336627E-05	0.000000E+00
5.099818E+03	9.430025E-05	0.000000E+00
5.109720E+03	9.524865E-05	0.000000E+00
5.119623E+03	9.621053E-05	0.000000E+00
5.129525E+03	9.718773E-05	0.000000E+00
5.139428E+03	9.817834E-05	0.000000E+00
5.149331E+03	9.918227E-05	0.000000E+00
5.159233E+03	1.001994E-04	0.000000E+00
5.169136E+03	1.012307E-04	0.000000E+00
5.179038E+03	1.022739E-04	0.000000E+00
5.188941E+03	1.033290E-04	0.000000E+00
5.198843E+03	1.043976E-04	0.000000E+00
5.208746E+03	1.054767E-04	0.000000E+00
5.218648E+03	1.065679E-04	0.000000E+00
5.228551E+03	1.076699E-04	0.000000E+00
5.238454E+03	1.087823E-04	0.000000E+00
5.248356E+03	1.099060E-04	0.000000E+00
5.258259E+03	1.110382E-04	0.000000E+00
5.268161E+03	1.121797E-04	0.000000E+00
5.278064E+03	1.133299E-04	0.000000E+00
5.287966E+03	1.144882E-04	0.000000E+00
5.297869E+03	1.156553E-04	0.000000E+00
5.307772E+03	1.168280E-04	0.000000E+00
5.317674E+03	1.180069E-04	0.000000E+00
5.327577E+03	1.191912E-04	0.000000E+00
5.337479E+03	1.203789E-04	0.000000E+00
5.347382E+03	1.215713E-04	0.000000E+00
5.357284E+03	1.227664E-04	0.000000E+00
5.367187E+03	1.239618E-04	0.000000E+00
5.377089E+03	1.251565E-04	0.000000E+00
5.386992E+03	1.263505E-04	0.000000E+00
5.396895E+03	1.275400E-04	0.000000E+00
5.406797E+03	1.287248E-04	0.000000E+00
5.416700E+03	1.299036E-04	0.000000E+00
5.426602E+03	1.310722E-04	0.000000E+00
5.436505E+03	1.322290E-04	0.000000E+00
5.446407E+03	1.333737E-04	0.000000E+00
5.456310E+03	1.345031E-04	0.000000E+00
5.466212E+03	1.356142E-04	0.000000E+00
5.476115E+03	1.367036E-04	0.000000E+00
5.486018E+03	1.377721E-04	0.000000E+00
5.495920E+03	1.388136E-04	0.000000E+00
5.505823E+03	1.398274E-04	0.000000E+00
5.515725E+03	1.408101E-04	0.000000E+00
5.525628E+03	1.417595E-04	0.000000E+00
5.535530E+03	1.426735E-04	0.000000E+00
5.545433E+03	1.435487E-04	0.000000E+00
5.555335E+03	1.443843E-04	0.000000E+00
5.565238E+03	1.451770E-04	0.000000E+00
5.575141E+03	1.459231E-04	0.000000E+00
5.585043E+03	1.466237E-04	0.000000E+00
5.594946E+03	1.472756E-04	0.000000E+00
5.604848E+03	1.478754E-04	0.000000E+00
5.614751E+03	1.484231E-04	0.000000E+00
5.624653E+03	1.489185E-04	0.000000E+00
5.634556E+03	1.493573E-04	0.000000E+00
5.644459E+03	1.497398E-04	0.000000E+00
5.654361E+03	1.500663E-04	0.000000E+00
5.664264E+03	1.503344E-04	0.000000E+00
5.674166E+03	1.505449E-04	0.000000E+00
5.684069E+03	1.506955E-04	0.000000E+00
5.693971E+03	1.507875E-04	0.000000E+00
5.703874E+03	1.508206E-04	0.000000E+00
5.713776E+03	1.507962E-04	0.000000E+00
5.723679E+03	1.507114E-04	0.000000E+00
5.733582E+03	1.505712E-04	0.000000E+00
5.743484E+03	1.503728E-04	0.000000E+00
5.753387E+03	1.501186E-04	0.000000E+00
5.763289E+03	1.498091E-04	0.000000E+00
5.773192E+03	1.494456E-04	0.000000E+00
5.783094E+03	1.490306E-04	0.000000E+00
5.792997E+03	1.485656E-04	0.000000E+00
5.802899E+03	1.480517E-04	0.000000E+00
5.812802E+03	1.474891E-04	0.000000E+00
5.822705E+03	1.468825E-04	0.000000E+00
5.832607E+03	1.462321E-04	0.000000E+00
5.842510E+03	1.455414E-04	0.000000E+00
5.852412E+03	1.448107E-04	0.000000E+00
5.862315E+03	1.440435E-04	0.000000E+00
5.872217E+03	1.432420E-04	0.000000E+00
5.882120E+03	1.424083E-04	0.000000E+00
5.892022E+03	1.415444E-04	0.000000E+00
5.901925E+03	1.406524E-04	0.000000E+00
5.911828E+03	1.397362E-04	0.000000E+00
5.921730E+03	1.387946E-04	0.000000E+00
5.931633E+03	1.378329E-04	0.000000E+00
5.941535E+03	1.368516E-04	0.000000E+00
5.951438E+03	1.358527E-04	0.000000E+00
5.961340E+03	1.348399E-04	0.000000E+00
5.971243E+03	1.338119E-04	0.000000E+00
5.981146E+03	1.327737E-04	0.000000E+00
5.991048E+03	1.317240E-04	0.000000E+00
6.000951E+03	1.306661E-04	0.000000E+00
6.010853E+03	1.296019E-04	0.000000E+00
6.020756E+03	1.285312E-04	0.000000E+00
6.030658E+03	1.274556E-04	0.000000E+00
6.040561E+03	1.263767E-04	0.000000E+00
6.050463E+03	1.252959E-04	0.000000E+00
6.060366E+03	1.242144E-04	0.000000E+00
6.070269E+03	1.231336E-04	0.000000E+00
6.080171E+03	1.220546E-04	0.000000E+00
6.090074E+03	1.209786E-04	0.000000E+00
6.099976E+03	1.199080E-04	0.000000E+00
6.109879E+03	1.188455E-04	0.000000E+00
6.119781E+03	1.177933E-04	0.000000E+00
6.129684E+03	1.167523E-04	0.000000E+00
6.139586E+03	1.157232E-04	0.000000E+00
6.149489E+03	1.147051E-04	0.000000E+00
6.159392E+03	1.136987E-04	0.000000E+00
6.169294E+03	1.127046E-04	0.000000E+00
6.179197E+03	1.117216E-04	0.000000E+00
6.189099E+03	1.107519E-04	0.000000E+00
6.199002E+03	1.097988E-04	0.000000E+00
6.208904E+03	1.088612E-04	0.000000E+00
6.218807E+03	1.079408E-04	0.000000E+00
6.228709E+03	1.070409E-04	0.000000E+00
6.238612E+03	1.061602E-04	0.000000E+00
6.248515E+03	1.053033E-04	0.000000E+00
6.258417E+03	1.044719E-04	0.000000E+00
6.268320E+03	1.036645E-04	0.000000E+00
6.278222E+03	1.028857E-04	0.000000E+00
6.288125E+03	1.021369E-04	0.000000E+00
6.298027E+03	1.014183E-04	0.000000E+00
6.307930E+03	1.007313E-04	0.000000E+00
6.317833E+03	1.000803E-04	0.000000E+00
6.327735E+03	9.946392E-05	0.000000E+00
6.337638E+03	9.888357E-05	0.000000E+00
6.347540E+03	9.834221E-05	0.000000E+00
6.357443E+03	9.783549E-05	0.000000E+00
6.367345E+03	9.736053E-05	0.000000E+00
6.377248E+03	9.691588E-05	0.000000E+00
6.387150E+03	9.650012E-05	0.000000E+00
6.397053E+03	9.611037E-05	0.000000E+00
6.406956E+03	9.574666E-05	0.000000E+00
6.416858E+03	9.540753E-05	0.000000E+00
6.426761E+03	9.509303E-05	0.000000E+00
6.436663E+03	9.480170E-05	0.000000E+00
6.446566E+03	9.453357E-05	0.000000E+00
6.456468E+03	9.428865E-05	0.000000E+00
6.466371E+03	9.406545E-05	0.000000E+00
6.476273E+03	9.386550E-05	0.000000E+00
6.486176E+03	9.368878E-05	0.000000E+00
6.496079E+03	9.353384E-05	0.000000E+00
6.505981E+03	9.340214E-05	0.000000E+00
6.515884E+03	9.329221E-05	0.000000E+00
6.525786E+03	9.320405E-05	0.000000E+00
6.535689E+03	9.313916E-05	0.000000E+00
6.545591E+03	9.309451E-05	0.000000E+00
6.555494E+03	9.307464E-05	0.000000E+00
6.565396E+03	9.307500E-05	0.000000E+00
6.575299E+03	9.309863E-05	0.000000E+00
6.585202E+03	9.314398E-05	0.000000E+00
6.595104E+03	9.321106E-05	0.000000E+00
6.605007E+03	9.330138E-05	0.000000E+00
6.614909E+03	9.341341E-05	0.000000E+00
6.624812E+03	9.354710E-05	0.000000E+00
6.634714E+03	9.370243E-05	0.000000E+00
6.644617E+03	9.388101E-05	0.000000E+00
6.654520E+03	9.407956E-05	0.000000E+00
6.664422E+03	9.430132E-05	0.000000E+00
6.674325E+03	9.454464E-05	0.000000E+00
6.684227E+03	9.480947E-05	0.000000E+00
6.694130E+03	9.509579E-05	0.000000E+00
6.704032E+03	9.540356E-05	0.000000E+00
6.713935E+03	9.573442E-05	0.000000E+00
6.723837E+03	9.608495E-05	0.000000E+00
6.733740E+03	9.645680E-05	0.000000E+00
6.743643E+03	9.684991E-05	0.000000E+00
6.753545E+03	9.726423E-05	0.000000E+00
6.763448E+03	9.769971E-05	0.000000E+00
6.773350E+03	9.815627E-05	0.000000E+00
6.783253E+03	9.863388E-05	0.000000E+00
6.793155E+03	9.913065E-05	0.000000E+00
6.803058E+03	9.964831E-05	0.000000E+00
6.812960E+03	1.001868E-04	0.000000E+00
6.822863E+03	1.007441E-04	0.000000E+00
6.832766E+03	1.013221E-04	0.000000E+00
6.842668E+03	1.019207E-04	0.000000E+00
6.852571E+03	1.025379E-04	0.000000E+00
6.862473E+03	1.031735E-04	0.000000E+00
6.872376E+03	1.038295E-04	0.000000E+00
6.882278E+03	1.045037E-04	0.000000E+00
6.892181E+03	1.051961E-04	0.000000E+00
6.902083E+03	1.059085E-04	0.000000E+00
6.911986E+03	1.066389E-04	0.000000E+00
6.921889E+03	1.073872E-04	0.000000E+00
6.931791E+03	1.081511E-04	0.000000E+00
6.941694E+03	1.089347E-04	0.000000E+00
6.951596E+03	1.097358E-04	0.000000E+00
6.961499E+03	1.105544E-04	0.000000E+00
6.971401E+03	1.113882E-04	0.000000E+00
6.981304E+03	1.122393E-04	0.000000E+00
6.991207E+03	1.131053E-04	0.000000E+00
7.001109E+03	1.139906E-04	0.000000E+00
7.011012E+03	1.148884E-04	0.000000E+00
7.020914E+03	1.158030E-04	0.000000E+00
7.030817E+03	1.167322E-04	0.000000E+00
7.040719E+03	1.176781E-04	0.000000E+00
7.050622E+03	1.186360E-04	0.000000E+00
7.060524E+03	1.196104E-04	0.000000E+00
7.070427E+03	1.205964E-04	0.000000E+00
7.080330E+03	1.215964E-04	0.000000E+00
7.090232E+03	1.226102E-04	0.000000E+00
7.100135E+03	1.236377E-04	0.000000E+00
7.110037E+03	1.246763E-04	0.000000E+00
7.119940E+03	1.257256E-04	0.000000E+00
7.129842E+03	1.267882E-04	0.000000E+00
7.139745E+03	1.278613E-04	0.000000E+00
7.149647E+03	1.289474E-04	0.000000E+00
7.159550E+03	1.300408E-04	0.000000E+00
7.169453E+03	1.311469E-04	0.000000E+00
7.179355E+03	1.322626E-04	0.000000E+00
7.189258E+03	1.333877E-04	0.000000E+00
7.199160E+03	1.345219E-04	0.000000E+00
7.209063E+03	1.356650E-04	0.000000E+00
7.218965E+03	1.368167E-04	0.000000E+00
7.228868E+03	1.379798E-04	0.000000E+00
7.238770E+03	1.391478E-04	0.000000E+00
7.248673E+03	1.403297E-04	0.000000E+00
7.258576E+03	1.415223E-04	0.000000E+00
7.268478E+03	1.427220E-04	0.000000E+00
7.278381E+03	1.439382E-04	0.000000E+00
7.288283E+03	1.451644E-04	0.000000E+00
7.298186E+03	1.464103E-04	0.000000E+00
7.308088E+03	1.476725E-04	0.000000E+00
7.317991E+03	1.489544E-04	0.000000E+00
7.327894E+03	1.502596E-04	0.000000E+00
7.337796E+03	1.515883E-04	0.000000E+00
7.347699E+03	1.529477E-04	0.000000E+00
7.357601E+03	1.543420E-04	0.000000E+00
7.367504E+03	1.557682E-04	0.000000E+00
7.377406E+03	1.572265E-04	0.000000E+00
7.387309E+03	1.587176E-04	0.000000E+00
7.397211E+03	1.602381E-04	0.000000E+00
7.407114E+03	1.617842E-04	0.000000E+00
7.417017E+03	1.633522E-04	0.000000E+00
7.426919E+03	1.649421E-04	0.000000E+00
7.436822E+03	1.665496E-04	0.000000E+00
7.446724E+03	1.681705E-04	0.000000E+00
7.456627E+03	1.698084E-04	0.000000E+00
7.466529E+03	1.714546E-04	0.000000E+00
7.476432E+03	1.731083E-04	0.000000E+00
7.486334E+03	1.747686E-04	0.000000E+00
7.496237E+03	1.764351E-04	0.000000E+00
7.506140E+03	1.781069E-04	0.000000E+00
7.516042E+03	1.797785E-04	0.000000E+00
7.525945E+03	1.814488E-04	0.000000E+00
7.535847E+03	1.831212E-04	0.000000E+00
7.545750E+03	1.847901E-04	0.000000E+00
7.555652E+03	1.864592E-04	0.000000E+00
7.565555E+03	1.881175E-04	0.000000E+00
7.575457E+03	1.897732E-04	0.000000E+00
7.585360E+03	1.914203E-04	0.000000E+00
7.595263E+03	1.930572E-04	0.000000E+00
7.605165E+03	1.946826E-04	0.000000E+00
7.615068E+03	1.962997E-04	0.000000E+00
7.624970E+03	1.979022E-04	0.000000E+00
7.634873E+03	1.994883E-04	0.000000E+00
7.644775E+03	2.010616E-04	0.000000E+00
7.654678E+03	2.026205E-04	0.000000E+00
7.664581E+03	2.041582E-04	0.000000E+00
7.674483E+03	2.056780E-04	0.000000E+00
7.684386E+03	2.071783E-04	0.000000E+00
