#wls	flux	fluxerr
1.584409E+03	1.877401E-03	0.000000E+00
1.624020E+03	1.944590E-03	0.000000E+00
1.663630E+03	2.010938E-03	0.000000E+00
1.703240E+03	2.076168E-03	0.000000E+00
1.742850E+03	2.139504E-03	0.000000E+00
1.782461E+03	2.200980E-03	0.000000E+00
1.822071E+03	2.259490E-03	0.000000E+00
1.861681E+03	2.314732E-03	0.000000E+00
1.901291E+03	2.365920E-03	0.000000E+00
1.940902E+03	2.412431E-03	0.000000E+00
1.980512E+03	2.453397E-03	0.000000E+00
2.020122E+03	2.488136E-03	0.000000E+00
2.059732E+03	2.515750E-03	0.000000E+00
2.099342E+03	2.535556E-03	0.000000E+00
2.138953E+03	2.546527E-03	0.000000E+00
2.178563E+03	2.548088E-03	0.000000E+00
2.218173E+03	2.539560E-03	0.000000E+00
2.257783E+03	2.520874E-03	0.000000E+00
2.297394E+03	2.492150E-03	0.000000E+00
2.337004E+03	2.453404E-03	0.000000E+00
2.376614E+03	2.405129E-03	0.000000E+00
2.416224E+03	2.347681E-03	0.000000E+00
2.455835E+03	2.281464E-03	0.000000E+00
2.495445E+03	2.206936E-03	0.000000E+00
2.535055E+03	2.124539E-03	0.000000E+00
2.574665E+03	2.035018E-03	0.000000E+00
2.614276E+03	1.939029E-03	0.000000E+00
2.653886E+03	1.837305E-03	0.000000E+00
2.693496E+03	1.730818E-03	0.000000E+00
2.733106E+03	1.620499E-03	0.000000E+00
2.772716E+03	1.507427E-03	0.000000E+00
2.812327E+03	1.392770E-03	0.000000E+00
2.851937E+03	1.277828E-03	0.000000E+00
2.891547E+03	1.164303E-03	0.000000E+00
2.931157E+03	1.053985E-03	0.000000E+00
2.970768E+03	9.485543E-04	0.000000E+00
2.980670E+03	9.231151E-04	0.000000E+00
2.990573E+03	8.981033E-04	0.000000E+00
3.000475E+03	8.734824E-04	0.000000E+00
3.010378E+03	8.493208E-04	0.000000E+00
3.020280E+03	8.256016E-04	0.000000E+00
3.030183E+03	8.023291E-04	0.000000E+00
3.040086E+03	7.795247E-04	0.000000E+00
3.049988E+03	7.572065E-04	0.000000E+00
3.059891E+03	7.353585E-04	0.000000E+00
3.069793E+03	7.140123E-04	0.000000E+00
3.079696E+03	6.931508E-04	0.000000E+00
3.089598E+03	6.727874E-04	0.000000E+00
3.099501E+03	6.529324E-04	0.000000E+00
3.109403E+03	6.335810E-04	0.000000E+00
3.119306E+03	6.147170E-04	0.000000E+00
3.129209E+03	5.963717E-04	0.000000E+00
3.139111E+03	5.785153E-04	0.000000E+00
3.149014E+03	5.611640E-04	0.000000E+00
3.158916E+03	5.443099E-04	0.000000E+00
3.168819E+03	5.279453E-04	0.000000E+00
3.178721E+03	5.120625E-04	0.000000E+00
3.188624E+03	4.966709E-04	0.000000E+00
3.198526E+03	4.817520E-04	0.000000E+00
3.208429E+03	4.672969E-04	0.000000E+00
3.218332E+03	4.533043E-04	0.000000E+00
3.228234E+03	4.397712E-04	0.000000E+00
3.238137E+03	4.266799E-04	0.000000E+00
3.248039E+03	4.140273E-04	0.000000E+00
3.257942E+03	4.018027E-04	0.000000E+00
3.267844E+03	3.900013E-04	0.000000E+00
3.277747E+03	3.786063E-04	0.000000E+00
3.287650E+03	3.676075E-04	0.000000E+00
3.297552E+03	3.570051E-04	0.000000E+00
3.307455E+03	3.467778E-04	0.000000E+00
3.317357E+03	3.369203E-04	0.000000E+00
3.327260E+03	3.274268E-04	0.000000E+00
3.337162E+03	3.182778E-04	0.000000E+00
3.347065E+03	3.094722E-04	0.000000E+00
3.356967E+03	3.009916E-04	0.000000E+00
3.366870E+03	2.928266E-04	0.000000E+00
3.376773E+03	2.849722E-04	0.000000E+00
3.386675E+03	2.774151E-04	0.000000E+00
3.396578E+03	2.701471E-04	0.000000E+00
3.406480E+03	2.631526E-04	0.000000E+00
3.416383E+03	2.564275E-04	0.000000E+00
3.426285E+03	2.499606E-04	0.000000E+00
3.436188E+03	2.437391E-04	0.000000E+00
3.446090E+03	2.377561E-04	0.000000E+00
3.455993E+03	2.319997E-04	0.000000E+00
3.465896E+03	2.264618E-04	0.000000E+00
3.475798E+03	2.211341E-04	0.000000E+00
3.485701E+03	2.160045E-04	0.000000E+00
3.495603E+03	2.110615E-04	0.000000E+00
3.505506E+03	2.062930E-04	0.000000E+00
3.515408E+03	2.016855E-04	0.000000E+00
3.525311E+03	1.972268E-04	0.000000E+00
3.535213E+03	1.929064E-04	0.000000E+00
3.545116E+03	1.887125E-04	0.000000E+00
3.555019E+03	1.846345E-04	0.000000E+00
3.564921E+03	1.806664E-04	0.000000E+00
3.574824E+03	1.767976E-04	0.000000E+00
3.584726E+03	1.730233E-04	0.000000E+00
3.594629E+03	1.693451E-04	0.000000E+00
3.604531E+03	1.657611E-04	0.000000E+00
3.614434E+03	1.622723E-04	0.000000E+00
3.624337E+03	1.588790E-04	0.000000E+00
3.634239E+03	1.555825E-04	0.000000E+00
3.644142E+03	1.523823E-04	0.000000E+00
3.654044E+03	1.492764E-04	0.000000E+00
3.663947E+03	1.462674E-04	0.000000E+00
3.673849E+03	1.433514E-04	0.000000E+00
3.683752E+03	1.405292E-04	0.000000E+00
3.693654E+03	1.377991E-04	0.000000E+00
3.703557E+03	1.351600E-04	0.000000E+00
3.713460E+03	1.326099E-04	0.000000E+00
3.723362E+03	1.301464E-04	0.000000E+00
3.733265E+03	1.277694E-04	0.000000E+00
3.743167E+03	1.254765E-04	0.000000E+00
3.753070E+03	1.232659E-04	0.000000E+00
3.762972E+03	1.211344E-04	0.000000E+00
3.772875E+03	1.190822E-04	0.000000E+00
3.782777E+03	1.171057E-04	0.000000E+00
3.792680E+03	1.152043E-04	0.000000E+00
3.802583E+03	1.133743E-04	0.000000E+00
3.812485E+03	1.116161E-04	0.000000E+00
3.822388E+03	1.099251E-04	0.000000E+00
3.832290E+03	1.083016E-04	0.000000E+00
3.842193E+03	1.067429E-04	0.000000E+00
3.852095E+03	1.052467E-04	0.000000E+00
3.861998E+03	1.038114E-04	0.000000E+00
3.871900E+03	1.024354E-04	0.000000E+00
3.881803E+03	1.011172E-04	0.000000E+00
3.891706E+03	9.985450E-05	0.000000E+00
3.901608E+03	9.864515E-05	0.000000E+00
3.911511E+03	9.748850E-05	0.000000E+00
3.921413E+03	9.638318E-05	0.000000E+00
3.931316E+03	9.532568E-05	0.000000E+00
3.941218E+03	9.431624E-05	0.000000E+00
3.951121E+03	9.335290E-05	0.000000E+00
3.961024E+03	9.243449E-05	0.000000E+00
3.970926E+03	9.155849E-05	0.000000E+00
3.980829E+03	9.072386E-05	0.000000E+00
3.990731E+03	8.993027E-05	0.000000E+00
4.000634E+03	8.917535E-05	0.000000E+00
4.010536E+03	8.845817E-05	0.000000E+00
4.020439E+03	8.777721E-05	0.000000E+00
4.030341E+03	8.713162E-05	0.000000E+00
4.040244E+03	8.651994E-05	0.000000E+00
4.050147E+03	8.594140E-05	0.000000E+00
4.060049E+03	8.539465E-05	0.000000E+00
4.069952E+03	8.487837E-05	0.000000E+00
4.079854E+03	8.439191E-05	0.000000E+00
4.089757E+03	8.393469E-05	0.000000E+00
4.099659E+03	8.350486E-05	0.000000E+00
4.109562E+03	8.310253E-05	0.000000E+00
4.119464E+03	8.272593E-05	0.000000E+00
4.129367E+03	8.237462E-05	0.000000E+00
4.139270E+03	8.204818E-05	0.000000E+00
4.149172E+03	8.174557E-05	0.000000E+00
4.159075E+03	8.146579E-05	0.000000E+00
4.168977E+03	8.120853E-05	0.000000E+00
4.178880E+03	8.097286E-05	0.000000E+00
4.188782E+03	8.075848E-05	0.000000E+00
4.198685E+03	8.056518E-05	0.000000E+00
4.208587E+03	8.039212E-05	0.000000E+00
4.218490E+03	8.023781E-05	0.000000E+00
4.228393E+03	8.010340E-05	0.000000E+00
4.238295E+03	7.998746E-05	0.000000E+00
4.248198E+03	7.988988E-05	0.000000E+00
4.258100E+03	7.980935E-05	0.000000E+00
4.268003E+03	7.974642E-05	0.000000E+00
4.277905E+03	7.970042E-05	0.000000E+00
4.287808E+03	7.967074E-05	0.000000E+00
4.297711E+03	7.965736E-05	0.000000E+00
4.307613E+03	7.965971E-05	0.000000E+00
4.317516E+03	7.967910E-05	0.000000E+00
4.327418E+03	7.971437E-05	0.000000E+00
4.337321E+03	7.976563E-05	0.000000E+00
4.347223E+03	7.983302E-05	0.000000E+00
4.357126E+03	7.991544E-05	0.000000E+00
4.367028E+03	8.001309E-05	0.000000E+00
4.376931E+03	8.012552E-05	0.000000E+00
4.386834E+03	8.025171E-05	0.000000E+00
4.396736E+03	8.039253E-05	0.000000E+00
4.406639E+03	8.054701E-05	0.000000E+00
4.416541E+03	8.071474E-05	0.000000E+00
4.426444E+03	8.089478E-05	0.000000E+00
4.436346E+03	8.108810E-05	0.000000E+00
4.446249E+03	8.129442E-05	0.000000E+00
4.456151E+03	8.151212E-05	0.000000E+00
4.466054E+03	8.174226E-05	0.000000E+00
4.475957E+03	8.198395E-05	0.000000E+00
4.485859E+03	8.223691E-05	0.000000E+00
4.495762E+03	8.250162E-05	0.000000E+00
4.505664E+03	8.277790E-05	0.000000E+00
4.515567E+03	8.306485E-05	0.000000E+00
4.525469E+03	8.336231E-05	0.000000E+00
4.535372E+03	8.367080E-05	0.000000E+00
4.545274E+03	8.399017E-05	0.000000E+00
4.555177E+03	8.431889E-05	0.000000E+00
4.565080E+03	8.465822E-05	0.000000E+00
4.574982E+03	8.500809E-05	0.000000E+00
4.584885E+03	8.536693E-05	0.000000E+00
4.594787E+03	8.573536E-05	0.000000E+00
4.604690E+03	8.611330E-05	0.000000E+00
4.614592E+03	8.649992E-05	0.000000E+00
4.624495E+03	8.689663E-05	0.000000E+00
4.634398E+03	8.730263E-05	0.000000E+00
4.644300E+03	8.771862E-05	0.000000E+00
4.654203E+03	8.814457E-05	0.000000E+00
4.664105E+03	8.858124E-05	0.000000E+00
4.674008E+03	8.902784E-05	0.000000E+00
4.683910E+03	8.948593E-05	0.000000E+00
4.693813E+03	8.995477E-05	0.000000E+00
4.703715E+03	9.043675E-05	0.000000E+00
4.713618E+03	9.093037E-05	0.000000E+00
4.723521E+03	9.143648E-05	0.000000E+00
4.733423E+03	9.195681E-05	0.000000E+00
4.743326E+03	9.249066E-05	0.000000E+00
4.753228E+03	9.303979E-05	0.000000E+00
4.763131E+03	9.360271E-05	0.000000E+00
4.773033E+03	9.418124E-05	0.000000E+00
4.782936E+03	9.477554E-05	0.000000E+00
4.792838E+03	9.538494E-05	0.000000E+00
4.802741E+03	9.601049E-05	0.000000E+00
4.812644E+03	9.665324E-05	0.000000E+00
4.822546E+03	9.731163E-05	0.000000E+00
4.832449E+03	9.798676E-05	0.000000E+00
4.842351E+03	9.867971E-05	0.000000E+00
4.852254E+03	9.938892E-05	0.000000E+00
4.862156E+03	1.001155E-04	0.000000E+00
4.872059E+03	1.008596E-04	0.000000E+00
4.881961E+03	1.016215E-04	0.000000E+00
4.891864E+03	1.024014E-04	0.000000E+00
4.901767E+03	1.031985E-04	0.000000E+00
4.911669E+03	1.040140E-04	0.000000E+00
4.921572E+03	1.048472E-04	0.000000E+00
4.931474E+03	1.056982E-04	0.000000E+00
4.941377E+03	1.065672E-04	0.000000E+00
4.951279E+03	1.074543E-04	0.000000E+00
4.961182E+03	1.083598E-04	0.000000E+00
4.971085E+03	1.092838E-04	0.000000E+00
4.980987E+03	1.102254E-04	0.000000E+00
4.990890E+03	1.111847E-04	0.000000E+00
5.000792E+03	1.121619E-04	0.000000E+00
5.010695E+03	1.131571E-04	0.000000E+00
5.020597E+03	1.141703E-04	0.000000E+00
5.030500E+03	1.152017E-04	0.000000E+00
5.040402E+03	1.162491E-04	0.000000E+00
5.050305E+03	1.173147E-04	0.000000E+00
5.060208E+03	1.183985E-04	0.000000E+00
5.070110E+03	1.194984E-04	0.000000E+00
5.080013E+03	1.206143E-04	0.000000E+00
5.089915E+03	1.217472E-04	0.000000E+00
5.099818E+03	1.228972E-04	0.000000E+00
5.109720E+03	1.240617E-04	0.000000E+00
5.119623E+03	1.252418E-04	0.000000E+00
5.129525E+03	1.264386E-04	0.000000E+00
5.139428E+03	1.276495E-04	0.000000E+00
5.149331E+03	1.288742E-04	0.000000E+00
5.159233E+03	1.301125E-04	0.000000E+00
5.169136E+03	1.313653E-04	0.000000E+00
5.179038E+03	1.326312E-04	0.000000E+00
5.188941E+03	1.339097E-04	0.000000E+00
5.198843E+03	1.351992E-04	0.000000E+00
5.208746E+03	1.365005E-04	0.000000E+00
5.218648E+03	1.378132E-04	0.000000E+00
5.228551E+03	1.391354E-04	0.000000E+00
5.238454E+03	1.404680E-04	0.000000E+00
5.248356E+03	1.418090E-04	0.000000E+00
5.258259E+03	1.431578E-04	0.000000E+00
5.268161E+03	1.445150E-04	0.000000E+00
5.278064E+03	1.458786E-04	0.000000E+00
5.287966E+03	1.472478E-04	0.000000E+00
5.297869E+03	1.486218E-04	0.000000E+00
5.307772E+03	1.499997E-04	0.000000E+00
5.317674E+03	1.513805E-04	0.000000E+00
5.327577E+03	1.527635E-04	0.000000E+00
5.337479E+03	1.541474E-04	0.000000E+00
5.347382E+03	1.555297E-04	0.000000E+00
5.357284E+03	1.569093E-04	0.000000E+00
5.367187E+03	1.582866E-04	0.000000E+00
5.377089E+03	1.596587E-04	0.000000E+00
5.386992E+03	1.610243E-04	0.000000E+00
5.396895E+03	1.623806E-04	0.000000E+00
5.406797E+03	1.637276E-04	0.000000E+00
5.416700E+03	1.650608E-04	0.000000E+00
5.426602E+03	1.663818E-04	0.000000E+00
5.436505E+03	1.676842E-04	0.000000E+00
5.446407E+03	1.689679E-04	0.000000E+00
5.456310E+03	1.702314E-04	0.000000E+00
5.466212E+03	1.714711E-04	0.000000E+00
5.476115E+03	1.726855E-04	0.000000E+00
5.486018E+03	1.738712E-04	0.000000E+00
5.495920E+03	1.750262E-04	0.000000E+00
5.505823E+03	1.761488E-04	0.000000E+00
5.515725E+03	1.772372E-04	0.000000E+00
5.525628E+03	1.782879E-04	0.000000E+00
5.535530E+03	1.792991E-04	0.000000E+00
5.545433E+03	1.802692E-04	0.000000E+00
5.555335E+03	1.811963E-04	0.000000E+00
5.565238E+03	1.820771E-04	0.000000E+00
5.575141E+03	1.829100E-04	0.000000E+00
5.585043E+03	1.836951E-04	0.000000E+00
5.594946E+03	1.844292E-04	0.000000E+00
5.604848E+03	1.851091E-04	0.000000E+00
5.614751E+03	1.857374E-04	0.000000E+00
5.624653E+03	1.863126E-04	0.000000E+00
5.634556E+03	1.868298E-04	0.000000E+00
5.644459E+03	1.872902E-04	0.000000E+00
5.654361E+03	1.876949E-04	0.000000E+00
5.664264E+03	1.880408E-04	0.000000E+00
5.674166E+03	1.883276E-04	0.000000E+00
5.684069E+03	1.885569E-04	0.000000E+00
5.693971E+03	1.887262E-04	0.000000E+00
5.703874E+03	1.888391E-04	0.000000E+00
5.713776E+03	1.888918E-04	0.000000E+00
5.723679E+03	1.888862E-04	0.000000E+00
5.733582E+03	1.888226E-04	0.000000E+00
5.743484E+03	1.887034E-04	0.000000E+00
5.753387E+03	1.885269E-04	0.000000E+00
5.763289E+03	1.882958E-04	0.000000E+00
5.773192E+03	1.880108E-04	0.000000E+00
5.783094E+03	1.876707E-04	0.000000E+00
5.792997E+03	1.872804E-04	0.000000E+00
5.802899E+03	1.868392E-04	0.000000E+00
5.812802E+03	1.863502E-04	0.000000E+00
5.822705E+03	1.858124E-04	0.000000E+00
5.832607E+03	1.852295E-04	0.000000E+00
5.842510E+03	1.846028E-04	0.000000E+00
5.852412E+03	1.839337E-04	0.000000E+00
5.862315E+03	1.832261E-04	0.000000E+00
5.872217E+03	1.824772E-04	0.000000E+00
5.882120E+03	1.816928E-04	0.000000E+00
5.892022E+03	1.808749E-04	0.000000E+00
5.901925E+03	1.800247E-04	0.000000E+00
5.911828E+03	1.791425E-04	0.000000E+00
5.921730E+03	1.782315E-04	0.000000E+00
5.931633E+03	1.772960E-04	0.000000E+00
5.941535E+03	1.763335E-04	0.000000E+00
5.951438E+03	1.753496E-04	0.000000E+00
5.961340E+03	1.743442E-04	0.000000E+00
5.971243E+03	1.733212E-04	0.000000E+00
5.981146E+03	1.722776E-04	0.000000E+00
5.991048E+03	1.712197E-04	0.000000E+00
6.000951E+03	1.701488E-04	0.000000E+00
6.010853E+03	1.690644E-04	0.000000E+00
6.020756E+03	1.679679E-04	0.000000E+00
6.030658E+03	1.668629E-04	0.000000E+00
6.040561E+03	1.657487E-04	0.000000E+00
6.050463E+03	1.646285E-04	0.000000E+00
6.060366E+03	1.635017E-04	0.000000E+00
6.070269E+03	1.623713E-04	0.000000E+00
6.080171E+03	1.612407E-04	0.000000E+00
6.090074E+03	1.601086E-04	0.000000E+00
6.099976E+03	1.589783E-04	0.000000E+00
6.109879E+03	1.578546E-04	0.000000E+00
6.119781E+03	1.567385E-04	0.000000E+00
6.129684E+03	1.556328E-04	0.000000E+00
6.139586E+03	1.545361E-04	0.000000E+00
6.149489E+03	1.534492E-04	0.000000E+00
6.159392E+03	1.523705E-04	0.000000E+00
6.169294E+03	1.513008E-04	0.000000E+00
6.179197E+03	1.502425E-04	0.000000E+00
6.189099E+03	1.491942E-04	0.000000E+00
6.199002E+03	1.481564E-04	0.000000E+00
6.208904E+03	1.471315E-04	0.000000E+00
6.218807E+03	1.461219E-04	0.000000E+00
6.228709E+03	1.451281E-04	0.000000E+00
6.238612E+03	1.441504E-04	0.000000E+00
6.248515E+03	1.431953E-04	0.000000E+00
6.258417E+03	1.422589E-04	0.000000E+00
6.268320E+03	1.413496E-04	0.000000E+00
6.278222E+03	1.404658E-04	0.000000E+00
6.288125E+03	1.396096E-04	0.000000E+00
6.298027E+03	1.387875E-04	0.000000E+00
6.307930E+03	1.379996E-04	0.000000E+00
6.317833E+03	1.372482E-04	0.000000E+00
6.327735E+03	1.365357E-04	0.000000E+00
6.337638E+03	1.358661E-04	0.000000E+00
6.347540E+03	1.352380E-04	0.000000E+00
6.357443E+03	1.346473E-04	0.000000E+00
6.367345E+03	1.340924E-04	0.000000E+00
6.377248E+03	1.335715E-04	0.000000E+00
6.387150E+03	1.330828E-04	0.000000E+00
6.397053E+03	1.326226E-04	0.000000E+00
6.406956E+03	1.321890E-04	0.000000E+00
6.416858E+03	1.317804E-04	0.000000E+00
6.426761E+03	1.313969E-04	0.000000E+00
6.436663E+03	1.310367E-04	0.000000E+00
6.446566E+03	1.306981E-04	0.000000E+00
6.456468E+03	1.303834E-04	0.000000E+00
6.466371E+03	1.300885E-04	0.000000E+00
6.476273E+03	1.298159E-04	0.000000E+00
6.486176E+03	1.295636E-04	0.000000E+00
6.496079E+03	1.293339E-04	0.000000E+00
6.505981E+03	1.291248E-04	0.000000E+00
6.515884E+03	1.289366E-04	0.000000E+00
6.525786E+03	1.287693E-04	0.000000E+00
6.535689E+03	1.286253E-04	0.000000E+00
6.545591E+03	1.285003E-04	0.000000E+00
6.555494E+03	1.283986E-04	0.000000E+00
6.565396E+03	1.283184E-04	0.000000E+00
6.575299E+03	1.282594E-04	0.000000E+00
6.585202E+03	1.282241E-04	0.000000E+00
6.595104E+03	1.282080E-04	0.000000E+00
6.605007E+03	1.282156E-04	0.000000E+00
6.614909E+03	1.282446E-04	0.000000E+00
6.624812E+03	1.282949E-04	0.000000E+00
6.634714E+03	1.283689E-04	0.000000E+00
6.644617E+03	1.284641E-04	0.000000E+00
6.654520E+03	1.285806E-04	0.000000E+00
6.664422E+03	1.287183E-04	0.000000E+00
6.674325E+03	1.288792E-04	0.000000E+00
6.684227E+03	1.290611E-04	0.000000E+00
6.694130E+03	1.292638E-04	0.000000E+00
6.704032E+03	1.294895E-04	0.000000E+00
6.713935E+03	1.297357E-04	0.000000E+00
6.723837E+03	1.300022E-04	0.000000E+00
6.733740E+03	1.302912E-04	0.000000E+00
6.743643E+03	1.305978E-04	0.000000E+00
6.753545E+03	1.309264E-04	0.000000E+00
6.763448E+03	1.312768E-04	0.000000E+00
6.773350E+03	1.316440E-04	0.000000E+00
6.783253E+03	1.320326E-04	0.000000E+00
6.793155E+03	1.324397E-04	0.000000E+00
6.803058E+03	1.328651E-04	0.000000E+00
6.812960E+03	1.333084E-04	0.000000E+00
6.822863E+03	1.337694E-04	0.000000E+00
6.832766E+03	1.342501E-04	0.000000E+00
6.842668E+03	1.347452E-04	0.000000E+00
6.852571E+03	1.352595E-04	0.000000E+00
6.862473E+03	1.357874E-04	0.000000E+00
6.872376E+03	1.363338E-04	0.000000E+00
6.882278E+03	1.368931E-04	0.000000E+00
6.892181E+03	1.374702E-04	0.000000E+00
6.902083E+03	1.380595E-04	0.000000E+00
6.911986E+03	1.386634E-04	0.000000E+00
6.921889E+03	1.392815E-04	0.000000E+00
6.931791E+03	1.399109E-04	0.000000E+00
6.941694E+03	1.405567E-04	0.000000E+00
6.951596E+03	1.412133E-04	0.000000E+00
6.961499E+03	1.418803E-04	0.000000E+00
6.971401E+03	1.425603E-04	0.000000E+00
6.981304E+03	1.432532E-04	0.000000E+00
6.991207E+03	1.439559E-04	0.000000E+00
7.001109E+03	1.446682E-04	0.000000E+00
7.011012E+03	1.453929E-04	0.000000E+00
7.020914E+03	1.461270E-04	0.000000E+00
7.030817E+03	1.468704E-04	0.000000E+00
7.040719E+03	1.476229E-04	0.000000E+00
7.050622E+03	1.483874E-04	0.000000E+00
7.060524E+03	1.491579E-04	0.000000E+00
7.070427E+03	1.499403E-04	0.000000E+00
7.080330E+03	1.507285E-04	0.000000E+00
7.090232E+03	1.515254E-04	0.000000E+00
7.100135E+03	1.523309E-04	0.000000E+00
7.110037E+03	1.531452E-04	0.000000E+00
7.119940E+03	1.539648E-04	0.000000E+00
7.129842E+03	1.547928E-04	0.000000E+00
7.139745E+03	1.556293E-04	0.000000E+00
7.149647E+03	1.564709E-04	0.000000E+00
7.159550E+03	1.573174E-04	0.000000E+00
7.169453E+03	1.581720E-04	0.000000E+00
7.179355E+03	1.590314E-04	0.000000E+00
7.189258E+03	1.598952E-04	0.000000E+00
7.199160E+03	1.607668E-04	0.000000E+00
7.209063E+03	1.616426E-04	0.000000E+00
7.218965E+03	1.625224E-04	0.000000E+00
7.228868E+03	1.634131E-04	0.000000E+00
7.238770E+03	1.643039E-04	0.000000E+00
7.248673E+03	1.652054E-04	0.000000E+00
7.258576E+03	1.661101E-04	0.000000E+00
7.268478E+03	1.670252E-04	0.000000E+00
7.278381E+03	1.679469E-04	0.000000E+00
7.288283E+03	1.688786E-04	0.000000E+00
7.298186E+03	1.698243E-04	0.000000E+00
7.308088E+03	1.707799E-04	0.000000E+00
7.317991E+03	1.717571E-04	0.000000E+00
7.327894E+03	1.727519E-04	0.000000E+00
7.337796E+03	1.737646E-04	0.000000E+00
7.347699E+03	1.748113E-04	0.000000E+00
7.357601E+03	1.758803E-04	0.000000E+00
7.367504E+03	1.769838E-04	0.000000E+00
7.377406E+03	1.781227E-04	0.000000E+00
7.387309E+03	1.792885E-04	0.000000E+00
7.397211E+03	1.804770E-04	0.000000E+00
7.407114E+03	1.816884E-04	0.000000E+00
7.417017E+03	1.829177E-04	0.000000E+00
7.426919E+03	1.841649E-04	0.000000E+00
7.436822E+03	1.854250E-04	0.000000E+00
7.446724E+03	1.866931E-04	0.000000E+00
7.456627E+03	1.879683E-04	0.000000E+00
7.466529E+03	1.892499E-04	0.000000E+00
7.476432E+03	1.905325E-04	0.000000E+00
7.486334E+03	1.918200E-04	0.000000E+00
7.496237E+03	1.931014E-04	0.000000E+00
7.506140E+03	1.943857E-04	0.000000E+00
7.516042E+03	1.956671E-04	0.000000E+00
7.525945E+03	1.969391E-04	0.000000E+00
7.535847E+03	1.982058E-04	0.000000E+00
7.545750E+03	1.994608E-04	0.000000E+00
7.555652E+03	2.007080E-04	0.000000E+00
7.565555E+03	2.019459E-04	0.000000E+00
7.575457E+03	2.031684E-04	0.000000E+00
7.585360E+03	2.043790E-04	0.000000E+00
7.595263E+03	2.055714E-04	0.000000E+00
7.605165E+03	2.067493E-04	0.000000E+00
7.615068E+03	2.079115E-04	0.000000E+00
7.624970E+03	2.090512E-04	0.000000E+00
7.634873E+03	2.101722E-04	0.000000E+00
7.644775E+03	2.112732E-04	0.000000E+00
7.654678E+03	2.123532E-04	0.000000E+00
7.664581E+03	2.134101E-04	0.000000E+00
7.674483E+03	2.144429E-04	0.000000E+00
7.684386E+03	2.154501E-04	0.000000E+00
