#wls	flux	fluxerr
1.600000E+03	4.438002E-16	3.431738E-16
1.640000E+03	4.515671E-16	3.483594E-16
1.680000E+03	4.592927E-16	3.534387E-16
1.720000E+03	4.669219E-16	3.583659E-16
1.760000E+03	4.744358E-16	3.631231E-16
1.800000E+03	4.818482E-16	3.677173E-16
1.840000E+03	4.890041E-16	3.720272E-16
1.880000E+03	4.959451E-16	3.760816E-16
1.920000E+03	5.025867E-16	3.798140E-16
1.960000E+03	5.088429E-16	3.831576E-16
2.000000E+03	5.145926E-16	3.860202E-16
2.040000E+03	5.197552E-16	3.883416E-16
2.080000E+03	5.241872E-16	3.900162E-16
2.120000E+03	5.276955E-16	3.909037E-16
2.160000E+03	5.302049E-16	3.909540E-16
2.200000E+03	5.315358E-16	3.900421E-16
2.240000E+03	5.315701E-16	3.880917E-16
2.280000E+03	5.302741E-16	3.850903E-16
2.320000E+03	5.276858E-16	3.810792E-16
2.360000E+03	5.239279E-16	3.761612E-16
2.400000E+03	5.191416E-16	3.704514E-16
2.440000E+03	5.134586E-16	3.640571E-16
2.480000E+03	5.070647E-16	3.571222E-16
2.520000E+03	5.000632E-16	3.497303E-16
2.560000E+03	4.925871E-16	3.419845E-16
2.600000E+03	4.847004E-16	3.339386E-16
2.640000E+03	4.764816E-16	3.256554E-16
2.680000E+03	4.679726E-16	3.171718E-16
2.720000E+03	4.592180E-16	3.085263E-16
2.760000E+03	4.502653E-16	2.997584E-16
2.800000E+03	4.411511E-16	2.909004E-16
2.840000E+03	4.319174E-16	2.819870E-16
2.880000E+03	4.226330E-16	2.730698E-16
2.920000E+03	4.133424E-16	2.641835E-16
2.960000E+03	4.041422E-16	2.553946E-16
3.000000E+03	3.950894E-16	2.467422E-16
3.010000E+03	3.928688E-16	2.446129E-16
3.020000E+03	3.906574E-16	2.424922E-16
3.030000E+03	3.884554E-16	2.403804E-16
3.040000E+03	3.862805E-16	2.382883E-16
3.050000E+03	3.841238E-16	2.362105E-16
3.060000E+03	3.819857E-16	2.341470E-16
3.070000E+03	3.798740E-16	2.321028E-16
3.080000E+03	3.777807E-16	2.300729E-16
3.090000E+03	3.757059E-16	2.280572E-16
3.100000E+03	3.736652E-16	2.260652E-16
3.110000E+03	3.716428E-16	2.240874E-16
3.120000E+03	3.696464E-16	2.221282E-16
3.130000E+03	3.676686E-16	2.201832E-16
3.140000E+03	3.657311E-16	2.182654E-16
3.150000E+03	3.638120E-16	2.163614E-16
3.160000E+03	3.619185E-16	2.144756E-16
3.170000E+03	3.600573E-16	2.126120E-16
3.180000E+03	3.582282E-16	2.107701E-16
3.190000E+03	3.564176E-16	2.089419E-16
3.200000E+03	3.546452E-16	2.071391E-16
3.210000E+03	3.528978E-16	2.053535E-16
3.220000E+03	3.511816E-16	2.035889E-16
3.230000E+03	3.494902E-16	2.018415E-16
3.240000E+03	3.478299E-16	2.001146E-16
3.250000E+03	3.462003E-16	1.984080E-16
3.260000E+03	3.446013E-16	1.967217E-16
3.270000E+03	3.430270E-16	1.950519E-16
3.280000E+03	3.414831E-16	1.934020E-16
3.290000E+03	3.399696E-16	1.917717E-16
3.300000E+03	3.384807E-16	1.901579E-16
3.310000E+03	3.370220E-16	1.885634E-16
3.320000E+03	3.355882E-16	1.869852E-16
3.330000E+03	3.341846E-16	1.854262E-16
3.340000E+03	3.328059E-16	1.838833E-16
3.350000E+03	3.314523E-16	1.823565E-16
3.360000E+03	3.301239E-16	1.808459E-16
3.370000E+03	3.288209E-16	1.793515E-16
3.380000E+03	3.275434E-16	1.778732E-16
3.390000E+03	3.262867E-16	1.764083E-16
3.400000E+03	3.250560E-16	1.749597E-16
3.410000E+03	3.238421E-16	1.735223E-16
3.420000E+03	3.226545E-16	1.721011E-16
3.430000E+03	3.214844E-16	1.706915E-16
3.440000E+03	3.203323E-16	1.692935E-16
3.450000E+03	3.191987E-16	1.679075E-16
3.460000E+03	3.180795E-16	1.665312E-16
3.470000E+03	3.169797E-16	1.651673E-16
3.480000E+03	3.158956E-16	1.638138E-16
3.490000E+03	3.148236E-16	1.624688E-16
3.500000E+03	3.137639E-16	1.611325E-16
3.510000E+03	3.127135E-16	1.598033E-16
3.520000E+03	3.116773E-16	1.584837E-16
3.530000E+03	3.106437E-16	1.571680E-16
3.540000E+03	3.096179E-16	1.558587E-16
3.550000E+03	3.085964E-16	1.545542E-16
3.560000E+03	3.075807E-16	1.532553E-16
3.570000E+03	3.065637E-16	1.519586E-16
3.580000E+03	3.055432E-16	1.506631E-16
3.590000E+03	3.045238E-16	1.493712E-16
3.600000E+03	3.034957E-16	1.480783E-16
3.610000E+03	3.024638E-16	1.467869E-16
3.620000E+03	3.014254E-16	1.454959E-16
3.630000E+03	3.003753E-16	1.442029E-16
3.640000E+03	2.993111E-16	1.429070E-16
3.650000E+03	2.982339E-16	1.416090E-16
3.660000E+03	2.971391E-16	1.403070E-16
3.670000E+03	2.960306E-16	1.390031E-16
3.680000E+03	2.949007E-16	1.376938E-16
3.690000E+03	2.937500E-16	1.363799E-16
3.700000E+03	2.925776E-16	1.350612E-16
3.710000E+03	2.913842E-16	1.337382E-16
3.720000E+03	2.901653E-16	1.324094E-16
3.730000E+03	2.889222E-16	1.310756E-16
3.740000E+03	2.876534E-16	1.297366E-16
3.750000E+03	2.863596E-16	1.283928E-16
3.760000E+03	2.850397E-16	1.270443E-16
3.770000E+03	2.836946E-16	1.256919E-16
3.780000E+03	2.823226E-16	1.243350E-16
3.790000E+03	2.809219E-16	1.229733E-16
3.800000E+03	2.794992E-16	1.216100E-16
3.810000E+03	2.780471E-16	1.202424E-16
3.820000E+03	2.765694E-16	1.188725E-16
3.830000E+03	2.750693E-16	1.175018E-16
3.840000E+03	2.735425E-16	1.161291E-16
3.850000E+03	2.719895E-16	1.147548E-16
3.860000E+03	2.704137E-16	1.133807E-16
3.870000E+03	2.688155E-16	1.120075E-16
3.880000E+03	2.671955E-16	1.106355E-16
3.890000E+03	2.655513E-16	1.092643E-16
3.900000E+03	2.638862E-16	1.078953E-16
3.910000E+03	2.622001E-16	1.065290E-16
3.920000E+03	2.604935E-16	1.051659E-16
3.930000E+03	2.587661E-16	1.038061E-16
3.940000E+03	2.570186E-16	1.024502E-16
3.950000E+03	2.552532E-16	1.010995E-16
3.960000E+03	2.534696E-16	9.975397E-17
3.970000E+03	2.516660E-16	9.841327E-17
3.980000E+03	2.498463E-16	9.707921E-17
3.990000E+03	2.480084E-16	9.575121E-17
4.000000E+03	2.461543E-16	9.443034E-17
4.010000E+03	2.442839E-16	9.311674E-17
4.020000E+03	2.423945E-16	9.180965E-17
4.030000E+03	2.404903E-16	9.051096E-17
4.040000E+03	2.385691E-16	8.921996E-17
4.050000E+03	2.366322E-16	8.793744E-17
4.060000E+03	2.346796E-16	8.666355E-17
4.070000E+03	2.327109E-16	8.539836E-17
4.080000E+03	2.307255E-16	8.414185E-17
4.090000E+03	2.287252E-16	8.289488E-17
4.100000E+03	2.267078E-16	8.165677E-17
4.110000E+03	2.246726E-16	8.042750E-17
4.120000E+03	2.226233E-16	7.920852E-17
4.130000E+03	2.205556E-16	7.799846E-17
4.140000E+03	2.184711E-16	7.679797E-17
4.150000E+03	2.163694E-16	7.560713E-17
4.160000E+03	2.142503E-16	7.442591E-17
4.170000E+03	2.121131E-16	7.325423E-17
4.180000E+03	2.099580E-16	7.209218E-17
4.190000E+03	2.077845E-16	7.093975E-17
4.200000E+03	2.055923E-16	6.979687E-17
4.210000E+03	2.033813E-16	6.866352E-17
4.220000E+03	2.011514E-16	6.753976E-17
4.230000E+03	1.989006E-16	6.642495E-17
4.240000E+03	1.966288E-16	6.531892E-17
4.250000E+03	1.943377E-16	6.422196E-17
4.260000E+03	1.920264E-16	6.313358E-17
4.270000E+03	1.896915E-16	6.205229E-17
4.280000E+03	1.873343E-16	6.097827E-17
4.290000E+03	1.849547E-16	5.991119E-17
4.300000E+03	1.825525E-16	5.885072E-17
4.310000E+03	1.801276E-16	5.779654E-17
4.320000E+03	1.776785E-16	5.674787E-17
4.330000E+03	1.752086E-16	5.570552E-17
4.340000E+03	1.727149E-16	5.466823E-17
4.350000E+03	1.702009E-16	5.363683E-17
4.360000E+03	1.676670E-16	5.261116E-17
4.370000E+03	1.651152E-16	5.159154E-17
4.380000E+03	1.625459E-16	5.057780E-17
4.390000E+03	1.599614E-16	4.957036E-17
4.400000E+03	1.573620E-16	4.856902E-17
4.410000E+03	1.547515E-16	4.757467E-17
4.420000E+03	1.521303E-16	4.658712E-17
4.430000E+03	1.494992E-16	4.560634E-17
4.440000E+03	1.468618E-16	4.463314E-17
4.450000E+03	1.442188E-16	4.366740E-17
4.460000E+03	1.415725E-16	4.270950E-17
4.470000E+03	1.389266E-16	4.176017E-17
4.480000E+03	1.362810E-16	4.081902E-17
4.490000E+03	1.336393E-16	3.988685E-17
4.500000E+03	1.310038E-16	3.896401E-17
4.510000E+03	1.283760E-16	3.805058E-17
4.520000E+03	1.257580E-16	3.714692E-17
4.530000E+03	1.231525E-16	3.625351E-17
4.540000E+03	1.205615E-16	3.537069E-17
4.550000E+03	1.179874E-16	3.449886E-17
4.560000E+03	1.154313E-16	3.363808E-17
4.570000E+03	1.128944E-16	3.278846E-17
4.580000E+03	1.103808E-16	3.195097E-17
4.590000E+03	1.078905E-16	3.112536E-17
4.600000E+03	1.054245E-16	3.031173E-17
4.610000E+03	1.029859E-16	2.951071E-17
4.620000E+03	1.005763E-16	2.872261E-17
4.630000E+03	9.819469E-17	2.794696E-17
4.640000E+03	9.584574E-17	2.718487E-17
4.650000E+03	9.352744E-17	2.643563E-17
4.660000E+03	9.124321E-17	2.570005E-17
4.670000E+03	8.899369E-17	2.497814E-17
4.680000E+03	8.677946E-17	2.426994E-17
4.690000E+03	8.460095E-17	2.357541E-17
4.700000E+03	8.245871E-17	2.289459E-17
4.710000E+03	8.035481E-17	2.222794E-17
4.720000E+03	7.828881E-17	2.157519E-17
4.730000E+03	7.626102E-17	2.093635E-17
4.740000E+03	7.427243E-17	2.031156E-17
4.750000E+03	7.232189E-17	1.970041E-17
4.760000E+03	7.041165E-17	1.910343E-17
4.770000E+03	6.853976E-17	1.851998E-17
4.780000E+03	6.670777E-17	1.795041E-17
4.790000E+03	6.491572E-17	1.739462E-17
4.800000E+03	6.316232E-17	1.685221E-17
4.810000E+03	6.144824E-17	1.632326E-17
4.820000E+03	5.977404E-17	1.580785E-17
4.830000E+03	5.813845E-17	1.530556E-17
4.840000E+03	5.654195E-17	1.481646E-17
4.850000E+03	5.498442E-17	1.434042E-17
4.860000E+03	5.346510E-17	1.387719E-17
4.870000E+03	5.198382E-17	1.342665E-17
4.880000E+03	5.054088E-17	1.298880E-17
4.890000E+03	4.913548E-17	1.256338E-17
4.900000E+03	4.776781E-17	1.215035E-17
4.910000E+03	4.643658E-17	1.174932E-17
4.920000E+03	4.514193E-17	1.136026E-17
4.930000E+03	4.388347E-17	1.098299E-17
4.940000E+03	4.266037E-17	1.061723E-17
4.950000E+03	4.147265E-17	1.026293E-17
4.960000E+03	4.031944E-17	9.919782E-18
4.970000E+03	3.920069E-17	9.587715E-18
4.980000E+03	3.811551E-17	9.266430E-18
4.990000E+03	3.706340E-17	8.955737E-18
5.000000E+03	3.604349E-17	8.655348E-18
5.010000E+03	3.505599E-17	8.365243E-18
5.020000E+03	3.409965E-17	8.085042E-18
5.030000E+03	3.317394E-17	7.814547E-18
5.040000E+03	3.227864E-17	7.553633E-18
5.050000E+03	3.141287E-17	7.302013E-18
5.060000E+03	3.057606E-17	7.059482E-18
5.070000E+03	2.976765E-17	6.825835E-18
5.080000E+03	2.898707E-17	6.600863E-18
5.090000E+03	2.823345E-17	6.384295E-18
5.100000E+03	2.750625E-17	6.175931E-18
5.110000E+03	2.680518E-17	5.975634E-18
5.120000E+03	2.612912E-17	5.783079E-18
5.130000E+03	2.547806E-17	5.598193E-18
5.140000E+03	2.485067E-17	5.420608E-18
5.150000E+03	2.424692E-17	5.250250E-18
5.160000E+03	2.366603E-17	5.086878E-18
5.170000E+03	2.310748E-17	4.930311E-18
5.180000E+03	2.257074E-17	4.780371E-18
5.190000E+03	2.205507E-17	4.636835E-18
5.200000E+03	2.156000E-17	4.499537E-18
5.210000E+03	2.108481E-17	4.368272E-18
5.220000E+03	2.062948E-17	4.242969E-18
5.230000E+03	2.019291E-17	4.123347E-18
5.240000E+03	1.977487E-17	4.009303E-18
5.250000E+03	1.937494E-17	3.900698E-18
5.260000E+03	1.899268E-17	3.797393E-18
5.270000E+03	1.862732E-17	3.699184E-18
5.280000E+03	1.827866E-17	3.605987E-18
5.290000E+03	1.794616E-17	3.517648E-18
5.300000E+03	1.762945E-17	3.434058E-18
5.310000E+03	1.732801E-17	3.355076E-18
5.320000E+03	1.704172E-17	3.280641E-18
5.330000E+03	1.676990E-17	3.210593E-18
5.340000E+03	1.651227E-17	3.144847E-18
5.350000E+03	1.626839E-17	3.083294E-18
5.360000E+03	1.603818E-17	3.025891E-18
5.370000E+03	1.582090E-17	2.972481E-18
5.380000E+03	1.561650E-17	2.923035E-18
5.390000E+03	1.542461E-17	2.877468E-18
5.400000E+03	1.524489E-17	2.835703E-18
5.410000E+03	1.507670E-17	2.797613E-18
5.420000E+03	1.491975E-17	2.763138E-18
5.430000E+03	1.477377E-17	2.732219E-18
5.440000E+03	1.463788E-17	2.704696E-18
5.450000E+03	1.451187E-17	2.680526E-18
5.460000E+03	1.439507E-17	2.659589E-18
5.470000E+03	1.428714E-17	2.641823E-18
5.480000E+03	1.418843E-17	2.627298E-18
5.490000E+03	1.409866E-17	2.615937E-18
5.500000E+03	1.401808E-17	2.607731E-18
5.510000E+03	1.394664E-17	2.602616E-18
5.520000E+03	1.388469E-17	2.600608E-18
5.530000E+03	1.383189E-17	2.601599E-18
5.540000E+03	1.378834E-17	2.605564E-18
5.550000E+03	1.375386E-17	2.612432E-18
5.560000E+03	1.372871E-17	2.622217E-18
5.570000E+03	1.371259E-17	2.634836E-18
5.580000E+03	1.370550E-17	2.650261E-18
5.590000E+03	1.370732E-17	2.668445E-18
5.600000E+03	1.371821E-17	2.689403E-18
5.610000E+03	1.373792E-17	2.713070E-18
5.620000E+03	1.376651E-17	2.739445E-18
5.630000E+03	1.380403E-17	2.768533E-18
5.640000E+03	1.385041E-17	2.800314E-18
5.650000E+03	1.390574E-17	2.834804E-18
5.660000E+03	1.396983E-17	2.871967E-18
5.670000E+03	1.404277E-17	2.911826E-18
5.680000E+03	1.412470E-17	2.954415E-18
5.690000E+03	1.421560E-17	2.999740E-18
5.700000E+03	1.431546E-17	3.047813E-18
5.710000E+03	1.442428E-17	3.098647E-18
5.720000E+03	1.454239E-17	3.152328E-18
5.730000E+03	1.466949E-17	3.208813E-18
5.740000E+03	1.480593E-17	3.268197E-18
5.750000E+03	1.495176E-17	3.330512E-18
5.760000E+03	1.510686E-17	3.395758E-18
5.770000E+03	1.527145E-17	3.464008E-18
5.780000E+03	1.544577E-17	3.535342E-18
5.790000E+03	1.562971E-17	3.609767E-18
5.800000E+03	1.582337E-17	3.687329E-18
5.810000E+03	1.602717E-17	3.768159E-18
5.820000E+03	1.624086E-17	3.852229E-18
5.830000E+03	1.646472E-17	3.939636E-18
5.840000E+03	1.669886E-17	4.030437E-18
5.850000E+03	1.694338E-17	4.124689E-18
5.860000E+03	1.719859E-17	4.222503E-18
5.870000E+03	1.746423E-17	4.323845E-18
5.880000E+03	1.774082E-17	4.428875E-18
5.890000E+03	1.802828E-17	4.537608E-18
5.900000E+03	1.832675E-17	4.650110E-18
5.910000E+03	1.863634E-17	4.766444E-18
5.920000E+03	1.895720E-17	4.886676E-18
5.930000E+03	1.928967E-17	5.010927E-18
5.940000E+03	1.963346E-17	5.139150E-18
5.950000E+03	1.998868E-17	5.271402E-18
5.960000E+03	2.035567E-17	5.407805E-18
5.970000E+03	2.073456E-17	5.548418E-18
5.980000E+03	2.112500E-17	5.693173E-18
5.990000E+03	2.152757E-17	5.842251E-18
6.000000E+03	2.194163E-17	5.995499E-18
6.010000E+03	2.236802E-17	6.153168E-18
6.020000E+03	2.280606E-17	6.315089E-18
6.030000E+03	2.325577E-17	6.481287E-18
6.040000E+03	2.371750E-17	6.651869E-18
6.050000E+03	2.419099E-17	6.826779E-18
6.060000E+03	2.467627E-17	7.006030E-18
6.070000E+03	2.517273E-17	7.189462E-18
6.080000E+03	2.568095E-17	7.377241E-18
6.090000E+03	2.619996E-17	7.569088E-18
6.100000E+03	2.673030E-17	7.765161E-18
6.110000E+03	2.727157E-17	7.965334E-18
6.120000E+03	2.782330E-17	8.169470E-18
6.130000E+03	2.838533E-17	8.377508E-18
6.140000E+03	2.895785E-17	8.589488E-18
6.150000E+03	2.954031E-17	8.805232E-18
6.160000E+03	3.013248E-17	9.024655E-18
6.170000E+03	3.073488E-17	9.247892E-18
6.180000E+03	3.134652E-17	9.474617E-18
6.190000E+03	3.196749E-17	9.704837E-18
6.200000E+03	3.259793E-17	9.938561E-18
6.210000E+03	3.323796E-17	1.017580E-17
6.220000E+03	3.388689E-17	1.041631E-17
6.230000E+03	3.454437E-17	1.065995E-17
6.240000E+03	3.521050E-17	1.090671E-17
6.250000E+03	3.588448E-17	1.115630E-17
6.260000E+03	3.656637E-17	1.140870E-17
6.270000E+03	3.725578E-17	1.166375E-17
6.280000E+03	3.795282E-17	1.192143E-17
6.290000E+03	3.865707E-17	1.218156E-17
6.300000E+03	3.936813E-17	1.244397E-17
6.310000E+03	4.008610E-17	1.270864E-17
6.320000E+03	4.081110E-17	1.297556E-17
6.330000E+03	4.154216E-17	1.324436E-17
6.340000E+03	4.227942E-17	1.351503E-17
6.350000E+03	4.302306E-17	1.378757E-17
6.360000E+03	4.377207E-17	1.406161E-17
6.370000E+03	4.452730E-17	1.433735E-17
6.380000E+03	4.528839E-17	1.461463E-17
6.390000E+03	4.605502E-17	1.489326E-17
6.400000E+03	4.682684E-17	1.517307E-17
6.410000E+03	4.760486E-17	1.545432E-17
6.420000E+03	4.838811E-17	1.573662E-17
6.430000E+03	4.917771E-17	1.602027E-17
6.440000E+03	4.997341E-17	1.630511E-17
6.450000E+03	5.077496E-17	1.659099E-17
6.460000E+03	5.158290E-17	1.687802E-17
6.470000E+03	5.239702E-17	1.716606E-17
6.480000E+03	5.321793E-17	1.745522E-17
6.490000E+03	5.404380E-17	1.774484E-17
6.500000E+03	5.487608E-17	1.803532E-17
6.510000E+03	5.571461E-17	1.832653E-17
6.520000E+03	5.655835E-17	1.861805E-17
6.530000E+03	5.740798E-17	1.891002E-17
6.540000E+03	5.826336E-17	1.920233E-17
6.550000E+03	5.912432E-17	1.949484E-17
6.560000E+03	5.999071E-17	1.978741E-17
6.570000E+03	6.086337E-17	2.008026E-17
6.580000E+03	6.174119E-17	2.037292E-17
6.590000E+03	6.262404E-17	2.066529E-17
6.600000E+03	6.351281E-17	2.095757E-17
6.610000E+03	6.440741E-17	2.124966E-17
6.620000E+03	6.530670E-17	2.154109E-17
6.630000E+03	6.621164E-17	2.183210E-17
6.640000E+03	6.712103E-17	2.212223E-17
6.650000E+03	6.803704E-17	2.241210E-17
6.660000E+03	6.895734E-17	2.270087E-17
6.670000E+03	6.988181E-17	2.298842E-17
6.680000E+03	7.081155E-17	2.327504E-17
6.690000E+03	7.174652E-17	2.356062E-17
6.700000E+03	7.268542E-17	2.384467E-17
6.710000E+03	7.362815E-17	2.412708E-17
6.720000E+03	7.457592E-17	2.440817E-17
6.730000E+03	7.552737E-17	2.468742E-17
6.740000E+03	7.648378E-17	2.496517E-17
6.750000E+03	7.744236E-17	2.524045E-17
6.760000E+03	7.840581E-17	2.551406E-17
6.770000E+03	7.937126E-17	2.578499E-17
6.780000E+03	8.034146E-17	2.605408E-17
6.790000E+03	8.131349E-17	2.632031E-17
6.800000E+03	8.228872E-17	2.658407E-17
6.810000E+03	8.326710E-17	2.684527E-17
6.820000E+03	8.424705E-17	2.710334E-17
6.830000E+03	8.523002E-17	2.735871E-17
6.840000E+03	8.621440E-17	2.761079E-17
6.850000E+03	8.720168E-17	2.786001E-17
6.860000E+03	8.818858E-17	2.810528E-17
6.870000E+03	8.917827E-17	2.834757E-17
6.880000E+03	9.016903E-17	2.858628E-17
6.890000E+03	9.116079E-17	2.882136E-17
6.900000E+03	9.215175E-17	2.905219E-17
6.910000E+03	9.314529E-17	2.927983E-17
6.920000E+03	9.413602E-17	2.950255E-17
6.930000E+03	9.512922E-17	2.972198E-17
6.940000E+03	9.612121E-17	2.993696E-17
6.950000E+03	9.711187E-17	3.014743E-17
6.960000E+03	9.810297E-17	3.035395E-17
6.970000E+03	9.909255E-17	3.055589E-17
6.980000E+03	1.000805E-16	3.075324E-17
6.990000E+03	1.010668E-16	3.094597E-17
7.000000E+03	1.020512E-16	3.113406E-17
7.010000E+03	1.030336E-16	3.131750E-17
7.020000E+03	1.040120E-16	3.149568E-17
7.030000E+03	1.049904E-16	3.166983E-17
7.040000E+03	1.059623E-16	3.183808E-17
7.050000E+03	1.069340E-16	3.200235E-17
7.060000E+03	1.078991E-16	3.216074E-17
7.070000E+03	1.088615E-16	3.231455E-17
7.080000E+03	1.098192E-16	3.246319E-17
7.090000E+03	1.107719E-16	3.260668E-17
7.100000E+03	1.117218E-16	3.274574E-17
7.110000E+03	1.126642E-16	3.287910E-17
7.120000E+03	1.136013E-16	3.300748E-17
7.130000E+03	1.145307E-16	3.313030E-17
7.140000E+03	1.154544E-16	3.324829E-17
7.150000E+03	1.163724E-16	3.336154E-17
7.160000E+03	1.172821E-16	3.346948E-17
7.170000E+03	1.181859E-16	3.357288E-17
7.180000E+03	1.190788E-16	3.367051E-17
7.190000E+03	1.199654E-16	3.376383E-17
7.200000E+03	1.208431E-16	3.385232E-17
7.210000E+03	1.217094E-16	3.393540E-17
7.220000E+03	1.225664E-16	3.401392E-17
7.230000E+03	1.234141E-16	3.408804E-17
7.240000E+03	1.242498E-16	3.415722E-17
7.250000E+03	1.250732E-16	3.422165E-17
7.260000E+03	1.258842E-16	3.428150E-17
7.270000E+03	1.266825E-16	3.433698E-17
7.280000E+03	1.274680E-16	3.438828E-17
7.290000E+03	1.282352E-16	3.443419E-17
7.300000E+03	1.289891E-16	3.447636E-17
7.310000E+03	1.297268E-16	3.451429E-17
7.320000E+03	1.304455E-16	3.454753E-17
7.330000E+03	1.311475E-16	3.457702E-17
7.340000E+03	1.318272E-16	3.460157E-17
7.350000E+03	1.324843E-16	3.462145E-17
7.360000E+03	1.331183E-16	3.463692E-17
7.370000E+03	1.337264E-16	3.464752E-17
7.380000E+03	1.343108E-16	3.465425E-17
7.390000E+03	1.348629E-16	3.465521E-17
7.400000E+03	1.353879E-16	3.465214E-17
7.410000E+03	1.358798E-16	3.464388E-17
7.420000E+03	1.363411E-16	3.463143E-17
7.430000E+03	1.367685E-16	3.461436E-17
7.440000E+03	1.371619E-16	3.459296E-17
7.450000E+03	1.375237E-16	3.456828E-17
7.460000E+03	1.378507E-16	3.453984E-17
7.470000E+03	1.381516E-16	3.451020E-17
7.480000E+03	1.384203E-16	3.447814E-17
7.490000E+03	1.386625E-16	3.444545E-17
7.500000E+03	1.388751E-16	3.441166E-17
7.510000E+03	1.390670E-16	3.437930E-17
7.520000E+03	1.392353E-16	3.434791E-17
7.530000E+03	1.393799E-16	3.431775E-17
7.540000E+03	1.395039E-16	3.428987E-17
7.550000E+03	1.396074E-16	3.426447E-17
7.560000E+03	1.396967E-16	3.424301E-17
7.570000E+03	1.397659E-16	3.422387E-17
7.580000E+03	1.398187E-16	3.420771E-17
7.590000E+03	1.398586E-16	3.419517E-17
7.600000E+03	1.398828E-16	3.418537E-17
7.610000E+03	1.398950E-16	3.417895E-17
7.620000E+03	1.398925E-16	3.417501E-17
7.630000E+03	1.398821E-16	3.417492E-17
7.640000E+03	1.398578E-16	3.417700E-17
7.650000E+03	1.398266E-16	3.418265E-17
7.660000E+03	1.397826E-16	3.419015E-17
7.670000E+03	1.397325E-16	3.420088E-17
7.680000E+03	1.396704E-16	3.421313E-17
7.690000E+03	1.396032E-16	3.422828E-17
7.700000E+03	1.395282E-16	3.424538E-17
7.710000E+03	1.394458E-16	3.426426E-17
7.720000E+03	1.393564E-16	3.428476E-17
7.730000E+03	1.392605E-16	3.430669E-17
7.740000E+03	1.391586E-16	3.432988E-17
7.750000E+03	1.390478E-16	3.435338E-17
7.760000E+03	1.389350E-16	3.437861E-17
