#wls	flux	fluxerr
1.600000E+03	8.186477E-17	4.053571E-17
1.640000E+03	8.321691E-17	4.109453E-17
1.680000E+03	8.460295E-17	4.166172E-17
1.720000E+03	8.601745E-17	4.223408E-17
1.760000E+03	8.746171E-17	4.281174E-17
1.800000E+03	8.894328E-17	4.339784E-17
1.840000E+03	9.043884E-17	4.398046E-17
1.880000E+03	9.196132E-17	4.456535E-17
1.920000E+03	9.350055E-17	4.514701E-17
1.960000E+03	9.504594E-17	4.571979E-17
2.000000E+03	9.658005E-17	4.627481E-17
2.040000E+03	9.809261E-17	4.680675E-17
2.080000E+03	9.956096E-17	4.730447E-17
2.120000E+03	1.009518E-16	4.775197E-17
2.160000E+03	1.022531E-16	4.814359E-17
2.200000E+03	1.034311E-16	4.846362E-17
2.240000E+03	1.044619E-16	4.870133E-17
2.280000E+03	1.053364E-16	4.885302E-17
2.320000E+03	1.060579E-16	4.892098E-17
2.360000E+03	1.066456E-16	4.891483E-17
2.400000E+03	1.071224E-16	4.884565E-17
2.440000E+03	1.075088E-16	4.872341E-17
2.480000E+03	1.078372E-16	4.856307E-17
2.520000E+03	1.081229E-16	4.837174E-17
2.560000E+03	1.083878E-16	4.815931E-17
2.600000E+03	1.086391E-16	4.792887E-17
2.640000E+03	1.088871E-16	4.768484E-17
2.680000E+03	1.091337E-16	4.742783E-17
2.720000E+03	1.093809E-16	4.715851E-17
2.760000E+03	1.096311E-16	4.687765E-17
2.800000E+03	1.098835E-16	4.658476E-17
2.840000E+03	1.101386E-16	4.627975E-17
2.880000E+03	1.104034E-16	4.596537E-17
2.920000E+03	1.106790E-16	4.564183E-17
2.960000E+03	1.109811E-16	4.531521E-17
3.000000E+03	1.113158E-16	4.498756E-17
3.010000E+03	1.114091E-16	4.490723E-17
3.020000E+03	1.115037E-16	4.482650E-17
3.030000E+03	1.115996E-16	4.474535E-17
3.040000E+03	1.117018E-16	4.466576E-17
3.050000E+03	1.118075E-16	4.458665E-17
3.060000E+03	1.119168E-16	4.450796E-17
3.070000E+03	1.120320E-16	4.443063E-17
3.080000E+03	1.121505E-16	4.435362E-17
3.090000E+03	1.122722E-16	4.427690E-17
3.100000E+03	1.124018E-16	4.420226E-17
3.110000E+03	1.125345E-16	4.412779E-17
3.120000E+03	1.126724E-16	4.405434E-17
3.130000E+03	1.128133E-16	4.398099E-17
3.140000E+03	1.129638E-16	4.391029E-17
3.150000E+03	1.131170E-16	4.383958E-17
3.160000E+03	1.132750E-16	4.376965E-17
3.170000E+03	1.134401E-16	4.370132E-17
3.180000E+03	1.136119E-16	4.363447E-17
3.190000E+03	1.137862E-16	4.356743E-17
3.200000E+03	1.139692E-16	4.350258E-17
3.210000E+03	1.141567E-16	4.343823E-17
3.220000E+03	1.143505E-16	4.337514E-17
3.230000E+03	1.145486E-16	4.331246E-17
3.240000E+03	1.147529E-16	4.325093E-17
3.250000E+03	1.149633E-16	4.319047E-17
3.260000E+03	1.151797E-16	4.313104E-17
3.270000E+03	1.154002E-16	4.307185E-17
3.280000E+03	1.156265E-16	4.301360E-17
3.290000E+03	1.158587E-16	4.295623E-17
3.300000E+03	1.160947E-16	4.289900E-17
3.310000E+03	1.163365E-16	4.284258E-17
3.320000E+03	1.165820E-16	4.278624E-17
3.330000E+03	1.168332E-16	4.273064E-17
3.340000E+03	1.170881E-16	4.267507E-17
3.350000E+03	1.173468E-16	4.261952E-17
3.360000E+03	1.176093E-16	4.256398E-17
3.370000E+03	1.178754E-16	4.250842E-17
3.380000E+03	1.181454E-16	4.245285E-17
3.390000E+03	1.184174E-16	4.239664E-17
3.400000E+03	1.186931E-16	4.234039E-17
3.410000E+03	1.189693E-16	4.228290E-17
3.420000E+03	1.192493E-16	4.222540E-17
3.430000E+03	1.195299E-16	4.216668E-17
3.440000E+03	1.198111E-16	4.210681E-17
3.450000E+03	1.200930E-16	4.204579E-17
3.460000E+03	1.203741E-16	4.198311E-17
3.470000E+03	1.206561E-16	4.191936E-17
3.480000E+03	1.209376E-16	4.185404E-17
3.490000E+03	1.212169E-16	4.178663E-17
3.500000E+03	1.214944E-16	4.171720E-17
3.510000E+03	1.217686E-16	4.164531E-17
3.520000E+03	1.220412E-16	4.157154E-17
3.530000E+03	1.223078E-16	4.149441E-17
3.540000E+03	1.225701E-16	4.141455E-17
3.550000E+03	1.228269E-16	4.133152E-17
3.560000E+03	1.230783E-16	4.124547E-17
3.570000E+03	1.233217E-16	4.115548E-17
3.580000E+03	1.235558E-16	4.106122E-17
3.590000E+03	1.237824E-16	4.096332E-17
3.600000E+03	1.239975E-16	4.086048E-17
3.610000E+03	1.242027E-16	4.075334E-17
3.620000E+03	1.243971E-16	4.064159E-17
3.630000E+03	1.245781E-16	4.052448E-17
3.640000E+03	1.247447E-16	4.040175E-17
3.650000E+03	1.248972E-16	4.027359E-17
3.660000E+03	1.250333E-16	4.013932E-17
3.670000E+03	1.251549E-16	3.999960E-17
3.680000E+03	1.252581E-16	3.985332E-17
3.690000E+03	1.253433E-16	3.970071E-17
3.700000E+03	1.254099E-16	3.954160E-17
3.710000E+03	1.254580E-16	3.937620E-17
3.720000E+03	1.254855E-16	3.920392E-17
3.730000E+03	1.254929E-16	3.902501E-17
3.740000E+03	1.254793E-16	3.883931E-17
3.750000E+03	1.254451E-16	3.864705E-17
3.760000E+03	1.253895E-16	3.844809E-17
3.770000E+03	1.253128E-16	3.824266E-17
3.780000E+03	1.252141E-16	3.803061E-17
3.790000E+03	1.250927E-16	3.781180E-17
3.800000E+03	1.249514E-16	3.758721E-17
3.810000E+03	1.247869E-16	3.735596E-17
3.820000E+03	1.246007E-16	3.711864E-17
3.830000E+03	1.243943E-16	3.687583E-17
3.840000E+03	1.241657E-16	3.662702E-17
3.850000E+03	1.239152E-16	3.637242E-17
3.860000E+03	1.236443E-16	3.611260E-17
3.870000E+03	1.233532E-16	3.584772E-17
3.880000E+03	1.230421E-16	3.557798E-17
3.890000E+03	1.227102E-16	3.530323E-17
3.900000E+03	1.223588E-16	3.502397E-17
3.910000E+03	1.219881E-16	3.474037E-17
3.920000E+03	1.215982E-16	3.445259E-17
3.930000E+03	1.211893E-16	3.416079E-17
3.940000E+03	1.207616E-16	3.386511E-17
3.950000E+03	1.203163E-16	3.356601E-17
3.960000E+03	1.198536E-16	3.326362E-17
3.970000E+03	1.193723E-16	3.295777E-17
3.980000E+03	1.188749E-16	3.264919E-17
3.990000E+03	1.183602E-16	3.233768E-17
4.000000E+03	1.178294E-16	3.202367E-17
4.010000E+03	1.172825E-16	3.170725E-17
4.020000E+03	1.167185E-16	3.138824E-17
4.030000E+03	1.161396E-16	3.106731E-17
4.040000E+03	1.155446E-16	3.074427E-17
4.050000E+03	1.149347E-16	3.041949E-17
4.060000E+03	1.143098E-16	3.009305E-17
4.070000E+03	1.136699E-16	2.976503E-17
4.080000E+03	1.130150E-16	2.943552E-17
4.090000E+03	1.123461E-16	2.910485E-17
4.100000E+03	1.116621E-16	2.877284E-17
4.110000E+03	1.109630E-16	2.843956E-17
4.120000E+03	1.102508E-16	2.810558E-17
4.130000E+03	1.095235E-16	2.777048E-17
4.140000E+03	1.087821E-16	2.743458E-17
4.150000E+03	1.080264E-16	2.709793E-17
4.160000E+03	1.072565E-16	2.676061E-17
4.170000E+03	1.064723E-16	2.642268E-17
4.180000E+03	1.056739E-16	2.608421E-17
4.190000E+03	1.048612E-16	2.574526E-17
4.200000E+03	1.040343E-16	2.540590E-17
4.210000E+03	1.031931E-16	2.506620E-17
4.220000E+03	1.023377E-16	2.472622E-17
4.230000E+03	1.014672E-16	2.438582E-17
4.240000E+03	1.005817E-16	2.404507E-17
4.250000E+03	9.968215E-17	2.370426E-17
4.260000E+03	9.876855E-17	2.336344E-17
4.270000E+03	9.783923E-17	2.302223E-17
4.280000E+03	9.689509E-17	2.268083E-17
4.290000E+03	9.593612E-17	2.233926E-17
4.300000E+03	9.496236E-17	2.199750E-17
4.310000E+03	9.397383E-17	2.165558E-17
4.320000E+03	9.296982E-17	2.131332E-17
4.330000E+03	9.195206E-17	2.097113E-17
4.340000E+03	9.091907E-17	2.062865E-17
4.350000E+03	8.987259E-17	2.028629E-17
4.360000E+03	8.881281E-17	1.994408E-17
4.370000E+03	8.774068E-17	1.960223E-17
4.380000E+03	8.665636E-17	1.926077E-17
4.390000E+03	8.556086E-17	1.891991E-17
4.400000E+03	8.445427E-17	1.857966E-17
4.410000E+03	8.333813E-17	1.824034E-17
4.420000E+03	8.221249E-17	1.790197E-17
4.430000E+03	8.107741E-17	1.756452E-17
4.440000E+03	7.993446E-17	1.722833E-17
4.450000E+03	7.878373E-17	1.689340E-17
4.460000E+03	7.762608E-17	1.655991E-17
4.470000E+03	7.646303E-17	1.622814E-17
4.480000E+03	7.529406E-17	1.589798E-17
4.490000E+03	7.412073E-17	1.556973E-17
4.500000E+03	7.294394E-17	1.524355E-17
4.510000E+03	7.176398E-17	1.491945E-17
4.520000E+03	7.058179E-17	1.459761E-17
4.530000E+03	6.939838E-17	1.427821E-17
4.540000E+03	6.821472E-17	1.396139E-17
4.550000E+03	6.703180E-17	1.364734E-17
4.560000E+03	6.584996E-17	1.333609E-17
4.570000E+03	6.466958E-17	1.302768E-17
4.580000E+03	6.349288E-17	1.272252E-17
4.590000E+03	6.231961E-17	1.242053E-17
4.600000E+03	6.115013E-17	1.212174E-17
4.610000E+03	5.998599E-17	1.182643E-17
4.620000E+03	5.882812E-17	1.153475E-17
4.630000E+03	5.767573E-17	1.124650E-17
4.640000E+03	5.653140E-17	1.096215E-17
4.650000E+03	5.539383E-17	1.068142E-17
4.660000E+03	5.426496E-17	1.040465E-17
4.670000E+03	5.314513E-17	1.013186E-17
4.680000E+03	5.203462E-17	9.863074E-18
4.690000E+03	5.093375E-17	9.598324E-18
4.700000E+03	4.984286E-17	9.337633E-18
4.710000E+03	4.876319E-17	9.081203E-18
4.720000E+03	4.769454E-17	8.828962E-18
4.730000E+03	4.663737E-17	8.580959E-18
4.740000E+03	4.559288E-17	8.337385E-18
4.750000E+03	4.456092E-17	8.098171E-18
4.760000E+03	4.354352E-17	7.863653E-18
4.770000E+03	4.253999E-17	7.633668E-18
4.780000E+03	4.155180E-17	7.408438E-18
4.790000E+03	4.057948E-17	7.188016E-18
4.800000E+03	3.962267E-17	6.972300E-18
4.810000E+03	3.868226E-17	6.761403E-18
4.820000E+03	3.775904E-17	6.555419E-18
4.830000E+03	3.685260E-17	6.354232E-18
4.840000E+03	3.596364E-17	6.157919E-18
4.850000E+03	3.509243E-17	5.966480E-18
4.860000E+03	3.423885E-17	5.779849E-18
4.870000E+03	3.340312E-17	5.598016E-18
4.880000E+03	3.258576E-17	5.421020E-18
4.890000E+03	3.178654E-17	5.248776E-18
4.900000E+03	3.100591E-17	5.081307E-18
4.910000E+03	3.024328E-17	4.918470E-18
4.920000E+03	2.949901E-17	4.760274E-18
4.930000E+03	2.877313E-17	4.606673E-18
4.940000E+03	2.806532E-17	4.457565E-18
4.950000E+03	2.737582E-17	4.312942E-18
4.960000E+03	2.670430E-17	4.172698E-18
4.970000E+03	2.605095E-17	4.036813E-18
4.980000E+03	2.541539E-17	3.905179E-18
4.990000E+03	2.479750E-17	3.777725E-18
5.000000E+03	2.419688E-17	3.654341E-18
5.010000E+03	2.361389E-17	3.535033E-18
5.020000E+03	2.304785E-17	3.419646E-18
5.030000E+03	2.249860E-17	3.308109E-18
5.040000E+03	2.196618E-17	3.200377E-18
5.050000E+03	2.145016E-17	3.096337E-18
5.060000E+03	2.095032E-17	2.995911E-18
5.070000E+03	2.046645E-17	2.899019E-18
5.080000E+03	1.999831E-17	2.805580E-18
5.090000E+03	1.954548E-17	2.715489E-18
5.100000E+03	1.910773E-17	2.628664E-18
5.110000E+03	1.868502E-17	2.545056E-18
5.120000E+03	1.827673E-17	2.464535E-18
5.130000E+03	1.788299E-17	2.387075E-18
5.140000E+03	1.750301E-17	2.312526E-18
5.150000E+03	1.713695E-17	2.240864E-18
5.160000E+03	1.678436E-17	2.171993E-18
5.170000E+03	1.644503E-17	2.105842E-18
5.180000E+03	1.611873E-17	2.042343E-18
5.190000E+03	1.580506E-17	1.981405E-18
5.200000E+03	1.550381E-17	1.922966E-18
5.210000E+03	1.521462E-17	1.866943E-18
5.220000E+03	1.493759E-17	1.813314E-18
5.230000E+03	1.467205E-17	1.761964E-18
5.240000E+03	1.441798E-17	1.712858E-18
5.250000E+03	1.417519E-17	1.665940E-18
5.260000E+03	1.394350E-17	1.621162E-18
5.270000E+03	1.372244E-17	1.578439E-18
5.280000E+03	1.351202E-17	1.537745E-18
5.290000E+03	1.331193E-17	1.499020E-18
5.300000E+03	1.312204E-17	1.462226E-18
5.310000E+03	1.294210E-17	1.427312E-18
5.320000E+03	1.277210E-17	1.394257E-18
5.330000E+03	1.261168E-17	1.363003E-18
5.340000E+03	1.246075E-17	1.333521E-18
5.350000E+03	1.231909E-17	1.305775E-18
5.360000E+03	1.218675E-17	1.279757E-18
5.370000E+03	1.206331E-17	1.255410E-18
5.380000E+03	1.194883E-17	1.232731E-18
5.390000E+03	1.184316E-17	1.211697E-18
5.400000E+03	1.174616E-17	1.192288E-18
5.410000E+03	1.165747E-17	1.174463E-18
5.420000E+03	1.157696E-17	1.158209E-18
5.430000E+03	1.150456E-17	1.143517E-18
5.440000E+03	1.143972E-17	1.130338E-18
5.450000E+03	1.138238E-17	1.118668E-18
5.460000E+03	1.133214E-17	1.108475E-18
5.470000E+03	1.128886E-17	1.099753E-18
5.480000E+03	1.125295E-17	1.092552E-18
5.490000E+03	1.122441E-17	1.086881E-18
5.500000E+03	1.120361E-17	1.082787E-18
5.510000E+03	1.119055E-17	1.080283E-18
5.520000E+03	1.118555E-17	1.079413E-18
5.530000E+03	1.118839E-17	1.080169E-18
5.540000E+03	1.119917E-17	1.082565E-18
5.550000E+03	1.121776E-17	1.086574E-18
5.560000E+03	1.124438E-17	1.092204E-18
5.570000E+03	1.127881E-17	1.099421E-18
5.580000E+03	1.132108E-17	1.108219E-18
5.590000E+03	1.137109E-17	1.118578E-18
5.600000E+03	1.142902E-17	1.130506E-18
5.610000E+03	1.149470E-17	1.143982E-18
5.620000E+03	1.156819E-17	1.159006E-18
5.630000E+03	1.164958E-17	1.175583E-18
5.640000E+03	1.173886E-17	1.193711E-18
5.650000E+03	1.183612E-17	1.213399E-18
5.660000E+03	1.194126E-17	1.234636E-18
5.670000E+03	1.205439E-17	1.257436E-18
5.680000E+03	1.217566E-17	1.281820E-18
5.690000E+03	1.230510E-17	1.307795E-18
5.700000E+03	1.244273E-17	1.335372E-18
5.710000E+03	1.258860E-17	1.364562E-18
5.720000E+03	1.274302E-17	1.395410E-18
5.730000E+03	1.290578E-17	1.427904E-18
5.740000E+03	1.307721E-17	1.462091E-18
5.750000E+03	1.325739E-17	1.497995E-18
5.760000E+03	1.344623E-17	1.535621E-18
5.770000E+03	1.364398E-17	1.575010E-18
5.780000E+03	1.385084E-17	1.616205E-18
5.790000E+03	1.406676E-17	1.659215E-18
5.800000E+03	1.429183E-17	1.704070E-18
5.810000E+03	1.452644E-17	1.750838E-18
5.820000E+03	1.477038E-17	1.799510E-18
5.830000E+03	1.502391E-17	1.850139E-18
5.840000E+03	1.528710E-17	1.902756E-18
5.850000E+03	1.556005E-17	1.957393E-18
5.860000E+03	1.584304E-17	2.014107E-18
5.870000E+03	1.613580E-17	2.072886E-18
5.880000E+03	1.643876E-17	2.133808E-18
5.890000E+03	1.675183E-17	2.196882E-18
5.900000E+03	1.707509E-17	2.262140E-18
5.910000E+03	1.740859E-17	2.329612E-18
5.920000E+03	1.775240E-17	2.399328E-18
5.930000E+03	1.810678E-17	2.471342E-18
5.940000E+03	1.847134E-17	2.545625E-18
5.950000E+03	1.884612E-17	2.622199E-18
5.960000E+03	1.923132E-17	2.701113E-18
5.970000E+03	1.962697E-17	2.782387E-18
5.980000E+03	2.003258E-17	2.865970E-18
5.990000E+03	2.044856E-17	2.951938E-18
6.000000E+03	2.087416E-17	3.040194E-18
6.010000E+03	2.131000E-17	3.130844E-18
6.020000E+03	2.175524E-17	3.223776E-18
6.030000E+03	2.220974E-17	3.318977E-18
6.040000E+03	2.267357E-17	3.416467E-18
6.050000E+03	2.314629E-17	3.516186E-18
6.060000E+03	2.362766E-17	3.618104E-18
6.070000E+03	2.411686E-17	3.722094E-18
6.080000E+03	2.461415E-17	3.828198E-18
6.090000E+03	2.511833E-17	3.936224E-18
6.100000E+03	2.562959E-17	4.046201E-18
6.110000E+03	2.614723E-17	4.158009E-18
6.120000E+03	2.667048E-17	4.271516E-18
6.130000E+03	2.719883E-17	4.386626E-18
6.140000E+03	2.773207E-17	4.503293E-18
6.150000E+03	2.826932E-17	4.621356E-18
6.160000E+03	2.880994E-17	4.740691E-18
6.170000E+03	2.935405E-17	4.861296E-18
6.180000E+03	2.990025E-17	4.982914E-18
6.190000E+03	3.044821E-17	5.105467E-18
6.200000E+03	3.099769E-17	5.228885E-18
6.210000E+03	3.154860E-17	5.353126E-18
6.220000E+03	3.210007E-17	5.478012E-18
6.230000E+03	3.265161E-17	5.603426E-18
6.240000E+03	3.320310E-17	5.729317E-18
6.250000E+03	3.375361E-17	5.855492E-18
6.260000E+03	3.430305E-17	5.981898E-18
6.270000E+03	3.485089E-17	6.108407E-18
6.280000E+03	3.539705E-17	6.234969E-18
6.290000E+03	3.594102E-17	6.361459E-18
6.300000E+03	3.648227E-17	6.487744E-18
6.310000E+03	3.702077E-17	6.613782E-18
6.320000E+03	3.755651E-17	6.739535E-18
6.330000E+03	3.808850E-17	6.864786E-18
6.340000E+03	3.861676E-17	6.989501E-18
6.350000E+03	3.914139E-17	7.113657E-18
6.360000E+03	3.966139E-17	7.237039E-18
6.370000E+03	4.017749E-17	7.359735E-18
6.380000E+03	4.068930E-17	7.481636E-18
6.390000E+03	4.119645E-17	7.602635E-18
6.400000E+03	4.169860E-17	7.722629E-18
6.410000E+03	4.219660E-17	7.841738E-18
6.420000E+03	4.268955E-17	7.959755E-18
6.430000E+03	4.317841E-17	8.076823E-18
6.440000E+03	4.366293E-17	8.192860E-18
6.450000E+03	4.414287E-17	8.307787E-18
6.460000E+03	4.461870E-17	8.421655E-18
6.470000E+03	4.509022E-17	8.534394E-18
6.480000E+03	4.555797E-17	8.646072E-18
6.490000E+03	4.602037E-17	8.756361E-18
6.500000E+03	4.647870E-17	8.865468E-18
6.510000E+03	4.693281E-17	8.973338E-18
6.520000E+03	4.738189E-17	9.079782E-18
6.530000E+03	4.782654E-17	9.184888E-18
6.540000E+03	4.826668E-17	9.288610E-18
6.550000E+03	4.870223E-17	9.390905E-18
6.560000E+03	4.913312E-17	9.491735E-18
6.570000E+03	4.956009E-17	9.591216E-18
6.580000E+03	4.998232E-17	9.689162E-18
6.590000E+03	5.039976E-17	9.785542E-18
6.600000E+03	5.081321E-17	9.880487E-18
6.610000E+03	5.122269E-17	9.973978E-18
6.620000E+03	5.162737E-17	1.006583E-17
6.630000E+03	5.202810E-17	1.015619E-17
6.640000E+03	5.242404E-17	1.024488E-17
6.650000E+03	5.281700E-17	1.033222E-17
6.660000E+03	5.320524E-17	1.041787E-17
6.670000E+03	5.358880E-17	1.050181E-17
6.680000E+03	5.396863E-17	1.058421E-17
6.690000E+03	5.434484E-17	1.066508E-17
6.700000E+03	5.471652E-17	1.074422E-17
6.710000E+03	5.508376E-17	1.082165E-17
6.720000E+03	5.544759E-17	1.089754E-17
6.730000E+03	5.580713E-17	1.097172E-17
6.740000E+03	5.616346E-17	1.104438E-17
6.750000E+03	5.651468E-17	1.111515E-17
6.760000E+03	5.686287E-17	1.118443E-17
6.770000E+03	5.720613E-17	1.125183E-17
6.780000E+03	5.754660E-17	1.131776E-17
6.790000E+03	5.788231E-17	1.138184E-17
6.800000E+03	5.821440E-17	1.144428E-17
6.810000E+03	5.854301E-17	1.150511E-17
6.820000E+03	5.886717E-17	1.156414E-17
6.830000E+03	5.918806E-17	1.162159E-17
6.840000E+03	5.950473E-17	1.167728E-17
6.850000E+03	5.981838E-17	1.173144E-17
6.860000E+03	6.012692E-17	1.178367E-17
6.870000E+03	6.043268E-17	1.183442E-17
6.880000E+03	6.073469E-17	1.188351E-17
6.890000E+03	6.103306E-17	1.193096E-17
6.900000E+03	6.132675E-17	1.197657E-17
6.910000E+03	6.161819E-17	1.202084E-17
6.920000E+03	6.190402E-17	1.206311E-17
6.930000E+03	6.218788E-17	1.210409E-17
6.940000E+03	6.246752E-17	1.214337E-17
6.950000E+03	6.274307E-17	1.218097E-17
6.960000E+03	6.301584E-17	1.221716E-17
6.970000E+03	6.328477E-17	1.225175E-17
6.980000E+03	6.354995E-17	1.228478E-17
6.990000E+03	6.381151E-17	1.231629E-17
7.000000E+03	6.406959E-17	1.234630E-17
7.010000E+03	6.432427E-17	1.237487E-17
7.020000E+03	6.457443E-17	1.240180E-17
7.030000E+03	6.482273E-17	1.242761E-17
7.040000E+03	6.506543E-17	1.245161E-17
7.050000E+03	6.530653E-17	1.247459E-17
7.060000E+03	6.554224E-17	1.249585E-17
7.070000E+03	6.577526E-17	1.251592E-17
7.080000E+03	6.600442E-17	1.253462E-17
7.090000E+03	6.622982E-17	1.255198E-17
7.100000E+03	6.645288E-17	1.256831E-17
7.110000E+03	6.667104E-17	1.258316E-17
7.120000E+03	6.688576E-17	1.259682E-17
7.130000E+03	6.709577E-17	1.260909E-17
7.140000E+03	6.730251E-17	1.262028E-17
7.150000E+03	6.750609E-17	1.263044E-17
7.160000E+03	6.770523E-17	1.263936E-17
7.170000E+03	6.790139E-17	1.264737E-17
7.180000E+03	6.809192E-17	1.265400E-17
7.190000E+03	6.827963E-17	1.265981E-17
7.200000E+03	6.846325E-17	1.266461E-17
7.210000E+03	6.864143E-17	1.266820E-17
7.220000E+03	6.881564E-17	1.267088E-17
7.230000E+03	6.898598E-17	1.267273E-17
7.240000E+03	6.915108E-17	1.267353E-17
7.250000E+03	6.931099E-17	1.267334E-17
7.260000E+03	6.946579E-17	1.267223E-17
7.270000E+03	6.961551E-17	1.267024E-17
7.280000E+03	6.976022E-17	1.266745E-17
7.290000E+03	6.989705E-17	1.266338E-17
7.300000E+03	7.002895E-17	1.265863E-17
7.310000E+03	7.015451E-17	1.265298E-17
7.320000E+03	7.027228E-17	1.264624E-17
7.330000E+03	7.038375E-17	1.263872E-17
7.340000E+03	7.048602E-17	1.262997E-17
7.350000E+03	7.057907E-17	1.262004E-17
7.360000E+03	7.066291E-17	1.260899E-17
7.370000E+03	7.073606E-17	1.259661E-17
7.380000E+03	7.079999E-17	1.258323E-17
7.390000E+03	7.085023E-17	1.256812E-17
7.400000E+03	7.088972E-17	1.255185E-17
7.410000E+03	7.091548E-17	1.253397E-17
7.420000E+03	7.092895E-17	1.251477E-17
7.430000E+03	7.092863E-17	1.249407E-17
7.440000E+03	7.091448E-17	1.247191E-17
7.450000E+03	7.088798E-17	1.244861E-17
7.460000E+03	7.084761E-17	1.242396E-17
7.470000E+03	7.079792E-17	1.239880E-17
7.480000E+03	7.073584E-17	1.237266E-17
7.490000E+03	7.066444E-17	1.234611E-17
7.500000E+03	7.058217E-17	1.231894E-17
7.510000E+03	7.049364E-17	1.229198E-17
7.520000E+03	7.039746E-17	1.226501E-17
7.530000E+03	7.029383E-17	1.223803E-17
7.540000E+03	7.018456E-17	1.221130E-17
7.550000E+03	7.006992E-17	1.218483E-17
7.560000E+03	6.995324E-17	1.215915E-17
7.570000E+03	6.983168E-17	1.213372E-17
7.580000E+03	6.970704E-17	1.210882E-17
7.590000E+03	6.958112E-17	1.208469E-17
7.600000E+03	6.945261E-17	1.206108E-17
7.610000E+03	6.932328E-17	1.203823E-17
7.620000E+03	6.919183E-17	1.201587E-17
7.630000E+03	6.906160E-17	1.199454E-17
7.640000E+03	6.892967E-17	1.197368E-17
7.650000E+03	6.879939E-17	1.195383E-17
7.660000E+03	6.866786E-17	1.193442E-17
7.670000E+03	6.853838E-17	1.191600E-17
7.680000E+03	6.840806E-17	1.189800E-17
7.690000E+03	6.828020E-17	1.188096E-17
7.700000E+03	6.815343E-17	1.186460E-17
7.710000E+03	6.802793E-17	1.184890E-17
7.720000E+03	6.790389E-17	1.183386E-17
7.730000E+03	6.778147E-17	1.181945E-17
7.740000E+03	6.766084E-17	1.180566E-17
7.750000E+03	6.754062E-17	1.179222E-17
7.760000E+03	6.742408E-17	1.177965E-17
