#wls	flux	fluxerr
1.600000E+03	3.680600E-17	1.642439E-17
1.640000E+03	3.744269E-17	1.664611E-17
1.680000E+03	3.810562E-17	1.687497E-17
1.720000E+03	3.879332E-17	1.710998E-17
1.760000E+03	3.950727E-17	1.735147E-17
1.800000E+03	4.025194E-17	1.760104E-17
1.840000E+03	4.101780E-17	1.785415E-17
1.880000E+03	4.181179E-17	1.811344E-17
1.920000E+03	4.263041E-17	1.837699E-17
1.960000E+03	4.346987E-17	1.864276E-17
2.000000E+03	4.432336E-17	1.890745E-17
2.040000E+03	4.518707E-17	1.916906E-17
2.080000E+03	4.605149E-17	1.942324E-17
2.120000E+03	4.690196E-17	1.966355E-17
2.160000E+03	4.773331E-17	1.988763E-17
2.200000E+03	4.853002E-17	2.008894E-17
2.240000E+03	4.928081E-17	2.026282E-17
2.280000E+03	4.998082E-17	2.040739E-17
2.320000E+03	5.063096E-17	2.052319E-17
2.360000E+03	5.123961E-17	2.061377E-17
2.400000E+03	5.181676E-17	2.068324E-17
2.440000E+03	5.237161E-17	2.073531E-17
2.480000E+03	5.291906E-17	2.077579E-17
2.520000E+03	5.346590E-17	2.080717E-17
2.560000E+03	5.402242E-17	2.083319E-17
2.600000E+03	5.459158E-17	2.085464E-17
2.640000E+03	5.517801E-17	2.087289E-17
2.680000E+03	5.578197E-17	2.088760E-17
2.720000E+03	5.640376E-17	2.089844E-17
2.760000E+03	5.704374E-17	2.090510E-17
2.800000E+03	5.770058E-17	2.090662E-17
2.840000E+03	5.837339E-17	2.090224E-17
2.880000E+03	5.906471E-17	2.089241E-17
2.920000E+03	5.977391E-17	2.087644E-17
2.960000E+03	6.050815E-17	2.085634E-17
3.000000E+03	6.126962E-17	2.083229E-17
3.010000E+03	6.146658E-17	2.082638E-17
3.020000E+03	6.166476E-17	2.082001E-17
3.030000E+03	6.186412E-17	2.081317E-17
3.040000E+03	6.206738E-17	2.080674E-17
3.050000E+03	6.227310E-17	2.080024E-17
3.060000E+03	6.248120E-17	2.079362E-17
3.070000E+03	6.269296E-17	2.078731E-17
3.080000E+03	6.290698E-17	2.078081E-17
3.090000E+03	6.312316E-17	2.077409E-17
3.100000E+03	6.334412E-17	2.076799E-17
3.110000E+03	6.356712E-17	2.076160E-17
3.120000E+03	6.379341E-17	2.075532E-17
3.130000E+03	6.402166E-17	2.074869E-17
3.140000E+03	6.425562E-17	2.074293E-17
3.150000E+03	6.449138E-17	2.073674E-17
3.160000E+03	6.473017E-17	2.073052E-17
3.170000E+03	6.497315E-17	2.072462E-17
3.180000E+03	6.522027E-17	2.071900E-17
3.190000E+03	6.546896E-17	2.071283E-17
3.200000E+03	6.572287E-17	2.070726E-17
3.210000E+03	6.597947E-17	2.070147E-17
3.220000E+03	6.623992E-17	2.069580E-17
3.230000E+03	6.650296E-17	2.068986E-17
3.240000E+03	6.676973E-17	2.068398E-17
3.250000E+03	6.704017E-17	2.067812E-17
3.260000E+03	6.731419E-17	2.067225E-17
3.270000E+03	6.759061E-17	2.066599E-17
3.280000E+03	6.787057E-17	2.065966E-17
3.290000E+03	6.815395E-17	2.065323E-17
3.300000E+03	6.843965E-17	2.064635E-17
3.310000E+03	6.872870E-17	2.063930E-17
3.320000E+03	6.902001E-17	2.063176E-17
3.330000E+03	6.931461E-17	2.062402E-17
3.340000E+03	6.961138E-17	2.061574E-17
3.350000E+03	6.991034E-17	2.060691E-17
3.360000E+03	7.021145E-17	2.059752E-17
3.370000E+03	7.051473E-17	2.058755E-17
3.380000E+03	7.082011E-17	2.057699E-17
3.390000E+03	7.112662E-17	2.056554E-17
3.400000E+03	7.143526E-17	2.055349E-17
3.410000E+03	7.174398E-17	2.054025E-17
3.420000E+03	7.205486E-17	2.052641E-17
3.430000E+03	7.236589E-17	2.051138E-17
3.440000E+03	7.267708E-17	2.049519E-17
3.450000E+03	7.298850E-17	2.047785E-17
3.460000E+03	7.329918E-17	2.045909E-17
3.470000E+03	7.361018E-17	2.043921E-17
3.480000E+03	7.392056E-17	2.041796E-17
3.490000E+03	7.422939E-17	2.039509E-17
3.500000E+03	7.453677E-17	2.037064E-17
3.510000E+03	7.484183E-17	2.034439E-17
3.520000E+03	7.514558E-17	2.031662E-17
3.530000E+03	7.544532E-17	2.028662E-17
3.540000E+03	7.574207E-17	2.025469E-17
3.550000E+03	7.603500E-17	2.022063E-17
3.560000E+03	7.632426E-17	2.018450E-17
3.570000E+03	7.660814E-17	2.014588E-17
3.580000E+03	7.688588E-17	2.010461E-17
3.590000E+03	7.715852E-17	2.006099E-17
3.600000E+03	7.742356E-17	2.001440E-17
3.610000E+03	7.768203E-17	1.996516E-17
3.620000E+03	7.793323E-17	1.991314E-17
3.630000E+03	7.817559E-17	1.985797E-17
3.640000E+03	7.840843E-17	1.979954E-17
3.650000E+03	7.863200E-17	1.973797E-17
3.660000E+03	7.884474E-17	1.967292E-17
3.670000E+03	7.904776E-17	1.960473E-17
3.680000E+03	7.923870E-17	1.953288E-17
3.690000E+03	7.941784E-17	1.945751E-17
3.700000E+03	7.958456E-17	1.937854E-17
3.710000E+03	7.973911E-17	1.929610E-17
3.720000E+03	7.988007E-17	1.920992E-17
3.730000E+03	8.000768E-17	1.912014E-17
3.740000E+03	8.012141E-17	1.902672E-17
3.750000E+03	8.022147E-17	1.892978E-17
3.760000E+03	8.030731E-17	1.882928E-17
3.770000E+03	8.037917E-17	1.872536E-17
3.780000E+03	8.043650E-17	1.861797E-17
3.790000E+03	8.047874E-17	1.850708E-17
3.800000E+03	8.050770E-17	1.839318E-17
3.810000E+03	8.052125E-17	1.827588E-17
3.820000E+03	8.052041E-17	1.815551E-17
3.830000E+03	8.050614E-17	1.803235E-17
3.840000E+03	8.047711E-17	1.790620E-17
3.850000E+03	8.043353E-17	1.777720E-17
3.860000E+03	8.037635E-17	1.764565E-17
3.870000E+03	8.030574E-17	1.751166E-17
3.880000E+03	8.022188E-17	1.737537E-17
3.890000E+03	8.012416E-17	1.723672E-17
3.900000E+03	8.001347E-17	1.709599E-17
3.910000E+03	7.988998E-17	1.695330E-17
3.920000E+03	7.975381E-17	1.680876E-17
3.930000E+03	7.960507E-17	1.666247E-17
3.940000E+03	7.944388E-17	1.651454E-17
3.950000E+03	7.927107E-17	1.636522E-17
3.960000E+03	7.908671E-17	1.621460E-17
3.970000E+03	7.889017E-17	1.606263E-17
3.980000E+03	7.868298E-17	1.590969E-17
3.990000E+03	7.846444E-17	1.575573E-17
4.000000E+03	7.823534E-17	1.560096E-17
4.010000E+03	7.799571E-17	1.544547E-17
4.020000E+03	7.774489E-17	1.528919E-17
4.030000E+03	7.748431E-17	1.513248E-17
4.040000E+03	7.721328E-17	1.497527E-17
4.050000E+03	7.693249E-17	1.481776E-17
4.060000E+03	7.664195E-17	1.466001E-17
4.070000E+03	7.634166E-17	1.450209E-17
4.080000E+03	7.603159E-17	1.434405E-17
4.090000E+03	7.571241E-17	1.418609E-17
4.100000E+03	7.538341E-17	1.402812E-17
4.110000E+03	7.504459E-17	1.387020E-17
4.120000E+03	7.469721E-17	1.371264E-17
4.130000E+03	7.433992E-17	1.355522E-17
4.140000E+03	7.397332E-17	1.339812E-17
4.150000E+03	7.359738E-17	1.324138E-17
4.160000E+03	7.321204E-17	1.308504E-17
4.170000E+03	7.281722E-17	1.292915E-17
4.180000E+03	7.241289E-17	1.277373E-17
4.190000E+03	7.199897E-17	1.261883E-17
4.200000E+03	7.157540E-17	1.246447E-17
4.210000E+03	7.114211E-17	1.231069E-17
4.220000E+03	7.069904E-17	1.215751E-17
4.230000E+03	7.024550E-17	1.200486E-17
4.240000E+03	6.978141E-17	1.185277E-17
4.250000E+03	6.930732E-17	1.170136E-17
4.260000E+03	6.882316E-17	1.155065E-17
4.270000E+03	6.832764E-17	1.140044E-17
4.280000E+03	6.782109E-17	1.125080E-17
4.290000E+03	6.730319E-17	1.110165E-17
4.300000E+03	6.677360E-17	1.095294E-17
4.310000E+03	6.623197E-17	1.080458E-17
4.320000E+03	6.567737E-17	1.065642E-17
4.330000E+03	6.511064E-17	1.050858E-17
4.340000E+03	6.453031E-17	1.036080E-17
4.350000E+03	6.393722E-17	1.021320E-17
4.360000E+03	6.333107E-17	1.006573E-17
4.370000E+03	6.271213E-17	9.918392E-18
4.380000E+03	6.208015E-17	9.771135E-18
4.390000E+03	6.143538E-17	9.623978E-18
4.400000E+03	6.077760E-17	9.476862E-18
4.410000E+03	6.010768E-17	9.329896E-18
4.420000E+03	5.942536E-17	9.183015E-18
4.430000E+03	5.873047E-17	9.036165E-18
4.440000E+03	5.802390E-17	8.889455E-18
4.450000E+03	5.730547E-17	8.742829E-18
4.460000E+03	5.657558E-17	8.596315E-18
4.470000E+03	5.583514E-17	8.450023E-18
4.480000E+03	5.508356E-17	8.303829E-18
4.490000E+03	5.432179E-17	8.157844E-18
4.500000E+03	5.355040E-17	8.012100E-18
4.510000E+03	5.276956E-17	7.866570E-18
4.520000E+03	5.198005E-17	7.721312E-18
4.530000E+03	5.118265E-17	7.576387E-18
4.540000E+03	5.037821E-17	7.431865E-18
4.550000E+03	4.956755E-17	7.287815E-18
4.560000E+03	4.875108E-17	7.144242E-18
4.570000E+03	4.792926E-17	7.001163E-18
4.580000E+03	4.710391E-17	6.858794E-18
4.590000E+03	4.627502E-17	6.717085E-18
4.600000E+03	4.544311E-17	6.576063E-18
4.610000E+03	4.460955E-17	6.435881E-18
4.620000E+03	4.377526E-17	6.296628E-18
4.630000E+03	4.293992E-17	6.158213E-18
4.640000E+03	4.210573E-17	6.020913E-18
4.650000E+03	4.127200E-17	5.884588E-18
4.660000E+03	4.044051E-17	5.749455E-18
4.670000E+03	3.961181E-17	5.615555E-18
4.680000E+03	3.878646E-17	5.482933E-18
4.690000E+03	3.796502E-17	5.351635E-18
4.700000E+03	3.714811E-17	5.221718E-18
4.710000E+03	3.633704E-17	5.093334E-18
4.720000E+03	3.553200E-17	4.966483E-18
4.730000E+03	3.473359E-17	4.841221E-18
4.740000E+03	3.394272E-17	4.717649E-18
4.750000E+03	3.315929E-17	4.595730E-18
4.760000E+03	3.238488E-17	4.475659E-18
4.770000E+03	3.161903E-17	4.357349E-18
4.780000E+03	3.086294E-17	4.240948E-18
4.790000E+03	3.011711E-17	4.126503E-18
4.800000E+03	2.938143E-17	4.013980E-18
4.810000E+03	2.865670E-17	3.903471E-18
4.820000E+03	2.794364E-17	3.795057E-18
4.830000E+03	2.724213E-17	3.688704E-18
4.840000E+03	2.655282E-17	3.584487E-18
4.850000E+03	2.587608E-17	3.482441E-18
4.860000E+03	2.521200E-17	3.382561E-18
4.870000E+03	2.456088E-17	3.284874E-18
4.880000E+03	2.392325E-17	3.189439E-18
4.890000E+03	2.329910E-17	3.096241E-18
4.900000E+03	2.268886E-17	3.005322E-18
4.910000E+03	2.209225E-17	2.916635E-18
4.920000E+03	2.150965E-17	2.830217E-18
4.930000E+03	2.094116E-17	2.746068E-18
4.940000E+03	2.038667E-17	2.664161E-18
4.950000E+03	1.984643E-17	2.584520E-18
4.960000E+03	1.932029E-17	2.507109E-18
4.970000E+03	1.880841E-17	2.431942E-18
4.980000E+03	1.831061E-17	2.358980E-18
4.990000E+03	1.782683E-17	2.288205E-18
5.000000E+03	1.735684E-17	2.219576E-18
5.010000E+03	1.690090E-17	2.153114E-18
5.020000E+03	1.645856E-17	2.088751E-18
5.030000E+03	1.602971E-17	2.026461E-18
5.040000E+03	1.561439E-17	1.966236E-18
5.050000E+03	1.521227E-17	1.908025E-18
5.060000E+03	1.482322E-17	1.851798E-18
5.070000E+03	1.444704E-17	1.797521E-18
5.080000E+03	1.408357E-17	1.745160E-18
5.090000E+03	1.373247E-17	1.694663E-18
5.100000E+03	1.339356E-17	1.645997E-18
5.110000E+03	1.306678E-17	1.599140E-18
5.120000E+03	1.275165E-17	1.554025E-18
5.130000E+03	1.244824E-17	1.510649E-18
5.140000E+03	1.215595E-17	1.468926E-18
5.150000E+03	1.187483E-17	1.428854E-18
5.160000E+03	1.160455E-17	1.390381E-18
5.170000E+03	1.134490E-17	1.353473E-18
5.180000E+03	1.109568E-17	1.318092E-18
5.190000E+03	1.085656E-17	1.284192E-18
5.200000E+03	1.062736E-17	1.251739E-18
5.210000E+03	1.040777E-17	1.220689E-18
5.220000E+03	1.019781E-17	1.191034E-18
5.230000E+03	9.996970E-18	1.162706E-18
5.240000E+03	9.805189E-18	1.135689E-18
5.250000E+03	9.622285E-18	1.109952E-18
5.260000E+03	9.448087E-18	1.085468E-18
5.270000E+03	9.282230E-18	1.062187E-18
5.280000E+03	9.124666E-18	1.040097E-18
5.290000E+03	8.975147E-18	1.019161E-18
5.300000E+03	8.833528E-18	9.993577E-19
5.310000E+03	8.699587E-18	9.806548E-19
5.320000E+03	8.573282E-18	9.630421E-19
5.330000E+03	8.454321E-18	9.464817E-19
5.340000E+03	8.342594E-18	9.309565E-19
5.350000E+03	8.237905E-18	9.164408E-19
5.360000E+03	8.140245E-18	9.029298E-19
5.370000E+03	8.049281E-18	8.903837E-19
5.380000E+03	7.965005E-18	8.787993E-19
5.390000E+03	7.887273E-18	8.681588E-19
5.400000E+03	7.815937E-18	8.584449E-19
5.410000E+03	7.750697E-18	8.496241E-19
5.420000E+03	7.691439E-18	8.416845E-19
5.430000E+03	7.638035E-18	8.346128E-19
5.440000E+03	7.590074E-18	8.283657E-19
5.450000E+03	7.547447E-18	8.229339E-19
5.460000E+03	7.509840E-18	8.182862E-19
5.470000E+03	7.477071E-18	8.144062E-19
5.480000E+03	7.449365E-18	8.113230E-19
5.490000E+03	7.426616E-18	8.090294E-19
5.500000E+03	7.409033E-18	8.075541E-19
5.510000E+03	7.396678E-18	8.069095E-19
5.520000E+03	7.389833E-18	8.071335E-19
5.530000E+03	7.388415E-18	8.082247E-19
5.540000E+03	7.392559E-18	8.102010E-19
5.550000E+03	7.402236E-18	8.130569E-19
5.560000E+03	7.417641E-18	8.168119E-19
5.570000E+03	7.438688E-18	8.214552E-19
5.580000E+03	7.465408E-18	8.269898E-19
5.590000E+03	7.497791E-18	8.334150E-19
5.600000E+03	7.535976E-18	8.407475E-19
5.610000E+03	7.579875E-18	8.489794E-19
5.620000E+03	7.629557E-18	8.581210E-19
5.630000E+03	7.685107E-18	8.681853E-19
5.640000E+03	7.746542E-18	8.791783E-19
5.650000E+03	7.813956E-18	8.911153E-19
5.660000E+03	7.887295E-18	9.039958E-19
5.670000E+03	7.966655E-18	9.178363E-19
5.680000E+03	8.052166E-18	9.326586E-19
5.690000E+03	8.143864E-18	9.484742E-19
5.700000E+03	8.241797E-18	9.652961E-19
5.710000E+03	8.346015E-18	9.831386E-19
5.720000E+03	8.456749E-18	1.002037E-18
5.730000E+03	8.573887E-18	1.021989E-18
5.740000E+03	8.697666E-18	1.043030E-18
5.750000E+03	8.828172E-18	1.065182E-18
5.760000E+03	8.965373E-18	1.088451E-18
5.770000E+03	9.109439E-18	1.112869E-18
5.780000E+03	9.260557E-18	1.138469E-18
5.790000E+03	9.418712E-18	1.165261E-18
5.800000E+03	9.583981E-18	1.193266E-18
5.810000E+03	9.756655E-18	1.222533E-18
5.820000E+03	9.936614E-18	1.253058E-18
5.830000E+03	1.012405E-17	1.284878E-18
5.840000E+03	1.031905E-17	1.318015E-18
5.850000E+03	1.052169E-17	1.352493E-18
5.860000E+03	1.073218E-17	1.388350E-18
5.870000E+03	1.095036E-17	1.425578E-18
5.880000E+03	1.117653E-17	1.464228E-18
5.890000E+03	1.141065E-17	1.504307E-18
5.900000E+03	1.165277E-17	1.545835E-18
5.910000E+03	1.190296E-17	1.588830E-18
5.920000E+03	1.216124E-17	1.633308E-18
5.930000E+03	1.242781E-17	1.679306E-18
5.940000E+03	1.270240E-17	1.726800E-18
5.950000E+03	1.298502E-17	1.775800E-18
5.960000E+03	1.327582E-17	1.826335E-18
5.970000E+03	1.357478E-17	1.878413E-18
5.980000E+03	1.388155E-17	1.931993E-18
5.990000E+03	1.419640E-17	1.987121E-18
6.000000E+03	1.451877E-17	2.043724E-18
6.010000E+03	1.484905E-17	2.101866E-18
6.020000E+03	1.518664E-17	2.161462E-18
6.030000E+03	1.553136E-17	2.222493E-18
6.040000E+03	1.588324E-17	2.284968E-18
6.050000E+03	1.624191E-17	2.348830E-18
6.060000E+03	1.660713E-17	2.414052E-18
6.070000E+03	1.697828E-17	2.480538E-18
6.080000E+03	1.735547E-17	2.548303E-18
6.090000E+03	1.773778E-17	2.617209E-18
6.100000E+03	1.812529E-17	2.687263E-18
6.110000E+03	1.851741E-17	2.758373E-18
6.120000E+03	1.891355E-17	2.830442E-18
6.130000E+03	1.931327E-17	2.903396E-18
6.140000E+03	1.971637E-17	2.977194E-18
6.150000E+03	2.012215E-17	3.051721E-18
6.160000E+03	2.053012E-17	3.126888E-18
6.170000E+03	2.094032E-17	3.202689E-18
6.180000E+03	2.135171E-17	3.278951E-18
6.190000E+03	2.176406E-17	3.355620E-18
6.200000E+03	2.217710E-17	3.432642E-18
6.210000E+03	2.259062E-17	3.509965E-18
6.220000E+03	2.300382E-17	3.587448E-18
6.230000E+03	2.341618E-17	3.664989E-18
6.240000E+03	2.382745E-17	3.742532E-18
6.250000E+03	2.423683E-17	3.819929E-18
6.260000E+03	2.464407E-17	3.897121E-18
6.270000E+03	2.504866E-17	3.974005E-18
6.280000E+03	2.545042E-17	4.050532E-18
6.290000E+03	2.584885E-17	4.126598E-18
6.300000E+03	2.624345E-17	4.202103E-18
6.310000E+03	2.663407E-17	4.277001E-18
6.320000E+03	2.702062E-17	4.351254E-18
6.330000E+03	2.740228E-17	4.424709E-18
6.340000E+03	2.777896E-17	4.497329E-18
6.350000E+03	2.815066E-17	4.569091E-18
6.360000E+03	2.851662E-17	4.639849E-18
6.370000E+03	2.887728E-17	4.709652E-18
6.380000E+03	2.923234E-17	4.778425E-18
6.390000E+03	2.958149E-17	4.846097E-18
6.400000E+03	2.992444E-17	4.912596E-18
6.410000E+03	3.026178E-17	4.977997E-18
6.420000E+03	3.059285E-17	5.042170E-18
6.430000E+03	3.091833E-17	5.105204E-18
6.440000E+03	3.123802E-17	5.167048E-18
6.450000E+03	3.155177E-17	5.227655E-18
6.460000E+03	3.185987E-17	5.287056E-18
6.470000E+03	3.216223E-17	5.345215E-18
6.480000E+03	3.245921E-17	5.402176E-18
6.490000E+03	3.274972E-17	5.457739E-18
6.500000E+03	3.303467E-17	5.512039E-18
6.510000E+03	3.331399E-17	5.565049E-18
6.520000E+03	3.358711E-17	5.616656E-18
6.530000E+03	3.385450E-17	5.666925E-18
6.540000E+03	3.411612E-17	5.715837E-18
6.550000E+03	3.437196E-17	5.763373E-18
6.560000E+03	3.462199E-17	5.809517E-18
6.570000E+03	3.486677E-17	5.854353E-18
6.580000E+03	3.510576E-17	5.897775E-18
6.590000E+03	3.533897E-17	5.939778E-18
6.600000E+03	3.556702E-17	5.980453E-18
6.610000E+03	3.578993E-17	6.019796E-18
6.620000E+03	3.600719E-17	6.057711E-18
6.630000E+03	3.621944E-17	6.094300E-18
6.640000E+03	3.642613E-17	6.129461E-18
6.650000E+03	3.662856E-17	6.163409E-18
6.660000E+03	3.682559E-17	6.195944E-18
6.670000E+03	3.701730E-17	6.227074E-18
6.680000E+03	3.720438E-17	6.256914E-18
6.690000E+03	3.738696E-17	6.285477E-18
6.700000E+03	3.756449E-17	6.312672E-18
6.710000E+03	3.773705E-17	6.338508E-18
6.720000E+03	3.790542E-17	6.363114E-18
6.730000E+03	3.806906E-17	6.386398E-18
6.740000E+03	3.822874E-17	6.408490E-18
6.750000E+03	3.838322E-17	6.429182E-18
6.760000E+03	3.853400E-17	6.448725E-18
6.770000E+03	3.867982E-17	6.466908E-18
6.780000E+03	3.882217E-17	6.483987E-18
6.790000E+03	3.895982E-17	6.499756E-18
6.800000E+03	3.909357E-17	6.514351E-18
6.810000E+03	3.922356E-17	6.527801E-18
6.820000E+03	3.934921E-17	6.540014E-18
6.830000E+03	3.947136E-17	6.551135E-18
6.840000E+03	3.958943E-17	6.561071E-18
6.850000E+03	3.970429E-17	6.569975E-18
6.860000E+03	3.981458E-17	6.577628E-18
6.870000E+03	3.992194E-17	6.584309E-18
6.880000E+03	4.002575E-17	6.589923E-18
6.890000E+03	4.012615E-17	6.594501E-18
6.900000E+03	4.022250E-17	6.597950E-18
6.910000E+03	4.031649E-17	6.600553E-18
6.920000E+03	4.040593E-17	6.601967E-18
6.930000E+03	4.049328E-17	6.602599E-18
6.940000E+03	4.057712E-17	6.602235E-18
6.950000E+03	4.065759E-17	6.600905E-18
6.960000E+03	4.073560E-17	6.598772E-18
6.970000E+03	4.081051E-17	6.595743E-18
6.980000E+03	4.088243E-17	6.591854E-18
6.990000E+03	4.095152E-17	6.587141E-18
7.000000E+03	4.101789E-17	6.581637E-18
7.010000E+03	4.108169E-17	6.575381E-18
7.020000E+03	4.114221E-17	6.568278E-18
7.030000E+03	4.120122E-17	6.560626E-18
7.040000E+03	4.125642E-17	6.552073E-18
7.050000E+03	4.131035E-17	6.543044E-18
7.060000E+03	4.136069E-17	6.533187E-18
7.070000E+03	4.140922E-17	6.522803E-18
7.080000E+03	4.145522E-17	6.511796E-18
7.090000E+03	4.149882E-17	6.500207E-18
7.100000E+03	4.154096E-17	6.488204E-18
7.110000E+03	4.158010E-17	6.475564E-18
7.120000E+03	4.161719E-17	6.462460E-18
7.130000E+03	4.165149E-17	6.448796E-18
7.140000E+03	4.168396E-17	6.434746E-18
7.150000E+03	4.171471E-17	6.420348E-18
7.160000E+03	4.174301E-17	6.405510E-18
7.170000E+03	4.176981E-17	6.390404E-18
7.180000E+03	4.179351E-17	6.374809E-18
7.190000E+03	4.181591E-17	6.359026E-18
7.200000E+03	4.183627E-17	6.342965E-18
7.210000E+03	4.185385E-17	6.326537E-18
7.220000E+03	4.186956E-17	6.309912E-18
7.230000E+03	4.188352E-17	6.293130E-18
7.240000E+03	4.189496E-17	6.276103E-18
7.250000E+03	4.190398E-17	6.258873E-18
7.260000E+03	4.191065E-17	6.241480E-18
7.270000E+03	4.191508E-17	6.223965E-18
7.280000E+03	4.191733E-17	6.206370E-18
7.290000E+03	4.191576E-17	6.188478E-18
7.300000E+03	4.191219E-17	6.170588E-18
7.310000E+03	4.190582E-17	6.152612E-18
7.320000E+03	4.189587E-17	6.134464E-18
7.330000E+03	4.188328E-17	6.116313E-18
7.340000E+03	4.186637E-17	6.097945E-18
7.350000E+03	4.184521E-17	6.079399E-18
7.360000E+03	4.181989E-17	6.060720E-18
7.370000E+03	4.178958E-17	6.041818E-18
7.380000E+03	4.175523E-17	6.022863E-18
7.390000E+03	4.171427E-17	6.003514E-18
7.400000E+03	4.166852E-17	5.984064E-18
7.410000E+03	4.161628E-17	5.964299E-18
7.420000E+03	4.155850E-17	5.944385E-18
7.430000E+03	4.149436E-17	5.924233E-18
7.440000E+03	4.142391E-17	5.903878E-18
7.450000E+03	4.134812E-17	5.883487E-18
7.460000E+03	4.126615E-17	5.862963E-18
7.470000E+03	4.118074E-17	5.842720E-18
7.480000E+03	4.109017E-17	5.822538E-18
7.490000E+03	4.099629E-17	5.802698E-18
7.500000E+03	4.089827E-17	5.783097E-18
7.510000E+03	4.079889E-17	5.764107E-18
7.520000E+03	4.069732E-17	5.745586E-18
7.530000E+03	4.059365E-17	5.727517E-18
7.540000E+03	4.048887E-17	5.710011E-18
7.550000E+03	4.038305E-17	5.693047E-18
7.560000E+03	4.027805E-17	5.676860E-18
7.570000E+03	4.017219E-17	5.661182E-18
7.580000E+03	4.006643E-17	5.646117E-18
7.590000E+03	3.996174E-17	5.631773E-18
7.600000E+03	3.985732E-17	5.618007E-18
7.610000E+03	3.975413E-17	5.604925E-18
7.620000E+03	3.965135E-17	5.592380E-18
7.630000E+03	3.955086E-17	5.580610E-18
7.640000E+03	3.945092E-17	5.569340E-18
7.650000E+03	3.935341E-17	5.558807E-18
7.660000E+03	3.925661E-17	5.548740E-18
7.670000E+03	3.916236E-17	5.539371E-18
7.680000E+03	3.906896E-17	5.530434E-18
7.690000E+03	3.897825E-17	5.522161E-18
7.700000E+03	3.888940E-17	5.514410E-18
7.710000E+03	3.880248E-17	5.507166E-18
7.720000E+03	3.871754E-17	5.500409E-18
7.730000E+03	3.863465E-17	5.494127E-18
7.740000E+03	3.855387E-17	5.488303E-18
7.750000E+03	3.847434E-17	5.482793E-18
7.760000E+03	3.839792E-17	5.477840E-18
