#wls	flux	fluxerr
1.600000E+03	7.058553E-18	4.286271E-18
1.640000E+03	7.144707E-18	4.331456E-18
1.680000E+03	7.236291E-18	4.379361E-18
1.720000E+03	7.332909E-18	4.429704E-18
1.760000E+03	7.434754E-18	4.482553E-18
1.800000E+03	7.542536E-18	4.538286E-18
1.840000E+03	7.654323E-18	4.595690E-18
1.880000E+03	7.771261E-18	4.655399E-18
1.920000E+03	7.892511E-18	4.716855E-18
1.960000E+03	8.017178E-18	4.779467E-18
2.000000E+03	8.143774E-18	4.842295E-18
2.040000E+03	8.271375E-18	4.904739E-18
2.080000E+03	8.397966E-18	4.965560E-18
2.120000E+03	8.520597E-18	5.022980E-18
2.160000E+03	8.638042E-18	5.076255E-18
2.200000E+03	8.747183E-18	5.123544E-18
2.240000E+03	8.845664E-18	5.163476E-18
2.280000E+03	8.932290E-18	5.195380E-18
2.320000E+03	9.006870E-18	5.219180E-18
2.360000E+03	9.070508E-18	5.235557E-18
2.400000E+03	9.124558E-18	5.245329E-18
2.440000E+03	9.170161E-18	5.249187E-18
2.480000E+03	9.209403E-18	5.248353E-18
2.520000E+03	9.242900E-18	5.243197E-18
2.560000E+03	9.271801E-18	5.234391E-18
2.600000E+03	9.295941E-18	5.221855E-18
2.640000E+03	9.315406E-18	5.205658E-18
2.680000E+03	9.329522E-18	5.185449E-18
2.720000E+03	9.337595E-18	5.160877E-18
2.760000E+03	9.338939E-18	5.131610E-18
2.800000E+03	9.332607E-18	5.097187E-18
2.840000E+03	9.317736E-18	5.057214E-18
2.880000E+03	9.294021E-18	5.011614E-18
2.920000E+03	9.260709E-18	4.960083E-18
2.960000E+03	9.218256E-18	4.902982E-18
3.000000E+03	9.166360E-18	4.840269E-18
3.010000E+03	9.152189E-18	4.823876E-18
3.020000E+03	9.137304E-18	4.807077E-18
3.030000E+03	9.121697E-18	4.789871E-18
3.040000E+03	9.105764E-18	4.772467E-18
3.050000E+03	9.089266E-18	4.754742E-18
3.060000E+03	9.072193E-18	4.736694E-18
3.070000E+03	9.054724E-18	4.718417E-18
3.080000E+03	9.036633E-18	4.699795E-18
3.090000E+03	9.017917E-18	4.680831E-18
3.100000E+03	8.998926E-18	4.661708E-18
3.110000E+03	8.979265E-18	4.642222E-18
3.120000E+03	8.959103E-18	4.622464E-18
3.130000E+03	8.938242E-18	4.602334E-18
3.140000E+03	8.917193E-18	4.582098E-18
3.150000E+03	8.895414E-18	4.561480E-18
3.160000E+03	8.873061E-18	4.540561E-18
3.170000E+03	8.850291E-18	4.519425E-18
3.180000E+03	8.827073E-18	4.498059E-18
3.190000E+03	8.803069E-18	4.476292E-18
3.200000E+03	8.778746E-18	4.454366E-18
3.210000E+03	8.753773E-18	4.432114E-18
3.220000E+03	8.728291E-18	4.409611E-18
3.230000E+03	8.702129E-18	4.386773E-18
3.240000E+03	8.675434E-18	4.363677E-18
3.250000E+03	8.648186E-18	4.340318E-18
3.260000E+03	8.620369E-18	4.316688E-18
3.270000E+03	8.591833E-18	4.292716E-18
3.280000E+03	8.562718E-18	4.268476E-18
3.290000E+03	8.533001E-18	4.243959E-18
3.300000E+03	8.502549E-18	4.219103E-18
3.310000E+03	8.471481E-18	4.193970E-18
3.320000E+03	8.439668E-18	4.168499E-18
3.330000E+03	8.407240E-18	4.142759E-18
3.340000E+03	8.374057E-18	4.116684E-18
3.350000E+03	8.340117E-18	4.090277E-18
3.360000E+03	8.305425E-18	4.063545E-18
3.370000E+03	8.269994E-18	4.036497E-18
3.380000E+03	8.233810E-18	4.009132E-18
3.390000E+03	8.196769E-18	3.981402E-18
3.400000E+03	8.159000E-18	3.953375E-18
3.410000E+03	8.120271E-18	3.924942E-18
3.420000E+03	8.080828E-18	3.896228E-18
3.430000E+03	8.040459E-18	3.867133E-18
3.440000E+03	7.999179E-18	3.837670E-18
3.450000E+03	7.957002E-18	3.807852E-18
3.460000E+03	7.913848E-18	3.777643E-18
3.470000E+03	7.869848E-18	3.747113E-18
3.480000E+03	7.824912E-18	3.716222E-18
3.490000E+03	7.778967E-18	3.684941E-18
3.500000E+03	7.732044E-18	3.653291E-18
3.510000E+03	7.684079E-18	3.621246E-18
3.520000E+03	7.635197E-18	3.588870E-18
3.530000E+03	7.585153E-18	3.556055E-18
3.540000E+03	7.534074E-18	3.522864E-18
3.550000E+03	7.481923E-18	3.489287E-18
3.560000E+03	7.428734E-18	3.455345E-18
3.570000E+03	7.374381E-18	3.420984E-18
3.580000E+03	7.318826E-18	3.386194E-18
3.590000E+03	7.262213E-18	3.351046E-18
3.600000E+03	7.204345E-18	3.315458E-18
3.610000E+03	7.145364E-18	3.279498E-18
3.620000E+03	7.085249E-18	3.243164E-18
3.630000E+03	7.023913E-18	3.206422E-18
3.640000E+03	6.961334E-18	3.169267E-18
3.650000E+03	6.897597E-18	3.131746E-18
3.660000E+03	6.832611E-18	3.093823E-18
3.670000E+03	6.766540E-18	3.055577E-18
3.680000E+03	6.699231E-18	3.016946E-18
3.690000E+03	6.630769E-18	2.977974E-18
3.700000E+03	6.561167E-18	2.938673E-18
3.710000E+03	6.490500E-18	2.899081E-18
3.720000E+03	6.418727E-18	2.859186E-18
3.730000E+03	6.345923E-18	2.819026E-18
3.740000E+03	6.272107E-18	2.778616E-18
3.750000E+03	6.197373E-18	2.738001E-18
3.760000E+03	6.121733E-18	2.697191E-18
3.770000E+03	6.045277E-18	2.656231E-18
3.780000E+03	5.968020E-18	2.615131E-18
3.790000E+03	5.889989E-18	2.573906E-18
3.800000E+03	5.811382E-18	2.532647E-18
3.810000E+03	5.732108E-18	2.491317E-18
3.820000E+03	5.652296E-18	2.449975E-18
3.830000E+03	5.572084E-18	2.408683E-18
3.840000E+03	5.491428E-18	2.367425E-18
3.850000E+03	5.410408E-18	2.326237E-18
3.860000E+03	5.329145E-18	2.285172E-18
3.870000E+03	5.247701E-18	2.244258E-18
3.880000E+03	5.166142E-18	2.203525E-18
3.890000E+03	5.084484E-18	2.162978E-18
3.900000E+03	5.002835E-18	2.122665E-18
3.910000E+03	4.921248E-18	2.082608E-18
3.920000E+03	4.839780E-18	2.042831E-18
3.930000E+03	4.758481E-18	2.003354E-18
3.940000E+03	4.677406E-18	1.964198E-18
3.950000E+03	4.596645E-18	1.925402E-18
3.960000E+03	4.516235E-18	1.886978E-18
3.970000E+03	4.436184E-18	1.848927E-18
3.980000E+03	4.356614E-18	1.811300E-18
3.990000E+03	4.277516E-18	1.774088E-18
4.000000E+03	4.198967E-18	1.737323E-18
4.010000E+03	4.121000E-18	1.701014E-18
4.020000E+03	4.043608E-18	1.665157E-18
4.030000E+03	3.966894E-18	1.629789E-18
4.040000E+03	3.890848E-18	1.594903E-18
4.050000E+03	3.815529E-18	1.560522E-18
4.060000E+03	3.740960E-18	1.526648E-18
4.070000E+03	3.667161E-18	1.493288E-18
4.080000E+03	3.594153E-18	1.460446E-18
4.090000E+03	3.521983E-18	1.428137E-18
4.100000E+03	3.450637E-18	1.396350E-18
4.110000E+03	3.380130E-18	1.365088E-18
4.120000E+03	3.310536E-18	1.334375E-18
4.130000E+03	3.241805E-18	1.304189E-18
4.140000E+03	3.173979E-18	1.274539E-18
4.150000E+03	3.107067E-18	1.245427E-18
4.160000E+03	3.041076E-18	1.216849E-18
4.170000E+03	2.976014E-18	1.188805E-18
4.180000E+03	2.911887E-18	1.161292E-18
4.190000E+03	2.848701E-18	1.134307E-18
4.200000E+03	2.786460E-18	1.107848E-18
4.210000E+03	2.725167E-18	1.081910E-18
4.220000E+03	2.664826E-18	1.056491E-18
4.230000E+03	2.605415E-18	1.031577E-18
4.240000E+03	2.546938E-18	1.007164E-18
4.250000E+03	2.489417E-18	9.832573E-19
4.260000E+03	2.432852E-18	9.598514E-19
4.270000E+03	2.377201E-18	9.369249E-19
4.280000E+03	2.322484E-18	9.144812E-19
4.290000E+03	2.268700E-18	8.925154E-19
4.300000E+03	2.215849E-18	8.710220E-19
4.310000E+03	2.163926E-18	8.499953E-19
4.320000E+03	2.112910E-18	8.294224E-19
4.330000E+03	2.062835E-18	8.093118E-19
4.340000E+03	2.013660E-18	7.896431E-19
4.350000E+03	1.965416E-18	7.704238E-19
4.360000E+03	1.918095E-18	7.516472E-19
4.370000E+03	1.871709E-18	7.333128E-19
4.380000E+03	1.826247E-18	7.154128E-19
4.390000E+03	1.781717E-18	6.979460E-19
4.400000E+03	1.738109E-18	6.809042E-19
4.410000E+03	1.695442E-18	6.642915E-19
4.420000E+03	1.653703E-18	6.480981E-19
4.430000E+03	1.612879E-18	6.323138E-19
4.440000E+03	1.572982E-18	6.169389E-19
4.450000E+03	1.533994E-18	6.019622E-19
4.460000E+03	1.495913E-18	5.873778E-19
4.470000E+03	1.458747E-18	5.731853E-19
4.480000E+03	1.422463E-18	5.593683E-19
4.490000E+03	1.387071E-18	5.459261E-19
4.500000E+03	1.352561E-18	5.328524E-19
4.510000E+03	1.318914E-18	5.201362E-19
4.520000E+03	1.286122E-18	5.077719E-19
4.530000E+03	1.254178E-18	4.957533E-19
4.540000E+03	1.223072E-18	4.840745E-19
4.550000E+03	1.192796E-18	4.727294E-19
4.560000E+03	1.163327E-18	4.617078E-19
4.570000E+03	1.134647E-18	4.509996E-19
4.580000E+03	1.106766E-18	4.406078E-19
4.590000E+03	1.079653E-18	4.305178E-19
4.600000E+03	1.053287E-18	4.207206E-19
4.610000E+03	1.027669E-18	4.112148E-19
4.620000E+03	1.002787E-18	4.019948E-19
4.630000E+03	9.786036E-19	3.930441E-19
4.640000E+03	9.551351E-19	3.843690E-19
4.650000E+03	9.323347E-19	3.759496E-19
4.660000E+03	9.102105E-19	3.677887E-19
4.670000E+03	8.887428E-19	3.598779E-19
4.680000E+03	8.679130E-19	3.522093E-19
4.690000E+03	8.477023E-19	3.447749E-19
4.700000E+03	8.280935E-19	3.375676E-19
4.710000E+03	8.090845E-19	3.305864E-19
4.720000E+03	7.906503E-19	3.238211E-19
4.730000E+03	7.727736E-19	3.172647E-19
4.740000E+03	7.554461E-19	3.109138E-19
4.750000E+03	7.386363E-19	3.047557E-19
4.760000E+03	7.223513E-19	2.987936E-19
4.770000E+03	7.065542E-19	2.930126E-19
4.780000E+03	6.912443E-19	2.874124E-19
4.790000E+03	6.764079E-19	2.819880E-19
4.800000E+03	6.620171E-19	2.767281E-19
4.810000E+03	6.480659E-19	2.716306E-19
4.820000E+03	6.345480E-19	2.666933E-19
4.830000E+03	6.214382E-19	2.619061E-19
4.840000E+03	6.087304E-19	2.572671E-19
4.850000E+03	5.964139E-19	2.527721E-19
4.860000E+03	5.844705E-19	2.484142E-19
4.870000E+03	5.728905E-19	2.441896E-19
4.880000E+03	5.616686E-19	2.400968E-19
4.890000E+03	5.507889E-19	2.361296E-19
4.900000E+03	5.402479E-19	2.322870E-19
4.910000E+03	5.300245E-19	2.285607E-19
4.920000E+03	5.201157E-19	2.249500E-19
4.930000E+03	5.105124E-19	2.214515E-19
4.940000E+03	5.012008E-19	2.180600E-19
4.950000E+03	4.921780E-19	2.147748E-19
4.960000E+03	4.834314E-19	2.115910E-19
4.970000E+03	4.749576E-19	2.085080E-19
4.980000E+03	4.667453E-19	2.055212E-19
4.990000E+03	4.587867E-19	2.026279E-19
5.000000E+03	4.510703E-19	1.998237E-19
5.010000E+03	4.435990E-19	1.971106E-19
5.020000E+03	4.363575E-19	1.944823E-19
5.030000E+03	4.293396E-19	1.919368E-19
5.040000E+03	4.225436E-19	1.894738E-19
5.050000E+03	4.159594E-19	1.870896E-19
5.060000E+03	4.095819E-19	1.847823E-19
5.070000E+03	4.034051E-19	1.825500E-19
5.080000E+03	3.974250E-19	1.803913E-19
5.090000E+03	3.916317E-19	1.783025E-19
5.100000E+03	3.860207E-19	1.762820E-19
5.110000E+03	3.805921E-19	1.743305E-19
5.120000E+03	3.753329E-19	1.724425E-19
5.130000E+03	3.702468E-19	1.706204E-19
5.140000E+03	3.653186E-19	1.688576E-19
5.150000E+03	3.605520E-19	1.671564E-19
5.160000E+03	3.559395E-19	1.655140E-19
5.170000E+03	3.514775E-19	1.639290E-19
5.180000E+03	3.471626E-19	1.624005E-19
5.190000E+03	3.429880E-19	1.609258E-19
5.200000E+03	3.389506E-19	1.595038E-19
5.210000E+03	3.350440E-19	1.581322E-19
5.220000E+03	3.312721E-19	1.568131E-19
5.230000E+03	3.276221E-19	1.555409E-19
5.240000E+03	3.240947E-19	1.543166E-19
5.250000E+03	3.206874E-19	1.531392E-19
5.260000E+03	3.173978E-19	1.520081E-19
5.270000E+03	3.142172E-19	1.509196E-19
5.280000E+03	3.111466E-19	1.498745E-19
5.290000E+03	3.081807E-19	1.488706E-19
5.300000E+03	3.053176E-19	1.479075E-19
5.310000E+03	3.025524E-19	1.469831E-19
5.320000E+03	2.998863E-19	1.460984E-19
5.330000E+03	2.973115E-19	1.452499E-19
5.340000E+03	2.948265E-19	1.444373E-19
5.350000E+03	2.924267E-19	1.436586E-19
5.360000E+03	2.901137E-19	1.429149E-19
5.370000E+03	2.878773E-19	1.422016E-19
5.380000E+03	2.857193E-19	1.415197E-19
5.390000E+03	2.836355E-19	1.408675E-19
5.400000E+03	2.816219E-19	1.402433E-19
5.410000E+03	2.796690E-19	1.396426E-19
5.420000E+03	2.777732E-19	1.390638E-19
5.430000E+03	2.759310E-19	1.385054E-19
5.440000E+03	2.741278E-19	1.379602E-19
5.450000E+03	2.723603E-19	1.374268E-19
5.460000E+03	2.706172E-19	1.368994E-19
5.470000E+03	2.688928E-19	1.363754E-19
5.480000E+03	2.671949E-19	1.358587E-19
5.490000E+03	2.655203E-19	1.353478E-19
5.500000E+03	2.638765E-19	1.348466E-19
5.510000E+03	2.622655E-19	1.343564E-19
5.520000E+03	2.606972E-19	1.338821E-19
5.530000E+03	2.591681E-19	1.334223E-19
5.540000E+03	2.576825E-19	1.329793E-19
5.550000E+03	2.562394E-19	1.325527E-19
5.560000E+03	2.548458E-19	1.321463E-19
5.570000E+03	2.534980E-19	1.317584E-19
5.580000E+03	2.521976E-19	1.313901E-19
5.590000E+03	2.509435E-19	1.310408E-19
5.600000E+03	2.497399E-19	1.307130E-19
5.610000E+03	2.485832E-19	1.304049E-19
5.620000E+03	2.474750E-19	1.301176E-19
5.630000E+03	2.464167E-19	1.298520E-19
5.640000E+03	2.454073E-19	1.296077E-19
5.650000E+03	2.444485E-19	1.293858E-19
5.660000E+03	2.435365E-19	1.291845E-19
5.670000E+03	2.426730E-19	1.290049E-19
5.680000E+03	2.418595E-19	1.288478E-19
5.690000E+03	2.410951E-19	1.287131E-19
5.700000E+03	2.403789E-19	1.286002E-19
5.710000E+03	2.397098E-19	1.285090E-19
5.720000E+03	2.390922E-19	1.284418E-19
5.730000E+03	2.385199E-19	1.283956E-19
5.740000E+03	2.379973E-19	1.283728E-19
5.750000E+03	2.375234E-19	1.283730E-19
5.760000E+03	2.370950E-19	1.283947E-19
5.770000E+03	2.367137E-19	1.284388E-19
5.780000E+03	2.363812E-19	1.285065E-19
5.790000E+03	2.360944E-19	1.285962E-19
5.800000E+03	2.358525E-19	1.287076E-19
5.810000E+03	2.356597E-19	1.288432E-19
5.820000E+03	2.355104E-19	1.289999E-19
5.830000E+03	2.354064E-19	1.291790E-19
5.840000E+03	2.353471E-19	1.293802E-19
5.850000E+03	2.353317E-19	1.296032E-19
5.860000E+03	2.353624E-19	1.298493E-19
5.870000E+03	2.354332E-19	1.301154E-19
5.880000E+03	2.355488E-19	1.304041E-19
5.890000E+03	2.357060E-19	1.307138E-19
5.900000E+03	2.359042E-19	1.310443E-19
5.910000E+03	2.361430E-19	1.313954E-19
5.920000E+03	2.364217E-19	1.317668E-19
5.930000E+03	2.367425E-19	1.321599E-19
5.940000E+03	2.370996E-19	1.325715E-19
5.950000E+03	2.374923E-19	1.330013E-19
5.960000E+03	2.379230E-19	1.334507E-19
5.970000E+03	2.383910E-19	1.339194E-19
5.980000E+03	2.388905E-19	1.344043E-19
5.990000E+03	2.394263E-19	1.349080E-19
6.000000E+03	2.399897E-19	1.354257E-19
6.010000E+03	2.405885E-19	1.359620E-19
6.020000E+03	2.412137E-19	1.365116E-19
6.030000E+03	2.418647E-19	1.370745E-19
6.040000E+03	2.425437E-19	1.376518E-19
6.050000E+03	2.432474E-19	1.382417E-19
6.060000E+03	2.439751E-19	1.388439E-19
6.070000E+03	2.447202E-19	1.394546E-19
6.080000E+03	2.454880E-19	1.400767E-19
6.090000E+03	2.462689E-19	1.407050E-19
6.100000E+03	2.470679E-19	1.413422E-19
6.110000E+03	2.478813E-19	1.419863E-19
6.120000E+03	2.487053E-19	1.426350E-19
6.130000E+03	2.495390E-19	1.432878E-19
6.140000E+03	2.503845E-19	1.439460E-19
6.150000E+03	2.512378E-19	1.446071E-19
6.160000E+03	2.520979E-19	1.452707E-19
6.170000E+03	2.529702E-19	1.459398E-19
6.180000E+03	2.538474E-19	1.466103E-19
6.190000E+03	2.547318E-19	1.472833E-19
6.200000E+03	2.556256E-19	1.479602E-19
6.210000E+03	2.565311E-19	1.486423E-19
6.220000E+03	2.574443E-19	1.493272E-19
6.230000E+03	2.583641E-19	1.500143E-19
6.240000E+03	2.592931E-19	1.507051E-19
6.250000E+03	2.602269E-19	1.513970E-19
6.260000E+03	2.611679E-19	1.520914E-19
6.270000E+03	2.621152E-19	1.527878E-19
6.280000E+03	2.630714E-19	1.534876E-19
6.290000E+03	2.640357E-19	1.541903E-19
6.300000E+03	2.650072E-19	1.548954E-19
6.310000E+03	2.659887E-19	1.556046E-19
6.320000E+03	2.669829E-19	1.563193E-19
6.330000E+03	2.679855E-19	1.570371E-19
6.340000E+03	2.689996E-19	1.577597E-19
6.350000E+03	2.700280E-19	1.584889E-19
6.360000E+03	2.710665E-19	1.592219E-19
6.370000E+03	2.721220E-19	1.599631E-19
6.380000E+03	2.731941E-19	1.607120E-19
6.390000E+03	2.742822E-19	1.614683E-19
6.400000E+03	2.753860E-19	1.622318E-19
6.410000E+03	2.765129E-19	1.630069E-19
6.420000E+03	2.776586E-19	1.637911E-19
6.430000E+03	2.788311E-19	1.645889E-19
6.440000E+03	2.800303E-19	1.654004E-19
6.450000E+03	2.812562E-19	1.662256E-19
6.460000E+03	2.825129E-19	1.670668E-19
6.470000E+03	2.838006E-19	1.679242E-19
6.480000E+03	2.851237E-19	1.688004E-19
6.490000E+03	2.864738E-19	1.696903E-19
6.500000E+03	2.878598E-19	1.705993E-19
6.510000E+03	2.892819E-19	1.715274E-19
6.520000E+03	2.907361E-19	1.724723E-19
6.530000E+03	2.922270E-19	1.734367E-19
6.540000E+03	2.937553E-19	1.744209E-19
6.550000E+03	2.953211E-19	1.754252E-19
6.560000E+03	2.969251E-19	1.764496E-19
6.570000E+03	2.985725E-19	1.774975E-19
6.580000E+03	3.002591E-19	1.785662E-19
6.590000E+03	3.019854E-19	1.796560E-19
6.600000E+03	3.037569E-19	1.807702E-19
6.610000E+03	3.055744E-19	1.819092E-19
6.620000E+03	3.074336E-19	1.830704E-19
6.630000E+03	3.093402E-19	1.842573E-19
6.640000E+03	3.112899E-19	1.854671E-19
6.650000E+03	3.132939E-19	1.867065E-19
6.660000E+03	3.153426E-19	1.879698E-19
6.670000E+03	3.174368E-19	1.892573E-19
6.680000E+03	3.195827E-19	1.905728E-19
6.690000E+03	3.217812E-19	1.919167E-19
6.700000E+03	3.240277E-19	1.932863E-19
6.710000E+03	3.263232E-19	1.946820E-19
6.720000E+03	3.286743E-19	1.961077E-19
6.730000E+03	3.310762E-19	1.975605E-19
6.740000E+03	3.335358E-19	1.990446E-19
6.750000E+03	3.360423E-19	2.005533E-19
6.760000E+03	3.386087E-19	2.020943E-19
6.770000E+03	3.412237E-19	2.036609E-19
6.780000E+03	3.439009E-19	2.052610E-19
6.790000E+03	3.466289E-19	2.068877E-19
6.800000E+03	3.494149E-19	2.085454E-19
6.810000E+03	3.522600E-19	2.102346E-19
6.820000E+03	3.551590E-19	2.119520E-19
6.830000E+03	3.581195E-19	2.137020E-19
6.840000E+03	3.611360E-19	2.154814E-19
6.850000E+03	3.642162E-19	2.172946E-19
6.860000E+03	3.673478E-19	2.191342E-19
6.870000E+03	3.705456E-19	2.210089E-19
6.880000E+03	3.738037E-19	2.229150E-19
6.890000E+03	3.771235E-19	2.248533E-19
6.900000E+03	3.804988E-19	2.268199E-19
6.910000E+03	3.839453E-19	2.288241E-19
6.920000E+03	3.874421E-19	2.308534E-19
6.930000E+03	3.910125E-19	2.329213E-19
6.940000E+03	3.946429E-19	2.350198E-19
6.950000E+03	3.983343E-19	2.371493E-19
6.960000E+03	4.020956E-19	2.393149E-19
6.970000E+03	4.059203E-19	2.415125E-19
6.980000E+03	4.098094E-19	2.437428E-19
6.990000E+03	4.137642E-19	2.460062E-19
7.000000E+03	4.177857E-19	2.483032E-19
7.010000E+03	4.218753E-19	2.506344E-19
7.020000E+03	4.260256E-19	2.529953E-19
7.030000E+03	4.302547E-19	2.553966E-19
7.040000E+03	4.345382E-19	2.578234E-19
7.050000E+03	4.389031E-19	2.602917E-19
7.060000E+03	4.433245E-19	2.627865E-19
7.070000E+03	4.478208E-19	2.653185E-19
7.080000E+03	4.523846E-19	2.678831E-19
7.090000E+03	4.570167E-19	2.704807E-19
7.100000E+03	4.617276E-19	2.731172E-19
7.110000E+03	4.665000E-19	2.757822E-19
7.120000E+03	4.713442E-19	2.784815E-19
7.130000E+03	4.762516E-19	2.812100E-19
7.140000E+03	4.812328E-19	2.839735E-19
7.150000E+03	4.862890E-19	2.867727E-19
7.160000E+03	4.914114E-19	2.896021E-19
7.170000E+03	4.966110E-19	2.924679E-19
7.180000E+03	5.018686E-19	2.953587E-19
7.190000E+03	5.072055E-19	2.982866E-19
7.200000E+03	5.126123E-19	3.012460E-19
7.210000E+03	5.180795E-19	3.042310E-19
7.220000E+03	5.236183E-19	3.072480E-19
7.230000E+03	5.292297E-19	3.102972E-19
7.240000E+03	5.349035E-19	3.133726E-19
7.250000E+03	5.406405E-19	3.164743E-19
7.260000E+03	5.464411E-19	3.196022E-19
7.270000E+03	5.523060E-19	3.227566E-19
7.280000E+03	5.582360E-19	3.259376E-19
7.290000E+03	5.642077E-19	3.291313E-19
7.300000E+03	5.702451E-19	3.323516E-19
7.310000E+03	5.763365E-19	3.355913E-19
7.320000E+03	5.824700E-19	3.388432E-19
7.330000E+03	5.886575E-19	3.421142E-19
7.340000E+03	5.948748E-19	3.453897E-19
7.350000E+03	6.011206E-19	3.486689E-19
7.360000E+03	6.073944E-19	3.519513E-19
7.370000E+03	6.136827E-19	3.552289E-19
7.380000E+03	6.199963E-19	3.585077E-19
7.390000E+03	6.262956E-19	3.617646E-19
7.400000E+03	6.326054E-19	3.650139E-19
7.410000E+03	6.388958E-19	3.682381E-19
7.420000E+03	6.451794E-19	3.714444E-19
7.430000E+03	6.514402E-19	3.746233E-19
7.440000E+03	6.576752E-19	3.777732E-19
7.450000E+03	6.638965E-19	3.809008E-19
7.460000E+03	6.700869E-19	3.839962E-19
7.470000E+03	6.762884E-19	3.870834E-19
7.480000E+03	6.824700E-19	3.901443E-19
7.490000E+03	6.886588E-19	3.931946E-19
7.500000E+03	6.948392E-19	3.962250E-19
7.510000E+03	7.010548E-19	3.992604E-19
7.520000E+03	7.072900E-19	4.022915E-19
7.530000E+03	7.135443E-19	4.053181E-19
7.540000E+03	7.198324E-19	4.083483E-19
7.550000E+03	7.261544E-19	4.113818E-19
7.560000E+03	7.325424E-19	4.144367E-19
7.570000E+03	7.389647E-19	4.174948E-19
7.580000E+03	7.454370E-19	4.205648E-19
7.590000E+03	7.519777E-19	4.236567E-19
7.600000E+03	7.585695E-19	4.267606E-19
7.610000E+03	7.652307E-19	4.298864E-19
7.620000E+03	7.719445E-19	4.330247E-19
7.630000E+03	7.787468E-19	4.361951E-19
7.640000E+03	7.856035E-19	4.393782E-19
7.650000E+03	7.925510E-19	4.425942E-19
7.660000E+03	7.995545E-19	4.458233E-19
7.670000E+03	8.066518E-19	4.490863E-19
7.680000E+03	8.138067E-19	4.523628E-19
7.690000E+03	8.210577E-19	4.556739E-19
7.700000E+03	8.283876E-19	4.590095E-19
7.710000E+03	8.357978E-19	4.623704E-19
7.720000E+03	8.432886E-19	4.657562E-19
7.730000E+03	8.508621E-19	4.691680E-19
7.740000E+03	8.585198E-19	4.726061E-19
7.750000E+03	8.662415E-19	4.760591E-19
7.760000E+03	8.740700E-19	4.795503E-19
