#wls	flux	fluxerr
1.600000E+03	1.859840E-17	3.118195E-18
1.640000E+03	1.931680E-17	3.227012E-18
1.680000E+03	2.007998E-17	3.342131E-18
1.720000E+03	2.088937E-17	3.463666E-18
1.760000E+03	2.174819E-17	3.592021E-18
1.800000E+03	2.266137E-17	3.727867E-18
1.840000E+03	2.362614E-17	3.870594E-18
1.880000E+03	2.464899E-17	4.021107E-18
1.920000E+03	2.573048E-17	4.179318E-18
1.960000E+03	2.687092E-17	4.345099E-18
2.000000E+03	2.806837E-17	4.517944E-18
2.040000E+03	2.932251E-17	4.697609E-18
2.080000E+03	3.062879E-17	4.883170E-18
2.120000E+03	3.197845E-17	5.073041E-18
2.160000E+03	3.336815E-17	5.266517E-18
2.200000E+03	3.478654E-17	5.461633E-18
2.240000E+03	3.622385E-17	5.656714E-18
2.280000E+03	3.767396E-17	5.850673E-18
2.320000E+03	3.913437E-17	6.043003E-18
2.360000E+03	4.060798E-17	6.234036E-18
2.400000E+03	4.209924E-17	6.424321E-18
2.440000E+03	4.361211E-17	6.614319E-18
2.480000E+03	4.515561E-17	6.805235E-18
2.520000E+03	4.673243E-17	6.997287E-18
2.560000E+03	4.834825E-17	7.191122E-18
2.600000E+03	5.000237E-17	7.386421E-18
2.640000E+03	5.169522E-17	7.583023E-18
2.680000E+03	5.342274E-17	7.780111E-18
2.720000E+03	5.518020E-17	7.976785E-18
2.760000E+03	5.696221E-17	8.172063E-18
2.800000E+03	5.876092E-17	8.364639E-18
2.840000E+03	6.056797E-17	8.553163E-18
2.880000E+03	6.237780E-17	8.736721E-18
2.920000E+03	6.418089E-17	8.913872E-18
2.960000E+03	6.597535E-17	9.084273E-18
3.000000E+03	6.775354E-17	9.246812E-18
3.010000E+03	6.819690E-17	9.286399E-18
3.020000E+03	6.863790E-17	9.325306E-18
3.030000E+03	6.907630E-17	9.363505E-18
3.040000E+03	6.951499E-17	9.401385E-18
3.050000E+03	6.995215E-17	9.438700E-18
3.060000E+03	7.038753E-17	9.475418E-18
3.070000E+03	7.082240E-17	9.511707E-18
3.080000E+03	7.125500E-17	9.547331E-18
3.090000E+03	7.168507E-17	9.582256E-18
3.100000E+03	7.211533E-17	9.616848E-18
3.110000E+03	7.254255E-17	9.650674E-18
3.120000E+03	7.296795E-17	9.683896E-18
3.130000E+03	7.338980E-17	9.716288E-18
3.140000E+03	7.381221E-17	9.748394E-18
3.150000E+03	7.423053E-17	9.779600E-18
3.160000E+03	7.464597E-17	9.810067E-18
3.170000E+03	7.505968E-17	9.839948E-18
3.180000E+03	7.547136E-17	9.869205E-18
3.190000E+03	7.587792E-17	9.897436E-18
3.200000E+03	7.628333E-17	9.925159E-18
3.210000E+03	7.668448E-17	9.951974E-18
3.220000E+03	7.708249E-17	9.978028E-18
3.230000E+03	7.747574E-17	1.000311E-17
3.240000E+03	7.786530E-17	1.002737E-17
3.250000E+03	7.825090E-17	1.005077E-17
3.260000E+03	7.863229E-17	1.007328E-17
3.270000E+03	7.900785E-17	1.009471E-17
3.280000E+03	7.937865E-17	1.011518E-17
3.290000E+03	7.974443E-17	1.013467E-17
3.300000E+03	8.010362E-17	1.015300E-17
3.310000E+03	8.045730E-17	1.017029E-17
3.320000E+03	8.080391E-17	1.018636E-17
3.330000E+03	8.114451E-17	1.020135E-17
3.340000E+03	8.147757E-17	1.021508E-17
3.350000E+03	8.180289E-17	1.022752E-17
3.360000E+03	8.212024E-17	1.023865E-17
3.370000E+03	8.242944E-17	1.024846E-17
3.380000E+03	8.273026E-17	1.025694E-17
3.390000E+03	8.302130E-17	1.026391E-17
3.400000E+03	8.330359E-17	1.026951E-17
3.410000E+03	8.357457E-17	1.027344E-17
3.420000E+03	8.383647E-17	1.027599E-17
3.430000E+03	8.408678E-17	1.027685E-17
3.440000E+03	8.432536E-17	1.027602E-17
3.450000E+03	8.455213E-17	1.027351E-17
3.460000E+03	8.476584E-17	1.026917E-17
3.470000E+03	8.496754E-17	1.026315E-17
3.480000E+03	8.515605E-17	1.025533E-17
3.490000E+03	8.533017E-17	1.024556E-17
3.500000E+03	8.548991E-17	1.023387E-17
3.510000E+03	8.563417E-17	1.022014E-17
3.520000E+03	8.576403E-17	1.020452E-17
3.530000E+03	8.587631E-17	1.018665E-17
3.540000E+03	8.597216E-17	1.016668E-17
3.550000E+03	8.605061E-17	1.014452E-17
3.560000E+03	8.611176E-17	1.012021E-17
3.570000E+03	8.615370E-17	1.009353E-17
3.580000E+03	8.617558E-17	1.006441E-17
3.590000E+03	8.617863E-17	1.003302E-17
3.600000E+03	8.616007E-17	9.999062E-18
3.610000E+03	8.612118E-17	9.962701E-18
3.620000E+03	8.606125E-17	9.923885E-18
3.630000E+03	8.597865E-17	9.882451E-18
3.640000E+03	8.587281E-17	9.838361E-18
3.650000E+03	8.574413E-17	9.791687E-18
3.660000E+03	8.559117E-17	9.742294E-18
3.670000E+03	8.541531E-17	9.690367E-18
3.680000E+03	8.521427E-17	9.635677E-18
3.690000E+03	8.498860E-17	9.578315E-18
3.700000E+03	8.473795E-17	9.518274E-18
3.710000E+03	8.446289E-17	9.455646E-18
3.720000E+03	8.416227E-17	9.390333E-18
3.730000E+03	8.383673E-17	9.322439E-18
3.740000E+03	8.348606E-17	9.251971E-18
3.750000E+03	8.311092E-17	9.179032E-18
3.760000E+03	8.271117E-17	9.103637E-18
3.770000E+03	8.228750E-17	9.025893E-18
3.780000E+03	8.183981E-17	8.945817E-18
3.790000E+03	8.136803E-17	8.863434E-18
3.800000E+03	8.087449E-17	8.779025E-18
3.810000E+03	8.035754E-17	8.692440E-18
3.820000E+03	7.981873E-17	8.603876E-18
3.830000E+03	7.925959E-17	8.513522E-18
3.840000E+03	7.867930E-17	8.421319E-18
3.850000E+03	7.807866E-17	8.327379E-18
3.860000E+03	7.745914E-17	8.231883E-18
3.870000E+03	7.682149E-17	8.134934E-18
3.880000E+03	7.616642E-17	8.036631E-18
3.890000E+03	7.549396E-17	7.937001E-18
3.900000E+03	7.480553E-17	7.836213E-18
3.910000E+03	7.410185E-17	7.734364E-18
3.920000E+03	7.338362E-17	7.631546E-18
3.930000E+03	7.265153E-17	7.527850E-18
3.940000E+03	7.190627E-17	7.423364E-18
3.950000E+03	7.114917E-17	7.318244E-18
3.960000E+03	7.038087E-17	7.212571E-18
3.970000E+03	6.960139E-17	7.106360E-18
3.980000E+03	6.881263E-17	6.999820E-18
3.990000E+03	6.801455E-17	6.892961E-18
4.000000E+03	6.720840E-17	6.785918E-18
4.010000E+03	6.639473E-17	6.678761E-18
4.020000E+03	6.557356E-17	6.571500E-18
4.030000E+03	6.474660E-17	6.464315E-18
4.040000E+03	6.391383E-17	6.357215E-18
4.050000E+03	6.307636E-17	6.250315E-18
4.060000E+03	6.223468E-17	6.143672E-18
4.070000E+03	6.138932E-17	6.037341E-18
4.080000E+03	6.054076E-17	5.931376E-18
4.090000E+03	5.969000E-17	5.825880E-18
4.100000E+03	5.883701E-17	5.720851E-18
4.110000E+03	5.798223E-17	5.616336E-18
4.120000E+03	5.712712E-17	5.512479E-18
4.130000E+03	5.627110E-17	5.409224E-18
4.140000E+03	5.541511E-17	5.306660E-18
4.150000E+03	5.455953E-17	5.204828E-18
4.160000E+03	5.370479E-17	5.103764E-18
4.170000E+03	5.285125E-17	5.003503E-18
4.180000E+03	5.199930E-17	4.904080E-18
4.190000E+03	5.114931E-17	4.805527E-18
4.200000E+03	5.030163E-17	4.707874E-18
4.210000E+03	4.945662E-17	4.611152E-18
4.220000E+03	4.861462E-17	4.515387E-18
4.230000E+03	4.777554E-17	4.420569E-18
4.240000E+03	4.693974E-17	4.326724E-18
4.250000E+03	4.610793E-17	4.233913E-18
4.260000E+03	4.528045E-17	4.142161E-18
4.270000E+03	4.445677E-17	4.051414E-18
4.280000E+03	4.363762E-17	3.961734E-18
4.290000E+03	4.282330E-17	3.873138E-18
4.300000E+03	4.201409E-17	3.785646E-18
4.310000E+03	4.121024E-17	3.699273E-18
4.320000E+03	4.041169E-17	3.614003E-18
4.330000E+03	3.961939E-17	3.529917E-18
4.340000E+03	3.883287E-17	3.446961E-18
4.350000E+03	3.805308E-17	3.365211E-18
4.360000E+03	3.728021E-17	3.284675E-18
4.370000E+03	3.651478E-17	3.205388E-18
4.380000E+03	3.575694E-17	3.127353E-18
4.390000E+03	3.500720E-17	3.050602E-18
4.400000E+03	3.426568E-17	2.975134E-18
4.410000E+03	3.353310E-17	2.901002E-18
4.420000E+03	3.280957E-17	2.828202E-18
4.430000E+03	3.209515E-17	2.756727E-18
4.440000E+03	3.139051E-17	2.686619E-18
4.450000E+03	3.069569E-17	2.617865E-18
4.460000E+03	3.001100E-17	2.550475E-18
4.470000E+03	2.933702E-17	2.484483E-18
4.480000E+03	2.867347E-17	2.419848E-18
4.490000E+03	2.802088E-17	2.356598E-18
4.500000E+03	2.737947E-17	2.294736E-18
4.510000E+03	2.674918E-17	2.234240E-18
4.520000E+03	2.613019E-17	2.175111E-18
4.530000E+03	2.552265E-17	2.117345E-18
4.540000E+03	2.492671E-17	2.060939E-18
4.550000E+03	2.434247E-17	2.005887E-18
4.560000E+03	2.376980E-17	1.952162E-18
4.570000E+03	2.320855E-17	1.899739E-18
4.580000E+03	2.265926E-17	1.848646E-18
4.590000E+03	2.212151E-17	1.798836E-18
4.600000E+03	2.159513E-17	1.750281E-18
4.610000E+03	2.108037E-17	1.702988E-18
4.620000E+03	2.057723E-17	1.656943E-18
4.630000E+03	2.008513E-17	1.612087E-18
4.640000E+03	1.960462E-17	1.568452E-18
4.650000E+03	1.913492E-17	1.525964E-18
4.660000E+03	1.867640E-17	1.484639E-18
4.670000E+03	1.822883E-17	1.444447E-18
4.680000E+03	1.779198E-17	1.405361E-18
4.690000E+03	1.736563E-17	1.367350E-18
4.700000E+03	1.694956E-17	1.330388E-18
4.710000E+03	1.654390E-17	1.294473E-18
4.720000E+03	1.614824E-17	1.259564E-18
4.730000E+03	1.576240E-17	1.225637E-18
4.740000E+03	1.538641E-17	1.192685E-18
4.750000E+03	1.501983E-17	1.160666E-18
4.760000E+03	1.466301E-17	1.129596E-18
4.770000E+03	1.431536E-17	1.099420E-18
4.780000E+03	1.397702E-17	1.070144E-18
4.790000E+03	1.364787E-17	1.041747E-18
4.800000E+03	1.332745E-17	1.014189E-18
4.810000E+03	1.301579E-17	9.874620E-19
4.820000E+03	1.271286E-17	9.615565E-19
4.830000E+03	1.241823E-17	9.364339E-19
4.840000E+03	1.213190E-17	9.120861E-19
4.850000E+03	1.185370E-17	8.884940E-19
4.860000E+03	1.158337E-17	8.656310E-19
4.870000E+03	1.132074E-17	8.434786E-19
4.880000E+03	1.106579E-17	8.220283E-19
4.890000E+03	1.081826E-17	8.012548E-19
4.900000E+03	1.057808E-17	7.811478E-19
4.910000E+03	1.034491E-17	7.616754E-19
4.920000E+03	1.011869E-17	7.428291E-19
4.930000E+03	9.899296E-18	7.245929E-19
4.940000E+03	9.686458E-18	7.069430E-19
4.950000E+03	9.480149E-18	6.898722E-19
4.960000E+03	9.280123E-18	6.733578E-19
4.970000E+03	9.086344E-18	6.573923E-19
4.980000E+03	8.898569E-18	6.419538E-19
4.990000E+03	8.716672E-18	6.270289E-19
5.000000E+03	8.540430E-18	6.125973E-19
5.010000E+03	8.369895E-18	5.986586E-19
5.020000E+03	8.204763E-18	5.851872E-19
5.030000E+03	8.044921E-18	5.721712E-19
5.040000E+03	7.890334E-18	5.596045E-19
5.050000E+03	7.740793E-18	5.474687E-19
5.060000E+03	7.596189E-18	5.357527E-19
5.070000E+03	7.456413E-18	5.244454E-19
5.080000E+03	7.321357E-18	5.135362E-19
5.090000E+03	7.190843E-18	5.030093E-19
5.100000E+03	7.064771E-18	4.928551E-19
5.110000E+03	6.943117E-18	4.830687E-19
5.120000E+03	6.825643E-18	4.736311E-19
5.130000E+03	6.712401E-18	4.645430E-19
5.140000E+03	6.603095E-18	4.557814E-19
5.150000E+03	6.497779E-18	4.473477E-19
5.160000E+03	6.396305E-18	4.392293E-19
5.170000E+03	6.298597E-18	4.314186E-19
5.180000E+03	6.204579E-18	4.239082E-19
5.190000E+03	6.114117E-18	4.166870E-19
5.200000E+03	6.027145E-18	4.097482E-19
5.210000E+03	5.943537E-18	4.030815E-19
5.220000E+03	5.863356E-18	3.966893E-19
5.230000E+03	5.786363E-18	3.905535E-19
5.240000E+03	5.712563E-18	3.846728E-19
5.250000E+03	5.641906E-18	3.790422E-19
5.260000E+03	5.574344E-18	3.736569E-19
5.270000E+03	5.509718E-18	3.685047E-19
5.280000E+03	5.448043E-18	3.635851E-19
5.290000E+03	5.389225E-18	3.588906E-19
5.300000E+03	5.333231E-18	3.544175E-19
5.310000E+03	5.279972E-18	3.501590E-19
5.320000E+03	5.229476E-18	3.461153E-19
5.330000E+03	5.181606E-18	3.422766E-19
5.340000E+03	5.136344E-18	3.386405E-19
5.350000E+03	5.093618E-18	3.352013E-19
5.360000E+03	5.053462E-18	3.319603E-19
5.370000E+03	5.015708E-18	3.289056E-19
5.380000E+03	4.980401E-18	3.260393E-19
5.390000E+03	4.947481E-18	3.233568E-19
5.400000E+03	4.916893E-18	3.208538E-19
5.410000E+03	4.888491E-18	3.185202E-19
5.420000E+03	4.862229E-18	3.163522E-19
5.430000E+03	4.838063E-18	3.143469E-19
5.440000E+03	4.815761E-18	3.124885E-19
5.450000E+03	4.795289E-18	3.107746E-19
5.460000E+03	4.776470E-18	3.091933E-19
5.470000E+03	4.759221E-18	3.077393E-19
5.480000E+03	4.743698E-18	3.064222E-19
5.490000E+03	4.729857E-18	3.052388E-19
5.500000E+03	4.717831E-18	3.041966E-19
5.510000E+03	4.707616E-18	3.032945E-19
5.520000E+03	4.699339E-18	3.025401E-19
5.530000E+03	4.692898E-18	3.019259E-19
5.540000E+03	4.688332E-18	3.014538E-19
5.550000E+03	4.685588E-18	3.011199E-19
5.560000E+03	4.684758E-18	3.009293E-19
5.570000E+03	4.685748E-18	3.008755E-19
5.580000E+03	4.688558E-18	3.009580E-19
5.590000E+03	4.693144E-18	3.011736E-19
5.600000E+03	4.699560E-18	3.015254E-19
5.610000E+03	4.707720E-18	3.020074E-19
5.620000E+03	4.717631E-18	3.026199E-19
5.630000E+03	4.729307E-18	3.033635E-19
5.640000E+03	4.742715E-18	3.042357E-19
5.650000E+03	4.757871E-18	3.052374E-19
5.660000E+03	4.774692E-18	3.063633E-19
5.670000E+03	4.793200E-18	3.076145E-19
5.680000E+03	4.813416E-18	3.089924E-19
5.690000E+03	4.835312E-18	3.104951E-19
5.700000E+03	4.858865E-18	3.121212E-19
5.710000E+03	4.884048E-18	3.138688E-19
5.720000E+03	4.910941E-18	3.157434E-19
5.730000E+03	4.939419E-18	3.177368E-19
5.740000E+03	4.969564E-18	3.198545E-19
5.750000E+03	5.001356E-18	3.220954E-19
5.760000E+03	5.034721E-18	3.244548E-19
5.770000E+03	5.069694E-18	3.269354E-19
5.780000E+03	5.106309E-18	3.295394E-19
5.790000E+03	5.144496E-18	3.322627E-19
5.800000E+03	5.184234E-18	3.351043E-19
5.810000E+03	5.225618E-18	3.380705E-19
5.820000E+03	5.268518E-18	3.411534E-19
5.830000E+03	5.312974E-18	3.443559E-19
5.840000E+03	5.358966E-18	3.476771E-19
5.850000E+03	5.406478E-18	3.511165E-19
5.860000E+03	5.455549E-18	3.546770E-19
5.870000E+03	5.506042E-18	3.583502E-19
5.880000E+03	5.558058E-18	3.621433E-19
5.890000E+03	5.611516E-18	3.660514E-19
5.900000E+03	5.666394E-18	3.700738E-19
5.910000E+03	5.722669E-18	3.742094E-19
5.920000E+03	5.780318E-18	3.784574E-19
5.930000E+03	5.839380E-18	3.828210E-19
5.940000E+03	5.899700E-18	3.872906E-19
5.950000E+03	5.961246E-18	3.918649E-19
5.960000E+03	6.024054E-18	3.965468E-19
5.970000E+03	6.088095E-18	4.013351E-19
5.980000E+03	6.153191E-18	4.062189E-19
5.990000E+03	6.219449E-18	4.112058E-19
6.000000E+03	6.286609E-18	4.162796E-19
6.010000E+03	6.354849E-18	4.214525E-19
6.020000E+03	6.423900E-18	4.267077E-19
6.030000E+03	6.493709E-18	4.320422E-19
6.040000E+03	6.564299E-18	4.374584E-19
6.050000E+03	6.635535E-18	4.429480E-19
6.060000E+03	6.707356E-18	4.485078E-19
6.070000E+03	6.779536E-18	4.541232E-19
6.080000E+03	6.852165E-18	4.598010E-19
6.090000E+03	6.924923E-18	4.655206E-19
6.100000E+03	6.997894E-18	4.712881E-19
6.110000E+03	7.070913E-18	4.770932E-19
6.120000E+03	7.143806E-18	4.829247E-19
6.130000E+03	7.216477E-18	4.887768E-19
6.140000E+03	7.288919E-18	4.946496E-19
6.150000E+03	7.360945E-18	5.005310E-19
6.160000E+03	7.432448E-18	5.064142E-19
6.170000E+03	7.503512E-18	5.123054E-19
6.180000E+03	7.573840E-18	5.181849E-19
6.190000E+03	7.643418E-18	5.240522E-19
6.200000E+03	7.712249E-18	5.299079E-19
6.210000E+03	7.780372E-18	5.357551E-19
6.220000E+03	7.847631E-18	5.415835E-19
6.230000E+03	7.913965E-18	5.473893E-19
6.240000E+03	7.979417E-18	5.531758E-19
6.250000E+03	8.043825E-18	5.589322E-19
6.260000E+03	8.107232E-18	5.646619E-19
6.270000E+03	8.169588E-18	5.703615E-19
6.280000E+03	8.230952E-18	5.760355E-19
6.290000E+03	8.291287E-18	5.816807E-19
6.300000E+03	8.350558E-18	5.872937E-19
6.310000E+03	8.408843E-18	5.928790E-19
6.320000E+03	8.466225E-18	5.984415E-19
6.330000E+03	8.522561E-18	6.039702E-19
6.340000E+03	8.577938E-18	6.094701E-19
6.350000E+03	8.632450E-18	6.149470E-19
6.360000E+03	8.685953E-18	6.203895E-19
6.370000E+03	8.738667E-18	6.258124E-19
6.380000E+03	8.790578E-18	6.312134E-19
6.390000E+03	8.841667E-18	6.365904E-19
6.400000E+03	8.891919E-18	6.419412E-19
6.410000E+03	8.941578E-18	6.472822E-19
6.420000E+03	8.990508E-18	6.526026E-19
6.430000E+03	9.038964E-18	6.579200E-19
6.440000E+03	9.086947E-18	6.632335E-19
6.450000E+03	9.134458E-18	6.685423E-19
6.460000E+03	9.181634E-18	6.738554E-19
6.470000E+03	9.228484E-18	6.791727E-19
6.480000E+03	9.275155E-18	6.845041E-19
6.490000E+03	9.321374E-18	6.898288E-19
6.500000E+03	9.367434E-18	6.951674E-19
6.510000E+03	9.413347E-18	7.005201E-19
6.520000E+03	9.458982E-18	7.058763E-19
6.530000E+03	9.504496E-18	7.112470E-19
6.540000E+03	9.549906E-18	7.166326E-19
6.550000E+03	9.595228E-18	7.220337E-19
6.560000E+03	9.640479E-18	7.274506E-19
6.570000E+03	9.685832E-18	7.328960E-19
6.580000E+03	9.731153E-18	7.383588E-19
6.590000E+03	9.776458E-18	7.438397E-19
6.600000E+03	9.821932E-18	7.493519E-19
6.610000E+03	9.867596E-18	7.548967E-19
6.620000E+03	9.913312E-18	7.604628E-19
6.630000E+03	9.959267E-18	7.660640E-19
6.640000E+03	1.000532E-17	7.716889E-19
6.650000E+03	1.005183E-17	7.773647E-19
6.660000E+03	1.009850E-17	7.830672E-19
6.670000E+03	1.014533E-17	7.887974E-19
6.680000E+03	1.019254E-17	7.945703E-19
6.690000E+03	1.024015E-17	8.003878E-19
6.700000E+03	1.028802E-17	8.062383E-19
6.710000E+03	1.033616E-17	8.121225E-19
6.720000E+03	1.038478E-17	8.180561E-19
6.730000E+03	1.043375E-17	8.240284E-19
6.740000E+03	1.048326E-17	8.300540E-19
6.750000E+03	1.053298E-17	8.361057E-19
6.760000E+03	1.058331E-17	8.422161E-19
6.770000E+03	1.063389E-17	8.483563E-19
6.780000E+03	1.068515E-17	8.545582E-19
6.790000E+03	1.073671E-17	8.607937E-19
6.800000E+03	1.078882E-17	8.670799E-19
6.810000E+03	1.084151E-17	8.734202E-19
6.820000E+03	1.089458E-17	8.797986E-19
6.830000E+03	1.094828E-17	8.862342E-19
6.840000E+03	1.100244E-17	8.927127E-19
6.850000E+03	1.105730E-17	8.992533E-19
6.860000E+03	1.111246E-17	9.058240E-19
6.870000E+03	1.116838E-17	9.124610E-19
6.880000E+03	1.122487E-17	9.191490E-19
6.890000E+03	1.128196E-17	9.258898E-19
6.900000E+03	1.133948E-17	9.326696E-19
6.910000E+03	1.139788E-17	9.395242E-19
6.920000E+03	1.145654E-17	9.464031E-19
6.930000E+03	1.151614E-17	9.533621E-19
6.940000E+03	1.157628E-17	9.603668E-19
6.950000E+03	1.163699E-17	9.674207E-19
6.960000E+03	1.169850E-17	9.745427E-19
6.970000E+03	1.176065E-17	9.817173E-19
6.980000E+03	1.182345E-17	9.889472E-19
6.990000E+03	1.188693E-17	9.962341E-19
7.000000E+03	1.195114E-17	1.003581E-18
7.010000E+03	1.201607E-17	1.010988E-18
7.020000E+03	1.208156E-17	1.018440E-18
7.030000E+03	1.214808E-17	1.025977E-18
7.040000E+03	1.221497E-17	1.033544E-18
7.050000E+03	1.228295E-17	1.041200E-18
7.060000E+03	1.235135E-17	1.048889E-18
7.070000E+03	1.242068E-17	1.056655E-18
7.080000E+03	1.249072E-17	1.064477E-18
7.090000E+03	1.256151E-17	1.072358E-18
7.100000E+03	1.263333E-17	1.080324E-18
7.110000E+03	1.270570E-17	1.088332E-18
7.120000E+03	1.277891E-17	1.096407E-18
7.130000E+03	1.285272E-17	1.104528E-18
7.140000E+03	1.292742E-17	1.112720E-18
7.150000E+03	1.300305E-17	1.120985E-18
7.160000E+03	1.307939E-17	1.129306E-18
7.170000E+03	1.315671E-17	1.137705E-18
7.180000E+03	1.323452E-17	1.146138E-18
7.190000E+03	1.331338E-17	1.154656E-18
7.200000E+03	1.339306E-17	1.163237E-18
7.210000E+03	1.347332E-17	1.171859E-18
7.220000E+03	1.355444E-17	1.180549E-18
7.230000E+03	1.363647E-17	1.189308E-18
7.240000E+03	1.371915E-17	1.198116E-18
7.250000E+03	1.380251E-17	1.206973E-18
7.260000E+03	1.388660E-17	1.215884E-18
7.270000E+03	1.397140E-17	1.224847E-18
7.280000E+03	1.405697E-17	1.233868E-18
7.290000E+03	1.414276E-17	1.242896E-18
7.300000E+03	1.422936E-17	1.251985E-18
7.310000E+03	1.431650E-17	1.261109E-18
7.320000E+03	1.440391E-17	1.270246E-18
7.330000E+03	1.449191E-17	1.279421E-18
7.340000E+03	1.457992E-17	1.288586E-18
7.350000E+03	1.466794E-17	1.297738E-18
7.360000E+03	1.475597E-17	1.306878E-18
7.370000E+03	1.484375E-17	1.315981E-18
7.380000E+03	1.493157E-17	1.325073E-18
7.390000E+03	1.501850E-17	1.334072E-18
7.400000E+03	1.510517E-17	1.343033E-18
7.410000E+03	1.519093E-17	1.351897E-18
7.420000E+03	1.527610E-17	1.360693E-18
7.430000E+03	1.536037E-17	1.369392E-18
7.440000E+03	1.544370E-17	1.377990E-18
7.450000E+03	1.552643E-17	1.386517E-18
7.460000E+03	1.560822E-17	1.394943E-18
7.470000E+03	1.569007E-17	1.403357E-18
7.480000E+03	1.577132E-17	1.411700E-18
7.490000E+03	1.585263E-17	1.420029E-18
7.500000E+03	1.593370E-17	1.428318E-18
7.510000E+03	1.601556E-17	1.436660E-18
7.520000E+03	1.609790E-17	1.445026E-18
7.530000E+03	1.618069E-17	1.453414E-18
7.540000E+03	1.626429E-17	1.461857E-18
7.550000E+03	1.634873E-17	1.470356E-18
7.560000E+03	1.643472E-17	1.478977E-18
7.570000E+03	1.652156E-17	1.487656E-18
7.580000E+03	1.660964E-17	1.496428E-18
7.590000E+03	1.669932E-17	1.505326E-18
7.600000E+03	1.679028E-17	1.514321E-18
7.610000E+03	1.688290E-17	1.523448E-18
7.620000E+03	1.697679E-17	1.532672E-18
7.630000E+03	1.707276E-17	1.542063E-18
7.640000E+03	1.717004E-17	1.551555E-18
7.650000E+03	1.726943E-17	1.561217E-18
7.660000E+03	1.737016E-17	1.570981E-18
7.670000E+03	1.747303E-17	1.580918E-18
7.680000E+03	1.757728E-17	1.590959E-18
7.690000E+03	1.768370E-17	1.601176E-18
7.700000E+03	1.779194E-17	1.611536E-18
7.710000E+03	1.790199E-17	1.622039E-18
7.720000E+03	1.801390E-17	1.632689E-18
7.730000E+03	1.812766E-17	1.643484E-18
7.740000E+03	1.824330E-17	1.654427E-18
7.750000E+03	1.836042E-17	1.665481E-18
7.760000E+03	1.847988E-17	1.676723E-18
