#wls	flux	fluxerr
1.600000E+03	2.184456E-17	6.405385E-18
1.640000E+03	2.259623E-17	6.606855E-18
1.680000E+03	2.339099E-17	6.819109E-18
1.720000E+03	2.422947E-17	7.042163E-18
1.760000E+03	2.511433E-17	7.276595E-18
1.800000E+03	2.605005E-17	7.523503E-18
1.840000E+03	2.703214E-17	7.781373E-18
1.880000E+03	2.806667E-17	8.051733E-18
1.920000E+03	2.915278E-17	8.334087E-18
1.960000E+03	3.028921E-17	8.627831E-18
2.000000E+03	3.147216E-17	8.931626E-18
2.040000E+03	3.269953E-17	9.244621E-18
2.080000E+03	3.396451E-17	9.564642E-18
2.120000E+03	3.525569E-17	9.888242E-18
2.160000E+03	3.656772E-17	1.021371E-17
2.200000E+03	3.788653E-17	1.053695E-17
2.240000E+03	3.920006E-17	1.085444E-17
2.280000E+03	4.050038E-17	1.116389E-17
2.320000E+03	4.178350E-17	1.146412E-17
2.360000E+03	4.305125E-17	1.175555E-17
2.400000E+03	4.430696E-17	1.203902E-17
2.440000E+03	4.555322E-17	1.231513E-17
2.480000E+03	4.679773E-17	1.258585E-17
2.520000E+03	4.804133E-17	1.285126E-17
2.560000E+03	4.928774E-17	1.311223E-17
2.600000E+03	5.053401E-17	1.336780E-17
2.640000E+03	5.177819E-17	1.361732E-17
2.680000E+03	5.301387E-17	1.385896E-17
2.720000E+03	5.423408E-17	1.409081E-17
2.760000E+03	5.543130E-17	1.431084E-17
2.800000E+03	5.659581E-17	1.451653E-17
2.840000E+03	5.771773E-17	1.470537E-17
2.880000E+03	5.879011E-17	1.487567E-17
2.920000E+03	5.980260E-17	1.502496E-17
2.960000E+03	6.075228E-17	1.515270E-17
3.000000E+03	6.163116E-17	1.525713E-17
3.010000E+03	6.184096E-17	1.527990E-17
3.020000E+03	6.204504E-17	1.530092E-17
3.030000E+03	6.224322E-17	1.532015E-17
3.040000E+03	6.243806E-17	1.533822E-17
3.050000E+03	6.262793E-17	1.535474E-17
3.060000E+03	6.281261E-17	1.536965E-17
3.070000E+03	6.299322E-17	1.538323E-17
3.080000E+03	6.316817E-17	1.539512E-17
3.090000E+03	6.333725E-17	1.540525E-17
3.100000E+03	6.350288E-17	1.541422E-17
3.110000E+03	6.366216E-17	1.542134E-17
3.120000E+03	6.381620E-17	1.542688E-17
3.130000E+03	6.396348E-17	1.543048E-17
3.140000E+03	6.410759E-17	1.543302E-17
3.150000E+03	6.424451E-17	1.543353E-17
3.160000E+03	6.437526E-17	1.543226E-17
3.170000E+03	6.450087E-17	1.542948E-17
3.180000E+03	6.462109E-17	1.542512E-17
3.190000E+03	6.473328E-17	1.541857E-17
3.200000E+03	6.484083E-17	1.541064E-17
3.210000E+03	6.494115E-17	1.540073E-17
3.220000E+03	6.503518E-17	1.538907E-17
3.230000E+03	6.512157E-17	1.537535E-17
3.240000E+03	6.520128E-17	1.535980E-17
3.250000E+03	6.527411E-17	1.534239E-17
3.260000E+03	6.533986E-17	1.532309E-17
3.270000E+03	6.539722E-17	1.530159E-17
3.280000E+03	6.544714E-17	1.527813E-17
3.290000E+03	6.548944E-17	1.525269E-17
3.300000E+03	6.552288E-17	1.522498E-17
3.310000E+03	6.554837E-17	1.519523E-17
3.320000E+03	6.556475E-17	1.516319E-17
3.330000E+03	6.557289E-17	1.512906E-17
3.340000E+03	6.557164E-17	1.509261E-17
3.350000E+03	6.556092E-17	1.505382E-17
3.360000E+03	6.554061E-17	1.501269E-17
3.370000E+03	6.551065E-17	1.496921E-17
3.380000E+03	6.547093E-17	1.492338E-17
3.390000E+03	6.542046E-17	1.487499E-17
3.400000E+03	6.536011E-17	1.482427E-17
3.410000E+03	6.528801E-17	1.477079E-17
3.420000E+03	6.520599E-17	1.471499E-17
3.430000E+03	6.511221E-17	1.465649E-17
3.440000E+03	6.500671E-17	1.459530E-17
3.450000E+03	6.488952E-17	1.453146E-17
3.460000E+03	6.475984E-17	1.446480E-17
3.470000E+03	6.461862E-17	1.439557E-17
3.480000E+03	6.446507E-17	1.432361E-17
3.490000E+03	6.429847E-17	1.424878E-17
3.500000E+03	6.411896E-17	1.417115E-17
3.510000E+03	6.392590E-17	1.409058E-17
3.520000E+03	6.372028E-17	1.400732E-17
3.530000E+03	6.349990E-17	1.392093E-17
3.540000E+03	6.326581E-17	1.383165E-17
3.550000E+03	6.301750E-17	1.373940E-17
3.560000E+03	6.275525E-17	1.364427E-17
3.570000E+03	6.247786E-17	1.354603E-17
3.580000E+03	6.218496E-17	1.344462E-17
3.590000E+03	6.187767E-17	1.334032E-17
3.600000E+03	6.155423E-17	1.323279E-17
3.610000E+03	6.121578E-17	1.312229E-17
3.620000E+03	6.086210E-17	1.300881E-17
3.630000E+03	6.049228E-17	1.289218E-17
3.640000E+03	6.010620E-17	1.277243E-17
3.650000E+03	5.970442E-17	1.264969E-17
3.660000E+03	5.928618E-17	1.252384E-17
3.670000E+03	5.885278E-17	1.239519E-17
3.680000E+03	5.840290E-17	1.226349E-17
3.690000E+03	5.793724E-17	1.212893E-17
3.700000E+03	5.745586E-17	1.199154E-17
3.710000E+03	5.695945E-17	1.185152E-17
3.720000E+03	5.644753E-17	1.170879E-17
3.730000E+03	5.592084E-17	1.156354E-17
3.740000E+03	5.537955E-17	1.141584E-17
3.750000E+03	5.482443E-17	1.126587E-17
3.760000E+03	5.425565E-17	1.111371E-17
3.770000E+03	5.367400E-17	1.095954E-17
3.780000E+03	5.307968E-17	1.080344E-17
3.790000E+03	5.247297E-17	1.064549E-17
3.800000E+03	5.185564E-17	1.048609E-17
3.810000E+03	5.122695E-17	1.032510E-17
3.820000E+03	5.058813E-17	1.016280E-17
3.830000E+03	4.994044E-17	9.999467E-18
3.840000E+03	4.928362E-17	9.835075E-18
3.850000E+03	4.861844E-17	9.669799E-18
3.860000E+03	4.794606E-17	9.503890E-18
3.870000E+03	4.726717E-17	9.337503E-18
3.880000E+03	4.658244E-17	9.170791E-18
3.890000E+03	4.589212E-17	9.003817E-18
3.900000E+03	4.519729E-17	8.836807E-18
3.910000E+03	4.449856E-17	8.669898E-18
3.920000E+03	4.379656E-17	8.503224E-18
3.930000E+03	4.309188E-17	8.336909E-18
3.940000E+03	4.238511E-17	8.171078E-18
3.950000E+03	4.167718E-17	8.005921E-18
3.960000E+03	4.096863E-17	7.841545E-18
3.970000E+03	4.025961E-17	7.677986E-18
3.980000E+03	3.955134E-17	7.515483E-18
3.990000E+03	3.884393E-17	7.354059E-18
4.000000E+03	3.813820E-17	7.193871E-18
4.010000E+03	3.743457E-17	7.035001E-18
4.020000E+03	3.673313E-17	6.877461E-18
4.030000E+03	3.603495E-17	6.721457E-18
4.040000E+03	3.534005E-17	6.566987E-18
4.050000E+03	3.464915E-17	6.414180E-18
4.060000E+03	3.396257E-17	6.263093E-18
4.070000E+03	3.328064E-17	6.113780E-18
4.080000E+03	3.260364E-17	5.966289E-18
4.090000E+03	3.193218E-17	5.820723E-18
4.100000E+03	3.126623E-17	5.677069E-18
4.110000E+03	3.060608E-17	5.535371E-18
4.120000E+03	2.995249E-17	5.395757E-18
4.130000E+03	2.930516E-17	5.258164E-18
4.140000E+03	2.866458E-17	5.122668E-18
4.150000E+03	2.803095E-17	4.989294E-18
4.160000E+03	2.740445E-17	4.858063E-18
4.170000E+03	2.678527E-17	4.728995E-18
4.180000E+03	2.617357E-17	4.602107E-18
4.190000E+03	2.556951E-17	4.477411E-18
4.200000E+03	2.497326E-17	4.354921E-18
4.210000E+03	2.438494E-17	4.234649E-18
4.220000E+03	2.380469E-17	4.116600E-18
4.230000E+03	2.323243E-17	4.000746E-18
4.240000E+03	2.266827E-17	3.887090E-18
4.250000E+03	2.211253E-17	3.775672E-18
4.260000E+03	2.156527E-17	3.666486E-18
4.270000E+03	2.102623E-17	3.559469E-18
4.280000E+03	2.049564E-17	3.454648E-18
4.290000E+03	1.997359E-17	3.352019E-18
4.300000E+03	1.946014E-17	3.251576E-18
4.310000E+03	1.895533E-17	3.153307E-18
4.320000E+03	1.845903E-17	3.057175E-18
4.330000E+03	1.797160E-17	2.963221E-18
4.340000E+03	1.749274E-17	2.871379E-18
4.350000E+03	1.702277E-17	2.781682E-18
4.360000E+03	1.656169E-17	2.694114E-18
4.370000E+03	1.610960E-17	2.608674E-18
4.380000E+03	1.566650E-17	2.525338E-18
4.390000E+03	1.523248E-17	2.444104E-18
4.400000E+03	1.480748E-17	2.364943E-18
4.410000E+03	1.439173E-17	2.287871E-18
4.420000E+03	1.398518E-17	2.212857E-18
4.430000E+03	1.358775E-17	2.139871E-18
4.440000E+03	1.319961E-17	2.068920E-18
4.450000E+03	1.282067E-17	1.999967E-18
4.460000E+03	1.245093E-17	1.932995E-18
4.470000E+03	1.209049E-17	1.867997E-18
4.480000E+03	1.173911E-17	1.804918E-18
4.490000E+03	1.139687E-17	1.743749E-18
4.500000E+03	1.106371E-17	1.684460E-18
4.510000E+03	1.073947E-17	1.627010E-18
4.520000E+03	1.042408E-17	1.571367E-18
4.530000E+03	1.011745E-17	1.517501E-18
4.540000E+03	9.819500E-18	1.465378E-18
4.550000E+03	9.530143E-18	1.414968E-18
4.560000E+03	9.249161E-18	1.366219E-18
4.570000E+03	8.976374E-18	1.319088E-18
4.580000E+03	8.711834E-18	1.273563E-18
4.590000E+03	8.455260E-18	1.229588E-18
4.600000E+03	8.206436E-18	1.187111E-18
4.610000E+03	7.965328E-18	1.146113E-18
4.620000E+03	7.731800E-18	1.106557E-18
4.630000E+03	7.505498E-18	1.068376E-18
4.640000E+03	7.286511E-18	1.031567E-18
4.650000E+03	7.074420E-18	9.960555E-19
4.660000E+03	6.869233E-18	9.618268E-19
4.670000E+03	6.670748E-18	9.288381E-19
4.680000E+03	6.478765E-18	8.970469E-19
4.690000E+03	6.293089E-18	8.664124E-19
4.700000E+03	6.113531E-18	8.368947E-19
4.710000E+03	5.940023E-18	8.084713E-19
4.720000E+03	5.772321E-18	7.810957E-19
4.730000E+03	5.610248E-18	7.547315E-19
4.740000E+03	5.453691E-18	7.293511E-19
4.750000E+03	5.302381E-18	7.049065E-19
4.760000E+03	5.156317E-18	6.813862E-19
4.770000E+03	5.015191E-18	6.587378E-19
4.780000E+03	4.878952E-18	6.369439E-19
4.790000E+03	4.747452E-18	6.159743E-19
4.800000E+03	4.620451E-18	5.957875E-19
4.810000E+03	4.497858E-18	5.763620E-19
4.820000E+03	4.379584E-18	5.576765E-19
4.830000E+03	4.265405E-18	5.396929E-19
4.840000E+03	4.155240E-18	5.223917E-19
4.850000E+03	4.048962E-18	5.057485E-19
4.860000E+03	3.946412E-18	4.897344E-19
4.870000E+03	3.847472E-18	4.743267E-19
4.880000E+03	3.752071E-18	4.595083E-19
4.890000E+03	3.660058E-18	4.452530E-19
4.900000E+03	3.571366E-18	4.315449E-19
4.910000E+03	3.485819E-18	4.183555E-19
4.920000E+03	3.403353E-18	4.056699E-19
4.930000E+03	3.323874E-18	3.934700E-19
4.940000E+03	3.247255E-18	3.817340E-19
4.950000E+03	3.173441E-18	3.704490E-19
4.960000E+03	3.102313E-18	3.595948E-19
4.970000E+03	3.033819E-18	3.491592E-19
4.980000E+03	2.967848E-18	3.391235E-19
4.990000E+03	2.904323E-18	3.294733E-19
5.000000E+03	2.843140E-18	3.201912E-19
5.010000E+03	2.784286E-18	3.112704E-19
5.020000E+03	2.727636E-18	3.026915E-19
5.030000E+03	2.673122E-18	2.944422E-19
5.040000E+03	2.620711E-18	2.865139E-19
5.050000E+03	2.570314E-18	2.788920E-19
5.060000E+03	2.521871E-18	2.715656E-19
5.070000E+03	2.475329E-18	2.645245E-19
5.080000E+03	2.430631E-18	2.577583E-19
5.090000E+03	2.387703E-18	2.512550E-19
5.100000E+03	2.346496E-18	2.450055E-19
5.110000E+03	2.306987E-18	2.390035E-19
5.120000E+03	2.269084E-18	2.332357E-19
5.130000E+03	2.232792E-18	2.276989E-19
5.140000E+03	2.198000E-18	2.223784E-19
5.150000E+03	2.164717E-18	2.172717E-19
5.160000E+03	2.132883E-18	2.123694E-19
5.170000E+03	2.102463E-18	2.076650E-19
5.180000E+03	2.073426E-18	2.031522E-19
5.190000E+03	2.045718E-18	1.988230E-19
5.200000E+03	2.019311E-18	1.946716E-19
5.210000E+03	1.994157E-18	1.906907E-19
5.220000E+03	1.970272E-18	1.868792E-19
5.230000E+03	1.947571E-18	1.832264E-19
5.240000E+03	1.926051E-18	1.797297E-19
5.250000E+03	1.905693E-18	1.763850E-19
5.260000E+03	1.886476E-18	1.731880E-19
5.270000E+03	1.868346E-18	1.701314E-19
5.280000E+03	1.851305E-18	1.672135E-19
5.290000E+03	1.835319E-18	1.644292E-19
5.300000E+03	1.820376E-18	1.617754E-19
5.310000E+03	1.806446E-18	1.592477E-19
5.320000E+03	1.793537E-18	1.568451E-19
5.330000E+03	1.781604E-18	1.545618E-19
5.340000E+03	1.770640E-18	1.523956E-19
5.350000E+03	1.760620E-18	1.503432E-19
5.360000E+03	1.751559E-18	1.484041E-19
5.370000E+03	1.743399E-18	1.465722E-19
5.380000E+03	1.736156E-18	1.448477E-19
5.390000E+03	1.729814E-18	1.432279E-19
5.400000E+03	1.724353E-18	1.417103E-19
5.410000E+03	1.719726E-18	1.402899E-19
5.420000E+03	1.715917E-18	1.389646E-19
5.430000E+03	1.712915E-18	1.377328E-19
5.440000E+03	1.710638E-18	1.365873E-19
5.450000E+03	1.709077E-18	1.355269E-19
5.460000E+03	1.708169E-18	1.345463E-19
5.470000E+03	1.707889E-18	1.336431E-19
5.480000E+03	1.708296E-18	1.328220E-19
5.490000E+03	1.709377E-18	1.320818E-19
5.500000E+03	1.711187E-18	1.314264E-19
5.510000E+03	1.713739E-18	1.308569E-19
5.520000E+03	1.717091E-18	1.303775E-19
5.530000E+03	1.721218E-18	1.299864E-19
5.540000E+03	1.726143E-18	1.296848E-19
5.550000E+03	1.731853E-18	1.294708E-19
5.560000E+03	1.738388E-18	1.293463E-19
5.570000E+03	1.745723E-18	1.293082E-19
5.580000E+03	1.753863E-18	1.293561E-19
5.590000E+03	1.762801E-18	1.294884E-19
5.600000E+03	1.772564E-18	1.297062E-19
5.610000E+03	1.783127E-18	1.300067E-19
5.620000E+03	1.794500E-18	1.303900E-19
5.630000E+03	1.806698E-18	1.308564E-19
5.640000E+03	1.819715E-18	1.314047E-19
5.650000E+03	1.833565E-18	1.320352E-19
5.660000E+03	1.848226E-18	1.327458E-19
5.670000E+03	1.863713E-18	1.335370E-19
5.680000E+03	1.880041E-18	1.344094E-19
5.690000E+03	1.897211E-18	1.353624E-19
5.700000E+03	1.915219E-18	1.363955E-19
5.710000E+03	1.934063E-18	1.375082E-19
5.720000E+03	1.953785E-18	1.387029E-19
5.730000E+03	1.974341E-18	1.399764E-19
5.740000E+03	1.995772E-18	1.413313E-19
5.750000E+03	2.018079E-18	1.427675E-19
5.760000E+03	2.041242E-18	1.442832E-19
5.770000E+03	2.065279E-18	1.458799E-19
5.780000E+03	2.090215E-18	1.475590E-19
5.790000E+03	2.116027E-18	1.493190E-19
5.800000E+03	2.142716E-18	1.511599E-19
5.810000E+03	2.170327E-18	1.530851E-19
5.820000E+03	2.198812E-18	1.550912E-19
5.830000E+03	2.228197E-18	1.571801E-19
5.840000E+03	2.258479E-18	1.593520E-19
5.850000E+03	2.289657E-18	1.616070E-19
5.860000E+03	2.321754E-18	1.639471E-19
5.870000E+03	2.354718E-18	1.663688E-19
5.880000E+03	2.388596E-18	1.688761E-19
5.890000E+03	2.423359E-18	1.714672E-19
5.900000E+03	2.459001E-18	1.741423E-19
5.910000E+03	2.495516E-18	1.769016E-19
5.920000E+03	2.532895E-18	1.797450E-19
5.930000E+03	2.571162E-18	1.826749E-19
5.940000E+03	2.610247E-18	1.856872E-19
5.950000E+03	2.650138E-18	1.887817E-19
5.960000E+03	2.690850E-18	1.919605E-19
5.970000E+03	2.732370E-18	1.952236E-19
5.980000E+03	2.774619E-18	1.985662E-19
5.990000E+03	2.817639E-18	2.019924E-19
6.000000E+03	2.861311E-18	2.054949E-19
6.010000E+03	2.905711E-18	2.090803E-19
6.020000E+03	2.950709E-18	2.127404E-19
6.030000E+03	2.996277E-18	2.164746E-19
6.040000E+03	3.042413E-18	2.202840E-19
6.050000E+03	3.089048E-18	2.241651E-19
6.060000E+03	3.136142E-18	2.281164E-19
6.070000E+03	3.183578E-18	2.321309E-19
6.080000E+03	3.231384E-18	2.362123E-19
6.090000E+03	3.279394E-18	2.403499E-19
6.100000E+03	3.327631E-18	2.445471E-19
6.110000E+03	3.376001E-18	2.487987E-19
6.120000E+03	3.424399E-18	2.530986E-19
6.130000E+03	3.472758E-18	2.574436E-19
6.140000E+03	3.521054E-18	2.618336E-19
6.150000E+03	3.569173E-18	2.662618E-19
6.160000E+03	3.617039E-18	2.707245E-19
6.170000E+03	3.664665E-18	2.752243E-19
6.180000E+03	3.711881E-18	2.797502E-19
6.190000E+03	3.758656E-18	2.843017E-19
6.200000E+03	3.804970E-18	2.888789E-19
6.210000E+03	3.850818E-18	2.934833E-19
6.220000E+03	3.896104E-18	2.981092E-19
6.230000E+03	3.940778E-18	3.027545E-19
6.240000E+03	3.984845E-18	3.074215E-19
6.250000E+03	4.028202E-18	3.121038E-19
6.260000E+03	4.070855E-18	3.168035E-19
6.270000E+03	4.112755E-18	3.215184E-19
6.280000E+03	4.153914E-18	3.262510E-19
6.290000E+03	4.194288E-18	3.309994E-19
6.300000E+03	4.233843E-18	3.357625E-19
6.310000E+03	4.272605E-18	3.405431E-19
6.320000E+03	4.310612E-18	3.453434E-19
6.330000E+03	4.347782E-18	3.501557E-19
6.340000E+03	4.384156E-18	3.549818E-19
6.350000E+03	4.419777E-18	3.598235E-19
6.360000E+03	4.454568E-18	3.646730E-19
6.370000E+03	4.488638E-18	3.695376E-19
6.380000E+03	4.521976E-18	3.744145E-19
6.390000E+03	4.554570E-18	3.793009E-19
6.400000E+03	4.586409E-18	3.841940E-19
6.410000E+03	4.617618E-18	3.891025E-19
6.420000E+03	4.648126E-18	3.940182E-19
6.430000E+03	4.678062E-18	3.989503E-19
6.440000E+03	4.707427E-18	4.038969E-19
6.450000E+03	4.736221E-18	4.088561E-19
6.460000E+03	4.764515E-18	4.138322E-19
6.470000E+03	4.792315E-18	4.188236E-19
6.480000E+03	4.819698E-18	4.238352E-19
6.490000E+03	4.846522E-18	4.288527E-19
6.500000E+03	4.872940E-18	4.338877E-19
6.510000E+03	4.898961E-18	4.389391E-19
6.520000E+03	4.924516E-18	4.439989E-19
6.530000E+03	4.949690E-18	4.490728E-19
6.540000E+03	4.974493E-18	4.541599E-19
6.550000E+03	4.998934E-18	4.592592E-19
6.560000E+03	5.023026E-18	4.643701E-19
6.570000E+03	5.046859E-18	4.694991E-19
6.580000E+03	5.070366E-18	4.746385E-19
6.590000E+03	5.093558E-18	4.797875E-19
6.600000E+03	5.116531E-18	4.849534E-19
6.610000E+03	5.139301E-18	4.901363E-19
6.620000E+03	5.161798E-18	4.953279E-19
6.630000E+03	5.184121E-18	5.005361E-19
6.640000E+03	5.206199E-18	5.057527E-19
6.650000E+03	5.228224E-18	5.109947E-19
6.660000E+03	5.250035E-18	5.162453E-19
6.670000E+03	5.271647E-18	5.215043E-19
6.680000E+03	5.293165E-18	5.267808E-19
6.690000E+03	5.314610E-18	5.320757E-19
6.700000E+03	5.335903E-18	5.373797E-19
6.710000E+03	5.357063E-18	5.426935E-19
6.720000E+03	5.378199E-18	5.480269E-19
6.730000E+03	5.399234E-18	5.533711E-19
6.740000E+03	5.420282E-18	5.587364E-19
6.750000E+03	5.441166E-18	5.641037E-19
6.760000E+03	5.462100E-18	5.694938E-19
6.770000E+03	5.482904E-18	5.748871E-19
6.780000E+03	5.503790E-18	5.803049E-19
6.790000E+03	5.524581E-18	5.857274E-19
6.800000E+03	5.545392E-18	5.911658E-19
6.810000E+03	5.566242E-18	5.966214E-19
6.820000E+03	5.587045E-18	6.020840E-19
6.830000E+03	5.607922E-18	6.075657E-19
6.840000E+03	5.628788E-18	6.130565E-19
6.850000E+03	5.649763E-18	6.185687E-19
6.860000E+03	5.670654E-18	6.240805E-19
6.870000E+03	5.691690E-18	6.296161E-19
6.880000E+03	5.712783E-18	6.351652E-19
6.890000E+03	5.733951E-18	6.407291E-19
6.900000E+03	5.755102E-18	6.462967E-19
6.910000E+03	5.776469E-18	6.518937E-19
6.920000E+03	5.797745E-18	6.574845E-19
6.930000E+03	5.819272E-18	6.631076E-19
6.940000E+03	5.840850E-18	6.687395E-19
6.950000E+03	5.862494E-18	6.743813E-19
6.960000E+03	5.884334E-18	6.800475E-19
6.970000E+03	5.906275E-18	6.857266E-19
6.980000E+03	5.928334E-18	6.914200E-19
6.990000E+03	5.950526E-18	6.971290E-19
7.000000E+03	5.972869E-18	7.028553E-19
7.010000E+03	5.995382E-18	7.086006E-19
7.020000E+03	6.017963E-18	7.143524E-19
7.030000E+03	6.040865E-18	7.201405E-19
7.040000E+03	6.063750E-18	7.259240E-19
7.050000E+03	6.086991E-18	7.317474E-19
7.060000E+03	6.110247E-18	7.375692E-19
7.070000E+03	6.133776E-18	7.434201E-19
7.080000E+03	6.157472E-18	7.492873E-19
7.090000E+03	6.181354E-18	7.551724E-19
7.100000E+03	6.205563E-18	7.610926E-19
7.110000E+03	6.229867E-18	7.670191E-19
7.120000E+03	6.254408E-18	7.729692E-19
7.130000E+03	6.279075E-18	7.789288E-19
7.140000E+03	6.304014E-18	7.849158E-19
7.150000E+03	6.329241E-18	7.909320E-19
7.160000E+03	6.354646E-18	7.969634E-19
7.170000E+03	6.380375E-18	8.030281E-19
7.180000E+03	6.406185E-18	8.090956E-19
7.190000E+03	6.432356E-18	8.152006E-19
7.200000E+03	6.458772E-18	8.213287E-19
7.210000E+03	6.485319E-18	8.274650E-19
7.220000E+03	6.512145E-18	8.336283E-19
7.230000E+03	6.539268E-18	8.398207E-19
7.240000E+03	6.566573E-18	8.460273E-19
7.250000E+03	6.594072E-18	8.522495E-19
7.260000E+03	6.621786E-18	8.584898E-19
7.270000E+03	6.649728E-18	8.647498E-19
7.280000E+03	6.677916E-18	8.710317E-19
7.290000E+03	6.706089E-18	8.773013E-19
7.300000E+03	6.734539E-18	8.835964E-19
7.310000E+03	6.763143E-18	8.899009E-19
7.320000E+03	6.791775E-18	8.961978E-19
7.330000E+03	6.820591E-18	9.025077E-19
7.340000E+03	6.849320E-18	9.087944E-19
7.350000E+03	6.877972E-18	9.150589E-19
7.360000E+03	6.906561E-18	9.213025E-19
7.370000E+03	6.934951E-18	9.275068E-19
7.380000E+03	6.963298E-18	9.336923E-19
7.390000E+03	6.991171E-18	9.398007E-19
7.400000E+03	7.018872E-18	9.458719E-19
7.410000E+03	7.046110E-18	9.518664E-19
7.420000E+03	7.073041E-18	9.578046E-19
7.430000E+03	7.099520E-18	9.636664E-19
7.440000E+03	7.125550E-18	9.694516E-19
7.450000E+03	7.151291E-18	9.751813E-19
7.460000E+03	7.176593E-18	9.808349E-19
7.470000E+03	7.201927E-18	9.864763E-19
7.480000E+03	7.226992E-18	9.920641E-19
7.490000E+03	7.252110E-18	9.976424E-19
7.500000E+03	7.277134E-18	1.003191E-18
7.510000E+03	7.302551E-18	1.008777E-18
7.520000E+03	7.328216E-18	1.014380E-18
7.530000E+03	7.354139E-18	1.020003E-18
7.540000E+03	7.380492E-18	1.025669E-18
7.550000E+03	7.407284E-18	1.031380E-18
7.560000E+03	7.434858E-18	1.037184E-18
7.570000E+03	7.462901E-18	1.043038E-18
7.580000E+03	7.491592E-18	1.048968E-18
7.590000E+03	7.521111E-18	1.054999E-18
7.600000E+03	7.551304E-18	1.061109E-18
7.610000E+03	7.582343E-18	1.067323E-18
7.620000E+03	7.614062E-18	1.073617E-18
7.630000E+03	7.646810E-18	1.080040E-18
7.640000E+03	7.680249E-18	1.086545E-18
7.650000E+03	7.714730E-18	1.093182E-18
7.660000E+03	7.749913E-18	1.099902E-18
7.670000E+03	7.786155E-18	1.106755E-18
7.680000E+03	7.823109E-18	1.113693E-18
7.690000E+03	7.861139E-18	1.120768E-18
7.700000E+03	7.900075E-18	1.127955E-18
7.710000E+03	7.939925E-18	1.135255E-18
7.720000E+03	7.980695E-18	1.142669E-18
7.730000E+03	8.022395E-18	1.150199E-18
7.740000E+03	8.065031E-18	1.157845E-18
7.750000E+03	8.108424E-18	1.165582E-18
7.760000E+03	8.152959E-18	1.173464E-18
