#wls	flux	fluxerr
1.600000E+03	2.180130E-17	6.423026E-18
1.640000E+03	2.254332E-17	6.623404E-18
1.680000E+03	2.332768E-17	6.834485E-18
1.720000E+03	2.415500E-17	7.056274E-18
1.760000E+03	2.502782E-17	7.289346E-18
1.800000E+03	2.595058E-17	7.534788E-18
1.840000E+03	2.691871E-17	7.791074E-18
1.880000E+03	2.793820E-17	8.059719E-18
1.920000E+03	2.900815E-17	8.340234E-18
1.960000E+03	3.012724E-17	8.631996E-18
2.000000E+03	3.129157E-17	8.933652E-18
2.040000E+03	3.249904E-17	9.244352E-18
2.080000E+03	3.374281E-17	9.561917E-18
2.120000E+03	3.501146E-17	9.882884E-18
2.160000E+03	3.629968E-17	1.020556E-17
2.200000E+03	3.759346E-17	1.052583E-17
2.240000E+03	3.888083E-17	1.084020E-17
2.280000E+03	4.015388E-17	1.114638E-17
2.320000E+03	4.140873E-17	1.144321E-17
2.360000E+03	4.264716E-17	1.173110E-17
2.400000E+03	4.387248E-17	1.201090E-17
2.440000E+03	4.508726E-17	1.228322E-17
2.480000E+03	4.629914E-17	1.255004E-17
2.520000E+03	4.750895E-17	1.281145E-17
2.560000E+03	4.872033E-17	1.306829E-17
2.600000E+03	4.993036E-17	1.331963E-17
2.640000E+03	5.113713E-17	1.356483E-17
2.680000E+03	5.233434E-17	1.380208E-17
2.720000E+03	5.351504E-17	1.402948E-17
2.760000E+03	5.467187E-17	1.424501E-17
2.800000E+03	5.579528E-17	1.444618E-17
2.840000E+03	5.687557E-17	1.463051E-17
2.880000E+03	5.790596E-17	1.479633E-17
2.920000E+03	5.887630E-17	1.494121E-17
2.960000E+03	5.978380E-17	1.506460E-17
3.000000E+03	6.062071E-17	1.516479E-17
3.010000E+03	6.082003E-17	1.518653E-17
3.020000E+03	6.101369E-17	1.520652E-17
3.030000E+03	6.120149E-17	1.522472E-17
3.040000E+03	6.138595E-17	1.524178E-17
3.050000E+03	6.156548E-17	1.525729E-17
3.060000E+03	6.173985E-17	1.527121E-17
3.070000E+03	6.191018E-17	1.528381E-17
3.080000E+03	6.207491E-17	1.529472E-17
3.090000E+03	6.223381E-17	1.530388E-17
3.100000E+03	6.238928E-17	1.531191E-17
3.110000E+03	6.253847E-17	1.531808E-17
3.120000E+03	6.268248E-17	1.532270E-17
3.130000E+03	6.281981E-17	1.532539E-17
3.140000E+03	6.295399E-17	1.532702E-17
3.150000E+03	6.308104E-17	1.532663E-17
3.160000E+03	6.320203E-17	1.532449E-17
3.170000E+03	6.331793E-17	1.532085E-17
3.180000E+03	6.342851E-17	1.531564E-17
3.190000E+03	6.353116E-17	1.530826E-17
3.200000E+03	6.362925E-17	1.529952E-17
3.210000E+03	6.372021E-17	1.528880E-17
3.220000E+03	6.380497E-17	1.527636E-17
3.230000E+03	6.388220E-17	1.526187E-17
3.240000E+03	6.395287E-17	1.524557E-17
3.250000E+03	6.401677E-17	1.522743E-17
3.260000E+03	6.407369E-17	1.520741E-17
3.270000E+03	6.412238E-17	1.518522E-17
3.280000E+03	6.416376E-17	1.516109E-17
3.290000E+03	6.419765E-17	1.513499E-17
3.300000E+03	6.422284E-17	1.510665E-17
3.310000E+03	6.424024E-17	1.507630E-17
3.320000E+03	6.424869E-17	1.504366E-17
3.330000E+03	6.424907E-17	1.500897E-17
3.340000E+03	6.424025E-17	1.497198E-17
3.350000E+03	6.422213E-17	1.493267E-17
3.360000E+03	6.419465E-17	1.489105E-17
3.370000E+03	6.415769E-17	1.484711E-17
3.380000E+03	6.411120E-17	1.480084E-17
3.390000E+03	6.405418E-17	1.475204E-17
3.400000E+03	6.398751E-17	1.470093E-17
3.410000E+03	6.390935E-17	1.464709E-17
3.420000E+03	6.382149E-17	1.459097E-17
3.430000E+03	6.372214E-17	1.453217E-17
3.440000E+03	6.361134E-17	1.447071E-17
3.450000E+03	6.348914E-17	1.440664E-17
3.460000E+03	6.335474E-17	1.433978E-17
3.470000E+03	6.320907E-17	1.427038E-17
3.480000E+03	6.305139E-17	1.419828E-17
3.490000E+03	6.288098E-17	1.412335E-17
3.500000E+03	6.269799E-17	1.404564E-17
3.510000E+03	6.250180E-17	1.396504E-17
3.520000E+03	6.229336E-17	1.388178E-17
3.530000E+03	6.207055E-17	1.379542E-17
3.540000E+03	6.183440E-17	1.370622E-17
3.550000E+03	6.158440E-17	1.361408E-17
3.560000E+03	6.132083E-17	1.351910E-17
3.570000E+03	6.104255E-17	1.342104E-17
3.580000E+03	6.074919E-17	1.331987E-17
3.590000E+03	6.044182E-17	1.321584E-17
3.600000E+03	6.011877E-17	1.310861E-17
3.610000E+03	5.978114E-17	1.299846E-17
3.620000E+03	5.942871E-17	1.288537E-17
3.630000E+03	5.906063E-17	1.276918E-17
3.640000E+03	5.867674E-17	1.264990E-17
3.650000E+03	5.827762E-17	1.252768E-17
3.660000E+03	5.786255E-17	1.240239E-17
3.670000E+03	5.743279E-17	1.227434E-17
3.680000E+03	5.698705E-17	1.214329E-17
3.690000E+03	5.652602E-17	1.200941E-17
3.700000E+03	5.604976E-17	1.187276E-17
3.710000E+03	5.555896E-17	1.173351E-17
3.720000E+03	5.505316E-17	1.159159E-17
3.730000E+03	5.453308E-17	1.144719E-17
3.740000E+03	5.399890E-17	1.130038E-17
3.750000E+03	5.345135E-17	1.115134E-17
3.760000E+03	5.289063E-17	1.100015E-17
3.770000E+03	5.231750E-17	1.084698E-17
3.780000E+03	5.173217E-17	1.069192E-17
3.790000E+03	5.113489E-17	1.053505E-17
3.800000E+03	5.052744E-17	1.037675E-17
3.810000E+03	4.990904E-17	1.021690E-17
3.820000E+03	4.928095E-17	1.005577E-17
3.830000E+03	4.864436E-17	9.893631E-18
3.840000E+03	4.799905E-17	9.730463E-18
3.850000E+03	4.734573E-17	9.566433E-18
3.860000E+03	4.668557E-17	9.401795E-18
3.870000E+03	4.601924E-17	9.236702E-18
3.880000E+03	4.534740E-17	9.071303E-18
3.890000E+03	4.467027E-17	8.905661E-18
3.900000E+03	4.398890E-17	8.739998E-18
3.910000E+03	4.330392E-17	8.574453E-18
3.920000E+03	4.261593E-17	8.409158E-18
3.930000E+03	4.192549E-17	8.244232E-18
3.940000E+03	4.123319E-17	8.079802E-18
3.950000E+03	4.053993E-17	7.916054E-18
3.960000E+03	3.984624E-17	7.753095E-18
3.970000E+03	3.915225E-17	7.590960E-18
3.980000E+03	3.845916E-17	7.429883E-18
3.990000E+03	3.776709E-17	7.269892E-18
4.000000E+03	3.707680E-17	7.111134E-18
4.010000E+03	3.638873E-17	6.953696E-18
4.020000E+03	3.570295E-17	6.797590E-18
4.030000E+03	3.502050E-17	6.643016E-18
4.040000E+03	3.434143E-17	6.489975E-18
4.050000E+03	3.366638E-17	6.338591E-18
4.060000E+03	3.299569E-17	6.188921E-18
4.070000E+03	3.232967E-17	6.041019E-18
4.080000E+03	3.166861E-17	5.894933E-18
4.090000E+03	3.101309E-17	5.750762E-18
4.100000E+03	3.036308E-17	5.608497E-18
4.110000E+03	2.971884E-17	5.468176E-18
4.120000E+03	2.908113E-17	5.329928E-18
4.130000E+03	2.844966E-17	5.193693E-18
4.140000E+03	2.782488E-17	5.059540E-18
4.150000E+03	2.720698E-17	4.927498E-18
4.160000E+03	2.659616E-17	4.797586E-18
4.170000E+03	2.599258E-17	4.669822E-18
4.180000E+03	2.539639E-17	4.544224E-18
4.190000E+03	2.480778E-17	4.420806E-18
4.200000E+03	2.422685E-17	4.299578E-18
4.210000E+03	2.365377E-17	4.180552E-18
4.220000E+03	2.308865E-17	4.063736E-18
4.230000E+03	2.253141E-17	3.949098E-18
4.240000E+03	2.198217E-17	3.836644E-18
4.250000E+03	2.144120E-17	3.726410E-18
4.260000E+03	2.090860E-17	3.618394E-18
4.270000E+03	2.038408E-17	3.512530E-18
4.280000E+03	1.986789E-17	3.408847E-18
4.290000E+03	1.936010E-17	3.307340E-18
4.300000E+03	1.886075E-17	3.208000E-18
4.310000E+03	1.836990E-17	3.110819E-18
4.320000E+03	1.788741E-17	3.015758E-18
4.330000E+03	1.741364E-17	2.922859E-18
4.340000E+03	1.694827E-17	2.832054E-18
4.350000E+03	1.649162E-17	2.743377E-18
4.360000E+03	1.604369E-17	2.656811E-18
4.370000E+03	1.560458E-17	2.572355E-18
4.380000E+03	1.517425E-17	2.489985E-18
4.390000E+03	1.475281E-17	2.409697E-18
4.400000E+03	1.434021E-17	2.331465E-18
4.410000E+03	1.393665E-17	2.255303E-18
4.420000E+03	1.354208E-17	2.181181E-18
4.430000E+03	1.315643E-17	2.109070E-18
4.440000E+03	1.277985E-17	2.038974E-18
4.450000E+03	1.241224E-17	1.970858E-18
4.460000E+03	1.205361E-17	1.904703E-18
4.470000E+03	1.170407E-17	1.840506E-18
4.480000E+03	1.136334E-17	1.778207E-18
4.490000E+03	1.103152E-17	1.717799E-18
4.500000E+03	1.070855E-17	1.659254E-18
4.510000E+03	1.039426E-17	1.602529E-18
4.520000E+03	1.008858E-17	1.547592E-18
4.530000E+03	9.791445E-18	1.494414E-18
4.540000E+03	9.502751E-18	1.442962E-18
4.550000E+03	9.222404E-18	1.393202E-18
4.560000E+03	8.950207E-18	1.345088E-18
4.570000E+03	8.685981E-18	1.298574E-18
4.580000E+03	8.429762E-18	1.253648E-18
4.590000E+03	8.181282E-18	1.210253E-18
4.600000E+03	7.940339E-18	1.168343E-18
4.610000E+03	7.706886E-18	1.127894E-18
4.620000E+03	7.480793E-18	1.088870E-18
4.630000E+03	7.261717E-18	1.051206E-18
4.640000E+03	7.049741E-18	1.014897E-18
4.650000E+03	6.844457E-18	9.798713E-19
4.660000E+03	6.645874E-18	9.461134E-19
4.670000E+03	6.453791E-18	9.135807E-19
4.680000E+03	6.268016E-18	8.822313E-19
4.690000E+03	6.088358E-18	8.520247E-19
4.700000E+03	5.914633E-18	8.229215E-19
4.710000E+03	5.746774E-18	7.948991E-19
4.720000E+03	5.584540E-18	7.679113E-19
4.730000E+03	5.427762E-18	7.419221E-19
4.740000E+03	5.276329E-18	7.169044E-19
4.750000E+03	5.129982E-18	6.928109E-19
4.760000E+03	4.988719E-18	6.696299E-19
4.770000E+03	4.852239E-18	6.473098E-19
4.780000E+03	4.720495E-18	6.258332E-19
4.790000E+03	4.593342E-18	6.051704E-19
4.800000E+03	4.470546E-18	5.852802E-19
4.810000E+03	4.352021E-18	5.661414E-19
4.820000E+03	4.237676E-18	5.477327E-19
4.830000E+03	4.127300E-18	5.300168E-19
4.840000E+03	4.020808E-18	5.129743E-19
4.850000E+03	3.918082E-18	4.965809E-19
4.860000E+03	3.818963E-18	4.808080E-19
4.870000E+03	3.723340E-18	4.656333E-19
4.880000E+03	3.631143E-18	4.510399E-19
4.890000E+03	3.542226E-18	4.370018E-19
4.900000E+03	3.456523E-18	4.235034E-19
4.910000E+03	3.373863E-18	4.105162E-19
4.920000E+03	3.294186E-18	3.980260E-19
4.930000E+03	3.217399E-18	3.860145E-19
4.940000E+03	3.143380E-18	3.744602E-19
4.950000E+03	3.072075E-18	3.633506E-19
4.960000E+03	3.003369E-18	3.526654E-19
4.970000E+03	2.937212E-18	3.423928E-19
4.980000E+03	2.873495E-18	3.325143E-19
4.990000E+03	2.812145E-18	3.230154E-19
5.000000E+03	2.753063E-18	3.138793E-19
5.010000E+03	2.696233E-18	3.050990E-19
5.020000E+03	2.641535E-18	2.966556E-19
5.030000E+03	2.588904E-18	2.885367E-19
5.040000E+03	2.538308E-18	2.807338E-19
5.050000E+03	2.489659E-18	2.732327E-19
5.060000E+03	2.442902E-18	2.660226E-19
5.070000E+03	2.397983E-18	2.590930E-19
5.080000E+03	2.354849E-18	2.524343E-19
5.090000E+03	2.313428E-18	2.460342E-19
5.100000E+03	2.273672E-18	2.398839E-19
5.110000E+03	2.235559E-18	2.339770E-19
5.120000E+03	2.199000E-18	2.283005E-19
5.130000E+03	2.164000E-18	2.228513E-19
5.140000E+03	2.130452E-18	2.176148E-19
5.150000E+03	2.098363E-18	2.125885E-19
5.160000E+03	2.067678E-18	2.077633E-19
5.170000E+03	2.038362E-18	2.031326E-19
5.180000E+03	2.010384E-18	1.986902E-19
5.190000E+03	1.983692E-18	1.944282E-19
5.200000E+03	1.958261E-18	1.903409E-19
5.210000E+03	1.934044E-18	1.864213E-19
5.220000E+03	1.911054E-18	1.826680E-19
5.230000E+03	1.889211E-18	1.790706E-19
5.240000E+03	1.868514E-18	1.756266E-19
5.250000E+03	1.848941E-18	1.723316E-19
5.260000E+03	1.830475E-18	1.691817E-19
5.270000E+03	1.813062E-18	1.661698E-19
5.280000E+03	1.796704E-18	1.632938E-19
5.290000E+03	1.781370E-18	1.605490E-19
5.300000E+03	1.767047E-18	1.579322E-19
5.310000E+03	1.753707E-18	1.554392E-19
5.320000E+03	1.741357E-18	1.530687E-19
5.330000E+03	1.729953E-18	1.508154E-19
5.340000E+03	1.719490E-18	1.486768E-19
5.350000E+03	1.709944E-18	1.466498E-19
5.360000E+03	1.701328E-18	1.447338E-19
5.370000E+03	1.693588E-18	1.429230E-19
5.380000E+03	1.686740E-18	1.412174E-19
5.390000E+03	1.680766E-18	1.396143E-19
5.400000E+03	1.675649E-18	1.381114E-19
5.410000E+03	1.671342E-18	1.367037E-19
5.420000E+03	1.667832E-18	1.353893E-19
5.430000E+03	1.665105E-18	1.341664E-19
5.440000E+03	1.663085E-18	1.330281E-19
5.450000E+03	1.661762E-18	1.319733E-19
5.460000E+03	1.661076E-18	1.309967E-19
5.470000E+03	1.661001E-18	1.300961E-19
5.480000E+03	1.661595E-18	1.292759E-19
5.490000E+03	1.662850E-18	1.285352E-19
5.500000E+03	1.664818E-18	1.278780E-19
5.510000E+03	1.667510E-18	1.273049E-19
5.520000E+03	1.670984E-18	1.268203E-19
5.530000E+03	1.675214E-18	1.264222E-19
5.540000E+03	1.680223E-18	1.261119E-19
5.550000E+03	1.685997E-18	1.258876E-19
5.560000E+03	1.692579E-18	1.257512E-19
5.570000E+03	1.699942E-18	1.256996E-19
5.580000E+03	1.708091E-18	1.257323E-19
5.590000E+03	1.717019E-18	1.258478E-19
5.600000E+03	1.726753E-18	1.260471E-19
5.610000E+03	1.737269E-18	1.263275E-19
5.620000E+03	1.748578E-18	1.266891E-19
5.630000E+03	1.760692E-18	1.271320E-19
5.640000E+03	1.773607E-18	1.276551E-19
5.650000E+03	1.787336E-18	1.282588E-19
5.660000E+03	1.801858E-18	1.289408E-19
5.670000E+03	1.817188E-18	1.297016E-19
5.680000E+03	1.833341E-18	1.305419E-19
5.690000E+03	1.850317E-18	1.314610E-19
5.700000E+03	1.868113E-18	1.324585E-19
5.710000E+03	1.886726E-18	1.335335E-19
5.720000E+03	1.906198E-18	1.346887E-19
5.730000E+03	1.926486E-18	1.359209E-19
5.740000E+03	1.947630E-18	1.372325E-19
5.750000E+03	1.969632E-18	1.386233E-19
5.760000E+03	1.992469E-18	1.400917E-19
5.770000E+03	2.016163E-18	1.416389E-19
5.780000E+03	2.040736E-18	1.432665E-19
5.790000E+03	2.066165E-18	1.449728E-19
5.800000E+03	2.092451E-18	1.467579E-19
5.810000E+03	2.119639E-18	1.486248E-19
5.820000E+03	2.147683E-18	1.505706E-19
5.830000E+03	2.176605E-18	1.525968E-19
5.840000E+03	2.206405E-18	1.547036E-19
5.850000E+03	2.237080E-18	1.568910E-19
5.860000E+03	2.268654E-18	1.591610E-19
5.870000E+03	2.301074E-18	1.615103E-19
5.880000E+03	2.334387E-18	1.639424E-19
5.890000E+03	2.368563E-18	1.664558E-19
5.900000E+03	2.403598E-18	1.690505E-19
5.910000E+03	2.439483E-18	1.717267E-19
5.920000E+03	2.476213E-18	1.744843E-19
5.930000E+03	2.513807E-18	1.773255E-19
5.940000E+03	2.552198E-18	1.802463E-19
5.950000E+03	2.591373E-18	1.832465E-19
5.960000E+03	2.631348E-18	1.863280E-19
5.970000E+03	2.672107E-18	1.894908E-19
5.980000E+03	2.713575E-18	1.927303E-19
5.990000E+03	2.755790E-18	1.960503E-19
6.000000E+03	2.798637E-18	1.994438E-19
6.010000E+03	2.842188E-18	2.029169E-19
6.020000E+03	2.886318E-18	2.064620E-19
6.030000E+03	2.930995E-18	2.100779E-19
6.040000E+03	2.976219E-18	2.137662E-19
6.050000E+03	3.021921E-18	2.175232E-19
6.060000E+03	3.068060E-18	2.213473E-19
6.070000E+03	3.114523E-18	2.252319E-19
6.080000E+03	3.161333E-18	2.291802E-19
6.090000E+03	3.208331E-18	2.331821E-19
6.100000E+03	3.255537E-18	2.372409E-19
6.110000E+03	3.302854E-18	2.413511E-19
6.120000E+03	3.350183E-18	2.455071E-19
6.130000E+03	3.397458E-18	2.497057E-19
6.140000E+03	3.444652E-18	2.539468E-19
6.150000E+03	3.491652E-18	2.582236E-19
6.160000E+03	3.538384E-18	2.625326E-19
6.170000E+03	3.584858E-18	2.668761E-19
6.180000E+03	3.630909E-18	2.712437E-19
6.190000E+03	3.676497E-18	2.756341E-19
6.200000E+03	3.721601E-18	2.800474E-19
6.210000E+03	3.766221E-18	2.844855E-19
6.220000E+03	3.810261E-18	2.889428E-19
6.230000E+03	3.853675E-18	2.934175E-19
6.240000E+03	3.896464E-18	2.979115E-19
6.250000E+03	3.938529E-18	3.024187E-19
6.260000E+03	3.979873E-18	3.069411E-19
6.270000E+03	4.020448E-18	3.114766E-19
6.280000E+03	4.060263E-18	3.160275E-19
6.290000E+03	4.099278E-18	3.205921E-19
6.300000E+03	4.137456E-18	3.251691E-19
6.310000E+03	4.174823E-18	3.297613E-19
6.320000E+03	4.211416E-18	3.343705E-19
6.330000E+03	4.247158E-18	3.389894E-19
6.340000E+03	4.282088E-18	3.436195E-19
6.350000E+03	4.316246E-18	3.482627E-19
6.360000E+03	4.349559E-18	3.529111E-19
6.370000E+03	4.382134E-18	3.575718E-19
6.380000E+03	4.413957E-18	3.622419E-19
6.390000E+03	4.445022E-18	3.669189E-19
6.400000E+03	4.475316E-18	3.715998E-19
6.410000E+03	4.504961E-18	3.762930E-19
6.420000E+03	4.533887E-18	3.809904E-19
6.430000E+03	4.562225E-18	3.857011E-19
6.440000E+03	4.589971E-18	3.904228E-19
6.450000E+03	4.617128E-18	3.951538E-19
6.460000E+03	4.643767E-18	3.998982E-19
6.470000E+03	4.669890E-18	4.046543E-19
6.480000E+03	4.695576E-18	4.094269E-19
6.490000E+03	4.720685E-18	4.142020E-19
6.500000E+03	4.745369E-18	4.189908E-19
6.510000E+03	4.769635E-18	4.237920E-19
6.520000E+03	4.793418E-18	4.285981E-19
6.530000E+03	4.816799E-18	4.334143E-19
6.540000E+03	4.839790E-18	4.382398E-19
6.550000E+03	4.862401E-18	4.430737E-19
6.560000E+03	4.884641E-18	4.479150E-19
6.570000E+03	4.906603E-18	4.527704E-19
6.580000E+03	4.928220E-18	4.576319E-19
6.590000E+03	4.949503E-18	4.624992E-19
6.600000E+03	4.970546E-18	4.673790E-19
6.610000E+03	4.991366E-18	4.722714E-19
6.620000E+03	5.011893E-18	4.771683E-19
6.630000E+03	5.032227E-18	4.820775E-19
6.640000E+03	5.052297E-18	4.869910E-19
6.650000E+03	5.072290E-18	4.919249E-19
6.660000E+03	5.092050E-18	4.968632E-19
6.670000E+03	5.111595E-18	5.018058E-19
6.680000E+03	5.131024E-18	5.067612E-19
6.690000E+03	5.150357E-18	5.117303E-19
6.700000E+03	5.169523E-18	5.167045E-19
6.710000E+03	5.188536E-18	5.216839E-19
6.720000E+03	5.207503E-18	5.266784E-19
6.730000E+03	5.226352E-18	5.316792E-19
6.740000E+03	5.245192E-18	5.366965E-19
6.750000E+03	5.263853E-18	5.417117E-19
6.760000E+03	5.282541E-18	5.467449E-19
6.770000E+03	5.301082E-18	5.517772E-19
6.780000E+03	5.319686E-18	5.568292E-19
6.790000E+03	5.338176E-18	5.618817E-19
6.800000E+03	5.356669E-18	5.669459E-19
6.810000E+03	5.375179E-18	5.720224E-19
6.820000E+03	5.393629E-18	5.771022E-19
6.830000E+03	5.412131E-18	5.821964E-19
6.840000E+03	5.430605E-18	5.872956E-19
6.850000E+03	5.449170E-18	5.924117E-19
6.860000E+03	5.467637E-18	5.975238E-19
6.870000E+03	5.486229E-18	6.026551E-19
6.880000E+03	5.504861E-18	6.077959E-19
6.890000E+03	5.523550E-18	6.129472E-19
6.900000E+03	5.542208E-18	6.180987E-19
6.910000E+03	5.561063E-18	6.232751E-19
6.920000E+03	5.579814E-18	6.284421E-19
6.930000E+03	5.598799E-18	6.336371E-19
6.940000E+03	5.617817E-18	6.388371E-19
6.950000E+03	5.636890E-18	6.440437E-19
6.960000E+03	5.656140E-18	6.492705E-19
6.970000E+03	5.675476E-18	6.545067E-19
6.980000E+03	5.694914E-18	6.597536E-19
6.990000E+03	5.714473E-18	6.650130E-19
7.000000E+03	5.734169E-18	6.702862E-19
7.010000E+03	5.754019E-18	6.755750E-19
7.020000E+03	5.773925E-18	6.808674E-19
7.030000E+03	5.794135E-18	6.861922E-19
7.040000E+03	5.814320E-18	6.915105E-19
7.050000E+03	5.834843E-18	6.968647E-19
7.060000E+03	5.855374E-18	7.022154E-19
7.070000E+03	5.876163E-18	7.075921E-19
7.080000E+03	5.897108E-18	7.129824E-19
7.090000E+03	5.918228E-18	7.183883E-19
7.100000E+03	5.939657E-18	7.238260E-19
7.110000E+03	5.961177E-18	7.292686E-19
7.120000E+03	5.982922E-18	7.347323E-19
7.130000E+03	6.004787E-18	7.402041E-19
7.140000E+03	6.026912E-18	7.457009E-19
7.150000E+03	6.049315E-18	7.512250E-19
7.160000E+03	6.071889E-18	7.567629E-19
7.170000E+03	6.094775E-18	7.623322E-19
7.180000E+03	6.117743E-18	7.679038E-19
7.190000E+03	6.141058E-18	7.735111E-19
7.200000E+03	6.164614E-18	7.791404E-19
7.210000E+03	6.188299E-18	7.847779E-19
7.220000E+03	6.212259E-18	7.904416E-19
7.230000E+03	6.236509E-18	7.961337E-19
7.240000E+03	6.260941E-18	8.018400E-19
7.250000E+03	6.285569E-18	8.075626E-19
7.260000E+03	6.310409E-18	8.133034E-19
7.270000E+03	6.335481E-18	8.190648E-19
7.280000E+03	6.360797E-18	8.248486E-19
7.290000E+03	6.386114E-18	8.306228E-19
7.300000E+03	6.411710E-18	8.364238E-19
7.310000E+03	6.437467E-18	8.422360E-19
7.320000E+03	6.463269E-18	8.480442E-19
7.330000E+03	6.489263E-18	8.538675E-19
7.340000E+03	6.515193E-18	8.596723E-19
7.350000E+03	6.541072E-18	8.654598E-19
7.360000E+03	6.566912E-18	8.712314E-19
7.370000E+03	6.592585E-18	8.769702E-19
7.380000E+03	6.618243E-18	8.826957E-19
7.390000E+03	6.643475E-18	8.883532E-19
7.400000E+03	6.668572E-18	8.939806E-19
7.410000E+03	6.693257E-18	8.995411E-19
7.420000E+03	6.717681E-18	9.050541E-19
7.430000E+03	6.741707E-18	9.105010E-19
7.440000E+03	6.765342E-18	9.158821E-19
7.450000E+03	6.788736E-18	9.212176E-19
7.460000E+03	6.811751E-18	9.264883E-19
7.470000E+03	6.834832E-18	9.317547E-19
7.480000E+03	6.857699E-18	9.369785E-19
7.490000E+03	6.880656E-18	9.422013E-19
7.500000E+03	6.903568E-18	9.474046E-19
7.510000E+03	6.926898E-18	9.526521E-19
7.520000E+03	6.950509E-18	9.579256E-19
7.530000E+03	6.974412E-18	9.632268E-19
7.540000E+03	6.998771E-18	9.685786E-19
7.550000E+03	7.023597E-18	9.739832E-19
7.560000E+03	7.049214E-18	9.794862E-19
7.570000E+03	7.075331E-18	9.850476E-19
7.580000E+03	7.102115E-18	9.906915E-19
7.590000E+03	7.129740E-18	9.964425E-19
7.600000E+03	7.158061E-18	1.002280E-18
7.610000E+03	7.187240E-18	1.008227E-18
7.620000E+03	7.217121E-18	1.014262E-18
7.630000E+03	7.248034E-18	1.020431E-18
7.640000E+03	7.279656E-18	1.026689E-18
7.650000E+03	7.312325E-18	1.033083E-18
7.660000E+03	7.345715E-18	1.039568E-18
7.670000E+03	7.380164E-18	1.046191E-18
7.680000E+03	7.415347E-18	1.052907E-18
7.690000E+03	7.451606E-18	1.059764E-18
7.700000E+03	7.488780E-18	1.066739E-18
7.710000E+03	7.526878E-18	1.073834E-18
7.720000E+03	7.565906E-18	1.081050E-18
7.730000E+03	7.605872E-18	1.088387E-18
7.740000E+03	7.646784E-18	1.095847E-18
7.750000E+03	7.688472E-18	1.103405E-18
7.760000E+03	7.731301E-18	1.111114E-18
