#wls	flux	fluxerr
1.600000E+03	1.046486E-17	3.971811E-18
1.640000E+03	1.078464E-17	4.086237E-18
1.680000E+03	1.112259E-17	4.206889E-18
1.720000E+03	1.147886E-17	4.333763E-18
1.760000E+03	1.185453E-17	4.467193E-18
1.800000E+03	1.225155E-17	4.607847E-18
1.840000E+03	1.266765E-17	4.754784E-18
1.880000E+03	1.310549E-17	4.908930E-18
1.920000E+03	1.356454E-17	5.069991E-18
1.960000E+03	1.404408E-17	5.237607E-18
2.000000E+03	1.454220E-17	5.410973E-18
2.040000E+03	1.505788E-17	5.589617E-18
2.080000E+03	1.558791E-17	5.772256E-18
2.120000E+03	1.612706E-17	5.956861E-18
2.160000E+03	1.667294E-17	6.142480E-18
2.200000E+03	1.721926E-17	6.326719E-18
2.240000E+03	1.776070E-17	6.507579E-18
2.280000E+03	1.829390E-17	6.683782E-18
2.320000E+03	1.881735E-17	6.854748E-18
2.360000E+03	1.933214E-17	7.020844E-18
2.400000E+03	1.984005E-17	7.182684E-18
2.440000E+03	2.034252E-17	7.340755E-18
2.480000E+03	2.084327E-17	7.496346E-18
2.520000E+03	2.134291E-17	7.649627E-18
2.560000E+03	2.184339E-17	7.801229E-18
2.600000E+03	2.234363E-17	7.950709E-18
2.640000E+03	2.284310E-17	8.097808E-18
2.680000E+03	2.333926E-17	8.241567E-18
2.720000E+03	2.382939E-17	8.380979E-18
2.760000E+03	2.431052E-17	8.514961E-18
2.800000E+03	2.477879E-17	8.642140E-18
2.840000E+03	2.523025E-17	8.761137E-18
2.880000E+03	2.566228E-17	8.871061E-18
2.920000E+03	2.607078E-17	8.970524E-18
2.960000E+03	2.645488E-17	9.059284E-18
3.000000E+03	2.681148E-17	9.136351E-18
3.010000E+03	2.689689E-17	9.153987E-18
3.020000E+03	2.698003E-17	9.170715E-18
3.030000E+03	2.706085E-17	9.186512E-18
3.040000E+03	2.714046E-17	9.201763E-18
3.050000E+03	2.721817E-17	9.216231E-18
3.060000E+03	2.729386E-17	9.229880E-18
3.070000E+03	2.736804E-17	9.242885E-18
3.080000E+03	2.744004E-17	9.255017E-18
3.090000E+03	2.750975E-17	9.266242E-18
3.100000E+03	2.757824E-17	9.276924E-18
3.110000E+03	2.764424E-17	9.286639E-18
3.120000E+03	2.770825E-17	9.295555E-18
3.130000E+03	2.776960E-17	9.303452E-18
3.140000E+03	2.782987E-17	9.310856E-18
3.150000E+03	2.788730E-17	9.317186E-18
3.160000E+03	2.794233E-17	9.322593E-18
3.170000E+03	2.799545E-17	9.327235E-18
3.180000E+03	2.804652E-17	9.331074E-18
3.190000E+03	2.809440E-17	9.333735E-18
3.200000E+03	2.814057E-17	9.335708E-18
3.210000E+03	2.818391E-17	9.336626E-18
3.220000E+03	2.822484E-17	9.336630E-18
3.230000E+03	2.826275E-17	9.335526E-18
3.240000E+03	2.829807E-17	9.333456E-18
3.250000E+03	2.833072E-17	9.330399E-18
3.260000E+03	2.836061E-17	9.326326E-18
3.270000E+03	2.838717E-17	9.321058E-18
3.280000E+03	2.841083E-17	9.314735E-18
3.290000E+03	2.843148E-17	9.307332E-18
3.300000E+03	2.844859E-17	9.298678E-18
3.310000E+03	2.846258E-17	9.288909E-18
3.320000E+03	2.847292E-17	9.277863E-18
3.330000E+03	2.847998E-17	9.265668E-18
3.340000E+03	2.848329E-17	9.252169E-18
3.350000E+03	2.848278E-17	9.237354E-18
3.360000E+03	2.847842E-17	9.221219E-18
3.370000E+03	2.847016E-17	9.203749E-18
3.380000E+03	2.845796E-17	9.184946E-18
3.390000E+03	2.844138E-17	9.164667E-18
3.400000E+03	2.842082E-17	9.143048E-18
3.410000E+03	2.839541E-17	9.119821E-18
3.420000E+03	2.836599E-17	9.095259E-18
3.430000E+03	2.833172E-17	9.069103E-18
3.440000E+03	2.829263E-17	9.041367E-18
3.450000E+03	2.824871E-17	9.012060E-18
3.460000E+03	2.819962E-17	8.981080E-18
3.470000E+03	2.814575E-17	8.948559E-18
3.480000E+03	2.808677E-17	8.914400E-18
3.490000E+03	2.802233E-17	8.878503E-18
3.500000E+03	2.795250E-17	8.840900E-18
3.510000E+03	2.787698E-17	8.801507E-18
3.520000E+03	2.779619E-17	8.760462E-18
3.530000E+03	2.770917E-17	8.717477E-18
3.540000E+03	2.761635E-17	8.672697E-18
3.550000E+03	2.751751E-17	8.626062E-18
3.560000E+03	2.741276E-17	8.577618E-18
3.570000E+03	2.730154E-17	8.527204E-18
3.580000E+03	2.718369E-17	8.474780E-18
3.590000E+03	2.705968E-17	8.420505E-18
3.600000E+03	2.692872E-17	8.364146E-18
3.610000E+03	2.679130E-17	8.305869E-18
3.620000E+03	2.664731E-17	8.245650E-18
3.630000E+03	2.649633E-17	8.183371E-18
3.640000E+03	2.633827E-17	8.119025E-18
3.650000E+03	2.617339E-17	8.052697E-18
3.660000E+03	2.600132E-17	7.984295E-18
3.670000E+03	2.582261E-17	7.913995E-18
3.680000E+03	2.563666E-17	7.841634E-18
3.690000E+03	2.544377E-17	7.767312E-18
3.700000E+03	2.524393E-17	7.691043E-18
3.710000E+03	2.503743E-17	7.612930E-18
3.720000E+03	2.482406E-17	7.532919E-18
3.730000E+03	2.460408E-17	7.451112E-18
3.740000E+03	2.437758E-17	7.367542E-18
3.750000E+03	2.414486E-17	7.282316E-18
3.760000E+03	2.390599E-17	7.195471E-18
3.770000E+03	2.366127E-17	7.107109E-18
3.780000E+03	2.341081E-17	7.017273E-18
3.790000E+03	2.315468E-17	6.926001E-18
3.800000E+03	2.289367E-17	6.833537E-18
3.810000E+03	2.262740E-17	6.739786E-18
3.820000E+03	2.235643E-17	6.644922E-18
3.830000E+03	2.208127E-17	6.549109E-18
3.840000E+03	2.180181E-17	6.452323E-18
3.850000E+03	2.151836E-17	6.354666E-18
3.860000E+03	2.123143E-17	6.256300E-18
3.870000E+03	2.094131E-17	6.157318E-18
3.880000E+03	2.064827E-17	6.057811E-18
3.890000E+03	2.035242E-17	5.957814E-18
3.900000E+03	2.005421E-17	5.857470E-18
3.910000E+03	1.975393E-17	5.756869E-18
3.920000E+03	1.945182E-17	5.656088E-18
3.930000E+03	1.914814E-17	5.555209E-18
3.940000E+03	1.884315E-17	5.454310E-18
3.950000E+03	1.853726E-17	5.353515E-18
3.960000E+03	1.823070E-17	5.252894E-18
3.970000E+03	1.792351E-17	5.152467E-18
3.980000E+03	1.761626E-17	5.052395E-18
3.990000E+03	1.730897E-17	4.952690E-18
4.000000E+03	1.700201E-17	4.853458E-18
4.010000E+03	1.669557E-17	4.754755E-18
4.020000E+03	1.638969E-17	4.656592E-18
4.030000E+03	1.608483E-17	4.559105E-18
4.040000E+03	1.578103E-17	4.462300E-18
4.050000E+03	1.547858E-17	4.366261E-18
4.060000E+03	1.517764E-17	4.271035E-18
4.070000E+03	1.487836E-17	4.176657E-18
4.080000E+03	1.458087E-17	4.083169E-18
4.090000E+03	1.428545E-17	3.990641E-18
4.100000E+03	1.399208E-17	3.899070E-18
4.110000E+03	1.370090E-17	3.808490E-18
4.120000E+03	1.341228E-17	3.718999E-18
4.130000E+03	1.312606E-17	3.630556E-18
4.140000E+03	1.284248E-17	3.543216E-18
4.150000E+03	1.256165E-17	3.457011E-18
4.160000E+03	1.228364E-17	3.371954E-18
4.170000E+03	1.200856E-17	3.288071E-18
4.180000E+03	1.173649E-17	3.205380E-18
4.190000E+03	1.146751E-17	3.123895E-18
4.200000E+03	1.120170E-17	3.043637E-18
4.210000E+03	1.093913E-17	2.964617E-18
4.220000E+03	1.067988E-17	2.886849E-18
4.230000E+03	1.042390E-17	2.810318E-18
4.240000E+03	1.017128E-17	2.735040E-18
4.250000E+03	9.922162E-18	2.661046E-18
4.260000E+03	9.676593E-18	2.588346E-18
4.270000E+03	9.434451E-18	2.516898E-18
4.280000E+03	9.195885E-18	2.446737E-18
4.290000E+03	8.960926E-18	2.377863E-18
4.300000E+03	8.729630E-18	2.310286E-18
4.310000E+03	8.502026E-18	2.244006E-18
4.320000E+03	8.278072E-18	2.179004E-18
4.330000E+03	8.057956E-18	2.115323E-18
4.340000E+03	7.841551E-18	2.052923E-18
4.350000E+03	7.629022E-18	1.991840E-18
4.360000E+03	7.420384E-18	1.932069E-18
4.370000E+03	7.215710E-18	1.873622E-18
4.380000E+03	7.015002E-18	1.816491E-18
4.390000E+03	6.818323E-18	1.760684E-18
4.400000E+03	6.625664E-18	1.706191E-18
4.410000E+03	6.437129E-18	1.653030E-18
4.420000E+03	6.252696E-18	1.601186E-18
4.430000E+03	6.072338E-18	1.550644E-18
4.440000E+03	5.896135E-18	1.501417E-18
4.450000E+03	5.724049E-18	1.453485E-18
4.460000E+03	5.556088E-18	1.406842E-18
4.470000E+03	5.392306E-18	1.361493E-18
4.480000E+03	5.232596E-18	1.317403E-18
4.490000E+03	5.077001E-18	1.274574E-18
4.500000E+03	4.925503E-18	1.232992E-18
4.510000E+03	4.778033E-18	1.192632E-18
4.520000E+03	4.634568E-18	1.153479E-18
4.530000E+03	4.495076E-18	1.115517E-18
4.540000E+03	4.359522E-18	1.078730E-18
4.550000E+03	4.227867E-18	1.043099E-18
4.560000E+03	4.100028E-18	1.008596E-18
4.570000E+03	3.975921E-18	9.751916E-19
4.580000E+03	3.855576E-18	9.428855E-19
4.590000E+03	3.738865E-18	9.116386E-19
4.600000E+03	3.625699E-18	8.814219E-19
4.610000E+03	3.516063E-18	8.522237E-19
4.620000E+03	3.409897E-18	8.240221E-19
4.630000E+03	3.307044E-18	7.967723E-19
4.640000E+03	3.207544E-18	7.704764E-19
4.650000E+03	3.111210E-18	7.450829E-19
4.660000E+03	3.018047E-18	7.205858E-19
4.670000E+03	2.927961E-18	6.969564E-19
4.680000E+03	2.840865E-18	6.741671E-19
4.690000E+03	2.756671E-18	6.521909E-19
4.700000E+03	2.675291E-18	6.310009E-19
4.710000E+03	2.596695E-18	6.105837E-19
4.720000E+03	2.520770E-18	5.909073E-19
4.730000E+03	2.447434E-18	5.719466E-19
4.740000E+03	2.376632E-18	5.536832E-19
4.750000E+03	2.308237E-18	5.360820E-19
4.760000E+03	2.242242E-18	5.191367E-19
4.770000E+03	2.178504E-18	5.028085E-19
4.780000E+03	2.116995E-18	4.870867E-19
4.790000E+03	2.057643E-18	4.719497E-19
4.800000E+03	2.000337E-18	4.573674E-19
4.810000E+03	1.945034E-18	4.433257E-19
4.820000E+03	1.891686E-18	4.298097E-19
4.830000E+03	1.840194E-18	4.167921E-19
4.840000E+03	1.790514E-18	4.042596E-19
4.850000E+03	1.742590E-18	3.921952E-19
4.860000E+03	1.696345E-18	3.805782E-19
4.870000E+03	1.651726E-18	3.693929E-19
4.880000E+03	1.608696E-18	3.586278E-19
4.890000E+03	1.567187E-18	3.482641E-19
4.900000E+03	1.527165E-18	3.382912E-19
4.910000E+03	1.488551E-18	3.286882E-19
4.920000E+03	1.451315E-18	3.194457E-19
4.930000E+03	1.415411E-18	3.105506E-19
4.940000E+03	1.380782E-18	3.019875E-19
4.950000E+03	1.347399E-18	2.937475E-19
4.960000E+03	1.315211E-18	2.858165E-19
4.970000E+03	1.284191E-18	2.781865E-19
4.980000E+03	1.254288E-18	2.708437E-19
4.990000E+03	1.225466E-18	2.637782E-19
5.000000E+03	1.197679E-18	2.569777E-19
5.010000E+03	1.170918E-18	2.504379E-19
5.020000E+03	1.145126E-18	2.441448E-19
5.030000E+03	1.120273E-18	2.380896E-19
5.040000E+03	1.096341E-18	2.322670E-19
5.050000E+03	1.073290E-18	2.266660E-19
5.060000E+03	1.051092E-18	2.212793E-19
5.070000E+03	1.029722E-18	2.160996E-19
5.080000E+03	1.009154E-18	2.111199E-19
5.090000E+03	9.893533E-19	2.063313E-19
5.100000E+03	9.702968E-19	2.017273E-19
5.110000E+03	9.519730E-19	1.973039E-19
5.120000E+03	9.343409E-19	1.930513E-19
5.130000E+03	9.173985E-19	1.889677E-19
5.140000E+03	9.010996E-19	1.850420E-19
5.150000E+03	8.854431E-19	1.812727E-19
5.160000E+03	8.704018E-19	1.776532E-19
5.170000E+03	8.559607E-19	1.741789E-19
5.180000E+03	8.421015E-19	1.708451E-19
5.190000E+03	8.288012E-19	1.676459E-19
5.200000E+03	8.160457E-19	1.645774E-19
5.210000E+03	8.038123E-19	1.616339E-19
5.220000E+03	7.921043E-19	1.588152E-19
5.230000E+03	7.808848E-19	1.561128E-19
5.240000E+03	7.701503E-19	1.535251E-19
5.250000E+03	7.598895E-19	1.510490E-19
5.260000E+03	7.500915E-19	1.486814E-19
5.270000E+03	7.407312E-19	1.464166E-19
5.280000E+03	7.318067E-19	1.442533E-19
5.290000E+03	7.233017E-19	1.421876E-19
5.300000E+03	7.152078E-19	1.402171E-19
5.310000E+03	7.075100E-19	1.383381E-19
5.320000E+03	7.002081E-19	1.365500E-19
5.330000E+03	6.932808E-19	1.348480E-19
5.340000E+03	6.867220E-19	1.332302E-19
5.350000E+03	6.805186E-19	1.316936E-19
5.360000E+03	6.746721E-19	1.302378E-19
5.370000E+03	6.691568E-19	1.288574E-19
5.380000E+03	6.639748E-19	1.275523E-19
5.390000E+03	6.591149E-19	1.263198E-19
5.400000E+03	6.545665E-19	1.251575E-19
5.410000E+03	6.503062E-19	1.240606E-19
5.420000E+03	6.463241E-19	1.230266E-19
5.430000E+03	6.426109E-19	1.220535E-19
5.440000E+03	6.391314E-19	1.211344E-19
5.450000E+03	6.358767E-19	1.202672E-19
5.460000E+03	6.328181E-19	1.194462E-19
5.470000E+03	6.299401E-19	1.186683E-19
5.480000E+03	6.272582E-19	1.179361E-19
5.490000E+03	6.247625E-19	1.172473E-19
5.500000E+03	6.224681E-19	1.166045E-19
5.510000E+03	6.203774E-19	1.160077E-19
5.520000E+03	6.185112E-19	1.154605E-19
5.530000E+03	6.168591E-19	1.149606E-19
5.540000E+03	6.154293E-19	1.145093E-19
5.550000E+03	6.142177E-19	1.141053E-19
5.560000E+03	6.132388E-19	1.137513E-19
5.570000E+03	6.124822E-19	1.134449E-19
5.580000E+03	6.119501E-19	1.131862E-19
5.590000E+03	6.116386E-19	1.129743E-19
5.600000E+03	6.115561E-19	1.128104E-19
5.610000E+03	6.116926E-19	1.126926E-19
5.620000E+03	6.120508E-19	1.126211E-19
5.630000E+03	6.126334E-19	1.125960E-19
5.640000E+03	6.134367E-19	1.126167E-19
5.650000E+03	6.144641E-19	1.126835E-19
5.660000E+03	6.157059E-19	1.127944E-19
5.670000E+03	6.171652E-19	1.129499E-19
5.680000E+03	6.188458E-19	1.131504E-19
5.690000E+03	6.207447E-19	1.133954E-19
5.700000E+03	6.228593E-19	1.136842E-19
5.710000E+03	6.251871E-19	1.140161E-19
5.720000E+03	6.277389E-19	1.143932E-19
5.730000E+03	6.304992E-19	1.148124E-19
5.740000E+03	6.334791E-19	1.152757E-19
5.750000E+03	6.366768E-19	1.157826E-19
5.760000E+03	6.400835E-19	1.163316E-19
5.770000E+03	6.437044E-19	1.169234E-19
5.780000E+03	6.475445E-19	1.175589E-19
5.790000E+03	6.515956E-19	1.182367E-19
5.800000E+03	6.558560E-19	1.189563E-19
5.810000E+03	6.603387E-19	1.197200E-19
5.820000E+03	6.650281E-19	1.205251E-19
5.830000E+03	6.699301E-19	1.213726E-19
5.840000E+03	6.750435E-19	1.222623E-19
5.850000E+03	6.803673E-19	1.231940E-19
5.860000E+03	6.859079E-19	1.241688E-19
5.870000E+03	6.916493E-19	1.251839E-19
5.880000E+03	6.976056E-19	1.262419E-19
5.890000E+03	7.037681E-19	1.273412E-19
5.900000E+03	7.101358E-19	1.284818E-19
5.910000E+03	7.167076E-19	1.296634E-19
5.920000E+03	7.234823E-19	1.308859E-19
5.930000E+03	7.304672E-19	1.321507E-19
5.940000E+03	7.376446E-19	1.334547E-19
5.950000E+03	7.450128E-19	1.347976E-19
5.960000E+03	7.525789E-19	1.361808E-19
5.970000E+03	7.603415E-19	1.376041E-19
5.980000E+03	7.682815E-19	1.390643E-19
5.990000E+03	7.764145E-19	1.405642E-19
6.000000E+03	7.847117E-19	1.420987E-19
6.010000E+03	7.931977E-19	1.436725E-19
6.020000E+03	8.018427E-19	1.452801E-19
6.030000E+03	8.106434E-19	1.469213E-19
6.040000E+03	8.196062E-19	1.485972E-19
6.050000E+03	8.287181E-19	1.503057E-19
6.060000E+03	8.379755E-19	1.520462E-19
6.070000E+03	8.473542E-19	1.538145E-19
6.080000E+03	8.568698E-19	1.556136E-19
6.090000E+03	8.664867E-19	1.574372E-19
6.100000E+03	8.762204E-19	1.592882E-19
6.110000E+03	8.860547E-19	1.611639E-19
6.120000E+03	8.959728E-19	1.630613E-19
6.130000E+03	9.059681E-19	1.649795E-19
6.140000E+03	9.160453E-19	1.669195E-19
6.150000E+03	9.261860E-19	1.688780E-19
6.160000E+03	9.363830E-19	1.708540E-19
6.170000E+03	9.466523E-19	1.728505E-19
6.180000E+03	9.569632E-19	1.748620E-19
6.190000E+03	9.673199E-19	1.768896E-19
6.200000E+03	9.777270E-19	1.789343E-19
6.210000E+03	9.881898E-19	1.809971E-19
6.220000E+03	9.986887E-19	1.830747E-19
6.230000E+03	1.009216E-18	1.851658E-19
6.240000E+03	1.019776E-18	1.872716E-19
6.250000E+03	1.030349E-18	1.893885E-19
6.260000E+03	1.040941E-18	1.915175E-19
6.270000E+03	1.051542E-18	1.936574E-19
6.280000E+03	1.062159E-18	1.958097E-19
6.290000E+03	1.072787E-18	1.979731E-19
6.300000E+03	1.083418E-18	2.001468E-19
6.310000E+03	1.094061E-18	2.023322E-19
6.320000E+03	1.104726E-18	2.045313E-19
6.330000E+03	1.115394E-18	2.067401E-19
6.340000E+03	1.126073E-18	2.089606E-19
6.350000E+03	1.136777E-18	2.111947E-19
6.360000E+03	1.147483E-18	2.134385E-19
6.370000E+03	1.158221E-18	2.156971E-19
6.380000E+03	1.168987E-18	2.179698E-19
6.390000E+03	1.179777E-18	2.202561E-19
6.400000E+03	1.190589E-18	2.225550E-19
6.410000E+03	1.201453E-18	2.248723E-19
6.420000E+03	1.212350E-18	2.272042E-19
6.430000E+03	1.223314E-18	2.295571E-19
6.440000E+03	1.234344E-18	2.319305E-19
6.450000E+03	1.245439E-18	2.343243E-19
6.460000E+03	1.256615E-18	2.367415E-19
6.470000E+03	1.267877E-18	2.391827E-19
6.480000E+03	1.279241E-18	2.416508E-19
6.490000E+03	1.290669E-18	2.441388E-19
6.500000E+03	1.302202E-18	2.466540E-19
6.510000E+03	1.313841E-18	2.491967E-19
6.520000E+03	1.325566E-18	2.517630E-19
6.530000E+03	1.337398E-18	2.543568E-19
6.540000E+03	1.349342E-18	2.569787E-19
6.550000E+03	1.361397E-18	2.596286E-19
6.560000E+03	1.373564E-18	2.623067E-19
6.570000E+03	1.385870E-18	2.650178E-19
6.580000E+03	1.398294E-18	2.677577E-19
6.590000E+03	1.410839E-18	2.705270E-19
6.600000E+03	1.423530E-18	2.733305E-19
6.610000E+03	1.436371E-18	2.761688E-19
6.620000E+03	1.449341E-18	2.790375E-19
6.630000E+03	1.462469E-18	2.819422E-19
6.640000E+03	1.475731E-18	2.848783E-19
6.650000E+03	1.489181E-18	2.878561E-19
6.660000E+03	1.502777E-18	2.908669E-19
6.670000E+03	1.516518E-18	2.939108E-19
6.680000E+03	1.530435E-18	2.969937E-19
6.690000E+03	1.544533E-18	3.001161E-19
6.700000E+03	1.558789E-18	3.032737E-19
6.710000E+03	1.573208E-18	3.064672E-19
6.720000E+03	1.587821E-18	3.097024E-19
6.730000E+03	1.602604E-18	3.129748E-19
6.740000E+03	1.617591E-18	3.162903E-19
6.750000E+03	1.632730E-18	3.196392E-19
6.760000E+03	1.648081E-18	3.230326E-19
6.770000E+03	1.663593E-18	3.264604E-19
6.780000E+03	1.679328E-18	3.299350E-19
6.790000E+03	1.695231E-18	3.334449E-19
6.800000E+03	1.711337E-18	3.369970E-19
6.810000E+03	1.727652E-18	3.405923E-19
6.820000E+03	1.744149E-18	3.442253E-19
6.830000E+03	1.760862E-18	3.479025E-19
6.840000E+03	1.777767E-18	3.516189E-19
6.850000E+03	1.794900E-18	3.553814E-19
6.860000E+03	1.812201E-18	3.591777E-19
6.870000E+03	1.829740E-18	3.630218E-19
6.880000E+03	1.847489E-18	3.669076E-19
6.890000E+03	1.865453E-18	3.708361E-19
6.900000E+03	1.883601E-18	3.748008E-19
6.910000E+03	1.902009E-18	3.788164E-19
6.920000E+03	1.920575E-18	3.828624E-19
6.930000E+03	1.939412E-18	3.869611E-19
6.940000E+03	1.958451E-18	3.910984E-19
6.950000E+03	1.977697E-18	3.952751E-19
6.960000E+03	1.997194E-18	3.994996E-19
6.970000E+03	2.016907E-18	4.037645E-19
6.980000E+03	2.036841E-18	4.080705E-19
6.990000E+03	2.057001E-18	4.124185E-19
7.000000E+03	2.077392E-18	4.168090E-19
7.010000E+03	2.098018E-18	4.212423E-19
7.020000E+03	2.118844E-18	4.257113E-19
7.030000E+03	2.139957E-18	4.302330E-19
7.040000E+03	2.161235E-18	4.347824E-19
7.050000E+03	2.182810E-18	4.393857E-19
7.060000E+03	2.204559E-18	4.440179E-19
7.070000E+03	2.226571E-18	4.486965E-19
7.080000E+03	2.248810E-18	4.534136E-19
7.090000E+03	2.271277E-18	4.581691E-19
7.100000E+03	2.294024E-18	4.629730E-19
7.110000E+03	2.316963E-18	4.678074E-19
7.120000E+03	2.340143E-18	4.726814E-19
7.130000E+03	2.363523E-18	4.775864E-19
7.140000E+03	2.387154E-18	4.825320E-19
7.150000E+03	2.411038E-18	4.875186E-19
7.160000E+03	2.435134E-18	4.925370E-19
7.170000E+03	2.459492E-18	4.975969E-19
7.180000E+03	2.484019E-18	5.026790E-19
7.190000E+03	2.508816E-18	5.078034E-19
7.200000E+03	2.533837E-18	5.129599E-19
7.210000E+03	2.559035E-18	5.181385E-19
7.220000E+03	2.584464E-18	5.233499E-19
7.230000E+03	2.610125E-18	5.285935E-19
7.240000E+03	2.635969E-18	5.338590E-19
7.250000E+03	2.662000E-18	5.391462E-19
7.260000E+03	2.688218E-18	5.444549E-19
7.270000E+03	2.714624E-18	5.497847E-19
7.280000E+03	2.741223E-18	5.551357E-19
7.290000E+03	2.767899E-18	5.604842E-19
7.300000E+03	2.794767E-18	5.658526E-19
7.310000E+03	2.821772E-18	5.712293E-19
7.320000E+03	2.848854E-18	5.766014E-19
7.330000E+03	2.876071E-18	5.819800E-19
7.340000E+03	2.903302E-18	5.873403E-19
7.350000E+03	2.930543E-18	5.926804E-19
7.360000E+03	2.957790E-18	5.979993E-19
7.370000E+03	2.984976E-18	6.032826E-19
7.380000E+03	3.012160E-18	6.085417E-19
7.390000E+03	3.039145E-18	6.137361E-19
7.400000E+03	3.066048E-18	6.188892E-19
7.410000E+03	3.092735E-18	6.239730E-19
7.420000E+03	3.119259E-18	6.289979E-19
7.430000E+03	3.145546E-18	6.339484E-19
7.440000E+03	3.171585E-18	6.388215E-19
7.450000E+03	3.197432E-18	6.436285E-19
7.460000E+03	3.223010E-18	6.483532E-19
7.470000E+03	3.248519E-18	6.530353E-19
7.480000E+03	3.273809E-18	6.576442E-19
7.490000E+03	3.299016E-18	6.622067E-19
7.500000E+03	3.324063E-18	6.667070E-19
7.510000E+03	3.349161E-18	6.711866E-19
7.520000E+03	3.374235E-18	6.756304E-19
7.530000E+03	3.399283E-18	6.800372E-19
7.540000E+03	3.424376E-18	6.844208E-19
7.550000E+03	3.449515E-18	6.887809E-19
7.560000E+03	3.474851E-18	6.931471E-19
7.570000E+03	3.500235E-18	6.974888E-19
7.580000E+03	3.525745E-18	7.018212E-19
7.590000E+03	3.551459E-18	7.061595E-19
7.600000E+03	3.577303E-18	7.104881E-19
7.610000E+03	3.603360E-18	7.148228E-19
7.620000E+03	3.629551E-18	7.191475E-19
7.630000E+03	3.656045E-18	7.234952E-19
7.640000E+03	3.682680E-18	7.278328E-19
7.650000E+03	3.709627E-18	7.321938E-19
7.660000E+03	3.736721E-18	7.365449E-19
7.670000E+03	3.764138E-18	7.409198E-19
7.680000E+03	3.791708E-18	7.452847E-19
7.690000E+03	3.819609E-18	7.496738E-19
7.700000E+03	3.847759E-18	7.540702E-19
7.710000E+03	3.876162E-18	7.584741E-19
7.720000E+03	3.904822E-18	7.628857E-19
7.730000E+03	3.933744E-18	7.673049E-19
7.740000E+03	3.962930E-18	7.717320E-19
7.750000E+03	3.992296E-18	7.761492E-19
7.760000E+03	4.022026E-18	7.805923E-19
