#wls	flux	fluxerr
1.600000E+03	3.153350E-17	1.324293E-17
1.640000E+03	3.199336E-17	1.339234E-17
1.680000E+03	3.247455E-17	1.354776E-17
1.720000E+03	3.297567E-17	1.370839E-17
1.760000E+03	3.349803E-17	1.387455E-17
1.800000E+03	3.404534E-17	1.404757E-17
1.840000E+03	3.460943E-17	1.422382E-17
1.880000E+03	3.519616E-17	1.440548E-17
1.920000E+03	3.580243E-17	1.459102E-17
1.960000E+03	3.642514E-17	1.477891E-17
2.000000E+03	3.705839E-17	1.496653E-17
2.040000E+03	3.769909E-17	1.515240E-17
2.080000E+03	3.833926E-17	1.533311E-17
2.120000E+03	3.896667E-17	1.550362E-17
2.160000E+03	3.957709E-17	1.566217E-17
2.200000E+03	4.015778E-17	1.580365E-17
2.240000E+03	4.069940E-17	1.592444E-17
2.280000E+03	4.119812E-17	1.602314E-17
2.320000E+03	4.165469E-17	1.610018E-17
2.360000E+03	4.207597E-17	1.615835E-17
2.400000E+03	4.247017E-17	1.620089E-17
2.440000E+03	4.284460E-17	1.623064E-17
2.480000E+03	4.321120E-17	1.625210E-17
2.520000E+03	4.357516E-17	1.626714E-17
2.560000E+03	4.394442E-17	1.627858E-17
2.600000E+03	4.432091E-17	1.628696E-17
2.640000E+03	4.470774E-17	1.629320E-17
2.680000E+03	4.510450E-17	1.629693E-17
2.720000E+03	4.551077E-17	1.629777E-17
2.760000E+03	4.592609E-17	1.629534E-17
2.800000E+03	4.634861E-17	1.628875E-17
2.840000E+03	4.677682E-17	1.627728E-17
2.880000E+03	4.721184E-17	1.626114E-17
2.920000E+03	4.765233E-17	1.623967E-17
2.960000E+03	4.810297E-17	1.621429E-17
3.000000E+03	4.856454E-17	1.618503E-17
3.010000E+03	4.868334E-17	1.617765E-17
3.020000E+03	4.880238E-17	1.616986E-17
3.030000E+03	4.892158E-17	1.616163E-17
3.040000E+03	4.904309E-17	1.615367E-17
3.050000E+03	4.916571E-17	1.614558E-17
3.060000E+03	4.928940E-17	1.613733E-17
3.070000E+03	4.941514E-17	1.612925E-17
3.080000E+03	4.954179E-17	1.612095E-17
3.090000E+03	4.966929E-17	1.611242E-17
3.100000E+03	4.979964E-17	1.610429E-17
3.110000E+03	4.993070E-17	1.609587E-17
3.120000E+03	5.006340E-17	1.608745E-17
3.130000E+03	5.019669E-17	1.607869E-17
3.140000E+03	5.033348E-17	1.607051E-17
3.150000E+03	5.047069E-17	1.606193E-17
3.160000E+03	5.060927E-17	1.605324E-17
3.170000E+03	5.075010E-17	1.604472E-17
3.180000E+03	5.089311E-17	1.603633E-17
3.190000E+03	5.103629E-17	1.602744E-17
3.200000E+03	5.118244E-17	1.601892E-17
3.210000E+03	5.132957E-17	1.601015E-17
3.220000E+03	5.147858E-17	1.600139E-17
3.230000E+03	5.162846E-17	1.599234E-17
3.240000E+03	5.178007E-17	1.598324E-17
3.250000E+03	5.193332E-17	1.597407E-17
3.260000E+03	5.208817E-17	1.596482E-17
3.270000E+03	5.224364E-17	1.595517E-17
3.280000E+03	5.240059E-17	1.594538E-17
3.290000E+03	5.255895E-17	1.593544E-17
3.300000E+03	5.271778E-17	1.592505E-17
3.310000E+03	5.287790E-17	1.591445E-17
3.320000E+03	5.303844E-17	1.590339E-17
3.330000E+03	5.320019E-17	1.589209E-17
3.340000E+03	5.336226E-17	1.588030E-17
3.350000E+03	5.352462E-17	1.586799E-17
3.360000E+03	5.368726E-17	1.585518E-17
3.370000E+03	5.385012E-17	1.584184E-17
3.380000E+03	5.401322E-17	1.582797E-17
3.390000E+03	5.417571E-17	1.581333E-17
3.400000E+03	5.433841E-17	1.579816E-17
3.410000E+03	5.449971E-17	1.578201E-17
3.420000E+03	5.466118E-17	1.576531E-17
3.430000E+03	5.482127E-17	1.574765E-17
3.440000E+03	5.498002E-17	1.572902E-17
3.450000E+03	5.513745E-17	1.570945E-17
3.460000E+03	5.529282E-17	1.568873E-17
3.470000E+03	5.544692E-17	1.566710E-17
3.480000E+03	5.559901E-17	1.564436E-17
3.490000E+03	5.574846E-17	1.562033E-17
3.500000E+03	5.589530E-17	1.559505E-17
3.510000E+03	5.603888E-17	1.556834E-17
3.520000E+03	5.617995E-17	1.554043E-17
3.530000E+03	5.631652E-17	1.551078E-17
3.540000E+03	5.644935E-17	1.547963E-17
3.550000E+03	5.657784E-17	1.544682E-17
3.560000E+03	5.670212E-17	1.541242E-17
3.570000E+03	5.682091E-17	1.537609E-17
3.580000E+03	5.693368E-17	1.533773E-17
3.590000E+03	5.704125E-17	1.529757E-17
3.600000E+03	5.714175E-17	1.525515E-17
3.610000E+03	5.723601E-17	1.521072E-17
3.620000E+03	5.732355E-17	1.516418E-17
3.630000E+03	5.740323E-17	1.511526E-17
3.640000E+03	5.747460E-17	1.506388E-17
3.650000E+03	5.753787E-17	1.501014E-17
3.660000E+03	5.759199E-17	1.495379E-17
3.670000E+03	5.763778E-17	1.489510E-17
3.680000E+03	5.767361E-17	1.483368E-17
3.690000E+03	5.769971E-17	1.476964E-17
3.700000E+03	5.771570E-17	1.470292E-17
3.710000E+03	5.772186E-17	1.463365E-17
3.720000E+03	5.771718E-17	1.456161E-17
3.730000E+03	5.770193E-17	1.448692E-17
3.740000E+03	5.767581E-17	1.440956E-17
3.750000E+03	5.763903E-17	1.432962E-17
3.760000E+03	5.759129E-17	1.424709E-17
3.770000E+03	5.753285E-17	1.416208E-17
3.780000E+03	5.746337E-17	1.407456E-17
3.790000E+03	5.738254E-17	1.398450E-17
3.800000E+03	5.729175E-17	1.389229E-17
3.810000E+03	5.718959E-17	1.379764E-17
3.820000E+03	5.707682E-17	1.370079E-17
3.830000E+03	5.695425E-17	1.360197E-17
3.840000E+03	5.682101E-17	1.350104E-17
3.850000E+03	5.667735E-17	1.339810E-17
3.860000E+03	5.652402E-17	1.329337E-17
3.870000E+03	5.636123E-17	1.318696E-17
3.880000E+03	5.618920E-17	1.307896E-17
3.890000E+03	5.600758E-17	1.296933E-17
3.900000E+03	5.581710E-17	1.285829E-17
3.910000E+03	5.561795E-17	1.274593E-17
3.920000E+03	5.541032E-17	1.263233E-17
3.930000E+03	5.519435E-17	1.251757E-17
3.940000E+03	5.497023E-17	1.240173E-17
3.950000E+03	5.473860E-17	1.228499E-17
3.960000E+03	5.449961E-17	1.216743E-17
3.970000E+03	5.425291E-17	1.204900E-17
3.980000E+03	5.399962E-17	1.193000E-17
3.990000E+03	5.373936E-17	1.181036E-17
4.000000E+03	5.347273E-17	1.169027E-17
4.010000E+03	5.319984E-17	1.156977E-17
4.020000E+03	5.292031E-17	1.144881E-17
4.030000E+03	5.263519E-17	1.132765E-17
4.040000E+03	5.234409E-17	1.120625E-17
4.050000E+03	5.204755E-17	1.108473E-17
4.060000E+03	5.174566E-17	1.096315E-17
4.070000E+03	5.143846E-17	1.084155E-17
4.080000E+03	5.112604E-17	1.071996E-17
4.090000E+03	5.080888E-17	1.059852E-17
4.100000E+03	5.048660E-17	1.047716E-17
4.110000E+03	5.015923E-17	1.035592E-17
4.120000E+03	4.982770E-17	1.023501E-17
4.130000E+03	4.949118E-17	1.011427E-17
4.140000E+03	4.915012E-17	9.993836E-18
4.150000E+03	4.880455E-17	9.873716E-18
4.160000E+03	4.845449E-17	9.753936E-18
4.170000E+03	4.809997E-17	9.634519E-18
4.180000E+03	4.774102E-17	9.515485E-18
4.190000E+03	4.737762E-17	9.396852E-18
4.200000E+03	4.700980E-17	9.278636E-18
4.210000E+03	4.663758E-17	9.160857E-18
4.220000E+03	4.626096E-17	9.043526E-18
4.230000E+03	4.587956E-17	8.926583E-18
4.240000E+03	4.549337E-17	8.810036E-18
4.250000E+03	4.510281E-17	8.693980E-18
4.260000E+03	4.470789E-17	8.578422E-18
4.270000E+03	4.430781E-17	8.463205E-18
4.280000E+03	4.390295E-17	8.348387E-18
4.290000E+03	4.349325E-17	8.233943E-18
4.300000E+03	4.307867E-17	8.119849E-18
4.310000E+03	4.265918E-17	8.006083E-18
4.320000E+03	4.223437E-17	7.892553E-18
4.330000E+03	4.180496E-17	7.779380E-18
4.340000E+03	4.137020E-17	7.666404E-18
4.350000E+03	4.093078E-17	7.553743E-18
4.360000E+03	4.048670E-17	7.441375E-18
4.370000E+03	4.003831E-17	7.329350E-18
4.380000E+03	3.958552E-17	7.217636E-18
4.390000E+03	3.912867E-17	7.106275E-18
4.400000E+03	3.866762E-17	6.995225E-18
4.410000E+03	3.820292E-17	6.884567E-18
4.420000E+03	3.773435E-17	6.774245E-18
4.430000E+03	3.726174E-17	6.664213E-18
4.440000E+03	3.678560E-17	6.554541E-18
4.450000E+03	3.630574E-17	6.445182E-18
4.460000E+03	3.582236E-17	6.336154E-18
4.470000E+03	3.533598E-17	6.227529E-18
4.480000E+03	3.484611E-17	6.119209E-18
4.490000E+03	3.435330E-17	6.011272E-18
4.500000E+03	3.385779E-17	5.903740E-18
4.510000E+03	3.335951E-17	5.796581E-18
4.520000E+03	3.285876E-17	5.689826E-18
4.530000E+03	3.235582E-17	5.583505E-18
4.540000E+03	3.185105E-17	5.477659E-18
4.550000E+03	3.134473E-17	5.372319E-18
4.560000E+03	3.083691E-17	5.267476E-18
4.570000E+03	3.032768E-17	5.163123E-18
4.580000E+03	2.981796E-17	5.059404E-18
4.590000E+03	2.930754E-17	4.956264E-18
4.600000E+03	2.879652E-17	4.853704E-18
4.610000E+03	2.828556E-17	4.751821E-18
4.620000E+03	2.777502E-17	4.650658E-18
4.630000E+03	2.726449E-17	4.550133E-18
4.640000E+03	2.675517E-17	4.450430E-18
4.650000E+03	2.624637E-17	4.351424E-18
4.660000E+03	2.573904E-17	4.253255E-18
4.670000E+03	2.523328E-17	4.155931E-18
4.680000E+03	2.472928E-17	4.059467E-18
4.690000E+03	2.422716E-17	3.963876E-18
4.700000E+03	2.372713E-17	3.869175E-18
4.710000E+03	2.322984E-17	3.775465E-18
4.720000E+03	2.273531E-17	3.682733E-18
4.730000E+03	2.224387E-17	3.591027E-18
4.740000E+03	2.175619E-17	3.500443E-18
4.750000E+03	2.127232E-17	3.410979E-18
4.760000E+03	2.079338E-17	3.322805E-18
4.770000E+03	2.031923E-17	3.235888E-18
4.780000E+03	1.985072E-17	3.150351E-18
4.790000E+03	1.938826E-17	3.066250E-18
4.800000E+03	1.893185E-17	2.983574E-18
4.810000E+03	1.848206E-17	2.902401E-18
4.820000E+03	1.803938E-17	2.822799E-18
4.830000E+03	1.760377E-17	2.744750E-18
4.840000E+03	1.717569E-17	2.668312E-18
4.850000E+03	1.675538E-17	2.593514E-18
4.860000E+03	1.634290E-17	2.520352E-18
4.870000E+03	1.593845E-17	2.448847E-18
4.880000E+03	1.554237E-17	2.379039E-18
4.890000E+03	1.515466E-17	2.310916E-18
4.900000E+03	1.477559E-17	2.244508E-18
4.910000E+03	1.440498E-17	2.179775E-18
4.920000E+03	1.404306E-17	2.116742E-18
4.930000E+03	1.368991E-17	2.055406E-18
4.940000E+03	1.334542E-17	1.995743E-18
4.950000E+03	1.300978E-17	1.937767E-18
4.960000E+03	1.268287E-17	1.881448E-18
4.970000E+03	1.236482E-17	1.826793E-18
4.980000E+03	1.205548E-17	1.773770E-18
4.990000E+03	1.175484E-17	1.722362E-18
5.000000E+03	1.146272E-17	1.672535E-18
5.010000E+03	1.117933E-17	1.624306E-18
5.020000E+03	1.090437E-17	1.577617E-18
5.030000E+03	1.063776E-17	1.532449E-18
5.040000E+03	1.037954E-17	1.488793E-18
5.050000E+03	1.012951E-17	1.446612E-18
5.060000E+03	9.887597E-18	1.405879E-18
5.070000E+03	9.653683E-18	1.366569E-18
5.080000E+03	9.427667E-18	1.328656E-18
5.090000E+03	9.209352E-18	1.292100E-18
5.100000E+03	8.998627E-18	1.256876E-18
5.110000E+03	8.795468E-18	1.222967E-18
5.120000E+03	8.599578E-18	1.190323E-18
5.130000E+03	8.411014E-18	1.158941E-18
5.140000E+03	8.229402E-18	1.128757E-18
5.150000E+03	8.054797E-18	1.099771E-18
5.160000E+03	7.886990E-18	1.071942E-18
5.170000E+03	7.725875E-18	1.045247E-18
5.180000E+03	7.571325E-18	1.019658E-18
5.190000E+03	7.423151E-18	9.951409E-19
5.200000E+03	7.281246E-18	9.716716E-19
5.210000E+03	7.145427E-18	9.492167E-19
5.220000E+03	7.015728E-18	9.277719E-19
5.230000E+03	6.891839E-18	9.072876E-19
5.240000E+03	6.773725E-18	8.877511E-19
5.250000E+03	6.661289E-18	8.691414E-19
5.260000E+03	6.554442E-18	8.514394E-19
5.270000E+03	6.452966E-18	8.346090E-19
5.280000E+03	6.356840E-18	8.186408E-19
5.290000E+03	6.265924E-18	8.035095E-19
5.300000E+03	6.180145E-18	7.891996E-19
5.310000E+03	6.099373E-18	7.756882E-19
5.320000E+03	6.023608E-18	7.629695E-19
5.330000E+03	5.952670E-18	7.510153E-19
5.340000E+03	5.886511E-18	7.398142E-19
5.350000E+03	5.825025E-18	7.293485E-19
5.360000E+03	5.768234E-18	7.196164E-19
5.370000E+03	5.715930E-18	7.105882E-19
5.380000E+03	5.668147E-18	7.022644E-19
5.390000E+03	5.624806E-18	6.946324E-19
5.400000E+03	5.585839E-18	6.876810E-19
5.410000E+03	5.551072E-18	6.813866E-19
5.420000E+03	5.520452E-18	6.757412E-19
5.430000E+03	5.493931E-18	6.707378E-19
5.440000E+03	5.471251E-18	6.663441E-19
5.450000E+03	5.452379E-18	6.625562E-19
5.460000E+03	5.437121E-18	6.593513E-19
5.470000E+03	5.425402E-18	6.567210E-19
5.480000E+03	5.417416E-18	6.546904E-19
5.490000E+03	5.413136E-18	6.532581E-19
5.500000E+03	5.412736E-18	6.524475E-19
5.510000E+03	5.416269E-18	6.522677E-19
5.520000E+03	5.423939E-18	6.527468E-19
5.530000E+03	5.435678E-18	6.538803E-19
5.540000E+03	5.451586E-18	6.556849E-19
5.550000E+03	5.471659E-18	6.581653E-19
5.560000E+03	5.496068E-18	6.613478E-19
5.570000E+03	5.524763E-18	6.652322E-19
5.580000E+03	5.557797E-18	6.698265E-19
5.590000E+03	5.595166E-18	6.751306E-19
5.600000E+03	5.636990E-18	6.811595E-19
5.610000E+03	5.683220E-18	6.879089E-19
5.620000E+03	5.733933E-18	6.953897E-19
5.630000E+03	5.789210E-18	7.036143E-19
5.640000E+03	5.849081E-18	7.125890E-19
5.650000E+03	5.913641E-18	7.223290E-19
5.660000E+03	5.982869E-18	7.328354E-19
5.670000E+03	6.056874E-18	7.441258E-19
5.680000E+03	6.135771E-18	7.562189E-19
5.690000E+03	6.219610E-18	7.691263E-19
5.700000E+03	6.308464E-18	7.828627E-19
5.710000E+03	6.402387E-18	7.974404E-19
5.720000E+03	6.501591E-18	8.128926E-19
5.730000E+03	6.606013E-18	8.292182E-19
5.740000E+03	6.715872E-18	8.464518E-19
5.750000E+03	6.831246E-18	8.646106E-19
5.760000E+03	6.952156E-18	8.837055E-19
5.770000E+03	7.078753E-18	9.037635E-19
5.780000E+03	7.211205E-18	9.248149E-19
5.790000E+03	7.349540E-18	9.468718E-19
5.800000E+03	7.493838E-18	9.699539E-19
5.810000E+03	7.644366E-18	9.941049E-19
5.820000E+03	7.801051E-18	1.019325E-18
5.830000E+03	7.964069E-18	1.045646E-18
5.840000E+03	8.133514E-18	1.073092E-18
5.850000E+03	8.309492E-18	1.101685E-18
5.860000E+03	8.492170E-18	1.131459E-18
5.870000E+03	8.681463E-18	1.162412E-18
5.880000E+03	8.877636E-18	1.194589E-18
5.890000E+03	9.080671E-18	1.228000E-18
5.900000E+03	9.290651E-18	1.262664E-18
5.910000E+03	9.507637E-18	1.298602E-18
5.920000E+03	9.731688E-18	1.335829E-18
5.930000E+03	9.962964E-18	1.374380E-18
5.940000E+03	1.020129E-17	1.414238E-18
5.950000E+03	1.044667E-17	1.455415E-18
5.960000E+03	1.069925E-17	1.497939E-18
5.970000E+03	1.095904E-17	1.541820E-18
5.980000E+03	1.122575E-17	1.587028E-18
5.990000E+03	1.149962E-17	1.633602E-18
6.000000E+03	1.178020E-17	1.681486E-18
6.010000E+03	1.206782E-17	1.730734E-18
6.020000E+03	1.236197E-17	1.781279E-18
6.030000E+03	1.266251E-17	1.833106E-18
6.040000E+03	1.296945E-17	1.886221E-18
6.050000E+03	1.328245E-17	1.940579E-18
6.060000E+03	1.360133E-17	1.996155E-18
6.070000E+03	1.392552E-17	2.052869E-18
6.080000E+03	1.425508E-17	2.110728E-18
6.090000E+03	1.458920E-17	2.169615E-18
6.100000E+03	1.492788E-17	2.229526E-18
6.110000E+03	1.527058E-17	2.290379E-18
6.120000E+03	1.561671E-17	2.352083E-18
6.130000E+03	1.596582E-17	2.414563E-18
6.140000E+03	1.631763E-17	2.477771E-18
6.150000E+03	1.667142E-17	2.541593E-18
6.160000E+03	1.702666E-17	2.605938E-18
6.170000E+03	1.738321E-17	2.670774E-18
6.180000E+03	1.774005E-17	2.735935E-18
6.190000E+03	1.809684E-17	2.801357E-18
6.200000E+03	1.845326E-17	2.866979E-18
6.210000E+03	1.880910E-17	2.932752E-18
6.220000E+03	1.916369E-17	2.998562E-18
6.230000E+03	1.951661E-17	3.064327E-18
6.240000E+03	1.986771E-17	3.130008E-18
6.250000E+03	2.021632E-17	3.195483E-18
6.260000E+03	2.056225E-17	3.260710E-18
6.270000E+03	2.090513E-17	3.325608E-18
6.280000E+03	2.124479E-17	3.390139E-18
6.290000E+03	2.158084E-17	3.454221E-18
6.300000E+03	2.191286E-17	3.517771E-18
6.310000E+03	2.224077E-17	3.580758E-18
6.320000E+03	2.256447E-17	3.643151E-18
6.330000E+03	2.288329E-17	3.704821E-18
6.340000E+03	2.319717E-17	3.765744E-18
6.350000E+03	2.350608E-17	3.825900E-18
6.360000E+03	2.380940E-17	3.885167E-18
6.370000E+03	2.410749E-17	3.943587E-18
6.380000E+03	2.440009E-17	4.001099E-18
6.390000E+03	2.468696E-17	4.057645E-18
6.400000E+03	2.496785E-17	4.113165E-18
6.410000E+03	2.524325E-17	4.167722E-18
6.420000E+03	2.551261E-17	4.221208E-18
6.430000E+03	2.577648E-17	4.273699E-18
6.440000E+03	2.603471E-17	4.325151E-18
6.450000E+03	2.628716E-17	4.375524E-18
6.460000E+03	2.653409E-17	4.424848E-18
6.470000E+03	2.677540E-17	4.473091E-18
6.480000E+03	2.701139E-17	4.520288E-18
6.490000E+03	2.724118E-17	4.566276E-18
6.500000E+03	2.746548E-17	4.611164E-18
6.510000E+03	2.768429E-17	4.654934E-18
6.520000E+03	2.789709E-17	4.697488E-18
6.530000E+03	2.810429E-17	4.738884E-18
6.540000E+03	2.830586E-17	4.779105E-18
6.550000E+03	2.850179E-17	4.818137E-18
6.560000E+03	2.869206E-17	4.855966E-18
6.570000E+03	2.887715E-17	4.892663E-18
6.580000E+03	2.905660E-17	4.928143E-18
6.590000E+03	2.923045E-17	4.962400E-18
6.600000E+03	2.939920E-17	4.995512E-18
6.610000E+03	2.956288E-17	5.027479E-18
6.620000E+03	2.972107E-17	5.058219E-18
6.630000E+03	2.987431E-17	5.087817E-18
6.640000E+03	3.002216E-17	5.116195E-18
6.650000E+03	3.016572E-17	5.143532E-18
6.660000E+03	3.030403E-17	5.169661E-18
6.670000E+03	3.043719E-17	5.194592E-18
6.680000E+03	3.056577E-17	5.218421E-18
6.690000E+03	3.068989E-17	5.241165E-18
6.700000E+03	3.080912E-17	5.262746E-18
6.710000E+03	3.092353E-17	5.283175E-18
6.720000E+03	3.103379E-17	5.302562E-18
6.730000E+03	3.113945E-17	5.320831E-18
6.740000E+03	3.124117E-17	5.338094E-18
6.750000E+03	3.133796E-17	5.354180E-18
6.760000E+03	3.143105E-17	5.369300E-18
6.770000E+03	3.151944E-17	5.383283E-18
6.780000E+03	3.160436E-17	5.396342E-18
6.790000E+03	3.168481E-17	5.408307E-18
6.800000E+03	3.176148E-17	5.419295E-18
6.810000E+03	3.183450E-17	5.429335E-18
6.820000E+03	3.190341E-17	5.438349E-18
6.830000E+03	3.196893E-17	5.446462E-18
6.840000E+03	3.203059E-17	5.453600E-18
6.850000E+03	3.208912E-17	5.459890E-18
6.860000E+03	3.214345E-17	5.465155E-18
6.870000E+03	3.219492E-17	5.469627E-18
6.880000E+03	3.224304E-17	5.473230E-18
6.890000E+03	3.228797E-17	5.475996E-18
6.900000E+03	3.232921E-17	5.477845E-18
6.910000E+03	3.236813E-17	5.479016E-18
6.920000E+03	3.240300E-17	5.479224E-18
6.930000E+03	3.243581E-17	5.478815E-18
6.940000E+03	3.246547E-17	5.477608E-18
6.950000E+03	3.249208E-17	5.475631E-18
6.960000E+03	3.251642E-17	5.473022E-18
6.970000E+03	3.253798E-17	5.469705E-18
6.980000E+03	3.255691E-17	5.465714E-18
6.990000E+03	3.257332E-17	5.461075E-18
7.000000E+03	3.258735E-17	5.455822E-18
7.010000E+03	3.259911E-17	5.449985E-18
7.020000E+03	3.260811E-17	5.443491E-18
7.030000E+03	3.261575E-17	5.436582E-18
7.040000E+03	3.262023E-17	5.428972E-18
7.050000E+03	3.262359E-17	5.421011E-18
7.060000E+03	3.262404E-17	5.412411E-18
7.070000E+03	3.262299E-17	5.403419E-18
7.080000E+03	3.261990E-17	5.393958E-18
7.090000E+03	3.261492E-17	5.384061E-18
7.100000E+03	3.260878E-17	5.373866E-18
7.110000E+03	3.260033E-17	5.363192E-18
7.120000E+03	3.259031E-17	5.352176E-18
7.130000E+03	3.257821E-17	5.340745E-18
7.140000E+03	3.256477E-17	5.329035E-18
7.150000E+03	3.255013E-17	5.317082E-18
7.160000E+03	3.253372E-17	5.304807E-18
7.170000E+03	3.251634E-17	5.292352E-18
7.180000E+03	3.249674E-17	5.279530E-18
7.190000E+03	3.247637E-17	5.266589E-18
7.200000E+03	3.245468E-17	5.253455E-18
7.210000E+03	3.243110E-17	5.240049E-18
7.220000E+03	3.240640E-17	5.226513E-18
7.230000E+03	3.238067E-17	5.212874E-18
7.240000E+03	3.235337E-17	5.199058E-18
7.250000E+03	3.232457E-17	5.185095E-18
7.260000E+03	3.229439E-17	5.171018E-18
7.270000E+03	3.226291E-17	5.156857E-18
7.280000E+03	3.223022E-17	5.142639E-18
7.290000E+03	3.219510E-17	5.128185E-18
7.300000E+03	3.215894E-17	5.113734E-18
7.310000E+03	3.212119E-17	5.099214E-18
7.320000E+03	3.208125E-17	5.084546E-18
7.330000E+03	3.203989E-17	5.069867E-18
7.340000E+03	3.199584E-17	5.054991E-18
7.350000E+03	3.194918E-17	5.039950E-18
7.360000E+03	3.190000E-17	5.024772E-18
7.370000E+03	3.184771E-17	5.009380E-18
7.380000E+03	3.179306E-17	4.993909E-18
7.390000E+03	3.173409E-17	4.978068E-18
7.400000E+03	3.167223E-17	4.962096E-18
7.410000E+03	3.160622E-17	4.945812E-18
7.420000E+03	3.153679E-17	4.929344E-18
7.430000E+03	3.146335E-17	4.912616E-18
7.440000E+03	3.138594E-17	4.895649E-18
7.450000E+03	3.130534E-17	4.878575E-18
7.460000E+03	3.122090E-17	4.861311E-18
7.470000E+03	3.113470E-17	4.844192E-18
7.480000E+03	3.104549E-17	4.827032E-18
7.490000E+03	3.095464E-17	4.810056E-18
7.500000E+03	3.086156E-17	4.793167E-18
7.510000E+03	3.076832E-17	4.776669E-18
7.520000E+03	3.067429E-17	4.760450E-18
7.530000E+03	3.057955E-17	4.744506E-18
7.540000E+03	3.048482E-17	4.728932E-18
7.550000E+03	3.039015E-17	4.713719E-18
7.560000E+03	3.029694E-17	4.699070E-18
7.570000E+03	3.020387E-17	4.684764E-18
7.580000E+03	3.011171E-17	4.670900E-18
7.590000E+03	3.002112E-17	4.657570E-18
7.600000E+03	2.993152E-17	4.644664E-18
7.610000E+03	2.984359E-17	4.632274E-18
7.620000E+03	2.975671E-17	4.620289E-18
7.630000E+03	2.967225E-17	4.608905E-18
7.640000E+03	2.958892E-17	4.597908E-18
7.650000E+03	2.950810E-17	4.587496E-18
7.660000E+03	2.942845E-17	4.577449E-18
7.670000E+03	2.935137E-17	4.567969E-18
7.680000E+03	2.927554E-17	4.558837E-18
7.690000E+03	2.920233E-17	4.550254E-18
7.700000E+03	2.913109E-17	4.542105E-18
7.710000E+03	2.906186E-17	4.534384E-18
7.720000E+03	2.899464E-17	4.527079E-18
7.730000E+03	2.892949E-17	4.520186E-18
7.740000E+03	2.886640E-17	4.513693E-18
7.750000E+03	2.880473E-17	4.507488E-18
7.760000E+03	2.874586E-17	4.501774E-18
