#wls	flux	fluxerr
1.600000E+03	-6.880653E-12	-1.478226E-11
1.640000E+03	-6.684948E-12	-1.436722E-11
1.680000E+03	-6.472604E-12	-1.391611E-11
1.720000E+03	-6.244696E-12	-1.343118E-11
1.760000E+03	-6.001790E-12	-1.291362E-11
1.800000E+03	-5.740239E-12	-1.235557E-11
1.840000E+03	-5.466362E-12	-1.177055E-11
1.880000E+03	-5.182333E-12	-1.116322E-11
1.920000E+03	-4.889879E-12	-1.053729E-11
1.960000E+03	-4.587208E-12	-9.888863E-12
2.000000E+03	-4.280452E-12	-9.231135E-12
2.040000E+03	-3.971457E-12	-8.568074E-12
2.080000E+03	-3.662310E-12	-7.904176E-12
2.120000E+03	-3.354071E-12	-7.241742E-12
2.160000E+03	-3.050344E-12	-6.588539E-12
2.200000E+03	-2.753151E-12	-5.948949E-12
2.240000E+03	-2.464312E-12	-5.326920E-12
2.280000E+03	-2.184710E-12	-4.724392E-12
2.320000E+03	-1.919343E-12	-4.152183E-12
2.360000E+03	-1.671515E-12	-3.617483E-12
2.400000E+03	-1.443085E-12	-3.124358E-12
2.440000E+03	-1.235252E-12	-2.675461E-12
2.480000E+03	-1.047962E-12	-2.270718E-12
2.520000E+03	-8.809579E-13	-1.909624E-12
2.560000E+03	-7.335510E-13	-1.590737E-12
2.600000E+03	-6.053574E-13	-1.313280E-12
2.640000E+03	-4.945492E-13	-1.073329E-12
2.680000E+03	-3.998162E-13	-8.680843E-13
2.720000E+03	-3.197414E-13	-6.945108E-13
2.760000E+03	-2.533199E-13	-5.504665E-13
2.800000E+03	-1.984279E-13	-4.313661E-13
2.840000E+03	-1.536264E-13	-3.341114E-13
2.880000E+03	-1.175439E-13	-2.557455E-13
2.920000E+03	-8.913153E-14	-1.940105E-13
2.960000E+03	-6.683611E-14	-1.455430E-13
3.000000E+03	-4.958413E-14	-1.080213E-13
3.010000E+03	-4.594324E-14	-1.001002E-13
3.020000E+03	-4.256739E-14	-9.275510E-14
3.030000E+03	-3.941630E-14	-8.589817E-14
3.040000E+03	-3.647698E-14	-7.950132E-14
3.050000E+03	-3.373705E-14	-7.353767E-14
3.060000E+03	-3.119545E-14	-6.800512E-14
3.070000E+03	-2.882884E-14	-6.285288E-14
3.080000E+03	-2.662775E-14	-5.806042E-14
3.090000E+03	-2.458134E-14	-5.360423E-14
3.100000E+03	-2.268869E-14	-4.948241E-14
3.110000E+03	-2.093120E-14	-4.565451E-14
3.120000E+03	-1.930055E-14	-4.210244E-14
3.130000E+03	-1.778844E-14	-3.880822E-14
3.140000E+03	-1.639388E-14	-3.576975E-14
3.150000E+03	-1.510214E-14	-3.295499E-14
3.160000E+03	-1.390604E-14	-3.034832E-14
3.170000E+03	-1.279962E-14	-2.793681E-14
3.180000E+03	-1.178200E-14	-2.571863E-14
3.190000E+03	-1.084140E-14	-2.366808E-14
3.200000E+03	-9.972399E-15	-2.177339E-14
3.210000E+03	-9.169929E-15	-2.002357E-14
3.220000E+03	-8.433875E-15	-1.841840E-14
3.230000E+03	-7.754673E-15	-1.693705E-14
3.240000E+03	-7.128064E-15	-1.557024E-14
3.250000E+03	-6.550527E-15	-1.431032E-14
3.260000E+03	-6.021736E-15	-1.315663E-14
3.270000E+03	-5.534506E-15	-1.209349E-14
3.280000E+03	-5.085530E-15	-1.111370E-14
3.290000E+03	-4.671984E-15	-1.021113E-14
3.300000E+03	-4.294184E-15	-9.386498E-15
3.310000E+03	-3.946150E-15	-8.626744E-15
3.320000E+03	-3.625702E-15	-7.927128E-15
3.330000E+03	-3.330690E-15	-7.282967E-15
3.340000E+03	-3.061492E-15	-6.695116E-15
3.350000E+03	-2.813570E-15	-6.153663E-15
3.360000E+03	-2.585260E-15	-5.654981E-15
3.370000E+03	-2.375055E-15	-5.195789E-15
3.380000E+03	-2.183435E-15	-4.777157E-15
3.390000E+03	-2.006936E-15	-4.391515E-15
3.400000E+03	-1.844313E-15	-4.036146E-15
3.410000E+03	-1.694469E-15	-3.708664E-15
3.420000E+03	-1.558037E-15	-3.410466E-15
3.430000E+03	-1.432216E-15	-3.135425E-15
3.440000E+03	-1.316205E-15	-2.881798E-15
3.450000E+03	-1.209212E-15	-2.647857E-15
3.460000E+03	-1.111831E-15	-2.434915E-15
3.470000E+03	-1.021946E-15	-2.238337E-15
3.480000E+03	-9.389345E-16	-2.056769E-15
3.490000E+03	-8.622638E-16	-1.889049E-15
3.500000E+03	-7.925545E-16	-1.736543E-15
3.510000E+03	-7.280790E-16	-1.595468E-15
3.520000E+03	-6.684398E-16	-1.464959E-15
3.530000E+03	-6.132489E-16	-1.344167E-15
3.540000E+03	-5.630963E-16	-1.234392E-15
3.550000E+03	-5.166256E-16	-1.132662E-15
3.560000E+03	-4.735455E-16	-1.038342E-15
3.570000E+03	-4.335966E-16	-9.508644E-16
3.580000E+03	-3.973334E-16	-8.714500E-16
3.590000E+03	-3.636665E-16	-7.977107E-16
3.600000E+03	-3.324030E-16	-7.292254E-16
3.610000E+03	-3.033634E-16	-6.656025E-16
3.620000E+03	-2.770645E-16	-6.079782E-16
3.630000E+03	-2.526168E-16	-5.544021E-16
3.640000E+03	-2.298854E-16	-5.045796E-16
3.650000E+03	-2.087569E-16	-4.582628E-16
3.660000E+03	-1.896904E-16	-4.164621E-16
3.670000E+03	-1.719550E-16	-3.775733E-16
3.680000E+03	-1.554597E-16	-3.413976E-16
3.690000E+03	-1.401199E-16	-3.077506E-16
3.700000E+03	-1.263502E-16	-2.775442E-16
3.710000E+03	-1.135402E-16	-2.494381E-16
3.720000E+03	-1.016224E-16	-2.232852E-16
3.730000E+03	-9.053959E-17	-1.989601E-16
3.740000E+03	-8.065650E-17	-1.772658E-16
3.750000E+03	-7.145991E-17	-1.570746E-16
3.760000E+03	-6.290437E-17	-1.382873E-16
3.770000E+03	-5.494601E-17	-1.208080E-16
3.780000E+03	-4.791062E-17	-1.053538E-16
3.790000E+03	-4.136341E-17	-9.096903E-17
3.800000E+03	-3.527247E-17	-7.758398E-17
3.810000E+03	-2.960779E-17	-6.513300E-17
3.820000E+03	-2.465682E-17	-5.424902E-17
3.830000E+03	-2.005065E-17	-4.412077E-17
3.840000E+03	-1.576714E-17	-3.469983E-17
3.850000E+03	-1.178554E-17	-2.594083E-17
3.860000E+03	-8.360563E-18	-1.840478E-17
3.870000E+03	-5.176839E-18	-1.139779E-17
3.880000E+03	-2.219164E-18	-4.886595E-18
3.890000E+03	5.265555E-19	1.159637E-18
3.900000E+03	2.834624E-18	6.243598E-18
3.910000E+03	4.976160E-18	1.096215E-17
3.920000E+03	6.961299E-18	1.533746E-17
3.930000E+03	8.799508E-18	1.939025E-17
3.940000E+03	1.029043E-17	2.267887E-17
3.950000E+03	1.166837E-17	2.571940E-17
3.960000E+03	1.294010E-17	2.852669E-17
3.970000E+03	1.411149E-17	3.111355E-17
3.980000E+03	1.500461E-17	3.308761E-17
3.990000E+03	1.582310E-17	3.489766E-17
4.000000E+03	1.657107E-17	3.655268E-17
4.010000E+03	1.725239E-17	3.806116E-17
4.020000E+03	1.770835E-17	3.907292E-17
4.030000E+03	1.811710E-17	3.998081E-17
4.040000E+03	1.848094E-17	4.078985E-17
4.050000E+03	1.880213E-17	4.150501E-17
4.060000E+03	1.893963E-17	4.181491E-17
4.070000E+03	1.904924E-17	4.206334E-17
4.080000E+03	1.913243E-17	4.225349E-17
4.090000E+03	1.919015E-17	4.238745E-17
4.100000E+03	1.910210E-17	4.219952E-17
4.110000E+03	1.900000E-17	4.198051E-17
4.120000E+03	1.888420E-17	4.173114E-17
4.130000E+03	1.875545E-17	4.145308E-17
4.140000E+03	1.851440E-17	4.092681E-17
4.150000E+03	1.826864E-17	4.038993E-17
4.160000E+03	1.801835E-17	3.984290E-17
4.170000E+03	1.776345E-17	3.928550E-17
4.180000E+03	1.742217E-17	3.853695E-17
4.190000E+03	1.708237E-17	3.779144E-17
4.200000E+03	1.674426E-17	3.704943E-17
4.210000E+03	1.640740E-17	3.630995E-17
4.220000E+03	1.600404E-17	3.542314E-17
4.230000E+03	1.560662E-17	3.454919E-17
4.240000E+03	1.521498E-17	3.368775E-17
4.250000E+03	1.482861E-17	3.283771E-17
4.260000E+03	1.439157E-17	3.187525E-17
4.270000E+03	1.396339E-17	3.093210E-17
4.280000E+03	1.354367E-17	3.000737E-17
4.290000E+03	1.313222E-17	2.910066E-17
4.300000E+03	1.268252E-17	2.810894E-17
4.310000E+03	1.224355E-17	2.714070E-17
4.320000E+03	1.181501E-17	2.619523E-17
4.330000E+03	1.139662E-17	2.527194E-17
4.340000E+03	1.094985E-17	2.428549E-17
4.350000E+03	1.051527E-17	2.332572E-17
4.360000E+03	1.009265E-17	2.239216E-17
4.370000E+03	9.681689E-18	2.148415E-17
4.380000E+03	9.250463E-18	2.053090E-17
4.390000E+03	8.832612E-18	1.960700E-17
4.400000E+03	8.427810E-18	1.871175E-17
4.410000E+03	8.035798E-18	1.784459E-17
4.420000E+03	7.630079E-18	1.694671E-17
4.430000E+03	7.238371E-18	1.607965E-17
4.440000E+03	6.860321E-18	1.524261E-17
4.450000E+03	6.495712E-18	1.443513E-17
4.460000E+03	6.122139E-18	1.360748E-17
4.470000E+03	5.762755E-18	1.281107E-17
4.480000E+03	5.417284E-18	1.204530E-17
4.490000E+03	5.085358E-18	1.130936E-17
4.500000E+03	4.748162E-18	1.056146E-17
4.510000E+03	4.425081E-18	9.844686E-18
4.520000E+03	4.115808E-18	9.158364E-18
4.530000E+03	3.820084E-18	8.501935E-18
4.540000E+03	3.521860E-18	7.839717E-18
4.550000E+03	3.237486E-18	7.208079E-18
4.560000E+03	2.966690E-18	6.606436E-18
4.570000E+03	2.709176E-18	6.034147E-18
4.580000E+03	2.451328E-18	5.460905E-18
4.590000E+03	2.206912E-18	4.917371E-18
4.600000E+03	1.975637E-18	4.402912E-18
4.610000E+03	1.757214E-18	3.916898E-18
4.620000E+03	1.540094E-18	3.433608E-18
4.630000E+03	1.335849E-18	2.978838E-18
4.640000E+03	1.144203E-18	2.551987E-18
4.650000E+03	9.648640E-19	2.152423E-18
4.660000E+03	7.879908E-19	1.758206E-18
4.670000E+03	6.233491E-19	1.391128E-18
4.680000E+03	4.706501E-19	1.050561E-18
4.690000E+03	3.296047E-19	7.358745E-19
4.700000E+03	1.918548E-19	4.284215E-19
4.710000E+03	6.561064E-20	1.465416E-19
4.720000E+03	-4.941739E-20	-1.103964E-19
4.730000E+03	-1.535204E-19	-3.430281E-19
4.740000E+03	-2.537826E-19	-5.671717E-19
4.750000E+03	-3.433189E-19	-7.674319E-19
4.760000E+03	-4.224128E-19	-9.444275E-19
4.770000E+03	-4.913432E-19	-1.098768E-18
4.780000E+03	-5.560621E-19	-1.243754E-18
4.790000E+03	-6.108313E-19	-1.366542E-18
4.800000E+03	-6.559157E-19	-1.467709E-18
4.810000E+03	-6.915698E-19	-1.547813E-18
4.820000E+03	-7.227564E-19	-1.617952E-18
4.830000E+03	-7.447277E-19	-1.667487E-18
4.840000E+03	-7.577272E-19	-1.696951E-18
4.850000E+03	-7.619957E-19	-1.706870E-18
4.860000E+03	-7.615904E-19	-1.706324E-18
4.870000E+03	-7.526481E-19	-1.686647E-18
4.880000E+03	-7.353762E-19	-1.648291E-18
4.890000E+03	-7.099922E-19	-1.591734E-18
4.900000E+03	-6.797641E-19	-1.524291E-18
4.910000E+03	-6.415859E-19	-1.438989E-18
4.920000E+03	-5.956522E-19	-1.336253E-18
4.930000E+03	-5.421438E-19	-1.216476E-18
4.940000E+03	-4.836079E-19	-1.085366E-18
4.950000E+03	-4.176166E-19	-9.374633E-19
4.960000E+03	-3.443379E-19	-7.731347E-19
4.970000E+03	-2.639359E-19	-5.927381E-19
4.980000E+03	-1.782956E-19	-4.004972E-19
4.990000E+03	-8.559800E-20	-1.923166E-19
5.000000E+03	1.401480E-20	3.149451E-20
5.010000E+03	1.204056E-19	2.706383E-19
5.020000E+03	2.322713E-19	5.221954E-19
5.030000E+03	3.508868E-19	7.890412E-19
5.040000E+03	4.761389E-19	1.070931E-18
5.050000E+03	6.078987E-19	1.367586E-18
5.060000E+03	7.453798E-19	1.677245E-18
5.070000E+03	8.893827E-19	2.001720E-18
5.080000E+03	1.039778E-18	2.340729E-18
5.090000E+03	1.196489E-18	2.694108E-18
5.100000E+03	1.359138E-18	3.061021E-18
5.110000E+03	1.528102E-18	3.442320E-18
5.120000E+03	1.703298E-18	3.837833E-18
5.130000E+03	1.884603E-18	4.247287E-18
5.140000E+03	2.072020E-18	4.670705E-18
5.150000E+03	2.265581E-18	5.108165E-18
5.160000E+03	2.465173E-18	5.559421E-18
5.170000E+03	2.670702E-18	6.024272E-18
5.180000E+03	2.882441E-18	6.503343E-18
5.190000E+03	3.100128E-18	6.996053E-18
5.200000E+03	3.323607E-18	7.502058E-18
5.210000E+03	3.552841E-18	8.021284E-18
5.220000E+03	3.788317E-18	8.554840E-18
5.230000E+03	4.029468E-18	9.101455E-18
5.240000E+03	4.276182E-18	9.660886E-18
5.250000E+03	4.528391E-18	1.023299E-17
5.260000E+03	4.786654E-18	1.081903E-17
5.270000E+03	5.050301E-18	1.141751E-17
5.280000E+03	5.319260E-18	1.202828E-17
5.290000E+03	5.593241E-18	1.265068E-17
5.300000E+03	5.873086E-18	1.328663E-17
5.310000E+03	6.157803E-18	1.393389E-17
5.320000E+03	6.447406E-18	1.459250E-17
5.330000E+03	6.741527E-18	1.526165E-17
5.337819E+03	1.751020E-16	3.964706E-16
5.338419E+03	1.749782E-16	3.961958E-16
5.338819E+03	1.747186E-16	3.956116E-16
5.339019E+03	1.743242E-16	3.947204E-16
5.339619E+03	1.741803E-16	3.943998E-16
5.341019E+03	1.745255E-16	3.951941E-16
5.341820E+03	1.745092E-16	3.951643E-16
5.342420E+03	1.743395E-16	3.947853E-16
5.342820E+03	1.740483E-16	3.941296E-16
5.343220E+03	1.737635E-16	3.934882E-16
5.343420E+03	1.733459E-16	3.925443E-16
5.343820E+03	1.730355E-16	3.918450E-16
5.344220E+03	1.727211E-16	3.911364E-16
5.345620E+03	1.730232E-16	3.918331E-16
5.346020E+03	1.727115E-16	3.911308E-16
5.346420E+03	1.723984E-16	3.904251E-16
5.346821E+03	1.720662E-16	3.896765E-16
5.348021E+03	1.722247E-16	3.900461E-16
5.349221E+03	1.723891E-16	3.904289E-16
5.349620E+03	1.720559E-16	3.896777E-16
5.349820E+03	1.716042E-16	3.886566E-16
5.350220E+03	1.712874E-16	3.879425E-16
5.351820E+03	1.716703E-16	3.888240E-16
5.352621E+03	1.715529E-16	3.885650E-16
5.352821E+03	1.710623E-16	3.874556E-16
5.353021E+03	1.705737E-16	3.863505E-16
5.353221E+03	1.700894E-16	3.852554E-16
5.355221E+03	1.706632E-16	3.865725E-16
5.355421E+03	1.701788E-16	3.854773E-16
5.355621E+03	1.697045E-16	3.844044E-16
5.356621E+03	1.696769E-16	3.843508E-16
5.357021E+03	1.692781E-16	3.834509E-16
5.357221E+03	1.687725E-16	3.823074E-16
5.358622E+03	1.689487E-16	3.827186E-16
5.359222E+03	1.686476E-16	3.820416E-16
5.359422E+03	1.681308E-16	3.808727E-16
5.359622E+03	1.676051E-16	3.796835E-16
5.359822E+03	1.670679E-16	3.784682E-16
5.360022E+03	1.665378E-16	3.772692E-16
5.360822E+03	1.663540E-16	3.768595E-16
5.361622E+03	1.661640E-16	3.764361E-16
5.361821E+03	1.656283E-16	3.752242E-16
5.362822E+03	1.655374E-16	3.750267E-16
5.363022E+03	1.649879E-16	3.737834E-16
5.363622E+03	1.646567E-16	3.730382E-16
5.364022E+03	1.642097E-16	3.720290E-16
5.364222E+03	1.636481E-16	3.707583E-16
5.364822E+03	1.633023E-16	3.699799E-16
5.365822E+03	1.631670E-16	3.696817E-16
5.366822E+03	1.630251E-16	3.693685E-16
5.367622E+03	1.627646E-16	3.687850E-16
5.368423E+03	1.625010E-16	3.681945E-16
5.370023E+03	1.626669E-16	3.685838E-16
5.370223E+03	1.620722E-16	3.672379E-16
5.370423E+03	1.614765E-16	3.658898E-16
5.370623E+03	1.608827E-16	3.645460E-16
5.371223E+03	1.605000E-16	3.636837E-16
5.371423E+03	1.599035E-16	3.623337E-16
5.372423E+03	1.597267E-16	3.619412E-16
5.372623E+03	1.591237E-16	3.605765E-16
5.373222E+03	1.587306E-16	3.596906E-16
5.374023E+03	1.584399E-16	3.590384E-16
5.374823E+03	1.581423E-16	3.583704E-16
5.375423E+03	1.577380E-16	3.574591E-16
5.375623E+03	1.571315E-16	3.560864E-16
5.375823E+03	1.565043E-16	3.546667E-16
5.376023E+03	1.558790E-16	3.532512E-16
5.376223E+03	1.552357E-16	3.517950E-16
5.376623E+03	1.546950E-16	3.505728E-16
5.377023E+03	1.541497E-16	3.493401E-16
5.377223E+03	1.535026E-16	3.478753E-16
5.377823E+03	1.530561E-16	3.468682E-16
5.380224E+03	1.534948E-16	3.478813E-16
5.380424E+03	1.528415E-16	3.464023E-16
5.380624E+03	1.521844E-16	3.449145E-16
5.380824E+03	1.515263E-16	3.434245E-16
5.381224E+03	1.509614E-16	3.421474E-16
5.381424E+03	1.503010E-16	3.406522E-16
5.381624E+03	1.496396E-16	3.391546E-16
5.382824E+03	1.494501E-16	3.387343E-16
5.384024E+03	1.492636E-16	3.383208E-16
5.384225E+03	1.485979E-16	3.368135E-16
5.385025E+03	1.482111E-16	3.359428E-16
5.385225E+03	1.475327E-16	3.344068E-16
5.386225E+03	1.472185E-16	3.337021E-16
5.386624E+03	1.466171E-16	3.323419E-16
5.386824E+03	1.459364E-16	3.308005E-16
5.387624E+03	1.455280E-16	3.298806E-16
5.387824E+03	1.448261E-16	3.282912E-16
5.388424E+03	1.443322E-16	3.271760E-16
5.388624E+03	1.436422E-16	3.256135E-16
5.388824E+03	1.429513E-16	3.240486E-16
5.389024E+03	1.422682E-16	3.225017E-16
5.389424E+03	1.416557E-16	3.211161E-16
5.390025E+03	1.411185E-16	3.199027E-16
5.390225E+03	1.404311E-16	3.183459E-16
5.390425E+03	1.397159E-16	3.167261E-16
5.390625E+03	1.389998E-16	3.151042E-16
5.391225E+03	1.384623E-16	3.138899E-16
5.391825E+03	1.379307E-16	3.126891E-16
5.392025E+03	1.372096E-16	3.110557E-16
5.392625E+03	1.366613E-16	3.098169E-16
5.392825E+03	1.359492E-16	3.082039E-16
5.393225E+03	1.353235E-16	3.067882E-16
5.393425E+03	1.346059E-16	3.051628E-16
5.393625E+03	1.338784E-16	3.035148E-16
5.394425E+03	1.334107E-16	3.024600E-16
5.394625E+03	1.327067E-16	3.008654E-16
5.394826E+03	1.319902E-16	2.992422E-16
5.395226E+03	1.313387E-16	2.977680E-16
5.396226E+03	1.309223E-16	2.968305E-16
5.397026E+03	1.304415E-16	2.957460E-16
5.397226E+03	1.297075E-16	2.940832E-16
5.397626E+03	1.290705E-16	2.926415E-16
5.398225E+03	1.285103E-16	2.913752E-16
5.398426E+03	1.277600E-16	2.896755E-16
5.398825E+03	1.270892E-16	2.881572E-16
5.399025E+03	1.263453E-16	2.864717E-16
5.399625E+03	1.257425E-16	2.851088E-16
5.399825E+03	1.249864E-16	2.833957E-16
5.401026E+03	1.246135E-16	2.825580E-16
5.401226E+03	1.238528E-16	2.808344E-16
5.401626E+03	1.231879E-16	2.793293E-16
5.402226E+03	1.225741E-16	2.779413E-16
5.402426E+03	1.218182E-16	2.762283E-16
5.403626E+03	1.214300E-16	2.753558E-16
5.403826E+03	1.206788E-16	2.736536E-16
5.404026E+03	1.199298E-16	2.719562E-16
5.404226E+03	1.191611E-16	2.702143E-16
5.404426E+03	1.183976E-16	2.684843E-16
5.404626E+03	1.176269E-16	2.667378E-16
5.404826E+03	1.168832E-16	2.650524E-16
5.405026E+03	1.161385E-16	2.633649E-16
5.405226E+03	1.153803E-16	2.616469E-16
5.405627E+03	1.146784E-16	2.600576E-16
5.406027E+03	1.139866E-16	2.584911E-16
5.406227E+03	1.132339E-16	2.567852E-16
5.406427E+03	1.124614E-16	2.550346E-16
5.407227E+03	1.118994E-16	2.537647E-16
5.407427E+03	1.111328E-16	2.520274E-16
5.407627E+03	1.103652E-16	2.502877E-16
5.407827E+03	1.095997E-16	2.485529E-16
5.408427E+03	1.089704E-16	2.471292E-16
5.409027E+03	1.083350E-16	2.456914E-16
5.409227E+03	1.075614E-16	2.439382E-16
5.409427E+03	1.067932E-16	2.421970E-16
5.409627E+03	1.060271E-16	2.404607E-16
5.410426E+03	1.054392E-16	2.391317E-16
5.410627E+03	1.046668E-16	2.373810E-16
5.410828E+03	1.039220E-16	2.356928E-16
5.412227E+03	1.035354E-16	2.348236E-16
5.413027E+03	1.029464E-16	2.334920E-16
5.413227E+03	1.021781E-16	2.317503E-16
5.413427E+03	1.013960E-16	2.299776E-16
5.415427E+03	1.011596E-16	2.294517E-16
5.415627E+03	1.003903E-16	2.277080E-16
5.415827E+03	9.961692E-17	2.259547E-16
5.416828E+03	9.907914E-17	2.247400E-16
5.417028E+03	9.830831E-17	2.229926E-16
5.417628E+03	9.764139E-17	2.214828E-16
5.418228E+03	9.697478E-17	2.199737E-16
5.418428E+03	9.619263E-17	2.182005E-16
5.418828E+03	9.548481E-17	2.165969E-16
5.419228E+03	9.477510E-17	2.149889E-16
5.419428E+03	9.401179E-17	2.132584E-16
5.419628E+03	9.323128E-17	2.114889E-16
5.420428E+03	9.260850E-17	2.100799E-16
5.420628E+03	9.184089E-17	2.083396E-16
5.420828E+03	9.106904E-17	2.065896E-16
5.421028E+03	9.028979E-17	2.048228E-16
5.422628E+03	8.987751E-17	2.038949E-16
5.422828E+03	8.911587E-17	2.021680E-16
5.423628E+03	8.849035E-17	2.007526E-16
5.423828E+03	8.772220E-17	1.990109E-16
5.424428E+03	8.705027E-17	1.974892E-16
5.424628E+03	8.626935E-17	1.957184E-16
5.425428E+03	8.563868E-17	1.942911E-16
5.425628E+03	8.486768E-17	1.925428E-16
5.425828E+03	8.409574E-17	1.907924E-16
5.426028E+03	8.332945E-17	1.890547E-16
5.426228E+03	8.257219E-17	1.873375E-16
5.426428E+03	8.181402E-17	1.856182E-16
5.426628E+03	8.104829E-17	1.838818E-16
5.426829E+03	8.028519E-17	1.821513E-16
5.427029E+03	7.952754E-17	1.804332E-16
5.428029E+03	7.895635E-17	1.791413E-16
5.428229E+03	7.819172E-17	1.774073E-16
5.428429E+03	7.743615E-17	1.756938E-16
5.428629E+03	7.667970E-17	1.739783E-16
5.429029E+03	7.597239E-17	1.723750E-16
5.429629E+03	7.530955E-17	1.708734E-16
5.430229E+03	7.464737E-17	1.693733E-16
5.430429E+03	7.389170E-17	1.676594E-16
5.431229E+03	7.327004E-17	1.662519E-16
5.431829E+03	7.261039E-17	1.647574E-16
5.432029E+03	7.186325E-17	1.630628E-16
5.432230E+03	7.111206E-17	1.613591E-16
5.432830E+03	7.044625E-17	1.598505E-16
5.433830E+03	6.987014E-17	1.585468E-16
5.434030E+03	6.913373E-17	1.568765E-16
5.434230E+03	6.840663E-17	1.552273E-16
5.434430E+03	6.767188E-17	1.535607E-16
5.434630E+03	6.693628E-17	1.518922E-16
5.435230E+03	6.628452E-17	1.504152E-16
5.435629E+03	6.559998E-17	1.488632E-16
5.436829E+03	6.505294E-17	1.476258E-16
5.437029E+03	6.432064E-17	1.459647E-16
5.437229E+03	6.360458E-17	1.443404E-16
5.437429E+03	6.288088E-17	1.426987E-16
5.438230E+03	6.226077E-17	1.412940E-16
5.438430E+03	6.154781E-17	1.396767E-16
5.439030E+03	6.089502E-17	1.381971E-16
5.439230E+03	6.017609E-17	1.365662E-16
5.439630E+03	5.949635E-17	1.350248E-16
5.440630E+03	5.892001E-17	1.337198E-16
5.440830E+03	5.821379E-17	1.321176E-16
5.441030E+03	5.750674E-17	1.305136E-16
5.441230E+03	5.680578E-17	1.289233E-16
5.441430E+03	5.610750E-17	1.273391E-16
5.441830E+03	5.543218E-17	1.258076E-16
5.442030E+03	5.473186E-17	1.242187E-16
5.442230E+03	5.403768E-17	1.226438E-16
5.443631E+03	5.351986E-17	1.214724E-16
5.444231E+03	5.288686E-17	1.200373E-16
5.444431E+03	5.219752E-17	1.184733E-16
5.444631E+03	5.151093E-17	1.169154E-16
5.445231E+03	5.088292E-17	1.154916E-16
5.445431E+03	5.020094E-17	1.139442E-16
5.445631E+03	4.952521E-17	1.124110E-16
5.446031E+03	4.887549E-17	1.109372E-16
5.446231E+03	4.820483E-17	1.094155E-16
5.446631E+03	4.756999E-17	1.079755E-16
5.446831E+03	4.691147E-17	1.064813E-16
5.447030E+03	4.625559E-17	1.049930E-16
5.447230E+03	4.559560E-17	1.034954E-16
