#wls	flux	fluxerr
1.600000E+03	1.440724E-12	3.412651E-12
1.640000E+03	1.425833E-12	3.391836E-12
1.680000E+03	1.407532E-12	3.362802E-12
1.720000E+03	1.385780E-12	3.325341E-12
1.760000E+03	1.360404E-12	3.278924E-12
1.800000E+03	1.328211E-12	3.216109E-12
1.840000E+03	1.292348E-12	3.143897E-12
1.880000E+03	1.252990E-12	3.062582E-12
1.920000E+03	1.210213E-12	2.972209E-12
1.960000E+03	1.161063E-12	2.865763E-12
2.000000E+03	1.108974E-12	2.751074E-12
2.040000E+03	1.054111E-12	2.628415E-12
2.080000E+03	9.967247E-13	2.498274E-12
2.120000E+03	9.347061E-13	2.355594E-12
2.160000E+03	8.711146E-13	2.207475E-12
2.200000E+03	8.063344E-13	2.054785E-12
2.240000E+03	7.407438E-13	1.898393E-12
2.280000E+03	6.726139E-13	1.734086E-12
2.320000E+03	6.056005E-13	1.570792E-12
2.360000E+03	5.408213E-13	1.411419E-12
2.400000E+03	4.790461E-13	1.258034E-12
2.440000E+03	4.194589E-13	1.108810E-12
2.480000E+03	3.641246E-13	9.689914E-13
2.520000E+03	3.132740E-13	8.393565E-13
2.560000E+03	2.670093E-13	7.203648E-13
2.600000E+03	2.245713E-13	6.103085E-13
2.640000E+03	1.869297E-13	5.118016E-13
2.680000E+03	1.539155E-13	4.246142E-13
2.720000E+03	1.252973E-13	3.483417E-13
2.760000E+03	1.004107E-13	2.814436E-13
2.800000E+03	7.946018E-14	2.245848E-13
2.840000E+03	6.206263E-14	1.769108E-13
2.880000E+03	4.782742E-14	1.375217E-13
2.920000E+03	3.621797E-14	1.051012E-13
2.960000E+03	2.705434E-14	7.924972E-14
3.000000E+03	1.994202E-14	5.897905E-14
3.010000E+03	1.844041E-14	5.467083E-14
3.020000E+03	1.702782E-14	5.060920E-14
3.030000E+03	1.571124E-14	4.681364E-14
3.040000E+03	1.448526E-14	4.326992E-14
3.050000E+03	1.334471E-14	3.996439E-14
3.060000E+03	1.228119E-14	3.687455E-14
3.070000E+03	1.129388E-14	3.399836E-14
3.080000E+03	1.037861E-14	3.132487E-14
3.090000E+03	9.530666E-15	2.884134E-14
3.100000E+03	8.743276E-15	2.652938E-14
3.110000E+03	8.015486E-15	2.438656E-14
3.120000E+03	7.343520E-15	2.240266E-14
3.130000E+03	6.723625E-15	2.056746E-14
3.140000E+03	6.150280E-15	1.886573E-14
3.150000E+03	5.622536E-15	1.729497E-14
3.160000E+03	5.137079E-15	1.584602E-14
3.170000E+03	4.691082E-15	1.451111E-14
3.180000E+03	4.280152E-15	1.327796E-14
3.190000E+03	3.903336E-15	1.214396E-14
3.200000E+03	3.558062E-15	1.110192E-14
3.210000E+03	3.241918E-15	1.014506E-14
3.220000E+03	2.951664E-15	9.264233E-15
3.230000E+03	2.686376E-15	8.456826E-15
3.240000E+03	2.444012E-15	7.717034E-15
3.250000E+03	2.222838E-15	7.039957E-15
3.260000E+03	2.020260E-15	6.418110E-15
3.270000E+03	1.835634E-15	5.849683E-15
3.280000E+03	1.667386E-15	5.330132E-15
3.290000E+03	1.514157E-15	4.855536E-15
3.300000E+03	1.374145E-15	4.420660E-15
3.310000E+03	1.246736E-15	4.023709E-15
3.320000E+03	1.130865E-15	3.661593E-15
3.330000E+03	1.025512E-15	3.331325E-15
3.340000E+03	9.293501E-16	3.028987E-15
3.350000E+03	8.419657E-16	2.753369E-15
3.360000E+03	7.625704E-16	2.502142E-15
3.370000E+03	6.904524E-16	2.273201E-15
3.380000E+03	6.246614E-16	2.063704E-15
3.390000E+03	5.649276E-16	1.872858E-15
3.400000E+03	5.106812E-16	1.698955E-15
3.410000E+03	4.614191E-16	1.540488E-15
3.420000E+03	4.164939E-16	1.395501E-15
3.430000E+03	3.756979E-16	1.263370E-15
3.440000E+03	3.386591E-16	1.142973E-15
3.450000E+03	3.050253E-16	1.033242E-15
3.460000E+03	2.743318E-16	9.327494E-16
3.470000E+03	2.464624E-16	8.411512E-16
3.480000E+03	2.211472E-16	7.576205E-16
3.490000E+03	1.981511E-16	6.814373E-16
3.500000E+03	1.771581E-16	6.116187E-16
3.510000E+03	1.580837E-16	5.479108E-16
3.520000E+03	1.407526E-16	4.897737E-16
3.530000E+03	1.250018E-16	4.367015E-16
3.540000E+03	1.106130E-16	3.880047E-16
3.550000E+03	9.753811E-17	3.435429E-16
3.560000E+03	8.565546E-17	3.029365E-16
3.570000E+03	7.485667E-17	2.658467E-16
3.580000E+03	6.499277E-17	2.317952E-16
3.590000E+03	5.603508E-17	2.007026E-16
3.600000E+03	4.790278E-17	1.723146E-16
3.610000E+03	4.052238E-17	1.463997E-16
3.620000E+03	3.379309E-17	1.226290E-16
3.630000E+03	2.769647E-17	1.009546E-16
3.640000E+03	2.217712E-17	8.120055E-17
3.650000E+03	1.718579E-17	6.321090E-17
3.660000E+03	1.265281E-17	4.675377E-17
3.670000E+03	8.565338E-18	3.179788E-17
3.680000E+03	4.885099E-18	1.822086E-17
3.690000E+03	1.577171E-18	5.910625E-18
3.700000E+03	-1.405649E-18	-5.293360E-18
3.710000E+03	-4.073910E-18	-1.541645E-17
3.720000E+03	-6.454577E-18	-2.454584E-17
3.730000E+03	-8.572502E-18	-3.276226E-17
3.740000E+03	-1.045921E-17	-4.017578E-17
3.750000E+03	-1.212388E-17	-4.680866E-17
3.760000E+03	-1.358574E-17	-5.272386E-17
3.770000E+03	-1.486202E-17	-5.797777E-17
3.780000E+03	-1.597341E-17	-6.264494E-17
3.790000E+03	-1.692812E-17	-6.674569E-17
3.800000E+03	-1.773977E-17	-7.032509E-17
3.810000E+03	-1.842066E-17	-7.342394E-17
3.820000E+03	-1.898331E-17	-7.608849E-17
3.830000E+03	-1.943557E-17	-7.833979E-17
3.840000E+03	-1.978717E-17	-8.021033E-17
3.850000E+03	-2.004683E-17	-8.172936E-17
3.860000E+03	-2.022161E-17	-8.292356E-17
3.870000E+03	-2.031915E-17	-8.381521E-17
3.880000E+03	-2.034628E-17	-8.442732E-17
3.890000E+03	-2.030938E-17	-8.478155E-17
3.900000E+03	-2.021120E-17	-8.488823E-17
3.910000E+03	-2.005956E-17	-8.477243E-17
3.920000E+03	-1.985931E-17	-8.445066E-17
3.930000E+03	-1.961503E-17	-8.393861E-17
3.940000E+03	-1.932673E-17	-8.323552E-17
3.950000E+03	-1.900176E-17	-8.236667E-17
3.960000E+03	-1.864408E-17	-8.134595E-17
3.970000E+03	-1.825658E-17	-8.018300E-17
3.980000E+03	-1.783774E-17	-7.887047E-17
3.990000E+03	-1.739481E-17	-7.743512E-17
4.000000E+03	-1.693049E-17	-7.588646E-17
4.010000E+03	-1.644730E-17	-7.423334E-17
4.020000E+03	-1.594214E-17	-7.246104E-17
4.030000E+03	-1.542236E-17	-7.059874E-17
4.040000E+03	-1.488988E-17	-6.865326E-17
4.050000E+03	-1.434665E-17	-6.663162E-17
4.060000E+03	-1.378901E-17	-6.451595E-17
4.070000E+03	-1.322385E-17	-6.233527E-17
4.080000E+03	-1.265288E-17	-6.009607E-17
4.090000E+03	-1.207744E-17	-5.780316E-17
4.100000E+03	-1.149370E-17	-5.543717E-17
4.110000E+03	-1.090835E-17	-5.302807E-17
4.120000E+03	-1.032254E-17	-5.058030E-17
4.130000E+03	-9.737614E-18	-4.809929E-17
4.140000E+03	-9.149531E-18	-4.556390E-17
4.150000E+03	-8.564619E-18	-4.300424E-17
4.160000E+03	-7.983955E-18	-4.042487E-17
4.170000E+03	-7.408450E-18	-3.782967E-17
4.180000E+03	-6.834335E-18	-3.519829E-17
4.190000E+03	-6.267327E-18	-3.255948E-17
4.200000E+03	-5.708423E-18	-2.991793E-17
4.210000E+03	-5.158332E-18	-2.727701E-17
4.220000E+03	-4.613417E-18	-2.461665E-17
4.230000E+03	-4.079038E-18	-2.196530E-17
4.240000E+03	-3.555927E-18	-1.932685E-17
4.250000E+03	-3.044695E-18	-1.670467E-17
4.260000E+03	-2.541988E-18	-1.407996E-17
4.270000E+03	-2.052620E-18	-1.147969E-17
4.280000E+03	-1.577152E-18	-8.907385E-18
4.290000E+03	-1.116136E-18	-6.366658E-18
4.300000E+03	-6.664500E-19	-3.839990E-18
4.310000E+03	-2.323820E-19	-1.352692E-18
4.320000E+03	1.856237E-19	1.091772E-18
4.330000E+03	5.871610E-19	3.490014E-18
4.340000E+03	9.750384E-19	5.857543E-18
4.350000E+03	1.345526E-18	8.171148E-18
4.360000E+03	1.698343E-18	1.042771E-17
4.370000E+03	2.033240E-18	1.262415E-17
4.380000E+03	2.352748E-18	1.477386E-17
4.390000E+03	2.653787E-18	1.685666E-17
4.400000E+03	2.936238E-18	1.886981E-17
4.410000E+03	3.200041E-18	2.081084E-17
4.420000E+03	3.447536E-18	2.269129E-17
4.430000E+03	3.676205E-18	2.449389E-17
4.440000E+03	3.886088E-18	2.621639E-17
4.450000E+03	4.077323E-18	2.785701E-17
4.460000E+03	4.251965E-18	2.942469E-17
4.470000E+03	4.408049E-18	3.090539E-17
4.480000E+03	4.545798E-18	3.229758E-17
4.490000E+03	4.665405E-18	3.359934E-17
4.500000E+03	4.768784E-18	3.481772E-17
4.510000E+03	4.854465E-18	3.594195E-17
4.520000E+03	4.922792E-18	3.697088E-17
4.530000E+03	4.974187E-18	3.790385E-17
4.540000E+03	5.010226E-18	3.874436E-17
4.550000E+03	5.030011E-18	3.948597E-17
4.560000E+03	5.034073E-18	4.012857E-17
4.570000E+03	5.022926E-18	4.067186E-17
4.580000E+03	4.997946E-18	4.111677E-17
4.590000E+03	4.958718E-18	4.146097E-17
4.600000E+03	4.905853E-18	4.170476E-17
4.610000E+03	4.839984E-18	4.184861E-17
4.620000E+03	4.762401E-18	4.189179E-17
4.630000E+03	4.673014E-18	4.183528E-17
4.640000E+03	4.572575E-18	4.168054E-17
4.650000E+03	4.461809E-18	4.142886E-17
4.660000E+03	4.341810E-18	4.107700E-17
4.670000E+03	4.212863E-18	4.063014E-17
4.680000E+03	4.075743E-18	4.009017E-17
4.690000E+03	3.931234E-18	3.945911E-17
4.700000E+03	3.780352E-18	3.873260E-17
4.710000E+03	3.623619E-18	3.791922E-17
4.720000E+03	3.461829E-18	3.702144E-17
4.730000E+03	3.295834E-18	3.604259E-17
4.740000E+03	3.126359E-18	3.497533E-17
4.750000E+03	2.954126E-18	3.383148E-17
4.760000E+03	2.779936E-18	3.261440E-17
4.770000E+03	2.604553E-18	3.132722E-17
4.780000E+03	2.428525E-18	2.996104E-17
4.790000E+03	2.252722E-18	2.853071E-17
4.800000E+03	2.077868E-18	2.703967E-17
4.810000E+03	1.904651E-18	2.549115E-17
4.820000E+03	1.733484E-18	2.387575E-17
4.830000E+03	1.565266E-18	2.220998E-17
4.840000E+03	1.400642E-18	2.049752E-17
4.850000E+03	1.240233E-18	1.874211E-17
4.860000E+03	1.084237E-18	1.693340E-17
4.870000E+03	9.335785E-19	1.508938E-17
4.880000E+03	7.887852E-19	1.321367E-17
4.890000E+03	6.503789E-19	1.131024E-17
4.900000E+03	5.183690E-19	9.368979E-18
4.910000E+03	3.936452E-19	7.408162E-18
4.920000E+03	2.766368E-19	5.431841E-18
4.930000E+03	1.677380E-19	3.444016E-18
4.940000E+03	6.672345E-20	1.435013E-18
4.950000E+03	-2.553996E-20	-5.768838E-19
4.960000E+03	-1.087524E-19	-2.587457E-18
4.970000E+03	-1.826496E-19	-4.592474E-18
4.980000E+03	-2.477320E-19	-6.600756E-18
4.990000E+03	-3.031467E-19	-8.594461E-18
5.000000E+03	-3.487396E-19	-1.056923E-17
5.010000E+03	-3.843993E-19	-1.252079E-17
5.020000E+03	-4.109360E-19	-1.445645E-17
5.030000E+03	-4.274995E-19	-1.635926E-17
5.040000E+03	-4.341048E-19	-1.822503E-17
5.050000E+03	-4.307900E-19	-2.004875E-17
5.060000E+03	-4.187377E-19	-2.183623E-17
5.070000E+03	-3.970921E-19	-2.357226E-17
5.080000E+03	-3.660275E-19	-2.525156E-17
5.090000E+03	-3.257891E-19	-2.687023E-17
5.100000E+03	-2.779556E-19	-2.843115E-17
5.110000E+03	-2.216439E-19	-2.992099E-17
5.120000E+03	-1.572362E-19	-3.133548E-17
5.130000E+03	-8.516121E-20	-3.266945E-17
5.140000E+03	-7.455524E-21	-3.392394E-17
5.150000E+03	7.680946E-20	-3.508848E-17
5.160000E+03	1.670488E-19	-3.615831E-17
5.170000E+03	2.626234E-19	-3.712908E-17
5.180000E+03	3.610275E-19	-3.799911E-17
5.190000E+03	4.632576E-19	-3.876106E-17
5.200000E+03	5.685158E-19	-3.941016E-17
5.210000E+03	6.759710E-19	-3.994333E-17
5.220000E+03	7.826620E-19	-4.035681E-17
5.230000E+03	8.896633E-19	-4.064598E-17
5.240000E+03	9.960003E-19	-4.080756E-17
5.250000E+03	1.100664E-18	-4.083888E-17
5.260000E+03	1.200265E-18	-4.073475E-17
5.270000E+03	1.296025E-18	-4.049448E-17
5.280000E+03	1.386841E-18	-4.011626E-17
5.290000E+03	1.471523E-18	-3.959696E-17
5.300000E+03	1.546477E-18	-3.893357E-17
5.310000E+03	1.612988E-18	-3.812639E-17
5.320000E+03	1.669901E-18	-3.717565E-17
5.330000E+03	1.715950E-18	-3.607968E-17
5.337819E+03	1.238345E-17	-2.495971E-16
5.338419E+03	1.237104E-17	-2.485539E-16
5.338819E+03	1.235009E-17	-2.476076E-16
5.339019E+03	1.232087E-17	-2.467603E-16
5.339619E+03	1.230627E-17	-2.456911E-16
5.341019E+03	1.231971E-17	-2.441614E-16
5.341820E+03	1.231155E-17	-2.429821E-16
5.342420E+03	1.229396E-17	-2.418790E-16
5.342820E+03	1.226948E-17	-2.408974E-16
5.343220E+03	1.224547E-17	-2.399288E-16
5.343420E+03	1.221403E-17	-2.390655E-16
5.343820E+03	1.218804E-17	-2.380647E-16
5.344220E+03	1.216160E-17	-2.370598E-16
5.345620E+03	1.216720E-17	-2.354722E-16
5.346020E+03	1.214051E-17	-2.344759E-16
5.346420E+03	1.211358E-17	-2.334789E-16
5.346821E+03	1.208515E-17	-2.324565E-16
5.348021E+03	1.208069E-17	-2.309620E-16
5.349221E+03	1.207537E-17	-2.294671E-16
5.349620E+03	1.204619E-17	-2.284538E-16
5.349820E+03	1.201155E-17	-2.275687E-16
5.350220E+03	1.198344E-17	-2.265819E-16
5.351820E+03	1.198504E-17	-2.248112E-16
5.352621E+03	1.196339E-17	-2.235148E-16
5.352821E+03	1.192572E-17	-2.225908E-16
5.353021E+03	1.188825E-17	-2.216722E-16
5.353221E+03	1.185107E-17	-2.207609E-16
5.355221E+03	1.185474E-17	-2.186683E-16
5.355421E+03	1.181726E-17	-2.177640E-16
5.355621E+03	1.178053E-17	-2.168750E-16
5.356621E+03	1.175912E-17	-2.154283E-16
5.357021E+03	1.172346E-17	-2.143577E-16
5.357221E+03	1.168438E-17	-2.134360E-16
5.358622E+03	1.166746E-17	-2.116882E-16
5.359222E+03	1.163369E-17	-2.104662E-16
5.359422E+03	1.159366E-17	-2.095403E-16
5.359622E+03	1.155299E-17	-2.086049E-16
5.359822E+03	1.151158E-17	-2.076579E-16
5.360022E+03	1.147065E-17	-2.067214E-16
5.360822E+03	1.144005E-17	-2.053823E-16
5.361622E+03	1.140846E-17	-2.040359E-16
5.361821E+03	1.136708E-17	-2.031034E-16
5.362822E+03	1.133704E-17	-2.016067E-16
5.363022E+03	1.129456E-17	-2.006611E-16
5.363622E+03	1.125712E-17	-1.994301E-16
5.364022E+03	1.121669E-17	-1.983395E-16
5.364222E+03	1.117335E-17	-1.973872E-16
5.364822E+03	1.113463E-17	-1.961491E-16
5.365822E+03	1.109944E-17	-1.946161E-16
5.366822E+03	1.106339E-17	-1.930815E-16
5.367622E+03	1.102400E-17	-1.916797E-16
5.368423E+03	1.098385E-17	-1.902739E-16
5.370023E+03	1.094861E-17	-1.882704E-16
5.370223E+03	1.090270E-17	-1.873088E-16
5.370423E+03	1.085674E-17	-1.863480E-16
5.370623E+03	1.081092E-17	-1.853913E-16
5.371223E+03	1.076727E-17	-1.841368E-16
5.371423E+03	1.072127E-17	-1.831827E-16
5.372423E+03	1.067899E-17	-1.816305E-16
5.372623E+03	1.063251E-17	-1.806755E-16
5.373222E+03	1.058757E-17	-1.794238E-16
5.374023E+03	1.054296E-17	-1.780214E-16
5.374823E+03	1.049743E-17	-1.766140E-16
5.375423E+03	1.045097E-17	-1.753581E-16
5.375623E+03	1.040419E-17	-1.744165E-16
5.375823E+03	1.035610E-17	-1.734545E-16
5.376023E+03	1.030815E-17	-1.724967E-16
5.376223E+03	1.025903E-17	-1.715209E-16
5.376623E+03	1.021005E-17	-1.703969E-16
5.377023E+03	1.016084E-17	-1.692729E-16
5.377223E+03	1.011155E-17	-1.683015E-16
5.377823E+03	1.006208E-17	-1.670308E-16
5.380224E+03	1.000703E-17	-1.643604E-16
5.380424E+03	9.957308E-18	-1.633996E-16
5.380624E+03	9.907357E-18	-1.624367E-16
5.380824E+03	9.857374E-18	-1.614750E-16
5.381224E+03	9.806260E-18	-1.603557E-16
5.381424E+03	9.756196E-18	-1.593972E-16
5.381624E+03	9.706099E-18	-1.584397E-16
5.382824E+03	9.650129E-18	-1.567014E-16
5.384024E+03	9.593123E-18	-1.549646E-16
5.384225E+03	9.542774E-18	-1.540168E-16
5.385025E+03	9.487551E-18	-1.525955E-16
5.385225E+03	9.436479E-18	-1.516428E-16
5.386225E+03	9.377619E-18	-1.500486E-16
5.386624E+03	9.323770E-18	-1.489311E-16
5.386824E+03	9.272665E-18	-1.479875E-16
5.387624E+03	9.215177E-18	-1.465660E-16
5.387824E+03	9.162795E-18	-1.456082E-16
5.388424E+03	9.107681E-18	-1.443617E-16
5.388624E+03	9.056158E-18	-1.434225E-16
5.388824E+03	9.004611E-18	-1.424845E-16
5.389024E+03	8.953598E-18	-1.415567E-16
5.389424E+03	8.899099E-18	-1.404558E-16
5.390025E+03	8.841214E-18	-1.391863E-16
5.390225E+03	8.790088E-18	-1.382640E-16
5.390425E+03	8.737260E-18	-1.373167E-16
5.390625E+03	8.684453E-18	-1.363712E-16
5.391225E+03	8.626685E-18	-1.351208E-16
5.391825E+03	8.569175E-18	-1.338805E-16
5.392025E+03	8.516208E-18	-1.329410E-16
5.392625E+03	8.457666E-18	-1.316943E-16
5.392825E+03	8.405404E-18	-1.307706E-16
5.393225E+03	8.350307E-18	-1.296955E-16
5.393425E+03	8.297808E-18	-1.287722E-16
5.393625E+03	8.244777E-18	-1.278421E-16
5.394425E+03	8.183030E-18	-1.264610E-16
5.394625E+03	8.131580E-18	-1.255610E-16
5.394826E+03	8.079358E-18	-1.246502E-16
5.395226E+03	8.022991E-18	-1.235747E-16
5.396226E+03	7.955883E-18	-1.220331E-16
5.397026E+03	7.892869E-18	-1.206660E-16
5.397226E+03	7.839962E-18	-1.197582E-16
5.397626E+03	7.784528E-18	-1.187153E-16
5.398225E+03	7.725274E-18	-1.175212E-16
5.398426E+03	7.671590E-18	-1.166080E-16
5.398825E+03	7.614301E-18	-1.155477E-16
5.399025E+03	7.561233E-18	-1.146482E-16
5.399625E+03	7.499592E-18	-1.134342E-16
5.399825E+03	7.445957E-18	-1.125307E-16
5.401026E+03	7.371927E-18	-1.108671E-16
5.401226E+03	7.318270E-18	-1.099705E-16
5.401626E+03	7.261665E-18	-1.089425E-16
5.402226E+03	7.199400E-18	-1.077453E-16
5.402426E+03	7.146283E-18	-1.068637E-16
5.403626E+03	7.070904E-18	-1.052246E-16
5.403826E+03	7.018340E-18	-1.043581E-16
5.404026E+03	6.965974E-18	-1.034959E-16
5.404226E+03	6.912546E-18	-1.026194E-16
5.404426E+03	6.859524E-18	-1.017503E-16
5.404626E+03	6.806162E-18	-1.008775E-16
5.404826E+03	6.754443E-18	-1.000305E-16
5.405026E+03	6.702746E-18	-9.918520E-17
5.405226E+03	6.650372E-18	-9.833122E-17
5.405627E+03	6.592646E-18	-9.732107E-17
5.406027E+03	6.535629E-18	-9.632491E-17
5.406227E+03	6.483854E-18	-9.548542E-17
5.406427E+03	6.431056E-18	-9.463222E-17
5.407227E+03	6.364531E-18	-9.335479E-17
5.407427E+03	6.312317E-18	-9.251515E-17
5.407627E+03	6.260131E-18	-9.167732E-17
5.407827E+03	6.208178E-18	-9.084421E-17
5.408427E+03	6.146900E-18	-8.973341E-17
5.409027E+03	6.085315E-18	-8.862329E-17
5.409227E+03	6.033282E-18	-8.779601E-17
5.409427E+03	5.981664E-18	-8.697605E-17
5.409627E+03	5.930257E-18	-8.616043E-17
5.410426E+03	5.863358E-18	-8.492024E-17
5.410627E+03	5.811814E-18	-8.410715E-17
5.410828E+03	5.761940E-18	-8.331948E-17
5.412227E+03	5.680684E-18	-8.169468E-17
5.413027E+03	5.613728E-18	-8.047946E-17
5.413227E+03	5.563160E-18	-7.969232E-17
5.413427E+03	5.511980E-18	-7.889762E-17
5.415427E+03	5.411802E-18	-7.686387E-17
5.415627E+03	5.361831E-18	-7.609514E-17
5.415827E+03	5.311737E-18	-7.532594E-17
5.416828E+03	5.239079E-18	-7.400902E-17
5.417028E+03	5.189515E-18	-7.325238E-17
5.417628E+03	5.127920E-18	-7.221592E-17
5.418228E+03	5.066445E-18	-7.118603E-17
5.418428E+03	5.016799E-18	-7.043442E-17
5.418828E+03	4.962364E-18	-6.956348E-17
5.419228E+03	4.907987E-18	-6.869594E-17
5.419428E+03	4.859737E-18	-6.796865E-17
5.419628E+03	4.810732E-18	-6.723190E-17
5.420428E+03	4.743927E-18	-6.609632E-17
5.420628E+03	4.695948E-18	-6.537802E-17
5.420828E+03	4.647865E-18	-6.465942E-17
5.421028E+03	4.599547E-18	-6.393862E-17
5.422628E+03	4.509578E-18	-6.230891E-17
5.422828E+03	4.462699E-18	-6.161456E-17
5.423628E+03	4.396695E-18	-6.052039E-17
5.423828E+03	4.349894E-18	-5.983109E-17
5.424428E+03	4.290718E-18	-5.888407E-17
5.424628E+03	4.243637E-18	-5.819418E-17
5.425428E+03	4.178241E-18	-5.712577E-17
5.425628E+03	4.132058E-18	-5.645205E-17
5.425828E+03	4.085963E-18	-5.578052E-17
5.426028E+03	4.040274E-18	-5.511554E-17
5.426228E+03	3.995150E-18	-5.445928E-17
5.426428E+03	3.950122E-18	-5.380528E-17
5.426628E+03	3.904860E-18	-5.314907E-17
5.426829E+03	3.859814E-18	-5.249657E-17
5.427029E+03	3.815205E-18	-5.185121E-17
5.428029E+03	3.746882E-18	-5.073360E-17
5.428229E+03	3.702422E-18	-5.009438E-17
5.428429E+03	3.658529E-18	-4.946376E-17
5.428629E+03	3.614726E-18	-4.883534E-17
5.429029E+03	3.565365E-18	-4.809717E-17
5.429629E+03	3.510275E-18	-4.724905E-17
5.430229E+03	3.455439E-18	-4.640801E-17
5.430429E+03	3.412503E-18	-4.579760E-17
5.431229E+03	3.352078E-18	-4.485444E-17
5.431829E+03	3.298096E-18	-4.403495E-17
5.432029E+03	3.256266E-18	-4.344456E-17
5.432230E+03	3.214354E-18	-4.285382E-17
5.432830E+03	3.160884E-18	-4.204855E-17
5.433830E+03	3.095979E-18	-4.103501E-17
5.434030E+03	3.055556E-18	-4.046972E-17
5.434230E+03	3.015687E-18	-3.991259E-17
5.434430E+03	2.975640E-18	-3.935393E-17
5.434630E+03	2.935698E-18	-3.879745E-17
5.435230E+03	2.884433E-18	-3.803693E-17
5.435629E+03	2.839621E-18	-3.739188E-17
5.436829E+03	2.770698E-18	-3.632629E-17
5.437029E+03	2.731985E-18	-3.579286E-17
5.437229E+03	2.694113E-18	-3.527121E-17
5.437429E+03	2.656061E-18	-3.474800E-17
5.438230E+03	2.600391E-18	-3.392178E-17
5.438430E+03	2.563290E-18	-3.341377E-17
5.439030E+03	2.514254E-18	-3.270403E-17
5.439230E+03	2.477336E-18	-3.220073E-17
5.439630E+03	2.435008E-18	-3.160527E-17
5.440630E+03	2.375590E-18	-3.072404E-17
5.440830E+03	2.339983E-18	-3.024193E-17
5.441030E+03	2.304495E-18	-2.976206E-17
5.441230E+03	2.269415E-18	-2.928814E-17
5.441430E+03	2.234596E-18	-2.881826E-17
5.441830E+03	2.193969E-18	-2.825408E-17
5.442030E+03	2.159446E-18	-2.778975E-17
5.442230E+03	2.125329E-18	-2.733129E-17
5.443631E+03	2.057816E-18	-2.633209E-17
5.444231E+03	2.013275E-18	-2.570756E-17
5.444431E+03	1.980356E-18	-2.526939E-17
5.444631E+03	1.947705E-18	-2.483526E-17
5.445231E+03	1.904301E-18	-2.423056E-17
5.445431E+03	1.872281E-18	-2.380639E-17
5.445631E+03	1.840653E-18	-2.338780E-17
5.446031E+03	1.803788E-18	-2.288721E-17
5.446231E+03	1.772741E-18	-2.247750E-17
5.446631E+03	1.736924E-18	-2.199249E-17
