#wls	flux	fluxerr
1.600000E+03	3.372047E-16	1.079982E-16
1.640000E+03	3.469286E-16	1.111109E-16
1.680000E+03	3.559938E-16	1.140124E-16
1.720000E+03	3.642944E-16	1.166689E-16
1.760000E+03	3.716810E-16	1.190325E-16
1.800000E+03	3.780347E-16	1.210653E-16
1.840000E+03	3.831980E-16	1.227166E-16
1.880000E+03	3.870821E-16	1.239582E-16
1.920000E+03	3.895647E-16	1.247508E-16
1.960000E+03	3.904975E-16	1.250470E-16
2.000000E+03	3.898076E-16	1.248235E-16
2.040000E+03	3.873748E-16	1.240418E-16
2.080000E+03	3.831044E-16	1.226717E-16
2.120000E+03	3.769855E-16	1.207096E-16
2.160000E+03	3.689101E-16	1.181211E-16
2.200000E+03	3.588305E-16	1.148909E-16
2.240000E+03	3.467015E-16	1.110046E-16
2.280000E+03	3.324287E-16	1.064320E-16
2.320000E+03	3.164522E-16	1.013142E-16
2.360000E+03	2.992138E-16	9.579252E-17
2.400000E+03	2.810662E-16	8.998002E-17
2.440000E+03	2.623079E-16	8.397223E-17
2.480000E+03	2.432192E-16	7.785899E-17
2.520000E+03	2.240513E-16	7.172067E-17
2.560000E+03	2.050212E-16	6.562682E-17
2.600000E+03	1.863448E-16	5.964651E-17
2.640000E+03	1.682130E-16	5.384084E-17
2.680000E+03	1.507933E-16	4.826346E-17
2.720000E+03	1.342302E-16	4.296059E-17
2.760000E+03	1.186516E-16	3.797315E-17
2.800000E+03	1.041421E-16	3.332820E-17
2.840000E+03	9.076787E-17	2.904689E-17
2.880000E+03	7.857856E-17	2.514508E-17
2.920000E+03	6.759863E-17	2.163055E-17
2.960000E+03	5.783125E-17	1.850429E-17
3.000000E+03	4.924853E-17	1.575733E-17
3.010000E+03	4.728131E-17	1.512772E-17
3.020000E+03	4.538330E-17	1.452027E-17
3.030000E+03	4.355395E-17	1.393481E-17
3.040000E+03	4.179159E-17	1.337079E-17
3.050000E+03	4.009454E-17	1.282768E-17
3.060000E+03	3.846196E-17	1.230520E-17
3.070000E+03	3.689126E-17	1.180253E-17
3.080000E+03	3.538232E-17	1.131964E-17
3.090000E+03	3.393253E-17	1.085568E-17
3.100000E+03	3.254087E-17	1.041033E-17
3.110000E+03	3.120551E-17	9.982992E-18
3.120000E+03	2.992528E-17	9.573308E-18
3.130000E+03	2.869836E-17	9.180684E-18
3.140000E+03	2.752294E-17	8.804548E-18
3.150000E+03	2.639779E-17	8.444499E-18
3.160000E+03	2.532062E-17	8.099809E-18
3.170000E+03	2.429070E-17	7.770242E-18
3.180000E+03	2.330580E-17	7.455087E-18
3.190000E+03	2.236469E-17	7.153944E-18
3.200000E+03	2.146570E-17	6.866281E-18
3.210000E+03	2.060719E-17	6.591576E-18
3.220000E+03	1.978795E-17	6.329437E-18
3.230000E+03	1.900639E-17	6.079357E-18
3.240000E+03	1.826067E-17	5.840750E-18
3.250000E+03	1.755024E-17	5.613435E-18
3.260000E+03	1.687275E-17	5.396662E-18
3.270000E+03	1.622765E-17	5.190250E-18
3.280000E+03	1.561302E-17	4.993593E-18
3.290000E+03	1.502781E-17	4.806351E-18
3.300000E+03	1.447097E-17	4.628188E-18
3.310000E+03	1.394082E-17	4.458564E-18
3.320000E+03	1.343660E-17	4.297240E-18
3.330000E+03	1.295715E-17	4.143840E-18
3.340000E+03	1.250117E-17	3.997950E-18
3.350000E+03	1.206761E-17	3.859234E-18
3.360000E+03	1.165546E-17	3.727369E-18
3.370000E+03	1.126391E-17	3.602096E-18
3.380000E+03	1.089172E-17	3.483017E-18
3.390000E+03	1.053830E-17	3.369944E-18
3.400000E+03	1.020252E-17	3.262513E-18
3.410000E+03	9.883573E-18	3.160472E-18
3.420000E+03	9.580829E-18	3.063613E-18
3.430000E+03	9.293198E-18	2.971589E-18
3.440000E+03	9.020229E-18	2.884256E-18
3.450000E+03	8.761154E-18	2.801369E-18
3.460000E+03	8.515044E-18	2.722629E-18
3.470000E+03	8.281539E-18	2.647922E-18
3.480000E+03	8.059800E-18	2.576979E-18
3.490000E+03	7.849328E-18	2.509641E-18
3.500000E+03	7.649560E-18	2.445726E-18
3.510000E+03	7.459721E-18	2.384989E-18
3.520000E+03	7.279414E-18	2.327300E-18
3.530000E+03	7.108040E-18	2.272470E-18
3.540000E+03	6.945036E-18	2.220317E-18
3.550000E+03	6.789964E-18	2.170701E-18
3.560000E+03	6.642266E-18	2.123444E-18
3.570000E+03	6.501506E-18	2.078407E-18
3.580000E+03	6.367211E-18	2.035437E-18
3.590000E+03	6.239066E-18	1.994435E-18
3.600000E+03	6.116716E-18	1.955286E-18
3.610000E+03	5.999770E-18	1.917867E-18
3.620000E+03	5.887973E-18	1.882094E-18
3.630000E+03	5.781090E-18	1.847893E-18
3.640000E+03	5.678783E-18	1.815156E-18
3.650000E+03	5.580993E-18	1.783864E-18
3.660000E+03	5.487406E-18	1.753916E-18
3.670000E+03	5.397921E-18	1.725280E-18
3.680000E+03	5.312384E-18	1.697906E-18
3.690000E+03	5.230648E-18	1.671749E-18
3.700000E+03	5.152609E-18	1.646773E-18
3.710000E+03	5.078211E-18	1.622963E-18
3.720000E+03	5.007220E-18	1.600241E-18
3.730000E+03	4.939664E-18	1.578619E-18
3.740000E+03	4.875356E-18	1.558034E-18
3.750000E+03	4.814238E-18	1.538470E-18
3.760000E+03	4.756248E-18	1.519906E-18
3.770000E+03	4.701210E-18	1.502286E-18
3.780000E+03	4.649141E-18	1.485615E-18
3.790000E+03	4.599907E-18	1.469851E-18
3.800000E+03	4.553444E-18	1.454973E-18
3.810000E+03	4.509663E-18	1.440951E-18
3.820000E+03	4.468505E-18	1.427768E-18
3.830000E+03	4.429878E-18	1.415395E-18
3.840000E+03	4.393729E-18	1.403813E-18
3.850000E+03	4.359969E-18	1.392995E-18
3.860000E+03	4.328580E-18	1.382935E-18
3.870000E+03	4.299478E-18	1.373606E-18
3.880000E+03	4.272579E-18	1.364980E-18
3.890000E+03	4.247837E-18	1.357044E-18
3.900000E+03	4.225174E-18	1.349772E-18
3.910000E+03	4.204579E-18	1.343161E-18
3.920000E+03	4.185974E-18	1.337186E-18
3.930000E+03	4.169320E-18	1.331834E-18
3.940000E+03	4.154546E-18	1.327082E-18
3.950000E+03	4.141579E-18	1.322908E-18
3.960000E+03	4.130450E-18	1.319321E-18
3.970000E+03	4.121027E-18	1.316279E-18
3.980000E+03	4.113310E-18	1.313781E-18
3.990000E+03	4.107233E-18	1.311807E-18
4.000000E+03	4.102769E-18	1.310349E-18
4.010000E+03	4.099888E-18	1.309395E-18
4.020000E+03	4.098500E-18	1.308918E-18
4.030000E+03	4.098611E-18	1.308920E-18
4.040000E+03	4.100161E-18	1.309381E-18
4.050000E+03	4.103132E-18	1.310295E-18
4.060000E+03	4.107468E-18	1.311646E-18
4.070000E+03	4.113115E-18	1.313414E-18
4.080000E+03	4.120089E-18	1.315606E-18
4.090000E+03	4.128306E-18	1.318194E-18
4.100000E+03	4.137749E-18	1.321174E-18
4.110000E+03	4.148402E-18	1.324539E-18
4.120000E+03	4.160186E-18	1.328265E-18
4.130000E+03	4.173122E-18	1.332358E-18
4.140000E+03	4.187128E-18	1.336793E-18
4.150000E+03	4.202195E-18	1.341566E-18
4.160000E+03	4.218314E-18	1.346674E-18
4.170000E+03	4.235407E-18	1.352092E-18
4.180000E+03	4.253497E-18	1.357828E-18
4.190000E+03	4.272480E-18	1.363849E-18
4.200000E+03	4.292412E-18	1.370171E-18
4.210000E+03	4.313190E-18	1.376764E-18
4.220000E+03	4.334804E-18	1.383622E-18
4.230000E+03	4.357216E-18	1.390735E-18
4.240000E+03	4.380421E-18	1.398099E-18
4.250000E+03	4.404314E-18	1.405683E-18
4.260000E+03	4.428924E-18	1.413495E-18
4.270000E+03	4.454176E-18	1.421510E-18
4.280000E+03	4.479998E-18	1.429708E-18
4.290000E+03	4.506388E-18	1.438085E-18
4.300000E+03	4.533304E-18	1.446629E-18
4.310000E+03	4.560636E-18	1.455306E-18
4.320000E+03	4.588343E-18	1.464101E-18
4.330000E+03	4.616384E-18	1.473002E-18
4.340000E+03	4.644716E-18	1.481994E-18
4.350000E+03	4.673296E-18	1.491065E-18
4.360000E+03	4.702121E-18	1.500214E-18
4.370000E+03	4.731143E-18	1.509424E-18
4.380000E+03	4.760323E-18	1.518684E-18
4.390000E+03	4.789730E-18	1.528015E-18
4.400000E+03	4.819325E-18	1.537405E-18
4.410000E+03	4.849105E-18	1.546853E-18
4.420000E+03	4.879108E-18	1.556371E-18
4.430000E+03	4.909335E-18	1.565960E-18
4.440000E+03	4.939750E-18	1.575608E-18
4.450000E+03	4.970396E-18	1.585328E-18
4.460000E+03	5.001239E-18	1.595110E-18
4.470000E+03	5.032285E-18	1.604956E-18
4.480000E+03	5.063542E-18	1.614868E-18
4.490000E+03	5.094936E-18	1.624823E-18
4.500000E+03	5.126520E-18	1.634837E-18
4.510000E+03	5.158263E-18	1.644901E-18
4.520000E+03	5.190136E-18	1.655005E-18
4.530000E+03	5.222157E-18	1.665155E-18
4.540000E+03	5.254250E-18	1.675327E-18
4.550000E+03	5.286436E-18	1.685527E-18
4.560000E+03	5.318732E-18	1.695762E-18
4.570000E+03	5.351118E-18	1.706023E-18
4.580000E+03	5.383523E-18	1.716290E-18
4.590000E+03	5.415973E-18	1.726570E-18
4.600000E+03	5.448447E-18	1.736856E-18
4.610000E+03	5.480926E-18	1.747143E-18
4.620000E+03	5.513437E-18	1.757438E-18
4.630000E+03	5.545921E-18	1.767724E-18
4.640000E+03	5.578410E-18	1.778010E-18
4.650000E+03	5.610889E-18	1.788291E-18
4.660000E+03	5.643345E-18	1.798564E-18
4.670000E+03	5.675769E-18	1.808826E-18
4.680000E+03	5.708152E-18	1.819072E-18
4.690000E+03	5.740484E-18	1.829302E-18
4.700000E+03	5.772861E-18	1.839544E-18
4.710000E+03	5.805277E-18	1.849798E-18
4.720000E+03	5.837734E-18	1.860063E-18
4.730000E+03	5.870333E-18	1.870372E-18
4.740000E+03	5.903021E-18	1.880708E-18
4.750000E+03	5.935807E-18	1.891074E-18
4.760000E+03	5.968745E-18	1.901486E-18
4.770000E+03	6.001840E-18	1.911948E-18
4.780000E+03	6.035046E-18	1.922443E-18
4.790000E+03	6.068425E-18	1.932992E-18
4.800000E+03	6.101985E-18	1.943597E-18
4.810000E+03	6.135683E-18	1.954244E-18
4.820000E+03	6.169579E-18	1.964953E-18
4.830000E+03	6.203688E-18	1.975729E-18
4.840000E+03	6.238024E-18	1.986575E-18
4.850000E+03	6.272596E-18	1.997495E-18
4.860000E+03	6.307360E-18	2.008474E-18
4.870000E+03	6.342446E-18	2.019554E-18
4.880000E+03	6.377751E-18	2.030702E-18
4.890000E+03	6.413289E-18	2.041923E-18
4.900000E+03	6.449132E-18	2.053239E-18
4.910000E+03	6.485293E-18	2.064654E-18
4.920000E+03	6.521788E-18	2.076175E-18
4.930000E+03	6.558509E-18	2.087765E-18
4.940000E+03	6.595590E-18	2.099468E-18
4.950000E+03	6.632983E-18	2.111269E-18
4.960000E+03	6.670698E-18	2.123170E-18
4.970000E+03	6.708749E-18	2.135177E-18
4.980000E+03	6.747144E-18	2.147291E-18
4.990000E+03	6.785829E-18	2.159495E-18
5.000000E+03	6.824813E-18	2.171793E-18
5.010000E+03	6.864164E-18	2.184205E-18
5.020000E+03	6.903828E-18	2.196716E-18
5.030000E+03	6.943740E-18	2.209303E-18
5.040000E+03	6.984037E-18	2.222010E-18
5.050000E+03	7.024520E-18	2.234774E-18
5.060000E+03	7.065322E-18	2.247638E-18
5.070000E+03	7.106444E-18	2.260602E-18
5.080000E+03	7.147677E-18	2.273599E-18
5.090000E+03	7.189222E-18	2.286693E-18
5.100000E+03	7.230932E-18	2.299837E-18
5.110000E+03	7.272803E-18	2.313030E-18
5.120000E+03	7.314893E-18	2.326290E-18
5.130000E+03	7.357048E-18	2.339569E-18
5.140000E+03	7.399255E-18	2.352862E-18
5.150000E+03	7.441568E-18	2.366187E-18
5.160000E+03	7.483900E-18	2.379515E-18
5.170000E+03	7.526230E-18	2.392840E-18
5.180000E+03	7.568464E-18	2.406133E-18
5.190000E+03	7.610651E-18	2.419408E-18
5.200000E+03	7.652620E-18	2.432611E-18
5.210000E+03	7.694489E-18	2.445780E-18
5.220000E+03	7.736157E-18	2.458883E-18
5.230000E+03	7.777516E-18	2.471885E-18
5.240000E+03	7.818534E-18	2.484776E-18
5.250000E+03	7.859254E-18	2.497570E-18
5.260000E+03	7.899486E-18	2.510207E-18
5.270000E+03	7.939268E-18	2.522698E-18
5.280000E+03	7.978643E-18	2.535057E-18
5.290000E+03	8.017335E-18	2.547197E-18
5.300000E+03	8.055540E-18	2.559180E-18
5.310000E+03	8.092979E-18	2.570917E-18
5.320000E+03	8.129852E-18	2.582472E-18
5.330000E+03	8.165875E-18	2.593754E-18
5.340000E+03	8.201168E-18	2.604802E-18
5.350000E+03	8.235691E-18	2.615603E-18
5.360000E+03	8.269321E-18	2.626118E-18
5.370000E+03	8.302182E-18	2.636386E-18
5.380000E+03	8.333990E-18	2.646317E-18
5.390000E+03	8.364954E-18	2.655979E-18
5.400000E+03	8.394954E-18	2.665332E-18
5.410000E+03	8.423957E-18	2.674366E-18
5.420000E+03	8.451929E-18	2.683070E-18
5.430000E+03	8.478838E-18	2.691435E-18
5.440000E+03	8.504565E-18	2.699422E-18
5.450000E+03	8.529086E-18	2.707025E-18
5.460000E+03	8.552371E-18	2.714233E-18
5.470000E+03	8.574392E-18	2.721037E-18
5.480000E+03	8.595040E-18	2.727404E-18
5.490000E+03	8.614205E-18	2.733299E-18
5.500000E+03	8.631949E-18	2.738740E-18
5.510000E+03	8.648168E-18	2.743696E-18
5.520000E+03	8.662757E-18	2.748133E-18
5.530000E+03	8.675609E-18	2.752017E-18
5.540000E+03	8.686796E-18	2.755371E-18
5.550000E+03	8.696130E-18	2.758135E-18
5.560000E+03	8.703687E-18	2.760335E-18
5.570000E+03	8.709280E-18	2.761910E-18
5.580000E+03	8.712903E-18	2.762859E-18
5.590000E+03	8.714636E-18	2.763208E-18
5.600000E+03	8.714301E-18	2.762899E-18
5.610000E+03	8.711986E-18	2.761961E-18
5.620000E+03	8.707692E-18	2.760395E-18
5.630000E+03	8.701335E-18	2.758175E-18
5.640000E+03	8.692923E-18	2.755302E-18
5.650000E+03	8.682554E-18	2.751807E-18
5.660000E+03	8.670244E-18	2.747697E-18
5.670000E+03	8.655917E-18	2.742947E-18
5.680000E+03	8.639686E-18	2.737593E-18
5.690000E+03	8.621661E-18	2.731671E-18
5.700000E+03	8.601688E-18	2.725131E-18
5.710000E+03	8.579889E-18	2.718012E-18
5.720000E+03	8.556386E-18	2.710353E-18
5.730000E+03	8.531213E-18	2.702165E-18
5.740000E+03	8.504411E-18	2.693461E-18
5.750000E+03	8.476023E-18	2.684256E-18
5.760000E+03	8.446092E-18	2.674561E-18
5.770000E+03	8.414760E-18	2.664424E-18
5.780000E+03	8.381985E-18	2.653830E-18
5.790000E+03	8.348004E-18	2.642854E-18
5.800000E+03	8.312785E-18	2.631487E-18
5.810000E+03	8.276387E-18	2.619748E-18
5.820000E+03	8.239051E-18	2.607713E-18
5.830000E+03	8.200666E-18	2.595346E-18
5.840000E+03	8.161384E-18	2.582696E-18
5.850000E+03	8.121368E-18	2.569815E-18
5.860000E+03	8.080599E-18	2.556696E-18
5.870000E+03	8.039235E-18	2.543390E-18
5.880000E+03	7.997262E-18	2.529893E-18
5.890000E+03	7.954934E-18	2.516284E-18
5.900000E+03	7.912233E-18	2.502558E-18
5.910000E+03	7.869239E-18	2.488741E-18
5.920000E+03	7.826112E-18	2.474883E-18
5.930000E+03	7.782841E-18	2.460981E-18
5.940000E+03	7.739587E-18	2.447085E-18
5.950000E+03	7.696333E-18	2.433191E-18
5.960000E+03	7.653245E-18	2.419350E-18
5.970000E+03	7.610386E-18	2.405583E-18
5.980000E+03	7.567830E-18	2.391913E-18
5.990000E+03	7.525554E-18	2.378333E-18
6.000000E+03	7.483710E-18	2.364891E-18
6.010000E+03	7.442363E-18	2.351606E-18
6.020000E+03	7.401481E-18	2.338471E-18
6.030000E+03	7.361212E-18	2.325530E-18
6.040000E+03	7.321522E-18	2.312773E-18
6.050000E+03	7.282378E-18	2.300189E-18
6.060000E+03	7.243997E-18	2.287849E-18
6.070000E+03	7.206258E-18	2.275711E-18
6.080000E+03	7.169285E-18	2.263817E-18
6.090000E+03	7.132948E-18	2.252125E-18
6.100000E+03	7.097370E-18	2.240674E-18
6.110000E+03	7.062497E-18	2.229446E-18
6.120000E+03	7.028363E-18	2.218452E-18
6.130000E+03	6.994993E-18	2.207700E-18
6.140000E+03	6.962325E-18	2.197172E-18
6.150000E+03	6.930385E-18	2.186873E-18
6.160000E+03	6.899188E-18	2.176810E-18
6.170000E+03	6.868751E-18	2.166988E-18
6.180000E+03	6.839090E-18	2.157411E-18
6.190000E+03	6.810127E-18	2.148055E-18
6.200000E+03	6.781957E-18	2.138950E-18
6.210000E+03	6.754585E-18	2.130098E-18
6.220000E+03	6.728016E-18	2.121499E-18
6.230000E+03	6.702338E-18	2.113182E-18
6.240000E+03	6.677638E-18	2.105174E-18
6.250000E+03	6.654004E-18	2.097502E-18
6.260000E+03	6.631519E-18	2.090193E-18
6.270000E+03	6.610271E-18	2.083275E-18
6.280000E+03	6.590430E-18	2.076800E-18
6.290000E+03	6.571906E-18	2.070740E-18
6.300000E+03	6.555053E-18	2.065207E-18
6.310000E+03	6.539777E-18	2.060171E-18
6.320000E+03	6.526257E-18	2.055688E-18
6.330000E+03	6.514582E-18	2.051786E-18
6.340000E+03	6.504842E-18	2.048493E-18
6.350000E+03	6.497042E-18	2.045810E-18
6.360000E+03	6.491272E-18	2.043766E-18
6.370000E+03	6.487631E-18	2.042392E-18
6.380000E+03	6.486127E-18	2.041689E-18
6.390000E+03	6.486763E-18	2.041659E-18
6.400000E+03	6.489644E-18	2.042335E-18
6.410000E+03	6.494589E-18	2.043659E-18
6.420000E+03	6.501606E-18	2.045633E-18
6.430000E+03	6.510610E-18	2.048230E-18
6.440000E+03	6.521410E-18	2.051391E-18
6.450000E+03	6.534110E-18	2.055148E-18
6.460000E+03	6.548521E-18	2.059441E-18
6.470000E+03	6.564742E-18	2.064301E-18
6.480000E+03	6.582784E-18	2.069731E-18
6.490000E+03	6.602548E-18	2.075700E-18
6.500000E+03	6.624040E-18	2.082210E-18
6.510000E+03	6.647265E-18	2.089261E-18
6.520000E+03	6.672230E-18	2.096857E-18
6.530000E+03	6.698941E-18	2.104998E-18
6.540000E+03	6.727511E-18	2.113721E-18
6.550000E+03	6.757840E-18	2.122992E-18
6.560000E+03	6.789831E-18	2.132783E-18
6.570000E+03	6.823707E-18	2.143161E-18
6.580000E+03	6.859258E-18	2.154063E-18
6.590000E+03	6.896605E-18	2.165524E-18
6.600000E+03	6.935755E-18	2.177547E-18
6.610000E+03	6.976720E-18	2.190136E-18
6.620000E+03	7.019510E-18	2.203293E-18
6.630000E+03	7.064023E-18	2.216987E-18
6.640000E+03	7.110385E-18	2.231256E-18
6.650000E+03	7.158486E-18	2.246066E-18
6.660000E+03	7.208460E-18	2.261459E-18
6.670000E+03	7.260198E-18	2.277400E-18
6.680000E+03	7.313709E-18	2.293891E-18
6.690000E+03	7.369132E-18	2.310977E-18
6.700000E+03	7.426481E-18	2.328661E-18
6.710000E+03	7.485515E-18	2.346868E-18
6.720000E+03	7.546501E-18	2.365680E-18
6.730000E+03	7.609196E-18	2.385022E-18
6.740000E+03	7.673873E-18	2.404979E-18
6.750000E+03	7.740415E-18	2.425514E-18
6.760000E+03	7.808701E-18	2.446588E-18
6.770000E+03	7.879015E-18	2.468291E-18
6.780000E+03	7.951099E-18	2.490542E-18
6.790000E+03	8.025102E-18	2.513386E-18
6.800000E+03	8.101038E-18	2.536828E-18
6.810000E+03	8.178926E-18	2.560873E-18
6.820000E+03	8.258634E-18	2.585481E-18
6.830000E+03	8.340321E-18	2.610700E-18
6.840000E+03	8.423849E-18	2.636487E-18
6.850000E+03	8.509386E-18	2.662894E-18
6.860000E+03	8.596789E-18	2.689877E-18
6.870000E+03	8.686069E-18	2.717438E-18
6.880000E+03	8.777400E-18	2.745631E-18
6.890000E+03	8.870469E-18	2.774360E-18
6.900000E+03	8.965612E-18	2.803727E-18
6.910000E+03	9.062676E-18	2.833685E-18
6.920000E+03	9.161672E-18	2.864238E-18
6.930000E+03	9.262610E-18	2.895388E-18
6.940000E+03	9.365498E-18	2.927137E-18
6.950000E+03	9.470167E-18	2.959432E-18
6.960000E+03	9.576798E-18	2.992330E-18
6.970000E+03	9.685401E-18	3.025833E-18
6.980000E+03	9.795981E-18	3.059942E-18
6.990000E+03	9.908167E-18	3.094542E-18
7.000000E+03	1.002253E-17	3.129811E-18
7.010000E+03	1.013849E-17	3.165567E-18
7.020000E+03	1.025644E-17	3.201932E-18
7.030000E+03	1.037618E-17	3.238844E-18
7.040000E+03	1.049771E-17	3.276302E-18
7.050000E+03	1.062102E-17	3.314303E-18
7.060000E+03	1.074610E-17	3.352845E-18
7.070000E+03	1.087274E-17	3.391859E-18
7.080000E+03	1.100113E-17	3.431406E-18
7.090000E+03	1.113126E-17	3.471484E-18
7.100000E+03	1.126290E-17	3.512019E-18
7.110000E+03	1.139626E-17	3.553076E-18
7.120000E+03	1.153109E-17	3.594578E-18
7.130000E+03	1.166736E-17	3.636517E-18
7.140000E+03	1.180506E-17	3.678883E-18
7.150000E+03	1.194439E-17	3.721747E-18
7.160000E+03	1.208485E-17	3.764946E-18
7.170000E+03	1.222638E-17	3.808468E-18
7.180000E+03	1.236948E-17	3.852459E-18
7.190000E+03	1.251358E-17	3.896750E-18
7.200000E+03	1.265865E-17	3.941326E-18
7.210000E+03	1.280490E-17	3.986256E-18
7.220000E+03	1.295202E-17	4.031442E-18
7.230000E+03	1.309996E-17	4.076869E-18
7.240000E+03	1.324868E-17	4.122519E-18
7.250000E+03	1.339810E-17	4.168375E-18
7.260000E+03	1.354847E-17	4.214509E-18
7.270000E+03	1.369914E-17	4.260723E-18
7.280000E+03	1.385065E-17	4.307181E-18
7.290000E+03	1.400264E-17	4.353773E-18
7.300000E+03	1.415504E-17	4.400477E-18
7.310000E+03	1.430811E-17	4.447373E-18
7.320000E+03	1.446147E-17	4.494342E-18
7.330000E+03	1.461538E-17	4.541467E-18
7.340000E+03	1.476977E-17	4.588727E-18
7.350000E+03	1.492494E-17	4.636211E-18
7.360000E+03	1.508083E-17	4.683903E-18
7.370000E+03	1.523775E-17	4.731899E-18
7.380000E+03	1.539532E-17	4.780080E-18
7.390000E+03	1.555456E-17	4.828763E-18
7.400000E+03	1.571547E-17	4.877949E-18
7.410000E+03	1.587769E-17	4.927524E-18
7.420000E+03	1.604232E-17	4.977830E-18
7.430000E+03	1.620902E-17	5.028761E-18
7.440000E+03	1.637819E-17	5.080441E-18
7.450000E+03	1.654948E-17	5.132761E-18
7.460000E+03	1.672330E-17	5.185849E-18
7.470000E+03	1.689849E-17	5.239343E-18
7.480000E+03	1.707585E-17	5.293493E-18
7.490000E+03	1.725416E-17	5.347920E-18
7.500000E+03	1.743382E-17	5.402745E-18
7.510000E+03	1.761438E-17	5.457832E-18
7.520000E+03	1.779538E-17	5.513037E-18
7.530000E+03	1.797721E-17	5.568478E-18
7.540000E+03	1.815850E-17	5.623737E-18
7.550000E+03	1.834006E-17	5.679061E-18
7.560000E+03	1.852138E-17	5.734291E-18
7.570000E+03	1.870238E-17	5.789404E-18
7.580000E+03	1.888251E-17	5.844231E-18
7.590000E+03	1.906214E-17	5.898886E-18
7.600000E+03	1.924072E-17	5.953196E-18
7.610000E+03	1.941813E-17	6.007127E-18
7.620000E+03	1.959475E-17	6.060796E-18
7.630000E+03	1.976999E-17	6.114021E-18
7.640000E+03	1.994422E-17	6.166919E-18
7.650000E+03	2.011635E-17	6.219148E-18
7.660000E+03	2.028724E-17	6.270979E-18
7.670000E+03	2.045628E-17	6.322219E-18
7.680000E+03	2.062385E-17	6.372990E-18
7.690000E+03	2.078930E-17	6.423093E-18
7.700000E+03	2.095251E-17	6.472486E-18
7.710000E+03	2.111334E-17	6.521127E-18
7.720000E+03	2.127274E-17	6.569313E-18
7.730000E+03	2.142894E-17	6.616496E-18
7.740000E+03	2.158348E-17	6.663151E-18
7.750000E+03	2.173508E-17	6.708889E-18
7.760000E+03	2.188421E-17	6.753847E-18
