#wls	flux	fluxerr
1.600000E+03	2.459854E-16	1.621687E-17
1.640000E+03	2.503637E-16	1.647677E-17
1.680000E+03	2.546561E-16	1.672935E-17
1.720000E+03	2.588224E-16	1.697197E-17
1.760000E+03	2.628422E-16	1.720328E-17
1.800000E+03	2.666674E-16	1.742015E-17
1.840000E+03	2.702913E-16	1.762218E-17
1.880000E+03	2.736791E-16	1.780715E-17
1.920000E+03	2.767712E-16	1.797122E-17
1.960000E+03	2.795070E-16	1.811057E-17
2.000000E+03	2.818259E-16	1.822139E-17
2.040000E+03	2.836879E-16	1.830124E-17
2.080000E+03	2.849615E-16	1.834183E-17
2.120000E+03	2.855831E-16	1.833930E-17
2.160000E+03	2.854636E-16	1.828824E-17
2.200000E+03	2.844659E-16	1.818021E-17
2.240000E+03	2.825577E-16	1.801356E-17
2.280000E+03	2.796928E-16	1.778579E-17
2.320000E+03	2.759140E-16	1.750012E-17
2.360000E+03	2.712955E-16	1.716171E-17
2.400000E+03	2.659349E-16	1.677718E-17
2.440000E+03	2.599569E-16	1.635480E-17
2.480000E+03	2.534277E-16	1.589911E-17
2.520000E+03	2.464405E-16	1.541629E-17
2.560000E+03	2.390676E-16	1.491117E-17
2.600000E+03	2.313487E-16	1.438650E-17
2.640000E+03	2.233333E-16	1.384561E-17
2.680000E+03	2.150553E-16	1.329086E-17
2.720000E+03	2.065607E-16	1.272531E-17
2.760000E+03	1.978858E-16	1.215139E-17
2.800000E+03	1.890739E-16	1.157196E-17
2.840000E+03	1.801707E-16	1.098998E-17
2.880000E+03	1.712488E-16	1.041000E-17
2.920000E+03	1.623782E-16	9.836369E-18
2.960000E+03	1.536335E-16	9.273642E-18
3.000000E+03	1.451118E-16	8.727665E-18
3.010000E+03	1.430282E-16	8.594498E-18
3.020000E+03	1.409648E-16	8.462750E-18
3.030000E+03	1.389227E-16	8.332483E-18
3.040000E+03	1.369062E-16	8.203949E-18
3.050000E+03	1.349163E-16	8.077210E-18
3.060000E+03	1.329541E-16	7.952325E-18
3.070000E+03	1.310206E-16	7.829350E-18
3.080000E+03	1.291170E-16	7.708359E-18
3.090000E+03	1.272446E-16	7.589416E-18
3.100000E+03	1.254071E-16	7.472743E-18
3.110000E+03	1.236054E-16	7.358393E-18
3.120000E+03	1.218384E-16	7.246287E-18
3.130000E+03	1.201120E-16	7.136773E-18
3.140000E+03	1.184225E-16	7.029632E-18
3.150000E+03	1.167735E-16	6.925064E-18
3.160000E+03	1.151683E-16	6.823261E-18
3.170000E+03	1.136058E-16	6.724155E-18
3.180000E+03	1.120893E-16	6.627930E-18
3.190000E+03	1.106177E-16	6.534514E-18
3.200000E+03	1.091942E-16	6.444091E-18
3.210000E+03	1.078198E-16	6.356712E-18
3.220000E+03	1.064936E-16	6.272320E-18
3.230000E+03	1.052187E-16	6.191081E-18
3.240000E+03	1.039962E-16	6.113055E-18
3.250000E+03	1.028270E-16	6.038289E-18
3.260000E+03	1.017121E-16	5.966838E-18
3.270000E+03	1.006527E-16	5.898749E-18
3.280000E+03	9.964976E-17	5.834081E-18
3.290000E+03	9.870281E-17	5.772792E-18
3.300000E+03	9.781599E-17	5.715116E-18
3.310000E+03	9.698734E-17	5.660928E-18
3.320000E+03	9.621941E-17	5.610367E-18
3.330000E+03	9.551198E-17	5.563410E-18
3.340000E+03	9.486745E-17	5.520187E-18
3.350000E+03	9.428719E-17	5.480764E-18
3.360000E+03	9.376935E-17	5.445026E-18
3.370000E+03	9.331810E-17	5.413201E-18
3.380000E+03	9.293191E-17	5.385191E-18
3.390000E+03	9.261341E-17	5.361135E-18
3.400000E+03	9.236395E-17	5.341101E-18
3.410000E+03	9.218230E-17	5.325004E-18
3.420000E+03	9.207245E-17	5.313064E-18
3.430000E+03	9.203333E-17	5.305205E-18
3.440000E+03	9.206650E-17	5.301505E-18
3.450000E+03	9.217361E-17	5.302045E-18
3.460000E+03	9.235501E-17	5.306833E-18
3.470000E+03	9.261363E-17	5.316023E-18
3.480000E+03	9.294883E-17	5.329565E-18
3.490000E+03	9.336241E-17	5.347547E-18
3.500000E+03	9.385508E-17	5.369997E-18
3.510000E+03	9.442993E-17	5.397075E-18
3.520000E+03	9.508652E-17	5.428744E-18
3.530000E+03	9.582575E-17	5.465038E-18
3.540000E+03	9.665075E-17	5.506120E-18
3.550000E+03	9.756011E-17	5.551896E-18
3.560000E+03	9.855585E-17	5.602464E-18
3.570000E+03	9.964010E-17	5.657930E-18
3.580000E+03	1.008126E-16	5.718262E-18
3.590000E+03	1.020752E-16	5.783548E-18
3.600000E+03	1.034275E-16	5.853752E-18
3.610000E+03	1.048704E-16	5.928903E-18
3.620000E+03	1.064054E-16	6.009077E-18
3.630000E+03	1.080308E-16	6.094155E-18
3.640000E+03	1.097491E-16	6.184259E-18
3.650000E+03	1.115593E-16	6.279324E-18
3.660000E+03	1.134613E-16	6.379316E-18
3.670000E+03	1.154533E-16	6.484131E-18
3.680000E+03	1.175361E-16	6.593787E-18
3.690000E+03	1.197085E-16	6.708209E-18
3.700000E+03	1.219681E-16	6.827238E-18
3.710000E+03	1.243145E-16	6.950838E-18
3.720000E+03	1.267454E-16	7.078867E-18
3.730000E+03	1.292572E-16	7.211110E-18
3.740000E+03	1.318506E-16	7.347589E-18
3.750000E+03	1.345198E-16	7.487964E-18
3.760000E+03	1.372620E-16	7.632071E-18
3.770000E+03	1.400756E-16	7.779805E-18
3.780000E+03	1.429528E-16	7.930730E-18
3.790000E+03	1.458925E-16	8.084759E-18
3.800000E+03	1.488874E-16	8.241487E-18
3.810000E+03	1.519337E-16	8.400693E-18
3.820000E+03	1.550260E-16	8.562075E-18
3.830000E+03	1.581570E-16	8.725211E-18
3.840000E+03	1.613202E-16	8.889753E-18
3.850000E+03	1.645104E-16	9.055395E-18
3.860000E+03	1.677188E-16	9.221661E-18
3.870000E+03	1.709396E-16	9.388223E-18
3.880000E+03	1.741633E-16	9.554563E-18
3.890000E+03	1.773835E-16	9.720328E-18
3.900000E+03	1.805916E-16	9.885061E-18
3.910000E+03	1.837794E-16	1.004830E-17
3.920000E+03	1.869397E-16	1.020968E-17
3.930000E+03	1.900623E-16	1.036863E-17
3.940000E+03	1.931402E-16	1.052478E-17
3.950000E+03	1.961662E-16	1.067777E-17
3.960000E+03	1.991284E-16	1.082694E-17
3.970000E+03	2.020235E-16	1.097214E-17
3.980000E+03	2.048413E-16	1.111283E-17
3.990000E+03	2.075738E-16	1.124858E-17
4.000000E+03	2.102147E-16	1.137908E-17
4.010000E+03	2.127547E-16	1.150385E-17
4.020000E+03	2.151902E-16	1.162270E-17
4.030000E+03	2.175141E-16	1.173528E-17
4.040000E+03	2.197199E-16	1.184125E-17
4.050000E+03	2.217996E-16	1.194022E-17
4.060000E+03	2.237510E-16	1.203209E-17
4.070000E+03	2.255689E-16	1.211661E-17
4.080000E+03	2.272485E-16	1.219353E-17
4.090000E+03	2.287855E-16	1.226267E-17
4.100000E+03	2.301760E-16	1.232383E-17
4.110000E+03	2.314187E-16	1.237699E-17
4.120000E+03	2.325091E-16	1.242192E-17
4.130000E+03	2.334470E-16	1.245864E-17
4.140000E+03	2.342312E-16	1.248712E-17
4.150000E+03	2.348609E-16	1.250735E-17
4.160000E+03	2.353361E-16	1.251934E-17
4.170000E+03	2.356577E-16	1.252318E-17
4.180000E+03	2.358291E-16	1.251909E-17
4.190000E+03	2.358488E-16	1.250699E-17
4.200000E+03	2.357217E-16	1.248719E-17
4.210000E+03	2.354541E-16	1.246004E-17
4.220000E+03	2.350466E-16	1.242560E-17
4.230000E+03	2.345068E-16	1.238429E-17
4.240000E+03	2.338393E-16	1.233637E-17
4.250000E+03	2.330532E-16	1.228236E-17
4.260000E+03	2.321546E-16	1.222259E-17
4.270000E+03	2.311504E-16	1.215745E-17
4.280000E+03	2.300540E-16	1.208764E-17
4.290000E+03	2.288697E-16	1.201342E-17
4.300000E+03	2.276123E-16	1.193558E-17
4.310000E+03	2.262911E-16	1.185462E-17
4.320000E+03	2.249182E-16	1.177117E-17
4.330000E+03	2.235038E-16	1.168579E-17
4.340000E+03	2.220624E-16	1.159923E-17
4.350000E+03	2.206065E-16	1.151215E-17
4.360000E+03	2.191467E-16	1.142510E-17
4.370000E+03	2.177003E-16	1.133899E-17
4.380000E+03	2.162765E-16	1.125430E-17
4.390000E+03	2.148884E-16	1.117169E-17
4.400000E+03	2.135376E-16	1.109125E-17
4.410000E+03	2.122227E-16	1.101290E-17
4.420000E+03	2.109357E-16	1.093621E-17
4.430000E+03	2.096755E-16	1.086112E-17
4.440000E+03	2.084357E-16	1.078730E-17
4.450000E+03	2.072102E-16	1.071442E-17
4.460000E+03	2.059989E-16	1.064247E-17
4.470000E+03	2.047971E-16	1.057121E-17
4.480000E+03	2.036025E-16	1.050053E-17
4.490000E+03	2.024137E-16	1.043033E-17
4.500000E+03	2.012301E-16	1.036059E-17
4.510000E+03	2.000498E-16	1.029121E-17
4.520000E+03	1.988756E-16	1.022233E-17
4.530000E+03	1.977087E-16	1.015400E-17
4.540000E+03	1.965491E-16	1.008624E-17
4.550000E+03	1.953974E-16	1.001906E-17
4.560000E+03	1.942582E-16	9.952696E-18
4.570000E+03	1.931345E-16	9.887302E-18
4.580000E+03	1.920260E-16	9.822858E-18
4.590000E+03	1.909399E-16	9.759726E-18
4.600000E+03	1.898744E-16	9.697816E-18
4.610000E+03	1.888352E-16	9.637412E-18
4.620000E+03	1.878262E-16	9.578704E-18
4.630000E+03	1.868497E-16	9.521810E-18
4.640000E+03	1.859099E-16	9.466934E-18
4.650000E+03	1.850076E-16	9.414112E-18
4.660000E+03	1.841506E-16	9.363742E-18
4.670000E+03	1.833384E-16	9.315786E-18
4.680000E+03	1.825778E-16	9.270583E-18
4.690000E+03	1.818720E-16	9.228297E-18
4.700000E+03	1.812268E-16	9.189203E-18
4.710000E+03	1.806444E-16	9.153409E-18
4.720000E+03	1.801309E-16	9.121225E-18
4.730000E+03	1.796871E-16	9.092669E-18
4.740000E+03	1.793142E-16	9.067806E-18
4.750000E+03	1.790066E-16	9.046330E-18
4.760000E+03	1.787640E-16	9.028230E-18
4.770000E+03	1.785850E-16	9.013422E-18
4.780000E+03	1.784665E-16	9.001742E-18
4.790000E+03	1.784093E-16	8.993223E-18
4.800000E+03	1.784110E-16	8.987733E-18
4.810000E+03	1.784706E-16	8.985224E-18
4.820000E+03	1.785874E-16	8.985652E-18
4.830000E+03	1.787609E-16	8.988979E-18
4.840000E+03	1.789884E-16	8.995064E-18
4.850000E+03	1.792724E-16	9.004037E-18
4.860000E+03	1.796066E-16	9.015566E-18
4.870000E+03	1.799934E-16	9.029767E-18
4.880000E+03	1.804294E-16	9.046465E-18
4.890000E+03	1.809148E-16	9.065667E-18
4.900000E+03	1.814442E-16	9.087094E-18
4.910000E+03	1.820172E-16	9.110728E-18
4.920000E+03	1.826318E-16	9.136460E-18
4.930000E+03	1.832838E-16	9.164076E-18
4.940000E+03	1.839727E-16	9.193543E-18
4.950000E+03	1.846939E-16	9.224637E-18
4.960000E+03	1.854470E-16	9.257329E-18
4.970000E+03	1.862255E-16	9.291294E-18
4.980000E+03	1.870307E-16	9.326591E-18
4.990000E+03	1.878563E-16	9.362910E-18
5.000000E+03	1.887018E-16	9.400214E-18
5.010000E+03	1.895630E-16	9.438298E-18
5.020000E+03	1.904395E-16	9.477143E-18
5.030000E+03	1.913293E-16	9.516643E-18
5.040000E+03	1.922267E-16	9.556511E-18
5.050000E+03	1.931315E-16	9.596746E-18
5.060000E+03	1.940422E-16	9.637263E-18
5.070000E+03	1.949573E-16	9.677990E-18
5.080000E+03	1.958712E-16	9.718647E-18
5.090000E+03	1.967863E-16	9.759356E-18
5.100000E+03	1.977013E-16	9.800047E-18
5.110000E+03	1.986087E-16	9.840354E-18
5.120000E+03	1.995129E-16	9.880492E-18
5.130000E+03	2.004084E-16	9.920184E-18
5.140000E+03	2.012931E-16	9.959336E-18
5.150000E+03	2.021653E-16	9.997856E-18
5.160000E+03	2.030207E-16	1.003553E-17
5.170000E+03	2.038586E-16	1.007233E-17
5.180000E+03	2.046741E-16	1.010802E-17
5.190000E+03	2.054641E-16	1.014244E-17
5.200000E+03	2.062251E-16	1.017542E-17
5.210000E+03	2.069489E-16	1.020656E-17
5.220000E+03	2.076353E-16	1.023584E-17
5.230000E+03	2.082775E-16	1.026294E-17
5.240000E+03	2.088685E-16	1.028752E-17
5.250000E+03	2.094028E-16	1.030930E-17
5.260000E+03	2.098749E-16	1.032802E-17
5.270000E+03	2.102770E-16	1.034330E-17
5.280000E+03	2.106052E-16	1.035495E-17
5.290000E+03	2.108496E-16	1.036249E-17
5.300000E+03	2.110064E-16	1.036574E-17
5.310000E+03	2.110661E-16	1.036423E-17
5.320000E+03	2.110255E-16	1.035781E-17
5.330000E+03	2.108778E-16	1.034617E-17
5.340000E+03	2.106191E-16	1.032910E-17
5.350000E+03	2.102460E-16	1.030645E-17
5.360000E+03	2.097521E-16	1.027792E-17
5.370000E+03	2.091380E-16	1.024354E-17
5.380000E+03	2.084014E-16	1.020320E-17
5.390000E+03	2.075433E-16	1.015697E-17
5.400000E+03	2.065619E-16	1.010475E-17
5.410000E+03	2.054651E-16	1.004695E-17
5.420000E+03	2.042518E-16	9.983504E-18
5.430000E+03	2.029283E-16	9.914750E-18
5.440000E+03	2.015027E-16	9.841074E-18
5.450000E+03	1.999741E-16	9.762440E-18
5.460000E+03	1.983433E-16	9.678896E-18
5.470000E+03	1.966123E-16	9.590546E-18
5.480000E+03	1.948022E-16	9.498416E-18
5.490000E+03	1.929324E-16	9.403467E-18
5.500000E+03	1.910189E-16	9.306472E-18
5.510000E+03	1.890769E-16	9.208179E-18
5.520000E+03	1.871220E-16	9.109347E-18
5.530000E+03	1.851657E-16	9.010538E-18
5.540000E+03	1.832271E-16	8.912676E-18
5.550000E+03	1.813174E-16	8.816307E-18
5.560000E+03	1.794489E-16	8.722029E-18
5.570000E+03	1.776373E-16	8.630594E-18
5.580000E+03	1.758915E-16	8.542443E-18
5.590000E+03	1.742237E-16	8.458151E-18
5.600000E+03	1.726443E-16	8.378228E-18
5.610000E+03	1.711612E-16	8.303046E-18
5.620000E+03	1.697825E-16	8.233000E-18
5.630000E+03	1.685136E-16	8.168334E-18
5.640000E+03	1.673583E-16	8.109235E-18
5.650000E+03	1.663209E-16	8.055901E-18
5.660000E+03	1.654009E-16	8.008304E-18
5.670000E+03	1.646033E-16	7.966680E-18
5.680000E+03	1.639237E-16	7.930802E-18
5.690000E+03	1.633627E-16	7.900704E-18
5.700000E+03	1.629171E-16	7.876215E-18
5.710000E+03	1.625806E-16	7.857028E-18
5.720000E+03	1.623511E-16	7.843040E-18
5.730000E+03	1.622209E-16	7.833868E-18
5.740000E+03	1.621849E-16	7.829265E-18
5.750000E+03	1.622358E-16	7.828870E-18
5.760000E+03	1.623676E-16	7.832395E-18
5.770000E+03	1.625707E-16	7.839369E-18
5.780000E+03	1.628406E-16	7.849569E-18
5.790000E+03	1.631655E-16	7.862432E-18
5.800000E+03	1.635394E-16	7.877660E-18
5.810000E+03	1.639561E-16	7.894957E-18
5.820000E+03	1.644083E-16	7.913966E-18
5.830000E+03	1.648872E-16	7.934262E-18
5.840000E+03	1.653877E-16	7.955608E-18
5.850000E+03	1.659057E-16	7.977794E-18
5.860000E+03	1.664318E-16	8.000376E-18
5.870000E+03	1.669629E-16	8.023204E-18
5.880000E+03	1.674962E-16	8.046147E-18
5.890000E+03	1.680243E-16	8.068840E-18
5.900000E+03	1.685474E-16	8.091305E-18
5.910000E+03	1.690629E-16	8.113416E-18
5.920000E+03	1.695647E-16	8.134878E-18
5.930000E+03	1.700529E-16	8.155704E-18
5.940000E+03	1.705285E-16	8.175933E-18
5.950000E+03	1.709867E-16	8.195347E-18
5.960000E+03	1.714293E-16	8.214026E-18
5.970000E+03	1.718564E-16	8.231983E-18
5.980000E+03	1.722667E-16	8.249155E-18
5.990000E+03	1.726613E-16	8.265600E-18
6.000000E+03	1.730417E-16	8.281384E-18
6.010000E+03	1.734078E-16	8.296508E-18
6.020000E+03	1.737638E-16	8.311176E-18
6.030000E+03	1.741106E-16	8.325429E-18
6.040000E+03	1.744512E-16	8.339417E-18
6.050000E+03	1.747853E-16	8.353123E-18
6.060000E+03	1.751209E-16	8.366936E-18
6.070000E+03	1.754564E-16	8.380774E-18
6.080000E+03	1.758011E-16	8.395083E-18
6.090000E+03	1.761539E-16	8.409819E-18
6.100000E+03	1.765254E-16	8.425482E-18
6.110000E+03	1.769156E-16	8.442073E-18
6.120000E+03	1.773338E-16	8.460042E-18
6.130000E+03	1.777876E-16	8.479749E-18
6.140000E+03	1.782833E-16	8.501489E-18
6.150000E+03	1.788273E-16	8.525575E-18
6.160000E+03	1.794311E-16	8.552552E-18
6.170000E+03	1.801042E-16	8.582879E-18
6.180000E+03	1.808568E-16	8.617030E-18
6.190000E+03	1.816986E-16	8.655475E-18
6.200000E+03	1.826372E-16	8.698572E-18
6.210000E+03	1.836665E-16	8.746036E-18
6.220000E+03	1.847725E-16	8.797191E-18
6.230000E+03	1.859500E-16	8.851798E-18
6.240000E+03	1.871870E-16	8.909286E-18
6.250000E+03	1.884739E-16	8.969189E-18
6.260000E+03	1.898061E-16	9.031297E-18
6.270000E+03	1.911750E-16	9.095192E-18
6.280000E+03	1.925744E-16	9.160588E-18
6.290000E+03	1.939963E-16	9.227092E-18
6.300000E+03	1.954330E-16	9.294345E-18
6.310000E+03	1.968849E-16	9.362366E-18
6.320000E+03	1.983400E-16	9.430581E-18
6.330000E+03	1.997971E-16	9.498939E-18
6.340000E+03	2.012475E-16	9.567019E-18
6.350000E+03	2.026907E-16	9.634804E-18
6.360000E+03	2.041189E-16	9.701914E-18
6.370000E+03	2.055295E-16	9.768239E-18
6.380000E+03	2.069209E-16	9.833690E-18
6.390000E+03	2.082826E-16	9.897780E-18
6.400000E+03	2.096164E-16	9.960586E-18
6.410000E+03	2.109185E-16	1.002193E-17
6.420000E+03	2.121851E-16	1.008163E-17
6.430000E+03	2.134161E-16	1.013969E-17
6.440000E+03	2.146114E-16	1.019609E-17
6.450000E+03	2.157717E-16	1.025088E-17
6.460000E+03	2.168945E-16	1.030392E-17
6.470000E+03	2.179776E-16	1.035513E-17
6.480000E+03	2.190223E-16	1.040456E-17
6.490000E+03	2.200203E-16	1.045181E-17
6.500000E+03	2.209767E-16	1.049713E-17
6.510000E+03	2.218901E-16	1.054045E-17
6.520000E+03	2.227595E-16	1.058172E-17
6.530000E+03	2.235839E-16	1.062090E-17
6.540000E+03	2.243626E-16	1.065795E-17
6.550000E+03	2.250987E-16	1.069301E-17
6.560000E+03	2.257882E-16	1.072590E-17
6.570000E+03	2.264346E-16	1.075679E-17
6.580000E+03	2.270378E-16	1.078566E-17
6.590000E+03	2.275942E-16	1.081235E-17
6.600000E+03	2.281078E-16	1.083704E-17
6.610000E+03	2.285790E-16	1.085976E-17
6.620000E+03	2.290080E-16	1.088052E-17
6.630000E+03	2.293956E-16	1.089933E-17
6.640000E+03	2.297422E-16	1.091624E-17
6.650000E+03	2.300484E-16	1.093127E-17
6.660000E+03	2.303110E-16	1.094425E-17
6.670000E+03	2.305343E-16	1.095541E-17
6.680000E+03	2.307152E-16	1.096458E-17
6.690000E+03	2.308581E-16	1.097198E-17
6.700000E+03	2.309636E-16	1.097764E-17
6.710000E+03	2.310282E-16	1.098138E-17
6.720000E+03	2.310523E-16	1.098323E-17
6.730000E+03	2.310405E-16	1.098341E-17
6.740000E+03	2.309849E-16	1.098153E-17
6.750000E+03	2.308942E-16	1.097801E-17
6.760000E+03	2.307645E-16	1.097266E-17
6.770000E+03	2.305919E-16	1.096531E-17
6.780000E+03	2.303810E-16	1.095616E-17
6.790000E+03	2.301319E-16	1.094522E-17
6.800000E+03	2.298408E-16	1.093230E-17
6.810000E+03	2.295121E-16	1.091763E-17
6.820000E+03	2.291420E-16	1.090101E-17
6.830000E+03	2.287351E-16	1.088267E-17
6.840000E+03	2.282832E-16	1.086220E-17
6.850000E+03	2.277952E-16	1.084005E-17
6.860000E+03	2.272633E-16	1.081583E-17
6.870000E+03	2.266965E-16	1.078996E-17
6.880000E+03	2.260868E-16	1.076208E-17
6.890000E+03	2.254393E-16	1.073242E-17
6.900000E+03	2.247505E-16	1.070082E-17
6.910000E+03	2.240255E-16	1.066751E-17
6.920000E+03	2.232609E-16	1.063233E-17
6.930000E+03	2.224620E-16	1.059554E-17
6.940000E+03	2.216213E-16	1.055678E-17
6.950000E+03	2.207485E-16	1.051650E-17
6.960000E+03	2.198404E-16	1.047457E-17
6.970000E+03	2.188940E-16	1.043082E-17
6.980000E+03	2.179192E-16	1.038574E-17
6.990000E+03	2.169087E-16	1.033897E-17
7.000000E+03	2.158681E-16	1.029078E-17
7.010000E+03	2.147948E-16	1.024105E-17
7.020000E+03	2.136943E-16	1.019004E-17
7.030000E+03	2.125639E-16	1.013762E-17
7.040000E+03	2.114095E-16	1.008406E-17
7.050000E+03	2.102242E-16	1.002905E-17
7.060000E+03	2.090180E-16	9.973050E-18
7.070000E+03	2.077844E-16	9.915755E-18
7.080000E+03	2.065332E-16	9.857637E-18
7.090000E+03	2.052580E-16	9.798385E-18
7.100000E+03	2.039647E-16	9.738278E-18
7.110000E+03	2.026510E-16	9.677211E-18
7.120000E+03	2.013228E-16	9.615463E-18
7.130000E+03	1.999820E-16	9.553122E-18
7.140000E+03	1.986223E-16	9.489890E-18
7.150000E+03	1.972535E-16	9.426238E-18
7.160000E+03	1.958776E-16	9.362254E-18
7.170000E+03	1.944884E-16	9.297643E-18
7.180000E+03	1.930916E-16	9.232683E-18
7.190000E+03	1.916891E-16	9.167456E-18
7.200000E+03	1.902786E-16	9.101858E-18
7.210000E+03	1.888697E-16	9.036348E-18
7.220000E+03	1.874560E-16	8.970619E-18
7.230000E+03	1.860394E-16	8.904759E-18
7.240000E+03	1.846250E-16	8.839016E-18
7.250000E+03	1.832068E-16	8.773098E-18
7.260000E+03	1.817938E-16	8.707436E-18
7.270000E+03	1.803835E-16	8.641916E-18
7.280000E+03	1.789773E-16	8.576603E-18
7.290000E+03	1.775728E-16	8.511377E-18
7.300000E+03	1.761713E-16	8.446310E-18
7.310000E+03	1.747781E-16	8.381647E-18
7.320000E+03	1.733909E-16	8.317280E-18
7.330000E+03	1.720076E-16	8.253112E-18
7.340000E+03	1.706300E-16	8.189225E-18
7.350000E+03	1.692600E-16	8.125713E-18
7.360000E+03	1.678998E-16	8.062682E-18
7.370000E+03	1.665482E-16	8.000073E-18
7.380000E+03	1.652044E-16	7.937851E-18
7.390000E+03	1.638717E-16	7.876168E-18
7.400000E+03	1.625465E-16	7.814858E-18
7.410000E+03	1.612399E-16	7.754447E-18
7.420000E+03	1.599459E-16	7.694659E-18
7.430000E+03	1.586698E-16	7.635736E-18
7.440000E+03	1.574204E-16	7.578113E-18
7.450000E+03	1.562074E-16	7.522254E-18
7.460000E+03	1.550341E-16	7.468319E-18
7.470000E+03	1.539144E-16	7.416979E-18
7.480000E+03	1.528560E-16	7.368606E-18
7.490000E+03	1.518733E-16	7.323897E-18
7.500000E+03	1.509711E-16	7.283082E-18
7.510000E+03	1.501638E-16	7.246862E-18
7.520000E+03	1.494523E-16	7.215281E-18
7.530000E+03	1.488283E-16	7.187946E-18
7.540000E+03	1.482865E-16	7.164603E-18
7.550000E+03	1.478154E-16	7.144698E-18
7.560000E+03	1.474140E-16	7.128183E-18
7.570000E+03	1.470718E-16	7.114563E-18
7.580000E+03	1.467829E-16	7.103545E-18
7.590000E+03	1.465451E-16	7.095023E-18
7.600000E+03	1.463534E-16	7.088770E-18
7.610000E+03	1.462040E-16	7.084588E-18
7.620000E+03	1.460897E-16	7.082145E-18
7.630000E+03	1.460143E-16	7.081615E-18
7.640000E+03	1.459684E-16	7.082544E-18
7.650000E+03	1.459563E-16	7.085152E-18
7.660000E+03	1.459694E-16	7.089013E-18
7.670000E+03	1.460126E-16	7.094369E-18
7.680000E+03	1.460776E-16	7.100819E-18
7.690000E+03	1.461696E-16	7.108620E-18
7.700000E+03	1.462842E-16	7.117550E-18
7.710000E+03	1.464199E-16	7.127545E-18
7.720000E+03	1.465724E-16	7.138388E-18
7.730000E+03	1.467472E-16	7.150362E-18
7.740000E+03	1.469401E-16	7.163247E-18
7.750000E+03	1.471498E-16	7.176993E-18
7.760000E+03	1.473721E-16	7.191389E-18
