#wls	flux	fluxerr
1.600000E+03	2.854045E-16	4.370648E-17
1.640000E+03	2.935415E-16	4.494997E-17
1.680000E+03	3.011442E-16	4.611134E-17
1.720000E+03	3.081569E-16	4.718206E-17
1.760000E+03	3.143976E-16	4.813426E-17
1.800000E+03	3.198587E-16	4.896679E-17
1.840000E+03	3.243519E-16	4.965082E-17
1.880000E+03	3.278342E-16	5.017980E-17
1.920000E+03	3.302048E-16	5.053830E-17
1.960000E+03	3.313149E-16	5.070361E-17
2.000000E+03	3.311321E-16	5.067079E-17
2.040000E+03	3.295557E-16	5.042450E-17
2.080000E+03	3.265061E-16	4.995260E-17
2.120000E+03	3.219286E-16	4.924681E-17
2.160000E+03	3.157572E-16	4.829710E-17
2.200000E+03	3.078943E-16	4.708863E-17
2.240000E+03	2.982561E-16	4.560872E-17
2.280000E+03	2.868924E-16	4.386510E-17
2.320000E+03	2.740349E-16	4.189330E-17
2.360000E+03	2.600791E-16	3.975390E-17
2.400000E+03	2.453383E-16	3.749493E-17
2.440000E+03	2.300939E-16	3.515943E-17
2.480000E+03	2.145471E-16	3.277826E-17
2.520000E+03	1.989072E-16	3.038342E-17
2.560000E+03	1.833409E-16	2.800047E-17
2.600000E+03	1.680202E-16	2.565567E-17
2.640000E+03	1.530812E-16	2.336985E-17
2.680000E+03	1.386503E-16	2.116233E-17
2.720000E+03	1.248408E-16	1.905040E-17
2.760000E+03	1.117394E-16	1.704726E-17
2.800000E+03	9.942119E-17	1.516434E-17
2.840000E+03	8.794339E-17	1.341034E-17
2.880000E+03	7.735160E-17	1.179216E-17
2.920000E+03	6.767761E-17	1.031459E-17
2.960000E+03	5.893402E-17	8.979478E-18
3.000000E+03	5.111482E-17	7.785831E-18
3.010000E+03	4.930159E-17	7.509078E-18
3.020000E+03	4.754297E-17	7.240677E-18
3.030000E+03	4.584007E-17	6.980796E-18
3.040000E+03	4.418973E-17	6.728954E-18
3.050000E+03	4.259290E-17	6.485293E-18
3.060000E+03	4.104840E-17	6.249633E-18
3.070000E+03	3.955584E-17	6.021913E-18
3.080000E+03	3.811240E-17	5.801700E-18
3.090000E+03	3.671924E-17	5.589173E-18
3.100000E+03	3.537358E-17	5.383906E-18
3.110000E+03	3.407566E-17	5.185933E-18
3.120000E+03	3.282418E-17	4.995054E-18
3.130000E+03	3.161720E-17	4.810977E-18
3.140000E+03	3.045484E-17	4.633714E-18
3.150000E+03	2.933527E-17	4.462988E-18
3.160000E+03	2.825787E-17	4.298703E-18
3.170000E+03	2.722138E-17	4.140666E-18
3.180000E+03	2.622462E-17	3.988696E-18
3.190000E+03	2.526680E-17	3.842673E-18
3.200000E+03	2.434672E-17	3.702409E-18
3.210000E+03	2.346268E-17	3.567650E-18
3.220000E+03	2.261443E-17	3.438353E-18
3.230000E+03	2.180056E-17	3.314303E-18
3.240000E+03	2.102054E-17	3.195420E-18
3.250000E+03	2.027343E-17	3.081557E-18
3.260000E+03	1.955791E-17	2.972515E-18
3.270000E+03	1.887368E-17	2.868247E-18
3.280000E+03	1.821915E-17	2.768508E-18
3.290000E+03	1.759389E-17	2.673234E-18
3.300000E+03	1.699688E-17	2.582269E-18
3.310000E+03	1.642657E-17	2.495375E-18
3.320000E+03	1.588253E-17	2.412486E-18
3.330000E+03	1.536374E-17	2.333446E-18
3.340000E+03	1.486902E-17	2.258077E-18
3.350000E+03	1.439746E-17	2.186238E-18
3.360000E+03	1.394818E-17	2.117793E-18
3.370000E+03	1.352031E-17	2.052611E-18
3.380000E+03	1.311299E-17	1.990562E-18
3.390000E+03	1.272541E-17	1.931519E-18
3.400000E+03	1.235661E-17	1.875336E-18
3.410000E+03	1.200566E-17	1.821874E-18
3.420000E+03	1.167214E-17	1.771067E-18
3.430000E+03	1.135491E-17	1.722740E-18
3.440000E+03	1.105344E-17	1.676812E-18
3.450000E+03	1.076693E-17	1.633163E-18
3.460000E+03	1.049478E-17	1.591700E-18
3.470000E+03	1.023615E-17	1.552295E-18
3.480000E+03	9.990381E-18	1.514847E-18
3.490000E+03	9.756959E-18	1.479279E-18
3.500000E+03	9.535178E-18	1.445482E-18
3.510000E+03	9.324589E-18	1.413388E-18
3.520000E+03	9.124364E-18	1.382872E-18
3.530000E+03	8.934129E-18	1.353874E-18
3.540000E+03	8.753248E-18	1.326300E-18
3.550000E+03	8.581226E-18	1.300073E-18
3.560000E+03	8.417594E-18	1.275123E-18
3.570000E+03	8.261749E-18	1.251356E-18
3.580000E+03	8.113463E-18	1.228739E-18
3.590000E+03	7.972269E-18	1.207200E-18
3.600000E+03	7.837732E-18	1.186673E-18
3.610000E+03	7.709673E-18	1.167131E-18
3.620000E+03	7.587622E-18	1.148503E-18
3.630000E+03	7.471285E-18	1.130742E-18
3.640000E+03	7.360386E-18	1.113808E-18
3.650000E+03	7.254665E-18	1.097660E-18
3.660000E+03	7.153876E-18	1.082262E-18
3.670000E+03	7.057791E-18	1.067577E-18
3.680000E+03	6.966251E-18	1.053584E-18
3.690000E+03	6.879108E-18	1.040257E-18
3.700000E+03	6.796158E-18	1.027567E-18
3.710000E+03	6.717440E-18	1.015520E-18
3.720000E+03	6.642692E-18	1.004074E-18
3.730000E+03	6.571898E-18	9.932279E-19
3.740000E+03	6.504911E-18	9.829591E-19
3.750000E+03	6.441649E-18	9.732548E-19
3.760000E+03	6.382137E-18	9.641187E-19
3.770000E+03	6.326120E-18	9.555118E-19
3.780000E+03	6.273615E-18	9.474366E-19
3.790000E+03	6.224585E-18	9.398874E-19
3.800000E+03	6.178834E-18	9.328343E-19
3.810000E+03	6.136374E-18	9.262788E-19
3.820000E+03	6.097164E-18	9.202145E-19
3.830000E+03	6.061063E-18	9.146201E-19
3.840000E+03	6.027982E-18	9.094819E-19
3.850000E+03	5.997979E-18	9.048082E-19
3.860000E+03	5.970865E-18	9.005707E-19
3.870000E+03	5.946651E-18	8.967705E-19
3.880000E+03	5.925250E-18	8.933943E-19
3.890000E+03	5.906623E-18	8.904362E-19
3.900000E+03	5.890729E-18	8.878897E-19
3.910000E+03	5.877439E-18	8.857352E-19
3.920000E+03	5.866718E-18	8.839671E-19
3.930000E+03	5.858578E-18	8.825873E-19
3.940000E+03	5.852943E-18	8.815837E-19
3.950000E+03	5.849729E-18	8.809437E-19
3.960000E+03	5.848906E-18	8.806628E-19
3.970000E+03	5.850396E-18	8.807286E-19
3.980000E+03	5.854165E-18	8.811362E-19
3.990000E+03	5.860187E-18	8.818812E-19
4.000000E+03	5.868429E-18	8.829585E-19
4.010000E+03	5.878773E-18	8.843502E-19
4.020000E+03	5.891195E-18	8.860525E-19
4.030000E+03	5.905671E-18	8.880617E-19
4.040000E+03	5.922182E-18	8.903745E-19
4.050000E+03	5.940663E-18	8.929810E-19
4.060000E+03	5.961053E-18	8.958720E-19
4.070000E+03	5.983337E-18	8.990450E-19
4.080000E+03	6.007462E-18	9.024917E-19
4.090000E+03	6.033412E-18	9.062097E-19
4.100000E+03	6.061131E-18	9.101902E-19
4.110000E+03	6.090607E-18	9.144313E-19
4.120000E+03	6.121778E-18	9.189236E-19
4.130000E+03	6.154588E-18	9.236585E-19
4.140000E+03	6.189026E-18	9.286340E-19
4.150000E+03	6.225031E-18	9.338407E-19
4.160000E+03	6.262597E-18	9.392778E-19
4.170000E+03	6.301621E-18	9.449295E-19
4.180000E+03	6.342099E-18	9.507950E-19
4.190000E+03	6.383930E-18	9.568590E-19
4.200000E+03	6.427161E-18	9.631284E-19
4.210000E+03	6.471693E-18	9.695883E-19
4.220000E+03	6.517528E-18	9.762385E-19
4.230000E+03	6.564511E-18	9.830560E-19
4.240000E+03	6.612691E-18	9.900476E-19
4.250000E+03	6.661911E-18	9.971899E-19
4.260000E+03	6.712218E-18	1.004490E-18
4.270000E+03	6.763449E-18	1.011922E-18
4.280000E+03	6.815492E-18	1.019471E-18
4.290000E+03	6.868394E-18	1.027143E-18
4.300000E+03	6.921932E-18	1.034904E-18
4.310000E+03	6.976158E-18	1.042762E-18
4.320000E+03	7.030851E-18	1.050684E-18
4.330000E+03	7.086063E-18	1.058677E-18
4.340000E+03	7.141687E-18	1.066726E-18
4.350000E+03	7.197612E-18	1.074814E-18
4.360000E+03	7.253836E-18	1.082941E-18
4.370000E+03	7.310304E-18	1.091097E-18
4.380000E+03	7.367075E-18	1.099292E-18
4.390000E+03	7.424031E-18	1.107508E-18
4.400000E+03	7.481291E-18	1.115763E-18
4.410000E+03	7.538857E-18	1.124057E-18
4.420000E+03	7.596737E-18	1.132391E-18
4.430000E+03	7.654932E-18	1.140765E-18
4.440000E+03	7.713515E-18	1.149190E-18
4.450000E+03	7.772432E-18	1.157658E-18
4.460000E+03	7.831761E-18	1.166179E-18
4.470000E+03	7.891524E-18	1.174759E-18
4.480000E+03	7.951743E-18	1.183398E-18
4.490000E+03	8.012372E-18	1.192091E-18
4.500000E+03	8.073429E-18	1.200841E-18
4.510000E+03	8.134869E-18	1.209639E-18
4.520000E+03	8.196773E-18	1.218499E-18
4.530000E+03	8.259018E-18	1.227402E-18
4.540000E+03	8.321618E-18	1.236349E-18
4.550000E+03	8.384584E-18	1.245342E-18
4.560000E+03	8.447782E-18	1.254362E-18
4.570000E+03	8.511294E-18	1.263420E-18
4.580000E+03	8.574989E-18	1.272497E-18
4.590000E+03	8.638883E-18	1.281594E-18
4.600000E+03	8.702843E-18	1.290693E-18
4.610000E+03	8.766968E-18	1.299808E-18
4.620000E+03	8.831212E-18	1.308931E-18
4.630000E+03	8.895452E-18	1.318045E-18
4.640000E+03	8.959725E-18	1.327154E-18
4.650000E+03	9.024068E-18	1.336265E-18
4.660000E+03	9.088445E-18	1.345372E-18
4.670000E+03	9.152741E-18	1.354458E-18
4.680000E+03	9.217162E-18	1.363552E-18
4.690000E+03	9.281763E-18	1.372664E-18
4.700000E+03	9.346443E-18	1.381778E-18
4.710000E+03	9.411261E-18	1.390902E-18
4.720000E+03	9.476289E-18	1.400048E-18
4.730000E+03	9.541342E-18	1.409187E-18
4.740000E+03	9.606494E-18	1.418331E-18
4.750000E+03	9.671644E-18	1.427465E-18
4.760000E+03	9.736874E-18	1.436601E-18
4.770000E+03	9.802179E-18	1.445737E-18
4.780000E+03	9.867464E-18	1.454859E-18
4.790000E+03	9.932818E-18	1.463982E-18
4.800000E+03	9.998152E-18	1.473091E-18
4.810000E+03	1.006356E-17	1.482199E-18
4.820000E+03	1.012895E-17	1.491295E-18
4.830000E+03	1.019434E-17	1.500379E-18
4.840000E+03	1.025973E-17	1.509453E-18
4.850000E+03	1.032522E-17	1.518531E-18
4.860000E+03	1.039073E-17	1.527599E-18
4.870000E+03	1.045625E-17	1.536659E-18
4.880000E+03	1.052171E-17	1.545697E-18
4.890000E+03	1.058729E-17	1.554742E-18
4.900000E+03	1.065289E-17	1.563779E-18
4.910000E+03	1.071852E-17	1.572808E-18
4.920000E+03	1.078406E-17	1.581811E-18
4.930000E+03	1.084959E-17	1.590801E-18
4.940000E+03	1.091498E-17	1.599759E-18
4.950000E+03	1.098021E-17	1.608681E-18
4.960000E+03	1.104536E-17	1.617579E-18
4.970000E+03	1.111029E-17	1.626433E-18
4.980000E+03	1.117500E-17	1.635241E-18
4.990000E+03	1.123934E-17	1.643984E-18
5.000000E+03	1.130340E-17	1.652673E-18
5.010000E+03	1.136715E-17	1.661303E-18
5.020000E+03	1.143043E-17	1.669853E-18
5.030000E+03	1.149321E-17	1.678316E-18
5.040000E+03	1.155543E-17	1.686685E-18
5.050000E+03	1.161692E-17	1.694934E-18
5.060000E+03	1.167774E-17	1.703073E-18
5.070000E+03	1.173783E-17	1.711093E-18
5.080000E+03	1.179691E-17	1.718952E-18
5.090000E+03	1.185503E-17	1.726658E-18
5.100000E+03	1.191214E-17	1.734205E-18
5.110000E+03	1.196808E-17	1.741568E-18
5.120000E+03	1.202281E-17	1.748743E-18
5.130000E+03	1.207631E-17	1.755726E-18
5.140000E+03	1.212855E-17	1.762513E-18
5.150000E+03	1.217939E-17	1.769083E-18
5.160000E+03	1.222893E-17	1.775453E-18
5.170000E+03	1.227692E-17	1.781586E-18
5.180000E+03	1.232345E-17	1.787494E-18
5.190000E+03	1.236837E-17	1.793155E-18
5.200000E+03	1.241162E-17	1.798564E-18
5.210000E+03	1.245317E-17	1.803713E-18
5.220000E+03	1.249295E-17	1.808594E-18
5.230000E+03	1.253064E-17	1.813162E-18
5.240000E+03	1.256641E-17	1.817440E-18
5.250000E+03	1.260004E-17	1.821397E-18
5.260000E+03	1.263142E-17	1.825018E-18
5.270000E+03	1.266029E-17	1.828266E-18
5.280000E+03	1.268650E-17	1.831119E-18
5.290000E+03	1.270991E-17	1.833558E-18
5.300000E+03	1.273038E-17	1.835563E-18
5.310000E+03	1.274779E-17	1.837117E-18
5.320000E+03	1.276187E-17	1.838183E-18
5.330000E+03	1.277280E-17	1.838786E-18
5.340000E+03	1.278025E-17	1.838880E-18
5.350000E+03	1.278414E-17	1.838455E-18
5.360000E+03	1.278470E-17	1.837544E-18
5.370000E+03	1.278167E-17	1.836109E-18
5.380000E+03	1.277527E-17	1.834186E-18
5.390000E+03	1.276540E-17	1.831757E-18
5.400000E+03	1.275217E-17	1.828843E-18
5.410000E+03	1.273548E-17	1.825427E-18
5.420000E+03	1.271562E-17	1.821553E-18
5.430000E+03	1.269251E-17	1.817210E-18
5.440000E+03	1.266632E-17	1.812423E-18
5.450000E+03	1.263689E-17	1.807169E-18
5.460000E+03	1.260443E-17	1.801481E-18
5.470000E+03	1.256892E-17	1.795356E-18
5.480000E+03	1.253036E-17	1.788794E-18
5.490000E+03	1.248899E-17	1.781831E-18
5.500000E+03	1.244472E-17	1.774455E-18
5.510000E+03	1.239758E-17	1.766669E-18
5.520000E+03	1.234774E-17	1.758500E-18
5.530000E+03	1.229512E-17	1.749937E-18
5.540000E+03	1.224002E-17	1.741024E-18
5.550000E+03	1.218226E-17	1.731735E-18
5.560000E+03	1.212227E-17	1.722132E-18
5.570000E+03	1.206010E-17	1.712223E-18
5.580000E+03	1.199581E-17	1.702018E-18
5.590000E+03	1.192958E-17	1.691543E-18
5.600000E+03	1.186159E-17	1.680822E-18
5.610000E+03	1.179188E-17	1.669864E-18
5.620000E+03	1.172086E-17	1.658726E-18
5.630000E+03	1.164843E-17	1.647394E-18
5.640000E+03	1.157496E-17	1.635923E-18
5.650000E+03	1.150035E-17	1.624296E-18
5.660000E+03	1.142495E-17	1.612566E-18
5.670000E+03	1.134887E-17	1.600748E-18
5.680000E+03	1.127212E-17	1.588841E-18
5.690000E+03	1.119490E-17	1.576876E-18
5.700000E+03	1.111730E-17	1.564868E-18
5.710000E+03	1.103954E-17	1.552843E-18
5.720000E+03	1.096168E-17	1.540814E-18
5.730000E+03	1.088369E-17	1.528774E-18
5.740000E+03	1.080587E-17	1.516767E-18
5.750000E+03	1.072829E-17	1.504802E-18
5.760000E+03	1.065090E-17	1.492874E-18
5.770000E+03	1.057390E-17	1.481008E-18
5.780000E+03	1.049746E-17	1.469230E-18
5.790000E+03	1.042163E-17	1.457547E-18
5.800000E+03	1.034639E-17	1.445954E-18
5.810000E+03	1.027191E-17	1.434476E-18
5.820000E+03	1.019837E-17	1.423139E-18
5.830000E+03	1.012585E-17	1.411953E-18
5.840000E+03	1.005432E-17	1.400913E-18
5.850000E+03	9.983956E-18	1.390044E-18
5.860000E+03	9.914835E-18	1.379356E-18
5.870000E+03	9.847153E-18	1.368877E-18
5.880000E+03	9.781005E-18	1.358619E-18
5.890000E+03	9.716369E-18	1.348579E-18
5.900000E+03	9.653445E-18	1.338785E-18
5.910000E+03	9.592214E-18	1.329232E-18
5.920000E+03	9.533079E-18	1.319976E-18
5.930000E+03	9.475786E-18	1.310982E-18
5.940000E+03	9.420500E-18	1.302272E-18
5.950000E+03	9.367382E-18	1.293867E-18
5.960000E+03	9.316362E-18	1.285758E-18
5.970000E+03	9.267480E-18	1.277949E-18
5.980000E+03	9.220869E-18	1.270457E-18
5.990000E+03	9.176445E-18	1.263272E-18
6.000000E+03	9.134328E-18	1.256407E-18
6.010000E+03	9.094320E-18	1.249836E-18
6.020000E+03	9.056637E-18	1.243587E-18
6.030000E+03	9.021070E-18	1.237631E-18
6.040000E+03	8.987828E-18	1.231996E-18
6.050000E+03	8.956589E-18	1.226637E-18
6.060000E+03	8.927553E-18	1.221580E-18
6.070000E+03	8.900604E-18	1.216810E-18
6.080000E+03	8.875723E-18	1.212322E-18
6.090000E+03	8.852680E-18	1.208085E-18
6.100000E+03	8.831668E-18	1.204124E-18
6.110000E+03	8.812342E-18	1.200392E-18
6.120000E+03	8.794887E-18	1.196913E-18
6.130000E+03	8.778955E-18	1.193639E-18
6.140000E+03	8.764513E-18	1.190565E-18
6.150000E+03	8.751416E-18	1.187671E-18
6.160000E+03	8.739629E-18	1.184951E-18
6.170000E+03	8.728781E-18	1.182355E-18
6.180000E+03	8.718827E-18	1.179877E-18
6.190000E+03	8.709611E-18	1.177495E-18
6.200000E+03	8.701080E-18	1.175201E-18
6.210000E+03	8.693178E-18	1.172989E-18
6.220000E+03	8.686074E-18	1.170879E-18
6.230000E+03	8.680049E-18	1.168910E-18
6.240000E+03	8.675164E-18	1.167090E-18
6.250000E+03	8.671600E-18	1.165442E-18
6.260000E+03	8.669539E-18	1.163990E-18
6.270000E+03	8.669054E-18	1.162744E-18
6.280000E+03	8.670340E-18	1.161729E-18
6.290000E+03	8.673479E-18	1.160955E-18
6.300000E+03	8.678559E-18	1.160433E-18
6.310000E+03	8.685793E-18	1.160191E-18
6.320000E+03	8.695160E-18	1.160225E-18
6.330000E+03	8.706881E-18	1.160564E-18
6.340000E+03	8.720827E-18	1.161188E-18
6.350000E+03	8.737109E-18	1.162114E-18
6.360000E+03	8.755717E-18	1.163337E-18
6.370000E+03	8.776773E-18	1.164872E-18
6.380000E+03	8.800149E-18	1.166703E-18
6.390000E+03	8.825846E-18	1.168828E-18
6.400000E+03	8.853736E-18	1.171228E-18
6.410000E+03	8.883561E-18	1.173869E-18
6.420000E+03	8.915182E-18	1.176732E-18
6.430000E+03	8.948592E-18	1.179814E-18
6.440000E+03	8.983780E-18	1.183114E-18
6.450000E+03	9.020741E-18	1.186629E-18
6.460000E+03	9.059602E-18	1.190377E-18
6.470000E+03	9.100499E-18	1.194372E-18
6.480000E+03	9.143438E-18	1.198616E-18
6.490000E+03	9.188283E-18	1.203090E-18
6.500000E+03	9.235319E-18	1.207829E-18
6.510000E+03	9.284558E-18	1.212834E-18
6.520000E+03	9.335870E-18	1.218087E-18
6.530000E+03	9.389410E-18	1.223608E-18
6.540000E+03	9.445195E-18	1.229397E-18
6.550000E+03	9.503089E-18	1.235435E-18
6.560000E+03	9.563107E-18	1.241723E-18
6.570000E+03	9.625570E-18	1.248302E-18
6.580000E+03	9.690036E-18	1.255113E-18
6.590000E+03	9.756832E-18	1.262197E-18
6.600000E+03	9.825978E-18	1.269556E-18
6.610000E+03	9.897176E-18	1.277149E-18
6.620000E+03	9.970766E-18	1.285020E-18
6.630000E+03	1.004644E-17	1.293128E-18
6.640000E+03	1.012454E-17	1.301516E-18
6.650000E+03	1.020477E-17	1.310142E-18
6.660000E+03	1.028729E-17	1.319028E-18
6.670000E+03	1.037214E-17	1.328177E-18
6.680000E+03	1.045916E-17	1.337566E-18
6.690000E+03	1.054835E-17	1.347197E-18
6.700000E+03	1.063993E-17	1.357093E-18
6.710000E+03	1.073371E-17	1.367231E-18
6.720000E+03	1.082973E-17	1.377614E-18
6.730000E+03	1.092801E-17	1.388241E-18
6.740000E+03	1.102855E-17	1.399115E-18
6.750000E+03	1.113139E-17	1.410236E-18
6.760000E+03	1.123655E-17	1.421606E-18
6.770000E+03	1.134384E-17	1.433202E-18
6.780000E+03	1.145349E-17	1.445048E-18
6.790000E+03	1.156552E-17	1.457147E-18
6.800000E+03	1.167974E-17	1.469474E-18
6.810000E+03	1.179639E-17	1.482055E-18
6.820000E+03	1.191527E-17	1.494867E-18
6.830000E+03	1.203639E-17	1.507909E-18
6.840000E+03	1.215979E-17	1.521182E-18
6.850000E+03	1.228546E-17	1.534686E-18
6.860000E+03	1.241366E-17	1.548451E-18
6.870000E+03	1.254394E-17	1.562420E-18
6.880000E+03	1.267657E-17	1.576623E-18
6.890000E+03	1.281153E-17	1.591059E-18
6.900000E+03	1.294864E-17	1.605701E-18
6.910000E+03	1.308813E-17	1.620579E-18
6.920000E+03	1.323002E-17	1.635693E-18
6.930000E+03	1.337410E-17	1.651013E-18
6.940000E+03	1.352035E-17	1.666539E-18
6.950000E+03	1.366905E-17	1.682302E-18
6.960000E+03	1.381996E-17	1.698270E-18
6.970000E+03	1.397306E-17	1.714441E-18
6.980000E+03	1.412840E-17	1.730817E-18
6.990000E+03	1.428594E-17	1.747394E-18
7.000000E+03	1.444541E-17	1.764137E-18
7.010000E+03	1.460738E-17	1.781113E-18
7.020000E+03	1.477128E-17	1.798252E-18
7.030000E+03	1.493739E-17	1.815587E-18
7.040000E+03	1.510542E-17	1.833079E-18
7.050000E+03	1.527535E-17	1.850727E-18
7.060000E+03	1.544747E-17	1.868563E-18
7.070000E+03	1.562147E-17	1.886550E-18
7.080000E+03	1.579704E-17	1.904645E-18
7.090000E+03	1.597477E-17	1.922922E-18
7.100000E+03	1.615433E-17	1.941338E-18
7.110000E+03	1.633537E-17	1.959851E-18
7.120000E+03	1.651819E-17	1.978494E-18
7.130000E+03	1.670245E-17	1.997226E-18
7.140000E+03	1.688843E-17	2.016079E-18
7.150000E+03	1.707578E-17	2.035011E-18
7.160000E+03	1.726480E-17	2.054055E-18
7.170000E+03	1.745474E-17	2.073121E-18
7.180000E+03	1.764592E-17	2.092248E-18
7.190000E+03	1.783868E-17	2.111474E-18
7.200000E+03	1.803221E-17	2.130702E-18
7.210000E+03	1.822648E-17	2.149927E-18
7.220000E+03	1.842181E-17	2.169187E-18
7.230000E+03	1.861815E-17	2.188476E-18
7.240000E+03	1.881506E-17	2.207741E-18
7.250000E+03	1.901288E-17	2.227021E-18
7.260000E+03	1.921116E-17	2.246261E-18
7.270000E+03	1.940981E-17	2.265454E-18
7.280000E+03	1.960919E-17	2.284639E-18
7.290000E+03	1.980879E-17	2.303755E-18
7.300000E+03	2.000895E-17	2.322845E-18
7.310000E+03	2.020914E-17	2.341843E-18
7.320000E+03	2.040926E-17	2.360740E-18
7.330000E+03	2.061009E-17	2.379625E-18
7.340000E+03	2.081064E-17	2.398384E-18
7.350000E+03	2.101173E-17	2.417111E-18
7.360000E+03	2.121279E-17	2.435740E-18
7.370000E+03	2.141423E-17	2.454318E-18
7.380000E+03	2.161649E-17	2.472896E-18
7.390000E+03	2.181902E-17	2.491409E-18
7.400000E+03	2.202279E-17	2.509969E-18
7.410000E+03	2.222780E-17	2.528574E-18
7.420000E+03	2.243457E-17	2.547283E-18
7.430000E+03	2.264314E-17	2.566100E-18
7.440000E+03	2.285355E-17	2.585028E-18
7.450000E+03	2.306639E-17	2.604131E-18
7.460000E+03	2.328065E-17	2.623296E-18
7.470000E+03	2.349636E-17	2.642523E-18
7.480000E+03	2.371303E-17	2.661759E-18
7.490000E+03	2.393123E-17	2.681066E-18
7.500000E+03	2.415045E-17	2.700387E-18
7.510000E+03	2.437019E-17	2.719664E-18
7.520000E+03	2.459044E-17	2.738896E-18
7.530000E+03	2.481124E-17	2.758089E-18
7.540000E+03	2.503201E-17	2.777178E-18
7.550000E+03	2.525342E-17	2.796236E-18
7.560000E+03	2.547429E-17	2.815133E-18
7.570000E+03	2.569590E-17	2.834014E-18
7.580000E+03	2.591776E-17	2.852819E-18
7.590000E+03	2.613991E-17	2.871558E-18
7.600000E+03	2.636179E-17	2.890167E-18
7.610000E+03	2.658407E-17	2.908720E-18
7.620000E+03	2.680676E-17	2.927219E-18
7.630000E+03	2.702983E-17	2.945662E-18
7.640000E+03	2.725257E-17	2.963969E-18
7.650000E+03	2.747552E-17	2.982199E-18
7.660000E+03	2.769788E-17	3.000268E-18
7.670000E+03	2.792083E-17	3.018303E-18
7.680000E+03	2.814209E-17	3.036059E-18
7.690000E+03	2.836353E-17	3.053735E-18
7.700000E+03	2.858423E-17	3.071237E-18
7.710000E+03	2.880321E-17	3.088458E-18
7.720000E+03	2.902093E-17	3.105448E-18
7.730000E+03	2.923711E-17	3.122180E-18
7.740000E+03	2.945147E-17	3.138625E-18
7.750000E+03	2.966370E-17	3.154752E-18
7.760000E+03	2.987426E-17	3.170609E-18
