#wls	flux	fluxerr
1.600000E+03	3.683407E-16	1.258340E-16
1.640000E+03	3.795264E-16	1.296531E-16
1.680000E+03	3.900612E-16	1.332498E-16
1.720000E+03	3.998300E-16	1.365846E-16
1.760000E+03	4.086673E-16	1.396010E-16
1.800000E+03	4.164397E-16	1.422535E-16
1.840000E+03	4.229686E-16	1.444811E-16
1.880000E+03	4.281499E-16	1.462481E-16
1.920000E+03	4.318390E-16	1.475054E-16
1.960000E+03	4.338603E-16	1.481928E-16
2.000000E+03	4.341188E-16	1.482781E-16
2.040000E+03	4.324642E-16	1.477098E-16
2.080000E+03	4.287718E-16	1.464455E-16
2.120000E+03	4.230074E-16	1.444735E-16
2.160000E+03	4.150264E-16	1.417445E-16
2.200000E+03	4.047496E-16	1.382314E-16
2.240000E+03	3.920977E-16	1.339073E-16
2.280000E+03	3.769362E-16	1.287263E-16
2.320000E+03	3.597361E-16	1.228492E-16
2.360000E+03	3.409768E-16	1.164399E-16
2.400000E+03	3.210422E-16	1.096296E-16
2.440000E+03	3.002607E-16	1.025303E-16
2.480000E+03	2.789459E-16	9.524931E-17
2.520000E+03	2.573830E-16	8.788389E-17
2.560000E+03	2.358250E-16	8.052052E-17
2.600000E+03	2.145285E-16	7.324682E-17
2.640000E+03	1.937267E-16	6.614239E-17
2.680000E+03	1.736306E-16	5.927927E-17
2.720000E+03	1.544277E-16	5.272149E-17
2.760000E+03	1.362890E-16	4.652742E-17
2.800000E+03	1.193365E-16	4.073865E-17
2.840000E+03	1.036702E-16	3.538933E-17
2.880000E+03	8.936910E-17	3.050634E-17
2.920000E+03	7.647924E-17	2.610541E-17
2.960000E+03	6.501748E-17	2.219222E-17
3.000000E+03	5.495952E-17	1.875844E-17
3.010000E+03	5.265714E-17	1.797244E-17
3.020000E+03	5.043717E-17	1.721457E-17
3.030000E+03	4.829891E-17	1.648460E-17
3.040000E+03	4.624043E-17	1.578188E-17
3.050000E+03	4.425977E-17	1.510572E-17
3.060000E+03	4.235588E-17	1.445579E-17
3.070000E+03	4.052580E-17	1.383105E-17
3.080000E+03	3.876923E-17	1.323142E-17
3.090000E+03	3.708317E-17	1.265586E-17
3.100000E+03	3.546630E-17	1.210392E-17
3.110000E+03	3.391649E-17	1.157488E-17
3.120000E+03	3.243223E-17	1.106823E-17
3.130000E+03	3.101135E-17	1.058321E-17
3.140000E+03	2.965182E-17	1.011913E-17
3.150000E+03	2.835207E-17	9.675473E-18
3.160000E+03	2.710957E-17	9.251355E-18
3.170000E+03	2.592336E-17	8.846457E-18
3.180000E+03	2.479092E-17	8.459915E-18
3.190000E+03	2.371078E-17	8.091228E-18
3.200000E+03	2.268093E-17	7.739710E-18
3.210000E+03	2.169947E-17	7.404712E-18
3.220000E+03	2.076487E-17	7.085711E-18
3.230000E+03	1.987522E-17	6.782054E-18
3.240000E+03	1.902836E-17	6.493005E-18
3.250000E+03	1.822345E-17	6.218277E-18
3.260000E+03	1.745780E-17	5.956951E-18
3.270000E+03	1.673056E-17	5.708737E-18
3.280000E+03	1.603950E-17	5.472874E-18
3.290000E+03	1.538325E-17	5.248893E-18
3.300000E+03	1.476045E-17	5.036328E-18
3.310000E+03	1.416909E-17	4.834497E-18
3.320000E+03	1.360812E-17	4.643039E-18
3.330000E+03	1.307608E-17	4.461458E-18
3.340000E+03	1.257140E-17	4.289212E-18
3.350000E+03	1.209275E-17	4.125854E-18
3.360000E+03	1.163888E-17	3.970953E-18
3.370000E+03	1.120874E-17	3.824150E-18
3.380000E+03	1.080085E-17	3.684943E-18
3.390000E+03	1.041441E-17	3.553057E-18
3.400000E+03	1.004809E-17	3.428037E-18
3.410000E+03	9.700887E-18	3.309543E-18
3.420000E+03	9.371984E-18	3.197295E-18
3.430000E+03	9.060125E-18	3.090864E-18
3.440000E+03	8.764699E-18	2.990041E-18
3.450000E+03	8.484783E-18	2.894512E-18
3.460000E+03	8.219328E-18	2.803918E-18
3.470000E+03	7.967829E-18	2.718087E-18
3.480000E+03	7.729345E-18	2.636698E-18
3.490000E+03	7.503266E-18	2.559543E-18
3.500000E+03	7.288929E-18	2.486395E-18
3.510000E+03	7.085479E-18	2.416962E-18
3.520000E+03	6.892440E-18	2.351082E-18
3.530000E+03	6.709135E-18	2.288524E-18
3.540000E+03	6.534946E-18	2.229077E-18
3.550000E+03	6.369371E-18	2.172569E-18
3.560000E+03	6.211810E-18	2.118797E-18
3.570000E+03	6.061777E-18	2.067593E-18
3.580000E+03	5.918757E-18	2.018783E-18
3.590000E+03	5.782395E-18	1.972245E-18
3.600000E+03	5.652300E-18	1.927846E-18
3.610000E+03	5.528052E-18	1.885442E-18
3.620000E+03	5.409368E-18	1.844936E-18
3.630000E+03	5.295975E-18	1.806236E-18
3.640000E+03	5.187521E-18	1.769222E-18
3.650000E+03	5.083907E-18	1.733859E-18
3.660000E+03	4.984808E-18	1.700036E-18
3.670000E+03	4.890088E-18	1.667708E-18
3.680000E+03	4.799577E-18	1.636817E-18
3.690000E+03	4.713104E-18	1.607303E-18
3.700000E+03	4.630541E-18	1.579123E-18
3.710000E+03	4.551805E-18	1.552249E-18
3.720000E+03	4.476649E-18	1.526596E-18
3.730000E+03	4.405066E-18	1.502163E-18
3.740000E+03	4.336856E-18	1.478880E-18
3.750000E+03	4.271930E-18	1.456718E-18
3.760000E+03	4.210201E-18	1.435646E-18
3.770000E+03	4.151478E-18	1.415600E-18
3.780000E+03	4.095745E-18	1.396574E-18
3.790000E+03	4.042853E-18	1.378517E-18
3.800000E+03	3.992720E-18	1.361402E-18
3.810000E+03	3.945236E-18	1.345190E-18
3.820000E+03	3.900331E-18	1.329857E-18
3.830000E+03	3.857901E-18	1.315369E-18
3.840000E+03	3.817877E-18	1.301702E-18
3.850000E+03	3.780167E-18	1.288824E-18
3.860000E+03	3.744743E-18	1.276725E-18
3.870000E+03	3.711514E-18	1.265375E-18
3.880000E+03	3.680398E-18	1.254746E-18
3.890000E+03	3.651344E-18	1.244820E-18
3.900000E+03	3.624268E-18	1.235569E-18
3.910000E+03	3.599154E-18	1.226986E-18
3.920000E+03	3.575922E-18	1.219046E-18
3.930000E+03	3.554527E-18	1.211731E-18
3.940000E+03	3.534895E-18	1.205018E-18
3.950000E+03	3.516954E-18	1.198882E-18
3.960000E+03	3.500716E-18	1.193326E-18
3.970000E+03	3.486060E-18	1.188309E-18
3.980000E+03	3.472972E-18	1.183827E-18
3.990000E+03	3.461386E-18	1.179856E-18
4.000000E+03	3.451266E-18	1.176386E-18
4.010000E+03	3.442578E-18	1.173404E-18
4.020000E+03	3.435233E-18	1.170879E-18
4.030000E+03	3.429229E-18	1.168812E-18
4.040000E+03	3.424505E-18	1.167180E-18
4.050000E+03	3.421032E-18	1.165975E-18
4.060000E+03	3.418756E-18	1.165178E-18
4.070000E+03	3.417620E-18	1.164769E-18
4.080000E+03	3.417627E-18	1.164750E-18
4.090000E+03	3.418700E-18	1.165094E-18
4.100000E+03	3.420816E-18	1.165793E-18
4.110000E+03	3.423958E-18	1.166842E-18
4.120000E+03	3.428057E-18	1.168216E-18
4.130000E+03	3.433124E-18	1.169921E-18
4.140000E+03	3.439091E-18	1.171932E-18
4.150000E+03	3.445947E-18	1.174245E-18
4.160000E+03	3.453676E-18	1.176856E-18
4.170000E+03	3.462214E-18	1.179742E-18
4.180000E+03	3.471574E-18	1.182908E-18
4.190000E+03	3.481665E-18	1.186323E-18
4.200000E+03	3.492528E-18	1.190001E-18
4.210000E+03	3.504074E-18	1.193911E-18
4.220000E+03	3.516288E-18	1.198048E-18
4.230000E+03	3.529138E-18	1.202402E-18
4.240000E+03	3.542619E-18	1.206970E-18
4.250000E+03	3.556641E-18	1.211723E-18
4.260000E+03	3.571229E-18	1.216668E-18
4.270000E+03	3.586323E-18	1.221785E-18
4.280000E+03	3.601867E-18	1.227055E-18
4.290000E+03	3.617860E-18	1.232477E-18
4.300000E+03	3.634274E-18	1.238043E-18
4.310000E+03	3.651023E-18	1.243722E-18
4.320000E+03	3.668077E-18	1.249504E-18
4.330000E+03	3.685405E-18	1.255380E-18
4.340000E+03	3.702981E-18	1.261340E-18
4.350000E+03	3.720767E-18	1.267371E-18
4.360000E+03	3.738767E-18	1.273474E-18
4.370000E+03	3.756942E-18	1.279637E-18
4.380000E+03	3.775260E-18	1.285847E-18
4.390000E+03	3.793775E-18	1.292125E-18
4.400000E+03	3.812447E-18	1.298455E-18
4.410000E+03	3.831273E-18	1.304838E-18
4.420000E+03	3.850278E-18	1.311281E-18
4.430000E+03	3.869453E-18	1.317781E-18
4.440000E+03	3.888759E-18	1.324326E-18
4.450000E+03	3.908219E-18	1.330922E-18
4.460000E+03	3.927800E-18	1.337559E-18
4.470000E+03	3.947491E-18	1.344234E-18
4.480000E+03	3.967297E-18	1.350946E-18
4.490000E+03	3.987148E-18	1.357674E-18
4.500000E+03	4.007083E-18	1.364430E-18
4.510000E+03	4.027073E-18	1.371204E-18
4.520000E+03	4.047095E-18	1.377988E-18
4.530000E+03	4.067158E-18	1.384786E-18
4.540000E+03	4.087207E-18	1.391579E-18
4.550000E+03	4.107257E-18	1.398371E-18
4.560000E+03	4.127325E-18	1.405169E-18
4.570000E+03	4.147397E-18	1.411968E-18
4.580000E+03	4.167422E-18	1.418750E-18
4.590000E+03	4.187426E-18	1.425525E-18
4.600000E+03	4.207394E-18	1.432287E-18
4.610000E+03	4.227320E-18	1.439034E-18
4.620000E+03	4.247231E-18	1.445775E-18
4.630000E+03	4.267086E-18	1.452496E-18
4.640000E+03	4.286917E-18	1.459209E-18
4.650000E+03	4.306721E-18	1.465913E-18
4.660000E+03	4.326500E-18	1.472607E-18
4.670000E+03	4.346252E-18	1.479291E-18
4.680000E+03	4.365981E-18	1.485967E-18
4.690000E+03	4.385689E-18	1.492635E-18
4.700000E+03	4.405453E-18	1.499322E-18
4.710000E+03	4.425276E-18	1.506028E-18
4.720000E+03	4.445163E-18	1.512755E-18
4.730000E+03	4.465196E-18	1.519532E-18
4.740000E+03	4.485343E-18	1.526346E-18
4.750000E+03	4.505612E-18	1.533202E-18
4.760000E+03	4.526049E-18	1.540114E-18
4.770000E+03	4.546667E-18	1.547087E-18
4.780000E+03	4.567438E-18	1.554112E-18
4.790000E+03	4.588414E-18	1.561205E-18
4.800000E+03	4.609608E-18	1.568372E-18
4.810000E+03	4.630991E-18	1.575603E-18
4.820000E+03	4.652618E-18	1.582916E-18
4.830000E+03	4.674509E-18	1.590318E-18
4.840000E+03	4.696678E-18	1.597814E-18
4.850000E+03	4.719141E-18	1.605409E-18
4.860000E+03	4.741876E-18	1.613096E-18
4.870000E+03	4.764987E-18	1.620911E-18
4.880000E+03	4.788407E-18	1.628830E-18
4.890000E+03	4.812156E-18	1.636860E-18
4.900000E+03	4.836305E-18	1.645025E-18
4.910000E+03	4.860874E-18	1.653332E-18
4.920000E+03	4.885891E-18	1.661791E-18
4.930000E+03	4.911284E-18	1.670376E-18
4.940000E+03	4.937168E-18	1.679129E-18
4.950000E+03	4.963524E-18	1.688040E-18
4.960000E+03	4.990374E-18	1.697119E-18
4.970000E+03	5.017746E-18	1.706375E-18
4.980000E+03	5.045661E-18	1.715814E-18
4.990000E+03	5.074100E-18	1.725431E-18
5.000000E+03	5.103080E-18	1.735230E-18
5.010000E+03	5.132667E-18	1.745236E-18
5.020000E+03	5.162833E-18	1.755436E-18
5.030000E+03	5.193529E-18	1.765817E-18
5.040000E+03	5.224869E-18	1.776415E-18
5.050000E+03	5.256707E-18	1.787181E-18
5.060000E+03	5.289147E-18	1.798151E-18
5.070000E+03	5.322199E-18	1.809328E-18
5.080000E+03	5.355712E-18	1.820661E-18
5.090000E+03	5.389842E-18	1.832202E-18
5.100000E+03	5.424495E-18	1.843920E-18
5.110000E+03	5.459669E-18	1.855814E-18
5.120000E+03	5.495421E-18	1.867903E-18
5.130000E+03	5.531644E-18	1.880151E-18
5.140000E+03	5.568337E-18	1.892558E-18
5.150000E+03	5.605552E-18	1.905141E-18
5.160000E+03	5.643234E-18	1.917881E-18
5.170000E+03	5.681378E-18	1.930777E-18
5.180000E+03	5.719925E-18	1.943808E-18
5.190000E+03	5.758932E-18	1.956995E-18
5.200000E+03	5.798281E-18	1.970297E-18
5.210000E+03	5.838080E-18	1.983750E-18
5.220000E+03	5.878267E-18	1.997333E-18
5.230000E+03	5.918777E-18	2.011025E-18
5.240000E+03	5.959600E-18	2.024822E-18
5.250000E+03	6.000779E-18	2.038738E-18
5.260000E+03	6.042185E-18	2.052730E-18
5.270000E+03	6.083859E-18	2.066812E-18
5.280000E+03	6.125839E-18	2.080996E-18
5.290000E+03	6.167925E-18	2.095214E-18
5.300000E+03	6.210267E-18	2.109518E-18
5.310000E+03	6.252654E-18	2.123836E-18
5.320000E+03	6.295233E-18	2.138217E-18
5.330000E+03	6.337778E-18	2.152585E-18
5.340000E+03	6.380364E-18	2.166966E-18
5.350000E+03	6.422945E-18	2.181343E-18
5.360000E+03	6.465414E-18	2.195681E-18
5.370000E+03	6.507854E-18	2.210008E-18
5.380000E+03	6.550034E-18	2.224244E-18
5.390000E+03	6.592101E-18	2.238440E-18
5.400000E+03	6.633953E-18	2.252562E-18
5.410000E+03	6.675554E-18	2.266597E-18
5.420000E+03	6.716869E-18	2.280533E-18
5.430000E+03	6.757863E-18	2.294358E-18
5.440000E+03	6.798439E-18	2.308040E-18
5.450000E+03	6.838569E-18	2.321569E-18
5.460000E+03	6.878225E-18	2.334935E-18
5.470000E+03	6.917375E-18	2.348128E-18
5.480000E+03	6.955911E-18	2.361111E-18
5.490000E+03	6.993724E-18	2.373847E-18
5.500000E+03	7.030836E-18	2.386343E-18
5.510000E+03	7.067126E-18	2.398559E-18
5.520000E+03	7.102471E-18	2.410452E-18
5.530000E+03	7.136744E-18	2.421980E-18
5.540000E+03	7.169960E-18	2.433148E-18
5.550000E+03	7.201919E-18	2.443888E-18
5.560000E+03	7.232631E-18	2.454203E-18
5.570000E+03	7.261895E-18	2.464025E-18
5.580000E+03	7.289653E-18	2.473334E-18
5.590000E+03	7.315916E-18	2.482135E-18
5.600000E+03	7.340478E-18	2.490358E-18
5.610000E+03	7.363346E-18	2.498005E-18
5.620000E+03	7.384462E-18	2.505056E-18
5.630000E+03	7.403681E-18	2.511462E-18
5.640000E+03	7.420941E-18	2.517202E-18
5.650000E+03	7.436256E-18	2.522282E-18
5.660000E+03	7.449573E-18	2.526683E-18
5.670000E+03	7.460758E-18	2.530360E-18
5.680000E+03	7.469846E-18	2.533324E-18
5.690000E+03	7.476877E-18	2.535590E-18
5.700000E+03	7.481664E-18	2.537095E-18
5.710000E+03	7.484264E-18	2.537856E-18
5.720000E+03	7.484735E-18	2.537896E-18
5.730000E+03	7.483071E-18	2.537211E-18
5.740000E+03	7.479269E-18	2.535800E-18
5.750000E+03	7.473325E-18	2.533662E-18
5.760000E+03	7.465248E-18	2.530801E-18
5.770000E+03	7.455122E-18	2.527246E-18
5.780000E+03	7.442879E-18	2.522972E-18
5.790000E+03	7.428693E-18	2.518039E-18
5.800000E+03	7.412497E-18	2.512425E-18
5.810000E+03	7.394316E-18	2.506138E-18
5.820000E+03	7.374330E-18	2.499239E-18
5.830000E+03	7.352408E-18	2.491685E-18
5.840000E+03	7.328667E-18	2.483514E-18
5.850000E+03	7.303226E-18	2.474767E-18
5.860000E+03	7.276053E-18	2.465433E-18
5.870000E+03	7.247286E-18	2.455559E-18
5.880000E+03	7.216912E-18	2.445142E-18
5.890000E+03	7.185163E-18	2.434259E-18
5.900000E+03	7.152063E-18	2.422919E-18
5.910000E+03	7.117724E-18	2.411159E-18
5.920000E+03	7.082329E-18	2.399043E-18
5.930000E+03	7.045909E-18	2.386580E-18
5.940000E+03	7.008649E-18	2.373833E-18
5.950000E+03	6.970572E-18	2.360811E-18
5.960000E+03	6.931855E-18	2.347572E-18
5.970000E+03	6.892594E-18	2.334150E-18
5.980000E+03	6.852887E-18	2.320577E-18
5.990000E+03	6.812742E-18	2.306857E-18
6.000000E+03	6.772329E-18	2.293047E-18
6.010000E+03	6.731729E-18	2.279175E-18
6.020000E+03	6.690949E-18	2.265243E-18
6.030000E+03	6.650144E-18	2.251303E-18
6.040000E+03	6.609312E-18	2.237355E-18
6.050000E+03	6.568444E-18	2.223396E-18
6.060000E+03	6.527767E-18	2.209503E-18
6.070000E+03	6.487193E-18	2.195645E-18
6.080000E+03	6.446857E-18	2.181868E-18
6.090000E+03	6.406664E-18	2.168141E-18
6.100000E+03	6.366747E-18	2.154509E-18
6.110000E+03	6.327081E-18	2.140962E-18
6.120000E+03	6.287714E-18	2.127518E-18
6.130000E+03	6.248690E-18	2.114190E-18
6.140000E+03	6.209975E-18	2.100968E-18
6.150000E+03	6.171606E-18	2.087864E-18
6.160000E+03	6.133623E-18	2.074892E-18
6.170000E+03	6.096057E-18	2.062062E-18
6.180000E+03	6.058936E-18	2.049383E-18
6.190000E+03	6.022213E-18	2.036839E-18
6.200000E+03	5.985991E-18	2.024466E-18
6.210000E+03	5.950286E-18	2.012269E-18
6.220000E+03	5.915122E-18	2.000256E-18
6.230000E+03	5.880593E-18	1.988458E-18
6.240000E+03	5.846790E-18	1.976906E-18
6.250000E+03	5.813802E-18	1.965631E-18
6.260000E+03	5.781718E-18	1.954663E-18
6.270000E+03	5.750622E-18	1.944029E-18
6.280000E+03	5.720680E-18	1.933786E-18
6.290000E+03	5.691818E-18	1.923909E-18
6.300000E+03	5.664351E-18	1.914504E-18
6.310000E+03	5.638206E-18	1.905547E-18
6.320000E+03	5.613544E-18	1.897091E-18
6.330000E+03	5.590442E-18	1.889163E-18
6.340000E+03	5.568985E-18	1.881792E-18
6.350000E+03	5.549174E-18	1.874976E-18
6.360000E+03	5.531092E-18	1.868746E-18
6.370000E+03	5.514822E-18	1.863128E-18
6.380000E+03	5.500369E-18	1.858124E-18
6.390000E+03	5.487734E-18	1.853734E-18
6.400000E+03	5.477006E-18	1.849988E-18
6.410000E+03	5.468027E-18	1.846833E-18
6.420000E+03	5.460806E-18	1.844272E-18
6.430000E+03	5.455268E-18	1.842279E-18
6.440000E+03	5.451254E-18	1.840800E-18
6.450000E+03	5.448848E-18	1.839864E-18
6.460000E+03	5.447890E-18	1.839416E-18
6.470000E+03	5.448467E-18	1.839486E-18
6.480000E+03	5.450581E-18	1.840075E-18
6.490000E+03	5.454157E-18	1.841156E-18
6.500000E+03	5.459194E-18	1.842730E-18
6.510000E+03	5.465699E-18	1.844799E-18
6.520000E+03	5.473672E-18	1.847362E-18
6.530000E+03	5.483123E-18	1.850423E-18
6.540000E+03	5.494139E-18	1.854012E-18
6.550000E+03	5.506642E-18	1.858101E-18
6.560000E+03	5.520547E-18	1.862662E-18
6.570000E+03	5.536035E-18	1.867756E-18
6.580000E+03	5.552939E-18	1.873326E-18
6.590000E+03	5.571346E-18	1.879402E-18
6.600000E+03	5.591266E-18	1.885988E-18
6.610000E+03	5.612706E-18	1.893084E-18
6.620000E+03	5.635670E-18	1.900693E-18
6.630000E+03	5.660074E-18	1.908785E-18
6.640000E+03	5.686017E-18	1.917395E-18
6.650000E+03	5.713409E-18	1.926492E-18
6.660000E+03	5.742353E-18	1.936110E-18
6.670000E+03	5.772760E-18	1.946220E-18
6.680000E+03	5.804634E-18	1.956822E-18
6.690000E+03	5.838085E-18	1.967954E-18
6.700000E+03	5.873117E-18	1.979616E-18
6.710000E+03	5.909542E-18	1.991745E-18
6.720000E+03	5.947568E-18	2.004412E-18
6.730000E+03	5.987001E-18	2.017551E-18
6.740000E+03	6.028054E-18	2.031233E-18
6.750000E+03	6.070633E-18	2.045426E-18
6.760000E+03	6.114644E-18	2.060099E-18
6.770000E+03	6.160308E-18	2.075327E-18
6.780000E+03	6.207423E-18	2.091040E-18
6.790000E+03	6.256106E-18	2.107278E-18
6.800000E+03	6.306370E-18	2.124046E-18
6.810000E+03	6.358225E-18	2.141347E-18
6.820000E+03	6.411570E-18	2.159146E-18
6.830000E+03	6.466528E-18	2.177485E-18
6.840000E+03	6.522996E-18	2.196329E-18
6.850000E+03	6.581101E-18	2.215721E-18
6.860000E+03	6.640731E-18	2.235623E-18
6.870000E+03	6.701897E-18	2.256037E-18
6.880000E+03	6.764732E-18	2.277010E-18
6.890000E+03	6.828991E-18	2.298459E-18
6.900000E+03	6.894936E-18	2.320471E-18
6.910000E+03	6.962450E-18	2.343006E-18
6.920000E+03	7.031535E-18	2.366067E-18
6.930000E+03	7.102200E-18	2.389654E-18
6.940000E+03	7.174454E-18	2.413772E-18
6.950000E+03	7.248161E-18	2.438374E-18
6.960000E+03	7.323465E-18	2.463509E-18
6.970000E+03	7.400368E-18	2.489178E-18
6.980000E+03	7.478877E-18	2.515381E-18
6.990000E+03	7.558706E-18	2.542024E-18
7.000000E+03	7.640292E-18	2.569253E-18
7.010000E+03	7.723191E-18	2.596918E-18
7.020000E+03	7.807703E-18	2.625120E-18
7.030000E+03	7.893677E-18	2.653809E-18
7.040000E+03	7.981105E-18	2.682981E-18
7.050000E+03	8.069989E-18	2.712637E-18
7.060000E+03	8.160319E-18	2.742774E-18
7.070000E+03	8.251929E-18	2.773335E-18
7.080000E+03	8.344974E-18	2.804373E-18
7.090000E+03	8.439447E-18	2.835885E-18
7.100000E+03	8.535170E-18	2.867811E-18
7.110000E+03	8.632300E-18	2.900205E-18
7.120000E+03	8.730656E-18	2.933003E-18
7.130000E+03	8.830221E-18	2.966202E-18
7.140000E+03	8.930974E-18	2.999794E-18
7.150000E+03	9.033083E-18	3.033835E-18
7.160000E+03	9.136163E-18	3.068196E-18
7.170000E+03	9.240177E-18	3.102864E-18
7.180000E+03	9.345492E-18	3.137963E-18
7.190000E+03	9.451692E-18	3.173352E-18
7.200000E+03	9.558748E-18	3.209021E-18
7.210000E+03	9.666826E-18	3.245028E-18
7.220000E+03	9.775696E-18	3.281293E-18
7.230000E+03	9.885319E-18	3.317805E-18
7.240000E+03	9.995660E-18	3.354550E-18
7.250000E+03	1.010668E-17	3.391515E-18
7.260000E+03	1.021855E-17	3.428760E-18
7.270000E+03	1.033079E-17	3.466124E-18
7.280000E+03	1.044381E-17	3.503742E-18
7.290000E+03	1.055734E-17	3.541522E-18
7.300000E+03	1.067133E-17	3.579449E-18
7.310000E+03	1.078596E-17	3.617585E-18
7.320000E+03	1.090096E-17	3.655837E-18
7.330000E+03	1.101651E-17	3.694268E-18
7.340000E+03	1.113258E-17	3.732863E-18
7.350000E+03	1.124936E-17	3.771692E-18
7.360000E+03	1.136683E-17	3.810744E-18
7.370000E+03	1.148520E-17	3.850092E-18
7.380000E+03	1.160419E-17	3.889640E-18
7.390000E+03	1.172457E-17	3.929645E-18
7.400000E+03	1.184633E-17	3.970105E-18
7.410000E+03	1.196919E-17	4.010926E-18
7.420000E+03	1.209398E-17	4.052385E-18
7.430000E+03	1.222042E-17	4.094392E-18
7.440000E+03	1.234881E-17	4.137046E-18
7.450000E+03	1.247889E-17	4.180255E-18
7.460000E+03	1.261096E-17	4.224122E-18
7.470000E+03	1.274412E-17	4.268349E-18
7.480000E+03	1.287898E-17	4.313134E-18
7.490000E+03	1.301460E-17	4.358168E-18
7.500000E+03	1.315127E-17	4.403543E-18
7.510000E+03	1.328864E-17	4.449147E-18
7.520000E+03	1.342636E-17	4.494858E-18
7.530000E+03	1.356470E-17	4.540769E-18
7.540000E+03	1.370263E-17	4.586533E-18
7.550000E+03	1.384073E-17	4.632349E-18
7.560000E+03	1.397862E-17	4.678085E-18
7.570000E+03	1.411623E-17	4.723717E-18
7.580000E+03	1.425312E-17	4.769102E-18
7.590000E+03	1.438958E-17	4.814334E-18
7.600000E+03	1.452516E-17	4.859264E-18
7.610000E+03	1.465978E-17	4.903865E-18
7.620000E+03	1.479372E-17	4.948229E-18
7.630000E+03	1.492652E-17	4.992208E-18
7.640000E+03	1.505848E-17	5.035896E-18
7.650000E+03	1.518876E-17	5.079012E-18
7.660000E+03	1.531801E-17	5.121781E-18
7.670000E+03	1.544578E-17	5.164046E-18
7.680000E+03	1.557237E-17	5.205908E-18
7.690000E+03	1.569729E-17	5.247206E-18
7.700000E+03	1.582046E-17	5.287909E-18
7.710000E+03	1.594177E-17	5.327986E-18
7.720000E+03	1.606196E-17	5.367684E-18
7.730000E+03	1.617971E-17	5.406558E-18
7.740000E+03	1.629618E-17	5.444999E-18
7.750000E+03	1.641045E-17	5.482698E-18
7.760000E+03	1.652287E-17	5.519771E-18
