#wls	flux	fluxerr
1.600000E+03	3.093153E-16	9.280222E-17
1.640000E+03	3.183874E-16	9.552287E-17
1.680000E+03	3.268691E-16	9.806625E-17
1.720000E+03	3.346927E-16	1.004121E-16
1.760000E+03	3.416534E-16	1.024988E-16
1.800000E+03	3.477347E-16	1.043217E-16
1.840000E+03	3.527240E-16	1.058167E-16
1.880000E+03	3.565655E-16	1.069673E-16
1.920000E+03	3.591414E-16	1.077381E-16
1.960000E+03	3.602814E-16	1.080780E-16
2.000000E+03	3.599430E-16	1.079743E-16
2.040000E+03	3.580103E-16	1.073922E-16
2.080000E+03	3.543923E-16	1.063046E-16
2.120000E+03	3.490270E-16	1.046927E-16
2.160000E+03	3.418432E-16	1.025353E-16
2.200000E+03	3.327390E-16	9.980198E-17
2.240000E+03	3.216330E-16	9.646820E-17
2.280000E+03	3.085922E-16	9.255420E-17
2.320000E+03	2.938845E-16	8.814040E-17
2.360000E+03	2.779561E-16	8.336063E-17
2.400000E+03	2.611647E-16	7.832227E-17
2.440000E+03	2.438349E-16	7.312262E-17
2.480000E+03	2.262054E-16	6.783339E-17
2.520000E+03	2.085227E-16	6.252846E-17
2.560000E+03	1.909876E-16	5.726810E-17
2.600000E+03	1.738032E-16	5.211322E-17
2.640000E+03	1.571333E-16	4.711292E-17
2.680000E+03	1.411270E-16	4.231193E-17
2.720000E+03	1.259155E-16	3.774957E-17
2.760000E+03	1.115974E-16	3.345542E-17
2.800000E+03	9.825422E-17	2.945384E-17
2.840000E+03	8.594350E-17	2.576211E-17
2.880000E+03	7.470530E-17	2.239218E-17
2.920000E+03	6.456040E-17	1.935027E-17
2.960000E+03	5.550581E-17	1.663543E-17
3.000000E+03	4.751657E-17	1.424015E-17
3.010000E+03	4.568049E-17	1.368969E-17
3.020000E+03	4.390623E-17	1.315776E-17
3.030000E+03	4.219449E-17	1.264459E-17
3.040000E+03	4.054194E-17	1.214917E-17
3.050000E+03	3.894901E-17	1.167163E-17
3.060000E+03	3.741420E-17	1.121152E-17
3.070000E+03	3.593680E-17	1.076863E-17
3.080000E+03	3.451372E-17	1.034203E-17
3.090000E+03	3.314569E-17	9.931933E-18
3.100000E+03	3.182975E-17	9.537457E-18
3.110000E+03	3.056567E-17	9.158532E-18
3.120000E+03	2.935187E-17	8.794685E-18
3.130000E+03	2.818620E-17	8.445272E-18
3.140000E+03	2.706826E-17	8.110166E-18
3.150000E+03	2.599597E-17	7.788750E-18
3.160000E+03	2.496832E-17	7.480720E-18
3.170000E+03	2.398378E-17	7.185616E-18
3.180000E+03	2.304089E-17	6.902997E-18
3.190000E+03	2.213860E-17	6.632550E-18
3.200000E+03	2.127543E-17	6.373835E-18
3.210000E+03	2.044962E-17	6.126318E-18
3.220000E+03	1.966050E-17	5.889802E-18
3.230000E+03	1.890634E-17	5.663768E-18
3.240000E+03	1.818614E-17	5.447912E-18
3.250000E+03	1.749859E-17	5.241846E-18
3.260000E+03	1.684213E-17	5.045099E-18
3.270000E+03	1.621608E-17	4.857468E-18
3.280000E+03	1.561871E-17	4.678434E-18
3.290000E+03	1.504935E-17	4.507800E-18
3.300000E+03	1.450686E-17	4.345215E-18
3.310000E+03	1.398967E-17	4.190219E-18
3.320000E+03	1.349718E-17	4.042622E-18
3.330000E+03	1.302833E-17	3.902112E-18
3.340000E+03	1.258192E-17	3.768330E-18
3.350000E+03	1.215702E-17	3.640993E-18
3.360000E+03	1.175269E-17	3.519824E-18
3.370000E+03	1.136807E-17	3.404559E-18
3.380000E+03	1.100229E-17	3.294943E-18
3.390000E+03	1.065454E-17	3.190730E-18
3.400000E+03	1.032390E-17	3.091643E-18
3.410000E+03	1.000949E-17	2.997422E-18
3.420000E+03	9.710868E-18	2.907931E-18
3.430000E+03	9.426978E-18	2.822856E-18
3.440000E+03	9.157308E-18	2.742042E-18
3.450000E+03	8.901133E-18	2.665272E-18
3.460000E+03	8.657875E-18	2.592372E-18
3.470000E+03	8.426779E-18	2.523117E-18
3.480000E+03	8.207245E-18	2.457326E-18
3.490000E+03	7.998791E-18	2.394856E-18
3.500000E+03	7.800787E-18	2.335516E-18
3.510000E+03	7.612810E-18	2.279181E-18
3.520000E+03	7.434129E-18	2.225632E-18
3.530000E+03	7.264396E-18	2.174763E-18
3.540000E+03	7.103039E-18	2.126404E-18
3.550000E+03	6.949606E-18	2.080419E-18
3.560000E+03	6.803679E-18	2.036682E-18
3.570000E+03	6.664725E-18	1.995035E-18
3.580000E+03	6.532521E-18	1.955410E-18
3.590000E+03	6.406653E-18	1.917683E-18
3.600000E+03	6.286739E-18	1.881740E-18
3.610000E+03	6.172602E-18	1.847527E-18
3.620000E+03	6.063835E-18	1.814924E-18
3.630000E+03	5.960173E-18	1.783849E-18
3.640000E+03	5.861366E-18	1.754229E-18
3.650000E+03	5.767175E-18	1.725991E-18
3.660000E+03	5.677372E-18	1.699067E-18
3.670000E+03	5.591742E-18	1.673394E-18
3.680000E+03	5.510131E-18	1.648924E-18
3.690000E+03	5.432385E-18	1.625612E-18
3.700000E+03	5.358310E-18	1.603400E-18
3.710000E+03	5.287904E-18	1.582286E-18
3.720000E+03	5.220929E-18	1.562199E-18
3.730000E+03	5.157343E-18	1.543127E-18
3.740000E+03	5.097002E-18	1.525028E-18
3.750000E+03	5.039821E-18	1.507874E-18
3.760000E+03	4.985793E-18	1.491664E-18
3.770000E+03	4.934699E-18	1.476332E-18
3.780000E+03	4.886535E-18	1.461878E-18
3.790000E+03	4.841254E-18	1.448287E-18
3.800000E+03	4.798688E-18	1.435508E-18
3.810000E+03	4.758831E-18	1.423540E-18
3.820000E+03	4.721637E-18	1.412369E-18
3.830000E+03	4.686984E-18	1.401958E-18
3.840000E+03	4.654787E-18	1.392282E-18
3.850000E+03	4.625079E-18	1.383351E-18
3.860000E+03	4.597708E-18	1.375119E-18
3.870000E+03	4.572666E-18	1.367584E-18
3.880000E+03	4.549877E-18	1.360723E-18
3.890000E+03	4.529303E-18	1.354524E-18
3.900000E+03	4.510903E-18	1.348976E-18
3.910000E+03	4.494570E-18	1.344045E-18
3.920000E+03	4.480267E-18	1.339722E-18
3.930000E+03	4.467998E-18	1.336007E-18
3.940000E+03	4.457693E-18	1.332878E-18
3.950000E+03	4.449283E-18	1.330316E-18
3.960000E+03	4.442738E-18	1.328312E-18
3.970000E+03	4.437996E-18	1.326846E-18
3.980000E+03	4.435029E-18	1.325911E-18
3.990000E+03	4.433807E-18	1.325498E-18
4.000000E+03	4.434310E-18	1.325599E-18
4.010000E+03	4.436440E-18	1.326186E-18
4.020000E+03	4.440178E-18	1.327254E-18
4.030000E+03	4.445500E-18	1.328795E-18
4.040000E+03	4.452386E-18	1.330802E-18
4.050000E+03	4.460784E-18	1.333261E-18
4.060000E+03	4.470640E-18	1.336155E-18
4.070000E+03	4.481940E-18	1.339480E-18
4.080000E+03	4.494629E-18	1.343219E-18
4.090000E+03	4.508697E-18	1.347370E-18
4.100000E+03	4.524094E-18	1.351917E-18
4.110000E+03	4.540808E-18	1.356857E-18
4.120000E+03	4.558791E-18	1.362175E-18
4.130000E+03	4.578000E-18	1.367859E-18
4.140000E+03	4.598422E-18	1.373904E-18
4.150000E+03	4.620015E-18	1.380298E-18
4.160000E+03	4.642772E-18	1.387039E-18
4.170000E+03	4.666612E-18	1.394102E-18
4.180000E+03	4.691530E-18	1.401486E-18
4.190000E+03	4.717446E-18	1.409168E-18
4.200000E+03	4.744392E-18	1.417155E-18
4.210000E+03	4.772293E-18	1.425427E-18
4.220000E+03	4.801141E-18	1.433981E-18
4.230000E+03	4.830822E-18	1.442782E-18
4.240000E+03	4.861367E-18	1.451839E-18
4.250000E+03	4.892666E-18	1.461121E-18
4.260000E+03	4.924746E-18	1.470634E-18
4.270000E+03	4.957495E-18	1.480346E-18
4.280000E+03	4.990828E-18	1.490231E-18
4.290000E+03	5.024781E-18	1.500299E-18
4.300000E+03	5.059192E-18	1.510503E-18
4.310000E+03	5.094098E-18	1.520853E-18
4.320000E+03	5.129331E-18	1.531299E-18
4.330000E+03	5.164928E-18	1.541852E-18
4.340000E+03	5.200797E-18	1.552485E-18
4.350000E+03	5.236855E-18	1.563173E-18
4.360000E+03	5.273090E-18	1.573911E-18
4.370000E+03	5.309455E-18	1.584687E-18
4.380000E+03	5.345987E-18	1.595511E-18
4.390000E+03	5.382594E-18	1.606356E-18
4.400000E+03	5.419357E-18	1.617245E-18
4.410000E+03	5.456274E-18	1.628179E-18
4.420000E+03	5.493348E-18	1.639158E-18
4.430000E+03	5.530578E-18	1.650182E-18
4.440000E+03	5.568010E-18	1.661264E-18
4.450000E+03	5.605607E-18	1.672393E-18
4.460000E+03	5.643420E-18	1.683586E-18
4.470000E+03	5.681456E-18	1.694842E-18
4.480000E+03	5.719726E-18	1.706167E-18
4.490000E+03	5.758193E-18	1.717548E-18
4.500000E+03	5.796873E-18	1.728991E-18
4.510000E+03	5.835727E-18	1.740484E-18
4.520000E+03	5.874821E-18	1.752047E-18
4.530000E+03	5.914074E-18	1.763655E-18
4.540000E+03	5.953503E-18	1.775313E-18
4.550000E+03	5.993128E-18	1.787028E-18
4.560000E+03	6.032870E-18	1.798775E-18
4.570000E+03	6.072800E-18	1.810577E-18
4.580000E+03	6.112840E-18	1.822409E-18
4.590000E+03	6.153017E-18	1.834280E-18
4.600000E+03	6.193251E-18	1.846165E-18
4.610000E+03	6.233623E-18	1.858090E-18
4.620000E+03	6.274112E-18	1.870047E-18
4.630000E+03	6.314642E-18	1.882014E-18
4.640000E+03	6.355247E-18	1.894001E-18
4.650000E+03	6.395966E-18	1.906020E-18
4.660000E+03	6.436780E-18	1.918064E-18
4.670000E+03	6.477621E-18	1.930114E-18
4.680000E+03	6.518643E-18	1.942216E-18
4.690000E+03	6.559898E-18	1.954385E-18
4.700000E+03	6.601323E-18	1.966602E-18
4.710000E+03	6.642968E-18	1.978882E-18
4.720000E+03	6.684893E-18	1.991243E-18
4.730000E+03	6.726975E-18	2.003648E-18
4.740000E+03	6.769275E-18	2.016115E-18
4.750000E+03	6.811731E-18	2.028627E-18
4.760000E+03	6.854407E-18	2.041201E-18
4.770000E+03	6.897306E-18	2.053839E-18
4.780000E+03	6.940370E-18	2.066523E-18
4.790000E+03	6.983666E-18	2.079273E-18
4.800000E+03	7.027137E-18	2.092073E-18
4.810000E+03	7.070853E-18	2.104943E-18
4.820000E+03	7.114758E-18	2.117866E-18
4.830000E+03	7.158859E-18	2.130845E-18
4.840000E+03	7.203165E-18	2.143882E-18
4.850000E+03	7.247749E-18	2.156999E-18
4.860000E+03	7.292556E-18	2.170179E-18
4.870000E+03	7.337592E-18	2.183424E-18
4.880000E+03	7.382802E-18	2.196717E-18
4.890000E+03	7.428326E-18	2.210102E-18
4.900000E+03	7.474108E-18	2.223559E-18
4.910000E+03	7.520158E-18	2.237094E-18
4.920000E+03	7.566408E-18	2.250684E-18
4.930000E+03	7.612940E-18	2.264355E-18
4.940000E+03	7.659684E-18	2.278086E-18
4.950000E+03	7.706649E-18	2.291879E-18
4.960000E+03	7.753910E-18	2.305757E-18
4.970000E+03	7.801398E-18	2.319699E-18
4.980000E+03	7.849114E-18	2.333705E-18
4.990000E+03	7.896985E-18	2.347754E-18
5.000000E+03	7.945084E-18	2.361867E-18
5.010000E+03	7.993412E-18	2.376044E-18
5.020000E+03	8.041886E-18	2.390261E-18
5.030000E+03	8.090505E-18	2.404517E-18
5.040000E+03	8.139259E-18	2.418810E-18
5.050000E+03	8.188065E-18	2.433115E-18
5.060000E+03	8.236990E-18	2.447451E-18
5.070000E+03	8.286024E-18	2.461816E-18
5.080000E+03	8.334997E-18	2.476158E-18
5.090000E+03	8.383969E-18	2.490497E-18
5.100000E+03	8.432931E-18	2.504829E-18
5.110000E+03	8.481778E-18	2.519122E-18
5.120000E+03	8.530493E-18	2.533372E-18
5.130000E+03	8.579051E-18	2.547572E-18
5.140000E+03	8.627430E-18	2.561714E-18
5.150000E+03	8.675518E-18	2.575766E-18
5.160000E+03	8.723374E-18	2.589745E-18
5.170000E+03	8.770792E-18	2.603590E-18
5.180000E+03	8.817827E-18	2.617316E-18
5.190000E+03	8.864352E-18	2.630888E-18
5.200000E+03	8.910333E-18	2.644293E-18
5.210000E+03	8.955724E-18	2.657520E-18
5.220000E+03	9.000484E-18	2.670555E-18
5.230000E+03	9.044387E-18	2.683332E-18
5.240000E+03	9.087562E-18	2.695888E-18
5.250000E+03	9.129869E-18	2.708183E-18
5.260000E+03	9.171256E-18	2.720201E-18
5.270000E+03	9.211578E-18	2.731899E-18
5.280000E+03	9.250780E-18	2.743261E-18
5.290000E+03	9.288804E-18	2.754269E-18
5.300000E+03	9.325594E-18	2.764908E-18
5.310000E+03	9.361095E-18	2.775160E-18
5.320000E+03	9.395158E-18	2.784982E-18
5.330000E+03	9.427915E-18	2.794413E-18
5.340000E+03	9.459127E-18	2.803383E-18
5.350000E+03	9.488742E-18	2.811875E-18
5.360000E+03	9.516903E-18	2.819933E-18
5.370000E+03	9.543373E-18	2.827486E-18
5.380000E+03	9.568304E-18	2.834580E-18
5.390000E+03	9.591560E-18	2.841174E-18
5.400000E+03	9.613205E-18	2.847288E-18
5.410000E+03	9.633113E-18	2.852884E-18
5.420000E+03	9.651450E-18	2.858011E-18
5.430000E+03	9.668103E-18	2.862637E-18
5.440000E+03	9.683151E-18	2.866784E-18
5.450000E+03	9.696388E-18	2.870392E-18
5.460000E+03	9.707903E-18	2.873488E-18
5.470000E+03	9.717599E-18	2.876042E-18
5.480000E+03	9.725378E-18	2.878026E-18
5.490000E+03	9.731341E-18	2.879471E-18
5.500000E+03	9.735306E-18	2.880322E-18
5.510000E+03	9.737183E-18	2.880553E-18
5.520000E+03	9.736994E-18	2.880170E-18
5.530000E+03	9.734559E-18	2.879121E-18
5.540000E+03	9.730001E-18	2.877442E-18
5.550000E+03	9.723053E-18	2.875055E-18
5.560000E+03	9.713945E-18	2.872027E-18
5.570000E+03	9.702607E-18	2.868338E-18
5.580000E+03	9.688979E-18	2.863972E-18
5.590000E+03	9.673103E-18	2.858940E-18
5.600000E+03	9.655017E-18	2.853253E-18
5.610000E+03	9.634668E-18	2.846897E-18
5.620000E+03	9.612299E-18	2.839943E-18
5.630000E+03	9.587761E-18	2.832348E-18
5.640000E+03	9.561299E-18	2.824185E-18
5.650000E+03	9.532769E-18	2.815410E-18
5.660000E+03	9.502421E-18	2.806098E-18
5.670000E+03	9.470306E-18	2.796265E-18
5.680000E+03	9.436385E-18	2.785898E-18
5.690000E+03	9.400814E-18	2.775045E-18
5.700000E+03	9.363649E-18	2.763722E-18
5.710000E+03	9.325049E-18	2.751976E-18
5.720000E+03	9.285073E-18	2.739825E-18
5.730000E+03	9.243690E-18	2.727259E-18
5.740000E+03	9.201155E-18	2.714355E-18
5.750000E+03	9.157537E-18	2.701132E-18
5.760000E+03	9.112805E-18	2.687582E-18
5.770000E+03	9.067124E-18	2.673753E-18
5.780000E+03	9.020660E-18	2.659695E-18
5.790000E+03	8.973485E-18	2.645429E-18
5.800000E+03	8.925575E-18	2.630947E-18
5.810000E+03	8.877101E-18	2.616302E-18
5.820000E+03	8.828231E-18	2.601541E-18
5.830000E+03	8.779043E-18	2.586688E-18
5.840000E+03	8.729514E-18	2.571737E-18
5.850000E+03	8.679821E-18	2.556739E-18
5.860000E+03	8.630040E-18	2.541718E-18
5.870000E+03	8.580339E-18	2.526722E-18
5.880000E+03	8.530798E-18	2.511775E-18
5.890000E+03	8.481398E-18	2.496872E-18
5.900000E+03	8.432309E-18	2.482062E-18
5.910000E+03	8.383509E-18	2.467339E-18
5.920000E+03	8.335354E-18	2.452809E-18
5.930000E+03	8.287633E-18	2.438408E-18
5.940000E+03	8.240511E-18	2.424185E-18
5.950000E+03	8.194146E-18	2.410187E-18
5.960000E+03	8.148512E-18	2.396406E-18
5.970000E+03	8.103668E-18	2.382859E-18
5.980000E+03	8.059768E-18	2.369591E-18
5.990000E+03	8.016777E-18	2.356593E-18
6.000000E+03	7.974840E-18	2.343906E-18
6.010000E+03	7.933823E-18	2.331492E-18
6.020000E+03	7.893960E-18	2.319417E-18
6.030000E+03	7.855109E-18	2.307643E-18
6.040000E+03	7.817501E-18	2.296234E-18
6.050000E+03	7.780892E-18	2.285120E-18
6.060000E+03	7.745507E-18	2.274368E-18
6.070000E+03	7.711286E-18	2.263958E-18
6.080000E+03	7.678255E-18	2.253899E-18
6.090000E+03	7.646261E-18	2.244145E-18
6.100000E+03	7.615513E-18	2.234757E-18
6.110000E+03	7.585750E-18	2.225660E-18
6.120000E+03	7.557179E-18	2.216914E-18
6.130000E+03	7.529538E-18	2.208440E-18
6.140000E+03	7.502837E-18	2.200243E-18
6.150000E+03	7.476995E-18	2.192299E-18
6.160000E+03	7.452014E-18	2.184608E-18
6.170000E+03	7.427623E-18	2.177090E-18
6.180000E+03	7.403817E-18	2.169744E-18
6.190000E+03	7.380501E-18	2.162541E-18
6.200000E+03	7.357665E-18	2.155480E-18
6.210000E+03	7.335296E-18	2.148556E-18
6.220000E+03	7.313567E-18	2.141820E-18
6.230000E+03	7.292748E-18	2.135350E-18
6.240000E+03	7.272916E-18	2.129170E-18
6.250000E+03	7.254245E-18	2.123329E-18
6.260000E+03	7.236911E-18	2.117879E-18
6.270000E+03	7.220994E-18	2.112845E-18
6.280000E+03	7.206673E-18	2.108276E-18
6.290000E+03	7.194032E-18	2.104199E-18
6.300000E+03	7.183158E-18	2.100638E-18
6.310000E+03	7.174235E-18	2.097646E-18
6.320000E+03	7.167257E-18	2.095222E-18
6.330000E+03	7.162415E-18	2.093421E-18
6.340000E+03	7.159606E-18	2.092213E-18
6.350000E+03	7.158928E-18	2.091625E-18
6.360000E+03	7.160379E-18	2.091658E-18
6.370000E+03	7.164062E-18	2.092340E-18
6.380000E+03	7.169875E-18	2.093643E-18
6.390000E+03	7.177822E-18	2.095565E-18
6.400000E+03	7.187802E-18	2.098078E-18
6.410000E+03	7.199606E-18	2.101120E-18
6.420000E+03	7.213125E-18	2.104660E-18
6.430000E+03	7.228357E-18	2.108696E-18
6.440000E+03	7.245296E-18	2.113225E-18
6.450000E+03	7.263938E-18	2.118248E-18
6.460000E+03	7.284386E-18	2.123793E-18
6.470000E+03	7.306754E-18	2.129893E-18
6.480000E+03	7.331040E-18	2.136548E-18
6.490000E+03	7.357140E-18	2.143726E-18
6.500000E+03	7.385280E-18	2.151494E-18
6.510000E+03	7.415468E-18	2.159852E-18
6.520000E+03	7.447600E-18	2.168772E-18
6.530000E+03	7.481800E-18	2.178287E-18
6.540000E+03	7.518078E-18	2.188402E-18
6.550000E+03	7.556329E-18	2.199084E-18
6.560000E+03	7.596565E-18	2.210337E-18
6.570000E+03	7.639036E-18	2.222234E-18
6.580000E+03	7.683396E-18	2.234672E-18
6.590000E+03	7.729900E-18	2.247726E-18
6.600000E+03	7.778568E-18	2.261402E-18
6.610000E+03	7.829164E-18	2.275631E-18
6.620000E+03	7.881954E-18	2.290488E-18
6.630000E+03	7.936701E-18	2.305905E-18
6.640000E+03	7.993681E-18	2.321962E-18
6.650000E+03	8.052648E-18	2.338587E-18
6.660000E+03	8.113751E-18	2.355823E-18
6.670000E+03	8.177011E-18	2.373675E-18
6.680000E+03	8.242311E-18	2.392108E-18
6.690000E+03	8.309664E-18	2.411127E-18
6.700000E+03	8.379232E-18	2.430778E-18
6.710000E+03	8.450893E-18	2.451024E-18
6.720000E+03	8.524665E-18	2.471872E-18
6.730000E+03	8.600566E-18	2.493324E-18
6.740000E+03	8.678619E-18	2.515389E-18
6.750000E+03	8.758843E-18	2.538070E-18
6.760000E+03	8.841258E-18	2.561373E-18
6.770000E+03	8.925730E-18	2.585258E-18
6.780000E+03	9.012434E-18	2.609777E-18
6.790000E+03	9.101395E-18	2.634935E-18
6.800000E+03	9.192470E-18	2.660691E-18
6.810000E+03	9.285844E-18	2.687098E-18
6.820000E+03	9.381375E-18	2.714114E-18
6.830000E+03	9.479081E-18	2.741743E-18
6.840000E+03	9.578977E-18	2.769991E-18
6.850000E+03	9.681089E-18	2.798863E-18
6.860000E+03	9.785610E-18	2.828416E-18
6.870000E+03	9.892206E-18	2.858551E-18
6.880000E+03	1.000107E-17	2.889325E-18
6.890000E+03	1.011223E-17	2.920744E-18
6.900000E+03	1.022551E-17	2.952758E-18
6.910000E+03	1.034112E-17	2.985425E-18
6.920000E+03	1.045908E-17	3.018752E-18
6.930000E+03	1.057920E-17	3.052686E-18
6.940000E+03	1.070151E-17	3.087230E-18
6.950000E+03	1.082621E-17	3.122445E-18
6.960000E+03	1.095313E-17	3.158278E-18
6.970000E+03	1.108227E-17	3.194731E-18
6.980000E+03	1.121363E-17	3.231806E-18
6.990000E+03	1.134724E-17	3.269506E-18
7.000000E+03	1.148288E-17	3.307768E-18
7.010000E+03	1.162100E-17	3.346722E-18
7.020000E+03	1.176115E-17	3.386242E-18
7.030000E+03	1.190358E-17	3.426392E-18
7.040000E+03	1.204805E-17	3.467107E-18
7.050000E+03	1.219456E-17	3.508384E-18
7.060000E+03	1.234334E-17	3.550292E-18
7.070000E+03	1.249416E-17	3.592761E-18
7.080000E+03	1.264675E-17	3.635714E-18
7.090000E+03	1.280161E-17	3.679295E-18
7.100000E+03	1.295848E-17	3.723427E-18
7.110000E+03	1.311708E-17	3.768031E-18
7.120000E+03	1.327766E-17	3.813178E-18
7.130000E+03	1.343993E-17	3.858784E-18
7.140000E+03	1.360414E-17	3.904921E-18
7.150000E+03	1.377000E-17	3.951503E-18
7.160000E+03	1.393777E-17	3.998604E-18
7.170000E+03	1.410683E-17	4.046049E-18
7.180000E+03	1.427744E-17	4.093911E-18
7.190000E+03	1.444986E-17	4.142264E-18
7.200000E+03	1.462347E-17	4.190927E-18
7.210000E+03	1.479820E-17	4.239883E-18
7.220000E+03	1.497432E-17	4.289208E-18
7.230000E+03	1.515177E-17	4.338887E-18
7.240000E+03	1.533020E-17	4.388815E-18
7.250000E+03	1.550987E-17	4.439068E-18
7.260000E+03	1.569040E-17	4.489536E-18
7.270000E+03	1.587171E-17	4.540198E-18
7.280000E+03	1.605409E-17	4.591136E-18
7.290000E+03	1.623713E-17	4.642231E-18
7.300000E+03	1.642111E-17	4.693566E-18
7.310000E+03	1.660562E-17	4.745019E-18
7.320000E+03	1.679057E-17	4.796569E-18
7.330000E+03	1.697664E-17	4.848409E-18
7.340000E+03	1.716303E-17	4.900306E-18
7.350000E+03	1.735043E-17	4.952460E-18
7.360000E+03	1.753839E-17	5.004745E-18
7.370000E+03	1.772725E-17	5.057254E-18
7.380000E+03	1.791739E-17	5.110096E-18
7.390000E+03	1.810834E-17	5.163136E-18
7.400000E+03	1.830090E-17	5.216607E-18
7.410000E+03	1.849507E-17	5.270501E-18
7.420000E+03	1.869127E-17	5.324940E-18
7.430000E+03	1.888950E-17	5.379928E-18
7.440000E+03	1.908979E-17	5.435468E-18
7.450000E+03	1.929260E-17	5.491691E-18
7.460000E+03	1.949707E-17	5.548354E-18
7.470000E+03	1.970318E-17	5.605448E-18
7.480000E+03	1.991050E-17	5.662853E-18
7.490000E+03	2.011946E-17	5.720692E-18
7.500000E+03	2.032961E-17	5.778831E-18
7.510000E+03	2.054042E-17	5.837126E-18
7.520000E+03	2.075187E-17	5.895567E-18
7.530000E+03	2.096394E-17	5.954149E-18
7.540000E+03	2.117608E-17	6.012714E-18
7.550000E+03	2.138873E-17	6.071392E-18
7.560000E+03	2.160082E-17	6.129876E-18
7.570000E+03	2.181333E-17	6.188445E-18
7.580000E+03	2.202565E-17	6.246925E-18
7.590000E+03	2.223773E-17	6.305304E-18
7.600000E+03	2.244896E-17	6.363405E-18
7.610000E+03	2.265976E-17	6.421352E-18
7.620000E+03	2.287005E-17	6.479122E-18
7.630000E+03	2.307975E-17	6.536687E-18
7.640000E+03	2.328816E-17	6.593857E-18
7.650000E+03	2.349573E-17	6.650757E-18
7.660000E+03	2.370176E-17	6.707186E-18
7.670000E+03	2.390727E-17	6.763437E-18
7.680000E+03	2.411037E-17	6.818976E-18
7.690000E+03	2.431269E-17	6.874261E-18
7.700000E+03	2.451347E-17	6.929080E-18
7.710000E+03	2.471196E-17	6.983218E-18
7.720000E+03	2.490856E-17	7.036797E-18
7.730000E+03	2.510313E-17	7.089768E-18
7.740000E+03	2.529547E-17	7.142082E-18
7.750000E+03	2.548541E-17	7.193692E-18
7.760000E+03	2.567344E-17	7.244731E-18
