#wls	flux	fluxerr
1.600000E+03	1.196276E-16	5.692644E-17
1.640000E+03	1.236955E-16	5.885025E-17
1.680000E+03	1.276848E-16	6.073539E-17
1.720000E+03	1.315415E-16	6.255616E-17
1.760000E+03	1.352577E-16	6.430880E-17
1.800000E+03	1.387713E-16	6.596379E-17
1.840000E+03	1.420417E-16	6.750182E-17
1.880000E+03	1.450487E-16	6.891335E-17
1.920000E+03	1.477209E-16	7.016443E-17
1.960000E+03	1.500205E-16	7.123730E-17
2.000000E+03	1.518857E-16	7.210270E-17
2.040000E+03	1.532781E-16	7.274246E-17
2.080000E+03	1.541177E-16	7.311885E-17
2.120000E+03	1.543431E-16	7.320297E-17
2.160000E+03	1.538926E-16	7.296579E-17
2.200000E+03	1.526729E-16	7.236337E-17
2.240000E+03	1.506073E-16	7.135975E-17
2.280000E+03	1.476814E-16	6.994858E-17
2.320000E+03	1.439342E-16	6.814875E-17
2.360000E+03	1.394957E-16	6.602227E-17
2.400000E+03	1.344735E-16	6.362044E-17
2.440000E+03	1.289626E-16	6.098864E-17
2.480000E+03	1.230641E-16	5.817499E-17
2.520000E+03	1.168411E-16	5.520962E-17
2.560000E+03	1.103683E-16	5.212816E-17
2.600000E+03	1.037116E-16	4.896191E-17
2.640000E+03	9.694200E-17	4.574463E-17
2.680000E+03	9.012037E-17	4.250524E-17
2.720000E+03	8.331035E-17	3.927387E-17
2.760000E+03	7.657395E-17	3.607987E-17
2.800000E+03	6.997113E-17	3.295154E-17
2.840000E+03	6.356074E-17	2.991661E-17
2.880000E+03	5.740121E-17	2.700255E-17
2.920000E+03	5.154620E-17	2.423449E-17
2.960000E+03	4.604383E-17	2.163495E-17
3.000000E+03	4.093210E-17	1.922156E-17
3.010000E+03	3.971961E-17	1.864935E-17
3.020000E+03	3.853257E-17	1.808924E-17
3.030000E+03	3.737279E-17	1.754207E-17
3.040000E+03	3.623940E-17	1.700745E-17
3.050000E+03	3.513318E-17	1.648572E-17
3.060000E+03	3.405476E-17	1.597718E-17
3.070000E+03	3.300255E-17	1.548108E-17
3.080000E+03	3.197850E-17	1.499833E-17
3.090000E+03	3.098108E-17	1.452820E-17
3.100000E+03	3.001133E-17	1.407119E-17
3.110000E+03	2.906836E-17	1.362686E-17
3.120000E+03	2.815197E-17	1.319512E-17
3.130000E+03	2.726295E-17	1.277633E-17
3.140000E+03	2.639990E-17	1.236983E-17
3.150000E+03	2.556399E-17	1.197618E-17
3.160000E+03	2.475340E-17	1.159449E-17
3.170000E+03	2.396913E-17	1.122526E-17
3.180000E+03	2.320990E-17	1.086785E-17
3.190000E+03	2.247614E-17	1.052248E-17
3.200000E+03	2.176696E-17	1.018873E-17
3.210000E+03	2.108233E-17	9.866566E-18
3.220000E+03	2.042174E-17	9.555755E-18
3.230000E+03	1.978469E-17	9.256054E-18
3.240000E+03	1.917038E-17	8.967084E-18
3.250000E+03	1.857896E-17	8.688907E-18
3.260000E+03	1.800957E-17	8.421123E-18
3.270000E+03	1.746198E-17	8.163617E-18
3.280000E+03	1.693538E-17	7.916009E-18
3.290000E+03	1.642926E-17	7.678046E-18
3.300000E+03	1.594331E-17	7.449592E-18
3.310000E+03	1.547679E-17	7.230286E-18
3.320000E+03	1.502937E-17	7.019972E-18
3.330000E+03	1.460050E-17	6.818393E-18
3.340000E+03	1.418924E-17	6.625102E-18
3.350000E+03	1.379549E-17	6.440051E-18
3.360000E+03	1.341851E-17	6.262893E-18
3.370000E+03	1.305782E-17	6.093392E-18
3.380000E+03	1.271290E-17	5.931307E-18
3.390000E+03	1.238293E-17	5.776251E-18
3.400000E+03	1.206777E-17	5.628155E-18
3.410000E+03	1.176681E-17	5.486733E-18
3.420000E+03	1.147944E-17	5.351691E-18
3.430000E+03	1.120522E-17	5.222828E-18
3.440000E+03	1.094375E-17	5.099953E-18
3.450000E+03	1.069436E-17	4.982745E-18
3.460000E+03	1.045679E-17	4.871087E-18
3.470000E+03	1.023043E-17	4.764687E-18
3.480000E+03	1.001494E-17	4.663384E-18
3.490000E+03	9.809854E-18	4.566964E-18
3.500000E+03	9.614764E-18	4.475229E-18
3.510000E+03	9.429261E-18	4.387989E-18
3.520000E+03	9.252965E-18	4.305062E-18
3.530000E+03	9.085414E-18	4.226232E-18
3.540000E+03	8.926176E-18	4.151296E-18
3.550000E+03	8.774941E-18	4.080108E-18
3.560000E+03	8.631325E-18	4.012487E-18
3.570000E+03	8.495054E-18	3.948303E-18
3.580000E+03	8.365695E-18	3.887354E-18
3.590000E+03	8.243014E-18	3.829529E-18
3.600000E+03	8.126704E-18	3.774683E-18
3.610000E+03	8.016636E-18	3.722755E-18
3.620000E+03	7.912446E-18	3.673574E-18
3.630000E+03	7.813950E-18	3.627053E-18
3.640000E+03	7.720740E-18	3.583002E-18
3.650000E+03	7.632659E-18	3.541345E-18
3.660000E+03	7.549482E-18	3.501977E-18
3.670000E+03	7.470991E-18	3.464797E-18
3.680000E+03	7.397051E-18	3.429738E-18
3.690000E+03	7.327526E-18	3.396737E-18
3.700000E+03	7.262218E-18	3.365702E-18
3.710000E+03	7.201067E-18	3.336604E-18
3.720000E+03	7.143884E-18	3.309352E-18
3.730000E+03	7.090674E-18	3.283949E-18
3.740000E+03	7.041311E-18	3.260336E-18
3.750000E+03	6.995676E-18	3.238455E-18
3.760000E+03	6.953709E-18	3.218278E-18
3.770000E+03	6.915408E-18	3.199803E-18
3.780000E+03	6.880654E-18	3.182973E-18
3.790000E+03	6.849443E-18	3.167786E-18
3.800000E+03	6.821654E-18	3.154185E-18
3.810000E+03	6.797227E-18	3.142141E-18
3.820000E+03	6.776156E-18	3.131650E-18
3.830000E+03	6.758437E-18	3.122708E-18
3.840000E+03	6.743949E-18	3.115260E-18
3.850000E+03	6.732742E-18	3.109327E-18
3.860000E+03	6.724641E-18	3.104827E-18
3.870000E+03	6.719748E-18	3.101807E-18
3.880000E+03	6.717895E-18	3.100187E-18
3.890000E+03	6.719180E-18	3.100012E-18
3.900000E+03	6.723488E-18	3.101228E-18
3.910000E+03	6.730810E-18	3.103829E-18
3.920000E+03	6.741085E-18	3.107786E-18
3.930000E+03	6.754304E-18	3.113095E-18
3.940000E+03	6.770408E-18	3.119727E-18
3.950000E+03	6.789441E-18	3.127701E-18
3.960000E+03	6.811292E-18	3.136965E-18
3.970000E+03	6.835950E-18	3.147513E-18
3.980000E+03	6.863358E-18	3.159317E-18
3.990000E+03	6.893561E-18	3.172398E-18
4.000000E+03	6.926504E-18	3.186729E-18
4.010000E+03	6.962125E-18	3.202280E-18
4.020000E+03	7.000364E-18	3.219024E-18
4.030000E+03	7.041275E-18	3.236983E-18
4.040000E+03	7.084743E-18	3.256104E-18
4.050000E+03	7.130823E-18	3.276411E-18
4.060000E+03	7.179401E-18	3.297850E-18
4.070000E+03	7.230476E-18	3.320421E-18
4.080000E+03	7.284050E-18	3.344124E-18
4.090000E+03	7.340069E-18	3.368931E-18
4.100000E+03	7.398475E-18	3.394817E-18
4.110000E+03	7.459217E-18	3.421756E-18
4.120000E+03	7.522355E-18	3.449775E-18
4.130000E+03	7.587780E-18	3.478823E-18
4.140000E+03	7.655499E-18	3.508902E-18
4.150000E+03	7.725399E-18	3.539960E-18
4.160000E+03	7.797488E-18	3.571999E-18
4.170000E+03	7.871778E-18	3.605025E-18
4.180000E+03	7.948155E-18	3.638983E-18
4.190000E+03	8.026635E-18	3.673881E-18
4.200000E+03	8.107101E-18	3.709663E-18
4.210000E+03	8.189568E-18	3.746335E-18
4.220000E+03	8.273919E-18	3.783845E-18
4.230000E+03	8.360171E-18	3.822197E-18
4.240000E+03	8.448205E-18	3.861338E-18
4.250000E+03	8.537967E-18	3.901242E-18
4.260000E+03	8.629337E-18	3.941852E-18
4.270000E+03	8.722326E-18	3.983173E-18
4.280000E+03	8.816807E-18	4.025147E-18
4.290000E+03	8.912720E-18	4.067746E-18
4.300000E+03	9.009934E-18	4.110909E-18
4.310000E+03	9.108307E-18	4.154570E-18
4.320000E+03	9.207772E-18	4.198699E-18
4.330000E+03	9.308254E-18	4.243260E-18
4.340000E+03	9.409601E-18	4.288184E-18
4.350000E+03	9.511731E-18	4.333434E-18
4.360000E+03	9.614482E-18	4.378934E-18
4.370000E+03	9.717842E-18	4.424679E-18
4.380000E+03	9.821716E-18	4.470626E-18
4.390000E+03	9.926251E-18	4.516840E-18
4.400000E+03	1.003135E-17	4.563280E-18
4.410000E+03	1.013710E-17	4.609978E-18
4.420000E+03	1.024347E-17	4.656928E-18
4.430000E+03	1.035063E-17	4.704205E-18
4.440000E+03	1.045851E-17	4.751768E-18
4.450000E+03	1.056708E-17	4.799617E-18
4.460000E+03	1.067645E-17	4.847791E-18
4.470000E+03	1.078663E-17	4.896295E-18
4.480000E+03	1.089761E-17	4.945131E-18
4.490000E+03	1.100932E-17	4.994262E-18
4.500000E+03	1.112187E-17	5.043736E-18
4.510000E+03	1.123518E-17	5.093518E-18
4.520000E+03	1.134928E-17	5.143619E-18
4.530000E+03	1.146416E-17	5.194041E-18
4.540000E+03	1.157969E-17	5.244716E-18
4.550000E+03	1.169596E-17	5.295691E-18
4.560000E+03	1.181294E-17	5.346945E-18
4.570000E+03	1.193062E-17	5.398479E-18
4.580000E+03	1.204886E-17	5.450228E-18
4.590000E+03	1.216779E-17	5.502251E-18
4.600000E+03	1.228727E-17	5.554479E-18
4.610000E+03	1.240742E-17	5.606972E-18
4.620000E+03	1.252809E-17	5.659659E-18
4.630000E+03	1.264937E-17	5.712577E-18
4.640000E+03	1.277116E-17	5.765689E-18
4.650000E+03	1.289367E-17	5.819082E-18
4.660000E+03	1.301675E-17	5.872690E-18
4.670000E+03	1.314058E-17	5.926596E-18
4.680000E+03	1.326517E-17	5.980798E-18
4.690000E+03	1.339047E-17	6.035276E-18
4.700000E+03	1.351670E-17	6.090133E-18
4.710000E+03	1.364373E-17	6.145307E-18
4.720000E+03	1.377169E-17	6.200855E-18
4.730000E+03	1.390045E-17	6.256715E-18
4.740000E+03	1.403012E-17	6.312939E-18
4.750000E+03	1.416044E-17	6.369414E-18
4.760000E+03	1.429156E-17	6.426198E-18
4.770000E+03	1.442333E-17	6.483228E-18
4.780000E+03	1.455589E-17	6.540567E-18
4.790000E+03	1.468911E-17	6.598157E-18
4.800000E+03	1.482300E-17	6.655995E-18
4.810000E+03	1.495754E-17	6.714081E-18
4.820000E+03	1.509274E-17	6.772413E-18
4.830000E+03	1.522861E-17	6.830994E-18
4.840000E+03	1.536500E-17	6.889760E-18
4.850000E+03	1.550205E-17	6.948770E-18
4.860000E+03	1.563975E-17	7.008022E-18
4.870000E+03	1.577794E-17	7.067446E-18
4.880000E+03	1.591661E-17	7.127031E-18
4.890000E+03	1.605591E-17	7.186844E-18
4.900000E+03	1.619548E-17	7.246727E-18
4.910000E+03	1.633561E-17	7.306812E-18
4.920000E+03	1.647612E-17	7.367009E-18
4.930000E+03	1.661679E-17	7.427225E-18
4.940000E+03	1.675773E-17	7.487511E-18
4.950000E+03	1.689890E-17	7.547843E-18
4.960000E+03	1.704003E-17	7.608108E-18
4.970000E+03	1.718123E-17	7.668347E-18
4.980000E+03	1.732208E-17	7.728372E-18
4.990000E+03	1.746279E-17	7.788285E-18
5.000000E+03	1.760309E-17	7.847959E-18
5.010000E+03	1.774267E-17	7.907257E-18
5.020000E+03	1.788159E-17	7.966203E-18
5.030000E+03	1.801948E-17	8.024641E-18
5.040000E+03	1.815620E-17	8.082500E-18
5.050000E+03	1.829156E-17	8.139703E-18
5.060000E+03	1.842537E-17	8.196159E-18
5.070000E+03	1.855724E-17	8.251700E-18
5.080000E+03	1.868713E-17	8.306305E-18
5.090000E+03	1.881463E-17	8.359797E-18
5.100000E+03	1.893949E-17	8.412063E-18
5.110000E+03	1.906128E-17	8.462917E-18
5.120000E+03	1.917991E-17	8.512316E-18
5.130000E+03	1.929472E-17	8.559971E-18
5.140000E+03	1.940582E-17	8.605933E-18
5.150000E+03	1.951255E-17	8.649906E-18
5.160000E+03	1.961477E-17	8.691839E-18
5.170000E+03	1.971201E-17	8.731519E-18
5.180000E+03	1.980377E-17	8.768727E-18
5.190000E+03	1.988992E-17	8.803417E-18
5.200000E+03	1.996998E-17	8.835369E-18
5.210000E+03	2.004365E-17	8.864456E-18
5.220000E+03	2.011063E-17	8.890551E-18
5.230000E+03	2.017042E-17	8.913439E-18
5.240000E+03	2.022277E-17	8.933008E-18
5.250000E+03	2.026721E-17	8.949053E-18
5.260000E+03	2.030368E-17	8.961560E-18
5.270000E+03	2.033180E-17	8.970355E-18
5.280000E+03	2.035132E-17	8.975344E-18
5.290000E+03	2.036211E-17	8.976462E-18
5.300000E+03	2.036381E-17	8.973564E-18
5.310000E+03	2.035633E-17	8.966611E-18
5.320000E+03	2.033960E-17	8.955579E-18
5.330000E+03	2.031361E-17	8.940469E-18
5.340000E+03	2.027818E-17	8.921208E-18
5.350000E+03	2.023358E-17	8.897917E-18
5.360000E+03	2.017995E-17	8.870662E-18
5.370000E+03	2.011748E-17	8.839532E-18
5.380000E+03	2.004617E-17	8.804538E-18
5.390000E+03	1.996674E-17	8.765994E-18
5.400000E+03	1.987932E-17	8.723964E-18
5.410000E+03	1.978470E-17	8.678799E-18
5.420000E+03	1.968315E-17	8.630620E-18
5.430000E+03	1.957536E-17	8.579737E-18
5.440000E+03	1.946187E-17	8.526388E-18
5.450000E+03	1.934366E-17	8.471004E-18
5.460000E+03	1.922116E-17	8.413784E-18
5.470000E+03	1.909486E-17	8.354935E-18
5.480000E+03	1.896508E-17	8.294599E-18
5.490000E+03	1.883252E-17	8.233097E-18
5.500000E+03	1.869760E-17	8.170601E-18
5.510000E+03	1.856089E-17	8.107366E-18
5.520000E+03	1.842298E-17	8.043655E-18
5.530000E+03	1.828450E-17	7.979738E-18
5.540000E+03	1.814606E-17	7.915884E-18
5.550000E+03	1.800843E-17	7.852429E-18
5.560000E+03	1.787221E-17	7.789634E-18
5.570000E+03	1.773833E-17	7.727904E-18
5.580000E+03	1.760717E-17	7.667402E-18
5.590000E+03	1.747976E-17	7.608578E-18
5.600000E+03	1.735642E-17	7.551568E-18
5.610000E+03	1.723796E-17	7.496719E-18
5.620000E+03	1.712514E-17	7.444362E-18
5.630000E+03	1.701815E-17	7.394579E-18
5.640000E+03	1.691802E-17	7.347808E-18
5.650000E+03	1.682505E-17	7.304177E-18
5.660000E+03	1.673945E-17	7.263778E-18
5.670000E+03	1.666215E-17	7.227004E-18
5.680000E+03	1.659313E-17	7.193845E-18
5.690000E+03	1.653286E-17	7.164501E-18
5.700000E+03	1.648179E-17	7.139160E-18
5.710000E+03	1.644014E-17	7.117914E-18
5.720000E+03	1.640812E-17	7.100847E-18
5.730000E+03	1.638591E-17	7.088030E-18
5.740000E+03	1.637385E-17	7.079606E-18
5.750000E+03	1.637221E-17	7.075688E-18
5.760000E+03	1.638079E-17	7.076180E-18
5.770000E+03	1.640020E-17	7.081342E-18
5.780000E+03	1.643020E-17	7.091059E-18
5.790000E+03	1.647118E-17	7.105503E-18
5.800000E+03	1.652307E-17	7.124625E-18
5.810000E+03	1.658608E-17	7.148522E-18
5.820000E+03	1.666029E-17	7.177210E-18
5.830000E+03	1.674590E-17	7.210777E-18
5.840000E+03	1.684280E-17	7.249167E-18
5.850000E+03	1.695102E-17	7.292386E-18
5.860000E+03	1.707077E-17	7.340516E-18
5.870000E+03	1.720228E-17	7.393649E-18
5.880000E+03	1.734519E-17	7.451624E-18
5.890000E+03	1.749988E-17	7.514603E-18
5.900000E+03	1.766618E-17	7.582495E-18
5.910000E+03	1.784427E-17	7.655378E-18
5.920000E+03	1.803413E-17	7.733237E-18
5.930000E+03	1.823551E-17	7.815956E-18
5.940000E+03	1.844856E-17	7.903595E-18
5.950000E+03	1.867323E-17	7.996120E-18
5.960000E+03	1.890918E-17	8.093383E-18
5.970000E+03	1.915672E-17	8.195507E-18
5.980000E+03	1.941526E-17	8.302237E-18
5.990000E+03	1.968484E-17	8.413580E-18
6.000000E+03	1.996524E-17	8.529438E-18
6.010000E+03	2.025599E-17	8.649603E-18
6.020000E+03	2.055699E-17	8.774028E-18
6.030000E+03	2.086745E-17	8.902368E-18
6.040000E+03	2.118747E-17	9.034659E-18
6.050000E+03	2.151613E-17	9.170506E-18
6.060000E+03	2.185320E-17	9.309805E-18
6.070000E+03	2.219790E-17	9.452222E-18
6.080000E+03	2.254968E-17	9.597513E-18
6.090000E+03	2.290764E-17	9.745296E-18
6.100000E+03	2.327086E-17	9.895171E-18
6.110000E+03	2.363888E-17	1.004695E-17
6.120000E+03	2.401010E-17	1.019994E-17
6.130000E+03	2.438403E-17	1.035394E-17
6.140000E+03	2.475924E-17	1.050833E-17
6.150000E+03	2.513486E-17	1.066275E-17
6.160000E+03	2.550877E-17	1.081631E-17
6.170000E+03	2.588036E-17	1.096873E-17
6.180000E+03	2.624775E-17	1.111923E-17
6.190000E+03	2.660965E-17	1.126727E-17
6.200000E+03	2.696450E-17	1.141219E-17
6.210000E+03	2.731209E-17	1.155390E-17
6.220000E+03	2.765267E-17	1.169252E-17
6.230000E+03	2.798660E-17	1.182820E-17
6.240000E+03	2.831441E-17	1.196117E-17
6.250000E+03	2.863558E-17	1.209122E-17
6.260000E+03	2.895159E-17	1.221897E-17
6.270000E+03	2.926176E-17	1.234414E-17
6.280000E+03	2.956699E-17	1.246712E-17
6.290000E+03	2.986789E-17	1.258816E-17
6.300000E+03	3.016399E-17	1.270708E-17
6.310000E+03	3.045602E-17	1.282418E-17
6.320000E+03	3.074440E-17	1.293964E-17
6.330000E+03	3.102959E-17	1.305366E-17
6.340000E+03	3.131128E-17	1.316610E-17
6.350000E+03	3.158998E-17	1.327719E-17
6.360000E+03	3.186583E-17	1.338698E-17
6.370000E+03	3.213902E-17	1.349557E-17
6.380000E+03	3.240922E-17	1.360280E-17
6.390000E+03	3.267619E-17	1.370859E-17
6.400000E+03	3.293958E-17	1.381278E-17
6.410000E+03	3.319957E-17	1.391546E-17
6.420000E+03	3.345583E-17	1.401648E-17
6.430000E+03	3.370703E-17	1.411530E-17
6.440000E+03	3.395477E-17	1.421259E-17
6.450000E+03	3.419921E-17	1.430841E-17
6.460000E+03	3.444100E-17	1.440304E-17
6.470000E+03	3.468139E-17	1.449700E-17
6.480000E+03	3.492005E-17	1.459016E-17
6.490000E+03	3.515825E-17	1.468305E-17
6.500000E+03	3.539624E-17	1.477577E-17
6.510000E+03	3.563479E-17	1.486865E-17
6.520000E+03	3.587306E-17	1.496132E-17
6.530000E+03	3.611293E-17	1.505459E-17
6.540000E+03	3.635352E-17	1.514807E-17
6.550000E+03	3.659563E-17	1.524211E-17
6.560000E+03	3.683948E-17	1.533679E-17
6.570000E+03	3.708471E-17	1.543197E-17
6.580000E+03	3.733209E-17	1.552796E-17
6.590000E+03	3.758183E-17	1.562485E-17
6.600000E+03	3.783352E-17	1.572246E-17
6.610000E+03	3.808731E-17	1.582087E-17
6.620000E+03	3.834336E-17	1.592013E-17
6.630000E+03	3.860244E-17	1.602056E-17
6.640000E+03	3.886344E-17	1.612170E-17
6.650000E+03	3.912708E-17	1.622385E-17
6.660000E+03	3.939349E-17	1.632707E-17
6.670000E+03	3.966210E-17	1.643111E-17
6.680000E+03	3.993365E-17	1.653627E-17
6.690000E+03	4.020752E-17	1.664232E-17
6.700000E+03	4.048447E-17	1.674954E-17
6.710000E+03	4.076316E-17	1.685740E-17
6.720000E+03	4.104429E-17	1.696617E-17
6.730000E+03	4.132859E-17	1.707616E-17
6.740000E+03	4.161465E-17	1.718679E-17
6.750000E+03	4.190316E-17	1.729834E-17
6.760000E+03	4.219338E-17	1.741050E-17
6.770000E+03	4.248601E-17	1.752356E-17
6.780000E+03	4.278025E-17	1.763720E-17
6.790000E+03	4.307605E-17	1.775138E-17
6.800000E+03	4.337411E-17	1.786640E-17
6.810000E+03	4.367281E-17	1.798159E-17
6.820000E+03	4.397361E-17	1.809756E-17
6.830000E+03	4.427483E-17	1.821360E-17
6.840000E+03	4.457799E-17	1.833035E-17
6.850000E+03	4.488132E-17	1.844707E-17
6.860000E+03	4.518470E-17	1.856372E-17
6.870000E+03	4.548882E-17	1.868059E-17
6.880000E+03	4.579353E-17	1.879760E-17
6.890000E+03	4.609699E-17	1.891401E-17
6.900000E+03	4.640072E-17	1.903045E-17
6.910000E+03	4.670371E-17	1.914649E-17
6.920000E+03	4.700668E-17	1.926243E-17
6.930000E+03	4.730767E-17	1.937747E-17
6.940000E+03	4.760739E-17	1.949191E-17
6.950000E+03	4.790566E-17	1.960567E-17
6.960000E+03	4.820139E-17	1.971830E-17
6.970000E+03	4.849530E-17	1.983012E-17
6.980000E+03	4.878725E-17	1.994105E-17
6.990000E+03	4.907611E-17	2.005063E-17
7.000000E+03	4.936174E-17	2.015882E-17
7.010000E+03	4.964393E-17	2.026554E-17
7.020000E+03	4.992355E-17	2.037112E-17
7.030000E+03	5.019850E-17	2.047474E-17
7.040000E+03	5.047062E-17	2.057713E-17
7.050000E+03	5.073781E-17	2.067745E-17
7.060000E+03	5.100099E-17	2.077607E-17
7.070000E+03	5.125904E-17	2.087254E-17
7.080000E+03	5.151293E-17	2.096725E-17
7.090000E+03	5.176260E-17	2.106020E-17
7.100000E+03	5.200700E-17	2.115095E-17
7.110000E+03	5.224502E-17	2.123905E-17
7.120000E+03	5.247878E-17	2.132538E-17
7.130000E+03	5.270720E-17	2.140949E-17
7.140000E+03	5.293032E-17	2.149141E-17
7.150000E+03	5.314816E-17	2.157114E-17
7.160000E+03	5.335967E-17	2.164827E-17
7.170000E+03	5.356599E-17	2.172326E-17
7.180000E+03	5.376606E-17	2.179570E-17
7.190000E+03	5.395994E-17	2.186559E-17
7.200000E+03	5.414881E-17	2.193343E-17
7.210000E+03	5.433161E-17	2.199880E-17
7.220000E+03	5.450955E-17	2.206218E-17
7.230000E+03	5.468041E-17	2.212268E-17
7.240000E+03	5.484541E-17	2.218080E-17
7.250000E+03	5.500459E-17	2.223657E-17
7.260000E+03	5.515804E-17	2.229001E-17
7.270000E+03	5.530579E-17	2.234115E-17
7.280000E+03	5.544793E-17	2.239002E-17
7.290000E+03	5.558331E-17	2.243617E-17
7.300000E+03	5.571319E-17	2.248011E-17
7.310000E+03	5.583759E-17	2.252185E-17
7.320000E+03	5.595661E-17	2.256144E-17
7.330000E+03	5.606907E-17	2.259840E-17
7.340000E+03	5.617624E-17	2.263325E-17
7.350000E+03	5.627943E-17	2.266653E-17
7.360000E+03	5.637624E-17	2.269726E-17
7.370000E+03	5.646800E-17	2.272599E-17
7.380000E+03	5.655479E-17	2.275275E-17
7.390000E+03	5.663797E-17	2.277809E-17
7.400000E+03	5.671640E-17	2.280157E-17
7.410000E+03	5.679147E-17	2.282373E-17
7.420000E+03	5.686459E-17	2.284516E-17
7.430000E+03	5.693466E-17	2.286541E-17
7.440000E+03	5.700442E-17	2.288558E-17
7.450000E+03	5.707148E-17	2.290472E-17
7.460000E+03	5.713731E-17	2.292341E-17
7.470000E+03	5.720078E-17	2.294122E-17
7.480000E+03	5.726338E-17	2.295873E-17
7.490000E+03	5.732262E-17	2.297495E-17
7.500000E+03	5.737998E-17	2.299048E-17
7.510000E+03	5.743559E-17	2.300537E-17
7.520000E+03	5.748822E-17	2.301913E-17
7.530000E+03	5.754070E-17	2.303290E-17
7.540000E+03	5.759046E-17	2.304565E-17
7.550000E+03	5.763893E-17	2.305795E-17
7.560000E+03	5.768483E-17	2.306929E-17
7.570000E+03	5.772957E-17	2.308023E-17
7.580000E+03	5.777182E-17	2.309025E-17
7.590000E+03	5.781298E-17	2.309989E-17
7.600000E+03	5.785168E-17	2.310863E-17
7.610000E+03	5.788790E-17	2.311644E-17
7.620000E+03	5.792302E-17	2.312388E-17
7.630000E+03	5.795560E-17	2.313037E-17
7.640000E+03	5.798558E-17	2.313590E-17
7.650000E+03	5.801432E-17	2.314099E-17
7.660000E+03	5.804031E-17	2.314507E-17
7.670000E+03	5.806491E-17	2.314865E-17
7.680000E+03	5.808515E-17	2.315057E-17
7.690000E+03	5.810377E-17	2.315191E-17
7.700000E+03	5.812065E-17	2.315263E-17
7.710000E+03	5.813420E-17	2.315209E-17
7.720000E+03	5.814574E-17	2.315083E-17
7.730000E+03	5.815363E-17	2.314818E-17
7.740000E+03	5.815772E-17	2.314409E-17
7.750000E+03	5.815926E-17	2.313905E-17
7.760000E+03	5.815810E-17	2.313302E-17
