#wls	flux	fluxerr
1.600000E+03	-3.232777E-15	4.091514E-13
1.640000E+03	-1.787575E-15	4.122174E-13
1.680000E+03	-3.045750E-16	4.141832E-13
1.720000E+03	1.199201E-15	4.144671E-13
1.760000E+03	2.712626E-15	4.133825E-13
1.800000E+03	4.213971E-15	4.104164E-13
1.840000E+03	5.689744E-15	4.059171E-13
1.880000E+03	7.113636E-15	3.993447E-13
1.920000E+03	8.472458E-15	3.911928E-13
1.960000E+03	9.734208E-15	3.808334E-13
2.000000E+03	1.088762E-14	3.688692E-13
2.040000E+03	1.190018E-14	3.547913E-13
2.080000E+03	1.276142E-14	3.391642E-13
2.120000E+03	1.344113E-14	3.216138E-13
2.160000E+03	1.393320E-14	3.027250E-13
2.200000E+03	1.420957E-14	2.821879E-13
2.240000E+03	1.426867E-14	2.605748E-13
2.280000E+03	1.409719E-14	2.378337E-13
2.320000E+03	1.371724E-14	2.147624E-13
2.360000E+03	1.314582E-14	1.916339E-13
2.400000E+03	1.241841E-14	1.691426E-13
2.440000E+03	1.155849E-14	1.474511E-13
2.480000E+03	1.060005E-14	1.270013E-13
2.520000E+03	9.571287E-15	1.078956E-13
2.560000E+03	8.504021E-15	9.039635E-14
2.600000E+03	7.429025E-15	7.456317E-14
2.640000E+03	6.371863E-15	6.049323E-14
2.680000E+03	5.361351E-15	4.819196E-14
2.720000E+03	4.413656E-15	3.761839E-14
2.760000E+03	3.552005E-15	2.872510E-14
2.800000E+03	2.780652E-15	2.136226E-14
2.840000E+03	2.115020E-15	1.544223E-14
2.880000E+03	1.547995E-15	1.075201E-14
2.920000E+03	1.086495E-15	7.180780E-15
2.960000E+03	7.144504E-16	4.496610E-15
2.994226E+03	1.833441E-15	1.106842E-14
2.996426E+03	1.797083E-15	1.082009E-14
2.997026E+03	1.788955E-15	1.076332E-14
2.997226E+03	1.787668E-15	1.075297E-14
2.997626E+03	1.782600E-15	1.071728E-14
2.997826E+03	1.781014E-15	1.070515E-14
2.998626E+03	1.768877E-15	1.062188E-14
3.000826E+03	1.732201E-15	1.037395E-14
3.001226E+03	1.726779E-15	1.033646E-14
3.001426E+03	1.724793E-15	1.032207E-14
3.001626E+03	1.722748E-15	1.030733E-14
3.001826E+03	1.720481E-15	1.029128E-14
3.005827E+03	1.651471E-15	9.830710E-15
3.008027E+03	1.613934E-15	9.581710E-15
3.008427E+03	1.607941E-15	9.541511E-15
3.008827E+03	1.601841E-15	9.500708E-15
3.010427E+03	1.574736E-15	9.321872E-15
3.011827E+03	1.550858E-15	9.164988E-15
3.013027E+03	1.530501E-15	9.031562E-15
3.014227E+03	1.509985E-15	8.897571E-15
3.014627E+03	1.503324E-15	8.854034E-15
3.015427E+03	1.489666E-15	8.765112E-15
3.016628E+03	1.468927E-15	8.630535E-15
3.018228E+03	1.441076E-15	8.450542E-15
3.020828E+03	1.395799E-15	8.159354E-15
3.021028E+03	1.392269E-15	8.136753E-15
3.024428E+03	1.333112E-15	7.759076E-15
3.027629E+03	1.277378E-15	7.406017E-15
3.027829E+03	1.273714E-15	7.382991E-15
3.028229E+03	1.266468E-15	7.337443E-15
3.028429E+03	1.262653E-15	7.313574E-15
3.030629E+03	1.224177E-15	7.071914E-15
3.031429E+03	1.209880E-15	6.982575E-15
3.033630E+03	1.171400E-15	6.742570E-15
3.034829E+03	1.150300E-15	6.611549E-15
3.036029E+03	1.129060E-15	6.480080E-15
3.037829E+03	1.097516E-15	6.285385E-15
3.038230E+03	1.089889E-15	6.238684E-15
3.038430E+03	1.085716E-15	6.213304E-15
3.039030E+03	1.074643E-15	6.145487E-15
3.039230E+03	1.070455E-15	6.120060E-15
3.040630E+03	1.045709E-15	5.968501E-15
3.041430E+03	1.031141E-15	5.879682E-15
3.041630E+03	1.026736E-15	5.853151E-15
3.041830E+03	1.022341E-15	5.826692E-15
3.043230E+03	9.976104E-16	5.676163E-15
3.043431E+03	9.932044E-16	5.649725E-15
3.044631E+03	9.717411E-16	5.519648E-15
3.044831E+03	9.672327E-16	5.492716E-15
3.045031E+03	9.626413E-16	5.465326E-15
3.045631E+03	9.512774E-16	5.396906E-15
3.046430E+03	9.365712E-16	5.308362E-15
3.046831E+03	9.285776E-16	5.260514E-15
3.047030E+03	9.238623E-16	5.232548E-15
3.047231E+03	9.192137E-16	5.204959E-15
3.047830E+03	9.078263E-16	5.136772E-15
3.048630E+03	8.929924E-16	5.047972E-15
3.048831E+03	8.881720E-16	5.019508E-15
3.049631E+03	8.733662E-16	4.931082E-15
3.049831E+03	8.684921E-16	4.902381E-15
3.050431E+03	8.571008E-16	4.834588E-15
3.051831E+03	8.325379E-16	4.688131E-15
3.052231E+03	8.244242E-16	4.640207E-15
3.053031E+03	8.097405E-16	4.553175E-15
3.054031E+03	7.918079E-16	4.446985E-15
3.054232E+03	7.868667E-16	4.418166E-15
3.055632E+03	7.624740E-16	4.273998E-15
3.055832E+03	7.575478E-16	4.245363E-15
3.056432E+03	7.461393E-16	4.178412E-15
3.056632E+03	7.411624E-16	4.149543E-15
3.057232E+03	7.297404E-16	4.082646E-15
3.057632E+03	7.215169E-16	4.034698E-15
3.059231E+03	6.942225E-16	3.874607E-15
3.063632E+03	6.226031E-16	3.456548E-15
3.063832E+03	6.177967E-16	3.429039E-15
3.064032E+03	6.129460E-16	3.401298E-15
3.064632E+03	6.018453E-16	3.337291E-15
3.065433E+03	5.876169E-16	3.255259E-15
3.065633E+03	5.827899E-16	3.227742E-15
3.066633E+03	5.655666E-16	3.128590E-15
3.066833E+03	5.607583E-16	3.101247E-15
3.067233E+03	5.528494E-16	3.056038E-15
3.068233E+03	5.357431E-16	2.957921E-15
3.069233E+03	5.187198E-16	2.860494E-15
3.070433E+03	4.987618E-16	2.746474E-15
3.071034E+03	4.879919E-16	2.685229E-15
3.071233E+03	4.833272E-16	2.658926E-15
3.071434E+03	4.786199E-16	2.632394E-15
3.071833E+03	4.709684E-16	2.589069E-15
3.072033E+03	4.663139E-16	2.562867E-15
3.072433E+03	4.586775E-16	2.519686E-15
3.073033E+03	4.481390E-16	2.460021E-15
3.073633E+03	4.376119E-16	2.400503E-15
3.074233E+03	4.271070E-16	2.341192E-15
3.074633E+03	4.196306E-16	2.299106E-15
3.075033E+03	4.121407E-16	2.256985E-15
3.075233E+03	4.075833E-16	2.231492E-15
3.075833E+03	3.972807E-16	2.173519E-15
3.076034E+03	3.927387E-16	2.148152E-15
3.076234E+03	3.881930E-16	2.122779E-15
3.077034E+03	3.751716E-16	2.049603E-15
3.077834E+03	3.622221E-16	1.976960E-15
3.078234E+03	3.549763E-16	1.936483E-15
3.078834E+03	3.449665E-16	1.880523E-15
3.079634E+03	3.322454E-16	1.809438E-15
3.080434E+03	3.196165E-16	1.738989E-15
3.083035E+03	2.823018E-16	1.531179E-15
3.084034E+03	2.672939E-16	1.448041E-15
3.084634E+03	2.578301E-16	1.395767E-15
3.084834E+03	2.538581E-16	1.373935E-15
3.085034E+03	2.498775E-16	1.352066E-15
3.086234E+03	2.325499E-16	1.256499E-15
3.086434E+03	2.286788E-16	1.235286E-15
3.087035E+03	2.195346E-16	1.185036E-15
3.088035E+03	2.052264E-16	1.106474E-15
3.088435E+03	1.988906E-16	1.071800E-15
3.088835E+03	1.926013E-16	1.037410E-15
3.089035E+03	1.889507E-16	1.017503E-15
3.089235E+03	1.853228E-16	9.977269E-16
3.089435E+03	1.817167E-16	9.780785E-16
3.090235E+03	1.705393E-16	9.170365E-16
3.091635E+03	1.519191E-16	8.155406E-16
3.091835E+03	1.485153E-16	7.970772E-16
3.092035E+03	1.451416E-16	7.787840E-16
3.092236E+03	1.417749E-16	7.605359E-16
3.092436E+03	1.384452E-16	7.424959E-16
3.092636E+03	1.351415E-16	7.246041E-16
3.092836E+03	1.318574E-16	7.068261E-16
3.093236E+03	1.261977E-16	6.761627E-16
3.093436E+03	1.229826E-16	6.587786E-16
3.093836E+03	1.174260E-16	6.287118E-16
3.094036E+03	1.142766E-16	6.117029E-16
3.095235E+03	9.950036E-17	5.318435E-16
3.095436E+03	9.647821E-17	5.155655E-16
3.096035E+03	8.891184E-17	4.747910E-16
3.096235E+03	8.599391E-17	4.590992E-16
3.096435E+03	8.310644E-17	4.435774E-16
3.096635E+03	8.024849E-17	4.282205E-16
3.097035E+03	7.519154E-17	4.010434E-16
3.097235E+03	7.242146E-17	3.861763E-16
3.097836E+03	6.527272E-17	3.478062E-16
3.098036E+03	6.259235E-17	3.334439E-16
3.099036E+03	5.131984E-17	2.730653E-16
3.099836E+03	4.235428E-17	2.251450E-16
3.100036E+03	3.989199E-17	2.120053E-16
3.100636E+03	3.326030E-17	1.766342E-16
3.100836E+03	3.090490E-17	1.640862E-16
3.101436E+03	2.444823E-17	1.297119E-16
3.101636E+03	2.219309E-17	1.177189E-16
3.101836E+03	1.997212E-17	1.059128E-16
3.102236E+03	1.577674E-17	8.362451E-17
3.102636E+03	1.165404E-17	6.174258E-17
3.103036E+03	7.601645E-18	4.025389E-17
3.103237E+03	5.567160E-18	2.947334E-17
3.103837E+03	-2.941096E-19	-1.555940E-18
3.104037E+03	-2.210384E-18	-1.169089E-17
3.104437E+03	-5.988470E-18	-3.165829E-17
3.104837E+03	-9.692679E-18	-5.121620E-17
3.105037E+03	-1.146041E-17	-6.054238E-17
3.105437E+03	-1.503552E-17	-7.939076E-17
3.105637E+03	-1.670862E-17	-8.820396E-17
3.105837E+03	-1.834371E-17	-9.681232E-17
3.106037E+03	-1.993948E-17	-1.052091E-16
3.106637E+03	-2.503351E-17	-1.319925E-16
3.107037E+03	-2.826105E-17	-1.489387E-16
3.107236E+03	-2.968058E-17	-1.563825E-16
3.107436E+03	-3.107270E-17	-1.636782E-16
3.107637E+03	-3.242869E-17	-1.707799E-16
3.107836E+03	-3.372930E-17	-1.775870E-16
3.108236E+03	-3.665602E-17	-1.929040E-16
3.108637E+03	-3.950221E-17	-2.077824E-16
3.108837E+03	-4.065929E-17	-2.138175E-16
3.109037E+03	-4.177277E-17	-2.196204E-16
3.109237E+03	-4.284818E-17	-2.252205E-16
3.109437E+03	-4.387608E-17	-2.305681E-16
3.110237E+03	-4.946505E-17	-2.596893E-16
3.110437E+03	-5.035675E-17	-2.643074E-16
3.110637E+03	-5.120640E-17	-2.687026E-16
3.111037E+03	-5.348616E-17	-2.805311E-16
3.111237E+03	-5.424185E-17	-2.844266E-16
3.111437E+03	-5.495450E-17	-2.880945E-16
3.111637E+03	-5.562843E-17	-2.915578E-16
3.112037E+03	-5.764886E-17	-3.020025E-16
3.112237E+03	-5.822094E-17	-3.049264E-16
3.112437E+03	-5.875336E-17	-3.076413E-16
3.112837E+03	-6.058153E-17	-3.170620E-16
3.113037E+03	-6.101128E-17	-3.192348E-16
3.113637E+03	-6.399098E-17	-3.345854E-16
3.113837E+03	-6.430288E-17	-3.361357E-16
3.114038E+03	-6.458206E-17	-3.375139E-16
3.114238E+03	-6.481541E-17	-3.386523E-16
3.114438E+03	-6.500981E-17	-3.395867E-16
3.114638E+03	-6.515903E-17	-3.402847E-16
3.115438E+03	-6.879972E-17	-3.589540E-16
3.115638E+03	-6.881122E-17	-3.589280E-16
3.115838E+03	-6.879563E-17	-3.587609E-16
3.116238E+03	-6.984363E-17	-3.640518E-16
3.116438E+03	-6.969909E-17	-3.632115E-16
3.116638E+03	-6.952676E-17	-3.622267E-16
3.117638E+03	-7.352038E-17	-3.825750E-16
3.118038E+03	-7.420921E-17	-3.859747E-16
3.118638E+03	-7.585446E-17	-3.942488E-16
3.118838E+03	-7.539314E-17	-3.917573E-16
3.119639E+03	-7.779835E-17	-4.038681E-16
3.120238E+03	-7.907865E-17	-4.102203E-16
3.120438E+03	-7.838374E-17	-4.065182E-16
3.121038E+03	-7.947870E-17	-4.119012E-16
3.121438E+03	-7.956582E-17	-4.121554E-16
3.121638E+03	-7.873008E-17	-4.077287E-16
3.122038E+03	-7.867517E-17	-4.072495E-16
3.122438E+03	-7.854556E-17	-4.063840E-16
3.122638E+03	-7.754393E-17	-4.011058E-16
3.123038E+03	-7.731826E-17	-3.997472E-16
3.123238E+03	-7.622189E-17	-3.939845E-16
3.123438E+03	-7.509153E-17	-3.880489E-16
3.123638E+03	-7.391295E-17	-3.818671E-16
3.123838E+03	-7.271838E-17	-3.756055E-16
3.124038E+03	-7.147468E-17	-3.690932E-16
3.124438E+03	-7.086179E-17	-3.657533E-16
3.125039E+03	-7.082413E-17	-3.652962E-16
3.125439E+03	-7.007140E-17	-3.612410E-16
3.126839E+03	-7.234228E-17	-3.723242E-16
3.127039E+03	-7.071627E-17	-3.638686E-16
3.127839E+03	-7.081184E-17	-3.640120E-16
3.128439E+03	-7.017512E-17	-3.604802E-16
3.129639E+03	-7.108883E-17	-3.646502E-16
3.130240E+03	-7.019661E-17	-3.598149E-16
3.130640E+03	-6.866345E-17	-3.517879E-16
3.130840E+03	-6.657682E-17	-3.410158E-16
3.131640E+03	-6.589607E-17	-3.372062E-16
3.132039E+03	-6.413788E-17	-3.280526E-16
3.132239E+03	-6.191654E-17	-3.166152E-16
3.132439E+03	-5.970475E-17	-3.052320E-16
3.132639E+03	-5.741409E-17	-2.934512E-16
3.132839E+03	-5.512230E-17	-2.816702E-16
3.133039E+03	-5.276543E-17	-2.695624E-16
3.133239E+03	-5.043996E-17	-2.576207E-16
3.133439E+03	-4.806271E-17	-2.454203E-16
3.133639E+03	-4.566844E-17	-2.331387E-16
3.134439E+03	-4.408932E-17	-2.248622E-16
3.134839E+03	-4.182022E-17	-2.131874E-16
3.135439E+03	-3.973175E-17	-2.023958E-16
3.135840E+03	-3.732137E-17	-1.900261E-16
3.136040E+03	-3.468243E-17	-1.765475E-16
3.136240E+03	-3.199732E-17	-1.628402E-16
3.137040E+03	-2.981997E-17	-1.516143E-16
3.137640E+03	-2.735826E-17	-1.389984E-16
3.137840E+03	-2.453479E-17	-1.246235E-16
3.138040E+03	-2.174092E-17	-1.104058E-16
3.138240E+03	-1.888478E-17	-9.587863E-17
3.138640E+03	-1.611162E-17	-8.176012E-17
3.139040E+03	-1.327958E-17	-6.735645E-17
3.139440E+03	-1.043698E-17	-5.291297E-17
3.139840E+03	-7.506761E-18	-3.803927E-17
3.140840E+03	-4.618897E-18	-2.337755E-17
3.141041E+03	-1.592621E-18	-8.058771E-18
3.141441E+03	1.490833E-18	7.540113E-18
3.141841E+03	4.616684E-18	2.333841E-17
3.142041E+03	7.702307E-18	3.892765E-17
3.142641E+03	1.095631E-17	5.533380E-17
3.143640E+03	1.442121E-17	7.274602E-17
3.143840E+03	1.763317E-17	8.892715E-17
3.144041E+03	2.090323E-17	1.053933E-16
3.145040E+03	2.460255E-17	1.238972E-16
3.145240E+03	2.787993E-17	1.403683E-16
3.145440E+03	3.114826E-17	1.567861E-16
3.146240E+03	3.494592E-17	1.757337E-16
3.146441E+03	3.830491E-17	1.925789E-16
3.146641E+03	4.156652E-17	2.089269E-16
3.146841E+03	4.482661E-17	2.252593E-16
3.147041E+03	4.808897E-17	2.415954E-16
3.147241E+03	5.134694E-17	2.579015E-16
3.147441E+03	5.460424E-17	2.741965E-16
3.147641E+03	5.785422E-17	2.904470E-16
3.148041E+03	6.136726E-17	3.079364E-16
3.148241E+03	6.462262E-17	3.241941E-16
3.148841E+03	6.845570E-17	3.431775E-16
3.149041E+03	7.171585E-17	3.594352E-16
3.150041E+03	7.624204E-17	3.816640E-16
3.150841E+03	8.052461E-17	4.027174E-16
3.151241E+03	8.417596E-17	4.207773E-16
3.151441E+03	8.748365E-17	4.372073E-16
3.151642E+03	9.077973E-17	4.535709E-16
3.151842E+03	9.405564E-17	4.698263E-16
3.152042E+03	9.731016E-17	4.859672E-16
3.152242E+03	1.005429E-16	5.019914E-16
3.152442E+03	1.037554E-16	5.179072E-16
3.152842E+03	1.073631E-16	5.356594E-16
3.153042E+03	1.105374E-16	5.513653E-16
3.153242E+03	1.136828E-16	5.669194E-16
3.153642E+03	1.172522E-16	5.844400E-16
3.154042E+03	1.208141E-16	6.019065E-16
3.154442E+03	1.243642E-16	6.192976E-16
3.154642E+03	1.274805E-16	6.346644E-16
3.155242E+03	1.315300E-16	6.543558E-16
3.155441E+03	1.345602E-16	6.692718E-16
3.156041E+03	1.385877E-16	6.888099E-16
3.156242E+03	1.415594E-16	7.034108E-16
3.156441E+03	1.445050E-16	7.178773E-16
3.157042E+03	1.484571E-16	7.369816E-16
3.157242E+03	1.513541E-16	7.511836E-16
3.157442E+03	1.541745E-16	7.649985E-16
3.157642E+03	1.569795E-16	7.787307E-16
3.157842E+03	1.595936E-16	7.915095E-16
3.158242E+03	1.628598E-16	8.073228E-16
3.158442E+03	1.654281E-16	8.198583E-16
3.158642E+03	1.679516E-16	8.321659E-16
3.158842E+03	1.704859E-16	8.445213E-16
3.160242E+03	1.764959E-16	8.728319E-16
3.160442E+03	1.788306E-16	8.841670E-16
3.161242E+03	1.829807E-16	9.038218E-16
3.161442E+03	1.852605E-16	9.148642E-16
3.161642E+03	1.874921E-16	9.256635E-16
3.161842E+03	1.896782E-16	9.362330E-16
3.162042E+03	1.918096E-16	9.465273E-16
3.162242E+03	1.938605E-16	9.564194E-16
3.162643E+03	1.964945E-16	9.689503E-16
3.163043E+03	1.990311E-16	9.809904E-16
3.163443E+03	2.015022E-16	9.926957E-16
3.163643E+03	2.032372E-16	1.001004E-15
3.163843E+03	2.048860E-16	1.008884E-15
3.164043E+03	2.064772E-16	1.016477E-15
3.164643E+03	2.092627E-16	1.029452E-15
3.165043E+03	2.113385E-16	1.039167E-15
3.165243E+03	2.126696E-16	1.045463E-15
3.165443E+03	2.138653E-16	1.051089E-15
3.165843E+03	2.155210E-16	1.058721E-15
3.166043E+03	2.164268E-16	1.062917E-15
3.166443E+03	2.179098E-16	1.069689E-15
3.166643E+03	2.186428E-16	1.073031E-15
3.167043E+03	2.199410E-16	1.078888E-15
3.167843E+03	2.224741E-16	1.090271E-15
3.168244E+03	2.235768E-16	1.095151E-15
3.168443E+03	2.239106E-16	1.096526E-15
3.168643E+03	2.241488E-16	1.097430E-15
3.169043E+03	2.249310E-16	1.100734E-15
3.169243E+03	2.249542E-16	1.100585E-15
3.169643E+03	2.255149E-16	1.102801E-15
3.169843E+03	2.253186E-16	1.101579E-15
3.170043E+03	2.250189E-16	1.099851E-15
3.170243E+03	2.246207E-16	1.097642E-15
3.170443E+03	2.240469E-16	1.094577E-15
3.170643E+03	2.233374E-16	1.090850E-15
3.170843E+03	2.224432E-16	1.086223E-15
3.172243E+03	2.251866E-16	1.097784E-15
3.172643E+03	2.247189E-16	1.094981E-15
3.172843E+03	2.234840E-16	1.088704E-15
3.173444E+03	2.233280E-16	1.087164E-15
3.173644E+03	2.217269E-16	1.079112E-15
3.173844E+03	2.198957E-16	1.069944E-15
3.174644E+03	2.197380E-16	1.068157E-15
3.175044E+03	2.183207E-16	1.060760E-15
3.175444E+03	2.167234E-16	1.052497E-15
3.175844E+03	2.149486E-16	1.043380E-15
3.176044E+03	2.124306E-16	1.030911E-15
3.176444E+03	2.102876E-16	1.020024E-15
3.176844E+03	2.079523E-16	1.008215E-15
3.177644E+03	2.064862E-16	1.000152E-15
3.177844E+03	2.032228E-16	9.841100E-16
3.178845E+03	2.018118E-16	9.761105E-16
3.179445E+03	1.991310E-16	9.624548E-16
3.180044E+03	1.962137E-16	9.476769E-16
3.180644E+03	1.930661E-16	9.318071E-16
3.181444E+03	1.901636E-16	9.169230E-16
3.181644E+03	1.856719E-16	8.950517E-16
3.181844E+03	1.809111E-16	8.718936E-16
3.182244E+03	1.764392E-16	8.499357E-16
3.182644E+03	1.717246E-16	8.268299E-16
3.182844E+03	1.663729E-16	8.008711E-16
3.183244E+03	1.612163E-16	7.756782E-16
3.183644E+03	1.557560E-16	7.490492E-16
3.183844E+03	1.497948E-16	7.202087E-16
3.184445E+03	1.442466E-16	6.930363E-16
3.184845E+03	1.380345E-16	6.628737E-16
3.185045E+03	1.313240E-16	6.304978E-16
3.185245E+03	1.243103E-16	5.966820E-16
3.185445E+03	1.171272E-16	5.620695E-16
3.185645E+03	1.096224E-16	5.259298E-16
3.186445E+03	1.025639E-16	4.915961E-16
3.186845E+03	9.476617E-17	4.540043E-16
3.187045E+03	8.659631E-17	4.147653E-16
3.188045E+03	7.875903E-17	3.767777E-16
3.188245E+03	6.994562E-17	3.345351E-16
3.189245E+03	6.150949E-17	2.938361E-16
3.189446E+03	5.210382E-17	2.488448E-16
3.189846E+03	4.254906E-17	2.031148E-16
3.190046E+03	3.256193E-17	1.554025E-16
3.190646E+03	2.238321E-17	1.067479E-16
3.191246E+03	1.196864E-17	5.703890E-17
3.191445E+03	1.113558E-18	5.305616E-18
3.192046E+03	-1.006340E-17	-4.791333E-17
3.193445E+03	-2.179174E-17	-1.035807E-16
3.193645E+03	-3.360460E-17	-1.596916E-16
3.194045E+03	-4.582815E-17	-2.176749E-16
3.194245E+03	-5.827367E-17	-2.767226E-16
3.194445E+03	-7.102187E-17	-3.371792E-16
3.194846E+03	-8.423343E-17	-3.997103E-16
3.195646E+03	-9.820392E-17	-4.655596E-16
3.196046E+03	-1.121942E-16	-5.316303E-16
3.197046E+03	-1.273172E-16	-6.025708E-16
3.197646E+03	-1.424199E-16	-6.735670E-16
3.198246E+03	-1.579623E-16	-7.465396E-16
3.198446E+03	-1.732772E-16	-8.187232E-16
3.198846E+03	-1.892940E-16	-8.939750E-16
3.199646E+03	-2.065005E-16	-9.743056E-16
3.200447E+03	-2.242314E-16	-1.056953E-15
3.200847E+03	-2.415793E-16	-1.138181E-15
3.201047E+03	-2.588545E-16	-1.219281E-15
3.201847E+03	-2.780446E-16	-1.308423E-15
3.202247E+03	-2.966850E-16	-1.395475E-15
3.202847E+03	-3.163418E-16	-1.486867E-15
3.203447E+03	-3.365057E-16	-1.580510E-15
3.203646E+03	-3.558641E-16	-1.671036E-15
3.204846E+03	-3.790518E-16	-1.777373E-15
3.206047E+03	-4.013050E-16	-1.879024E-15
3.206247E+03	-4.217145E-16	-1.974116E-15
3.207047E+03	-4.453196E-16	-2.082627E-15
3.207247E+03	-4.650385E-16	-2.174328E-15
3.207447E+03	-4.865296E-16	-2.274268E-15
3.207647E+03	-5.082530E-16	-2.375247E-15
3.207847E+03	-4.676403E-16	-2.184928E-15
3.208047E+03	-4.779100E-16	-2.232378E-15
3.208447E+03	-4.630587E-16	-2.161974E-15
3.208847E+03	-4.131257E-16	-1.927922E-15
3.209447E+03	-4.238856E-16	-1.976719E-15
3.209647E+03	-4.357697E-16	-2.031654E-15
3.209847E+03	-4.247050E-16	-1.979596E-15
3.210247E+03	-3.633497E-16	-1.692804E-15
3.210848E+03	-3.075242E-16	-1.431693E-15
3.211048E+03	-2.905471E-16	-1.352332E-15
3.211648E+03	-2.962725E-16	-1.377994E-15
3.211848E+03	-2.994972E-16	-1.392660E-15
3.212448E+03	-3.094554E-16	-1.437936E-15
3.213048E+03	-2.417197E-16	-1.122388E-15
3.213248E+03	-2.021234E-16	-9.383046E-16
3.214248E+03	-1.921060E-16	-8.907380E-16
3.214448E+03	-1.651768E-16	-7.656928E-16
3.214648E+03	-1.386413E-16	-6.425318E-16
3.214848E+03	-1.243520E-16	-5.761707E-16
3.215048E+03	-1.267296E-16	-5.870469E-16
3.215248E+03	-1.195586E-16	-5.536966E-16
3.215847E+03	-1.169594E-16	-5.412724E-16
3.216048E+03	-1.166708E-16	-5.398074E-16
3.216848E+03	-1.126994E-16	-5.209351E-16
3.217048E+03	-1.100561E-16	-5.085959E-16
3.217248E+03	-8.689783E-17	-4.014800E-16
3.217448E+03	-8.094098E-17	-3.738693E-16
3.218248E+03	-8.277096E-17	-3.819574E-16
3.219248E+03	-8.162010E-17	-3.761976E-16
3.219848E+03	-8.102191E-17	-3.731733E-16
3.220048E+03	-7.819275E-17	-3.600567E-16
3.220648E+03	-8.014440E-17	-3.687795E-16
3.220848E+03	-7.732165E-17	-3.557059E-16
3.221248E+03	-7.847881E-17	-3.608570E-16
3.221849E+03	-7.613131E-17	-3.498120E-16
3.222049E+03	-6.846599E-17	-3.145160E-16
3.223049E+03	-6.648240E-17	-3.050397E-16
3.223649E+03	-6.759195E-17	-3.099088E-16
3.224049E+03	-6.893224E-17	-3.159032E-16
3.224249E+03	-6.819885E-17	-3.124677E-16
3.224449E+03	-6.744625E-17	-3.089458E-16
3.224849E+03	-6.552196E-17	-2.999881E-16
3.225049E+03	-6.585246E-17	-3.014294E-16
3.225249E+03	-6.588251E-17	-3.014950E-16
3.225449E+03	-6.457750E-17	-2.954525E-16
3.225649E+03	-6.574609E-17	-3.007272E-16
3.226049E+03	-6.663401E-17	-3.046432E-16
3.226649E+03	-6.456485E-17	-2.949720E-16
