#wls	flux	fluxerr
1.600000E+03	2.850735E-16	5.647331E-17
1.640000E+03	2.932913E-16	5.809925E-17
1.680000E+03	3.009721E-16	5.961860E-17
1.720000E+03	3.080585E-16	6.101993E-17
1.760000E+03	3.143660E-16	6.226675E-17
1.800000E+03	3.198850E-16	6.335711E-17
1.840000E+03	3.244245E-16	6.425322E-17
1.880000E+03	3.279393E-16	6.494611E-17
1.920000E+03	3.303260E-16	6.541536E-17
1.960000E+03	3.314337E-16	6.563109E-17
2.000000E+03	3.312275E-16	6.558644E-17
2.040000E+03	3.296056E-16	6.526128E-17
2.080000E+03	3.264869E-16	6.463959E-17
2.120000E+03	3.218162E-16	6.371051E-17
2.160000E+03	3.155277E-16	6.246108E-17
2.200000E+03	3.075248E-16	6.087224E-17
2.240000E+03	2.977266E-16	5.892810E-17
2.280000E+03	2.861864E-16	5.663926E-17
2.320000E+03	2.731402E-16	5.405256E-17
2.360000E+03	2.589881E-16	5.124725E-17
2.400000E+03	2.440482E-16	4.828639E-17
2.440000E+03	2.286069E-16	4.522669E-17
2.480000E+03	2.128708E-16	4.210909E-17
2.520000E+03	1.970541E-16	3.897600E-17
2.560000E+03	1.813288E-16	3.586151E-17
2.600000E+03	1.658708E-16	3.280043E-17
2.640000E+03	1.508204E-16	2.982051E-17
2.680000E+03	1.363071E-16	2.694737E-17
2.720000E+03	1.224460E-16	2.420376E-17
2.760000E+03	1.093248E-16	2.160702E-17
2.800000E+03	9.701836E-17	1.917191E-17
2.840000E+03	8.558260E-17	1.690944E-17
2.880000E+03	7.506039E-17	1.482805E-17
2.920000E+03	6.547979E-17	1.293324E-17
2.960000E+03	5.684877E-17	1.122651E-17
3.000000E+03	4.915642E-17	9.705641E-18
3.010000E+03	4.737660E-17	9.353786E-18
3.020000E+03	4.565194E-17	9.012851E-18
3.030000E+03	4.398341E-17	8.683024E-18
3.040000E+03	4.236788E-17	8.363689E-18
3.050000E+03	4.080615E-17	8.054999E-18
3.060000E+03	3.929698E-17	7.756712E-18
3.070000E+03	3.783993E-17	7.468738E-18
3.080000E+03	3.643213E-17	7.190507E-18
3.090000E+03	3.507467E-17	6.922236E-18
3.100000E+03	3.376475E-17	6.663373E-18
3.110000E+03	3.250252E-17	6.413942E-18
3.120000E+03	3.128664E-17	6.173681E-18
3.130000E+03	3.011519E-17	5.942210E-18
3.140000E+03	2.898813E-17	5.719518E-18
3.150000E+03	2.790361E-17	5.505239E-18
3.160000E+03	2.686088E-17	5.299224E-18
3.170000E+03	2.585867E-17	5.101224E-18
3.180000E+03	2.489578E-17	4.910999E-18
3.190000E+03	2.397140E-17	4.728390E-18
3.200000E+03	2.308434E-17	4.553158E-18
3.210000E+03	2.223304E-17	4.384996E-18
3.220000E+03	2.141711E-17	4.223828E-18
3.230000E+03	2.063512E-17	4.069369E-18
3.240000E+03	1.988632E-17	3.921470E-18
3.250000E+03	1.916966E-17	3.779924E-18
3.260000E+03	1.848378E-17	3.644463E-18
3.270000E+03	1.782829E-17	3.515006E-18
3.280000E+03	1.720158E-17	3.391237E-18
3.290000E+03	1.660320E-17	3.273068E-18
3.300000E+03	1.603212E-17	3.160290E-18
3.310000E+03	1.548686E-17	3.052616E-18
3.320000E+03	1.496693E-17	2.949946E-18
3.330000E+03	1.447136E-17	2.852087E-18
3.340000E+03	1.399900E-17	2.758813E-18
3.350000E+03	1.354893E-17	2.669943E-18
3.360000E+03	1.312029E-17	2.585305E-18
3.370000E+03	1.271221E-17	2.504728E-18
3.380000E+03	1.232387E-17	2.428049E-18
3.390000E+03	1.195445E-17	2.355107E-18
3.400000E+03	1.160302E-17	2.285717E-18
3.410000E+03	1.126870E-17	2.219704E-18
3.420000E+03	1.095106E-17	2.156986E-18
3.430000E+03	1.064900E-17	2.097342E-18
3.440000E+03	1.036199E-17	2.040671E-18
3.450000E+03	1.008930E-17	1.986824E-18
3.460000E+03	9.830318E-18	1.935685E-18
3.470000E+03	9.584254E-18	1.887095E-18
3.480000E+03	9.350474E-18	1.840930E-18
3.490000E+03	9.128484E-18	1.797091E-18
3.500000E+03	8.917610E-18	1.755445E-18
3.510000E+03	8.717418E-18	1.715907E-18
3.520000E+03	8.527118E-18	1.678321E-18
3.530000E+03	8.346349E-18	1.642615E-18
3.540000E+03	8.174502E-18	1.608669E-18
3.550000E+03	8.011097E-18	1.576389E-18
3.560000E+03	7.855690E-18	1.545686E-18
3.570000E+03	7.707702E-18	1.516447E-18
3.580000E+03	7.566907E-18	1.488626E-18
3.590000E+03	7.432868E-18	1.462138E-18
3.600000E+03	7.305168E-18	1.436900E-18
3.610000E+03	7.183634E-18	1.412878E-18
3.620000E+03	7.067825E-18	1.389984E-18
3.630000E+03	6.957459E-18	1.368164E-18
3.640000E+03	6.852274E-18	1.347365E-18
3.650000E+03	6.752021E-18	1.327538E-18
3.660000E+03	6.656466E-18	1.308637E-18
3.670000E+03	6.565385E-18	1.290618E-18
3.680000E+03	6.478626E-18	1.273451E-18
3.690000E+03	6.396041E-18	1.257106E-18
3.700000E+03	6.317429E-18	1.241544E-18
3.710000E+03	6.242820E-18	1.226770E-18
3.720000E+03	6.171962E-18	1.212735E-18
3.730000E+03	6.104828E-18	1.199433E-18
3.740000E+03	6.041279E-18	1.186837E-18
3.750000E+03	5.981236E-18	1.174931E-18
3.760000E+03	5.924711E-18	1.163717E-18
3.770000E+03	5.871468E-18	1.153149E-18
3.780000E+03	5.821520E-18	1.143229E-18
3.790000E+03	5.774829E-18	1.133950E-18
3.800000E+03	5.731213E-18	1.125275E-18
3.810000E+03	5.690676E-18	1.117206E-18
3.820000E+03	5.653182E-18	1.109734E-18
3.830000E+03	5.618594E-18	1.102833E-18
3.840000E+03	5.586829E-18	1.096487E-18
3.850000E+03	5.557935E-18	1.090705E-18
3.860000E+03	5.531742E-18	1.085452E-18
3.870000E+03	5.508251E-18	1.080730E-18
3.880000E+03	5.487382E-18	1.076523E-18
3.890000E+03	5.469094E-18	1.072821E-18
3.900000E+03	5.453354E-18	1.069619E-18
3.910000E+03	5.440037E-18	1.066892E-18
3.920000E+03	5.429109E-18	1.064633E-18
3.930000E+03	5.420579E-18	1.062844E-18
3.940000E+03	5.414370E-18	1.061509E-18
3.950000E+03	5.410408E-18	1.060614E-18
3.960000E+03	5.408663E-18	1.060153E-18
3.970000E+03	5.409061E-18	1.060110E-18
3.980000E+03	5.411573E-18	1.060481E-18
3.990000E+03	5.416172E-18	1.061260E-18
4.000000E+03	5.422830E-18	1.062441E-18
4.010000E+03	5.431439E-18	1.064002E-18
4.020000E+03	5.441975E-18	1.065940E-18
4.030000E+03	5.454417E-18	1.068250E-18
4.040000E+03	5.468743E-18	1.070926E-18
4.050000E+03	5.484895E-18	1.073959E-18
4.060000E+03	5.502814E-18	1.077336E-18
4.070000E+03	5.522485E-18	1.081053E-18
4.080000E+03	5.543852E-18	1.085101E-18
4.090000E+03	5.566901E-18	1.089475E-18
4.100000E+03	5.591578E-18	1.094166E-18
4.110000E+03	5.617870E-18	1.099170E-18
4.120000E+03	5.645726E-18	1.104478E-18
4.130000E+03	5.675091E-18	1.110079E-18
4.140000E+03	5.705955E-18	1.115970E-18
4.150000E+03	5.738268E-18	1.122141E-18
4.160000E+03	5.772022E-18	1.128592E-18
4.170000E+03	5.807122E-18	1.135302E-18
4.180000E+03	5.843563E-18	1.142272E-18
4.190000E+03	5.881252E-18	1.149482E-18
4.200000E+03	5.920229E-18	1.156941E-18
4.210000E+03	5.960404E-18	1.164630E-18
4.220000E+03	6.001773E-18	1.172549E-18
4.230000E+03	6.044195E-18	1.180671E-18
4.240000E+03	6.087713E-18	1.189002E-18
4.250000E+03	6.132186E-18	1.197517E-18
4.260000E+03	6.177657E-18	1.206222E-18
4.270000E+03	6.223978E-18	1.215089E-18
4.280000E+03	6.271050E-18	1.224099E-18
4.290000E+03	6.318917E-18	1.233260E-18
4.300000E+03	6.367382E-18	1.242533E-18
4.310000E+03	6.416487E-18	1.251927E-18
4.320000E+03	6.466032E-18	1.261402E-18
4.330000E+03	6.516062E-18	1.270967E-18
4.340000E+03	6.566478E-18	1.280603E-18
4.350000E+03	6.617170E-18	1.290288E-18
4.360000E+03	6.668138E-18	1.300023E-18
4.370000E+03	6.719329E-18	1.309796E-18
4.380000E+03	6.770794E-18	1.319617E-18
4.390000E+03	6.822424E-18	1.329466E-18
4.400000E+03	6.874331E-18	1.339364E-18
4.410000E+03	6.926516E-18	1.349312E-18
4.420000E+03	6.978988E-18	1.359309E-18
4.430000E+03	7.031751E-18	1.369359E-18
4.440000E+03	7.084873E-18	1.379473E-18
4.450000E+03	7.138306E-18	1.389642E-18
4.460000E+03	7.192119E-18	1.399881E-18
4.470000E+03	7.246332E-18	1.410191E-18
4.480000E+03	7.300957E-18	1.420576E-18
4.490000E+03	7.355955E-18	1.431028E-18
4.500000E+03	7.411339E-18	1.441549E-18
4.510000E+03	7.467065E-18	1.452131E-18
4.520000E+03	7.523212E-18	1.462790E-18
4.530000E+03	7.579669E-18	1.473502E-18
4.540000E+03	7.636453E-18	1.484272E-18
4.550000E+03	7.693575E-18	1.495102E-18
4.560000E+03	7.750923E-18	1.505969E-18
4.570000E+03	7.808580E-18	1.516890E-18
4.580000E+03	7.866428E-18	1.527842E-18
4.590000E+03	7.924487E-18	1.538828E-18
4.600000E+03	7.982641E-18	1.549827E-18
4.610000E+03	8.040985E-18	1.560856E-18
4.620000E+03	8.099476E-18	1.571906E-18
4.630000E+03	8.158004E-18	1.582957E-18
4.640000E+03	8.216603E-18	1.594015E-18
4.650000E+03	8.275308E-18	1.605087E-18
4.660000E+03	8.334089E-18	1.616166E-18
4.670000E+03	8.392840E-18	1.627233E-18
4.680000E+03	8.451757E-18	1.638325E-18
4.690000E+03	8.510895E-18	1.649452E-18
4.700000E+03	8.570160E-18	1.660597E-18
4.710000E+03	8.629610E-18	1.671771E-18
4.720000E+03	8.689314E-18	1.682986E-18
4.730000E+03	8.749105E-18	1.694210E-18
4.740000E+03	8.809050E-18	1.705457E-18
4.750000E+03	8.869064E-18	1.716709E-18
4.760000E+03	8.929221E-18	1.727982E-18
4.770000E+03	8.989521E-18	1.739274E-18
4.780000E+03	9.049880E-18	1.750569E-18
4.790000E+03	9.110380E-18	1.761885E-18
4.800000E+03	9.170944E-18	1.773204E-18
4.810000E+03	9.231659E-18	1.784544E-18
4.820000E+03	9.292445E-18	1.795890E-18
4.830000E+03	9.353312E-18	1.807243E-18
4.840000E+03	9.414263E-18	1.818604E-18
4.850000E+03	9.475395E-18	1.829991E-18
4.860000E+03	9.536628E-18	1.841390E-18
4.870000E+03	9.597970E-18	1.852800E-18
4.880000E+03	9.659331E-18	1.864206E-18
4.890000E+03	9.720899E-18	1.875643E-18
4.900000E+03	9.782583E-18	1.887093E-18
4.910000E+03	9.844381E-18	1.898556E-18
4.920000E+03	9.906196E-18	1.910013E-18
4.930000E+03	9.968111E-18	1.921480E-18
4.940000E+03	1.003002E-17	1.932938E-18
4.950000E+03	1.009192E-17	1.944383E-18
4.960000E+03	1.015388E-17	1.955831E-18
4.970000E+03	1.021580E-17	1.967260E-18
4.980000E+03	1.027765E-17	1.978667E-18
4.990000E+03	1.033931E-17	1.990030E-18
5.000000E+03	1.040087E-17	2.001361E-18
5.010000E+03	1.046230E-17	2.012657E-18
5.020000E+03	1.052346E-17	2.023892E-18
5.030000E+03	1.058433E-17	2.035061E-18
5.040000E+03	1.064487E-17	2.046157E-18
5.050000E+03	1.070493E-17	2.057152E-18
5.060000E+03	1.076459E-17	2.068058E-18
5.070000E+03	1.082380E-17	2.078868E-18
5.080000E+03	1.088232E-17	2.089534E-18
5.090000E+03	1.094020E-17	2.100069E-18
5.100000E+03	1.099742E-17	2.110465E-18
5.110000E+03	1.105383E-17	2.120697E-18
5.120000E+03	1.110940E-17	2.130757E-18
5.130000E+03	1.116410E-17	2.140640E-18
5.140000E+03	1.121791E-17	2.150341E-18
5.150000E+03	1.127069E-17	2.159835E-18
5.160000E+03	1.132252E-17	2.169137E-18
5.170000E+03	1.137316E-17	2.178200E-18
5.180000E+03	1.142268E-17	2.187038E-18
5.190000E+03	1.147093E-17	2.195624E-18
5.200000E+03	1.151786E-17	2.203949E-18
5.210000E+03	1.156343E-17	2.212002E-18
5.220000E+03	1.160758E-17	2.219772E-18
5.230000E+03	1.165000E-17	2.227203E-18
5.240000E+03	1.169084E-17	2.234323E-18
5.250000E+03	1.172990E-17	2.241093E-18
5.260000E+03	1.176708E-17	2.247493E-18
5.270000E+03	1.180216E-17	2.253483E-18
5.280000E+03	1.183502E-17	2.259040E-18
5.290000E+03	1.186554E-17	2.264143E-18
5.300000E+03	1.189362E-17	2.268770E-18
5.310000E+03	1.191913E-17	2.272902E-18
5.320000E+03	1.194188E-17	2.276495E-18
5.330000E+03	1.196198E-17	2.279579E-18
5.340000E+03	1.197914E-17	2.282092E-18
5.350000E+03	1.199327E-17	2.284023E-18
5.360000E+03	1.200457E-17	2.285407E-18
5.370000E+03	1.201274E-17	2.286189E-18
5.380000E+03	1.201800E-17	2.286411E-18
5.390000E+03	1.202020E-17	2.286045E-18
5.400000E+03	1.201945E-17	2.285112E-18
5.410000E+03	1.201563E-17	2.283592E-18
5.420000E+03	1.200900E-17	2.281531E-18
5.430000E+03	1.199945E-17	2.278912E-18
5.440000E+03	1.198714E-17	2.275765E-18
5.450000E+03	1.197188E-17	2.272054E-18
5.460000E+03	1.195384E-17	2.267813E-18
5.470000E+03	1.193298E-17	2.263034E-18
5.480000E+03	1.190926E-17	2.257711E-18
5.490000E+03	1.188290E-17	2.251883E-18
5.500000E+03	1.185375E-17	2.245527E-18
5.510000E+03	1.182182E-17	2.238642E-18
5.520000E+03	1.178722E-17	2.231252E-18
5.530000E+03	1.174985E-17	2.223336E-18
5.540000E+03	1.170996E-17	2.214943E-18
5.550000E+03	1.166733E-17	2.206032E-18
5.560000E+03	1.162233E-17	2.196675E-18
5.570000E+03	1.157500E-17	2.186877E-18
5.580000E+03	1.152535E-17	2.176644E-18
5.590000E+03	1.147353E-17	2.166002E-18
5.600000E+03	1.141967E-17	2.154978E-18
5.610000E+03	1.136379E-17	2.143576E-18
5.620000E+03	1.130625E-17	2.131863E-18
5.630000E+03	1.124695E-17	2.119820E-18
5.640000E+03	1.118622E-17	2.107514E-18
5.650000E+03	1.112396E-17	2.094922E-18
5.660000E+03	1.106049E-17	2.082107E-18
5.670000E+03	1.099592E-17	2.069089E-18
5.680000E+03	1.093023E-17	2.055865E-18
5.690000E+03	1.086362E-17	2.042473E-18
5.700000E+03	1.079618E-17	2.028931E-18
5.710000E+03	1.072810E-17	2.015274E-18
5.720000E+03	1.065946E-17	2.001517E-18
5.730000E+03	1.059024E-17	1.987655E-18
5.740000E+03	1.052071E-17	1.973744E-18
5.750000E+03	1.045097E-17	1.959797E-18
5.760000E+03	1.038096E-17	1.945807E-18
5.770000E+03	1.031087E-17	1.931809E-18
5.780000E+03	1.024089E-17	1.917837E-18
5.790000E+03	1.017109E-17	1.903904E-18
5.800000E+03	1.010144E-17	1.890006E-18
5.810000E+03	1.003211E-17	1.876176E-18
5.820000E+03	9.963305E-18	1.862449E-18
5.830000E+03	9.895097E-18	1.848841E-18
5.840000E+03	9.827463E-18	1.835346E-18
5.850000E+03	9.760597E-18	1.822002E-18
5.860000E+03	9.694587E-18	1.808824E-18
5.870000E+03	9.629626E-18	1.795848E-18
5.880000E+03	9.565808E-18	1.783091E-18
5.890000E+03	9.503113E-18	1.770550E-18
5.900000E+03	9.441739E-18	1.758261E-18
5.910000E+03	9.381664E-18	1.746219E-18
5.920000E+03	9.323285E-18	1.734499E-18
5.930000E+03	9.266362E-18	1.723056E-18
5.940000E+03	9.211071E-18	1.711921E-18
5.950000E+03	9.157577E-18	1.701125E-18
5.960000E+03	9.105834E-18	1.690659E-18
5.970000E+03	9.055890E-18	1.680532E-18
5.980000E+03	9.007891E-18	1.670769E-18
5.990000E+03	8.961773E-18	1.661360E-18
6.000000E+03	8.917668E-18	1.652327E-18
6.010000E+03	8.875398E-18	1.643638E-18
6.020000E+03	8.835191E-18	1.635334E-18
6.030000E+03	8.796856E-18	1.627379E-18
6.040000E+03	8.760612E-18	1.619812E-18
6.050000E+03	8.726160E-18	1.612580E-18
6.060000E+03	8.693711E-18	1.605719E-18
6.070000E+03	8.663163E-18	1.599210E-18
6.080000E+03	8.634512E-18	1.593053E-18
6.090000E+03	8.607551E-18	1.587208E-18
6.100000E+03	8.582474E-18	1.581710E-18
6.110000E+03	8.558964E-18	1.576502E-18
6.120000E+03	8.537212E-18	1.571617E-18
6.130000E+03	8.516890E-18	1.566994E-18
6.140000E+03	8.497979E-18	1.562631E-18
6.150000E+03	8.480351E-18	1.558502E-18
6.160000E+03	8.463982E-18	1.554602E-18
6.170000E+03	8.448525E-18	1.550869E-18
6.180000E+03	8.433947E-18	1.547296E-18
6.190000E+03	8.420108E-18	1.543856E-18
6.200000E+03	8.406966E-18	1.540542E-18
6.210000E+03	8.394479E-18	1.537345E-18
6.220000E+03	8.382817E-18	1.534298E-18
6.230000E+03	8.372260E-18	1.531449E-18
6.240000E+03	8.362875E-18	1.528813E-18
6.250000E+03	8.354843E-18	1.526421E-18
6.260000E+03	8.348345E-18	1.524306E-18
6.270000E+03	8.343458E-18	1.522481E-18
6.280000E+03	8.340370E-18	1.520980E-18
6.290000E+03	8.339169E-18	1.519819E-18
6.300000E+03	8.339940E-18	1.519012E-18
6.310000E+03	8.342889E-18	1.518596E-18
6.320000E+03	8.347999E-18	1.518568E-18
6.330000E+03	8.355485E-18	1.518966E-18
6.340000E+03	8.365223E-18	1.519766E-18
6.350000E+03	8.377321E-18	1.520987E-18
6.360000E+03	8.391772E-18	1.522626E-18
6.370000E+03	8.408689E-18	1.524705E-18
6.380000E+03	8.427956E-18	1.527201E-18
6.390000E+03	8.449571E-18	1.530111E-18
6.400000E+03	8.473413E-18	1.533415E-18
6.410000E+03	8.499234E-18	1.537066E-18
6.420000E+03	8.526903E-18	1.541039E-18
6.430000E+03	8.556413E-18	1.545332E-18
6.440000E+03	8.587754E-18	1.549944E-18
6.450000E+03	8.620920E-18	1.554872E-18
6.460000E+03	8.656036E-18	1.560138E-18
6.470000E+03	8.693227E-18	1.565764E-18
6.480000E+03	8.732501E-18	1.571750E-18
6.490000E+03	8.773726E-18	1.578071E-18
6.500000E+03	8.817175E-18	1.584777E-18
6.510000E+03	8.862859E-18	1.591868E-18
6.520000E+03	8.910653E-18	1.599320E-18
6.530000E+03	8.960704E-18	1.607160E-18
6.540000E+03	9.013029E-18	1.615389E-18
6.550000E+03	9.067499E-18	1.623983E-18
6.560000E+03	9.124128E-18	1.632944E-18
6.570000E+03	9.183220E-18	1.642325E-18
6.580000E+03	9.244356E-18	1.652051E-18
6.590000E+03	9.307847E-18	1.662175E-18
6.600000E+03	9.373711E-18	1.672700E-18
6.610000E+03	9.441665E-18	1.683575E-18
6.620000E+03	9.512031E-18	1.694855E-18
6.630000E+03	9.584518E-18	1.706489E-18
6.640000E+03	9.659459E-18	1.718534E-18
6.650000E+03	9.736555E-18	1.730936E-18
6.660000E+03	9.815983E-18	1.743726E-18
6.670000E+03	9.897764E-18	1.756906E-18
6.680000E+03	9.981753E-18	1.770448E-18
6.690000E+03	1.006796E-17	1.784356E-18
6.700000E+03	1.015658E-17	1.798661E-18
6.710000E+03	1.024747E-17	1.813335E-18
6.720000E+03	1.034063E-17	1.828381E-18
6.730000E+03	1.043609E-17	1.843800E-18
6.740000E+03	1.053387E-17	1.859596E-18
6.750000E+03	1.063399E-17	1.875771E-18
6.760000E+03	1.073647E-17	1.892328E-18
6.770000E+03	1.084114E-17	1.909236E-18
6.780000E+03	1.094823E-17	1.926530E-18
6.790000E+03	1.105774E-17	1.944215E-18
6.800000E+03	1.116950E-17	1.962258E-18
6.810000E+03	1.128374E-17	1.980697E-18
6.820000E+03	1.140028E-17	1.999498E-18
6.830000E+03	1.151913E-17	2.018664E-18
6.840000E+03	1.164031E-17	2.038197E-18
6.850000E+03	1.176384E-17	2.058099E-18
6.860000E+03	1.188996E-17	2.078411E-18
6.870000E+03	1.201826E-17	2.099057E-18
6.880000E+03	1.214896E-17	2.120080E-18
6.890000E+03	1.228210E-17	2.141481E-18
6.900000E+03	1.241745E-17	2.163221E-18
6.910000E+03	1.255527E-17	2.185343E-18
6.920000E+03	1.269558E-17	2.207850E-18
6.930000E+03	1.283816E-17	2.230700E-18
6.940000E+03	1.298301E-17	2.253896E-18
6.950000E+03	1.313040E-17	2.277480E-18
6.960000E+03	1.328009E-17	2.301411E-18
6.970000E+03	1.343209E-17	2.325689E-18
6.980000E+03	1.358641E-17	2.350312E-18
6.990000E+03	1.374305E-17	2.375283E-18
7.000000E+03	1.390176E-17	2.400555E-18
7.010000E+03	1.406306E-17	2.426217E-18
7.020000E+03	1.422643E-17	2.452178E-18
7.030000E+03	1.439212E-17	2.478482E-18
7.040000E+03	1.455987E-17	2.505079E-18
7.050000E+03	1.472965E-17	2.531965E-18
7.060000E+03	1.490177E-17	2.559190E-18
7.070000E+03	1.507590E-17	2.586700E-18
7.080000E+03	1.525175E-17	2.614441E-18
7.090000E+03	1.542989E-17	2.642511E-18
7.100000E+03	1.561001E-17	2.670854E-18
7.110000E+03	1.579178E-17	2.699414E-18
7.120000E+03	1.597549E-17	2.728240E-18
7.130000E+03	1.616080E-17	2.757270E-18
7.140000E+03	1.634798E-17	2.786552E-18
7.150000E+03	1.653669E-17	2.816027E-18
7.160000E+03	1.672725E-17	2.845747E-18
7.170000E+03	1.691890E-17	2.875584E-18
7.180000E+03	1.711196E-17	2.905588E-18
7.190000E+03	1.730677E-17	2.935817E-18
7.200000E+03	1.750254E-17	2.966139E-18
7.210000E+03	1.769921E-17	2.996541E-18
7.220000E+03	1.789711E-17	3.027077E-18
7.230000E+03	1.809618E-17	3.057739E-18
7.240000E+03	1.829600E-17	3.088453E-18
7.250000E+03	1.849687E-17	3.119271E-18
7.260000E+03	1.869834E-17	3.150115E-18
7.270000E+03	1.890035E-17	3.180974E-18
7.280000E+03	1.910320E-17	3.211900E-18
7.290000E+03	1.930641E-17	3.242811E-18
7.300000E+03	1.951031E-17	3.273764E-18
7.310000E+03	1.971439E-17	3.304669E-18
7.320000E+03	1.991855E-17	3.335511E-18
7.330000E+03	2.012354E-17	3.366418E-18
7.340000E+03	2.032842E-17	3.397228E-18
7.350000E+03	2.053399E-17	3.428076E-18
7.360000E+03	2.073969E-17	3.458872E-18
7.370000E+03	2.094594E-17	3.489680E-18
7.380000E+03	2.115314E-17	3.520570E-18
7.390000E+03	2.136076E-17	3.551454E-18
7.400000E+03	2.156974E-17	3.582485E-18
7.410000E+03	2.178006E-17	3.613661E-18
7.420000E+03	2.199224E-17	3.645067E-18
7.430000E+03	2.220629E-17	3.676704E-18
7.440000E+03	2.242227E-17	3.708581E-18
7.450000E+03	2.264072E-17	3.740784E-18
7.460000E+03	2.286065E-17	3.773152E-18
7.470000E+03	2.308208E-17	3.805686E-18
7.480000E+03	2.330450E-17	3.838303E-18
7.490000E+03	2.352850E-17	3.871097E-18
7.500000E+03	2.375355E-17	3.903981E-18
7.510000E+03	2.397913E-17	3.936869E-18
7.520000E+03	2.420525E-17	3.969764E-18
7.530000E+03	2.443193E-17	4.002668E-18
7.540000E+03	2.465862E-17	4.035491E-18
7.550000E+03	2.488592E-17	4.068332E-18
7.560000E+03	2.511269E-17	4.101005E-18
7.570000E+03	2.534015E-17	4.133706E-18
7.580000E+03	2.556772E-17	4.166345E-18
7.590000E+03	2.579544E-17	4.198927E-18
7.600000E+03	2.602267E-17	4.231349E-18
7.610000E+03	2.625006E-17	4.263714E-18
7.620000E+03	2.647756E-17	4.296018E-18
7.630000E+03	2.670515E-17	4.328255E-18
7.640000E+03	2.693208E-17	4.360306E-18
7.650000E+03	2.715889E-17	4.392259E-18
7.660000E+03	2.738481E-17	4.423988E-18
7.670000E+03	2.761102E-17	4.455686E-18
7.680000E+03	2.783528E-17	4.486991E-18
7.690000E+03	2.805947E-17	4.518208E-18
7.700000E+03	2.828267E-17	4.549189E-18
7.710000E+03	2.850395E-17	4.579784E-18
7.720000E+03	2.872374E-17	4.610065E-18
7.730000E+03	2.894178E-17	4.639992E-18
7.740000E+03	2.915780E-17	4.669522E-18
7.750000E+03	2.937150E-17	4.698608E-18
7.760000E+03	2.958335E-17	4.727329E-18
