#wls	flux	fluxerr
1.600000E+03	2.892574E-16	5.082925E-17
1.640000E+03	2.971757E-16	5.211251E-17
1.680000E+03	3.050125E-16	5.337307E-17
1.720000E+03	3.128285E-16	5.462142E-17
1.760000E+03	3.205313E-16	5.584120E-17
1.800000E+03	3.280791E-16	5.702504E-17
1.840000E+03	3.354500E-16	5.816904E-17
1.880000E+03	3.425578E-16	5.925827E-17
1.920000E+03	3.493376E-16	6.028158E-17
1.960000E+03	3.557173E-16	6.122677E-17
2.000000E+03	3.615686E-16	6.207205E-17
2.040000E+03	3.668384E-16	6.280882E-17
2.080000E+03	3.713472E-16	6.340702E-17
2.120000E+03	3.749278E-16	6.383905E-17
2.160000E+03	3.774504E-16	6.408404E-17
2.200000E+03	3.787359E-16	6.411308E-17
2.240000E+03	3.785720E-16	6.389209E-17
2.280000E+03	3.769480E-16	6.342145E-17
2.320000E+03	3.738313E-16	6.269797E-17
2.360000E+03	3.693561E-16	6.174653E-17
2.400000E+03	3.636663E-16	6.059340E-17
2.440000E+03	3.568949E-16	5.926287E-17
2.480000E+03	3.491787E-16	5.777959E-17
2.520000E+03	3.405853E-16	5.615657E-17
2.560000E+03	3.312354E-16	5.441547E-17
2.600000E+03	3.211782E-16	5.256600E-17
2.640000E+03	3.104818E-16	5.062090E-17
2.680000E+03	2.991984E-16	4.859020E-17
2.720000E+03	2.874005E-16	4.648715E-17
2.760000E+03	2.751513E-16	4.432335E-17
2.800000E+03	2.625189E-16	4.211106E-17
2.840000E+03	2.495982E-16	3.986665E-17
2.880000E+03	2.364825E-16	3.760605E-17
2.920000E+03	2.232872E-16	3.534842E-17
2.960000E+03	2.101316E-16	3.311323E-17
3.000000E+03	1.971345E-16	3.091950E-17
3.010000E+03	1.939221E-16	3.037946E-17
3.020000E+03	1.907289E-16	2.984348E-17
3.030000E+03	1.875557E-16	2.931167E-17
3.040000E+03	1.844077E-16	2.878484E-17
3.050000E+03	1.812817E-16	2.826249E-17
3.060000E+03	1.781790E-16	2.774481E-17
3.070000E+03	1.751082E-16	2.723313E-17
3.080000E+03	1.720628E-16	2.672645E-17
3.090000E+03	1.690512E-16	2.622605E-17
3.100000E+03	1.660705E-16	2.573146E-17
3.110000E+03	1.631220E-16	2.524290E-17
3.120000E+03	1.602132E-16	2.476148E-17
3.130000E+03	1.573386E-16	2.428636E-17
3.140000E+03	1.545025E-16	2.381817E-17
3.150000E+03	1.517061E-16	2.335709E-17
3.160000E+03	1.489534E-16	2.290373E-17
3.170000E+03	1.462431E-16	2.245786E-17
3.180000E+03	1.435796E-16	2.202013E-17
3.190000E+03	1.409644E-16	2.159076E-17
3.200000E+03	1.383970E-16	2.116963E-17
3.210000E+03	1.358818E-16	2.075743E-17
3.220000E+03	1.334233E-16	2.035478E-17
3.230000E+03	1.310189E-16	1.996126E-17
3.240000E+03	1.286750E-16	1.957784E-17
3.250000E+03	1.263893E-16	1.920412E-17
3.260000E+03	1.241700E-16	1.884132E-17
3.270000E+03	1.220124E-16	1.848869E-17
3.280000E+03	1.199200E-16	1.814674E-17
3.290000E+03	1.178961E-16	1.781591E-17
3.300000E+03	1.159397E-16	1.749603E-17
3.310000E+03	1.140535E-16	1.718746E-17
3.320000E+03	1.122346E-16	1.688972E-17
3.330000E+03	1.104854E-16	1.660313E-17
3.340000E+03	1.088061E-16	1.632771E-17
3.350000E+03	1.071972E-16	1.606346E-17
3.360000E+03	1.056587E-16	1.581035E-17
3.370000E+03	1.041892E-16	1.556813E-17
3.380000E+03	1.027886E-16	1.533676E-17
3.390000E+03	1.014571E-16	1.511620E-17
3.400000E+03	1.001945E-16	1.490639E-17
3.410000E+03	9.899918E-17	1.470706E-17
3.420000E+03	9.787108E-17	1.451815E-17
3.430000E+03	9.680995E-17	1.433958E-17
3.440000E+03	9.581429E-17	1.417109E-17
3.450000E+03	9.488385E-17	1.401260E-17
3.460000E+03	9.401835E-17	1.386404E-17
3.470000E+03	9.321516E-17	1.372496E-17
3.480000E+03	9.247523E-17	1.359547E-17
3.490000E+03	9.179710E-17	1.347533E-17
3.500000E+03	9.117944E-17	1.336429E-17
3.510000E+03	9.062200E-17	1.326227E-17
3.520000E+03	9.012238E-17	1.316890E-17
3.530000E+03	8.968043E-17	1.308410E-17
3.540000E+03	8.929491E-17	1.300766E-17
3.550000E+03	8.896458E-17	1.293937E-17
3.560000E+03	8.868832E-17	1.287902E-17
3.570000E+03	8.846497E-17	1.282641E-17
3.580000E+03	8.829244E-17	1.278121E-17
3.590000E+03	8.817064E-17	1.274336E-17
3.600000E+03	8.809757E-17	1.271254E-17
3.610000E+03	8.807311E-17	1.268870E-17
3.620000E+03	8.809438E-17	1.267140E-17
3.630000E+03	8.816222E-17	1.266073E-17
3.640000E+03	8.827289E-17	1.265611E-17
3.650000E+03	8.842632E-17	1.265751E-17
3.660000E+03	8.862061E-17	1.266462E-17
3.670000E+03	8.885570E-17	1.267742E-17
3.680000E+03	8.912881E-17	1.269547E-17
3.690000E+03	8.943982E-17	1.271873E-17
3.700000E+03	8.978681E-17	1.274690E-17
3.710000E+03	9.016964E-17	1.277994E-17
3.720000E+03	9.058634E-17	1.281754E-17
3.730000E+03	9.103750E-17	1.285976E-17
3.740000E+03	9.152023E-17	1.290617E-17
3.750000E+03	9.203504E-17	1.295683E-17
3.760000E+03	9.258063E-17	1.301151E-17
3.770000E+03	9.315651E-17	1.307015E-17
3.780000E+03	9.376130E-17	1.313250E-17
3.790000E+03	9.439524E-17	1.319860E-17
3.800000E+03	9.505596E-17	1.326809E-17
3.810000E+03	9.574359E-17	1.334097E-17
3.820000E+03	9.645738E-17	1.341710E-17
3.830000E+03	9.719651E-17	1.349637E-17
3.840000E+03	9.796012E-17	1.357864E-17
3.850000E+03	9.874645E-17	1.366363E-17
3.860000E+03	9.955628E-17	1.375145E-17
3.870000E+03	1.003886E-16	1.384195E-17
3.880000E+03	1.012416E-16	1.393483E-17
3.890000E+03	1.021150E-16	1.403007E-17
3.900000E+03	1.030077E-16	1.412749E-17
3.910000E+03	1.039195E-16	1.422704E-17
3.920000E+03	1.048482E-16	1.432843E-17
3.930000E+03	1.057943E-16	1.443171E-17
3.940000E+03	1.067558E-16	1.453658E-17
3.950000E+03	1.077331E-16	1.464309E-17
3.960000E+03	1.087240E-16	1.475093E-17
3.970000E+03	1.097270E-16	1.485989E-17
3.980000E+03	1.107425E-16	1.497002E-17
3.990000E+03	1.117681E-16	1.508098E-17
4.000000E+03	1.128033E-16	1.519270E-17
4.010000E+03	1.138464E-16	1.530494E-17
4.020000E+03	1.148968E-16	1.541762E-17
4.030000E+03	1.159529E-16	1.553053E-17
4.040000E+03	1.170131E-16	1.564343E-17
4.050000E+03	1.180767E-16	1.575623E-17
4.060000E+03	1.191429E-16	1.586885E-17
4.070000E+03	1.202083E-16	1.598080E-17
4.080000E+03	1.212740E-16	1.609225E-17
4.090000E+03	1.223363E-16	1.620272E-17
4.100000E+03	1.233955E-16	1.631223E-17
4.110000E+03	1.244488E-16	1.642042E-17
4.120000E+03	1.254954E-16	1.652720E-17
4.130000E+03	1.265333E-16	1.663232E-17
4.140000E+03	1.275607E-16	1.673553E-17
4.150000E+03	1.285756E-16	1.683659E-17
4.160000E+03	1.295756E-16	1.693521E-17
4.170000E+03	1.305597E-16	1.703125E-17
4.180000E+03	1.315256E-16	1.712444E-17
4.190000E+03	1.324696E-16	1.721431E-17
4.200000E+03	1.333892E-16	1.730055E-17
4.210000E+03	1.342815E-16	1.738282E-17
4.220000E+03	1.351446E-16	1.746090E-17
4.230000E+03	1.359745E-16	1.753427E-17
4.240000E+03	1.367676E-16	1.760253E-17
4.250000E+03	1.375196E-16	1.766513E-17
4.260000E+03	1.382277E-16	1.772176E-17
4.270000E+03	1.388870E-16	1.777184E-17
4.280000E+03	1.394936E-16	1.781488E-17
4.290000E+03	1.400433E-16	1.785041E-17
4.300000E+03	1.405296E-16	1.787763E-17
4.310000E+03	1.409505E-16	1.789636E-17
4.320000E+03	1.412993E-16	1.790580E-17
4.330000E+03	1.415719E-16	1.790546E-17
4.340000E+03	1.417629E-16	1.789476E-17
4.350000E+03	1.418709E-16	1.787356E-17
4.360000E+03	1.418890E-16	1.784105E-17
4.370000E+03	1.418165E-16	1.779724E-17
4.380000E+03	1.416514E-16	1.774192E-17
4.390000E+03	1.413933E-16	1.767514E-17
4.400000E+03	1.410461E-16	1.759743E-17
4.410000E+03	1.406148E-16	1.750949E-17
4.420000E+03	1.401077E-16	1.741240E-17
4.430000E+03	1.395287E-16	1.730673E-17
4.440000E+03	1.388873E-16	1.719368E-17
4.450000E+03	1.381893E-16	1.707401E-17
4.460000E+03	1.374420E-16	1.694867E-17
4.470000E+03	1.366550E-16	1.681887E-17
4.480000E+03	1.358318E-16	1.668507E-17
4.490000E+03	1.349829E-16	1.654859E-17
4.500000E+03	1.341115E-16	1.640983E-17
4.510000E+03	1.332263E-16	1.626986E-17
4.520000E+03	1.323320E-16	1.612928E-17
4.530000E+03	1.314345E-16	1.598879E-17
4.540000E+03	1.305390E-16	1.584905E-17
4.550000E+03	1.296482E-16	1.571035E-17
4.560000E+03	1.287688E-16	1.557353E-17
4.570000E+03	1.279028E-16	1.543881E-17
4.580000E+03	1.270541E-16	1.530664E-17
4.590000E+03	1.262262E-16	1.517744E-17
4.600000E+03	1.254222E-16	1.505156E-17
4.610000E+03	1.246438E-16	1.492919E-17
4.620000E+03	1.238926E-16	1.481050E-17
4.630000E+03	1.231707E-16	1.469573E-17
4.640000E+03	1.224804E-16	1.458511E-17
4.650000E+03	1.218233E-16	1.447884E-17
4.660000E+03	1.211990E-16	1.437682E-17
4.670000E+03	1.206100E-16	1.427934E-17
4.680000E+03	1.200565E-16	1.418640E-17
4.690000E+03	1.195386E-16	1.409797E-17
4.700000E+03	1.190573E-16	1.401416E-17
4.710000E+03	1.186125E-16	1.393493E-17
4.720000E+03	1.182040E-16	1.386023E-17
4.730000E+03	1.178315E-16	1.379000E-17
4.740000E+03	1.174949E-16	1.372420E-17
4.750000E+03	1.171939E-16	1.366277E-17
4.760000E+03	1.169282E-16	1.360566E-17
4.770000E+03	1.166974E-16	1.355278E-17
4.780000E+03	1.164998E-16	1.350392E-17
4.790000E+03	1.163361E-16	1.345914E-17
4.800000E+03	1.162032E-16	1.341806E-17
4.810000E+03	1.161027E-16	1.338083E-17
4.820000E+03	1.160313E-16	1.334706E-17
4.830000E+03	1.159892E-16	1.331675E-17
4.840000E+03	1.159751E-16	1.328974E-17
4.850000E+03	1.159856E-16	1.326562E-17
4.860000E+03	1.160218E-16	1.324448E-17
4.870000E+03	1.160811E-16	1.322603E-17
4.880000E+03	1.161633E-16	1.321022E-17
4.890000E+03	1.162637E-16	1.319651E-17
4.900000E+03	1.163843E-16	1.318511E-17
4.910000E+03	1.165216E-16	1.317560E-17
4.920000E+03	1.166754E-16	1.316797E-17
4.930000E+03	1.168431E-16	1.316191E-17
4.940000E+03	1.170248E-16	1.315741E-17
4.950000E+03	1.172168E-16	1.315406E-17
4.960000E+03	1.174191E-16	1.315185E-17
4.970000E+03	1.176318E-16	1.315078E-17
4.980000E+03	1.178513E-16	1.315046E-17
4.990000E+03	1.180768E-16	1.315077E-17
5.000000E+03	1.183085E-16	1.315174E-17
5.010000E+03	1.185453E-16	1.315327E-17
5.020000E+03	1.187843E-16	1.315500E-17
5.030000E+03	1.190258E-16	1.315699E-17
5.040000E+03	1.192691E-16	1.315915E-17
5.050000E+03	1.195135E-16	1.316140E-17
5.060000E+03	1.197572E-16	1.316353E-17
5.070000E+03	1.199992E-16	1.316548E-17
5.080000E+03	1.202403E-16	1.316729E-17
5.090000E+03	1.204772E-16	1.316863E-17
5.100000E+03	1.207102E-16	1.316953E-17
5.110000E+03	1.209375E-16	1.316979E-17
5.120000E+03	1.211580E-16	1.316930E-17
5.130000E+03	1.213707E-16	1.316797E-17
5.140000E+03	1.215747E-16	1.316569E-17
5.150000E+03	1.217676E-16	1.316221E-17
5.160000E+03	1.219492E-16	1.315753E-17
5.170000E+03	1.221158E-16	1.315126E-17
5.180000E+03	1.222671E-16	1.314336E-17
5.190000E+03	1.224002E-16	1.313355E-17
5.200000E+03	1.225133E-16	1.312163E-17
5.210000E+03	1.226043E-16	1.310742E-17
5.220000E+03	1.226713E-16	1.309070E-17
5.230000E+03	1.227094E-16	1.307098E-17
5.240000E+03	1.227187E-16	1.304829E-17
5.250000E+03	1.226930E-16	1.302198E-17
5.260000E+03	1.226320E-16	1.299206E-17
5.270000E+03	1.225306E-16	1.295799E-17
5.280000E+03	1.223870E-16	1.291962E-17
5.290000E+03	1.221972E-16	1.287655E-17
5.300000E+03	1.219570E-16	1.282837E-17
5.310000E+03	1.216648E-16	1.277494E-17
5.320000E+03	1.213153E-16	1.271574E-17
5.330000E+03	1.209073E-16	1.265066E-17
5.340000E+03	1.204371E-16	1.257936E-17
5.350000E+03	1.199013E-16	1.250152E-17
5.360000E+03	1.192982E-16	1.241700E-17
5.370000E+03	1.186264E-16	1.232570E-17
5.380000E+03	1.178851E-16	1.222755E-17
5.390000E+03	1.170714E-16	1.212232E-17
5.400000E+03	1.161870E-16	1.201019E-17
5.410000E+03	1.152316E-16	1.189118E-17
5.420000E+03	1.142079E-16	1.176563E-17
5.430000E+03	1.131163E-16	1.163358E-17
5.440000E+03	1.119633E-16	1.149575E-17
5.450000E+03	1.107538E-16	1.135267E-17
5.460000E+03	1.094990E-16	1.120551E-17
5.470000E+03	1.082018E-16	1.105457E-17
5.480000E+03	1.068602E-16	1.089969E-17
5.490000E+03	1.054754E-16	1.074099E-17
5.500000E+03	1.040527E-16	1.057903E-17
5.510000E+03	1.026033E-16	1.041494E-17
5.520000E+03	1.011333E-16	1.024937E-17
5.530000E+03	9.965511E-17	1.008356E-17
5.540000E+03	9.817612E-17	9.918251E-18
5.550000E+03	9.670646E-17	9.754468E-18
5.560000E+03	9.525600E-17	9.593188E-18
5.570000E+03	9.383422E-17	9.435350E-18
5.580000E+03	9.244828E-17	9.281653E-18
5.590000E+03	9.110674E-17	9.132932E-18
5.600000E+03	8.981756E-17	8.989955E-18
5.610000E+03	8.858711E-17	8.853332E-18
5.620000E+03	8.742100E-17	8.723588E-18
5.630000E+03	8.632576E-17	8.601339E-18
5.640000E+03	8.530428E-17	8.486840E-18
5.650000E+03	8.436024E-17	8.380414E-18
5.660000E+03	8.349541E-17	8.282201E-18
5.670000E+03	8.271134E-17	8.192316E-18
5.680000E+03	8.200773E-17	8.110689E-18
5.690000E+03	8.138336E-17	8.037161E-18
5.700000E+03	8.083700E-17	7.971574E-18
5.710000E+03	8.036678E-17	7.913708E-18
5.720000E+03	7.996856E-17	7.863122E-18
5.730000E+03	7.963959E-17	7.819510E-18
5.740000E+03	7.937606E-17	7.782468E-18
5.750000E+03	7.917412E-17	7.751593E-18
5.760000E+03	7.903173E-17	7.726655E-18
5.770000E+03	7.894371E-17	7.707124E-18
5.780000E+03	7.890854E-17	7.692825E-18
5.790000E+03	7.892253E-17	7.683380E-18
5.800000E+03	7.898401E-17	7.678604E-18
5.810000E+03	7.909088E-17	7.678273E-18
5.820000E+03	7.924135E-17	7.682196E-18
5.830000E+03	7.943479E-17	7.690291E-18
5.840000E+03	7.966911E-17	7.702341E-18
5.850000E+03	7.994416E-17	7.718314E-18
5.860000E+03	8.025912E-17	7.738116E-18
5.870000E+03	8.061246E-17	7.761583E-18
5.880000E+03	8.100542E-17	7.788819E-18
5.890000E+03	8.143583E-17	7.819602E-18
5.900000E+03	8.190518E-17	7.854059E-18
5.910000E+03	8.241231E-17	7.892067E-18
5.920000E+03	8.295695E-17	7.933584E-18
5.930000E+03	8.353970E-17	7.978655E-18
5.940000E+03	8.415830E-17	8.027051E-18
5.950000E+03	8.481309E-17	8.078792E-18
5.960000E+03	8.550438E-17	8.133894E-18
5.970000E+03	8.622944E-17	8.192086E-18
5.980000E+03	8.698822E-17	8.253354E-18
5.990000E+03	8.777969E-17	8.317586E-18
6.000000E+03	8.860161E-17	8.384563E-18
6.010000E+03	8.945261E-17	8.454144E-18
6.020000E+03	9.033121E-17	8.526183E-18
6.030000E+03	9.123480E-17	8.600423E-18
6.040000E+03	9.216164E-17	8.676697E-18
6.050000E+03	9.311098E-17	8.754927E-18
6.060000E+03	9.407757E-17	8.834615E-18
6.070000E+03	9.506147E-17	8.915762E-18
6.080000E+03	9.605697E-17	8.997831E-18
6.090000E+03	9.706374E-17	9.080791E-18
6.100000E+03	9.807555E-17	9.164057E-18
6.110000E+03	9.909048E-17	9.247452E-18
6.120000E+03	1.001028E-16	9.330447E-18
6.130000E+03	1.011102E-16	9.412823E-18
6.140000E+03	1.021063E-16	9.494007E-18
6.150000E+03	1.030860E-16	9.573520E-18
6.160000E+03	1.040465E-16	9.651116E-18
6.170000E+03	1.049814E-16	9.726205E-18
6.180000E+03	1.058882E-16	9.798583E-18
6.190000E+03	1.067639E-16	9.867976E-18
6.200000E+03	1.076063E-16	9.934191E-18
6.210000E+03	1.084139E-16	9.997122E-18
6.220000E+03	1.091892E-16	1.005699E-17
6.230000E+03	1.099322E-16	1.011383E-17
6.240000E+03	1.106449E-16	1.016783E-17
6.250000E+03	1.113298E-16	1.021924E-17
6.260000E+03	1.119924E-16	1.026856E-17
6.270000E+03	1.126326E-16	1.031579E-17
6.280000E+03	1.132533E-16	1.036121E-17
6.290000E+03	1.138587E-16	1.040521E-17
6.300000E+03	1.144521E-16	1.044807E-17
6.310000E+03	1.150344E-16	1.048990E-17
6.320000E+03	1.156071E-16	1.053081E-17
6.330000E+03	1.161741E-16	1.057118E-17
6.340000E+03	1.167348E-16	1.061094E-17
6.350000E+03	1.172914E-16	1.065028E-17
6.360000E+03	1.178444E-16	1.068928E-17
6.370000E+03	1.183941E-16	1.072792E-17
6.380000E+03	1.189405E-16	1.076623E-17
6.390000E+03	1.194834E-16	1.080418E-17
6.400000E+03	1.200224E-16	1.084172E-17
6.410000E+03	1.205551E-16	1.087865E-17
6.420000E+03	1.210823E-16	1.091503E-17
6.430000E+03	1.216030E-16	1.095078E-17
6.440000E+03	1.221177E-16	1.098592E-17
6.450000E+03	1.226270E-16	1.102053E-17
6.460000E+03	1.231277E-16	1.105431E-17
6.470000E+03	1.236221E-16	1.108747E-17
6.480000E+03	1.241091E-16	1.111990E-17
6.490000E+03	1.245894E-16	1.115168E-17
6.500000E+03	1.250601E-16	1.118253E-17
6.510000E+03	1.255240E-16	1.121270E-17
6.520000E+03	1.259785E-16	1.124198E-17
6.530000E+03	1.264248E-16	1.127046E-17
6.540000E+03	1.268605E-16	1.129792E-17
6.550000E+03	1.272871E-16	1.132451E-17
6.560000E+03	1.277061E-16	1.135036E-17
6.570000E+03	1.281137E-16	1.137513E-17
6.580000E+03	1.285116E-16	1.139898E-17
6.590000E+03	1.289022E-16	1.142210E-17
6.600000E+03	1.292815E-16	1.144416E-17
6.610000E+03	1.296537E-16	1.146553E-17
6.620000E+03	1.300150E-16	1.148586E-17
6.630000E+03	1.303697E-16	1.150555E-17
6.640000E+03	1.307138E-16	1.152423E-17
6.650000E+03	1.310493E-16	1.154209E-17
6.660000E+03	1.313763E-16	1.155913E-17
6.670000E+03	1.316920E-16	1.157513E-17
6.680000E+03	1.319988E-16	1.159026E-17
6.690000E+03	1.322938E-16	1.160431E-17
6.700000E+03	1.325765E-16	1.161723E-17
6.710000E+03	1.328489E-16	1.162917E-17
6.720000E+03	1.331083E-16	1.163993E-17
6.730000E+03	1.333521E-16	1.164927E-17
6.740000E+03	1.335846E-16	1.165757E-17
6.750000E+03	1.338008E-16	1.166440E-17
6.760000E+03	1.340029E-16	1.166996E-17
6.770000E+03	1.341908E-16	1.167425E-17
6.780000E+03	1.343619E-16	1.167703E-17
6.790000E+03	1.345160E-16	1.167830E-17
6.800000E+03	1.346530E-16	1.167806E-17
6.810000E+03	1.347752E-16	1.167651E-17
6.820000E+03	1.348798E-16	1.167342E-17
6.830000E+03	1.349644E-16	1.166859E-17
6.840000E+03	1.350312E-16	1.166221E-17
6.850000E+03	1.350802E-16	1.165428E-17
6.860000E+03	1.351111E-16	1.164479E-17
6.870000E+03	1.351216E-16	1.163356E-17
6.880000E+03	1.351116E-16	1.162057E-17
6.890000E+03	1.350836E-16	1.160606E-17
6.900000E+03	1.350353E-16	1.158983E-17
6.910000E+03	1.349669E-16	1.157190E-17
6.920000E+03	1.348783E-16	1.155230E-17
6.930000E+03	1.347701E-16	1.153104E-17
6.940000E+03	1.346420E-16	1.150815E-17
6.950000E+03	1.344945E-16	1.148366E-17
6.960000E+03	1.343253E-16	1.145738E-17
6.970000E+03	1.341345E-16	1.142934E-17
6.980000E+03	1.339249E-16	1.139978E-17
6.990000E+03	1.336971E-16	1.136876E-17
7.000000E+03	1.334464E-16	1.133589E-17
7.010000E+03	1.331783E-16	1.130165E-17
7.020000E+03	1.328909E-16	1.126589E-17
7.030000E+03	1.325852E-16	1.122870E-17
7.040000E+03	1.322591E-16	1.118991E-17
7.050000E+03	1.319162E-16	1.114984E-17
7.060000E+03	1.315575E-16	1.110857E-17
7.070000E+03	1.311840E-16	1.106621E-17
7.080000E+03	1.307938E-16	1.102260E-17
7.090000E+03	1.303882E-16	1.097786E-17
7.100000E+03	1.299707E-16	1.093229E-17
7.110000E+03	1.295399E-16	1.088579E-17
7.120000E+03	1.290943E-16	1.083823E-17
7.130000E+03	1.286406E-16	1.079018E-17
7.140000E+03	1.281770E-16	1.074151E-17
7.150000E+03	1.277054E-16	1.069238E-17
7.160000E+03	1.272243E-16	1.064267E-17
7.170000E+03	1.267382E-16	1.059275E-17
7.180000E+03	1.262486E-16	1.054277E-17
7.190000E+03	1.257550E-16	1.049269E-17
7.200000E+03	1.252590E-16	1.044265E-17
7.210000E+03	1.247656E-16	1.039307E-17
7.220000E+03	1.242741E-16	1.034390E-17
7.230000E+03	1.237869E-16	1.029532E-17
7.240000E+03	1.233056E-16	1.024751E-17
7.250000E+03	1.228326E-16	1.020064E-17
7.260000E+03	1.223669E-16	1.015463E-17
7.270000E+03	1.219152E-16	1.011007E-17
7.280000E+03	1.214763E-16	1.006683E-17
7.290000E+03	1.210460E-16	1.002458E-17
7.300000E+03	1.206326E-16	9.984015E-18
7.310000E+03	1.202285E-16	9.944509E-18
7.320000E+03	1.198391E-16	9.906495E-18
7.330000E+03	1.194611E-16	9.869723E-18
7.340000E+03	1.190940E-16	9.834143E-18
7.350000E+03	1.187340E-16	9.799445E-18
7.360000E+03	1.183799E-16	9.765545E-18
7.370000E+03	1.180301E-16	9.732315E-18
7.380000E+03	1.176830E-16	9.699612E-18
7.390000E+03	1.173315E-16	9.666874E-18
7.400000E+03	1.169764E-16	9.634164E-18
7.410000E+03	1.166105E-16	9.600896E-18
7.420000E+03	1.162294E-16	9.566716E-18
7.430000E+03	1.158287E-16	9.531263E-18
7.440000E+03	1.154092E-16	9.494608E-18
7.450000E+03	1.149690E-16	9.456606E-18
7.460000E+03	1.145116E-16	9.417548E-18
7.470000E+03	1.140408E-16	9.377747E-18
7.480000E+03	1.135528E-16	9.336888E-18
7.490000E+03	1.130493E-16	9.295105E-18
7.500000E+03	1.125347E-16	9.252743E-18
7.510000E+03	1.120038E-16	9.209369E-18
7.520000E+03	1.114626E-16	9.165467E-18
7.530000E+03	1.109140E-16	9.121258E-18
7.540000E+03	1.103612E-16	9.076991E-18
7.550000E+03	1.098074E-16	9.032932E-18
7.560000E+03	1.092564E-16	8.989366E-18
7.570000E+03	1.087140E-16	8.946761E-18
7.580000E+03	1.081810E-16	8.905186E-18
7.590000E+03	1.076632E-16	8.865093E-18
7.600000E+03	1.071608E-16	8.826501E-18
7.610000E+03	1.066788E-16	8.789802E-18
7.620000E+03	1.062192E-16	8.755166E-18
7.630000E+03	1.057813E-16	8.722517E-18
7.640000E+03	1.053688E-16	8.692159E-18
7.650000E+03	1.049827E-16	8.664164E-18
7.660000E+03	1.046211E-16	8.638376E-18
7.670000E+03	1.042869E-16	8.615021E-18
7.680000E+03	1.039776E-16	8.593897E-18
7.690000E+03	1.036981E-16	8.575400E-18
7.700000E+03	1.034432E-16	8.559092E-18
7.710000E+03	1.032148E-16	8.545135E-18
7.720000E+03	1.030098E-16	8.533272E-18
7.730000E+03	1.028301E-16	8.523642E-18
7.740000E+03	1.026747E-16	8.516169E-18
7.750000E+03	1.025426E-16	8.510770E-18
7.760000E+03	1.024302E-16	8.507149E-18
