#wls	flux	fluxerr
1.600000E+03	1.630402E-16	3.073624E-17
1.640000E+03	1.680536E-16	3.168119E-17
1.680000E+03	1.728150E-16	3.257861E-17
1.720000E+03	1.772951E-16	3.342298E-17
1.760000E+03	1.813920E-16	3.419506E-17
1.800000E+03	1.851027E-16	3.489433E-17
1.840000E+03	1.883199E-16	3.550054E-17
1.880000E+03	1.910187E-16	3.600899E-17
1.920000E+03	1.931397E-16	3.640848E-17
1.960000E+03	1.945935E-16	3.668218E-17
2.000000E+03	1.953569E-16	3.682571E-17
2.040000E+03	1.953654E-16	3.682689E-17
2.080000E+03	1.945636E-16	3.667532E-17
2.120000E+03	1.929084E-16	3.636288E-17
2.160000E+03	1.903473E-16	3.587964E-17
2.200000E+03	1.868044E-16	3.521133E-17
2.240000E+03	1.822085E-16	3.434452E-17
2.280000E+03	1.765644E-16	3.328015E-17
2.320000E+03	1.699873E-16	3.203993E-17
2.360000E+03	1.626947E-16	3.066487E-17
2.400000E+03	1.548569E-16	2.918706E-17
2.440000E+03	1.466275E-16	2.763548E-17
2.480000E+03	1.381120E-16	2.603002E-17
2.520000E+03	1.294239E-16	2.439206E-17
2.560000E+03	1.206528E-16	2.273850E-17
2.600000E+03	1.118946E-16	2.108743E-17
2.640000E+03	1.032258E-16	1.945325E-17
2.680000E+03	9.472040E-17	1.784994E-17
2.720000E+03	8.644823E-17	1.629064E-17
2.760000E+03	7.846552E-17	1.478594E-17
2.800000E+03	7.082555E-17	1.334589E-17
2.840000E+03	6.357423E-17	1.197915E-17
2.880000E+03	5.675441E-17	1.069377E-17
2.920000E+03	5.040430E-17	9.496964E-18
2.960000E+03	4.455294E-17	8.394193E-18
3.000000E+03	3.921975E-17	7.389110E-18
3.010000E+03	3.796838E-17	7.153283E-18
3.020000E+03	3.674907E-17	6.923502E-18
3.030000E+03	3.556315E-17	6.700014E-18
3.040000E+03	3.440862E-17	6.482442E-18
3.050000E+03	3.328662E-17	6.271003E-18
3.060000E+03	3.219669E-17	6.065609E-18
3.070000E+03	3.113899E-17	5.866291E-18
3.080000E+03	3.011170E-17	5.672704E-18
3.090000E+03	2.911621E-17	5.485111E-18
3.100000E+03	2.815074E-17	5.303179E-18
3.110000E+03	2.721591E-17	5.127020E-18
3.120000E+03	2.631109E-17	4.956516E-18
3.130000E+03	2.543516E-17	4.791459E-18
3.140000E+03	2.458853E-17	4.631925E-18
3.150000E+03	2.377009E-17	4.477703E-18
3.160000E+03	2.297967E-17	4.328762E-18
3.170000E+03	2.221662E-17	4.184980E-18
3.180000E+03	2.148032E-17	4.046238E-18
3.190000E+03	2.077049E-17	3.912486E-18
3.200000E+03	2.008648E-17	3.783599E-18
3.210000E+03	1.942727E-17	3.659387E-18
3.220000E+03	1.879292E-17	3.539860E-18
3.230000E+03	1.818243E-17	3.424830E-18
3.240000E+03	1.759547E-17	3.314232E-18
3.250000E+03	1.703136E-17	3.207942E-18
3.260000E+03	1.648919E-17	3.105786E-18
3.270000E+03	1.596886E-17	3.007745E-18
3.280000E+03	1.546921E-17	2.913602E-18
3.290000E+03	1.499012E-17	2.823333E-18
3.300000E+03	1.453095E-17	2.736817E-18
3.310000E+03	1.409063E-17	2.653854E-18
3.320000E+03	1.366901E-17	2.574413E-18
3.330000E+03	1.326547E-17	2.498382E-18
3.340000E+03	1.287924E-17	2.425609E-18
3.350000E+03	1.250973E-17	2.355989E-18
3.360000E+03	1.215641E-17	2.289418E-18
3.370000E+03	1.181875E-17	2.225798E-18
3.380000E+03	1.149619E-17	2.165024E-18
3.390000E+03	1.118822E-17	2.106999E-18
3.400000E+03	1.089421E-17	2.051603E-18
3.410000E+03	1.061354E-17	1.998721E-18
3.420000E+03	1.034602E-17	1.948316E-18
3.430000E+03	1.009080E-17	1.900229E-18
3.440000E+03	9.847596E-18	1.854405E-18
3.450000E+03	9.615872E-18	1.810744E-18
3.460000E+03	9.395241E-18	1.769173E-18
3.470000E+03	9.185104E-18	1.729579E-18
3.480000E+03	8.985013E-18	1.691878E-18
3.490000E+03	8.794643E-18	1.656008E-18
3.500000E+03	8.613482E-18	1.621873E-18
3.510000E+03	8.441244E-18	1.589418E-18
3.520000E+03	8.277282E-18	1.558523E-18
3.530000E+03	8.121362E-18	1.529143E-18
3.540000E+03	7.972996E-18	1.501185E-18
3.550000E+03	7.831812E-18	1.474581E-18
3.560000E+03	7.697468E-18	1.449265E-18
3.570000E+03	7.569482E-18	1.425146E-18
3.580000E+03	7.447716E-18	1.402199E-18
3.590000E+03	7.331807E-18	1.380355E-18
3.600000E+03	7.221419E-18	1.359552E-18
3.610000E+03	7.116444E-18	1.339767E-18
3.620000E+03	7.016506E-18	1.320932E-18
3.630000E+03	6.921382E-18	1.303003E-18
3.640000E+03	6.830863E-18	1.285941E-18
3.650000E+03	6.744746E-18	1.269709E-18
3.660000E+03	6.662841E-18	1.254270E-18
3.670000E+03	6.584962E-18	1.239589E-18
3.680000E+03	6.510992E-18	1.225644E-18
3.690000E+03	6.440813E-18	1.212413E-18
3.700000E+03	6.374253E-18	1.199863E-18
3.710000E+03	6.311369E-18	1.188006E-18
3.720000E+03	6.251934E-18	1.176798E-18
3.730000E+03	6.195945E-18	1.166239E-18
3.740000E+03	6.143286E-18	1.156307E-18
3.750000E+03	6.093901E-18	1.146992E-18
3.760000E+03	6.047828E-18	1.138299E-18
3.770000E+03	6.004849E-18	1.130190E-18
3.780000E+03	5.965006E-18	1.122670E-18
3.790000E+03	5.928280E-18	1.115738E-18
3.800000E+03	5.894508E-18	1.109361E-18
3.810000E+03	5.863723E-18	1.103547E-18
3.820000E+03	5.835906E-18	1.098292E-18
3.830000E+03	5.810945E-18	1.093573E-18
3.840000E+03	5.788773E-18	1.089380E-18
3.850000E+03	5.769464E-18	1.085726E-18
3.860000E+03	5.752861E-18	1.082580E-18
3.870000E+03	5.738990E-18	1.079949E-18
3.880000E+03	5.727788E-18	1.077820E-18
3.890000E+03	5.719235E-18	1.076189E-18
3.900000E+03	5.713313E-18	1.075053E-18
3.910000E+03	5.709913E-18	1.074392E-18
3.920000E+03	5.709021E-18	1.074202E-18
3.930000E+03	5.710663E-18	1.074489E-18
3.940000E+03	5.714779E-18	1.075242E-18
3.950000E+03	5.721309E-18	1.076448E-18
3.960000E+03	5.730239E-18	1.078106E-18
3.970000E+03	5.741512E-18	1.080204E-18
3.980000E+03	5.755115E-18	1.082740E-18
3.990000E+03	5.771037E-18	1.085712E-18
4.000000E+03	5.789267E-18	1.089119E-18
4.010000E+03	5.809707E-18	1.092940E-18
4.020000E+03	5.832346E-18	1.097175E-18
4.030000E+03	5.857178E-18	1.101822E-18
4.040000E+03	5.884196E-18	1.106880E-18
4.050000E+03	5.913350E-18	1.112339E-18
4.060000E+03	5.944588E-18	1.118190E-18
4.070000E+03	5.977907E-18	1.124432E-18
4.080000E+03	6.013258E-18	1.131055E-18
4.090000E+03	6.050639E-18	1.138060E-18
4.100000E+03	6.090001E-18	1.145437E-18
4.110000E+03	6.131344E-18	1.153185E-18
4.120000E+03	6.174621E-18	1.161298E-18
4.130000E+03	6.219786E-18	1.169764E-18
4.140000E+03	6.266841E-18	1.178585E-18
4.150000E+03	6.315737E-18	1.187752E-18
4.160000E+03	6.366480E-18	1.197266E-18
4.170000E+03	6.418973E-18	1.207108E-18
4.180000E+03	6.473222E-18	1.217279E-18
4.190000E+03	6.529127E-18	1.227761E-18
4.200000E+03	6.586744E-18	1.238565E-18
4.210000E+03	6.645975E-18	1.249671E-18
4.220000E+03	6.706824E-18	1.261080E-18
4.230000E+03	6.769139E-18	1.272764E-18
4.240000E+03	6.832974E-18	1.284734E-18
4.250000E+03	6.898175E-18	1.296959E-18
4.260000E+03	6.964794E-18	1.309450E-18
4.270000E+03	7.032672E-18	1.322176E-18
4.280000E+03	7.101697E-18	1.335118E-18
4.290000E+03	7.171921E-18	1.348283E-18
4.300000E+03	7.243119E-18	1.361631E-18
4.310000E+03	7.315338E-18	1.375170E-18
4.320000E+03	7.388344E-18	1.388856E-18
4.330000E+03	7.462184E-18	1.402697E-18
4.340000E+03	7.536730E-18	1.416670E-18
4.350000E+03	7.611850E-18	1.430750E-18
4.360000E+03	7.687528E-18	1.444934E-18
4.370000E+03	7.763689E-18	1.459207E-18
4.380000E+03	7.840379E-18	1.473579E-18
4.390000E+03	7.917461E-18	1.488023E-18
4.400000E+03	7.995048E-18	1.502561E-18
4.410000E+03	8.073131E-18	1.517191E-18
4.420000E+03	8.151706E-18	1.531912E-18
4.430000E+03	8.230766E-18	1.546723E-18
4.440000E+03	8.310377E-18	1.561637E-18
4.450000E+03	8.390473E-18	1.576640E-18
4.460000E+03	8.471124E-18	1.591747E-18
4.470000E+03	8.552337E-18	1.606957E-18
4.480000E+03	8.634119E-18	1.622274E-18
4.490000E+03	8.716410E-18	1.637684E-18
4.500000E+03	8.799221E-18	1.653191E-18
4.510000E+03	8.882490E-18	1.668783E-18
4.520000E+03	8.966306E-18	1.684476E-18
4.530000E+03	9.050539E-18	1.700246E-18
4.540000E+03	9.135202E-18	1.716096E-18
4.550000E+03	9.220319E-18	1.732029E-18
4.560000E+03	9.305753E-18	1.748020E-18
4.570000E+03	9.391609E-18	1.764089E-18
4.580000E+03	9.477751E-18	1.780211E-18
4.590000E+03	9.564208E-18	1.796390E-18
4.600000E+03	9.650845E-18	1.812601E-18
4.610000E+03	9.737776E-18	1.828866E-18
4.620000E+03	9.824955E-18	1.845176E-18
4.630000E+03	9.912249E-18	1.861506E-18
4.640000E+03	9.999696E-18	1.877863E-18
4.650000E+03	1.008734E-17	1.894256E-18
4.660000E+03	1.017515E-17	1.910677E-18
4.670000E+03	1.026299E-17	1.927102E-18
4.680000E+03	1.035109E-17	1.943576E-18
4.690000E+03	1.043952E-17	1.960110E-18
4.700000E+03	1.052817E-17	1.976683E-18
4.710000E+03	1.061710E-17	1.993307E-18
4.720000E+03	1.070639E-17	2.009996E-18
4.730000E+03	1.079584E-17	2.026713E-18
4.740000E+03	1.088551E-17	2.043471E-18
4.750000E+03	1.097529E-17	2.060247E-18
4.760000E+03	1.106527E-17	2.077059E-18
4.770000E+03	1.115544E-17	2.093904E-18
4.780000E+03	1.124568E-17	2.110760E-18
4.790000E+03	1.133606E-17	2.127643E-18
4.800000E+03	1.142651E-17	2.144534E-18
4.810000E+03	1.151708E-17	2.161447E-18
4.820000E+03	1.160767E-17	2.178362E-18
4.830000E+03	1.169826E-17	2.195276E-18
4.840000E+03	1.178886E-17	2.212187E-18
4.850000E+03	1.187954E-17	2.229113E-18
4.860000E+03	1.197019E-17	2.246030E-18
4.870000E+03	1.206077E-17	2.262934E-18
4.880000E+03	1.215118E-17	2.279802E-18
4.890000E+03	1.224162E-17	2.296674E-18
4.900000E+03	1.233194E-17	2.313521E-18
4.910000E+03	1.242212E-17	2.330341E-18
4.920000E+03	1.251202E-17	2.347104E-18
4.930000E+03	1.260172E-17	2.363830E-18
4.940000E+03	1.269108E-17	2.380488E-18
4.950000E+03	1.278004E-17	2.397069E-18
4.960000E+03	1.286869E-17	2.413591E-18
4.970000E+03	1.295686E-17	2.430020E-18
4.980000E+03	1.304451E-17	2.446348E-18
4.990000E+03	1.313144E-17	2.462539E-18
5.000000E+03	1.321772E-17	2.478607E-18
5.010000E+03	1.330330E-17	2.494540E-18
5.020000E+03	1.338797E-17	2.510302E-18
5.030000E+03	1.347166E-17	2.525876E-18
5.040000E+03	1.355430E-17	2.541251E-18
5.050000E+03	1.363566E-17	2.556384E-18
5.060000E+03	1.371580E-17	2.571287E-18
5.070000E+03	1.379462E-17	2.585940E-18
5.080000E+03	1.387177E-17	2.600276E-18
5.090000E+03	1.394727E-17	2.614302E-18
5.100000E+03	1.402102E-17	2.627997E-18
5.110000E+03	1.409279E-17	2.641320E-18
5.120000E+03	1.416247E-17	2.654247E-18
5.130000E+03	1.422993E-17	2.666757E-18
5.140000E+03	1.429507E-17	2.678829E-18
5.150000E+03	1.435763E-17	2.690415E-18
5.160000E+03	1.441763E-17	2.701521E-18
5.170000E+03	1.447466E-17	2.712066E-18
5.180000E+03	1.452875E-17	2.722060E-18
5.190000E+03	1.457963E-17	2.731450E-18
5.200000E+03	1.462717E-17	2.740212E-18
5.210000E+03	1.467125E-17	2.748325E-18
5.220000E+03	1.471176E-17	2.755766E-18
5.230000E+03	1.474828E-17	2.762458E-18
5.240000E+03	1.478098E-17	2.768433E-18
5.250000E+03	1.480962E-17	2.773646E-18
5.260000E+03	1.483408E-17	2.778073E-18
5.270000E+03	1.485412E-17	2.781672E-18
5.280000E+03	1.486966E-17	2.784427E-18
5.290000E+03	1.488061E-17	2.786320E-18
5.300000E+03	1.488691E-17	2.787344E-18
5.310000E+03	1.488850E-17	2.787481E-18
5.320000E+03	1.488518E-17	2.786701E-18
5.330000E+03	1.487726E-17	2.785055E-18
5.340000E+03	1.486438E-17	2.782483E-18
5.350000E+03	1.484658E-17	2.778989E-18
5.360000E+03	1.482419E-17	2.774633E-18
5.370000E+03	1.479694E-17	2.769368E-18
5.380000E+03	1.476519E-17	2.763261E-18
5.390000E+03	1.472890E-17	2.756302E-18
5.400000E+03	1.468830E-17	2.748537E-18
5.410000E+03	1.464337E-17	2.739963E-18
5.420000E+03	1.459457E-17	2.730662E-18
5.430000E+03	1.454188E-17	2.720635E-18
5.440000E+03	1.448565E-17	2.709946E-18
5.450000E+03	1.442577E-17	2.698573E-18
5.460000E+03	1.436261E-17	2.686589E-18
5.470000E+03	1.429626E-17	2.674007E-18
5.480000E+03	1.422682E-17	2.660847E-18
5.490000E+03	1.415467E-17	2.647182E-18
5.500000E+03	1.407982E-17	2.633013E-18
5.510000E+03	1.400239E-17	2.618361E-18
5.520000E+03	1.392268E-17	2.603283E-18
5.530000E+03	1.384069E-17	2.587781E-18
5.540000E+03	1.375687E-17	2.571938E-18
5.550000E+03	1.367111E-17	2.555732E-18
5.560000E+03	1.358397E-17	2.539268E-18
5.570000E+03	1.349563E-17	2.522583E-18
5.580000E+03	1.340623E-17	2.505701E-18
5.590000E+03	1.331609E-17	2.488680E-18
5.600000E+03	1.322548E-17	2.471573E-18
5.610000E+03	1.313454E-17	2.454405E-18
5.620000E+03	1.304380E-17	2.437277E-18
5.630000E+03	1.295326E-17	2.420188E-18
5.640000E+03	1.286344E-17	2.403233E-18
5.650000E+03	1.277428E-17	2.386404E-18
5.660000E+03	1.268628E-17	2.369792E-18
5.670000E+03	1.259964E-17	2.353435E-18
5.680000E+03	1.251440E-17	2.337343E-18
5.690000E+03	1.243091E-17	2.321577E-18
5.700000E+03	1.234930E-17	2.306164E-18
5.710000E+03	1.226986E-17	2.291157E-18
5.720000E+03	1.219272E-17	2.276581E-18
5.730000E+03	1.211790E-17	2.262438E-18
5.740000E+03	1.204573E-17	2.248793E-18
5.750000E+03	1.197634E-17	2.235666E-18
5.760000E+03	1.190969E-17	2.223052E-18
5.770000E+03	1.184598E-17	2.210987E-18
5.780000E+03	1.178540E-17	2.199509E-18
5.790000E+03	1.172804E-17	2.188631E-18
5.800000E+03	1.167380E-17	2.178336E-18
5.810000E+03	1.162288E-17	2.168660E-18
5.820000E+03	1.157543E-17	2.159633E-18
5.830000E+03	1.153149E-17	2.151260E-18
5.840000E+03	1.149095E-17	2.143524E-18
5.850000E+03	1.145397E-17	2.136450E-18
5.860000E+03	1.142055E-17	2.130041E-18
5.870000E+03	1.139084E-17	2.124324E-18
5.880000E+03	1.136486E-17	2.119301E-18
5.890000E+03	1.134246E-17	2.114945E-18
5.900000E+03	1.132376E-17	2.111281E-18
5.910000E+03	1.130865E-17	2.108283E-18
5.920000E+03	1.129747E-17	2.106018E-18
5.930000E+03	1.128982E-17	2.104412E-18
5.940000E+03	1.128583E-17	2.103485E-18
5.950000E+03	1.128557E-17	2.103255E-18
5.960000E+03	1.128889E-17	2.103689E-18
5.970000E+03	1.129576E-17	2.104783E-18
5.980000E+03	1.130626E-17	2.106551E-18
5.990000E+03	1.132020E-17	2.108961E-18
6.000000E+03	1.133767E-17	2.112025E-18
6.010000E+03	1.135834E-17	2.115684E-18
6.020000E+03	1.138241E-17	2.119976E-18
6.030000E+03	1.140957E-17	2.124839E-18
6.040000E+03	1.143998E-17	2.130306E-18
6.050000E+03	1.147318E-17	2.136291E-18
6.060000E+03	1.150934E-17	2.142826E-18
6.070000E+03	1.154826E-17	2.149870E-18
6.080000E+03	1.158984E-17	2.157407E-18
6.090000E+03	1.163371E-17	2.165369E-18
6.100000E+03	1.168003E-17	2.173784E-18
6.110000E+03	1.172831E-17	2.182559E-18
6.120000E+03	1.177870E-17	2.191726E-18
6.130000E+03	1.183067E-17	2.201182E-18
6.140000E+03	1.188410E-17	2.210908E-18
6.150000E+03	1.193873E-17	2.220854E-18
6.160000E+03	1.199443E-17	2.230995E-18
6.170000E+03	1.205063E-17	2.241227E-18
6.180000E+03	1.210719E-17	2.251521E-18
6.190000E+03	1.216381E-17	2.261824E-18
6.200000E+03	1.222037E-17	2.272112E-18
6.210000E+03	1.227671E-17	2.282357E-18
6.220000E+03	1.233302E-17	2.292591E-18
6.230000E+03	1.238963E-17	2.302880E-18
6.240000E+03	1.244661E-17	2.313233E-18
6.250000E+03	1.250419E-17	2.323692E-18
6.260000E+03	1.256258E-17	2.334300E-18
6.270000E+03	1.262190E-17	2.345078E-18
6.280000E+03	1.268241E-17	2.356072E-18
6.290000E+03	1.274423E-17	2.367307E-18
6.300000E+03	1.280750E-17	2.378807E-18
6.310000E+03	1.287254E-17	2.390631E-18
6.320000E+03	1.293934E-17	2.402778E-18
6.330000E+03	1.300824E-17	2.415313E-18
6.340000E+03	1.307908E-17	2.428203E-18
6.350000E+03	1.315205E-17	2.441484E-18
6.360000E+03	1.322716E-17	2.455158E-18
6.370000E+03	1.330463E-17	2.469265E-18
6.380000E+03	1.338431E-17	2.483777E-18
6.390000E+03	1.346621E-17	2.498698E-18
6.400000E+03	1.355018E-17	2.513997E-18
6.410000E+03	1.363586E-17	2.529609E-18
6.420000E+03	1.372307E-17	2.545500E-18
6.430000E+03	1.381181E-17	2.561669E-18
6.440000E+03	1.390209E-17	2.578119E-18
6.450000E+03	1.399395E-17	2.594857E-18
6.460000E+03	1.408760E-17	2.611922E-18
6.470000E+03	1.418328E-17	2.629358E-18
6.480000E+03	1.428103E-17	2.647171E-18
6.490000E+03	1.438068E-17	2.665330E-18
6.500000E+03	1.448268E-17	2.683921E-18
6.510000E+03	1.458710E-17	2.702953E-18
6.520000E+03	1.469375E-17	2.722391E-18
6.530000E+03	1.480289E-17	2.742287E-18
6.540000E+03	1.491459E-17	2.762649E-18
6.550000E+03	1.502867E-17	2.783445E-18
6.560000E+03	1.514514E-17	2.804677E-18
6.570000E+03	1.526456E-17	2.826451E-18
6.580000E+03	1.538624E-17	2.848633E-18
6.590000E+03	1.551072E-17	2.871329E-18
6.600000E+03	1.563804E-17	2.894543E-18
6.610000E+03	1.576776E-17	2.918193E-18
6.620000E+03	1.590042E-17	2.942380E-18
6.630000E+03	1.603555E-17	2.967017E-18
6.640000E+03	1.617372E-17	2.992208E-18
6.650000E+03	1.631445E-17	3.017864E-18
6.660000E+03	1.645803E-17	3.044040E-18
6.670000E+03	1.660451E-17	3.070744E-18
6.680000E+03	1.675366E-17	3.097932E-18
6.690000E+03	1.690550E-17	3.125611E-18
6.700000E+03	1.706036E-17	3.153838E-18
6.710000E+03	1.721799E-17	3.182569E-18
6.720000E+03	1.737841E-17	3.211805E-18
6.730000E+03	1.754167E-17	3.241557E-18
6.740000E+03	1.770777E-17	3.271825E-18
6.750000E+03	1.787676E-17	3.302616E-18
6.760000E+03	1.804866E-17	3.333936E-18
6.770000E+03	1.822319E-17	3.365732E-18
6.780000E+03	1.840067E-17	3.398062E-18
6.790000E+03	1.858113E-17	3.430932E-18
6.800000E+03	1.876428E-17	3.464287E-18
6.810000E+03	1.895045E-17	3.498190E-18
6.820000E+03	1.913932E-17	3.532580E-18
6.830000E+03	1.933091E-17	3.567462E-18
6.840000E+03	1.952522E-17	3.602834E-18
6.850000E+03	1.972227E-17	3.638699E-18
6.860000E+03	1.992241E-17	3.675123E-18
6.870000E+03	2.012493E-17	3.711974E-18
6.880000E+03	2.033018E-17	3.749319E-18
6.890000E+03	2.053817E-17	3.787155E-18
6.900000E+03	2.074853E-17	3.825414E-18
6.910000E+03	2.096161E-17	3.864164E-18
6.920000E+03	2.117740E-17	3.903402E-18
6.930000E+03	2.139552E-17	3.943055E-18
6.940000E+03	2.161593E-17	3.983118E-18
6.950000E+03	2.183904E-17	4.023664E-18
6.960000E+03	2.206439E-17	4.064612E-18
6.970000E+03	2.229198E-17	4.105956E-18
6.980000E+03	2.252177E-17	4.147693E-18
6.990000E+03	2.275374E-17	4.189818E-18
7.000000E+03	2.298741E-17	4.232241E-18
7.010000E+03	2.322364E-17	4.275122E-18
7.020000E+03	2.346148E-17	4.318287E-18
7.030000E+03	2.370139E-17	4.361815E-18
7.040000E+03	2.394283E-17	4.405612E-18
7.050000E+03	2.418575E-17	4.449668E-18
7.060000E+03	2.443061E-17	4.494064E-18
7.070000E+03	2.467685E-17	4.538702E-18
7.080000E+03	2.492395E-17	4.583480E-18
7.090000E+03	2.517284E-17	4.628574E-18
7.100000E+03	2.542297E-17	4.673881E-18
7.110000E+03	2.567378E-17	4.719296E-18
7.120000E+03	2.592571E-17	4.764904E-18
7.130000E+03	2.617818E-17	4.810596E-18
7.140000E+03	2.643167E-17	4.856458E-18
7.150000E+03	2.668556E-17	4.902379E-18
7.160000E+03	2.694033E-17	4.948448E-18
7.170000E+03	2.719483E-17	4.994450E-18
7.180000E+03	2.744952E-17	5.040472E-18
7.190000E+03	2.770489E-17	5.086603E-18
7.200000E+03	2.795973E-17	5.132623E-18
7.210000E+03	2.821396E-17	5.178513E-18
7.220000E+03	2.846805E-17	5.224363E-18
7.230000E+03	2.872194E-17	5.270161E-18
7.240000E+03	2.897493E-17	5.315779E-18
7.250000E+03	2.922756E-17	5.361314E-18
7.260000E+03	2.947912E-17	5.406638E-18
7.270000E+03	2.972949E-17	5.451730E-18
7.280000E+03	2.997923E-17	5.496690E-18
7.290000E+03	3.022762E-17	5.541388E-18
7.300000E+03	3.047521E-17	5.585924E-18
7.310000E+03	3.072126E-17	5.630161E-18
7.320000E+03	3.096568E-17	5.674086E-18
7.330000E+03	3.120973E-17	5.717930E-18
7.340000E+03	3.145200E-17	5.761431E-18
7.350000E+03	3.169381E-17	5.804834E-18
7.360000E+03	3.193439E-17	5.847996E-18
7.370000E+03	3.217441E-17	5.891044E-18
7.380000E+03	3.241458E-17	5.934103E-18
7.390000E+03	3.265417E-17	5.977041E-18
7.400000E+03	3.289463E-17	6.020125E-18
7.410000E+03	3.313602E-17	6.063365E-18
7.420000E+03	3.337914E-17	6.106905E-18
7.430000E+03	3.362406E-17	6.150763E-18
7.440000E+03	3.387087E-17	6.194950E-18
7.450000E+03	3.412043E-17	6.239627E-18
7.460000E+03	3.437128E-17	6.284525E-18
7.470000E+03	3.462346E-17	6.329653E-18
7.480000E+03	3.487625E-17	6.374875E-18
7.490000E+03	3.513051E-17	6.420353E-18
7.500000E+03	3.538548E-17	6.465945E-18
7.510000E+03	3.564036E-17	6.511508E-18
7.520000E+03	3.589517E-17	6.557044E-18
7.530000E+03	3.614993E-17	6.602554E-18
7.540000E+03	3.640376E-17	6.647882E-18
7.550000E+03	3.665751E-17	6.693179E-18
7.560000E+03	3.690940E-17	6.738126E-18
7.570000E+03	3.716116E-17	6.783033E-18
7.580000E+03	3.741186E-17	6.827733E-18
7.590000E+03	3.766143E-17	6.872213E-18
7.600000E+03	3.790888E-17	6.916293E-18
7.610000E+03	3.815503E-17	6.960123E-18
7.620000E+03	3.839977E-17	7.003684E-18
7.630000E+03	3.864300E-17	7.046954E-18
7.640000E+03	3.888362E-17	7.089739E-18
7.650000E+03	3.912243E-17	7.132179E-18
7.660000E+03	3.935830E-17	7.174071E-18
7.670000E+03	3.959299E-17	7.215737E-18
7.680000E+03	3.982335E-17	7.256600E-18
7.690000E+03	4.005211E-17	7.297162E-18
7.700000E+03	4.027808E-17	7.337204E-18
7.710000E+03	4.049997E-17	7.376493E-18
7.720000E+03	4.071856E-17	7.415168E-18
7.730000E+03	4.093354E-17	7.453177E-18
7.740000E+03	4.114464E-17	7.490469E-18
7.750000E+03	4.135159E-17	7.526995E-18
7.760000E+03	4.155512E-17	7.562889E-18
