#wls	flux	fluxerr
1.600000E+03	1.945301E-16	7.882889E-17
1.640000E+03	2.006982E-16	8.129639E-17
1.680000E+03	2.067365E-16	8.370772E-17
1.720000E+03	2.126230E-16	8.605385E-17
1.760000E+03	2.182688E-16	8.829874E-17
1.800000E+03	2.236383E-16	9.042790E-17
1.840000E+03	2.286499E-16	9.240828E-17
1.880000E+03	2.332550E-16	9.422040E-17
1.920000E+03	2.373801E-16	9.583457E-17
1.960000E+03	2.409475E-16	9.721966E-17
2.000000E+03	2.438419E-16	9.832934E-17
2.040000E+03	2.459859E-16	9.913281E-17
2.080000E+03	2.472882E-16	9.959369E-17
2.120000E+03	2.476174E-16	9.965976E-17
2.160000E+03	2.468617E-16	9.928665E-17
2.200000E+03	2.448891E-16	9.842231E-17
2.240000E+03	2.415911E-16	9.702414E-17
2.280000E+03	2.369517E-16	9.508703E-17
2.320000E+03	2.310110E-16	9.262842E-17
2.360000E+03	2.239440E-16	8.971982E-17
2.400000E+03	2.159074E-16	8.642527E-17
2.440000E+03	2.070421E-16	8.280242E-17
2.480000E+03	1.975031E-16	7.891434E-17
2.520000E+03	1.874121E-16	7.481072E-17
2.560000E+03	1.768766E-16	7.053534E-17
2.600000E+03	1.660279E-16	6.614140E-17
2.640000E+03	1.549649E-16	6.166906E-17
2.680000E+03	1.438043E-16	5.716540E-17
2.720000E+03	1.326462E-16	5.267061E-17
2.760000E+03	1.216082E-16	4.823186E-17
2.800000E+03	1.107913E-16	4.388936E-17
2.840000E+03	1.003025E-16	3.968555E-17
2.880000E+03	9.024317E-17	3.566046E-17
2.920000E+03	8.070629E-17	3.185050E-17
2.960000E+03	7.177195E-17	2.828682E-17
3.000000E+03	6.350285E-17	2.499351E-17
3.010000E+03	6.154433E-17	2.421423E-17
3.020000E+03	5.963110E-17	2.345326E-17
3.030000E+03	5.776192E-17	2.271009E-17
3.040000E+03	5.593935E-17	2.198570E-17
3.050000E+03	5.416199E-17	2.127954E-17
3.060000E+03	5.242976E-17	2.059155E-17
3.070000E+03	5.074252E-17	1.992168E-17
3.080000E+03	4.910214E-17	1.927064E-17
3.090000E+03	4.750622E-17	1.863747E-17
3.100000E+03	4.595640E-17	1.802279E-17
3.110000E+03	4.445129E-17	1.742606E-17
3.120000E+03	4.299134E-17	1.684742E-17
3.130000E+03	4.157603E-17	1.628666E-17
3.140000E+03	4.020480E-17	1.574355E-17
3.150000E+03	3.887708E-17	1.521784E-17
3.160000E+03	3.759300E-17	1.470958E-17
3.170000E+03	3.635116E-17	1.421818E-17
3.180000E+03	3.515158E-17	1.374366E-17
3.190000E+03	3.399351E-17	1.328569E-17
3.200000E+03	3.287618E-17	1.284396E-17
3.210000E+03	3.179936E-17	1.241837E-17
3.220000E+03	3.076111E-17	1.200815E-17
3.230000E+03	2.976220E-17	1.161357E-17
3.240000E+03	2.880021E-17	1.123368E-17
3.250000E+03	2.787573E-17	1.086869E-17
3.260000E+03	2.698689E-17	1.051786E-17
3.270000E+03	2.613324E-17	1.018100E-17
3.280000E+03	2.531384E-17	9.857729E-18
3.290000E+03	2.452738E-17	9.547518E-18
3.300000E+03	2.377367E-17	9.250287E-18
3.310000E+03	2.305104E-17	8.965370E-18
3.320000E+03	2.235861E-17	8.692406E-18
3.330000E+03	2.169611E-17	8.431286E-18
3.340000E+03	2.106198E-17	8.181383E-18
3.350000E+03	2.045534E-17	7.942346E-18
3.360000E+03	1.987531E-17	7.713824E-18
3.370000E+03	1.932132E-17	7.495580E-18
3.380000E+03	1.879196E-17	7.287057E-18
3.390000E+03	1.828644E-17	7.087938E-18
3.400000E+03	1.780421E-17	6.897999E-18
3.410000E+03	1.734423E-17	6.716829E-18
3.420000E+03	1.690575E-17	6.544122E-18
3.430000E+03	1.648759E-17	6.379416E-18
3.440000E+03	1.608929E-17	6.222523E-18
3.450000E+03	1.571015E-17	6.073163E-18
3.460000E+03	1.534915E-17	5.930927E-18
3.470000E+03	1.500566E-17	5.795572E-18
3.480000E+03	1.467891E-17	5.666790E-18
3.490000E+03	1.436853E-17	5.544428E-18
3.500000E+03	1.407348E-17	5.428074E-18
3.510000E+03	1.379340E-17	5.317591E-18
3.520000E+03	1.352753E-17	5.212667E-18
3.530000E+03	1.327525E-17	5.113066E-18
3.540000E+03	1.303600E-17	5.018565E-18
3.550000E+03	1.280913E-17	4.928902E-18
3.560000E+03	1.259427E-17	4.843931E-18
3.570000E+03	1.239067E-17	4.763361E-18
3.580000E+03	1.219792E-17	4.687020E-18
3.590000E+03	1.201572E-17	4.614796E-18
3.600000E+03	1.184355E-17	4.546483E-18
3.610000E+03	1.168105E-17	4.481933E-18
3.620000E+03	1.152774E-17	4.420963E-18
3.630000E+03	1.138319E-17	4.363396E-18
3.640000E+03	1.124709E-17	4.309116E-18
3.650000E+03	1.111893E-17	4.257919E-18
3.660000E+03	1.099856E-17	4.209743E-18
3.670000E+03	1.088551E-17	4.164407E-18
3.680000E+03	1.077954E-17	4.121815E-18
3.690000E+03	1.068053E-17	4.081915E-18
3.700000E+03	1.058805E-17	4.044542E-18
3.710000E+03	1.050191E-17	4.009617E-18
3.720000E+03	1.042209E-17	3.977130E-18
3.730000E+03	1.034828E-17	3.946961E-18
3.740000E+03	1.028031E-17	3.919039E-18
3.750000E+03	1.021816E-17	3.893357E-18
3.760000E+03	1.016155E-17	3.869802E-18
3.770000E+03	1.011039E-17	3.848336E-18
3.780000E+03	1.006466E-17	3.828951E-18
3.790000E+03	1.002418E-17	3.811575E-18
3.800000E+03	9.988851E-18	3.796167E-18
3.810000E+03	9.958582E-18	3.782689E-18
3.820000E+03	9.933284E-18	3.771105E-18
3.830000E+03	9.912944E-18	3.761407E-18
3.840000E+03	9.897378E-18	3.753522E-18
3.850000E+03	9.886590E-18	3.747450E-18
3.860000E+03	9.880561E-18	3.743179E-18
3.870000E+03	9.879122E-18	3.740645E-18
3.880000E+03	9.882184E-18	3.739809E-18
3.890000E+03	9.889822E-18	3.740698E-18
3.900000E+03	9.901939E-18	3.743272E-18
3.910000E+03	9.918369E-18	3.747467E-18
3.920000E+03	9.939176E-18	3.753304E-18
3.930000E+03	9.964351E-18	3.760776E-18
3.940000E+03	9.993633E-18	3.769783E-18
3.950000E+03	1.002710E-17	3.780351E-18
3.960000E+03	1.006470E-17	3.792461E-18
3.970000E+03	1.010636E-17	3.806079E-18
3.980000E+03	1.015189E-17	3.821132E-18
3.990000E+03	1.020142E-17	3.837667E-18
4.000000E+03	1.025475E-17	3.855609E-18
4.010000E+03	1.031179E-17	3.874919E-18
4.020000E+03	1.037258E-17	3.895605E-18
4.030000E+03	1.043691E-17	3.917599E-18
4.040000E+03	1.050485E-17	3.940911E-18
4.050000E+03	1.057609E-17	3.965434E-18
4.060000E+03	1.065079E-17	3.991219E-18
4.070000E+03	1.072874E-17	4.018185E-18
4.080000E+03	1.080981E-17	4.046287E-18
4.090000E+03	1.089407E-17	4.075542E-18
4.100000E+03	1.098121E-17	4.105840E-18
4.110000E+03	1.107140E-17	4.137235E-18
4.120000E+03	1.116434E-17	4.169619E-18
4.130000E+03	1.126000E-17	4.202978E-18
4.140000E+03	1.135836E-17	4.237302E-18
4.150000E+03	1.145923E-17	4.272515E-18
4.160000E+03	1.156258E-17	4.308614E-18
4.170000E+03	1.166832E-17	4.345552E-18
4.180000E+03	1.177624E-17	4.383259E-18
4.190000E+03	1.188643E-17	4.421762E-18
4.200000E+03	1.199859E-17	4.460953E-18
4.210000E+03	1.211283E-17	4.500864E-18
4.220000E+03	1.222884E-17	4.541386E-18
4.230000E+03	1.234662E-17	4.582516E-18
4.240000E+03	1.246607E-17	4.624216E-18
4.250000E+03	1.258690E-17	4.666374E-18
4.260000E+03	1.270920E-17	4.709027E-18
4.270000E+03	1.283278E-17	4.752102E-18
4.280000E+03	1.295743E-17	4.795521E-18
4.290000E+03	1.308294E-17	4.839208E-18
4.300000E+03	1.320932E-17	4.883164E-18
4.310000E+03	1.333649E-17	4.927357E-18
4.320000E+03	1.346400E-17	4.971625E-18
4.330000E+03	1.359199E-17	5.016018E-18
4.340000E+03	1.372002E-17	5.060375E-18
4.350000E+03	1.384822E-17	5.104742E-18
4.360000E+03	1.397627E-17	5.149002E-18
4.370000E+03	1.410421E-17	5.193167E-18
4.380000E+03	1.423203E-17	5.237239E-18
4.390000E+03	1.435978E-17	5.281238E-18
4.400000E+03	1.448748E-17	5.325164E-18
4.410000E+03	1.461528E-17	5.369075E-18
4.420000E+03	1.474329E-17	5.413020E-18
4.430000E+03	1.487158E-17	5.457015E-18
4.440000E+03	1.500030E-17	5.501117E-18
4.450000E+03	1.512936E-17	5.545297E-18
4.460000E+03	1.525908E-17	5.589666E-18
4.470000E+03	1.538938E-17	5.634202E-18
4.480000E+03	1.552033E-17	5.678926E-18
4.490000E+03	1.565198E-17	5.723859E-18
4.500000E+03	1.578442E-17	5.769032E-18
4.510000E+03	1.591771E-17	5.814470E-18
4.520000E+03	1.605194E-17	5.860198E-18
4.530000E+03	1.618689E-17	5.906140E-18
4.540000E+03	1.632293E-17	5.952430E-18
4.550000E+03	1.645985E-17	5.998991E-18
4.560000E+03	1.659773E-17	6.045853E-18
4.570000E+03	1.673651E-17	6.092989E-18
4.580000E+03	1.687643E-17	6.140487E-18
4.590000E+03	1.701741E-17	6.188320E-18
4.600000E+03	1.715925E-17	6.236411E-18
4.610000E+03	1.730234E-17	6.284902E-18
4.620000E+03	1.744647E-17	6.333716E-18
4.630000E+03	1.759156E-17	6.382824E-18
4.640000E+03	1.773787E-17	6.432319E-18
4.650000E+03	1.788551E-17	6.482239E-18
4.660000E+03	1.803409E-17	6.532443E-18
4.670000E+03	1.818405E-17	6.583091E-18
4.680000E+03	1.833535E-17	6.634163E-18
4.690000E+03	1.848794E-17	6.685644E-18
4.700000E+03	1.864196E-17	6.737581E-18
4.710000E+03	1.879740E-17	6.789970E-18
4.720000E+03	1.895441E-17	6.842865E-18
4.730000E+03	1.911264E-17	6.896135E-18
4.740000E+03	1.927227E-17	6.949848E-18
4.750000E+03	1.943348E-17	7.004069E-18
4.760000E+03	1.959577E-17	7.058612E-18
4.770000E+03	1.975952E-17	7.113615E-18
4.780000E+03	1.992457E-17	7.169020E-18
4.790000E+03	2.009076E-17	7.224765E-18
4.800000E+03	2.025849E-17	7.280997E-18
4.810000E+03	2.042720E-17	7.337513E-18
4.820000E+03	2.059750E-17	7.394528E-18
4.830000E+03	2.076882E-17	7.451838E-18
4.840000E+03	2.094154E-17	7.509581E-18
4.850000E+03	2.111530E-17	7.567618E-18
4.860000E+03	2.129047E-17	7.626093E-18
4.870000E+03	2.146667E-17	7.684858E-18
4.880000E+03	2.164408E-17	7.743982E-18
4.890000E+03	2.182268E-17	7.803457E-18
4.900000E+03	2.200227E-17	7.863207E-18
4.910000E+03	2.218281E-17	7.923220E-18
4.920000E+03	2.236429E-17	7.983489E-18
4.930000E+03	2.254691E-17	8.044081E-18
4.940000E+03	2.273018E-17	8.104829E-18
4.950000E+03	2.291451E-17	8.165873E-18
4.960000E+03	2.309943E-17	8.227041E-18
4.970000E+03	2.328509E-17	8.288393E-18
4.980000E+03	2.347120E-17	8.349822E-18
4.990000E+03	2.365768E-17	8.411296E-18
5.000000E+03	2.384445E-17	8.472787E-18
5.010000E+03	2.403160E-17	8.534328E-18
5.020000E+03	2.421855E-17	8.595711E-18
5.030000E+03	2.440537E-17	8.656963E-18
5.040000E+03	2.459165E-17	8.717934E-18
5.050000E+03	2.477741E-17	8.778635E-18
5.060000E+03	2.496221E-17	8.838907E-18
5.070000E+03	2.514553E-17	8.898568E-18
5.080000E+03	2.532735E-17	8.957608E-18
5.090000E+03	2.550737E-17	9.015928E-18
5.100000E+03	2.568502E-17	9.073319E-18
5.110000E+03	2.585969E-17	9.129572E-18
5.120000E+03	2.603152E-17	9.184736E-18
5.130000E+03	2.619962E-17	9.238500E-18
5.140000E+03	2.636357E-17	9.290717E-18
5.150000E+03	2.652295E-17	9.341242E-18
5.160000E+03	2.667734E-17	9.389925E-18
5.170000E+03	2.682600E-17	9.436515E-18
5.180000E+03	2.696875E-17	9.480948E-18
5.190000E+03	2.710460E-17	9.522879E-18
5.200000E+03	2.723332E-17	9.562231E-18
5.210000E+03	2.735388E-17	9.598652E-18
5.220000E+03	2.746633E-17	9.632161E-18
5.230000E+03	2.756963E-17	9.662395E-18
5.240000E+03	2.766352E-17	9.689275E-18
5.250000E+03	2.774696E-17	9.712435E-18
5.260000E+03	2.781967E-17	9.731792E-18
5.270000E+03	2.788115E-17	9.747172E-18
5.280000E+03	2.793033E-17	9.758210E-18
5.290000E+03	2.796669E-17	9.764735E-18
5.300000E+03	2.799004E-17	9.766684E-18
5.310000E+03	2.799964E-17	9.763809E-18
5.320000E+03	2.799480E-17	9.755882E-18
5.330000E+03	2.797516E-17	9.742781E-18
5.340000E+03	2.794040E-17	9.724413E-18
5.350000E+03	2.789031E-17	9.700705E-18
5.360000E+03	2.782446E-17	9.671526E-18
5.370000E+03	2.774309E-17	9.636967E-18
5.380000E+03	2.764600E-17	9.596967E-18
5.390000E+03	2.753365E-17	9.551700E-18
5.400000E+03	2.740610E-17	9.501197E-18
5.410000E+03	2.726435E-17	9.445814E-18
5.420000E+03	2.710929E-17	9.385870E-18
5.430000E+03	2.694140E-17	9.321537E-18
5.440000E+03	2.676237E-17	9.253412E-18
5.450000E+03	2.657321E-17	9.181853E-18
5.460000E+03	2.637404E-17	9.106905E-18
5.470000E+03	2.616690E-17	9.029284E-18
5.480000E+03	2.595267E-17	8.949296E-18
5.490000E+03	2.573229E-17	8.867268E-18
5.500000E+03	2.550705E-17	8.783655E-18
5.510000E+03	2.527802E-17	8.698828E-18
5.520000E+03	2.504636E-17	8.613183E-18
5.530000E+03	2.481371E-17	8.527294E-18
5.540000E+03	2.458124E-17	8.441559E-18
5.550000E+03	2.435086E-17	8.356632E-18
5.560000E+03	2.412416E-17	8.273065E-18
5.570000E+03	2.390249E-17	8.191308E-18
5.580000E+03	2.368756E-17	8.111950E-18
5.590000E+03	2.348079E-17	8.035471E-18
5.600000E+03	2.328348E-17	7.962310E-18
5.610000E+03	2.309706E-17	7.892946E-18
5.620000E+03	2.292258E-17	7.827737E-18
5.630000E+03	2.276098E-17	7.766989E-18
5.640000E+03	2.261327E-17	7.711037E-18
5.650000E+03	2.248009E-17	7.660094E-18
5.660000E+03	2.236215E-17	7.614388E-18
5.670000E+03	2.225981E-17	7.574029E-18
5.680000E+03	2.217328E-17	7.539080E-18
5.690000E+03	2.210287E-17	7.509634E-18
5.700000E+03	2.204857E-17	7.485673E-18
5.710000E+03	2.201025E-17	7.467145E-18
5.720000E+03	2.198794E-17	7.454047E-18
5.730000E+03	2.198139E-17	7.446280E-18
5.740000E+03	2.199052E-17	7.443806E-18
5.750000E+03	2.201478E-17	7.446427E-18
5.760000E+03	2.205430E-17	7.454178E-18
5.770000E+03	2.210854E-17	7.466858E-18
5.780000E+03	2.217718E-17	7.484358E-18
5.790000E+03	2.226045E-17	7.506734E-18
5.800000E+03	2.235762E-17	7.533735E-18
5.810000E+03	2.246899E-17	7.565449E-18
5.820000E+03	2.259442E-17	7.601816E-18
5.830000E+03	2.273378E-17	7.642784E-18
5.840000E+03	2.288675E-17	7.688233E-18
5.850000E+03	2.305377E-17	7.738297E-18
5.860000E+03	2.323455E-17	7.792873E-18
5.870000E+03	2.342933E-17	7.852026E-18
5.880000E+03	2.363809E-17	7.915742E-18
5.890000E+03	2.386058E-17	7.983920E-18
5.900000E+03	2.409702E-17	8.056628E-18
5.910000E+03	2.434767E-17	8.133934E-18
5.920000E+03	2.461194E-17	8.215637E-18
5.930000E+03	2.489004E-17	8.301792E-18
5.940000E+03	2.518188E-17	8.392357E-18
5.950000E+03	2.548763E-17	8.487378E-18
5.960000E+03	2.580656E-17	8.586602E-18
5.970000E+03	2.613909E-17	8.690153E-18
5.980000E+03	2.648439E-17	8.797747E-18
5.990000E+03	2.684249E-17	8.909382E-18
6.000000E+03	2.721310E-17	9.024951E-18
6.010000E+03	2.759556E-17	9.144222E-18
6.020000E+03	2.798979E-17	9.267163E-18
6.030000E+03	2.839471E-17	9.393403E-18
6.040000E+03	2.881048E-17	9.522986E-18
6.050000E+03	2.923557E-17	9.655401E-18
6.060000E+03	2.967006E-17	9.790659E-18
6.070000E+03	3.011261E-17	9.928318E-18
6.080000E+03	3.056290E-17	1.006826E-17
6.090000E+03	3.101946E-17	1.020999E-17
6.100000E+03	3.148148E-17	1.035324E-17
6.110000E+03	3.194773E-17	1.049761E-17
6.120000E+03	3.241733E-17	1.064280E-17
6.130000E+03	3.288854E-17	1.078823E-17
6.140000E+03	3.335998E-17	1.093345E-17
6.150000E+03	3.383062E-17	1.107812E-17
6.160000E+03	3.429905E-17	1.122179E-17
6.170000E+03	3.476294E-17	1.136369E-17
6.180000E+03	3.522122E-17	1.150348E-17
6.190000E+03	3.567243E-17	1.164068E-17
6.200000E+03	3.611557E-17	1.177497E-17
6.210000E+03	3.655014E-17	1.190621E-17
6.220000E+03	3.697577E-17	1.203427E-17
6.230000E+03	3.739262E-17	1.215922E-17
6.240000E+03	3.780199E-17	1.228148E-17
6.250000E+03	3.820387E-17	1.240106E-17
6.260000E+03	3.859785E-17	1.251784E-17
6.270000E+03	3.898562E-17	1.263236E-17
6.280000E+03	3.936747E-17	1.274473E-17
6.290000E+03	3.974273E-17	1.285474E-17
6.300000E+03	4.011343E-17	1.296305E-17
6.310000E+03	4.047847E-17	1.306930E-17
6.320000E+03	4.083949E-17	1.317404E-17
6.330000E+03	4.119602E-17	1.327710E-17
6.340000E+03	4.154870E-17	1.337872E-17
6.350000E+03	4.189765E-17	1.347891E-17
6.360000E+03	4.224300E-17	1.357773E-17
6.370000E+03	4.258491E-17	1.367523E-17
6.380000E+03	4.292291E-17	1.377127E-17
6.390000E+03	4.325653E-17	1.386570E-17
6.400000E+03	4.358651E-17	1.395875E-17
6.410000E+03	4.391173E-17	1.405008E-17
6.420000E+03	4.423293E-17	1.413992E-17
6.430000E+03	4.454959E-17	1.422811E-17
6.440000E+03	4.486182E-17	1.431469E-17
6.450000E+03	4.517039E-17	1.439991E-17
6.460000E+03	4.547680E-17	1.448425E-17
6.470000E+03	4.578124E-17	1.456777E-17
6.480000E+03	4.608461E-17	1.465077E-17
6.490000E+03	4.638785E-17	1.473353E-17
6.500000E+03	4.669052E-17	1.481592E-17
6.510000E+03	4.699430E-17	1.489848E-17
6.520000E+03	4.729948E-17	1.498129E-17
6.530000E+03	4.760562E-17	1.506422E-17
6.540000E+03	4.791446E-17	1.514781E-17
6.550000E+03	4.822558E-17	1.523193E-17
6.560000E+03	4.853846E-17	1.531642E-17
6.570000E+03	4.885490E-17	1.540184E-17
6.580000E+03	4.917439E-17	1.548802E-17
6.590000E+03	4.949719E-17	1.557505E-17
6.600000E+03	4.982431E-17	1.566324E-17
6.610000E+03	5.015436E-17	1.575216E-17
6.620000E+03	5.048751E-17	1.584185E-17
6.630000E+03	5.082556E-17	1.593287E-17
6.640000E+03	5.116700E-17	1.602476E-17
6.650000E+03	5.151193E-17	1.611753E-17
6.660000E+03	5.186128E-17	1.621148E-17
6.670000E+03	5.221425E-17	1.630636E-17
6.680000E+03	5.257085E-17	1.640216E-17
6.690000E+03	5.293198E-17	1.649916E-17
6.700000E+03	5.329582E-17	1.659680E-17
6.710000E+03	5.366227E-17	1.669504E-17
6.720000E+03	5.403309E-17	1.679443E-17
6.730000E+03	5.440631E-17	1.689436E-17
6.740000E+03	5.478180E-17	1.699477E-17
6.750000E+03	5.516031E-17	1.709591E-17
6.760000E+03	5.554074E-17	1.719744E-17
6.770000E+03	5.592283E-17	1.729926E-17
6.780000E+03	5.630638E-17	1.740133E-17
6.790000E+03	5.669113E-17	1.750356E-17
6.800000E+03	5.707581E-17	1.760556E-17
6.810000E+03	5.746112E-17	1.770756E-17
6.820000E+03	5.784682E-17	1.780946E-17
6.830000E+03	5.823155E-17	1.791087E-17
6.840000E+03	5.861606E-17	1.801201E-17
6.850000E+03	5.899899E-17	1.811246E-17
6.860000E+03	5.938000E-17	1.821214E-17
6.870000E+03	5.975878E-17	1.831095E-17
6.880000E+03	6.013390E-17	1.840845E-17
6.890000E+03	6.050727E-17	1.850523E-17
6.900000E+03	6.087749E-17	1.860087E-17
6.910000E+03	6.124311E-17	1.869494E-17
6.920000E+03	6.160499E-17	1.878771E-17
6.930000E+03	6.196166E-17	1.887872E-17
6.940000E+03	6.231285E-17	1.896792E-17
6.950000E+03	6.265946E-17	1.905557E-17
6.960000E+03	6.300005E-17	1.914125E-17
6.970000E+03	6.333439E-17	1.922490E-17
6.980000E+03	6.366222E-17	1.930645E-17
6.990000E+03	6.398334E-17	1.938585E-17
7.000000E+03	6.429632E-17	1.946267E-17
7.010000E+03	6.460349E-17	1.953762E-17
7.020000E+03	6.490221E-17	1.960993E-17
7.030000E+03	6.519238E-17	1.967957E-17
7.040000E+03	6.547517E-17	1.974690E-17
7.050000E+03	6.574929E-17	1.981155E-17
7.060000E+03	6.601474E-17	1.987353E-17
7.070000E+03	6.627156E-17	1.993286E-17
7.080000E+03	6.651985E-17	1.998958E-17
7.090000E+03	6.676108E-17	2.004414E-17
7.100000E+03	6.699279E-17	2.009583E-17
7.110000E+03	6.721520E-17	2.014471E-17
7.120000E+03	6.742994E-17	2.019128E-17
7.130000E+03	6.763738E-17	2.023568E-17
7.140000E+03	6.783652E-17	2.027760E-17
7.150000E+03	6.802916E-17	2.031760E-17
7.160000E+03	6.821300E-17	2.035499E-17
7.170000E+03	6.839131E-17	2.039078E-17
7.180000E+03	6.856320E-17	2.042470E-17
7.190000E+03	6.872923E-17	2.045693E-17
7.200000E+03	6.888849E-17	2.048720E-17
7.210000E+03	6.904438E-17	2.051654E-17
7.220000E+03	6.919455E-17	2.054426E-17
7.230000E+03	6.934092E-17	2.057094E-17
7.240000E+03	6.948251E-17	2.059629E-17
7.250000E+03	6.962116E-17	2.062086E-17
7.260000E+03	6.975574E-17	2.064434E-17
7.270000E+03	6.988650E-17	2.066680E-17
7.280000E+03	7.001511E-17	2.068874E-17
7.290000E+03	7.014020E-17	2.070977E-17
7.300000E+03	7.026327E-17	2.073034E-17
7.310000E+03	7.038131E-17	2.074956E-17
7.320000E+03	7.049567E-17	2.076784E-17
7.330000E+03	7.060770E-17	2.078560E-17
7.340000E+03	7.071416E-17	2.080188E-17
7.350000E+03	7.081632E-17	2.081706E-17
7.360000E+03	7.091241E-17	2.083063E-17
7.370000E+03	7.100372E-17	2.084299E-17
7.380000E+03	7.108850E-17	2.085362E-17
7.390000E+03	7.116658E-17	2.086249E-17
7.400000E+03	7.123783E-17	2.086957E-17
7.410000E+03	7.130064E-17	2.087439E-17
7.420000E+03	7.135504E-17	2.087698E-17
7.430000E+03	7.140113E-17	2.087737E-17
7.440000E+03	7.143912E-17	2.087564E-17
7.450000E+03	7.147086E-17	2.087234E-17
7.460000E+03	7.149514E-17	2.086712E-17
7.470000E+03	7.151560E-17	2.086105E-17
7.480000E+03	7.153272E-17	2.085428E-17
7.490000E+03	7.154701E-17	2.084697E-17
7.500000E+03	7.155894E-17	2.083926E-17
7.510000E+03	7.156895E-17	2.083127E-17
7.520000E+03	7.158055E-17	2.082405E-17
7.530000E+03	7.159052E-17	2.081666E-17
7.540000E+03	7.160045E-17	2.080955E-17
7.550000E+03	7.161023E-17	2.080269E-17
7.560000E+03	7.162140E-17	2.079652E-17
7.570000E+03	7.163047E-17	2.079004E-17
7.580000E+03	7.163899E-17	2.078367E-17
7.590000E+03	7.164683E-17	2.077739E-17
7.600000E+03	7.165558E-17	2.077165E-17
7.610000E+03	7.166182E-17	2.076547E-17
7.620000E+03	7.166892E-17	2.075980E-17
7.630000E+03	7.167521E-17	2.075416E-17
7.640000E+03	7.167902E-17	2.074808E-17
7.650000E+03	7.168383E-17	2.074254E-17
7.660000E+03	7.168802E-17	2.073709E-17
7.670000E+03	7.169170E-17	2.073175E-17
7.680000E+03	7.169496E-17	2.072654E-17
7.690000E+03	7.169791E-17	2.072149E-17
7.700000E+03	7.170061E-17	2.071661E-17
7.710000E+03	7.170489E-17	2.071244E-17
7.720000E+03	7.170728E-17	2.070796E-17
7.730000E+03	7.171128E-17	2.070419E-17
7.740000E+03	7.171510E-17	2.070060E-17
7.750000E+03	7.171866E-17	2.069717E-17
7.760000E+03	7.172184E-17	2.069386E-17
