#wls	flux	fluxerr
1.600000E+03	2.093567E-16	1.134370E-16
1.640000E+03	2.154617E-16	1.167316E-16
1.680000E+03	2.211866E-16	1.198196E-16
1.720000E+03	2.264841E-16	1.226739E-16
1.760000E+03	2.312256E-16	1.252265E-16
1.800000E+03	2.353983E-16	1.274688E-16
1.840000E+03	2.388690E-16	1.293304E-16
1.880000E+03	2.415980E-16	1.307884E-16
1.920000E+03	2.435166E-16	1.318072E-16
1.960000E+03	2.445060E-16	1.323210E-16
2.000000E+03	2.445478E-16	1.323218E-16
2.040000E+03	2.435582E-16	1.317626E-16
2.080000E+03	2.414838E-16	1.306168E-16
2.120000E+03	2.382738E-16	1.288553E-16
2.160000E+03	2.338847E-16	1.264568E-16
2.200000E+03	2.282334E-16	1.233748E-16
2.240000E+03	2.212628E-16	1.195810E-16
2.280000E+03	2.129986E-16	1.150877E-16
2.320000E+03	2.036176E-16	1.099931E-16
2.360000E+03	1.934033E-16	1.044487E-16
2.400000E+03	1.825937E-16	9.858573E-17
2.440000E+03	1.713900E-16	9.251086E-17
2.480000E+03	1.599472E-16	8.631034E-17
2.520000E+03	1.484140E-16	8.006252E-17
2.560000E+03	1.369206E-16	7.383991E-17
2.600000E+03	1.255894E-16	6.770674E-17
2.640000E+03	1.145275E-16	6.172271E-17
2.680000E+03	1.038250E-16	5.593465E-17
2.720000E+03	9.357187E-17	5.039275E-17
2.760000E+03	8.382986E-17	4.512858E-17
2.800000E+03	7.466016E-17	4.017648E-17
2.840000E+03	6.610371E-17	3.555693E-17
2.880000E+03	5.819935E-17	3.129189E-17
2.920000E+03	5.096992E-17	2.739221E-17
2.960000E+03	4.442915E-17	2.386605E-17
2.994226E+03	3.168237E-16	1.701171E-16
2.996426E+03	3.172138E-16	1.703220E-16
2.997026E+03	3.176195E-16	1.705385E-16
2.997226E+03	3.180090E-16	1.707472E-16
2.997626E+03	3.183462E-16	1.709275E-16
2.997826E+03	3.186855E-16	1.711092E-16
2.998626E+03	3.190089E-16	1.712811E-16
3.000826E+03	3.193184E-16	1.714425E-16
3.001226E+03	3.196055E-16	1.715959E-16
3.001426E+03	3.198845E-16	1.717452E-16
3.001626E+03	3.201535E-16	1.718892E-16
3.001826E+03	3.203823E-16	1.720116E-16
3.005827E+03	3.205434E-16	1.720895E-16
3.008027E+03	3.207223E-16	1.721807E-16
3.008427E+03	3.209189E-16	1.722854E-16
3.008827E+03	3.210956E-16	1.723794E-16
3.010427E+03	3.212602E-16	1.724643E-16
3.011827E+03	3.213767E-16	1.725237E-16
3.013027E+03	3.214952E-16	1.725847E-16
3.014227E+03	3.215835E-16	1.726295E-16
3.014627E+03	3.216498E-16	1.726642E-16
3.015427E+03	3.217120E-16	1.726958E-16
3.016628E+03	3.217501E-16	1.727136E-16
3.018228E+03	3.217541E-16	1.727123E-16
3.020828E+03	3.217382E-16	1.726980E-16
3.021028E+03	3.217261E-16	1.726910E-16
3.024428E+03	3.216720E-16	1.726544E-16
3.027629E+03	3.216098E-16	1.726140E-16
3.027829E+03	3.215577E-16	1.725855E-16
3.028229E+03	3.214734E-16	1.725394E-16
3.028429E+03	3.213812E-16	1.724895E-16
3.030629E+03	3.212488E-16	1.724136E-16
3.031429E+03	3.211105E-16	1.723375E-16
3.033630E+03	3.209480E-16	1.722454E-16
3.034829E+03	3.208056E-16	1.721663E-16
3.036029E+03	3.206231E-16	1.720657E-16
3.037829E+03	3.204146E-16	1.719498E-16
3.038230E+03	3.201900E-16	1.718284E-16
3.038430E+03	3.199675E-16	1.717085E-16
3.039030E+03	3.197209E-16	1.715748E-16
3.039230E+03	3.194884E-16	1.714496E-16
3.040630E+03	3.192138E-16	1.712991E-16
3.041430E+03	3.189151E-16	1.711370E-16
3.041630E+03	3.186023E-16	1.709687E-16
3.041830E+03	3.182896E-16	1.708005E-16
3.043230E+03	3.179650E-16	1.706231E-16
3.043431E+03	3.176423E-16	1.704495E-16
3.044631E+03	3.172494E-16	1.702360E-16
3.044831E+03	3.168766E-16	1.700355E-16
3.045031E+03	3.164738E-16	1.698189E-16
3.045631E+03	3.160469E-16	1.695885E-16
3.046430E+03	3.156080E-16	1.693513E-16
3.046831E+03	3.151732E-16	1.691171E-16
3.047030E+03	3.147002E-16	1.688628E-16
3.047231E+03	3.142573E-16	1.686247E-16
3.047830E+03	3.137704E-16	1.683621E-16
3.048630E+03	3.132314E-16	1.680711E-16
3.048831E+03	3.127084E-16	1.677901E-16
3.049631E+03	3.121495E-16	1.674884E-16
3.049831E+03	3.115864E-16	1.671858E-16
3.050431E+03	3.110394E-16	1.668910E-16
3.051831E+03	3.104645E-16	1.665795E-16
3.052231E+03	3.098795E-16	1.662647E-16
3.053031E+03	3.092706E-16	1.659362E-16
3.054031E+03	3.086396E-16	1.655955E-16
3.054232E+03	3.079865E-16	1.652446E-16
3.055632E+03	3.073117E-16	1.648795E-16
3.055832E+03	3.066284E-16	1.645125E-16
3.056432E+03	3.059214E-16	1.641319E-16
3.056632E+03	3.051982E-16	1.637434E-16
3.057232E+03	3.044511E-16	1.633413E-16
3.057632E+03	3.036860E-16	1.629299E-16
3.059231E+03	3.028892E-16	1.624990E-16
3.063632E+03	3.020557E-16	1.620423E-16
3.063832E+03	3.012525E-16	1.616110E-16
3.064032E+03	3.004193E-16	1.611636E-16
3.064632E+03	2.995824E-16	1.607133E-16
3.065433E+03	2.987235E-16	1.602508E-16
3.065633E+03	2.978503E-16	1.597820E-16
3.066633E+03	2.969696E-16	1.593074E-16
3.066833E+03	2.960664E-16	1.588224E-16
3.067233E+03	2.951412E-16	1.583253E-16
3.068233E+03	2.941906E-16	1.578132E-16
3.069233E+03	2.932299E-16	1.572958E-16
3.070433E+03	2.922574E-16	1.567716E-16
3.071034E+03	2.912806E-16	1.562463E-16
3.071233E+03	2.902874E-16	1.557131E-16
3.071434E+03	2.892742E-16	1.551692E-16
3.071833E+03	2.882592E-16	1.546239E-16
3.072033E+03	2.872362E-16	1.540747E-16
3.072433E+03	2.861911E-16	1.535134E-16
3.073033E+03	2.851544E-16	1.529560E-16
3.073633E+03	2.840776E-16	1.523772E-16
3.074233E+03	2.829709E-16	1.517823E-16
3.074633E+03	2.818860E-16	1.511996E-16
3.075033E+03	2.807610E-16	1.505954E-16
3.075233E+03	2.796279E-16	1.499872E-16
3.075833E+03	2.784912E-16	1.493762E-16
3.076034E+03	2.773281E-16	1.487520E-16
3.076234E+03	2.761350E-16	1.481116E-16
3.077034E+03	2.749566E-16	1.474780E-16
3.077834E+03	2.737583E-16	1.468336E-16
3.078234E+03	2.725334E-16	1.461759E-16
3.078834E+03	2.712970E-16	1.455115E-16
3.079634E+03	2.700486E-16	1.448404E-16
3.080434E+03	2.687906E-16	1.441640E-16
3.083035E+03	2.674869E-16	1.434598E-16
3.084034E+03	2.662172E-16	1.427768E-16
3.084634E+03	2.649110E-16	1.420751E-16
3.084834E+03	2.636082E-16	1.413760E-16
3.085034E+03	2.622653E-16	1.406554E-16
3.086234E+03	2.609141E-16	1.399285E-16
3.086434E+03	2.595513E-16	1.391972E-16
3.087035E+03	2.581851E-16	1.384634E-16
3.088035E+03	2.567959E-16	1.377165E-16
3.088435E+03	2.554015E-16	1.369679E-16
3.088835E+03	2.539871E-16	1.362087E-16
3.089035E+03	2.525746E-16	1.354508E-16
3.089235E+03	2.511518E-16	1.346874E-16
3.089435E+03	2.497192E-16	1.339188E-16
3.090235E+03	2.482717E-16	1.331410E-16
3.091635E+03	2.467997E-16	1.323491E-16
3.091835E+03	2.453271E-16	1.315590E-16
3.092035E+03	2.438546E-16	1.307691E-16
3.092236E+03	2.423621E-16	1.299683E-16
3.092436E+03	2.408597E-16	1.291623E-16
3.092636E+03	2.393472E-16	1.283508E-16
3.092836E+03	2.378146E-16	1.275286E-16
3.093236E+03	2.362706E-16	1.267000E-16
3.093436E+03	2.347182E-16	1.258672E-16
3.093836E+03	2.331543E-16	1.250278E-16
3.094036E+03	2.315718E-16	1.241789E-16
3.095235E+03	2.299821E-16	1.233243E-16
3.095436E+03	2.283798E-16	1.224648E-16
3.096035E+03	2.267645E-16	1.215976E-16
3.096235E+03	2.251422E-16	1.207274E-16
3.096435E+03	2.235100E-16	1.198518E-16
3.096635E+03	2.218678E-16	1.189709E-16
3.097035E+03	2.202141E-16	1.180835E-16
3.097235E+03	2.185820E-16	1.172080E-16
3.097836E+03	2.169070E-16	1.163088E-16
3.098036E+03	2.152348E-16	1.154119E-16
3.099036E+03	2.135672E-16	1.145161E-16
3.099836E+03	2.118810E-16	1.136107E-16
3.100036E+03	2.101691E-16	1.126924E-16
3.100636E+03	2.084643E-16	1.117774E-16
3.100836E+03	2.067624E-16	1.108645E-16
3.101436E+03	2.050378E-16	1.099389E-16
3.101636E+03	2.032959E-16	1.090046E-16
3.101836E+03	2.015441E-16	1.080650E-16
3.102236E+03	1.997909E-16	1.071244E-16
3.102636E+03	1.980678E-16	1.061999E-16
3.103036E+03	1.962947E-16	1.052486E-16
3.103237E+03	1.945229E-16	1.042983E-16
3.103837E+03	1.927487E-16	1.033462E-16
3.104037E+03	1.909871E-16	1.024014E-16
3.104437E+03	1.891941E-16	1.014395E-16
3.104837E+03	1.873713E-16	1.004616E-16
3.105037E+03	1.855597E-16	9.948998E-17
3.105437E+03	1.837569E-16	9.852286E-17
3.105637E+03	1.819154E-16	9.753526E-17
3.105837E+03	1.800638E-16	9.654223E-17
3.106037E+03	1.782024E-16	9.554395E-17
3.106637E+03	1.763586E-16	9.455459E-17
3.107037E+03	1.744861E-16	9.355011E-17
3.107236E+03	1.726347E-16	9.255725E-17
3.107436E+03	1.707933E-16	9.156972E-17
3.107637E+03	1.689119E-16	9.056079E-17
3.107836E+03	1.670306E-16	8.955189E-17
3.108236E+03	1.651682E-16	8.855288E-17
3.108637E+03	1.632558E-16	8.752711E-17
3.108837E+03	1.613746E-16	8.651827E-17
3.109037E+03	1.594734E-16	8.549875E-17
3.109237E+03	1.575723E-16	8.447925E-17
3.109437E+03	1.556411E-16	8.344367E-17
3.110237E+03	1.537069E-16	8.240574E-17
3.110437E+03	1.517758E-16	8.137023E-17
3.110637E+03	1.498349E-16	8.032942E-17
3.111037E+03	1.478828E-16	7.928244E-17
3.111237E+03	1.459519E-16	7.824699E-17
3.111437E+03	1.440109E-16	7.720618E-17
3.111637E+03	1.420700E-16	7.616545E-17
3.112037E+03	1.401081E-16	7.511321E-17
3.112237E+03	1.381572E-16	7.406715E-17
3.112437E+03	1.362064E-16	7.302110E-17
3.112837E+03	1.342547E-16	7.197434E-17
3.113037E+03	1.322939E-16	7.092296E-17
3.113637E+03	1.303314E-16	6.987029E-17
3.113837E+03	1.283707E-16	6.881897E-17
3.114038E+03	1.264100E-16	6.776767E-17
3.114238E+03	1.244494E-16	6.671638E-17
3.114438E+03	1.224888E-16	6.566514E-17
3.114638E+03	1.205182E-16	6.460853E-17
3.115438E+03	1.185553E-16	6.355553E-17
3.115638E+03	1.165848E-16	6.249899E-17
3.115838E+03	1.146343E-16	6.145319E-17
3.116238E+03	1.126631E-16	6.039613E-17
3.116438E+03	1.106627E-16	5.932359E-17
3.116638E+03	1.086823E-16	5.826177E-17
3.117638E+03	1.066791E-16	5.718713E-17
3.118038E+03	1.046781E-16	5.611415E-17
3.118638E+03	1.027065E-16	5.505679E-17
3.118838E+03	1.007363E-16	5.400049E-17
3.119639E+03	9.873822E-17	5.292878E-17
3.120238E+03	9.673985E-17	5.185711E-17
3.120438E+03	9.474779E-17	5.078913E-17
3.121038E+03	9.276054E-17	4.972345E-17
3.121438E+03	9.077697E-17	4.865990E-17
3.121638E+03	8.882701E-17	4.761451E-17
3.122038E+03	8.683852E-17	4.654834E-17
3.122438E+03	8.485508E-17	4.548490E-17
3.122638E+03	8.289324E-17	4.443316E-17
3.123038E+03	8.095287E-17	4.339282E-17
3.123238E+03	7.899308E-17	4.234221E-17
3.123438E+03	7.703832E-17	4.129429E-17
3.123638E+03	7.507359E-17	4.024103E-17
3.123838E+03	7.313187E-17	3.920012E-17
3.124038E+03	7.117917E-17	3.815333E-17
3.124438E+03	6.921807E-17	3.710193E-17
3.125039E+03	6.724756E-17	3.604540E-17
3.125439E+03	6.531955E-17	3.501177E-17
3.126839E+03	6.339151E-17	3.397765E-17
3.127039E+03	6.144108E-17	3.293213E-17
3.127839E+03	5.950549E-17	3.189430E-17
3.128439E+03	5.755639E-17	3.084934E-17
3.129639E+03	5.563826E-17	2.982073E-17
3.130240E+03	5.371133E-17	2.878770E-17
3.130640E+03	5.176783E-17	2.774588E-17
3.130840E+03	4.982971E-17	2.670703E-17
3.131640E+03	4.792665E-17	2.568677E-17
3.132039E+03	4.600030E-17	2.465418E-17
3.132239E+03	4.410028E-17	2.363578E-17
3.132439E+03	4.223326E-17	2.263508E-17
3.132639E+03	4.033629E-17	2.161833E-17
3.132839E+03	3.846432E-17	2.061498E-17
3.133039E+03	3.657239E-17	1.960094E-17
3.133239E+03	3.472745E-17	1.861210E-17
3.133439E+03	3.287155E-17	1.761738E-17
3.133639E+03	3.102867E-17	1.662965E-17
3.134439E+03	2.918822E-17	1.564309E-17
3.134839E+03	2.733624E-17	1.465046E-17
3.135439E+03	2.548814E-17	1.365988E-17
3.135840E+03	2.364826E-17	1.267376E-17
3.136040E+03	2.184254E-17	1.170599E-17
3.136240E+03	2.002986E-17	1.073450E-17
3.137040E+03	1.822683E-17	9.768096E-18
3.137640E+03	1.643200E-17	8.806136E-18
3.137840E+03	1.465142E-17	7.851878E-18
3.138040E+03	1.290883E-17	6.917980E-18
3.138240E+03	1.114928E-17	5.975003E-18
3.138640E+03	9.405280E-18	5.040346E-18
3.139040E+03	7.666017E-18	4.108241E-18
3.139440E+03	5.958971E-18	3.193412E-18
3.139840E+03	4.239481E-18	2.271924E-18
3.140840E+03	2.539769E-18	1.361034E-18
3.141041E+03	8.711104E-19	4.668171E-19
3.141441E+03	-8.069815E-19	-4.324487E-19
3.141841E+03	-2.473350E-18	-1.325422E-18
3.142041E+03	-4.105408E-18	-2.200004E-18
3.142641E+03	-5.751853E-18	-3.082274E-18
3.143640E+03	-7.385847E-18	-3.957834E-18
3.143840E+03	-8.986907E-18	-4.815775E-18
3.144041E+03	-1.060173E-17	-5.681087E-18
3.145040E+03	-1.218365E-17	-6.528684E-18
3.145240E+03	-1.374184E-17	-7.363632E-18
3.145440E+03	-1.528105E-17	-8.188402E-18
3.146240E+03	-1.682988E-17	-9.018243E-18
3.146441E+03	-1.836303E-17	-9.839744E-18
3.146641E+03	-1.983621E-17	-1.062911E-17
3.146841E+03	-2.129539E-17	-1.141097E-17
3.147041E+03	-2.274256E-17	-1.218639E-17
3.147241E+03	-2.417474E-17	-1.295378E-17
3.147441E+03	-2.559391E-17	-1.371418E-17
3.147641E+03	-2.699708E-17	-1.446601E-17
3.148041E+03	-2.838506E-17	-1.520965E-17
3.148241E+03	-2.976022E-17	-1.594646E-17
3.148841E+03	-3.111798E-17	-1.667384E-17
3.149041E+03	-3.246013E-17	-1.739295E-17
3.150041E+03	-3.378537E-17	-1.810279E-17
3.150841E+03	-3.509479E-17	-1.880418E-17
3.151241E+03	-3.638665E-17	-1.949626E-17
3.151441E+03	-3.766273E-17	-2.017993E-17
3.151642E+03	-3.892283E-17	-2.085504E-17
3.151842E+03	-4.016492E-17	-2.152050E-17
3.152042E+03	-4.138804E-17	-2.217578E-17
3.152242E+03	-4.259215E-17	-2.282088E-17
3.152442E+03	-4.377828E-17	-2.345634E-17
3.152842E+03	-4.494311E-17	-2.408031E-17
3.153042E+03	-4.609025E-17	-2.469487E-17
3.153242E+03	-4.721641E-17	-2.529819E-17
3.153642E+03	-4.832126E-17	-2.589001E-17
3.154042E+03	-4.940610E-17	-2.647109E-17
3.154442E+03	-5.046995E-17	-2.704093E-17
3.154642E+03	-5.153810E-17	-2.761315E-17
3.155242E+03	-5.257658E-17	-2.816930E-17
3.155441E+03	-5.358778E-17	-2.871099E-17
3.156041E+03	-5.458026E-17	-2.924248E-17
3.156242E+03	-5.554447E-17	-2.975899E-17
3.156441E+03	-5.649371E-17	-3.026747E-17
3.157042E+03	-5.740721E-17	-3.075662E-17
3.157242E+03	-5.831647E-17	-3.124368E-17
3.157442E+03	-5.918976E-17	-3.171146E-17
3.157642E+03	-6.005106E-17	-3.217281E-17
3.157842E+03	-6.083347E-17	-3.259190E-17
3.158242E+03	-6.163942E-17	-3.302350E-17
3.158442E+03	-6.239086E-17	-3.342598E-17
3.158642E+03	-6.312031E-17	-3.381669E-17
3.158842E+03	-6.384876E-17	-3.420686E-17
3.160242E+03	-6.452271E-17	-3.456721E-17
3.160442E+03	-6.515426E-17	-3.490545E-17
3.161242E+03	-6.577451E-17	-3.523733E-17
3.161442E+03	-6.637208E-17	-3.555736E-17
3.161642E+03	-6.694869E-17	-3.586616E-17
3.161842E+03	-6.750533E-17	-3.616426E-17
3.162042E+03	-6.803899E-17	-3.645005E-17
3.162242E+03	-6.854070E-17	-3.671871E-17
3.162643E+03	-6.901798E-17	-3.697418E-17
3.163043E+03	-6.945631E-17	-3.720879E-17
3.163443E+03	-6.986668E-17	-3.742840E-17
3.163643E+03	-7.024257E-17	-3.762966E-17
3.163843E+03	-7.058651E-17	-3.781380E-17
3.164043E+03	-7.090849E-17	-3.798617E-17
3.164643E+03	-7.118657E-17	-3.813481E-17
3.165043E+03	-7.144318E-17	-3.827204E-17
3.165243E+03	-7.166929E-17	-3.839306E-17
3.165443E+03	-7.184850E-17	-3.848895E-17
3.165843E+03	-7.195834E-17	-3.854756E-17
3.166043E+03	-7.203872E-17	-3.859050E-17
3.166443E+03	-7.208966E-17	-3.861756E-17
3.166643E+03	-7.211213E-17	-3.862949E-17
3.167043E+03	-7.210219E-17	-3.862393E-17
3.167843E+03	-7.206233E-17	-3.860212E-17
3.168244E+03	-7.198950E-17	-3.856288E-17
3.168443E+03	-7.188521E-17	-3.850690E-17
3.168643E+03	-7.174998E-17	-3.843435E-17
3.169043E+03	-7.157936E-17	-3.834272E-17
3.169243E+03	-7.137826E-17	-3.823488E-17
3.169643E+03	-7.114175E-17	-3.810797E-17
3.169843E+03	-7.087478E-17	-3.796485E-17
3.170043E+03	-7.057689E-17	-3.780517E-17
3.170243E+03	-7.025004E-17	-3.762998E-17
3.170443E+03	-6.987031E-17	-3.742646E-17
3.170643E+03	-6.945066E-17	-3.720156E-17
3.170843E+03	-6.897613E-17	-3.694726E-17
3.172243E+03	-6.846791E-17	-3.667427E-17
3.172643E+03	-6.794803E-17	-3.639558E-17
3.172843E+03	-6.738870E-17	-3.609588E-17
3.173444E+03	-6.678958E-17	-3.577464E-17
3.173644E+03	-6.613048E-17	-3.542150E-17
3.173844E+03	-6.540651E-17	-3.503362E-17
3.174644E+03	-6.465931E-17	-3.463298E-17
3.175044E+03	-6.390003E-17	-3.422609E-17
3.175444E+03	-6.309688E-17	-3.379570E-17
3.175844E+03	-6.225083E-17	-3.334234E-17
3.176044E+03	-6.136030E-17	-3.286527E-17
3.176444E+03	-6.042448E-17	-3.236384E-17
3.176844E+03	-5.944379E-17	-3.183838E-17
3.177644E+03	-5.841942E-17	-3.128935E-17
3.177844E+03	-5.734938E-17	-3.071614E-17
3.178845E+03	-5.623292E-17	-3.011772E-17
3.179445E+03	-5.507040E-17	-2.949482E-17
3.180044E+03	-5.386103E-17	-2.884684E-17
3.180644E+03	-5.260680E-17	-2.817485E-17
3.181444E+03	-5.131237E-17	-2.748125E-17
3.181644E+03	-4.997913E-17	-2.676713E-17
3.181844E+03	-4.858004E-17	-2.601775E-17
3.182244E+03	-4.715172E-17	-2.525264E-17
3.182644E+03	-4.567257E-17	-2.446032E-17
3.182844E+03	-4.414387E-17	-2.364153E-17
3.183244E+03	-4.257299E-17	-2.280011E-17
3.183644E+03	-4.093733E-17	-2.192399E-17
3.183844E+03	-3.927802E-17	-2.103528E-17
3.184445E+03	-3.755837E-17	-2.011414E-17
3.184845E+03	-3.577419E-17	-1.915852E-17
3.185045E+03	-3.395637E-17	-1.818495E-17
3.185245E+03	-3.206875E-17	-1.717400E-17
3.185445E+03	-3.014624E-17	-1.614438E-17
3.185645E+03	-2.814993E-17	-1.507524E-17
3.186445E+03	-2.609826E-17	-1.397633E-17
3.186845E+03	-2.400513E-17	-1.285532E-17
3.187045E+03	-2.188626E-17	-1.172059E-17
3.188045E+03	-1.968410E-17	-1.054112E-17
3.188245E+03	-1.744266E-17	-9.340768E-18
3.189245E+03	-1.517093E-17	-8.124102E-18
3.189446E+03	-1.282289E-17	-6.866697E-18
3.189846E+03	-1.042594E-17	-5.583087E-18
3.190046E+03	-7.961480E-18	-4.263357E-18
3.190646E+03	-5.437439E-18	-2.911711E-18
3.191246E+03	-2.888864E-18	-1.546953E-18
3.191445E+03	-2.682093E-19	-1.436225E-19
3.192046E+03	2.408470E-18	1.289692E-18
3.193445E+03	5.139533E-18	2.752067E-18
3.193645E+03	7.909153E-18	4.235104E-18
3.194045E+03	1.074159E-17	5.751751E-18
3.194245E+03	1.363058E-17	7.298685E-18
3.194445E+03	1.657838E-17	8.877096E-18
3.194846E+03	1.958185E-17	1.048528E-17
3.195646E+03	2.264477E-17	1.212520E-17
3.196046E+03	2.576671E-17	1.379676E-17
3.197046E+03	2.894880E-17	1.550037E-17
3.197646E+03	3.219093E-17	1.723618E-17
3.198246E+03	3.549375E-17	1.900446E-17
3.198446E+03	3.885880E-17	2.080614E-17
3.198846E+03	4.228533E-17	2.264067E-17
3.199646E+03	4.577297E-17	2.450774E-17
3.200447E+03	4.932222E-17	2.640776E-17
3.200847E+03	5.293583E-17	2.834235E-17
3.201047E+03	5.661352E-17	3.031133E-17
3.201847E+03	6.035275E-17	3.231295E-17
3.202247E+03	6.415745E-17	3.434978E-17
3.202847E+03	6.802639E-17	3.642087E-17
3.203447E+03	7.196096E-17	3.852705E-17
3.203646E+03	7.596121E-17	4.066862E-17
3.204846E+03	8.002649E-17	4.284432E-17
3.206047E+03	8.381030E-17	4.486925E-17
3.206247E+03	8.791478E-17	4.706651E-17
3.207047E+03	9.217582E-17	4.934711E-17
3.207247E+03	9.608673E-17	5.144069E-17
3.207447E+03	1.003495E-16	5.372261E-17
3.207647E+03	1.046450E-16	5.602208E-17
3.207847E+03	9.611368E-17	5.145463E-17
3.208047E+03	9.805179E-17	5.249205E-17
3.208447E+03	9.467236E-17	5.068255E-17
3.208847E+03	8.416912E-17	4.505940E-17
3.209447E+03	8.591271E-17	4.599239E-17
3.209647E+03	8.816874E-17	4.719998E-17
3.209847E+03	8.578196E-17	4.592211E-17
3.210247E+03	7.313738E-17	3.915277E-17
3.210848E+03	6.158313E-17	3.296711E-17
3.211048E+03	5.808431E-17	3.109400E-17
3.211648E+03	5.892830E-17	3.154552E-17
3.211848E+03	5.946909E-17	3.183491E-17
3.212448E+03	6.113726E-17	3.272761E-17
3.213048E+03	4.751612E-17	2.543579E-17
3.213248E+03	3.966642E-17	2.123371E-17
3.214248E+03	3.738987E-17	2.001475E-17
3.214448E+03	3.209579E-17	1.718078E-17
3.214648E+03	2.689546E-17	1.439701E-17
3.214848E+03	2.408397E-17	1.289200E-17
3.215048E+03	2.450436E-17	1.311699E-17
3.215248E+03	2.308011E-17	1.235456E-17
3.215847E+03	2.246876E-17	1.202720E-17
3.216048E+03	2.237693E-17	1.197801E-17
3.216848E+03	2.147648E-17	1.149587E-17
3.217048E+03	2.093924E-17	1.120826E-17
3.217248E+03	1.650674E-17	8.835621E-18
3.217448E+03	1.535071E-17	8.216806E-18
3.218248E+03	1.559841E-17	8.349286E-18
3.219248E+03	1.526108E-17	8.168597E-18
3.219848E+03	1.507842E-17	8.070754E-18
3.220048E+03	1.452931E-17	7.776816E-18
3.220648E+03	1.482295E-17	7.933909E-18
3.220848E+03	1.427883E-17	7.642650E-18
3.221248E+03	1.444802E-17	7.733157E-18
3.221849E+03	1.395155E-17	7.467357E-18
3.222049E+03	1.252771E-17	6.705247E-18
3.223049E+03	1.207298E-17	6.461757E-18
3.223649E+03	1.221918E-17	6.539947E-18
3.224049E+03	1.242424E-17	6.649656E-18
3.224249E+03	1.227372E-17	6.569077E-18
3.224449E+03	1.212021E-17	6.486898E-18
3.224849E+03	1.173949E-17	6.283090E-18
3.225049E+03	1.178125E-17	6.305422E-18
3.225249E+03	1.176922E-17	6.298960E-18
3.225449E+03	1.151909E-17	6.165070E-18
3.225649E+03	1.171028E-17	6.267377E-18
3.226049E+03	1.183365E-17	6.333363E-18
3.226649E+03	1.141601E-17	6.109786E-18
3.227050E+03	1.163301E-17	6.225885E-18
3.227450E+03	1.166672E-17	6.243887E-18
