#wls	flux	fluxerr
1.600000E+03	1.196359E-16	5.693045E-17
1.640000E+03	1.237042E-16	5.885443E-17
1.680000E+03	1.276936E-16	6.073962E-17
1.720000E+03	1.315505E-16	6.256050E-17
1.760000E+03	1.352668E-16	6.431321E-17
1.800000E+03	1.387805E-16	6.596822E-17
1.840000E+03	1.420509E-16	6.750627E-17
1.880000E+03	1.450580E-16	6.891783E-17
1.920000E+03	1.477300E-16	7.016886E-17
1.960000E+03	1.500295E-16	7.124168E-17
2.000000E+03	1.518946E-16	7.210699E-17
2.040000E+03	1.532868E-16	7.274668E-17
2.080000E+03	1.541261E-16	7.312292E-17
2.120000E+03	1.543511E-16	7.320687E-17
2.160000E+03	1.539003E-16	7.296953E-17
2.200000E+03	1.526801E-16	7.236688E-17
2.240000E+03	1.506140E-16	7.136300E-17
2.280000E+03	1.476876E-16	6.995162E-17
2.320000E+03	1.439400E-16	6.815155E-17
2.360000E+03	1.395009E-16	6.602480E-17
2.400000E+03	1.344782E-16	6.362273E-17
2.440000E+03	1.289667E-16	6.099065E-17
2.480000E+03	1.230676E-16	5.817674E-17
2.520000E+03	1.168442E-16	5.521119E-17
2.560000E+03	1.103711E-16	5.212952E-17
2.600000E+03	1.037140E-16	4.896309E-17
2.640000E+03	9.694405E-17	4.574566E-17
2.680000E+03	9.012215E-17	4.250614E-17
2.720000E+03	8.331191E-17	3.927466E-17
2.760000E+03	7.657535E-17	3.608058E-17
2.800000E+03	6.997241E-17	3.295219E-17
2.840000E+03	6.356192E-17	2.991721E-17
2.880000E+03	5.740231E-17	2.700310E-17
2.920000E+03	5.154725E-17	2.423502E-17
2.960000E+03	4.604483E-17	2.163544E-17
3.000000E+03	4.093306E-17	1.922204E-17
3.010000E+03	3.972055E-17	1.864982E-17
3.020000E+03	3.853350E-17	1.808970E-17
3.030000E+03	3.737370E-17	1.754253E-17
3.040000E+03	3.624031E-17	1.700790E-17
3.050000E+03	3.513407E-17	1.648616E-17
3.060000E+03	3.405563E-17	1.597762E-17
3.070000E+03	3.300340E-17	1.548150E-17
3.080000E+03	3.197935E-17	1.499875E-17
3.090000E+03	3.098190E-17	1.452861E-17
3.100000E+03	3.001214E-17	1.407159E-17
3.110000E+03	2.906917E-17	1.362726E-17
3.120000E+03	2.815275E-17	1.319550E-17
3.130000E+03	2.726371E-17	1.277670E-17
3.140000E+03	2.640064E-17	1.237020E-17
3.150000E+03	2.556471E-17	1.197653E-17
3.160000E+03	2.475409E-17	1.159484E-17
3.170000E+03	2.396980E-17	1.122559E-17
3.180000E+03	2.321055E-17	1.086818E-17
3.190000E+03	2.247677E-17	1.052280E-17
3.200000E+03	2.176757E-17	1.018903E-17
3.210000E+03	2.108292E-17	9.866859E-18
3.220000E+03	2.042230E-17	9.556031E-18
3.230000E+03	1.978524E-17	9.256324E-18
3.240000E+03	1.917091E-17	8.967346E-18
3.250000E+03	1.857946E-17	8.689155E-18
3.260000E+03	1.801005E-17	8.421362E-18
3.270000E+03	1.746245E-17	8.163851E-18
3.280000E+03	1.693582E-17	7.916227E-18
3.290000E+03	1.642968E-17	7.678257E-18
3.300000E+03	1.594373E-17	7.449796E-18
3.310000E+03	1.547718E-17	7.230477E-18
3.320000E+03	1.502975E-17	7.020159E-18
3.330000E+03	1.460086E-17	6.818571E-18
3.340000E+03	1.418958E-17	6.625275E-18
3.350000E+03	1.379582E-17	6.440218E-18
3.360000E+03	1.341883E-17	6.263054E-18
3.370000E+03	1.305812E-17	6.093540E-18
3.380000E+03	1.271318E-17	5.931448E-18
3.390000E+03	1.238321E-17	5.776389E-18
3.400000E+03	1.206804E-17	5.628290E-18
3.410000E+03	1.176706E-17	5.486858E-18
3.420000E+03	1.147968E-17	5.351812E-18
3.430000E+03	1.120545E-17	5.222944E-18
3.440000E+03	1.094398E-17	5.100065E-18
3.450000E+03	1.069457E-17	4.982851E-18
3.460000E+03	1.045699E-17	4.871189E-18
3.470000E+03	1.023062E-17	4.764785E-18
3.480000E+03	1.001512E-17	4.663477E-18
3.490000E+03	9.810030E-18	4.567054E-18
3.500000E+03	9.614932E-18	4.475315E-18
3.510000E+03	9.429422E-18	4.388071E-18
3.520000E+03	9.253118E-18	4.305140E-18
3.530000E+03	9.085560E-18	4.226307E-18
3.540000E+03	8.926315E-18	4.151368E-18
3.550000E+03	8.775074E-18	4.080177E-18
3.560000E+03	8.631450E-18	4.012552E-18
3.570000E+03	8.495172E-18	3.948365E-18
3.580000E+03	8.365807E-18	3.887413E-18
3.590000E+03	8.243121E-18	3.829585E-18
3.600000E+03	8.126805E-18	3.774737E-18
3.610000E+03	8.016731E-18	3.722806E-18
3.620000E+03	7.912537E-18	3.673623E-18
3.630000E+03	7.814034E-18	3.627099E-18
3.640000E+03	7.720819E-18	3.583045E-18
3.650000E+03	7.632733E-18	3.541386E-18
3.660000E+03	7.549550E-18	3.502016E-18
3.670000E+03	7.471055E-18	3.464832E-18
3.680000E+03	7.397109E-18	3.429771E-18
3.690000E+03	7.327579E-18	3.396768E-18
3.700000E+03	7.262266E-18	3.365731E-18
3.710000E+03	7.201111E-18	3.336630E-18
3.720000E+03	7.143924E-18	3.309377E-18
3.730000E+03	7.090709E-18	3.283972E-18
3.740000E+03	7.041341E-18	3.260356E-18
3.750000E+03	6.995701E-18	3.238473E-18
3.760000E+03	6.953729E-18	3.218293E-18
3.770000E+03	6.915424E-18	3.199816E-18
3.780000E+03	6.880666E-18	3.182984E-18
3.790000E+03	6.849450E-18	3.167796E-18
3.800000E+03	6.821658E-18	3.154193E-18
3.810000E+03	6.797227E-18	3.142147E-18
3.820000E+03	6.776152E-18	3.131654E-18
3.830000E+03	6.758429E-18	3.122711E-18
3.840000E+03	6.743937E-18	3.115260E-18
3.850000E+03	6.732726E-18	3.109326E-18
3.860000E+03	6.724621E-18	3.104824E-18
3.870000E+03	6.719725E-18	3.101802E-18
3.880000E+03	6.717867E-18	3.100180E-18
3.890000E+03	6.719150E-18	3.100004E-18
3.900000E+03	6.723454E-18	3.101218E-18
3.910000E+03	6.730772E-18	3.103818E-18
3.920000E+03	6.741043E-18	3.107773E-18
3.930000E+03	6.754260E-18	3.113081E-18
3.940000E+03	6.770360E-18	3.119711E-18
3.950000E+03	6.789391E-18	3.127684E-18
3.960000E+03	6.811237E-18	3.136946E-18
3.970000E+03	6.835893E-18	3.147493E-18
3.980000E+03	6.863297E-18	3.159296E-18
3.990000E+03	6.893499E-18	3.172376E-18
4.000000E+03	6.926439E-18	3.186706E-18
4.010000E+03	6.962057E-18	3.202256E-18
4.020000E+03	7.000294E-18	3.218998E-18
4.030000E+03	7.041202E-18	3.236956E-18
4.040000E+03	7.084668E-18	3.256076E-18
4.050000E+03	7.130746E-18	3.276382E-18
4.060000E+03	7.179322E-18	3.297821E-18
4.070000E+03	7.230396E-18	3.320392E-18
4.080000E+03	7.283968E-18	3.344093E-18
4.090000E+03	7.339985E-18	3.368900E-18
4.100000E+03	7.398391E-18	3.394785E-18
4.110000E+03	7.459131E-18	3.421723E-18
4.120000E+03	7.522268E-18	3.449742E-18
4.130000E+03	7.587693E-18	3.478790E-18
4.140000E+03	7.655410E-18	3.508869E-18
4.150000E+03	7.725310E-18	3.539927E-18
4.160000E+03	7.797399E-18	3.571966E-18
4.170000E+03	7.871688E-18	3.604992E-18
4.180000E+03	7.948067E-18	3.638951E-18
4.190000E+03	8.026546E-18	3.673848E-18
4.200000E+03	8.107013E-18	3.709630E-18
4.210000E+03	8.189480E-18	3.746304E-18
4.220000E+03	8.273833E-18	3.783814E-18
4.230000E+03	8.360085E-18	3.822167E-18
4.240000E+03	8.448121E-18	3.861308E-18
4.250000E+03	8.537885E-18	3.901213E-18
4.260000E+03	8.629257E-18	3.941824E-18
4.270000E+03	8.722248E-18	3.983147E-18
4.280000E+03	8.816731E-18	4.025122E-18
4.290000E+03	8.912648E-18	4.067723E-18
4.300000E+03	9.009864E-18	4.110886E-18
4.310000E+03	9.108242E-18	4.154550E-18
4.320000E+03	9.207710E-18	4.198680E-18
4.330000E+03	9.308196E-18	4.243243E-18
4.340000E+03	9.409546E-18	4.288169E-18
4.350000E+03	9.511681E-18	4.333421E-18
4.360000E+03	9.614437E-18	4.378923E-18
4.370000E+03	9.717800E-18	4.424670E-18
4.380000E+03	9.821679E-18	4.470619E-18
4.390000E+03	9.926219E-18	4.516836E-18
4.400000E+03	1.003133E-17	4.563279E-18
4.410000E+03	1.013707E-17	4.609979E-18
4.420000E+03	1.024345E-17	4.656932E-18
4.430000E+03	1.035062E-17	4.704211E-18
4.440000E+03	1.045850E-17	4.751777E-18
4.450000E+03	1.056708E-17	4.799628E-18
4.460000E+03	1.067646E-17	4.847805E-18
4.470000E+03	1.078664E-17	4.896311E-18
4.480000E+03	1.089762E-17	4.945149E-18
4.490000E+03	1.100934E-17	4.994283E-18
4.500000E+03	1.112190E-17	5.043760E-18
4.510000E+03	1.123521E-17	5.093543E-18
4.520000E+03	1.134930E-17	5.143645E-18
4.530000E+03	1.146420E-17	5.194071E-18
4.540000E+03	1.157973E-17	5.244747E-18
4.550000E+03	1.169601E-17	5.295727E-18
4.560000E+03	1.181299E-17	5.346982E-18
4.570000E+03	1.193068E-17	5.398521E-18
4.580000E+03	1.204892E-17	5.450270E-18
4.590000E+03	1.216786E-17	5.502293E-18
4.600000E+03	1.228733E-17	5.554521E-18
4.610000E+03	1.240748E-17	5.607014E-18
4.620000E+03	1.252817E-17	5.659707E-18
4.630000E+03	1.264944E-17	5.712624E-18
4.640000E+03	1.277123E-17	5.765736E-18
4.650000E+03	1.289374E-17	5.819130E-18
4.660000E+03	1.301682E-17	5.872738E-18
4.670000E+03	1.314067E-17	5.926648E-18
4.680000E+03	1.326525E-17	5.980850E-18
4.690000E+03	1.339055E-17	6.035329E-18
4.700000E+03	1.351678E-17	6.090186E-18
4.710000E+03	1.364381E-17	6.145360E-18
4.720000E+03	1.377177E-17	6.200907E-18
4.730000E+03	1.390053E-17	6.256767E-18
4.740000E+03	1.403019E-17	6.312990E-18
4.750000E+03	1.416052E-17	6.369466E-18
4.760000E+03	1.429163E-17	6.426249E-18
4.770000E+03	1.442340E-17	6.483279E-18
4.780000E+03	1.455596E-17	6.540617E-18
4.790000E+03	1.468918E-17	6.598207E-18
4.800000E+03	1.482306E-17	6.656039E-18
4.810000E+03	1.495760E-17	6.714124E-18
4.820000E+03	1.509280E-17	6.772456E-18
4.830000E+03	1.522867E-17	6.831041E-18
4.840000E+03	1.536505E-17	6.889802E-18
4.850000E+03	1.550210E-17	6.948811E-18
4.860000E+03	1.563979E-17	7.008063E-18
4.870000E+03	1.577798E-17	7.067480E-18
4.880000E+03	1.591666E-17	7.127070E-18
4.890000E+03	1.605594E-17	7.186877E-18
4.900000E+03	1.619550E-17	7.246759E-18
4.910000E+03	1.633563E-17	7.306839E-18
4.920000E+03	1.647613E-17	7.367035E-18
4.930000E+03	1.661680E-17	7.427250E-18
4.940000E+03	1.675774E-17	7.487536E-18
4.950000E+03	1.689889E-17	7.547861E-18
4.960000E+03	1.704002E-17	7.608125E-18
4.970000E+03	1.718122E-17	7.668364E-18
4.980000E+03	1.732206E-17	7.728388E-18
4.990000E+03	1.746276E-17	7.788295E-18
5.000000E+03	1.760306E-17	7.847968E-18
5.010000E+03	1.774264E-17	7.907265E-18
5.020000E+03	1.788154E-17	7.966206E-18
5.030000E+03	1.801943E-17	8.024643E-18
5.040000E+03	1.815615E-17	8.082501E-18
5.050000E+03	1.829150E-17	8.139699E-18
5.060000E+03	1.842531E-17	8.196154E-18
5.070000E+03	1.855717E-17	8.251694E-18
5.080000E+03	1.868706E-17	8.306299E-18
5.090000E+03	1.881455E-17	8.359785E-18
5.100000E+03	1.893941E-17	8.412052E-18
5.110000E+03	1.906120E-17	8.462905E-18
5.120000E+03	1.917982E-17	8.512299E-18
5.130000E+03	1.929463E-17	8.559954E-18
5.140000E+03	1.940573E-17	8.605916E-18
5.150000E+03	1.951244E-17	8.649885E-18
5.160000E+03	1.961467E-17	8.691819E-18
5.170000E+03	1.971190E-17	8.731495E-18
5.180000E+03	1.980365E-17	8.768704E-18
5.190000E+03	1.988980E-17	8.803390E-18
5.200000E+03	1.996986E-17	8.835343E-18
5.210000E+03	2.004353E-17	8.864432E-18
5.220000E+03	2.011050E-17	8.890524E-18
5.230000E+03	2.017030E-17	8.913414E-18
5.240000E+03	2.022265E-17	8.932981E-18
5.250000E+03	2.026709E-17	8.949029E-18
5.260000E+03	2.030357E-17	8.961540E-18
5.270000E+03	2.033167E-17	8.970327E-18
5.280000E+03	2.035121E-17	8.975321E-18
5.290000E+03	2.036199E-17	8.976438E-18
5.300000E+03	2.036369E-17	8.973540E-18
5.310000E+03	2.035622E-17	8.966591E-18
5.320000E+03	2.033949E-17	8.955560E-18
5.330000E+03	2.031350E-17	8.940451E-18
5.340000E+03	2.027808E-17	8.921191E-18
5.350000E+03	2.023348E-17	8.897902E-18
5.360000E+03	2.017987E-17	8.870653E-18
5.370000E+03	2.011739E-17	8.839521E-18
5.380000E+03	2.004609E-17	8.804530E-18
5.390000E+03	1.996665E-17	8.765983E-18
5.400000E+03	1.987924E-17	8.723956E-18
5.410000E+03	1.978463E-17	8.678795E-18
5.420000E+03	1.968308E-17	8.630615E-18
5.430000E+03	1.957528E-17	8.579731E-18
5.440000E+03	1.946179E-17	8.526381E-18
5.450000E+03	1.934358E-17	8.470996E-18
5.460000E+03	1.922108E-17	8.413776E-18
5.470000E+03	1.909477E-17	8.354921E-18
5.480000E+03	1.896498E-17	8.294586E-18
5.490000E+03	1.883243E-17	8.233084E-18
5.500000E+03	1.869750E-17	8.170583E-18
5.510000E+03	1.856077E-17	8.107343E-18
5.520000E+03	1.842286E-17	8.043627E-18
5.530000E+03	1.828438E-17	7.979710E-18
5.540000E+03	1.814591E-17	7.915847E-18
5.550000E+03	1.800828E-17	7.852387E-18
5.560000E+03	1.787204E-17	7.789586E-18
5.570000E+03	1.773815E-17	7.727851E-18
5.580000E+03	1.760697E-17	7.667340E-18
5.590000E+03	1.747955E-17	7.608510E-18
5.600000E+03	1.735620E-17	7.551495E-18
5.610000E+03	1.723772E-17	7.496640E-18
5.620000E+03	1.712488E-17	7.444272E-18
5.630000E+03	1.701788E-17	7.394483E-18
5.640000E+03	1.691773E-17	7.347706E-18
5.650000E+03	1.682473E-17	7.304063E-18
5.660000E+03	1.673912E-17	7.263657E-18
5.670000E+03	1.666180E-17	7.226876E-18
5.680000E+03	1.659276E-17	7.193710E-18
5.690000E+03	1.653247E-17	7.164357E-18
5.700000E+03	1.648138E-17	7.139008E-18
5.710000E+03	1.643971E-17	7.117754E-18
5.720000E+03	1.640767E-17	7.100677E-18
5.730000E+03	1.638545E-17	7.087855E-18
5.740000E+03	1.637335E-17	7.079416E-18
5.750000E+03	1.637170E-17	7.075493E-18
5.760000E+03	1.638027E-17	7.075979E-18
5.770000E+03	1.639966E-17	7.081130E-18
5.780000E+03	1.642963E-17	7.090840E-18
5.790000E+03	1.647059E-17	7.105272E-18
5.800000E+03	1.652245E-17	7.124386E-18
5.810000E+03	1.658545E-17	7.148275E-18
5.820000E+03	1.665962E-17	7.176950E-18
5.830000E+03	1.674522E-17	7.210513E-18
5.840000E+03	1.684210E-17	7.248893E-18
5.850000E+03	1.695030E-17	7.292102E-18
5.860000E+03	1.707004E-17	7.340226E-18
5.870000E+03	1.720152E-17	7.393348E-18
5.880000E+03	1.734441E-17	7.451316E-18
5.890000E+03	1.749908E-17	7.514283E-18
5.900000E+03	1.766537E-17	7.582173E-18
5.910000E+03	1.784342E-17	7.655043E-18
5.920000E+03	1.803326E-17	7.732894E-18
5.930000E+03	1.823463E-17	7.815608E-18
5.940000E+03	1.844768E-17	7.903243E-18
5.950000E+03	1.867232E-17	7.995758E-18
5.960000E+03	1.890824E-17	8.093010E-18
5.970000E+03	1.915578E-17	8.195134E-18
5.980000E+03	1.941430E-17	8.301858E-18
5.990000E+03	1.968388E-17	8.413199E-18
6.000000E+03	1.996427E-17	8.529055E-18
6.010000E+03	2.025500E-17	8.649211E-18
6.020000E+03	2.055599E-17	8.773634E-18
6.030000E+03	2.086645E-17	8.901970E-18
6.040000E+03	2.118646E-17	9.034262E-18
6.050000E+03	2.151511E-17	9.170105E-18
6.060000E+03	2.185218E-17	9.309403E-18
6.070000E+03	2.219688E-17	9.451821E-18
6.080000E+03	2.254866E-17	9.597111E-18
6.090000E+03	2.290663E-17	9.744898E-18
6.100000E+03	2.326984E-17	9.894773E-18
6.110000E+03	2.363786E-17	1.004655E-17
6.120000E+03	2.400909E-17	1.019955E-17
6.130000E+03	2.438302E-17	1.035354E-17
6.140000E+03	2.475822E-17	1.050794E-17
6.150000E+03	2.513385E-17	1.066236E-17
6.160000E+03	2.550776E-17	1.081591E-17
6.170000E+03	2.587935E-17	1.096834E-17
6.180000E+03	2.624674E-17	1.111884E-17
6.190000E+03	2.660865E-17	1.126689E-17
6.200000E+03	2.696348E-17	1.141180E-17
6.210000E+03	2.731107E-17	1.155351E-17
6.220000E+03	2.765163E-17	1.169212E-17
6.230000E+03	2.798556E-17	1.182780E-17
6.240000E+03	2.831334E-17	1.196076E-17
6.250000E+03	2.863450E-17	1.209081E-17
6.260000E+03	2.895050E-17	1.221855E-17
6.270000E+03	2.926065E-17	1.234372E-17
6.280000E+03	2.956586E-17	1.246669E-17
6.290000E+03	2.986674E-17	1.258772E-17
6.300000E+03	3.016283E-17	1.270664E-17
6.310000E+03	3.045483E-17	1.282372E-17
6.320000E+03	3.074319E-17	1.293917E-17
6.330000E+03	3.102837E-17	1.305319E-17
6.340000E+03	3.131003E-17	1.316562E-17
6.350000E+03	3.158870E-17	1.327670E-17
6.360000E+03	3.186454E-17	1.338649E-17
6.370000E+03	3.213770E-17	1.349506E-17
6.380000E+03	3.240789E-17	1.360229E-17
6.390000E+03	3.267483E-17	1.370807E-17
6.400000E+03	3.293820E-17	1.381225E-17
6.410000E+03	3.319817E-17	1.391492E-17
6.420000E+03	3.345441E-17	1.401594E-17
6.430000E+03	3.370559E-17	1.411475E-17
6.440000E+03	3.395332E-17	1.421203E-17
6.450000E+03	3.419772E-17	1.430784E-17
6.460000E+03	3.443950E-17	1.440246E-17
6.470000E+03	3.467986E-17	1.449642E-17
6.480000E+03	3.491850E-17	1.458957E-17
6.490000E+03	3.515670E-17	1.468245E-17
6.500000E+03	3.539466E-17	1.477516E-17
6.510000E+03	3.563321E-17	1.486804E-17
6.520000E+03	3.587146E-17	1.496071E-17
6.530000E+03	3.611131E-17	1.505396E-17
6.540000E+03	3.635189E-17	1.514745E-17
6.550000E+03	3.659397E-17	1.524147E-17
6.560000E+03	3.683782E-17	1.533615E-17
6.570000E+03	3.708302E-17	1.543132E-17
6.580000E+03	3.733039E-17	1.552730E-17
6.590000E+03	3.758011E-17	1.562419E-17
6.600000E+03	3.783179E-17	1.572180E-17
6.610000E+03	3.808556E-17	1.582019E-17
6.620000E+03	3.834160E-17	1.591945E-17
6.630000E+03	3.860067E-17	1.601988E-17
6.640000E+03	3.886165E-17	1.612101E-17
6.650000E+03	3.912528E-17	1.622316E-17
6.660000E+03	3.939168E-17	1.632637E-17
6.670000E+03	3.966026E-17	1.643040E-17
6.680000E+03	3.993180E-17	1.653557E-17
6.690000E+03	4.020567E-17	1.664161E-17
6.700000E+03	4.048261E-17	1.674883E-17
6.710000E+03	4.076127E-17	1.685667E-17
6.720000E+03	4.104240E-17	1.696544E-17
6.730000E+03	4.132669E-17	1.707543E-17
6.740000E+03	4.161272E-17	1.718605E-17
6.750000E+03	4.190122E-17	1.729760E-17
6.760000E+03	4.219143E-17	1.740975E-17
6.770000E+03	4.248405E-17	1.752281E-17
6.780000E+03	4.277829E-17	1.763645E-17
6.790000E+03	4.307408E-17	1.775063E-17
6.800000E+03	4.337214E-17	1.786565E-17
6.810000E+03	4.367082E-17	1.798083E-17
6.820000E+03	4.397161E-17	1.809679E-17
6.830000E+03	4.427284E-17	1.821284E-17
6.840000E+03	4.457598E-17	1.832958E-17
6.850000E+03	4.487932E-17	1.844631E-17
6.860000E+03	4.518270E-17	1.856296E-17
6.870000E+03	4.548681E-17	1.867982E-17
6.880000E+03	4.579153E-17	1.879684E-17
6.890000E+03	4.609499E-17	1.891325E-17
6.900000E+03	4.639873E-17	1.902969E-17
6.910000E+03	4.670173E-17	1.914573E-17
6.920000E+03	4.700470E-17	1.926168E-17
6.930000E+03	4.730571E-17	1.937673E-17
6.940000E+03	4.760545E-17	1.949117E-17
6.950000E+03	4.790373E-17	1.960494E-17
6.960000E+03	4.819948E-17	1.971758E-17
6.970000E+03	4.849341E-17	1.982940E-17
6.980000E+03	4.878537E-17	1.994034E-17
6.990000E+03	4.907427E-17	2.004994E-17
7.000000E+03	4.935990E-17	2.015813E-17
7.010000E+03	4.964213E-17	2.026486E-17
7.020000E+03	4.992177E-17	2.037046E-17
7.030000E+03	5.019675E-17	2.047408E-17
7.040000E+03	5.046890E-17	2.057649E-17
7.050000E+03	5.073613E-17	2.067682E-17
7.060000E+03	5.099934E-17	2.077545E-17
7.070000E+03	5.125743E-17	2.087194E-17
7.080000E+03	5.151135E-17	2.096667E-17
7.090000E+03	5.176106E-17	2.105963E-17
7.100000E+03	5.200549E-17	2.115039E-17
7.110000E+03	5.224356E-17	2.123852E-17
7.120000E+03	5.247735E-17	2.132485E-17
7.130000E+03	5.270581E-17	2.140898E-17
7.140000E+03	5.292897E-17	2.149092E-17
7.150000E+03	5.314687E-17	2.157067E-17
7.160000E+03	5.335842E-17	2.164782E-17
7.170000E+03	5.356478E-17	2.172283E-17
7.180000E+03	5.376491E-17	2.179529E-17
7.190000E+03	5.395883E-17	2.186520E-17
7.200000E+03	5.414774E-17	2.193306E-17
7.210000E+03	5.433059E-17	2.199845E-17
7.220000E+03	5.450859E-17	2.206185E-17
7.230000E+03	5.467950E-17	2.212237E-17
7.240000E+03	5.484455E-17	2.218051E-17
7.250000E+03	5.500379E-17	2.223630E-17
7.260000E+03	5.515728E-17	2.228976E-17
7.270000E+03	5.530508E-17	2.234092E-17
7.280000E+03	5.544727E-17	2.238981E-17
7.290000E+03	5.558271E-17	2.243598E-17
7.300000E+03	5.571263E-17	2.247994E-17
7.310000E+03	5.583710E-17	2.252171E-17
7.320000E+03	5.595616E-17	2.256131E-17
7.330000E+03	5.606867E-17	2.259829E-17
7.340000E+03	5.617589E-17	2.263316E-17
7.350000E+03	5.627914E-17	2.266646E-17
7.360000E+03	5.637600E-17	2.269721E-17
7.370000E+03	5.646781E-17	2.272596E-17
7.380000E+03	5.655466E-17	2.275275E-17
7.390000E+03	5.663788E-17	2.277811E-17
7.400000E+03	5.671635E-17	2.280160E-17
7.410000E+03	5.679147E-17	2.282378E-17
7.420000E+03	5.686464E-17	2.284523E-17
7.430000E+03	5.693476E-17	2.286550E-17
7.440000E+03	5.700457E-17	2.288569E-17
7.450000E+03	5.707167E-17	2.290484E-17
7.460000E+03	5.713754E-17	2.292355E-17
7.470000E+03	5.720106E-17	2.294137E-17
7.480000E+03	5.726368E-17	2.295890E-17
7.490000E+03	5.732296E-17	2.297513E-17
7.500000E+03	5.738036E-17	2.299068E-17
7.510000E+03	5.743600E-17	2.300558E-17
7.520000E+03	5.748866E-17	2.301936E-17
7.530000E+03	5.754118E-17	2.303314E-17
7.540000E+03	5.759097E-17	2.304590E-17
7.550000E+03	5.763947E-17	2.305821E-17
7.560000E+03	5.768540E-17	2.306956E-17
7.570000E+03	5.773017E-17	2.308051E-17
7.580000E+03	5.777245E-17	2.309054E-17
7.590000E+03	5.781364E-17	2.310020E-17
7.600000E+03	5.785236E-17	2.310894E-17
7.610000E+03	5.788861E-17	2.311676E-17
7.620000E+03	5.792376E-17	2.312421E-17
7.630000E+03	5.795636E-17	2.313071E-17
7.640000E+03	5.798637E-17	2.313625E-17
7.650000E+03	5.801514E-17	2.314136E-17
7.660000E+03	5.804117E-17	2.314545E-17
7.670000E+03	5.806579E-17	2.314904E-17
7.680000E+03	5.808606E-17	2.315097E-17
7.690000E+03	5.810471E-17	2.315233E-17
7.700000E+03	5.812162E-17	2.315305E-17
7.710000E+03	5.813520E-17	2.315253E-17
7.720000E+03	5.814677E-17	2.315127E-17
7.730000E+03	5.815470E-17	2.314864E-17
7.740000E+03	5.815882E-17	2.314456E-17
7.750000E+03	5.816039E-17	2.313954E-17
7.760000E+03	5.815925E-17	2.313351E-17
