#wls	flux	fluxerr
1.600000E+03	1.393541E-16	1.363317E-17
1.640000E+03	1.439233E-16	1.407996E-17
1.680000E+03	1.483349E-16	1.451131E-17
1.720000E+03	1.525206E-16	1.492053E-17
1.760000E+03	1.564659E-16	1.530622E-17
1.800000E+03	1.600947E-16	1.566093E-17
1.840000E+03	1.633570E-16	1.597976E-17
1.880000E+03	1.662279E-16	1.626028E-17
1.920000E+03	1.686252E-16	1.649447E-17
1.960000E+03	1.705085E-16	1.667837E-17
2.000000E+03	1.718118E-16	1.680551E-17
2.040000E+03	1.724987E-16	1.687234E-17
2.080000E+03	1.724891E-16	1.687105E-17
2.120000E+03	1.717277E-16	1.679621E-17
2.160000E+03	1.701628E-16	1.664278E-17
2.200000E+03	1.677110E-16	1.640261E-17
2.240000E+03	1.643127E-16	1.606987E-17
2.280000E+03	1.599792E-16	1.564567E-17
2.320000E+03	1.547812E-16	1.513695E-17
2.360000E+03	1.488863E-16	1.456009E-17
2.400000E+03	1.424345E-16	1.392879E-17
2.440000E+03	1.355487E-16	1.325507E-17
2.480000E+03	1.283544E-16	1.255121E-17
2.520000E+03	1.209329E-16	1.182517E-17
2.560000E+03	1.133740E-16	1.108573E-17
2.600000E+03	1.057540E-16	1.034035E-17
2.640000E+03	9.815054E-17	9.596622E-18
2.680000E+03	9.062645E-17	8.860692E-18
2.720000E+03	8.324353E-17	8.138603E-18
2.760000E+03	7.605819E-17	7.435869E-18
2.800000E+03	6.912143E-17	6.757478E-18
2.840000E+03	6.248030E-17	6.108026E-18
2.880000E+03	5.617918E-17	5.491850E-18
2.920000E+03	5.025621E-17	4.912678E-18
2.960000E+03	4.474334E-17	4.373629E-18
3.000000E+03	3.966277E-17	3.876869E-18
3.010000E+03	3.846280E-17	3.759544E-18
3.020000E+03	3.728979E-17	3.644855E-18
3.030000E+03	3.614531E-17	3.532957E-18
3.040000E+03	3.502831E-17	3.423747E-18
3.050000E+03	3.393939E-17	3.317283E-18
3.060000E+03	3.287900E-17	3.213609E-18
3.070000E+03	3.184542E-17	3.112558E-18
3.080000E+03	3.084043E-17	3.014303E-18
3.090000E+03	2.986239E-17	2.918684E-18
3.100000E+03	2.891220E-17	2.825787E-18
3.110000E+03	2.798889E-17	2.735521E-18
3.120000E+03	2.709216E-17	2.647853E-18
3.130000E+03	2.622270E-17	2.562852E-18
3.140000E+03	2.537906E-17	2.480376E-18
3.150000E+03	2.456233E-17	2.400531E-18
3.160000E+03	2.377066E-17	2.323137E-18
3.170000E+03	2.300501E-17	2.248287E-18
3.180000E+03	2.226405E-17	2.175852E-18
3.190000E+03	2.154818E-17	2.105870E-18
3.200000E+03	2.085652E-17	2.038256E-18
3.210000E+03	2.018900E-17	1.973000E-18
3.220000E+03	1.954510E-17	1.910056E-18
3.230000E+03	1.892433E-17	1.849373E-18
3.240000E+03	1.832590E-17	1.790873E-18
3.250000E+03	1.774991E-17	1.734568E-18
3.260000E+03	1.719554E-17	1.680377E-18
3.270000E+03	1.666255E-17	1.628276E-18
3.280000E+03	1.615014E-17	1.578186E-18
3.290000E+03	1.565778E-17	1.530058E-18
3.300000E+03	1.518521E-17	1.483863E-18
3.310000E+03	1.473163E-17	1.439525E-18
3.320000E+03	1.429673E-17	1.397014E-18
3.330000E+03	1.387999E-17	1.356278E-18
3.340000E+03	1.348044E-17	1.317223E-18
3.350000E+03	1.309799E-17	1.279839E-18
3.360000E+03	1.273192E-17	1.244056E-18
3.370000E+03	1.238170E-17	1.209823E-18
3.380000E+03	1.204686E-17	1.177093E-18
3.390000E+03	1.172655E-17	1.145784E-18
3.400000E+03	1.142066E-17	1.115883E-18
3.410000E+03	1.112855E-17	1.087330E-18
3.420000E+03	1.084962E-17	1.060065E-18
3.430000E+03	1.058344E-17	1.034047E-18
3.440000E+03	1.032959E-17	1.009234E-18
3.450000E+03	1.008742E-17	9.855624E-19
3.460000E+03	9.856667E-18	9.630069E-19
3.470000E+03	9.636726E-18	9.415080E-19
3.480000E+03	9.427252E-18	9.210322E-19
3.490000E+03	9.227799E-18	9.015359E-19
3.500000E+03	9.037950E-18	8.829781E-19
3.510000E+03	8.857306E-18	8.653202E-19
3.520000E+03	8.685491E-18	8.485251E-19
3.530000E+03	8.522054E-18	8.325487E-19
3.540000E+03	8.366573E-18	8.173500E-19
3.550000E+03	8.218746E-18	8.028993E-19
3.560000E+03	8.078194E-18	7.891596E-19
3.570000E+03	7.944649E-18	7.761047E-19
3.580000E+03	7.817695E-18	7.636939E-19
3.590000E+03	7.697100E-18	7.519045E-19
3.600000E+03	7.582564E-18	7.407074E-19
3.610000E+03	7.473959E-18	7.300897E-19
3.620000E+03	7.370935E-18	7.200175E-19
3.630000E+03	7.273308E-18	7.104726E-19
3.640000E+03	7.180691E-18	7.014173E-19
3.650000E+03	7.092931E-18	6.928367E-19
3.660000E+03	7.009810E-18	6.847093E-19
3.670000E+03	6.931119E-18	6.770148E-19
3.680000E+03	6.856724E-18	6.697400E-19
3.690000E+03	6.786493E-18	6.628722E-19
3.700000E+03	6.720238E-18	6.563928E-19
3.710000E+03	6.657897E-18	6.502959E-19
3.720000E+03	6.599288E-18	6.445636E-19
3.730000E+03	6.544414E-18	6.391961E-19
3.740000E+03	6.493151E-18	6.341815E-19
3.750000E+03	6.445384E-18	6.295085E-19
3.760000E+03	6.401055E-18	6.251713E-19
3.770000E+03	6.360159E-18	6.211694E-19
3.780000E+03	6.322579E-18	6.174915E-19
3.790000E+03	6.288311E-18	6.141371E-19
3.800000E+03	6.257240E-18	6.110950E-19
3.810000E+03	6.229307E-18	6.083594E-19
3.820000E+03	6.204504E-18	6.059295E-19
3.830000E+03	6.182825E-18	6.038047E-19
3.840000E+03	6.164157E-18	6.019741E-19
3.850000E+03	6.148545E-18	6.004418E-19
3.860000E+03	6.135827E-18	5.991922E-19
3.870000E+03	6.126097E-18	5.982344E-19
3.880000E+03	6.119197E-18	5.975530E-19
3.890000E+03	6.115218E-18	5.971568E-19
3.900000E+03	6.114055E-18	5.970355E-19
3.910000E+03	6.115698E-18	5.971883E-19
3.920000E+03	6.120093E-18	5.976097E-19
3.930000E+03	6.127233E-18	5.982991E-19
3.940000E+03	6.137061E-18	5.992509E-19
3.950000E+03	6.149622E-18	6.004696E-19
3.960000E+03	6.164811E-18	6.019449E-19
3.970000E+03	6.182624E-18	6.036762E-19
3.980000E+03	6.203007E-18	6.056584E-19
3.990000E+03	6.226005E-18	6.078959E-19
4.000000E+03	6.251565E-18	6.103835E-19
4.010000E+03	6.279637E-18	6.131162E-19
4.020000E+03	6.310167E-18	6.160888E-19
4.030000E+03	6.343206E-18	6.193063E-19
4.040000E+03	6.378653E-18	6.227587E-19
4.050000E+03	6.416558E-18	6.264510E-19
4.060000E+03	6.456822E-18	6.303735E-19
4.070000E+03	6.499448E-18	6.345265E-19
4.080000E+03	6.544439E-18	6.389101E-19
4.090000E+03	6.591746E-18	6.435198E-19
4.100000E+03	6.641326E-18	6.483512E-19
4.110000E+03	6.693129E-18	6.533995E-19
4.120000E+03	6.747216E-18	6.586706E-19
4.130000E+03	6.803488E-18	6.641548E-19
4.140000E+03	6.861954E-18	6.698530E-19
4.150000E+03	6.922514E-18	6.757555E-19
4.160000E+03	6.985177E-18	6.818631E-19
4.170000E+03	7.049954E-18	6.881767E-19
4.180000E+03	7.116743E-18	6.946867E-19
4.190000E+03	7.185554E-18	7.013938E-19
4.200000E+03	7.256286E-18	7.082881E-19
4.210000E+03	7.328947E-18	7.153706E-19
4.220000E+03	7.403432E-18	7.226308E-19
4.230000E+03	7.479749E-18	7.300697E-19
4.240000E+03	7.557790E-18	7.376766E-19
4.250000E+03	7.637500E-18	7.454462E-19
4.260000E+03	7.718764E-18	7.533671E-19
4.270000E+03	7.801583E-18	7.614397E-19
4.280000E+03	7.885837E-18	7.696519E-19
4.290000E+03	7.971462E-18	7.779978E-19
4.300000E+03	8.058325E-18	7.864642E-19
4.310000E+03	8.146292E-18	7.950381E-19
4.320000E+03	8.235284E-18	8.037117E-19
4.330000E+03	8.325221E-18	8.124774E-19
4.340000E+03	8.415950E-18	8.213201E-19
4.350000E+03	8.507382E-18	8.302310E-19
4.360000E+03	8.599353E-18	8.391943E-19
4.370000E+03	8.691832E-18	8.482069E-19
4.380000E+03	8.784717E-18	8.572589E-19
4.390000E+03	8.878119E-18	8.663609E-19
4.400000E+03	8.971939E-18	8.755036E-19
4.410000E+03	9.066224E-18	8.846912E-19
4.420000E+03	9.160950E-18	8.939216E-19
4.430000E+03	9.256247E-18	9.032075E-19
4.440000E+03	9.352024E-18	9.125399E-19
4.450000E+03	9.448266E-18	9.219173E-19
4.460000E+03	9.545036E-18	9.313461E-19
4.470000E+03	9.642330E-18	9.408256E-19
4.480000E+03	9.740139E-18	9.503551E-19
4.490000E+03	9.838379E-18	9.599264E-19
4.500000E+03	9.937135E-18	9.695476E-19
4.510000E+03	1.003631E-17	9.792096E-19
4.520000E+03	1.013593E-17	9.889142E-19
4.530000E+03	1.023600E-17	9.986626E-19
4.540000E+03	1.033633E-17	1.008436E-18
4.550000E+03	1.043704E-17	1.018247E-18
4.560000E+03	1.053807E-17	1.028088E-18
4.570000E+03	1.063941E-17	1.037959E-18
4.580000E+03	1.074091E-17	1.047846E-18
4.590000E+03	1.084271E-17	1.057761E-18
4.600000E+03	1.094462E-17	1.067688E-18
4.610000E+03	1.104680E-17	1.077639E-18
4.620000E+03	1.114907E-17	1.087599E-18
4.630000E+03	1.125148E-17	1.097574E-18
4.640000E+03	1.135400E-17	1.107558E-18
4.650000E+03	1.145678E-17	1.117566E-18
4.660000E+03	1.155967E-17	1.127585E-18
4.670000E+03	1.166284E-17	1.137632E-18
4.680000E+03	1.176627E-17	1.147704E-18
4.690000E+03	1.186994E-17	1.157798E-18
4.700000E+03	1.197405E-17	1.167935E-18
4.710000E+03	1.207846E-17	1.178101E-18
4.720000E+03	1.218328E-17	1.188307E-18
4.730000E+03	1.228841E-17	1.198542E-18
4.740000E+03	1.239393E-17	1.208816E-18
4.750000E+03	1.249962E-17	1.219106E-18
4.760000E+03	1.260560E-17	1.229423E-18
4.770000E+03	1.271176E-17	1.239757E-18
4.780000E+03	1.281820E-17	1.250119E-18
4.790000E+03	1.292480E-17	1.260496E-18
4.800000E+03	1.303158E-17	1.270889E-18
4.810000E+03	1.313852E-17	1.281299E-18
4.820000E+03	1.324564E-17	1.291725E-18
4.830000E+03	1.335294E-17	1.302169E-18
4.840000E+03	1.346028E-17	1.312616E-18
4.850000E+03	1.356779E-17	1.323080E-18
4.860000E+03	1.367548E-17	1.333560E-18
4.870000E+03	1.378322E-17	1.344045E-18
4.880000E+03	1.389099E-17	1.354532E-18
4.890000E+03	1.399891E-17	1.365034E-18
4.900000E+03	1.410672E-17	1.375525E-18
4.910000E+03	1.421465E-17	1.386027E-18
4.920000E+03	1.432256E-17	1.396527E-18
4.930000E+03	1.443029E-17	1.407008E-18
4.940000E+03	1.453794E-17	1.417482E-18
4.950000E+03	1.464547E-17	1.427943E-18
4.960000E+03	1.475270E-17	1.438375E-18
4.970000E+03	1.485973E-17	1.448787E-18
4.980000E+03	1.496620E-17	1.459144E-18
4.990000E+03	1.507234E-17	1.469468E-18
5.000000E+03	1.517793E-17	1.479738E-18
5.010000E+03	1.528275E-17	1.489933E-18
5.020000E+03	1.538684E-17	1.500056E-18
5.030000E+03	1.548997E-17	1.510085E-18
5.040000E+03	1.559201E-17	1.520009E-18
5.050000E+03	1.569286E-17	1.529815E-18
5.060000E+03	1.579239E-17	1.539492E-18
5.070000E+03	1.589030E-17	1.549011E-18
5.080000E+03	1.598663E-17	1.558376E-18
5.090000E+03	1.608106E-17	1.567554E-18
5.100000E+03	1.617344E-17	1.576533E-18
5.110000E+03	1.626345E-17	1.585280E-18
5.120000E+03	1.635107E-17	1.593794E-18
5.130000E+03	1.643582E-17	1.602029E-18
5.140000E+03	1.651785E-17	1.609996E-18
5.150000E+03	1.659664E-17	1.617649E-18
5.160000E+03	1.667217E-17	1.624983E-18
5.170000E+03	1.674409E-17	1.631966E-18
5.180000E+03	1.681206E-17	1.638562E-18
5.190000E+03	1.687602E-17	1.644768E-18
5.200000E+03	1.693565E-17	1.650551E-18
5.210000E+03	1.699072E-17	1.655890E-18
5.220000E+03	1.704105E-17	1.660766E-18
5.230000E+03	1.708626E-17	1.665144E-18
5.240000E+03	1.712619E-17	1.669006E-18
5.250000E+03	1.716046E-17	1.672318E-18
5.260000E+03	1.718906E-17	1.675075E-18
5.270000E+03	1.721165E-17	1.677247E-18
5.280000E+03	1.722805E-17	1.678817E-18
5.290000E+03	1.723812E-17	1.679768E-18
5.300000E+03	1.724154E-17	1.680072E-18
5.310000E+03	1.723818E-17	1.679715E-18
5.320000E+03	1.722794E-17	1.678688E-18
5.330000E+03	1.721073E-17	1.676981E-18
5.340000E+03	1.718632E-17	1.674574E-18
5.350000E+03	1.715487E-17	1.671480E-18
5.360000E+03	1.711635E-17	1.667697E-18
5.370000E+03	1.707082E-17	1.663231E-18
5.380000E+03	1.701815E-17	1.658070E-18
5.390000E+03	1.695882E-17	1.652260E-18
5.400000E+03	1.689278E-17	1.645797E-18
5.410000E+03	1.682057E-17	1.638732E-18
5.420000E+03	1.674224E-17	1.631071E-18
5.430000E+03	1.665823E-17	1.622858E-18
5.440000E+03	1.656885E-17	1.614121E-18
5.450000E+03	1.647477E-17	1.604927E-18
5.460000E+03	1.637622E-17	1.595297E-18
5.470000E+03	1.627344E-17	1.585256E-18
5.480000E+03	1.616656E-17	1.574816E-18
5.490000E+03	1.605608E-17	1.564026E-18
5.500000E+03	1.594218E-17	1.552902E-18
5.510000E+03	1.582524E-17	1.541484E-18
5.520000E+03	1.570568E-17	1.529809E-18
5.530000E+03	1.558390E-17	1.517920E-18
5.540000E+03	1.546033E-17	1.505856E-18
5.550000E+03	1.533556E-17	1.493676E-18
5.560000E+03	1.521001E-17	1.481420E-18
5.570000E+03	1.508442E-17	1.469161E-18
5.580000E+03	1.495904E-17	1.456922E-18
5.590000E+03	1.483471E-17	1.444786E-18
5.600000E+03	1.471165E-17	1.432775E-18
5.610000E+03	1.459050E-17	1.420950E-18
5.620000E+03	1.447186E-17	1.409369E-18
5.630000E+03	1.435588E-17	1.398048E-18
5.640000E+03	1.424337E-17	1.387066E-18
5.650000E+03	1.413455E-17	1.376442E-18
5.660000E+03	1.402960E-17	1.366197E-18
5.670000E+03	1.392921E-17	1.356396E-18
5.680000E+03	1.383337E-17	1.347038E-18
5.690000E+03	1.374243E-17	1.338157E-18
5.700000E+03	1.365672E-17	1.329786E-18
5.710000E+03	1.357639E-17	1.321940E-18
5.720000E+03	1.350158E-17	1.314630E-18
5.730000E+03	1.343238E-17	1.307868E-18
5.740000E+03	1.336904E-17	1.301676E-18
5.750000E+03	1.331178E-17	1.296076E-18
5.760000E+03	1.326034E-17	1.291044E-18
5.770000E+03	1.321521E-17	1.286626E-18
5.780000E+03	1.317616E-17	1.282799E-18
5.790000E+03	1.314347E-17	1.279593E-18
5.800000E+03	1.311707E-17	1.276998E-18
5.810000E+03	1.309707E-17	1.275027E-18
5.820000E+03	1.308351E-17	1.273683E-18
5.830000E+03	1.307655E-17	1.272981E-18
5.840000E+03	1.307605E-17	1.272909E-18
5.850000E+03	1.308203E-17	1.273466E-18
5.860000E+03	1.309462E-17	1.274668E-18
5.870000E+03	1.311398E-17	1.276528E-18
5.880000E+03	1.313981E-17	1.279018E-18
5.890000E+03	1.317240E-17	1.282166E-18
5.900000E+03	1.321158E-17	1.285956E-18
5.910000E+03	1.325749E-17	1.290400E-18
5.920000E+03	1.331010E-17	1.295496E-18
5.930000E+03	1.336921E-17	1.301224E-18
5.940000E+03	1.343493E-17	1.307596E-18
5.950000E+03	1.350722E-17	1.314607E-18
5.960000E+03	1.358583E-17	1.322232E-18
5.970000E+03	1.367099E-17	1.330495E-18
5.980000E+03	1.376229E-17	1.339356E-18
5.990000E+03	1.385979E-17	1.348819E-18
6.000000E+03	1.396333E-17	1.358869E-18
6.010000E+03	1.407263E-17	1.369480E-18
6.020000E+03	1.418767E-17	1.380649E-18
6.030000E+03	1.430794E-17	1.392327E-18
6.040000E+03	1.443357E-17	1.404525E-18
6.050000E+03	1.456399E-17	1.417190E-18
6.060000E+03	1.469914E-17	1.430315E-18
6.070000E+03	1.483858E-17	1.443856E-18
6.080000E+03	1.498203E-17	1.457787E-18
6.090000E+03	1.512901E-17	1.472061E-18
6.100000E+03	1.527903E-17	1.486630E-18
6.110000E+03	1.543194E-17	1.501479E-18
6.120000E+03	1.558683E-17	1.516521E-18
6.130000E+03	1.574352E-17	1.531738E-18
6.140000E+03	1.590128E-17	1.547058E-18
6.150000E+03	1.605972E-17	1.562444E-18
6.160000E+03	1.621767E-17	1.577782E-18
6.170000E+03	1.637493E-17	1.593052E-18
6.180000E+03	1.653052E-17	1.608158E-18
6.190000E+03	1.668380E-17	1.623040E-18
6.200000E+03	1.683399E-17	1.637621E-18
6.210000E+03	1.698111E-17	1.651902E-18
6.220000E+03	1.712550E-17	1.665918E-18
6.230000E+03	1.726750E-17	1.679701E-18
6.240000E+03	1.740757E-17	1.693294E-18
6.250000E+03	1.754549E-17	1.706680E-18
6.260000E+03	1.768224E-17	1.719951E-18
6.270000E+03	1.781749E-17	1.733075E-18
6.280000E+03	1.795186E-17	1.746114E-18
6.290000E+03	1.808578E-17	1.759108E-18
6.300000E+03	1.821901E-17	1.772034E-18
6.310000E+03	1.835199E-17	1.784937E-18
6.320000E+03	1.848504E-17	1.797845E-18
6.330000E+03	1.861845E-17	1.810787E-18
6.340000E+03	1.875201E-17	1.823745E-18
6.350000E+03	1.888606E-17	1.836749E-18
6.360000E+03	1.902067E-17	1.849808E-18
6.370000E+03	1.915593E-17	1.862930E-18
6.380000E+03	1.929166E-17	1.876097E-18
6.390000E+03	1.942767E-17	1.889291E-18
6.400000E+03	1.956376E-17	1.902491E-18
6.410000E+03	1.969999E-17	1.915705E-18
6.420000E+03	1.983614E-17	1.928912E-18
6.430000E+03	1.997141E-17	1.942032E-18
6.440000E+03	2.010671E-17	1.955155E-18
6.450000E+03	2.024208E-17	1.968284E-18
6.460000E+03	2.037790E-17	1.981456E-18
6.470000E+03	2.051485E-17	1.994738E-18
6.480000E+03	2.065271E-17	2.008108E-18
6.490000E+03	2.079218E-17	2.021634E-18
6.500000E+03	2.093338E-17	2.035328E-18
6.510000E+03	2.107672E-17	2.049230E-18
6.520000E+03	2.122167E-17	2.063287E-18
6.530000E+03	2.136931E-17	2.077606E-18
6.540000E+03	2.151908E-17	2.092131E-18
6.550000E+03	2.167142E-17	2.106906E-18
6.560000E+03	2.182644E-17	2.121941E-18
6.570000E+03	2.198388E-17	2.137211E-18
6.580000E+03	2.214420E-17	2.152761E-18
6.590000E+03	2.230751E-17	2.168600E-18
6.600000E+03	2.247353E-17	2.184702E-18
6.610000E+03	2.264233E-17	2.201075E-18
6.620000E+03	2.281403E-17	2.217728E-18
6.630000E+03	2.298905E-17	2.234705E-18
6.640000E+03	2.316674E-17	2.251939E-18
6.650000E+03	2.334754E-17	2.269476E-18
6.660000E+03	2.353152E-17	2.287321E-18
6.670000E+03	2.371836E-17	2.305444E-18
6.680000E+03	2.390852E-17	2.323888E-18
6.690000E+03	2.410164E-17	2.342621E-18
6.700000E+03	2.429822E-17	2.361688E-18
6.710000E+03	2.449747E-17	2.381014E-18
6.720000E+03	2.469983E-17	2.400643E-18
6.730000E+03	2.490581E-17	2.420622E-18
6.740000E+03	2.511458E-17	2.440872E-18
6.750000E+03	2.532663E-17	2.461440E-18
6.760000E+03	2.554153E-17	2.482285E-18
6.770000E+03	2.575978E-17	2.503455E-18
6.780000E+03	2.598096E-17	2.524908E-18
6.790000E+03	2.620510E-17	2.546648E-18
6.800000E+03	2.643268E-17	2.568722E-18
6.810000E+03	2.666279E-17	2.591042E-18
6.820000E+03	2.689641E-17	2.613701E-18
6.830000E+03	2.713256E-17	2.636607E-18
6.840000E+03	2.737225E-17	2.659855E-18
6.850000E+03	2.761449E-17	2.683350E-18
6.860000E+03	2.785925E-17	2.707090E-18
6.870000E+03	2.810705E-17	2.731124E-18
6.880000E+03	2.835785E-17	2.755449E-18
6.890000E+03	2.861058E-17	2.779960E-18
6.900000E+03	2.886625E-17	2.804757E-18
6.910000E+03	2.912429E-17	2.829783E-18
6.920000E+03	2.938520E-17	2.855088E-18
6.930000E+03	2.964783E-17	2.880558E-18
6.940000E+03	2.991263E-17	2.906239E-18
6.950000E+03	3.017955E-17	2.932125E-18
6.960000E+03	3.044795E-17	2.958153E-18
6.970000E+03	3.071829E-17	2.984370E-18
6.980000E+03	3.099051E-17	3.010769E-18
6.990000E+03	3.126393E-17	3.037283E-18
7.000000E+03	3.153846E-17	3.063904E-18
7.010000E+03	3.181397E-17	3.090620E-18
7.020000E+03	3.209102E-17	3.117485E-18
7.030000E+03	3.236826E-17	3.144368E-18
7.040000E+03	3.264687E-17	3.171382E-18
7.050000E+03	3.292547E-17	3.198396E-18
7.060000E+03	3.320465E-17	3.225463E-18
7.070000E+03	3.348363E-17	3.252512E-18
7.080000E+03	3.376303E-17	3.279600E-18
7.090000E+03	3.404276E-17	3.306720E-18
7.100000E+03	3.432210E-17	3.333801E-18
7.110000E+03	3.460028E-17	3.360769E-18
7.120000E+03	3.487863E-17	3.387753E-18
7.130000E+03	3.515640E-17	3.414679E-18
7.140000E+03	3.543354E-17	3.441543E-18
7.150000E+03	3.571001E-17	3.468343E-18
7.160000E+03	3.598505E-17	3.495002E-18
7.170000E+03	3.625934E-17	3.521587E-18
7.180000E+03	3.653207E-17	3.548021E-18
7.190000E+03	3.680324E-17	3.574302E-18
7.200000E+03	3.707354E-17	3.600498E-18
7.210000E+03	3.734218E-17	3.626533E-18
7.220000E+03	3.760989E-17	3.652476E-18
7.230000E+03	3.787507E-17	3.678173E-18
7.240000E+03	3.813842E-17	3.703692E-18
7.250000E+03	3.839991E-17	3.729029E-18
7.260000E+03	3.865947E-17	3.754180E-18
7.270000E+03	3.891703E-17	3.779135E-18
7.280000E+03	3.917253E-17	3.803889E-18
7.290000E+03	3.942505E-17	3.828353E-18
7.300000E+03	3.967533E-17	3.852600E-18
7.310000E+03	3.992331E-17	3.876622E-18
7.320000E+03	4.016890E-17	3.900412E-18
7.330000E+03	4.041112E-17	3.923875E-18
7.340000E+03	4.065078E-17	3.947088E-18
7.350000E+03	4.088869E-17	3.970132E-18
7.360000E+03	4.112299E-17	3.992824E-18
7.370000E+03	4.135452E-17	4.015246E-18
7.380000E+03	4.158320E-17	4.037392E-18
7.390000E+03	4.180992E-17	4.059348E-18
7.400000E+03	4.203375E-17	4.081021E-18
7.410000E+03	4.225558E-17	4.102502E-18
7.420000E+03	4.247640E-17	4.123883E-18
7.430000E+03	4.269530E-17	4.145078E-18
7.440000E+03	4.291427E-17	4.166280E-18
7.450000E+03	4.313143E-17	4.187305E-18
7.460000E+03	4.334785E-17	4.208259E-18
7.470000E+03	4.356263E-17	4.229052E-18
7.480000E+03	4.377684E-17	4.249790E-18
7.490000E+03	4.398857E-17	4.270289E-18
7.500000E+03	4.419890E-17	4.290650E-18
7.510000E+03	4.440793E-17	4.310885E-18
7.520000E+03	4.461468E-17	4.330899E-18
7.530000E+03	4.482127E-17	4.350898E-18
7.540000E+03	4.502570E-17	4.370685E-18
7.550000E+03	4.522902E-17	4.390367E-18
7.560000E+03	4.543021E-17	4.409841E-18
7.570000E+03	4.563036E-17	4.429213E-18
7.580000E+03	4.582839E-17	4.448381E-18
7.590000E+03	4.602537E-17	4.467447E-18
7.600000E+03	4.622020E-17	4.486302E-18
7.610000E+03	4.641283E-17	4.504946E-18
7.620000E+03	4.660432E-17	4.523479E-18
7.630000E+03	4.679350E-17	4.541787E-18
7.640000E+03	4.698027E-17	4.559862E-18
7.650000E+03	4.716569E-17	4.577806E-18
7.660000E+03	4.734851E-17	4.595497E-18
7.670000E+03	4.752973E-17	4.613033E-18
7.680000E+03	4.770689E-17	4.630175E-18
7.690000E+03	4.788215E-17	4.647133E-18
7.700000E+03	4.805535E-17	4.663892E-18
7.710000E+03	4.822511E-17	4.680317E-18
7.720000E+03	4.839243E-17	4.696504E-18
7.730000E+03	4.855585E-17	4.712314E-18
7.740000E+03	4.871516E-17	4.727725E-18
7.750000E+03	4.887130E-17	4.742829E-18
7.760000E+03	4.902404E-17	4.757602E-18
