#wls	flux	fluxerr
1.600000E+03	1.050920E-16	3.849318E-17
1.640000E+03	1.088551E-16	3.983996E-17
1.680000E+03	1.125521E-16	4.115966E-17
1.720000E+03	1.161341E-16	4.243434E-17
1.760000E+03	1.195924E-16	4.366084E-17
1.800000E+03	1.228707E-16	4.481862E-17
1.840000E+03	1.259312E-16	4.589403E-17
1.880000E+03	1.287543E-16	4.688008E-17
1.920000E+03	1.312752E-16	4.775331E-17
1.960000E+03	1.334591E-16	4.850129E-17
2.000000E+03	1.352498E-16	4.910394E-17
2.040000E+03	1.366121E-16	4.954883E-17
2.080000E+03	1.374740E-16	4.981031E-17
2.120000E+03	1.377805E-16	4.986894E-17
2.160000E+03	1.374765E-16	4.970545E-17
2.200000E+03	1.364785E-16	4.929037E-17
2.240000E+03	1.347186E-16	4.860007E-17
2.280000E+03	1.321847E-16	4.763109E-17
2.320000E+03	1.289125E-16	4.639729E-17
2.360000E+03	1.250193E-16	4.494193E-17
2.400000E+03	1.206029E-16	4.330092E-17
2.440000E+03	1.157494E-16	4.150599E-17
2.480000E+03	1.105508E-16	3.959078E-17
2.520000E+03	1.050641E-16	3.757632E-17
2.560000E+03	9.935674E-17	3.548724E-17
2.600000E+03	9.348756E-17	3.334499E-17
2.640000E+03	8.751968E-17	3.117246E-17
2.680000E+03	8.150642E-17	2.898893E-17
2.720000E+03	7.550307E-17	2.681430E-17
2.760000E+03	6.956295E-17	2.466762E-17
2.800000E+03	6.373712E-17	2.256707E-17
2.840000E+03	5.807533E-17	2.053021E-17
2.880000E+03	5.262674E-17	1.857430E-17
2.920000E+03	4.743626E-17	1.671499E-17
2.960000E+03	4.254389E-17	1.496606E-17
3.000000E+03	3.798087E-17	1.333812E-17
3.010000E+03	3.689527E-17	1.295128E-17
3.020000E+03	3.583098E-17	1.257223E-17
3.030000E+03	3.478967E-17	1.220154E-17
3.040000E+03	3.377049E-17	1.183889E-17
3.050000E+03	3.277416E-17	1.148455E-17
3.060000E+03	3.180126E-17	1.113869E-17
3.070000E+03	3.085032E-17	1.080080E-17
3.080000E+03	2.992318E-17	1.047152E-17
3.090000E+03	2.901842E-17	1.015034E-17
3.100000E+03	2.813710E-17	9.837613E-18
3.110000E+03	2.727844E-17	9.533064E-18
3.120000E+03	2.644230E-17	9.236637E-18
3.130000E+03	2.562953E-17	8.948618E-18
3.140000E+03	2.483893E-17	8.668578E-18
3.150000E+03	2.407173E-17	8.396938E-18
3.160000E+03	2.332632E-17	8.133125E-18
3.170000E+03	2.260380E-17	7.877516E-18
3.180000E+03	2.190309E-17	7.629722E-18
3.190000E+03	2.122473E-17	7.389926E-18
3.200000E+03	2.056805E-17	7.157884E-18
3.210000E+03	1.993314E-17	6.933617E-18
3.220000E+03	1.931967E-17	6.716999E-18
3.230000E+03	1.872732E-17	6.507913E-18
3.240000E+03	1.815544E-17	6.306121E-18
3.250000E+03	1.760430E-17	6.111709E-18
3.260000E+03	1.707322E-17	5.924432E-18
3.270000E+03	1.656208E-17	5.744239E-18
3.280000E+03	1.607021E-17	5.570888E-18
3.290000E+03	1.559719E-17	5.404227E-18
3.300000E+03	1.514286E-17	5.244188E-18
3.310000E+03	1.470652E-17	5.090523E-18
3.320000E+03	1.428795E-17	4.943146E-18
3.330000E+03	1.388666E-17	4.801882E-18
3.340000E+03	1.350181E-17	4.666428E-18
3.350000E+03	1.313333E-17	4.536757E-18
3.360000E+03	1.278057E-17	4.412630E-18
3.370000E+03	1.244304E-17	4.293879E-18
3.380000E+03	1.212031E-17	4.180342E-18
3.390000E+03	1.181162E-17	4.071749E-18
3.400000E+03	1.151683E-17	3.968048E-18
3.410000E+03	1.123536E-17	3.869036E-18
3.420000E+03	1.096666E-17	3.774508E-18
3.430000E+03	1.071031E-17	3.684322E-18
3.440000E+03	1.046592E-17	3.598333E-18
3.450000E+03	1.023288E-17	3.516322E-18
3.460000E+03	1.001093E-17	3.438203E-18
3.470000E+03	9.799502E-18	3.363768E-18
3.480000E+03	9.598265E-18	3.292901E-18
3.490000E+03	9.406800E-18	3.225453E-18
3.500000E+03	9.224709E-18	3.161282E-18
3.510000E+03	9.051614E-18	3.100253E-18
3.520000E+03	8.887159E-18	3.042241E-18
3.530000E+03	8.730910E-18	2.987093E-18
3.540000E+03	8.582463E-18	2.934665E-18
3.550000E+03	8.441532E-18	2.884856E-18
3.560000E+03	8.307755E-18	2.837538E-18
3.570000E+03	8.180882E-18	2.792622E-18
3.580000E+03	8.060505E-18	2.749965E-18
3.590000E+03	7.946410E-18	2.709491E-18
3.600000E+03	7.838310E-18	2.671099E-18
3.610000E+03	7.736092E-18	2.634746E-18
3.620000E+03	7.639414E-18	2.600314E-18
3.630000E+03	7.548107E-18	2.567741E-18
3.640000E+03	7.461790E-18	2.536895E-18
3.650000E+03	7.380319E-18	2.507724E-18
3.660000E+03	7.303484E-18	2.480155E-18
3.670000E+03	7.231089E-18	2.454118E-18
3.680000E+03	7.163008E-18	2.429567E-18
3.690000E+03	7.099121E-18	2.406461E-18
3.700000E+03	7.039245E-18	2.384734E-18
3.710000E+03	6.983332E-18	2.364368E-18
3.720000E+03	6.931204E-18	2.345300E-18
3.730000E+03	6.882875E-18	2.327533E-18
3.740000E+03	6.838233E-18	2.311027E-18
3.750000E+03	6.797169E-18	2.295743E-18
3.760000E+03	6.759631E-18	2.281661E-18
3.770000E+03	6.725627E-18	2.268781E-18
3.780000E+03	6.695048E-18	2.257066E-18
3.790000E+03	6.667899E-18	2.246514E-18
3.800000E+03	6.644071E-18	2.237086E-18
3.810000E+03	6.623515E-18	2.228765E-18
3.820000E+03	6.606234E-18	2.221549E-18
3.830000E+03	6.592232E-18	2.215438E-18
3.840000E+03	6.581405E-18	2.210394E-18
3.850000E+03	6.573811E-18	2.206435E-18
3.860000E+03	6.569290E-18	2.203505E-18
3.870000E+03	6.567955E-18	2.201640E-18
3.880000E+03	6.569646E-18	2.200785E-18
3.890000E+03	6.574476E-18	2.200975E-18
3.900000E+03	6.582341E-18	2.202174E-18
3.910000E+03	6.593241E-18	2.204379E-18
3.920000E+03	6.607125E-18	2.207573E-18
3.930000E+03	6.623998E-18	2.211753E-18
3.940000E+03	6.643807E-18	2.216900E-18
3.950000E+03	6.666605E-18	2.223031E-18
3.960000E+03	6.692288E-18	2.230109E-18
3.970000E+03	6.720859E-18	2.238132E-18
3.980000E+03	6.752264E-18	2.247081E-18
3.990000E+03	6.786559E-18	2.256973E-18
4.000000E+03	6.823691E-18	2.267787E-18
4.010000E+03	6.863609E-18	2.279504E-18
4.020000E+03	6.906262E-18	2.292107E-18
4.030000E+03	6.951707E-18	2.305612E-18
4.040000E+03	6.999838E-18	2.319982E-18
4.050000E+03	7.050717E-18	2.335235E-18
4.060000E+03	7.104237E-18	2.351335E-18
4.070000E+03	7.160409E-18	2.368281E-18
4.080000E+03	7.219236E-18	2.386076E-18
4.090000E+03	7.280675E-18	2.404701E-18
4.100000E+03	7.344680E-18	2.424139E-18
4.110000E+03	7.411203E-18	2.444374E-18
4.120000E+03	7.480318E-18	2.465427E-18
4.130000E+03	7.551921E-18	2.487263E-18
4.140000E+03	7.626027E-18	2.509884E-18
4.150000E+03	7.702536E-18	2.533255E-18
4.160000E+03	7.781461E-18	2.557380E-18
4.170000E+03	7.862824E-18	2.582264E-18
4.180000E+03	7.946518E-18	2.607869E-18
4.190000E+03	8.032568E-18	2.634202E-18
4.200000E+03	8.120865E-18	2.661226E-18
4.210000E+03	8.211432E-18	2.688946E-18
4.220000E+03	8.304161E-18	2.717325E-18
4.230000E+03	8.399075E-18	2.746369E-18
4.240000E+03	8.496061E-18	2.776040E-18
4.250000E+03	8.595076E-18	2.806322E-18
4.260000E+03	8.696002E-18	2.837174E-18
4.270000E+03	8.798857E-18	2.868601E-18
4.280000E+03	8.903518E-18	2.900563E-18
4.290000E+03	9.009930E-18	2.933038E-18
4.300000E+03	9.117962E-18	2.965983E-18
4.310000E+03	9.227473E-18	2.999351E-18
4.320000E+03	9.338393E-18	3.033118E-18
4.330000E+03	9.450646E-18	3.067258E-18
4.340000E+03	9.564074E-18	3.101719E-18
4.350000E+03	9.678591E-18	3.136472E-18
4.360000E+03	9.794023E-18	3.171460E-18
4.370000E+03	9.910350E-18	3.206676E-18
4.380000E+03	1.002747E-17	3.242084E-18
4.390000E+03	1.014552E-17	3.277730E-18
4.400000E+03	1.026439E-17	3.313578E-18
4.410000E+03	1.038414E-17	3.349646E-18
4.420000E+03	1.050476E-17	3.385927E-18
4.430000E+03	1.062639E-17	3.422470E-18
4.440000E+03	1.074893E-17	3.459239E-18
4.450000E+03	1.087237E-17	3.496231E-18
4.460000E+03	1.099679E-17	3.533472E-18
4.470000E+03	1.112217E-17	3.570953E-18
4.480000E+03	1.124852E-17	3.608676E-18
4.490000E+03	1.137574E-17	3.646610E-18
4.500000E+03	1.150393E-17	3.684783E-18
4.510000E+03	1.163299E-17	3.723168E-18
4.520000E+03	1.176292E-17	3.761759E-18
4.530000E+03	1.189374E-17	3.800564E-18
4.540000E+03	1.202525E-17	3.839519E-18
4.550000E+03	1.215756E-17	3.878657E-18
4.560000E+03	1.229059E-17	3.917951E-18
4.570000E+03	1.242436E-17	3.957408E-18
4.580000E+03	1.255868E-17	3.996965E-18
4.590000E+03	1.269366E-17	4.036663E-18
4.600000E+03	1.282916E-17	4.076446E-18
4.610000E+03	1.296528E-17	4.116357E-18
4.620000E+03	1.310187E-17	4.156338E-18
4.630000E+03	1.323899E-17	4.196411E-18
4.640000E+03	1.337655E-17	4.236552E-18
4.650000E+03	1.351475E-17	4.276815E-18
4.660000E+03	1.365343E-17	4.317156E-18
4.670000E+03	1.379279E-17	4.357637E-18
4.680000E+03	1.393280E-17	4.398244E-18
4.690000E+03	1.407345E-17	4.438973E-18
4.700000E+03	1.421495E-17	4.479895E-18
4.710000E+03	1.435719E-17	4.520971E-18
4.720000E+03	1.450028E-17	4.562235E-18
4.730000E+03	1.464410E-17	4.603648E-18
4.740000E+03	1.478878E-17	4.645254E-18
4.750000E+03	1.493407E-17	4.686970E-18
4.760000E+03	1.508012E-17	4.728842E-18
4.770000E+03	1.522679E-17	4.770827E-18
4.780000E+03	1.537422E-17	4.812972E-18
4.790000E+03	1.552232E-17	4.855241E-18
4.800000E+03	1.567108E-17	4.897636E-18
4.810000E+03	1.582051E-17	4.940158E-18
4.820000E+03	1.597062E-17	4.982810E-18
4.830000E+03	1.612144E-17	5.025598E-18
4.840000E+03	1.627283E-17	5.068480E-18
4.850000E+03	1.642492E-17	5.111498E-18
4.860000E+03	1.657774E-17	5.154659E-18
4.870000E+03	1.673115E-17	5.197917E-18
4.880000E+03	1.688514E-17	5.241271E-18
4.890000E+03	1.703986E-17	5.284766E-18
4.900000E+03	1.719501E-17	5.328308E-18
4.910000E+03	1.735087E-17	5.371983E-18
4.920000E+03	1.750727E-17	5.415743E-18
4.930000E+03	1.766403E-17	5.459527E-18
4.940000E+03	1.782127E-17	5.503373E-18
4.950000E+03	1.797895E-17	5.547266E-18
4.960000E+03	1.813684E-17	5.591140E-18
4.970000E+03	1.829504E-17	5.635021E-18
4.980000E+03	1.845313E-17	5.678783E-18
4.990000E+03	1.861135E-17	5.722499E-18
5.000000E+03	1.876943E-17	5.766084E-18
5.010000E+03	1.892704E-17	5.809441E-18
5.020000E+03	1.908424E-17	5.852584E-18
5.030000E+03	1.924069E-17	5.895414E-18
5.040000E+03	1.939620E-17	5.937869E-18
5.050000E+03	1.955058E-17	5.979897E-18
5.060000E+03	1.970364E-17	6.021439E-18
5.070000E+03	1.985496E-17	6.062367E-18
5.080000E+03	2.000451E-17	6.102675E-18
5.090000E+03	2.015183E-17	6.142221E-18
5.100000E+03	2.029669E-17	6.180940E-18
5.110000E+03	2.043860E-17	6.218687E-18
5.120000E+03	2.057750E-17	6.255442E-18
5.130000E+03	2.071269E-17	6.291000E-18
5.140000E+03	2.084431E-17	6.325400E-18
5.150000E+03	2.097163E-17	6.358432E-18
5.160000E+03	2.109460E-17	6.390076E-18
5.170000E+03	2.121268E-17	6.420181E-18
5.180000E+03	2.132537E-17	6.448594E-18
5.190000E+03	2.143258E-17	6.475295E-18
5.200000E+03	2.153379E-17	6.500132E-18
5.210000E+03	2.162869E-17	6.523017E-18
5.220000E+03	2.171699E-17	6.543866E-18
5.230000E+03	2.179815E-17	6.562521E-18
5.240000E+03	2.187185E-17	6.578898E-18
5.250000E+03	2.193760E-17	6.592848E-18
5.260000E+03	2.199527E-17	6.604346E-18
5.270000E+03	2.204438E-17	6.613252E-18
5.280000E+03	2.208464E-17	6.619483E-18
5.290000E+03	2.211577E-17	6.622967E-18
5.300000E+03	2.213729E-17	6.623568E-18
5.310000E+03	2.214896E-17	6.621221E-18
5.320000E+03	2.215059E-17	6.615875E-18
5.330000E+03	2.214198E-17	6.607483E-18
5.340000E+03	2.212277E-17	6.595944E-18
5.350000E+03	2.209311E-17	6.581310E-18
5.360000E+03	2.205291E-17	6.563567E-18
5.370000E+03	2.200220E-17	6.542730E-18
5.380000E+03	2.194085E-17	6.518768E-18
5.390000E+03	2.186941E-17	6.491854E-18
5.400000E+03	2.178787E-17	6.461994E-18
5.410000E+03	2.169696E-17	6.429412E-18
5.420000E+03	2.159681E-17	6.394153E-18
5.430000E+03	2.148809E-17	6.356423E-18
5.440000E+03	2.137127E-17	6.316372E-18
5.450000E+03	2.124741E-17	6.274311E-18
5.460000E+03	2.111691E-17	6.230373E-18
5.470000E+03	2.098032E-17	6.184717E-18
5.480000E+03	2.083799E-17	6.137458E-18
5.490000E+03	2.069079E-17	6.088851E-18
5.500000E+03	2.053919E-17	6.039043E-18
5.510000E+03	2.038395E-17	5.988258E-18
5.520000E+03	2.022585E-17	5.936727E-18
5.530000E+03	2.006570E-17	5.884693E-18
5.540000E+03	1.990432E-17	5.832395E-18
5.550000E+03	1.974275E-17	5.780138E-18
5.560000E+03	1.958180E-17	5.728162E-18
5.570000E+03	1.942268E-17	5.676820E-18
5.580000E+03	1.926598E-17	5.626280E-18
5.590000E+03	1.911301E-17	5.576925E-18
5.600000E+03	1.896428E-17	5.528900E-18
5.610000E+03	1.882081E-17	5.482500E-18
5.620000E+03	1.868358E-17	5.438004E-18
5.630000E+03	1.855288E-17	5.395497E-18
5.640000E+03	1.842995E-17	5.355329E-18
5.650000E+03	1.831515E-17	5.317603E-18
5.660000E+03	1.820878E-17	5.282399E-18
5.670000E+03	1.811183E-17	5.249997E-18
5.680000E+03	1.802427E-17	5.220384E-18
5.690000E+03	1.794661E-17	5.193700E-18
5.700000E+03	1.787925E-17	5.170051E-18
5.710000E+03	1.782238E-17	5.149491E-18
5.720000E+03	1.777615E-17	5.132052E-18
5.730000E+03	1.774067E-17	5.117763E-18
5.740000E+03	1.771621E-17	5.106688E-18
5.750000E+03	1.770302E-17	5.098897E-18
5.760000E+03	1.770077E-17	5.094289E-18
5.770000E+03	1.771009E-17	5.093033E-18
5.780000E+03	1.773064E-17	5.095030E-18
5.790000E+03	1.776285E-17	5.100394E-18
5.800000E+03	1.780661E-17	5.109084E-18
5.810000E+03	1.786215E-17	5.121166E-18
5.820000E+03	1.792957E-17	5.136655E-18
5.830000E+03	1.800915E-17	5.155627E-18
5.840000E+03	1.810079E-17	5.178049E-18
5.850000E+03	1.820457E-17	5.203934E-18
5.860000E+03	1.832082E-17	5.233372E-18
5.870000E+03	1.844982E-17	5.266435E-18
5.880000E+03	1.859128E-17	5.303035E-18
5.890000E+03	1.874568E-17	5.343302E-18
5.900000E+03	1.891292E-17	5.387203E-18
5.910000E+03	1.909329E-17	5.434812E-18
5.920000E+03	1.928685E-17	5.486139E-18
5.930000E+03	1.949341E-17	5.541128E-18
5.940000E+03	1.971322E-17	5.599845E-18
5.950000E+03	1.994628E-17	5.662278E-18
5.960000E+03	2.019232E-17	5.728354E-18
5.970000E+03	2.045172E-17	5.798170E-18
5.980000E+03	2.072391E-17	5.871562E-18
5.990000E+03	2.100899E-17	5.948552E-18
6.000000E+03	2.130675E-17	6.029076E-18
6.010000E+03	2.161668E-17	6.112989E-18
6.020000E+03	2.193873E-17	6.200273E-18
6.030000E+03	2.227201E-17	6.290674E-18
6.040000E+03	2.261664E-17	6.384219E-18
6.050000E+03	2.297154E-17	6.480607E-18
6.060000E+03	2.333643E-17	6.579755E-18
6.070000E+03	2.371038E-17	6.681400E-18
6.080000E+03	2.409267E-17	6.785337E-18
6.090000E+03	2.448218E-17	6.891255E-18
6.100000E+03	2.487775E-17	6.998824E-18
6.110000E+03	2.527866E-17	7.107849E-18
6.120000E+03	2.568300E-17	7.217787E-18
6.130000E+03	2.608988E-17	7.328399E-18
6.140000E+03	2.649751E-17	7.439184E-18
6.150000E+03	2.690461E-17	7.549784E-18
6.160000E+03	2.730858E-17	7.659477E-18
6.170000E+03	2.770839E-17	7.767981E-18
6.180000E+03	2.810166E-17	7.874636E-18
6.190000E+03	2.848673E-17	7.978981E-18
6.200000E+03	2.886168E-17	8.080492E-18
6.210000E+03	2.922635E-17	8.179129E-18
6.220000E+03	2.958113E-17	8.275008E-18
6.230000E+03	2.992653E-17	8.368284E-18
6.240000E+03	3.026327E-17	8.459164E-18
6.250000E+03	3.059104E-17	8.547570E-18
6.260000E+03	3.091156E-17	8.633990E-18
6.270000E+03	3.122434E-17	8.718290E-18
6.280000E+03	3.153051E-17	8.800800E-18
6.290000E+03	3.183094E-17	8.881762E-18
6.300000E+03	3.212526E-17	8.961083E-18
6.310000E+03	3.241441E-17	9.039027E-18
6.320000E+03	3.269899E-17	9.115767E-18
6.330000E+03	3.297962E-17	9.191475E-18
6.340000E+03	3.325603E-17	9.266081E-18
6.350000E+03	3.352890E-17	9.339774E-18
6.360000E+03	3.379845E-17	9.412620E-18
6.370000E+03	3.406490E-17	9.484684E-18
6.380000E+03	3.432801E-17	9.555898E-18
6.390000E+03	3.458753E-17	9.626192E-18
6.400000E+03	3.484314E-17	9.695486E-18
6.410000E+03	3.509508E-17	9.763843E-18
6.420000E+03	3.534299E-17	9.831167E-18
6.430000E+03	3.558553E-17	9.897086E-18
6.440000E+03	3.582437E-17	9.962065E-18
6.450000E+03	3.605971E-17	1.002616E-17
6.460000E+03	3.629227E-17	1.008958E-17
6.470000E+03	3.652330E-17	1.015266E-17
6.480000E+03	3.675251E-17	1.021534E-17
6.490000E+03	3.698123E-17	1.027797E-17
6.500000E+03	3.720967E-17	1.034062E-17
6.510000E+03	3.743868E-17	1.040352E-17
6.520000E+03	3.766732E-17	1.046642E-17
6.530000E+03	3.789756E-17	1.052986E-17
6.540000E+03	3.812844E-17	1.059358E-17
6.550000E+03	3.836080E-17	1.065781E-17
6.560000E+03	3.859484E-17	1.072260E-17
6.570000E+03	3.883016E-17	1.078785E-17
6.580000E+03	3.906756E-17	1.085378E-17
6.590000E+03	3.930722E-17	1.092043E-17
6.600000E+03	3.954871E-17	1.098770E-17
6.610000E+03	3.979216E-17	1.105561E-17
6.620000E+03	4.003774E-17	1.112421E-17
6.630000E+03	4.028623E-17	1.119373E-17
6.640000E+03	4.053645E-17	1.126384E-17
6.650000E+03	4.078917E-17	1.133474E-17
6.660000E+03	4.104449E-17	1.140647E-17
6.670000E+03	4.130182E-17	1.147886E-17
6.680000E+03	4.156192E-17	1.155213E-17
6.690000E+03	4.182415E-17	1.162610E-17
6.700000E+03	4.208929E-17	1.170098E-17
6.710000E+03	4.235593E-17	1.177639E-17
6.720000E+03	4.262482E-17	1.185254E-17
6.730000E+03	4.289674E-17	1.192964E-17
6.740000E+03	4.317023E-17	1.200728E-17
6.750000E+03	4.344605E-17	1.208569E-17
6.760000E+03	4.372344E-17	1.216464E-17
6.770000E+03	4.400321E-17	1.224437E-17
6.780000E+03	4.428457E-17	1.232465E-17
6.790000E+03	4.456751E-17	1.240549E-17
6.800000E+03	4.485284E-17	1.248711E-17
6.810000E+03	4.513893E-17	1.256905E-17
6.820000E+03	4.542739E-17	1.265177E-17
6.830000E+03	4.571655E-17	1.273480E-17
6.840000E+03	4.600802E-17	1.281860E-17
6.850000E+03	4.630010E-17	1.290268E-17
6.860000E+03	4.659267E-17	1.298702E-17
6.870000E+03	4.688650E-17	1.307183E-17
6.880000E+03	4.718150E-17	1.315708E-17
6.890000E+03	4.747579E-17	1.324226E-17
6.900000E+03	4.777097E-17	1.332780E-17
6.910000E+03	4.806598E-17	1.341343E-17
6.920000E+03	4.836159E-17	1.349934E-17
6.930000E+03	4.865574E-17	1.358497E-17
6.940000E+03	4.894916E-17	1.367051E-17
6.950000E+03	4.924163E-17	1.375592E-17
6.960000E+03	4.953199E-17	1.384086E-17
6.970000E+03	4.982093E-17	1.392552E-17
6.980000E+03	5.010825E-17	1.400986E-17
6.990000E+03	5.039276E-17	1.409354E-17
7.000000E+03	5.067424E-17	1.417649E-17
7.010000E+03	5.095244E-17	1.425866E-17
7.020000E+03	5.122819E-17	1.434026E-17
7.030000E+03	5.149929E-17	1.442068E-17
7.040000E+03	5.176760E-17	1.450045E-17
7.050000E+03	5.203092E-17	1.457894E-17
7.060000E+03	5.229014E-17	1.465641E-17
7.070000E+03	5.254412E-17	1.473252E-17
7.080000E+03	5.279378E-17	1.480756E-17
7.090000E+03	5.303910E-17	1.488149E-17
7.100000E+03	5.327896E-17	1.495401E-17
7.110000E+03	5.351224E-17	1.502481E-17
7.120000E+03	5.374108E-17	1.509448E-17
7.130000E+03	5.396443E-17	1.516273E-17
7.140000E+03	5.418233E-17	1.522956E-17
7.150000E+03	5.439481E-17	1.529499E-17
7.160000E+03	5.460083E-17	1.535872E-17
7.170000E+03	5.480159E-17	1.542108E-17
7.180000E+03	5.499604E-17	1.548178E-17
7.190000E+03	5.518428E-17	1.554085E-17
7.200000E+03	5.536754E-17	1.559862E-17
7.210000E+03	5.554480E-17	1.565482E-17
7.220000E+03	5.571731E-17	1.570979E-17
7.230000E+03	5.588283E-17	1.576289E-17
7.240000E+03	5.604262E-17	1.581449E-17
7.250000E+03	5.619672E-17	1.586458E-17
7.260000E+03	5.634520E-17	1.591320E-17
7.270000E+03	5.648810E-17	1.596034E-17
7.280000E+03	5.662542E-17	1.600601E-17
7.290000E+03	5.675593E-17	1.604986E-17
7.300000E+03	5.688084E-17	1.609222E-17
7.310000E+03	5.700009E-17	1.613308E-17
7.320000E+03	5.711363E-17	1.617242E-17
7.330000E+03	5.722018E-17	1.620988E-17
7.340000E+03	5.732089E-17	1.624578E-17
7.350000E+03	5.741698E-17	1.628047E-17
7.360000E+03	5.750591E-17	1.631321E-17
7.370000E+03	5.758887E-17	1.634435E-17
7.380000E+03	5.766585E-17	1.637389E-17
7.390000E+03	5.773814E-17	1.640218E-17
7.400000E+03	5.780448E-17	1.642887E-17
7.410000E+03	5.786624E-17	1.645433E-17
7.420000E+03	5.792479E-17	1.647898E-17
7.430000E+03	5.797897E-17	1.650246E-17
7.440000E+03	5.803156E-17	1.652557E-17
7.450000E+03	5.808014E-17	1.654762E-17
7.460000E+03	5.812620E-17	1.656904E-17
7.470000E+03	5.816865E-17	1.658951E-17
7.480000E+03	5.820904E-17	1.660947E-17
7.490000E+03	5.824495E-17	1.662823E-17
7.500000E+03	5.827792E-17	1.664623E-17
7.510000E+03	5.830819E-17	1.666353E-17
7.520000E+03	5.833461E-17	1.667981E-17
7.530000E+03	5.836012E-17	1.669591E-17
7.540000E+03	5.838220E-17	1.671110E-17
7.550000E+03	5.840241E-17	1.672583E-17
7.560000E+03	5.841954E-17	1.673974E-17
7.570000E+03	5.843512E-17	1.675328E-17
7.580000E+03	5.844793E-17	1.676609E-17
7.590000E+03	5.845945E-17	1.677860E-17
7.600000E+03	5.846841E-17	1.679043E-17
7.610000E+03	5.847488E-17	1.680161E-17
7.620000E+03	5.848034E-17	1.681256E-17
7.630000E+03	5.848341E-17	1.682287E-17
7.640000E+03	5.848408E-17	1.683256E-17
7.650000E+03	5.848377E-17	1.684201E-17
7.660000E+03	5.848102E-17	1.685081E-17
7.670000E+03	5.847718E-17	1.685935E-17
7.680000E+03	5.846929E-17	1.686676E-17
7.690000E+03	5.846011E-17	1.687385E-17
7.700000E+03	5.844951E-17	1.688058E-17
7.710000E+03	5.843589E-17	1.688647E-17
7.720000E+03	5.842053E-17	1.689190E-17
7.730000E+03	5.840181E-17	1.689640E-17
7.740000E+03	5.837950E-17	1.689989E-17
7.750000E+03	5.835485E-17	1.690275E-17
7.760000E+03	5.832765E-17	1.690490E-17
