#wls	flux	fluxerr
1.600000E+03	1.296044E-16	2.798014E-17
1.640000E+03	1.340434E-16	2.887159E-17
1.680000E+03	1.383702E-16	2.973453E-17
1.720000E+03	1.425229E-16	3.055584E-17
1.760000E+03	1.464902E-16	3.133335E-17
1.800000E+03	1.502100E-16	3.204862E-17
1.840000E+03	1.536284E-16	3.269576E-17
1.880000E+03	1.567220E-16	3.327032E-17
1.920000E+03	1.594125E-16	3.375621E-17
1.960000E+03	1.616694E-16	3.414148E-17
2.000000E+03	1.634181E-16	3.441714E-17
2.040000E+03	1.646193E-16	3.457581E-17
2.080000E+03	1.651913E-16	3.460133E-17
2.120000E+03	1.650847E-16	3.447792E-17
2.160000E+03	1.642296E-16	3.419879E-17
2.200000E+03	1.625351E-16	3.374644E-17
2.240000E+03	1.599302E-16	3.310772E-17
2.280000E+03	1.564228E-16	3.227951E-17
2.320000E+03	1.520548E-16	3.127886E-17
2.360000E+03	1.469758E-16	3.013813E-17
2.400000E+03	1.413101E-16	2.888416E-17
2.440000E+03	1.351786E-16	2.753696E-17
2.480000E+03	1.286839E-16	2.612458E-17
2.520000E+03	1.218988E-16	2.466249E-17
2.560000E+03	1.149063E-16	2.316803E-17
2.600000E+03	1.077876E-16	2.165328E-17
2.640000E+03	1.006069E-16	2.013664E-17
2.680000E+03	9.342658E-17	1.863066E-17
2.720000E+03	8.630958E-17	1.714787E-17
2.760000E+03	7.932294E-17	1.569792E-17
2.800000E+03	7.251322E-17	1.429375E-17
2.840000E+03	6.593335E-17	1.294535E-17
2.880000E+03	5.963464E-17	1.166220E-17
2.920000E+03	5.366782E-17	1.045140E-17
2.960000E+03	4.806614E-17	9.321183E-18
3.000000E+03	4.285856E-17	8.276252E-18
3.010000E+03	4.162161E-17	8.028880E-18
3.020000E+03	4.041017E-17	7.786695E-18
3.030000E+03	3.922538E-17	7.550152E-18
3.040000E+03	3.806621E-17	7.319031E-18
3.050000E+03	3.693335E-17	7.093454E-18
3.060000E+03	3.582763E-17	6.873461E-18
3.070000E+03	3.474700E-17	6.658749E-18
3.080000E+03	3.369343E-17	6.449678E-18
3.090000E+03	3.266520E-17	6.245899E-18
3.100000E+03	3.166357E-17	6.047555E-18
3.110000E+03	3.068731E-17	5.854482E-18
3.120000E+03	2.973608E-17	5.666602E-18
3.130000E+03	2.881074E-17	5.484059E-18
3.140000E+03	2.791030E-17	5.306576E-18
3.150000E+03	2.703608E-17	5.134464E-18
3.160000E+03	2.618640E-17	4.967389E-18
3.170000E+03	2.536259E-17	4.805588E-18
3.180000E+03	2.456366E-17	4.648790E-18
3.190000E+03	2.379005E-17	4.497132E-18
3.200000E+03	2.304100E-17	4.350452E-18
3.210000E+03	2.231656E-17	4.208744E-18
3.220000E+03	2.161650E-17	4.071892E-18
3.230000E+03	2.094041E-17	3.939863E-18
3.240000E+03	2.028772E-17	3.812532E-18
3.250000E+03	1.965879E-17	3.689954E-18
3.260000E+03	1.905312E-17	3.571968E-18
3.270000E+03	1.847045E-17	3.458562E-18
3.280000E+03	1.791004E-17	3.349584E-18
3.290000E+03	1.737144E-17	3.244933E-18
3.300000E+03	1.685456E-17	3.144532E-18
3.310000E+03	1.635847E-17	3.048243E-18
3.320000E+03	1.588286E-17	2.955992E-18
3.330000E+03	1.542715E-17	2.867660E-18
3.340000E+03	1.499051E-17	2.783035E-18
3.350000E+03	1.457266E-17	2.702096E-18
3.360000E+03	1.417283E-17	2.624690E-18
3.370000E+03	1.379049E-17	2.550701E-18
3.380000E+03	1.342519E-17	2.480004E-18
3.390000E+03	1.307595E-17	2.412440E-18
3.400000E+03	1.274256E-17	2.347961E-18
3.410000E+03	1.242438E-17	2.286436E-18
3.420000E+03	1.212082E-17	2.227716E-18
3.430000E+03	1.183129E-17	2.171715E-18
3.440000E+03	1.155532E-17	2.118335E-18
3.450000E+03	1.129214E-17	2.067431E-18
3.460000E+03	1.104158E-17	2.018928E-18
3.470000E+03	1.080286E-17	1.972707E-18
3.480000E+03	1.057557E-17	1.928685E-18
3.490000E+03	1.035923E-17	1.886766E-18
3.500000E+03	1.015348E-17	1.846852E-18
3.510000E+03	9.957780E-18	1.808863E-18
3.520000E+03	9.771738E-18	1.772720E-18
3.530000E+03	9.594860E-18	1.738327E-18
3.540000E+03	9.426782E-18	1.705589E-18
3.550000E+03	9.267089E-18	1.674448E-18
3.560000E+03	9.115375E-18	1.644824E-18
3.570000E+03	8.971353E-18	1.616660E-18
3.580000E+03	8.834653E-18	1.589864E-18
3.590000E+03	8.704937E-18	1.564389E-18
3.600000E+03	8.581878E-18	1.540174E-18
3.610000E+03	8.465341E-18	1.517187E-18
3.620000E+03	8.355022E-18	1.495352E-18
3.630000E+03	8.250641E-18	1.474632E-18
3.640000E+03	8.151773E-18	1.454949E-18
3.650000E+03	8.058253E-18	1.436268E-18
3.660000E+03	7.969932E-18	1.418540E-18
3.670000E+03	7.886504E-18	1.401727E-18
3.680000E+03	7.807835E-18	1.385800E-18
3.690000E+03	7.733791E-18	1.370733E-18
3.700000E+03	7.664251E-18	1.356482E-18
3.710000E+03	7.599076E-18	1.343039E-18
3.720000E+03	7.538075E-18	1.330365E-18
3.730000E+03	7.481258E-18	1.318460E-18
3.740000E+03	7.428572E-18	1.307294E-18
3.750000E+03	7.379811E-18	1.296846E-18
3.760000E+03	7.334912E-18	1.287100E-18
3.770000E+03	7.293874E-18	1.278053E-18
3.780000E+03	7.256646E-18	1.269679E-18
3.790000E+03	7.223144E-18	1.261975E-18
3.800000E+03	7.193247E-18	1.254918E-18
3.810000E+03	7.166897E-18	1.248494E-18
3.820000E+03	7.144175E-18	1.242701E-18
3.830000E+03	7.125007E-18	1.237537E-18
3.840000E+03	7.109283E-18	1.232981E-18
3.850000E+03	7.097070E-18	1.229040E-18
3.860000E+03	7.088277E-18	1.225685E-18
3.870000E+03	7.082952E-18	1.222932E-18
3.880000E+03	7.080928E-18	1.220752E-18
3.890000E+03	7.082324E-18	1.219163E-18
3.900000E+03	7.087107E-18	1.218141E-18
3.910000E+03	7.095198E-18	1.217686E-18
3.920000E+03	7.106540E-18	1.217783E-18
3.930000E+03	7.121129E-18	1.218431E-18
3.940000E+03	7.138989E-18	1.219617E-18
3.950000E+03	7.160094E-18	1.221348E-18
3.960000E+03	7.184328E-18	1.223602E-18
3.970000E+03	7.211687E-18	1.226374E-18
3.980000E+03	7.242201E-18	1.229656E-18
3.990000E+03	7.275837E-18	1.233451E-18
4.000000E+03	7.312532E-18	1.237747E-18
4.010000E+03	7.352225E-18	1.242531E-18
4.020000E+03	7.394943E-18	1.247793E-18
4.030000E+03	7.440648E-18	1.253536E-18
4.040000E+03	7.489222E-18	1.259737E-18
4.050000E+03	7.540722E-18	1.266405E-18
4.060000E+03	7.595123E-18	1.273521E-18
4.070000E+03	7.652338E-18	1.281079E-18
4.080000E+03	7.712372E-18	1.289079E-18
4.090000E+03	7.775175E-18	1.297509E-18
4.100000E+03	7.840799E-18	1.306366E-18
4.110000E+03	7.909094E-18	1.315632E-18
4.120000E+03	7.980136E-18	1.325318E-18
4.130000E+03	8.053814E-18	1.335404E-18
4.140000E+03	8.130246E-18	1.345896E-18
4.150000E+03	8.209216E-18	1.356768E-18
4.160000E+03	8.290734E-18	1.368018E-18
4.170000E+03	8.374821E-18	1.379647E-18
4.180000E+03	8.461470E-18	1.391644E-18
4.190000E+03	8.550591E-18	1.404001E-18
4.200000E+03	8.642070E-18	1.416696E-18
4.210000E+03	8.735923E-18	1.429731E-18
4.220000E+03	8.832156E-18	1.443096E-18
4.230000E+03	8.930671E-18	1.456782E-18
4.240000E+03	9.031347E-18	1.470767E-18
4.250000E+03	9.134135E-18	1.485041E-18
4.260000E+03	9.239044E-18	1.499596E-18
4.270000E+03	9.345965E-18	1.514421E-18
4.280000E+03	9.454772E-18	1.529494E-18
4.290000E+03	9.565405E-18	1.544803E-18
4.300000E+03	9.677863E-18	1.560339E-18
4.310000E+03	9.791865E-18	1.576064E-18
4.320000E+03	9.907332E-18	1.591962E-18
4.330000E+03	1.002418E-17	1.608021E-18
4.340000E+03	1.014239E-17	1.624226E-18
4.350000E+03	1.026170E-17	1.640545E-18
4.360000E+03	1.038192E-17	1.656945E-18
4.370000E+03	1.050302E-17	1.673420E-18
4.380000E+03	1.062504E-17	1.689971E-18
4.390000E+03	1.074795E-17	1.706597E-18
4.400000E+03	1.087164E-17	1.723280E-18
4.410000E+03	1.099614E-17	1.740026E-18
4.420000E+03	1.112158E-17	1.756848E-18
4.430000E+03	1.124795E-17	1.773748E-18
4.440000E+03	1.137512E-17	1.790707E-18
4.450000E+03	1.150308E-17	1.807722E-18
4.460000E+03	1.163208E-17	1.824827E-18
4.470000E+03	1.176194E-17	1.841997E-18
4.480000E+03	1.189265E-17	1.859231E-18
4.490000E+03	1.202410E-17	1.876510E-18
4.500000E+03	1.215660E-17	1.893878E-18
4.510000E+03	1.228982E-17	1.911289E-18
4.520000E+03	1.242379E-17	1.928744E-18
4.530000E+03	1.255847E-17	1.946236E-18
4.540000E+03	1.269384E-17	1.963762E-18
4.550000E+03	1.282981E-17	1.981307E-18
4.560000E+03	1.296629E-17	1.998857E-18
4.570000E+03	1.310326E-17	2.016409E-18
4.580000E+03	1.324066E-17	2.033952E-18
4.590000E+03	1.337849E-17	2.051486E-18
4.600000E+03	1.351651E-17	2.068977E-18
4.610000E+03	1.365488E-17	2.086446E-18
4.620000E+03	1.379355E-17	2.103882E-18
4.630000E+03	1.393240E-17	2.121273E-18
4.640000E+03	1.407139E-17	2.138609E-18
4.650000E+03	1.421070E-17	2.155920E-18
4.660000E+03	1.435026E-17	2.173190E-18
4.670000E+03	1.449019E-17	2.190441E-18
4.680000E+03	1.463047E-17	2.207671E-18
4.690000E+03	1.477107E-17	2.224871E-18
4.700000E+03	1.491231E-17	2.242089E-18
4.710000E+03	1.505396E-17	2.259292E-18
4.720000E+03	1.519615E-17	2.276501E-18
4.730000E+03	1.533874E-17	2.293693E-18
4.740000E+03	1.548193E-17	2.310892E-18
4.750000E+03	1.562544E-17	2.328061E-18
4.760000E+03	1.576943E-17	2.345225E-18
4.770000E+03	1.591380E-17	2.362369E-18
4.780000E+03	1.605873E-17	2.379512E-18
4.790000E+03	1.620408E-17	2.396639E-18
4.800000E+03	1.634988E-17	2.413755E-18
4.810000E+03	1.649614E-17	2.430860E-18
4.820000E+03	1.664285E-17	2.447945E-18
4.830000E+03	1.679002E-17	2.465020E-18
4.840000E+03	1.693750E-17	2.482060E-18
4.850000E+03	1.708547E-17	2.499094E-18
4.860000E+03	1.723385E-17	2.516099E-18
4.870000E+03	1.738257E-17	2.533075E-18
4.880000E+03	1.753164E-17	2.550020E-18
4.890000E+03	1.768127E-17	2.566968E-18
4.900000E+03	1.783103E-17	2.583842E-18
4.910000E+03	1.798139E-17	2.600722E-18
4.920000E+03	1.813221E-17	2.617588E-18
4.930000E+03	1.828331E-17	2.634415E-18
4.940000E+03	1.843473E-17	2.651192E-18
4.950000E+03	1.858658E-17	2.667948E-18
4.960000E+03	1.873863E-17	2.684652E-18
4.970000E+03	1.889101E-17	2.701322E-18
4.980000E+03	1.904314E-17	2.717856E-18
4.990000E+03	1.919545E-17	2.734335E-18
5.000000E+03	1.934767E-17	2.750719E-18
5.010000E+03	1.949949E-17	2.766965E-18
5.020000E+03	1.965078E-17	2.783032E-18
5.030000E+03	1.980139E-17	2.798924E-18
5.040000E+03	1.995118E-17	2.814618E-18
5.050000E+03	2.009998E-17	2.830092E-18
5.060000E+03	2.024734E-17	2.845262E-18
5.070000E+03	2.039310E-17	2.860127E-18
5.080000E+03	2.053722E-17	2.874684E-18
5.090000E+03	2.067921E-17	2.888866E-18
5.100000E+03	2.081853E-17	2.902573E-18
5.110000E+03	2.095492E-17	2.915798E-18
5.120000E+03	2.108832E-17	2.928535E-18
5.130000E+03	2.121804E-17	2.940688E-18
5.140000E+03	2.134390E-17	2.952211E-18
5.150000E+03	2.146557E-17	2.963088E-18
5.160000E+03	2.158304E-17	2.973320E-18
5.170000E+03	2.169587E-17	2.982849E-18
5.180000E+03	2.180324E-17	2.991541E-18
5.190000E+03	2.190547E-17	2.999471E-18
5.200000E+03	2.200211E-17	3.006580E-18
5.210000E+03	2.209288E-17	3.012839E-18
5.220000E+03	2.217718E-17	3.018136E-18
5.230000E+03	2.225489E-17	3.022493E-18
5.240000E+03	2.232575E-17	3.025879E-18
5.250000E+03	2.238924E-17	3.028233E-18
5.260000E+03	2.244490E-17	3.029461E-18
5.270000E+03	2.249260E-17	3.029588E-18
5.280000E+03	2.253203E-17	3.028579E-18
5.290000E+03	2.256287E-17	3.026398E-18
5.300000E+03	2.258412E-17	3.022882E-18
5.310000E+03	2.259588E-17	3.018091E-18
5.320000E+03	2.259787E-17	3.011992E-18
5.330000E+03	2.258977E-17	3.004550E-18
5.337625E+03	4.913312E-18	6.524365E-19
5.338425E+03	5.272756E-18	7.000477E-19
5.338825E+03	5.448181E-18	7.232768E-19
5.339025E+03	5.531759E-18	7.343411E-19
5.339225E+03	5.615376E-18	7.454095E-19
5.339426E+03	5.698996E-18	7.564772E-19
5.340026E+03	5.963771E-18	7.915220E-19
5.340226E+03	6.045656E-18	8.023557E-19
5.340626E+03	6.218510E-18	8.252259E-19
5.341826E+03	6.756594E-18	8.964029E-19
5.343026E+03	7.293611E-18	9.674021E-19
5.344827E+03	8.101835E-18	1.074190E-18
5.345627E+03	8.452554E-18	1.120499E-18
5.346027E+03	8.621166E-18	1.142753E-18
5.346627E+03	8.881374E-18	1.177094E-18
5.347027E+03	9.048904E-18	1.199195E-18
5.347427E+03	9.216138E-18	1.221253E-18
5.347627E+03	9.292265E-18	1.231288E-18
5.348226E+03	9.548512E-18	1.265081E-18
5.348426E+03	9.623230E-18	1.274926E-18
5.348627E+03	9.698172E-18	1.284800E-18
5.348827E+03	9.771456E-18	1.294453E-18
5.349026E+03	9.844418E-18	1.304063E-18
5.349626E+03	1.009737E-17	1.337400E-18
5.350227E+03	1.035013E-17	1.370702E-18
5.350827E+03	1.060231E-17	1.403919E-18
5.351827E+03	1.103321E-17	1.460665E-18
5.352027E+03	1.110293E-17	1.469832E-18
5.352227E+03	1.117108E-17	1.478791E-18
5.352427E+03	1.123858E-17	1.487662E-18
5.353427E+03	1.166500E-17	1.543778E-18
5.353827E+03	1.182032E-17	1.564199E-18
5.354027E+03	1.188617E-17	1.572846E-18
5.354227E+03	1.195122E-17	1.581387E-18
5.354427E+03	1.201519E-17	1.589783E-18
5.354827E+03	1.216825E-17	1.609897E-18
5.355027E+03	1.223168E-17	1.618219E-18
5.355228E+03	1.229504E-17	1.626532E-18
5.355428E+03	1.235828E-17	1.634828E-18
5.356228E+03	1.268603E-17	1.677898E-18
5.356628E+03	1.283417E-17	1.697346E-18
5.357028E+03	1.298158E-17	1.716695E-18
5.357228E+03	1.304079E-17	1.724451E-18
5.357828E+03	1.327485E-17	1.755176E-18
5.358028E+03	1.333206E-17	1.762665E-18
5.358228E+03	1.338840E-17	1.770038E-18
5.358628E+03	1.353155E-17	1.788809E-18
5.359028E+03	1.367465E-17	1.807572E-18
5.359628E+03	1.390412E-17	1.837668E-18
5.359828E+03	1.395820E-17	1.844736E-18
5.360028E+03	1.401065E-17	1.851590E-18
5.360427E+03	1.414905E-17	1.869719E-18
5.361029E+03	1.437450E-17	1.899266E-18
5.361628E+03	1.459930E-17	1.928722E-18
5.362028E+03	1.473556E-17	1.946555E-18
5.362228E+03	1.478263E-17	1.952689E-18
5.362428E+03	1.482924E-17	1.958763E-18
5.362628E+03	1.487787E-17	1.965101E-18
5.362828E+03	1.492341E-17	1.971032E-18
5.364428E+03	1.556686E-17	2.055311E-18
5.364628E+03	1.560987E-17	2.060901E-18
5.364828E+03	1.565222E-17	2.066404E-18
5.365028E+03	1.569551E-17	2.072030E-18
5.365628E+03	1.590718E-17	2.099703E-18
5.366029E+03	1.603181E-17	2.115972E-18
5.366229E+03	1.607037E-17	2.120970E-18
5.366429E+03	1.610942E-17	2.126033E-18
5.367429E+03	1.648527E-17	2.175168E-18
5.367829E+03	1.660485E-17	2.190757E-18
5.368229E+03	1.672400E-17	2.206288E-18
5.368429E+03	1.675995E-17	2.210936E-18
5.369029E+03	1.695986E-17	2.237019E-18
5.369429E+03	1.707445E-17	2.251939E-18
5.369629E+03	1.710476E-17	2.255841E-18
5.369829E+03	1.713457E-17	2.259675E-18
5.370429E+03	1.732865E-17	2.284975E-18
5.370629E+03	1.735745E-17	2.288673E-18
5.371830E+03	1.779845E-17	2.346216E-18
5.372030E+03	1.782407E-17	2.349492E-18
5.372230E+03	1.784916E-17	2.352699E-18
5.372430E+03	1.787373E-17	2.355835E-18
5.372630E+03	1.789857E-17	2.359008E-18
5.373230E+03	1.808275E-17	2.382975E-18
5.373430E+03	1.810315E-17	2.385560E-18
5.373630E+03	1.812302E-17	2.388076E-18
5.373829E+03	1.814372E-17	2.390701E-18
5.374029E+03	1.816268E-17	2.393097E-18
5.374229E+03	1.818055E-17	2.395348E-18
5.375229E+03	1.851765E-17	2.439237E-18
5.375429E+03	1.853419E-17	2.441311E-18
5.376029E+03	1.870957E-17	2.464093E-18
5.376229E+03	1.872385E-17	2.465868E-18
5.377030E+03	1.897474E-17	2.498478E-18
5.378230E+03	1.938311E-17	2.551588E-18
5.378830E+03	1.954993E-17	2.573217E-18
5.379030E+03	1.955764E-17	2.574120E-18
5.380230E+03	1.995616E-17	2.625893E-18
5.380430E+03	1.996099E-17	2.626415E-18
5.381030E+03	2.012093E-17	2.647117E-18
5.381230E+03	2.012267E-17	2.647232E-18
5.381430E+03	2.012380E-17	2.647265E-18
5.381630E+03	2.012526E-17	2.647344E-18
5.381831E+03	2.012517E-17	2.647216E-18
5.383031E+03	2.050939E-17	2.697058E-18
5.383231E+03	2.050624E-17	2.696526E-18
5.383831E+03	2.065582E-17	2.715844E-18
5.384031E+03	2.064967E-17	2.714919E-18
5.384431E+03	2.072105E-17	2.724067E-18
5.384631E+03	2.071555E-17	2.723227E-18
5.385030E+03	2.078302E-17	2.731862E-18
5.385431E+03	2.084932E-17	2.740339E-18
5.385631E+03	2.083943E-17	2.738921E-18
5.386030E+03	2.090285E-17	2.747018E-18
5.386230E+03	2.088936E-17	2.745127E-18
5.386430E+03	2.087594E-17	2.743245E-18
5.386630E+03	2.086343E-17	2.741482E-18
5.386830E+03	2.084806E-17	2.739344E-18
5.387030E+03	2.083143E-17	2.737041E-18
5.387431E+03	2.088685E-17	2.744084E-18
5.387631E+03	2.086784E-17	2.741469E-18
5.387831E+03	2.084822E-17	2.738773E-18
5.388231E+03	2.089957E-17	2.745281E-18
5.388431E+03	2.087771E-17	2.742291E-18
5.388631E+03	2.085521E-17	2.739217E-18
5.388831E+03	2.083123E-17	2.735950E-18
5.389231E+03	2.087795E-17	2.741849E-18
5.390031E+03	2.106494E-17	2.765926E-18
5.390231E+03	2.103712E-17	2.762154E-18
5.390431E+03	2.100865E-17	2.758296E-18
5.392432E+03	2.161094E-17	2.836144E-18
5.392632E+03	2.157927E-17	2.831865E-18
5.392832E+03	2.154611E-17	2.827392E-18
5.393032E+03	2.151313E-17	2.822941E-18
5.393232E+03	2.147894E-17	2.818333E-18
5.393632E+03	2.151283E-17	2.822535E-18
5.393832E+03	2.147699E-17	2.817711E-18
5.395232E+03	2.184906E-17	2.865656E-18
5.395432E+03	2.181017E-17	2.860431E-18
5.395632E+03	2.176975E-17	2.855006E-18
5.397232E+03	2.220117E-17	2.910575E-18
5.397431E+03	2.215701E-17	2.904660E-18
5.397632E+03	2.211241E-17	2.898687E-18
5.397833E+03	2.206658E-17	2.892552E-18
5.398233E+03	2.208776E-17	2.895078E-18
5.398432E+03	2.203988E-17	2.888678E-18
5.398632E+03	2.198962E-17	2.881964E-18
5.398832E+03	2.193959E-17	2.875283E-18
5.399032E+03	2.188888E-17	2.868514E-18
5.399632E+03	2.196586E-17	2.878227E-18
5.399832E+03	2.191321E-17	2.871203E-18
5.400632E+03	2.205129E-17	2.888793E-18
5.400832E+03	2.199532E-17	2.881335E-18
5.401032E+03	2.193861E-17	2.873782E-18
5.401232E+03	2.188137E-17	2.866159E-18
5.401432E+03	2.182437E-17	2.858569E-18
5.401632E+03	2.176764E-17	2.851015E-18
5.401832E+03	2.170641E-17	2.842872E-18
5.402032E+03	2.164461E-17	2.834655E-18
5.402232E+03	2.158211E-17	2.826346E-18
5.403233E+03	2.176510E-17	2.849691E-18
5.403633E+03	2.176258E-17	2.849113E-18
5.403833E+03	2.169438E-17	2.840061E-18
5.404033E+03	2.162547E-17	2.830917E-18
5.404233E+03	2.155977E-17	2.822194E-18
5.404833E+03	2.160964E-17	2.828353E-18
5.405233E+03	2.159937E-17	2.826762E-18
5.405433E+03	2.152563E-17	2.816989E-18
5.405833E+03	2.151183E-17	2.814939E-18
5.406033E+03	2.143927E-17	2.805322E-18
5.406433E+03	2.142526E-17	2.803244E-18
5.406633E+03	2.134903E-17	2.793149E-18
5.407033E+03	2.133149E-17	2.790612E-18
5.407233E+03	2.125343E-17	2.780278E-18
5.408233E+03	2.140196E-17	2.799100E-18
5.408434E+03	2.132246E-17	2.788580E-18
5.408634E+03	2.124197E-17	2.777932E-18
5.408834E+03	2.116076E-17	2.767192E-18
5.409434E+03	2.118894E-17	2.770514E-18
5.409633E+03	2.110568E-17	2.759509E-18
5.410234E+03	2.113130E-17	2.762496E-18
5.410434E+03	2.104590E-17	2.751212E-18
5.410633E+03	2.095990E-17	2.739851E-18
5.410833E+03	2.087318E-17	2.728397E-18
5.411233E+03	2.083915E-17	2.723712E-18
5.411433E+03	2.075061E-17	2.712021E-18
5.411633E+03	2.066148E-17	2.700254E-18
5.412633E+03	2.078155E-17	2.715355E-18
5.413033E+03	2.074275E-17	2.710049E-18
5.413233E+03	2.064962E-17	2.697763E-18
5.414034E+03	2.071214E-17	2.705459E-18
5.414634E+03	2.072026E-17	2.706165E-18
5.415634E+03	2.082688E-17	2.719496E-18
5.416034E+03	2.077941E-17	2.713061E-18
5.416834E+03	2.082922E-17	2.719090E-18
5.417034E+03	2.072499E-17	2.705365E-18
5.417234E+03	2.062587E-17	2.692309E-18
5.417434E+03	2.052602E-17	2.679159E-18
5.417634E+03	2.042204E-17	2.665471E-18
5.417834E+03	2.031734E-17	2.651689E-18
5.418234E+03	2.026012E-17	2.643990E-18
5.418434E+03	2.015240E-17	2.629817E-18
5.418834E+03	2.009281E-17	2.621813E-18
5.419035E+03	1.998476E-17	2.607599E-18
5.419235E+03	1.987573E-17	2.593259E-18
5.419835E+03	1.985895E-17	2.590731E-18
5.420035E+03	1.974782E-17	2.576121E-18
5.420235E+03	1.963595E-17	2.561415E-18
5.421035E+03	1.965985E-17	2.564084E-18
5.421235E+03	1.954417E-17	2.548886E-18
5.421435E+03	1.942664E-17	2.533446E-18
5.421835E+03	1.935283E-17	2.523601E-18
5.422234E+03	1.928616E-17	2.514688E-18
5.422635E+03	1.921313E-17	2.504946E-18
5.423234E+03	1.918228E-17	2.500596E-18
5.423434E+03	1.905924E-17	2.484447E-18
5.423634E+03	1.893920E-17	2.468692E-18
5.423834E+03	1.881717E-17	2.452678E-18
5.424034E+03	1.869321E-17	2.436414E-18
5.424435E+03	1.861420E-17	2.425904E-18
5.424635E+03	1.848839E-17	2.409402E-18
5.424835E+03	1.836309E-17	2.392968E-18
5.425035E+03	1.823711E-17	2.376447E-18
5.425435E+03	1.815196E-17	2.365145E-18
5.425635E+03	1.802796E-17	2.348885E-18
5.425835E+03	1.790068E-17	2.332199E-18
5.426235E+03	1.780941E-17	2.320105E-18
5.426435E+03	1.768293E-17	2.303527E-18
5.426635E+03	1.755702E-17	2.287025E-18
5.427035E+03	1.746464E-17	2.274791E-18
5.427235E+03	1.733569E-17	2.257897E-18
5.427435E+03	1.720469E-17	2.240736E-18
5.427835E+03	1.711011E-17	2.228223E-18
5.428435E+03	1.705083E-17	2.220211E-18
5.428635E+03	1.691924E-17	2.202980E-18
5.428835E+03	1.678560E-17	2.185484E-18
5.429035E+03	1.664988E-17	2.167719E-18
5.429235E+03	1.651745E-17	2.150382E-18
5.429836E+03	1.645201E-17	2.141580E-18
5.430036E+03	1.631611E-17	2.123797E-18
5.430236E+03	1.617949E-17	2.105922E-18
5.430636E+03	1.607748E-17	2.092461E-18
5.431636E+03	1.607672E-17	2.091903E-18
5.431836E+03	1.593891E-17	2.073881E-18
