#wls	flux	fluxerr
1.600000E+03	1.804567E-16	3.570567E-17
1.640000E+03	1.859235E-16	3.678720E-17
1.680000E+03	1.910972E-16	3.781068E-17
1.720000E+03	1.959442E-16	3.876951E-17
1.760000E+03	2.003511E-16	3.964120E-17
1.800000E+03	2.043141E-16	4.042502E-17
1.840000E+03	2.077139E-16	4.109739E-17
1.880000E+03	2.105231E-16	4.165284E-17
1.920000E+03	2.126757E-16	4.207835E-17
1.960000E+03	2.140743E-16	4.235463E-17
2.000000E+03	2.146942E-16	4.247679E-17
2.040000E+03	2.144653E-16	4.243101E-17
2.080000E+03	2.133291E-16	4.220567E-17
2.120000E+03	2.112412E-16	4.179199E-17
2.160000E+03	2.081468E-16	4.117918E-17
2.200000E+03	2.039676E-16	4.035173E-17
2.240000E+03	1.986308E-16	3.929524E-17
2.280000E+03	1.921483E-16	3.801212E-17
2.320000E+03	1.846523E-16	3.652850E-17
2.360000E+03	1.763861E-16	3.489253E-17
2.400000E+03	1.675409E-16	3.314204E-17
2.440000E+03	1.582887E-16	3.131109E-17
2.480000E+03	1.487491E-16	2.942334E-17
2.520000E+03	1.390497E-16	2.750403E-17
2.560000E+03	1.292917E-16	2.557318E-17
2.600000E+03	1.195817E-16	2.365192E-17
2.640000E+03	1.100056E-16	2.175720E-17
2.680000E+03	1.006449E-16	1.990517E-17
2.720000E+03	9.157591E-17	1.811093E-17
2.760000E+03	8.285956E-17	1.638651E-17
2.800000E+03	7.455240E-17	1.474311E-17
2.840000E+03	6.670203E-17	1.319015E-17
2.880000E+03	5.935164E-17	1.173614E-17
2.920000E+03	5.253827E-17	1.038842E-17
2.960000E+03	4.628812E-17	9.152162E-18
3.000000E+03	4.061640E-17	8.030360E-18
3.010000E+03	3.928920E-17	7.767862E-18
3.020000E+03	3.799737E-17	7.512361E-18
3.030000E+03	3.674218E-17	7.264111E-18
3.040000E+03	3.552147E-17	7.022683E-18
3.050000E+03	3.433636E-17	6.788297E-18
3.060000E+03	3.318624E-17	6.560833E-18
3.070000E+03	3.207118E-17	6.340306E-18
3.080000E+03	3.098922E-17	6.126329E-18
3.090000E+03	2.994173E-17	5.919168E-18
3.100000E+03	2.892675E-17	5.718441E-18
3.110000E+03	2.794484E-17	5.524256E-18
3.120000E+03	2.699528E-17	5.336468E-18
3.130000E+03	2.607682E-17	5.154835E-18
3.140000E+03	2.518982E-17	4.979423E-18
3.150000E+03	2.433304E-17	4.809990E-18
3.160000E+03	2.350626E-17	4.646492E-18
3.170000E+03	2.270873E-17	4.488778E-18
3.180000E+03	2.193974E-17	4.336711E-18
3.190000E+03	2.119898E-17	4.190226E-18
3.200000E+03	2.048567E-17	4.049172E-18
3.210000E+03	1.979878E-17	3.913343E-18
3.220000E+03	1.913826E-17	3.782729E-18
3.230000E+03	1.850306E-17	3.657125E-18
3.240000E+03	1.789279E-17	3.536449E-18
3.250000E+03	1.730673E-17	3.420563E-18
3.260000E+03	1.674389E-17	3.309268E-18
3.270000E+03	1.620414E-17	3.202540E-18
3.280000E+03	1.568625E-17	3.100136E-18
3.290000E+03	1.519005E-17	3.002020E-18
3.300000E+03	1.471485E-17	2.908059E-18
3.310000E+03	1.425955E-17	2.818030E-18
3.320000E+03	1.382391E-17	2.731891E-18
3.330000E+03	1.340728E-17	2.649511E-18
3.340000E+03	1.300883E-17	2.570727E-18
3.350000E+03	1.262796E-17	2.495417E-18
3.360000E+03	1.226406E-17	2.423465E-18
3.370000E+03	1.191655E-17	2.354752E-18
3.380000E+03	1.158484E-17	2.289163E-18
3.390000E+03	1.126838E-17	2.226590E-18
3.400000E+03	1.096648E-17	2.166896E-18
3.410000E+03	1.067848E-17	2.109951E-18
3.420000E+03	1.040416E-17	2.055710E-18
3.430000E+03	1.014264E-17	2.004000E-18
3.440000E+03	9.893592E-18	1.954755E-18
3.450000E+03	9.656446E-18	1.907863E-18
3.460000E+03	9.430782E-18	1.863242E-18
3.470000E+03	9.215970E-18	1.820765E-18
3.480000E+03	9.011535E-18	1.780340E-18
3.490000E+03	8.817123E-18	1.741897E-18
3.500000E+03	8.632197E-18	1.705329E-18
3.510000E+03	8.456446E-18	1.670574E-18
3.520000E+03	8.289204E-18	1.637502E-18
3.530000E+03	8.130213E-18	1.606060E-18
3.540000E+03	7.978965E-18	1.576149E-18
3.550000E+03	7.835074E-18	1.547692E-18
3.560000E+03	7.698178E-18	1.520618E-18
3.570000E+03	7.567783E-18	1.494829E-18
3.580000E+03	7.443734E-18	1.470294E-18
3.590000E+03	7.325658E-18	1.446940E-18
3.600000E+03	7.213206E-18	1.424697E-18
3.610000E+03	7.106261E-18	1.403542E-18
3.620000E+03	7.004435E-18	1.383399E-18
3.630000E+03	6.907500E-18	1.364223E-18
3.640000E+03	6.815234E-18	1.345970E-18
3.650000E+03	6.727432E-18	1.328598E-18
3.660000E+03	6.643896E-18	1.312070E-18
3.670000E+03	6.564434E-18	1.296346E-18
3.680000E+03	6.488924E-18	1.281404E-18
3.690000E+03	6.417243E-18	1.267218E-18
3.700000E+03	6.349217E-18	1.253754E-18
3.710000E+03	6.284898E-18	1.241023E-18
3.720000E+03	6.224054E-18	1.228978E-18
3.730000E+03	6.166679E-18	1.217618E-18
3.740000E+03	6.112658E-18	1.206921E-18
3.750000E+03	6.061925E-18	1.196873E-18
3.760000E+03	6.014520E-18	1.187483E-18
3.770000E+03	5.970221E-18	1.178706E-18
3.780000E+03	5.929064E-18	1.170549E-18
3.790000E+03	5.891031E-18	1.163010E-18
3.800000E+03	5.855956E-18	1.156054E-18
3.810000E+03	5.823866E-18	1.149688E-18
3.820000E+03	5.794740E-18	1.143907E-18
3.830000E+03	5.768462E-18	1.138688E-18
3.840000E+03	5.744963E-18	1.134018E-18
3.850000E+03	5.724315E-18	1.129911E-18
3.860000E+03	5.706356E-18	1.126334E-18
3.870000E+03	5.691110E-18	1.123293E-18
3.880000E+03	5.678510E-18	1.120774E-18
3.890000E+03	5.668534E-18	1.118772E-18
3.900000E+03	5.661158E-18	1.117284E-18
3.910000E+03	5.656275E-18	1.116287E-18
3.920000E+03	5.653862E-18	1.115777E-18
3.930000E+03	5.653946E-18	1.115760E-18
3.940000E+03	5.656463E-18	1.116223E-18
3.950000E+03	5.661350E-18	1.117153E-18
3.960000E+03	5.668590E-18	1.118548E-18
3.970000E+03	5.678124E-18	1.120394E-18
3.980000E+03	5.689934E-18	1.122689E-18
3.990000E+03	5.704007E-18	1.125430E-18
4.000000E+03	5.720331E-18	1.128615E-18
4.010000E+03	5.738803E-18	1.132223E-18
4.020000E+03	5.759412E-18	1.136252E-18
4.030000E+03	5.782149E-18	1.140700E-18
4.040000E+03	5.807004E-18	1.145566E-18
4.050000E+03	5.833922E-18	1.150837E-18
4.060000E+03	5.862855E-18	1.156506E-18
4.070000E+03	5.893795E-18	1.162570E-18
4.080000E+03	5.926690E-18	1.169018E-18
4.090000E+03	5.961537E-18	1.175851E-18
4.100000E+03	5.998285E-18	1.183058E-18
4.110000E+03	6.036933E-18	1.190639E-18
4.120000E+03	6.077433E-18	1.198584E-18
4.130000E+03	6.119737E-18	1.206884E-18
4.140000E+03	6.163843E-18	1.215539E-18
4.150000E+03	6.209705E-18	1.224538E-18
4.160000E+03	6.257324E-18	1.233883E-18
4.170000E+03	6.306605E-18	1.243555E-18
4.180000E+03	6.357549E-18	1.253554E-18
4.190000E+03	6.410061E-18	1.263860E-18
4.200000E+03	6.464190E-18	1.274485E-18
4.210000E+03	6.519842E-18	1.285408E-18
4.220000E+03	6.577018E-18	1.296631E-18
4.230000E+03	6.635570E-18	1.308123E-18
4.240000E+03	6.695548E-18	1.319895E-18
4.250000E+03	6.756801E-18	1.331918E-18
4.260000E+03	6.819381E-18	1.344200E-18
4.270000E+03	6.883130E-18	1.356711E-18
4.280000E+03	6.947939E-18	1.369430E-18
4.290000E+03	7.013863E-18	1.382367E-18
4.300000E+03	7.080678E-18	1.395479E-18
4.310000E+03	7.148437E-18	1.408774E-18
4.320000E+03	7.216907E-18	1.422209E-18
4.330000E+03	7.286139E-18	1.435791E-18
4.340000E+03	7.356011E-18	1.449499E-18
4.350000E+03	7.426396E-18	1.463305E-18
4.360000E+03	7.497282E-18	1.477209E-18
4.370000E+03	7.568599E-18	1.491196E-18
4.380000E+03	7.640399E-18	1.505276E-18
4.390000E+03	7.712547E-18	1.519423E-18
4.400000E+03	7.785160E-18	1.533660E-18
4.410000E+03	7.858234E-18	1.547986E-18
4.420000E+03	7.931766E-18	1.562400E-18
4.430000E+03	8.005756E-18	1.576903E-18
4.440000E+03	8.080271E-18	1.591507E-18
4.450000E+03	8.155249E-18	1.606200E-18
4.460000E+03	8.230764E-18	1.620997E-18
4.470000E+03	8.306823E-18	1.635900E-18
4.480000E+03	8.383438E-18	1.650909E-18
4.490000E+03	8.460553E-18	1.666015E-18
4.500000E+03	8.538179E-18	1.681220E-18
4.510000E+03	8.616262E-18	1.696512E-18
4.520000E+03	8.694886E-18	1.711909E-18
4.530000E+03	8.773926E-18	1.727386E-18
4.540000E+03	8.853398E-18	1.742945E-18
4.550000E+03	8.933322E-18	1.758592E-18
4.560000E+03	9.013568E-18	1.774299E-18
4.570000E+03	9.094236E-18	1.790087E-18
4.580000E+03	9.175196E-18	1.805930E-18
4.590000E+03	9.256472E-18	1.821833E-18
4.600000E+03	9.337934E-18	1.837770E-18
4.610000E+03	9.419690E-18	1.853763E-18
4.620000E+03	9.501695E-18	1.869802E-18
4.630000E+03	9.583818E-18	1.885862E-18
4.640000E+03	9.666097E-18	1.901950E-18
4.650000E+03	9.748573E-18	1.918074E-18
4.660000E+03	9.831208E-18	1.934227E-18
4.670000E+03	9.913874E-18	1.950384E-18
4.680000E+03	9.996799E-18	1.966588E-18
4.690000E+03	1.008005E-17	1.982854E-18
4.700000E+03	1.016350E-17	1.999157E-18
4.710000E+03	1.024722E-17	2.015510E-18
4.720000E+03	1.033129E-17	2.031929E-18
4.730000E+03	1.041550E-17	2.048373E-18
4.740000E+03	1.049993E-17	2.064857E-18
4.750000E+03	1.058447E-17	2.081360E-18
4.760000E+03	1.066919E-17	2.097896E-18
4.770000E+03	1.075409E-17	2.114463E-18
4.780000E+03	1.083905E-17	2.131041E-18
4.790000E+03	1.092417E-17	2.147645E-18
4.800000E+03	1.100932E-17	2.164254E-18
4.810000E+03	1.109461E-17	2.180887E-18
4.820000E+03	1.117992E-17	2.197520E-18
4.830000E+03	1.126525E-17	2.214153E-18
4.840000E+03	1.135056E-17	2.230781E-18
4.850000E+03	1.143598E-17	2.247425E-18
4.860000E+03	1.152137E-17	2.264061E-18
4.870000E+03	1.160673E-17	2.280689E-18
4.880000E+03	1.169191E-17	2.297278E-18
4.890000E+03	1.177715E-17	2.313874E-18
4.900000E+03	1.186229E-17	2.330448E-18
4.910000E+03	1.194732E-17	2.346996E-18
4.920000E+03	1.203209E-17	2.363492E-18
4.930000E+03	1.211671E-17	2.379953E-18
4.940000E+03	1.220102E-17	2.396350E-18
4.950000E+03	1.228497E-17	2.412673E-18
4.960000E+03	1.236867E-17	2.428944E-18
4.970000E+03	1.245194E-17	2.445125E-18
4.980000E+03	1.253473E-17	2.461209E-18
4.990000E+03	1.261688E-17	2.477165E-18
5.000000E+03	1.269845E-17	2.493004E-18
5.010000E+03	1.277941E-17	2.508717E-18
5.020000E+03	1.285953E-17	2.524263E-18
5.030000E+03	1.293878E-17	2.539635E-18
5.040000E+03	1.301708E-17	2.554816E-18
5.050000E+03	1.309423E-17	2.569769E-18
5.060000E+03	1.317029E-17	2.584503E-18
5.070000E+03	1.324517E-17	2.599002E-18
5.080000E+03	1.331856E-17	2.613204E-18
5.090000E+03	1.339048E-17	2.627115E-18
5.100000E+03	1.346084E-17	2.640716E-18
5.110000E+03	1.352944E-17	2.653970E-18
5.120000E+03	1.359618E-17	2.666853E-18
5.130000E+03	1.366098E-17	2.679353E-18
5.140000E+03	1.372373E-17	2.691446E-18
5.150000E+03	1.378421E-17	2.703093E-18
5.160000E+03	1.384246E-17	2.714297E-18
5.170000E+03	1.389810E-17	2.724987E-18
5.180000E+03	1.395117E-17	2.735169E-18
5.190000E+03	1.400142E-17	2.744796E-18
5.200000E+03	1.404876E-17	2.753848E-18
5.210000E+03	1.409308E-17	2.762306E-18
5.220000E+03	1.413428E-17	2.770149E-18
5.230000E+03	1.417196E-17	2.777298E-18
5.240000E+03	1.420629E-17	2.783789E-18
5.250000E+03	1.423706E-17	2.789578E-18
5.260000E+03	1.426413E-17	2.794642E-18
5.270000E+03	1.428728E-17	2.798934E-18
5.280000E+03	1.430643E-17	2.802440E-18
5.290000E+03	1.432148E-17	2.805139E-18
5.300000E+03	1.433236E-17	2.807021E-18
5.310000E+03	1.433901E-17	2.808072E-18
5.320000E+03	1.434123E-17	2.808253E-18
5.330000E+03	1.433927E-17	2.807614E-18
5.340000E+03	1.433282E-17	2.806093E-18
5.350000E+03	1.432186E-17	2.803689E-18
5.360000E+03	1.430671E-17	2.800462E-18
5.370000E+03	1.428707E-17	2.796356E-18
5.380000E+03	1.426329E-17	2.791438E-18
5.390000E+03	1.423529E-17	2.785694E-18
5.400000E+03	1.420327E-17	2.779162E-18
5.410000E+03	1.416719E-17	2.771836E-18
5.420000E+03	1.412747E-17	2.763796E-18
5.430000E+03	1.408407E-17	2.755035E-18
5.440000E+03	1.403727E-17	2.745611E-18
5.450000E+03	1.398696E-17	2.735501E-18
5.460000E+03	1.393347E-17	2.724767E-18
5.470000E+03	1.387684E-17	2.713419E-18
5.480000E+03	1.381713E-17	2.701471E-18
5.490000E+03	1.375470E-17	2.688991E-18
5.500000E+03	1.368950E-17	2.675969E-18
5.510000E+03	1.362163E-17	2.662427E-18
5.520000E+03	1.355132E-17	2.648409E-18
5.530000E+03	1.347856E-17	2.633913E-18
5.540000E+03	1.340374E-17	2.619016E-18
5.550000E+03	1.332670E-17	2.603687E-18
5.560000E+03	1.324799E-17	2.588032E-18
5.570000E+03	1.316773E-17	2.572075E-18
5.580000E+03	1.308603E-17	2.555839E-18
5.590000E+03	1.300314E-17	2.539374E-18
5.600000E+03	1.291933E-17	2.522730E-18
5.610000E+03	1.283469E-17	2.505925E-18
5.620000E+03	1.274972E-17	2.489057E-18
5.630000E+03	1.266438E-17	2.472119E-18
5.640000E+03	1.257915E-17	2.455204E-18
5.650000E+03	1.249395E-17	2.438298E-18
5.660000E+03	1.240926E-17	2.421494E-18
5.670000E+03	1.232524E-17	2.404821E-18
5.680000E+03	1.224195E-17	2.388292E-18
5.690000E+03	1.215966E-17	2.371961E-18
5.700000E+03	1.207851E-17	2.355855E-18
5.710000E+03	1.199878E-17	2.340026E-18
5.720000E+03	1.192058E-17	2.324499E-18
5.730000E+03	1.184392E-17	2.309273E-18
5.740000E+03	1.176914E-17	2.294416E-18
5.750000E+03	1.169634E-17	2.279947E-18
5.760000E+03	1.162549E-17	2.265858E-18
5.770000E+03	1.155678E-17	2.252190E-18
5.780000E+03	1.149042E-17	2.238981E-18
5.790000E+03	1.142649E-17	2.226245E-18
5.800000E+03	1.136490E-17	2.213968E-18
5.810000E+03	1.130584E-17	2.202185E-18
5.820000E+03	1.124949E-17	2.190930E-18
5.830000E+03	1.119589E-17	2.180212E-18
5.840000E+03	1.114497E-17	2.170015E-18
5.850000E+03	1.109686E-17	2.160369E-18
5.860000E+03	1.105160E-17	2.151278E-18
5.870000E+03	1.100937E-17	2.142776E-18
5.880000E+03	1.097018E-17	2.134865E-18
5.890000E+03	1.093390E-17	2.127522E-18
5.900000E+03	1.090070E-17	2.120779E-18
5.910000E+03	1.087047E-17	2.114612E-18
5.920000E+03	1.084356E-17	2.109093E-18
5.930000E+03	1.081963E-17	2.104151E-18
5.940000E+03	1.079879E-17	2.099810E-18
5.950000E+03	1.078116E-17	2.096093E-18
5.960000E+03	1.076661E-17	2.092973E-18
5.970000E+03	1.075511E-17	2.090447E-18
5.980000E+03	1.074679E-17	2.088534E-18
5.990000E+03	1.074148E-17	2.087208E-18
6.000000E+03	1.073928E-17	2.086484E-18
6.010000E+03	1.073992E-17	2.086309E-18
6.020000E+03	1.074360E-17	2.086723E-18
6.030000E+03	1.075003E-17	2.087670E-18
6.040000E+03	1.075942E-17	2.089188E-18
6.050000E+03	1.077133E-17	2.091196E-18
6.060000E+03	1.078598E-17	2.093731E-18
6.070000E+03	1.080318E-17	2.096757E-18
6.080000E+03	1.082286E-17	2.100264E-18
6.090000E+03	1.084470E-17	2.104186E-18
6.100000E+03	1.086889E-17	2.108562E-18
6.110000E+03	1.089498E-17	2.113302E-18
6.120000E+03	1.092315E-17	2.118443E-18
6.130000E+03	1.095293E-17	2.123892E-18
6.140000E+03	1.098423E-17	2.129632E-18
6.150000E+03	1.101683E-17	2.135620E-18
6.160000E+03	1.105064E-17	2.141839E-18
6.170000E+03	1.108517E-17	2.148194E-18
6.180000E+03	1.112029E-17	2.154659E-18
6.190000E+03	1.115579E-17	2.161194E-18
6.200000E+03	1.119154E-17	2.167772E-18
6.210000E+03	1.122744E-17	2.174376E-18
6.220000E+03	1.126365E-17	2.181037E-18
6.230000E+03	1.130054E-17	2.187823E-18
6.240000E+03	1.133814E-17	2.194744E-18
6.250000E+03	1.137667E-17	2.201840E-18
6.260000E+03	1.141637E-17	2.209159E-18
6.270000E+03	1.145731E-17	2.216712E-18
6.280000E+03	1.149976E-17	2.224553E-18
6.290000E+03	1.154382E-17	2.232700E-18
6.300000E+03	1.158960E-17	2.241175E-18
6.310000E+03	1.163742E-17	2.250039E-18
6.320000E+03	1.168723E-17	2.259284E-18
6.330000E+03	1.173935E-17	2.268970E-18
6.340000E+03	1.179362E-17	2.279066E-18
6.350000E+03	1.185023E-17	2.289607E-18
6.360000E+03	1.190915E-17	2.300589E-18
6.370000E+03	1.197059E-17	2.312052E-18
6.380000E+03	1.203439E-17	2.323964E-18
6.390000E+03	1.210056E-17	2.336328E-18
6.400000E+03	1.216897E-17	2.349117E-18
6.410000E+03	1.223926E-17	2.362263E-18
6.420000E+03	1.231127E-17	2.375734E-18
6.430000E+03	1.238501E-17	2.389530E-18
6.440000E+03	1.246048E-17	2.403653E-18
6.450000E+03	1.253767E-17	2.418101E-18
6.460000E+03	1.261679E-17	2.432914E-18
6.470000E+03	1.269806E-17	2.448133E-18
6.480000E+03	1.278148E-17	2.463759E-18
6.490000E+03	1.286690E-17	2.479761E-18
6.500000E+03	1.295472E-17	2.496218E-18
6.510000E+03	1.304499E-17	2.513138E-18
6.520000E+03	1.313753E-17	2.530487E-18
6.530000E+03	1.323259E-17	2.548311E-18
6.540000E+03	1.333020E-17	2.566619E-18
6.550000E+03	1.343019E-17	2.585374E-18
6.560000E+03	1.353259E-17	2.604583E-18
6.570000E+03	1.363787E-17	2.624337E-18
6.580000E+03	1.374542E-17	2.644517E-18
6.590000E+03	1.385572E-17	2.665215E-18
6.600000E+03	1.396881E-17	2.686440E-18
6.610000E+03	1.408426E-17	2.708108E-18
6.620000E+03	1.420259E-17	2.730318E-18
6.630000E+03	1.432336E-17	2.752985E-18
6.640000E+03	1.444707E-17	2.776206E-18
6.650000E+03	1.457329E-17	2.799898E-18
6.660000E+03	1.470229E-17	2.824111E-18
6.670000E+03	1.483412E-17	2.848853E-18
6.680000E+03	1.496855E-17	2.874083E-18
6.690000E+03	1.510560E-17	2.899804E-18
6.700000E+03	1.524557E-17	2.926072E-18
6.710000E+03	1.538825E-17	2.952845E-18
6.720000E+03	1.553364E-17	2.980125E-18
6.730000E+03	1.568178E-17	3.007918E-18
6.740000E+03	1.583270E-17	3.036230E-18
6.750000E+03	1.598642E-17	3.065064E-18
6.760000E+03	1.614298E-17	3.094428E-18
6.770000E+03	1.630210E-17	3.124266E-18
6.780000E+03	1.646411E-17	3.154643E-18
6.790000E+03	1.662902E-17	3.185560E-18
6.800000E+03	1.679657E-17	3.216966E-18
6.810000E+03	1.696707E-17	3.248921E-18
6.820000E+03	1.714024E-17	3.281370E-18
6.830000E+03	1.731609E-17	3.314314E-18
6.840000E+03	1.749463E-17	3.347757E-18
6.850000E+03	1.767588E-17	3.381700E-18
6.860000E+03	1.786018E-17	3.416207E-18
6.870000E+03	1.804688E-17	3.451157E-18
6.880000E+03	1.823633E-17	3.486613E-18
6.890000E+03	1.842851E-17	3.522572E-18
6.900000E+03	1.862311E-17	3.558975E-18
6.910000E+03	1.882046E-17	3.595884E-18
6.920000E+03	1.902056E-17	3.633299E-18
6.930000E+03	1.922308E-17	3.671155E-18
6.940000E+03	1.942798E-17	3.709446E-18
6.950000E+03	1.963564E-17	3.748243E-18
6.960000E+03	1.984569E-17	3.787474E-18
6.970000E+03	2.005809E-17	3.827134E-18
6.980000E+03	2.027284E-17	3.867221E-18
6.990000E+03	2.048993E-17	3.907732E-18
7.000000E+03	2.070894E-17	3.948587E-18
7.010000E+03	2.093064E-17	3.989933E-18
7.020000E+03	2.115421E-17	4.031613E-18
7.030000E+03	2.138004E-17	4.073700E-18
7.040000E+03	2.160768E-17	4.116109E-18
7.050000E+03	2.183708E-17	4.158832E-18
7.060000E+03	2.206866E-17	4.201944E-18
7.070000E+03	2.230193E-17	4.245355E-18
7.080000E+03	2.253641E-17	4.288974E-18
7.090000E+03	2.277297E-17	4.332962E-18
7.100000E+03	2.301110E-17	4.377226E-18
7.110000E+03	2.325029E-17	4.421667E-18
7.120000E+03	2.349097E-17	4.466368E-18
7.130000E+03	2.373260E-17	4.511223E-18
7.140000E+03	2.397560E-17	4.556315E-18
7.150000E+03	2.421945E-17	4.601541E-18
7.160000E+03	2.446457E-17	4.646985E-18
7.170000E+03	2.470990E-17	4.692443E-18
7.180000E+03	2.495587E-17	4.737996E-18
7.190000E+03	2.520292E-17	4.783731E-18
7.200000E+03	2.544996E-17	4.829436E-18
7.210000E+03	2.569687E-17	4.875093E-18
7.220000E+03	2.594414E-17	4.920791E-18
7.230000E+03	2.619167E-17	4.966513E-18
7.240000E+03	2.643883E-17	5.012139E-18
7.250000E+03	2.668609E-17	5.057759E-18
7.260000E+03	2.693280E-17	5.103250E-18
7.270000E+03	2.717886E-17	5.148590E-18
7.280000E+03	2.742476E-17	5.193874E-18
7.290000E+03	2.766981E-17	5.238974E-18
7.300000E+03	2.791454E-17	5.283985E-18
7.310000E+03	2.815822E-17	5.328774E-18
7.320000E+03	2.840078E-17	5.373323E-18
7.330000E+03	2.864336E-17	5.417854E-18
7.340000E+03	2.888464E-17	5.462112E-18
7.350000E+03	2.912582E-17	5.506325E-18
7.360000E+03	2.936617E-17	5.550358E-18
7.370000E+03	2.960633E-17	5.594329E-18
7.380000E+03	2.984690E-17	5.638353E-18
7.390000E+03	3.008720E-17	5.682301E-18
7.400000E+03	3.032857E-17	5.726428E-18
7.410000E+03	3.057106E-17	5.770739E-18
7.420000E+03	3.081539E-17	5.815372E-18
7.430000E+03	3.106162E-17	5.860340E-18
7.440000E+03	3.130983E-17	5.905656E-18
7.450000E+03	3.156081E-17	5.951470E-18
7.460000E+03	3.181322E-17	5.997527E-18
7.470000E+03	3.206711E-17	6.043836E-18
7.480000E+03	3.232177E-17	6.090267E-18
7.490000E+03	3.257805E-17	6.136975E-18
7.500000E+03	3.283522E-17	6.183826E-18
7.510000E+03	3.309255E-17	6.230683E-18
7.520000E+03	3.335008E-17	6.277550E-18
7.530000E+03	3.360782E-17	6.324431E-18
7.540000E+03	3.386497E-17	6.371176E-18
7.550000E+03	3.412233E-17	6.417936E-18
7.560000E+03	3.437828E-17	6.464405E-18
7.570000E+03	3.463443E-17	6.510885E-18
7.580000E+03	3.488991E-17	6.557216E-18
7.590000E+03	3.514468E-17	6.603390E-18
7.600000E+03	3.539784E-17	6.649236E-18
7.610000E+03	3.565016E-17	6.694900E-18
7.620000E+03	3.590155E-17	6.740365E-18
7.630000E+03	3.615191E-17	6.785613E-18
7.640000E+03	3.640023E-17	6.830454E-18
7.650000E+03	3.664724E-17	6.875027E-18
7.660000E+03	3.689186E-17	6.919130E-18
7.670000E+03	3.713576E-17	6.963074E-18
7.680000E+03	3.737595E-17	7.006301E-18
7.690000E+03	3.761500E-17	7.049291E-18
7.700000E+03	3.785172E-17	7.091825E-18
7.710000E+03	3.808492E-17	7.133678E-18
7.720000E+03	3.831528E-17	7.174977E-18
7.730000E+03	3.854247E-17	7.215664E-18
7.740000E+03	3.876622E-17	7.255687E-18
7.750000E+03	3.898622E-17	7.294988E-18
7.760000E+03	3.920313E-17	7.333693E-18
