#wls	flux	fluxerr
1.600000E+03	1.049882E-16	3.845301E-17
1.640000E+03	1.087481E-16	3.979861E-17
1.680000E+03	1.124423E-16	4.111723E-17
1.720000E+03	1.160218E-16	4.239101E-17
1.760000E+03	1.194784E-16	4.361684E-17
1.800000E+03	1.227552E-16	4.477411E-17
1.840000E+03	1.258149E-16	4.584923E-17
1.880000E+03	1.286380E-16	4.683527E-17
1.920000E+03	1.311593E-16	4.770868E-17
1.960000E+03	1.333445E-16	4.845716E-17
2.000000E+03	1.351372E-16	4.906059E-17
2.040000E+03	1.365022E-16	4.950650E-17
2.080000E+03	1.373677E-16	4.976930E-17
2.120000E+03	1.376784E-16	4.982955E-17
2.160000E+03	1.373792E-16	4.966786E-17
2.200000E+03	1.363867E-16	4.925487E-17
2.240000E+03	1.346329E-16	4.856685E-17
2.280000E+03	1.321057E-16	4.760037E-17
2.320000E+03	1.288403E-16	4.636916E-17
2.360000E+03	1.249541E-16	4.491641E-17
2.400000E+03	1.205445E-16	4.327797E-17
2.440000E+03	1.156976E-16	4.148554E-17
2.480000E+03	1.105052E-16	3.957271E-17
2.520000E+03	1.050242E-16	3.756042E-17
2.560000E+03	9.932212E-17	3.547334E-17
2.600000E+03	9.345765E-17	3.333289E-17
2.640000E+03	8.749377E-17	3.116191E-17
2.680000E+03	8.148387E-17	2.897970E-17
2.720000E+03	7.548325E-17	2.680615E-17
2.760000E+03	6.954526E-17	2.466034E-17
2.800000E+03	6.372103E-17	2.256045E-17
2.840000E+03	5.806036E-17	2.052409E-17
2.880000E+03	5.261253E-17	1.856855E-17
2.920000E+03	4.742252E-17	1.670949E-17
2.960000E+03	4.253046E-17	1.496075E-17
3.000000E+03	3.796771E-17	1.333298E-17
3.010000E+03	3.688219E-17	1.294620E-17
3.020000E+03	3.581800E-17	1.256719E-17
3.030000E+03	3.477677E-17	1.219654E-17
3.040000E+03	3.375771E-17	1.183396E-17
3.050000E+03	3.276149E-17	1.147967E-17
3.060000E+03	3.178873E-17	1.113388E-17
3.070000E+03	3.083793E-17	1.079606E-17
3.080000E+03	2.991097E-17	1.046685E-17
3.090000E+03	2.900641E-17	1.014575E-17
3.100000E+03	2.812529E-17	9.833111E-18
3.110000E+03	2.726686E-17	9.528658E-18
3.120000E+03	2.643096E-17	9.232328E-18
3.130000E+03	2.561848E-17	8.944421E-18
3.140000E+03	2.482816E-17	8.664492E-18
3.150000E+03	2.406126E-17	8.392969E-18
3.160000E+03	2.331616E-17	8.129278E-18
3.170000E+03	2.259396E-17	7.873793E-18
3.180000E+03	2.189358E-17	7.626128E-18
3.190000E+03	2.121557E-17	7.386463E-18
3.200000E+03	2.055923E-17	7.154550E-18
3.210000E+03	1.992468E-17	6.930416E-18
3.220000E+03	1.931155E-17	6.713929E-18
3.230000E+03	1.871955E-17	6.504971E-18
3.240000E+03	1.814801E-17	6.303306E-18
3.250000E+03	1.759719E-17	6.109017E-18
3.260000E+03	1.706644E-17	5.921860E-18
3.270000E+03	1.655560E-17	5.741781E-18
3.280000E+03	1.606403E-17	5.568543E-18
3.290000E+03	1.559130E-17	5.401987E-18
3.300000E+03	1.513724E-17	5.242049E-18
3.310000E+03	1.470115E-17	5.088477E-18
3.320000E+03	1.428281E-17	4.941189E-18
3.330000E+03	1.388176E-17	4.800012E-18
3.340000E+03	1.349712E-17	4.664637E-18
3.350000E+03	1.312884E-17	4.535039E-18
3.360000E+03	1.277626E-17	4.410981E-18
3.370000E+03	1.243891E-17	4.292297E-18
3.380000E+03	1.211634E-17	4.178820E-18
3.390000E+03	1.180779E-17	4.070283E-18
3.400000E+03	1.151314E-17	3.966635E-18
3.410000E+03	1.123181E-17	3.867672E-18
3.420000E+03	1.096323E-17	3.773191E-18
3.430000E+03	1.070699E-17	3.683046E-18
3.440000E+03	1.046272E-17	3.597101E-18
3.450000E+03	1.022977E-17	3.515127E-18
3.460000E+03	1.000791E-17	3.437042E-18
3.470000E+03	9.796572E-18	3.362640E-18
3.480000E+03	9.595419E-18	3.291806E-18
3.490000E+03	9.404034E-18	3.224388E-18
3.500000E+03	9.222019E-18	3.160246E-18
3.510000E+03	9.048997E-18	3.099245E-18
3.520000E+03	8.884611E-18	3.041260E-18
3.530000E+03	8.728429E-18	2.986136E-18
3.540000E+03	8.580046E-18	2.933733E-18
3.550000E+03	8.439177E-18	2.883947E-18
3.560000E+03	8.305460E-18	2.836652E-18
3.570000E+03	8.178643E-18	2.791757E-18
3.580000E+03	8.058323E-18	2.749122E-18
3.590000E+03	7.944281E-18	2.708668E-18
3.600000E+03	7.836233E-18	2.670295E-18
3.610000E+03	7.734065E-18	2.633961E-18
3.620000E+03	7.637437E-18	2.599547E-18
3.630000E+03	7.546177E-18	2.566992E-18
3.640000E+03	7.459907E-18	2.536163E-18
3.650000E+03	7.378480E-18	2.507009E-18
3.660000E+03	7.301691E-18	2.479457E-18
3.670000E+03	7.229338E-18	2.453435E-18
3.680000E+03	7.161299E-18	2.428900E-18
3.690000E+03	7.097453E-18	2.405809E-18
3.700000E+03	7.037616E-18	2.384096E-18
3.710000E+03	6.981741E-18	2.363744E-18
3.720000E+03	6.929650E-18	2.344690E-18
3.730000E+03	6.881357E-18	2.326936E-18
3.740000E+03	6.836751E-18	2.310442E-18
3.750000E+03	6.795719E-18	2.295170E-18
3.760000E+03	6.758214E-18	2.281100E-18
3.770000E+03	6.724242E-18	2.268232E-18
3.780000E+03	6.693693E-18	2.256527E-18
3.790000E+03	6.666574E-18	2.245986E-18
3.800000E+03	6.642775E-18	2.236569E-18
3.810000E+03	6.622246E-18	2.228257E-18
3.820000E+03	6.604992E-18	2.221050E-18
3.830000E+03	6.591016E-18	2.214948E-18
3.840000E+03	6.580213E-18	2.209912E-18
3.850000E+03	6.572641E-18	2.205961E-18
3.860000E+03	6.568141E-18	2.203038E-18
3.870000E+03	6.566825E-18	2.201180E-18
3.880000E+03	6.568534E-18	2.200331E-18
3.890000E+03	6.573379E-18	2.200527E-18
3.900000E+03	6.581257E-18	2.201730E-18
3.910000E+03	6.592167E-18	2.203939E-18
3.920000E+03	6.606062E-18	2.207135E-18
3.930000E+03	6.622941E-18	2.211317E-18
3.940000E+03	6.642752E-18	2.216466E-18
3.950000E+03	6.665552E-18	2.222597E-18
3.960000E+03	6.691235E-18	2.229674E-18
3.970000E+03	6.719802E-18	2.237696E-18
3.980000E+03	6.751201E-18	2.246643E-18
3.990000E+03	6.785487E-18	2.256531E-18
4.000000E+03	6.822608E-18	2.267341E-18
4.010000E+03	6.862515E-18	2.279054E-18
4.020000E+03	6.905151E-18	2.291651E-18
4.030000E+03	6.950578E-18	2.305150E-18
4.040000E+03	6.998690E-18	2.319513E-18
4.050000E+03	7.049546E-18	2.334758E-18
4.060000E+03	7.103043E-18	2.350849E-18
4.070000E+03	7.159187E-18	2.367786E-18
4.080000E+03	7.217987E-18	2.385570E-18
4.090000E+03	7.279395E-18	2.404184E-18
4.100000E+03	7.343368E-18	2.423611E-18
4.110000E+03	7.409856E-18	2.443834E-18
4.120000E+03	7.478933E-18	2.464874E-18
4.130000E+03	7.550495E-18	2.486695E-18
4.140000E+03	7.624560E-18	2.509301E-18
4.150000E+03	7.701023E-18	2.532657E-18
4.160000E+03	7.779902E-18	2.556766E-18
4.170000E+03	7.861214E-18	2.581632E-18
4.180000E+03	7.944857E-18	2.607219E-18
4.190000E+03	8.030852E-18	2.633533E-18
4.200000E+03	8.119091E-18	2.660537E-18
4.210000E+03	8.209598E-18	2.688236E-18
4.220000E+03	8.302265E-18	2.716593E-18
4.230000E+03	8.397113E-18	2.745615E-18
4.240000E+03	8.494030E-18	2.775262E-18
4.250000E+03	8.592974E-18	2.805519E-18
4.260000E+03	8.693825E-18	2.836346E-18
4.270000E+03	8.796601E-18	2.867747E-18
4.280000E+03	8.901183E-18	2.899680E-18
4.290000E+03	9.007510E-18	2.932126E-18
4.300000E+03	9.115453E-18	2.965041E-18
4.310000E+03	9.224874E-18	2.998379E-18
4.320000E+03	9.335699E-18	3.032114E-18
4.330000E+03	9.447854E-18	3.066220E-18
4.340000E+03	9.561182E-18	3.100648E-18
4.350000E+03	9.675594E-18	3.135366E-18
4.360000E+03	9.790920E-18	3.170318E-18
4.370000E+03	9.907138E-18	3.205496E-18
4.380000E+03	1.002414E-17	3.240867E-18
4.390000E+03	1.014208E-17	3.276474E-18
4.400000E+03	1.026083E-17	3.312283E-18
4.410000E+03	1.038047E-17	3.348312E-18
4.420000E+03	1.050097E-17	3.384554E-18
4.430000E+03	1.062248E-17	3.421056E-18
4.440000E+03	1.074490E-17	3.457785E-18
4.450000E+03	1.086822E-17	3.494737E-18
4.460000E+03	1.099251E-17	3.531934E-18
4.470000E+03	1.111778E-17	3.569378E-18
4.480000E+03	1.124401E-17	3.607061E-18
4.490000E+03	1.137111E-17	3.644955E-18
4.500000E+03	1.149917E-17	3.683088E-18
4.510000E+03	1.162811E-17	3.721429E-18
4.520000E+03	1.175793E-17	3.759986E-18
4.530000E+03	1.188863E-17	3.798751E-18
4.540000E+03	1.202003E-17	3.837668E-18
4.550000E+03	1.215223E-17	3.876769E-18
4.560000E+03	1.228515E-17	3.916026E-18
4.570000E+03	1.241882E-17	3.955449E-18
4.580000E+03	1.255303E-17	3.994971E-18
4.590000E+03	1.268791E-17	4.034634E-18
4.600000E+03	1.282331E-17	4.074387E-18
4.610000E+03	1.295936E-17	4.114269E-18
4.620000E+03	1.309587E-17	4.154227E-18
4.630000E+03	1.323291E-17	4.194272E-18
4.640000E+03	1.337040E-17	4.234388E-18
4.650000E+03	1.350853E-17	4.274630E-18
4.660000E+03	1.364716E-17	4.314952E-18
4.670000E+03	1.378647E-17	4.355412E-18
4.680000E+03	1.392644E-17	4.396004E-18
4.690000E+03	1.406703E-17	4.436715E-18
4.700000E+03	1.420850E-17	4.477626E-18
4.710000E+03	1.435071E-17	4.518689E-18
4.720000E+03	1.449379E-17	4.559949E-18
4.730000E+03	1.463759E-17	4.601354E-18
4.740000E+03	1.478227E-17	4.642955E-18
4.750000E+03	1.492755E-17	4.684666E-18
4.760000E+03	1.507360E-17	4.726536E-18
4.770000E+03	1.522027E-17	4.768520E-18
4.780000E+03	1.536772E-17	4.810667E-18
4.790000E+03	1.551582E-17	4.852937E-18
4.800000E+03	1.566458E-17	4.895330E-18
4.810000E+03	1.581404E-17	4.937857E-18
4.820000E+03	1.596417E-17	4.980513E-18
4.830000E+03	1.611503E-17	5.023310E-18
4.840000E+03	1.626643E-17	5.066193E-18
4.850000E+03	1.641857E-17	5.109223E-18
4.860000E+03	1.657143E-17	5.152392E-18
4.870000E+03	1.672487E-17	5.195657E-18
4.880000E+03	1.687889E-17	5.239018E-18
4.890000E+03	1.703366E-17	5.282525E-18
4.900000E+03	1.718883E-17	5.326070E-18
4.910000E+03	1.734473E-17	5.369756E-18
4.920000E+03	1.750118E-17	5.413527E-18
4.930000E+03	1.765797E-17	5.457317E-18
4.940000E+03	1.781525E-17	5.501170E-18
4.950000E+03	1.797296E-17	5.545070E-18
4.960000E+03	1.813087E-17	5.588946E-18
4.970000E+03	1.828909E-17	5.632831E-18
4.980000E+03	1.844720E-17	5.676595E-18
4.990000E+03	1.860543E-17	5.720310E-18
5.000000E+03	1.876352E-17	5.763893E-18
5.010000E+03	1.892114E-17	5.807249E-18
5.020000E+03	1.907833E-17	5.850386E-18
5.030000E+03	1.923476E-17	5.893207E-18
5.040000E+03	1.939025E-17	5.935653E-18
5.050000E+03	1.954461E-17	5.977671E-18
5.060000E+03	1.969764E-17	6.019199E-18
5.070000E+03	1.984892E-17	6.060110E-18
5.080000E+03	1.999843E-17	6.100399E-18
5.090000E+03	2.014570E-17	6.139928E-18
5.100000E+03	2.029049E-17	6.178624E-18
5.110000E+03	2.043234E-17	6.216348E-18
5.120000E+03	2.057118E-17	6.253079E-18
5.130000E+03	2.070629E-17	6.288609E-18
5.140000E+03	2.083781E-17	6.322978E-18
5.150000E+03	2.096505E-17	6.355977E-18
5.160000E+03	2.108790E-17	6.387585E-18
5.170000E+03	2.120587E-17	6.417652E-18
5.180000E+03	2.131845E-17	6.446028E-18
5.190000E+03	2.142551E-17	6.472682E-18
5.200000E+03	2.152658E-17	6.497473E-18
5.210000E+03	2.162133E-17	6.520307E-18
5.220000E+03	2.170944E-17	6.541097E-18
5.230000E+03	2.179041E-17	6.559693E-18
5.240000E+03	2.186390E-17	6.576001E-18
5.250000E+03	2.192942E-17	6.589882E-18
5.260000E+03	2.198686E-17	6.601307E-18
5.270000E+03	2.203572E-17	6.610135E-18
5.280000E+03	2.207572E-17	6.616288E-18
5.290000E+03	2.210656E-17	6.619685E-18
5.300000E+03	2.212780E-17	6.620199E-18
5.310000E+03	2.213919E-17	6.617767E-18
5.320000E+03	2.214052E-17	6.612334E-18
5.330000E+03	2.213162E-17	6.603855E-18
5.340000E+03	2.211215E-17	6.592238E-18
5.350000E+03	2.208222E-17	6.577525E-18
5.360000E+03	2.204179E-17	6.559713E-18
5.370000E+03	2.199087E-17	6.538814E-18
5.380000E+03	2.192934E-17	6.514799E-18
5.390000E+03	2.185774E-17	6.487841E-18
5.400000E+03	2.177611E-17	6.457955E-18
5.410000E+03	2.168513E-17	6.425356E-18
5.420000E+03	2.158498E-17	6.390098E-18
5.430000E+03	2.147628E-17	6.352379E-18
5.440000E+03	2.135956E-17	6.312358E-18
5.450000E+03	2.123585E-17	6.270347E-18
5.460000E+03	2.110556E-17	6.226471E-18
5.470000E+03	2.096922E-17	6.180896E-18
5.480000E+03	2.082720E-17	6.133730E-18
5.490000E+03	2.068037E-17	6.085235E-18
5.500000E+03	2.052917E-17	6.035550E-18
5.510000E+03	2.037440E-17	5.984904E-18
5.520000E+03	2.021679E-17	5.933521E-18
5.530000E+03	2.005717E-17	5.881645E-18
5.540000E+03	1.989635E-17	5.829516E-18
5.550000E+03	1.973536E-17	5.777432E-18
5.560000E+03	1.957501E-17	5.725637E-18
5.570000E+03	1.941650E-17	5.674476E-18
5.580000E+03	1.926041E-17	5.624117E-18
5.590000E+03	1.910805E-17	5.574941E-18
5.600000E+03	1.895991E-17	5.527092E-18
5.610000E+03	1.881704E-17	5.480869E-18
5.620000E+03	1.868037E-17	5.436539E-18
5.630000E+03	1.855022E-17	5.394193E-18
5.640000E+03	1.842781E-17	5.354180E-18
5.650000E+03	1.831351E-17	5.316599E-18
5.660000E+03	1.820761E-17	5.281533E-18
5.670000E+03	1.811111E-17	5.249261E-18
5.680000E+03	1.802399E-17	5.219776E-18
5.690000E+03	1.794673E-17	5.193206E-18
5.700000E+03	1.787975E-17	5.169668E-18
5.710000E+03	1.782326E-17	5.149217E-18
5.720000E+03	1.777739E-17	5.131882E-18
5.730000E+03	1.774226E-17	5.117690E-18
5.740000E+03	1.771816E-17	5.106717E-18
5.750000E+03	1.770531E-17	5.099023E-18
5.760000E+03	1.770344E-17	5.094520E-18
5.770000E+03	1.771313E-17	5.093370E-18
5.780000E+03	1.773406E-17	5.095470E-18
5.790000E+03	1.776667E-17	5.100946E-18
5.800000E+03	1.781085E-17	5.109753E-18
5.810000E+03	1.786682E-17	5.121952E-18
5.820000E+03	1.793469E-17	5.137564E-18
5.830000E+03	1.801473E-17	5.156664E-18
5.840000E+03	1.810684E-17	5.179214E-18
5.850000E+03	1.821113E-17	5.205237E-18
5.860000E+03	1.832787E-17	5.234809E-18
5.870000E+03	1.845738E-17	5.268009E-18
5.880000E+03	1.859935E-17	5.304746E-18
5.890000E+03	1.875429E-17	5.345158E-18
5.900000E+03	1.892206E-17	5.389199E-18
5.910000E+03	1.910295E-17	5.436946E-18
5.920000E+03	1.929702E-17	5.488412E-18
5.930000E+03	1.950412E-17	5.543542E-18
5.940000E+03	1.972444E-17	5.602393E-18
5.950000E+03	1.995802E-17	5.664963E-18
5.960000E+03	2.020455E-17	5.731165E-18
5.970000E+03	2.046445E-17	5.801109E-18
5.980000E+03	2.073713E-17	5.874626E-18
5.990000E+03	2.102268E-17	5.951733E-18
6.000000E+03	2.132090E-17	6.032375E-18
6.010000E+03	2.163126E-17	6.116397E-18
6.020000E+03	2.195374E-17	6.203787E-18
6.030000E+03	2.228745E-17	6.294292E-18
6.040000E+03	2.263247E-17	6.387931E-18
6.050000E+03	2.298775E-17	6.484411E-18
6.060000E+03	2.335300E-17	6.583643E-18
6.070000E+03	2.372731E-17	6.685371E-18
6.080000E+03	2.410993E-17	6.789386E-18
6.090000E+03	2.449978E-17	6.895380E-18
6.100000E+03	2.489565E-17	7.003018E-18
6.110000E+03	2.529690E-17	7.112118E-18
6.120000E+03	2.570154E-17	7.222124E-18
6.130000E+03	2.610874E-17	7.332808E-18
6.140000E+03	2.651670E-17	7.443664E-18
6.150000E+03	2.692415E-17	7.554345E-18
6.160000E+03	2.732848E-17	7.664122E-18
6.170000E+03	2.772868E-17	7.772718E-18
6.180000E+03	2.812238E-17	7.879475E-18
6.190000E+03	2.850791E-17	7.983933E-18
6.200000E+03	2.888338E-17	8.085570E-18
6.210000E+03	2.924860E-17	8.184344E-18
6.220000E+03	2.960395E-17	8.280367E-18
6.230000E+03	2.994997E-17	8.373801E-18
6.240000E+03	3.028736E-17	8.464846E-18
6.250000E+03	3.061577E-17	8.553418E-18
6.260000E+03	3.093698E-17	8.640012E-18
6.270000E+03	3.125043E-17	8.724489E-18
6.280000E+03	3.155729E-17	8.807174E-18
6.290000E+03	3.185839E-17	8.888313E-18
6.300000E+03	3.215338E-17	8.967806E-18
6.310000E+03	3.244320E-17	9.045924E-18
6.320000E+03	3.272842E-17	9.122831E-18
6.330000E+03	3.300969E-17	9.198702E-18
6.340000E+03	3.328672E-17	9.273469E-18
6.350000E+03	3.356019E-17	9.347319E-18
6.360000E+03	3.383032E-17	9.420316E-18
6.370000E+03	3.409735E-17	9.492528E-18
6.380000E+03	3.436101E-17	9.563884E-18
6.390000E+03	3.462104E-17	9.634313E-18
6.400000E+03	3.487717E-17	9.703738E-18
6.410000E+03	3.512958E-17	9.772217E-18
6.420000E+03	3.537796E-17	9.839664E-18
6.430000E+03	3.562094E-17	9.905694E-18
6.440000E+03	3.586020E-17	9.970782E-18
6.450000E+03	3.609594E-17	1.003498E-17
6.460000E+03	3.632887E-17	1.009849E-17
6.470000E+03	3.656026E-17	1.016167E-17
6.480000E+03	3.678981E-17	1.022443E-17
6.490000E+03	3.701884E-17	1.028714E-17
6.500000E+03	3.724759E-17	1.034987E-17
6.510000E+03	3.747687E-17	1.041285E-17
6.520000E+03	3.770577E-17	1.047581E-17
6.530000E+03	3.793626E-17	1.053932E-17
6.540000E+03	3.816740E-17	1.060310E-17
6.550000E+03	3.839998E-17	1.066738E-17
6.560000E+03	3.863423E-17	1.073223E-17
6.570000E+03	3.886974E-17	1.079752E-17
6.580000E+03	3.910733E-17	1.086350E-17
6.590000E+03	3.934717E-17	1.093020E-17
6.600000E+03	3.958882E-17	1.099750E-17
6.610000E+03	3.983244E-17	1.106545E-17
6.620000E+03	4.007815E-17	1.113409E-17
6.630000E+03	4.032678E-17	1.120365E-17
6.640000E+03	4.057713E-17	1.127378E-17
6.650000E+03	4.082998E-17	1.134471E-17
6.660000E+03	4.108541E-17	1.141647E-17
6.670000E+03	4.134283E-17	1.148889E-17
6.680000E+03	4.160301E-17	1.156217E-17
6.690000E+03	4.186533E-17	1.163616E-17
6.700000E+03	4.213054E-17	1.171107E-17
6.710000E+03	4.239725E-17	1.178649E-17
6.720000E+03	4.266621E-17	1.186265E-17
6.730000E+03	4.293818E-17	1.193977E-17
6.740000E+03	4.321171E-17	1.201742E-17
6.750000E+03	4.348757E-17	1.209583E-17
6.760000E+03	4.376501E-17	1.217480E-17
6.770000E+03	4.404480E-17	1.225453E-17
6.780000E+03	4.432617E-17	1.233481E-17
6.790000E+03	4.460910E-17	1.241565E-17
6.800000E+03	4.489441E-17	1.249726E-17
6.810000E+03	4.518048E-17	1.257919E-17
6.820000E+03	4.546889E-17	1.266190E-17
6.830000E+03	4.575797E-17	1.274491E-17
6.840000E+03	4.604935E-17	1.282868E-17
6.850000E+03	4.634130E-17	1.291272E-17
6.860000E+03	4.663372E-17	1.299702E-17
6.870000E+03	4.692738E-17	1.308178E-17
6.880000E+03	4.722217E-17	1.316698E-17
6.890000E+03	4.751621E-17	1.325208E-17
6.900000E+03	4.781113E-17	1.333756E-17
6.910000E+03	4.810584E-17	1.342310E-17
6.920000E+03	4.840111E-17	1.350892E-17
6.930000E+03	4.869491E-17	1.359445E-17
6.940000E+03	4.898795E-17	1.367989E-17
6.950000E+03	4.927998E-17	1.376517E-17
6.960000E+03	4.956989E-17	1.384999E-17
6.970000E+03	4.985836E-17	1.393453E-17
6.980000E+03	5.014518E-17	1.401873E-17
6.990000E+03	5.042917E-17	1.410226E-17
7.000000E+03	5.071010E-17	1.418507E-17
7.010000E+03	5.098776E-17	1.426708E-17
7.020000E+03	5.126293E-17	1.434852E-17
7.030000E+03	5.153343E-17	1.442878E-17
7.040000E+03	5.180113E-17	1.450838E-17
7.050000E+03	5.206383E-17	1.458670E-17
7.060000E+03	5.232241E-17	1.466399E-17
7.070000E+03	5.257574E-17	1.473993E-17
7.080000E+03	5.282475E-17	1.481479E-17
7.090000E+03	5.306939E-17	1.488854E-17
7.100000E+03	5.330856E-17	1.496087E-17
7.110000E+03	5.354114E-17	1.503148E-17
7.120000E+03	5.376928E-17	1.510096E-17
7.130000E+03	5.399192E-17	1.516901E-17
7.140000E+03	5.420906E-17	1.523564E-17
7.150000E+03	5.442080E-17	1.530087E-17
7.160000E+03	5.462606E-17	1.536439E-17
7.170000E+03	5.482604E-17	1.542654E-17
7.180000E+03	5.501970E-17	1.548702E-17
7.190000E+03	5.520712E-17	1.554587E-17
7.200000E+03	5.538955E-17	1.560342E-17
7.210000E+03	5.556595E-17	1.565938E-17
7.220000E+03	5.573758E-17	1.571410E-17
7.230000E+03	5.590221E-17	1.576696E-17
7.240000E+03	5.606105E-17	1.581830E-17
7.250000E+03	5.621421E-17	1.586814E-17
7.260000E+03	5.636172E-17	1.591649E-17
7.270000E+03	5.650360E-17	1.596336E-17
7.280000E+03	5.663990E-17	1.600874E-17
7.290000E+03	5.676938E-17	1.605231E-17
7.300000E+03	5.689321E-17	1.609438E-17
7.310000E+03	5.701138E-17	1.613494E-17
7.320000E+03	5.712383E-17	1.617398E-17
7.330000E+03	5.722929E-17	1.621114E-17
7.340000E+03	5.732891E-17	1.624674E-17
7.350000E+03	5.742393E-17	1.628113E-17
7.360000E+03	5.751178E-17	1.631358E-17
7.370000E+03	5.759367E-17	1.634443E-17
7.380000E+03	5.766960E-17	1.637367E-17
7.390000E+03	5.774087E-17	1.640168E-17
7.400000E+03	5.780622E-17	1.642810E-17
7.410000E+03	5.786700E-17	1.645330E-17
7.420000E+03	5.792462E-17	1.647768E-17
7.430000E+03	5.797789E-17	1.650092E-17
7.440000E+03	5.802960E-17	1.652379E-17
7.450000E+03	5.807731E-17	1.654560E-17
7.460000E+03	5.812255E-17	1.656679E-17
7.470000E+03	5.816420E-17	1.658704E-17
7.480000E+03	5.820382E-17	1.660679E-17
7.490000E+03	5.823896E-17	1.662534E-17
7.500000E+03	5.827118E-17	1.664314E-17
7.510000E+03	5.830072E-17	1.666024E-17
7.520000E+03	5.832640E-17	1.667632E-17
7.530000E+03	5.835120E-17	1.669222E-17
7.540000E+03	5.837257E-17	1.670722E-17
7.550000E+03	5.839208E-17	1.672175E-17
7.560000E+03	5.840850E-17	1.673548E-17
7.570000E+03	5.842340E-17	1.674883E-17
7.580000E+03	5.843550E-17	1.676144E-17
7.590000E+03	5.844634E-17	1.677376E-17
7.600000E+03	5.845461E-17	1.678540E-17
7.610000E+03	5.846040E-17	1.679640E-17
7.620000E+03	5.846515E-17	1.680715E-17
7.630000E+03	5.846752E-17	1.681727E-17
7.640000E+03	5.846749E-17	1.682676E-17
7.650000E+03	5.846646E-17	1.683601E-17
7.660000E+03	5.846299E-17	1.684461E-17
7.670000E+03	5.845842E-17	1.685294E-17
7.680000E+03	5.844979E-17	1.686015E-17
7.690000E+03	5.843988E-17	1.686704E-17
7.700000E+03	5.842852E-17	1.687355E-17
7.710000E+03	5.841416E-17	1.687924E-17
7.720000E+03	5.839805E-17	1.688446E-17
7.730000E+03	5.837857E-17	1.688874E-17
7.740000E+03	5.835549E-17	1.689202E-17
7.750000E+03	5.833008E-17	1.689466E-17
7.760000E+03	5.830212E-17	1.689659E-17
