#wls	flux	fluxerr
1.600000E+03	2.368374E-16	7.704132E-17
1.640000E+03	2.438098E-16	7.918047E-17
1.680000E+03	2.506033E-16	8.124959E-17
1.720000E+03	2.571939E-16	8.324068E-17
1.760000E+03	2.634771E-16	8.511990E-17
1.800000E+03	2.694135E-16	8.687451E-17
1.840000E+03	2.749083E-16	8.847422E-17
1.880000E+03	2.799076E-16	8.990204E-17
1.920000E+03	2.843275E-16	9.113161E-17
1.960000E+03	2.880795E-16	9.213539E-17
2.000000E+03	2.910309E-16	9.287200E-17
2.040000E+03	2.930948E-16	9.331516E-17
2.080000E+03	2.941672E-16	9.343356E-17
2.120000E+03	2.940979E-16	9.318162E-17
2.160000E+03	2.927595E-16	9.252159E-17
2.200000E+03	2.900014E-16	9.140911E-17
2.240000E+03	2.857005E-16	8.980906E-17
2.280000E+03	2.798436E-16	8.772143E-17
2.320000E+03	2.724824E-16	8.516686E-17
2.360000E+03	2.638270E-16	8.221538E-17
2.400000E+03	2.540644E-16	7.892923E-17
2.440000E+03	2.433619E-16	7.536412E-17
2.480000E+03	2.319018E-16	7.157991E-17
2.520000E+03	2.198270E-16	6.762368E-17
2.560000E+03	2.072627E-16	6.353669E-17
2.600000E+03	1.943618E-16	5.936821E-17
2.640000E+03	1.812388E-16	5.515528E-17
2.680000E+03	1.680292E-16	5.094076E-17
2.720000E+03	1.548481E-16	4.676082E-17
2.760000E+03	1.418316E-16	4.265752E-17
2.800000E+03	1.290966E-16	3.866629E-17
2.840000E+03	1.167661E-16	3.482398E-17
2.880000E+03	1.049571E-16	3.116483E-17
2.920000E+03	9.377576E-17	2.771926E-17
2.960000E+03	8.331342E-17	2.451263E-17
3.000000E+03	7.364038E-17	2.156353E-17
3.010000E+03	7.135067E-17	2.086775E-17
3.020000E+03	6.911440E-17	2.018906E-17
3.030000E+03	6.693004E-17	1.952699E-17
3.040000E+03	6.480053E-17	1.888235E-17
3.050000E+03	6.272418E-17	1.825459E-17
3.060000E+03	6.070088E-17	1.764363E-17
3.070000E+03	5.873040E-17	1.704938E-17
3.080000E+03	5.681486E-17	1.647239E-17
3.090000E+03	5.495143E-17	1.591179E-17
3.100000E+03	5.314197E-17	1.536808E-17
3.110000E+03	5.138483E-17	1.484073E-17
3.120000E+03	4.968052E-17	1.432983E-17
3.130000E+03	4.802841E-17	1.383516E-17
3.140000E+03	4.642788E-17	1.335649E-17
3.150000E+03	4.487832E-17	1.289360E-17
3.160000E+03	4.337986E-17	1.244646E-17
3.170000E+03	4.193096E-17	1.201460E-17
3.180000E+03	4.053164E-17	1.159797E-17
3.190000E+03	3.918105E-17	1.119627E-17
3.200000E+03	3.787831E-17	1.080920E-17
3.210000E+03	3.662314E-17	1.043664E-17
3.220000E+03	3.541332E-17	1.007791E-17
3.230000E+03	3.424970E-17	9.733193E-18
3.240000E+03	3.312949E-17	9.401659E-18
3.250000E+03	3.205332E-17	9.083441E-18
3.260000E+03	3.101905E-17	8.777881E-18
3.270000E+03	3.002610E-17	8.484776E-18
3.280000E+03	2.907336E-17	8.203767E-18
3.290000E+03	2.815930E-17	7.934375E-18
3.300000E+03	2.728366E-17	7.676492E-18
3.310000E+03	2.644448E-17	7.429521E-18
3.320000E+03	2.564071E-17	7.193127E-18
3.330000E+03	2.487201E-17	6.967175E-18
3.340000E+03	2.413653E-17	6.751111E-18
3.350000E+03	2.343325E-17	6.544611E-18
3.360000E+03	2.276112E-17	6.347345E-18
3.370000E+03	2.211945E-17	6.159086E-18
3.380000E+03	2.150659E-17	5.979341E-18
3.390000E+03	2.092159E-17	5.807814E-18
3.400000E+03	2.036378E-17	5.644287E-18
3.410000E+03	1.983196E-17	5.488393E-18
3.420000E+03	1.932519E-17	5.339844E-18
3.430000E+03	1.884210E-17	5.198232E-18
3.440000E+03	1.838211E-17	5.063370E-18
3.450000E+03	1.794440E-17	4.935006E-18
3.460000E+03	1.752772E-17	4.812769E-18
3.470000E+03	1.713136E-17	4.696437E-18
3.480000E+03	1.675441E-17	4.585737E-18
3.490000E+03	1.639639E-17	4.480517E-18
3.500000E+03	1.605609E-17	4.380423E-18
3.510000E+03	1.573311E-17	4.285323E-18
3.520000E+03	1.542653E-17	4.194947E-18
3.530000E+03	1.513564E-17	4.109082E-18
3.540000E+03	1.485982E-17	4.027538E-18
3.550000E+03	1.459827E-17	3.950082E-18
3.560000E+03	1.435057E-17	3.876583E-18
3.570000E+03	1.411588E-17	3.806793E-18
3.580000E+03	1.389368E-17	3.740561E-18
3.590000E+03	1.368363E-17	3.677779E-18
3.600000E+03	1.348514E-17	3.618269E-18
3.610000E+03	1.329776E-17	3.561900E-18
3.620000E+03	1.312094E-17	3.508512E-18
3.630000E+03	1.295418E-17	3.457951E-18
3.640000E+03	1.279712E-17	3.410115E-18
3.650000E+03	1.264918E-17	3.364833E-18
3.660000E+03	1.251016E-17	3.322042E-18
3.670000E+03	1.237953E-17	3.281592E-18
3.680000E+03	1.225704E-17	3.243399E-18
3.690000E+03	1.214251E-17	3.207413E-18
3.700000E+03	1.203549E-17	3.173500E-18
3.710000E+03	1.193574E-17	3.141586E-18
3.720000E+03	1.184324E-17	3.111661E-18
3.730000E+03	1.175767E-17	3.083627E-18
3.740000E+03	1.167879E-17	3.057417E-18
3.750000E+03	1.160662E-17	3.033019E-18
3.760000E+03	1.154079E-17	3.010336E-18
3.770000E+03	1.148122E-17	2.989335E-18
3.780000E+03	1.142788E-17	2.969998E-18
3.790000E+03	1.138056E-17	2.952265E-18
3.800000E+03	1.133913E-17	2.936094E-18
3.810000E+03	1.130348E-17	2.921448E-18
3.820000E+03	1.127351E-17	2.908292E-18
3.830000E+03	1.124919E-17	2.896613E-18
3.840000E+03	1.123033E-17	2.886353E-18
3.850000E+03	1.121692E-17	2.877501E-18
3.860000E+03	1.120895E-17	2.870049E-18
3.870000E+03	1.120621E-17	2.863937E-18
3.880000E+03	1.120863E-17	2.859137E-18
3.890000E+03	1.121628E-17	2.855661E-18
3.900000E+03	1.122906E-17	2.853476E-18
3.910000E+03	1.124679E-17	2.852529E-18
3.920000E+03	1.126953E-17	2.852832E-18
3.930000E+03	1.129729E-17	2.854376E-18
3.940000E+03	1.132977E-17	2.857080E-18
3.950000E+03	1.136705E-17	2.860958E-18
3.960000E+03	1.140908E-17	2.865994E-18
3.970000E+03	1.145577E-17	2.872154E-18
3.980000E+03	1.150688E-17	2.879374E-18
3.990000E+03	1.156258E-17	2.887690E-18
4.000000E+03	1.162262E-17	2.897032E-18
4.010000E+03	1.168686E-17	2.907365E-18
4.020000E+03	1.175535E-17	2.918691E-18
4.030000E+03	1.182786E-17	2.930947E-18
4.040000E+03	1.190441E-17	2.944136E-18
4.050000E+03	1.198467E-17	2.958167E-18
4.060000E+03	1.206877E-17	2.973072E-18
4.070000E+03	1.215647E-17	2.988787E-18
4.080000E+03	1.224762E-17	3.005266E-18
4.090000E+03	1.234226E-17	3.022518E-18
4.100000E+03	1.244006E-17	3.040458E-18
4.110000E+03	1.254117E-17	3.059115E-18
4.120000E+03	1.264523E-17	3.078406E-18
4.130000E+03	1.275222E-17	3.098314E-18
4.140000E+03	1.286210E-17	3.118831E-18
4.150000E+03	1.297464E-17	3.139896E-18
4.160000E+03	1.308979E-17	3.161495E-18
4.170000E+03	1.320745E-17	3.183600E-18
4.180000E+03	1.332735E-17	3.206147E-18
4.190000E+03	1.344961E-17	3.229160E-18
4.200000E+03	1.357389E-17	3.252555E-18
4.210000E+03	1.370027E-17	3.276351E-18
4.220000E+03	1.382842E-17	3.300466E-18
4.230000E+03	1.395832E-17	3.324896E-18
4.240000E+03	1.408986E-17	3.349612E-18
4.250000E+03	1.422267E-17	3.374527E-18
4.260000E+03	1.435686E-17	3.399666E-18
4.270000E+03	1.449217E-17	3.424970E-18
4.280000E+03	1.462838E-17	3.450380E-18
4.290000E+03	1.476521E-17	3.475837E-18
4.300000E+03	1.490266E-17	3.501340E-18
4.310000E+03	1.504061E-17	3.526860E-18
4.320000E+03	1.517853E-17	3.552278E-18
4.330000E+03	1.531657E-17	3.577625E-18
4.340000E+03	1.545421E-17	3.602787E-18
4.350000E+03	1.559158E-17	3.627796E-18
4.360000E+03	1.572831E-17	3.652566E-18
4.370000E+03	1.586442E-17	3.677105E-18
4.380000E+03	1.599994E-17	3.701422E-18
4.390000E+03	1.613491E-17	3.725534E-18
4.400000E+03	1.626938E-17	3.749452E-18
4.410000E+03	1.640351E-17	3.773213E-18
4.420000E+03	1.653747E-17	3.796862E-18
4.430000E+03	1.667133E-17	3.820418E-18
4.440000E+03	1.680531E-17	3.843932E-18
4.450000E+03	1.693935E-17	3.867393E-18
4.460000E+03	1.707383E-17	3.890890E-18
4.470000E+03	1.720870E-17	3.914415E-18
4.480000E+03	1.734407E-17	3.937992E-18
4.490000E+03	1.748005E-17	3.961649E-18
4.500000E+03	1.761674E-17	3.985411E-18
4.510000E+03	1.775424E-17	4.009300E-18
4.520000E+03	1.789267E-17	4.033341E-18
4.530000E+03	1.803181E-17	4.057487E-18
4.540000E+03	1.817208E-17	4.081831E-18
4.550000E+03	1.831328E-17	4.106327E-18
4.560000E+03	1.845552E-17	4.130998E-18
4.570000E+03	1.859874E-17	4.155833E-18
4.580000E+03	1.874323E-17	4.180893E-18
4.590000E+03	1.888892E-17	4.206164E-18
4.600000E+03	1.903560E-17	4.231596E-18
4.610000E+03	1.918370E-17	4.257288E-18
4.620000E+03	1.933301E-17	4.283188E-18
4.630000E+03	1.948344E-17	4.309277E-18
4.640000E+03	1.963527E-17	4.335617E-18
4.650000E+03	1.978862E-17	4.362232E-18
4.660000E+03	1.994306E-17	4.389026E-18
4.670000E+03	2.009905E-17	4.416103E-18
4.680000E+03	2.025653E-17	4.443443E-18
4.690000E+03	2.041543E-17	4.471035E-18
4.700000E+03	2.057590E-17	4.498905E-18
4.710000E+03	2.073786E-17	4.527042E-18
4.720000E+03	2.090152E-17	4.555482E-18
4.730000E+03	2.106645E-17	4.584138E-18
4.740000E+03	2.123289E-17	4.613056E-18
4.750000E+03	2.140109E-17	4.642293E-18
4.760000E+03	2.157052E-17	4.671729E-18
4.770000E+03	2.174163E-17	4.701464E-18
4.780000E+03	2.191430E-17	4.731469E-18
4.790000E+03	2.208837E-17	4.761710E-18
4.800000E+03	2.226430E-17	4.792285E-18
4.810000E+03	2.244151E-17	4.823066E-18
4.820000E+03	2.262067E-17	4.854196E-18
4.830000E+03	2.280113E-17	4.885539E-18
4.840000E+03	2.298335E-17	4.917186E-18
4.850000E+03	2.316686E-17	4.949041E-18
4.860000E+03	2.335211E-17	4.981198E-18
4.870000E+03	2.353864E-17	5.013554E-18
4.880000E+03	2.372664E-17	5.046155E-18
4.890000E+03	2.391612E-17	5.078996E-18
4.900000E+03	2.410682E-17	5.112025E-18
4.910000E+03	2.429871E-17	5.145233E-18
4.920000E+03	2.449177E-17	5.178617E-18
4.930000E+03	2.468625E-17	5.212226E-18
4.940000E+03	2.488162E-17	5.245952E-18
4.950000E+03	2.507837E-17	5.279896E-18
4.960000E+03	2.527600E-17	5.313951E-18
4.970000E+03	2.547474E-17	5.348166E-18
4.980000E+03	2.567430E-17	5.382481E-18
4.990000E+03	2.587465E-17	5.416887E-18
5.000000E+03	2.607571E-17	5.451371E-18
5.010000E+03	2.627767E-17	5.485968E-18
5.020000E+03	2.647987E-17	5.520545E-18
5.030000E+03	2.668245E-17	5.555128E-18
5.040000E+03	2.688495E-17	5.589623E-18
5.050000E+03	2.708745E-17	5.624048E-18
5.060000E+03	2.728944E-17	5.658297E-18
5.070000E+03	2.749038E-17	5.692261E-18
5.080000E+03	2.769026E-17	5.725939E-18
5.090000E+03	2.788875E-17	5.759263E-18
5.100000E+03	2.808523E-17	5.792108E-18
5.110000E+03	2.827902E-17	5.824339E-18
5.120000E+03	2.847028E-17	5.855988E-18
5.130000E+03	2.865800E-17	5.886852E-18
5.140000E+03	2.884172E-17	5.916841E-18
5.150000E+03	2.902096E-17	5.945861E-18
5.160000E+03	2.919525E-17	5.973820E-18
5.170000E+03	2.936381E-17	6.000561E-18
5.180000E+03	2.952644E-17	6.026054E-18
5.190000E+03	2.968208E-17	6.050084E-18
5.200000E+03	2.983054E-17	6.072622E-18
5.210000E+03	2.997074E-17	6.093450E-18
5.220000E+03	3.010276E-17	6.112597E-18
5.230000E+03	3.022549E-17	6.129843E-18
5.240000E+03	3.033869E-17	6.145144E-18
5.250000E+03	3.044116E-17	6.158272E-18
5.260000E+03	3.053261E-17	6.169173E-18
5.270000E+03	3.061242E-17	6.177732E-18
5.280000E+03	3.067932E-17	6.183702E-18
5.290000E+03	3.073265E-17	6.186961E-18
5.300000E+03	3.077205E-17	6.187448E-18
5.310000E+03	3.079654E-17	6.184975E-18
5.320000E+03	3.080519E-17	6.179369E-18
5.330000E+03	3.079736E-17	6.170513E-18
5.340000E+03	3.077252E-17	6.158312E-18
5.350000E+03	3.073015E-17	6.142676E-18
5.360000E+03	3.066953E-17	6.123475E-18
5.370000E+03	3.059065E-17	6.100718E-18
5.380000E+03	3.049302E-17	6.074319E-18
5.390000E+03	3.037689E-17	6.044343E-18
5.400000E+03	3.024206E-17	6.010764E-18
5.410000E+03	3.008945E-17	5.973775E-18
5.420000E+03	2.991988E-17	5.933549E-18
5.430000E+03	2.973376E-17	5.890181E-18
5.440000E+03	2.953294E-17	5.844046E-18
5.450000E+03	2.931854E-17	5.795375E-18
5.460000E+03	2.909077E-17	5.744218E-18
5.470000E+03	2.885206E-17	5.691062E-18
5.480000E+03	2.860354E-17	5.636134E-18
5.490000E+03	2.834650E-17	5.579696E-18
5.500000E+03	2.808263E-17	5.522084E-18
5.510000E+03	2.781337E-17	5.463582E-18
5.520000E+03	2.754020E-17	5.404487E-18
5.530000E+03	2.726525E-17	5.345211E-18
5.540000E+03	2.699009E-17	5.286061E-18
5.550000E+03	2.671711E-17	5.227502E-18
5.560000E+03	2.644843E-17	5.169943E-18
5.570000E+03	2.618584E-17	5.113726E-18
5.580000E+03	2.593159E-17	5.059286E-18
5.590000E+03	2.568761E-17	5.006989E-18
5.600000E+03	2.545568E-17	4.957172E-18
5.610000E+03	2.523768E-17	4.910194E-18
5.620000E+03	2.503506E-17	4.866325E-18
5.630000E+03	2.484910E-17	4.825802E-18
5.640000E+03	2.468104E-17	4.788856E-18
5.650000E+03	2.453170E-17	4.755633E-18
5.660000E+03	2.440187E-17	4.726276E-18
5.670000E+03	2.429187E-17	4.700831E-18
5.680000E+03	2.420176E-17	4.679302E-18
5.690000E+03	2.413168E-17	4.661701E-18
5.700000E+03	2.408133E-17	4.647957E-18
5.710000E+03	2.405020E-17	4.637964E-18
5.720000E+03	2.403795E-17	4.631645E-18
5.730000E+03	2.404389E-17	4.628853E-18
5.740000E+03	2.406752E-17	4.629484E-18
5.750000E+03	2.410782E-17	4.633333E-18
5.760000E+03	2.416458E-17	4.640348E-18
5.770000E+03	2.423691E-17	4.650349E-18
5.780000E+03	2.432423E-17	4.663218E-18
5.790000E+03	2.442662E-17	4.678963E-18
5.800000E+03	2.454325E-17	4.697413E-18
5.810000E+03	2.467438E-17	4.718614E-18
5.820000E+03	2.481992E-17	4.742539E-18
5.830000E+03	2.497980E-17	4.769166E-18
5.840000E+03	2.515375E-17	4.798438E-18
5.850000E+03	2.534235E-17	4.830456E-18
5.860000E+03	2.554539E-17	4.865174E-18
5.870000E+03	2.576321E-17	4.902649E-18
5.880000E+03	2.599591E-17	4.942891E-18
5.890000E+03	2.624326E-17	4.985850E-18
5.900000E+03	2.650561E-17	5.031583E-18
5.910000E+03	2.678331E-17	5.080149E-18
5.920000E+03	2.707577E-17	5.131431E-18
5.930000E+03	2.738328E-17	5.185473E-18
5.940000E+03	2.770578E-17	5.242256E-18
5.950000E+03	2.804347E-17	5.301811E-18
5.960000E+03	2.839557E-17	5.363983E-18
5.970000E+03	2.876252E-17	5.428849E-18
5.980000E+03	2.914345E-17	5.496234E-18
5.990000E+03	2.953837E-17	5.566135E-18
6.000000E+03	2.994695E-17	5.638482E-18
6.010000E+03	3.036848E-17	5.713133E-18
6.020000E+03	3.080287E-17	5.790066E-18
6.030000E+03	3.124892E-17	5.869048E-18
6.040000E+03	3.170684E-17	5.950112E-18
6.050000E+03	3.217492E-17	6.032931E-18
6.060000E+03	3.265326E-17	6.117520E-18
6.070000E+03	3.314041E-17	6.203599E-18
6.080000E+03	3.363597E-17	6.291092E-18
6.090000E+03	3.413834E-17	6.379693E-18
6.100000E+03	3.464661E-17	6.469227E-18
6.110000E+03	3.515939E-17	6.559434E-18
6.120000E+03	3.567561E-17	6.650112E-18
6.130000E+03	3.619332E-17	6.740894E-18
6.140000E+03	3.671087E-17	6.831470E-18
6.150000E+03	3.722699E-17	6.921607E-18
6.160000E+03	3.773994E-17	7.010982E-18
6.170000E+03	3.824702E-17	7.099093E-18
6.180000E+03	3.874691E-17	7.185698E-18
6.190000E+03	3.923787E-17	7.270479E-18
6.200000E+03	3.971875E-17	7.353225E-18
6.210000E+03	4.018907E-17	7.433855E-18
6.220000E+03	4.064849E-17	7.512311E-18
6.230000E+03	4.109740E-17	7.588668E-18
6.240000E+03	4.153734E-17	7.663218E-18
6.250000E+03	4.196850E-17	7.735997E-18
6.260000E+03	4.239058E-17	7.806960E-18
6.270000E+03	4.280559E-17	7.876478E-18
6.280000E+03	4.321401E-17	7.944642E-18
6.290000E+03	4.361520E-17	8.011342E-18
6.300000E+03	4.401147E-17	8.077005E-18
6.310000E+03	4.440176E-17	8.141433E-18
6.320000E+03	4.478789E-17	8.204967E-18
6.330000E+03	4.516942E-17	8.267521E-18
6.340000E+03	4.554711E-17	8.329236E-18
6.350000E+03	4.592108E-17	8.390134E-18
6.360000E+03	4.629152E-17	8.450250E-18
6.370000E+03	4.665859E-17	8.509610E-18
6.380000E+03	4.702175E-17	8.568118E-18
6.390000E+03	4.738048E-17	8.625680E-18
6.400000E+03	4.773554E-17	8.682433E-18
6.410000E+03	4.808565E-17	8.738144E-18
6.420000E+03	4.843156E-17	8.792950E-18
6.430000E+03	4.877264E-17	8.846738E-18
6.440000E+03	4.910893E-17	8.899513E-18
6.450000E+03	4.944120E-17	8.951421E-18
6.460000E+03	4.977103E-17	9.002743E-18
6.470000E+03	5.009860E-17	9.053513E-18
6.480000E+03	5.042483E-17	9.103897E-18
6.490000E+03	5.075074E-17	9.154078E-18
6.500000E+03	5.107580E-17	9.203961E-18
6.510000E+03	5.140184E-17	9.253872E-18
6.520000E+03	5.172917E-17	9.303866E-18
6.530000E+03	5.205727E-17	9.353849E-18
6.540000E+03	5.238803E-17	9.404159E-18
6.550000E+03	5.272096E-17	9.454703E-18
6.560000E+03	5.305547E-17	9.505379E-18
6.570000E+03	5.339350E-17	9.556528E-18
6.580000E+03	5.373448E-17	9.608047E-18
6.590000E+03	5.407866E-17	9.659978E-18
6.600000E+03	5.442716E-17	9.712520E-18
6.610000E+03	5.477844E-17	9.765397E-18
6.620000E+03	5.513267E-17	9.818636E-18
6.630000E+03	5.549182E-17	9.872588E-18
6.640000E+03	5.585422E-17	9.926952E-18
6.650000E+03	5.621995E-17	9.981741E-18
6.660000E+03	5.658999E-17	1.003713E-17
6.670000E+03	5.696343E-17	1.009295E-17
6.680000E+03	5.734023E-17	1.014920E-17
6.690000E+03	5.772132E-17	1.020604E-17
6.700000E+03	5.810464E-17	1.026310E-17
6.710000E+03	5.849007E-17	1.032037E-17
6.720000E+03	5.887946E-17	1.037817E-17
6.730000E+03	5.927060E-17	1.043612E-17
6.740000E+03	5.966329E-17	1.049416E-17
6.750000E+03	6.005831E-17	1.055246E-17
6.760000E+03	6.045438E-17	1.061078E-17
6.770000E+03	6.085119E-17	1.066907E-17
6.780000E+03	6.124843E-17	1.072727E-17
6.790000E+03	6.164579E-17	1.078534E-17
6.800000E+03	6.204180E-17	1.084303E-17
6.810000E+03	6.243720E-17	1.090046E-17
6.820000E+03	6.283167E-17	1.095759E-17
6.830000E+03	6.322365E-17	1.101414E-17
6.840000E+03	6.361395E-17	1.107027E-17
6.850000E+03	6.400100E-17	1.112570E-17
6.860000E+03	6.438444E-17	1.118039E-17
6.870000E+03	6.476386E-17	1.123427E-17
6.880000E+03	6.513773E-17	1.128707E-17
6.890000E+03	6.550811E-17	1.133917E-17
6.900000E+03	6.587347E-17	1.139031E-17
6.910000E+03	6.623226E-17	1.144022E-17
6.920000E+03	6.658541E-17	1.148909E-17
6.930000E+03	6.693139E-17	1.153666E-17
6.940000E+03	6.726987E-17	1.158287E-17
6.950000E+03	6.760187E-17	1.162793E-17
6.960000E+03	6.792582E-17	1.167156E-17
6.970000E+03	6.824145E-17	1.171374E-17
6.980000E+03	6.854850E-17	1.175443E-17
6.990000E+03	6.884675E-17	1.179361E-17
7.000000E+03	6.913465E-17	1.183102E-17
7.010000E+03	6.941473E-17	1.186712E-17
7.020000E+03	6.968413E-17	1.190143E-17
7.030000E+03	6.994277E-17	1.193394E-17
7.040000E+03	7.019195E-17	1.196491E-17
7.050000E+03	7.043027E-17	1.199409E-17
7.060000E+03	7.065778E-17	1.202152E-17
7.070000E+03	7.087455E-17	1.204723E-17
7.080000E+03	7.108074E-17	1.207125E-17
7.090000E+03	7.127798E-17	1.209388E-17
7.100000E+03	7.146372E-17	1.211471E-17
7.110000E+03	7.163829E-17	1.213380E-17
7.120000E+03	7.180357E-17	1.215148E-17
7.130000E+03	7.196005E-17	1.216787E-17
7.140000E+03	7.210686E-17	1.218282E-17
7.150000E+03	7.224610E-17	1.219670E-17
7.160000E+03	7.237553E-17	1.220916E-17
7.170000E+03	7.249880E-17	1.222083E-17
7.180000E+03	7.261527E-17	1.223160E-17
7.190000E+03	7.272574E-17	1.224164E-17
7.200000E+03	7.282956E-17	1.225084E-17
7.210000E+03	7.293062E-17	1.225987E-17
7.220000E+03	7.302677E-17	1.226840E-17
7.230000E+03	7.312036E-17	1.227682E-17
7.240000E+03	7.321063E-17	1.228502E-17
7.250000E+03	7.329982E-17	1.229340E-17
7.260000E+03	7.338699E-17	1.230180E-17
7.270000E+03	7.347259E-17	1.231033E-17
7.280000E+03	7.355849E-17	1.231929E-17
7.290000E+03	7.364327E-17	1.232848E-17
7.300000E+03	7.372850E-17	1.233817E-17
7.310000E+03	7.381087E-17	1.234782E-17
7.320000E+03	7.389165E-17	1.235765E-17
7.330000E+03	7.397199E-17	1.236787E-17
7.340000E+03	7.404824E-17	1.237789E-17
7.350000E+03	7.412141E-17	1.238789E-17
7.360000E+03	7.418931E-17	1.239752E-17
7.370000E+03	7.425297E-17	1.240696E-17
7.380000E+03	7.431025E-17	1.241587E-17
7.390000E+03	7.436067E-17	1.242419E-17
7.400000E+03	7.440386E-17	1.243187E-17
7.410000E+03	7.443794E-17	1.243861E-17
7.420000E+03	7.446277E-17	1.244439E-17
7.430000E+03	7.447834E-17	1.244923E-17
7.440000E+03	7.448483E-17	1.245317E-17
7.450000E+03	7.448418E-17	1.245655E-17
7.460000E+03	7.447520E-17	1.245918E-17
7.470000E+03	7.446178E-17	1.246172E-17
7.480000E+03	7.444460E-17	1.246429E-17
7.490000E+03	7.442443E-17	1.246705E-17
7.500000E+03	7.440204E-17	1.247011E-17
7.510000E+03	7.437818E-17	1.247363E-17
7.520000E+03	7.435666E-17	1.247826E-17
7.530000E+03	7.433410E-17	1.248341E-17
7.540000E+03	7.431204E-17	1.248934E-17
7.550000E+03	7.429030E-17	1.249601E-17
7.560000E+03	7.427039E-17	1.250367E-17
7.570000E+03	7.424869E-17	1.251168E-17
7.580000E+03	7.422674E-17	1.252030E-17
7.590000E+03	7.420449E-17	1.252951E-17
7.600000E+03	7.418365E-17	1.253959E-17
7.610000E+03	7.416076E-17	1.254994E-17
7.620000E+03	7.413942E-17	1.256115E-17
7.630000E+03	7.411803E-17	1.257295E-17
7.640000E+03	7.409502E-17	1.258506E-17
7.650000E+03	7.407415E-17	1.259810E-17
7.660000E+03	7.405393E-17	1.261182E-17
7.670000E+03	7.403466E-17	1.262624E-17
7.680000E+03	7.401662E-17	1.264141E-17
7.690000E+03	7.400008E-17	1.265736E-17
7.700000E+03	7.398528E-17	1.267413E-17
7.710000E+03	7.397420E-17	1.269205E-17
7.720000E+03	7.396339E-17	1.271050E-17
7.730000E+03	7.395648E-17	1.273011E-17
7.740000E+03	7.395166E-17	1.275056E-17
7.750000E+03	7.394884E-17	1.277182E-17
7.760000E+03	7.394787E-17	1.279386E-17
