#wls	flux	fluxerr
1.600000E+03	3.153077E-16	9.422618E-17
1.640000E+03	3.245593E-16	9.698970E-17
1.680000E+03	3.332085E-16	9.957307E-17
1.720000E+03	3.411868E-16	1.019558E-16
1.760000E+03	3.482849E-16	1.040754E-16
1.800000E+03	3.544859E-16	1.059267E-16
1.840000E+03	3.595725E-16	1.074449E-16
1.880000E+03	3.634882E-16	1.086131E-16
1.920000E+03	3.661121E-16	1.093951E-16
1.960000E+03	3.672709E-16	1.097393E-16
2.000000E+03	3.669205E-16	1.096323E-16
2.040000E+03	3.649430E-16	1.090392E-16
2.080000E+03	3.612452E-16	1.079319E-16
2.120000E+03	3.557640E-16	1.062917E-16
2.160000E+03	3.484267E-16	1.040970E-16
2.200000E+03	3.391292E-16	1.013167E-16
2.240000E+03	3.277891E-16	9.792610E-17
2.280000E+03	3.144750E-16	9.394587E-17
2.320000E+03	2.994603E-16	8.945776E-17
2.360000E+03	2.832002E-16	8.459774E-17
2.400000E+03	2.660600E-16	7.947503E-17
2.440000E+03	2.483709E-16	7.418861E-17
2.480000E+03	2.303771E-16	6.881142E-17
2.520000E+03	2.123299E-16	6.341855E-17
2.560000E+03	1.944352E-16	5.807152E-17
2.600000E+03	1.769005E-16	5.283234E-17
2.640000E+03	1.598928E-16	4.775091E-17
2.680000E+03	1.435650E-16	4.287284E-17
2.720000E+03	1.280509E-16	3.823813E-17
2.760000E+03	1.134514E-16	3.387688E-17
2.800000E+03	9.984958E-17	2.981386E-17
2.840000E+03	8.730405E-17	2.606658E-17
2.880000E+03	7.585541E-17	2.264712E-17
2.920000E+03	6.552447E-17	1.956167E-17
2.960000E+03	5.630768E-17	1.680912E-17
3.000000E+03	4.817904E-17	1.438167E-17
3.010000E+03	4.631149E-17	1.382398E-17
3.020000E+03	4.450708E-17	1.328516E-17
3.030000E+03	4.276643E-17	1.276539E-17
3.040000E+03	4.108620E-17	1.226366E-17
3.050000E+03	3.946682E-17	1.178011E-17
3.060000E+03	3.790675E-17	1.131427E-17
3.070000E+03	3.640519E-17	1.086592E-17
3.080000E+03	3.495908E-17	1.043412E-17
3.090000E+03	3.356908E-17	1.001909E-17
3.100000E+03	3.223221E-17	9.619921E-18
3.110000E+03	3.094819E-17	9.236542E-18
3.120000E+03	2.971542E-17	8.868468E-18
3.130000E+03	2.853170E-17	8.515044E-18
3.140000E+03	2.739663E-17	8.176149E-18
3.150000E+03	2.630806E-17	7.851144E-18
3.160000E+03	2.526496E-17	7.539716E-18
3.170000E+03	2.426575E-17	7.241398E-18
3.180000E+03	2.330896E-17	6.955744E-18
3.190000E+03	2.239350E-17	6.682435E-18
3.200000E+03	2.151783E-17	6.421010E-18
3.210000E+03	2.068018E-17	6.170937E-18
3.220000E+03	1.987986E-17	5.932011E-18
3.230000E+03	1.911508E-17	5.703700E-18
3.240000E+03	1.838485E-17	5.485702E-18
3.250000E+03	1.768779E-17	5.277611E-18
3.260000E+03	1.702233E-17	5.078957E-18
3.270000E+03	1.638778E-17	4.889528E-18
3.280000E+03	1.578235E-17	4.708798E-18
3.290000E+03	1.520539E-17	4.536565E-18
3.300000E+03	1.465569E-17	4.372473E-18
3.310000E+03	1.413169E-17	4.216053E-18
3.320000E+03	1.363274E-17	4.067115E-18
3.330000E+03	1.315779E-17	3.925339E-18
3.340000E+03	1.270561E-17	3.790363E-18
3.350000E+03	1.227524E-17	3.661897E-18
3.360000E+03	1.186575E-17	3.539662E-18
3.370000E+03	1.147623E-17	3.423392E-18
3.380000E+03	1.110582E-17	3.312826E-18
3.390000E+03	1.075368E-17	3.207714E-18
3.400000E+03	1.041888E-17	3.107778E-18
3.410000E+03	1.010054E-17	3.012754E-18
3.420000E+03	9.798184E-18	2.922504E-18
3.430000E+03	9.510762E-18	2.836711E-18
3.440000E+03	9.237743E-18	2.755216E-18
3.450000E+03	8.978396E-18	2.677803E-18
3.460000E+03	8.732129E-18	2.604293E-18
3.470000E+03	8.498183E-18	2.534461E-18
3.480000E+03	8.275942E-18	2.468122E-18
3.490000E+03	8.064922E-18	2.405133E-18
3.500000E+03	7.864483E-18	2.345301E-18
3.510000E+03	7.674196E-18	2.288499E-18
3.520000E+03	7.493320E-18	2.234506E-18
3.530000E+03	7.321502E-18	2.183216E-18
3.540000E+03	7.158162E-18	2.134456E-18
3.550000E+03	7.002848E-18	2.088091E-18
3.560000E+03	6.855127E-18	2.043992E-18
3.570000E+03	6.714468E-18	2.002001E-18
3.580000E+03	6.580637E-18	1.962047E-18
3.590000E+03	6.453220E-18	1.924007E-18
3.600000E+03	6.331831E-18	1.887765E-18
3.610000E+03	6.216287E-18	1.853268E-18
3.620000E+03	6.106177E-18	1.820392E-18
3.630000E+03	6.001234E-18	1.789058E-18
3.640000E+03	5.901203E-18	1.759190E-18
3.650000E+03	5.805841E-18	1.730714E-18
3.660000E+03	5.714920E-18	1.703564E-18
3.670000E+03	5.628220E-18	1.677672E-18
3.680000E+03	5.545585E-18	1.652994E-18
3.690000E+03	5.466859E-18	1.629481E-18
3.700000E+03	5.391846E-18	1.607077E-18
3.710000E+03	5.320540E-18	1.585778E-18
3.720000E+03	5.252705E-18	1.565514E-18
3.730000E+03	5.188290E-18	1.546271E-18
3.740000E+03	5.127158E-18	1.528006E-18
3.750000E+03	5.069216E-18	1.510693E-18
3.760000E+03	5.014458E-18	1.494329E-18
3.770000E+03	4.962662E-18	1.478849E-18
3.780000E+03	4.913825E-18	1.464251E-18
3.790000E+03	4.867898E-18	1.450521E-18
3.800000E+03	4.824710E-18	1.437607E-18
3.810000E+03	4.784254E-18	1.425508E-18
3.820000E+03	4.746483E-18	1.414209E-18
3.830000E+03	4.711274E-18	1.403673E-18
3.840000E+03	4.678542E-18	1.393877E-18
3.850000E+03	4.648321E-18	1.384828E-18
3.860000E+03	4.620451E-18	1.376480E-18
3.870000E+03	4.594931E-18	1.368832E-18
3.880000E+03	4.571679E-18	1.361860E-18
3.890000E+03	4.550657E-18	1.355552E-18
3.900000E+03	4.531827E-18	1.349897E-18
3.910000E+03	4.515075E-18	1.344862E-18
3.920000E+03	4.500370E-18	1.340435E-18
3.930000E+03	4.487709E-18	1.336618E-18
3.940000E+03	4.477023E-18	1.333389E-18
3.950000E+03	4.468245E-18	1.330727E-18
3.960000E+03	4.461344E-18	1.328625E-18
3.970000E+03	4.456254E-18	1.327062E-18
3.980000E+03	4.452950E-18	1.326030E-18
3.990000E+03	4.451403E-18	1.325521E-18
4.000000E+03	4.451588E-18	1.325527E-18
4.010000E+03	4.453409E-18	1.326020E-18
4.020000E+03	4.456844E-18	1.326994E-18
4.030000E+03	4.461871E-18	1.328441E-18
4.040000E+03	4.468471E-18	1.330355E-18
4.050000E+03	4.476588E-18	1.332721E-18
4.060000E+03	4.486171E-18	1.335522E-18
4.070000E+03	4.497200E-18	1.338754E-18
4.080000E+03	4.509628E-18	1.342401E-18
4.090000E+03	4.523437E-18	1.346458E-18
4.100000E+03	4.538581E-18	1.350913E-18
4.110000E+03	4.555045E-18	1.355759E-18
4.120000E+03	4.572784E-18	1.360983E-18
4.130000E+03	4.591750E-18	1.366573E-18
4.140000E+03	4.611934E-18	1.372523E-18
4.150000E+03	4.633293E-18	1.378823E-18
4.160000E+03	4.655818E-18	1.385468E-18
4.170000E+03	4.679429E-18	1.392436E-18
4.180000E+03	4.704119E-18	1.399723E-18
4.190000E+03	4.729811E-18	1.407308E-18
4.200000E+03	4.756534E-18	1.415198E-18
4.210000E+03	4.784212E-18	1.423371E-18
4.220000E+03	4.812838E-18	1.431825E-18
4.230000E+03	4.842299E-18	1.440526E-18
4.240000E+03	4.872626E-18	1.449484E-18
4.250000E+03	4.903703E-18	1.458663E-18
4.260000E+03	4.935563E-18	1.468074E-18
4.270000E+03	4.968092E-18	1.477683E-18
4.280000E+03	5.001205E-18	1.487464E-18
4.290000E+03	5.034937E-18	1.497427E-18
4.300000E+03	5.069125E-18	1.507525E-18
4.310000E+03	5.103807E-18	1.517768E-18
4.320000E+03	5.138814E-18	1.528106E-18
4.330000E+03	5.174182E-18	1.538550E-18
4.340000E+03	5.209822E-18	1.549073E-18
4.350000E+03	5.245645E-18	1.559649E-18
4.360000E+03	5.281645E-18	1.570276E-18
4.370000E+03	5.317771E-18	1.580939E-18
4.380000E+03	5.354059E-18	1.591648E-18
4.390000E+03	5.390418E-18	1.602377E-18
4.400000E+03	5.426931E-18	1.613150E-18
4.410000E+03	5.463595E-18	1.623966E-18
4.420000E+03	5.500409E-18	1.634825E-18
4.430000E+03	5.537374E-18	1.645727E-18
4.440000E+03	5.574539E-18	1.656687E-18
4.450000E+03	5.611862E-18	1.667692E-18
4.460000E+03	5.649396E-18	1.678757E-18
4.470000E+03	5.687147E-18	1.689886E-18
4.480000E+03	5.725127E-18	1.701080E-18
4.490000E+03	5.763300E-18	1.712330E-18
4.500000E+03	5.801679E-18	1.723640E-18
4.510000E+03	5.840227E-18	1.734997E-18
4.520000E+03	5.879009E-18	1.746422E-18
4.530000E+03	5.917945E-18	1.757891E-18
4.540000E+03	5.957052E-18	1.769409E-18
4.550000E+03	5.996351E-18	1.780981E-18
4.560000E+03	6.035758E-18	1.792584E-18
4.570000E+03	6.075353E-18	1.804240E-18
4.580000E+03	6.115051E-18	1.815925E-18
4.590000E+03	6.154883E-18	1.827647E-18
4.600000E+03	6.194766E-18	1.839383E-18
4.610000E+03	6.234785E-18	1.851156E-18
4.620000E+03	6.274917E-18	1.862961E-18
4.630000E+03	6.315089E-18	1.874776E-18
4.640000E+03	6.355333E-18	1.886609E-18
4.650000E+03	6.395688E-18	1.898473E-18
4.660000E+03	6.436138E-18	1.910364E-18
4.670000E+03	6.476610E-18	1.922258E-18
4.680000E+03	6.517266E-18	1.934205E-18
4.690000E+03	6.558155E-18	1.946218E-18
4.700000E+03	6.599211E-18	1.958278E-18
4.710000E+03	6.640490E-18	1.970403E-18
4.720000E+03	6.682048E-18	1.982607E-18
4.730000E+03	6.723764E-18	1.994856E-18
4.740000E+03	6.765699E-18	2.007167E-18
4.750000E+03	6.807792E-18	2.019523E-18
4.760000E+03	6.850108E-18	2.031942E-18
4.770000E+03	6.892648E-18	2.044425E-18
4.780000E+03	6.935357E-18	2.056955E-18
4.790000E+03	6.978300E-18	2.069552E-18
4.800000E+03	7.021420E-18	2.082199E-18
4.810000E+03	7.064791E-18	2.094917E-18
4.820000E+03	7.108353E-18	2.107689E-18
4.830000E+03	7.152115E-18	2.120518E-18
4.840000E+03	7.196084E-18	2.133405E-18
4.850000E+03	7.240339E-18	2.146374E-18
4.860000E+03	7.284821E-18	2.159407E-18
4.870000E+03	7.329540E-18	2.172508E-18
4.880000E+03	7.374436E-18	2.185658E-18
4.890000E+03	7.419654E-18	2.198900E-18
4.900000E+03	7.465136E-18	2.212218E-18
4.910000E+03	7.510893E-18	2.225614E-18
4.920000E+03	7.556859E-18	2.239068E-18
4.930000E+03	7.603114E-18	2.252605E-18
4.940000E+03	7.649592E-18	2.266205E-18
4.950000E+03	7.696299E-18	2.279869E-18
4.960000E+03	7.743314E-18	2.293621E-18
4.970000E+03	7.790567E-18	2.307441E-18
4.980000E+03	7.838061E-18	2.321328E-18
4.990000E+03	7.885720E-18	2.335260E-18
5.000000E+03	7.933621E-18	2.349261E-18
5.010000E+03	7.981765E-18	2.363330E-18
5.020000E+03	8.030073E-18	2.377444E-18
5.030000E+03	8.078538E-18	2.391601E-18
5.040000E+03	8.127157E-18	2.405800E-18
5.050000E+03	8.175844E-18	2.420015E-18
5.060000E+03	8.224669E-18	2.434267E-18
5.070000E+03	8.273622E-18	2.448554E-18
5.080000E+03	8.322532E-18	2.462824E-18
5.090000E+03	8.371464E-18	2.477096E-18
5.100000E+03	8.420403E-18	2.491367E-18
5.110000E+03	8.469252E-18	2.505607E-18
5.120000E+03	8.517988E-18	2.519810E-18
5.130000E+03	8.566591E-18	2.533969E-18
5.140000E+03	8.615035E-18	2.548077E-18
5.150000E+03	8.663215E-18	2.562103E-18
5.160000E+03	8.711182E-18	2.576063E-18
5.170000E+03	8.758740E-18	2.589897E-18
5.180000E+03	8.805936E-18	2.603620E-18
5.190000E+03	8.852651E-18	2.617196E-18
5.200000E+03	8.898846E-18	2.630615E-18
5.210000E+03	8.944479E-18	2.643863E-18
5.220000E+03	8.989506E-18	2.656929E-18
5.230000E+03	9.033707E-18	2.669746E-18
5.240000E+03	9.077208E-18	2.682352E-18
5.250000E+03	9.119872E-18	2.694706E-18
5.260000E+03	9.161646E-18	2.706794E-18
5.270000E+03	9.202387E-18	2.718572E-18
5.280000E+03	9.242041E-18	2.730026E-18
5.290000E+03	9.280551E-18	2.741137E-18
5.300000E+03	9.317864E-18	2.751890E-18
5.310000E+03	9.353922E-18	2.762269E-18
5.320000E+03	9.388579E-18	2.772231E-18
5.330000E+03	9.421964E-18	2.781813E-18
5.340000E+03	9.453844E-18	2.790947E-18
5.350000E+03	9.484167E-18	2.799617E-18
5.360000E+03	9.513070E-18	2.807865E-18
5.370000E+03	9.540324E-18	2.815623E-18
5.380000E+03	9.566073E-18	2.822932E-18
5.390000E+03	9.590186E-18	2.829756E-18
5.400000E+03	9.612724E-18	2.836111E-18
5.410000E+03	9.633561E-18	2.841961E-18
5.420000E+03	9.652863E-18	2.847356E-18
5.430000E+03	9.670514E-18	2.852260E-18
5.440000E+03	9.686588E-18	2.856696E-18
5.450000E+03	9.700885E-18	2.860604E-18
5.460000E+03	9.713487E-18	2.864010E-18
5.470000E+03	9.724294E-18	2.866884E-18
5.480000E+03	9.733208E-18	2.869197E-18
5.490000E+03	9.740327E-18	2.870979E-18
5.500000E+03	9.745463E-18	2.872173E-18
5.510000E+03	9.748529E-18	2.872756E-18
5.520000E+03	9.749537E-18	2.872729E-18
5.530000E+03	9.748307E-18	2.872041E-18
5.540000E+03	9.744962E-18	2.870728E-18
5.550000E+03	9.739227E-18	2.868709E-18
5.560000E+03	9.731327E-18	2.866050E-18
5.570000E+03	9.721194E-18	2.862733E-18
5.580000E+03	9.708763E-18	2.858737E-18
5.590000E+03	9.694069E-18	2.854073E-18
5.600000E+03	9.677150E-18	2.848754E-18
5.610000E+03	9.657949E-18	2.842762E-18
5.620000E+03	9.636706E-18	2.836168E-18
5.630000E+03	9.613271E-18	2.828929E-18
5.640000E+03	9.587885E-18	2.821115E-18
5.650000E+03	9.560402E-18	2.812683E-18
5.660000E+03	9.531067E-18	2.803706E-18
5.670000E+03	9.499936E-18	2.794202E-18
5.680000E+03	9.466961E-18	2.784155E-18
5.690000E+03	9.432299E-18	2.773612E-18
5.700000E+03	9.396004E-18	2.762590E-18
5.710000E+03	9.358237E-18	2.751135E-18
5.720000E+03	9.319055E-18	2.739265E-18
5.730000E+03	9.278421E-18	2.726969E-18
5.740000E+03	9.236596E-18	2.714324E-18
5.750000E+03	9.193646E-18	2.701350E-18
5.760000E+03	9.149538E-18	2.688036E-18
5.770000E+03	9.104438E-18	2.674432E-18
5.780000E+03	9.058513E-18	2.660588E-18
5.790000E+03	9.011832E-18	2.646522E-18
5.800000E+03	8.964375E-18	2.632231E-18
5.810000E+03	8.916309E-18	2.617762E-18
5.820000E+03	8.867805E-18	2.603166E-18
5.830000E+03	8.818939E-18	2.588466E-18
5.840000E+03	8.769692E-18	2.573656E-18
5.850000E+03	8.720236E-18	2.558786E-18
5.860000E+03	8.670649E-18	2.543880E-18
5.870000E+03	8.621103E-18	2.528988E-18
5.880000E+03	8.571674E-18	2.514132E-18
5.890000E+03	8.522345E-18	2.499307E-18
5.900000E+03	8.473287E-18	2.484564E-18
5.910000E+03	8.424479E-18	2.469896E-18
5.920000E+03	8.376278E-18	2.455408E-18
5.930000E+03	8.328472E-18	2.441038E-18
5.940000E+03	8.281228E-18	2.426835E-18
5.950000E+03	8.234705E-18	2.412845E-18
5.960000E+03	8.188875E-18	2.399060E-18
5.970000E+03	8.143805E-18	2.385500E-18
5.980000E+03	8.099643E-18	2.372207E-18
5.990000E+03	8.056359E-18	2.359173E-18
6.000000E+03	8.014097E-18	2.346441E-18
6.010000E+03	7.972727E-18	2.333971E-18
6.020000E+03	7.932481E-18	2.321832E-18
6.030000E+03	7.893222E-18	2.309983E-18
6.040000E+03	7.855177E-18	2.298491E-18
6.050000E+03	7.818109E-18	2.287286E-18
6.060000E+03	7.782240E-18	2.276434E-18
6.070000E+03	7.747513E-18	2.265917E-18
6.080000E+03	7.713958E-18	2.255743E-18
6.090000E+03	7.681420E-18	2.245869E-18
6.100000E+03	7.650105E-18	2.236352E-18
6.110000E+03	7.619764E-18	2.227122E-18
6.120000E+03	7.590594E-18	2.218234E-18
6.130000E+03	7.562341E-18	2.209616E-18
6.140000E+03	7.535013E-18	2.201268E-18
6.150000E+03	7.508530E-18	2.193167E-18
6.160000E+03	7.482899E-18	2.185317E-18
6.170000E+03	7.457843E-18	2.177634E-18
6.180000E+03	7.433362E-18	2.170120E-18
6.190000E+03	7.409360E-18	2.162746E-18
6.200000E+03	7.385830E-18	2.155510E-18
6.210000E+03	7.362758E-18	2.148409E-18
6.220000E+03	7.340323E-18	2.141493E-18
6.230000E+03	7.318791E-18	2.134841E-18
6.240000E+03	7.298244E-18	2.128477E-18
6.250000E+03	7.278857E-18	2.122451E-18
6.260000E+03	7.260805E-18	2.116815E-18
6.270000E+03	7.244174E-18	2.111592E-18
6.280000E+03	7.229138E-18	2.106834E-18
6.290000E+03	7.215787E-18	2.102567E-18
6.300000E+03	7.204205E-18	2.098814E-18
6.310000E+03	7.194580E-18	2.095631E-18
6.320000E+03	7.186902E-18	2.093014E-18
6.330000E+03	7.181368E-18	2.091020E-18
6.340000E+03	7.177872E-18	2.089618E-18
6.350000E+03	7.176512E-18	2.088836E-18
6.360000E+03	7.177288E-18	2.088674E-18
6.370000E+03	7.180300E-18	2.089161E-18
6.380000E+03	7.185452E-18	2.090268E-18
6.390000E+03	7.192740E-18	2.091993E-18
6.400000E+03	7.202069E-18	2.094310E-18
6.410000E+03	7.213225E-18	2.097154E-18
6.420000E+03	7.226105E-18	2.100497E-18
6.430000E+03	7.240701E-18	2.104335E-18
6.440000E+03	7.257010E-18	2.108667E-18
6.450000E+03	7.275027E-18	2.113491E-18
6.460000E+03	7.294858E-18	2.118838E-18
6.470000E+03	7.316611E-18	2.124739E-18
6.480000E+03	7.340290E-18	2.131195E-18
6.490000E+03	7.365786E-18	2.138174E-18
6.500000E+03	7.393328E-18	2.145741E-18
6.510000E+03	7.422925E-18	2.153900E-18
6.520000E+03	7.454470E-18	2.162618E-18
6.530000E+03	7.488089E-18	2.171932E-18
6.540000E+03	7.523792E-18	2.181845E-18
6.550000E+03	7.561472E-18	2.192324E-18
6.560000E+03	7.601140E-18	2.203373E-18
6.570000E+03	7.643050E-18	2.215066E-18
6.580000E+03	7.686851E-18	2.227299E-18
6.590000E+03	7.732804E-18	2.240148E-18
6.600000E+03	7.780922E-18	2.253617E-18
6.610000E+03	7.830973E-18	2.267637E-18
6.620000E+03	7.883223E-18	2.282286E-18
6.630000E+03	7.937434E-18	2.297494E-18
6.640000E+03	7.993880E-18	2.313340E-18
6.650000E+03	8.052318E-18	2.329754E-18
6.660000E+03	8.112895E-18	2.346776E-18
6.670000E+03	8.175634E-18	2.364415E-18
6.680000E+03	8.240417E-18	2.382634E-18
6.690000E+03	8.307255E-18	2.401437E-18
6.700000E+03	8.376310E-18	2.420870E-18
6.710000E+03	8.447464E-18	2.440899E-18
6.720000E+03	8.520731E-18	2.461527E-18
6.730000E+03	8.596130E-18	2.482759E-18
6.740000E+03	8.673684E-18	2.504601E-18
6.750000E+03	8.753412E-18	2.527059E-18
6.760000E+03	8.835335E-18	2.550138E-18
6.770000E+03	8.919315E-18	2.573798E-18
6.780000E+03	9.005534E-18	2.598090E-18
6.790000E+03	9.094008E-18	2.623019E-18
6.800000E+03	9.184602E-18	2.648546E-18
6.810000E+03	9.277498E-18	2.674722E-18
6.820000E+03	9.372553E-18	2.701505E-18
6.830000E+03	9.469782E-18	2.728901E-18
6.840000E+03	9.569210E-18	2.756914E-18
6.850000E+03	9.670851E-18	2.785549E-18
6.860000E+03	9.774905E-18	2.814863E-18
6.870000E+03	9.881037E-18	2.844759E-18
6.880000E+03	9.989441E-18	2.875292E-18
6.890000E+03	1.010014E-17	2.906468E-18
6.900000E+03	1.021296E-17	2.938238E-18
6.910000E+03	1.032812E-17	2.970660E-18
6.920000E+03	1.044562E-17	3.003740E-18
6.930000E+03	1.056529E-17	3.037425E-18
6.940000E+03	1.068715E-17	3.071718E-18
6.950000E+03	1.081141E-17	3.106682E-18
6.960000E+03	1.093788E-17	3.142261E-18
6.970000E+03	1.106657E-17	3.178459E-18
6.980000E+03	1.119749E-17	3.215277E-18
6.990000E+03	1.133066E-17	3.252718E-18
7.000000E+03	1.146586E-17	3.290721E-18
7.010000E+03	1.160354E-17	3.329415E-18
7.020000E+03	1.174326E-17	3.368672E-18
7.030000E+03	1.188525E-17	3.408557E-18
7.040000E+03	1.202929E-17	3.449007E-18
7.050000E+03	1.217537E-17	3.490017E-18
7.060000E+03	1.232372E-17	3.531657E-18
7.070000E+03	1.247412E-17	3.573856E-18
7.080000E+03	1.262628E-17	3.616539E-18
7.090000E+03	1.278072E-17	3.659847E-18
7.100000E+03	1.293716E-17	3.703706E-18
7.110000E+03	1.309534E-17	3.748037E-18
7.120000E+03	1.325551E-17	3.792908E-18
7.130000E+03	1.341737E-17	3.838238E-18
7.140000E+03	1.358117E-17	3.884098E-18
7.150000E+03	1.374662E-17	3.930403E-18
7.160000E+03	1.391398E-17	3.977225E-18
7.170000E+03	1.408263E-17	4.024392E-18
7.180000E+03	1.425284E-17	4.071974E-18
7.190000E+03	1.442487E-17	4.120047E-18
7.200000E+03	1.459808E-17	4.168430E-18
7.210000E+03	1.477242E-17	4.217108E-18
7.220000E+03	1.494815E-17	4.266152E-18
7.230000E+03	1.512522E-17	4.315551E-18
7.240000E+03	1.530327E-17	4.365200E-18
7.250000E+03	1.548256E-17	4.415174E-18
7.260000E+03	1.566271E-17	4.465363E-18
7.270000E+03	1.584366E-17	4.515749E-18
7.280000E+03	1.602567E-17	4.566409E-18
7.290000E+03	1.620835E-17	4.617230E-18
7.300000E+03	1.639198E-17	4.668290E-18
7.310000E+03	1.657614E-17	4.719470E-18
7.320000E+03	1.676075E-17	4.770749E-18
7.330000E+03	1.694649E-17	4.822318E-18
7.340000E+03	1.713255E-17	4.873947E-18
7.350000E+03	1.731963E-17	4.925835E-18
7.360000E+03	1.750727E-17	4.977851E-18
7.370000E+03	1.769583E-17	5.030101E-18
7.380000E+03	1.788566E-17	5.082675E-18
7.390000E+03	1.807632E-17	5.135458E-18
7.400000E+03	1.826859E-17	5.188664E-18
7.410000E+03	1.846249E-17	5.242302E-18
7.420000E+03	1.865838E-17	5.296474E-18
7.430000E+03	1.885634E-17	5.351201E-18
7.440000E+03	1.905635E-17	5.406475E-18
7.450000E+03	1.925889E-17	5.462434E-18
7.460000E+03	1.946308E-17	5.518828E-18
7.470000E+03	1.966893E-17	5.575660E-18
7.480000E+03	1.987595E-17	5.632789E-18
7.490000E+03	2.008464E-17	5.690357E-18
7.500000E+03	2.029449E-17	5.748221E-18
7.510000E+03	2.050501E-17	5.806239E-18
7.520000E+03	2.071617E-17	5.864403E-18
7.530000E+03	2.092792E-17	5.922702E-18
7.540000E+03	2.113974E-17	5.980985E-18
7.550000E+03	2.135204E-17	6.039369E-18
7.560000E+03	2.156378E-17	6.097563E-18
7.570000E+03	2.177590E-17	6.155830E-18
7.580000E+03	2.198784E-17	6.214008E-18
7.590000E+03	2.219949E-17	6.272076E-18
7.600000E+03	2.241027E-17	6.329862E-18
7.610000E+03	2.262059E-17	6.387484E-18
7.620000E+03	2.283038E-17	6.444923E-18
7.630000E+03	2.303954E-17	6.502150E-18
7.640000E+03	2.324738E-17	6.558972E-18
7.650000E+03	2.345434E-17	6.615517E-18
7.660000E+03	2.365973E-17	6.671585E-18
7.670000E+03	2.386458E-17	6.727469E-18
7.680000E+03	2.406698E-17	6.782631E-18
7.690000E+03	2.426857E-17	6.837532E-18
7.700000E+03	2.446859E-17	6.891960E-18
7.710000E+03	2.466628E-17	6.945704E-18
7.720000E+03	2.486208E-17	6.998885E-18
7.730000E+03	2.505580E-17	7.051451E-18
7.740000E+03	2.524729E-17	7.103360E-18
7.750000E+03	2.543637E-17	7.154565E-18
7.760000E+03	2.562350E-17	7.205192E-18
