#wls	flux	fluxerr
1.600000E+03	3.739252E-16	1.269858E-16
1.640000E+03	3.851313E-16	1.307892E-16
1.680000E+03	3.956562E-16	1.343612E-16
1.720000E+03	4.053822E-16	1.376616E-16
1.760000E+03	4.141410E-16	1.406335E-16
1.800000E+03	4.217980E-16	1.432310E-16
1.840000E+03	4.281726E-16	1.453929E-16
1.880000E+03	4.331605E-16	1.470838E-16
1.920000E+03	4.366174E-16	1.482547E-16
1.960000E+03	4.383677E-16	1.488460E-16
2.000000E+03	4.383189E-16	1.488263E-16
2.040000E+03	4.363232E-16	1.481455E-16
2.080000E+03	4.322593E-16	1.467624E-16
2.120000E+03	4.260987E-16	1.446675E-16
2.160000E+03	4.177022E-16	1.418134E-16
2.200000E+03	4.069973E-16	1.381757E-16
2.240000E+03	3.939130E-16	1.337303E-16
2.280000E+03	3.783234E-16	1.284345E-16
2.320000E+03	3.607105E-16	1.224521E-16
2.360000E+03	3.415635E-16	1.159491E-16
2.400000E+03	3.212747E-16	1.090588E-16
2.440000E+03	3.001788E-16	1.018948E-16
2.480000E+03	2.785940E-16	9.456518E-17
2.520000E+03	2.568091E-16	8.716801E-17
2.560000E+03	2.350792E-16	7.978989E-17
2.600000E+03	2.136605E-16	7.251778E-17
2.640000E+03	1.927847E-16	6.543031E-17
2.680000E+03	1.726595E-16	5.859798E-17
2.720000E+03	1.534678E-16	5.208287E-17
2.760000E+03	1.353747E-16	4.594097E-17
2.800000E+03	1.184953E-16	4.021134E-17
2.840000E+03	1.029226E-16	3.492547E-17
2.880000E+03	8.872780E-17	3.010754E-17
2.920000E+03	7.595011E-17	2.577077E-17
2.960000E+03	6.459996E-17	2.191867E-17
3.000000E+03	5.464797E-17	1.854123E-17
3.010000E+03	5.237077E-17	1.776843E-17
3.020000E+03	5.017532E-17	1.702338E-17
3.030000E+03	4.806096E-17	1.630586E-17
3.040000E+03	4.602565E-17	1.561516E-17
3.050000E+03	4.406746E-17	1.495065E-17
3.060000E+03	4.218528E-17	1.431194E-17
3.070000E+03	4.037618E-17	1.369803E-17
3.080000E+03	3.863980E-17	1.310881E-17
3.090000E+03	3.697318E-17	1.254326E-17
3.100000E+03	3.537498E-17	1.200094E-17
3.110000E+03	3.384309E-17	1.148112E-17
3.120000E+03	3.237604E-17	1.098331E-17
3.130000E+03	3.097168E-17	1.050678E-17
3.140000E+03	2.962792E-17	1.005081E-17
3.150000E+03	2.834327E-17	9.614904E-18
3.160000E+03	2.711511E-17	9.198172E-18
3.170000E+03	2.594248E-17	8.800286E-18
3.180000E+03	2.482285E-17	8.420386E-18
3.190000E+03	2.375473E-17	8.057966E-18
3.200000E+03	2.273616E-17	7.712364E-18
3.210000E+03	2.176523E-17	7.382926E-18
3.220000E+03	2.084042E-17	7.069143E-18
3.230000E+03	1.995987E-17	6.770377E-18
3.240000E+03	1.912143E-17	6.485903E-18
3.250000E+03	1.832429E-17	6.215442E-18
3.260000E+03	1.756577E-17	5.958088E-18
3.270000E+03	1.684506E-17	5.713564E-18
3.280000E+03	1.615994E-17	5.481117E-18
3.290000E+03	1.550909E-17	5.260297E-18
3.300000E+03	1.489117E-17	5.050652E-18
3.310000E+03	1.430422E-17	4.851515E-18
3.320000E+03	1.374722E-17	4.662543E-18
3.330000E+03	1.321876E-17	4.483252E-18
3.340000E+03	1.271728E-17	4.313117E-18
3.350000E+03	1.224149E-17	4.151699E-18
3.360000E+03	1.179017E-17	3.998582E-18
3.370000E+03	1.136228E-17	3.853417E-18
3.380000E+03	1.095639E-17	3.715713E-18
3.390000E+03	1.057170E-17	3.585206E-18
3.400000E+03	1.020691E-17	3.461448E-18
3.410000E+03	9.861049E-18	3.344113E-18
3.420000E+03	9.533309E-18	3.232926E-18
3.430000E+03	9.222457E-18	3.127468E-18
3.440000E+03	8.927898E-18	3.027539E-18
3.450000E+03	8.648735E-18	2.932832E-18
3.460000E+03	8.383918E-18	2.842993E-18
3.470000E+03	8.132968E-18	2.757858E-18
3.480000E+03	7.894952E-18	2.677111E-18
3.490000E+03	7.669269E-18	2.600548E-18
3.500000E+03	7.455267E-18	2.527947E-18
3.510000E+03	7.252095E-18	2.459021E-18
3.520000E+03	7.059288E-18	2.393611E-18
3.530000E+03	6.876171E-18	2.331488E-18
3.540000E+03	6.702134E-18	2.272445E-18
3.550000E+03	6.536672E-18	2.216311E-18
3.560000E+03	6.379194E-18	2.162886E-18
3.570000E+03	6.229210E-18	2.112003E-18
3.580000E+03	6.086214E-18	2.063490E-18
3.590000E+03	5.949852E-18	2.017228E-18
3.600000E+03	5.819733E-18	1.973083E-18
3.610000E+03	5.695441E-18	1.930916E-18
3.620000E+03	5.576694E-18	1.890629E-18
3.630000E+03	5.463224E-18	1.852132E-18
3.640000E+03	5.354676E-18	1.815304E-18
3.650000E+03	5.250961E-18	1.780117E-18
3.660000E+03	5.151747E-18	1.746456E-18
3.670000E+03	5.056907E-18	1.714278E-18
3.680000E+03	4.966271E-18	1.683527E-18
3.690000E+03	4.879666E-18	1.654142E-18
3.700000E+03	4.796972E-18	1.626084E-18
3.710000E+03	4.718106E-18	1.599325E-18
3.720000E+03	4.642822E-18	1.573781E-18
3.730000E+03	4.571119E-18	1.549450E-18
3.740000E+03	4.502795E-18	1.526266E-18
3.750000E+03	4.437773E-18	1.504202E-18
3.760000E+03	4.375966E-18	1.483228E-18
3.770000E+03	4.317184E-18	1.463280E-18
3.780000E+03	4.261422E-18	1.444356E-18
3.790000E+03	4.208531E-18	1.426405E-18
3.800000E+03	4.158432E-18	1.409402E-18
3.810000E+03	4.111019E-18	1.393309E-18
3.820000E+03	4.066222E-18	1.378103E-18
3.830000E+03	4.023938E-18	1.363749E-18
3.840000E+03	3.984103E-18	1.350225E-18
3.850000E+03	3.946623E-18	1.337500E-18
3.860000E+03	3.911470E-18	1.325564E-18
3.870000E+03	3.878551E-18	1.314385E-18
3.880000E+03	3.847787E-18	1.303937E-18
3.890000E+03	3.819121E-18	1.294200E-18
3.900000E+03	3.792474E-18	1.285147E-18
3.910000E+03	3.767827E-18	1.276772E-18
3.920000E+03	3.745100E-18	1.269048E-18
3.930000E+03	3.724251E-18	1.261960E-18
3.940000E+03	3.705203E-18	1.255483E-18
3.950000E+03	3.687887E-18	1.249592E-18
3.960000E+03	3.672314E-18	1.244293E-18
3.970000E+03	3.658364E-18	1.239543E-18
3.980000E+03	3.646025E-18	1.235339E-18
3.990000E+03	3.635228E-18	1.231658E-18
4.000000E+03	3.625942E-18	1.228489E-18
4.010000E+03	3.618129E-18	1.225818E-18
4.020000E+03	3.611701E-18	1.223617E-18
4.030000E+03	3.606657E-18	1.221885E-18
4.040000E+03	3.602934E-18	1.220600E-18
4.050000E+03	3.600507E-18	1.219754E-18
4.060000E+03	3.599316E-18	1.219327E-18
4.070000E+03	3.599314E-18	1.219302E-18
4.080000E+03	3.600500E-18	1.219679E-18
4.090000E+03	3.602796E-18	1.220433E-18
4.100000E+03	3.606183E-18	1.221556E-18
4.110000E+03	3.610639E-18	1.223040E-18
4.120000E+03	3.616094E-18	1.224863E-18
4.130000E+03	3.622561E-18	1.227029E-18
4.140000E+03	3.629964E-18	1.229511E-18
4.150000E+03	3.638292E-18	1.232306E-18
4.160000E+03	3.647536E-18	1.235412E-18
4.170000E+03	3.657619E-18	1.238801E-18
4.180000E+03	3.668564E-18	1.242482E-18
4.190000E+03	3.680275E-18	1.246422E-18
4.200000E+03	3.692796E-18	1.250636E-18
4.210000E+03	3.706032E-18	1.255091E-18
4.220000E+03	3.719976E-18	1.259787E-18
4.230000E+03	3.734595E-18	1.264710E-18
4.240000E+03	3.749878E-18	1.269858E-18
4.250000E+03	3.765734E-18	1.275199E-18
4.260000E+03	3.782189E-18	1.280743E-18
4.270000E+03	3.799182E-18	1.286469E-18
4.280000E+03	3.816652E-18	1.292356E-18
4.290000E+03	3.834595E-18	1.298402E-18
4.300000E+03	3.852981E-18	1.304598E-18
4.310000E+03	3.871720E-18	1.310913E-18
4.320000E+03	3.890777E-18	1.317336E-18
4.330000E+03	3.910120E-18	1.323855E-18
4.340000E+03	3.929719E-18	1.330459E-18
4.350000E+03	3.949535E-18	1.337137E-18
4.360000E+03	3.969564E-18	1.343887E-18
4.370000E+03	3.989774E-18	1.350697E-18
4.380000E+03	4.010123E-18	1.357554E-18
4.390000E+03	4.030672E-18	1.364478E-18
4.400000E+03	4.051380E-18	1.371455E-18
4.410000E+03	4.072244E-18	1.378485E-18
4.420000E+03	4.093287E-18	1.385574E-18
4.430000E+03	4.114506E-18	1.392723E-18
4.440000E+03	4.135861E-18	1.399917E-18
4.450000E+03	4.157380E-18	1.407166E-18
4.460000E+03	4.179028E-18	1.414459E-18
4.470000E+03	4.200800E-18	1.421792E-18
4.480000E+03	4.222701E-18	1.429169E-18
4.490000E+03	4.244656E-18	1.436563E-18
4.500000E+03	4.266709E-18	1.443990E-18
4.510000E+03	4.288829E-18	1.451439E-18
4.520000E+03	4.310987E-18	1.458900E-18
4.530000E+03	4.333198E-18	1.466379E-18
4.540000E+03	4.355399E-18	1.473854E-18
4.550000E+03	4.377605E-18	1.481329E-18
4.560000E+03	4.399836E-18	1.488813E-18
4.570000E+03	4.422072E-18	1.496297E-18
4.580000E+03	4.444260E-18	1.503765E-18
4.590000E+03	4.466426E-18	1.511225E-18
4.600000E+03	4.488554E-18	1.518671E-18
4.610000E+03	4.510636E-18	1.526101E-18
4.620000E+03	4.532700E-18	1.533524E-18
4.630000E+03	4.554702E-18	1.540926E-18
4.640000E+03	4.576672E-18	1.548316E-18
4.650000E+03	4.598607E-18	1.555694E-18
4.660000E+03	4.620506E-18	1.563058E-18
4.670000E+03	4.642366E-18	1.570409E-18
4.680000E+03	4.664185E-18	1.577746E-18
4.690000E+03	4.685964E-18	1.585067E-18
4.700000E+03	4.707787E-18	1.592404E-18
4.710000E+03	4.729657E-18	1.599755E-18
4.720000E+03	4.751576E-18	1.607123E-18
4.730000E+03	4.773634E-18	1.614537E-18
4.740000E+03	4.795794E-18	1.621984E-18
4.750000E+03	4.818067E-18	1.629469E-18
4.760000E+03	4.840501E-18	1.637008E-18
4.770000E+03	4.863107E-18	1.644604E-18
4.780000E+03	4.885852E-18	1.652246E-18
4.790000E+03	4.908791E-18	1.659953E-18
4.800000E+03	4.931937E-18	1.667730E-18
4.810000E+03	4.955262E-18	1.675566E-18
4.820000E+03	4.978820E-18	1.683480E-18
4.830000E+03	5.002632E-18	1.691479E-18
4.840000E+03	5.026710E-18	1.699568E-18
4.850000E+03	5.051075E-18	1.707752E-18
4.860000E+03	5.075695E-18	1.716022E-18
4.870000E+03	5.100687E-18	1.724417E-18
4.880000E+03	5.125976E-18	1.732912E-18
4.890000E+03	5.151581E-18	1.741512E-18
4.900000E+03	5.177574E-18	1.750243E-18
4.910000E+03	5.203975E-18	1.759111E-18
4.920000E+03	5.230810E-18	1.768124E-18
4.930000E+03	5.258003E-18	1.777257E-18
4.940000E+03	5.285676E-18	1.786552E-18
4.950000E+03	5.313802E-18	1.795999E-18
4.960000E+03	5.342404E-18	1.805606E-18
4.970000E+03	5.371505E-18	1.815380E-18
4.980000E+03	5.401129E-18	1.825331E-18
4.990000E+03	5.431242E-18	1.835445E-18
5.000000E+03	5.461864E-18	1.845731E-18
5.010000E+03	5.493062E-18	1.856210E-18
5.020000E+03	5.524799E-18	1.866870E-18
5.030000E+03	5.557034E-18	1.877697E-18
5.040000E+03	5.589882E-18	1.888730E-18
5.050000E+03	5.623191E-18	1.899917E-18
5.060000E+03	5.657072E-18	1.911297E-18
5.070000E+03	5.691531E-18	1.922871E-18
5.080000E+03	5.726412E-18	1.934586E-18
5.090000E+03	5.761875E-18	1.946497E-18
5.100000E+03	5.797819E-18	1.958568E-18
5.110000E+03	5.834241E-18	1.970800E-18
5.120000E+03	5.871196E-18	1.983211E-18
5.130000E+03	5.908572E-18	1.995762E-18
5.140000E+03	5.946366E-18	2.008453E-18
5.150000E+03	5.984630E-18	2.021302E-18
5.160000E+03	6.023303E-18	2.034287E-18
5.170000E+03	6.062385E-18	2.047409E-18
5.180000E+03	6.101806E-18	2.060644E-18
5.190000E+03	6.141620E-18	2.074011E-18
5.200000E+03	6.181702E-18	2.087466E-18
5.210000E+03	6.222163E-18	2.101048E-18
5.220000E+03	6.262931E-18	2.114731E-18
5.230000E+03	6.303935E-18	2.128494E-18
5.240000E+03	6.345161E-18	2.142329E-18
5.250000E+03	6.386652E-18	2.156252E-18
5.260000E+03	6.428268E-18	2.170216E-18
5.270000E+03	6.470046E-18	2.184233E-18
5.280000E+03	6.512033E-18	2.198319E-18
5.290000E+03	6.554004E-18	2.212397E-18
5.300000E+03	6.596121E-18	2.226524E-18
5.310000E+03	6.638159E-18	2.240622E-18
5.320000E+03	6.680276E-18	2.254745E-18
5.330000E+03	6.722236E-18	2.268814E-18
5.340000E+03	6.764126E-18	2.282856E-18
5.350000E+03	6.805906E-18	2.296860E-18
5.360000E+03	6.847468E-18	2.310789E-18
5.370000E+03	6.888900E-18	2.324672E-18
5.380000E+03	6.929958E-18	2.338428E-18
5.390000E+03	6.970807E-18	2.352111E-18
5.400000E+03	7.011340E-18	2.365685E-18
5.410000E+03	7.051519E-18	2.379139E-18
5.420000E+03	7.091310E-18	2.392459E-18
5.430000E+03	7.130677E-18	2.405635E-18
5.440000E+03	7.169519E-18	2.418632E-18
5.450000E+03	7.207802E-18	2.431439E-18
5.460000E+03	7.245492E-18	2.444044E-18
5.470000E+03	7.282553E-18	2.456435E-18
5.480000E+03	7.318880E-18	2.468576E-18
5.490000E+03	7.354356E-18	2.480429E-18
5.500000E+03	7.389014E-18	2.492005E-18
5.510000E+03	7.422738E-18	2.503263E-18
5.520000E+03	7.455402E-18	2.514163E-18
5.530000E+03	7.486886E-18	2.524663E-18
5.540000E+03	7.517214E-18	2.534771E-18
5.550000E+03	7.546180E-18	2.544419E-18
5.560000E+03	7.573812E-18	2.553615E-18
5.570000E+03	7.599901E-18	2.562289E-18
5.580000E+03	7.624395E-18	2.570425E-18
5.590000E+03	7.647313E-18	2.578027E-18
5.600000E+03	7.668450E-18	2.585028E-18
5.610000E+03	7.687826E-18	2.591433E-18
5.620000E+03	7.705388E-18	2.597226E-18
5.630000E+03	7.721005E-18	2.602362E-18
5.640000E+03	7.734624E-18	2.606824E-18
5.650000E+03	7.746277E-18	2.610621E-18
5.660000E+03	7.755919E-18	2.613740E-18
5.670000E+03	7.763428E-18	2.616139E-18
5.680000E+03	7.768854E-18	2.617836E-18
5.690000E+03	7.772243E-18	2.618845E-18
5.700000E+03	7.773415E-18	2.619106E-18
5.710000E+03	7.772433E-18	2.618641E-18
5.720000E+03	7.769366E-18	2.617472E-18
5.730000E+03	7.764208E-18	2.615599E-18
5.740000E+03	7.756962E-18	2.613021E-18
5.750000E+03	7.747630E-18	2.609741E-18
5.760000E+03	7.736225E-18	2.605762E-18
5.770000E+03	7.722837E-18	2.601114E-18
5.780000E+03	7.707405E-18	2.595778E-18
5.790000E+03	7.690110E-18	2.589815E-18
5.800000E+03	7.670897E-18	2.583205E-18
5.810000E+03	7.649794E-18	2.575959E-18
5.820000E+03	7.626997E-18	2.568143E-18
5.830000E+03	7.602382E-18	2.559714E-18
5.840000E+03	7.576070E-18	2.550715E-18
5.850000E+03	7.548199E-18	2.541191E-18
5.860000E+03	7.518740E-18	2.531132E-18
5.870000E+03	7.487844E-18	2.520591E-18
5.880000E+03	7.455496E-18	2.509560E-18
5.890000E+03	7.421947E-18	2.498126E-18
5.900000E+03	7.387202E-18	2.486291E-18
5.910000E+03	7.351352E-18	2.474084E-18
5.920000E+03	7.314580E-18	2.461567E-18
5.930000E+03	7.276905E-18	2.448747E-18
5.940000E+03	7.238508E-18	2.435685E-18
5.950000E+03	7.199406E-18	2.422386E-18
5.960000E+03	7.159779E-18	2.408912E-18
5.970000E+03	7.119722E-18	2.395294E-18
5.980000E+03	7.079327E-18	2.381563E-18
5.990000E+03	7.038601E-18	2.367722E-18
6.000000E+03	6.997715E-18	2.353827E-18
6.010000E+03	6.956748E-18	2.339907E-18
6.020000E+03	6.915702E-18	2.325961E-18
6.030000E+03	6.874735E-18	2.312042E-18
6.040000E+03	6.833837E-18	2.298148E-18
6.050000E+03	6.792997E-18	2.284274E-18
6.060000E+03	6.752444E-18	2.270497E-18
6.070000E+03	6.712081E-18	2.256786E-18
6.080000E+03	6.672046E-18	2.243186E-18
6.090000E+03	6.632235E-18	2.229662E-18
6.100000E+03	6.592783E-18	2.216259E-18
6.110000E+03	6.553655E-18	2.202967E-18
6.120000E+03	6.514900E-18	2.189801E-18
6.130000E+03	6.476562E-18	2.176776E-18
6.140000E+03	6.438598E-18	2.163878E-18
6.150000E+03	6.401045E-18	2.151119E-18
6.160000E+03	6.363939E-18	2.138511E-18
6.170000E+03	6.327305E-18	2.126063E-18
6.180000E+03	6.291176E-18	2.113785E-18
6.190000E+03	6.255495E-18	2.101659E-18
6.200000E+03	6.220364E-18	2.089719E-18
6.210000E+03	6.185801E-18	2.077969E-18
6.220000E+03	6.151823E-18	2.066418E-18
6.230000E+03	6.118527E-18	2.055097E-18
6.240000E+03	6.086001E-18	2.044035E-18
6.250000E+03	6.054340E-18	2.033264E-18
6.260000E+03	6.023630E-18	2.022814E-18
6.270000E+03	5.993959E-18	2.012713E-18
6.280000E+03	5.965492E-18	2.003017E-18
6.290000E+03	5.938156E-18	1.993702E-18
6.300000E+03	5.912273E-18	1.984875E-18
6.310000E+03	5.887770E-18	1.976512E-18
6.320000E+03	5.864812E-18	1.968668E-18
6.330000E+03	5.843479E-18	1.961370E-18
6.340000E+03	5.823858E-18	1.954647E-18
6.350000E+03	5.805954E-18	1.948501E-18
6.360000E+03	5.789847E-18	1.942958E-18
6.370000E+03	5.775630E-18	1.938049E-18
6.380000E+03	5.763302E-18	1.933774E-18
6.390000E+03	5.752875E-18	1.930137E-18
6.400000E+03	5.744433E-18	1.927166E-18
6.410000E+03	5.737817E-18	1.924807E-18
6.420000E+03	5.733032E-18	1.923062E-18
6.430000E+03	5.730002E-18	1.921906E-18
6.440000E+03	5.728560E-18	1.921281E-18
6.450000E+03	5.728796E-18	1.921219E-18
6.460000E+03	5.730541E-18	1.921662E-18
6.470000E+03	5.733887E-18	1.922642E-18
6.480000E+03	5.738835E-18	1.924157E-18
6.490000E+03	5.745307E-18	1.926183E-18
6.500000E+03	5.753301E-18	1.928718E-18
6.510000E+03	5.762827E-18	1.931766E-18
6.520000E+03	5.773886E-18	1.935327E-18
6.530000E+03	5.786484E-18	1.939402E-18
6.540000E+03	5.800717E-18	1.944024E-18
6.550000E+03	5.816499E-18	1.949163E-18
6.560000E+03	5.833745E-18	1.954792E-18
6.570000E+03	5.852644E-18	1.960973E-18
6.580000E+03	5.873018E-18	1.967647E-18
6.590000E+03	5.894964E-18	1.974846E-18
6.600000E+03	5.918493E-18	1.982573E-18
6.610000E+03	5.943607E-18	1.990830E-18
6.620000E+03	5.970316E-18	1.999618E-18
6.630000E+03	5.998531E-18	2.008909E-18
6.640000E+03	6.028354E-18	2.018737E-18
6.650000E+03	6.059694E-18	2.029070E-18
6.660000E+03	6.092661E-18	2.039946E-18
6.670000E+03	6.127158E-18	2.051331E-18
6.680000E+03	6.163193E-18	2.063229E-18
6.690000E+03	6.200881E-18	2.075678E-18
6.700000E+03	6.240228E-18	2.088680E-18
6.710000E+03	6.281037E-18	2.102167E-18
6.720000E+03	6.323524E-18	2.116214E-18
6.730000E+03	6.367484E-18	2.130751E-18
6.740000E+03	6.413151E-18	2.145856E-18
6.750000E+03	6.460417E-18	2.161493E-18
6.760000E+03	6.509188E-18	2.177629E-18
6.770000E+03	6.559696E-18	2.194344E-18
6.780000E+03	6.611723E-18	2.211563E-18
6.790000E+03	6.665398E-18	2.229330E-18
6.800000E+03	6.720733E-18	2.247649E-18
6.810000E+03	6.777740E-18	2.266523E-18
6.820000E+03	6.836309E-18	2.285915E-18
6.830000E+03	6.896575E-18	2.305871E-18
6.840000E+03	6.958420E-18	2.326351E-18
6.850000E+03	7.021986E-18	2.347402E-18
6.860000E+03	7.087152E-18	2.368983E-18
6.870000E+03	7.153929E-18	2.391099E-18
6.880000E+03	7.222459E-18	2.413795E-18
6.890000E+03	7.292483E-18	2.436987E-18
6.900000E+03	7.364277E-18	2.460765E-18
6.910000E+03	7.437716E-18	2.485088E-18
6.920000E+03	7.512806E-18	2.509958E-18
6.930000E+03	7.589555E-18	2.535377E-18
6.940000E+03	7.667968E-18	2.561347E-18
6.950000E+03	7.747908E-18	2.587822E-18
6.960000E+03	7.829520E-18	2.614849E-18
6.970000E+03	7.912813E-18	2.642432E-18
6.980000E+03	7.997791E-18	2.670573E-18
6.990000E+03	8.084149E-18	2.699168E-18
7.000000E+03	8.172351E-18	2.728374E-18
7.010000E+03	8.261928E-18	2.758032E-18
7.020000E+03	8.353195E-18	2.788249E-18
7.030000E+03	8.445991E-18	2.818969E-18
7.040000E+03	8.540313E-18	2.850194E-18
7.050000E+03	8.636155E-18	2.881918E-18
7.060000E+03	8.733514E-18	2.914142E-18
7.070000E+03	8.832204E-18	2.946805E-18
7.080000E+03	8.932394E-18	2.979960E-18
7.090000E+03	9.034075E-18	3.013607E-18
7.100000E+03	9.137058E-18	3.047680E-18
7.110000E+03	9.241511E-18	3.082238E-18
7.120000E+03	9.347233E-18	3.117211E-18
7.130000E+03	9.454211E-18	3.152596E-18
7.140000E+03	9.562420E-18	3.188384E-18
7.150000E+03	9.672043E-18	3.224636E-18
7.160000E+03	9.782660E-18	3.261212E-18
7.170000E+03	9.894239E-18	3.298102E-18
7.180000E+03	1.000716E-17	3.335432E-18
7.190000E+03	1.012100E-17	3.373057E-18
7.200000E+03	1.023570E-17	3.410965E-18
7.210000E+03	1.035146E-17	3.449216E-18
7.220000E+03	1.046801E-17	3.487726E-18
7.230000E+03	1.058533E-17	3.526482E-18
7.240000E+03	1.070337E-17	3.565469E-18
7.250000E+03	1.082208E-17	3.604673E-18
7.260000E+03	1.094167E-17	3.644159E-18
7.270000E+03	1.106160E-17	3.683753E-18
7.280000E+03	1.118231E-17	3.723598E-18
7.290000E+03	1.130352E-17	3.763600E-18
7.300000E+03	1.142516E-17	3.803740E-18
7.310000E+03	1.154745E-17	3.844085E-18
7.320000E+03	1.167008E-17	3.884536E-18
7.330000E+03	1.179325E-17	3.925159E-18
7.340000E+03	1.191692E-17	3.965940E-18
7.350000E+03	1.204131E-17	4.006951E-18
7.360000E+03	1.216638E-17	4.048181E-18
7.370000E+03	1.229238E-17	4.089709E-18
7.380000E+03	1.241898E-17	4.131432E-18
7.390000E+03	1.254702E-17	4.173624E-18
7.400000E+03	1.267648E-17	4.216281E-18
7.410000E+03	1.280708E-17	4.259305E-18
7.420000E+03	1.293968E-17	4.302988E-18
7.430000E+03	1.307401E-17	4.347237E-18
7.440000E+03	1.321038E-17	4.392156E-18
7.450000E+03	1.334851E-17	4.437649E-18
7.460000E+03	1.348871E-17	4.483823E-18
7.470000E+03	1.363005E-17	4.530363E-18
7.480000E+03	1.377314E-17	4.577479E-18
7.490000E+03	1.391701E-17	4.624843E-18
7.500000E+03	1.406196E-17	4.672555E-18
7.510000E+03	1.420761E-17	4.720493E-18
7.520000E+03	1.435360E-17	4.768531E-18
7.530000E+03	1.450020E-17	4.816766E-18
7.540000E+03	1.464632E-17	4.864831E-18
7.550000E+03	1.479260E-17	4.912937E-18
7.560000E+03	1.493861E-17	4.960944E-18
7.570000E+03	1.508427E-17	5.008827E-18
7.580000E+03	1.522914E-17	5.056437E-18
7.590000E+03	1.537350E-17	5.103870E-18
7.600000E+03	1.551690E-17	5.150973E-18
7.610000E+03	1.565923E-17	5.197715E-18
7.620000E+03	1.580081E-17	5.244195E-18
7.630000E+03	1.594114E-17	5.290256E-18
7.640000E+03	1.608055E-17	5.335998E-18
7.650000E+03	1.621812E-17	5.381122E-18
7.660000E+03	1.635457E-17	5.425868E-18
7.670000E+03	1.648940E-17	5.470067E-18
7.680000E+03	1.662294E-17	5.513830E-18
7.690000E+03	1.675467E-17	5.556983E-18
7.700000E+03	1.688449E-17	5.599495E-18
7.710000E+03	1.701230E-17	5.641332E-18
7.720000E+03	1.713889E-17	5.682757E-18
7.730000E+03	1.726283E-17	5.723297E-18
7.740000E+03	1.738538E-17	5.763369E-18
7.750000E+03	1.750555E-17	5.802645E-18
7.760000E+03	1.762371E-17	5.841244E-18
