#wls	flux	fluxerr
1.600000E+03	2.880950E-16	7.015797E-17
1.640000E+03	2.964655E-16	7.219511E-17
1.680000E+03	3.042900E-16	7.409913E-17
1.720000E+03	3.115087E-16	7.585543E-17
1.760000E+03	3.179331E-16	7.741815E-17
1.800000E+03	3.235512E-16	7.878434E-17
1.840000E+03	3.281679E-16	7.990651E-17
1.880000E+03	3.317355E-16	8.077306E-17
1.920000E+03	3.341469E-16	8.135791E-17
1.960000E+03	3.352475E-16	8.162344E-17
2.000000E+03	3.350004E-16	8.156069E-17
2.040000E+03	3.333010E-16	8.114421E-17
2.080000E+03	3.300661E-16	8.035379E-17
2.120000E+03	3.252394E-16	7.917577E-17
2.160000E+03	3.187548E-16	7.759410E-17
2.200000E+03	3.105160E-16	7.558535E-17
2.240000E+03	3.004433E-16	7.313026E-17
2.280000E+03	2.885945E-16	7.024288E-17
2.320000E+03	2.752124E-16	6.698245E-17
2.360000E+03	2.607056E-16	6.344846E-17
2.400000E+03	2.454004E-16	5.972038E-17
2.440000E+03	2.295916E-16	5.586999E-17
2.480000E+03	2.134925E-16	5.194927E-17
2.520000E+03	1.973251E-16	4.801224E-17
2.560000E+03	1.812680E-16	4.410241E-17
2.600000E+03	1.655032E-16	4.026408E-17
2.640000E+03	1.501763E-16	3.653268E-17
2.680000E+03	1.354209E-16	3.294075E-17
2.720000E+03	1.213555E-16	2.951707E-17
2.760000E+03	1.080697E-16	2.628343E-17
2.800000E+03	9.563888E-17	2.325816E-17
2.840000E+03	8.411827E-17	2.045466E-17
2.880000E+03	7.354866E-17	1.788283E-17
2.920000E+03	6.395482E-17	1.554864E-17
2.960000E+03	5.534063E-17	1.345300E-17
3.000000E+03	4.769048E-17	1.159207E-17
3.010000E+03	4.592462E-17	1.116253E-17
3.020000E+03	4.421513E-17	1.074673E-17
3.030000E+03	4.256291E-17	1.034486E-17
3.040000E+03	4.096479E-17	9.956161E-18
3.050000E+03	3.942144E-17	9.580792E-18
3.060000E+03	3.793156E-17	9.218436E-18
3.070000E+03	3.649462E-17	8.868963E-18
3.080000E+03	3.510775E-17	8.531674E-18
3.090000E+03	3.377188E-17	8.206799E-18
3.100000E+03	3.248424E-17	7.893658E-18
3.110000E+03	3.124483E-17	7.592255E-18
3.120000E+03	3.005227E-17	7.302249E-18
3.130000E+03	2.890460E-17	7.023167E-18
3.140000E+03	2.780168E-17	6.754972E-18
3.150000E+03	2.674155E-17	6.497191E-18
3.160000E+03	2.572345E-17	6.249633E-18
3.170000E+03	2.474605E-17	6.011976E-18
3.180000E+03	2.380807E-17	5.783911E-18
3.190000E+03	2.290868E-17	5.565232E-18
3.200000E+03	2.204658E-17	5.355625E-18
3.210000E+03	2.122017E-17	5.154700E-18
3.220000E+03	2.042900E-17	4.962346E-18
3.230000E+03	1.967152E-17	4.778187E-18
3.240000E+03	1.894692E-17	4.602027E-18
3.250000E+03	1.825403E-17	4.433576E-18
3.260000E+03	1.759143E-17	4.272495E-18
3.270000E+03	1.695864E-17	4.118661E-18
3.280000E+03	1.635400E-17	3.971675E-18
3.290000E+03	1.577702E-17	3.831413E-18
3.300000E+03	1.522662E-17	3.697617E-18
3.310000E+03	1.470134E-17	3.569928E-18
3.320000E+03	1.420066E-17	3.448221E-18
3.330000E+03	1.372360E-17	3.332255E-18
3.340000E+03	1.326902E-17	3.221756E-18
3.350000E+03	1.283602E-17	3.116503E-18
3.360000E+03	1.242372E-17	3.016285E-18
3.370000E+03	1.203129E-17	2.920896E-18
3.380000E+03	1.165790E-17	2.830136E-18
3.390000E+03	1.130276E-17	2.743811E-18
3.400000E+03	1.096495E-17	2.661700E-18
3.410000E+03	1.064362E-17	2.583594E-18
3.420000E+03	1.033834E-17	2.509390E-18
3.430000E+03	1.004805E-17	2.438828E-18
3.440000E+03	9.772245E-18	2.371787E-18
3.450000E+03	9.510200E-18	2.308091E-18
3.460000E+03	9.261342E-18	2.247599E-18
3.470000E+03	9.024903E-18	2.190125E-18
3.480000E+03	8.800274E-18	2.135522E-18
3.490000E+03	8.586979E-18	2.083672E-18
3.500000E+03	8.384372E-18	2.034419E-18
3.510000E+03	8.192031E-18	1.987661E-18
3.520000E+03	8.009205E-18	1.943214E-18
3.530000E+03	7.835538E-18	1.900993E-18
3.540000E+03	7.670450E-18	1.860856E-18
3.550000E+03	7.513479E-18	1.822691E-18
3.560000E+03	7.364194E-18	1.786394E-18
3.570000E+03	7.222045E-18	1.751830E-18
3.580000E+03	7.086811E-18	1.718945E-18
3.590000E+03	6.958071E-18	1.687638E-18
3.600000E+03	6.835428E-18	1.657813E-18
3.610000E+03	6.718714E-18	1.629427E-18
3.620000E+03	6.607505E-18	1.602378E-18
3.630000E+03	6.501532E-18	1.576601E-18
3.640000E+03	6.400542E-18	1.552033E-18
3.650000E+03	6.304294E-18	1.528618E-18
3.660000E+03	6.212561E-18	1.506299E-18
3.670000E+03	6.125125E-18	1.485023E-18
3.680000E+03	6.041833E-18	1.464754E-18
3.690000E+03	5.962538E-18	1.445454E-18
3.700000E+03	5.887046E-18	1.427078E-18
3.710000E+03	5.815370E-18	1.409628E-18
3.720000E+03	5.747269E-18	1.393046E-18
3.730000E+03	5.682709E-18	1.377324E-18
3.740000E+03	5.621553E-18	1.362427E-18
3.750000E+03	5.563716E-18	1.348336E-18
3.760000E+03	5.509208E-18	1.335052E-18
3.770000E+03	5.457803E-18	1.322521E-18
3.780000E+03	5.409506E-18	1.310744E-18
3.790000E+03	5.364278E-18	1.299711E-18
3.800000E+03	5.321944E-18	1.289379E-18
3.810000E+03	5.282509E-18	1.279751E-18
3.820000E+03	5.245930E-18	1.270815E-18
3.830000E+03	5.212081E-18	1.262541E-18
3.840000E+03	5.180879E-18	1.254908E-18
3.850000E+03	5.152370E-18	1.247928E-18
3.860000E+03	5.126386E-18	1.241559E-18
3.870000E+03	5.102933E-18	1.235803E-18
3.880000E+03	5.081928E-18	1.230640E-18
3.890000E+03	5.063337E-18	1.226062E-18
3.900000E+03	5.047122E-18	1.222059E-18
3.910000E+03	5.033166E-18	1.218603E-18
3.920000E+03	5.021437E-18	1.215685E-18
3.930000E+03	5.011940E-18	1.213308E-18
3.940000E+03	5.004602E-18	1.211453E-18
3.950000E+03	4.999355E-18	1.210104E-18
3.960000E+03	4.996166E-18	1.209252E-18
3.970000E+03	4.994970E-18	1.208882E-18
3.980000E+03	4.995737E-18	1.208986E-18
3.990000E+03	4.998443E-18	1.209559E-18
4.000000E+03	5.003060E-18	1.210594E-18
4.010000E+03	5.009488E-18	1.212065E-18
4.020000E+03	5.017707E-18	1.213969E-18
4.030000E+03	5.027692E-18	1.216300E-18
4.040000E+03	5.039427E-18	1.219053E-18
4.050000E+03	5.052852E-18	1.222213E-18
4.060000E+03	5.067912E-18	1.225768E-18
4.070000E+03	5.084593E-18	1.229713E-18
4.080000E+03	5.102840E-18	1.234036E-18
4.090000E+03	5.122640E-18	1.238733E-18
4.100000E+03	5.143939E-18	1.243790E-18
4.110000E+03	5.166729E-18	1.249207E-18
4.120000E+03	5.190958E-18	1.254970E-18
4.130000E+03	5.216576E-18	1.261067E-18
4.140000E+03	5.243576E-18	1.267497E-18
4.150000E+03	5.271908E-18	1.274246E-18
4.160000E+03	5.301568E-18	1.281315E-18
4.170000E+03	5.332466E-18	1.288681E-18
4.180000E+03	5.364599E-18	1.296343E-18
4.190000E+03	5.397877E-18	1.304280E-18
4.200000E+03	5.432340E-18	1.312501E-18
4.210000E+03	5.467899E-18	1.320985E-18
4.220000E+03	5.504554E-18	1.329731E-18
4.230000E+03	5.542170E-18	1.338707E-18
4.240000E+03	5.580793E-18	1.347924E-18
4.250000E+03	5.620286E-18	1.357348E-18
4.260000E+03	5.660694E-18	1.366990E-18
4.270000E+03	5.701882E-18	1.376819E-18
4.280000E+03	5.743760E-18	1.386811E-18
4.290000E+03	5.786366E-18	1.396976E-18
4.300000E+03	5.829520E-18	1.407271E-18
4.310000E+03	5.873265E-18	1.417706E-18
4.320000E+03	5.917411E-18	1.428234E-18
4.330000E+03	5.962003E-18	1.438868E-18
4.340000E+03	6.006941E-18	1.449581E-18
4.350000E+03	6.052128E-18	1.460352E-18
4.360000E+03	6.097559E-18	1.471179E-18
4.370000E+03	6.143183E-18	1.482049E-18
4.380000E+03	6.189043E-18	1.492973E-18
4.390000E+03	6.235040E-18	1.503927E-18
4.400000E+03	6.281272E-18	1.514934E-18
4.410000E+03	6.327742E-18	1.525995E-18
4.420000E+03	6.374452E-18	1.537111E-18
4.430000E+03	6.421407E-18	1.548282E-18
4.440000E+03	6.468668E-18	1.559524E-18
4.450000E+03	6.516190E-18	1.570825E-18
4.460000E+03	6.564035E-18	1.582201E-18
4.470000E+03	6.612215E-18	1.593654E-18
4.480000E+03	6.660746E-18	1.605187E-18
4.490000E+03	6.709584E-18	1.616791E-18
4.500000E+03	6.758746E-18	1.628470E-18
4.510000E+03	6.808191E-18	1.640212E-18
4.520000E+03	6.857990E-18	1.652037E-18
4.530000E+03	6.908045E-18	1.663919E-18
4.540000E+03	6.958376E-18	1.675863E-18
4.550000E+03	7.009000E-18	1.687875E-18
4.560000E+03	7.059816E-18	1.699928E-18
4.570000E+03	7.110906E-18	1.712043E-18
4.580000E+03	7.162169E-18	1.724196E-18
4.590000E+03	7.213630E-18	1.736392E-18
4.600000E+03	7.265187E-18	1.748607E-18
4.610000E+03	7.316931E-18	1.760863E-18
4.620000E+03	7.368830E-18	1.773152E-18
4.630000E+03	7.420784E-18	1.785449E-18
4.640000E+03	7.472828E-18	1.797764E-18
4.650000E+03	7.524997E-18	1.810104E-18
4.660000E+03	7.577268E-18	1.822465E-18
4.670000E+03	7.629548E-18	1.834822E-18
4.680000E+03	7.682017E-18	1.847221E-18
4.690000E+03	7.734728E-18	1.859673E-18
4.700000E+03	7.787599E-18	1.872159E-18
4.710000E+03	7.840688E-18	1.884693E-18
4.720000E+03	7.894055E-18	1.897288E-18
4.730000E+03	7.947555E-18	1.909910E-18
4.740000E+03	8.001250E-18	1.922574E-18
4.750000E+03	8.055066E-18	1.935263E-18
4.760000E+03	8.109073E-18	1.947992E-18
4.770000E+03	8.163270E-18	1.960761E-18
4.780000E+03	8.217585E-18	1.973554E-18
4.790000E+03	8.272094E-18	1.986388E-18
4.800000E+03	8.326725E-18	1.999246E-18
4.810000E+03	8.381561E-18	2.012148E-18
4.820000E+03	8.436530E-18	2.025076E-18
4.830000E+03	8.491638E-18	2.038032E-18
4.840000E+03	8.546889E-18	2.051016E-18
4.850000E+03	8.602372E-18	2.064051E-18
4.860000E+03	8.658013E-18	2.077118E-18
4.870000E+03	8.713820E-18	2.090219E-18
4.880000E+03	8.769715E-18	2.103335E-18
4.890000E+03	8.825866E-18	2.116507E-18
4.900000E+03	8.882195E-18	2.129715E-18
4.910000E+03	8.938706E-18	2.142961E-18
4.920000E+03	8.995315E-18	2.156224E-18
4.930000E+03	9.052103E-18	2.169525E-18
4.940000E+03	9.108983E-18	2.182840E-18
4.950000E+03	9.165950E-18	2.196171E-18
4.960000E+03	9.223085E-18	2.209535E-18
4.970000E+03	9.280292E-18	2.222910E-18
4.980000E+03	9.337561E-18	2.236293E-18
4.990000E+03	9.394792E-18	2.249661E-18
5.000000E+03	9.452056E-18	2.263030E-18
5.010000E+03	9.509341E-18	2.276397E-18
5.020000E+03	9.566538E-18	2.289737E-18
5.030000E+03	9.623627E-18	2.303044E-18
5.040000E+03	9.680584E-18	2.316312E-18
5.050000E+03	9.737295E-18	2.329515E-18
5.060000E+03	9.793829E-18	2.342668E-18
5.070000E+03	9.850160E-18	2.355766E-18
5.080000E+03	9.906072E-18	2.368756E-18
5.090000E+03	9.961635E-18	2.381656E-18
5.100000E+03	1.001682E-17	2.394458E-18
5.110000E+03	1.007150E-17	2.407134E-18
5.120000E+03	1.012566E-17	2.419675E-18
5.130000E+03	1.017925E-17	2.432076E-18
5.140000E+03	1.023225E-17	2.444329E-18
5.150000E+03	1.028454E-17	2.456403E-18
5.160000E+03	1.033617E-17	2.468313E-18
5.170000E+03	1.038691E-17	2.480004E-18
5.180000E+03	1.043683E-17	2.491490E-18
5.190000E+03	1.048577E-17	2.502736E-18
5.200000E+03	1.053368E-17	2.513730E-18
5.210000E+03	1.058052E-17	2.524461E-18
5.220000E+03	1.062622E-17	2.534913E-18
5.230000E+03	1.067052E-17	2.545022E-18
5.240000E+03	1.071354E-17	2.554821E-18
5.250000E+03	1.075511E-17	2.564268E-18
5.260000E+03	1.079516E-17	2.573344E-18
5.270000E+03	1.083349E-17	2.582003E-18
5.280000E+03	1.087002E-17	2.590227E-18
5.290000E+03	1.090466E-17	2.597993E-18
5.300000E+03	1.093732E-17	2.605283E-18
5.310000E+03	1.096792E-17	2.612076E-18
5.320000E+03	1.099628E-17	2.618327E-18
5.330000E+03	1.102252E-17	2.624070E-18
5.340000E+03	1.104637E-17	2.629236E-18
5.350000E+03	1.106775E-17	2.633810E-18
5.360000E+03	1.108683E-17	2.637831E-18
5.370000E+03	1.110334E-17	2.641234E-18
5.380000E+03	1.111746E-17	2.644064E-18
5.390000E+03	1.112904E-17	2.646285E-18
5.400000E+03	1.113817E-17	2.647919E-18
5.410000E+03	1.114473E-17	2.648937E-18
5.420000E+03	1.114892E-17	2.649390E-18
5.430000E+03	1.115065E-17	2.649252E-18
5.440000E+03	1.115004E-17	2.648554E-18
5.450000E+03	1.114688E-17	2.647248E-18
5.460000E+03	1.114132E-17	2.645369E-18
5.470000E+03	1.113329E-17	2.642898E-18
5.480000E+03	1.112271E-17	2.639822E-18
5.490000E+03	1.110977E-17	2.636180E-18
5.500000E+03	1.109429E-17	2.631935E-18
5.510000E+03	1.107624E-17	2.627078E-18
5.520000E+03	1.105569E-17	2.621626E-18
5.530000E+03	1.103250E-17	2.615548E-18
5.540000E+03	1.100688E-17	2.608890E-18
5.550000E+03	1.097857E-17	2.601597E-18
5.560000E+03	1.094791E-17	2.593742E-18
5.570000E+03	1.091486E-17	2.585323E-18
5.580000E+03	1.087943E-17	2.576339E-18
5.590000E+03	1.084170E-17	2.566812E-18
5.600000E+03	1.080179E-17	2.556767E-18
5.610000E+03	1.075967E-17	2.546202E-18
5.620000E+03	1.071567E-17	2.535192E-18
5.630000E+03	1.066967E-17	2.523708E-18
5.640000E+03	1.062197E-17	2.511825E-18
5.650000E+03	1.057244E-17	2.499512E-18
5.660000E+03	1.052140E-17	2.486842E-18
5.670000E+03	1.046893E-17	2.473837E-18
5.680000E+03	1.041501E-17	2.460491E-18
5.690000E+03	1.035982E-17	2.446849E-18
5.700000E+03	1.030346E-17	2.432930E-18
5.710000E+03	1.024609E-17	2.418779E-18
5.720000E+03	1.018781E-17	2.404414E-18
5.730000E+03	1.012857E-17	2.389827E-18
5.740000E+03	1.006868E-17	2.375088E-18
5.750000E+03	1.000819E-17	2.360214E-18
5.760000E+03	9.947098E-18	2.345199E-18
5.770000E+03	9.885565E-18	2.330084E-18
5.780000E+03	9.823780E-18	2.314914E-18
5.790000E+03	9.761817E-18	2.299706E-18
5.800000E+03	9.699655E-18	2.284455E-18
5.810000E+03	9.637475E-18	2.269203E-18
5.820000E+03	9.575463E-18	2.253995E-18
5.830000E+03	9.513702E-18	2.238851E-18
5.840000E+03	9.452171E-18	2.223764E-18
5.850000E+03	9.391058E-18	2.208781E-18
5.860000E+03	9.330449E-18	2.193919E-18
5.870000E+03	9.270529E-18	2.179224E-18
5.880000E+03	9.211385E-18	2.164716E-18
5.890000E+03	9.152998E-18	2.150389E-18
5.900000E+03	9.095551E-18	2.136288E-18
5.910000E+03	9.039024E-18	2.122406E-18
5.920000E+03	8.983795E-18	2.108833E-18
5.930000E+03	8.929638E-18	2.095515E-18
5.940000E+03	8.876722E-18	2.082492E-18
5.950000E+03	8.825213E-18	2.069803E-18
5.960000E+03	8.775072E-18	2.057438E-18
5.970000E+03	8.726355E-18	2.045410E-18
5.980000E+03	8.679215E-18	2.033755E-18
5.990000E+03	8.633599E-18	2.022460E-18
6.000000E+03	8.589648E-18	2.011557E-18
6.010000E+03	8.547202E-18	2.001010E-18
6.020000E+03	8.506495E-18	1.990872E-18
6.030000E+03	8.467356E-18	1.981103E-18
6.040000E+03	8.430008E-18	1.971755E-18
6.050000E+03	8.394180E-18	1.962765E-18
6.060000E+03	8.360086E-18	1.954181E-18
6.070000E+03	8.327639E-18	1.945984E-18
6.080000E+03	8.296855E-18	1.938176E-18
6.090000E+03	8.267540E-18	1.930713E-18
6.100000E+03	8.239901E-18	1.923642E-18
6.110000E+03	8.213639E-18	1.916892E-18
6.120000E+03	8.188951E-18	1.910511E-18
6.130000E+03	8.165538E-18	1.904427E-18
6.140000E+03	8.143391E-18	1.898638E-18
6.150000E+03	8.122398E-18	1.893118E-18
6.160000E+03	8.102547E-18	1.887864E-18
6.170000E+03	8.083519E-18	1.882801E-18
6.180000E+03	8.065293E-18	1.877925E-18
6.190000E+03	8.047744E-18	1.873205E-18
6.200000E+03	8.030844E-18	1.868635E-18
6.210000E+03	8.014561E-18	1.864209E-18
6.220000E+03	7.999068E-18	1.859964E-18
6.230000E+03	7.984640E-18	1.855967E-18
6.240000E+03	7.971352E-18	1.852233E-18
6.250000E+03	7.959378E-18	1.848803E-18
6.260000E+03	7.948898E-18	1.845719E-18
6.270000E+03	7.939995E-18	1.842998E-18
6.280000E+03	7.932850E-18	1.840684E-18
6.290000E+03	7.927550E-18	1.838795E-18
6.300000E+03	7.924182E-18	1.837352E-18
6.310000E+03	7.922943E-18	1.836399E-18
6.320000E+03	7.923822E-18	1.835933E-18
6.330000E+03	7.927024E-18	1.836002E-18
6.340000E+03	7.932431E-18	1.836577E-18
6.350000E+03	7.940151E-18	1.837683E-18
6.360000E+03	7.950175E-18	1.839318E-18
6.370000E+03	7.962617E-18	1.841506E-18
6.380000E+03	7.977365E-18	1.844221E-18
6.390000E+03	7.994416E-18	1.847463E-18
6.400000E+03	8.013658E-18	1.851204E-18
6.410000E+03	8.034861E-18	1.855391E-18
6.420000E+03	8.057898E-18	1.859994E-18
6.430000E+03	8.082764E-18	1.865012E-18
6.440000E+03	8.109450E-18	1.870441E-18
6.450000E+03	8.137954E-18	1.876280E-18
6.460000E+03	8.168389E-18	1.882556E-18
6.470000E+03	8.200881E-18	1.889297E-18
6.480000E+03	8.235430E-18	1.896501E-18
6.490000E+03	8.271916E-18	1.904142E-18
6.500000E+03	8.310595E-18	1.912276E-18
6.510000E+03	8.351478E-18	1.920907E-18
6.520000E+03	8.394447E-18	1.930006E-18
6.530000E+03	8.439640E-18	1.939604E-18
6.540000E+03	8.487073E-18	1.949704E-18
6.550000E+03	8.536627E-18	1.960279E-18
6.560000E+03	8.588312E-18	1.971329E-18
6.570000E+03	8.642416E-18	1.982921E-18
6.580000E+03	8.698544E-18	1.994963E-18
6.590000E+03	8.756989E-18	2.007521E-18
6.600000E+03	8.817771E-18	2.020600E-18
6.610000E+03	8.880621E-18	2.034136E-18
6.620000E+03	8.945846E-18	2.048200E-18
6.630000E+03	9.013170E-18	2.062727E-18
6.640000E+03	9.082907E-18	2.077789E-18
6.650000E+03	9.154780E-18	2.093322E-18
6.660000E+03	9.228956E-18	2.109363E-18
6.670000E+03	9.305458E-18	2.125916E-18
6.680000E+03	9.384146E-18	2.142949E-18
6.690000E+03	9.465042E-18	2.160465E-18
6.700000E+03	9.548323E-18	2.178506E-18
6.710000E+03	9.633851E-18	2.197037E-18
6.720000E+03	9.721644E-18	2.216064E-18
6.730000E+03	9.811723E-18	2.235588E-18
6.740000E+03	9.904108E-18	2.255616E-18
6.750000E+03	9.998822E-18	2.276149E-18
6.760000E+03	1.009589E-17	2.297194E-18
6.770000E+03	1.019515E-17	2.318713E-18
6.780000E+03	1.029680E-17	2.340751E-18
6.790000E+03	1.040087E-17	2.363313E-18
6.800000E+03	1.050720E-17	2.386361E-18
6.810000E+03	1.061600E-17	2.409942E-18
6.820000E+03	1.072709E-17	2.434017E-18
6.830000E+03	1.084051E-17	2.458589E-18
6.840000E+03	1.095626E-17	2.483662E-18
6.850000E+03	1.107437E-17	2.509240E-18
6.860000E+03	1.119506E-17	2.535374E-18
6.870000E+03	1.131795E-17	2.561973E-18
6.880000E+03	1.144327E-17	2.589089E-18
6.890000E+03	1.157102E-17	2.616725E-18
6.900000E+03	1.170102E-17	2.644836E-18
6.910000E+03	1.183351E-17	2.673474E-18
6.920000E+03	1.196849E-17	2.702642E-18
6.930000E+03	1.210577E-17	2.732294E-18
6.940000E+03	1.224535E-17	2.762431E-18
6.950000E+03	1.238749E-17	2.793107E-18
6.960000E+03	1.253197E-17	2.824272E-18
6.970000E+03	1.267879E-17	2.855928E-18
6.980000E+03	1.282796E-17	2.888077E-18
6.990000E+03	1.297950E-17	2.920718E-18
7.000000E+03	1.313316E-17	2.953796E-18
7.010000E+03	1.328945E-17	2.987426E-18
7.020000E+03	1.344787E-17	3.021492E-18
7.030000E+03	1.360867E-17	3.056053E-18
7.040000E+03	1.377159E-17	3.091047E-18
7.050000E+03	1.393663E-17	3.126473E-18
7.060000E+03	1.410406E-17	3.162390E-18
7.070000E+03	1.427358E-17	3.198734E-18
7.080000E+03	1.444492E-17	3.235438E-18
7.090000E+03	1.461862E-17	3.272626E-18
7.100000E+03	1.479440E-17	3.310233E-18
7.110000E+03	1.497192E-17	3.348184E-18
7.120000E+03	1.515147E-17	3.386540E-18
7.130000E+03	1.533273E-17	3.425231E-18
7.140000E+03	1.551598E-17	3.464317E-18
7.150000E+03	1.570087E-17	3.503719E-18
7.160000E+03	1.588769E-17	3.543505E-18
7.170000E+03	1.607578E-17	3.583520E-18
7.180000E+03	1.626539E-17	3.623826E-18
7.190000E+03	1.645685E-17	3.664493E-18
7.200000E+03	1.664942E-17	3.705354E-18
7.210000E+03	1.684304E-17	3.746396E-18
7.220000E+03	1.703801E-17	3.787687E-18
7.230000E+03	1.723429E-17	3.829215E-18
7.240000E+03	1.743144E-17	3.870883E-18
7.250000E+03	1.762976E-17	3.912759E-18
7.260000E+03	1.782884E-17	3.954748E-18
7.270000E+03	1.802858E-17	3.996828E-18
7.280000E+03	1.822930E-17	4.039072E-18
7.290000E+03	1.843052E-17	4.081374E-18
7.300000E+03	1.863256E-17	4.123801E-18
7.310000E+03	1.883495E-17	4.166250E-18
7.320000E+03	1.903759E-17	4.208699E-18
7.330000E+03	1.924123E-17	4.251314E-18
7.340000E+03	1.944495E-17	4.293890E-18
7.350000E+03	1.964953E-17	4.336599E-18
7.360000E+03	1.985445E-17	4.379330E-18
7.370000E+03	2.006012E-17	4.422168E-18
7.380000E+03	2.026690E-17	4.465195E-18
7.390000E+03	2.047431E-17	4.508303E-18
7.400000E+03	2.068325E-17	4.551692E-18
7.410000E+03	2.089369E-17	4.595354E-18
7.420000E+03	2.110612E-17	4.639396E-18
7.430000E+03	2.132056E-17	4.683822E-18
7.440000E+03	2.153705E-17	4.728639E-18
7.450000E+03	2.175613E-17	4.773964E-18
7.460000E+03	2.197680E-17	4.819580E-18
7.470000E+03	2.219911E-17	4.865495E-18
7.480000E+03	2.242256E-17	4.911599E-18
7.490000E+03	2.264768E-17	4.958006E-18
7.500000E+03	2.287396E-17	5.004608E-18
7.510000E+03	2.310088E-17	5.051291E-18
7.520000E+03	2.332845E-17	5.098052E-18
7.530000E+03	2.355667E-17	5.144894E-18
7.540000E+03	2.378495E-17	5.191690E-18
7.550000E+03	2.401391E-17	5.238570E-18
7.560000E+03	2.424233E-17	5.285274E-18
7.570000E+03	2.447138E-17	5.332053E-18
7.580000E+03	2.470046E-17	5.378778E-18
7.590000E+03	2.492956E-17	5.425447E-18
7.600000E+03	2.515803E-17	5.471917E-18
7.610000E+03	2.538640E-17	5.518306E-18
7.620000E+03	2.561463E-17	5.564604E-18
7.630000E+03	2.584264E-17	5.610796E-18
7.640000E+03	2.606971E-17	5.656724E-18
7.650000E+03	2.629636E-17	5.702502E-18
7.660000E+03	2.652180E-17	5.747960E-18
7.670000E+03	2.674721E-17	5.793352E-18
7.680000E+03	2.697043E-17	5.838213E-18
7.690000E+03	2.719329E-17	5.882938E-18
7.700000E+03	2.741491E-17	5.927341E-18
7.710000E+03	2.763441E-17	5.971228E-18
7.720000E+03	2.785224E-17	6.014699E-18
7.730000E+03	2.806817E-17	6.057706E-18
7.740000E+03	2.828194E-17	6.100194E-18
7.750000E+03	2.849331E-17	6.142110E-18
7.760000E+03	2.870276E-17	6.183561E-18
