#wls	flux	fluxerr
1.600000E+03	2.649386E-16	6.894195E-17
1.640000E+03	2.738164E-16	7.125119E-17
1.680000E+03	2.823612E-16	7.347366E-17
1.720000E+03	2.904968E-16	7.558958E-17
1.760000E+03	2.981104E-16	7.756959E-17
1.800000E+03	3.051088E-16	7.938945E-17
1.840000E+03	3.113644E-16	8.101592E-17
1.880000E+03	3.167997E-16	8.242891E-17
1.920000E+03	3.213049E-16	8.359980E-17
1.960000E+03	3.247416E-16	8.449260E-17
2.000000E+03	3.270265E-16	8.508568E-17
2.040000E+03	3.280290E-16	8.534503E-17
2.080000E+03	3.276304E-16	8.523984E-17
2.120000E+03	3.257750E-16	8.475558E-17
2.160000E+03	3.223136E-16	8.385350E-17
2.200000E+03	3.171384E-16	8.250555E-17
2.240000E+03	3.101325E-16	8.068136E-17
2.280000E+03	3.011235E-16	7.833607E-17
2.320000E+03	2.904145E-16	7.554864E-17
2.360000E+03	2.783226E-16	7.240152E-17
2.400000E+03	2.650953E-16	6.895915E-17
2.440000E+03	2.509420E-16	6.527599E-17
2.480000E+03	2.360663E-16	6.140507E-17
2.520000E+03	2.206577E-16	5.739569E-17
2.560000E+03	2.048870E-16	5.329226E-17
2.600000E+03	1.889383E-16	4.914273E-17
2.640000E+03	1.729882E-16	4.499297E-17
2.680000E+03	1.572068E-16	4.088729E-17
2.720000E+03	1.417575E-16	3.686818E-17
2.760000E+03	1.268039E-16	3.297817E-17
2.800000E+03	1.124795E-16	2.925197E-17
2.840000E+03	9.891160E-17	2.572271E-17
2.880000E+03	8.622118E-17	2.242181E-17
2.920000E+03	7.450960E-17	1.937563E-17
2.960000E+03	6.385863E-17	1.660542E-17
3.000000E+03	5.431462E-17	1.412321E-17
3.010000E+03	5.210279E-17	1.354797E-17
3.020000E+03	4.996033E-17	1.299077E-17
3.030000E+03	4.788765E-17	1.245173E-17
3.040000E+03	4.588380E-17	1.193059E-17
3.050000E+03	4.394785E-17	1.142712E-17
3.060000E+03	4.207969E-17	1.094128E-17
3.070000E+03	4.027730E-17	1.047255E-17
3.080000E+03	3.854120E-17	1.002106E-17
3.090000E+03	3.686927E-17	9.586260E-18
3.100000E+03	3.526095E-17	9.168006E-18
3.110000E+03	3.371481E-17	8.765928E-18
3.120000E+03	3.223009E-17	8.379827E-18
3.130000E+03	3.080520E-17	8.009286E-18
3.140000E+03	2.943859E-17	7.653903E-18
3.150000E+03	2.812922E-17	7.313409E-18
3.160000E+03	2.687492E-17	6.987238E-18
3.170000E+03	2.567507E-17	6.675230E-18
3.180000E+03	2.452749E-17	6.376815E-18
3.190000E+03	2.343093E-17	6.091669E-18
3.200000E+03	2.238369E-17	5.819352E-18
3.210000E+03	2.138410E-17	5.559425E-18
3.220000E+03	2.043080E-17	5.311539E-18
3.230000E+03	1.952210E-17	5.075250E-18
3.240000E+03	1.865599E-17	4.850040E-18
3.250000E+03	1.783177E-17	4.635722E-18
3.260000E+03	1.704687E-17	4.431630E-18
3.270000E+03	1.630054E-17	4.237570E-18
3.280000E+03	1.559064E-17	4.052982E-18
3.290000E+03	1.491590E-17	3.877537E-18
3.300000E+03	1.427501E-17	3.710897E-18
3.310000E+03	1.366607E-17	3.552563E-18
3.320000E+03	1.308806E-17	3.402274E-18
3.330000E+03	1.253957E-17	3.259661E-18
3.340000E+03	1.201906E-17	3.124325E-18
3.350000E+03	1.152525E-17	2.995929E-18
3.360000E+03	1.105689E-17	2.874152E-18
3.370000E+03	1.061291E-17	2.758716E-18
3.380000E+03	1.019188E-17	2.649247E-18
3.390000E+03	9.792963E-18	2.545528E-18
3.400000E+03	9.414828E-18	2.447213E-18
3.410000E+03	9.056474E-18	2.354041E-18
3.420000E+03	8.717050E-18	2.265791E-18
3.430000E+03	8.395306E-18	2.182139E-18
3.440000E+03	8.090590E-18	2.102914E-18
3.450000E+03	7.801966E-18	2.027873E-18
3.460000E+03	7.528376E-18	1.956742E-18
3.470000E+03	7.269274E-18	1.889377E-18
3.480000E+03	7.023703E-18	1.825530E-18
3.490000E+03	6.791021E-18	1.765035E-18
3.500000E+03	6.570539E-18	1.707711E-18
3.510000E+03	6.361396E-18	1.653336E-18
3.520000E+03	6.163076E-18	1.601775E-18
3.530000E+03	5.974893E-18	1.552849E-18
3.540000E+03	5.796209E-18	1.506393E-18
3.550000E+03	5.626500E-18	1.462271E-18
3.560000E+03	5.465160E-18	1.420324E-18
3.570000E+03	5.311687E-18	1.380423E-18
3.580000E+03	5.165560E-18	1.342432E-18
3.590000E+03	5.026403E-18	1.306253E-18
3.600000E+03	4.893807E-18	1.271779E-18
3.610000E+03	4.767347E-18	1.238901E-18
3.620000E+03	4.646718E-18	1.207539E-18
3.630000E+03	4.531627E-18	1.177616E-18
3.640000E+03	4.421715E-18	1.149040E-18
3.650000E+03	4.316843E-18	1.121775E-18
3.660000E+03	4.216680E-18	1.095733E-18
3.670000E+03	4.121061E-18	1.070873E-18
3.680000E+03	4.029786E-18	1.047142E-18
3.690000E+03	3.942668E-18	1.024492E-18
3.700000E+03	3.859550E-18	1.002882E-18
3.710000E+03	3.780317E-18	9.822816E-19
3.720000E+03	3.704725E-18	9.626276E-19
3.730000E+03	3.632727E-18	9.439081E-19
3.740000E+03	3.564120E-18	9.260699E-19
3.750000E+03	3.498800E-18	9.090864E-19
3.760000E+03	3.436665E-18	8.929306E-19
3.770000E+03	3.377524E-18	8.775531E-19
3.780000E+03	3.321340E-18	8.629441E-19
3.790000E+03	3.267960E-18	8.490641E-19
3.800000E+03	3.217293E-18	8.358894E-19
3.810000E+03	3.169227E-18	8.233904E-19
3.820000E+03	3.123673E-18	8.115443E-19
3.830000E+03	3.080524E-18	8.003234E-19
3.840000E+03	3.039701E-18	7.897073E-19
3.850000E+03	3.001104E-18	7.796694E-19
3.860000E+03	2.964684E-18	7.701971E-19
3.870000E+03	2.930343E-18	7.612655E-19
3.880000E+03	2.897994E-18	7.528513E-19
3.890000E+03	2.867573E-18	7.449381E-19
3.900000E+03	2.838992E-18	7.375032E-19
3.910000E+03	2.812219E-18	7.305380E-19
3.920000E+03	2.787170E-18	7.240210E-19
3.930000E+03	2.763797E-18	7.179392E-19
3.940000E+03	2.742022E-18	7.122727E-19
3.950000E+03	2.721777E-18	7.070039E-19
3.960000E+03	2.703059E-18	7.021317E-19
3.970000E+03	2.685758E-18	6.976276E-19
3.980000E+03	2.669852E-18	6.934860E-19
3.990000E+03	2.655284E-18	6.896918E-19
4.000000E+03	2.642012E-18	6.862344E-19
4.010000E+03	2.630000E-18	6.831046E-19
4.020000E+03	2.619175E-18	6.802828E-19
4.030000E+03	2.609521E-18	6.777653E-19
4.040000E+03	2.600990E-18	6.755395E-19
4.050000E+03	2.593550E-18	6.735968E-19
4.060000E+03	2.587154E-18	6.719255E-19
4.070000E+03	2.581757E-18	6.705134E-19
4.080000E+03	2.577349E-18	6.693583E-19
4.090000E+03	2.573870E-18	6.684446E-19
4.100000E+03	2.571297E-18	6.677660E-19
4.110000E+03	2.569608E-18	6.673169E-19
4.120000E+03	2.568745E-18	6.670823E-19
4.130000E+03	2.568706E-18	6.670616E-19
4.140000E+03	2.569436E-18	6.672405E-19
4.150000E+03	2.570918E-18	6.676148E-19
4.160000E+03	2.573136E-18	6.681799E-19
4.170000E+03	2.576036E-18	6.689221E-19
4.180000E+03	2.579622E-18	6.698425E-19
4.190000E+03	2.583823E-18	6.709224E-19
4.200000E+03	2.588667E-18	6.721690E-19
4.210000E+03	2.594083E-18	6.735641E-19
4.220000E+03	2.600060E-18	6.751047E-19
4.230000E+03	2.606567E-18	6.767829E-19
4.240000E+03	2.613596E-18	6.785966E-19
4.250000E+03	2.621078E-18	6.805276E-19
4.260000E+03	2.629024E-18	6.825792E-19
4.270000E+03	2.637386E-18	6.847384E-19
4.280000E+03	2.646117E-18	6.869933E-19
4.290000E+03	2.655209E-18	6.893420E-19
4.300000E+03	2.664634E-18	6.917766E-19
4.310000E+03	2.674325E-18	6.942804E-19
4.320000E+03	2.684254E-18	6.968458E-19
4.330000E+03	2.694395E-18	6.994660E-19
4.340000E+03	2.704719E-18	7.021334E-19
4.350000E+03	2.715200E-18	7.048417E-19
4.360000E+03	2.725834E-18	7.075892E-19
4.370000E+03	2.736592E-18	7.103691E-19
4.380000E+03	2.747449E-18	7.131743E-19
4.390000E+03	2.758448E-18	7.160162E-19
4.400000E+03	2.769561E-18	7.188875E-19
4.410000E+03	2.780788E-18	7.217883E-19
4.420000E+03	2.792153E-18	7.247244E-19
4.430000E+03	2.803652E-18	7.276956E-19
4.440000E+03	2.815270E-18	7.306970E-19
4.450000E+03	2.827027E-18	7.337347E-19
4.460000E+03	2.838909E-18	7.368044E-19
4.470000E+03	2.850921E-18	7.399078E-19
4.480000E+03	2.863067E-18	7.430457E-19
4.490000E+03	2.875310E-18	7.462084E-19
4.500000E+03	2.887681E-18	7.494044E-19
4.510000E+03	2.900167E-18	7.526299E-19
4.520000E+03	2.912756E-18	7.558818E-19
4.530000E+03	2.925461E-18	7.591637E-19
4.540000E+03	2.938244E-18	7.624657E-19
4.550000E+03	2.951124E-18	7.657925E-19
4.560000E+03	2.964114E-18	7.691475E-19
4.570000E+03	2.977208E-18	7.725295E-19
4.580000E+03	2.990376E-18	7.759303E-19
4.590000E+03	3.003633E-18	7.793543E-19
4.600000E+03	3.016981E-18	7.828014E-19
4.610000E+03	3.030412E-18	7.862699E-19
4.620000E+03	3.043953E-18	7.897666E-19
4.630000E+03	3.057573E-18	7.932834E-19
4.640000E+03	3.071300E-18	7.968281E-19
4.650000E+03	3.085136E-18	8.004004E-19
4.660000E+03	3.099077E-18	8.040001E-19
4.670000E+03	3.113132E-18	8.076288E-19
4.680000E+03	3.127299E-18	8.112865E-19
4.690000E+03	3.141583E-18	8.149741E-19
4.700000E+03	3.156046E-18	8.187080E-19
4.710000E+03	3.170692E-18	8.224891E-19
4.720000E+03	3.185529E-18	8.263194E-19
4.730000E+03	3.200620E-18	8.302154E-19
4.740000E+03	3.215949E-18	8.341729E-19
4.750000E+03	3.231525E-18	8.381940E-19
4.760000E+03	3.247385E-18	8.422885E-19
4.770000E+03	3.263543E-18	8.464600E-19
4.780000E+03	3.279981E-18	8.507040E-19
4.790000E+03	3.296740E-18	8.550305E-19
4.800000E+03	3.313832E-18	8.594435E-19
4.810000E+03	3.331242E-18	8.639386E-19
4.820000E+03	3.349015E-18	8.685272E-19
4.830000E+03	3.367164E-18	8.732132E-19
4.840000E+03	3.385704E-18	8.780003E-19
4.850000E+03	3.404651E-18	8.828923E-19
4.860000E+03	3.423989E-18	8.878855E-19
4.870000E+03	3.443796E-18	8.930000E-19
4.880000E+03	3.464027E-18	8.982241E-19
4.890000E+03	3.484695E-18	9.035611E-19
4.900000E+03	3.505853E-18	9.090245E-19
4.910000E+03	3.527514E-18	9.146182E-19
4.920000E+03	3.549696E-18	9.203467E-19
4.930000E+03	3.572352E-18	9.261974E-19
4.940000E+03	3.595564E-18	9.321918E-19
4.950000E+03	3.619315E-18	9.383257E-19
4.960000E+03	3.643621E-18	9.446028E-19
4.970000E+03	3.668501E-18	9.510283E-19
4.980000E+03	3.693967E-18	9.576054E-19
4.990000E+03	3.720005E-18	9.643301E-19
5.000000E+03	3.746628E-18	9.712060E-19
5.010000E+03	3.773887E-18	9.782462E-19
5.020000E+03	3.801761E-18	9.854453E-19
5.030000E+03	3.830226E-18	9.927973E-19
5.040000E+03	3.859374E-18	1.000325E-18
5.050000E+03	3.889104E-18	1.008004E-18
5.060000E+03	3.919504E-18	1.015856E-18
5.070000E+03	3.950584E-18	1.023883E-18
5.080000E+03	3.982247E-18	1.032061E-18
5.090000E+03	4.014615E-18	1.040420E-18
5.100000E+03	4.047620E-18	1.048945E-18
5.110000E+03	4.081273E-18	1.057636E-18
5.120000E+03	4.115622E-18	1.066508E-18
5.130000E+03	4.150593E-18	1.075539E-18
5.140000E+03	4.186195E-18	1.084734E-18
5.150000E+03	4.222473E-18	1.094103E-18
5.160000E+03	4.259392E-18	1.103637E-18
5.170000E+03	4.296954E-18	1.113338E-18
5.180000E+03	4.335121E-18	1.123194E-18
5.190000E+03	4.373937E-18	1.133218E-18
5.200000E+03	4.413316E-18	1.143386E-18
5.210000E+03	4.453341E-18	1.153722E-18
5.220000E+03	4.493969E-18	1.164212E-18
5.230000E+03	4.535151E-18	1.174846E-18
5.240000E+03	4.576881E-18	1.185620E-18
5.250000E+03	4.619195E-18	1.196545E-18
5.260000E+03	4.661996E-18	1.207595E-18
5.270000E+03	4.705317E-18	1.218779E-18
5.280000E+03	4.749190E-18	1.230105E-18
5.290000E+03	4.793463E-18	1.241534E-18
5.300000E+03	4.838259E-18	1.253097E-18
5.310000E+03	4.883415E-18	1.264753E-18
5.320000E+03	4.929055E-18	1.276533E-18
5.330000E+03	4.975010E-18	1.288393E-18
5.340000E+03	5.021352E-18	1.300353E-18
5.350000E+03	5.068052E-18	1.312405E-18
5.360000E+03	5.115028E-18	1.324526E-18
5.370000E+03	5.162352E-18	1.336737E-18
5.380000E+03	5.209830E-18	1.348987E-18
5.390000E+03	5.257583E-18	1.361307E-18
5.400000E+03	5.305518E-18	1.373673E-18
5.410000E+03	5.353588E-18	1.386073E-18
5.420000E+03	5.401750E-18	1.398496E-18
5.430000E+03	5.449953E-18	1.410928E-18
5.440000E+03	5.498090E-18	1.423342E-18
5.450000E+03	5.546106E-18	1.435723E-18
5.460000E+03	5.593939E-18	1.448056E-18
5.470000E+03	5.641528E-18	1.460325E-18
5.480000E+03	5.688752E-18	1.472498E-18
5.490000E+03	5.735479E-18	1.484542E-18
5.500000E+03	5.781699E-18	1.496453E-18
5.510000E+03	5.827276E-18	1.508196E-18
5.520000E+03	5.872073E-18	1.519737E-18
5.530000E+03	5.915947E-18	1.531037E-18
5.540000E+03	5.958874E-18	1.542092E-18
5.550000E+03	6.000649E-18	1.552847E-18
5.560000E+03	6.041242E-18	1.563295E-18
5.570000E+03	6.080443E-18	1.573382E-18
5.580000E+03	6.118160E-18	1.583083E-18
5.590000E+03	6.154362E-18	1.592392E-18
5.600000E+03	6.188837E-18	1.601253E-18
5.610000E+03	6.221557E-18	1.609659E-18
5.620000E+03	6.252435E-18	1.617588E-18
5.630000E+03	6.281321E-18	1.625000E-18
5.640000E+03	6.308131E-18	1.631874E-18
5.650000E+03	6.332853E-18	1.638208E-18
5.660000E+03	6.355409E-18	1.643980E-18
5.670000E+03	6.375665E-18	1.649156E-18
5.680000E+03	6.393622E-18	1.653737E-18
5.690000E+03	6.409284E-18	1.657724E-18
5.700000E+03	6.422466E-18	1.661069E-18
5.710000E+03	6.433186E-18	1.663776E-18
5.720000E+03	6.441473E-18	1.665854E-18
5.730000E+03	6.447291E-18	1.667292E-18
5.740000E+03	6.450618E-18	1.668086E-18
5.750000E+03	6.451433E-18	1.668230E-18
5.760000E+03	6.449728E-18	1.667722E-18
5.770000E+03	6.445567E-18	1.666579E-18
5.780000E+03	6.438889E-18	1.664784E-18
5.790000E+03	6.429843E-18	1.662378E-18
5.800000E+03	6.418383E-18	1.659347E-18
5.810000E+03	6.404538E-18	1.655699E-18
5.820000E+03	6.388483E-18	1.651480E-18
5.830000E+03	6.370124E-18	1.646665E-18
5.840000E+03	6.349579E-18	1.641286E-18
5.850000E+03	6.326978E-18	1.635375E-18
5.860000E+03	6.302312E-18	1.628930E-18
5.870000E+03	6.275721E-18	1.621988E-18
5.880000E+03	6.247212E-18	1.614551E-18
5.890000E+03	6.217003E-18	1.606674E-18
5.900000E+03	6.185107E-18	1.598362E-18
5.910000E+03	6.151611E-18	1.589637E-18
5.920000E+03	6.116676E-18	1.580541E-18
5.930000E+03	6.080326E-18	1.571079E-18
5.940000E+03	6.042725E-18	1.561294E-18
5.950000E+03	6.003902E-18	1.551194E-18
5.960000E+03	5.964021E-18	1.540822E-18
5.970000E+03	5.923182E-18	1.530202E-18
5.980000E+03	5.881481E-18	1.519361E-18
5.990000E+03	5.838949E-18	1.508306E-18
6.000000E+03	5.795750E-18	1.497078E-18
6.010000E+03	5.751978E-18	1.485704E-18
6.020000E+03	5.707661E-18	1.474189E-18
6.030000E+03	5.662954E-18	1.462575E-18
6.040000E+03	5.617882E-18	1.450867E-18
6.050000E+03	5.572463E-18	1.439070E-18
6.060000E+03	5.526914E-18	1.427240E-18
6.070000E+03	5.481185E-18	1.415365E-18
6.080000E+03	5.435417E-18	1.403480E-18
6.090000E+03	5.389555E-18	1.391572E-18
6.100000E+03	5.343736E-18	1.379676E-18
6.110000E+03	5.297962E-18	1.367792E-18
6.120000E+03	5.252299E-18	1.355938E-18
6.130000E+03	5.206806E-18	1.344128E-18
6.140000E+03	5.161479E-18	1.332362E-18
6.150000E+03	5.116369E-18	1.320653E-18
6.160000E+03	5.071532E-18	1.309016E-18
6.170000E+03	5.027011E-18	1.297460E-18
6.180000E+03	4.982854E-18	1.286000E-18
6.190000E+03	4.939034E-18	1.274627E-18
6.200000E+03	4.895654E-18	1.263369E-18
6.210000E+03	4.852748E-18	1.252233E-18
6.220000E+03	4.810345E-18	1.241229E-18
6.230000E+03	4.768537E-18	1.230378E-18
6.240000E+03	4.727408E-18	1.219704E-18
6.250000E+03	4.687042E-18	1.209228E-18
6.260000E+03	4.647520E-18	1.198969E-18
6.270000E+03	4.608917E-18	1.188949E-18
6.280000E+03	4.571371E-18	1.179203E-18
6.290000E+03	4.534827E-18	1.169715E-18
6.300000E+03	4.499543E-18	1.160553E-18
6.310000E+03	4.465462E-18	1.151702E-18
6.320000E+03	4.432710E-18	1.143195E-18
6.330000E+03	4.401353E-18	1.135047E-18
6.340000E+03	4.371453E-18	1.127277E-18
6.350000E+03	4.343011E-18	1.119882E-18
6.360000E+03	4.316090E-18	1.112881E-18
6.370000E+03	4.290751E-18	1.106287E-18
6.380000E+03	4.266993E-18	1.100102E-18
6.390000E+03	4.244817E-18	1.094325E-18
6.400000E+03	4.224282E-18	1.088972E-18
6.410000E+03	4.205267E-18	1.084010E-18
6.420000E+03	4.187768E-18	1.079440E-18
6.430000E+03	4.171727E-18	1.075246E-18
6.440000E+03	4.157015E-18	1.071394E-18
6.450000E+03	4.143698E-18	1.067903E-18
6.460000E+03	4.131646E-18	1.064737E-18
6.470000E+03	4.120922E-18	1.061913E-18
6.480000E+03	4.111526E-18	1.059432E-18
6.490000E+03	4.103391E-18	1.057276E-18
6.500000E+03	4.096519E-18	1.055445E-18
6.510000E+03	4.090908E-18	1.053939E-18
6.520000E+03	4.086557E-18	1.052758E-18
6.530000E+03	4.083467E-18	1.051901E-18
6.540000E+03	4.081699E-18	1.051385E-18
6.550000E+03	4.081192E-18	1.051193E-18
6.560000E+03	4.081879E-18	1.051309E-18
6.570000E+03	4.083892E-18	1.051766E-18
6.580000E+03	4.087101E-18	1.052530E-18
6.590000E+03	4.091574E-18	1.053620E-18
6.600000E+03	4.097310E-18	1.055035E-18
6.610000E+03	4.104315E-18	1.056775E-18
6.620000E+03	4.112588E-18	1.058842E-18
6.630000E+03	4.122067E-18	1.061219E-18
6.640000E+03	4.132819E-18	1.063923E-18
6.650000E+03	4.144782E-18	1.066939E-18
6.660000E+03	4.158027E-18	1.070283E-18
6.670000E+03	4.172491E-18	1.073941E-18
6.680000E+03	4.188173E-18	1.077911E-18
6.690000E+03	4.205151E-18	1.082215E-18
6.700000E+03	4.223433E-18	1.086853E-18
6.710000E+03	4.242877E-18	1.091789E-18
6.720000E+03	4.263634E-18	1.097062E-18
6.730000E+03	4.285565E-18	1.102637E-18
6.740000E+03	4.308820E-18	1.108551E-18
6.750000E+03	4.333334E-18	1.114788E-18
6.760000E+03	4.359036E-18	1.121330E-18
6.770000E+03	4.386087E-18	1.128217E-18
6.780000E+03	4.414338E-18	1.135412E-18
6.790000E+03	4.443875E-18	1.142937E-18
6.800000E+03	4.474703E-18	1.150792E-18
6.810000E+03	4.506832E-18	1.158981E-18
6.820000E+03	4.540189E-18	1.167485E-18
6.830000E+03	4.574862E-18	1.176325E-18
6.840000E+03	4.610777E-18	1.185483E-18
6.850000E+03	4.648022E-18	1.194982E-18
6.860000E+03	4.686523E-18	1.204802E-18
6.870000E+03	4.726285E-18	1.214945E-18
6.880000E+03	4.767403E-18	1.225435E-18
6.890000E+03	4.809710E-18	1.236228E-18
6.900000E+03	4.853388E-18	1.247373E-18
6.910000E+03	4.898357E-18	1.258847E-18
6.920000E+03	4.944621E-18	1.270653E-18
6.930000E+03	4.992190E-18	1.282792E-18
6.940000E+03	5.041071E-18	1.295266E-18
6.950000E+03	5.091171E-18	1.308052E-18
6.960000E+03	5.142594E-18	1.321175E-18
6.970000E+03	5.195344E-18	1.334638E-18
6.980000E+03	5.249431E-18	1.348442E-18
6.990000E+03	5.304654E-18	1.362535E-18
7.000000E+03	5.361325E-18	1.376998E-18
7.010000E+03	5.419139E-18	1.391753E-18
7.020000E+03	5.478305E-18	1.406852E-18
7.030000E+03	5.538721E-18	1.422270E-18
7.040000E+03	5.600392E-18	1.438008E-18
7.050000E+03	5.663317E-18	1.454066E-18
7.060000E+03	5.727498E-18	1.470443E-18
7.070000E+03	5.792820E-18	1.487111E-18
7.080000E+03	5.859395E-18	1.504098E-18
7.090000E+03	5.927225E-18	1.521405E-18
7.100000E+03	5.996188E-18	1.538999E-18
7.110000E+03	6.066402E-18	1.556912E-18
7.120000E+03	6.137738E-18	1.575111E-18
7.130000E+03	6.210195E-18	1.593594E-18
7.140000E+03	6.283763E-18	1.612359E-18
7.150000E+03	6.358564E-18	1.631438E-18
7.160000E+03	6.434329E-18	1.650761E-18
7.170000E+03	6.511046E-18	1.670326E-18
7.180000E+03	6.588970E-18	1.690197E-18
7.190000E+03	6.667821E-18	1.710302E-18
7.200000E+03	6.747580E-18	1.730638E-18
7.210000E+03	6.828371E-18	1.751235E-18
7.220000E+03	6.910038E-18	1.772053E-18
7.230000E+03	6.992558E-18	1.793087E-18
7.240000E+03	7.075909E-18	1.814331E-18
7.250000E+03	7.160068E-18	1.835779E-18
7.260000E+03	7.245172E-18	1.857466E-18
7.270000E+03	7.330881E-18	1.879304E-18
7.280000E+03	7.417487E-18	1.901369E-18
7.290000E+03	7.504805E-18	1.923613E-18
7.300000E+03	7.592808E-18	1.946029E-18
7.310000E+03	7.681635E-18	1.968653E-18
7.320000E+03	7.771092E-18	1.991435E-18
7.330000E+03	7.861322E-18	2.014412E-18
7.340000E+03	7.952302E-18	2.037577E-18
7.350000E+03	8.044183E-18	2.060969E-18
7.360000E+03	8.136951E-18	2.084585E-18
7.370000E+03	8.230770E-18	2.108466E-18
7.380000E+03	8.325442E-18	2.132563E-18
7.390000E+03	8.421526E-18	2.157017E-18
7.400000E+03	8.519025E-18	2.181830E-18
7.410000E+03	8.617748E-18	2.206952E-18
7.420000E+03	8.718296E-18	2.232538E-18
7.430000E+03	8.820491E-18	2.258542E-18
7.440000E+03	8.924558E-18	2.285021E-18
7.450000E+03	9.030307E-18	2.311927E-18
7.460000E+03	9.137970E-18	2.339319E-18
7.470000E+03	9.246918E-18	2.367035E-18
7.480000E+03	9.357589E-18	2.395188E-18
7.490000E+03	9.469322E-18	2.423609E-18
7.500000E+03	9.582326E-18	2.452351E-18
7.510000E+03	9.696363E-18	2.481353E-18
7.520000E+03	9.811180E-18	2.510549E-18
7.530000E+03	9.926984E-18	2.539994E-18
7.540000E+03	1.004302E-17	2.569495E-18
7.550000E+03	1.015973E-17	2.599163E-18
7.560000E+03	1.027684E-17	2.628927E-18
7.570000E+03	1.039428E-17	2.658773E-18
7.580000E+03	1.051175E-17	2.688623E-18
7.590000E+03	1.062945E-17	2.718527E-18
7.600000E+03	1.074707E-17	2.748404E-18
7.610000E+03	1.086453E-17	2.778238E-18
7.620000E+03	1.098204E-17	2.808079E-18
7.630000E+03	1.109926E-17	2.837842E-18
7.640000E+03	1.121640E-17	2.867581E-18
7.650000E+03	1.133283E-17	2.897132E-18
7.660000E+03	1.144903E-17	2.926622E-18
7.670000E+03	1.156465E-17	2.955959E-18
7.680000E+03	1.167989E-17	2.985196E-18
7.690000E+03	1.179440E-17	3.014240E-18
7.700000E+03	1.190808E-17	3.043068E-18
7.710000E+03	1.202084E-17	3.071658E-18
7.720000E+03	1.213323E-17	3.100148E-18
7.730000E+03	1.224422E-17	3.128279E-18
7.740000E+03	1.235469E-17	3.156270E-18
7.750000E+03	1.246390E-17	3.183936E-18
7.760000E+03	1.257210E-17	3.211341E-18
