#wls	flux	fluxerr
1.600000E+03	-3.534517E-17	-9.026291E-17
1.640000E+03	-3.935067E-17	-1.005903E-16
1.680000E+03	-4.367076E-17	-1.117448E-16
1.720000E+03	-4.831096E-17	-1.237438E-16
1.760000E+03	-5.327738E-17	-1.366061E-16
1.800000E+03	-5.744505E-17	-1.472832E-16
1.840000E+03	-6.180620E-17	-1.584547E-16
1.880000E+03	-6.634875E-17	-1.700897E-16
1.920000E+03	-7.105052E-17	-1.821311E-16
1.960000E+03	-7.431572E-17	-1.902401E-16
2.000000E+03	-7.754491E-17	-1.982288E-16
2.040000E+03	-8.070861E-17	-2.060217E-16
2.080000E+03	-8.374775E-17	-2.134680E-16
2.120000E+03	-8.458662E-17	-2.149586E-16
2.160000E+03	-8.511330E-17	-2.156335E-16
2.200000E+03	-8.527574E-17	-2.153681E-16
2.240000E+03	-8.505469E-17	-2.141222E-16
2.280000E+03	-8.204144E-17	-2.054983E-16
2.320000E+03	-7.865742E-17	-1.960101E-16
2.360000E+03	-7.495532E-17	-1.858041E-16
2.400000E+03	-7.099531E-17	-1.750432E-16
2.440000E+03	-6.434549E-17	-1.574561E-16
2.480000E+03	-5.771953E-17	-1.401575E-16
2.520000E+03	-5.119428E-17	-1.233363E-16
2.560000E+03	-4.483526E-17	-1.071485E-16
2.600000E+03	-3.637854E-17	-8.602236E-17
2.640000E+03	-2.847928E-17	-6.661757E-17
2.680000E+03	-2.118230E-17	-4.900234E-17
2.720000E+03	-1.452333E-17	-3.321844E-17
2.760000E+03	-6.672474E-18	-1.504504E-17
2.800000E+03	1.353183E-19	3.006838E-19
2.840000E+03	5.919685E-18	1.295828E-17
2.880000E+03	1.071650E-17	2.310140E-17
2.920000E+03	1.552640E-17	3.285855E-17
2.960000E+03	1.916245E-17	3.979484E-17
3.000000E+03	2.174448E-17	4.429154E-17
3.010000E+03	2.224039E-17	4.507963E-17
3.020000E+03	2.274462E-17	4.585461E-17
3.030000E+03	2.318597E-17	4.649237E-17
3.040000E+03	2.356743E-17	4.700092E-17
3.050000E+03	2.389147E-17	4.738707E-17
3.060000E+03	2.417714E-17	4.768026E-17
3.070000E+03	2.440668E-17	4.785681E-17
3.080000E+03	2.458274E-17	4.792378E-17
3.090000E+03	2.470795E-17	4.788811E-17
3.100000E+03	2.479227E-17	4.776035E-17
3.110000E+03	2.482834E-17	4.753822E-17
3.120000E+03	2.481837E-17	4.722759E-17
3.130000E+03	2.476604E-17	4.683705E-17
3.140000E+03	2.467148E-17	4.635807E-17
3.150000E+03	2.453673E-17	4.580642E-17
3.160000E+03	2.436494E-17	4.518940E-17
3.170000E+03	2.415820E-17	4.451224E-17
3.180000E+03	2.391100E-17	4.375618E-17
3.190000E+03	2.363183E-17	4.294839E-17
3.200000E+03	2.332363E-17	4.209538E-17
3.210000E+03	2.298879E-17	4.120253E-17
3.220000E+03	2.261490E-17	4.023937E-17
3.230000E+03	2.221735E-17	3.924439E-17
3.240000E+03	2.179837E-17	3.822235E-17
3.250000E+03	2.136009E-17	3.717782E-17
3.260000E+03	2.088552E-17	3.607358E-17
3.270000E+03	2.039442E-17	3.495401E-17
3.280000E+03	1.988870E-17	3.382295E-17
3.290000E+03	1.936982E-17	3.268347E-17
3.300000E+03	1.881731E-17	3.149413E-17
3.310000E+03	1.825405E-17	3.030242E-17
3.320000E+03	1.768181E-17	2.911170E-17
3.330000E+03	1.710173E-17	2.792413E-17
3.340000E+03	1.648969E-17	2.669433E-17
3.350000E+03	1.587193E-17	2.547290E-17
3.360000E+03	1.524908E-17	2.426101E-17
3.370000E+03	1.462256E-17	2.306110E-17
3.380000E+03	1.396506E-17	2.182504E-17
3.390000E+03	1.330506E-17	2.060430E-17
3.400000E+03	1.264326E-17	1.940001E-17
3.410000E+03	1.197993E-17	1.821256E-17
3.420000E+03	1.128665E-17	1.699482E-17
3.430000E+03	1.059279E-17	1.579676E-17
3.440000E+03	9.898756E-18	1.461890E-17
3.450000E+03	9.204846E-18	1.346163E-17
3.460000E+03	8.481002E-18	1.227812E-17
3.470000E+03	7.757883E-18	1.111733E-17
3.480000E+03	7.035419E-18	9.979032E-18
3.490000E+03	6.313693E-18	8.863206E-18
3.500000E+03	5.562093E-18	7.725161E-18
3.510000E+03	4.811638E-18	6.611357E-18
3.520000E+03	4.062157E-18	5.521393E-18
3.530000E+03	3.313539E-18	4.454956E-18
3.540000E+03	2.535308E-18	3.370471E-18
3.550000E+03	1.758279E-18	2.311106E-18
3.560000E+03	9.823580E-19	1.276548E-18
3.570000E+03	2.074080E-19	2.664344E-19
3.580000E+03	-5.956647E-19	-7.561523E-19
3.590000E+03	-1.397170E-18	-1.752508E-18
3.600000E+03	-2.197176E-18	-2.722944E-18
3.610000E+03	-2.995741E-18	-3.667753E-18
3.620000E+03	-3.816214E-18	-4.614150E-18
3.630000E+03	-4.634076E-18	-5.532767E-18
3.640000E+03	-5.449326E-18	-6.423897E-18
3.650000E+03	-6.261816E-18	-7.287656E-18
3.660000E+03	-7.087204E-18	-8.140131E-18
3.670000E+03	-7.907871E-18	-8.962687E-18
3.680000E+03	-8.723553E-18	-9.755428E-18
3.690000E+03	-9.533861E-18	-1.051834E-17
3.700000E+03	-1.034581E-17	-1.125644E-17
3.710000E+03	-1.114951E-17	-1.196188E-17
3.720000E+03	-1.194424E-17	-1.263447E-17
3.730000E+03	-1.272915E-17	-1.327391E-17
3.740000E+03	-1.350220E-17	-1.387502E-17
3.750000E+03	-1.426144E-17	-1.443995E-17
3.760000E+03	-1.500585E-17	-1.496851E-17
3.770000E+03	-1.573448E-17	-1.546062E-17
3.780000E+03	-1.643416E-17	-1.590021E-17
3.790000E+03	-1.711272E-17	-1.630020E-17
3.800000E+03	-1.776833E-17	-1.666003E-17
3.810000E+03	-1.839952E-17	-1.697951E-17
3.820000E+03	-1.898203E-17	-1.723338E-17
3.830000E+03	-1.953317E-17	-1.744380E-17
3.840000E+03	-2.005081E-17	-1.761043E-17
3.850000E+03	-2.053289E-17	-1.773313E-17
3.860000E+03	-2.094233E-17	-1.777756E-17
3.870000E+03	-2.130760E-17	-1.777532E-17
3.880000E+03	-2.162573E-17	-1.772598E-17
3.890000E+03	-2.189391E-17	-1.762942E-17
3.900000E+03	-2.206159E-17	-1.744363E-17
3.910000E+03	-2.216874E-17	-1.720842E-17
3.920000E+03	-2.221190E-17	-1.692377E-17
3.930000E+03	-2.218714E-17	-1.658948E-17
3.940000E+03	-2.202947E-17	-1.615700E-17
3.950000E+03	-2.179149E-17	-1.567372E-17
3.960000E+03	-2.146829E-17	-1.513950E-17
3.970000E+03	-2.105574E-17	-1.455494E-17
3.980000E+03	-2.047315E-17	-1.386596E-17
3.990000E+03	-1.978597E-17	-1.312618E-17
4.000000E+03	-1.898888E-17	-1.233626E-17
4.010000E+03	-1.807602E-17	-1.149669E-17
4.020000E+03	-1.695130E-17	-1.054999E-17
4.030000E+03	-1.569368E-17	-9.554955E-18
4.040000E+03	-1.429652E-17	-8.512553E-18
4.050000E+03	-1.275287E-17	-7.423847E-18
4.060000E+03	-1.095056E-17	-6.229249E-18
4.070000E+03	-8.982034E-18	-4.991252E-18
4.080000E+03	-6.839438E-18	-3.711438E-18
4.090000E+03	-4.514655E-18	-2.391544E-18
4.100000E+03	-1.879510E-18	-9.714270E-19
4.110000E+03	9.603868E-19	4.841259E-19
4.120000E+03	4.014284E-18	1.972851E-18
4.130000E+03	7.291779E-18	3.492315E-18
4.140000E+03	1.093589E-17	5.101520E-18
4.150000E+03	1.482899E-17	6.734880E-18
4.160000E+03	1.898198E-17	8.389389E-18
4.170000E+03	2.340615E-17	1.006184E-17
4.180000E+03	2.825786E-17	1.180886E-17
4.190000E+03	3.340892E-17	1.356516E-17
4.200000E+03	3.887235E-17	1.532703E-17
4.210000E+03	4.466192E-17	1.709059E-17
4.220000E+03	5.094342E-17	1.890876E-17
4.230000E+03	5.758245E-17	2.071803E-17
4.240000E+03	6.459370E-17	2.251361E-17
4.250000E+03	7.199358E-17	2.429082E-17
4.260000E+03	7.995451E-17	2.609908E-17
4.270000E+03	8.833805E-17	2.787632E-17
4.280000E+03	9.716359E-17	2.961746E-17
4.290000E+03	1.064474E-16	3.131594E-17
4.300000E+03	1.163644E-16	3.301897E-17
4.310000E+03	1.267786E-16	3.466559E-17
4.320000E+03	1.377105E-16	3.624913E-17
4.330000E+03	1.491799E-16	3.776221E-17
4.340000E+03	1.613524E-16	3.925113E-17
4.350000E+03	1.741024E-16	4.065416E-17
4.360000E+03	1.874503E-16	4.196293E-17
4.370000E+03	2.014229E-16	4.316994E-17
4.380000E+03	2.161622E-16	4.432470E-17
4.390000E+03	2.315642E-16	4.536098E-17
4.400000E+03	2.476480E-16	4.626871E-17
4.410000E+03	2.644349E-16	4.703775E-17
4.420000E+03	2.820218E-16	4.772949E-17
4.430000E+03	3.003278E-16	4.826388E-17
4.440000E+03	3.193620E-16	4.862902E-17
4.450000E+03	3.391308E-16	4.881254E-17
4.460000E+03	3.594882E-16	4.888214E-17
4.470000E+03	3.805612E-16	4.875643E-17
4.480000E+03	4.023500E-16	4.842405E-17
4.490000E+03	4.248557E-16	4.787394E-17
4.500000E+03	4.469456E-16	4.715110E-17
4.510000E+03	4.696612E-16	4.621447E-17
4.520000E+03	4.929979E-16	4.505562E-17
4.530000E+03	5.169436E-16	4.366580E-17
4.540000E+03	5.390170E-16	4.217374E-17
4.550000E+03	5.615183E-16	4.048218E-17
4.560000E+03	5.844231E-16	3.858609E-17
4.570000E+03	6.076976E-16	3.648056E-17
4.580000E+03	6.273046E-16	3.465409E-17
4.590000E+03	6.470280E-16	3.268599E-17
4.600000E+03	6.668014E-16	3.057442E-17
4.610000E+03	6.865765E-16	2.831952E-17
4.620000E+03	7.007578E-16	2.730292E-17
4.630000E+03	7.146459E-16	2.623181E-17
4.640000E+03	7.281784E-16	2.510684E-17
4.650000E+03	7.412761E-16	2.392858E-17
4.660000E+03	7.464946E-16	2.468441E-17
4.670000E+03	7.510212E-16	2.541895E-17
4.680000E+03	7.548056E-16	2.612883E-17
4.690000E+03	7.577845E-16	2.681008E-17
4.700000E+03	7.512937E-16	2.854132E-17
4.710000E+03	7.439599E-16	3.019336E-17
4.720000E+03	7.357661E-16	3.175932E-17
4.730000E+03	7.266971E-16	3.323229E-17
4.740000E+03	7.095621E-16	3.462702E-17
4.750000E+03	6.918428E-16	3.588228E-17
4.760000E+03	6.735957E-16	3.699613E-17
4.770000E+03	6.548728E-16	3.796706E-17
4.780000E+03	6.304035E-16	3.845574E-17
4.790000E+03	6.058977E-16	3.879596E-17
4.800000E+03	5.814213E-16	3.899160E-17
4.810000E+03	5.570447E-16	3.904760E-17
4.820000E+03	5.292819E-16	3.859980E-17
4.830000E+03	5.020559E-16	3.803989E-17
4.840000E+03	4.754243E-16	3.737629E-17
4.850000E+03	4.494553E-16	3.661894E-17
4.860000E+03	4.220892E-16	3.548447E-17
4.870000E+03	3.956948E-16	3.429660E-17
4.880000E+03	3.703016E-16	3.306472E-17
4.890000E+03	3.459390E-16	3.179854E-17
4.900000E+03	3.216099E-16	3.032052E-17
4.910000E+03	2.984597E-16	2.884493E-17
4.920000E+03	2.764887E-16	2.737943E-17
4.930000E+03	2.556874E-16	2.593080E-17
4.940000E+03	2.357703E-16	2.441641E-17
4.950000E+03	2.170279E-16	2.294264E-17
4.960000E+03	1.994372E-16	2.151411E-17
4.970000E+03	1.829650E-16	2.013419E-17
4.980000E+03	1.677406E-16	1.878987E-17
4.990000E+03	1.535360E-16	1.750245E-17
5.000000E+03	1.403157E-16	1.627364E-17
5.010000E+03	1.280381E-16	1.510423E-17
5.020000E+03	1.170453E-16	1.402547E-17
5.030000E+03	1.068484E-16	1.300260E-17
5.040000E+03	9.740725E-17	1.203511E-17
5.050000E+03	8.868456E-17	1.112255E-17
5.060000E+03	8.111173E-17	1.032046E-17
5.070000E+03	7.410294E-17	9.563120E-18
5.080000E+03	6.762627E-17	8.849556E-18
5.090000E+03	6.165282E-17	8.178947E-18
5.100000E+03	5.663549E-17	7.617491E-18
5.110000E+03	5.198415E-17	7.086741E-18
5.120000E+03	4.767998E-17	6.586306E-18
5.130000E+03	4.370140E-17	6.115241E-18
5.140000E+03	4.047431E-17	5.739090E-18
5.150000E+03	3.746851E-17	5.381839E-18
5.160000E+03	3.467168E-17	5.043136E-18
5.170000E+03	3.207237E-17	4.722642E-18
5.180000E+03	3.000815E-17	4.472783E-18
5.190000E+03	2.807219E-17	4.233992E-18
5.200000E+03	2.625814E-17	4.006178E-18
5.210000E+03	2.455916E-17	3.789096E-18
5.220000E+03	2.323411E-17	3.623026E-18
5.230000E+03	2.198136E-17	3.463250E-18
5.240000E+03	2.079758E-17	3.309729E-18
5.250000E+03	1.967962E-17	3.162421E-18
5.260000E+03	1.883181E-17	3.053136E-18
5.270000E+03	1.802287E-17	2.947196E-18
5.280000E+03	1.725162E-17	2.844664E-18
5.290000E+03	1.651629E-17	2.745492E-18
5.300000E+03	1.598448E-17	2.675799E-18
5.310000E+03	1.547189E-17	2.607648E-18
5.320000E+03	1.497815E-17	2.541106E-18
5.330000E+03	1.450249E-17	2.476158E-18
5.340000E+03	1.416967E-17	2.432325E-18
5.350000E+03	1.384572E-17	2.389081E-18
5.359604E+03	1.019325E-16	1.767367E-17
5.359804E+03	1.014941E-16	1.759940E-17
5.362803E+03	1.000907E-16	1.737921E-17
5.364804E+03	9.903805E-17	1.721161E-17
5.367004E+03	9.790578E-17	1.703125E-17
5.368004E+03	9.719625E-17	1.691520E-17
5.371005E+03	9.582733E-17	1.669782E-17
5.372005E+03	9.513966E-17	1.658485E-17
5.372205E+03	9.473019E-17	1.651484E-17
5.372805E+03	9.418234E-17	1.642339E-17
5.373605E+03	9.356679E-17	1.632130E-17
5.373805E+03	9.315990E-17	1.625162E-17
5.374405E+03	9.262223E-17	1.616171E-17
5.375405E+03	9.194920E-17	1.605069E-17
5.377205E+03	9.102193E-17	1.589999E-17
5.378005E+03	9.042467E-17	1.580058E-17
5.378205E+03	9.001752E-17	1.573065E-17
5.378405E+03	8.961399E-17	1.566135E-17
5.380006E+03	8.876167E-17	1.552182E-17
5.380606E+03	8.823305E-17	1.543287E-17
5.380806E+03	8.783724E-17	1.536480E-17
5.381206E+03	8.736739E-17	1.528492E-17
5.381606E+03	8.689717E-17	1.520490E-17
5.382206E+03	8.637153E-17	1.511628E-17
5.383206E+03	8.572135E-17	1.500802E-17
5.383406E+03	8.532778E-17	1.494021E-17
5.383606E+03	8.492326E-17	1.487046E-17
5.384606E+03	8.427797E-17	1.476280E-17
5.385007E+03	8.381768E-17	1.468430E-17
5.385207E+03	8.341761E-17	1.461526E-17
5.385806E+03	8.290427E-17	1.452840E-17
5.386406E+03	8.238097E-17	1.443976E-17
5.387406E+03	8.173565E-17	1.433170E-17
5.387606E+03	8.133534E-17	1.426251E-17
5.387806E+03	8.093723E-17	1.419369E-17
5.388206E+03	8.049012E-17	1.411724E-17
5.388606E+03	8.004269E-17	1.404071E-17
5.388806E+03	7.966481E-17	1.397539E-17
5.389406E+03	7.914847E-17	1.388765E-17
5.389606E+03	7.875617E-17	1.381975E-17
5.390407E+03	7.819212E-17	1.372451E-17
5.391007E+03	7.768290E-17	1.363791E-17
5.391607E+03	7.718114E-17	1.355253E-17
5.392007E+03	7.673654E-17	1.347626E-17
5.392207E+03	7.635616E-17	1.341035E-17
5.392407E+03	7.595894E-17	1.334148E-17
5.392607E+03	7.557237E-17	1.327445E-17
5.392807E+03	7.517872E-17	1.320617E-17
5.393007E+03	7.479517E-17	1.313966E-17
5.393807E+03	7.423541E-17	1.304474E-17
5.394007E+03	7.384519E-17	1.297702E-17
5.394607E+03	7.334887E-17	1.289230E-17
5.394807E+03	7.297278E-17	1.282702E-17
5.395007E+03	7.259814E-17	1.276199E-17
5.395607E+03	7.211427E-17	1.267935E-17
5.395808E+03	7.172727E-17	1.261212E-17
5.396408E+03	7.123898E-17	1.252865E-17
5.396608E+03	7.085455E-17	1.246183E-17
5.397208E+03	7.036742E-17	1.237848E-17
5.397408E+03	6.999224E-17	1.231325E-17
5.397608E+03	6.961116E-17	1.224697E-17
5.398007E+03	6.918755E-17	1.217396E-17
5.398208E+03	6.880579E-17	1.210754E-17
5.398408E+03	6.842871E-17	1.204193E-17
5.398807E+03	6.799751E-17	1.196752E-17
5.399007E+03	6.761415E-17	1.190078E-17
5.399207E+03	6.724414E-17	1.183638E-17
5.399407E+03	6.687669E-17	1.177241E-17
5.399607E+03	6.650548E-17	1.170778E-17
5.400007E+03	6.608657E-17	1.163545E-17
5.400207E+03	6.573036E-17	1.157343E-17
5.400407E+03	6.535994E-17	1.150890E-17
5.400607E+03	6.498788E-17	1.144408E-17
5.401208E+03	6.451657E-17	1.136313E-17
5.401408E+03	6.415765E-17	1.130058E-17
5.401808E+03	6.375177E-17	1.123042E-17
5.402608E+03	6.324691E-17	1.114412E-17
5.402808E+03	6.288897E-17	1.108170E-17
5.403208E+03	6.247816E-17	1.101059E-17
5.403408E+03	6.211352E-17	1.094697E-17
5.403808E+03	6.170625E-17	1.087645E-17
5.404408E+03	6.125255E-17	1.079835E-17
5.404608E+03	6.089122E-17	1.073526E-17
5.405008E+03	6.048397E-17	1.066468E-17
5.405208E+03	6.012370E-17	1.060176E-17
5.405408E+03	5.977410E-17	1.054072E-17
5.405608E+03	5.941504E-17	1.047799E-17
5.405808E+03	5.905744E-17	1.041551E-17
5.406008E+03	5.870948E-17	1.035472E-17
5.406809E+03	5.822675E-17	1.027189E-17
5.407209E+03	5.783703E-17	1.020427E-17
5.407409E+03	5.748940E-17	1.014350E-17
5.407609E+03	5.714118E-17	1.008261E-17
5.407809E+03	5.679742E-17	1.002251E-17
5.408209E+03	5.641690E-17	9.956450E-18
5.408409E+03	5.607650E-17	9.896915E-18
5.408609E+03	5.573246E-17	9.836732E-18
5.408809E+03	5.538782E-17	9.776437E-18
5.409409E+03	5.494767E-17	9.700312E-18
5.409609E+03	5.460558E-17	9.640439E-18
5.409809E+03	5.426998E-17	9.581704E-18
5.410008E+03	5.392771E-17	9.521784E-18
5.410208E+03	5.359119E-17	9.462867E-18
5.410408E+03	5.325709E-17	9.404373E-18
5.410609E+03	5.292042E-17	9.345421E-18
5.411008E+03	5.255017E-17	9.281016E-18
5.411408E+03	5.218623E-17	9.217705E-18
5.411608E+03	5.185444E-17	9.159578E-18
5.412009E+03	5.147965E-17	9.094326E-18
5.412209E+03	5.114192E-17	9.035134E-18
5.412609E+03	5.077124E-17	8.970572E-18
5.412809E+03	5.043684E-17	8.911946E-18
5.413209E+03	5.006557E-17	8.847253E-18
5.413409E+03	4.974314E-17	8.790726E-18
5.413809E+03	4.937675E-17	8.726860E-18
5.414009E+03	4.905655E-17	8.670706E-18
5.414209E+03	4.873675E-17	8.614619E-18
5.414409E+03	4.841736E-17	8.558597E-18
5.414609E+03	4.809664E-17	8.502329E-18
5.414809E+03	4.778025E-17	8.446821E-18
5.415009E+03	4.746327E-17	8.391203E-18
5.415209E+03	4.714079E-17	8.334607E-18
5.415409E+03	4.682680E-17	8.279502E-18
5.416009E+03	4.643512E-17	8.211463E-18
5.416209E+03	4.611842E-17	8.155859E-18
5.416409E+03	4.580503E-17	8.100837E-18
5.416809E+03	4.546143E-17	8.040849E-18
5.417209E+03	4.511758E-17	7.980805E-18
5.417410E+03	4.481177E-17	7.927096E-18
5.417810E+03	4.446922E-17	7.867259E-18
5.418010E+03	4.416380E-17	7.813598E-18
5.418210E+03	4.387244E-17	7.762419E-18
5.418410E+03	4.357464E-17	7.710097E-18
5.418610E+03	4.327721E-17	7.657834E-18
5.418810E+03	4.297642E-17	7.604968E-18
5.419010E+03	4.267701E-17	7.552341E-18
5.419210E+03	4.239062E-17	7.502013E-18
5.419410E+03	4.209587E-17	7.450200E-18
5.420010E+03	4.172959E-17	7.386401E-18
5.420410E+03	4.140415E-17	7.329475E-18
5.420810E+03	4.107845E-17	7.272490E-18
5.421010E+03	4.078039E-17	7.220055E-18
5.421210E+03	4.049066E-17	7.169087E-18
5.421410E+03	4.021191E-17	7.120056E-18
5.421610E+03	3.993064E-17	7.070574E-18
5.421810E+03	3.964493E-17	7.020302E-18
5.422010E+03	3.935690E-17	6.969610E-18
5.422209E+03	3.907976E-17	6.920842E-18
5.422409E+03	3.880683E-17	6.872815E-18
5.422609E+03	3.853330E-17	6.824680E-18
5.422810E+03	3.824784E-17	6.774423E-18
5.423011E+03	3.796262E-17	6.724205E-18
5.423210E+03	3.768271E-17	6.674920E-18
5.423410E+03	3.741080E-17	6.627049E-18
5.423610E+03	3.714416E-17	6.580104E-18
5.423810E+03	3.687023E-17	6.531863E-18
5.424010E+03	3.660336E-17	6.484870E-18
5.424210E+03	3.633970E-17	6.438439E-18
5.424610E+03	3.604373E-17	6.386553E-18
5.424810E+03	3.578203E-17	6.340457E-18
5.425010E+03	3.551215E-17	6.292906E-18
5.425210E+03	3.525399E-17	6.247429E-18
5.425610E+03	3.497000E-17	6.197631E-18
5.425810E+03	3.472141E-17	6.153835E-18
5.426010E+03	3.447311E-17	6.110088E-18
5.426210E+03	3.422138E-17	6.065728E-18
5.426410E+03	3.397295E-17	6.021946E-18
5.426610E+03	3.372204E-17	5.977721E-18
5.426810E+03	3.347051E-17	5.933384E-18
5.427010E+03	3.322405E-17	5.889940E-18
5.427210E+03	3.296770E-17	5.844736E-18
5.427410E+03	3.272295E-17	5.801586E-18
5.427610E+03	3.248041E-17	5.758822E-18
5.427810E+03	3.223727E-17	5.715950E-18
5.428010E+03	3.199271E-17	5.672819E-18
5.428210E+03	3.174756E-17	5.629580E-18
5.428411E+03	3.151381E-17	5.588360E-18
5.428611E+03	3.127958E-17	5.547051E-18
5.428811E+03	3.104116E-17	5.504991E-18
5.429011E+03	3.080024E-17	5.462484E-18
5.429611E+03	3.051809E-17	5.413098E-18
5.429811E+03	3.029305E-17	5.373397E-18
5.430011E+03	3.006472E-17	5.333106E-18
5.430211E+03	2.983947E-17	5.293360E-18
5.430411E+03	2.961545E-17	5.253828E-18
5.430611E+03	2.939178E-17	5.214353E-18
5.430811E+03	2.916757E-17	5.174779E-18
5.431011E+03	2.895479E-17	5.137230E-18
5.431211E+03	2.873672E-17	5.098738E-18
5.431411E+03	2.851620E-17	5.059807E-18
5.431611E+03	2.829794E-17	5.021273E-18
5.431811E+03	2.807536E-17	4.981970E-18
5.432011E+03	2.786046E-17	4.944027E-18
5.432211E+03	2.765047E-17	4.906951E-18
5.432611E+03	2.741461E-17	4.865462E-18
5.432811E+03	2.721005E-17	4.829341E-18
5.433011E+03	2.700483E-17	4.793100E-18
5.433211E+03	2.680450E-17	4.757723E-18
5.433411E+03	2.659722E-17	4.721107E-18
5.433611E+03	2.639480E-17	4.685351E-18
5.433812E+03	2.619438E-17	4.649949E-18
5.434012E+03	2.599434E-17	4.614611E-18
5.434212E+03	2.578370E-17	4.577386E-18
5.434412E+03	2.558252E-17	4.541837E-18
5.434611E+03	2.538433E-17	4.506816E-18
5.434811E+03	2.518187E-17	4.471035E-18
5.435011E+03	2.499344E-17	4.437740E-18
5.435212E+03	2.480526E-17	4.404488E-18
5.435412E+03	2.462007E-17	4.371764E-18
5.435611E+03	2.442789E-17	4.337795E-18
5.435811E+03	2.423878E-17	4.304368E-18
5.436011E+03	2.405085E-17	4.271148E-18
5.436211E+03	2.387585E-17	4.240221E-18
5.436411E+03	2.369656E-17	4.208531E-18
5.436611E+03	2.351582E-17	4.176577E-18
5.436811E+03	2.333623E-17	4.144827E-18
5.437011E+03	2.315327E-17	4.112476E-18
5.437211E+03	2.298411E-17	4.082573E-18
5.437411E+03	2.281076E-17	4.051921E-18
5.437611E+03	2.263314E-17	4.020510E-18
5.437811E+03	2.246657E-17	3.991059E-18
5.438011E+03	2.230474E-17	3.962449E-18
5.438211E+03	2.214141E-17	3.933568E-18
5.438411E+03	2.198369E-17	3.905682E-18
5.438611E+03	2.182171E-17	3.877035E-18
5.438811E+03	2.165278E-17	3.847154E-18
5.439011E+03	2.149402E-17	3.819074E-18
5.439212E+03	2.132555E-17	3.789269E-18
5.439412E+03	2.116992E-17	3.761743E-18
5.439612E+03	2.100826E-17	3.733142E-18
5.439812E+03	2.084779E-17	3.704750E-18
5.440012E+03	2.069022E-17	3.676871E-18
5.440212E+03	2.053377E-17	3.649188E-18
5.440412E+03	2.037932E-17	3.621861E-18
5.440612E+03	2.023050E-17	3.595529E-18
5.440812E+03	2.008366E-17	3.569548E-18
5.441012E+03	1.993791E-17	3.543759E-18
