#wls	flux	fluxerr
1.600000E+03	1.052872E-16	3.856900E-17
1.640000E+03	1.090563E-16	3.991802E-17
1.680000E+03	1.127586E-16	4.123971E-17
1.720000E+03	1.163451E-16	4.251606E-17
1.760000E+03	1.198071E-16	4.374392E-17
1.800000E+03	1.230880E-16	4.490267E-17
1.840000E+03	1.261499E-16	4.597859E-17
1.880000E+03	1.289734E-16	4.696476E-17
1.920000E+03	1.314933E-16	4.783759E-17
1.960000E+03	1.336750E-16	4.858472E-17
2.000000E+03	1.354620E-16	4.918597E-17
2.040000E+03	1.368193E-16	4.962897E-17
2.080000E+03	1.376748E-16	4.988802E-17
2.120000E+03	1.379735E-16	4.994372E-17
2.160000E+03	1.376603E-16	4.977677E-17
2.200000E+03	1.366521E-16	4.935783E-17
2.240000E+03	1.348809E-16	4.866324E-17
2.280000E+03	1.323347E-16	4.768965E-17
2.320000E+03	1.290497E-16	4.645103E-17
2.360000E+03	1.251437E-16	4.499080E-17
2.400000E+03	1.207144E-16	4.334491E-17
2.440000E+03	1.158485E-16	4.154529E-17
2.480000E+03	1.106382E-16	3.962562E-17
2.520000E+03	1.051405E-16	3.760698E-17
2.560000E+03	9.942324E-17	3.551410E-17
2.600000E+03	9.354532E-17	3.336848E-17
2.640000E+03	8.756983E-17	3.119300E-17
2.680000E+03	8.155014E-17	2.900695E-17
2.720000E+03	7.554153E-17	2.683022E-17
2.760000E+03	6.959725E-17	2.468184E-17
2.800000E+03	6.376827E-17	2.257996E-17
2.840000E+03	5.810419E-17	2.054209E-17
2.880000E+03	5.265403E-17	1.858544E-17
2.920000E+03	4.746250E-17	1.672558E-17
2.960000E+03	4.256940E-17	1.497623E-17
3.000000E+03	3.800575E-17	1.334791E-17
3.010000E+03	3.691998E-17	1.296098E-17
3.020000E+03	3.585551E-17	1.258183E-17
3.030000E+03	3.481399E-17	1.221103E-17
3.040000E+03	3.379460E-17	1.184827E-17
3.050000E+03	3.279802E-17	1.149381E-17
3.060000E+03	3.182485E-17	1.114782E-17
3.070000E+03	3.087360E-17	1.080980E-17
3.080000E+03	2.994614E-17	1.048037E-17
3.090000E+03	2.904102E-17	1.015903E-17
3.100000E+03	2.815929E-17	9.846134E-18
3.110000E+03	2.730018E-17	9.541401E-18
3.120000E+03	2.646358E-17	9.244783E-18
3.130000E+03	2.565030E-17	8.956560E-18
3.140000E+03	2.485916E-17	8.676304E-18
3.150000E+03	2.409139E-17	8.404438E-18
3.160000E+03	2.334537E-17	8.140390E-18
3.170000E+03	2.262224E-17	7.884545E-18
3.180000E+03	2.192089E-17	7.636506E-18
3.190000E+03	2.124188E-17	7.396463E-18
3.200000E+03	2.058456E-17	7.164175E-18
3.210000E+03	1.994900E-17	6.939659E-18
3.220000E+03	1.933488E-17	6.722796E-18
3.230000E+03	1.874189E-17	6.513468E-18
3.240000E+03	1.816937E-17	6.311437E-18
3.250000E+03	1.761761E-17	6.116793E-18
3.260000E+03	1.708593E-17	5.929291E-18
3.270000E+03	1.657422E-17	5.748882E-18
3.280000E+03	1.608178E-17	5.575319E-18
3.290000E+03	1.560825E-17	5.408464E-18
3.300000E+03	1.515341E-17	5.248236E-18
3.310000E+03	1.471659E-17	5.094389E-18
3.320000E+03	1.429757E-17	4.946844E-18
3.330000E+03	1.389587E-17	4.805426E-18
3.340000E+03	1.351062E-17	4.669822E-18
3.350000E+03	1.314178E-17	4.540012E-18
3.360000E+03	1.278866E-17	4.415752E-18
3.370000E+03	1.245082E-17	4.296883E-18
3.380000E+03	1.212779E-17	4.183232E-18
3.390000E+03	1.181882E-17	4.074532E-18
3.400000E+03	1.152377E-17	3.970734E-18
3.410000E+03	1.124206E-17	3.871630E-18
3.420000E+03	1.097313E-17	3.777013E-18
3.430000E+03	1.071657E-17	3.686746E-18
3.440000E+03	1.047199E-17	3.600683E-18
3.450000E+03	1.023876E-17	3.518602E-18
3.460000E+03	1.001664E-17	3.440416E-18
3.470000E+03	9.805038E-18	3.365916E-18
3.480000E+03	9.603645E-18	3.294990E-18
3.490000E+03	9.412032E-18	3.227484E-18
3.500000E+03	9.229799E-18	3.163259E-18
3.510000E+03	9.056569E-18	3.102179E-18
3.520000E+03	8.891985E-18	3.044117E-18
3.530000E+03	8.735612E-18	2.988921E-18
3.540000E+03	8.587045E-18	2.936447E-18
3.550000E+03	8.445999E-18	2.886594E-18
3.560000E+03	8.312112E-18	2.839234E-18
3.570000E+03	8.185132E-18	2.794278E-18
3.580000E+03	8.064653E-18	2.751583E-18
3.590000E+03	7.950458E-18	2.711071E-18
3.600000E+03	7.842262E-18	2.672642E-18
3.610000E+03	7.739949E-18	2.636254E-18
3.620000E+03	7.643181E-18	2.601787E-18
3.630000E+03	7.551787E-18	2.569181E-18
3.640000E+03	7.465383E-18	2.538303E-18
3.650000E+03	7.383828E-18	2.509101E-18
3.660000E+03	7.306913E-18	2.481502E-18
3.670000E+03	7.234438E-18	2.455435E-18
3.680000E+03	7.166281E-18	2.430856E-18
3.690000E+03	7.102319E-18	2.407722E-18
3.700000E+03	7.042371E-18	2.385969E-18
3.710000E+03	6.986386E-18	2.365576E-18
3.720000E+03	6.934191E-18	2.346484E-18
3.730000E+03	6.885796E-18	2.328693E-18
3.740000E+03	6.841090E-18	2.312163E-18
3.750000E+03	6.799964E-18	2.296857E-18
3.760000E+03	6.762365E-18	2.282752E-18
3.770000E+03	6.728305E-18	2.269852E-18
3.780000E+03	6.697670E-18	2.258117E-18
3.790000E+03	6.670467E-18	2.247545E-18
3.800000E+03	6.646586E-18	2.238099E-18
3.810000E+03	6.625979E-18	2.229760E-18
3.820000E+03	6.608650E-18	2.222527E-18
3.830000E+03	6.594603E-18	2.216400E-18
3.840000E+03	6.583732E-18	2.211340E-18
3.850000E+03	6.576098E-18	2.207367E-18
3.860000E+03	6.571539E-18	2.204424E-18
3.870000E+03	6.570169E-18	2.202547E-18
3.880000E+03	6.571829E-18	2.201682E-18
3.890000E+03	6.576633E-18	2.201863E-18
3.900000E+03	6.584473E-18	2.203053E-18
3.910000E+03	6.595354E-18	2.205252E-18
3.920000E+03	6.609225E-18	2.208441E-18
3.930000E+03	6.626087E-18	2.212618E-18
3.940000E+03	6.645889E-18	2.217763E-18
3.950000E+03	6.668687E-18	2.223895E-18
3.960000E+03	6.694373E-18	2.230974E-18
3.970000E+03	6.722952E-18	2.239000E-18
3.980000E+03	6.754369E-18	2.247954E-18
3.990000E+03	6.788680E-18	2.257851E-18
4.000000E+03	6.825834E-18	2.268673E-18
4.010000E+03	6.865779E-18	2.280401E-18
4.020000E+03	6.908462E-18	2.293014E-18
4.030000E+03	6.953940E-18	2.306531E-18
4.040000E+03	7.002110E-18	2.320915E-18
4.050000E+03	7.053031E-18	2.336183E-18
4.060000E+03	7.106598E-18	2.352299E-18
4.070000E+03	7.162818E-18	2.369264E-18
4.080000E+03	7.221701E-18	2.387078E-18
4.090000E+03	7.283198E-18	2.405723E-18
4.100000E+03	7.347265E-18	2.425184E-18
4.110000E+03	7.413855E-18	2.445442E-18
4.120000E+03	7.483040E-18	2.466520E-18
4.130000E+03	7.554718E-18	2.488382E-18
4.140000E+03	7.628904E-18	2.511031E-18
4.150000E+03	7.705497E-18	2.534432E-18
4.160000E+03	7.784511E-18	2.558588E-18
4.170000E+03	7.865966E-18	2.583504E-18
4.180000E+03	7.949759E-18	2.609143E-18
4.190000E+03	8.035910E-18	2.635512E-18
4.200000E+03	8.124315E-18	2.662573E-18
4.210000E+03	8.214994E-18	2.690332E-18
4.220000E+03	8.307841E-18	2.718752E-18
4.230000E+03	8.402876E-18	2.747838E-18
4.240000E+03	8.499991E-18	2.777554E-18
4.250000E+03	8.599138E-18	2.807881E-18
4.260000E+03	8.700203E-18	2.838781E-18
4.270000E+03	8.803202E-18	2.870258E-18
4.280000E+03	8.908014E-18	2.902271E-18
4.290000E+03	9.014583E-18	2.934800E-18
4.300000E+03	9.122776E-18	2.967800E-18
4.310000E+03	9.232456E-18	3.001226E-18
4.320000E+03	9.343551E-18	3.035053E-18
4.330000E+03	9.455985E-18	3.069254E-18
4.340000E+03	9.569600E-18	3.103779E-18
4.350000E+03	9.684310E-18	3.138597E-18
4.360000E+03	9.799939E-18	3.173652E-18
4.370000E+03	9.916469E-18	3.208936E-18
4.380000E+03	1.003379E-17	3.244414E-18
4.390000E+03	1.015205E-17	3.280131E-18
4.400000E+03	1.027114E-17	3.316051E-18
4.410000E+03	1.039111E-17	3.352193E-18
4.420000E+03	1.051195E-17	3.388547E-18
4.430000E+03	1.063380E-17	3.425164E-18
4.440000E+03	1.075656E-17	3.462009E-18
4.450000E+03	1.088023E-17	3.499076E-18
4.460000E+03	1.100487E-17	3.536389E-18
4.470000E+03	1.113048E-17	3.573948E-18
4.480000E+03	1.125705E-17	3.611745E-18
4.490000E+03	1.138450E-17	3.649754E-18
4.500000E+03	1.151291E-17	3.688002E-18
4.510000E+03	1.164218E-17	3.726459E-18
4.520000E+03	1.177233E-17	3.765124E-18
4.530000E+03	1.190337E-17	3.804002E-18
4.540000E+03	1.203509E-17	3.843025E-18
4.550000E+03	1.216761E-17	3.882232E-18
4.560000E+03	1.230084E-17	3.921595E-18
4.570000E+03	1.243480E-17	3.961115E-18
4.580000E+03	1.256930E-17	4.000734E-18
4.590000E+03	1.270447E-17	4.040495E-18
4.600000E+03	1.284013E-17	4.080334E-18
4.610000E+03	1.297641E-17	4.120298E-18
4.620000E+03	1.311316E-17	4.160333E-18
4.630000E+03	1.325041E-17	4.200452E-18
4.640000E+03	1.338811E-17	4.240640E-18
4.650000E+03	1.352643E-17	4.280947E-18
4.660000E+03	1.366522E-17	4.321325E-18
4.670000E+03	1.380467E-17	4.361836E-18
4.680000E+03	1.394478E-17	4.402477E-18
4.690000E+03	1.408549E-17	4.443230E-18
4.700000E+03	1.422706E-17	4.484179E-18
4.710000E+03	1.436936E-17	4.525275E-18
4.720000E+03	1.451249E-17	4.566557E-18
4.730000E+03	1.465634E-17	4.607985E-18
4.740000E+03	1.480104E-17	4.649601E-18
4.750000E+03	1.494634E-17	4.691324E-18
4.760000E+03	1.509239E-17	4.733200E-18
4.770000E+03	1.523905E-17	4.775191E-18
4.780000E+03	1.538648E-17	4.817337E-18
4.790000E+03	1.553455E-17	4.859603E-18
4.800000E+03	1.568328E-17	4.901993E-18
4.810000E+03	1.583268E-17	4.944509E-18
4.820000E+03	1.598276E-17	4.987156E-18
4.830000E+03	1.613353E-17	5.029936E-18
4.840000E+03	1.628485E-17	5.072804E-18
4.850000E+03	1.643691E-17	5.115814E-18
4.860000E+03	1.658967E-17	5.158961E-18
4.870000E+03	1.674302E-17	5.202207E-18
4.880000E+03	1.689694E-17	5.245544E-18
4.890000E+03	1.705159E-17	5.289025E-18
4.900000E+03	1.720666E-17	5.332550E-18
4.910000E+03	1.736246E-17	5.376212E-18
4.920000E+03	1.751880E-17	5.419959E-18
4.930000E+03	1.767549E-17	5.463726E-18
4.940000E+03	1.783267E-17	5.507559E-18
4.950000E+03	1.799029E-17	5.551444E-18
4.960000E+03	1.814814E-17	5.595309E-18
4.970000E+03	1.830631E-17	5.639190E-18
4.980000E+03	1.846436E-17	5.682947E-18
4.990000E+03	1.862257E-17	5.726666E-18
5.000000E+03	1.878063E-17	5.770254E-18
5.010000E+03	1.893825E-17	5.813619E-18
5.020000E+03	1.909547E-17	5.856777E-18
5.030000E+03	1.925194E-17	5.899619E-18
5.040000E+03	1.940748E-17	5.942094E-18
5.050000E+03	1.956191E-17	5.984145E-18
5.060000E+03	1.971504E-17	6.025715E-18
5.070000E+03	1.986643E-17	6.066672E-18
5.080000E+03	2.001607E-17	6.107012E-18
5.090000E+03	2.016349E-17	6.146599E-18
5.100000E+03	2.030846E-17	6.185359E-18
5.110000E+03	2.045050E-17	6.223153E-18
5.120000E+03	2.058952E-17	6.259953E-18
5.130000E+03	2.072486E-17	6.295563E-18
5.140000E+03	2.085664E-17	6.330019E-18
5.150000E+03	2.098414E-17	6.363111E-18
5.160000E+03	2.110728E-17	6.394817E-18
5.170000E+03	2.122557E-17	6.424991E-18
5.180000E+03	2.133850E-17	6.453483E-18
5.190000E+03	2.144596E-17	6.480266E-18
5.200000E+03	2.154744E-17	6.505191E-18
5.210000E+03	2.164265E-17	6.528175E-18
5.220000E+03	2.173127E-17	6.549125E-18
5.230000E+03	2.181278E-17	6.567894E-18
5.240000E+03	2.188689E-17	6.584395E-18
5.250000E+03	2.195305E-17	6.598476E-18
5.260000E+03	2.201117E-17	6.610113E-18
5.270000E+03	2.206076E-17	6.619163E-18
5.280000E+03	2.210151E-17	6.625547E-18
5.290000E+03	2.213316E-17	6.629189E-18
5.300000E+03	2.215521E-17	6.629950E-18
5.310000E+03	2.216742E-17	6.627764E-18
5.320000E+03	2.216957E-17	6.622577E-18
5.330000E+03	2.216149E-17	6.614343E-18
5.340000E+03	2.214280E-17	6.602959E-18
5.350000E+03	2.211361E-17	6.588465E-18
5.360000E+03	2.207386E-17	6.570856E-18
5.370000E+03	2.202358E-17	6.550141E-18
5.380000E+03	2.196256E-17	6.526277E-18
5.390000E+03	2.189140E-17	6.499441E-18
5.400000E+03	2.181007E-17	6.469639E-18
5.410000E+03	2.171926E-17	6.437084E-18
5.420000E+03	2.161915E-17	6.401832E-18
5.430000E+03	2.151034E-17	6.364071E-18
5.440000E+03	2.139338E-17	6.323968E-18
5.450000E+03	2.126924E-17	6.281821E-18
5.460000E+03	2.113837E-17	6.237765E-18
5.470000E+03	2.100130E-17	6.191964E-18
5.480000E+03	2.085840E-17	6.144527E-18
5.490000E+03	2.071052E-17	6.095714E-18
5.500000E+03	2.055816E-17	6.045676E-18
5.510000E+03	2.040208E-17	5.994635E-18
5.520000E+03	2.024306E-17	5.942827E-18
5.530000E+03	2.008193E-17	5.890498E-18
5.540000E+03	1.991951E-17	5.837889E-18
5.550000E+03	1.975687E-17	5.785312E-18
5.560000E+03	1.959481E-17	5.733003E-18
5.570000E+03	1.943456E-17	5.681324E-18
5.580000E+03	1.927672E-17	5.630445E-18
5.590000E+03	1.912262E-17	5.580755E-18
5.600000E+03	1.897278E-17	5.532400E-18
5.610000E+03	1.882822E-17	5.485679E-18
5.620000E+03	1.868992E-17	5.440868E-18
5.630000E+03	1.855822E-17	5.398065E-18
5.640000E+03	1.843431E-17	5.357611E-18
5.650000E+03	1.831859E-17	5.319614E-18
5.660000E+03	1.821134E-17	5.284152E-18
5.670000E+03	1.811356E-17	5.251508E-18
5.680000E+03	1.802524E-17	5.221673E-18
5.690000E+03	1.794683E-17	5.194771E-18
5.700000E+03	1.787876E-17	5.170920E-18
5.710000E+03	1.782121E-17	5.150163E-18
5.720000E+03	1.777432E-17	5.132537E-18
5.730000E+03	1.773818E-17	5.118057E-18
5.740000E+03	1.771307E-17	5.106801E-18
5.750000E+03	1.769922E-17	5.098824E-18
5.760000E+03	1.769630E-17	5.094027E-18
5.770000E+03	1.770492E-17	5.092576E-18
5.780000E+03	1.772475E-17	5.094373E-18
5.790000E+03	1.775622E-17	5.099531E-18
5.800000E+03	1.779920E-17	5.108007E-18
5.810000E+03	1.785395E-17	5.119868E-18
5.820000E+03	1.792053E-17	5.135128E-18
5.830000E+03	1.799924E-17	5.153862E-18
5.840000E+03	1.808998E-17	5.176039E-18
5.850000E+03	1.819286E-17	5.201679E-18
5.860000E+03	1.830817E-17	5.230861E-18
5.870000E+03	1.843622E-17	5.263667E-18
5.880000E+03	1.857670E-17	5.300004E-18
5.890000E+03	1.873013E-17	5.340009E-18
5.900000E+03	1.889638E-17	5.383646E-18
5.910000E+03	1.907576E-17	5.430989E-18
5.920000E+03	1.926833E-17	5.482055E-18
5.930000E+03	1.947390E-17	5.536785E-18
5.940000E+03	1.969273E-17	5.595243E-18
5.950000E+03	1.992482E-17	5.657424E-18
5.960000E+03	2.016991E-17	5.723251E-18
5.970000E+03	2.042836E-17	5.792824E-18
5.980000E+03	2.069965E-17	5.865984E-18
5.990000E+03	2.098383E-17	5.942744E-18
6.000000E+03	2.128070E-17	6.023046E-18
6.010000E+03	2.158978E-17	6.106746E-18
6.020000E+03	2.191100E-17	6.193825E-18
6.030000E+03	2.224349E-17	6.284030E-18
6.040000E+03	2.258734E-17	6.377386E-18
6.050000E+03	2.294149E-17	6.473595E-18
6.060000E+03	2.330567E-17	6.572573E-18
6.070000E+03	2.367893E-17	6.674056E-18
6.080000E+03	2.406054E-17	6.777836E-18
6.090000E+03	2.444941E-17	6.883606E-18
6.100000E+03	2.484435E-17	6.991032E-18
6.110000E+03	2.524464E-17	7.099917E-18
6.120000E+03	2.564833E-17	7.209710E-18
6.130000E+03	2.605459E-17	7.320182E-18
6.140000E+03	2.646156E-17	7.430814E-18
6.150000E+03	2.686800E-17	7.541263E-18
6.160000E+03	2.727123E-17	7.650784E-18
6.170000E+03	2.767027E-17	7.759106E-18
6.180000E+03	2.806271E-17	7.865561E-18
6.190000E+03	2.844687E-17	7.969685E-18
6.200000E+03	2.882084E-17	8.070953E-18
6.210000E+03	2.918449E-17	8.169334E-18
6.220000E+03	2.953815E-17	8.264931E-18
6.230000E+03	2.988239E-17	8.357912E-18
6.240000E+03	3.021793E-17	8.448486E-18
6.250000E+03	3.054444E-17	8.536569E-18
6.260000E+03	3.086370E-17	8.622664E-18
6.270000E+03	3.117520E-17	8.706637E-18
6.280000E+03	3.148009E-17	8.788814E-18
6.290000E+03	3.177925E-17	8.869447E-18
6.300000E+03	3.207229E-17	8.948438E-18
6.310000E+03	3.236021E-17	9.026063E-18
6.320000E+03	3.264358E-17	9.102489E-18
6.330000E+03	3.292301E-17	9.177886E-18
6.340000E+03	3.319828E-17	9.252194E-18
6.350000E+03	3.347003E-17	9.325599E-18
6.360000E+03	3.373848E-17	9.398163E-18
6.370000E+03	3.400388E-17	9.469954E-18
6.380000E+03	3.426598E-17	9.540905E-18
6.390000E+03	3.452451E-17	9.610945E-18
6.400000E+03	3.477919E-17	9.679999E-18
6.410000E+03	3.503022E-17	9.748121E-18
6.420000E+03	3.527728E-17	9.815228E-18
6.430000E+03	3.551900E-17	9.880934E-18
6.440000E+03	3.575707E-17	9.945715E-18
6.450000E+03	3.599167E-17	1.000962E-17
6.460000E+03	3.622352E-17	1.007286E-17
6.470000E+03	3.645390E-17	1.013578E-17
6.480000E+03	3.668250E-17	1.019830E-17
6.490000E+03	3.691062E-17	1.026078E-17
6.500000E+03	3.713852E-17	1.032329E-17
6.510000E+03	3.736700E-17	1.038606E-17
6.520000E+03	3.759514E-17	1.044883E-17
6.530000E+03	3.782491E-17	1.051215E-17
6.540000E+03	3.805536E-17	1.057576E-17
6.550000E+03	3.828731E-17	1.063989E-17
6.560000E+03	3.852096E-17	1.070458E-17
6.570000E+03	3.875591E-17	1.076974E-17
6.580000E+03	3.899296E-17	1.083558E-17
6.590000E+03	3.923230E-17	1.090215E-17
6.600000E+03	3.947347E-17	1.096934E-17
6.610000E+03	3.971664E-17	1.103718E-17
6.620000E+03	3.996196E-17	1.110572E-17
6.630000E+03	4.021019E-17	1.117518E-17
6.640000E+03	4.046018E-17	1.124522E-17
6.650000E+03	4.071268E-17	1.131607E-17
6.660000E+03	4.096780E-17	1.138776E-17
6.670000E+03	4.122495E-17	1.146011E-17
6.680000E+03	4.148489E-17	1.153334E-17
6.690000E+03	4.174698E-17	1.160727E-17
6.700000E+03	4.201197E-17	1.168212E-17
6.710000E+03	4.227849E-17	1.175751E-17
6.720000E+03	4.254727E-17	1.183363E-17
6.730000E+03	4.281909E-17	1.191070E-17
6.740000E+03	4.309249E-17	1.198833E-17
6.750000E+03	4.336825E-17	1.206672E-17
6.760000E+03	4.364559E-17	1.214566E-17
6.770000E+03	4.392532E-17	1.222538E-17
6.780000E+03	4.420665E-17	1.230566E-17
6.790000E+03	4.448961E-17	1.238651E-17
6.800000E+03	4.477497E-17	1.246814E-17
6.810000E+03	4.506112E-17	1.255010E-17
6.820000E+03	4.534968E-17	1.263285E-17
6.830000E+03	4.563897E-17	1.271592E-17
6.840000E+03	4.593062E-17	1.279977E-17
6.850000E+03	4.622291E-17	1.288391E-17
6.860000E+03	4.651577E-17	1.296833E-17
6.870000E+03	4.680992E-17	1.305323E-17
6.880000E+03	4.710532E-17	1.313859E-17
6.890000E+03	4.740005E-17	1.322389E-17
6.900000E+03	4.769572E-17	1.330958E-17
6.910000E+03	4.799130E-17	1.339536E-17
6.920000E+03	4.828752E-17	1.348144E-17
6.930000E+03	4.858235E-17	1.356725E-17
6.940000E+03	4.887651E-17	1.365300E-17
6.950000E+03	4.916976E-17	1.373862E-17
6.960000E+03	4.946094E-17	1.382379E-17
6.970000E+03	4.975076E-17	1.390870E-17
6.980000E+03	5.003900E-17	1.399329E-17
6.990000E+03	5.032448E-17	1.407724E-17
7.000000E+03	5.060694E-17	1.416046E-17
7.010000E+03	5.088619E-17	1.424291E-17
7.020000E+03	5.116300E-17	1.432480E-17
7.030000E+03	5.143521E-17	1.440553E-17
7.040000E+03	5.170464E-17	1.448560E-17
7.050000E+03	5.196911E-17	1.456441E-17
7.060000E+03	5.222950E-17	1.464220E-17
7.070000E+03	5.248468E-17	1.471864E-17
7.080000E+03	5.273558E-17	1.479401E-17
7.090000E+03	5.298214E-17	1.486829E-17
7.100000E+03	5.322326E-17	1.494115E-17
7.110000E+03	5.345783E-17	1.501230E-17
7.120000E+03	5.368799E-17	1.508234E-17
7.130000E+03	5.391268E-17	1.515095E-17
7.140000E+03	5.413193E-17	1.521815E-17
7.150000E+03	5.434579E-17	1.528395E-17
7.160000E+03	5.455322E-17	1.534807E-17
7.170000E+03	5.475542E-17	1.541082E-17
7.180000E+03	5.495135E-17	1.547193E-17
7.190000E+03	5.514109E-17	1.553140E-17
7.200000E+03	5.532590E-17	1.558960E-17
7.210000E+03	5.550473E-17	1.564622E-17
7.220000E+03	5.567887E-17	1.570163E-17
7.230000E+03	5.584607E-17	1.575520E-17
7.240000E+03	5.600757E-17	1.580726E-17
7.250000E+03	5.616344E-17	1.585784E-17
7.260000E+03	5.631374E-17	1.590696E-17
7.270000E+03	5.645850E-17	1.595461E-17
7.280000E+03	5.659772E-17	1.600080E-17
7.290000E+03	5.673018E-17	1.604518E-17
7.300000E+03	5.685705E-17	1.608808E-17
7.310000E+03	5.697831E-17	1.612950E-17
7.320000E+03	5.709388E-17	1.616940E-17
7.330000E+03	5.720245E-17	1.620741E-17
7.340000E+03	5.730519E-17	1.624387E-17
7.350000E+03	5.740331E-17	1.627911E-17
7.360000E+03	5.749424E-17	1.631240E-17
7.370000E+03	5.757917E-17	1.634409E-17
7.380000E+03	5.765810E-17	1.637416E-17
7.390000E+03	5.773229E-17	1.640297E-17
7.400000E+03	5.780049E-17	1.643017E-17
7.410000E+03	5.786406E-17	1.645614E-17
7.420000E+03	5.792436E-17	1.648126E-17
7.430000E+03	5.798025E-17	1.650521E-17
7.440000E+03	5.803448E-17	1.652878E-17
7.450000E+03	5.808464E-17	1.655126E-17
7.460000E+03	5.813224E-17	1.657310E-17
7.470000E+03	5.817618E-17	1.659397E-17
7.480000E+03	5.821804E-17	1.661434E-17
7.490000E+03	5.825537E-17	1.663348E-17
7.500000E+03	5.828975E-17	1.665187E-17
7.510000E+03	5.832139E-17	1.666955E-17
7.520000E+03	5.834916E-17	1.668620E-17
7.530000E+03	5.837602E-17	1.670267E-17
7.540000E+03	5.839943E-17	1.671822E-17
7.550000E+03	5.842097E-17	1.673331E-17
7.560000E+03	5.843941E-17	1.674759E-17
7.570000E+03	5.845630E-17	1.676149E-17
7.580000E+03	5.847039E-17	1.677465E-17
7.590000E+03	5.848322E-17	1.678752E-17
7.600000E+03	5.849349E-17	1.679971E-17
7.610000E+03	5.850126E-17	1.681125E-17
7.620000E+03	5.850802E-17	1.682256E-17
7.630000E+03	5.851241E-17	1.683324E-17
7.640000E+03	5.851442E-17	1.684329E-17
7.650000E+03	5.851545E-17	1.685312E-17
7.660000E+03	5.851405E-17	1.686229E-17
7.670000E+03	5.851158E-17	1.687121E-17
7.680000E+03	5.850508E-17	1.687902E-17
7.690000E+03	5.849728E-17	1.688649E-17
7.700000E+03	5.848808E-17	1.689361E-17
7.710000E+03	5.847587E-17	1.689990E-17
7.720000E+03	5.846192E-17	1.690573E-17
7.730000E+03	5.844461E-17	1.691062E-17
7.740000E+03	5.842373E-17	1.691452E-17
7.750000E+03	5.840051E-17	1.691778E-17
7.760000E+03	5.837474E-17	1.692033E-17
