#wls	flux	fluxerr
1.600000E+03	3.331501E-16	1.050441E-16
1.640000E+03	3.429882E-16	1.081446E-16
1.680000E+03	3.521924E-16	1.110451E-16
1.720000E+03	3.606885E-16	1.137221E-16
1.760000E+03	3.682542E-16	1.161057E-16
1.800000E+03	3.748701E-16	1.181896E-16
1.840000E+03	3.803049E-16	1.199011E-16
1.880000E+03	3.844966E-16	1.212204E-16
1.920000E+03	3.873152E-16	1.221067E-16
1.960000E+03	3.885752E-16	1.225015E-16
2.000000E+03	3.882279E-16	1.223895E-16
2.040000E+03	3.861461E-16	1.217306E-16
2.080000E+03	3.822293E-16	1.204932E-16
2.120000E+03	3.764084E-16	1.186554E-16
2.160000E+03	3.686053E-16	1.161928E-16
2.200000E+03	3.587090E-16	1.130705E-16
2.240000E+03	3.466320E-16	1.092608E-16
2.280000E+03	3.324480E-16	1.047870E-16
2.320000E+03	3.164479E-16	9.974096E-17
2.360000E+03	2.991156E-16	9.427521E-17
2.400000E+03	2.808406E-16	8.851259E-17
2.440000E+03	2.619769E-16	8.256471E-17
2.480000E+03	2.427867E-16	7.651418E-17
2.520000E+03	2.235405E-16	7.044634E-17
2.560000E+03	2.044605E-16	6.443118E-17
2.600000E+03	1.857711E-16	5.853945E-17
2.640000E+03	1.676532E-16	5.282820E-17
2.680000E+03	1.502726E-16	4.734960E-17
2.720000E+03	1.337742E-16	4.214935E-17
2.760000E+03	1.182673E-16	3.726188E-17
2.800000E+03	1.038414E-16	3.271534E-17
2.840000E+03	9.055927E-17	2.852947E-17
2.880000E+03	7.846313E-17	2.471756E-17
2.920000E+03	6.757320E-17	2.128595E-17
2.960000E+03	5.788286E-17	1.823250E-17
3.000000E+03	4.936098E-17	1.554737E-17
3.010000E+03	4.740689E-17	1.493168E-17
3.020000E+03	4.552036E-17	1.433729E-17
3.030000E+03	4.370198E-17	1.376438E-17
3.040000E+03	4.194818E-17	1.321182E-17
3.050000E+03	4.025931E-17	1.267972E-17
3.060000E+03	3.863365E-17	1.216754E-17
3.070000E+03	3.707036E-17	1.167502E-17
3.080000E+03	3.556611E-17	1.120111E-17
3.090000E+03	3.412151E-17	1.074600E-17
3.100000E+03	3.273339E-17	1.030868E-17
3.110000E+03	3.140137E-17	9.889040E-18
3.120000E+03	3.012366E-17	9.486519E-18
3.130000E+03	2.889796E-17	9.100385E-18
3.140000E+03	2.772372E-17	8.730466E-18
3.150000E+03	2.659861E-17	8.376032E-18
3.160000E+03	2.552151E-17	8.036723E-18
3.170000E+03	2.449071E-17	7.712004E-18
3.180000E+03	2.350456E-17	7.401355E-18
3.190000E+03	2.256188E-17	7.104400E-18
3.200000E+03	2.166103E-17	6.820627E-18
3.210000E+03	2.080005E-17	6.549416E-18
3.220000E+03	1.997816E-17	6.290522E-18
3.230000E+03	1.919347E-17	6.043349E-18
3.240000E+03	1.844486E-17	5.807541E-18
3.250000E+03	1.773086E-17	5.582639E-18
3.260000E+03	1.704979E-17	5.368112E-18
3.270000E+03	1.640085E-17	5.163707E-18
3.280000E+03	1.578219E-17	4.968840E-18
3.290000E+03	1.519304E-17	4.783271E-18
3.300000E+03	1.463213E-17	4.606598E-18
3.310000E+03	1.409782E-17	4.438304E-18
3.320000E+03	1.358939E-17	4.278163E-18
3.330000E+03	1.310570E-17	4.125818E-18
3.340000E+03	1.264549E-17	3.980866E-18
3.350000E+03	1.220772E-17	3.842985E-18
3.360000E+03	1.179141E-17	3.711863E-18
3.370000E+03	1.139561E-17	3.587202E-18
3.380000E+03	1.101941E-17	3.468713E-18
3.390000E+03	1.066192E-17	3.356120E-18
3.400000E+03	1.032218E-17	3.249116E-18
3.410000E+03	9.999265E-18	3.147412E-18
3.420000E+03	9.692681E-18	3.050852E-18
3.430000E+03	9.401335E-18	2.959091E-18
3.440000E+03	9.124674E-18	2.871955E-18
3.450000E+03	8.861938E-18	2.789205E-18
3.460000E+03	8.612515E-18	2.710648E-18
3.470000E+03	8.375623E-18	2.636038E-18
3.480000E+03	8.150633E-18	2.565175E-18
3.490000E+03	7.937038E-18	2.497902E-18
3.500000E+03	7.734185E-18	2.434011E-18
3.510000E+03	7.541626E-18	2.373362E-18
3.520000E+03	7.358617E-18	2.315721E-18
3.530000E+03	7.184783E-18	2.260969E-18
3.540000E+03	7.019543E-18	2.208923E-18
3.550000E+03	6.862428E-18	2.159436E-18
3.560000E+03	6.713003E-18	2.112370E-18
3.570000E+03	6.570729E-18	2.067556E-18
3.580000E+03	6.435362E-18	2.024917E-18
3.590000E+03	6.306484E-18	1.984321E-18
3.600000E+03	6.183700E-18	1.945645E-18
3.610000E+03	6.066822E-18	1.908827E-18
3.620000E+03	5.955436E-18	1.873739E-18
3.630000E+03	5.849265E-18	1.840293E-18
3.640000E+03	5.748053E-18	1.808408E-18
3.650000E+03	5.651553E-18	1.778007E-18
3.660000E+03	5.559528E-18	1.749015E-18
3.670000E+03	5.471760E-18	1.721363E-18
3.680000E+03	5.388082E-18	1.694998E-18
3.690000E+03	5.308336E-18	1.669872E-18
3.700000E+03	5.232319E-18	1.645919E-18
3.710000E+03	5.160021E-18	1.623137E-18
3.720000E+03	5.091201E-18	1.601450E-18
3.730000E+03	5.025806E-18	1.580841E-18
3.740000E+03	4.963689E-18	1.561264E-18
3.750000E+03	4.904757E-18	1.542689E-18
3.760000E+03	4.848993E-18	1.525111E-18
3.770000E+03	4.796181E-18	1.508462E-18
3.780000E+03	4.746306E-18	1.492738E-18
3.790000E+03	4.699314E-18	1.477920E-18
3.800000E+03	4.655039E-18	1.463958E-18
3.810000E+03	4.613464E-18	1.450845E-18
3.820000E+03	4.574541E-18	1.438567E-18
3.830000E+03	4.538143E-18	1.427082E-18
3.840000E+03	4.504183E-18	1.416365E-18
3.850000E+03	4.472692E-18	1.406424E-18
3.860000E+03	4.443512E-18	1.397211E-18
3.870000E+03	4.416633E-18	1.388721E-18
3.880000E+03	4.391978E-18	1.380930E-18
3.890000E+03	4.369500E-18	1.373825E-18
3.900000E+03	4.349164E-18	1.367392E-18
3.910000E+03	4.330858E-18	1.361598E-18
3.920000E+03	4.314543E-18	1.356430E-18
3.930000E+03	4.300219E-18	1.351888E-18
3.940000E+03	4.287814E-18	1.347949E-18
3.950000E+03	4.277264E-18	1.344593E-18
3.960000E+03	4.268532E-18	1.341809E-18
3.970000E+03	4.261556E-18	1.339576E-18
3.980000E+03	4.256308E-18	1.337887E-18
3.990000E+03	4.252756E-18	1.336730E-18
4.000000E+03	4.250874E-18	1.336098E-18
4.010000E+03	4.250574E-18	1.335962E-18
4.020000E+03	4.251826E-18	1.336315E-18
4.030000E+03	4.254610E-18	1.337148E-18
4.040000E+03	4.258906E-18	1.338457E-18
4.050000E+03	4.264656E-18	1.340221E-18
4.060000E+03	4.271812E-18	1.342428E-18
4.070000E+03	4.280355E-18	1.345069E-18
4.080000E+03	4.290234E-18	1.348130E-18
4.090000E+03	4.301434E-18	1.351606E-18
4.100000E+03	4.313905E-18	1.355480E-18
4.110000E+03	4.327635E-18	1.359749E-18
4.120000E+03	4.342578E-18	1.364399E-18
4.130000E+03	4.358689E-18	1.369415E-18
4.140000E+03	4.375957E-18	1.374794E-18
4.150000E+03	4.394338E-18	1.380522E-18
4.160000E+03	4.413823E-18	1.386596E-18
4.170000E+03	4.434334E-18	1.392991E-18
4.180000E+03	4.455868E-18	1.399707E-18
4.190000E+03	4.478346E-18	1.406719E-18
4.200000E+03	4.501796E-18	1.414035E-18
4.210000E+03	4.526144E-18	1.421632E-18
4.220000E+03	4.551384E-18	1.429509E-18
4.230000E+03	4.577407E-18	1.437630E-18
4.240000E+03	4.604244E-18	1.446006E-18
4.250000E+03	4.631779E-18	1.454601E-18
4.260000E+03	4.660048E-18	1.463424E-18
4.270000E+03	4.688936E-18	1.472442E-18
4.280000E+03	4.718368E-18	1.481629E-18
4.290000E+03	4.748374E-18	1.490995E-18
4.300000E+03	4.778798E-18	1.500491E-18
4.310000E+03	4.809675E-18	1.510128E-18
4.320000E+03	4.840846E-18	1.519857E-18
4.330000E+03	4.872344E-18	1.529686E-18
4.340000E+03	4.904083E-18	1.539591E-18
4.350000E+03	4.935978E-18	1.549543E-18
4.360000E+03	4.968022E-18	1.559540E-18
4.370000E+03	5.000165E-18	1.569568E-18
4.380000E+03	5.032443E-18	1.579637E-18
4.390000E+03	5.064768E-18	1.589719E-18
4.400000E+03	5.097214E-18	1.599837E-18
4.410000E+03	5.129777E-18	1.609991E-18
4.420000E+03	5.162457E-18	1.620181E-18
4.430000E+03	5.195253E-18	1.630406E-18
4.440000E+03	5.228208E-18	1.640679E-18
4.450000E+03	5.261283E-18	1.650988E-18
4.460000E+03	5.294524E-18	1.661348E-18
4.470000E+03	5.327939E-18	1.671762E-18
4.480000E+03	5.361536E-18	1.682231E-18
4.490000E+03	5.395282E-18	1.692745E-18
4.500000E+03	5.429185E-18	1.703307E-18
4.510000E+03	5.463215E-18	1.713908E-18
4.520000E+03	5.497432E-18	1.724565E-18
4.530000E+03	5.531758E-18	1.735256E-18
4.540000E+03	5.566212E-18	1.745985E-18
4.550000E+03	5.600814E-18	1.756758E-18
4.560000E+03	5.635488E-18	1.767553E-18
4.570000E+03	5.670305E-18	1.778391E-18
4.580000E+03	5.705193E-18	1.789250E-18
4.590000E+03	5.740178E-18	1.800138E-18
4.600000E+03	5.775189E-18	1.811032E-18
4.610000E+03	5.810304E-18	1.821957E-18
4.620000E+03	5.845506E-18	1.832908E-18
4.630000E+03	5.880727E-18	1.843863E-18
4.640000E+03	5.916001E-18	1.854833E-18
4.650000E+03	5.951365E-18	1.865829E-18
4.660000E+03	5.986808E-18	1.876849E-18
4.670000E+03	6.022267E-18	1.887871E-18
4.680000E+03	6.057891E-18	1.898944E-18
4.690000E+03	6.093728E-18	1.910082E-18
4.700000E+03	6.129722E-18	1.921266E-18
4.710000E+03	6.165926E-18	1.932516E-18
4.720000E+03	6.202396E-18	1.943846E-18
4.730000E+03	6.239022E-18	1.955223E-18
4.740000E+03	6.275859E-18	1.966665E-18
4.750000E+03	6.312857E-18	1.978155E-18
4.760000E+03	6.350076E-18	1.989713E-18
4.770000E+03	6.387523E-18	2.001340E-18
4.780000E+03	6.425144E-18	2.013019E-18
4.790000E+03	6.463006E-18	2.024772E-18
4.800000E+03	6.501057E-18	2.036582E-18
4.810000E+03	6.539368E-18	2.048472E-18
4.820000E+03	6.577886E-18	2.060424E-18
4.830000E+03	6.616623E-18	2.072442E-18
4.840000E+03	6.655587E-18	2.084530E-18
4.850000E+03	6.694853E-18	2.096710E-18
4.860000E+03	6.734371E-18	2.108967E-18
4.870000E+03	6.774153E-18	2.121304E-18
4.880000E+03	6.814146E-18	2.133704E-18
4.890000E+03	6.854490E-18	2.146213E-18
4.900000E+03	6.895131E-18	2.158812E-18
4.910000E+03	6.936085E-18	2.171507E-18
4.920000E+03	6.977297E-18	2.184280E-18
4.930000E+03	7.018843E-18	2.197155E-18
4.940000E+03	7.060667E-18	2.210115E-18
4.950000E+03	7.102777E-18	2.223162E-18
4.960000E+03	7.145253E-18	2.236320E-18
4.970000E+03	7.188033E-18	2.249572E-18
4.980000E+03	7.231126E-18	2.262919E-18
4.990000E+03	7.274470E-18	2.276341E-18
5.000000E+03	7.318136E-18	2.289862E-18
5.010000E+03	7.362131E-18	2.303483E-18
5.020000E+03	7.406386E-18	2.317182E-18
5.030000E+03	7.450904E-18	2.330961E-18
5.040000E+03	7.495684E-18	2.344819E-18
5.050000E+03	7.540650E-18	2.358733E-18
5.060000E+03	7.585872E-18	2.372724E-18
5.070000E+03	7.631348E-18	2.386791E-18
5.080000E+03	7.676921E-18	2.400886E-18
5.090000E+03	7.722657E-18	2.415028E-18
5.100000E+03	7.768547E-18	2.429216E-18
5.110000E+03	7.814502E-18	2.443421E-18
5.120000E+03	7.860508E-18	2.457639E-18
5.130000E+03	7.906548E-18	2.471864E-18
5.140000E+03	7.952605E-18	2.486092E-18
5.150000E+03	7.998581E-18	2.500291E-18
5.160000E+03	8.044532E-18	2.514479E-18
5.170000E+03	8.090275E-18	2.528599E-18
5.180000E+03	8.135864E-18	2.542668E-18
5.190000E+03	8.181188E-18	2.556650E-18
5.200000E+03	8.226216E-18	2.570537E-18
5.210000E+03	8.270914E-18	2.584318E-18
5.220000E+03	8.315247E-18	2.597981E-18
5.230000E+03	8.359016E-18	2.611464E-18
5.240000E+03	8.402341E-18	2.624806E-18
5.250000E+03	8.445102E-18	2.637968E-18
5.260000E+03	8.487255E-18	2.650937E-18
5.270000E+03	8.528674E-18	2.663673E-18
5.280000E+03	8.569312E-18	2.676163E-18
5.290000E+03	8.609122E-18	2.688390E-18
5.300000E+03	8.648055E-18	2.700340E-18
5.310000E+03	8.686070E-18	2.712001E-18
5.320000E+03	8.723027E-18	2.723328E-18
5.330000E+03	8.759055E-18	2.734361E-18
5.340000E+03	8.793933E-18	2.745033E-18
5.350000E+03	8.827617E-18	2.755329E-18
5.360000E+03	8.860234E-18	2.765288E-18
5.370000E+03	8.891571E-18	2.774845E-18
5.380000E+03	8.921759E-18	2.784041E-18
5.390000E+03	8.950671E-18	2.792835E-18
5.400000E+03	8.978363E-18	2.801246E-18
5.410000E+03	9.004708E-18	2.809234E-18
5.420000E+03	9.029855E-18	2.816845E-18
5.430000E+03	9.053686E-18	2.824043E-18
5.440000E+03	9.076266E-18	2.830847E-18
5.450000E+03	9.097390E-18	2.837195E-18
5.460000E+03	9.117126E-18	2.843108E-18
5.470000E+03	9.135364E-18	2.848551E-18
5.480000E+03	9.152000E-18	2.853491E-18
5.490000E+03	9.167106E-18	2.857953E-18
5.500000E+03	9.180493E-18	2.861876E-18
5.510000E+03	9.192054E-18	2.865227E-18
5.520000E+03	9.201785E-18	2.868006E-18
5.530000E+03	9.209494E-18	2.870153E-18
5.540000E+03	9.215276E-18	2.871697E-18
5.550000E+03	9.218847E-18	2.872550E-18
5.560000E+03	9.220402E-18	2.872773E-18
5.570000E+03	9.219850E-18	2.872338E-18
5.580000E+03	9.217108E-18	2.871219E-18
5.590000E+03	9.212186E-18	2.869420E-18
5.600000E+03	9.205097E-18	2.866944E-18
5.610000E+03	9.195768E-18	2.863770E-18
5.620000E+03	9.184403E-18	2.859960E-18
5.630000E+03	9.170837E-18	2.855465E-18
5.640000E+03	9.155283E-18	2.850349E-18
5.650000E+03	9.137583E-18	2.844565E-18
5.660000E+03	9.117953E-18	2.838179E-18
5.670000E+03	9.096425E-18	2.831202E-18
5.680000E+03	9.072942E-18	2.823616E-18
5.690000E+03	9.047639E-18	2.815463E-18
5.700000E+03	9.020554E-18	2.806756E-18
5.710000E+03	8.991826E-18	2.797538E-18
5.720000E+03	8.961500E-18	2.787823E-18
5.730000E+03	8.929533E-18	2.777597E-18
5.740000E+03	8.896160E-18	2.766935E-18
5.750000E+03	8.861441E-18	2.755854E-18
5.760000E+03	8.825334E-18	2.744343E-18
5.770000E+03	8.787994E-18	2.732448E-18
5.780000E+03	8.749574E-18	2.720219E-18
5.790000E+03	8.710138E-18	2.707674E-18
5.800000E+03	8.669658E-18	2.694806E-18
5.810000E+03	8.628293E-18	2.681664E-18
5.820000E+03	8.586206E-18	2.668298E-18
5.830000E+03	8.543469E-18	2.654732E-18
5.840000E+03	8.500058E-18	2.640958E-18
5.850000E+03	8.456142E-18	2.627027E-18
5.860000E+03	8.411795E-18	2.612964E-18
5.870000E+03	8.367180E-18	2.598820E-18
5.880000E+03	8.322376E-18	2.584618E-18
5.890000E+03	8.277365E-18	2.570353E-18
5.900000E+03	8.232313E-18	2.556077E-18
5.910000E+03	8.187206E-18	2.541785E-18
5.920000E+03	8.142390E-18	2.527586E-18
5.930000E+03	8.097666E-18	2.513416E-18
5.940000E+03	8.053197E-18	2.499327E-18
5.950000E+03	8.009145E-18	2.485369E-18
5.960000E+03	7.965488E-18	2.471535E-18
5.970000E+03	7.922295E-18	2.457846E-18
5.980000E+03	7.879717E-18	2.444350E-18
5.990000E+03	7.837734E-18	2.431040E-18
6.000000E+03	7.796491E-18	2.417961E-18
6.010000E+03	7.755868E-18	2.405075E-18
6.020000E+03	7.716101E-18	2.392456E-18
6.030000E+03	7.677065E-18	2.380066E-18
6.040000E+03	7.638987E-18	2.367974E-18
6.050000E+03	7.601647E-18	2.356111E-18
6.060000E+03	7.565268E-18	2.344548E-18
6.070000E+03	7.529802E-18	2.333269E-18
6.080000E+03	7.495289E-18	2.322286E-18
6.090000E+03	7.461586E-18	2.311556E-18
6.100000E+03	7.428904E-18	2.301142E-18
6.110000E+03	7.397007E-18	2.290973E-18
6.120000E+03	7.366096E-18	2.281110E-18
6.130000E+03	7.335932E-18	2.271480E-18
6.140000E+03	7.306534E-18	2.262087E-18
6.150000E+03	7.277831E-18	2.252910E-18
6.160000E+03	7.249835E-18	2.243953E-18
6.170000E+03	7.222290E-18	2.235136E-18
6.180000E+03	7.195204E-18	2.226462E-18
6.190000E+03	7.168490E-18	2.217904E-18
6.200000E+03	7.142149E-18	2.209461E-18
6.210000E+03	7.116179E-18	2.201134E-18
6.220000E+03	7.090757E-18	2.192977E-18
6.230000E+03	7.066148E-18	2.185073E-18
6.240000E+03	7.042437E-18	2.177446E-18
6.250000E+03	7.019798E-18	2.170151E-18
6.260000E+03	6.998409E-18	2.163243E-18
6.270000E+03	6.978352E-18	2.156747E-18
6.280000E+03	6.959806E-18	2.150718E-18
6.290000E+03	6.942856E-18	2.145183E-18
6.300000E+03	6.927587E-18	2.140166E-18
6.310000E+03	6.914184E-18	2.135726E-18
6.320000E+03	6.902640E-18	2.131860E-18
6.330000E+03	6.893144E-18	2.128626E-18
6.340000E+03	6.885597E-18	2.125992E-18
6.350000E+03	6.880098E-18	2.123991E-18
6.360000E+03	6.876642E-18	2.122619E-18
6.370000E+03	6.875330E-18	2.121907E-18
6.380000E+03	6.876068E-18	2.121827E-18
6.390000E+03	6.878858E-18	2.122378E-18
6.400000E+03	6.883602E-18	2.123530E-18
6.410000E+03	6.890104E-18	2.125222E-18
6.420000E+03	6.898258E-18	2.127422E-18
6.430000E+03	6.908064E-18	2.130129E-18
6.440000E+03	6.919516E-18	2.133342E-18
6.450000E+03	6.932612E-18	2.137058E-18
6.460000E+03	6.947450E-18	2.141309E-18
6.470000E+03	6.964137E-18	2.146126E-18
6.480000E+03	6.982675E-18	2.151511E-18
6.490000E+03	7.002960E-18	2.157431E-18
6.500000E+03	7.025211E-18	2.163953E-18
6.510000E+03	7.049435E-18	2.171079E-18
6.520000E+03	7.075529E-18	2.178777E-18
6.530000E+03	7.103612E-18	2.187083E-18
6.540000E+03	7.133693E-18	2.196000E-18
6.550000E+03	7.165675E-18	2.205498E-18
6.560000E+03	7.199562E-18	2.215578E-18
6.570000E+03	7.235596E-18	2.226313E-18
6.580000E+03	7.273443E-18	2.237601E-18
6.590000E+03	7.313352E-18	2.249518E-18
6.600000E+03	7.355333E-18	2.262066E-18
6.610000E+03	7.399168E-18	2.275179E-18
6.620000E+03	7.445105E-18	2.288932E-18
6.630000E+03	7.492919E-18	2.303257E-18
6.640000E+03	7.542871E-18	2.318231E-18
6.650000E+03	7.594730E-18	2.333785E-18
6.660000E+03	7.648635E-18	2.349961E-18
6.670000E+03	7.704605E-18	2.366764E-18
6.680000E+03	7.762527E-18	2.384160E-18
6.690000E+03	7.822417E-18	2.402152E-18
6.700000E+03	7.884426E-18	2.420787E-18
6.710000E+03	7.948439E-18	2.440029E-18
6.720000E+03	8.014469E-18	2.459882E-18
6.730000E+03	8.082541E-18	2.480353E-18
6.740000E+03	8.152666E-18	2.501445E-18
6.750000E+03	8.224869E-18	2.523166E-18
6.760000E+03	8.299168E-18	2.545520E-18
6.770000E+03	8.375434E-18	2.568468E-18
6.780000E+03	8.453833E-18	2.592060E-18
6.790000E+03	8.534387E-18	2.616302E-18
6.800000E+03	8.616964E-18	2.641155E-18
6.810000E+03	8.701738E-18	2.666670E-18
6.820000E+03	8.788569E-18	2.692804E-18
6.830000E+03	8.877480E-18	2.719565E-18
6.840000E+03	8.968485E-18	2.746955E-18
6.850000E+03	9.061605E-18	2.774981E-18
6.860000E+03	9.157023E-18	2.803699E-18
6.870000E+03	9.254427E-18	2.833013E-18
6.880000E+03	9.353997E-18	2.862977E-18
6.890000E+03	9.455754E-18	2.893598E-18
6.900000E+03	9.559540E-18	2.924826E-18
6.910000E+03	9.665546E-18	2.956720E-18
6.920000E+03	9.773790E-18	2.989285E-18
6.930000E+03	9.884107E-18	3.022470E-18
6.940000E+03	9.996507E-18	3.056278E-18
6.950000E+03	1.011119E-17	3.090769E-18
6.960000E+03	1.022799E-17	3.125890E-18
6.970000E+03	1.034690E-17	3.161645E-18
6.980000E+03	1.046795E-17	3.198034E-18
6.990000E+03	1.059113E-17	3.235061E-18
7.000000E+03	1.071626E-17	3.272665E-18
7.010000E+03	1.084374E-17	3.310973E-18
7.020000E+03	1.097318E-17	3.349862E-18
7.030000E+03	1.110479E-17	3.389394E-18
7.040000E+03	1.123835E-17	3.429505E-18
7.050000E+03	1.137385E-17	3.470193E-18
7.060000E+03	1.151153E-17	3.511526E-18
7.070000E+03	1.165116E-17	3.553435E-18
7.080000E+03	1.179249E-17	3.595845E-18
7.090000E+03	1.193598E-17	3.638896E-18
7.100000E+03	1.208140E-17	3.682515E-18
7.110000E+03	1.222848E-17	3.726623E-18
7.120000E+03	1.237746E-17	3.771289E-18
7.130000E+03	1.252807E-17	3.816431E-18
7.140000E+03	1.268054E-17	3.862122E-18
7.150000E+03	1.283460E-17	3.908275E-18
7.160000E+03	1.299049E-17	3.954963E-18
7.170000E+03	1.314763E-17	4.002016E-18
7.180000E+03	1.330628E-17	4.049502E-18
7.190000E+03	1.346667E-17	4.097500E-18
7.200000E+03	1.362821E-17	4.145827E-18
7.210000E+03	1.379086E-17	4.194468E-18
7.220000E+03	1.395486E-17	4.243497E-18
7.230000E+03	1.412016E-17	4.292902E-18
7.240000E+03	1.428642E-17	4.342578E-18
7.250000E+03	1.445391E-17	4.392601E-18
7.260000E+03	1.462224E-17	4.442860E-18
7.270000E+03	1.479137E-17	4.493340E-18
7.280000E+03	1.496156E-17	4.544117E-18
7.290000E+03	1.513242E-17	4.595078E-18
7.300000E+03	1.530423E-17	4.646303E-18
7.310000E+03	1.547660E-17	4.697672E-18
7.320000E+03	1.564945E-17	4.749166E-18
7.330000E+03	1.582341E-17	4.800974E-18
7.340000E+03	1.599773E-17	4.852868E-18
7.350000E+03	1.617306E-17	4.905045E-18
7.360000E+03	1.634899E-17	4.957381E-18
7.370000E+03	1.652583E-17	5.009969E-18
7.380000E+03	1.670392E-17	5.062911E-18
7.390000E+03	1.688283E-17	5.116081E-18
7.400000E+03	1.706332E-17	5.169703E-18
7.410000E+03	1.724537E-17	5.223772E-18
7.420000E+03	1.742936E-17	5.278406E-18
7.430000E+03	1.761530E-17	5.333607E-18
7.440000E+03	1.780320E-17	5.389377E-18
7.450000E+03	1.799349E-17	5.445844E-18
7.460000E+03	1.818536E-17	5.502762E-18
7.470000E+03	1.837878E-17	5.560128E-18
7.480000E+03	1.857333E-17	5.617807E-18
7.490000E+03	1.876940E-17	5.675923E-18
7.500000E+03	1.896657E-17	5.734342E-18
7.510000E+03	1.916435E-17	5.792920E-18
7.520000E+03	1.936265E-17	5.851633E-18
7.530000E+03	1.956148E-17	5.910475E-18
7.540000E+03	1.976029E-17	5.969290E-18
7.550000E+03	1.995949E-17	6.028194E-18
7.560000E+03	2.015805E-17	6.086880E-18
7.570000E+03	2.035689E-17	6.145623E-18
7.580000E+03	2.055540E-17	6.204244E-18
7.590000E+03	2.075352E-17	6.262719E-18
7.600000E+03	2.095067E-17	6.320875E-18
7.610000E+03	2.114725E-17	6.378837E-18
7.620000E+03	2.134314E-17	6.436565E-18
7.630000E+03	2.153826E-17	6.494037E-18
7.640000E+03	2.173195E-17	6.551052E-18
7.650000E+03	2.192467E-17	6.607750E-18
7.660000E+03	2.211570E-17	6.663914E-18
7.670000E+03	2.230605E-17	6.719852E-18
7.680000E+03	2.249392E-17	6.775015E-18
7.690000E+03	2.268083E-17	6.829869E-18
7.700000E+03	2.286613E-17	6.884214E-18
7.710000E+03	2.304906E-17	6.937825E-18
7.720000E+03	2.323006E-17	6.990833E-18
7.730000E+03	2.340900E-17	7.043198E-18
7.740000E+03	2.358571E-17	7.094872E-18
7.750000E+03	2.376007E-17	7.145815E-18
7.760000E+03	2.393253E-17	7.196169E-18
