#wls	flux	fluxerr
1.600000E+03	3.946259E-17	9.060024E-18
1.640000E+03	3.978845E-17	9.101603E-18
1.680000E+03	4.007965E-17	9.134780E-18
1.720000E+03	4.033365E-17	9.156853E-18
1.760000E+03	4.055035E-17	9.170089E-18
1.800000E+03	4.072656E-17	9.171502E-18
1.840000E+03	4.085328E-17	9.161537E-18
1.880000E+03	4.094117E-17	9.140207E-18
1.920000E+03	4.097285E-17	9.106266E-18
1.960000E+03	4.095483E-17	9.058675E-18
2.000000E+03	4.087297E-17	8.997131E-18
2.040000E+03	4.073343E-17	8.920415E-18
2.080000E+03	4.051681E-17	8.827290E-18
2.120000E+03	4.022249E-17	8.714994E-18
2.160000E+03	3.983453E-17	8.583299E-18
2.200000E+03	3.934186E-17	8.427199E-18
2.240000E+03	3.872177E-17	8.245295E-18
2.280000E+03	3.797957E-17	8.036180E-18
2.320000E+03	3.711718E-17	7.803874E-18
2.360000E+03	3.617145E-17	7.553540E-18
2.400000E+03	3.515723E-17	7.291781E-18
2.440000E+03	3.409807E-17	7.020752E-18
2.480000E+03	3.300428E-17	6.745923E-18
2.520000E+03	3.188797E-17	6.466980E-18
2.560000E+03	3.075053E-17	6.187432E-18
2.600000E+03	2.960249E-17	5.906637E-18
2.640000E+03	2.844325E-17	5.627577E-18
2.680000E+03	2.728067E-17	5.349118E-18
2.720000E+03	2.611206E-17	5.073705E-18
2.760000E+03	2.494549E-17	4.800316E-18
2.800000E+03	2.377868E-17	4.531340E-18
2.840000E+03	2.262035E-17	4.265960E-18
2.880000E+03	2.147139E-17	4.006988E-18
2.920000E+03	2.034295E-17	3.754125E-18
2.960000E+03	1.923865E-17	3.510443E-18
2.989568E+03	2.382757E-16	4.309922E-17
2.989768E+03	2.387088E-16	4.317499E-17
2.991769E+03	2.392548E-16	4.324777E-17
2.991969E+03	2.396500E-16	4.331660E-17
2.993369E+03	2.400697E-16	4.337419E-17
2.993569E+03	2.404523E-16	4.344071E-17
2.994969E+03	2.408342E-16	4.349137E-17
2.995769E+03	2.411911E-16	4.354533E-17
2.996569E+03	2.415483E-16	4.359929E-17
2.996769E+03	2.418547E-16	4.365196E-17
2.997170E+03	2.421355E-16	4.369736E-17
2.997370E+03	2.424292E-16	4.374772E-17
2.998769E+03	2.427740E-16	4.379133E-17
3.012770E+03	2.439137E-16	4.380992E-17
3.013170E+03	2.441575E-16	4.384834E-17
3.013970E+03	2.444142E-16	4.388369E-17
3.014770E+03	2.446583E-16	4.391672E-17
3.015771E+03	2.449154E-16	4.394937E-17
3.016371E+03	2.451596E-16	4.398508E-17
3.016971E+03	2.453910E-16	4.401847E-17
3.017771E+03	2.456483E-16	4.405378E-17
3.019171E+03	2.459061E-16	4.408101E-17
3.019371E+03	2.460733E-16	4.410827E-17
3.019571E+03	2.462148E-16	4.413090E-17
3.020371E+03	2.463824E-16	4.415006E-17
3.021372E+03	2.465505E-16	4.416653E-17
3.022171E+03	2.467054E-16	4.418337E-17
3.022972E+03	2.468219E-16	4.419330E-17
3.023371E+03	2.469251E-16	4.420632E-17
3.023571E+03	2.469897E-16	4.421514E-17
3.023771E+03	2.470413E-16	4.422165E-17
3.024971E+03	2.471584E-16	4.422616E-17
3.025171E+03	2.471971E-16	4.423036E-17
3.025771E+03	2.472622E-16	4.423377E-17
3.025971E+03	2.472753E-16	4.423337E-17
3.027772E+03	2.473803E-16	4.422744E-17
3.027972E+03	2.473676E-16	4.422242E-17
3.028972E+03	2.474074E-16	4.421579E-17
3.031972E+03	2.475655E-16	4.420273E-17
3.032172E+03	2.475271E-16	4.419311E-17
3.032372E+03	2.474887E-16	4.418350E-17
3.033773E+03	2.475033E-16	4.416678E-17
3.033973E+03	2.474390E-16	4.415255E-17
3.034372E+03	2.473749E-16	4.413561E-17
3.034573E+03	2.472978E-16	4.411908E-17
3.034773E+03	2.471948E-16	4.409795E-17
3.035372E+03	2.471181E-16	4.407600E-17
3.036172E+03	2.470673E-16	4.405592E-17
3.036772E+03	2.469518E-16	4.402705E-17
3.036972E+03	2.467971E-16	4.399672E-17
3.037372E+03	2.466426E-16	4.396367E-17
3.038172E+03	2.465142E-16	4.392976E-17
3.038372E+03	2.463725E-16	4.390174E-17
3.038572E+03	2.461789E-16	4.386449E-17
3.038772E+03	2.460112E-16	4.383187E-17
3.038972E+03	2.458177E-16	4.379464E-17
3.040373E+03	2.456896E-16	4.375256E-17
3.040973E+03	2.454962E-16	4.370988E-17
3.041173E+03	2.452637E-16	4.366574E-17
3.042573E+03	2.450836E-16	4.361445E-17
3.042773E+03	2.448381E-16	4.356801E-17
3.043173E+03	2.445668E-16	4.351425E-17
3.044173E+03	2.443733E-16	4.346611E-17
3.044373E+03	2.440888E-16	4.341278E-17
3.044773E+03	2.437786E-16	4.335213E-17
3.045173E+03	2.434553E-16	4.328917E-17
3.045373E+03	2.431190E-16	4.322664E-17
3.045574E+03	2.427568E-16	4.315951E-17
3.046174E+03	2.424463E-16	4.309613E-17
3.047573E+03	2.421613E-16	4.302643E-17
3.048573E+03	2.418762E-16	4.296217E-17
3.048973E+03	2.415136E-16	4.289233E-17
3.049173E+03	2.410991E-16	4.281602E-17
3.050373E+03	2.407617E-16	4.273983E-17
3.050573E+03	2.403601E-16	4.266583E-17
3.052574E+03	2.400347E-16	4.258100E-17
3.052774E+03	2.395809E-16	4.249780E-17
3.052974E+03	2.391012E-16	4.241000E-17
3.055574E+03	2.388132E-16	4.232383E-17
3.058575E+03	2.385372E-16	4.223448E-17
3.059974E+03	2.381069E-16	4.213943E-17
3.061174E+03	2.376897E-16	4.204943E-17
3.061374E+03	2.371697E-16	4.195476E-17
3.061774E+03	2.366495E-16	4.185736E-17
3.062174E+03	2.361420E-16	4.176224E-17
3.065175E+03	2.357725E-16	4.165672E-17
3.066775E+03	2.353141E-16	4.155430E-17
3.069375E+03	2.349182E-16	4.144963E-17
3.071376E+03	2.344841E-16	4.134628E-17
3.071575E+03	2.339105E-16	4.124248E-17
3.072975E+03	2.333597E-16	4.112672E-17
3.073575E+03	2.327717E-16	4.101512E-17
3.075175E+03	2.322327E-16	4.089890E-17
3.075775E+03	2.316311E-16	4.078501E-17
3.076576E+03	2.310157E-16	4.066606E-17
3.077776E+03	2.304247E-16	4.054620E-17
3.079976E+03	2.298820E-16	4.042171E-17
3.081576E+03	2.293016E-16	4.029862E-17
3.081776E+03	2.286086E-16	4.017421E-17
3.081977E+03	2.279156E-16	4.004979E-17
3.082177E+03	2.272093E-16	3.992307E-17
3.084176E+03	2.266127E-16	3.979221E-17
3.084776E+03	2.259172E-16	3.966228E-17
3.085776E+03	2.252327E-16	3.952915E-17
3.086376E+03	2.244974E-16	3.939236E-17
3.087176E+03	2.237871E-16	3.925741E-17
3.088577E+03	2.230733E-16	3.911417E-17
3.089577E+03	2.223742E-16	3.897877E-17
3.089777E+03	2.215877E-16	3.883835E-17
3.092977E+03	2.209666E-16	3.868865E-17
3.094178E+03	2.202125E-16	3.854133E-17
3.094778E+03	2.193962E-16	3.839084E-17
3.096377E+03	2.186647E-16	3.824260E-17
3.096577E+03	2.178110E-16	3.809077E-17
3.097177E+03	2.169675E-16	3.793571E-17
3.098577E+03	2.161834E-16	3.778108E-17
3.098777E+03	2.153028E-16	3.762469E-17
3.098977E+03	2.144353E-16	3.747060E-17
3.099177E+03	2.135283E-16	3.730962E-17
3.099977E+03	2.126686E-16	3.714955E-17
3.100178E+03	2.117613E-16	3.698859E-17
3.100378E+03	2.108407E-16	3.682533E-17
3.100778E+03	2.099183E-16	3.665934E-17
3.102178E+03	2.090389E-16	3.648876E-17
3.102578E+03	2.080895E-16	3.631820E-17
3.102778E+03	2.071680E-16	3.615497E-17
3.103378E+03	2.062163E-16	3.598167E-17
3.103578E+03	2.052683E-16	3.581388E-17
3.104978E+03	2.043603E-16	3.563880E-17
3.105578E+03	2.033944E-16	3.546324E-17
3.106179E+03	2.024150E-16	3.528540E-17
3.107178E+03	2.014439E-16	3.510439E-17
3.107579E+03	2.004398E-16	3.492472E-17
3.108978E+03	1.994763E-16	3.474055E-17
3.109178E+03	1.984475E-16	3.455907E-17
3.109978E+03	1.974245E-16	3.437168E-17
3.110178E+03	1.963690E-16	3.418563E-17
3.110578E+03	1.953108E-16	3.399685E-17
3.110778E+03	1.942419E-16	3.380852E-17
3.111178E+03	1.931702E-16	3.361747E-17
3.111378E+03	1.920747E-16	3.342457E-17
3.111978E+03	1.909734E-16	3.322623E-17
3.112379E+03	1.898878E-16	3.303290E-17
3.113379E+03	1.887932E-16	3.283144E-17
3.114179E+03	1.877010E-16	3.263271E-17
3.114779E+03	1.865718E-16	3.242984E-17
3.115379E+03	1.854817E-16	3.223384E-17
3.115579E+03	1.843187E-16	3.202956E-17
3.115979E+03	1.831785E-16	3.182714E-17
3.116779E+03	1.820316E-16	3.161931E-17
3.118180E+03	1.809268E-16	3.141254E-17
3.118380E+03	1.797494E-16	3.120600E-17
3.119380E+03	1.785842E-16	3.099323E-17
3.119780E+03	1.774028E-16	3.078403E-17
3.119979E+03	1.761850E-16	3.057065E-17
3.120179E+03	1.749671E-16	3.035728E-17
3.120379E+03	1.737359E-16	3.014162E-17
3.120979E+03	1.725498E-16	2.992975E-17
3.121179E+03	1.713182E-16	2.971411E-17
3.121379E+03	1.700997E-16	2.950077E-17
3.121579E+03	1.688414E-16	2.928056E-17
3.121779E+03	1.675962E-16	2.906264E-17
3.121979E+03	1.663377E-16	2.884244E-17
3.122579E+03	1.650706E-16	2.861690E-17
3.122779E+03	1.638248E-16	2.839901E-17
3.122979E+03	1.625393E-16	2.817425E-17
3.123379E+03	1.612624E-16	2.794912E-17
3.123779E+03	1.599985E-16	2.772630E-17
3.123979E+03	1.587257E-16	2.750385E-17
3.124380E+03	1.574217E-16	2.727419E-17
3.124980E+03	1.561259E-16	2.704415E-17
3.125780E+03	1.548512E-16	2.681606E-17
3.125980E+03	1.535245E-16	2.658450E-17
3.126180E+03	1.521977E-16	2.635294E-17
3.126780E+03	1.508871E-16	2.612068E-17
3.127180E+03	1.495813E-16	2.589109E-17
3.127380E+03	1.482273E-16	2.565498E-17
3.127780E+03	1.468944E-16	2.542082E-17
3.127980E+03	1.455402E-16	2.518474E-17
3.129180E+03	1.441985E-16	2.494236E-17
3.129380E+03	1.428303E-16	2.470400E-17
3.129580E+03	1.414752E-16	2.446795E-17
3.130181E+03	1.401353E-16	2.423123E-17
3.130381E+03	1.387797E-16	2.399520E-17
3.130581E+03	1.373975E-16	2.375459E-17
3.130981E+03	1.360226E-16	2.351367E-17
3.131180E+03	1.346136E-16	2.326850E-17
3.132180E+03	1.332335E-16	2.302207E-17
3.132380E+03	1.318516E-16	2.278172E-17
3.132580E+03	1.304829E-16	2.254369E-17
3.132780E+03	1.290756E-16	2.229902E-17
3.133380E+03	1.276675E-16	2.205122E-17
3.133580E+03	1.262372E-16	2.180268E-17
3.133780E+03	1.248055E-16	2.155392E-17
3.133980E+03	1.233722E-16	2.130494E-17
3.134380E+03	1.219587E-16	2.105796E-17
3.134580E+03	1.205225E-16	2.080855E-17
3.134780E+03	1.190808E-16	2.055821E-17
3.135180E+03	1.176467E-16	2.030784E-17
3.135580E+03	1.162135E-16	2.005769E-17
3.135780E+03	1.147632E-16	1.980602E-17
3.136381E+03	1.133265E-16	1.955403E-17
3.136581E+03	1.118863E-16	1.930420E-17
3.137181E+03	1.104607E-16	1.905430E-17
3.137581E+03	1.090154E-16	1.880239E-17
3.137781E+03	1.076076E-16	1.855831E-17
3.137981E+03	1.061745E-16	1.830990E-17
3.138781E+03	1.047359E-16	1.805683E-17
3.138981E+03	1.032850E-16	1.780547E-17
3.139581E+03	1.018624E-16	1.755658E-17
3.140981E+03	1.004546E-16	1.730557E-17
3.141181E+03	9.900395E-17	1.705449E-17
3.141581E+03	9.755183E-17	1.680202E-17
3.141781E+03	9.610212E-17	1.655118E-17
3.141981E+03	9.462563E-17	1.629577E-17
3.142582E+03	9.318448E-17	1.604425E-17
3.142782E+03	9.173281E-17	1.579321E-17
3.143182E+03	9.025273E-17	1.553624E-17
3.143381E+03	8.877538E-17	1.528087E-17
3.144581E+03	8.731382E-17	1.502305E-17
3.144781E+03	8.583705E-17	1.476794E-17
3.144981E+03	8.437479E-17	1.451535E-17
3.145181E+03	8.291773E-17	1.426370E-17
3.145381E+03	8.146442E-17	1.401273E-17
3.145581E+03	7.997644E-17	1.375582E-17
3.145981E+03	7.851915E-17	1.350330E-17
3.146181E+03	7.708001E-17	1.325488E-17
3.146381E+03	7.560338E-17	1.300005E-17
3.146581E+03	7.413329E-17	1.274638E-17
3.146781E+03	7.265504E-17	1.249135E-17
3.147181E+03	7.117920E-17	1.223591E-17
3.147381E+03	6.972184E-17	1.198455E-17
3.147981E+03	6.826646E-17	1.173194E-17
3.148182E+03	6.683389E-17	1.148494E-17
3.148382E+03	6.537056E-17	1.123270E-17
3.148782E+03	6.392388E-17	1.098259E-17
3.148982E+03	6.249207E-17	1.073584E-17
3.149382E+03	6.103020E-17	1.048324E-17
3.149582E+03	5.957007E-17	1.023172E-17
3.149982E+03	5.810763E-17	9.979142E-18
3.150982E+03	5.668612E-17	9.731625E-18
3.151182E+03	5.524507E-17	9.483570E-18
3.151382E+03	5.380653E-17	9.235981E-18
3.151582E+03	5.235984E-17	8.987027E-18
3.151982E+03	5.095839E-17	8.745262E-18
3.152182E+03	4.954992E-17	8.502952E-18
3.152582E+03	4.810399E-17	8.253672E-18
3.152782E+03	4.667515E-17	8.007953E-18
3.152982E+03	4.526614E-17	7.765670E-18
3.153382E+03	4.386470E-17	7.524193E-18
3.153582E+03	4.243666E-17	7.278728E-18
3.154183E+03	4.102095E-17	7.034428E-18
3.154383E+03	3.965105E-17	6.799037E-18
3.154783E+03	3.828177E-17	6.563326E-18
3.155182E+03	3.688553E-17	6.323060E-18
3.155383E+03	3.548039E-17	6.081757E-18
3.155582E+03	3.411373E-17	5.847088E-18
3.155782E+03	3.273359E-17	5.610140E-18
3.156182E+03	3.136036E-17	5.374031E-18
3.157182E+03	3.001442E-17	5.141583E-18
3.157382E+03	2.865879E-17	4.909014E-18
3.157782E+03	2.732452E-17	4.679807E-18
3.158182E+03	2.596461E-17	4.446274E-18
3.158382E+03	2.459905E-17	4.212135E-18
3.158782E+03	2.326795E-17	3.983649E-18
3.158982E+03	2.192070E-17	3.752725E-18
3.159182E+03	2.060263E-17	3.526831E-18
3.159382E+03	1.930978E-17	3.305283E-18
3.159582E+03	1.799410E-17	3.079859E-18
3.159782E+03	1.668628E-17	2.855814E-18
3.159982E+03	1.541034E-17	2.637254E-18
3.160183E+03	1.410358E-17	2.413450E-18
3.160383E+03	1.280947E-17	2.191844E-18
3.160983E+03	1.157468E-17	1.980139E-18
3.161583E+03	1.032426E-17	1.765851E-18
3.161783E+03	9.091520E-18	1.554894E-18
3.162183E+03	7.844265E-18	1.341391E-18
3.162383E+03	6.590761E-18	1.126959E-18
3.162783E+03	5.374133E-18	9.187974E-19
3.162983E+03	4.135645E-18	7.070074E-19
3.163183E+03	2.925464E-18	5.000861E-19
3.163383E+03	1.699525E-18	2.905006E-19
3.163783E+03	4.899460E-19	8.373487E-20
3.163983E+03	-7.090135E-19	-1.211663E-19
3.164383E+03	-1.864969E-18	-3.186674E-19
3.164583E+03	-3.031859E-18	-5.180175E-19
3.164783E+03	-4.201016E-18	-7.177266E-19
3.164983E+03	-5.334895E-18	-9.113809E-19
3.165183E+03	-6.487338E-18	-1.108179E-18
3.165383E+03	-7.589398E-18	-1.296343E-18
3.165583E+03	-8.701738E-18	-1.486237E-18
3.166184E+03	-9.816076E-18	-1.676206E-18
3.166384E+03	-1.089229E-17	-1.859851E-18
3.166584E+03	-1.197718E-17	-2.044950E-18
3.166784E+03	-1.304041E-17	-2.226325E-18
3.167184E+03	-1.405318E-17	-2.398891E-18
3.167383E+03	-1.506200E-17	-2.570917E-18
3.167584E+03	-1.606025E-17	-2.741112E-18
3.167784E+03	-1.705058E-17	-2.909932E-18
3.168383E+03	-1.803097E-17	-3.076595E-18
3.168983E+03	-1.900365E-17	-3.241874E-18
3.169183E+03	-1.996510E-17	-3.405647E-18
3.169583E+03	-2.091576E-17	-3.567304E-18
3.169783E+03	-2.186142E-17	-3.728327E-18
3.169983E+03	-2.279514E-17	-3.887292E-18
3.170183E+03	-2.371558E-17	-4.043968E-18
3.170383E+03	-2.462943E-17	-4.199499E-18
3.170583E+03	-2.552733E-17	-4.352289E-18
3.170783E+03	-2.640927E-17	-4.502335E-18
3.170983E+03	-2.727257E-17	-4.649182E-18
3.171383E+03	-2.812144E-17	-4.793209E-18
3.171583E+03	-2.895151E-17	-4.934341E-18
3.171783E+03	-2.976428E-17	-5.072504E-18
3.171983E+03	-3.055839E-17	-5.207468E-18
3.172184E+03	-3.133654E-17	-5.339690E-18
3.172384E+03	-3.209601E-17	-5.468714E-18
3.172584E+03	-3.283817E-17	-5.594769E-18
3.173184E+03	-3.356536E-17	-5.717442E-18
3.173384E+03	-3.425151E-17	-5.833903E-18
3.173584E+03	-3.490828E-17	-5.945345E-18
3.173784E+03	-3.558655E-17	-6.060431E-18
3.173984E+03	-3.627293E-17	-6.176882E-18
3.174184E+03	-3.692455E-17	-6.287398E-18
3.174384E+03	-3.757491E-17	-6.397684E-18
3.174584E+03	-3.814631E-17	-6.494510E-18
3.174784E+03	-3.874993E-17	-6.596806E-18
3.174984E+03	-3.932816E-17	-6.694766E-18
3.175184E+03	-3.990108E-17	-6.791810E-18
3.175384E+03	-4.042852E-17	-6.881097E-18
3.175584E+03	-4.090911E-17	-6.962398E-18
3.175784E+03	-4.139646E-17	-7.044838E-18
3.175984E+03	-4.187046E-17	-7.124995E-18
3.176184E+03	-4.231101E-17	-7.199448E-18
3.176384E+03	-4.276367E-17	-7.275950E-18
3.176584E+03	-4.317751E-17	-7.345838E-18
3.176784E+03	-4.354984E-17	-7.408653E-18
3.176984E+03	-4.393294E-17	-7.473291E-18
3.177384E+03	-4.429707E-17	-7.534154E-18
3.177584E+03	-4.458508E-17	-7.582598E-18
3.177784E+03	-4.491200E-17	-7.637651E-18
3.177984E+03	-4.518935E-17	-7.684267E-18
3.178185E+03	-4.546541E-17	-7.730653E-18
3.178385E+03	-4.566236E-17	-7.763586E-18
3.178585E+03	-4.589688E-17	-7.802902E-18
3.178785E+03	-4.606304E-17	-7.830588E-18
3.179185E+03	-4.622370E-17	-7.856776E-18
3.179385E+03	-4.639125E-17	-7.884688E-18
3.179785E+03	-4.653722E-17	-7.908364E-18
3.180184E+03	-4.666176E-17	-7.928394E-18
3.180385E+03	-4.673947E-17	-7.941027E-18
3.180584E+03	-4.678498E-17	-7.948191E-18
3.180784E+03	-4.681440E-17	-7.952619E-18
3.180984E+03	-4.683174E-17	-7.954994E-18
3.181184E+03	-4.678333E-17	-7.946201E-18
3.181584E+03	-4.675225E-17	-7.939781E-18
3.181784E+03	-4.669175E-17	-7.928936E-18
3.181984E+03	-4.657486E-17	-7.908520E-18
3.182184E+03	-4.642977E-17	-7.883316E-18
3.182384E+03	-4.628331E-17	-7.857885E-18
3.182584E+03	-4.610194E-17	-7.826529E-18
3.182784E+03	-4.589906E-17	-7.791527E-18
3.182984E+03	-4.564917E-17	-7.748550E-18
3.183184E+03	-4.538582E-17	-7.703294E-18
3.183384E+03	-4.508887E-17	-7.652343E-18
3.183584E+03	-4.476637E-17	-7.597063E-18
3.183784E+03	-4.443578E-17	-7.540417E-18
3.183984E+03	-4.407023E-17	-7.477849E-18
3.184185E+03	-4.363883E-17	-7.404114E-18
3.184385E+03	-4.316843E-17	-7.323775E-18
3.184585E+03	-4.271007E-17	-7.245489E-18
3.184785E+03	-4.222747E-17	-7.163103E-18
3.185185E+03	-4.170816E-17	-7.073993E-18
3.185385E+03	-4.114078E-17	-6.977259E-18
3.185585E+03	-4.053303E-17	-6.873692E-18
3.185785E+03	-3.991984E-17	-6.769217E-18
3.185985E+03	-3.927030E-17	-6.658594E-18
3.186385E+03	-3.860534E-17	-6.544901E-18
3.186585E+03	-3.790723E-17	-6.426085E-18
3.186785E+03	-3.716199E-17	-6.299297E-18
3.186985E+03	-3.638711E-17	-6.167502E-18
3.187185E+03	-3.556106E-17	-6.027054E-18
3.187385E+03	-3.471340E-17	-5.882964E-18
3.187585E+03	-3.380247E-17	-5.728173E-18
3.187785E+03	-3.291429E-17	-5.577259E-18
3.187985E+03	-3.195072E-17	-5.413592E-18
3.188385E+03	-3.096992E-17	-5.246653E-18
3.188585E+03	-2.995767E-17	-5.074799E-18
3.188785E+03	-2.888882E-17	-4.893383E-18
3.189185E+03	-2.780929E-17	-4.709843E-18
3.189385E+03	-2.668769E-17	-4.519560E-18
3.189585E+03	-2.553368E-17	-4.323815E-18
3.189785E+03	-2.434725E-17	-4.122610E-18
3.190386E+03	-2.312963E-17	-3.915585E-18
3.190586E+03	-2.187553E-17	-3.703011E-18
3.190786E+03	-2.058901E-17	-3.484981E-18
3.191186E+03	-1.926707E-17	-3.260751E-18
3.191385E+03	-1.791020E-17	-3.030896E-18
3.191586E+03	-1.651685E-17	-2.794900E-18
3.191785E+03	-1.508833E-17	-2.552989E-18
3.191985E+03	-1.362198E-17	-2.304711E-18
3.192385E+03	-1.213002E-17	-2.051987E-18
3.192585E+03	-1.059850E-17	-1.792776E-18
3.192785E+03	-9.014579E-18	-1.524740E-18
3.192985E+03	-7.400451E-18	-1.251633E-18
3.193185E+03	-5.751407E-18	-9.726605E-19
3.193585E+03	-4.048812E-18	-6.846233E-19
3.193785E+03	-2.301538E-18	-3.891443E-19
3.193985E+03	-5.210867E-19	-8.809900E-20
3.194185E+03	1.290054E-18	2.180909E-19
3.194385E+03	3.142949E-18	5.312943E-19
3.194585E+03	5.038237E-18	8.516181E-19
3.194785E+03	6.975899E-18	1.179057E-18
3.194985E+03	8.956207E-18	1.513656E-18
3.195185E+03	1.097945E-17	1.855463E-18
3.195385E+03	1.304575E-17	2.204495E-18
3.195585E+03	1.515541E-17	2.560802E-18
3.195785E+03	1.730815E-17	2.924336E-18
3.196186E+03	1.950667E-17	3.295312E-18
3.196386E+03	2.174761E-17	3.673612E-18
3.196586E+03	2.403192E-17	4.059183E-18
3.196786E+03	2.636366E-17	4.452708E-18
3.197186E+03	2.874038E-17	4.853418E-18
3.197386E+03	3.116174E-17	5.261932E-18
3.198186E+03	3.363344E-17	5.677645E-18
3.198786E+03	3.615009E-17	6.101144E-18
3.198986E+03	3.870780E-17	6.532338E-18
3.199186E+03	4.131300E-17	6.971483E-18
3.199586E+03	4.396679E-17	7.418220E-18
3.199786E+03	4.666579E-17	7.873029E-18
3.199986E+03	4.941095E-17	8.335559E-18
3.200186E+03	5.220769E-17	8.806722E-18
3.200386E+03	5.402118E-17	9.111966E-18
3.200786E+03	5.605387E-17	9.453446E-18
3.200986E+03	5.857901E-17	9.878586E-18
3.201186E+03	6.109499E-17	1.030212E-17
3.201786E+03	6.383156E-17	1.076121E-17
3.201987E+03	6.664131E-17	1.123407E-17
3.202387E+03	6.893954E-17	1.161979E-17
3.202587E+03	7.080771E-17	1.193380E-17
3.203187E+03	7.384941E-17	1.244371E-17
3.203387E+03	7.611662E-17	1.282480E-17
3.203787E+03	7.898400E-17	1.330597E-17
3.204387E+03	7.809893E-17	1.315397E-17
3.204786E+03	7.890594E-17	1.328794E-17
3.205386E+03	8.194950E-17	1.379745E-17
3.205586E+03	7.167329E-17	1.206640E-17
3.205786E+03	7.166106E-17	1.206346E-17
3.206186E+03	6.555414E-17	1.103380E-17
3.207186E+03	6.698084E-17	1.126979E-17
3.207786E+03	6.867789E-17	1.155277E-17
3.208587E+03	6.777769E-17	1.139798E-17
3.208787E+03	6.987081E-17	1.174911E-17
3.208987E+03	7.156114E-17	1.203246E-17
3.209387E+03	7.249559E-17	1.218778E-17
3.209787E+03	7.247524E-17	1.218256E-17
3.209987E+03	7.166219E-17	1.204501E-17
3.210387E+03	7.003041E-17	1.176900E-17
3.210987E+03	6.793116E-17	1.141368E-17
3.211987E+03	6.558272E-17	1.101503E-17
3.212587E+03	6.292405E-17	1.056615E-17
3.212787E+03	5.895269E-17	9.898547E-18
3.213187E+03	5.463056E-17	9.171476E-18
3.213387E+03	4.956671E-17	8.320732E-18
3.213787E+03	4.413507E-17	7.407829E-18
3.214388E+03	4.410859E-17	7.401736E-18
3.214988E+03	3.982708E-17	6.681784E-18
3.215988E+03	3.553456E-17	5.959418E-18
3.216188E+03	3.441180E-17	5.770693E-18
3.216588E+03	3.214013E-17	5.388946E-18
3.216787E+03	3.172311E-17	5.318632E-18
