#wls	flux	fluxerr
1.600000E+03	2.093359E-16	3.834946E-17
1.640000E+03	2.164022E-16	3.964340E-17
1.680000E+03	2.232381E-16	4.089510E-17
1.720000E+03	2.297673E-16	4.209055E-17
1.760000E+03	2.359301E-16	4.321883E-17
1.800000E+03	2.416376E-16	4.426366E-17
1.840000E+03	2.468180E-16	4.521189E-17
1.880000E+03	2.513951E-16	4.604954E-17
1.920000E+03	2.552664E-16	4.675788E-17
1.960000E+03	2.583507E-16	4.732201E-17
2.000000E+03	2.605667E-16	4.772704E-17
2.040000E+03	2.618353E-16	4.795853E-17
2.080000E+03	2.620631E-16	4.799933E-17
2.120000E+03	2.611861E-16	4.783777E-17
2.160000E+03	2.591164E-16	4.745773E-17
2.200000E+03	2.557877E-16	4.684711E-17
2.240000E+03	2.510967E-16	4.598699E-17
2.280000E+03	2.449848E-16	4.486665E-17
2.320000E+03	2.375917E-16	4.351170E-17
2.360000E+03	2.291093E-16	4.195731E-17
2.400000E+03	2.196920E-16	4.023176E-17
2.440000E+03	2.094660E-16	3.835818E-17
2.480000E+03	1.985497E-16	3.635823E-17
2.520000E+03	1.870752E-16	3.425617E-17
2.560000E+03	1.751614E-16	3.207374E-17
2.600000E+03	1.629482E-16	2.983658E-17
2.640000E+03	1.505634E-16	2.756812E-17
2.680000E+03	1.381292E-16	2.529071E-17
2.720000E+03	1.257833E-16	2.302958E-17
2.760000E+03	1.136493E-16	2.080735E-17
2.800000E+03	1.018480E-16	1.864615E-17
2.840000E+03	9.049185E-17	1.656658E-17
2.880000E+03	7.968854E-17	1.458832E-17
2.920000E+03	6.954614E-17	1.273116E-17
2.960000E+03	6.016624E-17	1.101370E-17
3.000000E+03	5.161954E-17	9.448862E-18
3.010000E+03	4.961769E-17	9.082347E-18
3.020000E+03	4.767240E-17	8.726193E-18
3.030000E+03	4.578115E-17	8.379933E-18
3.040000E+03	4.394486E-17	8.043741E-18
3.050000E+03	4.216512E-17	7.717905E-18
3.060000E+03	4.043956E-17	7.401991E-18
3.070000E+03	3.876950E-17	7.096242E-18
3.080000E+03	3.715433E-17	6.800544E-18
3.090000E+03	3.559340E-17	6.514778E-18
3.100000E+03	3.408603E-17	6.238821E-18
3.110000E+03	3.263287E-17	5.972789E-18
3.120000E+03	3.123232E-17	5.716393E-18
3.130000E+03	2.988411E-17	5.469581E-18
3.140000E+03	2.858726E-17	5.232174E-18
3.150000E+03	2.734074E-17	5.003982E-18
3.160000E+03	2.614401E-17	4.784907E-18
3.170000E+03	2.499637E-17	4.574819E-18
3.180000E+03	2.389567E-17	4.373327E-18
3.190000E+03	2.284203E-17	4.180452E-18
3.200000E+03	2.183372E-17	3.995874E-18
3.210000E+03	2.086974E-17	3.819415E-18
3.220000E+03	1.994875E-17	3.650826E-18
3.230000E+03	1.906902E-17	3.489791E-18
3.240000E+03	1.823014E-17	3.336234E-18
3.250000E+03	1.742976E-17	3.189728E-18
3.260000E+03	1.666737E-17	3.050175E-18
3.270000E+03	1.594150E-17	2.917309E-18
3.280000E+03	1.525025E-17	2.790780E-18
3.290000E+03	1.459294E-17	2.670465E-18
3.300000E+03	1.396774E-17	2.556027E-18
3.310000E+03	1.337352E-17	2.447263E-18
3.320000E+03	1.280896E-17	2.343926E-18
3.330000E+03	1.227294E-17	2.245815E-18
3.340000E+03	1.176400E-17	2.152662E-18
3.350000E+03	1.128094E-17	2.064245E-18
3.360000E+03	1.082256E-17	1.980346E-18
3.370000E+03	1.038787E-17	1.900784E-18
3.380000E+03	9.975603E-18	1.825327E-18
3.390000E+03	9.584708E-18	1.753782E-18
3.400000E+03	9.214159E-18	1.685961E-18
3.410000E+03	8.862865E-18	1.621665E-18
3.420000E+03	8.529900E-18	1.560723E-18
3.430000E+03	8.214381E-18	1.502975E-18
3.440000E+03	7.915362E-18	1.448247E-18
3.450000E+03	7.632045E-18	1.396393E-18
3.460000E+03	7.363581E-18	1.347258E-18
3.470000E+03	7.109170E-18	1.300695E-18
3.480000E+03	6.868063E-18	1.256567E-18
3.490000E+03	6.639477E-18	1.214731E-18
3.500000E+03	6.422827E-18	1.175080E-18
3.510000E+03	6.217419E-18	1.137486E-18
3.520000E+03	6.022541E-18	1.101819E-18
3.530000E+03	5.837479E-18	1.067949E-18
3.540000E+03	5.661753E-18	1.035788E-18
3.550000E+03	5.494740E-18	1.005221E-18
3.560000E+03	5.335763E-18	9.761255E-19
3.570000E+03	5.184361E-18	9.484160E-19
3.580000E+03	5.040056E-18	9.220055E-19
3.590000E+03	4.902355E-18	8.968037E-19
3.600000E+03	4.770765E-18	8.727204E-19
3.610000E+03	4.645005E-18	8.497040E-19
3.620000E+03	4.524722E-18	8.276901E-19
3.630000E+03	4.409587E-18	8.066183E-19
3.640000E+03	4.299483E-18	7.864674E-19
3.650000E+03	4.194174E-18	7.671940E-19
3.660000E+03	4.093469E-18	7.487632E-19
3.670000E+03	3.997212E-18	7.311464E-19
3.680000E+03	3.905251E-18	7.143158E-19
3.690000E+03	3.817396E-18	6.982368E-19
3.700000E+03	3.733563E-18	6.828935E-19
3.710000E+03	3.653534E-18	6.682467E-19
3.720000E+03	3.577194E-18	6.542746E-19
3.730000E+03	3.504454E-18	6.409616E-19
3.740000E+03	3.435083E-18	6.282648E-19
3.750000E+03	3.369053E-18	6.161795E-19
3.760000E+03	3.306142E-18	6.046649E-19
3.770000E+03	3.246298E-18	5.937115E-19
3.780000E+03	3.189392E-18	5.832957E-19
3.790000E+03	3.135292E-18	5.733934E-19
3.800000E+03	3.083904E-18	5.639872E-19
3.810000E+03	3.035108E-18	5.550552E-19
3.820000E+03	2.988814E-18	5.465810E-19
3.830000E+03	2.944933E-18	5.385483E-19
3.840000E+03	2.903361E-18	5.309380E-19
3.850000E+03	2.864014E-18	5.237348E-19
3.860000E+03	2.826819E-18	5.169254E-19
3.870000E+03	2.791678E-18	5.104916E-19
3.880000E+03	2.758522E-18	5.044208E-19
3.890000E+03	2.727285E-18	4.987012E-19
3.900000E+03	2.697879E-18	4.933166E-19
3.910000E+03	2.670246E-18	4.882563E-19
3.920000E+03	2.644306E-18	4.835055E-19
3.930000E+03	2.620025E-18	4.790583E-19
3.940000E+03	2.597330E-18	4.749012E-19
3.950000E+03	2.576170E-18	4.710247E-19
3.960000E+03	2.556456E-18	4.674127E-19
3.970000E+03	2.538183E-18	4.640642E-19
3.980000E+03	2.521268E-18	4.609643E-19
3.990000E+03	2.505669E-18	4.581048E-19
4.000000E+03	2.491328E-18	4.554754E-19
4.010000E+03	2.478224E-18	4.530723E-19
4.020000E+03	2.466285E-18	4.508821E-19
4.030000E+03	2.455494E-18	4.489019E-19
4.040000E+03	2.445782E-18	4.471188E-19
4.050000E+03	2.437135E-18	4.455304E-19
4.060000E+03	2.429488E-18	4.441249E-19
4.070000E+03	2.422811E-18	4.428969E-19
4.080000E+03	2.417078E-18	4.418413E-19
4.090000E+03	2.412263E-18	4.409534E-19
4.100000E+03	2.408307E-18	4.402226E-19
4.110000E+03	2.405186E-18	4.396443E-19
4.120000E+03	2.402860E-18	4.392115E-19
4.130000E+03	2.401309E-18	4.389201E-19
4.140000E+03	2.400514E-18	4.387671E-19
4.150000E+03	2.400421E-18	4.387422E-19
4.160000E+03	2.401032E-18	4.388460E-19
4.170000E+03	2.402293E-18	4.390685E-19
4.180000E+03	2.404191E-18	4.394073E-19
4.190000E+03	2.406713E-18	4.398601E-19
4.200000E+03	2.409806E-18	4.404174E-19
4.210000E+03	2.413462E-18	4.410772E-19
4.220000E+03	2.417650E-18	4.418343E-19
4.230000E+03	2.422379E-18	4.426904E-19
4.240000E+03	2.427585E-18	4.436332E-19
4.250000E+03	2.433275E-18	4.446646E-19
4.260000E+03	2.439408E-18	4.457769E-19
4.270000E+03	2.445994E-18	4.469718E-19
4.280000E+03	2.452970E-18	4.482379E-19
4.290000E+03	2.460330E-18	4.495740E-19
4.300000E+03	2.468069E-18	4.509793E-19
4.310000E+03	2.476126E-18	4.524425E-19
4.320000E+03	2.484513E-18	4.539660E-19
4.330000E+03	2.493151E-18	4.555352E-19
4.340000E+03	2.502054E-18	4.571527E-19
4.350000E+03	2.511119E-18	4.587997E-19
4.360000E+03	2.520343E-18	4.604757E-19
4.370000E+03	2.529782E-18	4.621907E-19
4.380000E+03	2.539432E-18	4.639443E-19
4.390000E+03	2.549315E-18	4.657401E-19
4.400000E+03	2.559428E-18	4.675780E-19
4.410000E+03	2.569732E-18	4.694506E-19
4.420000E+03	2.580270E-18	4.713658E-19
4.430000E+03	2.591002E-18	4.733163E-19
4.440000E+03	2.601931E-18	4.753026E-19
4.450000E+03	2.613042E-18	4.773220E-19
4.460000E+03	2.624337E-18	4.793750E-19
4.470000E+03	2.635784E-18	4.814553E-19
4.480000E+03	2.647405E-18	4.835676E-19
4.490000E+03	2.659171E-18	4.857060E-19
4.500000E+03	2.671067E-18	4.878681E-19
4.510000E+03	2.683125E-18	4.900595E-19
4.520000E+03	2.695290E-18	4.922704E-19
4.530000E+03	2.707576E-18	4.945033E-19
4.540000E+03	2.719998E-18	4.967606E-19
4.550000E+03	2.732523E-18	4.990369E-19
4.560000E+03	2.745173E-18	5.013356E-19
4.570000E+03	2.757917E-18	5.036513E-19
4.580000E+03	2.770774E-18	5.059875E-19
4.590000E+03	2.783742E-18	5.083439E-19
4.600000E+03	2.796819E-18	5.107199E-19
4.610000E+03	2.809981E-18	5.131113E-19
4.620000E+03	2.823275E-18	5.155266E-19
4.630000E+03	2.836655E-18	5.179573E-19
4.640000E+03	2.850144E-18	5.204078E-19
4.650000E+03	2.863743E-18	5.228782E-19
4.660000E+03	2.877433E-18	5.253651E-19
4.670000E+03	2.891265E-18	5.278777E-19
4.680000E+03	2.905193E-18	5.304074E-19
4.690000E+03	2.919244E-18	5.329596E-19
4.700000E+03	2.933475E-18	5.355444E-19
4.710000E+03	2.947867E-18	5.381582E-19
4.720000E+03	2.962450E-18	5.408069E-19
4.730000E+03	2.977257E-18	5.434962E-19
4.740000E+03	2.992297E-18	5.462278E-19
4.750000E+03	3.007577E-18	5.490030E-19
4.760000E+03	3.023161E-18	5.518336E-19
4.770000E+03	3.039003E-18	5.547108E-19
4.780000E+03	3.055169E-18	5.576470E-19
4.790000E+03	3.071669E-18	5.606439E-19
4.800000E+03	3.088485E-18	5.636984E-19
4.810000E+03	3.105687E-18	5.668230E-19
4.820000E+03	3.123260E-18	5.700150E-19
4.830000E+03	3.141215E-18	5.732763E-19
4.840000E+03	3.159566E-18	5.766098E-19
4.850000E+03	3.178326E-18	5.800177E-19
4.860000E+03	3.197568E-18	5.835132E-19
4.870000E+03	3.217220E-18	5.870832E-19
4.880000E+03	3.237356E-18	5.907412E-19
4.890000E+03	3.257958E-18	5.944841E-19
4.900000E+03	3.279077E-18	5.983209E-19
4.910000E+03	3.300694E-18	6.022483E-19
4.920000E+03	3.322828E-18	6.062695E-19
4.930000E+03	3.345523E-18	6.103930E-19
4.940000E+03	3.368733E-18	6.146101E-19
4.950000E+03	3.392507E-18	6.189296E-19
4.960000E+03	3.416858E-18	6.233541E-19
4.970000E+03	3.441803E-18	6.278865E-19
4.980000E+03	3.467322E-18	6.325233E-19
4.990000E+03	3.493430E-18	6.372673E-19
5.000000E+03	3.520176E-18	6.421271E-19
5.010000E+03	3.547506E-18	6.470930E-19
5.020000E+03	3.575498E-18	6.521794E-19
5.030000E+03	3.604098E-18	6.573762E-19
5.040000E+03	3.633319E-18	6.626858E-19
5.050000E+03	3.663206E-18	6.681163E-19
5.060000E+03	3.693732E-18	6.736632E-19
5.070000E+03	3.724911E-18	6.793284E-19
5.080000E+03	3.756714E-18	6.851070E-19
5.090000E+03	3.789186E-18	6.910073E-19
5.100000E+03	3.822336E-18	6.970307E-19
5.110000E+03	3.856099E-18	7.031651E-19
5.120000E+03	3.890515E-18	7.094182E-19
5.130000E+03	3.925593E-18	7.157915E-19
5.140000E+03	3.961338E-18	7.222860E-19
5.150000E+03	3.997718E-18	7.288956E-19
5.160000E+03	4.034738E-18	7.356212E-19
5.170000E+03	4.072359E-18	7.424561E-19
5.180000E+03	4.110666E-18	7.494152E-19
5.190000E+03	4.149583E-18	7.564849E-19
5.200000E+03	4.189108E-18	7.636650E-19
5.210000E+03	4.229246E-18	7.709561E-19
5.220000E+03	4.270035E-18	7.783652E-19
5.230000E+03	4.311393E-18	7.858774E-19
5.240000E+03	4.353318E-18	7.934922E-19
5.250000E+03	4.395889E-18	8.012242E-19
5.260000E+03	4.438976E-18	8.090494E-19
5.270000E+03	4.482656E-18	8.169820E-19
5.280000E+03	4.526880E-18	8.250132E-19
5.290000E+03	4.571637E-18	8.331406E-19
5.300000E+03	4.616962E-18	8.413708E-19
5.310000E+03	4.662751E-18	8.496848E-19
5.320000E+03	4.709031E-18	8.580875E-19
5.330000E+03	4.755786E-18	8.665761E-19
5.340000E+03	4.802995E-18	8.751466E-19
5.350000E+03	4.850683E-18	8.838034E-19
5.360000E+03	4.898728E-18	8.925246E-19
5.370000E+03	4.947149E-18	9.013133E-19
5.380000E+03	4.995914E-18	9.101639E-19
5.390000E+03	5.044937E-18	9.190608E-19
5.400000E+03	5.094279E-18	9.280148E-19
5.410000E+03	5.143849E-18	9.370094E-19
5.420000E+03	5.193548E-18	9.460267E-19
5.430000E+03	5.243326E-18	9.550575E-19
5.440000E+03	5.293180E-18	9.641013E-19
5.450000E+03	5.342948E-18	9.731284E-19
5.460000E+03	5.392619E-18	9.821370E-19
5.470000E+03	5.442125E-18	9.911146E-19
5.480000E+03	5.491288E-18	1.000029E-18
5.490000E+03	5.540029E-18	1.008865E-18
5.500000E+03	5.588325E-18	1.017620E-18
5.510000E+03	5.636036E-18	1.026267E-18
5.520000E+03	5.683016E-18	1.034780E-18
5.530000E+03	5.729115E-18	1.043132E-18
5.540000E+03	5.774353E-18	1.051326E-18
5.550000E+03	5.818454E-18	1.059312E-18
5.560000E+03	5.861378E-18	1.067083E-18
5.570000E+03	5.902958E-18	1.074608E-18
5.580000E+03	5.943089E-18	1.081869E-18
5.590000E+03	5.981662E-18	1.088845E-18
5.600000E+03	6.018511E-18	1.095507E-18
5.610000E+03	6.053588E-18	1.101845E-18
5.620000E+03	6.086728E-18	1.107830E-18
5.630000E+03	6.117764E-18	1.113431E-18
5.640000E+03	6.146719E-18	1.118653E-18
5.650000E+03	6.173434E-18	1.123467E-18
5.660000E+03	6.197755E-18	1.127844E-18
5.670000E+03	6.219657E-18	1.131780E-18
5.680000E+03	6.239128E-18	1.135274E-18
5.690000E+03	6.255963E-18	1.138287E-18
5.700000E+03	6.270160E-18	1.140819E-18
5.710000E+03	6.281729E-18	1.142873E-18
5.720000E+03	6.290556E-18	1.144428E-18
5.730000E+03	6.296666E-18	1.145488E-18
5.740000E+03	6.299961E-18	1.146036E-18
5.750000E+03	6.300489E-18	1.146079E-18
5.760000E+03	6.298236E-18	1.145617E-18
5.770000E+03	6.293267E-18	1.144661E-18
5.780000E+03	6.285454E-18	1.143187E-18
5.790000E+03	6.275018E-18	1.141236E-18
5.800000E+03	6.261850E-18	1.138788E-18
5.810000E+03	6.246050E-18	1.135861E-18
5.820000E+03	6.227666E-18	1.132464E-18
5.830000E+03	6.206750E-18	1.128607E-18
5.840000E+03	6.183430E-18	1.124313E-18
5.850000E+03	6.157778E-18	1.119595E-18
5.860000E+03	6.129870E-18	1.114467E-18
5.870000E+03	6.099724E-18	1.108933E-18
5.880000E+03	6.067565E-18	1.103033E-18
5.890000E+03	6.033424E-18	1.096772E-18
5.900000E+03	5.997466E-18	1.090182E-18
5.910000E+03	5.959733E-18	1.083270E-18
5.920000E+03	5.920398E-18	1.076066E-18
5.930000E+03	5.879576E-18	1.068593E-18
5.940000E+03	5.837378E-18	1.060871E-18
5.950000E+03	5.793917E-18	1.052919E-18
5.960000E+03	5.749309E-18	1.044760E-18
5.970000E+03	5.703732E-18	1.036424E-18
5.980000E+03	5.657167E-18	1.027911E-18
5.990000E+03	5.609857E-18	1.019262E-18
6.000000E+03	5.561842E-18	1.010486E-18
6.010000E+03	5.513231E-18	1.001602E-18
6.020000E+03	5.464189E-18	9.926402E-19
6.030000E+03	5.414685E-18	9.835956E-19
6.040000E+03	5.364946E-18	9.745089E-19
6.050000E+03	5.314932E-18	9.653730E-19
6.060000E+03	5.264800E-18	9.562163E-19
6.070000E+03	5.214629E-18	9.470533E-19
6.080000E+03	5.164438E-18	9.378874E-19
6.090000E+03	5.114303E-18	9.287324E-19
6.100000E+03	5.064294E-18	9.196010E-19
6.110000E+03	5.014481E-18	9.105060E-19
6.120000E+03	4.964927E-18	9.014587E-19
6.130000E+03	4.915688E-18	8.924696E-19
6.140000E+03	4.866824E-18	8.835491E-19
6.150000E+03	4.818385E-18	8.747064E-19
6.160000E+03	4.770477E-18	8.659611E-19
6.170000E+03	4.723207E-18	8.573321E-19
6.180000E+03	4.676669E-18	8.488370E-19
6.190000E+03	4.630902E-18	8.404823E-19
6.200000E+03	4.585934E-18	8.322735E-19
6.210000E+03	4.541735E-18	8.242050E-19
6.220000E+03	4.498330E-18	8.162811E-19
6.230000E+03	4.455742E-18	8.085063E-19
6.240000E+03	4.413931E-18	8.008731E-19
6.250000E+03	4.372975E-18	7.933957E-19
6.260000E+03	4.333007E-18	7.860982E-19
6.270000E+03	4.293980E-18	7.789719E-19
6.280000E+03	4.255960E-18	7.720291E-19
6.290000E+03	4.219074E-18	7.652926E-19
6.300000E+03	4.183268E-18	7.587525E-19
6.310000E+03	4.148720E-18	7.524412E-19
6.320000E+03	4.115490E-18	7.463694E-19
6.330000E+03	4.083519E-18	7.405264E-19
6.340000E+03	4.052980E-18	7.349439E-19
6.350000E+03	4.023931E-18	7.296318E-19
6.360000E+03	3.996369E-18	7.245896E-19
6.370000E+03	3.970347E-18	7.198273E-19
6.380000E+03	3.946036E-18	7.153755E-19
6.390000E+03	3.923375E-18	7.112232E-19
6.400000E+03	3.902420E-18	7.073804E-19
6.410000E+03	3.883283E-18	7.038674E-19
6.420000E+03	3.865789E-18	7.006524E-19
6.430000E+03	3.849821E-18	6.977144E-19
6.440000E+03	3.835322E-18	6.950427E-19
6.450000E+03	3.822232E-18	6.926263E-19
6.460000E+03	3.810432E-18	6.904439E-19
6.470000E+03	3.799924E-18	6.884956E-19
6.480000E+03	3.790646E-18	6.867703E-19
6.490000E+03	3.782598E-18	6.852678E-19
6.500000E+03	3.775721E-18	6.839775E-19
6.510000E+03	3.770012E-18	6.828988E-19
6.520000E+03	3.765471E-18	6.820316E-19
6.530000E+03	3.762038E-18	6.813650E-19
6.540000E+03	3.759771E-18	6.809094E-19
6.550000E+03	3.758669E-18	6.806646E-19
6.560000E+03	3.758673E-18	6.806200E-19
6.570000E+03	3.759840E-18	6.807859E-19
6.580000E+03	3.762113E-18	6.811516E-19
6.590000E+03	3.765489E-18	6.817170E-19
6.600000E+03	3.770030E-18	6.824930E-19
6.610000E+03	3.775614E-18	6.834575E-19
6.620000E+03	3.782427E-18	6.846441E-19
6.630000E+03	3.790285E-18	6.860194E-19
6.640000E+03	3.799312E-18	6.876061E-19
6.650000E+03	3.809449E-18	6.893931E-19
6.660000E+03	3.820694E-18	6.913803E-19
6.670000E+03	3.833117E-18	6.935802E-19
6.680000E+03	3.846656E-18	6.959815E-19
6.690000E+03	3.861313E-18	6.985845E-19
6.700000E+03	3.877088E-18	7.013893E-19
6.710000E+03	3.894056E-18	7.044092E-19
6.720000E+03	3.912082E-18	7.076199E-19
6.730000E+03	3.931307E-18	7.110469E-19
6.740000E+03	3.951665E-18	7.146782E-19
6.750000E+03	3.973163E-18	7.185149E-19
6.760000E+03	3.995803E-18	7.225573E-19
6.770000E+03	4.019591E-18	7.268065E-19
6.780000E+03	4.044603E-18	7.312762E-19
6.790000E+03	4.070699E-18	7.359412E-19
6.800000E+03	4.097959E-18	7.408156E-19
6.810000E+03	4.126384E-18	7.458998E-19
6.820000E+03	4.155982E-18	7.511950E-19
6.830000E+03	4.186757E-18	7.567019E-19
6.840000E+03	4.218715E-18	7.624218E-19
6.850000E+03	4.251863E-18	7.683555E-19
6.860000E+03	4.286124E-18	7.744896E-19
6.870000E+03	4.321585E-18	7.808391E-19
6.880000E+03	4.358251E-18	7.874052E-19
6.890000E+03	4.396044E-18	7.941739E-19
6.900000E+03	4.435051E-18	8.011605E-19
6.910000E+03	4.475277E-18	8.083662E-19
6.920000E+03	4.516644E-18	8.157767E-19
6.930000E+03	4.559154E-18	8.233921E-19
6.940000E+03	4.602896E-18	8.312288E-19
6.950000E+03	4.647788E-18	8.392719E-19
6.960000E+03	4.693831E-18	8.475213E-19
6.970000E+03	4.741121E-18	8.559943E-19
6.980000E+03	4.789568E-18	8.646748E-19
6.990000E+03	4.839177E-18	8.735635E-19
7.000000E+03	4.889853E-18	8.826432E-19
7.010000E+03	4.941787E-18	8.919483E-19
7.020000E+03	4.994887E-18	9.014622E-19
7.030000E+03	5.049153E-18	9.111850E-19
7.040000E+03	5.104489E-18	9.210991E-19
7.050000E+03	5.160991E-18	9.312217E-19
7.060000E+03	5.218557E-18	9.415346E-19
7.070000E+03	5.277396E-18	9.520753E-19
7.080000E+03	5.337189E-18	9.627864E-19
7.090000E+03	5.398148E-18	9.737058E-19
7.100000E+03	5.460160E-18	9.848132E-19
7.110000E+03	5.523335E-18	9.961283E-19
7.120000E+03	5.587444E-18	1.007610E-18
7.130000E+03	5.652706E-18	1.019298E-18
7.140000E+03	5.718889E-18	1.031149E-18
7.150000E+03	5.786097E-18	1.043183E-18
7.160000E+03	5.854327E-18	1.055400E-18
7.170000E+03	5.923568E-18	1.067796E-18
7.180000E+03	5.993690E-18	1.080349E-18
7.190000E+03	6.064678E-18	1.093056E-18
7.200000E+03	6.136647E-18	1.105937E-18
7.210000E+03	6.209456E-18	1.118968E-18
7.220000E+03	6.283222E-18	1.132168E-18
7.230000E+03	6.357664E-18	1.145488E-18
7.240000E+03	6.433033E-18	1.158973E-18
7.250000E+03	6.509177E-18	1.172595E-18
7.260000E+03	6.586075E-18	1.186351E-18
7.270000E+03	6.663710E-18	1.200236E-18
7.280000E+03	6.742058E-18	1.214248E-18
7.290000E+03	6.821097E-18	1.228381E-18
7.300000E+03	6.900956E-18	1.242660E-18
7.310000E+03	6.981309E-18	1.257025E-18
7.320000E+03	7.062594E-18	1.271555E-18
7.330000E+03	7.144638E-18	1.286220E-18
7.340000E+03	7.227261E-18	1.300986E-18
7.350000E+03	7.310928E-18	1.315937E-18
7.360000E+03	7.395297E-18	1.331012E-18
7.370000E+03	7.480857E-18	1.346299E-18
7.380000E+03	7.567438E-18	1.361767E-18
7.390000E+03	7.655206E-18	1.377445E-18
7.400000E+03	7.744343E-18	1.393367E-18
7.410000E+03	7.834855E-18	1.409534E-18
7.420000E+03	7.927125E-18	1.426014E-18
7.430000E+03	8.021366E-18	1.442846E-18
7.440000E+03	8.117425E-18	1.460001E-18
7.450000E+03	8.215329E-18	1.477486E-18
7.460000E+03	8.315105E-18	1.495304E-18
7.470000E+03	8.416584E-18	1.513425E-18
7.480000E+03	8.519579E-18	1.531816E-18
7.490000E+03	8.623894E-18	1.550440E-18
7.500000E+03	8.729526E-18	1.569298E-18
7.510000E+03	8.836263E-18	1.588352E-18
7.520000E+03	8.943873E-18	1.607559E-18
7.530000E+03	9.052558E-18	1.626956E-18
7.540000E+03	9.161854E-18	1.646460E-18
7.550000E+03	9.271727E-18	1.666063E-18
7.560000E+03	9.382138E-18	1.685760E-18
7.570000E+03	9.493052E-18	1.705544E-18
7.580000E+03	9.604428E-18	1.725408E-18
7.590000E+03	9.715981E-18	1.745300E-18
7.600000E+03	9.827658E-18	1.765211E-18
7.610000E+03	9.939650E-18	1.785175E-18
7.620000E+03	1.005165E-17	1.805138E-18
7.630000E+03	1.016387E-17	1.825135E-18
7.640000E+03	1.027571E-17	1.845063E-18
7.650000E+03	1.038764E-17	1.865002E-18
7.660000E+03	1.049933E-17	1.884894E-18
7.670000E+03	1.061069E-17	1.904725E-18
7.680000E+03	1.072166E-17	1.924481E-18
7.690000E+03	1.083243E-17	1.944200E-18
7.700000E+03	1.094264E-17	1.963815E-18
7.710000E+03	1.105222E-17	1.983313E-18
7.720000E+03	1.116136E-17	2.002729E-18
7.730000E+03	1.126999E-17	2.022050E-18
7.740000E+03	1.137771E-17	2.041205E-18
7.750000E+03	1.148475E-17	2.060234E-18
7.760000E+03	1.159100E-17	2.079120E-18
