#wls	flux	fluxerr
1.600000E+03	3.321179E-16	1.047891E-16
1.640000E+03	3.419243E-16	1.078817E-16
1.680000E+03	3.510986E-16	1.107747E-16
1.720000E+03	3.595671E-16	1.134448E-16
1.760000E+03	3.671078E-16	1.158221E-16
1.800000E+03	3.737020E-16	1.179006E-16
1.840000E+03	3.791183E-16	1.196073E-16
1.880000E+03	3.832956E-16	1.209231E-16
1.920000E+03	3.861044E-16	1.218069E-16
1.960000E+03	3.873598E-16	1.222005E-16
2.000000E+03	3.870126E-16	1.220885E-16
2.040000E+03	3.849370E-16	1.214311E-16
2.080000E+03	3.810322E-16	1.201966E-16
2.120000E+03	3.752297E-16	1.183635E-16
2.160000E+03	3.674516E-16	1.159071E-16
2.200000E+03	3.575874E-16	1.127927E-16
2.240000E+03	3.455498E-16	1.089929E-16
2.280000E+03	3.314119E-16	1.045307E-16
2.320000E+03	3.154641E-16	9.949779E-17
2.360000E+03	2.981885E-16	9.404626E-17
2.400000E+03	2.799737E-16	8.829873E-17
2.440000E+03	2.611723E-16	8.236649E-17
2.480000E+03	2.420453E-16	7.633184E-17
2.520000E+03	2.228627E-16	7.027999E-17
2.560000E+03	2.038457E-16	6.428064E-17
2.600000E+03	1.852177E-16	5.840434E-17
2.640000E+03	1.671594E-16	5.270803E-17
2.680000E+03	1.498356E-16	4.724368E-17
2.720000E+03	1.333909E-16	4.205686E-17
2.760000E+03	1.179341E-16	3.718189E-17
2.800000E+03	1.035544E-16	3.264684E-17
2.840000E+03	9.031418E-17	2.847139E-17
2.880000E+03	7.825575E-17	2.466882E-17
2.920000E+03	6.739923E-17	2.124543E-17
2.960000E+03	5.773807E-17	1.819913E-17
3.000000E+03	4.924133E-17	1.552012E-17
3.010000E+03	4.729291E-17	1.490580E-17
3.020000E+03	4.541184E-17	1.431273E-17
3.030000E+03	4.359868E-17	1.374108E-17
3.040000E+03	4.184989E-17	1.318972E-17
3.050000E+03	4.016579E-17	1.265877E-17
3.060000E+03	3.854474E-17	1.214770E-17
3.070000E+03	3.698579E-17	1.165622E-17
3.080000E+03	3.548574E-17	1.118331E-17
3.090000E+03	3.404514E-17	1.072915E-17
3.100000E+03	3.266080E-17	1.029274E-17
3.110000E+03	3.133242E-17	9.873963E-18
3.120000E+03	3.005816E-17	9.472257E-18
3.130000E+03	2.883575E-17	9.086900E-18
3.140000E+03	2.766462E-17	8.717715E-18
3.150000E+03	2.654249E-17	8.363980E-18
3.160000E+03	2.546820E-17	8.025328E-18
3.170000E+03	2.444009E-17	7.701239E-18
3.180000E+03	2.345648E-17	7.391182E-18
3.190000E+03	2.251621E-17	7.094788E-18
3.200000E+03	2.161763E-17	6.811539E-18
3.210000E+03	2.075882E-17	6.540830E-18
3.220000E+03	1.993898E-17	6.282409E-18
3.230000E+03	1.915624E-17	6.035680E-18
3.240000E+03	1.840946E-17	5.800293E-18
3.250000E+03	1.769720E-17	5.575788E-18
3.260000E+03	1.701778E-17	5.361635E-18
3.270000E+03	1.637039E-17	5.157582E-18
3.280000E+03	1.575321E-17	4.963049E-18
3.290000E+03	1.516545E-17	4.777793E-18
3.300000E+03	1.460585E-17	4.601415E-18
3.310000E+03	1.407278E-17	4.433399E-18
3.320000E+03	1.356552E-17	4.273521E-18
3.330000E+03	1.308295E-17	4.121422E-18
3.340000E+03	1.262378E-17	3.976703E-18
3.350000E+03	1.218700E-17	3.839042E-18
3.360000E+03	1.177163E-17	3.708126E-18
3.370000E+03	1.137671E-17	3.583660E-18
3.380000E+03	1.100134E-17	3.465354E-18
3.390000E+03	1.064465E-17	3.352935E-18
3.400000E+03	1.030565E-17	3.246095E-18
3.410000E+03	9.983444E-18	3.144544E-18
3.420000E+03	9.677528E-18	3.048130E-18
3.430000E+03	9.386814E-18	2.956506E-18
3.440000E+03	9.110749E-18	2.869500E-18
3.450000E+03	8.848578E-18	2.786872E-18
3.460000E+03	8.599690E-18	2.708431E-18
3.470000E+03	8.363306E-18	2.633930E-18
3.480000E+03	8.138795E-18	2.563171E-18
3.490000E+03	7.925654E-18	2.495996E-18
3.500000E+03	7.723229E-18	2.432197E-18
3.510000E+03	7.531079E-18	2.371636E-18
3.520000E+03	7.348456E-18	2.314077E-18
3.530000E+03	7.174988E-18	2.259404E-18
3.540000E+03	7.010096E-18	2.207433E-18
3.550000E+03	6.853311E-18	2.158016E-18
3.560000E+03	6.704203E-18	2.111018E-18
3.570000E+03	6.562226E-18	2.066268E-18
3.580000E+03	6.427143E-18	2.023690E-18
3.590000E+03	6.298536E-18	1.983152E-18
3.600000E+03	6.176009E-18	1.944530E-18
3.610000E+03	6.059376E-18	1.907765E-18
3.620000E+03	5.948224E-18	1.872727E-18
3.630000E+03	5.842278E-18	1.839330E-18
3.640000E+03	5.741278E-18	1.807490E-18
3.650000E+03	5.644981E-18	1.777133E-18
3.660000E+03	5.553152E-18	1.748183E-18
3.670000E+03	5.465569E-18	1.720570E-18
3.680000E+03	5.382070E-18	1.694245E-18
3.690000E+03	5.302494E-18	1.669155E-18
3.700000E+03	5.226638E-18	1.645237E-18
3.710000E+03	5.154497E-18	1.622489E-18
3.720000E+03	5.085827E-18	1.600834E-18
3.730000E+03	5.020573E-18	1.580256E-18
3.740000E+03	4.958593E-18	1.560708E-18
3.750000E+03	4.899792E-18	1.542162E-18
3.760000E+03	4.844154E-18	1.524612E-18
3.770000E+03	4.791462E-18	1.507990E-18
3.780000E+03	4.741702E-18	1.492291E-18
3.790000E+03	4.694824E-18	1.477500E-18
3.800000E+03	4.650653E-18	1.463561E-18
3.810000E+03	4.609181E-18	1.450471E-18
3.820000E+03	4.570356E-18	1.438215E-18
3.830000E+03	4.534053E-18	1.426754E-18
3.840000E+03	4.500186E-18	1.416058E-18
3.850000E+03	4.468781E-18	1.406138E-18
3.860000E+03	4.439685E-18	1.396945E-18
3.870000E+03	4.412889E-18	1.388475E-18
3.880000E+03	4.388311E-18	1.380704E-18
3.890000E+03	4.365911E-18	1.373618E-18
3.900000E+03	4.345646E-18	1.367203E-18
3.910000E+03	4.327410E-18	1.361428E-18
3.920000E+03	4.311163E-18	1.356277E-18
3.930000E+03	4.296905E-18	1.351753E-18
3.940000E+03	4.284565E-18	1.347832E-18
3.950000E+03	4.274075E-18	1.344493E-18
3.960000E+03	4.265402E-18	1.341725E-18
3.970000E+03	4.258484E-18	1.339509E-18
3.980000E+03	4.253291E-18	1.337835E-18
3.990000E+03	4.249794E-18	1.336695E-18
4.000000E+03	4.247965E-18	1.336079E-18
4.010000E+03	4.247714E-18	1.335960E-18
4.020000E+03	4.249017E-18	1.336328E-18
4.030000E+03	4.251851E-18	1.337178E-18
4.040000E+03	4.256194E-18	1.338502E-18
4.050000E+03	4.261990E-18	1.340282E-18
4.060000E+03	4.269192E-18	1.342504E-18
4.070000E+03	4.277778E-18	1.345161E-18
4.080000E+03	4.287699E-18	1.348237E-18
4.090000E+03	4.298940E-18	1.351728E-18
4.100000E+03	4.311453E-18	1.355618E-18
4.110000E+03	4.325224E-18	1.359903E-18
4.120000E+03	4.340207E-18	1.364569E-18
4.130000E+03	4.356358E-18	1.369601E-18
4.140000E+03	4.373665E-18	1.374995E-18
4.150000E+03	4.392083E-18	1.380738E-18
4.160000E+03	4.411606E-18	1.386828E-18
4.170000E+03	4.432155E-18	1.393240E-18
4.180000E+03	4.453725E-18	1.399972E-18
4.190000E+03	4.476240E-18	1.407000E-18
4.200000E+03	4.499725E-18	1.414332E-18
4.210000E+03	4.524110E-18	1.421946E-18
4.220000E+03	4.549387E-18	1.429839E-18
4.230000E+03	4.575445E-18	1.437977E-18
4.240000E+03	4.602316E-18	1.446370E-18
4.250000E+03	4.629887E-18	1.454981E-18
4.260000E+03	4.658192E-18	1.463822E-18
4.270000E+03	4.687116E-18	1.472857E-18
4.280000E+03	4.716583E-18	1.482061E-18
4.290000E+03	4.746623E-18	1.491444E-18
4.300000E+03	4.777084E-18	1.500958E-18
4.310000E+03	4.807996E-18	1.510613E-18
4.320000E+03	4.839204E-18	1.520359E-18
4.330000E+03	4.870737E-18	1.530206E-18
4.340000E+03	4.902513E-18	1.540129E-18
4.350000E+03	4.934446E-18	1.550100E-18
4.360000E+03	4.966527E-18	1.560115E-18
4.370000E+03	4.998707E-18	1.570161E-18
4.380000E+03	5.031024E-18	1.580249E-18
4.390000E+03	5.063385E-18	1.590349E-18
4.400000E+03	5.095871E-18	1.600487E-18
4.410000E+03	5.128474E-18	1.610660E-18
4.420000E+03	5.161195E-18	1.620870E-18
4.430000E+03	5.194032E-18	1.631114E-18
4.440000E+03	5.227029E-18	1.641407E-18
4.450000E+03	5.260144E-18	1.651736E-18
4.460000E+03	5.293430E-18	1.662117E-18
4.470000E+03	5.326887E-18	1.672551E-18
4.480000E+03	5.360530E-18	1.683041E-18
4.490000E+03	5.394319E-18	1.693576E-18
4.500000E+03	5.428269E-18	1.704160E-18
4.510000E+03	5.462345E-18	1.714782E-18
4.520000E+03	5.496610E-18	1.725461E-18
4.530000E+03	5.530985E-18	1.736174E-18
4.540000E+03	5.565488E-18	1.746926E-18
4.550000E+03	5.600137E-18	1.757721E-18
4.560000E+03	5.634863E-18	1.768540E-18
4.570000E+03	5.669731E-18	1.779401E-18
4.580000E+03	5.704672E-18	1.790284E-18
4.590000E+03	5.739709E-18	1.801195E-18
4.600000E+03	5.774775E-18	1.812114E-18
4.610000E+03	5.809944E-18	1.823063E-18
4.620000E+03	5.845202E-18	1.834038E-18
4.630000E+03	5.880476E-18	1.845017E-18
4.640000E+03	5.915805E-18	1.856012E-18
4.650000E+03	5.951226E-18	1.867033E-18
4.660000E+03	5.986726E-18	1.878078E-18
4.670000E+03	6.022240E-18	1.889125E-18
4.680000E+03	6.057922E-18	1.900223E-18
4.690000E+03	6.093817E-18	1.911386E-18
4.700000E+03	6.129869E-18	1.922597E-18
4.710000E+03	6.166130E-18	1.933871E-18
4.720000E+03	6.202656E-18	1.945227E-18
4.730000E+03	6.239338E-18	1.956629E-18
4.740000E+03	6.276234E-18	1.968097E-18
4.750000E+03	6.313290E-18	1.979613E-18
4.760000E+03	6.350565E-18	1.991195E-18
4.770000E+03	6.388068E-18	2.002847E-18
4.780000E+03	6.425745E-18	2.014552E-18
4.790000E+03	6.463664E-18	2.026331E-18
4.800000E+03	6.501770E-18	2.038166E-18
4.810000E+03	6.540136E-18	2.050080E-18
4.820000E+03	6.578709E-18	2.062057E-18
4.830000E+03	6.617498E-18	2.074100E-18
4.840000E+03	6.656517E-18	2.086213E-18
4.850000E+03	6.695835E-18	2.098417E-18
4.860000E+03	6.735404E-18	2.110698E-18
4.870000E+03	6.775236E-18	2.123059E-18
4.880000E+03	6.815278E-18	2.135483E-18
4.890000E+03	6.855670E-18	2.148015E-18
4.900000E+03	6.896360E-18	2.160638E-18
4.910000E+03	6.937359E-18	2.173355E-18
4.920000E+03	6.978616E-18	2.186150E-18
4.930000E+03	7.020204E-18	2.199047E-18
4.940000E+03	7.062068E-18	2.212028E-18
4.950000E+03	7.104220E-18	2.225096E-18
4.960000E+03	7.146734E-18	2.238275E-18
4.970000E+03	7.189549E-18	2.251546E-18
4.980000E+03	7.232677E-18	2.264913E-18
4.990000E+03	7.276052E-18	2.278354E-18
5.000000E+03	7.319748E-18	2.291893E-18
5.010000E+03	7.363770E-18	2.305531E-18
5.020000E+03	7.408049E-18	2.319247E-18
5.030000E+03	7.452588E-18	2.333042E-18
5.040000E+03	7.497387E-18	2.346915E-18
5.050000E+03	7.542371E-18	2.360843E-18
5.060000E+03	7.587607E-18	2.374847E-18
5.070000E+03	7.633092E-18	2.388926E-18
5.080000E+03	7.678673E-18	2.403033E-18
5.090000E+03	7.724415E-18	2.417186E-18
5.100000E+03	7.770303E-18	2.431383E-18
5.110000E+03	7.816257E-18	2.445597E-18
5.120000E+03	7.862255E-18	2.459821E-18
5.130000E+03	7.908286E-18	2.474053E-18
5.140000E+03	7.954330E-18	2.488286E-18
5.150000E+03	8.000290E-18	2.502489E-18
5.160000E+03	8.046219E-18	2.516680E-18
5.170000E+03	8.091935E-18	2.530801E-18
5.180000E+03	8.137493E-18	2.544869E-18
5.190000E+03	8.182783E-18	2.558850E-18
5.200000E+03	8.227773E-18	2.572734E-18
5.210000E+03	8.272428E-18	2.586509E-18
5.220000E+03	8.316714E-18	2.600167E-18
5.230000E+03	8.360430E-18	2.613642E-18
5.240000E+03	8.403697E-18	2.626975E-18
5.250000E+03	8.446394E-18	2.640125E-18
5.260000E+03	8.488480E-18	2.653081E-18
5.270000E+03	8.529825E-18	2.665803E-18
5.280000E+03	8.570383E-18	2.678275E-18
5.290000E+03	8.610109E-18	2.690485E-18
5.300000E+03	8.648954E-18	2.702415E-18
5.310000E+03	8.686870E-18	2.714052E-18
5.320000E+03	8.723728E-18	2.725355E-18
5.330000E+03	8.759647E-18	2.736362E-18
5.340000E+03	8.794413E-18	2.747005E-18
5.350000E+03	8.827977E-18	2.757270E-18
5.360000E+03	8.860470E-18	2.767197E-18
5.370000E+03	8.891674E-18	2.776719E-18
5.380000E+03	8.921724E-18	2.785877E-18
5.390000E+03	8.950495E-18	2.794633E-18
5.400000E+03	8.978039E-18	2.803003E-18
5.410000E+03	9.004231E-18	2.810948E-18
5.420000E+03	9.029217E-18	2.818514E-18
5.430000E+03	9.052884E-18	2.825665E-18
5.440000E+03	9.075296E-18	2.832421E-18
5.450000E+03	9.096244E-18	2.838718E-18
5.460000E+03	9.115802E-18	2.844579E-18
5.470000E+03	9.133857E-18	2.849968E-18
5.480000E+03	9.150305E-18	2.854853E-18
5.490000E+03	9.165222E-18	2.859258E-18
5.500000E+03	9.178414E-18	2.863122E-18
5.510000E+03	9.189779E-18	2.866415E-18
5.520000E+03	9.199311E-18	2.869133E-18
5.530000E+03	9.206821E-18	2.871219E-18
5.540000E+03	9.212401E-18	2.872701E-18
5.550000E+03	9.215771E-18	2.873491E-18
5.560000E+03	9.217120E-18	2.873650E-18
5.570000E+03	9.216366E-18	2.873152E-18
5.580000E+03	9.213421E-18	2.871969E-18
5.590000E+03	9.208297E-18	2.870105E-18
5.600000E+03	9.201011E-18	2.867567E-18
5.610000E+03	9.191484E-18	2.864328E-18
5.620000E+03	9.179925E-18	2.860456E-18
5.630000E+03	9.166168E-18	2.855897E-18
5.640000E+03	9.150428E-18	2.850720E-18
5.650000E+03	9.132542E-18	2.844873E-18
5.660000E+03	9.112733E-18	2.838428E-18
5.670000E+03	9.091032E-18	2.831392E-18
5.680000E+03	9.067381E-18	2.823748E-18
5.690000E+03	9.041913E-18	2.815539E-18
5.700000E+03	9.014671E-18	2.806777E-18
5.710000E+03	8.985790E-18	2.797505E-18
5.720000E+03	8.955320E-18	2.787739E-18
5.730000E+03	8.923214E-18	2.777463E-18
5.740000E+03	8.889713E-18	2.766753E-18
5.750000E+03	8.854868E-18	2.755626E-18
5.760000E+03	8.818644E-18	2.744070E-18
5.770000E+03	8.781194E-18	2.732134E-18
5.780000E+03	8.742672E-18	2.719864E-18
5.790000E+03	8.703140E-18	2.707282E-18
5.800000E+03	8.662574E-18	2.694378E-18
5.810000E+03	8.621130E-18	2.681203E-18
5.820000E+03	8.578972E-18	2.667806E-18
5.830000E+03	8.536169E-18	2.654210E-18
5.840000E+03	8.492703E-18	2.640409E-18
5.850000E+03	8.448738E-18	2.626454E-18
5.860000E+03	8.404349E-18	2.612369E-18
5.870000E+03	8.359702E-18	2.598205E-18
5.880000E+03	8.314871E-18	2.583985E-18
5.890000E+03	8.269839E-18	2.569705E-18
5.900000E+03	8.224777E-18	2.555416E-18
5.910000E+03	8.179663E-18	2.541113E-18
5.920000E+03	8.134850E-18	2.526905E-18
5.930000E+03	8.090134E-18	2.512728E-18
5.940000E+03	8.045680E-18	2.498634E-18
5.950000E+03	8.001648E-18	2.484673E-18
5.960000E+03	7.958020E-18	2.470839E-18
5.970000E+03	7.914857E-18	2.457151E-18
5.980000E+03	7.872320E-18	2.443658E-18
5.990000E+03	7.830380E-18	2.430352E-18
6.000000E+03	7.789186E-18	2.417280E-18
6.010000E+03	7.748619E-18	2.404403E-18
6.020000E+03	7.708910E-18	2.391794E-18
6.030000E+03	7.669936E-18	2.379415E-18
6.040000E+03	7.631926E-18	2.367336E-18
6.050000E+03	7.594658E-18	2.355488E-18
6.060000E+03	7.558353E-18	2.343940E-18
6.070000E+03	7.522966E-18	2.332678E-18
6.080000E+03	7.488535E-18	2.321713E-18
6.090000E+03	7.454919E-18	2.311003E-18
6.100000E+03	7.422325E-18	2.300610E-18
6.110000E+03	7.390518E-18	2.290461E-18
6.120000E+03	7.359703E-18	2.280622E-18
6.130000E+03	7.329636E-18	2.271015E-18
6.140000E+03	7.300336E-18	2.261646E-18
6.150000E+03	7.271734E-18	2.252494E-18
6.160000E+03	7.243841E-18	2.243563E-18
6.170000E+03	7.216402E-18	2.234773E-18
6.180000E+03	7.189423E-18	2.226126E-18
6.190000E+03	7.162819E-18	2.217596E-18
6.200000E+03	7.136589E-18	2.209183E-18
6.210000E+03	7.110731E-18	2.200885E-18
6.220000E+03	7.085421E-18	2.192757E-18
6.230000E+03	7.060926E-18	2.184882E-18
6.240000E+03	7.037330E-18	2.177286E-18
6.250000E+03	7.014807E-18	2.170022E-18
6.260000E+03	6.993534E-18	2.163145E-18
6.270000E+03	6.973592E-18	2.156681E-18
6.280000E+03	6.955161E-18	2.150683E-18
6.290000E+03	6.938326E-18	2.145179E-18
6.300000E+03	6.923170E-18	2.140195E-18
6.310000E+03	6.909879E-18	2.135786E-18
6.320000E+03	6.898449E-18	2.131952E-18
6.330000E+03	6.889064E-18	2.128750E-18
6.340000E+03	6.881628E-18	2.126149E-18
6.350000E+03	6.876237E-18	2.124179E-18
6.360000E+03	6.872891E-18	2.122840E-18
6.370000E+03	6.871688E-18	2.122161E-18
6.380000E+03	6.872532E-18	2.122113E-18
6.390000E+03	6.875427E-18	2.122697E-18
6.400000E+03	6.880275E-18	2.123882E-18
6.410000E+03	6.886879E-18	2.125607E-18
6.420000E+03	6.895139E-18	2.127840E-18
6.430000E+03	6.905046E-18	2.130580E-18
6.440000E+03	6.916599E-18	2.133826E-18
6.450000E+03	6.929794E-18	2.137574E-18
6.460000E+03	6.944733E-18	2.141859E-18
6.470000E+03	6.961517E-18	2.146709E-18
6.480000E+03	6.980153E-18	2.152127E-18
6.490000E+03	7.000535E-18	2.158081E-18
6.500000E+03	7.022881E-18	2.164636E-18
6.510000E+03	7.047199E-18	2.171795E-18
6.520000E+03	7.073386E-18	2.179526E-18
6.530000E+03	7.101563E-18	2.187866E-18
6.540000E+03	7.131737E-18	2.196818E-18
6.550000E+03	7.163807E-18	2.206348E-18
6.560000E+03	7.197784E-18	2.216462E-18
6.570000E+03	7.233906E-18	2.227231E-18
6.580000E+03	7.271845E-18	2.238554E-18
6.590000E+03	7.311840E-18	2.250504E-18
6.600000E+03	7.353909E-18	2.263088E-18
6.610000E+03	7.397828E-18	2.276235E-18
6.620000E+03	7.443852E-18	2.290023E-18
6.630000E+03	7.491751E-18	2.304382E-18
6.640000E+03	7.541787E-18	2.319392E-18
6.650000E+03	7.593728E-18	2.334981E-18
6.660000E+03	7.647715E-18	2.351192E-18
6.670000E+03	7.703768E-18	2.368031E-18
6.680000E+03	7.761771E-18	2.385462E-18
6.690000E+03	7.821743E-18	2.403491E-18
6.700000E+03	7.883831E-18	2.422161E-18
6.710000E+03	7.947923E-18	2.441439E-18
6.720000E+03	8.014034E-18	2.461329E-18
6.730000E+03	8.082182E-18	2.481836E-18
6.740000E+03	8.152388E-18	2.502966E-18
6.750000E+03	8.224668E-18	2.524724E-18
6.760000E+03	8.299044E-18	2.547115E-18
6.770000E+03	8.375385E-18	2.570101E-18
6.780000E+03	8.453861E-18	2.593731E-18
6.790000E+03	8.534490E-18	2.618011E-18
6.800000E+03	8.617142E-18	2.642902E-18
6.810000E+03	8.701990E-18	2.668455E-18
6.820000E+03	8.788896E-18	2.694629E-18
6.830000E+03	8.877881E-18	2.721429E-18
6.840000E+03	8.968961E-18	2.748859E-18
6.850000E+03	9.062154E-18	2.776925E-18
6.860000E+03	9.157644E-18	2.805683E-18
6.870000E+03	9.255119E-18	2.835036E-18
6.880000E+03	9.354761E-18	2.865041E-18
6.890000E+03	9.456591E-18	2.895703E-18
6.900000E+03	9.560449E-18	2.926972E-18
6.910000E+03	9.666524E-18	2.958907E-18
6.920000E+03	9.774840E-18	2.991514E-18
6.930000E+03	9.885228E-18	3.024741E-18
6.940000E+03	9.997697E-18	3.058590E-18
6.950000E+03	1.011245E-17	3.093124E-18
6.960000E+03	1.022932E-17	3.128289E-18
6.970000E+03	1.034830E-17	3.164086E-18
6.980000E+03	1.046942E-17	3.200519E-18
6.990000E+03	1.059267E-17	3.237590E-18
7.000000E+03	1.071786E-17	3.275238E-18
7.010000E+03	1.084542E-17	3.313591E-18
7.020000E+03	1.097493E-17	3.352524E-18
7.030000E+03	1.110660E-17	3.392101E-18
7.040000E+03	1.124023E-17	3.432258E-18
7.050000E+03	1.137580E-17	3.472992E-18
7.060000E+03	1.151355E-17	3.514371E-18
7.070000E+03	1.165324E-17	3.556326E-18
7.080000E+03	1.179464E-17	3.598782E-18
7.090000E+03	1.193820E-17	3.641880E-18
7.100000E+03	1.208369E-17	3.685546E-18
7.110000E+03	1.223084E-17	3.729701E-18
7.120000E+03	1.237989E-17	3.774415E-18
7.130000E+03	1.253056E-17	3.819605E-18
7.140000E+03	1.268310E-17	3.865343E-18
7.150000E+03	1.283723E-17	3.911544E-18
7.160000E+03	1.299318E-17	3.958281E-18
7.170000E+03	1.315039E-17	4.005382E-18
7.180000E+03	1.330910E-17	4.052918E-18
7.190000E+03	1.346956E-17	4.100964E-18
7.200000E+03	1.363116E-17	4.149340E-18
7.210000E+03	1.379388E-17	4.198030E-18
7.220000E+03	1.395794E-17	4.247109E-18
7.230000E+03	1.412330E-17	4.296563E-18
7.240000E+03	1.428963E-17	4.346288E-18
7.250000E+03	1.445718E-17	4.396360E-18
7.260000E+03	1.462558E-17	4.446670E-18
7.270000E+03	1.479477E-17	4.497198E-18
7.280000E+03	1.496502E-17	4.548024E-18
7.290000E+03	1.513594E-17	4.599035E-18
7.300000E+03	1.530781E-17	4.650308E-18
7.310000E+03	1.548024E-17	4.701727E-18
7.320000E+03	1.565315E-17	4.753270E-18
7.330000E+03	1.582717E-17	4.805126E-18
7.340000E+03	1.600154E-17	4.857069E-18
7.350000E+03	1.617693E-17	4.909294E-18
7.360000E+03	1.635292E-17	4.961679E-18
7.370000E+03	1.652982E-17	5.014315E-18
7.380000E+03	1.670796E-17	5.067306E-18
7.390000E+03	1.688694E-17	5.120525E-18
7.400000E+03	1.706748E-17	5.174195E-18
7.410000E+03	1.724958E-17	5.228313E-18
7.420000E+03	1.743362E-17	5.282996E-18
7.430000E+03	1.761962E-17	5.338246E-18
7.440000E+03	1.780758E-17	5.394066E-18
7.450000E+03	1.799793E-17	5.450585E-18
7.460000E+03	1.818985E-17	5.507553E-18
7.470000E+03	1.838333E-17	5.564970E-18
7.480000E+03	1.857795E-17	5.622703E-18
7.490000E+03	1.877409E-17	5.680873E-18
7.500000E+03	1.897130E-17	5.739341E-18
7.510000E+03	1.916914E-17	5.797972E-18
7.520000E+03	1.936752E-17	5.856743E-18
7.530000E+03	1.956641E-17	5.915638E-18
7.540000E+03	1.976528E-17	5.974504E-18
7.550000E+03	1.996455E-17	6.033466E-18
7.560000E+03	2.016319E-17	6.092210E-18
7.570000E+03	2.036210E-17	6.151010E-18
7.580000E+03	2.056069E-17	6.209688E-18
7.590000E+03	2.075891E-17	6.268226E-18
7.600000E+03	2.095613E-17	6.326441E-18
7.610000E+03	2.115280E-17	6.384461E-18
7.620000E+03	2.134878E-17	6.442248E-18
7.630000E+03	2.154401E-17	6.499785E-18
7.640000E+03	2.173780E-17	6.556866E-18
7.650000E+03	2.193062E-17	6.613625E-18
7.660000E+03	2.212176E-17	6.669856E-18
7.670000E+03	2.231224E-17	6.725862E-18
7.680000E+03	2.250020E-17	6.781090E-18
7.690000E+03	2.268725E-17	6.836014E-18
7.700000E+03	2.287266E-17	6.890425E-18
7.710000E+03	2.305572E-17	6.944104E-18
7.720000E+03	2.323685E-17	6.997180E-18
7.730000E+03	2.341592E-17	7.049616E-18
7.740000E+03	2.359278E-17	7.101362E-18
7.750000E+03	2.376728E-17	7.152379E-18
7.760000E+03	2.393988E-17	7.202802E-18
