#wls	flux	fluxerr
1.600000E+03	2.466409E-16	6.027776E-17
1.640000E+03	2.580890E-16	6.283333E-17
1.680000E+03	2.696240E-16	6.538083E-17
1.720000E+03	2.811201E-16	6.788852E-17
1.760000E+03	2.925424E-16	7.034692E-17
1.800000E+03	3.037334E-16	7.271731E-17
1.840000E+03	3.145726E-16	7.497048E-17
1.880000E+03	3.249779E-16	7.708692E-17
1.920000E+03	3.347438E-16	7.901833E-17
1.960000E+03	3.437327E-16	8.073344E-17
2.000000E+03	3.517424E-16	8.218661E-17
2.040000E+03	3.586165E-16	8.334403E-17
2.080000E+03	3.640950E-16	8.414890E-17
2.120000E+03	3.679538E-16	8.455429E-17
2.160000E+03	3.699638E-16	8.451364E-17
2.200000E+03	3.698171E-16	8.396407E-17
2.240000E+03	3.672464E-16	8.285406E-17
2.280000E+03	3.621421E-16	8.116956E-17
2.320000E+03	3.545384E-16	7.892970E-17
2.360000E+03	3.447138E-16	7.620803E-17
2.400000E+03	3.329131E-16	7.306957E-17
2.440000E+03	3.193720E-16	6.957634E-17
2.480000E+03	3.043616E-16	6.579691E-17
2.520000E+03	2.880774E-16	6.178230E-17
2.560000E+03	2.707617E-16	5.759254E-17
2.600000E+03	2.526501E-16	5.328478E-17
2.640000E+03	2.340035E-16	4.892017E-17
2.680000E+03	2.150675E-16	4.455486E-17
2.720000E+03	1.960993E-16	4.024573E-17
2.760000E+03	1.773522E-16	3.604692E-17
2.800000E+03	1.590697E-16	3.200860E-17
2.840000E+03	1.414814E-16	2.817613E-17
2.880000E+03	1.247996E-16	2.458943E-17
2.920000E+03	1.092046E-16	2.128019E-17
2.960000E+03	9.483927E-17	1.827100E-17
3.000000E+03	8.179812E-17	1.557373E-17
3.010000E+03	7.875308E-17	1.494890E-17
3.020000E+03	7.579212E-17	1.434325E-17
3.030000E+03	7.291839E-17	1.375725E-17
3.040000E+03	7.012967E-17	1.319035E-17
3.050000E+03	6.742691E-17	1.264262E-17
3.060000E+03	6.481064E-17	1.211402E-17
3.070000E+03	6.227713E-17	1.160372E-17
3.080000E+03	5.982932E-17	1.111216E-17
3.090000E+03	5.746342E-17	1.063850E-17
3.100000E+03	5.518052E-17	1.018282E-17
3.110000E+03	5.297804E-17	9.744501E-18
3.120000E+03	5.085457E-17	9.323173E-18
3.130000E+03	4.881058E-17	8.918794E-18
3.140000E+03	4.684272E-17	8.530627E-18
3.150000E+03	4.495225E-17	8.158776E-18
3.160000E+03	4.313499E-17	7.802365E-18
3.170000E+03	4.139178E-17	7.461421E-18
3.180000E+03	3.971933E-17	7.135233E-18
3.190000E+03	3.811732E-17	6.823625E-18
3.200000E+03	3.658314E-17	6.526017E-18
3.210000E+03	3.511557E-17	6.242073E-18
3.220000E+03	3.371263E-17	5.971332E-18
3.230000E+03	3.237247E-17	5.713357E-18
3.240000E+03	3.109271E-17	5.467621E-18
3.250000E+03	2.987254E-17	5.233878E-18
3.260000E+03	2.870951E-17	5.011594E-18
3.270000E+03	2.760215E-17	4.800416E-18
3.280000E+03	2.654807E-17	4.599829E-18
3.290000E+03	2.554531E-17	4.409402E-18
3.300000E+03	2.459234E-17	4.228777E-18
3.310000E+03	2.368682E-17	4.057466E-18
3.320000E+03	2.282720E-17	3.895120E-18
3.330000E+03	2.201158E-17	3.741327E-18
3.340000E+03	2.123748E-17	3.595591E-18
3.350000E+03	2.050375E-17	3.457641E-18
3.360000E+03	1.980836E-17	3.327059E-18
3.370000E+03	1.914963E-17	3.203495E-18
3.380000E+03	1.852592E-17	3.086607E-18
3.390000E+03	1.793519E-17	2.975989E-18
3.400000E+03	1.737646E-17	2.871416E-18
3.410000E+03	1.684801E-17	2.772548E-18
3.420000E+03	1.634825E-17	2.679064E-18
3.430000E+03	1.587588E-17	2.590696E-18
3.440000E+03	1.542962E-17	2.507186E-18
3.450000E+03	1.500789E-17	2.428225E-18
3.460000E+03	1.460978E-17	2.353620E-18
3.470000E+03	1.423383E-17	2.283091E-18
3.480000E+03	1.387906E-17	2.216438E-18
3.490000E+03	1.354437E-17	2.153443E-18
3.500000E+03	1.322872E-17	2.093904E-18
3.510000E+03	1.293113E-17	2.037628E-18
3.520000E+03	1.265071E-17	1.984439E-18
3.530000E+03	1.238646E-17	1.934146E-18
3.540000E+03	1.213747E-17	1.886576E-18
3.550000E+03	1.190301E-17	1.841585E-18
3.560000E+03	1.168226E-17	1.799017E-18
3.570000E+03	1.147460E-17	1.758751E-18
3.580000E+03	1.127918E-17	1.720627E-18
3.590000E+03	1.109544E-17	1.684540E-18
3.600000E+03	1.092278E-17	1.650371E-18
3.610000E+03	1.076078E-17	1.618038E-18
3.620000E+03	1.060880E-17	1.587419E-18
3.630000E+03	1.046639E-17	1.558431E-18
3.640000E+03	1.033286E-17	1.530947E-18
3.650000E+03	1.020783E-17	1.504897E-18
3.660000E+03	1.009086E-17	1.480197E-18
3.670000E+03	9.981555E-18	1.456772E-18
3.680000E+03	9.879592E-18	1.434560E-18
3.690000E+03	9.784687E-18	1.413504E-18
3.700000E+03	9.696474E-18	1.393538E-18
3.710000E+03	9.614770E-18	1.374620E-18
3.720000E+03	9.539229E-18	1.356689E-18
3.730000E+03	9.469771E-18	1.339719E-18
3.740000E+03	9.406139E-18	1.323662E-18
3.750000E+03	9.348085E-18	1.308472E-18
3.760000E+03	9.295455E-18	1.294114E-18
3.770000E+03	9.248169E-18	1.280566E-18
3.780000E+03	9.205992E-18	1.267785E-18
3.790000E+03	9.168855E-18	1.255751E-18
3.800000E+03	9.136535E-18	1.244422E-18
3.810000E+03	9.108893E-18	1.233770E-18
3.820000E+03	9.085871E-18	1.223777E-18
3.830000E+03	9.067417E-18	1.214427E-18
3.840000E+03	9.053328E-18	1.205682E-18
3.850000E+03	9.043633E-18	1.197537E-18
3.860000E+03	9.038062E-18	1.189949E-18
3.870000E+03	9.036720E-18	1.182922E-18
3.880000E+03	9.039344E-18	1.176413E-18
3.890000E+03	9.046034E-18	1.170427E-18
3.900000E+03	9.056599E-18	1.164931E-18
3.910000E+03	9.070996E-18	1.159912E-18
3.920000E+03	9.089105E-18	1.155347E-18
3.930000E+03	9.110880E-18	1.151223E-18
3.940000E+03	9.136206E-18	1.147518E-18
3.950000E+03	9.165114E-18	1.144229E-18
3.960000E+03	9.197415E-18	1.141326E-18
3.970000E+03	9.233074E-18	1.138797E-18
3.980000E+03	9.271975E-18	1.136624E-18
3.990000E+03	9.314154E-18	1.134803E-18
4.000000E+03	9.359504E-18	1.133316E-18
4.010000E+03	9.407913E-18	1.132143E-18
4.020000E+03	9.459270E-18	1.131268E-18
4.030000E+03	9.513622E-18	1.130689E-18
4.040000E+03	9.570790E-18	1.130381E-18
4.050000E+03	9.630826E-18	1.130346E-18
4.060000E+03	9.693564E-18	1.130560E-18
4.070000E+03	9.758994E-18	1.131018E-18
4.080000E+03	9.827113E-18	1.131715E-18
4.090000E+03	9.897852E-18	1.132640E-18
4.100000E+03	9.971144E-18	1.133782E-18
4.110000E+03	1.004693E-17	1.135131E-18
4.120000E+03	1.012531E-17	1.136697E-18
4.130000E+03	1.020617E-17	1.138461E-18
4.140000E+03	1.028954E-17	1.140427E-18
4.150000E+03	1.037530E-17	1.142578E-18
4.160000E+03	1.046351E-17	1.144918E-18
4.170000E+03	1.055422E-17	1.147452E-18
4.180000E+03	1.064734E-17	1.150167E-18
4.190000E+03	1.074293E-17	1.153070E-18
4.200000E+03	1.084093E-17	1.156151E-18
4.210000E+03	1.094140E-17	1.159417E-18
4.220000E+03	1.104430E-17	1.162861E-18
4.230000E+03	1.114973E-17	1.166494E-18
4.240000E+03	1.125764E-17	1.170310E-18
4.250000E+03	1.136809E-17	1.174315E-18
4.260000E+03	1.148102E-17	1.178502E-18
4.270000E+03	1.159661E-17	1.182890E-18
4.280000E+03	1.171484E-17	1.187477E-18
4.290000E+03	1.183579E-17	1.192271E-18
4.300000E+03	1.195947E-17	1.197274E-18
4.310000E+03	1.208587E-17	1.202486E-18
4.320000E+03	1.221510E-17	1.207919E-18
4.330000E+03	1.234729E-17	1.213587E-18
4.340000E+03	1.248244E-17	1.219490E-18
4.350000E+03	1.262066E-17	1.225642E-18
4.360000E+03	1.276201E-17	1.232049E-18
4.370000E+03	1.290669E-17	1.238734E-18
4.380000E+03	1.305485E-17	1.245712E-18
4.390000E+03	1.320695E-17	1.253029E-18
4.400000E+03	1.336293E-17	1.260682E-18
4.410000E+03	1.352272E-17	1.268666E-18
4.420000E+03	1.368617E-17	1.276970E-18
4.430000E+03	1.385329E-17	1.285599E-18
4.440000E+03	1.402382E-17	1.294532E-18
4.450000E+03	1.419757E-17	1.303757E-18
4.460000E+03	1.437447E-17	1.313273E-18
4.470000E+03	1.455433E-17	1.323069E-18
4.480000E+03	1.473691E-17	1.333126E-18
4.490000E+03	1.492180E-17	1.343414E-18
4.500000E+03	1.510883E-17	1.353921E-18
4.510000E+03	1.529757E-17	1.364613E-18
4.520000E+03	1.548766E-17	1.375466E-18
4.530000E+03	1.567874E-17	1.386453E-18
4.540000E+03	1.587015E-17	1.397522E-18
4.550000E+03	1.606160E-17	1.408658E-18
4.560000E+03	1.625251E-17	1.419817E-18
4.570000E+03	1.644244E-17	1.430970E-18
4.580000E+03	1.663063E-17	1.442058E-18
4.590000E+03	1.681670E-17	1.453060E-18
4.600000E+03	1.699986E-17	1.463916E-18
4.610000E+03	1.717969E-17	1.474602E-18
4.620000E+03	1.735532E-17	1.485053E-18
4.630000E+03	1.752616E-17	1.495229E-18
4.640000E+03	1.769141E-17	1.505074E-18
4.650000E+03	1.785056E-17	1.514556E-18
4.660000E+03	1.800265E-17	1.523603E-18
4.670000E+03	1.814711E-17	1.532179E-18
4.680000E+03	1.828304E-17	1.540219E-18
4.690000E+03	1.840955E-17	1.547658E-18
4.700000E+03	1.852600E-17	1.554454E-18
4.710000E+03	1.863127E-17	1.560523E-18
4.720000E+03	1.872455E-17	1.565806E-18
4.730000E+03	1.880509E-17	1.570249E-18
4.740000E+03	1.887333E-17	1.573897E-18
4.750000E+03	1.892932E-17	1.576762E-18
4.760000E+03	1.897362E-17	1.578897E-18
4.770000E+03	1.900645E-17	1.580322E-18
4.780000E+03	1.902850E-17	1.581093E-18
4.790000E+03	1.904003E-17	1.581233E-18
4.800000E+03	1.904150E-17	1.580774E-18
4.810000E+03	1.903340E-17	1.579755E-18
4.820000E+03	1.901615E-17	1.578207E-18
4.830000E+03	1.899019E-17	1.576160E-18
4.840000E+03	1.895579E-17	1.573631E-18
4.850000E+03	1.891354E-17	1.570665E-18
4.860000E+03	1.886389E-17	1.567290E-18
4.870000E+03	1.880707E-17	1.563521E-18
4.880000E+03	1.874351E-17	1.559384E-18
4.890000E+03	1.867381E-17	1.554924E-18
4.900000E+03	1.859802E-17	1.550135E-18
4.910000E+03	1.851686E-17	1.545072E-18
4.920000E+03	1.843054E-17	1.539742E-18
4.930000E+03	1.833921E-17	1.534152E-18
4.940000E+03	1.824334E-17	1.528331E-18
4.950000E+03	1.814320E-17	1.522295E-18
4.960000E+03	1.803886E-17	1.516042E-18
4.970000E+03	1.793073E-17	1.509599E-18
4.980000E+03	1.781866E-17	1.502943E-18
4.990000E+03	1.770318E-17	1.496114E-18
5.000000E+03	1.758431E-17	1.489103E-18
5.010000E+03	1.746201E-17	1.481900E-18
5.020000E+03	1.733661E-17	1.474527E-18
5.030000E+03	1.720805E-17	1.466969E-18
5.040000E+03	1.707650E-17	1.459234E-18
5.050000E+03	1.694205E-17	1.451322E-18
5.060000E+03	1.680482E-17	1.443236E-18
5.070000E+03	1.666474E-17	1.434963E-18
5.080000E+03	1.652207E-17	1.426518E-18
5.090000E+03	1.637672E-17	1.417887E-18
5.100000E+03	1.622879E-17	1.409070E-18
5.110000E+03	1.607816E-17	1.400052E-18
5.120000E+03	1.592513E-17	1.390850E-18
5.130000E+03	1.576947E-17	1.381438E-18
5.140000E+03	1.561162E-17	1.371849E-18
5.150000E+03	1.545141E-17	1.362062E-18
5.160000E+03	1.528917E-17	1.352097E-18
5.170000E+03	1.512488E-17	1.341949E-18
5.180000E+03	1.495857E-17	1.331613E-18
5.190000E+03	1.479052E-17	1.321109E-18
5.200000E+03	1.462076E-17	1.310434E-18
5.210000E+03	1.444943E-17	1.299594E-18
5.220000E+03	1.427670E-17	1.288600E-18
5.230000E+03	1.410259E-17	1.277448E-18
5.240000E+03	1.392726E-17	1.266149E-18
5.250000E+03	1.375073E-17	1.254699E-18
5.260000E+03	1.357332E-17	1.243122E-18
5.270000E+03	1.339506E-17	1.231417E-18
5.280000E+03	1.321612E-17	1.219595E-18
5.290000E+03	1.303666E-17	1.207668E-18
5.300000E+03	1.285676E-17	1.195638E-18
5.310000E+03	1.267658E-17	1.183517E-18
5.320000E+03	1.249630E-17	1.171320E-18
5.330000E+03	1.231614E-17	1.159061E-18
5.340000E+03	1.213614E-17	1.146743E-18
5.350000E+03	1.195664E-17	1.134395E-18
5.360000E+03	1.177784E-17	1.122036E-18
5.370000E+03	1.159997E-17	1.109681E-18
5.380000E+03	1.142312E-17	1.097342E-18
5.390000E+03	1.124781E-17	1.085065E-18
5.400000E+03	1.107419E-17	1.072863E-18
5.410000E+03	1.090275E-17	1.060785E-18
5.420000E+03	1.073370E-17	1.048851E-18
5.430000E+03	1.056746E-17	1.037103E-18
5.440000E+03	1.040434E-17	1.025571E-18
5.450000E+03	1.024488E-17	1.014311E-18
5.460000E+03	1.008930E-17	1.003348E-18
5.470000E+03	9.937805E-18	9.927048E-19
5.480000E+03	9.790515E-18	9.823944E-19
5.490000E+03	9.647724E-18	9.724488E-19
5.500000E+03	9.509538E-18	9.628807E-19
5.510000E+03	9.376230E-18	9.537208E-19
5.520000E+03	9.248061E-18	9.449991E-19
5.530000E+03	9.125274E-18	9.367443E-19
5.540000E+03	9.008087E-18	9.289836E-19
5.550000E+03	8.896793E-18	9.217523E-19
5.560000E+03	8.791565E-18	9.150740E-19
5.570000E+03	8.692728E-18	9.089891E-19
5.580000E+03	8.600321E-18	9.035083E-19
5.590000E+03	8.514709E-18	8.986772E-19
5.600000E+03	8.435868E-18	8.945011E-19
5.610000E+03	8.364016E-18	8.910111E-19
5.620000E+03	8.299345E-18	8.882362E-19
5.630000E+03	8.241732E-18	8.861721E-19
5.640000E+03	8.191462E-18	8.848584E-19
5.650000E+03	8.148470E-18	8.842973E-19
5.660000E+03	8.112639E-18	8.844855E-19
5.670000E+03	8.084179E-18	8.854556E-19
5.680000E+03	8.062879E-18	8.871938E-19
5.690000E+03	8.048745E-18	8.897104E-19
5.700000E+03	8.041782E-18	8.930157E-19
5.710000E+03	8.041914E-18	8.971107E-19
5.720000E+03	8.049046E-18	9.019945E-19
5.730000E+03	8.063082E-18	9.076657E-19
5.740000E+03	8.084020E-18	9.141336E-19
5.750000E+03	8.111845E-18	9.214059E-19
5.760000E+03	8.146290E-18	9.294614E-19
5.770000E+03	8.187523E-18	9.383285E-19
5.780000E+03	8.235287E-18	9.479867E-19
5.790000E+03	8.289676E-18	9.584559E-19
5.800000E+03	8.350530E-18	9.697264E-19
5.810000E+03	8.417873E-18	9.818096E-19
5.820000E+03	8.491641E-18	9.947069E-19
5.830000E+03	8.571873E-18	1.008431E-18
5.840000E+03	8.658425E-18	1.022974E-18
5.850000E+03	8.751249E-18	1.038339E-18
5.860000E+03	8.850397E-18	1.054538E-18
5.870000E+03	8.955928E-18	1.071589E-18
5.880000E+03	9.067613E-18	1.089471E-18
5.890000E+03	9.185616E-18	1.108213E-18
5.900000E+03	9.309809E-18	1.127805E-18
5.910000E+03	9.440272E-18	1.148267E-18
5.920000E+03	9.576978E-18	1.169601E-18
5.930000E+03	9.719794E-18	1.191800E-18
5.940000E+03	9.868795E-18	1.214880E-18
5.950000E+03	1.002395E-17	1.238844E-18
5.960000E+03	1.018510E-17	1.263680E-18
5.970000E+03	1.035244E-17	1.289418E-18
5.980000E+03	1.052570E-17	1.316031E-18
5.990000E+03	1.070493E-17	1.343533E-18
6.000000E+03	1.089009E-17	1.371924E-18
6.010000E+03	1.108098E-17	1.401187E-18
6.020000E+03	1.127768E-17	1.431333E-18
6.030000E+03	1.147983E-17	1.462328E-18
6.040000E+03	1.168762E-17	1.494197E-18
6.050000E+03	1.190070E-17	1.526903E-18
6.060000E+03	1.211910E-17	1.560452E-18
6.070000E+03	1.234259E-17	1.594820E-18
6.080000E+03	1.257103E-17	1.629993E-18
6.090000E+03	1.280416E-17	1.665941E-18
6.100000E+03	1.304169E-17	1.702628E-18
6.110000E+03	1.328360E-17	1.740057E-18
6.120000E+03	1.352928E-17	1.778148E-18
6.130000E+03	1.377869E-17	1.816897E-18
6.140000E+03	1.403132E-17	1.856239E-18
6.150000E+03	1.428694E-17	1.896146E-18
6.160000E+03	1.454464E-17	1.936493E-18
6.170000E+03	1.480431E-17	1.977270E-18
6.180000E+03	1.506517E-17	2.018366E-18
6.190000E+03	1.532667E-17	2.059707E-18
6.200000E+03	1.558812E-17	2.101199E-18
6.210000E+03	1.584955E-17	2.142839E-18
6.220000E+03	1.611122E-17	2.184662E-18
6.230000E+03	1.637347E-17	2.226708E-18
6.240000E+03	1.663666E-17	2.269024E-18
6.250000E+03	1.690057E-17	2.311577E-18
6.260000E+03	1.716609E-17	2.354487E-18
6.270000E+03	1.743287E-17	2.397703E-18
6.280000E+03	1.770141E-17	2.441292E-18
6.290000E+03	1.797211E-17	2.485307E-18
6.300000E+03	1.824465E-17	2.529703E-18
6.310000E+03	1.851942E-17	2.574532E-18
6.320000E+03	1.879665E-17	2.619822E-18
6.330000E+03	1.907656E-17	2.665605E-18
6.340000E+03	1.935886E-17	2.711839E-18
6.350000E+03	1.964383E-17	2.758562E-18
6.360000E+03	1.993149E-17	2.805772E-18
6.370000E+03	2.022183E-17	2.853470E-18
6.380000E+03	2.051463E-17	2.901622E-18
6.390000E+03	2.080959E-17	2.950184E-18
6.400000E+03	2.110646E-17	2.999117E-18
6.410000E+03	2.140522E-17	3.048416E-18
6.420000E+03	2.170559E-17	3.098039E-18
6.430000E+03	2.200659E-17	3.147843E-18
6.440000E+03	2.230917E-17	3.197960E-18
6.450000E+03	2.261334E-17	3.248387E-18
6.460000E+03	2.291942E-17	3.299170E-18
6.470000E+03	2.322817E-17	3.350414E-18
6.480000E+03	2.353932E-17	3.402078E-18
6.490000E+03	2.385366E-17	3.454273E-18
6.500000E+03	2.417129E-17	3.507012E-18
6.510000E+03	2.449271E-17	3.560369E-18
6.520000E+03	2.481730E-17	3.614246E-18
6.530000E+03	2.514633E-17	3.668831E-18
6.540000E+03	2.547917E-17	3.724029E-18
6.550000E+03	2.581634E-17	3.779914E-18
6.560000E+03	2.615802E-17	3.836511E-18
6.570000E+03	2.650393E-17	3.893778E-18
6.580000E+03	2.685463E-17	3.951795E-18
6.590000E+03	2.721029E-17	4.010585E-18
6.600000E+03	2.757065E-17	4.070109E-18
6.610000E+03	2.793584E-17	4.130382E-18
6.620000E+03	2.830602E-17	4.191429E-18
6.630000E+03	2.868183E-17	4.253341E-18
6.640000E+03	2.906248E-17	4.315999E-18
6.650000E+03	2.944857E-17	4.379491E-18
6.660000E+03	2.984027E-17	4.443839E-18
6.670000E+03	3.023720E-17	4.508986E-18
6.680000E+03	3.064002E-17	4.575025E-18
6.690000E+03	3.104831E-17	4.641895E-18
6.700000E+03	3.146273E-17	4.709689E-18
6.710000E+03	3.188233E-17	4.778264E-18
6.720000E+03	3.230775E-17	4.847713E-18
6.730000E+03	3.273967E-17	4.918133E-18
6.740000E+03	3.317708E-17	4.989373E-18
6.750000E+03	3.362066E-17	5.061530E-18
6.760000E+03	3.406992E-17	5.134526E-18
6.770000E+03	3.452556E-17	5.208467E-18
6.780000E+03	3.498711E-17	5.283276E-18
6.790000E+03	3.545464E-17	5.358959E-18
6.800000E+03	3.592891E-17	5.435631E-18
6.810000E+03	3.640876E-17	5.513110E-18
6.820000E+03	3.689559E-17	5.591604E-18
6.830000E+03	3.738819E-17	5.670927E-18
6.840000E+03	3.788803E-17	5.751297E-18
6.850000E+03	3.839383E-17	5.832516E-18
6.860000E+03	3.890567E-17	5.914591E-18
6.870000E+03	3.942433E-17	5.997638E-18
6.880000E+03	3.994991E-17	6.081665E-18
6.890000E+03	4.048096E-17	6.166449E-18
6.900000E+03	4.101905E-17	6.252223E-18
6.910000E+03	4.156344E-17	6.338868E-18
6.920000E+03	4.211495E-17	6.426506E-18
6.930000E+03	4.267202E-17	6.514895E-18
6.940000E+03	4.323544E-17	6.604146E-18
6.950000E+03	4.380523E-17	6.694259E-18
6.960000E+03	4.438054E-17	6.785099E-18
6.970000E+03	4.496218E-17	6.876784E-18
6.980000E+03	4.555018E-17	6.969310E-18
6.990000E+03	4.614366E-17	7.062538E-18
7.000000E+03	4.674254E-17	7.156451E-18
7.010000E+03	4.734684E-17	7.251045E-18
7.020000E+03	4.795747E-17	7.346453E-18
7.030000E+03	4.857253E-17	7.442378E-18
7.040000E+03	4.919393E-17	7.539105E-18
7.050000E+03	4.981974E-17	7.636330E-18
7.060000E+03	5.045088E-17	7.734192E-18
7.070000E+03	5.108638E-17	7.832532E-18
7.080000E+03	5.172722E-17	7.931496E-18
7.090000E+03	5.237339E-17	8.031073E-18
7.100000E+03	5.302389E-17	8.131105E-18
7.110000E+03	5.367758E-17	8.231411E-18
7.120000E+03	5.433659E-17	8.332306E-18
7.130000E+03	5.499984E-17	8.433623E-18
7.140000E+03	5.566730E-17	8.535348E-18
7.150000E+03	5.633894E-17	8.637468E-18
7.160000E+03	5.701354E-17	8.739792E-18
7.170000E+03	5.769219E-17	8.842480E-18
7.180000E+03	5.837361E-17	8.945326E-18
7.190000E+03	5.905770E-17	9.048311E-18
7.200000E+03	5.974558E-17	9.151596E-18
7.210000E+03	6.043584E-17	9.254962E-18
7.220000E+03	6.112963E-17	9.358577E-18
7.230000E+03	6.182419E-17	9.462012E-18
7.240000E+03	6.252054E-17	9.565417E-18
7.250000E+03	6.321841E-17	9.668744E-18
7.260000E+03	6.391747E-17	9.771935E-18
7.270000E+03	6.461732E-17	9.874925E-18
7.280000E+03	6.531753E-17	9.977641E-18
7.290000E+03	6.601619E-17	1.007979E-17
7.300000E+03	6.671407E-17	1.018147E-17
7.310000E+03	6.741058E-17	1.028260E-17
7.320000E+03	6.810503E-17	1.038307E-17
7.330000E+03	6.879513E-17	1.048252E-17
7.340000E+03	6.948156E-17	1.058105E-17
7.350000E+03	7.016503E-17	1.067877E-17
7.360000E+03	7.084153E-17	1.077506E-17
7.370000E+03	7.151161E-17	1.087000E-17
7.380000E+03	7.217427E-17	1.096345E-17
7.390000E+03	7.283002E-17	1.105546E-17
7.400000E+03	7.347614E-17	1.114564E-17
7.410000E+03	7.411312E-17	1.123406E-17
7.420000E+03	7.474144E-17	1.132078E-17
7.430000E+03	7.535826E-17	1.140537E-17
7.440000E+03	7.596574E-17	1.148818E-17
7.450000E+03	7.655922E-17	1.156848E-17
7.460000E+03	7.713912E-17	1.164635E-17
7.470000E+03	7.770235E-17	1.172133E-17
7.480000E+03	7.824927E-17	1.179347E-17
7.490000E+03	7.877489E-17	1.186202E-17
7.500000E+03	7.927952E-17	1.192705E-17
7.510000E+03	7.976167E-17	1.198834E-17
7.520000E+03	8.021891E-17	1.204552E-17
7.530000E+03	8.065564E-17	1.209927E-17
7.540000E+03	8.106888E-17	1.214915E-17
7.550000E+03	8.146137E-17	1.219559E-17
7.560000E+03	8.183201E-17	1.223843E-17
7.570000E+03	8.218360E-17	1.227809E-17
7.580000E+03	8.251503E-17	1.231443E-17
7.590000E+03	8.282919E-17	1.234789E-17
7.600000E+03	8.312497E-17	1.237830E-17
7.610000E+03	8.340323E-17	1.240580E-17
7.620000E+03	8.366682E-17	1.243082E-17
7.630000E+03	8.391450E-17	1.245319E-17
7.640000E+03	8.414700E-17	1.247302E-17
7.650000E+03	8.436704E-17	1.249072E-17
7.660000E+03	8.457318E-17	1.250608E-17
7.670000E+03	8.476803E-17	1.251949E-17
7.680000E+03	8.494789E-17	1.253042E-17
7.690000E+03	8.511736E-17	1.253955E-17
7.700000E+03	8.527684E-17	1.254694E-17
7.710000E+03	8.542455E-17	1.255234E-17
7.720000E+03	8.556290E-17	1.255611E-17
7.730000E+03	8.569001E-17	1.255798E-17
7.740000E+03	8.580605E-17	1.255798E-17
7.750000E+03	8.591335E-17	1.255646E-17
7.760000E+03	8.601199E-17	1.255344E-17
