#wls	flux	fluxerr
1.600000E+03	2.942085E-16	3.519565E-17
1.640000E+03	3.041396E-16	3.636456E-17
1.680000E+03	3.140175E-16	3.752534E-17
1.720000E+03	3.238227E-16	3.867561E-17
1.760000E+03	3.334337E-16	3.980079E-17
1.800000E+03	3.428089E-16	4.089594E-17
1.840000E+03	3.518354E-16	4.194755E-17
1.880000E+03	3.604492E-16	4.294802E-17
1.920000E+03	3.685452E-16	4.388487E-17
1.960000E+03	3.760092E-16	4.474454E-17
2.000000E+03	3.826635E-16	4.550601E-17
2.040000E+03	3.883842E-16	4.615469E-17
2.080000E+03	3.930193E-16	4.667271E-17
2.120000E+03	3.963455E-16	4.703378E-17
2.160000E+03	3.981603E-16	4.721420E-17
2.200000E+03	3.982177E-16	4.718519E-17
2.240000E+03	3.962951E-16	4.692085E-17
2.280000E+03	3.923107E-16	4.641205E-17
2.320000E+03	3.862649E-16	4.565941E-17
2.360000E+03	3.783795E-16	4.468979E-17
2.400000E+03	3.688478E-16	4.352656E-17
2.440000E+03	3.578395E-16	4.219030E-17
2.480000E+03	3.455509E-16	4.070464E-17
2.520000E+03	3.321258E-16	3.908701E-17
2.560000E+03	3.176863E-16	3.735222E-17
2.600000E+03	3.024018E-16	3.552061E-17
2.640000E+03	2.863898E-16	3.360635E-17
2.680000E+03	2.698079E-16	3.162830E-17
2.720000E+03	2.527906E-16	2.960253E-17
2.760000E+03	2.355176E-16	2.755036E-17
2.800000E+03	2.181486E-16	2.549068E-17
2.840000E+03	2.008696E-16	2.344538E-17
2.880000E+03	1.838725E-16	2.143692E-17
2.920000E+03	1.673493E-16	1.948770E-17
2.960000E+03	1.514847E-16	1.761915E-17
3.000000E+03	1.364447E-16	1.585041E-17
3.010000E+03	1.328291E-16	1.542560E-17
3.020000E+03	1.292769E-16	1.500838E-17
3.030000E+03	1.257861E-16	1.459853E-17
3.040000E+03	1.223633E-16	1.419681E-17
3.050000E+03	1.190065E-16	1.380296E-17
3.060000E+03	1.157165E-16	1.341708E-17
3.070000E+03	1.124939E-16	1.303924E-17
3.080000E+03	1.093441E-16	1.267004E-17
3.090000E+03	1.062626E-16	1.230899E-17
3.100000E+03	1.032543E-16	1.195661E-17
3.110000E+03	1.003171E-16	1.161268E-17
3.120000E+03	9.745318E-17	1.127743E-17
3.130000E+03	9.466239E-17	1.095084E-17
3.140000E+03	9.194454E-17	1.063288E-17
3.150000E+03	8.929949E-17	1.032353E-17
3.160000E+03	8.672856E-17	1.002293E-17
3.170000E+03	8.422970E-17	9.730844E-18
3.180000E+03	8.180400E-17	9.447387E-18
3.190000E+03	7.945084E-17	9.172479E-18
3.200000E+03	7.716951E-17	8.906033E-18
3.210000E+03	7.496060E-17	8.648108E-18
3.220000E+03	7.282063E-17	8.398296E-18
3.230000E+03	7.075252E-17	8.156927E-18
3.240000E+03	6.875161E-17	7.923455E-18
3.250000E+03	6.682039E-17	7.698161E-18
3.260000E+03	6.495544E-17	7.480644E-18
3.270000E+03	6.315678E-17	7.270899E-18
3.280000E+03	6.142314E-17	7.068772E-18
3.290000E+03	5.975235E-17	6.874006E-18
3.300000E+03	5.814503E-17	6.686667E-18
3.310000E+03	5.659801E-17	6.506384E-18
3.320000E+03	5.511008E-17	6.333009E-18
3.330000E+03	5.368159E-17	6.166577E-18
3.340000E+03	5.230951E-17	6.006733E-18
3.350000E+03	5.099258E-17	5.853326E-18
3.360000E+03	4.972945E-17	5.706195E-18
3.370000E+03	4.851954E-17	5.565267E-18
3.380000E+03	4.736011E-17	5.430222E-18
3.390000E+03	4.624995E-17	5.300915E-18
3.400000E+03	4.518839E-17	5.177264E-18
3.410000E+03	4.417355E-17	5.059048E-18
3.420000E+03	4.320419E-17	4.946120E-18
3.430000E+03	4.227801E-17	4.838209E-18
3.440000E+03	4.139442E-17	4.735244E-18
3.450000E+03	4.055231E-17	4.637092E-18
3.460000E+03	3.974952E-17	4.543504E-18
3.470000E+03	3.898507E-17	4.454360E-18
3.480000E+03	3.825752E-17	4.369491E-18
3.490000E+03	3.756633E-17	4.288832E-18
3.500000E+03	3.690928E-17	4.212125E-18
3.510000E+03	3.628594E-17	4.139316E-18
3.520000E+03	3.569467E-17	4.070213E-18
3.530000E+03	3.513432E-17	4.004683E-18
3.540000E+03	3.460375E-17	3.942591E-18
3.550000E+03	3.410158E-17	3.883776E-18
3.560000E+03	3.362723E-17	3.828168E-18
3.570000E+03	3.317902E-17	3.775572E-18
3.580000E+03	3.275611E-17	3.725889E-18
3.590000E+03	3.235804E-17	3.679065E-18
3.600000E+03	3.198370E-17	3.634969E-18
3.610000E+03	3.163236E-17	3.593514E-18
3.620000E+03	3.130300E-17	3.554584E-18
3.630000E+03	3.099467E-17	3.518066E-18
3.640000E+03	3.070676E-17	3.483888E-18
3.650000E+03	3.043813E-17	3.451918E-18
3.660000E+03	3.018851E-17	3.422123E-18
3.670000E+03	2.995684E-17	3.394381E-18
3.680000E+03	2.974264E-17	3.368634E-18
3.690000E+03	2.954573E-17	3.344860E-18
3.700000E+03	2.936512E-17	3.322943E-18
3.710000E+03	2.920036E-17	3.302832E-18
3.720000E+03	2.905160E-17	3.284540E-18
3.730000E+03	2.891817E-17	3.267990E-18
3.740000E+03	2.879964E-17	3.253129E-18
3.750000E+03	2.869612E-17	3.239970E-18
3.760000E+03	2.860698E-17	3.228439E-18
3.770000E+03	2.853204E-17	3.218512E-18
3.780000E+03	2.847145E-17	3.210205E-18
3.790000E+03	2.842477E-17	3.203467E-18
3.800000E+03	2.839186E-17	3.198279E-18
3.810000E+03	2.837257E-17	3.194622E-18
3.820000E+03	2.836675E-17	3.192477E-18
3.830000E+03	2.837447E-17	3.191849E-18
3.840000E+03	2.839532E-17	3.192692E-18
3.850000E+03	2.842939E-17	3.195012E-18
3.860000E+03	2.847674E-17	3.198815E-18
3.870000E+03	2.853696E-17	3.204052E-18
3.880000E+03	2.860986E-17	3.210700E-18
3.890000E+03	2.869577E-17	3.218793E-18
3.900000E+03	2.879447E-17	3.228305E-18
3.910000E+03	2.890553E-17	3.239186E-18
3.920000E+03	2.902925E-17	3.251467E-18
3.930000E+03	2.916565E-17	3.265148E-18
3.940000E+03	2.931405E-17	3.280151E-18
3.950000E+03	2.947469E-17	3.296501E-18
3.960000E+03	2.964759E-17	3.314198E-18
3.970000E+03	2.983250E-17	3.333213E-18
3.980000E+03	3.002894E-17	3.353488E-18
3.990000E+03	3.023740E-17	3.375076E-18
4.000000E+03	3.045731E-17	3.397913E-18
4.010000E+03	3.068843E-17	3.421969E-18
4.020000E+03	3.093094E-17	3.447263E-18
4.030000E+03	3.118429E-17	3.473731E-18
4.040000E+03	3.144864E-17	3.501388E-18
4.050000E+03	3.172320E-17	3.530145E-18
4.060000E+03	3.200833E-17	3.560041E-18
4.070000E+03	3.230344E-17	3.591008E-18
4.080000E+03	3.260818E-17	3.623004E-18
4.090000E+03	3.292265E-17	3.656039E-18
4.100000E+03	3.324593E-17	3.690009E-18
4.110000E+03	3.357839E-17	3.724955E-18
4.120000E+03	3.391910E-17	3.760770E-18
4.130000E+03	3.426782E-17	3.797427E-18
4.140000E+03	3.462444E-17	3.834910E-18
4.150000E+03	3.498813E-17	3.873128E-18
4.160000E+03	3.535868E-17	3.912057E-18
4.170000E+03	3.573558E-17	3.951636E-18
4.180000E+03	3.611800E-17	3.991776E-18
4.190000E+03	3.650593E-17	4.032472E-18
4.200000E+03	3.689822E-17	4.073595E-18
4.210000E+03	3.729482E-17	4.115141E-18
4.220000E+03	3.769448E-17	4.156970E-18
4.230000E+03	3.809686E-17	4.199044E-18
4.240000E+03	3.850123E-17	4.241283E-18
4.250000E+03	3.890626E-17	4.283538E-18
4.260000E+03	3.931179E-17	4.325792E-18
4.270000E+03	3.971674E-17	4.367926E-18
4.280000E+03	4.011992E-17	4.409810E-18
4.290000E+03	4.052022E-17	4.451321E-18
4.300000E+03	4.091702E-17	4.492392E-18
4.310000E+03	4.130944E-17	4.532927E-18
4.320000E+03	4.169555E-17	4.572715E-18
4.330000E+03	4.207508E-17	4.611726E-18
4.340000E+03	4.244605E-17	4.649747E-18
4.350000E+03	4.280818E-17	4.686746E-18
4.360000E+03	4.315984E-17	4.722547E-18
4.370000E+03	4.350044E-17	4.757089E-18
4.380000E+03	4.382949E-17	4.790320E-18
4.390000E+03	4.414661E-17	4.822198E-18
4.400000E+03	4.445166E-17	4.852713E-18
4.410000E+03	4.474524E-17	4.881930E-18
4.420000E+03	4.502803E-17	4.909928E-18
4.430000E+03	4.530049E-17	4.936758E-18
4.440000E+03	4.556349E-17	4.962515E-18
4.450000E+03	4.581718E-17	4.987220E-18
4.460000E+03	4.606295E-17	5.011023E-18
4.470000E+03	4.630101E-17	5.033951E-18
4.480000E+03	4.653205E-17	5.056080E-18
4.490000E+03	4.675673E-17	5.077482E-18
4.500000E+03	4.697576E-17	5.098233E-18
4.510000E+03	4.718978E-17	5.118409E-18
4.520000E+03	4.739953E-17	5.138085E-18
4.530000E+03	4.760487E-17	5.157251E-18
4.540000E+03	4.780732E-17	5.176070E-18
4.550000E+03	4.800672E-17	5.194526E-18
4.560000E+03	4.820376E-17	5.212693E-18
4.570000E+03	4.839865E-17	5.230596E-18
4.580000E+03	4.859248E-17	5.248351E-18
4.590000E+03	4.878547E-17	5.265984E-18
4.600000E+03	4.897737E-17	5.283466E-18
4.610000E+03	4.916967E-17	5.300959E-18
4.620000E+03	4.936211E-17	5.318433E-18
4.630000E+03	4.955484E-17	5.335906E-18
4.640000E+03	4.974885E-17	5.353484E-18
4.650000E+03	4.994479E-17	5.371236E-18
4.660000E+03	5.014180E-17	5.389070E-18
4.670000E+03	5.034140E-17	5.407148E-18
4.680000E+03	5.054369E-17	5.425480E-18
4.690000E+03	5.074878E-17	5.444078E-18
4.700000E+03	5.095718E-17	5.462996E-18
4.710000E+03	5.116905E-17	5.482249E-18
4.720000E+03	5.138490E-17	5.501892E-18
4.730000E+03	5.160389E-17	5.521833E-18
4.740000E+03	5.182657E-17	5.542132E-18
4.750000E+03	5.205348E-17	5.562845E-18
4.760000E+03	5.228323E-17	5.583822E-18
4.770000E+03	5.251688E-17	5.605176E-18
4.780000E+03	5.275393E-17	5.626854E-18
4.790000E+03	5.299396E-17	5.648807E-18
4.800000E+03	5.323798E-17	5.671144E-18
4.810000E+03	5.348445E-17	5.693702E-18
4.820000E+03	5.373490E-17	5.716640E-18
4.830000E+03	5.398778E-17	5.739794E-18
4.840000E+03	5.424408E-17	5.763268E-18
4.850000E+03	5.450267E-17	5.786941E-18
4.860000E+03	5.476456E-17	5.810920E-18
4.870000E+03	5.502860E-17	5.835082E-18
4.880000E+03	5.529520E-17	5.859471E-18
4.890000E+03	5.556423E-17	5.884072E-18
4.900000E+03	5.583506E-17	5.908816E-18
4.910000E+03	5.610750E-17	5.933685E-18
4.920000E+03	5.638138E-17	5.958659E-18
4.930000E+03	5.665706E-17	5.983777E-18
4.940000E+03	5.693323E-17	6.008899E-18
4.950000E+03	5.721079E-17	6.034119E-18
4.960000E+03	5.748833E-17	6.059292E-18
4.970000E+03	5.776617E-17	6.084446E-18
4.980000E+03	5.804342E-17	6.109492E-18
4.990000E+03	5.831975E-17	6.134393E-18
5.000000E+03	5.859478E-17	6.159109E-18
5.010000E+03	5.886868E-17	6.183661E-18
5.020000E+03	5.913989E-17	6.207881E-18
5.030000E+03	5.940848E-17	6.231780E-18
5.040000E+03	5.967335E-17	6.255243E-18
5.050000E+03	5.993456E-17	6.278275E-18
5.060000E+03	6.019089E-17	6.300752E-18
5.070000E+03	6.044112E-17	6.322545E-18
5.080000E+03	6.068518E-17	6.343650E-18
5.090000E+03	6.092233E-17	6.363989E-18
5.100000E+03	6.115123E-17	6.383425E-18
5.110000E+03	6.137047E-17	6.401814E-18
5.120000E+03	6.158042E-17	6.419194E-18
5.130000E+03	6.177905E-17	6.435357E-18
5.140000E+03	6.196543E-17	6.450209E-18
5.150000E+03	6.213868E-17	6.463661E-18
5.160000E+03	6.229785E-17	6.475616E-18
5.170000E+03	6.244140E-17	6.485920E-18
5.180000E+03	6.256899E-17	6.494538E-18
5.190000E+03	6.267840E-17	6.501246E-18
5.200000E+03	6.276929E-17	6.506012E-18
5.210000E+03	6.283948E-17	6.508614E-18
5.220000E+03	6.288925E-17	6.509087E-18
5.230000E+03	6.291645E-17	6.507212E-18
5.240000E+03	6.292076E-17	6.502962E-18
5.250000E+03	6.290009E-17	6.496126E-18
5.260000E+03	6.285421E-17	6.486686E-18
5.270000E+03	6.278238E-17	6.474572E-18
5.280000E+03	6.268264E-17	6.459588E-18
5.290000E+03	6.255438E-17	6.441677E-18
5.300000E+03	6.239768E-17	6.420855E-18
5.310000E+03	6.221150E-17	6.397020E-18
5.320000E+03	6.199494E-17	6.370088E-18
5.330000E+03	6.174786E-17	6.340051E-18
5.340000E+03	6.147025E-17	6.306916E-18
5.350000E+03	6.116230E-17	6.270708E-18
5.360000E+03	6.082376E-17	6.231410E-18
5.370000E+03	6.045577E-17	6.189145E-18
5.380000E+03	6.005850E-17	6.143938E-18
5.390000E+03	5.963349E-17	6.095953E-18
5.400000E+03	5.918128E-17	6.045252E-18
5.410000E+03	5.870444E-17	5.992104E-18
5.420000E+03	5.820508E-17	5.936729E-18
5.430000E+03	5.768432E-17	5.879248E-18
5.440000E+03	5.714580E-17	5.820035E-18
5.450000E+03	5.659150E-17	5.759298E-18
5.460000E+03	5.602136E-17	5.697032E-18
5.470000E+03	5.543939E-17	5.633651E-18
5.480000E+03	5.484688E-17	5.569288E-18
5.490000E+03	5.424528E-17	5.504092E-18
5.500000E+03	5.363685E-17	5.438295E-18
5.510000E+03	5.302389E-17	5.372131E-18
5.520000E+03	5.240875E-17	5.305839E-18
5.530000E+03	5.179482E-17	5.239763E-18
5.540000E+03	5.118438E-17	5.174133E-18
5.550000E+03	5.058113E-17	5.109321E-18
5.560000E+03	4.998806E-17	5.045629E-18
5.570000E+03	4.940751E-17	4.983289E-18
5.580000E+03	4.884258E-17	4.922611E-18
5.590000E+03	4.829567E-17	4.863835E-18
5.600000E+03	4.776891E-17	4.807169E-18
5.610000E+03	4.726472E-17	4.752852E-18
5.620000E+03	4.678472E-17	4.701042E-18
5.630000E+03	4.633031E-17	4.651876E-18
5.640000E+03	4.590316E-17	4.605513E-18
5.650000E+03	4.550414E-17	4.562036E-18
5.660000E+03	4.513443E-17	4.521556E-18
5.670000E+03	4.479446E-17	4.484110E-18
5.680000E+03	4.448453E-17	4.449720E-18
5.690000E+03	4.420514E-17	4.418430E-18
5.700000E+03	4.395623E-17	4.390228E-18
5.710000E+03	4.373752E-17	4.365079E-18
5.720000E+03	4.354915E-17	4.342988E-18
5.730000E+03	4.339063E-17	4.323903E-18
5.740000E+03	4.326188E-17	4.307805E-18
5.750000E+03	4.316184E-17	4.294586E-18
5.760000E+03	4.309078E-17	4.284264E-18
5.770000E+03	4.304755E-17	4.276719E-18
5.780000E+03	4.303152E-17	4.271882E-18
5.790000E+03	4.304288E-17	4.269767E-18
5.800000E+03	4.308009E-17	4.270214E-18
5.810000E+03	4.314342E-17	4.273243E-18
5.820000E+03	4.323225E-17	4.278789E-18
5.830000E+03	4.334602E-17	4.286791E-18
5.840000E+03	4.348369E-17	4.297139E-18
5.850000E+03	4.364567E-17	4.309870E-18
5.860000E+03	4.383102E-17	4.324884E-18
5.870000E+03	4.403973E-17	4.342177E-18
5.880000E+03	4.427135E-17	4.361698E-18
5.890000E+03	4.452494E-17	4.383352E-18
5.900000E+03	4.480060E-17	4.407140E-18
5.910000E+03	4.509838E-17	4.433066E-18
5.920000E+03	4.541687E-17	4.460985E-18
5.930000E+03	4.575616E-17	4.490902E-18
5.940000E+03	4.611584E-17	4.522771E-18
5.950000E+03	4.649599E-17	4.556598E-18
5.960000E+03	4.689514E-17	4.592233E-18
5.970000E+03	4.731389E-17	4.629731E-18
5.980000E+03	4.775069E-17	4.668938E-18
5.990000E+03	4.820564E-17	4.709858E-18
6.000000E+03	4.867822E-17	4.752438E-18
6.010000E+03	4.916737E-17	4.796571E-18
6.020000E+03	4.967310E-17	4.842254E-18
6.030000E+03	5.019375E-17	4.889322E-18
6.040000E+03	5.072987E-17	4.937827E-18
6.050000E+03	5.127911E-17	4.987536E-18
6.060000E+03	5.184201E-17	5.038500E-18
6.070000E+03	5.241671E-17	5.090537E-18
6.080000E+03	5.300311E-17	5.143633E-18
6.090000E+03	5.359925E-17	5.197597E-18
6.100000E+03	5.420432E-17	5.252349E-18
6.110000E+03	5.481682E-17	5.307742E-18
6.120000E+03	5.543587E-17	5.363691E-18
6.130000E+03	5.605913E-17	5.419969E-18
6.140000E+03	5.668489E-17	5.476409E-18
6.150000E+03	5.731197E-17	5.532899E-18
6.160000E+03	5.793843E-17	5.589252E-18
6.170000E+03	5.856087E-17	5.645140E-18
6.180000E+03	5.917775E-17	5.700418E-18
6.190000E+03	5.978689E-17	5.754876E-18
6.200000E+03	6.038692E-17	5.808388E-18
6.210000E+03	6.097773E-17	5.860942E-18
6.220000E+03	6.155924E-17	5.912538E-18
6.230000E+03	6.213218E-17	5.963244E-18
6.240000E+03	6.269903E-17	6.013304E-18
6.250000E+03	6.325989E-17	6.062729E-18
6.260000E+03	6.381413E-17	6.111460E-18
6.270000E+03	6.436449E-17	6.159761E-18
6.280000E+03	6.491125E-17	6.207663E-18
6.290000E+03	6.545307E-17	6.255038E-18
6.300000E+03	6.599294E-17	6.302171E-18
6.310000E+03	6.652868E-17	6.348857E-18
6.320000E+03	6.706255E-17	6.395312E-18
6.330000E+03	6.759330E-17	6.441418E-18
6.340000E+03	6.812153E-17	6.487232E-18
6.350000E+03	6.864692E-17	6.532727E-18
6.360000E+03	6.916921E-17	6.577877E-18
6.370000E+03	6.968813E-17	6.622659E-18
6.380000E+03	7.020243E-17	6.666955E-18
6.390000E+03	7.071087E-17	6.710648E-18
6.400000E+03	7.121415E-17	6.753807E-18
6.410000E+03	7.171000E-17	6.796217E-18
6.420000E+03	7.219917E-17	6.837952E-18
6.430000E+03	7.268038E-17	6.878893E-18
6.440000E+03	7.315336E-17	6.919016E-18
6.450000E+03	7.361897E-17	6.958403E-18
6.460000E+03	7.407922E-17	6.997248E-18
6.470000E+03	7.453404E-17	7.035545E-18
6.480000E+03	7.498450E-17	7.073397E-18
6.490000E+03	7.543176E-17	7.110914E-18
6.500000E+03	7.587471E-17	7.147992E-18
6.510000E+03	7.631570E-17	7.184856E-18
6.520000E+03	7.675489E-17	7.221520E-18
6.530000E+03	7.719118E-17	7.257881E-18
6.540000E+03	7.762709E-17	7.294179E-18
6.550000E+03	7.806157E-17	7.330314E-18
6.560000E+03	7.849352E-17	7.366185E-18
6.570000E+03	7.892552E-17	7.402036E-18
6.580000E+03	7.935647E-17	7.437762E-18
6.590000E+03	7.978650E-17	7.473378E-18
6.600000E+03	8.021697E-17	7.509011E-18
6.610000E+03	8.064541E-17	7.544431E-18
6.620000E+03	8.107180E-17	7.579638E-18
6.630000E+03	8.149885E-17	7.614885E-18
6.640000E+03	8.192390E-17	7.649925E-18
6.650000E+03	8.234691E-17	7.684756E-18
6.660000E+03	8.276918E-17	7.719500E-18
6.670000E+03	8.318924E-17	7.754021E-18
6.680000E+03	8.360698E-17	7.788309E-18
6.690000E+03	8.402366E-17	7.822484E-18
6.700000E+03	8.443625E-17	7.856263E-18
6.710000E+03	8.484447E-17	7.889625E-18
6.720000E+03	8.525102E-17	7.922819E-18
6.730000E+03	8.565266E-17	7.955547E-18
6.740000E+03	8.604907E-17	7.987782E-18
6.750000E+03	8.644141E-17	8.019633E-18
6.760000E+03	8.682782E-17	8.050928E-18
6.770000E+03	8.720787E-17	8.081629E-18
6.780000E+03	8.758117E-17	8.111705E-18
6.790000E+03	8.794729E-17	8.141114E-18
6.800000E+03	8.830419E-17	8.169672E-18
6.810000E+03	8.865299E-17	8.197485E-18
6.820000E+03	8.899326E-17	8.224514E-18
6.830000E+03	8.932288E-17	8.250569E-18
6.840000E+03	8.964303E-17	8.275758E-18
6.850000E+03	8.995161E-17	8.299891E-18
6.860000E+03	9.024812E-17	8.322926E-18
6.870000E+03	9.053215E-17	8.344826E-18
6.880000E+03	9.080151E-17	8.365395E-18
6.890000E+03	9.105918E-17	8.384907E-18
6.900000E+03	9.130307E-17	8.403175E-18
6.910000E+03	9.153107E-17	8.420008E-18
6.920000E+03	9.174454E-17	8.435533E-18
6.930000E+03	9.194140E-17	8.449564E-18
6.940000E+03	9.212134E-17	8.462074E-18
6.950000E+03	9.228587E-17	8.473206E-18
6.960000E+03	9.243301E-17	8.482780E-18
6.970000E+03	9.256253E-17	8.490781E-18
6.980000E+03	9.267433E-17	8.497202E-18
6.990000E+03	9.276830E-17	8.502035E-18
7.000000E+03	9.284259E-17	8.505116E-18
7.010000E+03	9.290086E-17	8.506782E-18
7.020000E+03	9.293955E-17	8.506711E-18
7.030000E+03	9.295879E-17	8.504918E-18
7.040000E+03	9.296063E-17	8.501593E-18
7.050000E+03	9.294351E-17	8.496598E-18
7.060000E+03	9.290776E-17	8.489966E-18
7.070000E+03	9.285381E-17	8.481737E-18
7.080000E+03	9.278212E-17	8.471960E-18
7.090000E+03	9.269516E-17	8.460859E-18
7.100000E+03	9.258982E-17	8.448155E-18
7.110000E+03	9.246681E-17	8.433916E-18
7.120000E+03	9.232876E-17	8.418384E-18
7.130000E+03	9.217653E-17	8.401639E-18
7.140000E+03	9.200916E-17	8.383595E-18
7.150000E+03	9.182948E-17	8.364514E-18
7.160000E+03	9.163474E-17	8.344146E-18
7.170000E+03	9.142979E-17	8.322935E-18
7.180000E+03	9.121380E-17	8.300807E-18
7.190000E+03	9.098794E-17	8.277870E-18
7.200000E+03	9.075147E-17	8.254058E-18
7.210000E+03	9.050930E-17	8.229818E-18
7.220000E+03	9.025885E-17	8.204919E-18
7.230000E+03	9.000314E-17	8.179634E-18
7.240000E+03	8.974149E-17	8.153904E-18
7.250000E+03	8.947688E-17	8.127999E-18
7.260000E+03	8.920854E-17	8.101852E-18
7.270000E+03	8.893755E-17	8.075559E-18
7.280000E+03	8.866682E-17	8.049388E-18
7.290000E+03	8.839550E-17	8.023259E-18
7.300000E+03	8.812642E-17	7.997432E-18
7.310000E+03	8.785674E-17	7.971648E-18
7.320000E+03	8.758922E-17	7.946159E-18
7.330000E+03	8.732659E-17	7.921213E-18
7.340000E+03	8.706586E-17	7.896538E-18
7.350000E+03	8.680967E-17	7.872375E-18
7.360000E+03	8.655685E-17	7.848617E-18
7.370000E+03	8.630991E-17	7.825494E-18
7.380000E+03	8.606758E-17	7.802888E-18
7.390000E+03	8.583033E-17	7.780845E-18
7.400000E+03	8.559857E-17	7.759403E-18
7.410000E+03	8.537076E-17	7.738420E-18
7.420000E+03	8.514705E-17	7.717911E-18
7.430000E+03	8.492745E-17	7.697879E-18
7.440000E+03	8.471177E-17	7.678305E-18
7.450000E+03	8.450152E-17	7.659328E-18
7.460000E+03	8.429418E-17	7.640719E-18
7.470000E+03	8.409266E-17	7.622744E-18
7.480000E+03	8.389584E-17	7.605300E-18
7.490000E+03	8.370240E-17	7.588269E-18
7.500000E+03	8.351080E-17	7.571512E-18
7.510000E+03	8.331944E-17	7.554881E-18
7.520000E+03	8.313199E-17	7.538708E-18
7.530000E+03	8.294665E-17	7.522826E-18
7.540000E+03	8.276730E-17	7.507586E-18
7.550000E+03	8.259574E-17	7.493150E-18
7.560000E+03	8.243540E-17	7.479827E-18
7.570000E+03	8.228370E-17	7.467381E-18
7.580000E+03	8.214348E-17	7.456069E-18
7.590000E+03	8.201545E-17	7.445955E-18
7.600000E+03	8.190195E-17	7.437249E-18
7.610000E+03	8.179934E-17	7.429620E-18
7.620000E+03	8.171148E-17	7.423419E-18
7.630000E+03	8.163631E-17	7.418457E-18
7.640000E+03	8.157162E-17	7.414533E-18
7.650000E+03	8.152089E-17	7.411962E-18
7.660000E+03	8.148171E-17	7.410524E-18
7.670000E+03	8.145356E-17	7.410173E-18
7.680000E+03	8.143581E-17	7.410851E-18
7.690000E+03	8.142781E-17	7.412497E-18
7.700000E+03	8.142893E-17	7.415054E-18
7.710000E+03	8.144041E-17	7.418635E-18
7.720000E+03	8.145758E-17	7.422813E-18
7.730000E+03	8.148365E-17	7.427881E-18
7.740000E+03	8.151590E-17	7.433591E-18
7.750000E+03	8.155356E-17	7.439872E-18
7.760000E+03	8.159585E-17	7.446652E-18
