#wls	flux	fluxerr
1.600000E+03	1.295839E-16	6.567907E-17
1.640000E+03	1.340367E-16	6.792593E-17
1.680000E+03	1.384045E-16	7.012844E-17
1.720000E+03	1.426689E-16	7.227737E-17
1.760000E+03	1.467672E-16	7.434083E-17
1.800000E+03	1.506717E-16	7.630479E-17
1.840000E+03	1.543239E-16	7.813963E-17
1.880000E+03	1.576874E-16	7.982695E-17
1.920000E+03	1.607093E-16	8.133996E-17
1.960000E+03	1.633340E-16	8.265056E-17
2.000000E+03	1.654805E-16	8.371791E-17
2.040000E+03	1.670942E-16	8.451447E-17
2.080000E+03	1.681114E-16	8.500816E-17
2.120000E+03	1.684419E-16	8.515363E-17
2.160000E+03	1.680096E-16	8.491256E-17
2.200000E+03	1.667256E-16	8.424037E-17
2.240000E+03	1.645175E-16	8.310087E-17
2.280000E+03	1.613773E-16	8.149040E-17
2.320000E+03	1.573356E-16	7.942494E-17
2.360000E+03	1.525160E-16	7.696725E-17
2.400000E+03	1.470297E-16	7.417385E-17
2.440000E+03	1.409772E-16	7.109597E-17
2.480000E+03	1.344687E-16	6.778941E-17
2.520000E+03	1.275907E-16	6.429825E-17
2.560000E+03	1.204199E-16	6.066130E-17
2.600000E+03	1.130477E-16	5.692502E-17
2.640000E+03	1.055428E-16	5.312414E-17
2.680000E+03	9.798455E-17	4.929889E-17
2.720000E+03	9.043976E-17	4.548298E-17
2.760000E+03	8.298631E-17	4.171572E-17
2.800000E+03	7.568953E-17	3.803002E-17
2.840000E+03	6.861839E-17	3.446056E-17
2.880000E+03	6.183787E-17	3.103994E-17
2.920000E+03	5.540734E-17	2.779788E-17
2.960000E+03	4.937831E-17	2.476007E-17
3.000000E+03	4.379158E-17	2.194677E-17
3.010000E+03	4.246716E-17	2.128008E-17
3.020000E+03	4.117286E-17	2.062864E-17
3.030000E+03	3.990783E-17	1.999203E-17
3.040000E+03	3.867383E-17	1.937112E-17
3.050000E+03	3.746990E-17	1.876542E-17
3.060000E+03	3.629600E-17	1.817491E-17
3.070000E+03	3.515203E-17	1.759954E-17
3.080000E+03	3.403932E-17	1.703997E-17
3.090000E+03	3.295619E-17	1.649535E-17
3.100000E+03	3.190382E-17	1.596626E-17
3.110000E+03	3.088123E-17	1.545221E-17
3.120000E+03	2.988876E-17	1.495337E-17
3.130000E+03	2.892606E-17	1.446956E-17
3.140000E+03	2.799274E-17	1.400057E-17
3.150000E+03	2.708843E-17	1.354621E-17
3.160000E+03	2.621320E-17	1.310652E-17
3.170000E+03	2.536613E-17	1.268103E-17
3.180000E+03	2.454724E-17	1.226974E-17
3.190000E+03	2.375601E-17	1.187239E-17
3.200000E+03	2.299195E-17	1.148873E-17
3.210000E+03	2.225491E-17	1.111868E-17
3.220000E+03	2.154360E-17	1.076158E-17
3.230000E+03	2.085857E-17	1.041771E-17
3.240000E+03	2.019818E-17	1.008625E-17
3.250000E+03	1.956288E-17	9.767413E-18
3.260000E+03	1.895143E-17	9.460570E-18
3.270000E+03	1.836354E-17	9.165583E-18
3.280000E+03	1.779862E-17	8.882145E-18
3.290000E+03	1.725580E-17	8.609813E-18
3.300000E+03	1.673500E-17	8.348556E-18
3.310000E+03	1.623511E-17	8.097802E-18
3.320000E+03	1.575555E-17	7.857265E-18
3.330000E+03	1.529621E-17	7.626880E-18
3.340000E+03	1.485601E-17	7.406112E-18
3.350000E+03	1.443441E-17	7.194681E-18
3.360000E+03	1.403084E-17	6.992300E-18
3.370000E+03	1.364494E-17	6.798788E-18
3.380000E+03	1.327577E-17	6.613670E-18
3.390000E+03	1.292281E-17	6.436687E-18
3.400000E+03	1.258573E-17	6.267666E-18
3.410000E+03	1.226385E-17	6.106263E-18
3.420000E+03	1.195666E-17	5.952230E-18
3.430000E+03	1.166339E-17	5.805175E-18
3.440000E+03	1.138375E-17	5.664944E-18
3.450000E+03	1.111728E-17	5.531316E-18
3.460000E+03	1.086329E-17	5.403939E-18
3.470000E+03	1.062138E-17	5.282610E-18
3.480000E+03	1.039103E-17	5.167072E-18
3.490000E+03	1.017202E-17	5.057202E-18
3.500000E+03	9.963603E-18	4.952640E-18
3.510000E+03	9.765593E-18	4.853282E-18
3.520000E+03	9.577437E-18	4.758853E-18
3.530000E+03	9.398736E-18	4.669153E-18
3.540000E+03	9.229109E-18	4.583988E-18
3.550000E+03	9.068095E-18	4.503129E-18
3.560000E+03	8.915464E-18	4.426458E-18
3.570000E+03	8.770694E-18	4.353714E-18
3.580000E+03	8.633497E-18	4.284753E-18
3.590000E+03	8.503681E-18	4.219476E-18
3.600000E+03	8.380891E-18	4.157707E-18
3.610000E+03	8.264864E-18	4.099312E-18
3.620000E+03	8.155290E-18	4.044136E-18
3.630000E+03	8.051851E-18	3.992019E-18
3.640000E+03	7.954350E-18	3.942862E-18
3.650000E+03	7.862422E-18	3.896483E-18
3.660000E+03	7.775962E-18	3.852828E-18
3.670000E+03	7.694649E-18	3.811736E-18
3.680000E+03	7.618311E-18	3.773121E-18
3.690000E+03	7.546867E-18	3.736941E-18
3.700000E+03	7.480013E-18	3.703044E-18
3.710000E+03	7.417608E-18	3.671359E-18
3.720000E+03	7.359642E-18	3.641880E-18
3.730000E+03	7.305913E-18	3.614506E-18
3.740000E+03	7.256277E-18	3.589163E-18
3.750000E+03	7.210736E-18	3.565853E-18
3.760000E+03	7.169085E-18	3.544471E-18
3.770000E+03	7.131264E-18	3.524988E-18
3.780000E+03	7.097265E-18	3.507398E-18
3.790000E+03	7.066966E-18	3.491639E-18
3.800000E+03	7.040291E-18	3.477674E-18
3.810000E+03	7.017186E-18	3.465474E-18
3.820000E+03	6.997582E-18	3.455003E-18
3.830000E+03	6.981472E-18	3.446257E-18
3.840000E+03	6.968732E-18	3.439175E-18
3.850000E+03	6.959363E-18	3.433755E-18
3.860000E+03	6.953353E-18	3.429990E-18
3.870000E+03	6.950584E-18	3.427821E-18
3.880000E+03	6.950993E-18	3.427216E-18
3.890000E+03	6.954626E-18	3.428196E-18
3.900000E+03	6.961430E-18	3.430734E-18
3.910000E+03	6.971277E-18	3.434766E-18
3.920000E+03	6.984226E-18	3.440319E-18
3.930000E+03	7.000260E-18	3.447385E-18
3.940000E+03	7.019215E-18	3.455881E-18
3.950000E+03	7.041137E-18	3.465829E-18
3.960000E+03	7.066018E-18	3.477225E-18
3.970000E+03	7.093804E-18	3.490039E-18
3.980000E+03	7.124367E-18	3.504209E-18
3.990000E+03	7.157824E-18	3.519790E-18
4.000000E+03	7.194055E-18	3.536723E-18
4.010000E+03	7.232995E-18	3.554975E-18
4.020000E+03	7.274702E-18	3.574573E-18
4.030000E+03	7.319057E-18	3.595457E-18
4.040000E+03	7.366112E-18	3.617651E-18
4.050000E+03	7.415693E-18	3.641071E-18
4.060000E+03	7.467916E-18	3.665771E-18
4.070000E+03	7.522661E-18	3.691691E-18
4.080000E+03	7.579865E-18	3.718800E-18
4.090000E+03	7.639598E-18	3.747130E-18
4.100000E+03	7.701669E-18	3.776588E-18
4.110000E+03	7.766211E-18	3.807236E-18
4.120000E+03	7.833041E-18	3.838985E-18
4.130000E+03	7.902164E-18	3.871836E-18
4.140000E+03	7.973585E-18	3.905791E-18
4.150000E+03	8.047181E-18	3.940788E-18
4.160000E+03	8.122961E-18	3.976830E-18
4.170000E+03	8.200874E-18	4.013892E-18
4.180000E+03	8.280795E-18	4.051912E-18
4.190000E+03	8.362798E-18	4.090924E-18
4.200000E+03	8.446695E-18	4.130837E-18
4.210000E+03	8.532570E-18	4.171689E-18
4.220000E+03	8.620231E-18	4.213387E-18
4.230000E+03	8.709684E-18	4.255932E-18
4.240000E+03	8.800878E-18	4.299299E-18
4.250000E+03	8.893611E-18	4.343389E-18
4.260000E+03	8.987972E-18	4.388243E-18
4.270000E+03	9.083823E-18	4.433793E-18
4.280000E+03	9.181034E-18	4.479977E-18
4.290000E+03	9.279468E-18	4.526725E-18
4.300000E+03	9.379131E-18	4.574040E-18
4.310000E+03	9.479952E-18	4.621888E-18
4.320000E+03	9.581644E-18	4.670127E-18
4.330000E+03	9.684270E-18	4.718788E-18
4.340000E+03	9.787525E-18	4.767722E-18
4.350000E+03	9.891487E-18	4.816965E-18
4.360000E+03	9.995902E-18	4.866395E-18
4.370000E+03	1.010077E-17	4.916009E-18
4.380000E+03	1.020607E-17	4.965799E-18
4.390000E+03	1.031180E-17	5.015766E-18
4.400000E+03	1.041796E-17	5.065902E-18
4.410000E+03	1.052461E-17	5.116245E-18
4.420000E+03	1.063186E-17	5.166838E-18
4.430000E+03	1.073968E-17	5.217678E-18
4.440000E+03	1.084819E-17	5.268812E-18
4.450000E+03	1.095730E-17	5.320201E-18
4.460000E+03	1.106720E-17	5.371933E-18
4.470000E+03	1.117780E-17	5.423973E-18
4.480000E+03	1.128913E-17	5.476327E-18
4.490000E+03	1.140120E-17	5.529001E-18
4.500000E+03	1.151405E-17	5.582010E-18
4.510000E+03	1.162768E-17	5.635364E-18
4.520000E+03	1.174213E-17	5.689073E-18
4.530000E+03	1.185723E-17	5.743058E-18
4.540000E+03	1.197321E-17	5.797428E-18
4.550000E+03	1.208991E-17	5.852106E-18
4.560000E+03	1.220736E-17	5.907105E-18
4.570000E+03	1.232551E-17	5.962396E-18
4.580000E+03	1.244449E-17	6.018051E-18
4.590000E+03	1.256426E-17	6.074046E-18
4.600000E+03	1.268465E-17	6.130297E-18
4.610000E+03	1.280594E-17	6.186939E-18
4.620000E+03	1.292798E-17	6.243897E-18
4.630000E+03	1.305071E-17	6.301145E-18
4.640000E+03	1.317432E-17	6.358775E-18
4.650000E+03	1.329890E-17	6.416824E-18
4.660000E+03	1.342419E-17	6.475167E-18
4.670000E+03	1.355049E-17	6.533955E-18
4.680000E+03	1.367781E-17	6.593184E-18
4.690000E+03	1.380612E-17	6.652842E-18
4.700000E+03	1.393552E-17	6.712982E-18
4.710000E+03	1.406603E-17	6.773600E-18
4.720000E+03	1.419774E-17	6.834754E-18
4.730000E+03	1.433042E-17	6.896318E-18
4.740000E+03	1.446418E-17	6.958352E-18
4.750000E+03	1.459916E-17	7.020924E-18
4.760000E+03	1.473496E-17	7.083834E-18
4.770000E+03	1.487185E-17	7.147216E-18
4.780000E+03	1.500970E-17	7.211006E-18
4.790000E+03	1.514836E-17	7.275134E-18
4.800000E+03	1.528814E-17	7.339739E-18
4.810000E+03	1.542859E-17	7.404616E-18
4.820000E+03	1.557016E-17	7.469970E-18
4.830000E+03	1.571240E-17	7.535591E-18
4.840000E+03	1.585561E-17	7.601621E-18
4.850000E+03	1.599949E-17	7.667913E-18
4.860000E+03	1.614433E-17	7.734605E-18
4.870000E+03	1.628982E-17	7.801551E-18
4.880000E+03	1.643609E-17	7.868810E-18
4.890000E+03	1.658313E-17	7.936379E-18
4.900000E+03	1.673075E-17	8.004165E-18
4.910000E+03	1.687893E-17	8.072156E-18
4.920000E+03	1.702761E-17	8.140327E-18
4.930000E+03	1.717694E-17	8.208739E-18
4.940000E+03	1.732650E-17	8.277204E-18
4.950000E+03	1.747659E-17	8.345857E-18
4.960000E+03	1.762678E-17	8.414496E-18
4.970000E+03	1.777717E-17	8.483166E-18
4.980000E+03	1.792750E-17	8.551739E-18
4.990000E+03	1.807764E-17	8.620161E-18
5.000000E+03	1.822749E-17	8.688377E-18
5.010000E+03	1.837709E-17	8.756407E-18
5.020000E+03	1.852594E-17	8.824016E-18
5.030000E+03	1.867406E-17	8.891210E-18
5.040000E+03	1.882109E-17	8.957821E-18
5.050000E+03	1.896703E-17	9.023849E-18
5.060000E+03	1.911151E-17	9.089109E-18
5.070000E+03	1.925409E-17	9.153408E-18
5.080000E+03	1.939476E-17	9.216730E-18
5.090000E+03	1.953326E-17	9.278957E-18
5.100000E+03	1.966914E-17	9.339877E-18
5.110000E+03	1.980194E-17	9.399268E-18
5.120000E+03	1.993176E-17	9.457181E-18
5.130000E+03	2.005791E-17	9.513295E-18
5.140000E+03	2.018009E-17	9.567463E-18
5.150000E+03	2.029798E-17	9.619537E-18
5.160000E+03	2.041125E-17	9.669367E-18
5.170000E+03	2.051938E-17	9.716703E-18
5.180000E+03	2.062223E-17	9.761485E-18
5.190000E+03	2.071906E-17	9.803364E-18
5.200000E+03	2.080974E-17	9.842281E-18
5.210000E+03	2.089353E-17	9.877889E-18
5.220000E+03	2.097050E-17	9.910230E-18
5.230000E+03	2.103992E-17	9.938963E-18
5.240000E+03	2.110171E-17	9.964045E-18
5.250000E+03	2.115514E-17	9.985146E-18
5.260000E+03	2.120016E-17	1.000224E-17
5.270000E+03	2.123652E-17	1.001522E-17
5.280000E+03	2.126357E-17	1.002378E-17
5.290000E+03	2.128114E-17	1.002784E-17
5.300000E+03	2.128928E-17	1.002744E-17
5.310000E+03	2.128766E-17	1.002243E-17
5.320000E+03	2.127601E-17	1.001269E-17
5.330000E+03	2.125431E-17	9.998200E-18
5.340000E+03	2.122258E-17	9.978993E-18
5.350000E+03	2.118092E-17	9.955116E-18
5.360000E+03	2.112927E-17	9.926543E-18
5.370000E+03	2.106803E-17	9.893476E-18
5.380000E+03	2.099726E-17	9.855943E-18
5.390000E+03	2.091749E-17	9.814206E-18
5.400000E+03	2.082891E-17	9.768349E-18
5.410000E+03	2.073237E-17	9.718785E-18
5.420000E+03	2.062858E-17	9.665850E-18
5.430000E+03	2.051789E-17	9.609709E-18
5.440000E+03	2.040152E-17	9.550938E-18
5.450000E+03	2.028010E-17	9.489843E-18
5.460000E+03	2.015353E-17	9.426372E-18
5.470000E+03	2.002313E-17	9.361154E-18
5.480000E+03	1.988929E-17	9.294362E-18
5.490000E+03	1.975237E-17	9.226178E-18
5.500000E+03	1.961301E-17	9.156900E-18
5.510000E+03	1.947166E-17	9.086737E-18
5.520000E+03	1.932877E-17	9.015903E-18
5.530000E+03	1.918520E-17	8.944800E-18
5.540000E+03	1.904142E-17	8.873648E-18
5.550000E+03	1.889845E-17	8.802924E-18
5.560000E+03	1.875714E-17	8.733016E-18
5.570000E+03	1.861806E-17	8.664200E-18
5.580000E+03	1.848220E-17	8.596926E-18
5.590000E+03	1.835027E-17	8.531525E-18
5.600000E+03	1.822297E-17	8.468320E-18
5.610000E+03	1.810113E-17	8.407698E-18
5.620000E+03	1.798536E-17	8.349935E-18
5.630000E+03	1.787622E-17	8.295286E-18
5.640000E+03	1.777441E-17	8.244073E-18
5.650000E+03	1.768039E-17	8.196507E-18
5.660000E+03	1.759477E-17	8.152863E-18
5.670000E+03	1.751794E-17	8.113315E-18
5.680000E+03	1.745022E-17	8.078006E-18
5.690000E+03	1.739210E-17	8.047161E-18
5.700000E+03	1.734384E-17	8.020886E-18
5.710000E+03	1.730566E-17	7.999283E-18
5.720000E+03	1.727794E-17	7.982519E-18
5.730000E+03	1.726084E-17	7.970661E-18
5.740000E+03	1.725470E-17	7.963853E-18
5.750000E+03	1.725943E-17	7.962059E-18
5.760000E+03	1.727553E-17	7.965485E-18
5.770000E+03	1.730287E-17	7.974078E-18
5.780000E+03	1.734153E-17	7.987861E-18
5.790000E+03	1.739194E-17	8.007027E-18
5.800000E+03	1.745379E-17	8.031417E-18
5.810000E+03	1.752747E-17	8.061213E-18
5.820000E+03	1.761303E-17	8.096421E-18
5.830000E+03	1.771050E-17	8.137049E-18
5.840000E+03	1.781970E-17	8.183011E-18
5.850000E+03	1.794105E-17	8.234481E-18
5.860000E+03	1.807435E-17	8.291367E-18
5.870000E+03	1.821980E-17	8.353750E-18
5.880000E+03	1.837741E-17	8.421629E-18
5.890000E+03	1.854697E-17	8.494890E-18
5.900000E+03	1.872865E-17	8.573608E-18
5.910000E+03	1.892263E-17	8.657860E-18
5.920000E+03	1.912846E-17	8.747423E-18
5.930000E+03	1.934627E-17	8.842352E-18
5.940000E+03	1.957599E-17	8.942607E-18
5.950000E+03	1.981775E-17	9.048233E-18
5.960000E+03	2.007096E-17	9.158961E-18
5.970000E+03	2.033595E-17	9.274922E-18
5.980000E+03	2.061206E-17	9.395820E-18
5.990000E+03	2.089934E-17	9.521655E-18
6.000000E+03	2.119755E-17	9.652315E-18
6.010000E+03	2.150615E-17	9.787550E-18
6.020000E+03	2.182510E-17	9.927331E-18
6.030000E+03	2.215355E-17	1.007126E-17
6.040000E+03	2.249161E-17	1.021938E-17
6.050000E+03	2.283807E-17	1.037114E-17
6.060000E+03	2.319299E-17	1.052656E-17
6.070000E+03	2.355530E-17	1.068514E-17
6.080000E+03	2.392472E-17	1.084676E-17
6.090000E+03	2.430009E-17	1.101088E-17
6.100000E+03	2.468075E-17	1.117719E-17
6.110000E+03	2.506574E-17	1.134527E-17
6.120000E+03	2.545432E-17	1.151476E-17
6.130000E+03	2.584513E-17	1.168506E-17
6.140000E+03	2.623705E-17	1.185566E-17
6.150000E+03	2.662926E-17	1.202618E-17
6.160000E+03	2.702062E-17	1.219611E-17
6.170000E+03	2.740924E-17	1.236459E-17
6.180000E+03	2.779427E-17	1.253125E-17
6.190000E+03	2.817446E-17	1.269553E-17
6.200000E+03	2.854894E-17	1.285703E-17
6.210000E+03	2.891723E-17	1.301555E-17
6.220000E+03	2.927889E-17	1.317089E-17
6.230000E+03	2.963394E-17	1.332307E-17
6.240000E+03	2.998327E-17	1.347249E-17
6.250000E+03	3.032672E-17	1.361908E-17
6.260000E+03	3.066382E-17	1.376264E-17
6.270000E+03	3.099576E-17	1.390370E-17
6.280000E+03	3.132265E-17	1.404233E-17
6.290000E+03	3.164382E-17	1.417822E-17
6.300000E+03	3.196076E-17	1.431204E-17
6.310000E+03	3.227250E-17	1.444337E-17
6.320000E+03	3.258026E-17	1.457276E-17
6.330000E+03	3.288358E-17	1.469999E-17
6.340000E+03	3.318290E-17	1.482528E-17
6.350000E+03	3.347829E-17	1.494865E-17
6.360000E+03	3.376981E-17	1.507013E-17
6.370000E+03	3.405756E-17	1.518978E-17
6.380000E+03	3.434119E-17	1.530744E-17
6.390000E+03	3.462031E-17	1.542294E-17
6.400000E+03	3.489555E-17	1.553655E-17
6.410000E+03	3.516602E-17	1.564790E-17
6.420000E+03	3.543236E-17	1.575726E-17
6.430000E+03	3.569419E-17	1.586448E-17
6.440000E+03	3.595165E-17	1.596960E-17
6.450000E+03	3.620539E-17	1.607295E-17
6.460000E+03	3.645667E-17	1.617506E-17
6.470000E+03	3.670569E-17	1.627603E-17
6.480000E+03	3.695321E-17	1.637620E-17
6.490000E+03	3.720003E-17	1.647592E-17
6.500000E+03	3.744581E-17	1.657506E-17
6.510000E+03	3.769195E-17	1.667421E-17
6.520000E+03	3.793871E-17	1.677351E-17
6.530000E+03	3.818575E-17	1.687279E-17
6.540000E+03	3.843450E-17	1.697270E-17
6.550000E+03	3.868463E-17	1.707308E-17
6.560000E+03	3.893577E-17	1.717377E-17
6.570000E+03	3.918937E-17	1.727540E-17
6.580000E+03	3.944503E-17	1.737781E-17
6.590000E+03	3.970300E-17	1.748109E-17
6.600000E+03	3.996409E-17	1.758561E-17
6.610000E+03	4.022722E-17	1.769088E-17
6.620000E+03	4.049256E-17	1.779698E-17
6.630000E+03	4.076158E-17	1.790455E-17
6.640000E+03	4.103312E-17	1.801309E-17
6.650000E+03	4.130728E-17	1.812263E-17
6.660000E+03	4.158488E-17	1.823352E-17
6.670000E+03	4.186533E-17	1.834552E-17
6.680000E+03	4.214872E-17	1.845866E-17
6.690000E+03	4.243583E-17	1.857327E-17
6.700000E+03	4.272529E-17	1.868876E-17
6.710000E+03	4.301712E-17	1.880513E-17
6.720000E+03	4.331283E-17	1.892303E-17
6.730000E+03	4.361092E-17	1.904182E-17
6.740000E+03	4.391141E-17	1.916150E-17
6.750000E+03	4.421503E-17	1.928239E-17
6.760000E+03	4.452098E-17	1.940413E-17
6.770000E+03	4.482920E-17	1.952670E-17
6.780000E+03	4.513964E-17	1.965008E-17
6.790000E+03	4.545223E-17	1.977422E-17
6.800000E+03	4.576605E-17	1.989874E-17
6.810000E+03	4.608182E-17	2.002395E-17
6.820000E+03	4.639944E-17	2.014979E-17
6.830000E+03	4.671796E-17	2.027586E-17
6.840000E+03	4.703808E-17	2.040246E-17
6.850000E+03	4.735882E-17	2.052917E-17
6.860000E+03	4.768001E-17	2.065592E-17
6.870000E+03	4.800151E-17	2.078263E-17
6.880000E+03	4.832224E-17	2.090884E-17
6.890000E+03	4.864384E-17	2.103527E-17
6.900000E+03	4.896523E-17	2.116145E-17
6.910000E+03	4.928533E-17	2.128692E-17
6.920000E+03	4.960487E-17	2.141198E-17
6.930000E+03	4.992274E-17	2.153617E-17
6.940000E+03	5.023873E-17	2.165939E-17
6.950000E+03	5.055365E-17	2.178200E-17
6.960000E+03	5.086634E-17	2.190350E-17
6.970000E+03	5.117665E-17	2.202382E-17
6.980000E+03	5.148440E-17	2.214289E-17
6.990000E+03	5.178944E-17	2.226066E-17
7.000000E+03	5.209062E-17	2.237663E-17
7.010000E+03	5.238981E-17	2.249161E-17
7.020000E+03	5.268488E-17	2.260467E-17
7.030000E+03	5.297568E-17	2.271578E-17
7.040000E+03	5.326317E-17	2.282535E-17
7.050000E+03	5.354621E-17	2.293288E-17
7.060000E+03	5.382474E-17	2.303835E-17
7.070000E+03	5.409869E-17	2.314175E-17
7.080000E+03	5.436804E-17	2.324307E-17
7.090000E+03	5.463385E-17	2.334277E-17
7.100000E+03	5.489397E-17	2.343992E-17
7.110000E+03	5.514835E-17	2.353453E-17
7.120000E+03	5.539815E-17	2.362709E-17
7.130000E+03	5.564340E-17	2.371761E-17
7.140000E+03	5.588312E-17	2.380568E-17
7.150000E+03	5.611839E-17	2.389178E-17
7.160000E+03	5.634706E-17	2.397499E-17
7.170000E+03	5.657154E-17	2.405634E-17
7.180000E+03	5.679073E-17	2.413536E-17
7.190000E+03	5.700478E-17	2.421214E-17
7.200000E+03	5.721252E-17	2.428617E-17
7.210000E+03	5.741654E-17	2.435857E-17
7.220000E+03	5.761451E-17	2.442835E-17
7.230000E+03	5.780770E-17	2.449605E-17
7.240000E+03	5.799510E-17	2.456125E-17
7.250000E+03	5.817797E-17	2.462450E-17
7.260000E+03	5.835515E-17	2.468530E-17
7.270000E+03	5.852679E-17	2.474373E-17
7.280000E+03	5.869420E-17	2.480034E-17
7.290000E+03	5.885618E-17	2.485464E-17
7.300000E+03	5.901414E-17	2.490722E-17
7.310000E+03	5.916559E-17	2.495705E-17
7.320000E+03	5.931190E-17	2.500470E-17
7.330000E+03	5.945440E-17	2.505074E-17
7.340000E+03	5.959058E-17	2.509412E-17
7.350000E+03	5.972188E-17	2.513545E-17
7.360000E+03	5.984702E-17	2.517420E-17
7.370000E+03	5.996742E-17	2.521097E-17
7.380000E+03	6.008186E-17	2.524526E-17
7.390000E+03	6.019050E-17	2.527714E-17
7.400000E+03	6.029338E-17	2.530663E-17
7.410000E+03	6.038927E-17	2.533322E-17
7.420000E+03	6.047840E-17	2.535701E-17
7.430000E+03	6.056073E-17	2.537801E-17
7.440000E+03	6.063661E-17	2.539635E-17
7.450000E+03	6.070735E-17	2.541259E-17
7.460000E+03	6.077189E-17	2.542630E-17
7.470000E+03	6.083311E-17	2.543869E-17
7.480000E+03	6.089111E-17	2.544981E-17
7.490000E+03	6.094618E-17	2.545977E-17
7.500000E+03	6.099842E-17	2.546863E-17
7.510000E+03	6.104810E-17	2.547650E-17
7.520000E+03	6.109807E-17	2.548457E-17
7.530000E+03	6.114558E-17	2.549171E-17
7.540000E+03	6.119210E-17	2.549851E-17
7.550000E+03	6.123766E-17	2.550501E-17
7.560000E+03	6.128367E-17	2.551178E-17
7.570000E+03	6.132727E-17	2.551764E-17
7.580000E+03	6.136997E-17	2.552321E-17
7.590000E+03	6.141165E-17	2.552845E-17
7.600000E+03	6.145371E-17	2.553393E-17
7.610000E+03	6.149325E-17	2.553845E-17
7.620000E+03	6.153316E-17	2.554321E-17
7.630000E+03	6.157187E-17	2.554756E-17
7.640000E+03	6.160794E-17	2.555091E-17
7.650000E+03	6.164409E-17	2.555438E-17
7.660000E+03	6.167887E-17	2.555737E-17
7.670000E+03	6.171217E-17	2.555983E-17
7.680000E+03	6.174392E-17	2.556174E-17
7.690000E+03	6.177401E-17	2.556306E-17
7.700000E+03	6.180226E-17	2.556371E-17
7.710000E+03	6.183015E-17	2.556429E-17
7.720000E+03	6.185444E-17	2.556348E-17
7.730000E+03	6.187808E-17	2.556249E-17
7.740000E+03	6.189941E-17	2.556064E-17
7.750000E+03	6.191822E-17	2.555784E-17
7.760000E+03	6.193438E-17	2.555405E-17
