#wls	flux	fluxerr
1.600000E+03	2.852610E-16	4.369509E-17
1.640000E+03	2.933939E-16	4.493826E-17
1.680000E+03	3.009929E-16	4.609936E-17
1.720000E+03	3.080022E-16	4.716983E-17
1.760000E+03	3.142402E-16	4.812185E-17
1.800000E+03	3.196988E-16	4.895419E-17
1.840000E+03	3.241901E-16	4.963810E-17
1.880000E+03	3.276714E-16	5.016704E-17
1.920000E+03	3.300414E-16	5.052554E-17
1.960000E+03	3.311514E-16	5.069089E-17
2.000000E+03	3.309693E-16	5.065817E-17
2.040000E+03	3.293944E-16	5.041205E-17
2.080000E+03	3.263472E-16	4.994040E-17
2.120000E+03	3.217729E-16	4.923493E-17
2.160000E+03	3.156056E-16	4.828562E-17
2.200000E+03	3.077473E-16	4.707758E-17
2.240000E+03	2.981152E-16	4.559824E-17
2.280000E+03	2.867581E-16	4.385520E-17
2.320000E+03	2.739079E-16	4.188405E-17
2.360000E+03	2.599600E-16	3.974535E-17
2.400000E+03	2.452274E-16	3.748707E-17
2.440000E+03	2.299914E-16	3.515230E-17
2.480000E+03	2.144530E-16	3.277182E-17
2.520000E+03	1.988214E-16	3.037769E-17
2.560000E+03	1.832634E-16	2.799541E-17
2.600000E+03	1.679505E-16	2.565125E-17
2.640000E+03	1.530191E-16	2.336605E-17
2.680000E+03	1.385954E-16	2.115909E-17
2.720000E+03	1.247927E-16	1.904768E-17
2.760000E+03	1.116976E-16	1.704501E-17
2.800000E+03	9.938509E-17	1.516250E-17
2.840000E+03	8.791250E-17	1.340887E-17
2.880000E+03	7.732535E-17	1.179101E-17
2.920000E+03	6.765549E-17	1.031372E-17
2.960000E+03	5.891549E-17	8.978829E-18
3.000000E+03	5.109938E-17	7.785365E-18
3.010000E+03	4.928686E-17	7.508653E-18
3.020000E+03	4.752891E-17	7.240289E-18
3.030000E+03	4.582665E-17	6.980443E-18
3.040000E+03	4.417694E-17	6.728637E-18
3.050000E+03	4.258071E-17	6.485007E-18
3.060000E+03	4.103678E-17	6.249376E-18
3.070000E+03	3.954477E-17	6.021685E-18
3.080000E+03	3.810184E-17	5.801498E-18
3.090000E+03	3.670919E-17	5.588996E-18
3.100000E+03	3.536400E-17	5.383750E-18
3.110000E+03	3.406655E-17	5.185801E-18
3.120000E+03	3.281549E-17	4.994941E-18
3.130000E+03	3.160893E-17	4.810882E-18
3.140000E+03	3.044696E-17	4.633637E-18
3.150000E+03	2.932777E-17	4.462927E-18
3.160000E+03	2.825071E-17	4.298654E-18
3.170000E+03	2.721456E-17	4.140632E-18
3.180000E+03	2.621812E-17	3.988674E-18
3.190000E+03	2.526063E-17	3.842664E-18
3.200000E+03	2.434083E-17	3.702410E-18
3.210000E+03	2.345708E-17	3.567662E-18
3.220000E+03	2.260909E-17	3.438372E-18
3.230000E+03	2.179548E-17	3.314332E-18
3.240000E+03	2.101570E-17	3.195456E-18
3.250000E+03	2.026879E-17	3.081597E-18
3.260000E+03	1.955350E-17	2.972564E-18
3.270000E+03	1.886947E-17	2.868300E-18
3.280000E+03	1.821514E-17	2.768568E-18
3.290000E+03	1.759006E-17	2.673299E-18
3.300000E+03	1.699321E-17	2.582336E-18
3.310000E+03	1.642308E-17	2.495448E-18
3.320000E+03	1.587918E-17	2.412561E-18
3.330000E+03	1.536054E-17	2.333524E-18
3.340000E+03	1.486596E-17	2.258158E-18
3.350000E+03	1.439453E-17	2.186321E-18
3.360000E+03	1.394538E-17	2.117879E-18
3.370000E+03	1.351762E-17	2.052699E-18
3.380000E+03	1.311041E-17	1.990651E-18
3.390000E+03	1.272293E-17	1.931609E-18
3.400000E+03	1.235423E-17	1.875428E-18
3.410000E+03	1.200337E-17	1.821967E-18
3.420000E+03	1.166995E-17	1.771162E-18
3.430000E+03	1.135280E-17	1.722835E-18
3.440000E+03	1.105140E-17	1.676908E-18
3.450000E+03	1.076497E-17	1.633260E-18
3.460000E+03	1.049289E-17	1.591797E-18
3.470000E+03	1.023433E-17	1.552393E-18
3.480000E+03	9.988620E-18	1.514946E-18
3.490000E+03	9.755258E-18	1.479378E-18
3.500000E+03	9.533533E-18	1.445582E-18
3.510000E+03	9.322997E-18	1.413489E-18
3.520000E+03	9.122823E-18	1.382972E-18
3.530000E+03	8.932636E-18	1.353975E-18
3.540000E+03	8.751801E-18	1.326401E-18
3.550000E+03	8.579821E-18	1.300175E-18
3.560000E+03	8.416231E-18	1.275224E-18
3.570000E+03	8.260426E-18	1.251458E-18
3.580000E+03	8.112177E-18	1.228841E-18
3.590000E+03	7.971019E-18	1.207302E-18
3.600000E+03	7.836515E-18	1.186776E-18
3.610000E+03	7.708488E-18	1.167234E-18
3.620000E+03	7.586467E-18	1.148605E-18
3.630000E+03	7.470161E-18	1.130845E-18
3.640000E+03	7.359289E-18	1.113910E-18
3.650000E+03	7.253596E-18	1.097763E-18
3.660000E+03	7.152833E-18	1.082365E-18
3.670000E+03	7.056771E-18	1.067681E-18
3.680000E+03	6.965254E-18	1.053687E-18
3.690000E+03	6.878135E-18	1.040361E-18
3.700000E+03	6.795205E-18	1.027671E-18
3.710000E+03	6.716508E-18	1.015623E-18
3.720000E+03	6.641782E-18	1.004178E-18
3.730000E+03	6.571005E-18	9.933325E-19
3.740000E+03	6.504037E-18	9.830639E-19
3.750000E+03	6.440793E-18	9.733600E-19
3.760000E+03	6.381297E-18	9.642241E-19
3.770000E+03	6.325295E-18	9.556174E-19
3.780000E+03	6.272806E-18	9.475427E-19
3.790000E+03	6.223790E-18	9.399938E-19
3.800000E+03	6.178054E-18	9.329412E-19
3.810000E+03	6.135607E-18	9.263861E-19
3.820000E+03	6.096410E-18	9.203224E-19
3.830000E+03	6.060322E-18	9.147286E-19
3.840000E+03	6.027254E-18	9.095910E-19
3.850000E+03	5.997260E-18	9.049177E-19
3.860000E+03	5.970158E-18	9.006808E-19
3.870000E+03	5.945956E-18	8.968815E-19
3.880000E+03	5.924564E-18	8.935060E-19
3.890000E+03	5.905946E-18	8.905484E-19
3.900000E+03	5.890062E-18	8.880029E-19
3.910000E+03	5.876781E-18	8.858491E-19
3.920000E+03	5.866069E-18	8.840820E-19
3.930000E+03	5.857939E-18	8.827033E-19
3.940000E+03	5.852310E-18	8.817005E-19
3.950000E+03	5.849105E-18	8.810617E-19
3.960000E+03	5.848289E-18	8.807816E-19
3.970000E+03	5.849787E-18	8.808487E-19
3.980000E+03	5.853565E-18	8.812577E-19
3.990000E+03	5.859593E-18	8.820038E-19
4.000000E+03	5.867841E-18	8.830823E-19
4.010000E+03	5.878192E-18	8.844754E-19
4.020000E+03	5.890620E-18	8.861790E-19
4.030000E+03	5.905103E-18	8.881896E-19
4.040000E+03	5.921620E-18	8.905039E-19
4.050000E+03	5.940107E-18	8.931120E-19
4.060000E+03	5.960503E-18	8.960045E-19
4.070000E+03	5.982794E-18	8.991793E-19
4.080000E+03	6.006923E-18	9.026274E-19
4.090000E+03	6.032879E-18	9.063471E-19
4.100000E+03	6.060604E-18	9.103295E-19
4.110000E+03	6.090085E-18	9.145725E-19
4.120000E+03	6.121263E-18	9.190668E-19
4.130000E+03	6.154079E-18	9.238036E-19
4.140000E+03	6.188521E-18	9.287809E-19
4.150000E+03	6.224531E-18	9.339898E-19
4.160000E+03	6.262102E-18	9.394288E-19
4.170000E+03	6.301132E-18	9.450827E-19
4.180000E+03	6.341614E-18	9.509503E-19
4.190000E+03	6.383450E-18	9.570165E-19
4.200000E+03	6.426687E-18	9.632882E-19
4.210000E+03	6.471225E-18	9.697504E-19
4.220000E+03	6.517064E-18	9.764030E-19
4.230000E+03	6.564052E-18	9.832227E-19
4.240000E+03	6.612239E-18	9.902171E-19
4.250000E+03	6.661464E-18	9.973618E-19
4.260000E+03	6.711776E-18	1.004664E-18
4.270000E+03	6.763013E-18	1.012099E-18
4.280000E+03	6.815062E-18	1.019651E-18
4.290000E+03	6.867970E-18	1.027325E-18
4.300000E+03	6.921513E-18	1.035089E-18
4.310000E+03	6.975745E-18	1.042950E-18
4.320000E+03	7.030444E-18	1.050874E-18
4.330000E+03	7.085663E-18	1.058871E-18
4.340000E+03	7.141292E-18	1.066923E-18
4.350000E+03	7.197222E-18	1.075013E-18
4.360000E+03	7.253454E-18	1.083142E-18
4.370000E+03	7.309929E-18	1.091302E-18
4.380000E+03	7.366706E-18	1.099500E-18
4.390000E+03	7.423668E-18	1.107719E-18
4.400000E+03	7.480935E-18	1.115976E-18
4.410000E+03	7.538508E-18	1.124273E-18
4.420000E+03	7.596394E-18	1.132610E-18
4.430000E+03	7.654597E-18	1.140987E-18
4.440000E+03	7.713186E-18	1.149415E-18
4.450000E+03	7.772110E-18	1.157886E-18
4.460000E+03	7.831447E-18	1.166411E-18
4.470000E+03	7.891218E-18	1.174993E-18
4.480000E+03	7.951443E-18	1.183636E-18
4.490000E+03	8.012079E-18	1.192332E-18
4.500000E+03	8.073144E-18	1.201085E-18
4.510000E+03	8.134591E-18	1.209886E-18
4.520000E+03	8.196502E-18	1.218749E-18
4.530000E+03	8.258755E-18	1.227655E-18
4.540000E+03	8.321363E-18	1.236605E-18
4.550000E+03	8.384337E-18	1.245602E-18
4.560000E+03	8.447542E-18	1.254625E-18
4.570000E+03	8.511062E-18	1.263686E-18
4.580000E+03	8.574765E-18	1.272766E-18
4.590000E+03	8.638666E-18	1.281867E-18
4.600000E+03	8.702634E-18	1.290969E-18
4.610000E+03	8.766767E-18	1.300087E-18
4.620000E+03	8.831020E-18	1.309214E-18
4.630000E+03	8.895268E-18	1.318331E-18
4.640000E+03	8.959548E-18	1.327444E-18
4.650000E+03	9.023899E-18	1.336558E-18
4.660000E+03	9.088284E-18	1.345668E-18
4.670000E+03	9.152588E-18	1.354756E-18
4.680000E+03	9.217016E-18	1.363854E-18
4.690000E+03	9.281625E-18	1.372969E-18
4.700000E+03	9.346311E-18	1.382086E-18
4.710000E+03	9.411139E-18	1.391214E-18
4.720000E+03	9.476174E-18	1.400363E-18
4.730000E+03	9.541235E-18	1.409506E-18
4.740000E+03	9.606394E-18	1.418653E-18
4.750000E+03	9.671553E-18	1.427790E-18
4.760000E+03	9.736790E-18	1.436928E-18
4.770000E+03	9.802101E-18	1.446068E-18
4.780000E+03	9.867393E-18	1.455193E-18
4.790000E+03	9.932755E-18	1.464319E-18
4.800000E+03	9.998094E-18	1.473431E-18
4.810000E+03	1.006351E-17	1.482542E-18
4.820000E+03	1.012891E-17	1.491641E-18
4.830000E+03	1.019430E-17	1.500729E-18
4.840000E+03	1.025970E-17	1.509805E-18
4.850000E+03	1.032519E-17	1.518886E-18
4.860000E+03	1.039071E-17	1.527957E-18
4.870000E+03	1.045624E-17	1.537020E-18
4.880000E+03	1.052170E-17	1.546061E-18
4.890000E+03	1.058728E-17	1.555109E-18
4.900000E+03	1.065290E-17	1.564149E-18
4.910000E+03	1.071853E-17	1.573180E-18
4.920000E+03	1.078407E-17	1.582186E-18
4.930000E+03	1.084960E-17	1.591178E-18
4.940000E+03	1.091500E-17	1.600139E-18
4.950000E+03	1.098023E-17	1.609064E-18
4.960000E+03	1.104538E-17	1.617963E-18
4.970000E+03	1.111032E-17	1.626820E-18
4.980000E+03	1.117503E-17	1.635631E-18
4.990000E+03	1.123938E-17	1.644376E-18
5.000000E+03	1.130344E-17	1.653067E-18
5.010000E+03	1.136719E-17	1.661699E-18
5.020000E+03	1.143047E-17	1.670251E-18
5.030000E+03	1.149325E-17	1.678716E-18
5.040000E+03	1.155547E-17	1.687086E-18
5.050000E+03	1.161696E-17	1.695338E-18
5.060000E+03	1.167778E-17	1.703478E-18
5.070000E+03	1.173787E-17	1.711499E-18
5.080000E+03	1.179694E-17	1.719359E-18
5.090000E+03	1.185506E-17	1.727067E-18
5.100000E+03	1.191216E-17	1.734614E-18
5.110000E+03	1.196810E-17	1.741979E-18
5.120000E+03	1.202283E-17	1.749155E-18
5.130000E+03	1.207632E-17	1.756138E-18
5.140000E+03	1.212855E-17	1.762925E-18
5.150000E+03	1.217938E-17	1.769496E-18
5.160000E+03	1.222891E-17	1.775866E-18
5.170000E+03	1.227690E-17	1.781998E-18
5.180000E+03	1.232342E-17	1.787906E-18
5.190000E+03	1.236832E-17	1.793566E-18
5.200000E+03	1.241156E-17	1.798974E-18
5.210000E+03	1.245309E-17	1.804122E-18
5.220000E+03	1.249286E-17	1.809002E-18
5.230000E+03	1.253054E-17	1.813569E-18
5.240000E+03	1.256629E-17	1.817846E-18
5.250000E+03	1.259990E-17	1.821801E-18
5.260000E+03	1.263126E-17	1.825420E-18
5.270000E+03	1.266011E-17	1.828666E-18
5.280000E+03	1.268631E-17	1.831517E-18
5.290000E+03	1.270969E-17	1.833953E-18
5.300000E+03	1.273015E-17	1.835955E-18
5.310000E+03	1.274753E-17	1.837506E-18
5.320000E+03	1.276159E-17	1.838569E-18
5.330000E+03	1.277249E-17	1.839169E-18
5.340000E+03	1.277991E-17	1.839259E-18
5.350000E+03	1.278378E-17	1.838829E-18
5.360000E+03	1.278432E-17	1.837914E-18
5.370000E+03	1.278125E-17	1.836475E-18
5.380000E+03	1.277483E-17	1.834547E-18
5.390000E+03	1.276493E-17	1.832113E-18
5.400000E+03	1.275167E-17	1.829194E-18
5.410000E+03	1.273496E-17	1.825774E-18
5.420000E+03	1.271507E-17	1.821895E-18
5.430000E+03	1.269193E-17	1.817546E-18
5.440000E+03	1.266571E-17	1.812753E-18
5.450000E+03	1.263624E-17	1.807494E-18
5.460000E+03	1.260375E-17	1.801800E-18
5.470000E+03	1.256822E-17	1.795669E-18
5.480000E+03	1.252962E-17	1.789101E-18
5.490000E+03	1.248823E-17	1.782133E-18
5.500000E+03	1.244393E-17	1.774750E-18
5.510000E+03	1.239676E-17	1.766959E-18
5.520000E+03	1.234689E-17	1.758784E-18
5.530000E+03	1.229425E-17	1.750215E-18
5.540000E+03	1.223912E-17	1.741296E-18
5.550000E+03	1.218134E-17	1.732001E-18
5.560000E+03	1.212132E-17	1.722392E-18
5.570000E+03	1.205913E-17	1.712478E-18
5.580000E+03	1.199482E-17	1.702267E-18
5.590000E+03	1.192857E-17	1.691786E-18
5.600000E+03	1.186055E-17	1.681060E-18
5.610000E+03	1.179083E-17	1.670096E-18
5.620000E+03	1.171979E-17	1.658953E-18
5.630000E+03	1.164734E-17	1.647617E-18
5.640000E+03	1.157386E-17	1.636141E-18
5.650000E+03	1.149923E-17	1.624509E-18
5.660000E+03	1.142382E-17	1.612774E-18
5.670000E+03	1.134774E-17	1.600952E-18
5.680000E+03	1.127098E-17	1.589042E-18
5.690000E+03	1.119375E-17	1.577073E-18
5.700000E+03	1.111615E-17	1.565061E-18
5.710000E+03	1.103838E-17	1.553033E-18
5.720000E+03	1.096052E-17	1.541000E-18
5.730000E+03	1.088253E-17	1.528958E-18
5.740000E+03	1.080471E-17	1.516949E-18
5.750000E+03	1.072713E-17	1.504982E-18
5.760000E+03	1.064975E-17	1.493051E-18
5.770000E+03	1.057276E-17	1.481184E-18
5.780000E+03	1.049632E-17	1.469403E-18
5.790000E+03	1.042051E-17	1.457719E-18
5.800000E+03	1.034527E-17	1.446124E-18
5.810000E+03	1.027080E-17	1.434645E-18
5.820000E+03	1.019728E-17	1.423308E-18
5.830000E+03	1.012478E-17	1.412121E-18
5.840000E+03	1.005326E-17	1.401081E-18
5.850000E+03	9.982917E-18	1.390212E-18
5.860000E+03	9.913813E-18	1.379524E-18
5.870000E+03	9.846152E-18	1.369046E-18
5.880000E+03	9.780024E-18	1.358788E-18
5.890000E+03	9.715409E-18	1.348749E-18
5.900000E+03	9.652508E-18	1.338955E-18
5.910000E+03	9.591301E-18	1.329403E-18
5.920000E+03	9.532191E-18	1.320148E-18
5.930000E+03	9.474922E-18	1.311156E-18
5.940000E+03	9.419662E-18	1.302447E-18
5.950000E+03	9.366570E-18	1.294044E-18
5.960000E+03	9.315580E-18	1.285937E-18
5.970000E+03	9.266724E-18	1.278130E-18
5.980000E+03	9.220142E-18	1.270640E-18
5.990000E+03	9.175746E-18	1.263456E-18
6.000000E+03	9.133658E-18	1.256594E-18
6.010000E+03	9.093681E-18	1.250025E-18
6.020000E+03	9.056028E-18	1.243779E-18
6.030000E+03	9.020491E-18	1.237826E-18
6.040000E+03	8.987280E-18	1.232194E-18
6.050000E+03	8.956072E-18	1.226837E-18
6.060000E+03	8.927067E-18	1.221784E-18
6.070000E+03	8.900149E-18	1.217016E-18
6.080000E+03	8.875299E-18	1.212532E-18
6.090000E+03	8.852288E-18	1.208298E-18
6.100000E+03	8.831308E-18	1.204340E-18
6.110000E+03	8.812014E-18	1.200611E-18
6.120000E+03	8.794590E-18	1.197135E-18
6.130000E+03	8.778690E-18	1.193865E-18
6.140000E+03	8.764278E-18	1.190794E-18
6.150000E+03	8.751213E-18	1.187903E-18
6.160000E+03	8.739455E-18	1.185187E-18
6.170000E+03	8.728639E-18	1.182595E-18
6.180000E+03	8.718716E-18	1.180120E-18
6.190000E+03	8.709531E-18	1.177742E-18
6.200000E+03	8.701029E-18	1.175451E-18
6.210000E+03	8.693158E-18	1.173242E-18
6.220000E+03	8.686084E-18	1.171135E-18
6.230000E+03	8.680087E-18	1.169169E-18
6.240000E+03	8.675231E-18	1.167352E-18
6.250000E+03	8.671696E-18	1.165708E-18
6.260000E+03	8.669663E-18	1.164259E-18
6.270000E+03	8.669204E-18	1.163016E-18
6.280000E+03	8.670517E-18	1.162004E-18
6.290000E+03	8.673683E-18	1.161233E-18
6.300000E+03	8.678790E-18	1.160714E-18
6.310000E+03	8.686050E-18	1.160475E-18
6.320000E+03	8.695441E-18	1.160512E-18
6.330000E+03	8.707188E-18	1.160854E-18
6.340000E+03	8.721159E-18	1.161482E-18
6.350000E+03	8.737464E-18	1.162410E-18
6.360000E+03	8.756097E-18	1.163636E-18
6.370000E+03	8.777175E-18	1.165175E-18
6.380000E+03	8.800575E-18	1.167009E-18
6.390000E+03	8.826293E-18	1.169136E-18
6.400000E+03	8.854206E-18	1.171540E-18
6.410000E+03	8.884052E-18	1.174184E-18
6.420000E+03	8.915695E-18	1.177050E-18
6.430000E+03	8.949126E-18	1.180135E-18
6.440000E+03	8.984335E-18	1.183438E-18
6.450000E+03	9.021316E-18	1.186957E-18
6.460000E+03	9.060196E-18	1.190707E-18
6.470000E+03	9.101114E-18	1.194706E-18
6.480000E+03	9.144072E-18	1.198953E-18
6.490000E+03	9.188936E-18	1.203429E-18
6.500000E+03	9.235991E-18	1.208171E-18
6.510000E+03	9.285249E-18	1.213179E-18
6.520000E+03	9.336579E-18	1.218436E-18
6.530000E+03	9.390137E-18	1.223959E-18
6.540000E+03	9.445939E-18	1.229751E-18
6.550000E+03	9.503851E-18	1.235792E-18
6.560000E+03	9.563886E-18	1.242083E-18
6.570000E+03	9.626366E-18	1.248665E-18
6.580000E+03	9.690849E-18	1.255480E-18
6.590000E+03	9.757661E-18	1.262567E-18
6.600000E+03	9.826823E-18	1.269929E-18
6.610000E+03	9.898039E-18	1.277525E-18
6.620000E+03	9.971643E-18	1.285400E-18
6.630000E+03	1.004733E-17	1.293510E-18
6.640000E+03	1.012545E-17	1.301901E-18
6.650000E+03	1.020569E-17	1.310530E-18
6.660000E+03	1.028823E-17	1.319420E-18
6.670000E+03	1.037310E-17	1.328572E-18
6.680000E+03	1.046013E-17	1.337965E-18
6.690000E+03	1.054934E-17	1.347599E-18
6.700000E+03	1.064092E-17	1.357498E-18
6.710000E+03	1.073473E-17	1.367640E-18
6.720000E+03	1.083076E-17	1.378025E-18
6.730000E+03	1.092905E-17	1.388656E-18
6.740000E+03	1.102961E-17	1.399533E-18
6.750000E+03	1.113246E-17	1.410658E-18
6.760000E+03	1.123763E-17	1.422031E-18
6.770000E+03	1.134494E-17	1.433630E-18
6.780000E+03	1.145460E-17	1.445479E-18
6.790000E+03	1.156664E-17	1.457582E-18
6.800000E+03	1.168088E-17	1.469912E-18
6.810000E+03	1.179754E-17	1.482497E-18
6.820000E+03	1.191643E-17	1.495312E-18
6.830000E+03	1.203758E-17	1.508358E-18
6.840000E+03	1.216097E-17	1.521634E-18
6.850000E+03	1.228666E-17	1.535142E-18
6.860000E+03	1.241486E-17	1.548909E-18
6.870000E+03	1.254517E-17	1.562882E-18
6.880000E+03	1.267779E-17	1.577088E-18
6.890000E+03	1.281279E-17	1.591529E-18
6.900000E+03	1.294989E-17	1.606173E-18
6.910000E+03	1.308940E-17	1.621055E-18
6.920000E+03	1.323130E-17	1.636172E-18
6.930000E+03	1.337538E-17	1.651496E-18
6.940000E+03	1.352164E-17	1.667025E-18
6.950000E+03	1.367036E-17	1.682791E-18
6.960000E+03	1.382127E-17	1.698762E-18
6.970000E+03	1.397439E-17	1.714937E-18
6.980000E+03	1.412973E-17	1.731316E-18
6.990000E+03	1.428729E-17	1.747897E-18
7.000000E+03	1.444677E-17	1.764644E-18
7.010000E+03	1.460875E-17	1.781623E-18
7.020000E+03	1.477265E-17	1.798765E-18
7.030000E+03	1.493877E-17	1.816103E-18
7.040000E+03	1.510681E-17	1.833599E-18
7.050000E+03	1.527674E-17	1.851249E-18
7.060000E+03	1.544887E-17	1.869088E-18
7.070000E+03	1.562288E-17	1.887078E-18
7.080000E+03	1.579845E-17	1.905177E-18
7.090000E+03	1.597618E-17	1.923457E-18
7.100000E+03	1.615575E-17	1.941876E-18
7.110000E+03	1.633679E-17	1.960390E-18
7.120000E+03	1.651962E-17	1.979038E-18
7.130000E+03	1.670388E-17	1.997772E-18
7.140000E+03	1.688987E-17	2.016628E-18
7.150000E+03	1.707721E-17	2.035561E-18
7.160000E+03	1.726623E-17	2.054607E-18
7.170000E+03	1.745618E-17	2.073678E-18
7.180000E+03	1.764736E-17	2.092807E-18
7.190000E+03	1.784012E-17	2.112035E-18
7.200000E+03	1.803366E-17	2.131265E-18
7.210000E+03	1.822792E-17	2.150492E-18
7.220000E+03	1.842325E-17	2.169755E-18
7.230000E+03	1.861959E-17	2.189046E-18
7.240000E+03	1.881650E-17	2.208313E-18
7.250000E+03	1.901432E-17	2.227595E-18
7.260000E+03	1.921259E-17	2.246837E-18
7.270000E+03	1.941125E-17	2.266032E-18
7.280000E+03	1.961061E-17	2.285216E-18
7.290000E+03	1.981021E-17	2.304335E-18
7.300000E+03	2.001037E-17	2.323426E-18
7.310000E+03	2.021056E-17	2.342426E-18
7.320000E+03	2.041067E-17	2.361324E-18
7.330000E+03	2.061149E-17	2.380210E-18
7.340000E+03	2.081203E-17	2.398970E-18
7.350000E+03	2.101312E-17	2.417698E-18
7.360000E+03	2.121417E-17	2.436328E-18
7.370000E+03	2.141561E-17	2.454907E-18
7.380000E+03	2.161786E-17	2.473485E-18
7.390000E+03	2.182038E-17	2.491999E-18
7.400000E+03	2.202414E-17	2.510559E-18
7.410000E+03	2.222914E-17	2.529165E-18
7.420000E+03	2.243590E-17	2.547875E-18
7.430000E+03	2.264446E-17	2.566692E-18
7.440000E+03	2.285487E-17	2.585621E-18
7.450000E+03	2.306769E-17	2.604724E-18
7.460000E+03	2.328194E-17	2.623888E-18
7.470000E+03	2.349765E-17	2.643118E-18
7.480000E+03	2.371429E-17	2.662352E-18
7.490000E+03	2.393249E-17	2.681661E-18
7.500000E+03	2.415172E-17	2.700983E-18
7.510000E+03	2.437143E-17	2.720258E-18
7.520000E+03	2.459168E-17	2.739493E-18
7.530000E+03	2.481248E-17	2.758686E-18
7.540000E+03	2.503324E-17	2.777775E-18
7.550000E+03	2.525463E-17	2.796832E-18
7.560000E+03	2.547549E-17	2.815731E-18
7.570000E+03	2.569711E-17	2.834612E-18
7.580000E+03	2.591894E-17	2.853417E-18
7.590000E+03	2.614108E-17	2.872155E-18
7.600000E+03	2.636296E-17	2.890765E-18
7.610000E+03	2.658523E-17	2.909318E-18
7.620000E+03	2.680791E-17	2.927817E-18
7.630000E+03	2.703099E-17	2.946260E-18
7.640000E+03	2.725371E-17	2.964567E-18
7.650000E+03	2.747666E-17	2.982798E-18
7.660000E+03	2.769901E-17	3.000867E-18
7.670000E+03	2.792195E-17	3.018902E-18
7.680000E+03	2.814320E-17	3.036656E-18
7.690000E+03	2.836465E-17	3.054335E-18
7.700000E+03	2.858533E-17	3.071835E-18
7.710000E+03	2.880432E-17	3.089057E-18
7.720000E+03	2.902202E-17	3.106046E-18
7.730000E+03	2.923820E-17	3.122778E-18
7.740000E+03	2.945256E-17	3.139223E-18
7.750000E+03	2.966479E-17	3.155350E-18
7.760000E+03	2.987534E-17	3.171207E-18
