#wls	flux	fluxerr
1.600000E+03	1.100100E-16	2.842155E-17
1.640000E+03	1.138005E-16	2.935014E-17
1.680000E+03	1.174992E-16	3.025041E-17
1.720000E+03	1.210538E-16	3.110887E-17
1.760000E+03	1.244546E-16	3.192308E-17
1.800000E+03	1.276422E-16	3.267794E-17
1.840000E+03	1.305774E-16	3.336362E-17
1.880000E+03	1.332404E-16	3.397526E-17
1.920000E+03	1.355646E-16	3.449627E-17
1.960000E+03	1.375160E-16	3.491838E-17
2.000000E+03	1.390387E-16	3.522794E-17
2.040000E+03	1.400993E-16	3.541717E-17
2.080000E+03	1.406282E-16	3.546918E-17
2.120000E+03	1.405735E-16	3.537181E-17
2.160000E+03	1.398846E-16	3.511340E-17
2.200000E+03	1.384838E-16	3.467558E-17
2.240000E+03	1.363097E-16	3.404444E-17
2.280000E+03	1.333587E-16	3.322060E-17
2.320000E+03	1.296757E-16	3.221683E-17
2.360000E+03	1.253876E-16	3.106618E-17
2.400000E+03	1.205997E-16	2.979604E-17
2.440000E+03	1.154048E-16	2.843055E-17
2.480000E+03	1.099001E-16	2.699466E-17
2.520000E+03	1.041469E-16	2.550426E-17
2.560000E+03	9.821543E-17	2.397734E-17
2.600000E+03	9.216623E-17	2.242928E-17
2.640000E+03	8.606279E-17	2.087604E-17
2.680000E+03	7.995767E-17	1.933074E-17
2.720000E+03	7.390421E-17	1.780650E-17
2.760000E+03	6.795270E-17	1.631558E-17
2.800000E+03	6.215020E-17	1.486926E-17
2.840000E+03	5.654160E-17	1.347814E-17
2.880000E+03	5.117053E-17	1.215236E-17
2.920000E+03	4.607589E-17	1.090074E-17
2.960000E+03	4.129138E-17	9.730735E-18
3.000000E+03	3.684174E-17	8.647538E-18
3.010000E+03	3.578455E-17	8.390897E-18
3.020000E+03	3.474854E-17	8.139684E-18
3.030000E+03	3.373522E-17	7.894238E-18
3.040000E+03	3.274372E-17	7.654343E-18
3.050000E+03	3.177463E-17	7.420126E-18
3.060000E+03	3.082845E-17	7.191687E-18
3.070000E+03	2.990365E-17	6.968659E-18
3.080000E+03	2.900192E-17	6.751423E-18
3.090000E+03	2.812179E-17	6.539619E-18
3.100000E+03	2.726415E-17	6.333444E-18
3.110000E+03	2.642815E-17	6.132687E-18
3.120000E+03	2.561350E-17	5.937267E-18
3.130000E+03	2.482096E-17	5.747347E-18
3.140000E+03	2.404950E-17	5.562670E-18
3.150000E+03	2.330043E-17	5.383531E-18
3.160000E+03	2.257231E-17	5.209584E-18
3.170000E+03	2.186631E-17	5.041080E-18
3.180000E+03	2.118141E-17	4.877771E-18
3.190000E+03	2.051818E-17	4.719775E-18
3.200000E+03	1.987594E-17	4.566922E-18
3.210000E+03	1.925475E-17	4.419212E-18
3.220000E+03	1.865430E-17	4.276556E-18
3.230000E+03	1.807436E-17	4.138892E-18
3.240000E+03	1.751445E-17	4.006092E-18
3.250000E+03	1.697492E-17	3.878223E-18
3.260000E+03	1.645517E-17	3.755135E-18
3.270000E+03	1.595514E-17	3.636800E-18
3.280000E+03	1.547421E-17	3.523062E-18
3.290000E+03	1.501198E-17	3.413817E-18
3.300000E+03	1.456826E-17	3.309009E-18
3.310000E+03	1.414238E-17	3.208470E-18
3.320000E+03	1.373409E-17	3.112131E-18
3.330000E+03	1.334291E-17	3.019873E-18
3.340000E+03	1.296797E-17	2.931484E-18
3.350000E+03	1.260917E-17	2.846932E-18
3.360000E+03	1.226589E-17	2.766062E-18
3.370000E+03	1.193763E-17	2.688750E-18
3.380000E+03	1.162392E-17	2.614882E-18
3.390000E+03	1.132402E-17	2.544279E-18
3.400000E+03	1.103778E-17	2.476895E-18
3.410000E+03	1.076462E-17	2.412591E-18
3.420000E+03	1.050395E-17	2.351225E-18
3.430000E+03	1.025537E-17	2.292697E-18
3.440000E+03	1.001847E-17	2.236908E-18
3.450000E+03	9.792595E-18	2.183701E-18
3.460000E+03	9.577507E-18	2.133015E-18
3.470000E+03	9.372625E-18	2.084712E-18
3.480000E+03	9.177617E-18	2.038711E-18
3.490000E+03	8.992053E-18	1.994907E-18
3.500000E+03	8.815545E-18	1.953208E-18
3.510000E+03	8.647724E-18	1.913525E-18
3.520000E+03	8.488241E-18	1.875773E-18
3.530000E+03	8.336677E-18	1.839853E-18
3.540000E+03	8.192643E-18	1.805673E-18
3.550000E+03	8.055861E-18	1.773166E-18
3.560000E+03	7.925983E-18	1.742250E-18
3.570000E+03	7.802762E-18	1.712863E-18
3.580000E+03	7.685806E-18	1.684916E-18
3.590000E+03	7.574901E-18	1.658355E-18
3.600000E+03	7.469767E-18	1.633116E-18
3.610000E+03	7.370287E-18	1.609166E-18
3.620000E+03	7.276132E-18	1.586430E-18
3.630000E+03	7.187132E-18	1.564867E-18
3.640000E+03	7.102918E-18	1.544391E-18
3.650000E+03	7.023355E-18	1.524970E-18
3.660000E+03	6.948239E-18	1.506555E-18
3.670000E+03	6.877384E-18	1.489102E-18
3.680000E+03	6.810671E-18	1.472581E-18
3.690000E+03	6.747988E-18	1.456966E-18
3.700000E+03	6.689162E-18	1.442215E-18
3.710000E+03	6.634147E-18	1.428315E-18
3.720000E+03	6.582776E-18	1.415226E-18
3.730000E+03	6.535061E-18	1.402949E-18
3.740000E+03	6.490891E-18	1.391456E-18
3.750000E+03	6.450158E-18	1.380720E-18
3.760000E+03	6.412809E-18	1.370728E-18
3.770000E+03	6.378846E-18	1.361477E-18
3.780000E+03	6.348156E-18	1.352940E-18
3.790000E+03	6.320742E-18	1.345114E-18
3.800000E+03	6.296499E-18	1.337974E-18
3.810000E+03	6.275378E-18	1.331507E-18
3.820000E+03	6.257385E-18	1.325712E-18
3.830000E+03	6.242527E-18	1.320586E-18
3.840000E+03	6.230709E-18	1.316107E-18
3.850000E+03	6.221994E-18	1.312286E-18
3.860000E+03	6.216236E-18	1.309089E-18
3.870000E+03	6.213551E-18	1.306537E-18
3.880000E+03	6.213791E-18	1.304597E-18
3.890000E+03	6.217067E-18	1.303289E-18
3.900000E+03	6.223282E-18	1.302589E-18
3.910000E+03	6.232440E-18	1.302497E-18
3.920000E+03	6.244494E-18	1.302999E-18
3.930000E+03	6.259445E-18	1.304093E-18
3.940000E+03	6.277245E-18	1.305766E-18
3.950000E+03	6.297945E-18	1.308025E-18
3.960000E+03	6.321447E-18	1.310849E-18
3.970000E+03	6.347754E-18	1.314234E-18
3.980000E+03	6.376815E-18	1.318167E-18
3.990000E+03	6.408683E-18	1.322658E-18
4.000000E+03	6.443307E-18	1.327691E-18
4.010000E+03	6.480636E-18	1.333255E-18
4.020000E+03	6.520616E-18	1.339336E-18
4.030000E+03	6.563300E-18	1.345942E-18
4.040000E+03	6.608586E-18	1.353049E-18
4.050000E+03	6.656527E-18	1.360665E-18
4.060000E+03	6.707022E-18	1.368768E-18
4.070000E+03	6.760081E-18	1.377356E-18
4.080000E+03	6.815713E-18	1.386430E-18
4.090000E+03	6.873878E-18	1.395979E-18
4.100000E+03	6.934536E-18	1.405991E-18
4.110000E+03	6.997648E-18	1.416457E-18
4.120000E+03	7.063282E-18	1.427388E-18
4.130000E+03	7.131348E-18	1.438763E-18
4.140000E+03	7.201860E-18	1.450583E-18
4.150000E+03	7.274721E-18	1.462825E-18
4.160000E+03	7.349948E-18	1.475492E-18
4.170000E+03	7.427561E-18	1.488584E-18
4.180000E+03	7.507460E-18	1.502079E-18
4.190000E+03	7.589666E-18	1.515979E-18
4.200000E+03	7.674084E-18	1.530263E-18
4.210000E+03	7.760733E-18	1.544933E-18
4.220000E+03	7.849516E-18	1.559967E-18
4.230000E+03	7.940453E-18	1.575366E-18
4.240000E+03	8.033445E-18	1.591110E-18
4.250000E+03	8.128450E-18	1.607188E-18
4.260000E+03	8.225367E-18	1.623578E-18
4.270000E+03	8.324216E-18	1.640282E-18
4.280000E+03	8.424889E-18	1.657278E-18
4.290000E+03	8.527338E-18	1.674553E-18
4.300000E+03	8.631443E-18	1.692083E-18
4.310000E+03	8.737077E-18	1.709841E-18
4.320000E+03	8.844177E-18	1.727814E-18
4.330000E+03	8.952669E-18	1.745986E-18
4.340000E+03	9.062404E-18	1.764326E-18
4.350000E+03	9.173293E-18	1.782816E-18
4.360000E+03	9.285165E-18	1.801423E-18
4.370000E+03	9.397996E-18	1.820140E-18
4.380000E+03	9.511680E-18	1.838947E-18
4.390000E+03	9.626342E-18	1.857866E-18
4.400000E+03	9.741877E-18	1.876877E-18
4.410000E+03	9.858324E-18	1.895987E-18
4.420000E+03	9.975648E-18	1.915188E-18
4.430000E+03	1.009399E-17	1.934507E-18
4.440000E+03	1.021325E-17	1.953922E-18
4.450000E+03	1.033340E-17	1.973431E-18
4.460000E+03	1.045453E-17	1.993047E-18
4.470000E+03	1.057663E-17	2.012768E-18
4.480000E+03	1.069970E-17	2.032595E-18
4.490000E+03	1.082365E-17	2.052509E-18
4.500000E+03	1.094857E-17	2.072528E-18
4.510000E+03	1.107438E-17	2.092632E-18
4.520000E+03	1.120105E-17	2.112820E-18
4.530000E+03	1.132860E-17	2.133092E-18
4.540000E+03	1.145682E-17	2.153409E-18
4.550000E+03	1.158580E-17	2.173787E-18
4.560000E+03	1.171545E-17	2.194207E-18
4.570000E+03	1.184575E-17	2.214667E-18
4.580000E+03	1.197654E-17	2.235135E-18
4.590000E+03	1.210791E-17	2.255628E-18
4.600000E+03	1.223969E-17	2.276111E-18
4.610000E+03	1.237199E-17	2.296609E-18
4.620000E+03	1.250465E-17	2.317087E-18
4.630000E+03	1.263770E-17	2.337552E-18
4.640000E+03	1.277108E-17	2.357995E-18
4.650000E+03	1.290496E-17	2.378443E-18
4.660000E+03	1.303919E-17	2.398870E-18
4.670000E+03	1.317397E-17	2.419312E-18
4.680000E+03	1.330927E-17	2.439763E-18
4.690000E+03	1.344507E-17	2.460218E-18
4.700000E+03	1.358158E-17	2.480716E-18
4.710000E+03	1.371869E-17	2.501235E-18
4.720000E+03	1.385648E-17	2.521790E-18
4.730000E+03	1.399483E-17	2.542358E-18
4.740000E+03	1.413391E-17	2.562969E-18
4.750000E+03	1.427347E-17	2.583577E-18
4.760000E+03	1.441366E-17	2.604210E-18
4.770000E+03	1.455441E-17	2.624852E-18
4.780000E+03	1.469585E-17	2.645528E-18
4.790000E+03	1.483787E-17	2.666216E-18
4.800000E+03	1.498049E-17	2.686921E-18
4.810000E+03	1.512373E-17	2.707642E-18
4.820000E+03	1.526758E-17	2.728381E-18
4.830000E+03	1.541205E-17	2.749136E-18
4.840000E+03	1.555699E-17	2.769882E-18
4.850000E+03	1.570256E-17	2.790644E-18
4.860000E+03	1.584874E-17	2.811421E-18
4.870000E+03	1.599541E-17	2.832189E-18
4.880000E+03	1.614259E-17	2.852951E-18
4.890000E+03	1.629046E-17	2.873737E-18
4.900000E+03	1.643872E-17	2.894493E-18
4.910000E+03	1.658770E-17	2.915280E-18
4.920000E+03	1.673728E-17	2.936071E-18
4.930000E+03	1.688731E-17	2.956841E-18
4.940000E+03	1.703792E-17	2.977612E-18
4.950000E+03	1.718908E-17	2.998378E-18
4.960000E+03	1.734062E-17	3.019108E-18
4.970000E+03	1.749263E-17	3.039816E-18
4.980000E+03	1.764473E-17	3.060436E-18
4.990000E+03	1.779716E-17	3.081011E-18
5.000000E+03	1.794969E-17	3.101497E-18
5.010000E+03	1.810200E-17	3.121843E-18
5.020000E+03	1.825417E-17	3.142057E-18
5.030000E+03	1.840587E-17	3.162085E-18
5.040000E+03	1.855696E-17	3.181903E-18
5.050000E+03	1.870729E-17	3.201486E-18
5.060000E+03	1.885666E-17	3.220799E-18
5.070000E+03	1.900469E-17	3.239777E-18
5.080000E+03	1.915133E-17	3.258415E-18
5.090000E+03	1.929614E-17	3.276638E-18
5.100000E+03	1.943884E-17	3.294398E-18
5.110000E+03	1.957896E-17	3.311620E-18
5.120000E+03	1.971640E-17	3.328289E-18
5.130000E+03	1.985052E-17	3.344298E-18
5.140000E+03	1.998146E-17	3.359674E-18
5.150000E+03	2.010857E-17	3.374311E-18
5.160000E+03	2.023186E-17	3.388214E-18
5.170000E+03	2.035089E-17	3.401313E-18
5.180000E+03	2.046523E-17	3.413541E-18
5.190000E+03	2.057483E-17	3.424892E-18
5.200000E+03	2.067924E-17	3.435298E-18
5.210000E+03	2.077822E-17	3.444721E-18
5.220000E+03	2.087151E-17	3.453128E-18
5.230000E+03	2.095865E-17	3.460444E-18
5.240000E+03	2.103938E-17	3.466634E-18
5.250000E+03	2.111320E-17	3.471621E-18
5.260000E+03	2.118002E-17	3.475400E-18
5.270000E+03	2.123935E-17	3.477894E-18
5.280000E+03	2.129085E-17	3.479057E-18
5.290000E+03	2.133422E-17	3.478846E-18
5.300000E+03	2.136890E-17	3.477180E-18
5.310000E+03	2.139456E-17	3.474015E-18
5.320000E+03	2.141090E-17	3.469309E-18
5.330000E+03	2.141758E-17	3.463018E-18
5.340000E+03	2.141412E-17	3.455075E-18
5.350000E+03	2.140048E-17	3.445482E-18
5.360000E+03	2.137637E-17	3.434205E-18
5.370000E+03	2.134161E-17	3.421223E-18
5.380000E+03	2.129577E-17	3.406484E-18
5.390000E+03	2.123926E-17	3.390059E-18
5.400000E+03	2.117185E-17	3.371925E-18
5.410000E+03	2.109401E-17	3.352169E-18
5.420000E+03	2.100577E-17	3.330808E-18
5.430000E+03	2.090764E-17	3.307930E-18
5.440000E+03	2.079996E-17	3.283602E-18
5.450000E+03	2.068369E-17	3.257985E-18
5.460000E+03	2.055917E-17	3.231140E-18
5.470000E+03	2.042683E-17	3.203147E-18
5.480000E+03	2.028707E-17	3.174075E-18
5.490000E+03	2.014077E-17	3.144068E-18
5.500000E+03	1.998843E-17	3.113214E-18
5.510000E+03	1.983091E-17	3.081652E-18
5.520000E+03	1.966913E-17	3.049531E-18
5.530000E+03	1.950398E-17	3.016994E-18
5.540000E+03	1.933639E-17	2.984189E-18
5.550000E+03	1.916752E-17	2.951294E-18
5.560000E+03	1.899827E-17	2.918452E-18
5.570000E+03	1.883001E-17	2.885874E-18
5.580000E+03	1.866355E-17	2.853681E-18
5.590000E+03	1.850038E-17	2.822102E-18
5.600000E+03	1.834118E-17	2.791234E-18
5.610000E+03	1.818717E-17	2.761260E-18
5.620000E+03	1.803947E-17	2.732344E-18
5.630000E+03	1.789847E-17	2.704539E-18
5.640000E+03	1.776542E-17	2.678027E-18
5.650000E+03	1.764078E-17	2.652867E-18
5.660000E+03	1.752477E-17	2.629085E-18
5.670000E+03	1.741834E-17	2.606812E-18
5.680000E+03	1.732142E-17	2.586031E-18
5.690000E+03	1.723432E-17	2.566776E-18
5.700000E+03	1.715733E-17	2.549080E-18
5.710000E+03	1.709051E-17	2.532940E-18
5.720000E+03	1.703377E-17	2.518336E-18
5.730000E+03	1.698700E-17	2.505236E-18
5.740000E+03	1.695025E-17	2.493640E-18
5.750000E+03	1.692355E-17	2.483540E-18
5.760000E+03	1.690632E-17	2.474842E-18
5.770000E+03	1.689901E-17	2.467600E-18
5.780000E+03	1.690120E-17	2.461746E-18
5.790000E+03	1.691329E-17	2.457323E-18
5.800000E+03	1.693516E-17	2.454305E-18
5.810000E+03	1.696707E-17	2.452721E-18
5.820000E+03	1.700919E-17	2.452583E-18
5.830000E+03	1.706184E-17	2.453927E-18
5.840000E+03	1.712498E-17	2.456735E-18
5.850000E+03	1.719876E-17	2.461019E-18
5.860000E+03	1.728350E-17	2.466811E-18
5.870000E+03	1.737950E-17	2.474145E-18
5.880000E+03	1.748647E-17	2.482967E-18
5.890000E+03	1.760493E-17	2.493338E-18
5.900000E+03	1.773478E-17	2.505232E-18
5.910000E+03	1.787639E-17	2.518690E-18
5.920000E+03	1.802988E-17	2.533715E-18
5.930000E+03	1.819512E-17	2.550279E-18
5.940000E+03	1.837235E-17	2.568400E-18
5.950000E+03	1.856159E-17	2.588072E-18
5.960000E+03	1.876261E-17	2.609248E-18
5.970000E+03	1.897578E-17	2.631967E-18
5.980000E+03	1.920057E-17	2.656145E-18
5.990000E+03	1.943706E-17	2.681780E-18
6.000000E+03	1.968505E-17	2.708832E-18
6.010000E+03	1.994409E-17	2.737231E-18
6.020000E+03	2.021414E-17	2.766957E-18
6.030000E+03	2.049438E-17	2.797887E-18
6.040000E+03	2.078489E-17	2.830026E-18
6.050000E+03	2.108472E-17	2.863231E-18
6.060000E+03	2.139359E-17	2.897458E-18
6.070000E+03	2.171065E-17	2.932583E-18
6.080000E+03	2.203520E-17	2.968504E-18
6.090000E+03	2.236624E-17	3.005082E-18
6.100000E+03	2.270264E-17	3.042157E-18
6.110000E+03	2.304372E-17	3.079637E-18
6.120000E+03	2.338766E-17	3.117275E-18
6.130000E+03	2.373359E-17	3.154956E-18
6.140000E+03	2.407977E-17	3.192447E-18
6.150000E+03	2.442491E-17	3.229582E-18
6.160000E+03	2.476646E-17	3.266026E-18
6.170000E+03	2.510325E-17	3.301632E-18
6.180000E+03	2.543282E-17	3.336084E-18
6.190000E+03	2.575326E-17	3.369143E-18
6.200000E+03	2.606276E-17	3.400585E-18
6.210000E+03	2.636149E-17	3.430446E-18
6.220000E+03	2.665017E-17	3.458832E-18
6.230000E+03	2.692959E-17	3.485859E-18
6.240000E+03	2.720066E-17	3.511658E-18
6.250000E+03	2.746331E-17	3.536230E-18
6.260000E+03	2.771932E-17	3.559817E-18
6.270000E+03	2.796836E-17	3.582383E-18
6.280000E+03	2.821164E-17	3.604093E-18
6.290000E+03	2.844998E-17	3.625062E-18
6.300000E+03	2.868316E-17	3.645265E-18
6.310000E+03	2.891209E-17	3.664824E-18
6.320000E+03	2.913732E-17	3.683810E-18
6.330000E+03	2.935938E-17	3.702298E-18
6.340000E+03	2.957804E-17	3.720260E-18
6.350000E+03	2.979388E-17	3.737770E-18
6.360000E+03	3.000706E-17	3.754854E-18
6.370000E+03	3.021779E-17	3.771539E-18
6.380000E+03	3.042583E-17	3.787799E-18
6.390000E+03	3.063096E-17	3.803607E-18
6.400000E+03	3.083293E-17	3.818937E-18
6.410000E+03	3.103192E-17	3.833813E-18
6.420000E+03	3.122768E-17	3.848206E-18
6.430000E+03	3.141899E-17	3.861972E-18
6.440000E+03	3.160734E-17	3.875295E-18
6.450000E+03	3.179292E-17	3.888201E-18
6.460000E+03	3.197631E-17	3.900766E-18
6.470000E+03	3.215868E-17	3.913133E-18
6.480000E+03	3.233973E-17	3.925266E-18
6.490000E+03	3.252063E-17	3.937309E-18
6.500000E+03	3.270158E-17	3.949285E-18
6.510000E+03	3.288328E-17	3.961280E-18
6.520000E+03	3.306491E-17	3.973194E-18
6.530000E+03	3.324816E-17	3.985230E-18
6.540000E+03	3.343216E-17	3.997285E-18
6.550000E+03	3.361762E-17	4.009440E-18
6.560000E+03	3.380468E-17	4.021712E-18
6.570000E+03	3.399292E-17	4.034050E-18
6.580000E+03	3.418301E-17	4.046535E-18
6.590000E+03	3.437513E-17	4.059185E-18
6.600000E+03	3.456887E-17	4.071951E-18
6.610000E+03	3.476437E-17	4.084850E-18
6.620000E+03	3.496179E-17	4.097898E-18
6.630000E+03	3.516184E-17	4.111179E-18
6.640000E+03	3.536350E-17	4.124572E-18
6.650000E+03	3.556743E-17	4.138155E-18
6.660000E+03	3.577373E-17	4.151937E-18
6.670000E+03	3.598187E-17	4.165856E-18
6.680000E+03	3.619249E-17	4.179987E-18
6.690000E+03	3.640497E-17	4.194257E-18
6.700000E+03	3.661995E-17	4.208741E-18
6.710000E+03	3.683619E-17	4.223295E-18
6.720000E+03	3.705433E-17	4.237994E-18
6.730000E+03	3.727500E-17	4.252909E-18
6.740000E+03	3.749695E-17	4.267900E-18
6.750000E+03	3.772084E-17	4.283041E-18
6.760000E+03	3.794603E-17	4.298261E-18
6.770000E+03	3.817322E-17	4.313641E-18
6.780000E+03	3.840178E-17	4.329111E-18
6.790000E+03	3.863176E-17	4.344677E-18
6.800000E+03	3.886390E-17	4.360426E-18
6.810000E+03	3.909692E-17	4.376215E-18
6.820000E+03	3.933228E-17	4.392209E-18
6.830000E+03	3.956862E-17	4.408259E-18
6.840000E+03	3.980745E-17	4.424537E-18
6.850000E+03	4.004736E-17	4.440885E-18
6.860000E+03	4.028833E-17	4.457307E-18
6.870000E+03	4.053105E-17	4.473882E-18
6.880000E+03	4.077550E-17	4.490611E-18
6.890000E+03	4.102007E-17	4.507320E-18
6.900000E+03	4.126615E-17	4.524165E-18
6.910000E+03	4.151286E-17	4.541055E-18
6.920000E+03	4.176080E-17	4.558060E-18
6.930000E+03	4.200820E-17	4.574991E-18
6.940000E+03	4.225564E-17	4.591920E-18
6.950000E+03	4.250290E-17	4.608825E-18
6.960000E+03	4.274894E-17	4.625602E-18
6.970000E+03	4.299431E-17	4.642316E-18
6.980000E+03	4.323880E-17	4.658953E-18
6.990000E+03	4.348133E-17	4.675403E-18
7.000000E+03	4.372162E-17	4.691645E-18
7.010000E+03	4.395948E-17	4.707668E-18
7.020000E+03	4.419560E-17	4.723552E-18
7.030000E+03	4.442803E-17	4.739101E-18
7.040000E+03	4.465836E-17	4.754493E-18
7.050000E+03	4.488471E-17	4.769537E-18
7.060000E+03	4.510783E-17	4.784323E-18
7.070000E+03	4.532671E-17	4.798755E-18
7.080000E+03	4.554219E-17	4.812934E-18
7.090000E+03	4.575419E-17	4.826861E-18
7.100000E+03	4.596179E-17	4.840451E-18
7.110000E+03	4.616405E-17	4.853617E-18
7.120000E+03	4.636285E-17	4.866567E-18
7.130000E+03	4.655728E-17	4.879218E-18
7.140000E+03	4.674743E-17	4.891590E-18
7.150000E+03	4.693333E-17	4.903701E-18
7.160000E+03	4.711411E-17	4.915470E-18
7.170000E+03	4.729082E-17	4.927020E-18
7.180000E+03	4.746256E-17	4.938270E-18
7.190000E+03	4.762947E-17	4.949246E-18
7.200000E+03	4.779272E-17	4.960082E-18
7.210000E+03	4.795148E-17	4.970706E-18
7.220000E+03	4.810695E-17	4.981252E-18
7.230000E+03	4.825730E-17	4.991545E-18
7.240000E+03	4.840370E-17	5.001719E-18
7.250000E+03	4.854627E-17	5.011798E-18
7.260000E+03	4.868510E-17	5.021803E-18
7.270000E+03	4.882024E-17	5.031754E-18
7.280000E+03	4.895163E-17	5.041654E-18
7.290000E+03	4.907814E-17	5.051401E-18
7.300000E+03	4.920067E-17	5.061101E-18
7.310000E+03	4.931904E-17	5.070746E-18
7.320000E+03	4.943306E-17	5.080329E-18
7.330000E+03	4.954143E-17	5.089730E-18
7.340000E+03	4.964505E-17	5.099053E-18
7.350000E+03	4.974486E-17	5.108405E-18
7.360000E+03	4.983848E-17	5.117555E-18
7.370000E+03	4.992691E-17	5.126616E-18
7.380000E+03	5.000998E-17	5.135584E-18
7.390000E+03	5.008871E-17	5.144572E-18
7.400000E+03	5.016193E-17	5.153472E-18
7.410000E+03	5.023071E-17	5.162405E-18
7.420000E+03	5.029614E-17	5.171494E-18
7.430000E+03	5.035724E-17	5.180645E-18
7.440000E+03	5.041643E-17	5.190119E-18
7.450000E+03	5.047161E-17	5.199710E-18
7.460000E+03	5.052422E-17	5.209574E-18
7.470000E+03	5.057344E-17	5.219638E-18
7.480000E+03	5.062080E-17	5.230066E-18
7.490000E+03	5.066444E-17	5.240676E-18
7.500000E+03	5.070602E-17	5.251647E-18
7.510000E+03	5.074602E-17	5.263040E-18
7.520000E+03	5.078361E-17	5.274773E-18
7.530000E+03	5.082106E-17	5.287091E-18
7.540000E+03	5.085595E-17	5.299741E-18
7.550000E+03	5.088950E-17	5.312844E-18
7.560000E+03	5.092061E-17	5.326277E-18
7.570000E+03	5.095057E-17	5.340166E-18
7.580000E+03	5.097838E-17	5.354399E-18
7.590000E+03	5.100548E-17	5.369117E-18
7.600000E+03	5.103083E-17	5.384203E-18
7.610000E+03	5.105457E-17	5.399664E-18
7.620000E+03	5.107803E-17	5.415629E-18
7.630000E+03	5.110005E-17	5.431969E-18
7.640000E+03	5.112065E-17	5.448675E-18
7.650000E+03	5.114106E-17	5.465868E-18
7.660000E+03	5.115999E-17	5.483403E-18
7.670000E+03	5.117856E-17	5.501389E-18
7.680000E+03	5.119410E-17	5.519530E-18
7.690000E+03	5.120895E-17	5.538065E-18
7.700000E+03	5.122293E-17	5.556968E-18
7.710000E+03	5.123457E-17	5.576066E-18
7.720000E+03	5.124498E-17	5.595471E-18
7.730000E+03	5.125271E-17	5.615013E-18
7.740000E+03	5.125763E-17	5.634664E-18
7.750000E+03	5.126084E-17	5.654535E-18
7.760000E+03	5.126217E-17	5.674596E-18
