#wls	flux	fluxerr
1.600000E+03	2.968479E-16	8.945303E-17
1.640000E+03	3.066013E-16	9.239088E-17
1.680000E+03	3.159474E-16	9.520588E-17
1.720000E+03	3.247992E-16	9.787183E-17
1.760000E+03	3.330276E-16	1.003498E-16
1.800000E+03	3.405272E-16	1.026081E-16
1.840000E+03	3.471539E-16	1.046032E-16
1.880000E+03	3.528210E-16	1.063091E-16
1.920000E+03	3.574052E-16	1.076886E-16
1.960000E+03	3.607541E-16	1.086958E-16
2.000000E+03	3.627768E-16	1.093034E-16
2.040000E+03	3.633314E-16	1.094686E-16
2.080000E+03	3.622915E-16	1.091533E-16
2.120000E+03	3.596011E-16	1.083407E-16
2.160000E+03	3.551039E-16	1.069837E-16
2.200000E+03	3.486913E-16	1.050497E-16
2.240000E+03	3.402471E-16	1.025037E-16
2.280000E+03	3.295977E-16	9.929339E-17
2.320000E+03	3.170926E-16	9.552412E-17
2.360000E+03	3.030948E-16	9.130531E-17
2.400000E+03	2.878906E-16	8.672324E-17
2.440000E+03	2.717230E-16	8.185109E-17
2.480000E+03	2.548280E-16	7.676003E-17
2.520000E+03	2.374247E-16	7.151606E-17
2.560000E+03	2.197106E-16	6.617867E-17
2.600000E+03	2.018952E-16	6.081097E-17
2.640000E+03	1.841778E-16	5.547305E-17
2.680000E+03	1.667480E-16	5.022200E-17
2.720000E+03	1.497854E-16	4.511190E-17
2.760000E+03	1.334662E-16	4.019581E-17
2.800000E+03	1.179310E-16	3.551610E-17
2.840000E+03	1.033106E-16	3.111211E-17
2.880000E+03	8.972480E-17	2.701992E-17
2.920000E+03	7.726912E-17	2.326827E-17
2.960000E+03	6.601506E-17	1.987868E-17
3.000000E+03	5.599451E-17	1.686071E-17
3.010000E+03	5.368127E-17	1.616403E-17
3.020000E+03	5.144393E-17	1.549022E-17
3.030000E+03	4.928261E-17	1.483931E-17
3.040000E+03	4.719606E-17	1.421091E-17
3.050000E+03	4.518300E-17	1.360466E-17
3.060000E+03	4.324308E-17	1.302044E-17
3.070000E+03	4.137391E-17	1.245753E-17
3.080000E+03	3.957581E-17	1.191602E-17
3.090000E+03	3.784629E-17	1.139518E-17
3.100000E+03	3.618454E-17	1.089475E-17
3.110000E+03	3.458889E-17	1.041422E-17
3.120000E+03	3.305828E-17	9.953291E-18
3.130000E+03	3.159089E-17	9.511402E-18
3.140000E+03	3.018492E-17	9.088009E-18
3.150000E+03	2.883910E-17	8.682736E-18
3.160000E+03	2.755105E-17	8.294862E-18
3.170000E+03	2.631993E-17	7.924134E-18
3.180000E+03	2.514337E-17	7.569838E-18
3.190000E+03	2.401997E-17	7.231555E-18
3.200000E+03	2.294784E-17	6.908710E-18
3.210000E+03	2.192514E-17	6.600752E-18
3.220000E+03	2.095039E-17	6.307239E-18
3.230000E+03	2.002177E-17	6.027614E-18
3.240000E+03	1.913710E-17	5.761229E-18
3.250000E+03	1.829563E-17	5.507850E-18
3.260000E+03	1.749464E-17	5.266663E-18
3.270000E+03	1.673330E-17	5.037419E-18
3.280000E+03	1.600938E-17	4.819443E-18
3.290000E+03	1.532153E-17	4.612328E-18
3.300000E+03	1.466838E-17	4.415664E-18
3.310000E+03	1.404793E-17	4.228848E-18
3.320000E+03	1.345914E-17	4.051563E-18
3.330000E+03	1.290053E-17	3.883366E-18
3.340000E+03	1.237050E-17	3.723777E-18
3.350000E+03	1.186772E-17	3.572394E-18
3.360000E+03	1.139090E-17	3.428830E-18
3.370000E+03	1.093896E-17	3.292756E-18
3.380000E+03	1.051041E-17	3.163724E-18
3.390000E+03	1.010439E-17	3.041476E-18
3.400000E+03	9.719529E-18	2.925601E-18
3.410000E+03	9.354811E-18	2.815791E-18
3.420000E+03	9.009360E-18	2.711782E-18
3.430000E+03	8.681899E-18	2.613190E-18
3.440000E+03	8.371763E-18	2.519814E-18
3.450000E+03	8.077994E-18	2.431367E-18
3.460000E+03	7.799511E-18	2.347522E-18
3.470000E+03	7.535760E-18	2.268113E-18
3.480000E+03	7.285766E-18	2.192845E-18
3.490000E+03	7.048873E-18	2.121523E-18
3.500000E+03	6.824381E-18	2.053934E-18
3.510000E+03	6.611410E-18	1.989814E-18
3.520000E+03	6.409438E-18	1.929006E-18
3.530000E+03	6.217762E-18	1.871297E-18
3.540000E+03	6.035737E-18	1.816494E-18
3.550000E+03	5.862825E-18	1.764435E-18
3.560000E+03	5.698408E-18	1.714934E-18
3.570000E+03	5.541977E-18	1.667837E-18
3.580000E+03	5.393001E-18	1.622984E-18
3.590000E+03	5.251095E-18	1.580260E-18
3.600000E+03	5.115847E-18	1.539541E-18
3.610000E+03	4.986823E-18	1.500695E-18
3.620000E+03	4.863713E-18	1.463630E-18
3.630000E+03	4.746220E-18	1.428256E-18
3.640000E+03	4.633982E-18	1.394464E-18
3.650000E+03	4.526859E-18	1.362212E-18
3.660000E+03	4.424516E-18	1.331399E-18
3.670000E+03	4.326786E-18	1.301975E-18
3.680000E+03	4.233475E-18	1.273881E-18
3.690000E+03	4.144385E-18	1.247058E-18
3.700000E+03	4.059368E-18	1.221461E-18
3.710000E+03	3.978309E-18	1.197055E-18
3.720000E+03	3.900958E-18	1.173766E-18
3.730000E+03	3.827272E-18	1.151580E-18
3.740000E+03	3.757049E-18	1.130436E-18
3.750000E+03	3.690182E-18	1.110303E-18
3.760000E+03	3.626572E-18	1.091149E-18
3.770000E+03	3.566024E-18	1.072918E-18
3.780000E+03	3.508505E-18	1.055598E-18
3.790000E+03	3.453859E-18	1.039144E-18
3.800000E+03	3.401999E-18	1.023527E-18
3.810000E+03	3.352805E-18	1.008713E-18
3.820000E+03	3.306193E-18	9.946762E-19
3.830000E+03	3.262054E-18	9.813837E-19
3.840000E+03	3.220308E-18	9.688116E-19
3.850000E+03	3.180855E-18	9.569291E-19
3.860000E+03	3.143646E-18	9.457222E-19
3.870000E+03	3.108581E-18	9.351606E-19
3.880000E+03	3.075573E-18	9.252179E-19
3.890000E+03	3.044555E-18	9.158740E-19
3.900000E+03	3.015440E-18	9.071030E-19
3.910000E+03	2.988196E-18	8.988946E-19
3.920000E+03	2.962737E-18	8.912235E-19
3.930000E+03	2.939013E-18	8.840744E-19
3.940000E+03	2.916947E-18	8.774242E-19
3.950000E+03	2.896467E-18	8.712512E-19
3.960000E+03	2.877571E-18	8.655550E-19
3.970000E+03	2.860147E-18	8.603013E-19
3.980000E+03	2.844175E-18	8.554844E-19
3.990000E+03	2.829591E-18	8.510852E-19
4.000000E+03	2.816356E-18	8.470919E-19
4.010000E+03	2.804434E-18	8.434932E-19
4.020000E+03	2.793745E-18	8.402658E-19
4.030000E+03	2.784278E-18	8.374058E-19
4.040000E+03	2.775981E-18	8.348977E-19
4.050000E+03	2.768822E-18	8.327317E-19
4.060000E+03	2.762753E-18	8.308938E-19
4.070000E+03	2.757724E-18	8.293682E-19
4.080000E+03	2.753731E-18	8.281545E-19
4.090000E+03	2.750708E-18	8.272326E-19
4.100000E+03	2.748631E-18	8.265950E-19
4.110000E+03	2.747480E-18	8.262357E-19
4.120000E+03	2.747192E-18	8.261358E-19
4.130000E+03	2.747770E-18	8.262963E-19
4.140000E+03	2.749150E-18	8.266980E-19
4.150000E+03	2.751319E-18	8.273368E-19
4.160000E+03	2.754259E-18	8.282075E-19
4.170000E+03	2.757914E-18	8.292927E-19
4.180000E+03	2.762291E-18	8.305952E-19
4.190000E+03	2.767312E-18	8.320911E-19
4.200000E+03	2.773009E-18	8.337902E-19
4.210000E+03	2.779306E-18	8.356697E-19
4.220000E+03	2.786192E-18	8.377260E-19
4.230000E+03	2.793638E-18	8.399503E-19
4.240000E+03	2.801631E-18	8.423394E-19
4.250000E+03	2.810100E-18	8.448711E-19
4.260000E+03	2.819059E-18	8.475498E-19
4.270000E+03	2.828454E-18	8.503598E-19
4.280000E+03	2.838239E-18	8.532865E-19
4.290000E+03	2.848401E-18	8.563266E-19
4.300000E+03	2.858914E-18	8.594721E-19
4.310000E+03	2.869707E-18	8.627012E-19
4.320000E+03	2.880748E-18	8.660049E-19
4.330000E+03	2.892010E-18	8.693750E-19
4.340000E+03	2.903462E-18	8.728018E-19
4.350000E+03	2.915078E-18	8.762777E-19
4.360000E+03	2.926851E-18	8.798006E-19
4.370000E+03	2.938752E-18	8.833617E-19
4.380000E+03	2.950755E-18	8.869531E-19
4.390000E+03	2.962901E-18	8.905876E-19
4.400000E+03	2.975163E-18	8.942566E-19
4.410000E+03	2.987543E-18	8.979607E-19
4.420000E+03	3.000058E-18	9.017052E-19
4.430000E+03	3.012714E-18	9.054919E-19
4.440000E+03	3.025485E-18	9.093130E-19
4.450000E+03	3.038399E-18	9.131767E-19
4.460000E+03	3.051436E-18	9.170771E-19
4.470000E+03	3.064600E-18	9.210153E-19
4.480000E+03	3.077895E-18	9.249928E-19
4.490000E+03	3.091281E-18	9.289972E-19
4.500000E+03	3.104789E-18	9.330383E-19
4.510000E+03	3.118406E-18	9.371118E-19
4.520000E+03	3.132115E-18	9.412127E-19
4.530000E+03	3.145931E-18	9.453454E-19
4.540000E+03	3.159813E-18	9.494974E-19
4.550000E+03	3.173776E-18	9.536737E-19
4.560000E+03	3.187838E-18	9.578796E-19
4.570000E+03	3.201988E-18	9.621114E-19
4.580000E+03	3.216192E-18	9.663592E-19
4.590000E+03	3.230470E-18	9.706291E-19
4.600000E+03	3.244815E-18	9.749189E-19
4.610000E+03	3.259225E-18	9.792275E-19
4.620000E+03	3.273722E-18	9.835625E-19
4.630000E+03	3.288277E-18	9.879141E-19
4.640000E+03	3.302915E-18	9.922904E-19
4.650000E+03	3.317637E-18	9.966920E-19
4.660000E+03	3.332442E-18	1.001118E-18
4.670000E+03	3.347335E-18	1.005570E-18
4.680000E+03	3.362314E-18	1.010048E-18
4.690000E+03	3.377385E-18	1.014552E-18
4.700000E+03	3.392611E-18	1.019104E-18
4.710000E+03	3.407998E-18	1.023703E-18
4.720000E+03	3.423554E-18	1.028352E-18
4.730000E+03	3.439347E-18	1.033073E-18
4.740000E+03	3.455355E-18	1.037858E-18
4.750000E+03	3.471589E-18	1.042710E-18
4.760000E+03	3.488092E-18	1.047642E-18
4.770000E+03	3.504873E-18	1.052658E-18
4.780000E+03	3.521915E-18	1.057752E-18
4.790000E+03	3.539262E-18	1.062937E-18
4.800000E+03	3.556927E-18	1.068217E-18
4.810000E+03	3.574893E-18	1.073587E-18
4.820000E+03	3.593207E-18	1.079061E-18
4.830000E+03	3.611881E-18	1.084643E-18
4.840000E+03	3.630937E-18	1.090339E-18
4.850000E+03	3.650387E-18	1.096153E-18
4.860000E+03	3.670215E-18	1.102080E-18
4.870000E+03	3.690505E-18	1.108146E-18
4.880000E+03	3.711207E-18	1.114334E-18
4.890000E+03	3.732341E-18	1.120652E-18
4.900000E+03	3.753954E-18	1.127113E-18
4.910000E+03	3.776068E-18	1.133724E-18
4.920000E+03	3.798700E-18	1.140490E-18
4.930000E+03	3.821798E-18	1.147396E-18
4.940000E+03	3.845451E-18	1.154468E-18
4.950000E+03	3.869643E-18	1.161701E-18
4.960000E+03	3.894389E-18	1.169099E-18
4.970000E+03	3.919706E-18	1.176669E-18
4.980000E+03	3.945617E-18	1.184416E-18
4.990000E+03	3.972095E-18	1.192333E-18
5.000000E+03	3.999161E-18	1.200426E-18
5.010000E+03	4.026868E-18	1.208710E-18
5.020000E+03	4.055194E-18	1.217180E-18
5.030000E+03	4.084115E-18	1.225828E-18
5.040000E+03	4.113724E-18	1.234681E-18
5.050000E+03	4.143915E-18	1.243709E-18
5.060000E+03	4.174783E-18	1.252939E-18
5.070000E+03	4.206340E-18	1.262375E-18
5.080000E+03	4.238477E-18	1.271984E-18
5.090000E+03	4.271326E-18	1.281807E-18
5.100000E+03	4.304815E-18	1.291820E-18
5.110000E+03	4.338955E-18	1.302028E-18
5.120000E+03	4.373795E-18	1.312446E-18
5.130000E+03	4.409259E-18	1.323050E-18
5.140000E+03	4.445351E-18	1.333841E-18
5.150000E+03	4.482124E-18	1.344836E-18
5.160000E+03	4.519535E-18	1.356022E-18
5.170000E+03	4.557586E-18	1.367398E-18
5.180000E+03	4.596239E-18	1.378955E-18
5.190000E+03	4.635536E-18	1.390704E-18
5.200000E+03	4.675387E-18	1.402617E-18
5.210000E+03	4.715878E-18	1.414722E-18
5.220000E+03	4.756962E-18	1.427004E-18
5.230000E+03	4.798587E-18	1.439447E-18
5.240000E+03	4.840745E-18	1.452049E-18
5.250000E+03	4.883474E-18	1.464822E-18
5.260000E+03	4.926666E-18	1.477732E-18
5.270000E+03	4.970357E-18	1.490791E-18
5.280000E+03	5.014579E-18	1.504008E-18
5.290000E+03	5.059171E-18	1.517335E-18
5.300000E+03	5.104261E-18	1.530810E-18
5.310000E+03	5.149677E-18	1.544381E-18
5.320000E+03	5.195547E-18	1.558088E-18
5.330000E+03	5.241692E-18	1.571876E-18
5.340000E+03	5.288185E-18	1.585767E-18
5.350000E+03	5.334998E-18	1.599753E-18
5.360000E+03	5.382047E-18	1.613809E-18
5.370000E+03	5.429400E-18	1.627954E-18
5.380000E+03	5.476862E-18	1.642131E-18
5.390000E+03	5.524555E-18	1.656376E-18
5.400000E+03	5.572383E-18	1.670660E-18
5.410000E+03	5.620302E-18	1.684971E-18
5.420000E+03	5.668267E-18	1.699293E-18
5.430000E+03	5.716229E-18	1.713614E-18
5.440000E+03	5.764078E-18	1.727899E-18
5.450000E+03	5.811758E-18	1.742132E-18
5.460000E+03	5.859213E-18	1.756297E-18
5.470000E+03	5.906381E-18	1.770374E-18
5.480000E+03	5.953140E-18	1.784328E-18
5.490000E+03	5.999363E-18	1.798119E-18
5.500000E+03	6.045041E-18	1.811745E-18
5.510000E+03	6.090039E-18	1.825167E-18
5.520000E+03	6.134224E-18	1.838344E-18
5.530000E+03	6.177454E-18	1.851233E-18
5.540000E+03	6.219711E-18	1.863829E-18
5.550000E+03	6.260790E-18	1.876071E-18
5.560000E+03	6.300668E-18	1.887952E-18
5.570000E+03	6.339134E-18	1.899409E-18
5.580000E+03	6.376102E-18	1.910415E-18
5.590000E+03	6.411550E-18	1.920965E-18
5.600000E+03	6.445264E-18	1.930994E-18
5.610000E+03	6.477225E-18	1.940497E-18
5.620000E+03	6.507351E-18	1.949449E-18
5.630000E+03	6.535494E-18	1.957806E-18
5.640000E+03	6.561577E-18	1.965545E-18
5.650000E+03	6.585590E-18	1.972663E-18
5.660000E+03	6.607467E-18	1.979140E-18
5.670000E+03	6.627068E-18	1.984934E-18
5.680000E+03	6.644405E-18	1.990050E-18
5.690000E+03	6.659485E-18	1.994489E-18
5.700000E+03	6.672126E-18	1.998196E-18
5.710000E+03	6.682347E-18	2.001178E-18
5.720000E+03	6.690182E-18	2.003445E-18
5.730000E+03	6.695599E-18	2.004987E-18
5.740000E+03	6.698576E-18	2.005798E-18
5.750000E+03	6.699093E-18	2.005872E-18
5.760000E+03	6.697140E-18	2.005206E-18
5.770000E+03	6.692787E-18	2.003821E-18
5.780000E+03	6.685966E-18	2.001697E-18
5.790000E+03	6.676835E-18	1.998881E-18
5.800000E+03	6.665340E-18	1.995357E-18
5.810000E+03	6.651510E-18	1.991134E-18
5.820000E+03	6.635523E-18	1.986265E-18
5.830000E+03	6.617275E-18	1.980720E-18
5.840000E+03	6.596889E-18	1.974535E-18
5.850000E+03	6.574489E-18	1.967747E-18
5.860000E+03	6.550068E-18	1.960353E-18
5.870000E+03	6.523758E-18	1.952396E-18
5.880000E+03	6.495565E-18	1.943874E-18
5.890000E+03	6.465705E-18	1.934855E-18
5.900000E+03	6.434191E-18	1.925340E-18
5.910000E+03	6.401104E-18	1.915355E-18
5.920000E+03	6.366606E-18	1.904949E-18
5.930000E+03	6.330717E-18	1.894127E-18
5.940000E+03	6.293597E-18	1.882937E-18
5.950000E+03	6.255273E-18	1.871388E-18
5.960000E+03	6.215909E-18	1.859528E-18
5.970000E+03	6.175603E-18	1.847387E-18
5.980000E+03	6.134451E-18	1.834993E-18
5.990000E+03	6.092475E-18	1.822354E-18
6.000000E+03	6.049843E-18	1.809519E-18
6.010000E+03	6.006645E-18	1.796516E-18
6.020000E+03	5.962907E-18	1.783352E-18
6.030000E+03	5.918786E-18	1.770074E-18
6.040000E+03	5.874300E-18	1.756689E-18
6.050000E+03	5.829466E-18	1.743199E-18
6.060000E+03	5.784504E-18	1.729673E-18
6.070000E+03	5.739358E-18	1.716092E-18
6.080000E+03	5.694170E-18	1.702500E-18
6.090000E+03	5.648879E-18	1.688877E-18
6.100000E+03	5.603624E-18	1.675267E-18
6.110000E+03	5.558405E-18	1.661668E-18
6.120000E+03	5.513285E-18	1.648099E-18
6.130000E+03	5.468325E-18	1.634580E-18
6.140000E+03	5.423517E-18	1.621106E-18
6.150000E+03	5.378911E-18	1.607694E-18
6.160000E+03	5.334562E-18	1.594360E-18
6.170000E+03	5.290517E-18	1.581118E-18
6.180000E+03	5.246816E-18	1.567979E-18
6.190000E+03	5.203439E-18	1.554938E-18
6.200000E+03	5.160485E-18	1.542025E-18
6.210000E+03	5.117990E-18	1.529249E-18
6.220000E+03	5.075985E-18	1.516621E-18
6.230000E+03	5.034563E-18	1.504168E-18
6.240000E+03	4.993815E-18	1.491918E-18
6.250000E+03	4.953825E-18	1.479894E-18
6.260000E+03	4.914681E-18	1.468125E-18
6.270000E+03	4.876460E-18	1.456631E-18
6.280000E+03	4.839310E-18	1.445459E-18
6.290000E+03	4.803173E-18	1.434590E-18
6.300000E+03	4.768321E-18	1.424105E-18
6.310000E+03	4.734694E-18	1.413987E-18
6.320000E+03	4.702428E-18	1.404277E-18
6.330000E+03	4.671593E-18	1.394994E-18
6.340000E+03	4.642256E-18	1.386160E-18
6.350000E+03	4.614421E-18	1.377774E-18
6.360000E+03	4.588154E-18	1.369857E-18
6.370000E+03	4.563521E-18	1.362429E-18
6.380000E+03	4.540526E-18	1.355489E-18
6.390000E+03	4.519167E-18	1.349039E-18
6.400000E+03	4.499514E-18	1.343099E-18
6.410000E+03	4.481434E-18	1.337628E-18
6.420000E+03	4.464929E-18	1.332628E-18
6.430000E+03	4.449933E-18	1.328078E-18
6.440000E+03	4.436317E-18	1.323940E-18
6.450000E+03	4.424145E-18	1.320233E-18
6.460000E+03	4.413286E-18	1.316919E-18
6.470000E+03	4.403805E-18	1.314015E-18
6.480000E+03	4.395702E-18	1.311523E-18
6.490000E+03	4.388911E-18	1.309422E-18
6.500000E+03	4.383430E-18	1.307712E-18
6.510000E+03	4.379263E-18	1.306393E-18
6.520000E+03	4.376405E-18	1.305465E-18
6.530000E+03	4.374859E-18	1.304928E-18
6.540000E+03	4.374695E-18	1.304803E-18
6.550000E+03	4.375845E-18	1.305070E-18
6.560000E+03	4.378239E-18	1.305708E-18
6.570000E+03	4.382020E-18	1.306758E-18
6.580000E+03	4.387050E-18	1.308181E-18
6.590000E+03	4.393400E-18	1.309996E-18
6.600000E+03	4.401071E-18	1.312205E-18
6.610000E+03	4.410069E-18	1.314809E-18
6.620000E+03	4.420395E-18	1.317809E-18
6.630000E+03	4.431982E-18	1.321184E-18
6.640000E+03	4.444904E-18	1.324955E-18
6.650000E+03	4.459093E-18	1.329104E-18
6.660000E+03	4.474628E-18	1.333653E-18
6.670000E+03	4.491439E-18	1.338582E-18
6.680000E+03	4.509526E-18	1.343890E-18
6.690000E+03	4.528976E-18	1.349603E-18
6.700000E+03	4.549791E-18	1.355722E-18
6.710000E+03	4.571827E-18	1.362203E-18
6.720000E+03	4.595241E-18	1.369094E-18
6.730000E+03	4.619884E-18	1.376350E-18
6.740000E+03	4.645918E-18	1.384020E-18
6.750000E+03	4.673276E-18	1.392082E-18
6.760000E+03	4.701879E-18	1.400514E-18
6.770000E+03	4.731900E-18	1.409367E-18
6.780000E+03	4.763181E-18	1.418593E-18
6.790000E+03	4.795811E-18	1.428220E-18
6.800000E+03	4.829800E-18	1.438250E-18
6.810000E+03	4.865156E-18	1.448685E-18
6.820000E+03	4.901798E-18	1.459502E-18
6.830000E+03	4.939825E-18	1.470730E-18
6.840000E+03	4.979154E-18	1.482343E-18
6.850000E+03	5.019882E-18	1.494371E-18
6.860000E+03	5.061929E-18	1.506789E-18
6.870000E+03	5.105300E-18	1.519600E-18
6.880000E+03	5.150095E-18	1.532833E-18
6.890000E+03	5.196136E-18	1.546434E-18
6.900000E+03	5.243617E-18	1.560462E-18
6.910000E+03	5.292452E-18	1.574891E-18
6.920000E+03	5.342650E-18	1.589723E-18
6.930000E+03	5.394214E-18	1.604958E-18
6.940000E+03	5.447153E-18	1.620601E-18
6.950000E+03	5.501370E-18	1.636622E-18
6.960000E+03	5.556973E-18	1.653052E-18
6.970000E+03	5.613967E-18	1.669894E-18
6.980000E+03	5.672361E-18	1.687149E-18
6.990000E+03	5.731941E-18	1.704754E-18
7.000000E+03	5.793040E-18	1.722809E-18
7.010000E+03	5.855327E-18	1.741214E-18
7.020000E+03	5.919030E-18	1.760037E-18
7.030000E+03	5.984038E-18	1.779245E-18
7.040000E+03	6.050352E-18	1.798839E-18
7.050000E+03	6.117973E-18	1.818818E-18
7.060000E+03	6.186903E-18	1.839184E-18
7.070000E+03	6.257014E-18	1.859897E-18
7.080000E+03	6.328428E-18	1.880994E-18
7.090000E+03	6.401144E-18	1.902475E-18
7.100000E+03	6.475031E-18	1.924301E-18
7.110000E+03	6.550216E-18	1.946508E-18
7.120000E+03	6.626559E-18	1.969057E-18
7.130000E+03	6.704053E-18	1.991944E-18
7.140000E+03	6.782687E-18	2.015167E-18
7.150000E+03	6.862596E-18	2.038764E-18
7.160000E+03	6.943486E-18	2.062649E-18
7.170000E+03	7.025340E-18	2.086817E-18
7.180000E+03	7.108435E-18	2.111350E-18
7.190000E+03	7.192466E-18	2.136157E-18
7.200000E+03	7.277409E-18	2.161231E-18
7.210000E+03	7.363398E-18	2.186612E-18
7.220000E+03	7.450261E-18	2.212248E-18
7.230000E+03	7.537976E-18	2.238133E-18
7.240000E+03	7.626514E-18	2.264259E-18
7.250000E+03	7.715850E-18	2.290617E-18
7.260000E+03	7.806127E-18	2.317251E-18
7.270000E+03	7.896981E-18	2.344052E-18
7.280000E+03	7.988719E-18	2.371111E-18
7.290000E+03	8.081147E-18	2.398370E-18
7.300000E+03	8.174227E-18	2.425819E-18
7.310000E+03	8.268112E-18	2.453503E-18
7.320000E+03	8.362587E-18	2.481357E-18
7.330000E+03	8.457807E-18	2.509428E-18
7.340000E+03	8.553741E-18	2.537706E-18
7.350000E+03	8.650554E-18	2.566241E-18
7.360000E+03	8.748226E-18	2.595026E-18
7.370000E+03	8.846933E-18	2.624114E-18
7.380000E+03	8.946459E-18	2.653440E-18
7.390000E+03	9.047399E-18	2.683181E-18
7.400000E+03	9.149755E-18	2.713337E-18
7.410000E+03	9.253321E-18	2.743848E-18
7.420000E+03	9.358741E-18	2.774903E-18
7.430000E+03	9.465816E-18	2.806444E-18
7.440000E+03	9.574783E-18	2.838541E-18
7.450000E+03	9.685439E-18	2.871135E-18
7.460000E+03	9.798029E-18	2.904296E-18
7.470000E+03	9.911871E-18	2.937823E-18
7.480000E+03	1.002743E-17	2.971855E-18
7.490000E+03	1.014400E-17	3.006181E-18
7.500000E+03	1.026180E-17	3.040866E-18
7.510000E+03	1.038058E-17	3.075834E-18
7.520000E+03	1.050005E-17	3.111002E-18
7.530000E+03	1.062043E-17	3.146436E-18
7.540000E+03	1.074092E-17	3.181897E-18
7.550000E+03	1.086199E-17	3.217524E-18
7.560000E+03	1.098332E-17	3.253224E-18
7.570000E+03	1.110487E-17	3.288981E-18
7.580000E+03	1.122630E-17	3.324699E-18
7.590000E+03	1.134782E-17	3.360439E-18
7.600000E+03	1.146910E-17	3.396100E-18
7.610000E+03	1.159005E-17	3.431660E-18
7.620000E+03	1.171090E-17	3.467185E-18
7.630000E+03	1.183128E-17	3.502566E-18
7.640000E+03	1.195143E-17	3.537872E-18
7.650000E+03	1.207065E-17	3.572900E-18
7.660000E+03	1.218949E-17	3.607807E-18
7.670000E+03	1.230754E-17	3.642479E-18
7.680000E+03	1.242505E-17	3.676984E-18
7.690000E+03	1.254163E-17	3.711208E-18
7.700000E+03	1.265717E-17	3.745123E-18
7.710000E+03	1.277161E-17	3.778703E-18
7.720000E+03	1.288550E-17	3.812120E-18
7.730000E+03	1.299778E-17	3.845054E-18
7.740000E+03	1.310938E-17	3.877780E-18
7.750000E+03	1.321952E-17	3.910071E-18
7.760000E+03	1.332846E-17	3.942006E-18
