#wls	flux	fluxerr
1.600000E+03	1.850221E-16	2.701021E-17
1.640000E+03	1.913811E-16	2.793793E-17
1.680000E+03	1.975581E-16	2.883903E-17
1.720000E+03	2.034876E-16	2.970395E-17
1.760000E+03	2.091184E-16	3.052522E-17
1.800000E+03	2.143733E-16	3.129155E-17
1.840000E+03	2.191901E-16	3.199389E-17
1.880000E+03	2.235020E-16	3.262248E-17
1.920000E+03	2.272185E-16	3.316411E-17
1.960000E+03	2.302675E-16	3.360826E-17
2.000000E+03	2.325759E-16	3.394429E-17
2.040000E+03	2.340721E-16	3.416173E-17
2.080000E+03	2.346703E-16	3.424808E-17
2.120000E+03	2.343103E-16	3.419456E-17
2.160000E+03	2.329089E-16	3.398905E-17
2.200000E+03	2.304011E-16	3.362207E-17
2.240000E+03	2.266867E-16	3.307900E-17
2.280000E+03	2.217042E-16	3.235092E-17
2.320000E+03	2.155696E-16	3.145474E-17
2.360000E+03	2.084472E-16	3.041445E-17
2.400000E+03	2.004667E-16	2.924901E-17
2.440000E+03	1.917326E-16	2.797369E-17
2.480000E+03	1.823428E-16	2.660276E-17
2.520000E+03	1.724080E-16	2.515239E-17
2.560000E+03	1.620267E-16	2.363697E-17
2.600000E+03	1.513185E-16	2.207396E-17
2.640000E+03	1.403923E-16	2.047926E-17
2.680000E+03	1.293530E-16	1.886816E-17
2.720000E+03	1.183218E-16	1.725836E-17
2.760000E+03	1.074085E-16	1.566586E-17
2.800000E+03	9.672200E-17	1.410658E-17
2.840000E+03	8.636584E-17	1.259559E-17
2.880000E+03	7.644103E-17	1.114763E-17
2.920000E+03	6.705152E-17	9.777860E-18
2.960000E+03	5.829771E-17	8.500907E-18
3.000000E+03	5.025318E-17	7.327489E-18
3.010000E+03	4.835826E-17	7.051097E-18
3.020000E+03	4.651270E-17	6.781909E-18
3.030000E+03	4.471425E-17	6.519597E-18
3.040000E+03	4.296400E-17	6.264318E-18
3.050000E+03	4.126374E-17	6.016333E-18
3.060000E+03	3.961137E-17	5.775337E-18
3.070000E+03	3.800850E-17	5.541565E-18
3.080000E+03	3.645480E-17	5.314967E-18
3.090000E+03	3.494994E-17	5.095495E-18
3.100000E+03	3.349360E-17	4.883103E-18
3.110000E+03	3.208673E-17	4.677927E-18
3.120000E+03	3.072812E-17	4.479794E-18
3.130000E+03	2.941788E-17	4.288717E-18
3.140000E+03	2.815534E-17	4.104598E-18
3.150000E+03	2.693982E-17	3.927340E-18
3.160000E+03	2.577113E-17	3.756912E-18
3.170000E+03	2.464882E-17	3.593250E-18
3.180000E+03	2.357108E-17	3.436091E-18
3.190000E+03	2.253824E-17	3.285481E-18
3.200000E+03	2.154879E-17	3.141199E-18
3.210000E+03	2.060199E-17	3.003139E-18
3.220000E+03	1.969664E-17	2.871124E-18
3.230000E+03	1.883120E-17	2.744931E-18
3.240000E+03	1.800540E-17	2.624519E-18
3.250000E+03	1.721701E-17	2.509563E-18
3.260000E+03	1.646564E-17	2.400007E-18
3.270000E+03	1.574992E-17	2.295649E-18
3.280000E+03	1.506805E-17	2.196228E-18
3.290000E+03	1.441941E-17	2.101654E-18
3.300000E+03	1.380225E-17	2.011671E-18
3.310000E+03	1.321549E-17	1.926121E-18
3.320000E+03	1.265786E-17	1.844819E-18
3.330000E+03	1.212830E-17	1.767610E-18
3.340000E+03	1.162538E-17	1.694286E-18
3.350000E+03	1.114792E-17	1.624674E-18
3.360000E+03	1.069476E-17	1.558607E-18
3.370000E+03	1.026493E-17	1.495942E-18
3.380000E+03	9.857207E-18	1.436499E-18
3.390000E+03	9.470536E-18	1.380126E-18
3.400000E+03	9.103919E-18	1.326678E-18
3.410000E+03	8.756285E-18	1.275997E-18
3.420000E+03	8.426722E-18	1.227952E-18
3.430000E+03	8.114363E-18	1.182414E-18
3.440000E+03	7.818276E-18	1.139250E-18
3.450000E+03	7.537681E-18	1.098344E-18
3.460000E+03	7.271739E-18	1.059574E-18
3.470000E+03	7.019665E-18	1.022826E-18
3.480000E+03	6.780721E-18	9.879929E-19
3.490000E+03	6.554140E-18	9.549618E-19
3.500000E+03	6.339348E-18	9.236497E-19
3.510000E+03	6.135661E-18	8.939563E-19
3.520000E+03	5.942383E-18	8.657806E-19
3.530000E+03	5.758810E-18	8.390196E-19
3.540000E+03	5.584471E-18	8.136049E-19
3.550000E+03	5.418757E-18	7.894475E-19
3.560000E+03	5.260999E-18	7.664502E-19
3.570000E+03	5.110747E-18	7.445469E-19
3.580000E+03	4.967527E-18	7.236688E-19
3.590000E+03	4.830859E-18	7.037460E-19
3.600000E+03	4.700255E-18	6.847070E-19
3.610000E+03	4.575439E-18	6.665118E-19
3.620000E+03	4.456061E-18	6.491096E-19
3.630000E+03	4.341798E-18	6.324528E-19
3.640000E+03	4.232534E-18	6.165250E-19
3.650000E+03	4.128035E-18	6.012915E-19
3.660000E+03	4.028108E-18	5.867248E-19
3.670000E+03	3.932600E-18	5.728021E-19
3.680000E+03	3.841358E-18	5.595012E-19
3.690000E+03	3.754194E-18	5.467946E-19
3.700000E+03	3.671018E-18	5.346694E-19
3.710000E+03	3.591616E-18	5.230943E-19
3.720000E+03	3.515868E-18	5.120518E-19
3.730000E+03	3.443687E-18	5.015291E-19
3.740000E+03	3.374839E-18	4.914922E-19
3.750000E+03	3.309295E-18	4.819368E-19
3.760000E+03	3.246834E-18	4.728306E-19
3.770000E+03	3.187400E-18	4.641657E-19
3.780000E+03	3.130861E-18	4.559227E-19
3.790000E+03	3.077093E-18	4.480833E-19
3.800000E+03	3.025994E-18	4.406329E-19
3.810000E+03	2.977447E-18	4.335544E-19
3.820000E+03	2.931361E-18	4.268345E-19
3.830000E+03	2.887651E-18	4.204608E-19
3.840000E+03	2.846209E-18	4.144175E-19
3.850000E+03	2.806959E-18	4.086936E-19
3.860000E+03	2.769823E-18	4.032777E-19
3.870000E+03	2.734709E-18	3.981563E-19
3.880000E+03	2.701548E-18	3.933195E-19
3.890000E+03	2.670275E-18	3.887578E-19
3.900000E+03	2.640808E-18	3.844589E-19
3.910000E+03	2.613088E-18	3.804147E-19
3.920000E+03	2.587037E-18	3.766135E-19
3.930000E+03	2.562622E-18	3.730507E-19
3.940000E+03	2.539772E-18	3.697156E-19
3.950000E+03	2.518436E-18	3.666013E-19
3.960000E+03	2.498531E-18	3.636952E-19
3.970000E+03	2.480049E-18	3.609963E-19
3.980000E+03	2.462907E-18	3.584926E-19
3.990000E+03	2.447065E-18	3.561781E-19
4.000000E+03	2.432463E-18	3.540443E-19
4.010000E+03	2.419085E-18	3.520885E-19
4.020000E+03	2.406854E-18	3.502998E-19
4.030000E+03	2.395755E-18	3.486759E-19
4.040000E+03	2.385718E-18	3.472065E-19
4.050000E+03	2.376731E-18	3.458900E-19
4.060000E+03	2.368728E-18	3.447167E-19
4.070000E+03	2.361677E-18	3.436819E-19
4.080000E+03	2.355555E-18	3.427823E-19
4.090000E+03	2.350333E-18	3.420138E-19
4.100000E+03	2.345953E-18	3.413676E-19
4.110000E+03	2.342391E-18	3.408405E-19
4.120000E+03	2.339610E-18	3.404269E-19
4.130000E+03	2.337584E-18	3.401234E-19
4.140000E+03	2.336300E-18	3.399276E-19
4.150000E+03	2.335701E-18	3.398315E-19
4.160000E+03	2.335788E-18	3.398351E-19
4.170000E+03	2.336512E-18	3.399313E-19
4.180000E+03	2.337857E-18	3.401178E-19
4.190000E+03	2.339811E-18	3.403928E-19
4.200000E+03	2.342323E-18	3.407490E-19
4.210000E+03	2.345385E-18	3.411851E-19
4.220000E+03	2.348968E-18	3.416969E-19
4.230000E+03	2.353079E-18	3.422855E-19
4.240000E+03	2.357659E-18	3.429420E-19
4.250000E+03	2.362715E-18	3.436678E-19
4.260000E+03	2.368206E-18	3.444568E-19
4.270000E+03	2.374143E-18	3.453106E-19
4.280000E+03	2.380468E-18	3.462206E-19
4.290000E+03	2.387173E-18	3.471858E-19
4.300000E+03	2.394257E-18	3.482060E-19
4.310000E+03	2.401659E-18	3.492723E-19
4.320000E+03	2.409394E-18	3.503870E-19
4.330000E+03	2.417383E-18	3.515383E-19
4.340000E+03	2.425642E-18	3.527289E-19
4.350000E+03	2.434073E-18	3.539443E-19
4.360000E+03	2.442671E-18	3.551840E-19
4.370000E+03	2.451493E-18	3.564559E-19
4.380000E+03	2.460532E-18	3.577595E-19
4.390000E+03	2.469811E-18	3.590975E-19
4.400000E+03	2.479328E-18	3.604703E-19
4.410000E+03	2.489043E-18	3.618715E-19
4.420000E+03	2.498998E-18	3.633075E-19
4.430000E+03	2.509154E-18	3.647725E-19
4.440000E+03	2.519512E-18	3.662669E-19
4.450000E+03	2.530059E-18	3.677884E-19
4.460000E+03	2.540795E-18	3.693373E-19
4.470000E+03	2.551685E-18	3.709084E-19
4.480000E+03	2.562757E-18	3.725058E-19
4.490000E+03	2.573974E-18	3.741242E-19
4.500000E+03	2.585326E-18	3.757619E-19
4.510000E+03	2.596843E-18	3.774234E-19
4.520000E+03	2.608472E-18	3.791010E-19
4.530000E+03	2.620226E-18	3.807966E-19
4.540000E+03	2.632119E-18	3.825122E-19
4.550000E+03	2.644124E-18	3.842440E-19
4.560000E+03	2.656258E-18	3.859942E-19
4.570000E+03	2.668496E-18	3.877593E-19
4.580000E+03	2.680858E-18	3.895423E-19
4.590000E+03	2.693344E-18	3.913431E-19
4.600000E+03	2.705953E-18	3.931615E-19
4.610000E+03	2.718665E-18	3.949947E-19
4.620000E+03	2.731527E-18	3.968496E-19
4.630000E+03	2.744495E-18	3.987196E-19
4.640000E+03	2.757595E-18	4.006085E-19
4.650000E+03	2.770830E-18	4.025168E-19
4.660000E+03	2.784181E-18	4.044418E-19
4.670000E+03	2.797699E-18	4.063908E-19
4.680000E+03	2.811339E-18	4.083573E-19
4.690000E+03	2.825131E-18	4.103456E-19
4.700000E+03	2.839129E-18	4.123636E-19
4.710000E+03	2.853313E-18	4.144084E-19
4.720000E+03	2.867716E-18	4.164847E-19
4.730000E+03	2.882367E-18	4.185968E-19
4.740000E+03	2.897276E-18	4.207461E-19
4.750000E+03	2.912450E-18	4.229337E-19
4.760000E+03	2.927948E-18	4.251679E-19
4.770000E+03	2.943727E-18	4.274429E-19
4.780000E+03	2.959850E-18	4.297674E-19
4.790000E+03	2.976327E-18	4.321431E-19
4.800000E+03	2.993140E-18	4.345672E-19
4.810000E+03	3.010354E-18	4.370493E-19
4.820000E+03	3.027956E-18	4.395874E-19
4.830000E+03	3.045955E-18	4.421829E-19
4.840000E+03	3.064367E-18	4.448378E-19
4.850000E+03	3.083202E-18	4.475541E-19
4.860000E+03	3.102533E-18	4.503418E-19
4.870000E+03	3.122289E-18	4.531910E-19
4.880000E+03	3.142541E-18	4.561118E-19
4.890000E+03	3.163275E-18	4.591023E-19
4.900000E+03	3.184538E-18	4.621692E-19
4.910000E+03	3.206316E-18	4.653103E-19
4.920000E+03	3.228624E-18	4.685280E-19
4.930000E+03	3.251507E-18	4.718289E-19
4.940000E+03	3.274924E-18	4.752067E-19
4.950000E+03	3.298918E-18	4.786678E-19
4.960000E+03	3.323504E-18	4.822146E-19
4.970000E+03	3.348699E-18	4.858492E-19
4.980000E+03	3.374485E-18	4.895690E-19
4.990000E+03	3.400876E-18	4.933762E-19
5.000000E+03	3.427917E-18	4.972772E-19
5.010000E+03	3.455556E-18	5.012645E-19
5.020000E+03	3.483871E-18	5.053494E-19
5.030000E+03	3.512808E-18	5.095240E-19
5.040000E+03	3.542376E-18	5.137896E-19
5.050000E+03	3.572618E-18	5.181525E-19
5.060000E+03	3.603511E-18	5.226092E-19
5.070000E+03	3.635062E-18	5.271608E-19
5.080000E+03	3.667245E-18	5.318035E-19
5.090000E+03	3.700101E-18	5.365431E-19
5.100000E+03	3.733635E-18	5.413805E-19
5.110000E+03	3.767784E-18	5.463065E-19
5.120000E+03	3.802586E-18	5.513266E-19
5.130000E+03	3.838048E-18	5.564416E-19
5.140000E+03	3.874173E-18	5.616522E-19
5.150000E+03	3.910927E-18	5.669534E-19
5.160000E+03	3.948316E-18	5.723457E-19
5.170000E+03	3.986303E-18	5.778243E-19
5.180000E+03	4.024969E-18	5.834005E-19
5.190000E+03	4.064240E-18	5.890635E-19
5.200000E+03	4.104116E-18	5.948137E-19
5.210000E+03	4.144601E-18	6.006514E-19
5.220000E+03	4.185738E-18	6.065828E-19
5.230000E+03	4.227446E-18	6.125960E-19
5.240000E+03	4.269724E-18	6.186911E-19
5.250000E+03	4.312655E-18	6.248802E-19
5.260000E+03	4.356112E-18	6.311445E-19
5.270000E+03	4.400174E-18	6.374957E-19
5.280000E+03	4.444796E-18	6.439271E-19
5.290000E+03	4.489969E-18	6.504374E-19
5.300000E+03	4.535731E-18	6.570323E-19
5.310000E+03	4.581982E-18	6.636970E-19
5.320000E+03	4.628753E-18	6.704363E-19
5.330000E+03	4.676032E-18	6.772480E-19
5.340000E+03	4.723798E-18	6.841295E-19
5.350000E+03	4.772081E-18	6.910848E-19
5.360000E+03	4.820763E-18	6.980971E-19
5.370000E+03	4.869867E-18	7.051694E-19
5.380000E+03	4.919361E-18	7.122970E-19
5.390000E+03	4.969162E-18	7.194684E-19
5.400000E+03	5.019333E-18	7.266921E-19
5.410000E+03	5.069785E-18	7.339555E-19
5.420000E+03	5.120421E-18	7.412444E-19
5.430000E+03	5.171191E-18	7.485518E-19
5.440000E+03	5.222095E-18	7.558775E-19
5.450000E+03	5.272970E-18	7.631978E-19
5.460000E+03	5.323804E-18	7.705112E-19
5.470000E+03	5.374533E-18	7.778082E-19
5.480000E+03	5.424976E-18	7.850628E-19
5.490000E+03	5.475056E-18	7.922638E-19
5.500000E+03	5.524748E-18	7.994076E-19
5.510000E+03	5.573909E-18	8.064733E-19
5.520000E+03	5.622392E-18	8.134399E-19
5.530000E+03	5.670045E-18	8.202852E-19
5.540000E+03	5.716878E-18	8.270110E-19
5.550000E+03	5.762617E-18	8.335773E-19
5.560000E+03	5.807210E-18	8.399768E-19
5.570000E+03	5.850484E-18	8.461844E-19
5.580000E+03	5.892324E-18	8.521837E-19
5.590000E+03	5.932613E-18	8.579576E-19
5.600000E+03	5.971172E-18	8.634803E-19
5.610000E+03	6.007942E-18	8.687435E-19
5.620000E+03	6.042745E-18	8.737211E-19
5.630000E+03	6.075402E-18	8.783876E-19
5.640000E+03	6.105923E-18	8.827444E-19
5.650000E+03	6.134139E-18	8.867671E-19
5.660000E+03	6.159881E-18	8.904313E-19
5.670000E+03	6.183115E-18	8.937322E-19
5.680000E+03	6.203817E-18	8.966666E-19
5.690000E+03	6.221776E-18	8.992037E-19
5.700000E+03	6.236984E-18	9.013427E-19
5.710000E+03	6.249445E-18	9.030840E-19
5.720000E+03	6.259040E-18	9.044106E-19
5.730000E+03	6.265790E-18	9.053258E-19
5.740000E+03	6.269600E-18	9.058157E-19
5.750000E+03	6.270510E-18	9.058863E-19
5.760000E+03	6.268511E-18	9.055362E-19
5.770000E+03	6.263665E-18	9.047746E-19
5.780000E+03	6.255845E-18	9.035833E-19
5.790000E+03	6.245272E-18	9.019942E-19
5.800000E+03	6.231837E-18	8.999916E-19
5.810000E+03	6.215643E-18	8.975906E-19
5.820000E+03	6.196736E-18	8.947980E-19
5.830000E+03	6.175175E-18	8.916219E-19
5.840000E+03	6.151089E-18	8.880816E-19
5.850000E+03	6.124554E-18	8.841879E-19
5.860000E+03	6.095654E-18	8.799530E-19
5.870000E+03	6.064414E-18	8.753806E-19
5.880000E+03	6.031068E-18	8.705045E-19
5.890000E+03	5.995656E-18	8.653307E-19
5.900000E+03	5.958359E-18	8.598852E-19
5.910000E+03	5.919228E-18	8.541755E-19
5.920000E+03	5.878449E-18	8.482287E-19
5.930000E+03	5.836149E-18	8.420628E-19
5.940000E+03	5.792453E-18	8.356960E-19
5.950000E+03	5.747484E-18	8.291464E-19
5.960000E+03	5.701367E-18	8.224318E-19
5.970000E+03	5.654292E-18	8.155798E-19
5.980000E+03	5.606247E-18	8.085884E-19
5.990000E+03	5.557481E-18	8.014940E-19
6.000000E+03	5.508043E-18	7.943032E-19
6.010000E+03	5.458043E-18	7.870324E-19
6.020000E+03	5.407650E-18	7.797057E-19
6.030000E+03	5.356839E-18	7.723195E-19
6.040000E+03	5.305836E-18	7.649064E-19
6.050000E+03	5.254606E-18	7.574616E-19
6.060000E+03	5.203300E-18	7.500066E-19
6.070000E+03	5.152004E-18	7.425540E-19
6.080000E+03	5.100732E-18	7.351058E-19
6.090000E+03	5.049563E-18	7.276732E-19
6.100000E+03	4.998565E-18	7.202662E-19
6.110000E+03	4.947805E-18	7.128944E-19
6.120000E+03	4.897345E-18	7.055668E-19
6.130000E+03	4.847244E-18	6.982917E-19
6.140000E+03	4.797553E-18	6.910767E-19
6.150000E+03	4.748323E-18	6.839290E-19
6.160000E+03	4.699659E-18	6.768636E-19
6.170000E+03	4.651661E-18	6.698952E-19
6.180000E+03	4.604427E-18	6.630375E-19
6.190000E+03	4.557987E-18	6.562952E-19
6.200000E+03	4.512371E-18	6.496723E-19
6.210000E+03	4.467547E-18	6.431643E-19
6.220000E+03	4.423538E-18	6.367744E-19
6.230000E+03	4.380363E-18	6.305055E-19
6.240000E+03	4.337987E-18	6.243523E-19
6.250000E+03	4.296480E-18	6.183250E-19
6.260000E+03	4.255972E-18	6.124423E-19
6.270000E+03	4.216416E-18	6.066974E-19
6.280000E+03	4.177877E-18	6.010995E-19
6.290000E+03	4.140478E-18	5.956663E-19
6.300000E+03	4.104163E-18	5.903898E-19
6.310000E+03	4.069106E-18	5.852949E-19
6.320000E+03	4.035365E-18	5.803901E-19
6.330000E+03	4.002880E-18	5.756664E-19
6.340000E+03	3.971822E-18	5.711485E-19
6.350000E+03	3.942242E-18	5.668438E-19
6.360000E+03	3.914138E-18	5.627518E-19
6.370000E+03	3.887560E-18	5.588798E-19
6.380000E+03	3.862674E-18	5.552514E-19
6.390000E+03	3.839421E-18	5.518581E-19
6.400000E+03	3.817850E-18	5.487071E-19
6.410000E+03	3.798073E-18	5.458142E-19
6.420000E+03	3.779916E-18	5.431544E-19
6.430000E+03	3.763266E-18	5.407114E-19
6.440000E+03	3.748061E-18	5.384762E-19
6.450000E+03	3.734244E-18	5.364406E-19
6.460000E+03	3.721699E-18	5.345880E-19
6.470000E+03	3.710426E-18	5.329181E-19
6.480000E+03	3.700365E-18	5.314224E-19
6.490000E+03	3.691514E-18	5.301005E-19
6.500000E+03	3.683814E-18	5.289438E-19
6.510000E+03	3.677264E-18	5.279524E-19
6.520000E+03	3.671862E-18	5.271257E-19
6.530000E+03	3.667548E-18	5.264552E-19
6.540000E+03	3.664380E-18	5.259491E-19
6.550000E+03	3.662357E-18	5.256071E-19
6.560000E+03	3.661418E-18	5.254206E-19
6.570000E+03	3.661621E-18	5.253978E-19
6.580000E+03	3.662909E-18	5.255303E-19
6.590000E+03	3.665279E-18	5.258179E-19
6.600000E+03	3.668791E-18	5.262691E-19
6.610000E+03	3.673326E-18	5.268667E-19
6.620000E+03	3.679066E-18	5.276367E-19
6.630000E+03	3.685827E-18	5.285528E-19
6.640000E+03	3.693733E-18	5.296328E-19
6.650000E+03	3.702725E-18	5.308679E-19
6.660000E+03	3.712804E-18	5.322584E-19
6.670000E+03	3.724032E-18	5.338132E-19
6.680000E+03	3.736352E-18	5.355240E-19
6.690000E+03	3.749765E-18	5.373908E-19
6.700000E+03	3.764271E-18	5.394136E-19
6.710000E+03	3.779941E-18	5.416025E-19
6.720000E+03	3.796646E-18	5.439391E-19
6.730000E+03	3.814521E-18	5.464426E-19
6.740000E+03	3.833504E-18	5.491040E-19
6.750000E+03	3.853597E-18	5.519238E-19
6.760000E+03	3.874807E-18	5.549026E-19
6.770000E+03	3.897136E-18	5.580407E-19
6.780000E+03	3.920657E-18	5.613488E-19
6.790000E+03	3.945239E-18	5.648077E-19
6.800000E+03	3.970954E-18	5.684279E-19
6.810000E+03	3.997807E-18	5.722099E-19
6.820000E+03	4.025802E-18	5.761544E-19
6.830000E+03	4.054945E-18	5.802622E-19
6.840000E+03	4.085243E-18	5.845340E-19
6.850000E+03	4.116698E-18	5.889702E-19
6.860000E+03	4.149243E-18	5.935610E-19
6.870000E+03	4.182953E-18	5.983174E-19
6.880000E+03	4.217837E-18	6.032404E-19
6.890000E+03	4.253820E-18	6.083193E-19
6.900000E+03	4.290984E-18	6.135656E-19
6.910000E+03	4.329334E-18	6.189802E-19
6.920000E+03	4.368794E-18	6.245520E-19
6.930000E+03	4.409365E-18	6.302812E-19
6.940000E+03	4.451133E-18	6.361799E-19
6.950000E+03	4.494019E-18	6.422368E-19
6.960000E+03	4.538025E-18	6.484520E-19
6.970000E+03	4.583237E-18	6.548381E-19
6.980000E+03	4.629572E-18	6.613830E-19
6.990000E+03	4.677035E-18	6.680871E-19
7.000000E+03	4.725532E-18	6.749372E-19
7.010000E+03	4.775248E-18	6.819596E-19
7.020000E+03	4.826094E-18	6.891415E-19
7.030000E+03	4.878071E-18	6.964831E-19
7.040000E+03	4.931083E-18	7.039705E-19
7.050000E+03	4.985226E-18	7.116173E-19
7.060000E+03	5.040401E-18	7.194093E-19
7.070000E+03	5.096807E-18	7.273752E-19
7.080000E+03	5.154142E-18	7.354713E-19
7.090000E+03	5.212605E-18	7.437264E-19
7.100000E+03	5.272091E-18	7.521253E-19
7.110000E+03	5.332704E-18	7.606826E-19
7.120000E+03	5.394226E-18	7.693673E-19
7.130000E+03	5.456869E-18	7.782097E-19
7.140000E+03	5.520407E-18	7.871773E-19
7.150000E+03	5.584944E-18	7.962849E-19
7.160000E+03	5.650474E-18	8.055318E-19
7.170000E+03	5.716993E-18	8.149172E-19
7.180000E+03	5.784373E-18	8.244229E-19
7.190000E+03	5.852602E-18	8.340470E-19
7.200000E+03	5.921790E-18	8.438052E-19
7.210000E+03	5.991804E-18	8.536785E-19
7.220000E+03	6.062760E-18	8.636834E-19
7.230000E+03	6.134385E-18	8.737810E-19
7.240000E+03	6.206925E-18	8.840062E-19
7.250000E+03	6.280236E-18	8.943385E-19
7.260000E+03	6.354299E-18	9.047751E-19
7.270000E+03	6.429096E-18	9.153136E-19
7.280000E+03	6.504611E-18	9.259513E-19
7.290000E+03	6.580822E-18	9.366852E-19
7.300000E+03	6.657856E-18	9.475336E-19
7.310000E+03	6.735399E-18	9.584515E-19
7.320000E+03	6.813877E-18	9.694996E-19
7.330000E+03	6.893127E-18	9.806544E-19
7.340000E+03	6.972972E-18	9.918910E-19
7.350000E+03	7.053866E-18	1.003274E-18
7.360000E+03	7.135480E-18	1.014756E-18
7.370000E+03	7.218287E-18	1.026405E-18
7.380000E+03	7.302124E-18	1.038197E-18
7.390000E+03	7.387152E-18	1.050155E-18
7.400000E+03	7.473548E-18	1.062305E-18
7.410000E+03	7.561320E-18	1.074647E-18
7.420000E+03	7.650837E-18	1.087234E-18
7.430000E+03	7.742309E-18	1.100095E-18
7.440000E+03	7.835586E-18	1.113209E-18
7.450000E+03	7.930699E-18	1.126581E-18
7.460000E+03	8.027674E-18	1.140213E-18
7.470000E+03	8.126350E-18	1.154084E-18
7.480000E+03	8.226550E-18	1.168167E-18
7.490000E+03	8.328082E-18	1.182436E-18
7.500000E+03	8.430952E-18	1.196891E-18
7.510000E+03	8.534952E-18	1.211503E-18
7.520000E+03	8.639865E-18	1.226240E-18
7.530000E+03	8.745885E-18	1.241131E-18
7.540000E+03	8.852570E-18	1.256113E-18
7.550000E+03	8.959887E-18	1.271180E-18
7.560000E+03	9.067808E-18	1.286329E-18
7.570000E+03	9.176299E-18	1.301554E-18
7.580000E+03	9.285324E-18	1.316852E-18
7.590000E+03	9.394616E-18	1.332184E-18
7.600000E+03	9.504125E-18	1.347542E-18
7.610000E+03	9.614043E-18	1.362955E-18
7.620000E+03	9.724080E-18	1.378380E-18
7.630000E+03	9.834430E-18	1.393846E-18
7.640000E+03	9.944538E-18	1.409274E-18
7.650000E+03	1.005484E-17	1.424726E-18
7.660000E+03	1.016503E-17	1.440157E-18
7.670000E+03	1.027502E-17	1.455557E-18
7.680000E+03	1.038476E-17	1.470916E-18
7.690000E+03	1.049442E-17	1.486261E-18
7.700000E+03	1.060366E-17	1.501543E-18
7.710000E+03	1.071240E-17	1.516750E-18
7.720000E+03	1.082082E-17	1.531909E-18
7.730000E+03	1.092885E-17	1.547009E-18
7.740000E+03	1.103612E-17	1.561996E-18
7.750000E+03	1.114281E-17	1.576898E-18
7.760000E+03	1.124883E-17	1.591703E-18
