#wls	flux	fluxerr
1.600000E+03	1.642129E-16	7.644891E-17
1.640000E+03	1.696385E-16	7.896094E-17
1.680000E+03	1.749597E-16	8.142256E-17
1.720000E+03	1.801562E-16	8.382425E-17
1.760000E+03	1.851512E-16	8.613020E-17
1.800000E+03	1.899125E-16	8.832533E-17
1.840000E+03	1.943688E-16	9.037656E-17
1.880000E+03	1.984770E-16	9.226376E-17
1.920000E+03	2.021724E-16	9.395689E-17
1.960000E+03	2.053870E-16	9.542440E-17
2.000000E+03	2.080205E-16	9.661980E-17
2.040000E+03	2.100049E-16	9.751171E-17
2.080000E+03	2.112605E-16	9.806327E-17
2.120000E+03	2.116738E-16	9.822210E-17
2.160000E+03	2.111474E-16	9.794339E-17
2.200000E+03	2.095677E-16	9.717491E-17
2.240000E+03	2.068408E-16	9.587362E-17
2.280000E+03	2.029527E-16	9.403378E-17
2.320000E+03	1.979378E-16	9.167190E-17
2.360000E+03	1.919464E-16	8.885839E-17
2.400000E+03	1.851137E-16	8.565647E-17
2.440000E+03	1.775617E-16	8.212326E-17
2.480000E+03	1.694247E-16	7.832145E-17
2.520000E+03	1.608082E-16	7.430043E-17
2.560000E+03	1.518060E-16	7.010396E-17
2.600000E+03	1.425316E-16	6.578502E-17
2.640000E+03	1.330708E-16	6.138353E-17
2.680000E+03	1.235243E-16	5.694639E-17
2.720000E+03	1.139780E-16	5.251344E-17
2.760000E+03	1.045329E-16	4.813146E-17
2.800000E+03	9.527531E-17	4.384030E-17
2.840000E+03	8.629635E-17	3.968199E-17
2.880000E+03	7.768274E-17	3.569636E-17
2.920000E+03	6.951372E-17	3.191969E-17
2.960000E+03	6.185807E-17	2.838334E-17
3.000000E+03	5.476998E-17	2.511186E-17
3.010000E+03	5.309083E-17	2.433725E-17
3.020000E+03	5.145042E-17	2.358066E-17
3.030000E+03	4.984765E-17	2.284159E-17
3.040000E+03	4.828477E-17	2.212104E-17
3.050000E+03	4.676057E-17	2.141847E-17
3.060000E+03	4.527498E-17	2.073382E-17
3.070000E+03	4.382790E-17	2.006706E-17
3.080000E+03	4.242098E-17	1.941892E-17
3.090000E+03	4.105211E-17	1.878844E-17
3.100000E+03	3.972273E-17	1.817625E-17
3.110000E+03	3.843164E-17	1.758180E-17
3.120000E+03	3.717922E-17	1.700527E-17
3.130000E+03	3.596500E-17	1.644643E-17
3.140000E+03	3.478852E-17	1.590504E-17
3.150000E+03	3.364925E-17	1.538088E-17
3.160000E+03	3.254728E-17	1.487396E-17
3.170000E+03	3.148141E-17	1.438374E-17
3.180000E+03	3.045164E-17	1.391019E-17
3.190000E+03	2.945730E-17	1.345301E-17
3.200000E+03	2.849773E-17	1.301189E-17
3.210000E+03	2.757272E-17	1.258673E-17
3.220000E+03	2.668060E-17	1.217674E-17
3.230000E+03	2.582204E-17	1.178223E-17
3.240000E+03	2.499494E-17	1.140224E-17
3.250000E+03	2.419982E-17	1.103699E-17
3.260000E+03	2.343509E-17	1.068574E-17
3.270000E+03	2.270037E-17	1.034832E-17
3.280000E+03	2.199484E-17	1.002435E-17
3.290000E+03	2.131740E-17	9.713314E-18
3.300000E+03	2.066792E-17	9.415144E-18
3.310000E+03	2.004495E-17	9.129177E-18
3.320000E+03	1.944774E-17	8.855063E-18
3.330000E+03	1.887611E-17	8.592708E-18
3.340000E+03	1.832871E-17	8.341493E-18
3.350000E+03	1.780479E-17	8.101073E-18
3.360000E+03	1.730363E-17	7.871112E-18
3.370000E+03	1.682475E-17	7.651379E-18
3.380000E+03	1.636694E-17	7.441328E-18
3.390000E+03	1.592955E-17	7.240651E-18
3.400000E+03	1.551212E-17	7.049132E-18
3.410000E+03	1.511377E-17	6.866367E-18
3.420000E+03	1.473386E-17	6.692062E-18
3.430000E+03	1.437141E-17	6.525763E-18
3.440000E+03	1.402603E-17	6.367288E-18
3.450000E+03	1.369714E-17	6.216367E-18
3.460000E+03	1.338385E-17	6.072594E-18
3.470000E+03	1.308565E-17	5.935734E-18
3.480000E+03	1.280190E-17	5.805486E-18
3.490000E+03	1.253227E-17	5.681703E-18
3.500000E+03	1.227587E-17	5.563970E-18
3.510000E+03	1.203242E-17	5.452161E-18
3.520000E+03	1.180124E-17	5.345962E-18
3.530000E+03	1.158182E-17	5.245136E-18
3.540000E+03	1.137369E-17	5.149470E-18
3.550000E+03	1.117626E-17	5.058692E-18
3.560000E+03	1.098924E-17	4.972663E-18
3.570000E+03	1.081198E-17	4.891094E-18
3.580000E+03	1.064412E-17	4.813812E-18
3.590000E+03	1.048542E-17	4.740706E-18
3.600000E+03	1.033543E-17	4.671568E-18
3.610000E+03	1.019382E-17	4.606255E-18
3.620000E+03	1.006020E-17	4.544578E-18
3.630000E+03	9.934190E-18	4.486363E-18
3.640000E+03	9.815523E-18	4.431493E-18
3.650000E+03	9.703761E-18	4.379763E-18
3.660000E+03	9.598766E-18	4.331111E-18
3.670000E+03	9.500143E-18	4.285354E-18
3.680000E+03	9.407675E-18	4.242392E-18
3.690000E+03	9.321259E-18	4.202178E-18
3.700000E+03	9.240528E-18	4.164543E-18
3.710000E+03	9.165298E-18	4.129403E-18
3.720000E+03	9.095559E-18	4.096750E-18
3.730000E+03	9.031058E-18	4.066470E-18
3.740000E+03	8.971628E-18	4.038483E-18
3.750000E+03	8.917252E-18	4.012782E-18
3.760000E+03	8.867699E-18	3.989260E-18
3.770000E+03	8.822872E-18	3.967872E-18
3.780000E+03	8.782781E-18	3.948620E-18
3.790000E+03	8.747253E-18	3.931425E-18
3.800000E+03	8.716212E-18	3.916250E-18
3.810000E+03	8.689579E-18	3.903059E-18
3.820000E+03	8.667265E-18	3.891809E-18
3.830000E+03	8.649271E-18	3.882500E-18
3.840000E+03	8.635436E-18	3.875057E-18
3.850000E+03	8.625761E-18	3.869479E-18
3.860000E+03	8.620234E-18	3.865759E-18
3.870000E+03	8.618702E-18	3.863827E-18
3.880000E+03	8.621085E-18	3.863644E-18
3.890000E+03	8.627452E-18	3.865241E-18
3.900000E+03	8.637716E-18	3.868577E-18
3.910000E+03	8.651726E-18	3.873581E-18
3.920000E+03	8.669541E-18	3.880280E-18
3.930000E+03	8.691162E-18	3.888671E-18
3.940000E+03	8.716350E-18	3.898647E-18
3.950000E+03	8.745172E-18	3.910235E-18
3.960000E+03	8.777615E-18	3.923428E-18
3.970000E+03	8.813595E-18	3.938187E-18
3.980000E+03	8.852943E-18	3.954435E-18
3.990000E+03	8.895801E-18	3.972234E-18
4.000000E+03	8.942002E-18	3.991506E-18
4.010000E+03	8.991460E-18	4.012214E-18
4.020000E+03	9.044228E-18	4.034379E-18
4.030000E+03	9.100148E-18	4.057927E-18
4.040000E+03	9.159272E-18	4.082883E-18
4.050000E+03	9.221360E-18	4.109136E-18
4.060000E+03	9.286541E-18	4.136743E-18
4.070000E+03	9.354655E-18	4.165631E-18
4.080000E+03	9.425608E-18	4.195757E-18
4.090000E+03	9.499465E-18	4.227149E-18
4.100000E+03	9.575976E-18	4.259693E-18
4.110000E+03	9.655288E-18	4.293455E-18
4.120000E+03	9.737157E-18	4.328323E-18
4.130000E+03	9.821570E-18	4.364291E-18
4.140000E+03	9.908524E-18	4.401357E-18
4.150000E+03	9.997846E-18	4.439442E-18
4.160000E+03	1.008954E-17	4.478546E-18
4.170000E+03	1.018351E-17	4.518628E-18
4.180000E+03	1.027961E-17	4.559617E-18
4.190000E+03	1.037791E-17	4.601547E-18
4.200000E+03	1.047816E-17	4.644308E-18
4.210000E+03	1.058046E-17	4.687937E-18
4.220000E+03	1.068455E-17	4.732322E-18
4.230000E+03	1.079044E-17	4.777465E-18
4.240000E+03	1.089805E-17	4.823333E-18
4.250000E+03	1.100713E-17	4.869807E-18
4.260000E+03	1.111777E-17	4.916936E-18
4.270000E+03	1.122982E-17	4.964643E-18
4.280000E+03	1.134309E-17	5.012850E-18
4.290000E+03	1.145742E-17	5.061485E-18
4.300000E+03	1.157281E-17	5.110546E-18
4.310000E+03	1.168921E-17	5.160006E-18
4.320000E+03	1.180622E-17	5.209696E-18
4.330000E+03	1.192397E-17	5.259668E-18
4.340000E+03	1.204207E-17	5.309753E-18
4.350000E+03	1.216064E-17	5.359999E-18
4.360000E+03	1.227939E-17	5.410282E-18
4.370000E+03	1.239833E-17	5.460603E-18
4.380000E+03	1.251747E-17	5.510968E-18
4.390000E+03	1.263683E-17	5.561386E-18
4.400000E+03	1.275641E-17	5.611855E-18
4.410000E+03	1.287633E-17	5.662429E-18
4.420000E+03	1.299671E-17	5.713161E-18
4.430000E+03	1.311756E-17	5.764055E-18
4.440000E+03	1.323901E-17	5.815172E-18
4.450000E+03	1.336099E-17	5.866470E-18
4.460000E+03	1.348375E-17	5.918068E-18
4.470000E+03	1.360720E-17	5.969924E-18
4.480000E+03	1.373140E-17	6.022061E-18
4.490000E+03	1.385638E-17	6.074495E-18
4.500000E+03	1.398218E-17	6.127242E-18
4.510000E+03	1.410887E-17	6.180331E-18
4.520000E+03	1.423649E-17	6.233779E-18
4.530000E+03	1.436485E-17	6.287503E-18
4.540000E+03	1.449425E-17	6.341635E-18
4.550000E+03	1.462450E-17	6.396090E-18
4.560000E+03	1.475568E-17	6.450898E-18
4.570000E+03	1.488769E-17	6.506025E-18
4.580000E+03	1.502076E-17	6.561557E-18
4.590000E+03	1.515481E-17	6.617473E-18
4.600000E+03	1.528966E-17	6.673680E-18
4.610000E+03	1.542564E-17	6.730331E-18
4.620000E+03	1.556257E-17	6.787343E-18
4.630000E+03	1.570039E-17	6.844691E-18
4.640000E+03	1.583933E-17	6.902472E-18
4.650000E+03	1.597949E-17	6.960725E-18
4.660000E+03	1.612053E-17	7.019311E-18
4.670000E+03	1.626287E-17	7.078400E-18
4.680000E+03	1.640645E-17	7.137976E-18
4.690000E+03	1.655125E-17	7.198025E-18
4.700000E+03	1.669741E-17	7.258603E-18
4.710000E+03	1.684491E-17	7.319708E-18
4.720000E+03	1.699390E-17	7.381397E-18
4.730000E+03	1.714405E-17	7.443531E-18
4.740000E+03	1.729553E-17	7.506178E-18
4.750000E+03	1.744850E-17	7.569410E-18
4.760000E+03	1.760248E-17	7.633015E-18
4.770000E+03	1.775781E-17	7.697140E-18
4.780000E+03	1.791432E-17	7.761713E-18
4.790000E+03	1.807187E-17	7.826669E-18
4.800000E+03	1.823079E-17	7.892150E-18
4.810000E+03	1.839059E-17	7.957943E-18
4.820000E+03	1.855178E-17	8.024273E-18
4.830000E+03	1.871386E-17	8.090915E-18
4.840000E+03	1.887718E-17	8.158022E-18
4.850000E+03	1.904138E-17	8.225439E-18
4.860000E+03	1.920682E-17	8.293322E-18
4.870000E+03	1.937313E-17	8.361508E-18
4.880000E+03	1.954049E-17	8.430071E-18
4.890000E+03	1.970889E-17	8.499008E-18
4.900000E+03	1.987811E-17	8.568224E-18
4.910000E+03	2.004814E-17	8.637711E-18
4.920000E+03	2.021894E-17	8.707454E-18
4.930000E+03	2.039067E-17	8.777519E-18
4.940000E+03	2.056289E-17	8.847715E-18
4.950000E+03	2.073594E-17	8.918193E-18
4.960000E+03	2.090937E-17	8.988752E-18
4.970000E+03	2.108330E-17	9.059444E-18
4.980000E+03	2.125744E-17	9.130145E-18
4.990000E+03	2.143168E-17	9.200810E-18
5.000000E+03	2.160593E-17	9.271392E-18
5.010000E+03	2.178025E-17	9.341923E-18
5.020000E+03	2.195406E-17	9.412155E-18
5.030000E+03	2.212745E-17	9.482117E-18
5.040000E+03	2.229999E-17	9.551633E-18
5.050000E+03	2.247170E-17	9.620710E-18
5.060000E+03	2.264214E-17	9.689162E-18
5.070000E+03	2.281086E-17	9.756789E-18
5.080000E+03	2.297781E-17	9.823574E-18
5.090000E+03	2.314272E-17	9.889404E-18
5.100000E+03	2.330504E-17	9.954047E-18
5.110000E+03	2.346425E-17	1.001727E-17
5.120000E+03	2.362046E-17	1.007914E-17
5.130000E+03	2.377285E-17	1.013929E-17
5.140000E+03	2.392105E-17	1.019758E-17
5.150000E+03	2.406467E-17	1.025384E-17
5.160000E+03	2.420333E-17	1.030790E-17
5.170000E+03	2.433635E-17	1.035949E-17
5.180000E+03	2.446358E-17	1.040854E-17
5.190000E+03	2.458408E-17	1.045465E-17
5.200000E+03	2.469768E-17	1.049776E-17
5.210000E+03	2.480343E-17	1.053747E-17
5.220000E+03	2.490139E-17	1.057381E-17
5.230000E+03	2.499062E-17	1.060637E-17
5.240000E+03	2.507094E-17	1.063510E-17
5.250000E+03	2.514140E-17	1.065959E-17
5.260000E+03	2.520185E-17	1.067979E-17
5.270000E+03	2.525188E-17	1.069553E-17
5.280000E+03	2.529062E-17	1.070645E-17
5.290000E+03	2.531770E-17	1.071239E-17
5.300000E+03	2.533306E-17	1.071334E-17
5.310000E+03	2.533617E-17	1.070909E-17
5.320000E+03	2.532656E-17	1.069944E-17
5.330000E+03	2.530405E-17	1.068433E-17
5.340000E+03	2.526854E-17	1.066372E-17
5.350000E+03	2.521999E-17	1.063760E-17
5.360000E+03	2.515819E-17	1.060589E-17
5.370000E+03	2.508352E-17	1.056878E-17
5.380000E+03	2.499595E-17	1.052623E-17
5.390000E+03	2.489604E-17	1.047852E-17
5.400000E+03	2.478396E-17	1.042570E-17
5.410000E+03	2.466070E-17	1.036822E-17
5.420000E+03	2.452713E-17	1.030643E-17
5.430000E+03	2.438368E-17	1.024054E-17
5.440000E+03	2.423188E-17	1.017119E-17
5.450000E+03	2.407261E-17	1.009875E-17
5.460000E+03	2.390586E-17	1.002323E-17
5.470000E+03	2.373337E-17	9.945355E-18
5.480000E+03	2.355576E-17	9.865404E-18
5.490000E+03	2.337372E-17	9.783657E-18
5.500000E+03	2.318822E-17	9.700526E-18
5.510000E+03	2.300001E-17	9.616332E-18
5.520000E+03	2.280990E-17	9.531412E-18
5.530000E+03	2.261915E-17	9.446297E-18
5.540000E+03	2.242858E-17	9.361326E-18
5.550000E+03	2.223966E-17	9.277116E-18
5.560000E+03	2.205361E-17	9.194173E-18
5.570000E+03	2.187137E-17	9.112887E-18
5.580000E+03	2.169429E-17	9.033818E-18
5.590000E+03	2.152341E-17	8.957401E-18
5.600000E+03	2.135973E-17	8.884040E-18
5.610000E+03	2.120437E-17	8.814198E-18
5.620000E+03	2.105816E-17	8.748211E-18
5.630000E+03	2.092180E-17	8.686374E-18
5.640000E+03	2.079618E-17	8.629038E-18
5.650000E+03	2.068185E-17	8.576428E-18
5.660000E+03	2.057948E-17	8.528810E-18
5.670000E+03	2.048945E-17	8.486341E-18
5.680000E+03	2.041206E-17	8.449129E-18
5.690000E+03	2.034776E-17	8.417351E-18
5.700000E+03	2.029668E-17	8.391055E-18
5.710000E+03	2.025893E-17	8.370272E-18
5.720000E+03	2.023476E-17	8.355096E-18
5.730000E+03	2.022417E-17	8.345519E-18
5.740000E+03	2.022732E-17	8.341596E-18
5.750000E+03	2.024394E-17	8.343205E-18
5.760000E+03	2.027438E-17	8.350480E-18
5.770000E+03	2.031833E-17	8.363277E-18
5.780000E+03	2.037567E-17	8.381544E-18
5.790000E+03	2.044675E-17	8.405411E-18
5.800000E+03	2.053103E-17	8.434644E-18
5.810000E+03	2.062886E-17	8.469380E-18
5.820000E+03	2.074016E-17	8.509570E-18
5.830000E+03	2.086487E-17	8.555180E-18
5.840000E+03	2.100269E-17	8.606076E-18
5.850000E+03	2.115401E-17	8.662412E-18
5.860000E+03	2.131857E-17	8.724063E-18
5.870000E+03	2.149655E-17	8.791097E-18
5.880000E+03	2.168792E-17	8.863488E-18
5.890000E+03	2.189239E-17	8.941105E-18
5.900000E+03	2.211015E-17	9.024017E-18
5.910000E+03	2.234138E-17	9.112285E-18
5.920000E+03	2.258553E-17	9.205675E-18
5.930000E+03	2.284275E-17	9.304233E-18
5.940000E+03	2.311293E-17	9.407909E-18
5.950000E+03	2.339622E-17	9.516745E-18
5.960000E+03	2.369192E-17	9.630454E-18
5.970000E+03	2.400040E-17	9.749166E-18
5.980000E+03	2.432090E-17	9.872568E-18
5.990000E+03	2.465343E-17	1.000065E-17
6.000000E+03	2.499772E-17	1.013330E-17
6.010000E+03	2.535317E-17	1.027025E-17
6.020000E+03	2.571969E-17	1.041146E-17
6.030000E+03	2.609630E-17	1.055653E-17
6.040000E+03	2.648315E-17	1.070550E-17
6.050000E+03	2.687883E-17	1.085780E-17
6.060000E+03	2.728341E-17	1.101345E-17
6.070000E+03	2.769569E-17	1.117195E-17
6.080000E+03	2.811536E-17	1.133318E-17
6.090000E+03	2.854110E-17	1.149658E-17
6.100000E+03	2.897218E-17	1.166188E-17
6.110000E+03	2.940751E-17	1.182861E-17
6.120000E+03	2.984629E-17	1.199646E-17
6.130000E+03	3.028699E-17	1.216481E-17
6.140000E+03	3.072837E-17	1.233315E-17
6.150000E+03	3.116955E-17	1.250114E-17
6.160000E+03	3.160924E-17	1.266825E-17
6.170000E+03	3.204537E-17	1.283365E-17
6.180000E+03	3.247698E-17	1.299697E-17
6.190000E+03	3.290272E-17	1.315768E-17
6.200000E+03	3.332166E-17	1.331539E-17
6.210000E+03	3.373332E-17	1.346994E-17
6.220000E+03	3.413728E-17	1.362114E-17
6.230000E+03	3.453363E-17	1.376906E-17
6.240000E+03	3.492346E-17	1.391412E-17
6.250000E+03	3.530668E-17	1.405631E-17
6.260000E+03	3.568280E-17	1.419542E-17
6.270000E+03	3.605327E-17	1.433205E-17
6.280000E+03	3.641827E-17	1.446626E-17
6.290000E+03	3.677708E-17	1.459778E-17
6.300000E+03	3.713148E-17	1.472732E-17
6.310000E+03	3.748038E-17	1.485446E-17
6.320000E+03	3.782523E-17	1.497976E-17
6.330000E+03	3.816552E-17	1.510303E-17
6.340000E+03	3.850181E-17	1.522450E-17
6.350000E+03	3.883416E-17	1.534420E-17
6.360000E+03	3.916268E-17	1.546216E-17
6.370000E+03	3.948747E-17	1.557844E-17
6.380000E+03	3.980813E-17	1.569288E-17
6.390000E+03	4.012421E-17	1.580529E-17
6.400000E+03	4.043638E-17	1.591597E-17
6.410000E+03	4.074365E-17	1.602451E-17
6.420000E+03	4.104672E-17	1.613119E-17
6.430000E+03	4.134514E-17	1.623584E-17
6.440000E+03	4.163901E-17	1.633851E-17
6.450000E+03	4.192911E-17	1.643950E-17
6.460000E+03	4.221683E-17	1.653937E-17
6.470000E+03	4.250240E-17	1.663820E-17
6.480000E+03	4.278668E-17	1.673634E-17
6.490000E+03	4.307057E-17	1.683413E-17
6.500000E+03	4.335365E-17	1.693141E-17
6.510000E+03	4.363752E-17	1.702881E-17
6.520000E+03	4.392248E-17	1.712645E-17
6.530000E+03	4.420811E-17	1.722415E-17
6.540000E+03	4.449606E-17	1.732257E-17
6.550000E+03	4.478593E-17	1.742154E-17
6.560000E+03	4.507728E-17	1.752088E-17
6.570000E+03	4.537176E-17	1.762125E-17
6.580000E+03	4.566893E-17	1.772247E-17
6.590000E+03	4.596902E-17	1.782462E-17
6.600000E+03	4.627300E-17	1.792807E-17
6.610000E+03	4.657958E-17	1.803233E-17
6.620000E+03	4.688892E-17	1.813746E-17
6.630000E+03	4.720274E-17	1.824410E-17
6.640000E+03	4.751962E-17	1.835173E-17
6.650000E+03	4.783968E-17	1.846037E-17
6.660000E+03	4.816383E-17	1.857038E-17
6.670000E+03	4.849133E-17	1.868146E-17
6.680000E+03	4.882224E-17	1.879364E-17
6.690000E+03	4.915742E-17	1.890726E-17
6.700000E+03	4.949522E-17	1.902165E-17
6.710000E+03	4.983561E-17	1.913682E-17
6.720000E+03	5.018024E-17	1.925340E-17
6.730000E+03	5.052736E-17	1.937071E-17
6.740000E+03	5.087686E-17	1.948871E-17
6.750000E+03	5.122953E-17	1.960770E-17
6.760000E+03	5.158435E-17	1.972729E-17
6.770000E+03	5.194119E-17	1.984742E-17
6.780000E+03	5.229988E-17	1.996803E-17
6.790000E+03	5.266023E-17	2.008905E-17
6.800000E+03	5.302113E-17	2.021005E-17
6.810000E+03	5.338330E-17	2.033132E-17
6.820000E+03	5.374653E-17	2.045276E-17
6.830000E+03	5.410964E-17	2.057392E-17
6.840000E+03	5.447335E-17	2.069510E-17
6.850000E+03	5.483645E-17	2.081582E-17
6.860000E+03	5.519867E-17	2.093598E-17
6.870000E+03	5.555975E-17	2.105550E-17
6.880000E+03	5.591840E-17	2.117388E-17
6.890000E+03	5.627643E-17	2.129180E-17
6.900000E+03	5.663255E-17	2.140880E-17
6.910000E+03	5.698544E-17	2.152437E-17
6.920000E+03	5.733591E-17	2.163882E-17
6.930000E+03	5.768263E-17	2.175166E-17
6.940000E+03	5.802535E-17	2.186279E-17
6.950000E+03	5.836491E-17	2.197254E-17
6.960000E+03	5.870002E-17	2.208042E-17
6.970000E+03	5.903044E-17	2.218636E-17
6.980000E+03	5.935597E-17	2.229028E-17
6.990000E+03	5.967641E-17	2.239213E-17
7.000000E+03	5.999046E-17	2.249140E-17
7.010000E+03	6.030030E-17	2.258894E-17
7.020000E+03	6.060345E-17	2.268382E-17
7.030000E+03	6.089981E-17	2.277600E-17
7.040000E+03	6.119049E-17	2.286592E-17
7.050000E+03	6.147426E-17	2.295312E-17
7.060000E+03	6.175107E-17	2.303760E-17
7.070000E+03	6.202095E-17	2.311937E-17
7.080000E+03	6.228395E-17	2.319846E-17
7.090000E+03	6.254139E-17	2.327536E-17
7.100000E+03	6.279088E-17	2.334921E-17
7.110000E+03	6.303256E-17	2.342006E-17
7.120000E+03	6.326785E-17	2.348845E-17
7.130000E+03	6.349697E-17	2.355447E-17
7.140000E+03	6.371887E-17	2.361774E-17
7.150000E+03	6.393510E-17	2.367884E-17
7.160000E+03	6.414332E-17	2.373691E-17
7.170000E+03	6.434644E-17	2.379305E-17
7.180000E+03	6.454345E-17	2.384687E-17
7.190000E+03	6.473467E-17	2.389853E-17
7.200000E+03	6.491905E-17	2.394762E-17
7.210000E+03	6.509961E-17	2.399528E-17
7.220000E+03	6.527393E-17	2.404063E-17
7.230000E+03	6.544365E-17	2.408426E-17
7.240000E+03	6.560766E-17	2.412579E-17
7.250000E+03	6.576757E-17	2.416581E-17
7.260000E+03	6.592220E-17	2.420390E-17
7.270000E+03	6.607172E-17	2.424012E-17
7.280000E+03	6.621765E-17	2.427504E-17
7.290000E+03	6.635871E-17	2.430821E-17
7.300000E+03	6.649636E-17	2.434016E-17
7.310000E+03	6.662783E-17	2.436987E-17
7.320000E+03	6.675452E-17	2.439789E-17
7.330000E+03	6.687788E-17	2.442474E-17
7.340000E+03	6.699500E-17	2.444937E-17
7.350000E+03	6.710730E-17	2.447230E-17
7.360000E+03	6.721329E-17	2.449300E-17
7.370000E+03	6.731440E-17	2.451200E-17
7.380000E+03	6.740917E-17	2.452878E-17
7.390000E+03	6.749762E-17	2.454334E-17
7.400000E+03	6.757979E-17	2.455572E-17
7.410000E+03	6.765427E-17	2.456541E-17
7.420000E+03	6.772118E-17	2.457246E-17
7.430000E+03	6.778068E-17	2.457695E-17
7.440000E+03	6.783295E-17	2.457894E-17
7.450000E+03	6.787975E-17	2.457909E-17
7.460000E+03	6.791986E-17	2.457695E-17
7.470000E+03	6.795664E-17	2.457376E-17
7.480000E+03	6.799042E-17	2.456964E-17
7.490000E+03	6.802157E-17	2.456473E-17
7.500000E+03	6.805045E-17	2.455915E-17
7.510000E+03	6.807735E-17	2.455304E-17
7.520000E+03	6.810558E-17	2.454757E-17
7.530000E+03	6.813202E-17	2.454164E-17
7.540000E+03	6.815818E-17	2.453578E-17
7.550000E+03	6.818398E-17	2.452996E-17
7.560000E+03	6.821091E-17	2.452472E-17
7.570000E+03	6.823571E-17	2.451888E-17
7.580000E+03	6.825983E-17	2.451298E-17
7.590000E+03	6.828318E-17	2.450696E-17
7.600000E+03	6.830727E-17	2.450138E-17
7.610000E+03	6.832882E-17	2.449505E-17
7.620000E+03	6.835097E-17	2.448911E-17
7.630000E+03	6.837206E-17	2.448295E-17
7.640000E+03	6.839041E-17	2.447597E-17
7.650000E+03	6.840926E-17	2.446934E-17
7.660000E+03	6.842694E-17	2.446245E-17
7.670000E+03	6.844344E-17	2.445530E-17
7.680000E+03	6.845874E-17	2.444789E-17
7.690000E+03	6.847281E-17	2.444019E-17
7.700000E+03	6.848563E-17	2.443221E-17
7.710000E+03	6.849882E-17	2.442453E-17
7.720000E+03	6.850900E-17	2.441592E-17
7.730000E+03	6.851944E-17	2.440757E-17
7.740000E+03	6.852837E-17	2.439883E-17
7.750000E+03	6.853569E-17	2.438969E-17
7.760000E+03	6.854127E-17	2.438007E-17
