#wls	flux	fluxerr
1.600000E+03	3.738274E-16	1.269579E-16
1.640000E+03	3.850299E-16	1.307603E-16
1.680000E+03	3.955514E-16	1.343312E-16
1.720000E+03	4.052737E-16	1.376306E-16
1.760000E+03	4.140294E-16	1.406015E-16
1.800000E+03	4.216833E-16	1.431981E-16
1.840000E+03	4.280552E-16	1.453592E-16
1.880000E+03	4.330407E-16	1.470493E-16
1.920000E+03	4.364953E-16	1.482195E-16
1.960000E+03	4.382438E-16	1.488102E-16
2.000000E+03	4.381940E-16	1.487901E-16
2.040000E+03	4.361973E-16	1.481090E-16
2.080000E+03	4.321329E-16	1.467257E-16
2.120000E+03	4.259728E-16	1.446308E-16
2.160000E+03	4.175773E-16	1.417770E-16
2.200000E+03	4.068739E-16	1.381397E-16
2.240000E+03	3.937923E-16	1.336950E-16
2.280000E+03	3.782058E-16	1.284001E-16
2.320000E+03	3.605968E-16	1.224187E-16
2.360000E+03	3.414545E-16	1.159170E-16
2.400000E+03	3.211710E-16	1.090282E-16
2.440000E+03	3.000805E-16	1.018657E-16
2.480000E+03	2.785017E-16	9.453783E-17
2.520000E+03	2.567232E-16	8.714254E-17
2.560000E+03	2.349996E-16	7.976623E-17
2.600000E+03	2.135876E-16	7.249606E-17
2.640000E+03	1.927183E-16	6.541052E-17
2.680000E+03	1.725996E-16	5.858012E-17
2.720000E+03	1.534143E-16	5.206690E-17
2.760000E+03	1.353273E-16	4.592682E-17
2.800000E+03	1.184538E-16	4.019894E-17
2.840000E+03	1.028865E-16	3.491472E-17
2.880000E+03	8.869686E-17	3.009831E-17
2.920000E+03	7.592382E-17	2.576293E-17
2.960000E+03	6.457780E-17	2.191207E-17
3.000000E+03	5.462949E-17	1.853574E-17
3.010000E+03	5.235313E-17	1.776319E-17
3.020000E+03	5.015851E-17	1.701839E-17
3.030000E+03	4.804491E-17	1.630110E-17
3.040000E+03	4.601036E-17	1.561063E-17
3.050000E+03	4.405289E-17	1.494634E-17
3.060000E+03	4.217143E-17	1.430784E-17
3.070000E+03	4.036298E-17	1.369413E-17
3.080000E+03	3.862724E-17	1.310510E-17
3.090000E+03	3.696124E-17	1.253974E-17
3.100000E+03	3.536364E-17	1.199759E-17
3.110000E+03	3.383232E-17	1.147795E-17
3.120000E+03	3.236581E-17	1.098030E-17
3.130000E+03	3.096197E-17	1.050392E-17
3.140000E+03	2.961870E-17	1.004811E-17
3.150000E+03	2.833452E-17	9.612342E-18
3.160000E+03	2.710682E-17	9.195747E-18
3.170000E+03	2.593461E-17	8.797988E-18
3.180000E+03	2.481541E-17	8.418217E-18
3.190000E+03	2.374768E-17	8.055915E-18
3.200000E+03	2.272948E-17	7.710421E-18
3.210000E+03	2.175890E-17	7.381090E-18
3.220000E+03	2.083443E-17	7.067408E-18
3.230000E+03	1.995419E-17	6.768737E-18
3.240000E+03	1.911606E-17	6.484353E-18
3.250000E+03	1.831920E-17	6.213978E-18
3.260000E+03	1.756095E-17	5.956704E-18
3.270000E+03	1.684049E-17	5.712255E-18
3.280000E+03	1.615562E-17	5.479880E-18
3.290000E+03	1.550499E-17	5.259128E-18
3.300000E+03	1.488729E-17	5.049547E-18
3.310000E+03	1.430054E-17	4.850471E-18
3.320000E+03	1.374373E-17	4.661555E-18
3.330000E+03	1.321545E-17	4.482318E-18
3.340000E+03	1.271413E-17	4.312231E-18
3.350000E+03	1.223851E-17	4.150861E-18
3.360000E+03	1.178733E-17	3.997788E-18
3.370000E+03	1.135959E-17	3.852666E-18
3.380000E+03	1.095383E-17	3.715001E-18
3.390000E+03	1.056927E-17	3.584532E-18
3.400000E+03	1.020460E-17	3.460810E-18
3.410000E+03	9.858847E-18	3.343507E-18
3.420000E+03	9.531213E-18	3.232351E-18
3.430000E+03	9.220458E-18	3.126922E-18
3.440000E+03	8.925993E-18	3.027020E-18
3.450000E+03	8.646917E-18	2.932339E-18
3.460000E+03	8.382184E-18	2.842525E-18
3.470000E+03	8.131314E-18	2.757413E-18
3.480000E+03	7.893370E-18	2.676687E-18
3.490000E+03	7.667758E-18	2.600145E-18
3.500000E+03	7.453821E-18	2.527564E-18
3.510000E+03	7.250715E-18	2.458657E-18
3.520000E+03	7.057966E-18	2.393263E-18
3.530000E+03	6.874906E-18	2.331157E-18
3.540000E+03	6.700922E-18	2.272130E-18
3.550000E+03	6.535510E-18	2.216011E-18
3.560000E+03	6.378079E-18	2.162599E-18
3.570000E+03	6.228142E-18	2.111729E-18
3.580000E+03	6.085188E-18	2.063229E-18
3.590000E+03	5.948869E-18	2.016979E-18
3.600000E+03	5.818789E-18	1.972846E-18
3.610000E+03	5.694534E-18	1.930689E-18
3.620000E+03	5.575824E-18	1.890413E-18
3.630000E+03	5.462385E-18	1.851925E-18
3.640000E+03	5.353871E-18	1.815108E-18
3.650000E+03	5.250186E-18	1.779929E-18
3.660000E+03	5.151000E-18	1.746276E-18
3.670000E+03	5.056190E-18	1.714107E-18
3.680000E+03	4.965581E-18	1.683363E-18
3.690000E+03	4.879002E-18	1.653987E-18
3.700000E+03	4.796333E-18	1.625936E-18
3.710000E+03	4.717488E-18	1.599183E-18
3.720000E+03	4.642226E-18	1.573645E-18
3.730000E+03	4.570544E-18	1.549321E-18
3.740000E+03	4.502241E-18	1.526143E-18
3.750000E+03	4.437238E-18	1.504084E-18
3.760000E+03	4.375450E-18	1.483116E-18
3.770000E+03	4.316685E-18	1.463173E-18
3.780000E+03	4.260941E-18	1.444254E-18
3.790000E+03	4.208066E-18	1.426308E-18
3.800000E+03	4.157980E-18	1.409308E-18
3.810000E+03	4.110582E-18	1.393220E-18
3.820000E+03	4.065799E-18	1.378018E-18
3.830000E+03	4.023531E-18	1.363668E-18
3.840000E+03	3.983708E-18	1.350149E-18
3.850000E+03	3.946241E-18	1.337427E-18
3.860000E+03	3.911099E-18	1.325494E-18
3.870000E+03	3.878194E-18	1.314319E-18
3.880000E+03	3.847440E-18	1.303874E-18
3.890000E+03	3.818784E-18	1.294140E-18
3.900000E+03	3.792148E-18	1.285090E-18
3.910000E+03	3.767510E-18	1.276718E-18
3.920000E+03	3.744794E-18	1.268997E-18
3.930000E+03	3.723954E-18	1.261913E-18
3.940000E+03	3.704914E-18	1.255438E-18
3.950000E+03	3.687606E-18	1.249550E-18
3.960000E+03	3.672043E-18	1.244253E-18
3.970000E+03	3.658101E-18	1.239506E-18
3.980000E+03	3.645769E-18	1.235305E-18
3.990000E+03	3.634980E-18	1.231626E-18
4.000000E+03	3.625701E-18	1.228458E-18
4.010000E+03	3.617894E-18	1.225790E-18
4.020000E+03	3.611474E-18	1.223592E-18
4.030000E+03	3.606433E-18	1.221860E-18
4.040000E+03	3.602718E-18	1.220578E-18
4.050000E+03	3.600296E-18	1.219734E-18
4.060000E+03	3.599115E-18	1.219309E-18
4.070000E+03	3.599117E-18	1.219286E-18
4.080000E+03	3.600309E-18	1.219666E-18
4.090000E+03	3.602611E-18	1.220421E-18
4.100000E+03	3.606002E-18	1.221546E-18
4.110000E+03	3.610465E-18	1.223033E-18
4.120000E+03	3.615926E-18	1.224858E-18
4.130000E+03	3.622395E-18	1.227024E-18
4.140000E+03	3.629804E-18	1.229509E-18
4.150000E+03	3.638140E-18	1.232306E-18
4.160000E+03	3.647385E-18	1.235412E-18
4.170000E+03	3.657476E-18	1.238805E-18
4.180000E+03	3.668425E-18	1.242487E-18
4.190000E+03	3.680140E-18	1.246428E-18
4.200000E+03	3.692666E-18	1.250644E-18
4.210000E+03	3.705907E-18	1.255102E-18
4.220000E+03	3.719857E-18	1.259799E-18
4.230000E+03	3.734480E-18	1.264724E-18
4.240000E+03	3.749765E-18	1.269873E-18
4.250000E+03	3.765628E-18	1.275217E-18
4.260000E+03	3.782088E-18	1.280763E-18
4.270000E+03	3.799085E-18	1.286490E-18
4.280000E+03	3.816559E-18	1.292378E-18
4.290000E+03	3.834509E-18	1.298428E-18
4.300000E+03	3.852898E-18	1.304625E-18
4.310000E+03	3.871643E-18	1.310942E-18
4.320000E+03	3.890704E-18	1.317366E-18
4.330000E+03	3.910053E-18	1.323887E-18
4.340000E+03	3.929655E-18	1.330494E-18
4.350000E+03	3.949475E-18	1.337173E-18
4.360000E+03	3.969510E-18	1.343925E-18
4.370000E+03	3.989723E-18	1.350737E-18
4.380000E+03	4.010078E-18	1.357595E-18
4.390000E+03	4.030630E-18	1.364521E-18
4.400000E+03	4.051344E-18	1.371500E-18
4.410000E+03	4.072211E-18	1.378531E-18
4.420000E+03	4.093259E-18	1.385623E-18
4.430000E+03	4.114481E-18	1.392773E-18
4.440000E+03	4.135839E-18	1.399969E-18
4.450000E+03	4.157363E-18	1.407220E-18
4.460000E+03	4.179015E-18	1.414513E-18
4.470000E+03	4.200792E-18	1.421849E-18
4.480000E+03	4.222695E-18	1.429227E-18
4.490000E+03	4.244656E-18	1.436623E-18
4.500000E+03	4.266714E-18	1.444052E-18
4.510000E+03	4.288837E-18	1.451503E-18
4.520000E+03	4.311002E-18	1.458967E-18
4.530000E+03	4.333216E-18	1.466447E-18
4.540000E+03	4.355422E-18	1.473923E-18
4.550000E+03	4.377633E-18	1.481401E-18
4.560000E+03	4.399866E-18	1.488886E-18
4.570000E+03	4.422108E-18	1.496372E-18
4.580000E+03	4.444301E-18	1.503842E-18
4.590000E+03	4.466472E-18	1.511304E-18
4.600000E+03	4.488606E-18	1.518752E-18
4.610000E+03	4.510692E-18	1.526184E-18
4.620000E+03	4.532762E-18	1.533609E-18
4.630000E+03	4.554766E-18	1.541012E-18
4.640000E+03	4.576741E-18	1.548404E-18
4.650000E+03	4.598682E-18	1.555784E-18
4.660000E+03	4.620586E-18	1.563151E-18
4.670000E+03	4.642449E-18	1.570503E-18
4.680000E+03	4.664273E-18	1.577841E-18
4.690000E+03	4.686059E-18	1.585166E-18
4.700000E+03	4.707885E-18	1.592504E-18
4.710000E+03	4.729760E-18	1.599857E-18
4.720000E+03	4.751682E-18	1.607226E-18
4.730000E+03	4.773746E-18	1.614642E-18
4.740000E+03	4.795911E-18	1.622091E-18
4.750000E+03	4.818187E-18	1.629578E-18
4.760000E+03	4.840625E-18	1.637118E-18
4.770000E+03	4.863234E-18	1.644716E-18
4.780000E+03	4.885984E-18	1.652360E-18
4.790000E+03	4.908928E-18	1.660069E-18
4.800000E+03	4.932079E-18	1.667848E-18
4.810000E+03	4.955406E-18	1.675685E-18
4.820000E+03	4.978967E-18	1.683600E-18
4.830000E+03	5.002782E-18	1.691601E-18
4.840000E+03	5.026865E-18	1.699691E-18
4.850000E+03	5.051231E-18	1.707877E-18
4.860000E+03	5.075856E-18	1.716149E-18
4.870000E+03	5.100852E-18	1.724545E-18
4.880000E+03	5.126144E-18	1.733041E-18
4.890000E+03	5.151752E-18	1.741643E-18
4.900000E+03	5.177746E-18	1.750374E-18
4.910000E+03	5.204151E-18	1.759243E-18
4.920000E+03	5.230987E-18	1.768258E-18
4.930000E+03	5.258181E-18	1.777392E-18
4.940000E+03	5.285856E-18	1.786688E-18
4.950000E+03	5.313983E-18	1.796136E-18
4.960000E+03	5.342586E-18	1.805743E-18
4.970000E+03	5.371690E-18	1.815519E-18
4.980000E+03	5.401314E-18	1.825470E-18
4.990000E+03	5.431428E-18	1.835585E-18
5.000000E+03	5.462050E-18	1.845871E-18
5.010000E+03	5.493246E-18	1.856349E-18
5.020000E+03	5.524984E-18	1.867010E-18
5.030000E+03	5.557218E-18	1.877837E-18
5.040000E+03	5.590065E-18	1.888870E-18
5.050000E+03	5.623369E-18	1.900057E-18
5.060000E+03	5.657249E-18	1.911437E-18
5.070000E+03	5.691707E-18	1.923011E-18
5.080000E+03	5.726582E-18	1.934724E-18
5.090000E+03	5.762045E-18	1.946635E-18
5.100000E+03	5.797984E-18	1.958706E-18
5.110000E+03	5.834403E-18	1.970937E-18
5.120000E+03	5.871354E-18	1.983347E-18
5.130000E+03	5.908724E-18	1.995897E-18
5.140000E+03	5.946513E-18	2.008587E-18
5.150000E+03	5.984771E-18	2.021434E-18
5.160000E+03	6.023441E-18	2.034419E-18
5.170000E+03	6.062515E-18	2.047539E-18
5.180000E+03	6.101930E-18	2.060772E-18
5.190000E+03	6.141736E-18	2.074136E-18
5.200000E+03	6.181811E-18	2.087590E-18
5.210000E+03	6.222263E-18	2.101169E-18
5.220000E+03	6.263022E-18	2.114851E-18
5.230000E+03	6.304016E-18	2.128610E-18
5.240000E+03	6.345233E-18	2.142443E-18
5.250000E+03	6.386713E-18	2.156363E-18
5.260000E+03	6.428318E-18	2.170324E-18
5.270000E+03	6.470085E-18	2.184337E-18
5.280000E+03	6.512058E-18	2.198419E-18
5.290000E+03	6.554016E-18	2.212494E-18
5.300000E+03	6.596122E-18	2.226617E-18
5.310000E+03	6.638145E-18	2.240711E-18
5.320000E+03	6.680248E-18	2.254830E-18
5.330000E+03	6.722191E-18	2.268893E-18
5.340000E+03	6.764065E-18	2.282931E-18
5.350000E+03	6.805829E-18	2.296930E-18
5.360000E+03	6.847374E-18	2.310854E-18
5.370000E+03	6.888788E-18	2.324732E-18
5.380000E+03	6.929829E-18	2.338482E-18
5.390000E+03	6.970659E-18	2.352159E-18
5.400000E+03	7.011174E-18	2.365728E-18
5.410000E+03	7.051333E-18	2.379175E-18
5.420000E+03	7.091103E-18	2.392489E-18
5.430000E+03	7.130453E-18	2.405660E-18
5.440000E+03	7.169274E-18	2.418650E-18
5.450000E+03	7.207536E-18	2.431450E-18
5.460000E+03	7.245202E-18	2.444048E-18
5.470000E+03	7.282243E-18	2.456432E-18
5.480000E+03	7.318547E-18	2.468567E-18
5.490000E+03	7.354000E-18	2.480413E-18
5.500000E+03	7.388636E-18	2.491981E-18
5.510000E+03	7.422335E-18	2.503232E-18
5.520000E+03	7.454978E-18	2.514124E-18
5.530000E+03	7.486436E-18	2.524616E-18
5.540000E+03	7.516740E-18	2.534717E-18
5.550000E+03	7.545683E-18	2.544357E-18
5.560000E+03	7.573288E-18	2.553544E-18
5.570000E+03	7.599354E-18	2.562212E-18
5.580000E+03	7.623820E-18	2.570338E-18
5.590000E+03	7.646717E-18	2.577933E-18
5.600000E+03	7.667829E-18	2.584926E-18
5.610000E+03	7.687179E-18	2.591323E-18
5.620000E+03	7.704719E-18	2.597109E-18
5.630000E+03	7.720310E-18	2.602236E-18
5.640000E+03	7.733906E-18	2.606690E-18
5.650000E+03	7.745536E-18	2.610480E-18
5.660000E+03	7.755156E-18	2.613592E-18
5.670000E+03	7.762643E-18	2.615984E-18
5.680000E+03	7.768045E-18	2.617672E-18
5.690000E+03	7.771416E-18	2.618675E-18
5.700000E+03	7.772568E-18	2.618929E-18
5.710000E+03	7.771566E-18	2.618457E-18
5.720000E+03	7.768480E-18	2.617282E-18
5.730000E+03	7.763306E-18	2.615403E-18
5.740000E+03	7.756044E-18	2.612821E-18
5.750000E+03	7.746697E-18	2.609535E-18
5.760000E+03	7.735276E-18	2.605550E-18
5.770000E+03	7.721876E-18	2.600899E-18
5.780000E+03	7.706430E-18	2.595558E-18
5.790000E+03	7.689127E-18	2.589591E-18
5.800000E+03	7.669902E-18	2.582977E-18
5.810000E+03	7.648789E-18	2.575728E-18
5.820000E+03	7.625985E-18	2.567909E-18
5.830000E+03	7.601363E-18	2.559477E-18
5.840000E+03	7.575045E-18	2.550476E-18
5.850000E+03	7.547168E-18	2.540949E-18
5.860000E+03	7.517708E-18	2.530890E-18
5.870000E+03	7.486807E-18	2.520346E-18
5.880000E+03	7.454461E-18	2.509316E-18
5.890000E+03	7.420912E-18	2.497882E-18
5.900000E+03	7.386168E-18	2.486046E-18
5.910000E+03	7.350321E-18	2.473839E-18
5.920000E+03	7.313555E-18	2.461324E-18
5.930000E+03	7.275883E-18	2.448505E-18
5.940000E+03	7.237492E-18	2.435444E-18
5.950000E+03	7.198398E-18	2.422148E-18
5.960000E+03	7.158777E-18	2.408675E-18
5.970000E+03	7.118726E-18	2.395058E-18
5.980000E+03	7.078340E-18	2.381330E-18
5.990000E+03	7.037624E-18	2.367491E-18
6.000000E+03	6.996747E-18	2.353599E-18
6.010000E+03	6.955792E-18	2.339682E-18
6.020000E+03	6.914756E-18	2.325739E-18
6.030000E+03	6.873800E-18	2.311823E-18
6.040000E+03	6.832913E-18	2.297932E-18
6.050000E+03	6.792086E-18	2.284062E-18
6.060000E+03	6.751546E-18	2.270289E-18
6.070000E+03	6.711196E-18	2.256582E-18
6.080000E+03	6.671174E-18	2.242985E-18
6.090000E+03	6.631378E-18	2.229466E-18
6.100000E+03	6.591939E-18	2.216067E-18
6.110000E+03	6.552826E-18	2.202779E-18
6.120000E+03	6.514085E-18	2.189618E-18
6.130000E+03	6.475762E-18	2.176597E-18
6.140000E+03	6.437813E-18	2.163704E-18
6.150000E+03	6.400276E-18	2.150950E-18
6.160000E+03	6.363183E-18	2.138345E-18
6.170000E+03	6.326567E-18	2.125903E-18
6.180000E+03	6.290454E-18	2.113630E-18
6.190000E+03	6.254787E-18	2.101508E-18
6.200000E+03	6.219672E-18	2.089572E-18
6.210000E+03	6.185124E-18	2.077828E-18
6.220000E+03	6.151165E-18	2.066282E-18
6.230000E+03	6.117884E-18	2.054966E-18
6.240000E+03	6.085374E-18	2.043909E-18
6.250000E+03	6.053730E-18	2.033143E-18
6.260000E+03	6.023035E-18	2.022697E-18
6.270000E+03	5.993380E-18	2.012602E-18
6.280000E+03	5.964929E-18	2.002911E-18
6.290000E+03	5.937607E-18	1.993600E-18
6.300000E+03	5.911743E-18	1.984779E-18
6.310000E+03	5.887255E-18	1.976421E-18
6.320000E+03	5.864311E-18	1.968581E-18
6.330000E+03	5.842993E-18	1.961288E-18
6.340000E+03	5.823388E-18	1.954570E-18
6.350000E+03	5.805498E-18	1.948428E-18
6.360000E+03	5.789409E-18	1.942891E-18
6.370000E+03	5.775206E-18	1.937987E-18
6.380000E+03	5.762893E-18	1.933717E-18
6.390000E+03	5.752479E-18	1.930084E-18
6.400000E+03	5.744051E-18	1.927117E-18
6.410000E+03	5.737449E-18	1.924763E-18
6.420000E+03	5.732679E-18	1.923023E-18
6.430000E+03	5.729664E-18	1.921871E-18
6.440000E+03	5.728233E-18	1.921251E-18
6.450000E+03	5.728482E-18	1.921193E-18
6.460000E+03	5.730242E-18	1.921641E-18
6.470000E+03	5.733600E-18	1.922625E-18
6.480000E+03	5.738562E-18	1.924145E-18
6.490000E+03	5.745046E-18	1.926175E-18
6.500000E+03	5.753056E-18	1.928715E-18
6.510000E+03	5.762592E-18	1.931767E-18
6.520000E+03	5.773664E-18	1.935332E-18
6.530000E+03	5.786274E-18	1.939411E-18
6.540000E+03	5.800518E-18	1.944037E-18
6.550000E+03	5.816314E-18	1.949181E-18
6.560000E+03	5.833570E-18	1.954814E-18
6.570000E+03	5.852482E-18	1.961000E-18
6.580000E+03	5.872868E-18	1.967678E-18
6.590000E+03	5.894826E-18	1.974881E-18
6.600000E+03	5.918366E-18	1.982612E-18
6.610000E+03	5.943491E-18	1.990873E-18
6.620000E+03	5.970213E-18	1.999666E-18
6.630000E+03	5.998438E-18	2.008961E-18
6.640000E+03	6.028273E-18	2.018793E-18
6.650000E+03	6.059625E-18	2.029130E-18
6.660000E+03	6.092603E-18	2.040010E-18
6.670000E+03	6.127111E-18	2.051400E-18
6.680000E+03	6.163156E-18	2.063302E-18
6.690000E+03	6.200854E-18	2.075754E-18
6.700000E+03	6.240213E-18	2.088760E-18
6.710000E+03	6.281030E-18	2.102251E-18
6.720000E+03	6.323528E-18	2.116302E-18
6.730000E+03	6.367501E-18	2.130844E-18
6.740000E+03	6.413175E-18	2.145952E-18
6.750000E+03	6.460454E-18	2.161593E-18
6.760000E+03	6.509233E-18	2.177734E-18
6.770000E+03	6.559752E-18	2.194453E-18
6.780000E+03	6.611790E-18	2.211676E-18
6.790000E+03	6.665474E-18	2.229447E-18
6.800000E+03	6.720819E-18	2.247770E-18
6.810000E+03	6.777835E-18	2.266648E-18
6.820000E+03	6.836415E-18	2.286044E-18
6.830000E+03	6.896689E-18	2.306004E-18
6.840000E+03	6.958544E-18	2.326488E-18
6.850000E+03	7.022120E-18	2.347543E-18
6.860000E+03	7.087295E-18	2.369128E-18
6.870000E+03	7.154083E-18	2.391248E-18
6.880000E+03	7.222621E-18	2.413948E-18
6.890000E+03	7.292653E-18	2.437144E-18
6.900000E+03	7.364456E-18	2.460926E-18
6.910000E+03	7.437905E-18	2.485253E-18
6.920000E+03	7.513004E-18	2.510127E-18
6.930000E+03	7.589761E-18	2.535550E-18
6.940000E+03	7.668184E-18	2.561524E-18
6.950000E+03	7.748132E-18	2.588002E-18
6.960000E+03	7.829753E-18	2.615034E-18
6.970000E+03	7.913054E-18	2.642621E-18
6.980000E+03	7.998041E-18	2.670765E-18
6.990000E+03	8.084406E-18	2.699365E-18
7.000000E+03	8.172618E-18	2.728574E-18
7.010000E+03	8.262202E-18	2.758236E-18
7.020000E+03	8.353477E-18	2.788457E-18
7.030000E+03	8.446282E-18	2.819182E-18
7.040000E+03	8.540611E-18	2.850409E-18
7.050000E+03	8.636463E-18	2.882138E-18
7.060000E+03	8.733826E-18	2.914366E-18
7.070000E+03	8.832526E-18	2.947032E-18
7.080000E+03	8.932725E-18	2.980192E-18
7.090000E+03	9.034414E-18	3.013842E-18
7.100000E+03	9.137402E-18	3.047919E-18
7.110000E+03	9.241861E-18	3.082480E-18
7.120000E+03	9.347593E-18	3.117458E-18
7.130000E+03	9.454577E-18	3.152846E-18
7.140000E+03	9.562795E-18	3.188639E-18
7.150000E+03	9.672422E-18	3.224894E-18
7.160000E+03	9.783047E-18	3.261474E-18
7.170000E+03	9.894632E-18	3.298367E-18
7.180000E+03	1.000756E-17	3.335701E-18
7.190000E+03	1.012140E-17	3.373330E-18
7.200000E+03	1.023611E-17	3.411241E-18
7.210000E+03	1.035188E-17	3.449496E-18
7.220000E+03	1.046844E-17	3.488009E-18
7.230000E+03	1.058576E-17	3.526768E-18
7.240000E+03	1.070381E-17	3.565759E-18
7.250000E+03	1.082253E-17	3.604967E-18
7.260000E+03	1.094211E-17	3.644455E-18
7.270000E+03	1.106205E-17	3.684053E-18
7.280000E+03	1.118277E-17	3.723902E-18
7.290000E+03	1.130398E-17	3.763907E-18
7.300000E+03	1.142563E-17	3.804050E-18
7.310000E+03	1.154792E-17	3.844399E-18
7.320000E+03	1.167055E-17	3.884851E-18
7.330000E+03	1.179373E-17	3.925478E-18
7.340000E+03	1.191740E-17	3.966261E-18
7.350000E+03	1.204180E-17	4.007275E-18
7.360000E+03	1.216687E-17	4.048508E-18
7.370000E+03	1.229287E-17	4.090040E-18
7.380000E+03	1.241948E-17	4.131765E-18
7.390000E+03	1.254752E-17	4.173959E-18
7.400000E+03	1.267699E-17	4.216619E-18
7.410000E+03	1.280758E-17	4.259646E-18
7.420000E+03	1.294019E-17	4.303332E-18
7.430000E+03	1.307452E-17	4.347583E-18
7.440000E+03	1.321090E-17	4.392505E-18
7.450000E+03	1.334903E-17	4.438001E-18
7.460000E+03	1.348923E-17	4.484176E-18
7.470000E+03	1.363057E-17	4.530719E-18
7.480000E+03	1.377367E-17	4.577838E-18
7.490000E+03	1.391754E-17	4.625205E-18
7.500000E+03	1.406249E-17	4.672919E-18
7.510000E+03	1.420814E-17	4.720860E-18
7.520000E+03	1.435413E-17	4.768900E-18
7.530000E+03	1.450074E-17	4.817138E-18
7.540000E+03	1.464686E-17	4.865205E-18
7.550000E+03	1.479314E-17	4.913313E-18
7.560000E+03	1.493914E-17	4.961323E-18
7.570000E+03	1.508481E-17	5.009208E-18
7.580000E+03	1.522968E-17	5.056820E-18
7.590000E+03	1.537404E-17	5.104255E-18
7.600000E+03	1.551744E-17	5.151361E-18
7.610000E+03	1.565977E-17	5.198105E-18
7.620000E+03	1.580135E-17	5.244587E-18
7.630000E+03	1.594169E-17	5.290649E-18
7.640000E+03	1.608109E-17	5.336393E-18
7.650000E+03	1.621866E-17	5.381520E-18
7.660000E+03	1.635512E-17	5.426267E-18
7.670000E+03	1.648995E-17	5.470468E-18
7.680000E+03	1.662349E-17	5.514231E-18
7.690000E+03	1.675522E-17	5.557387E-18
7.700000E+03	1.688504E-17	5.599900E-18
7.710000E+03	1.701284E-17	5.641739E-18
7.720000E+03	1.713943E-17	5.683165E-18
7.730000E+03	1.726337E-17	5.723707E-18
7.740000E+03	1.738592E-17	5.763780E-18
7.750000E+03	1.750609E-17	5.803056E-18
7.760000E+03	1.762424E-17	5.841656E-18
