#wls	flux	fluxerr
1.600000E+03	2.770136E-17	2.174083E-17
1.640000E+03	2.761302E-17	2.168678E-17
1.680000E+03	2.736892E-17	2.151033E-17
1.720000E+03	2.695667E-17	2.120146E-17
1.760000E+03	2.636171E-17	2.074841E-17
1.800000E+03	2.557323E-17	2.014236E-17
1.840000E+03	2.457968E-17	1.937387E-17
1.880000E+03	2.337637E-17	1.843885E-17
1.920000E+03	2.195884E-17	1.733343E-17
1.960000E+03	2.032454E-17	1.605519E-17
2.000000E+03	1.847890E-17	1.460804E-17
2.040000E+03	1.642913E-17	1.299729E-17
2.080000E+03	1.418894E-17	1.123341E-17
2.120000E+03	1.178067E-17	9.333748E-18
2.160000E+03	9.229211E-18	7.317725E-18
2.200000E+03	6.568959E-18	5.212359E-18
2.240000E+03	3.842314E-18	3.051108E-18
2.280000E+03	1.100602E-18	8.746263E-19
2.320000E+03	-1.595672E-18	-1.269006E-18
2.360000E+03	-4.191796E-18	-3.336174E-18
2.400000E+03	-6.638737E-18	-5.287647E-18
2.440000E+03	-8.892052E-18	-7.087735E-18
2.480000E+03	-1.091261E-17	-8.704873E-18
2.520000E+03	-1.266684E-17	-1.011184E-17
2.560000E+03	-1.412684E-17	-1.128586E-17
2.600000E+03	-1.527293E-17	-1.221066E-17
2.640000E+03	-1.609357E-17	-1.287643E-17
2.680000E+03	-1.658601E-17	-1.328038E-17
2.720000E+03	-1.675683E-17	-1.342716E-17
2.760000E+03	-1.662308E-17	-1.332990E-17
2.800000E+03	-1.620856E-17	-1.300712E-17
2.840000E+03	-1.554601E-17	-1.248461E-17
2.880000E+03	-1.467673E-17	-1.179513E-17
2.920000E+03	-1.364777E-17	-1.097616E-17
2.960000E+03	-1.251045E-17	-1.006872E-17
3.000000E+03	-1.131544E-17	-9.113443E-18
3.010000E+03	-1.101316E-17	-8.871561E-18
3.020000E+03	-1.071085E-17	-8.629569E-18
3.030000E+03	-1.040934E-17	-8.388125E-18
3.040000E+03	-1.010915E-17	-8.147661E-18
3.050000E+03	-9.810824E-18	-7.908605E-18
3.060000E+03	-9.515061E-18	-7.671531E-18
3.070000E+03	-9.222140E-18	-7.436661E-18
3.080000E+03	-8.932905E-18	-7.204678E-18
3.090000E+03	-8.647580E-18	-6.975765E-18
3.100000E+03	-8.366752E-18	-6.750396E-18
3.110000E+03	-8.090783E-18	-6.528867E-18
3.120000E+03	-7.820166E-18	-6.311578E-18
3.130000E+03	-7.555202E-18	-6.098774E-18
3.140000E+03	-7.296164E-18	-5.890677E-18
3.150000E+03	-7.043436E-18	-5.687601E-18
3.160000E+03	-6.797091E-18	-5.489608E-18
3.170000E+03	-6.557568E-18	-5.297055E-18
3.180000E+03	-6.324879E-18	-5.109955E-18
3.190000E+03	-6.099258E-18	-4.928499E-18
3.200000E+03	-5.880773E-18	-4.752748E-18
3.210000E+03	-5.669483E-18	-4.582750E-18
3.220000E+03	-5.465492E-18	-4.418593E-18
3.230000E+03	-5.268789E-18	-4.260272E-18
3.240000E+03	-5.079249E-18	-4.107688E-18
3.250000E+03	-4.897058E-18	-3.960996E-18
3.260000E+03	-4.721883E-18	-3.819929E-18
3.270000E+03	-4.553854E-18	-3.684594E-18
3.280000E+03	-4.392685E-18	-3.554765E-18
3.290000E+03	-4.238317E-18	-3.430396E-18
3.300000E+03	-4.090655E-18	-3.311412E-18
3.310000E+03	-3.949412E-18	-3.197585E-18
3.320000E+03	-3.814528E-18	-3.088868E-18
3.330000E+03	-3.685821E-18	-2.985117E-18
3.340000E+03	-3.563048E-18	-2.886138E-18
3.350000E+03	-3.446022E-18	-2.791781E-18
3.360000E+03	-3.334553E-18	-2.701895E-18
3.370000E+03	-3.228497E-18	-2.616365E-18
3.380000E+03	-3.127574E-18	-2.534967E-18
3.390000E+03	-3.031681E-18	-2.457619E-18
3.400000E+03	-2.940550E-18	-2.384107E-18
3.410000E+03	-2.854004E-18	-2.314288E-18
3.420000E+03	-2.771902E-18	-2.248050E-18
3.430000E+03	-2.693969E-18	-2.185171E-18
3.440000E+03	-2.620109E-18	-2.125577E-18
3.450000E+03	-2.550130E-18	-2.069111E-18
3.460000E+03	-2.483789E-18	-2.015579E-18
3.470000E+03	-2.421004E-18	-1.964915E-18
3.480000E+03	-2.361553E-18	-1.916940E-18
3.490000E+03	-2.305307E-18	-1.871553E-18
3.500000E+03	-2.252120E-18	-1.828633E-18
3.510000E+03	-2.201778E-18	-1.788010E-18
3.520000E+03	-2.154180E-18	-1.749603E-18
3.530000E+03	-2.109161E-18	-1.713277E-18
3.540000E+03	-2.066566E-18	-1.678909E-18
3.550000E+03	-2.026275E-18	-1.646402E-18
3.560000E+03	-1.988134E-18	-1.615631E-18
3.570000E+03	-1.952017E-18	-1.586495E-18
3.580000E+03	-1.917793E-18	-1.558888E-18
3.590000E+03	-1.885373E-18	-1.532738E-18
3.600000E+03	-1.854655E-18	-1.507963E-18
3.610000E+03	-1.825526E-18	-1.484473E-18
3.620000E+03	-1.797916E-18	-1.462209E-18
3.630000E+03	-1.771753E-18	-1.441116E-18
3.640000E+03	-1.746940E-18	-1.421113E-18
3.650000E+03	-1.723462E-18	-1.402189E-18
3.660000E+03	-1.701224E-18	-1.384268E-18
3.670000E+03	-1.680196E-18	-1.367325E-18
3.680000E+03	-1.660334E-18	-1.351326E-18
3.690000E+03	-1.641593E-18	-1.336233E-18
3.700000E+03	-1.623943E-18	-1.322023E-18
3.710000E+03	-1.607366E-18	-1.308681E-18
3.720000E+03	-1.591792E-18	-1.296151E-18
3.730000E+03	-1.577230E-18	-1.284441E-18
3.740000E+03	-1.563621E-18	-1.273502E-18
3.750000E+03	-1.550948E-18	-1.263321E-18
3.760000E+03	-1.539193E-18	-1.253884E-18
3.770000E+03	-1.528299E-18	-1.245145E-18
3.780000E+03	-1.518275E-18	-1.237110E-18
3.790000E+03	-1.509076E-18	-1.229744E-18
3.800000E+03	-1.500686E-18	-1.223034E-18
3.810000E+03	-1.493075E-18	-1.216957E-18
3.820000E+03	-1.486229E-18	-1.211499E-18
3.830000E+03	-1.480120E-18	-1.206638E-18
3.840000E+03	-1.474733E-18	-1.202364E-18
3.850000E+03	-1.470043E-18	-1.198655E-18
3.860000E+03	-1.466048E-18	-1.195511E-18
3.870000E+03	-1.462723E-18	-1.192910E-18
3.880000E+03	-1.460046E-18	-1.190835E-18
3.890000E+03	-1.458005E-18	-1.189276E-18
3.900000E+03	-1.456577E-18	-1.188216E-18
3.910000E+03	-1.455764E-18	-1.187654E-18
3.920000E+03	-1.455543E-18	-1.187573E-18
3.930000E+03	-1.455905E-18	-1.187966E-18
3.940000E+03	-1.456827E-18	-1.188814E-18
3.950000E+03	-1.458291E-18	-1.190102E-18
3.960000E+03	-1.460307E-18	-1.191838E-18
3.970000E+03	-1.462834E-18	-1.193989E-18
3.980000E+03	-1.465873E-18	-1.196557E-18
3.990000E+03	-1.469404E-18	-1.199525E-18
4.000000E+03	-1.473420E-18	-1.202885E-18
4.010000E+03	-1.477910E-18	-1.206631E-18
4.020000E+03	-1.482844E-18	-1.210738E-18
4.030000E+03	-1.488225E-18	-1.215208E-18
4.040000E+03	-1.494034E-18	-1.220025E-18
4.050000E+03	-1.500262E-18	-1.225183E-18
4.060000E+03	-1.506891E-18	-1.230665E-18
4.070000E+03	-1.513901E-18	-1.236457E-18
4.080000E+03	-1.521296E-18	-1.242562E-18
4.090000E+03	-1.529048E-18	-1.248956E-18
4.100000E+03	-1.537149E-18	-1.255633E-18
4.110000E+03	-1.545593E-18	-1.262588E-18
4.120000E+03	-1.554351E-18	-1.269797E-18
4.130000E+03	-1.563430E-18	-1.277266E-18
4.140000E+03	-1.572800E-18	-1.284970E-18
4.150000E+03	-1.582457E-18	-1.292907E-18
4.160000E+03	-1.592398E-18	-1.301073E-18
4.170000E+03	-1.602594E-18	-1.309444E-18
4.180000E+03	-1.613052E-18	-1.318028E-18
4.190000E+03	-1.623734E-18	-1.326791E-18
4.200000E+03	-1.634661E-18	-1.335751E-18
4.210000E+03	-1.645792E-18	-1.344876E-18
4.220000E+03	-1.657124E-18	-1.354162E-18
4.230000E+03	-1.668644E-18	-1.363598E-18
4.240000E+03	-1.680348E-18	-1.373181E-18
4.250000E+03	-1.692198E-18	-1.382880E-18
4.260000E+03	-1.704202E-18	-1.392702E-18
4.270000E+03	-1.716336E-18	-1.402626E-18
4.280000E+03	-1.728569E-18	-1.412627E-18
4.290000E+03	-1.740902E-18	-1.422706E-18
4.300000E+03	-1.753318E-18	-1.432849E-18
4.310000E+03	-1.765776E-18	-1.443022E-18
4.320000E+03	-1.778259E-18	-1.453211E-18
4.330000E+03	-1.790749E-18	-1.463402E-18
4.340000E+03	-1.803230E-18	-1.473581E-18
4.350000E+03	-1.815683E-18	-1.483733E-18
4.360000E+03	-1.828104E-18	-1.493853E-18
4.370000E+03	-1.840473E-18	-1.503925E-18
4.380000E+03	-1.852769E-18	-1.513934E-18
4.390000E+03	-1.865016E-18	-1.523897E-18
4.400000E+03	-1.877194E-18	-1.533798E-18
4.410000E+03	-1.889296E-18	-1.543631E-18
4.420000E+03	-1.901330E-18	-1.553404E-18
4.430000E+03	-1.913289E-18	-1.563109E-18
4.440000E+03	-1.925153E-18	-1.572730E-18
4.450000E+03	-1.936928E-18	-1.582274E-18
4.460000E+03	-1.948596E-18	-1.591723E-18
4.470000E+03	-1.960148E-18	-1.601071E-18
4.480000E+03	-1.971580E-18	-1.610315E-18
4.490000E+03	-1.982855E-18	-1.619423E-18
4.500000E+03	-1.993983E-18	-1.628406E-18
4.510000E+03	-2.004947E-18	-1.637246E-18
4.520000E+03	-2.015726E-18	-1.645929E-18
4.530000E+03	-2.026320E-18	-1.654453E-18
4.540000E+03	-2.036694E-18	-1.662789E-18
4.550000E+03	-2.046846E-18	-1.670938E-18
4.560000E+03	-2.056780E-18	-1.678900E-18
4.570000E+03	-2.066479E-18	-1.686663E-18
4.580000E+03	-2.075912E-18	-1.694200E-18
4.590000E+03	-2.085083E-18	-1.701516E-18
4.600000E+03	-2.093979E-18	-1.708598E-18
4.610000E+03	-2.102588E-18	-1.715438E-18
4.620000E+03	-2.110916E-18	-1.722040E-18
4.630000E+03	-2.118935E-18	-1.728381E-18
4.640000E+03	-2.126653E-18	-1.734468E-18
4.650000E+03	-2.134061E-18	-1.740294E-18
4.660000E+03	-2.141151E-18	-1.745850E-18
4.670000E+03	-2.147915E-18	-1.751132E-18
4.680000E+03	-2.154345E-18	-1.756132E-18
4.690000E+03	-2.160434E-18	-1.760845E-18
4.700000E+03	-2.166215E-18	-1.765297E-18
4.710000E+03	-2.171681E-18	-1.769483E-18
4.720000E+03	-2.176826E-18	-1.773399E-18
4.730000E+03	-2.181686E-18	-1.777072E-18
4.740000E+03	-2.186235E-18	-1.780482E-18
4.750000E+03	-2.190471E-18	-1.783627E-18
4.760000E+03	-2.194406E-18	-1.786517E-18
4.770000E+03	-2.198039E-18	-1.789152E-18
4.780000E+03	-2.201344E-18	-1.791509E-18
4.790000E+03	-2.204339E-18	-1.793604E-18
4.800000E+03	-2.207019E-18	-1.795433E-18
4.810000E+03	-2.209360E-18	-1.796975E-18
4.820000E+03	-2.211376E-18	-1.798243E-18
4.830000E+03	-2.213065E-18	-1.799235E-18
4.840000E+03	-2.214418E-18	-1.799944E-18
4.850000E+03	-2.215433E-18	-1.800367E-18
4.860000E+03	-2.216083E-18	-1.800483E-18
4.870000E+03	-2.216400E-18	-1.800319E-18
4.880000E+03	-2.216338E-18	-1.799837E-18
4.890000E+03	-2.215888E-18	-1.799029E-18
4.900000E+03	-2.215062E-18	-1.797907E-18
4.910000E+03	-2.213851E-18	-1.796461E-18
4.920000E+03	-2.212245E-18	-1.794684E-18
4.930000E+03	-2.210191E-18	-1.792535E-18
4.940000E+03	-2.207718E-18	-1.790036E-18
4.950000E+03	-2.204794E-18	-1.787161E-18
4.960000E+03	-2.201402E-18	-1.783897E-18
4.970000E+03	-2.197529E-18	-1.780235E-18
4.980000E+03	-2.193157E-18	-1.776158E-18
4.990000E+03	-2.188249E-18	-1.771638E-18
5.000000E+03	-2.182784E-18	-1.766659E-18
5.010000E+03	-2.176762E-18	-1.761220E-18
5.020000E+03	-2.170141E-18	-1.755288E-18
5.030000E+03	-2.162875E-18	-1.748827E-18
5.040000E+03	-2.154982E-18	-1.741851E-18
5.050000E+03	-2.146373E-18	-1.734289E-18
5.060000E+03	-2.137063E-18	-1.726153E-18
5.070000E+03	-2.127021E-18	-1.717419E-18
5.080000E+03	-2.116157E-18	-1.708017E-18
5.090000E+03	-2.104502E-18	-1.697970E-18
5.100000E+03	-2.091983E-18	-1.687221E-18
5.110000E+03	-2.078569E-18	-1.675746E-18
5.120000E+03	-2.064246E-18	-1.663535E-18
5.130000E+03	-2.048940E-18	-1.650529E-18
5.140000E+03	-2.032620E-18	-1.636704E-18
5.150000E+03	-2.015268E-18	-1.622047E-18
5.160000E+03	-1.996832E-18	-1.606518E-18
5.170000E+03	-1.977277E-18	-1.590088E-18
5.180000E+03	-1.956548E-18	-1.572717E-18
5.190000E+03	-1.934631E-18	-1.554394E-18
5.200000E+03	-1.911453E-18	-1.535062E-18
5.210000E+03	-1.887019E-18	-1.514725E-18
5.220000E+03	-1.861273E-18	-1.493344E-18
5.230000E+03	-1.834166E-18	-1.470878E-18
5.240000E+03	-1.805665E-18	-1.447304E-18
5.250000E+03	-1.775755E-18	-1.422611E-18
5.260000E+03	-1.744370E-18	-1.396750E-18
5.270000E+03	-1.711495E-18	-1.369710E-18
5.280000E+03	-1.677116E-18	-1.341484E-18
5.290000E+03	-1.641155E-18	-1.312010E-18
5.300000E+03	-1.603630E-18	-1.281307E-18
5.310000E+03	-1.564467E-18	-1.249317E-18
5.320000E+03	-1.523685E-18	-1.216058E-18
5.330000E+03	-1.481211E-18	-1.181476E-18
5.340000E+03	-1.437051E-18	-1.145579E-18
5.350000E+03	-1.391179E-18	-1.108349E-18
5.360000E+03	-1.343559E-18	-1.069761E-18
5.370000E+03	-1.294197E-18	-1.029823E-18
5.380000E+03	-1.243031E-18	-9.884894E-19
5.390000E+03	-1.190082E-18	-9.457804E-19
5.400000E+03	-1.135318E-18	-9.016744E-19
5.410000E+03	-1.078721E-18	-8.561619E-19
5.420000E+03	-1.020276E-18	-8.092342E-19
5.430000E+03	-9.599661E-19	-7.608828E-19
5.440000E+03	-8.977677E-19	-7.110932E-19
5.450000E+03	-8.336683E-19	-6.598601E-19
5.460000E+03	-7.676550E-19	-6.071778E-19
5.470000E+03	-6.997155E-19	-5.530416E-19
5.480000E+03	-6.298309E-19	-4.974414E-19
5.490000E+03	-5.579850E-19	-4.403695E-19
5.500000E+03	-4.841741E-19	-3.818283E-19
5.510000E+03	-4.083836E-19	-3.218116E-19
5.520000E+03	-3.306017E-19	-2.603156E-19
5.530000E+03	-2.508199E-19	-1.973394E-19
5.540000E+03	-1.690368E-19	-1.328877E-19
5.550000E+03	-8.524588E-20	-6.696117E-20
5.560000E+03	5.521603E-22	4.333671E-22
5.570000E+03	8.835611E-20	6.928881E-20
5.580000E+03	1.781600E-19	1.395941E-19
5.590000E+03	2.699587E-19	2.113388E-19
5.600000E+03	3.637381E-19	2.845051E-19
5.610000E+03	4.594879E-19	3.590784E-19
5.620000E+03	5.571936E-19	4.350404E-19
5.630000E+03	6.568314E-19	5.123656E-19
5.640000E+03	7.583776E-19	5.910286E-19
5.650000E+03	8.618146E-19	6.710084E-19
5.660000E+03	9.671157E-19	7.522771E-19
5.670000E+03	1.074240E-18	8.347954E-19
5.680000E+03	1.183163E-18	9.185370E-19
5.690000E+03	1.293861E-18	1.003476E-18
5.700000E+03	1.406269E-18	1.089555E-18
5.710000E+03	1.520356E-18	1.176742E-18
5.720000E+03	1.636093E-18	1.265007E-18
5.730000E+03	1.753436E-18	1.354308E-18
5.740000E+03	1.872335E-18	1.444599E-18
5.750000E+03	1.992741E-18	1.535835E-18
5.760000E+03	2.114599E-18	1.627965E-18
5.770000E+03	2.237877E-18	1.720958E-18
5.780000E+03	2.362496E-18	1.814743E-18
5.790000E+03	2.488448E-18	1.909309E-18
5.800000E+03	2.615651E-18	2.004583E-18
5.810000E+03	2.744044E-18	2.100513E-18
5.820000E+03	2.873628E-18	2.197090E-18
5.830000E+03	3.004284E-18	2.294216E-18
5.840000E+03	3.135985E-18	2.391863E-18
5.850000E+03	3.268708E-18	2.490007E-18
5.860000E+03	3.402367E-18	2.588572E-18
5.870000E+03	3.536944E-18	2.687539E-18
5.880000E+03	3.672354E-18	2.786835E-18
5.890000E+03	3.808631E-18	2.886479E-18
5.900000E+03	3.945699E-18	2.986404E-18
5.910000E+03	4.083519E-18	3.086576E-18
5.920000E+03	4.222106E-18	3.186996E-18
5.930000E+03	4.361389E-18	3.287605E-18
5.940000E+03	4.501391E-18	3.388411E-18
5.950000E+03	4.642042E-18	3.489354E-18
5.960000E+03	4.783373E-18	3.590450E-18
5.970000E+03	4.925371E-18	3.691682E-18
5.980000E+03	5.068024E-18	3.793032E-18
5.990000E+03	5.211259E-18	3.894439E-18
6.000000E+03	5.355121E-18	3.995928E-18
6.010000E+03	5.499601E-18	4.097484E-18
6.020000E+03	5.644621E-18	4.199041E-18
6.030000E+03	5.790233E-18	4.300631E-18
6.040000E+03	5.936355E-18	4.402183E-18
6.050000E+03	6.082895E-18	4.503623E-18
6.060000E+03	6.229978E-18	4.605034E-18
6.070000E+03	6.377435E-18	4.706284E-18
6.080000E+03	6.525315E-18	4.807401E-18
6.090000E+03	6.673431E-18	4.908241E-18
6.100000E+03	6.821828E-18	5.008827E-18
6.110000E+03	6.970382E-18	5.109062E-18
6.120000E+03	7.119049E-18	5.208907E-18
6.130000E+03	7.267779E-18	5.308319E-18
6.140000E+03	7.416430E-18	5.407186E-18
6.150000E+03	7.564940E-18	5.505458E-18
6.160000E+03	7.713245E-18	5.603081E-18
6.170000E+03	7.861276E-18	5.700000E-18
6.180000E+03	8.008965E-18	5.796160E-18
6.190000E+03	8.156130E-18	5.891425E-18
6.200000E+03	8.302798E-18	5.985807E-18
6.210000E+03	8.448884E-18	6.079244E-18
6.220000E+03	8.594309E-18	6.171672E-18
6.230000E+03	8.739097E-18	6.263106E-18
6.240000E+03	8.883289E-18	6.353570E-18
6.250000E+03	9.026926E-18	6.443090E-18
6.260000E+03	9.170061E-18	6.531699E-18
6.270000E+03	9.312756E-18	6.619436E-18
6.280000E+03	9.455209E-18	6.706437E-18
6.290000E+03	9.597244E-18	6.792573E-18
6.300000E+03	9.739344E-18	6.878178E-18
6.310000E+03	9.881356E-18	6.963139E-18
6.320000E+03	1.002352E-17	7.047619E-18
6.330000E+03	1.016598E-17	7.131706E-18
6.340000E+03	1.030887E-17	7.215489E-18
6.350000E+03	1.045219E-17	7.298961E-18
6.360000E+03	1.059610E-17	7.382224E-18
6.370000E+03	1.074077E-17	7.465387E-18
6.380000E+03	1.088623E-17	7.548455E-18
6.390000E+03	1.103250E-17	7.631435E-18
6.400000E+03	1.117977E-17	7.714449E-18
6.410000E+03	1.132775E-17	7.797282E-18
6.420000E+03	1.147647E-17	7.879938E-18
6.430000E+03	1.162577E-17	7.962306E-18
6.440000E+03	1.177531E-17	8.044143E-18
6.450000E+03	1.192528E-17	8.125561E-18
6.460000E+03	1.207531E-17	8.206311E-18
6.470000E+03	1.222559E-17	8.286504E-18
6.480000E+03	1.237611E-17	8.366131E-18
6.490000E+03	1.252668E-17	8.445057E-18
6.500000E+03	1.267731E-17	8.523272E-18
6.510000E+03	1.282798E-17	8.600764E-18
6.520000E+03	1.297868E-17	8.677522E-18
6.530000E+03	1.312943E-17	8.753540E-18
6.540000E+03	1.328043E-17	8.828945E-18
6.550000E+03	1.343146E-17	8.903596E-18
6.560000E+03	1.358232E-17	8.977342E-18
6.570000E+03	1.373343E-17	9.050459E-18
6.580000E+03	1.388435E-17	9.122651E-18
6.590000E+03	1.403531E-17	9.194056E-18
6.600000E+03	1.418629E-17	9.264664E-18
6.610000E+03	1.433731E-17	9.334471E-18
6.620000E+03	1.448836E-17	9.403470E-18
6.630000E+03	1.463920E-17	9.471496E-18
6.640000E+03	1.479006E-17	9.538698E-18
6.650000E+03	1.494069E-17	9.604907E-18
6.660000E+03	1.509135E-17	9.670276E-18
6.670000E+03	1.524176E-17	9.734634E-18
6.680000E+03	1.539193E-17	9.797973E-18
6.690000E+03	1.554210E-17	9.860449E-18
6.700000E+03	1.569229E-17	9.922059E-18
6.710000E+03	1.584195E-17	9.982460E-18
6.720000E+03	1.599162E-17	1.004199E-17
6.730000E+03	1.614075E-17	1.010029E-17
6.740000E+03	1.628989E-17	1.015771E-17
6.750000E+03	1.643877E-17	1.021407E-17
6.760000E+03	1.658710E-17	1.026919E-17
6.770000E+03	1.673546E-17	1.032344E-17
6.780000E+03	1.688327E-17	1.037644E-17
6.790000E+03	1.703083E-17	1.042839E-17
6.800000E+03	1.717815E-17	1.047929E-17
6.810000E+03	1.732525E-17	1.052913E-17
6.820000E+03	1.747181E-17	1.057774E-17
6.830000E+03	1.761815E-17	1.062531E-17
6.840000E+03	1.776397E-17	1.067166E-17
6.850000E+03	1.790960E-17	1.071697E-17
6.860000E+03	1.805472E-17	1.076106E-17
6.870000E+03	1.819932E-17	1.080394E-17
6.880000E+03	1.834377E-17	1.084580E-17
6.890000E+03	1.848737E-17	1.088626E-17
6.900000E+03	1.863082E-17	1.092572E-17
6.910000E+03	1.877379E-17	1.096398E-17
6.920000E+03	1.891629E-17	1.100106E-17
6.930000E+03	1.905832E-17	1.103697E-17
6.940000E+03	1.919989E-17	1.107171E-17
6.950000E+03	1.934065E-17	1.110508E-17
6.960000E+03	1.948097E-17	1.113730E-17
6.970000E+03	1.962087E-17	1.116840E-17
6.980000E+03	1.976037E-17	1.119838E-17
6.990000E+03	1.989872E-17	1.122683E-17
7.000000E+03	2.003709E-17	1.125442E-17
7.010000E+03	2.017435E-17	1.128051E-17
7.020000E+03	2.031130E-17	1.130558E-17
7.030000E+03	2.044758E-17	1.132941E-17
7.040000E+03	2.058322E-17	1.135205E-17
7.050000E+03	2.071825E-17	1.137351E-17
7.060000E+03	2.085272E-17	1.139384E-17
7.070000E+03	2.098625E-17	1.141284E-17
7.080000E+03	2.111930E-17	1.143077E-17
7.090000E+03	2.125194E-17	1.144768E-17
7.100000E+03	2.138379E-17	1.146337E-17
7.110000E+03	2.151534E-17	1.147814E-17
7.120000E+03	2.164623E-17	1.149179E-17
7.130000E+03	2.177651E-17	1.150436E-17
7.140000E+03	2.190627E-17	1.151592E-17
7.150000E+03	2.203601E-17	1.152676E-17
7.160000E+03	2.216492E-17	1.153644E-17
7.170000E+03	2.229307E-17	1.154503E-17
7.180000E+03	2.242145E-17	1.155307E-17
7.190000E+03	2.254922E-17	1.156012E-17
7.200000E+03	2.267646E-17	1.156626E-17
7.210000E+03	2.280372E-17	1.157178E-17
7.220000E+03	2.293062E-17	1.157649E-17
7.230000E+03	2.305723E-17	1.158046E-17
7.240000E+03	2.318363E-17	1.158376E-17
7.250000E+03	2.330990E-17	1.158642E-17
7.260000E+03	2.343662E-17	1.158877E-17
7.270000E+03	2.356285E-17	1.159035E-17
7.280000E+03	2.368969E-17	1.159173E-17
7.290000E+03	2.381667E-17	1.159269E-17
7.300000E+03	2.394389E-17	1.159331E-17
7.310000E+03	2.407189E-17	1.159386E-17
7.320000E+03	2.420021E-17	1.159414E-17
7.330000E+03	2.432942E-17	1.159445E-17
7.340000E+03	2.445955E-17	1.159481E-17
7.350000E+03	2.459121E-17	1.159553E-17
7.360000E+03	2.472443E-17	1.159665E-17
7.370000E+03	2.485978E-17	1.159844E-17
7.380000E+03	2.499674E-17	1.160067E-17
7.390000E+03	2.513704E-17	1.160416E-17
7.400000E+03	2.528072E-17	1.160893E-17
7.410000E+03	2.542724E-17	1.161475E-17
7.420000E+03	2.557835E-17	1.162242E-17
7.430000E+03	2.573353E-17	1.163169E-17
7.440000E+03	2.589339E-17	1.164286E-17
7.450000E+03	2.605733E-17	1.165566E-17
7.460000E+03	2.622596E-17	1.167036E-17
7.470000E+03	2.639742E-17	1.168615E-17
7.480000E+03	2.657287E-17	1.170355E-17
7.490000E+03	2.675042E-17	1.172175E-17
7.500000E+03	2.693058E-17	1.174100E-17
7.510000E+03	2.711261E-17	1.176099E-17
7.520000E+03	2.729579E-17	1.178145E-17
7.530000E+03	2.748063E-17	1.180263E-17
7.540000E+03	2.766505E-17	1.182367E-17
7.550000E+03	2.785024E-17	1.184513E-17
7.560000E+03	2.803538E-17	1.186669E-17
7.570000E+03	2.822033E-17	1.188834E-17
7.580000E+03	2.840424E-17	1.190977E-17
7.590000E+03	2.858763E-17	1.193125E-17
7.600000E+03	2.876964E-17	1.195245E-17
7.610000E+03	2.895003E-17	1.197330E-17
7.620000E+03	2.912932E-17	1.199399E-17
