#wls	flux	fluxerr
1.600000E+03	2.042248E-16	3.953376E-17
1.640000E+03	2.103154E-16	4.071238E-17
1.680000E+03	2.160583E-16	4.182364E-17
1.720000E+03	2.214147E-16	4.286001E-17
1.760000E+03	2.262553E-16	4.379648E-17
1.800000E+03	2.305752E-16	4.463206E-17
1.840000E+03	2.342393E-16	4.534063E-17
1.880000E+03	2.372162E-16	4.591611E-17
1.920000E+03	2.394319E-16	4.634417E-17
1.960000E+03	2.407768E-16	4.660362E-17
2.000000E+03	2.412242E-16	4.668926E-17
2.040000E+03	2.406972E-16	4.658624E-17
2.080000E+03	2.391320E-16	4.628222E-17
2.120000E+03	2.364815E-16	4.576811E-17
2.160000E+03	2.326887E-16	4.503287E-17
2.200000E+03	2.276702E-16	4.406039E-17
2.240000E+03	2.213514E-16	4.283623E-17
2.280000E+03	2.137522E-16	4.136433E-17
2.320000E+03	2.050280E-16	3.967472E-17
2.360000E+03	1.954569E-16	3.782129E-17
2.400000E+03	1.852582E-16	3.584648E-17
2.440000E+03	1.746291E-16	3.378846E-17
2.480000E+03	1.637083E-16	3.167410E-17
2.520000E+03	1.526420E-16	2.953171E-17
2.560000E+03	1.415470E-16	2.738388E-17
2.600000E+03	1.305452E-16	2.525423E-17
2.640000E+03	1.197343E-16	2.316164E-17
2.680000E+03	1.092065E-16	2.112398E-17
2.720000E+03	9.904693E-17	1.915773E-17
2.760000E+03	8.932281E-17	1.727585E-17
2.800000E+03	8.009519E-17	1.549019E-17
2.840000E+03	7.141415E-17	1.381040E-17
2.880000E+03	6.332346E-17	1.224495E-17
2.920000E+03	5.585887E-17	1.080074E-17
2.960000E+03	4.904318E-17	9.482166E-18
3.000000E+03	4.288625E-17	8.291120E-18
3.010000E+03	4.144951E-17	8.013197E-18
3.020000E+03	4.005257E-17	7.742978E-18
3.030000E+03	3.869666E-17	7.480701E-18
3.040000E+03	3.737941E-17	7.225904E-18
3.050000E+03	3.610182E-17	6.978786E-18
3.060000E+03	3.486320E-17	6.739208E-18
3.070000E+03	3.366349E-17	6.507160E-18
3.080000E+03	3.250053E-17	6.282223E-18
3.090000E+03	3.137562E-17	6.064650E-18
3.100000E+03	3.028663E-17	5.854029E-18
3.110000E+03	2.923403E-17	5.650448E-18
3.120000E+03	2.821697E-17	5.453744E-18
3.130000E+03	2.723405E-17	5.263646E-18
3.140000E+03	2.628554E-17	5.080207E-18
3.150000E+03	2.537009E-17	4.903163E-18
3.160000E+03	2.448734E-17	4.732448E-18
3.170000E+03	2.363646E-17	4.567898E-18
3.180000E+03	2.281665E-17	4.409358E-18
3.190000E+03	2.202746E-17	4.256743E-18
3.200000E+03	2.126808E-17	4.109894E-18
3.210000E+03	2.053732E-17	3.968583E-18
3.220000E+03	1.983515E-17	3.832801E-18
3.230000E+03	1.916038E-17	3.702319E-18
3.240000E+03	1.851259E-17	3.577057E-18
3.250000E+03	1.789096E-17	3.456855E-18
3.260000E+03	1.729447E-17	3.341515E-18
3.270000E+03	1.672291E-17	3.230997E-18
3.280000E+03	1.617498E-17	3.125051E-18
3.290000E+03	1.565047E-17	3.023633E-18
3.300000E+03	1.514860E-17	2.926593E-18
3.310000E+03	1.466820E-17	2.833706E-18
3.320000E+03	1.420899E-17	2.744916E-18
3.330000E+03	1.377022E-17	2.660080E-18
3.340000E+03	1.335100E-17	2.579024E-18
3.350000E+03	1.295066E-17	2.501618E-18
3.360000E+03	1.256852E-17	2.427732E-18
3.370000E+03	1.220393E-17	2.357239E-18
3.380000E+03	1.185624E-17	2.290014E-18
3.390000E+03	1.152483E-17	2.225938E-18
3.400000E+03	1.120895E-17	2.164863E-18
3.410000E+03	1.090789E-17	2.106652E-18
3.420000E+03	1.062136E-17	2.051252E-18
3.430000E+03	1.034842E-17	1.998478E-18
3.440000E+03	1.008869E-17	1.948259E-18
3.450000E+03	9.841553E-18	1.900474E-18
3.460000E+03	9.606543E-18	1.855033E-18
3.470000E+03	9.382981E-18	1.811805E-18
3.480000E+03	9.170345E-18	1.770689E-18
3.490000E+03	8.968242E-18	1.731608E-18
3.500000E+03	8.776096E-18	1.694453E-18
3.510000E+03	8.593562E-18	1.659154E-18
3.520000E+03	8.419933E-18	1.625577E-18
3.530000E+03	8.254924E-18	1.593666E-18
3.540000E+03	8.097997E-18	1.563317E-18
3.550000E+03	7.948738E-18	1.534449E-18
3.560000E+03	7.806759E-18	1.506988E-18
3.570000E+03	7.671541E-18	1.480834E-18
3.580000E+03	7.542910E-18	1.455952E-18
3.590000E+03	7.420473E-18	1.432268E-18
3.600000E+03	7.303860E-18	1.409708E-18
3.610000E+03	7.192942E-18	1.388249E-18
3.620000E+03	7.087312E-18	1.367812E-18
3.630000E+03	6.986727E-18	1.348349E-18
3.640000E+03	6.890957E-18	1.329817E-18
3.650000E+03	6.799783E-18	1.312172E-18
3.660000E+03	6.712996E-18	1.295375E-18
3.670000E+03	6.630398E-18	1.279387E-18
3.680000E+03	6.551858E-18	1.264182E-18
3.690000E+03	6.477249E-18	1.249737E-18
3.700000E+03	6.406389E-18	1.236016E-18
3.710000E+03	6.339326E-18	1.223028E-18
3.720000E+03	6.275823E-18	1.210727E-18
3.730000E+03	6.215871E-18	1.199112E-18
3.740000E+03	6.159349E-18	1.188159E-18
3.750000E+03	6.106189E-18	1.177855E-18
3.760000E+03	6.056424E-18	1.168207E-18
3.770000E+03	6.009830E-18	1.159170E-18
3.780000E+03	5.966441E-18	1.150752E-18
3.790000E+03	5.926229E-18	1.142946E-18
3.800000E+03	5.889024E-18	1.135722E-18
3.810000E+03	5.854855E-18	1.129082E-18
3.820000E+03	5.823691E-18	1.123022E-18
3.830000E+03	5.795412E-18	1.117519E-18
3.840000E+03	5.769946E-18	1.112558E-18
3.850000E+03	5.747360E-18	1.108152E-18
3.860000E+03	5.727487E-18	1.104270E-18
3.870000E+03	5.710347E-18	1.100914E-18
3.880000E+03	5.695868E-18	1.098071E-18
3.890000E+03	5.684024E-18	1.095736E-18
3.900000E+03	5.674789E-18	1.093903E-18
3.910000E+03	5.668048E-18	1.092551E-18
3.920000E+03	5.663777E-18	1.091675E-18
3.930000E+03	5.661996E-18	1.091278E-18
3.940000E+03	5.662641E-18	1.091348E-18
3.950000E+03	5.665640E-18	1.091871E-18
3.960000E+03	5.670975E-18	1.092844E-18
3.970000E+03	5.678582E-18	1.094255E-18
3.980000E+03	5.688440E-18	1.096098E-18
3.990000E+03	5.700532E-18	1.098371E-18
4.000000E+03	5.714839E-18	1.101071E-18
4.010000E+03	5.731259E-18	1.104176E-18
4.020000E+03	5.749775E-18	1.107684E-18
4.030000E+03	5.770374E-18	1.111593E-18
4.040000E+03	5.793045E-18	1.115900E-18
4.050000E+03	5.817730E-18	1.120594E-18
4.060000E+03	5.844376E-18	1.125665E-18
4.070000E+03	5.872975E-18	1.131110E-18
4.080000E+03	5.903471E-18	1.136920E-18
4.090000E+03	5.935860E-18	1.143093E-18
4.100000E+03	5.970089E-18	1.149619E-18
4.110000E+03	6.006153E-18	1.156498E-18
4.120000E+03	6.044003E-18	1.163718E-18
4.130000E+03	6.083587E-18	1.171272E-18
4.140000E+03	6.124904E-18	1.179157E-18
4.150000E+03	6.167903E-18	1.187365E-18
4.160000E+03	6.212584E-18	1.195894E-18
4.170000E+03	6.258852E-18	1.204728E-18
4.180000E+03	6.306705E-18	1.213865E-18
4.190000E+03	6.356046E-18	1.223287E-18
4.200000E+03	6.406926E-18	1.233002E-18
4.210000E+03	6.459245E-18	1.242994E-18
4.220000E+03	6.513007E-18	1.253260E-18
4.230000E+03	6.568061E-18	1.263774E-18
4.240000E+03	6.624459E-18	1.274544E-18
4.250000E+03	6.682049E-18	1.285541E-18
4.260000E+03	6.740880E-18	1.296775E-18
4.270000E+03	6.800798E-18	1.308216E-18
4.280000E+03	6.861696E-18	1.319843E-18
4.290000E+03	6.923623E-18	1.331665E-18
4.300000E+03	6.986363E-18	1.343642E-18
4.310000E+03	7.049967E-18	1.355783E-18
4.320000E+03	7.114211E-18	1.368044E-18
4.330000E+03	7.179145E-18	1.380435E-18
4.340000E+03	7.244650E-18	1.392934E-18
4.350000E+03	7.310607E-18	1.405517E-18
4.360000E+03	7.377008E-18	1.418182E-18
4.370000E+03	7.443786E-18	1.430918E-18
4.380000E+03	7.510996E-18	1.443734E-18
4.390000E+03	7.578512E-18	1.456606E-18
4.400000E+03	7.646453E-18	1.469557E-18
4.410000E+03	7.714817E-18	1.482586E-18
4.420000E+03	7.783607E-18	1.495695E-18
4.430000E+03	7.852827E-18	1.508883E-18
4.440000E+03	7.922544E-18	1.522164E-18
4.450000E+03	7.992705E-18	1.535527E-18
4.460000E+03	8.063383E-18	1.548987E-18
4.470000E+03	8.134588E-18	1.562544E-18
4.480000E+03	8.206338E-18	1.576204E-18
4.490000E+03	8.278576E-18	1.589953E-18
4.500000E+03	8.351319E-18	1.603797E-18
4.510000E+03	8.424512E-18	1.617724E-18
4.520000E+03	8.498241E-18	1.631750E-18
4.530000E+03	8.572380E-18	1.645852E-18
4.540000E+03	8.646946E-18	1.660033E-18
4.550000E+03	8.721959E-18	1.674296E-18
4.560000E+03	8.797288E-18	1.688616E-18
4.570000E+03	8.873028E-18	1.703011E-18
4.580000E+03	8.949048E-18	1.717456E-18
4.590000E+03	9.025373E-18	1.731957E-18
4.600000E+03	9.101871E-18	1.746487E-18
4.610000E+03	9.178646E-18	1.761066E-18
4.620000E+03	9.255650E-18	1.775686E-18
4.630000E+03	9.332757E-18	1.790321E-18
4.640000E+03	9.409999E-18	1.804979E-18
4.650000E+03	9.487414E-18	1.819666E-18
4.660000E+03	9.564966E-18	1.834375E-18
4.670000E+03	9.642527E-18	1.849082E-18
4.680000E+03	9.720321E-18	1.863829E-18
4.690000E+03	9.798403E-18	1.878628E-18
4.700000E+03	9.876664E-18	1.893457E-18
4.710000E+03	9.955167E-18	1.908328E-18
4.720000E+03	1.003398E-17	1.923255E-18
4.730000E+03	1.011292E-17	1.938200E-18
4.740000E+03	1.019204E-17	1.953178E-18
4.750000E+03	1.027125E-17	1.968166E-18
4.760000E+03	1.035062E-17	1.983182E-18
4.770000E+03	1.043014E-17	1.998222E-18
4.780000E+03	1.050971E-17	2.013267E-18
4.790000E+03	1.058942E-17	2.028334E-18
4.800000E+03	1.066915E-17	2.043403E-18
4.810000E+03	1.074902E-17	2.058490E-18
4.820000E+03	1.082890E-17	2.073577E-18
4.830000E+03	1.090880E-17	2.088662E-18
4.840000E+03	1.098871E-17	2.103743E-18
4.850000E+03	1.106872E-17	2.118840E-18
4.860000E+03	1.114873E-17	2.133930E-18
4.870000E+03	1.122872E-17	2.149014E-18
4.880000E+03	1.130859E-17	2.164068E-18
4.890000E+03	1.138853E-17	2.179131E-18
4.900000E+03	1.146842E-17	2.194179E-18
4.910000E+03	1.154824E-17	2.209209E-18
4.920000E+03	1.162787E-17	2.224197E-18
4.930000E+03	1.170738E-17	2.239158E-18
4.940000E+03	1.178665E-17	2.254067E-18
4.950000E+03	1.186564E-17	2.268918E-18
4.960000E+03	1.194444E-17	2.283725E-18
4.970000E+03	1.202288E-17	2.298459E-18
4.980000E+03	1.210093E-17	2.313113E-18
4.990000E+03	1.217844E-17	2.327659E-18
5.000000E+03	1.225546E-17	2.342106E-18
5.010000E+03	1.233194E-17	2.356444E-18
5.020000E+03	1.240772E-17	2.370643E-18
5.030000E+03	1.248274E-17	2.384690E-18
5.040000E+03	1.255695E-17	2.398577E-18
5.050000E+03	1.263013E-17	2.412263E-18
5.060000E+03	1.270236E-17	2.425761E-18
5.070000E+03	1.277357E-17	2.439059E-18
5.080000E+03	1.284346E-17	2.452099E-18
5.090000E+03	1.291206E-17	2.464886E-18
5.100000E+03	1.297930E-17	2.477410E-18
5.110000E+03	1.304501E-17	2.489636E-18
5.120000E+03	1.310909E-17	2.501544E-18
5.130000E+03	1.317148E-17	2.513126E-18
5.140000E+03	1.323213E-17	2.524369E-18
5.150000E+03	1.329081E-17	2.535232E-18
5.160000E+03	1.334759E-17	2.545727E-18
5.170000E+03	1.340214E-17	2.555790E-18
5.180000E+03	1.345450E-17	2.565432E-18
5.190000E+03	1.350447E-17	2.574612E-18
5.200000E+03	1.355196E-17	2.583315E-18
5.210000E+03	1.359688E-17	2.591522E-18
5.220000E+03	1.363912E-17	2.599215E-18
5.230000E+03	1.367836E-17	2.606331E-18
5.240000E+03	1.371473E-17	2.612895E-18
5.250000E+03	1.374801E-17	2.618865E-18
5.260000E+03	1.377807E-17	2.624219E-18
5.270000E+03	1.380470E-17	2.628915E-18
5.280000E+03	1.382777E-17	2.632930E-18
5.290000E+03	1.384721E-17	2.636247E-18
5.300000E+03	1.386291E-17	2.638851E-18
5.310000E+03	1.387479E-17	2.640723E-18
5.320000E+03	1.388262E-17	2.641821E-18
5.330000E+03	1.388664E-17	2.642192E-18
5.340000E+03	1.388651E-17	2.641770E-18
5.350000E+03	1.388220E-17	2.640550E-18
5.360000E+03	1.387398E-17	2.638582E-18
5.370000E+03	1.386155E-17	2.635813E-18
5.380000E+03	1.384522E-17	2.632301E-18
5.390000E+03	1.382488E-17	2.628023E-18
5.400000E+03	1.380071E-17	2.623017E-18
5.410000E+03	1.377265E-17	2.617270E-18
5.420000E+03	1.374107E-17	2.610851E-18
5.430000E+03	1.370590E-17	2.603752E-18
5.440000E+03	1.366742E-17	2.596022E-18
5.450000E+03	1.362546E-17	2.587632E-18
5.460000E+03	1.358034E-17	2.578639E-18
5.470000E+03	1.353205E-17	2.569046E-18
5.480000E+03	1.348064E-17	2.558861E-18
5.490000E+03	1.342643E-17	2.548144E-18
5.500000E+03	1.336935E-17	2.536883E-18
5.510000E+03	1.330947E-17	2.525092E-18
5.520000E+03	1.324699E-17	2.512811E-18
5.530000E+03	1.318188E-17	2.500030E-18
5.540000E+03	1.311451E-17	2.486821E-18
5.550000E+03	1.304468E-17	2.473148E-18
5.560000E+03	1.297291E-17	2.459110E-18
5.570000E+03	1.289929E-17	2.444722E-18
5.580000E+03	1.282393E-17	2.430007E-18
5.590000E+03	1.274704E-17	2.415003E-18
5.600000E+03	1.266883E-17	2.399753E-18
5.610000E+03	1.258940E-17	2.384275E-18
5.620000E+03	1.250921E-17	2.368654E-18
5.630000E+03	1.242821E-17	2.352882E-18
5.640000E+03	1.234681E-17	2.337039E-18
5.650000E+03	1.226497E-17	2.321115E-18
5.660000E+03	1.218309E-17	2.305186E-18
5.670000E+03	1.210133E-17	2.289282E-18
5.680000E+03	1.201972E-17	2.273410E-18
5.690000E+03	1.193850E-17	2.257616E-18
5.700000E+03	1.185783E-17	2.241928E-18
5.710000E+03	1.177793E-17	2.226387E-18
5.720000E+03	1.169893E-17	2.211022E-18
5.730000E+03	1.162078E-17	2.195820E-18
5.740000E+03	1.154385E-17	2.180850E-18
5.750000E+03	1.146821E-17	2.166129E-18
5.760000E+03	1.139383E-17	2.151648E-18
5.770000E+03	1.132091E-17	2.137445E-18
5.780000E+03	1.124964E-17	2.123557E-18
5.790000E+03	1.118009E-17	2.109996E-18
5.800000E+03	1.111221E-17	2.096752E-18
5.810000E+03	1.104617E-17	2.083859E-18
5.820000E+03	1.098217E-17	2.071352E-18
5.830000E+03	1.092024E-17	2.059240E-18
5.840000E+03	1.086034E-17	2.047511E-18
5.850000E+03	1.080264E-17	2.036198E-18
5.860000E+03	1.074718E-17	2.025311E-18
5.870000E+03	1.069414E-17	2.014880E-18
5.880000E+03	1.064356E-17	2.004914E-18
5.890000E+03	1.059536E-17	1.995400E-18
5.900000E+03	1.054971E-17	1.986367E-18
5.910000E+03	1.050653E-17	1.977799E-18
5.920000E+03	1.046621E-17	1.969768E-18
5.930000E+03	1.042841E-17	1.962215E-18
5.940000E+03	1.039328E-17	1.955164E-18
5.950000E+03	1.036095E-17	1.948641E-18
5.960000E+03	1.033133E-17	1.942626E-18
5.970000E+03	1.030442E-17	1.937121E-18
5.980000E+03	1.028034E-17	1.932147E-18
5.990000E+03	1.025896E-17	1.927681E-18
6.000000E+03	1.024041E-17	1.923744E-18
6.010000E+03	1.022442E-17	1.920289E-18
6.020000E+03	1.021122E-17	1.917356E-18
6.030000E+03	1.020056E-17	1.914897E-18
6.040000E+03	1.019263E-17	1.912950E-18
6.050000E+03	1.018706E-17	1.911443E-18
6.060000E+03	1.018406E-17	1.910415E-18
6.070000E+03	1.018345E-17	1.909835E-18
6.080000E+03	1.018521E-17	1.909695E-18
6.090000E+03	1.018905E-17	1.909942E-18
6.100000E+03	1.019515E-17	1.910612E-18
6.110000E+03	1.020312E-17	1.911626E-18
6.120000E+03	1.021314E-17	1.913021E-18
6.130000E+03	1.022477E-17	1.914717E-18
6.140000E+03	1.023798E-17	1.916700E-18
6.150000E+03	1.025255E-17	1.918937E-18
6.160000E+03	1.026843E-17	1.921413E-18
6.170000E+03	1.028516E-17	1.924045E-18
6.180000E+03	1.030267E-17	1.926818E-18
6.190000E+03	1.032074E-17	1.929691E-18
6.200000E+03	1.033929E-17	1.932650E-18
6.210000E+03	1.035824E-17	1.935678E-18
6.220000E+03	1.037776E-17	1.938808E-18
6.230000E+03	1.039817E-17	1.942101E-18
6.240000E+03	1.041955E-17	1.945567E-18
6.250000E+03	1.044208E-17	1.949245E-18
6.260000E+03	1.046598E-17	1.953173E-18
6.270000E+03	1.049134E-17	1.957369E-18
6.280000E+03	1.051839E-17	1.961874E-18
6.290000E+03	1.054724E-17	1.966707E-18
6.300000E+03	1.057798E-17	1.971889E-18
6.310000E+03	1.061089E-17	1.977468E-18
6.320000E+03	1.064594E-17	1.983439E-18
6.330000E+03	1.068341E-17	1.989855E-18
6.340000E+03	1.072315E-17	1.996687E-18
6.350000E+03	1.076531E-17	2.003962E-18
6.360000E+03	1.080989E-17	2.011680E-18
6.370000E+03	1.085705E-17	2.019870E-18
6.380000E+03	1.090665E-17	2.028504E-18
6.390000E+03	1.095869E-17	2.037585E-18
6.400000E+03	1.101303E-17	2.047085E-18
6.410000E+03	1.106937E-17	2.056946E-18
6.420000E+03	1.112753E-17	2.067137E-18
6.430000E+03	1.118752E-17	2.077658E-18
6.440000E+03	1.124933E-17	2.088508E-18
6.450000E+03	1.131297E-17	2.099686E-18
6.460000E+03	1.137861E-17	2.111225E-18
6.470000E+03	1.144642E-17	2.123155E-18
6.480000E+03	1.151643E-17	2.135484E-18
6.490000E+03	1.158847E-17	2.148177E-18
6.500000E+03	1.166291E-17	2.161304E-18
6.510000E+03	1.173979E-17	2.174870E-18
6.520000E+03	1.181892E-17	2.188842E-18
6.530000E+03	1.190055E-17	2.203263E-18
6.540000E+03	1.198469E-17	2.218137E-18
6.550000E+03	1.207118E-17	2.233431E-18
6.560000E+03	1.216005E-17	2.249152E-18
6.570000E+03	1.225170E-17	2.265374E-18
6.580000E+03	1.234560E-17	2.281997E-18
6.590000E+03	1.244216E-17	2.299097E-18
6.600000E+03	1.254142E-17	2.316679E-18
6.610000E+03	1.264300E-17	2.334676E-18
6.620000E+03	1.274735E-17	2.353167E-18
6.630000E+03	1.285407E-17	2.372081E-18
6.640000E+03	1.296361E-17	2.391497E-18
6.650000E+03	1.307559E-17	2.411346E-18
6.660000E+03	1.319025E-17	2.431671E-18
6.670000E+03	1.330761E-17	2.452477E-18
6.680000E+03	1.342748E-17	2.473726E-18
6.690000E+03	1.354988E-17	2.495423E-18
6.700000E+03	1.367507E-17	2.517614E-18
6.710000E+03	1.380286E-17	2.540264E-18
6.720000E+03	1.393325E-17	2.563373E-18
6.730000E+03	1.406629E-17	2.586949E-18
6.740000E+03	1.420198E-17	2.610991E-18
6.750000E+03	1.434037E-17	2.635507E-18
6.760000E+03	1.448147E-17	2.660500E-18
6.770000E+03	1.462506E-17	2.685927E-18
6.780000E+03	1.477141E-17	2.711839E-18
6.790000E+03	1.492054E-17	2.738239E-18
6.800000E+03	1.507223E-17	2.765083E-18
6.810000E+03	1.522674E-17	2.792421E-18
6.820000E+03	1.538384E-17	2.820211E-18
6.830000E+03	1.554355E-17	2.848451E-18
6.840000E+03	1.570586E-17	2.877145E-18
6.850000E+03	1.587081E-17	2.906295E-18
6.860000E+03	1.603871E-17	2.935958E-18
6.870000E+03	1.620897E-17	2.966028E-18
6.880000E+03	1.638191E-17	2.996560E-18
6.890000E+03	1.655754E-17	3.027556E-18
6.900000E+03	1.673557E-17	3.058962E-18
6.910000E+03	1.691631E-17	3.090835E-18
6.920000E+03	1.709976E-17	3.123175E-18
6.930000E+03	1.728564E-17	3.155928E-18
6.940000E+03	1.747392E-17	3.189089E-18
6.950000E+03	1.766494E-17	3.222718E-18
6.960000E+03	1.785837E-17	3.256759E-18
6.970000E+03	1.805421E-17	3.291205E-18
6.980000E+03	1.825246E-17	3.326057E-18
6.990000E+03	1.845309E-17	3.361313E-18
7.000000E+03	1.865575E-17	3.396906E-18
7.010000E+03	1.886115E-17	3.432963E-18
7.020000E+03	1.906853E-17	3.469347E-18
7.030000E+03	1.927827E-17	3.506127E-18
7.040000E+03	1.948996E-17	3.543225E-18
7.050000E+03	1.970358E-17	3.580641E-18
7.060000E+03	1.991949E-17	3.618435E-18
7.070000E+03	2.013727E-17	3.656535E-18
7.080000E+03	2.035648E-17	3.694858E-18
7.090000E+03	2.057791E-17	3.733548E-18
7.100000E+03	2.080112E-17	3.772523E-18
7.110000E+03	2.102565E-17	3.811701E-18
7.120000E+03	2.125187E-17	3.851146E-18
7.130000E+03	2.147933E-17	3.890779E-18
7.140000E+03	2.170839E-17	3.930664E-18
7.150000E+03	2.193857E-17	3.970713E-18
7.160000E+03	2.217029E-17	4.011001E-18
7.170000E+03	2.240255E-17	4.051350E-18
7.180000E+03	2.263577E-17	4.091831E-18
7.190000E+03	2.287035E-17	4.132521E-18
7.200000E+03	2.310529E-17	4.173234E-18
7.210000E+03	2.334051E-17	4.213958E-18
7.220000E+03	2.357639E-17	4.254763E-18
7.230000E+03	2.381290E-17	4.295641E-18
7.240000E+03	2.404944E-17	4.336483E-18
7.250000E+03	2.428645E-17	4.377370E-18
7.260000E+03	2.452331E-17	4.418192E-18
7.270000E+03	2.475995E-17	4.458931E-18
7.280000E+03	2.499677E-17	4.499663E-18
7.290000E+03	2.523317E-17	4.540281E-18
7.300000E+03	2.546959E-17	4.580861E-18
7.310000E+03	2.570537E-17	4.621285E-18
7.320000E+03	2.594043E-17	4.661539E-18
7.330000E+03	2.617579E-17	4.701806E-18
7.340000E+03	2.641020E-17	4.741865E-18
7.350000E+03	2.664477E-17	4.781912E-18
7.360000E+03	2.687882E-17	4.821824E-18
7.370000E+03	2.711288E-17	4.861699E-18
7.380000E+03	2.734752E-17	4.901637E-18
7.390000E+03	2.758209E-17	4.941523E-18
7.400000E+03	2.781781E-17	4.981575E-18
7.410000E+03	2.805469E-17	5.021794E-18
7.420000E+03	2.829339E-17	5.062300E-18
7.430000E+03	2.853399E-17	5.103104E-18
7.440000E+03	2.877652E-17	5.144213E-18
7.450000E+03	2.902173E-17	5.185759E-18
7.460000E+03	2.926836E-17	5.227518E-18
7.470000E+03	2.951648E-17	5.269500E-18
7.480000E+03	2.976542E-17	5.311589E-18
7.490000E+03	3.001596E-17	5.353921E-18
7.500000E+03	3.026747E-17	5.396382E-18
7.510000E+03	3.051925E-17	5.438852E-18
7.520000E+03	3.077136E-17	5.481337E-18
7.530000E+03	3.102383E-17	5.523845E-18
7.540000E+03	3.127593E-17	5.566246E-18
7.550000E+03	3.152844E-17	5.608678E-18
7.560000E+03	3.177987E-17	5.650876E-18
7.570000E+03	3.203173E-17	5.693109E-18
7.580000E+03	3.228328E-17	5.735247E-18
7.590000E+03	3.253450E-17	5.777286E-18
7.600000E+03	3.278457E-17	5.819078E-18
7.610000E+03	3.303424E-17	5.860761E-18
7.620000E+03	3.328345E-17	5.902323E-18
7.630000E+03	3.353212E-17	5.943747E-18
7.640000E+03	3.377934E-17	5.984876E-18
7.650000E+03	3.402578E-17	6.025827E-18
7.660000E+03	3.427044E-17	6.066426E-18
7.670000E+03	3.451486E-17	6.106943E-18
7.680000E+03	3.475625E-17	6.146884E-18
7.690000E+03	3.499697E-17	6.186673E-18
7.700000E+03	3.523592E-17	6.226111E-18
7.710000E+03	3.547195E-17	6.264995E-18
7.720000E+03	3.570563E-17	6.303430E-18
7.730000E+03	3.593668E-17	6.341365E-18
7.740000E+03	3.616475E-17	6.378741E-18
7.750000E+03	3.638955E-17	6.415505E-18
7.760000E+03	3.661165E-17	6.451761E-18
