#wls	flux	fluxerr
1.600000E+03	1.202863E-16	4.115396E-17
1.640000E+03	1.244076E-16	4.253723E-17
1.680000E+03	1.284326E-16	4.388506E-17
1.720000E+03	1.323046E-16	4.517812E-17
1.760000E+03	1.360138E-16	4.641308E-17
1.800000E+03	1.394957E-16	4.756800E-17
1.840000E+03	1.427081E-16	4.862856E-17
1.880000E+03	1.456298E-16	4.958767E-17
1.920000E+03	1.481882E-16	5.042076E-17
1.960000E+03	1.503461E-16	5.111543E-17
2.000000E+03	1.520423E-16	5.165114E-17
2.040000E+03	1.532402E-16	5.201579E-17
2.080000E+03	1.538626E-16	5.218352E-17
2.120000E+03	1.538520E-16	5.213539E-17
2.160000E+03	1.531522E-16	5.185284E-17
2.200000E+03	1.516759E-16	5.130697E-17
2.240000E+03	1.493546E-16	5.047537E-17
2.280000E+03	1.461824E-16	4.935683E-17
2.320000E+03	1.422060E-16	4.796801E-17
2.360000E+03	1.375627E-16	4.635600E-17
2.400000E+03	1.323660E-16	4.455977E-17
2.440000E+03	1.267161E-16	4.261372E-17
2.480000E+03	1.207184E-16	4.055380E-17
2.520000E+03	1.144390E-16	3.840273E-17
2.560000E+03	1.079544E-16	3.618660E-17
2.600000E+03	1.013307E-16	3.392789E-17
2.640000E+03	9.463775E-17	3.165026E-17
2.680000E+03	8.793367E-17	2.937338E-17
2.720000E+03	8.127781E-17	2.711723E-17
2.760000E+03	7.472652E-17	2.490068E-17
2.800000E+03	6.833282E-17	2.274140E-17
2.840000E+03	6.214755E-17	2.065625E-17
2.880000E+03	5.622028E-17	1.866157E-17
2.920000E+03	5.059532E-17	1.677186E-17
2.960000E+03	4.531125E-17	1.499963E-17
3.000000E+03	4.039678E-17	1.335404E-17
3.010000E+03	3.922927E-17	1.296349E-17
3.020000E+03	3.808526E-17	1.258096E-17
3.030000E+03	3.696642E-17	1.220699E-17
3.040000E+03	3.587181E-17	1.184127E-17
3.050000E+03	3.480209E-17	1.148400E-17
3.060000E+03	3.375779E-17	1.113535E-17
3.070000E+03	3.273729E-17	1.079478E-17
3.080000E+03	3.174246E-17	1.046290E-17
3.090000E+03	3.077172E-17	1.013918E-17
3.100000E+03	2.982607E-17	9.823951E-18
3.110000E+03	2.890467E-17	9.516917E-18
3.120000E+03	2.800731E-17	9.218006E-18
3.130000E+03	2.713488E-17	8.927504E-18
3.140000E+03	2.628610E-17	8.644983E-18
3.150000E+03	2.546232E-17	8.370875E-18
3.160000E+03	2.466184E-17	8.104620E-18
3.170000E+03	2.388589E-17	7.846607E-18
3.180000E+03	2.313332E-17	7.596459E-18
3.190000E+03	2.240474E-17	7.354361E-18
3.200000E+03	2.169945E-17	7.120079E-18
3.210000E+03	2.101754E-17	6.893635E-18
3.220000E+03	2.035870E-17	6.674917E-18
3.230000E+03	1.972262E-17	6.463817E-18
3.240000E+03	1.910863E-17	6.260107E-18
3.250000E+03	1.851706E-17	6.063892E-18
3.260000E+03	1.794721E-17	5.874929E-18
3.270000E+03	1.739898E-17	5.693181E-18
3.280000E+03	1.687166E-17	5.518405E-18
3.290000E+03	1.636482E-17	5.350458E-18
3.300000E+03	1.587824E-17	5.189257E-18
3.310000E+03	1.541118E-17	5.034554E-18
3.320000E+03	1.496339E-17	4.886260E-18
3.330000E+03	1.453432E-17	4.744188E-18
3.340000E+03	1.412304E-17	4.608030E-18
3.350000E+03	1.372945E-17	4.477747E-18
3.360000E+03	1.335283E-17	4.353093E-18
3.370000E+03	1.299266E-17	4.233895E-18
3.380000E+03	1.264842E-17	4.119980E-18
3.390000E+03	1.231928E-17	4.011069E-18
3.400000E+03	1.200510E-17	3.907110E-18
3.410000E+03	1.170521E-17	3.807881E-18
3.420000E+03	1.141900E-17	3.713178E-18
3.430000E+03	1.114601E-17	3.622846E-18
3.440000E+03	1.088581E-17	3.536738E-18
3.450000E+03	1.063770E-17	3.454625E-18
3.460000E+03	1.040139E-17	3.376411E-18
3.470000E+03	1.017628E-17	3.301887E-18
3.480000E+03	9.961980E-18	3.230931E-18
3.490000E+03	9.758043E-18	3.163390E-18
3.500000E+03	9.564031E-18	3.099118E-18
3.510000E+03	9.379537E-18	3.037980E-18
3.520000E+03	9.204174E-18	2.979847E-18
3.530000E+03	9.037478E-18	2.924564E-18
3.540000E+03	8.879021E-18	2.871990E-18
3.550000E+03	8.728491E-18	2.822021E-18
3.560000E+03	8.585506E-18	2.774530E-18
3.570000E+03	8.449792E-18	2.729425E-18
3.580000E+03	8.320918E-18	2.686565E-18
3.590000E+03	8.198651E-18	2.645870E-18
3.600000E+03	8.082684E-18	2.607240E-18
3.610000E+03	7.972889E-18	2.570631E-18
3.620000E+03	7.868904E-18	2.535923E-18
3.630000E+03	7.770545E-18	2.503054E-18
3.640000E+03	7.677411E-18	2.471893E-18
3.650000E+03	7.589346E-18	2.442388E-18
3.660000E+03	7.506130E-18	2.414466E-18
3.670000E+03	7.427553E-18	2.388057E-18
3.680000E+03	7.353481E-18	2.363116E-18
3.690000E+03	7.283788E-18	2.339601E-18
3.700000E+03	7.218281E-18	2.317447E-18
3.710000E+03	7.156904E-18	2.296636E-18
3.720000E+03	7.099471E-18	2.277105E-18
3.730000E+03	7.045992E-18	2.258856E-18
3.740000E+03	6.996346E-18	2.241849E-18
3.750000E+03	6.950410E-18	2.226042E-18
3.760000E+03	6.908131E-18	2.211417E-18
3.770000E+03	6.869506E-18	2.197971E-18
3.780000E+03	6.834416E-18	2.185664E-18
3.790000E+03	6.802862E-18	2.174496E-18
3.800000E+03	6.774727E-18	2.164427E-18
3.810000E+03	6.749956E-18	2.155438E-18
3.820000E+03	6.728550E-18	2.147528E-18
3.830000E+03	6.710512E-18	2.140696E-18
3.840000E+03	6.695732E-18	2.134905E-18
3.850000E+03	6.684269E-18	2.130174E-18
3.860000E+03	6.675962E-18	2.126448E-18
3.870000E+03	6.670924E-18	2.123764E-18
3.880000E+03	6.668993E-18	2.122066E-18
3.890000E+03	6.670281E-18	2.121390E-18
3.900000E+03	6.674679E-18	2.121699E-18
3.910000E+03	6.682187E-18	2.122992E-18
3.920000E+03	6.692753E-18	2.125251E-18
3.930000E+03	6.706372E-18	2.128473E-18
3.940000E+03	6.722990E-18	2.132639E-18
3.950000E+03	6.742658E-18	2.137763E-18
3.960000E+03	6.765267E-18	2.143810E-18
3.970000E+03	6.790812E-18	2.150778E-18
3.980000E+03	6.819237E-18	2.158645E-18
3.990000E+03	6.850593E-18	2.167428E-18
4.000000E+03	6.884822E-18	2.177106E-18
4.010000E+03	6.921867E-18	2.187660E-18
4.020000E+03	6.961669E-18	2.199070E-18
4.030000E+03	7.004282E-18	2.211352E-18
4.040000E+03	7.049592E-18	2.224467E-18
4.050000E+03	7.097657E-18	2.238434E-18
4.060000E+03	7.148366E-18	2.253215E-18
4.070000E+03	7.201721E-18	2.268810E-18
4.080000E+03	7.257730E-18	2.285220E-18
4.090000E+03	7.316342E-18	2.302428E-18
4.100000E+03	7.377508E-18	2.320417E-18
4.110000E+03	7.441181E-18	2.339170E-18
4.120000E+03	7.507430E-18	2.358709E-18
4.130000E+03	7.576150E-18	2.378998E-18
4.140000E+03	7.647353E-18	2.400041E-18
4.150000E+03	7.720935E-18	2.421803E-18
4.160000E+03	7.796908E-18	2.444287E-18
4.170000E+03	7.875288E-18	2.467496E-18
4.180000E+03	7.955969E-18	2.491397E-18
4.190000E+03	8.038970E-18	2.515993E-18
4.200000E+03	8.124181E-18	2.541250E-18
4.210000E+03	8.211623E-18	2.567172E-18
4.220000E+03	8.301186E-18	2.593724E-18
4.230000E+03	8.392891E-18	2.620912E-18
4.240000E+03	8.486627E-18	2.648700E-18
4.250000E+03	8.582347E-18	2.677071E-18
4.260000E+03	8.679935E-18	2.705989E-18
4.270000E+03	8.779410E-18	2.735459E-18
4.280000E+03	8.880651E-18	2.765442E-18
4.290000E+03	8.983601E-18	2.795919E-18
4.300000E+03	9.088132E-18	2.826850E-18
4.310000E+03	9.194104E-18	2.858190E-18
4.320000E+03	9.301445E-18	2.889916E-18
4.330000E+03	9.410079E-18	2.922003E-18
4.340000E+03	9.519843E-18	2.954402E-18
4.350000E+03	9.630650E-18	2.987083E-18
4.360000E+03	9.742323E-18	3.019991E-18
4.370000E+03	9.854834E-18	3.053118E-18
4.380000E+03	9.968076E-18	3.086430E-18
4.390000E+03	1.008218E-17	3.119966E-18
4.400000E+03	1.019703E-17	3.153692E-18
4.410000E+03	1.031268E-17	3.187623E-18
4.420000E+03	1.042910E-17	3.221749E-18
4.430000E+03	1.054644E-17	3.256115E-18
4.440000E+03	1.066459E-17	3.290688E-18
4.450000E+03	1.078352E-17	3.325458E-18
4.460000E+03	1.090332E-17	3.360456E-18
4.470000E+03	1.102398E-17	3.395671E-18
4.480000E+03	1.114549E-17	3.431105E-18
4.490000E+03	1.126774E-17	3.466722E-18
4.500000E+03	1.139084E-17	3.502555E-18
4.510000E+03	1.151468E-17	3.538572E-18
4.520000E+03	1.163926E-17	3.574771E-18
4.530000E+03	1.176459E-17	3.611154E-18
4.540000E+03	1.189044E-17	3.647654E-18
4.550000E+03	1.201696E-17	3.684309E-18
4.560000E+03	1.214400E-17	3.721081E-18
4.570000E+03	1.227161E-17	3.757978E-18
4.580000E+03	1.239957E-17	3.794937E-18
4.590000E+03	1.252801E-17	3.831995E-18
4.600000E+03	1.265674E-17	3.869095E-18
4.610000E+03	1.278590E-17	3.906282E-18
4.620000E+03	1.291531E-17	3.943494E-18
4.630000E+03	1.304501E-17	3.980747E-18
4.640000E+03	1.317493E-17	4.018021E-18
4.650000E+03	1.330527E-17	4.055373E-18
4.660000E+03	1.343585E-17	4.092752E-18
4.670000E+03	1.356688E-17	4.130219E-18
4.680000E+03	1.369833E-17	4.167765E-18
4.690000E+03	1.383019E-17	4.205385E-18
4.700000E+03	1.396266E-17	4.243144E-18
4.710000E+03	1.409562E-17	4.281002E-18
4.720000E+03	1.422921E-17	4.319002E-18
4.730000E+03	1.436330E-17	4.357102E-18
4.740000E+03	1.449801E-17	4.395343E-18
4.750000E+03	1.463311E-17	4.433651E-18
4.760000E+03	1.476876E-17	4.472073E-18
4.770000E+03	1.490484E-17	4.510575E-18
4.780000E+03	1.504151E-17	4.549205E-18
4.790000E+03	1.517863E-17	4.587920E-18
4.800000E+03	1.531625E-17	4.626733E-18
4.810000E+03	1.545435E-17	4.665640E-18
4.820000E+03	1.559297E-17	4.704652E-18
4.830000E+03	1.573211E-17	4.743768E-18
4.840000E+03	1.587164E-17	4.782948E-18
4.850000E+03	1.601169E-17	4.822235E-18
4.860000E+03	1.615231E-17	4.861639E-18
4.870000E+03	1.629334E-17	4.901113E-18
4.880000E+03	1.643478E-17	4.940657E-18
4.890000E+03	1.657683E-17	4.980329E-18
4.900000E+03	1.671915E-17	5.020029E-18
4.910000E+03	1.686209E-17	5.059863E-18
4.920000E+03	1.700548E-17	5.099776E-18
4.930000E+03	1.714915E-17	5.139718E-18
4.940000E+03	1.729326E-17	5.179735E-18
4.950000E+03	1.743776E-17	5.219817E-18
4.960000E+03	1.758245E-17	5.259901E-18
4.970000E+03	1.772746E-17	5.300022E-18
4.980000E+03	1.787236E-17	5.340056E-18
4.990000E+03	1.801742E-17	5.380081E-18
5.000000E+03	1.816237E-17	5.420019E-18
5.010000E+03	1.830691E-17	5.459779E-18
5.020000E+03	1.845110E-17	5.499381E-18
5.030000E+03	1.859463E-17	5.538726E-18
5.040000E+03	1.873730E-17	5.577765E-18
5.050000E+03	1.887898E-17	5.616451E-18
5.060000E+03	1.901947E-17	5.654727E-18
5.070000E+03	1.915835E-17	5.692473E-18
5.080000E+03	1.929558E-17	5.729677E-18
5.090000E+03	1.943075E-17	5.766213E-18
5.100000E+03	1.956360E-17	5.802010E-18
5.110000E+03	1.969367E-17	5.836931E-18
5.120000E+03	1.982089E-17	5.870960E-18
5.130000E+03	1.994462E-17	5.903902E-18
5.140000E+03	2.006497E-17	5.935799E-18
5.150000E+03	2.018132E-17	5.966467E-18
5.160000E+03	2.029360E-17	5.995885E-18
5.170000E+03	2.040136E-17	6.023926E-18
5.180000E+03	2.050416E-17	6.050460E-18
5.190000E+03	2.060194E-17	6.075475E-18
5.200000E+03	2.069424E-17	6.098836E-18
5.210000E+03	2.078081E-17	6.120472E-18
5.220000E+03	2.086136E-17	6.140305E-18
5.230000E+03	2.093546E-17	6.158205E-18
5.240000E+03	2.100280E-17	6.174092E-18
5.250000E+03	2.106291E-17	6.187827E-18
5.260000E+03	2.111572E-17	6.199394E-18
5.270000E+03	2.116070E-17	6.208646E-18
5.280000E+03	2.119759E-17	6.215503E-18
5.290000E+03	2.122607E-17	6.219884E-18
5.300000E+03	2.124567E-17	6.221651E-18
5.310000E+03	2.125608E-17	6.220722E-18
5.320000E+03	2.125705E-17	6.217028E-18
5.330000E+03	2.124834E-17	6.210500E-18
5.340000E+03	2.122947E-17	6.201012E-18
5.350000E+03	2.120050E-17	6.188581E-18
5.360000E+03	2.116125E-17	6.173160E-18
5.370000E+03	2.111162E-17	6.154727E-18
5.380000E+03	2.105135E-17	6.133214E-18
5.390000E+03	2.098086E-17	6.108750E-18
5.400000E+03	2.090006E-17	6.081310E-18
5.410000E+03	2.080953E-17	6.051073E-18
5.420000E+03	2.070933E-17	6.018061E-18
5.430000E+03	2.060001E-17	5.982437E-18
5.440000E+03	2.048202E-17	5.944341E-18
5.450000E+03	2.035628E-17	5.904041E-18
5.460000E+03	2.022321E-17	5.861666E-18
5.470000E+03	2.008330E-17	5.817360E-18
5.480000E+03	1.993694E-17	5.771242E-18
5.490000E+03	1.978498E-17	5.723559E-18
5.500000E+03	1.962796E-17	5.674473E-18
5.510000E+03	1.946666E-17	5.624209E-18
5.520000E+03	1.930193E-17	5.573019E-18
5.530000E+03	1.913464E-17	5.521153E-18
5.540000E+03	1.896567E-17	5.468871E-18
5.550000E+03	1.879614E-17	5.416489E-18
5.560000E+03	1.862694E-17	5.364270E-18
5.570000E+03	1.845934E-17	5.312580E-18
5.580000E+03	1.829404E-17	5.261614E-18
5.590000E+03	1.813243E-17	5.211775E-18
5.600000E+03	1.797511E-17	5.163229E-18
5.610000E+03	1.782316E-17	5.116289E-18
5.620000E+03	1.767761E-17	5.071244E-18
5.630000E+03	1.753880E-17	5.028192E-18
5.640000E+03	1.740796E-17	4.987477E-18
5.650000E+03	1.728545E-17	4.949199E-18
5.660000E+03	1.717155E-17	4.913435E-18
5.670000E+03	1.706718E-17	4.880441E-18
5.680000E+03	1.697226E-17	4.850193E-18
5.690000E+03	1.688718E-17	4.822793E-18
5.700000E+03	1.681224E-17	4.798327E-18
5.710000E+03	1.674752E-17	4.776807E-18
5.720000E+03	1.669303E-17	4.758231E-18
5.730000E+03	1.664875E-17	4.742591E-18
5.740000E+03	1.661479E-17	4.729912E-18
5.750000E+03	1.659128E-17	4.720225E-18
5.760000E+03	1.657781E-17	4.713405E-18
5.770000E+03	1.657483E-17	4.709579E-18
5.780000E+03	1.658199E-17	4.708641E-18
5.790000E+03	1.659965E-17	4.710688E-18
5.800000E+03	1.662766E-17	4.715671E-18
5.810000E+03	1.666628E-17	4.723659E-18
5.820000E+03	1.671559E-17	4.734673E-18
5.830000E+03	1.677589E-17	4.748784E-18
5.840000E+03	1.684711E-17	4.765974E-18
5.850000E+03	1.692936E-17	4.786268E-18
5.860000E+03	1.702295E-17	4.809745E-18
5.870000E+03	1.712821E-17	4.836495E-18
5.880000E+03	1.724485E-17	4.866430E-18
5.890000E+03	1.737339E-17	4.899692E-18
5.900000E+03	1.751375E-17	4.936250E-18
5.910000E+03	1.766622E-17	4.976184E-18
5.920000E+03	1.783090E-17	5.019514E-18
5.930000E+03	1.800767E-17	5.066201E-18
5.940000E+03	1.819677E-17	5.116309E-18
5.950000E+03	1.839821E-17	5.169834E-18
5.960000E+03	1.861179E-17	5.226712E-18
5.970000E+03	1.883788E-17	5.287043E-18
5.980000E+03	1.907596E-17	5.350679E-18
5.990000E+03	1.932613E-17	5.417638E-18
6.000000E+03	1.958820E-17	5.487865E-18
6.010000E+03	1.986174E-17	5.561235E-18
6.020000E+03	2.014669E-17	5.637725E-18
6.030000E+03	2.044226E-17	5.717108E-18
6.040000E+03	2.074852E-17	5.799406E-18
6.050000E+03	2.106454E-17	5.884347E-18
6.060000E+03	2.139003E-17	5.971852E-18
6.070000E+03	2.172412E-17	6.061674E-18
6.080000E+03	2.206612E-17	6.153619E-18
6.090000E+03	2.241502E-17	6.247401E-18
6.100000E+03	2.276965E-17	6.342696E-18
6.110000E+03	2.312936E-17	6.439317E-18
6.120000E+03	2.349227E-17	6.536743E-18
6.130000E+03	2.385751E-17	6.634735E-18
6.140000E+03	2.422331E-17	6.732796E-18
6.150000E+03	2.458836E-17	6.830570E-18
6.160000E+03	2.495015E-17	6.927354E-18
6.170000E+03	2.530758E-17	7.022854E-18
6.180000E+03	2.565838E-17	7.116444E-18
6.190000E+03	2.600097E-17	7.207685E-18
6.200000E+03	2.633360E-17	7.296103E-18
6.210000E+03	2.665613E-17	7.381663E-18
6.220000E+03	2.696897E-17	7.464484E-18
6.230000E+03	2.727273E-17	7.544744E-18
6.240000E+03	2.756823E-17	7.622673E-18
6.250000E+03	2.785532E-17	7.698235E-18
6.260000E+03	2.813577E-17	7.771926E-18
6.270000E+03	2.840923E-17	7.843655E-18
6.280000E+03	2.867689E-17	7.913751E-18
6.290000E+03	2.893962E-17	7.982460E-18
6.300000E+03	2.919716E-17	8.049716E-18
6.310000E+03	2.945045E-17	8.115778E-18
6.320000E+03	2.970006E-17	8.180807E-18
6.330000E+03	2.994656E-17	8.244963E-18
6.340000E+03	3.018976E-17	8.308194E-18
6.350000E+03	3.043024E-17	8.370662E-18
6.360000E+03	3.066823E-17	8.432430E-18
6.370000E+03	3.090394E-17	8.493560E-18
6.380000E+03	3.113714E-17	8.553988E-18
6.390000E+03	3.136759E-17	8.613653E-18
6.400000E+03	3.159505E-17	8.672488E-18
6.410000E+03	3.181970E-17	8.730545E-18
6.420000E+03	3.204125E-17	8.787747E-18
6.430000E+03	3.225847E-17	8.843757E-18
6.440000E+03	3.247291E-17	8.898999E-18
6.450000E+03	3.268472E-17	8.953523E-18
6.460000E+03	3.289454E-17	9.007500E-18
6.470000E+03	3.310357E-17	9.061259E-18
6.480000E+03	3.331148E-17	9.114715E-18
6.490000E+03	3.351950E-17	9.168202E-18
6.500000E+03	3.372784E-17	9.221778E-18
6.510000E+03	3.393720E-17	9.275637E-18
6.520000E+03	3.414678E-17	9.329559E-18
6.530000E+03	3.435832E-17	9.384020E-18
6.540000E+03	3.457096E-17	9.438785E-18
6.550000E+03	3.478543E-17	9.494053E-18
6.560000E+03	3.500188E-17	9.549867E-18
6.570000E+03	3.521995E-17	9.606129E-18
6.580000E+03	3.544036E-17	9.663033E-18
6.590000E+03	3.566326E-17	9.720623E-18
6.600000E+03	3.588826E-17	9.778789E-18
6.610000E+03	3.611550E-17	9.837573E-18
6.620000E+03	3.634512E-17	9.897009E-18
6.630000E+03	3.657784E-17	9.957297E-18
6.640000E+03	3.681259E-17	1.001815E-17
6.650000E+03	3.705009E-17	1.007975E-17
6.660000E+03	3.729042E-17	1.014213E-17
6.670000E+03	3.753303E-17	1.020514E-17
6.680000E+03	3.777860E-17	1.026896E-17
6.690000E+03	3.802656E-17	1.033345E-17
6.700000E+03	3.827756E-17	1.039876E-17
6.710000E+03	3.853035E-17	1.046457E-17
6.720000E+03	3.878557E-17	1.053106E-17
6.730000E+03	3.904393E-17	1.059841E-17
6.740000E+03	3.930410E-17	1.066625E-17
6.750000E+03	3.956679E-17	1.073480E-17
6.760000E+03	3.983132E-17	1.080386E-17
6.770000E+03	4.009842E-17	1.087363E-17
6.780000E+03	4.036741E-17	1.094393E-17
6.790000E+03	4.063835E-17	1.101477E-17
6.800000E+03	4.091198E-17	1.108636E-17
6.810000E+03	4.118689E-17	1.115831E-17
6.820000E+03	4.146459E-17	1.123103E-17
6.830000E+03	4.174363E-17	1.130414E-17
6.840000E+03	4.202553E-17	1.137804E-17
6.850000E+03	4.230875E-17	1.145232E-17
6.860000E+03	4.259327E-17	1.152697E-17
6.870000E+03	4.287981E-17	1.160220E-17
6.880000E+03	4.316832E-17	1.167798E-17
6.890000E+03	4.345708E-17	1.175386E-17
6.900000E+03	4.374757E-17	1.183022E-17
6.910000E+03	4.403882E-17	1.190683E-17
6.920000E+03	4.433151E-17	1.198385E-17
6.930000E+03	4.462375E-17	1.206078E-17
6.940000E+03	4.491617E-17	1.213780E-17
6.950000E+03	4.520853E-17	1.221483E-17
6.960000E+03	4.549975E-17	1.229159E-17
6.970000E+03	4.579042E-17	1.236824E-17
6.980000E+03	4.608031E-17	1.244471E-17
6.990000E+03	4.636828E-17	1.252071E-17
7.000000E+03	4.665409E-17	1.259617E-17
7.010000E+03	4.693751E-17	1.267103E-17
7.020000E+03	4.721922E-17	1.274547E-17
7.030000E+03	4.749722E-17	1.281896E-17
7.040000E+03	4.777313E-17	1.289194E-17
7.050000E+03	4.804496E-17	1.296386E-17
7.060000E+03	4.831349E-17	1.303495E-17
7.070000E+03	4.857764E-17	1.310492E-17
7.080000E+03	4.883827E-17	1.317399E-17
7.090000E+03	4.909533E-17	1.324216E-17
7.100000E+03	4.934779E-17	1.330915E-17
7.110000E+03	4.959462E-17	1.337469E-17
7.120000E+03	4.983779E-17	1.343930E-17
7.130000E+03	5.007635E-17	1.350274E-17
7.140000E+03	5.031030E-17	1.356501E-17
7.150000E+03	5.053972E-17	1.362613E-17
7.160000E+03	5.076365E-17	1.368584E-17
7.170000E+03	5.098317E-17	1.374444E-17
7.180000E+03	5.119739E-17	1.380169E-17
7.190000E+03	5.140639E-17	1.385761E-17
7.200000E+03	5.161136E-17	1.391253E-17
7.210000E+03	5.181138E-17	1.396620E-17
7.220000E+03	5.200770E-17	1.401895E-17
7.230000E+03	5.219824E-17	1.407024E-17
7.240000E+03	5.238421E-17	1.412038E-17
7.250000E+03	5.256568E-17	1.416941E-17
7.260000E+03	5.274275E-17	1.421734E-17
7.270000E+03	5.291537E-17	1.426416E-17
7.280000E+03	5.308358E-17	1.430990E-17
7.290000E+03	5.324611E-17	1.435420E-17
7.300000E+03	5.340402E-17	1.439736E-17
7.310000E+03	5.355716E-17	1.443933E-17
7.320000E+03	5.370539E-17	1.448009E-17
7.330000E+03	5.384736E-17	1.451927E-17
7.340000E+03	5.398408E-17	1.455714E-17
7.350000E+03	5.411657E-17	1.459397E-17
7.360000E+03	5.424232E-17	1.462910E-17
7.370000E+03	5.436235E-17	1.466281E-17
7.380000E+03	5.447657E-17	1.469506E-17
7.390000E+03	5.458609E-17	1.472615E-17
7.400000E+03	5.468967E-17	1.475577E-17
7.410000E+03	5.478848E-17	1.478422E-17
7.420000E+03	5.488383E-17	1.481185E-17
7.430000E+03	5.497456E-17	1.483836E-17
7.440000E+03	5.506333E-17	1.486447E-17
7.450000E+03	5.514783E-17	1.488954E-17
7.460000E+03	5.522958E-17	1.491401E-17
7.470000E+03	5.530760E-17	1.493759E-17
7.480000E+03	5.538348E-17	1.496073E-17
7.490000E+03	5.545499E-17	1.498282E-17
7.500000E+03	5.552375E-17	1.500429E-17
7.510000E+03	5.559002E-17	1.502524E-17
7.520000E+03	5.565278E-17	1.504536E-17
7.530000E+03	5.571479E-17	1.506543E-17
7.540000E+03	5.577365E-17	1.508478E-17
7.550000E+03	5.583079E-17	1.510380E-17
7.560000E+03	5.588502E-17	1.512217E-17
7.570000E+03	5.593782E-17	1.514028E-17
7.580000E+03	5.598803E-17	1.515783E-17
7.590000E+03	5.603711E-17	1.517520E-17
7.600000E+03	5.608388E-17	1.519208E-17
7.610000E+03	5.612846E-17	1.520849E-17
7.620000E+03	5.617232E-17	1.522483E-17
7.630000E+03	5.621414E-17	1.524075E-17
7.640000E+03	5.625395E-17	1.525624E-17
7.650000E+03	5.629310E-17	1.527167E-17
7.660000E+03	5.633018E-17	1.528667E-17
7.670000E+03	5.636648E-17	1.530157E-17
7.680000E+03	5.639910E-17	1.531558E-17
7.690000E+03	5.643068E-17	1.532943E-17
7.700000E+03	5.646105E-17	1.534307E-17
7.710000E+03	5.648866E-17	1.535606E-17
7.720000E+03	5.651471E-17	1.536874E-17
7.730000E+03	5.653761E-17	1.538067E-17
7.740000E+03	5.655717E-17	1.539180E-17
7.750000E+03	5.657459E-17	1.540245E-17
7.760000E+03	5.658965E-17	1.541256E-17
