#wls	flux	fluxerr
1.600000E+03	3.142313E-16	9.397116E-17
1.640000E+03	3.234506E-16	9.672700E-17
1.680000E+03	3.320698E-16	9.930325E-17
1.720000E+03	3.400203E-16	1.016794E-16
1.760000E+03	3.470936E-16	1.037930E-16
1.800000E+03	3.532730E-16	1.056392E-16
1.840000E+03	3.583420E-16	1.071533E-16
1.880000E+03	3.622444E-16	1.083183E-16
1.920000E+03	3.648597E-16	1.090983E-16
1.960000E+03	3.660150E-16	1.094416E-16
2.000000E+03	3.656665E-16	1.093352E-16
2.040000E+03	3.636971E-16	1.087440E-16
2.080000E+03	3.600135E-16	1.076403E-16
2.120000E+03	3.545529E-16	1.060051E-16
2.160000E+03	3.472432E-16	1.038171E-16
2.200000E+03	3.379805E-16	1.010451E-16
2.240000E+03	3.266825E-16	9.766476E-17
2.280000E+03	3.134173E-16	9.369636E-17
2.320000E+03	2.984577E-16	8.922153E-17
2.360000E+03	2.822572E-16	8.437589E-17
2.400000E+03	2.651796E-16	7.926829E-17
2.440000E+03	2.475552E-16	7.399744E-17
2.480000E+03	2.296267E-16	6.863594E-17
2.520000E+03	2.116451E-16	6.325887E-17
2.560000E+03	1.938150E-16	5.792736E-17
2.600000E+03	1.763433E-16	5.270330E-17
2.640000E+03	1.593963E-16	4.763642E-17
2.680000E+03	1.431263E-16	4.277218E-17
2.720000E+03	1.276667E-16	3.815044E-17
2.760000E+03	1.131178E-16	3.380123E-17
2.800000E+03	9.956251E-17	2.974923E-17
2.840000E+03	8.705921E-17	2.601192E-17
2.880000E+03	7.564844E-17	2.260135E-17
2.920000E+03	6.535098E-17	1.952371E-17
2.960000E+03	5.616338E-17	1.677793E-17
3.000000E+03	4.805984E-17	1.435626E-17
3.010000E+03	4.619796E-17	1.379988E-17
3.020000E+03	4.439895E-17	1.326229E-17
3.030000E+03	4.266353E-17	1.274370E-17
3.040000E+03	4.098827E-17	1.224310E-17
3.050000E+03	3.937365E-17	1.176063E-17
3.060000E+03	3.781812E-17	1.129582E-17
3.070000E+03	3.632090E-17	1.084845E-17
3.080000E+03	3.487894E-17	1.041759E-17
3.090000E+03	3.349290E-17	1.000344E-17
3.100000E+03	3.215980E-17	9.605116E-18
3.110000E+03	3.087937E-17	9.222536E-18
3.120000E+03	2.965001E-17	8.855221E-18
3.130000E+03	2.846955E-17	8.502521E-18
3.140000E+03	2.733756E-17	8.164306E-18
3.150000E+03	2.625192E-17	7.839942E-18
3.160000E+03	2.521160E-17	7.529126E-18
3.170000E+03	2.421504E-17	7.231387E-18
3.180000E+03	2.326075E-17	6.946280E-18
3.190000E+03	2.234765E-17	6.673481E-18
3.200000E+03	2.147423E-17	6.412542E-18
3.210000E+03	2.063872E-17	6.162932E-18
3.220000E+03	1.984040E-17	5.924435E-18
3.230000E+03	1.907755E-17	5.696537E-18
3.240000E+03	1.834911E-17	5.478921E-18
3.250000E+03	1.765377E-17	5.271195E-18
3.260000E+03	1.698994E-17	5.072884E-18
3.270000E+03	1.635691E-17	4.883778E-18
3.280000E+03	1.575294E-17	4.703354E-18
3.290000E+03	1.517734E-17	4.531408E-18
3.300000E+03	1.462894E-17	4.367586E-18
3.310000E+03	1.410617E-17	4.211423E-18
3.320000E+03	1.360839E-17	4.062726E-18
3.330000E+03	1.313453E-17	3.921177E-18
3.340000E+03	1.268339E-17	3.786415E-18
3.350000E+03	1.225401E-17	3.658151E-18
3.360000E+03	1.184544E-17	3.536109E-18
3.370000E+03	1.145680E-17	3.420019E-18
3.380000E+03	1.108723E-17	3.309623E-18
3.390000E+03	1.073588E-17	3.204673E-18
3.400000E+03	1.040183E-17	3.104889E-18
3.410000E+03	1.008419E-17	3.010009E-18
3.420000E+03	9.782507E-18	2.919896E-18
3.430000E+03	9.495719E-18	2.834231E-18
3.440000E+03	9.223303E-18	2.752858E-18
3.450000E+03	8.964527E-18	2.675560E-18
3.460000E+03	8.718801E-18	2.602160E-18
3.470000E+03	8.485366E-18	2.532431E-18
3.480000E+03	8.263612E-18	2.466191E-18
3.490000E+03	8.053053E-18	2.403295E-18
3.500000E+03	7.853052E-18	2.343551E-18
3.510000E+03	7.663179E-18	2.286833E-18
3.520000E+03	7.482700E-18	2.232920E-18
3.530000E+03	7.311255E-18	2.181705E-18
3.540000E+03	7.148272E-18	2.133017E-18
3.550000E+03	6.993296E-18	2.086720E-18
3.560000E+03	6.845897E-18	2.042686E-18
3.570000E+03	6.705543E-18	2.000756E-18
3.580000E+03	6.572006E-18	1.960861E-18
3.590000E+03	6.444866E-18	1.922877E-18
3.600000E+03	6.323742E-18	1.886689E-18
3.610000E+03	6.208450E-18	1.852242E-18
3.620000E+03	6.098583E-18	1.819416E-18
3.630000E+03	5.993869E-18	1.788128E-18
3.640000E+03	5.894057E-18	1.758303E-18
3.650000E+03	5.798906E-18	1.729871E-18
3.660000E+03	5.708186E-18	1.702761E-18
3.670000E+03	5.621679E-18	1.676909E-18
3.680000E+03	5.539228E-18	1.652268E-18
3.690000E+03	5.460677E-18	1.628791E-18
3.700000E+03	5.385831E-18	1.606420E-18
3.710000E+03	5.314687E-18	1.585155E-18
3.720000E+03	5.247007E-18	1.564923E-18
3.730000E+03	5.182742E-18	1.545710E-18
3.740000E+03	5.121752E-18	1.527475E-18
3.750000E+03	5.063947E-18	1.510191E-18
3.760000E+03	5.009319E-18	1.493854E-18
3.770000E+03	4.957650E-18	1.478401E-18
3.780000E+03	4.908933E-18	1.463828E-18
3.790000E+03	4.863122E-18	1.450123E-18
3.800000E+03	4.820045E-18	1.437233E-18
3.810000E+03	4.779697E-18	1.425157E-18
3.820000E+03	4.742031E-18	1.413882E-18
3.830000E+03	4.706921E-18	1.403369E-18
3.840000E+03	4.674285E-18	1.393593E-18
3.850000E+03	4.644156E-18	1.384565E-18
3.860000E+03	4.616377E-18	1.376239E-18
3.870000E+03	4.590940E-18	1.368610E-18
3.880000E+03	4.567772E-18	1.361658E-18
3.890000E+03	4.546830E-18	1.355370E-18
3.900000E+03	4.528077E-18	1.349734E-18
3.910000E+03	4.511400E-18	1.344717E-18
3.920000E+03	4.496767E-18	1.340309E-18
3.930000E+03	4.484176E-18	1.336510E-18
3.940000E+03	4.473557E-18	1.333299E-18
3.950000E+03	4.464845E-18	1.330655E-18
3.960000E+03	4.458009E-18	1.328570E-18
3.970000E+03	4.452984E-18	1.327025E-18
3.980000E+03	4.449739E-18	1.326010E-18
3.990000E+03	4.448251E-18	1.325519E-18
4.000000E+03	4.448491E-18	1.325541E-18
4.010000E+03	4.450368E-18	1.326052E-18
4.020000E+03	4.453858E-18	1.327042E-18
4.030000E+03	4.458938E-18	1.328506E-18
4.040000E+03	4.465588E-18	1.330437E-18
4.050000E+03	4.473756E-18	1.332819E-18
4.060000E+03	4.483387E-18	1.335637E-18
4.070000E+03	4.494465E-18	1.338885E-18
4.080000E+03	4.506940E-18	1.342549E-18
4.090000E+03	4.520796E-18	1.346623E-18
4.100000E+03	4.535984E-18	1.351093E-18
4.110000E+03	4.552493E-18	1.355956E-18
4.120000E+03	4.570275E-18	1.361197E-18
4.130000E+03	4.589285E-18	1.366804E-18
4.140000E+03	4.609513E-18	1.372772E-18
4.150000E+03	4.630914E-18	1.379088E-18
4.160000E+03	4.653478E-18	1.385750E-18
4.170000E+03	4.677131E-18	1.392735E-18
4.180000E+03	4.701862E-18	1.400040E-18
4.190000E+03	4.727595E-18	1.407642E-18
4.200000E+03	4.754356E-18	1.415549E-18
4.210000E+03	4.782075E-18	1.423740E-18
4.220000E+03	4.810740E-18	1.432212E-18
4.230000E+03	4.840239E-18	1.440930E-18
4.240000E+03	4.870605E-18	1.449906E-18
4.250000E+03	4.901723E-18	1.459103E-18
4.260000E+03	4.933624E-18	1.468533E-18
4.270000E+03	4.966192E-18	1.478160E-18
4.280000E+03	4.999344E-18	1.487959E-18
4.290000E+03	5.033115E-18	1.497941E-18
4.300000E+03	5.067343E-18	1.508058E-18
4.310000E+03	5.102064E-18	1.518320E-18
4.320000E+03	5.137112E-18	1.528677E-18
4.330000E+03	5.172521E-18	1.539141E-18
4.340000E+03	5.208202E-18	1.549684E-18
4.350000E+03	5.244067E-18	1.560279E-18
4.360000E+03	5.280109E-18	1.570926E-18
4.370000E+03	5.316278E-18	1.581609E-18
4.380000E+03	5.352610E-18	1.592339E-18
4.390000E+03	5.389013E-18	1.603089E-18
4.400000E+03	5.425571E-18	1.613883E-18
4.410000E+03	5.462279E-18	1.624719E-18
4.420000E+03	5.499141E-18	1.635600E-18
4.430000E+03	5.536152E-18	1.646523E-18
4.440000E+03	5.573365E-18	1.657505E-18
4.450000E+03	5.610737E-18	1.668532E-18
4.460000E+03	5.648320E-18	1.679620E-18
4.470000E+03	5.686122E-18	1.690772E-18
4.480000E+03	5.724155E-18	1.701990E-18
4.490000E+03	5.762381E-18	1.713263E-18
4.500000E+03	5.800812E-18	1.724596E-18
4.510000E+03	5.839414E-18	1.735977E-18
4.520000E+03	5.878253E-18	1.747427E-18
4.530000E+03	5.917246E-18	1.758921E-18
4.540000E+03	5.956411E-18	1.770464E-18
4.550000E+03	5.995766E-18	1.782061E-18
4.560000E+03	6.035235E-18	1.793690E-18
4.570000E+03	6.074888E-18	1.805372E-18
4.580000E+03	6.114648E-18	1.817083E-18
4.590000E+03	6.154540E-18	1.828832E-18
4.600000E+03	6.194486E-18	1.840594E-18
4.610000E+03	6.234568E-18	1.852394E-18
4.620000E+03	6.274765E-18	1.864227E-18
4.630000E+03	6.315001E-18	1.876068E-18
4.640000E+03	6.355308E-18	1.887929E-18
4.650000E+03	6.395727E-18	1.899821E-18
4.660000E+03	6.436242E-18	1.911738E-18
4.670000E+03	6.476782E-18	1.923661E-18
4.680000E+03	6.517503E-18	1.935635E-18
4.690000E+03	6.558456E-18	1.947676E-18
4.700000E+03	6.599578E-18	1.959764E-18
4.710000E+03	6.640922E-18	1.971916E-18
4.720000E+03	6.682545E-18	1.984148E-18
4.730000E+03	6.724328E-18	1.996426E-18
4.740000E+03	6.766328E-18	2.008764E-18
4.750000E+03	6.808486E-18	2.021148E-18
4.760000E+03	6.850866E-18	2.033595E-18
4.770000E+03	6.893472E-18	2.046106E-18
4.780000E+03	6.936243E-18	2.058663E-18
4.790000E+03	6.979248E-18	2.071287E-18
4.800000E+03	7.022432E-18	2.083961E-18
4.810000E+03	7.065863E-18	2.096706E-18
4.820000E+03	7.109487E-18	2.109506E-18
4.830000E+03	7.153310E-18	2.122361E-18
4.840000E+03	7.197341E-18	2.135276E-18
4.850000E+03	7.241653E-18	2.148270E-18
4.860000E+03	7.286193E-18	2.161330E-18
4.870000E+03	7.330970E-18	2.174457E-18
4.880000E+03	7.375920E-18	2.187632E-18
4.890000E+03	7.421194E-18	2.200900E-18
4.900000E+03	7.466731E-18	2.214243E-18
4.910000E+03	7.512537E-18	2.227662E-18
4.920000E+03	7.558555E-18	2.241141E-18
4.930000E+03	7.604859E-18	2.254702E-18
4.940000E+03	7.651387E-18	2.268326E-18
4.950000E+03	7.698140E-18	2.282013E-18
4.960000E+03	7.745199E-18	2.295788E-18
4.970000E+03	7.792492E-18	2.309628E-18
4.980000E+03	7.840026E-18	2.323537E-18
4.990000E+03	7.887723E-18	2.337490E-18
5.000000E+03	7.935661E-18	2.351511E-18
5.010000E+03	7.983837E-18	2.365600E-18
5.020000E+03	8.032174E-18	2.379732E-18
5.030000E+03	8.080666E-18	2.393906E-18
5.040000E+03	8.129309E-18	2.408122E-18
5.050000E+03	8.178017E-18	2.422353E-18
5.060000E+03	8.226860E-18	2.436620E-18
5.070000E+03	8.275827E-18	2.450921E-18
5.080000E+03	8.324748E-18	2.465203E-18
5.090000E+03	8.373688E-18	2.479488E-18
5.100000E+03	8.422631E-18	2.493769E-18
5.110000E+03	8.471479E-18	2.508019E-18
5.120000E+03	8.520210E-18	2.522230E-18
5.130000E+03	8.568804E-18	2.536396E-18
5.140000E+03	8.617239E-18	2.550511E-18
5.150000E+03	8.665400E-18	2.564541E-18
5.160000E+03	8.713348E-18	2.578504E-18
5.170000E+03	8.760880E-18	2.592340E-18
5.180000E+03	8.808049E-18	2.606064E-18
5.190000E+03	8.854730E-18	2.619640E-18
5.200000E+03	8.900886E-18	2.633056E-18
5.210000E+03	8.946475E-18	2.646301E-18
5.220000E+03	8.991454E-18	2.659360E-18
5.230000E+03	9.035602E-18	2.672170E-18
5.240000E+03	9.079044E-18	2.684767E-18
5.250000E+03	9.121644E-18	2.697111E-18
5.260000E+03	9.163347E-18	2.709186E-18
5.270000E+03	9.204015E-18	2.720950E-18
5.280000E+03	9.243587E-18	2.732387E-18
5.290000E+03	9.282010E-18	2.743480E-18
5.300000E+03	9.319228E-18	2.754213E-18
5.310000E+03	9.355186E-18	2.764569E-18
5.320000E+03	9.389736E-18	2.774506E-18
5.330000E+03	9.423009E-18	2.784061E-18
5.340000E+03	9.454771E-18	2.793166E-18
5.350000E+03	9.484966E-18	2.801804E-18
5.360000E+03	9.513736E-18	2.810018E-18
5.370000E+03	9.540848E-18	2.817739E-18
5.380000E+03	9.566451E-18	2.825010E-18
5.390000E+03	9.590411E-18	2.831793E-18
5.400000E+03	9.612788E-18	2.838105E-18
5.410000E+03	9.633459E-18	2.843910E-18
5.420000E+03	9.652590E-18	2.849257E-18
5.430000E+03	9.670060E-18	2.854110E-18
5.440000E+03	9.685951E-18	2.858495E-18
5.450000E+03	9.700057E-18	2.862349E-18
5.460000E+03	9.712465E-18	2.865700E-18
5.470000E+03	9.723074E-18	2.868518E-18
5.480000E+03	9.731783E-18	2.870772E-18
5.490000E+03	9.738696E-18	2.872493E-18
5.500000E+03	9.743622E-18	2.873626E-18
5.510000E+03	9.746475E-18	2.874146E-18
5.520000E+03	9.747269E-18	2.874056E-18
5.530000E+03	9.745824E-18	2.873303E-18
5.540000E+03	9.742260E-18	2.871924E-18
5.550000E+03	9.736309E-18	2.869840E-18
5.560000E+03	9.728191E-18	2.867115E-18
5.570000E+03	9.717842E-18	2.863731E-18
5.580000E+03	9.705197E-18	2.859669E-18
5.590000E+03	9.690290E-18	2.854940E-18
5.600000E+03	9.673162E-18	2.849555E-18
5.610000E+03	9.653756E-18	2.843498E-18
5.620000E+03	9.632312E-18	2.836840E-18
5.630000E+03	9.608677E-18	2.829536E-18
5.640000E+03	9.583098E-18	2.821659E-18
5.650000E+03	9.555426E-18	2.813166E-18
5.660000E+03	9.525909E-18	2.804130E-18
5.670000E+03	9.494601E-18	2.794566E-18
5.680000E+03	9.461456E-18	2.784462E-18
5.690000E+03	9.426630E-18	2.773864E-18
5.700000E+03	9.390179E-18	2.762787E-18
5.710000E+03	9.352260E-18	2.751280E-18
5.720000E+03	9.312935E-18	2.739359E-18
5.730000E+03	9.272166E-18	2.727015E-18
5.740000E+03	9.230214E-18	2.714324E-18
5.750000E+03	9.187142E-18	2.701304E-18
5.760000E+03	9.142921E-18	2.687948E-18
5.770000E+03	9.097716E-18	2.674304E-18
5.780000E+03	9.051694E-18	2.660421E-18
5.790000E+03	9.004925E-18	2.646320E-18
5.800000E+03	8.957385E-18	2.631994E-18
5.810000E+03	8.909245E-18	2.617493E-18
5.820000E+03	8.860675E-18	2.602868E-18
5.830000E+03	8.811751E-18	2.588140E-18
5.840000E+03	8.762451E-18	2.573304E-18
5.850000E+03	8.712953E-18	2.558411E-18
5.860000E+03	8.663330E-18	2.543484E-18
5.870000E+03	8.613755E-18	2.528573E-18
5.880000E+03	8.564306E-18	2.513701E-18
5.890000E+03	8.514963E-18	2.498862E-18
5.900000E+03	8.465900E-18	2.484107E-18
5.910000E+03	8.417092E-18	2.469429E-18
5.920000E+03	8.368900E-18	2.454934E-18
5.930000E+03	8.321108E-18	2.440558E-18
5.940000E+03	8.273886E-18	2.426351E-18
5.950000E+03	8.227390E-18	2.412360E-18
5.960000E+03	8.181595E-18	2.398575E-18
5.970000E+03	8.136564E-18	2.385017E-18
5.980000E+03	8.092449E-18	2.371728E-18
5.990000E+03	8.049217E-18	2.358701E-18
6.000000E+03	8.007011E-18	2.345976E-18
6.010000E+03	7.965705E-18	2.333516E-18
6.020000E+03	7.925527E-18	2.321388E-18
6.030000E+03	7.886341E-18	2.309553E-18
6.040000E+03	7.848373E-18	2.298075E-18
6.050000E+03	7.811387E-18	2.286887E-18
6.060000E+03	7.775605E-18	2.276052E-18
6.070000E+03	7.740967E-18	2.265554E-18
6.080000E+03	7.707507E-18	2.255401E-18
6.090000E+03	7.675064E-18	2.245547E-18
6.100000E+03	7.643850E-18	2.236054E-18
6.110000E+03	7.613612E-18	2.226847E-18
6.120000E+03	7.584551E-18	2.217985E-18
6.130000E+03	7.556404E-18	2.209391E-18
6.140000E+03	7.529190E-18	2.201071E-18
6.150000E+03	7.502821E-18	2.192998E-18
6.160000E+03	7.477304E-18	2.185175E-18
6.170000E+03	7.452369E-18	2.177522E-18
6.180000E+03	7.428009E-18	2.170038E-18
6.190000E+03	7.404128E-18	2.162694E-18
6.200000E+03	7.380722E-18	2.155490E-18
6.210000E+03	7.357775E-18	2.148419E-18
6.220000E+03	7.335466E-18	2.141536E-18
6.230000E+03	7.314061E-18	2.134916E-18
6.240000E+03	7.293641E-18	2.128585E-18
6.250000E+03	7.274382E-18	2.122592E-18
6.260000E+03	7.256459E-18	2.116989E-18
6.270000E+03	7.239954E-18	2.111799E-18
6.280000E+03	7.225048E-18	2.107075E-18
6.290000E+03	7.211823E-18	2.102842E-18
6.300000E+03	7.200367E-18	2.099123E-18
6.310000E+03	7.190867E-18	2.095974E-18
6.320000E+03	7.183315E-18	2.093392E-18
6.330000E+03	7.177903E-18	2.091432E-18
6.340000E+03	7.174531E-18	2.090065E-18
6.350000E+03	7.173294E-18	2.089318E-18
6.360000E+03	7.174189E-18	2.089190E-18
6.370000E+03	7.177322E-18	2.089712E-18
6.380000E+03	7.182590E-18	2.090853E-18
6.390000E+03	7.189997E-18	2.092614E-18
6.400000E+03	7.199441E-18	2.094965E-18
6.410000E+03	7.210714E-18	2.097845E-18
6.420000E+03	7.223708E-18	2.101222E-18
6.430000E+03	7.238419E-18	2.105096E-18
6.440000E+03	7.254839E-18	2.109463E-18
6.450000E+03	7.272967E-18	2.114322E-18
6.460000E+03	7.292909E-18	2.119705E-18
6.470000E+03	7.314771E-18	2.125641E-18
6.480000E+03	7.338557E-18	2.132132E-18
6.490000E+03	7.364162E-18	2.139146E-18
6.500000E+03	7.391811E-18	2.146750E-18
6.510000E+03	7.421514E-18	2.154944E-18
6.520000E+03	7.453163E-18	2.163698E-18
6.530000E+03	7.486886E-18	2.173048E-18
6.540000E+03	7.522691E-18	2.182996E-18
6.550000E+03	7.560473E-18	2.193512E-18
6.560000E+03	7.600241E-18	2.204597E-18
6.570000E+03	7.642251E-18	2.216326E-18
6.580000E+03	7.686153E-18	2.228596E-18
6.590000E+03	7.732204E-18	2.241482E-18
6.600000E+03	7.780421E-18	2.254988E-18
6.610000E+03	7.830568E-18	2.269045E-18
6.620000E+03	7.882916E-18	2.283731E-18
6.630000E+03	7.937221E-18	2.298976E-18
6.640000E+03	7.993763E-18	2.314860E-18
6.650000E+03	8.052295E-18	2.331311E-18
6.660000E+03	8.112966E-18	2.348371E-18
6.670000E+03	8.175798E-18	2.366048E-18
6.680000E+03	8.240672E-18	2.384305E-18
6.690000E+03	8.307601E-18	2.403146E-18
6.700000E+03	8.376750E-18	2.422619E-18
6.710000E+03	8.447991E-18	2.442685E-18
6.720000E+03	8.521349E-18	2.463353E-18
6.730000E+03	8.596839E-18	2.484625E-18
6.740000E+03	8.674481E-18	2.506506E-18
6.750000E+03	8.754296E-18	2.529003E-18
6.760000E+03	8.836307E-18	2.552122E-18
6.770000E+03	8.920376E-18	2.575822E-18
6.780000E+03	9.006680E-18	2.600155E-18
6.790000E+03	9.095241E-18	2.625125E-18
6.800000E+03	9.185921E-18	2.650692E-18
6.810000E+03	9.278902E-18	2.676909E-18
6.820000E+03	9.374042E-18	2.703734E-18
6.830000E+03	9.471357E-18	2.731172E-18
6.840000E+03	9.570866E-18	2.759226E-18
6.850000E+03	9.672591E-18	2.787904E-18
6.860000E+03	9.776729E-18	2.817260E-18
6.870000E+03	9.882944E-18	2.847199E-18
6.880000E+03	9.991430E-18	2.877775E-18
6.890000E+03	1.010221E-17	2.908995E-18
6.900000E+03	1.021512E-17	2.940808E-18
6.910000E+03	1.033035E-17	2.973274E-18
6.920000E+03	1.044793E-17	3.006397E-18
6.930000E+03	1.056769E-17	3.040127E-18
6.940000E+03	1.068962E-17	3.074464E-18
6.950000E+03	1.081396E-17	3.109473E-18
6.960000E+03	1.094051E-17	3.145098E-18
6.970000E+03	1.106928E-17	3.181341E-18
6.980000E+03	1.120028E-17	3.218205E-18
6.990000E+03	1.133353E-17	3.255692E-18
7.000000E+03	1.146880E-17	3.293741E-18
7.010000E+03	1.160656E-17	3.332481E-18
7.020000E+03	1.174636E-17	3.371785E-18
7.030000E+03	1.188843E-17	3.411718E-18
7.040000E+03	1.203255E-17	3.452214E-18
7.050000E+03	1.217870E-17	3.493272E-18
7.060000E+03	1.232713E-17	3.534960E-18
7.070000E+03	1.247760E-17	3.577207E-18
7.080000E+03	1.262984E-17	3.619938E-18
7.090000E+03	1.278435E-17	3.663295E-18
7.100000E+03	1.294087E-17	3.707203E-18
7.110000E+03	1.309913E-17	3.751582E-18
7.120000E+03	1.325937E-17	3.796502E-18
7.130000E+03	1.342130E-17	3.841882E-18
7.140000E+03	1.358518E-17	3.887792E-18
7.150000E+03	1.375070E-17	3.934146E-18
7.160000E+03	1.391813E-17	3.981017E-18
7.170000E+03	1.408686E-17	4.028234E-18
7.180000E+03	1.425714E-17	4.075866E-18
7.190000E+03	1.442924E-17	4.123989E-18
7.200000E+03	1.460252E-17	4.172423E-18
7.210000E+03	1.477692E-17	4.221149E-18
7.220000E+03	1.495272E-17	4.270244E-18
7.230000E+03	1.512986E-17	4.319693E-18
7.240000E+03	1.530798E-17	4.369392E-18
7.250000E+03	1.548734E-17	4.419416E-18
7.260000E+03	1.566756E-17	4.469655E-18
7.270000E+03	1.584857E-17	4.520089E-18
7.280000E+03	1.603065E-17	4.570800E-18
7.290000E+03	1.621339E-17	4.621669E-18
7.300000E+03	1.639709E-17	4.672778E-18
7.310000E+03	1.658131E-17	4.724007E-18
7.320000E+03	1.676598E-17	4.775335E-18
7.330000E+03	1.695178E-17	4.826952E-18
7.340000E+03	1.713790E-17	4.878629E-18
7.350000E+03	1.732502E-17	4.930563E-18
7.360000E+03	1.751273E-17	4.982631E-18
7.370000E+03	1.770135E-17	5.034926E-18
7.380000E+03	1.789124E-17	5.087550E-18
7.390000E+03	1.808194E-17	5.140377E-18
7.400000E+03	1.827426E-17	5.193630E-18
7.410000E+03	1.846820E-17	5.247309E-18
7.420000E+03	1.866417E-17	5.301536E-18
7.430000E+03	1.886216E-17	5.356305E-18
7.440000E+03	1.906223E-17	5.411630E-18
7.450000E+03	1.926482E-17	5.467638E-18
7.460000E+03	1.946906E-17	5.524078E-18
7.470000E+03	1.967495E-17	5.580956E-18
7.480000E+03	1.988204E-17	5.638139E-18
7.490000E+03	2.009076E-17	5.695750E-18
7.500000E+03	2.030067E-17	5.753665E-18
7.510000E+03	2.051125E-17	5.811735E-18
7.520000E+03	2.072246E-17	5.869949E-18
7.530000E+03	2.093427E-17	5.928297E-18
7.540000E+03	2.114614E-17	5.986629E-18
7.550000E+03	2.135850E-17	6.045067E-18
7.560000E+03	2.157030E-17	6.103311E-18
7.570000E+03	2.178251E-17	6.161635E-18
7.580000E+03	2.199451E-17	6.219868E-18
7.590000E+03	2.220625E-17	6.277993E-18
7.600000E+03	2.241710E-17	6.335833E-18
7.610000E+03	2.262751E-17	6.393514E-18
7.620000E+03	2.283739E-17	6.451013E-18
7.630000E+03	2.304664E-17	6.508300E-18
7.640000E+03	2.325458E-17	6.565183E-18
7.650000E+03	2.346166E-17	6.621793E-18
7.660000E+03	2.366716E-17	6.677923E-18
7.670000E+03	2.387213E-17	6.733874E-18
7.680000E+03	2.407466E-17	6.789105E-18
7.690000E+03	2.427637E-17	6.844071E-18
7.700000E+03	2.447654E-17	6.898574E-18
7.710000E+03	2.467436E-17	6.952385E-18
7.720000E+03	2.487030E-17	7.005635E-18
7.730000E+03	2.506418E-17	7.058276E-18
7.740000E+03	2.525581E-17	7.110257E-18
7.750000E+03	2.544506E-17	7.161535E-18
7.760000E+03	2.563235E-17	7.212237E-18
