#wls	flux	fluxerr
1.600000E+03	2.596665E-16	3.792696E-17
1.640000E+03	2.660449E-16	3.877503E-17
1.680000E+03	2.723311E-16	3.960376E-17
1.720000E+03	2.785834E-16	4.042156E-17
1.760000E+03	2.847238E-16	4.121698E-17
1.800000E+03	2.907202E-16	4.198533E-17
1.840000E+03	2.965585E-16	4.272457E-17
1.880000E+03	3.021687E-16	4.342464E-17
1.920000E+03	3.074999E-16	4.407833E-17
1.960000E+03	3.124968E-16	4.467788E-17
2.000000E+03	3.170539E-16	4.520847E-17
2.040000E+03	3.211332E-16	4.566507E-17
2.080000E+03	3.245865E-16	4.602707E-17
2.120000E+03	3.272768E-16	4.627575E-17
2.160000E+03	3.291002E-16	4.639728E-17
2.200000E+03	3.299091E-16	4.637192E-17
2.240000E+03	3.295274E-16	4.617621E-17
2.280000E+03	3.279527E-16	4.581137E-17
2.320000E+03	3.251623E-16	4.527581E-17
2.360000E+03	3.212762E-16	4.458786E-17
2.400000E+03	3.164211E-16	4.376665E-17
2.440000E+03	3.107122E-16	4.282948E-17
2.480000E+03	3.042660E-16	4.179374E-17
2.520000E+03	2.971365E-16	4.066804E-17
2.560000E+03	2.894233E-16	3.946714E-17
2.600000E+03	2.811611E-16	3.819684E-17
2.640000E+03	2.723997E-16	3.686493E-17
2.680000E+03	2.631733E-16	3.547704E-17
2.720000E+03	2.535334E-16	3.404108E-17
2.760000E+03	2.435217E-16	3.256354E-17
2.800000E+03	2.331844E-16	3.105146E-17
2.840000E+03	2.225923E-16	2.951507E-17
2.880000E+03	2.118168E-16	2.796452E-17
2.920000E+03	2.009522E-16	2.641283E-17
2.960000E+03	1.901036E-16	2.487420E-17
3.000000E+03	1.793823E-16	2.336342E-17
3.010000E+03	1.767341E-16	2.299168E-17
3.020000E+03	1.741031E-16	2.262287E-17
3.030000E+03	1.714902E-16	2.225713E-17
3.040000E+03	1.689005E-16	2.189509E-17
3.050000E+03	1.663311E-16	2.153639E-17
3.060000E+03	1.637834E-16	2.118120E-17
3.070000E+03	1.612655E-16	2.083056E-17
3.080000E+03	1.587717E-16	2.048372E-17
3.090000E+03	1.563098E-16	2.014170E-17
3.100000E+03	1.538778E-16	1.980420E-17
3.110000E+03	1.514770E-16	1.947139E-17
3.120000E+03	1.491146E-16	1.914419E-17
3.130000E+03	1.467860E-16	1.882199E-17
3.140000E+03	1.444954E-16	1.850531E-17
3.150000E+03	1.422441E-16	1.819432E-17
3.160000E+03	1.400362E-16	1.788952E-17
3.170000E+03	1.378705E-16	1.759073E-17
3.180000E+03	1.357507E-16	1.729843E-17
3.190000E+03	1.336784E-16	1.701277E-17
3.200000E+03	1.316525E-16	1.673362E-17
3.210000E+03	1.296768E-16	1.646144E-17
3.220000E+03	1.277551E-16	1.619666E-17
3.230000E+03	1.258841E-16	1.593889E-17
3.240000E+03	1.240697E-16	1.568881E-17
3.250000E+03	1.223090E-16	1.544604E-17
3.260000E+03	1.206092E-16	1.521149E-17
3.270000E+03	1.189658E-16	1.498452E-17
3.280000E+03	1.173818E-16	1.476553E-17
3.290000E+03	1.158602E-16	1.455485E-17
3.300000E+03	1.144004E-16	1.435236E-17
3.310000E+03	1.130048E-16	1.415837E-17
3.320000E+03	1.116711E-16	1.397252E-17
3.330000E+03	1.104018E-16	1.379512E-17
3.340000E+03	1.091979E-16	1.362625E-17
3.350000E+03	1.080599E-16	1.346596E-17
3.360000E+03	1.069886E-16	1.331431E-17
3.370000E+03	1.059832E-16	1.317115E-17
3.380000E+03	1.050442E-16	1.303654E-17
3.390000E+03	1.041723E-16	1.291051E-17
3.400000E+03	1.033681E-16	1.279311E-17
3.410000E+03	1.026306E-16	1.268420E-17
3.420000E+03	1.019605E-16	1.258381E-17
3.430000E+03	1.013583E-16	1.249198E-17
3.440000E+03	1.008231E-16	1.240856E-17
3.450000E+03	1.003555E-16	1.233360E-17
3.460000E+03	9.995606E-17	1.226711E-17
3.470000E+03	9.962264E-17	1.220882E-17
3.480000E+03	9.935710E-17	1.215891E-17
3.490000E+03	9.915870E-17	1.211726E-17
3.500000E+03	9.902676E-17	1.208376E-17
3.510000E+03	9.896186E-17	1.205843E-17
3.520000E+03	9.896215E-17	1.204102E-17
3.530000E+03	9.902823E-17	1.203156E-17
3.540000E+03	9.915952E-17	1.202996E-17
3.550000E+03	9.935543E-17	1.203611E-17
3.560000E+03	9.961542E-17	1.204990E-17
3.570000E+03	9.993890E-17	1.207124E-17
3.580000E+03	1.003242E-16	1.209988E-17
3.590000E+03	1.007719E-16	1.213587E-17
3.600000E+03	1.012803E-16	1.217897E-17
3.610000E+03	1.018498E-16	1.222919E-17
3.620000E+03	1.024776E-16	1.228616E-17
3.630000E+03	1.031652E-16	1.235004E-17
3.640000E+03	1.039086E-16	1.242030E-17
3.650000E+03	1.047080E-16	1.249695E-17
3.660000E+03	1.055614E-16	1.257973E-17
3.670000E+03	1.064689E-16	1.266860E-17
3.680000E+03	1.074273E-16	1.276317E-17
3.690000E+03	1.084364E-16	1.286338E-17
3.700000E+03	1.094939E-16	1.296892E-17
3.710000E+03	1.105993E-16	1.307972E-17
3.720000E+03	1.117500E-16	1.319545E-17
3.730000E+03	1.129464E-16	1.331611E-17
3.740000E+03	1.141844E-16	1.344122E-17
3.750000E+03	1.154642E-16	1.357077E-17
3.760000E+03	1.167836E-16	1.370447E-17
3.770000E+03	1.181413E-16	1.384215E-17
3.780000E+03	1.195348E-16	1.398351E-17
3.790000E+03	1.209636E-16	1.412847E-17
3.800000E+03	1.224239E-16	1.427655E-17
3.810000E+03	1.239147E-16	1.442764E-17
3.820000E+03	1.254343E-16	1.458150E-17
3.830000E+03	1.269803E-16	1.473786E-17
3.840000E+03	1.285505E-16	1.489644E-17
3.850000E+03	1.301413E-16	1.505682E-17
3.860000E+03	1.317525E-16	1.521895E-17
3.870000E+03	1.333814E-16	1.538253E-17
3.880000E+03	1.350242E-16	1.554710E-17
3.890000E+03	1.366791E-16	1.571244E-17
3.900000E+03	1.383432E-16	1.587823E-17
3.910000E+03	1.400147E-16	1.604425E-17
3.920000E+03	1.416893E-16	1.621000E-17
3.930000E+03	1.433662E-16	1.637540E-17
3.940000E+03	1.450411E-16	1.653996E-17
3.950000E+03	1.467133E-16	1.670359E-17
3.960000E+03	1.483782E-16	1.686579E-17
3.970000E+03	1.500326E-16	1.702619E-17
3.980000E+03	1.516758E-16	1.718472E-17
3.990000E+03	1.533034E-16	1.734088E-17
4.000000E+03	1.549133E-16	1.749447E-17
4.010000E+03	1.565024E-16	1.764515E-17
4.020000E+03	1.580691E-16	1.779272E-17
4.030000E+03	1.596102E-16	1.793687E-17
4.040000E+03	1.611227E-16	1.807727E-17
4.050000E+03	1.626052E-16	1.821378E-17
4.060000E+03	1.640562E-16	1.834625E-17
4.070000E+03	1.654703E-16	1.847411E-17
4.080000E+03	1.668491E-16	1.859755E-17
4.090000E+03	1.681873E-16	1.871601E-17
4.100000E+03	1.694855E-16	1.882956E-17
4.110000E+03	1.707399E-16	1.893784E-17
4.120000E+03	1.719498E-16	1.904078E-17
4.130000E+03	1.731134E-16	1.913820E-17
4.140000E+03	1.742286E-16	1.922991E-17
4.150000E+03	1.752937E-16	1.931576E-17
4.160000E+03	1.763069E-16	1.939557E-17
4.170000E+03	1.772681E-16	1.946936E-17
4.180000E+03	1.781756E-16	1.953699E-17
4.190000E+03	1.790265E-16	1.959816E-17
4.200000E+03	1.798191E-16	1.965274E-17
4.210000E+03	1.805519E-16	1.970057E-17
4.220000E+03	1.812247E-16	1.974168E-17
4.230000E+03	1.818343E-16	1.977577E-17
4.240000E+03	1.823788E-16	1.980266E-17
4.250000E+03	1.828548E-16	1.982201E-17
4.260000E+03	1.832614E-16	1.983379E-17
4.270000E+03	1.835948E-16	1.983760E-17
4.280000E+03	1.838520E-16	1.983318E-17
4.290000E+03	1.840301E-16	1.982025E-17
4.300000E+03	1.841225E-16	1.979815E-17
4.310000E+03	1.841285E-16	1.976684E-17
4.320000E+03	1.840406E-16	1.972560E-17
4.330000E+03	1.838545E-16	1.967399E-17
4.340000E+03	1.835637E-16	1.961138E-17
4.350000E+03	1.831663E-16	1.953761E-17
4.360000E+03	1.826527E-16	1.945175E-17
4.370000E+03	1.820216E-16	1.935369E-17
4.380000E+03	1.812692E-16	1.924310E-17
4.390000E+03	1.803948E-16	1.911996E-17
4.400000E+03	1.794051E-16	1.898506E-17
4.410000E+03	1.783114E-16	1.883961E-17
4.420000E+03	1.771285E-16	1.868526E-17
4.430000E+03	1.758659E-16	1.852303E-17
4.440000E+03	1.745389E-16	1.835457E-17
4.450000E+03	1.731579E-16	1.818099E-17
4.460000E+03	1.717342E-16	1.800350E-17
4.470000E+03	1.702813E-16	1.782354E-17
4.480000E+03	1.688046E-16	1.764168E-17
4.490000E+03	1.673175E-16	1.745933E-17
4.500000E+03	1.658240E-16	1.727690E-17
4.510000E+03	1.643346E-16	1.709547E-17
4.520000E+03	1.628546E-16	1.691562E-17
4.530000E+03	1.613904E-16	1.673797E-17
4.540000E+03	1.599477E-16	1.656311E-17
4.550000E+03	1.585287E-16	1.639126E-17
4.560000E+03	1.571411E-16	1.622320E-17
4.570000E+03	1.557863E-16	1.605905E-17
4.580000E+03	1.544682E-16	1.589920E-17
4.590000E+03	1.531905E-16	1.574399E-17
4.600000E+03	1.519563E-16	1.559375E-17
4.610000E+03	1.507672E-16	1.544859E-17
4.620000E+03	1.496244E-16	1.530863E-17
4.630000E+03	1.485305E-16	1.517411E-17
4.640000E+03	1.474877E-16	1.504520E-17
4.650000E+03	1.464978E-16	1.492210E-17
4.660000E+03	1.455600E-16	1.480468E-17
4.670000E+03	1.446772E-16	1.469321E-17
4.680000E+03	1.438493E-16	1.458766E-17
4.690000E+03	1.430762E-16	1.448798E-17
4.700000E+03	1.423589E-16	1.439426E-17
4.710000E+03	1.416968E-16	1.430641E-17
4.720000E+03	1.410894E-16	1.422434E-17
4.730000E+03	1.405360E-16	1.414797E-17
4.740000E+03	1.400364E-16	1.407724E-17
4.750000E+03	1.395903E-16	1.401209E-17
4.760000E+03	1.391972E-16	1.395246E-17
4.770000E+03	1.388564E-16	1.389826E-17
4.780000E+03	1.385660E-16	1.384925E-17
4.790000E+03	1.383264E-16	1.380547E-17
4.800000E+03	1.381340E-16	1.376651E-17
4.810000E+03	1.379902E-16	1.373252E-17
4.820000E+03	1.378912E-16	1.370309E-17
4.830000E+03	1.378371E-16	1.367819E-17
4.840000E+03	1.378264E-16	1.365767E-17
4.850000E+03	1.378551E-16	1.364111E-17
4.860000E+03	1.379244E-16	1.362861E-17
4.870000E+03	1.380313E-16	1.361986E-17
4.880000E+03	1.381757E-16	1.361482E-17
4.890000E+03	1.383519E-16	1.361293E-17
4.900000E+03	1.385624E-16	1.361442E-17
4.910000E+03	1.388028E-16	1.361883E-17
4.920000E+03	1.390730E-16	1.362615E-17
4.930000E+03	1.393700E-16	1.363606E-17
4.940000E+03	1.396935E-16	1.364853E-17
4.950000E+03	1.400393E-16	1.366313E-17
4.960000E+03	1.404071E-16	1.367983E-17
4.970000E+03	1.407969E-16	1.369861E-17
4.980000E+03	1.412043E-16	1.371905E-17
4.990000E+03	1.416278E-16	1.374099E-17
5.000000E+03	1.420675E-16	1.376443E-17
5.010000E+03	1.425218E-16	1.378920E-17
5.020000E+03	1.429866E-16	1.381491E-17
5.030000E+03	1.434618E-16	1.384154E-17
5.040000E+03	1.439459E-16	1.386895E-17
5.050000E+03	1.444377E-16	1.389700E-17
5.060000E+03	1.449341E-16	1.392542E-17
5.070000E+03	1.454338E-16	1.395406E-17
5.080000E+03	1.459367E-16	1.398292E-17
5.090000E+03	1.464383E-16	1.401157E-17
5.100000E+03	1.469386E-16	1.403999E-17
5.110000E+03	1.474342E-16	1.406788E-17
5.120000E+03	1.479235E-16	1.409509E-17
5.130000E+03	1.484047E-16	1.412143E-17
5.140000E+03	1.488757E-16	1.414672E-17
5.150000E+03	1.493329E-16	1.417063E-17
5.160000E+03	1.497757E-16	1.419309E-17
5.170000E+03	1.501986E-16	1.421360E-17
5.180000E+03	1.506008E-16	1.423209E-17
5.190000E+03	1.509782E-16	1.424817E-17
5.200000E+03	1.513278E-16	1.426159E-17
5.210000E+03	1.516470E-16	1.427209E-17
5.220000E+03	1.519326E-16	1.427940E-17
5.230000E+03	1.521786E-16	1.428297E-17
5.240000E+03	1.523849E-16	1.428280E-17
5.250000E+03	1.525435E-16	1.427817E-17
5.260000E+03	1.526545E-16	1.426909E-17
5.270000E+03	1.527113E-16	1.425497E-17
5.280000E+03	1.527123E-16	1.423570E-17
5.290000E+03	1.526530E-16	1.421085E-17
5.300000E+03	1.525287E-16	1.418003E-17
5.310000E+03	1.523383E-16	1.414315E-17
5.320000E+03	1.520760E-16	1.409972E-17
5.330000E+03	1.517411E-16	1.404969E-17
5.340000E+03	1.513303E-16	1.399276E-17
5.350000E+03	1.508403E-16	1.392870E-17
5.360000E+03	1.502702E-16	1.385742E-17
5.370000E+03	1.496193E-16	1.377891E-17
5.380000E+03	1.488876E-16	1.369318E-17
5.390000E+03	1.480725E-16	1.360003E-17
5.400000E+03	1.471767E-16	1.349975E-17
5.410000E+03	1.462003E-16	1.339236E-17
5.420000E+03	1.451472E-16	1.327826E-17
5.430000E+03	1.440173E-16	1.315746E-17
5.440000E+03	1.428185E-16	1.303072E-17
5.450000E+03	1.415563E-16	1.289855E-17
5.460000E+03	1.402436E-16	1.276217E-17
5.470000E+03	1.388825E-16	1.262176E-17
5.480000E+03	1.374689E-16	1.247699E-17
5.490000E+03	1.360021E-16	1.232779E-17
5.500000E+03	1.344872E-16	1.217465E-17
5.510000E+03	1.329371E-16	1.201876E-17
5.520000E+03	1.313589E-16	1.186074E-17
5.530000E+03	1.297671E-16	1.170193E-17
5.540000E+03	1.281697E-16	1.154304E-17
5.550000E+03	1.265781E-16	1.138510E-17
5.560000E+03	1.250032E-16	1.122909E-17
5.570000E+03	1.234554E-16	1.107591E-17
5.580000E+03	1.219416E-16	1.092619E-17
5.590000E+03	1.204706E-16	1.078071E-17
5.600000E+03	1.190506E-16	1.064015E-17
5.610000E+03	1.176874E-16	1.050505E-17
5.620000E+03	1.163863E-16	1.037583E-17
5.630000E+03	1.151539E-16	1.025307E-17
5.640000E+03	1.139925E-16	1.013694E-17
5.650000E+03	1.129060E-16	1.002778E-17
5.660000E+03	1.118963E-16	9.925707E-18
5.670000E+03	1.109658E-16	9.830918E-18
5.680000E+03	1.101149E-16	9.743424E-18
5.690000E+03	1.093435E-16	9.663185E-18
5.700000E+03	1.086520E-16	9.590212E-18
5.710000E+03	1.080403E-16	9.524469E-18
5.720000E+03	1.075056E-16	9.465683E-18
5.730000E+03	1.070471E-16	9.413749E-18
5.740000E+03	1.066623E-16	9.368439E-18
5.750000E+03	1.063488E-16	9.329501E-18
5.760000E+03	1.061060E-16	9.296871E-18
5.770000E+03	1.059289E-16	9.270080E-18
5.780000E+03	1.058167E-16	9.249052E-18
5.790000E+03	1.057655E-16	9.233413E-18
5.800000E+03	1.057736E-16	9.222992E-18
5.810000E+03	1.058381E-16	9.217530E-18
5.820000E+03	1.059563E-16	9.216775E-18
5.830000E+03	1.061268E-16	9.220584E-18
5.840000E+03	1.063461E-16	9.228633E-18
5.850000E+03	1.066129E-16	9.240808E-18
5.860000E+03	1.069252E-16	9.256911E-18
5.870000E+03	1.072798E-16	9.276657E-18
5.880000E+03	1.076773E-16	9.300081E-18
5.890000E+03	1.081135E-16	9.326820E-18
5.900000E+03	1.085893E-16	9.356938E-18
5.910000E+03	1.091022E-16	9.390202E-18
5.920000E+03	1.096509E-16	9.426491E-18
5.930000E+03	1.102354E-16	9.465804E-18
5.940000E+03	1.108521E-16	9.507828E-18
5.950000E+03	1.115014E-16	9.552578E-18
5.960000E+03	1.121836E-16	9.600075E-18
5.970000E+03	1.128954E-16	9.650028E-18
5.980000E+03	1.136372E-16	9.702471E-18
5.990000E+03	1.144083E-16	9.757335E-18
6.000000E+03	1.152066E-16	9.814444E-18
6.010000E+03	1.160316E-16	9.873732E-18
6.020000E+03	1.168824E-16	9.935135E-18
6.030000E+03	1.177569E-16	9.998472E-18
6.040000E+03	1.186546E-16	1.006367E-17
6.050000E+03	1.195757E-16	1.013078E-17
6.060000E+03	1.205153E-16	1.019937E-17
6.070000E+03	1.214750E-16	1.026957E-17
6.080000E+03	1.224495E-16	1.034092E-17
6.090000E+03	1.234400E-16	1.041354E-17
6.100000E+03	1.244406E-16	1.048693E-17
6.110000E+03	1.254506E-16	1.056103E-17
6.120000E+03	1.264648E-16	1.063540E-17
6.130000E+03	1.274820E-16	1.070995E-17
6.140000E+03	1.284960E-16	1.078416E-17
6.150000E+03	1.295016E-16	1.085761E-17
6.160000E+03	1.304966E-16	1.093010E-17
6.170000E+03	1.314734E-16	1.100102E-17
6.180000E+03	1.324291E-16	1.107013E-17
6.190000E+03	1.333589E-16	1.113705E-17
6.200000E+03	1.342604E-16	1.120158E-17
6.210000E+03	1.351346E-16	1.126381E-17
6.220000E+03	1.359862E-16	1.132416E-17
6.230000E+03	1.368168E-16	1.138277E-17
6.240000E+03	1.376295E-16	1.143989E-17
6.250000E+03	1.384271E-16	1.149578E-17
6.260000E+03	1.392160E-16	1.155097E-17
6.270000E+03	1.399952E-16	1.160537E-17
6.280000E+03	1.407669E-16	1.165918E-17
6.290000E+03	1.415351E-16	1.171271E-17
6.300000E+03	1.423018E-16	1.176613E-17
6.310000E+03	1.430668E-16	1.181943E-17
6.320000E+03	1.438296E-16	1.187257E-17
6.330000E+03	1.445937E-16	1.192582E-17
6.340000E+03	1.453564E-16	1.197897E-17
6.350000E+03	1.461186E-16	1.203209E-17
6.360000E+03	1.468795E-16	1.208511E-17
6.370000E+03	1.476379E-16	1.213793E-17
6.380000E+03	1.483922E-16	1.219043E-17
6.390000E+03	1.491413E-16	1.224250E-17
6.400000E+03	1.498836E-16	1.229401E-17
6.410000E+03	1.506152E-16	1.234465E-17
6.420000E+03	1.513365E-16	1.239445E-17
6.430000E+03	1.520460E-16	1.244328E-17
6.440000E+03	1.527440E-16	1.249118E-17
6.450000E+03	1.534311E-16	1.253818E-17
6.460000E+03	1.541033E-16	1.258397E-17
6.470000E+03	1.547637E-16	1.262879E-17
6.480000E+03	1.554107E-16	1.267252E-17
6.490000E+03	1.560453E-16	1.271524E-17
6.500000E+03	1.566640E-16	1.275666E-17
6.510000E+03	1.572699E-16	1.279704E-17
6.520000E+03	1.578600E-16	1.283612E-17
6.530000E+03	1.584352E-16	1.287401E-17
6.540000E+03	1.589925E-16	1.291043E-17
6.550000E+03	1.595336E-16	1.294554E-17
6.560000E+03	1.600603E-16	1.297947E-17
6.570000E+03	1.605667E-16	1.301177E-17
6.580000E+03	1.610552E-16	1.304261E-17
6.590000E+03	1.615277E-16	1.307215E-17
6.600000E+03	1.619789E-16	1.309997E-17
6.610000E+03	1.624135E-16	1.312646E-17
6.620000E+03	1.628262E-16	1.315116E-17
6.630000E+03	1.632221E-16	1.317453E-17
6.640000E+03	1.635954E-16	1.319607E-17
6.650000E+03	1.639491E-16	1.321603E-17
6.660000E+03	1.642827E-16	1.323438E-17
6.670000E+03	1.645935E-16	1.325090E-17
6.680000E+03	1.648843E-16	1.326581E-17
6.690000E+03	1.651518E-16	1.327887E-17
6.700000E+03	1.653964E-16	1.329009E-17
6.710000E+03	1.656205E-16	1.329968E-17
6.720000E+03	1.658213E-16	1.330741E-17
6.730000E+03	1.659958E-16	1.331305E-17
6.740000E+03	1.661496E-16	1.331706E-17
6.750000E+03	1.662772E-16	1.331898E-17
6.760000E+03	1.663811E-16	1.331902E-17
6.770000E+03	1.664615E-16	1.331721E-17
6.780000E+03	1.665154E-16	1.331332E-17
6.790000E+03	1.665427E-16	1.330732E-17
6.800000E+03	1.665436E-16	1.329925E-17
6.810000E+03	1.665213E-16	1.328936E-17
6.820000E+03	1.664725E-16	1.327740E-17
6.830000E+03	1.663944E-16	1.326314E-17
6.840000E+03	1.662903E-16	1.324687E-17
6.850000E+03	1.661605E-16	1.322859E-17
6.860000E+03	1.660050E-16	1.320832E-17
6.870000E+03	1.658210E-16	1.318584E-17
6.880000E+03	1.656088E-16	1.316118E-17
6.890000E+03	1.653721E-16	1.313464E-17
6.900000E+03	1.651079E-16	1.310598E-17
6.910000E+03	1.648168E-16	1.307525E-17
6.920000E+03	1.644992E-16	1.304250E-17
6.930000E+03	1.641557E-16	1.300778E-17
6.940000E+03	1.637867E-16	1.297112E-17
6.950000E+03	1.633932E-16	1.293261E-17
6.960000E+03	1.629724E-16	1.289202E-17
6.970000E+03	1.625252E-16	1.284946E-17
6.980000E+03	1.620558E-16	1.280522E-17
6.990000E+03	1.615646E-16	1.275938E-17
7.000000E+03	1.610467E-16	1.271153E-17
7.010000E+03	1.605093E-16	1.266226E-17
7.020000E+03	1.599501E-16	1.261139E-17
7.030000E+03	1.593704E-16	1.255901E-17
7.040000E+03	1.587682E-16	1.250499E-17
7.050000E+03	1.581482E-16	1.244970E-17
7.060000E+03	1.575112E-16	1.239320E-17
7.070000E+03	1.568592E-16	1.233565E-17
7.080000E+03	1.561901E-16	1.227690E-17
7.090000E+03	1.555054E-16	1.221708E-17
7.100000E+03	1.548101E-16	1.215655E-17
7.110000E+03	1.541025E-16	1.209521E-17
7.120000E+03	1.533811E-16	1.203295E-17
7.130000E+03	1.526541E-16	1.197040E-17
7.140000E+03	1.519200E-16	1.190746E-17
7.150000E+03	1.511807E-16	1.184426E-17
7.160000E+03	1.504347E-16	1.178071E-17
7.170000E+03	1.496873E-16	1.171722E-17
7.180000E+03	1.489403E-16	1.165392E-17
7.190000E+03	1.481925E-16	1.159074E-17
7.200000E+03	1.474458E-16	1.152781E-17
7.210000E+03	1.467051E-16	1.146553E-17
7.220000E+03	1.459693E-16	1.140382E-17
7.230000E+03	1.452401E-16	1.134280E-17
7.240000E+03	1.445192E-16	1.128261E-17
7.250000E+03	1.438083E-16	1.122339E-17
7.260000E+03	1.431061E-16	1.116503E-17
7.270000E+03	1.424196E-16	1.110810E-17
7.280000E+03	1.417474E-16	1.105246E-17
7.290000E+03	1.410846E-16	1.099775E-17
7.300000E+03	1.404412E-16	1.094474E-17
7.310000E+03	1.398087E-16	1.089279E-17
7.320000E+03	1.391943E-16	1.084244E-17
7.330000E+03	1.385949E-16	1.079346E-17
7.340000E+03	1.380111E-16	1.074590E-17
7.350000E+03	1.374398E-16	1.069951E-17
7.360000E+03	1.368810E-16	1.065430E-17
7.370000E+03	1.363342E-16	1.061024E-17
7.380000E+03	1.357987E-16	1.056727E-17
7.390000E+03	1.352679E-16	1.052488E-17
7.400000E+03	1.347436E-16	1.048320E-17
7.410000E+03	1.342183E-16	1.044168E-17
7.420000E+03	1.336876E-16	1.039995E-17
7.430000E+03	1.331463E-16	1.035762E-17
7.440000E+03	1.325949E-16	1.031473E-17
7.450000E+03	1.320306E-16	1.027107E-17
7.460000E+03	1.314558E-16	1.022682E-17
7.470000E+03	1.308730E-16	1.018218E-17
7.480000E+03	1.302752E-16	1.013660E-17
7.490000E+03	1.296614E-16	1.008998E-17
7.500000E+03	1.290332E-16	1.004246E-17
7.510000E+03	1.283812E-16	9.993290E-18
7.520000E+03	1.277115E-16	9.942927E-18
7.530000E+03	1.270297E-16	9.891811E-18
7.540000E+03	1.263420E-16	9.840404E-18
7.550000E+03	1.256541E-16	9.789159E-18
7.560000E+03	1.249716E-16	9.738494E-18
7.570000E+03	1.243023E-16	9.689009E-18
7.580000E+03	1.236477E-16	9.640821E-18
7.590000E+03	1.230144E-16	9.594439E-18
7.600000E+03	1.224029E-16	9.549885E-18
7.610000E+03	1.218185E-16	9.507583E-18
7.620000E+03	1.212634E-16	9.467692E-18
7.630000E+03	1.207364E-16	9.430115E-18
7.640000E+03	1.202414E-16	9.395163E-18
7.650000E+03	1.197794E-16	9.362896E-18
7.660000E+03	1.193480E-16	9.333129E-18
7.670000E+03	1.189501E-16	9.306096E-18
7.680000E+03	1.185829E-16	9.281568E-18
7.690000E+03	1.182517E-16	9.259959E-18
7.700000E+03	1.179504E-16	9.240790E-18
7.710000E+03	1.176811E-16	9.224229E-18
7.720000E+03	1.174402E-16	9.209993E-18
7.730000E+03	1.172297E-16	9.198231E-18
7.740000E+03	1.170485E-16	9.188867E-18
7.750000E+03	1.168956E-16	9.181816E-18
7.760000E+03	1.167671E-16	9.176771E-18
