#wls	flux	fluxerr
1.600000E+03	3.611985E-16	1.225479E-16
1.640000E+03	3.723966E-16	1.263452E-16
1.680000E+03	3.829905E-16	1.299374E-16
1.720000E+03	3.928682E-16	1.332864E-16
1.760000E+03	4.018685E-16	1.363375E-16
1.800000E+03	4.098599E-16	1.390462E-16
1.840000E+03	4.166670E-16	1.413531E-16
1.880000E+03	4.221857E-16	1.432226E-16
1.920000E+03	4.262716E-16	1.446060E-16
1.960000E+03	4.287481E-16	1.454433E-16
2.000000E+03	4.295169E-16	1.457012E-16
2.040000E+03	4.284237E-16	1.453275E-16
2.080000E+03	4.253375E-16	1.442776E-16
2.120000E+03	4.202162E-16	1.425374E-16
2.160000E+03	4.129054E-16	1.400545E-16
2.200000E+03	4.033140E-16	1.367981E-16
2.240000E+03	3.913497E-16	1.327369E-16
2.280000E+03	3.768622E-16	1.278201E-16
2.320000E+03	3.603058E-16	1.222017E-16
2.360000E+03	3.421448E-16	1.160393E-16
2.400000E+03	3.227511E-16	1.094592E-16
2.440000E+03	3.024423E-16	1.025689E-16
2.480000E+03	2.815233E-16	9.547195E-17
2.520000E+03	2.602738E-16	8.826328E-17
2.560000E+03	2.389431E-16	8.102741E-17
2.600000E+03	2.177863E-16	7.385087E-17
2.640000E+03	1.970392E-16	6.681361E-17
2.680000E+03	1.769169E-16	5.998858E-17
2.720000E+03	1.576145E-16	5.344189E-17
2.760000E+03	1.393126E-16	4.723483E-17
2.800000E+03	1.221445E-16	4.141253E-17
2.840000E+03	1.062231E-16	3.601328E-17
2.880000E+03	9.164119E-17	3.106844E-17
2.920000E+03	7.845860E-17	2.659832E-17
2.960000E+03	6.670511E-17	2.261295E-17
3.000000E+03	5.636760E-17	1.910784E-17
3.010000E+03	5.399829E-17	1.830451E-17
3.020000E+03	5.171281E-17	1.752961E-17
3.030000E+03	4.951058E-17	1.678294E-17
3.040000E+03	4.738972E-17	1.606386E-17
3.050000E+03	4.534835E-17	1.537175E-17
3.060000E+03	4.338555E-17	1.470627E-17
3.070000E+03	4.149830E-17	1.406642E-17
3.080000E+03	3.968644E-17	1.345214E-17
3.090000E+03	3.794698E-17	1.286240E-17
3.100000E+03	3.627864E-17	1.229678E-17
3.110000E+03	3.467931E-17	1.175457E-17
3.120000E+03	3.314754E-17	1.123527E-17
3.130000E+03	3.168118E-17	1.073814E-17
3.140000E+03	3.027811E-17	1.026247E-17
3.150000E+03	2.893682E-17	9.807757E-18
3.160000E+03	2.765463E-17	9.373081E-18
3.170000E+03	2.643059E-17	8.958121E-18
3.180000E+03	2.526210E-17	8.561997E-18
3.190000E+03	2.414759E-17	8.184174E-18
3.200000E+03	2.308506E-17	7.823974E-18
3.210000E+03	2.207250E-17	7.480720E-18
3.220000E+03	2.110837E-17	7.153885E-18
3.230000E+03	2.019069E-17	6.842800E-18
3.240000E+03	1.931724E-17	6.546712E-18
3.250000E+03	1.848714E-17	6.265319E-18
3.260000E+03	1.769762E-17	5.997685E-18
3.270000E+03	1.694779E-17	5.743504E-18
3.280000E+03	1.623533E-17	5.501996E-18
3.290000E+03	1.555884E-17	5.272682E-18
3.300000E+03	1.491690E-17	5.055083E-18
3.310000E+03	1.430747E-17	4.848502E-18
3.320000E+03	1.372945E-17	4.652570E-18
3.330000E+03	1.318133E-17	4.466777E-18
3.340000E+03	1.266149E-17	4.290570E-18
3.350000E+03	1.216857E-17	4.123486E-18
3.360000E+03	1.170126E-17	3.965085E-18
3.370000E+03	1.125846E-17	3.814995E-18
3.380000E+03	1.083866E-17	3.672700E-18
3.390000E+03	1.044101E-17	3.537916E-18
3.400000E+03	1.006415E-17	3.410175E-18
3.410000E+03	9.707026E-18	3.289129E-18
3.420000E+03	9.368797E-18	3.174485E-18
3.430000E+03	9.048169E-18	3.065808E-18
3.440000E+03	8.744496E-18	2.962878E-18
3.450000E+03	8.456832E-18	2.865375E-18
3.460000E+03	8.184090E-18	2.772930E-18
3.470000E+03	7.925740E-18	2.685363E-18
3.480000E+03	7.680817E-18	2.602347E-18
3.490000E+03	7.448676E-18	2.523664E-18
3.500000E+03	7.228637E-18	2.449082E-18
3.510000E+03	7.019821E-18	2.378305E-18
3.520000E+03	6.821726E-18	2.311161E-18
3.530000E+03	6.633660E-18	2.247417E-18
3.540000E+03	6.454987E-18	2.186856E-18
3.550000E+03	6.285179E-18	2.129301E-18
3.560000E+03	6.123630E-18	2.074544E-18
3.570000E+03	5.969833E-18	2.022415E-18
3.580000E+03	5.823267E-18	1.972736E-18
3.590000E+03	5.683561E-18	1.925383E-18
3.600000E+03	5.550312E-18	1.880218E-18
3.610000E+03	5.423090E-18	1.837096E-18
3.620000E+03	5.301601E-18	1.795917E-18
3.630000E+03	5.185564E-18	1.756586E-18
3.640000E+03	5.074615E-18	1.718979E-18
3.650000E+03	4.968645E-18	1.683060E-18
3.660000E+03	4.867320E-18	1.648715E-18
3.670000E+03	4.770496E-18	1.615895E-18
3.680000E+03	4.677986E-18	1.584537E-18
3.690000E+03	4.589615E-18	1.554582E-18
3.700000E+03	4.505244E-18	1.525983E-18
3.710000E+03	4.424779E-18	1.498707E-18
3.720000E+03	4.347968E-18	1.472669E-18
3.730000E+03	4.274796E-18	1.447865E-18
3.740000E+03	4.205054E-18	1.424223E-18
3.750000E+03	4.138652E-18	1.401713E-18
3.760000E+03	4.075497E-18	1.380303E-18
3.770000E+03	4.015399E-18	1.359929E-18
3.780000E+03	3.958330E-18	1.340581E-18
3.790000E+03	3.904143E-18	1.322210E-18
3.800000E+03	3.852754E-18	1.304787E-18
3.810000E+03	3.804047E-18	1.288272E-18
3.820000E+03	3.757946E-18	1.272640E-18
3.830000E+03	3.714346E-18	1.257856E-18
3.840000E+03	3.673176E-18	1.243895E-18
3.850000E+03	3.634336E-18	1.230723E-18
3.860000E+03	3.597791E-18	1.218329E-18
3.870000E+03	3.563452E-18	1.206681E-18
3.880000E+03	3.531225E-18	1.195750E-18
3.890000E+03	3.501058E-18	1.185516E-18
3.900000E+03	3.472867E-18	1.175951E-18
3.910000E+03	3.446624E-18	1.167047E-18
3.920000E+03	3.422254E-18	1.158776E-18
3.930000E+03	3.399703E-18	1.151122E-18
3.940000E+03	3.378901E-18	1.144060E-18
3.950000E+03	3.359773E-18	1.137565E-18
3.960000E+03	3.342326E-18	1.131639E-18
3.970000E+03	3.326442E-18	1.126243E-18
3.980000E+03	3.312104E-18	1.121370E-18
3.990000E+03	3.299247E-18	1.116998E-18
4.000000E+03	3.287832E-18	1.113115E-18
4.010000E+03	3.277826E-18	1.109708E-18
4.020000E+03	3.269140E-18	1.106749E-18
4.030000E+03	3.261767E-18	1.104234E-18
4.040000E+03	3.255649E-18	1.102144E-18
4.050000E+03	3.250758E-18	1.100469E-18
4.060000E+03	3.247037E-18	1.099190E-18
4.070000E+03	3.244435E-18	1.098290E-18
4.080000E+03	3.242953E-18	1.097769E-18
4.090000E+03	3.242514E-18	1.097601E-18
4.100000E+03	3.243096E-18	1.097779E-18
4.110000E+03	3.244682E-18	1.098296E-18
4.120000E+03	3.247201E-18	1.099129E-18
4.130000E+03	3.250660E-18	1.100280E-18
4.140000E+03	3.254995E-18	1.101728E-18
4.150000E+03	3.260189E-18	1.103465E-18
4.160000E+03	3.266227E-18	1.105489E-18
4.170000E+03	3.273047E-18	1.107776E-18
4.180000E+03	3.280660E-18	1.110332E-18
4.190000E+03	3.288980E-18	1.113128E-18
4.200000E+03	3.298045E-18	1.116175E-18
4.210000E+03	3.307768E-18	1.119444E-18
4.220000E+03	3.318140E-18	1.122933E-18
4.230000E+03	3.329128E-18	1.126630E-18
4.240000E+03	3.340724E-18	1.130532E-18
4.250000E+03	3.352844E-18	1.134612E-18
4.260000E+03	3.365510E-18	1.138876E-18
4.270000E+03	3.378662E-18	1.143304E-18
4.280000E+03	3.392250E-18	1.147880E-18
4.290000E+03	3.406268E-18	1.152600E-18
4.300000E+03	3.420686E-18	1.157456E-18
4.310000E+03	3.435424E-18	1.162420E-18
4.320000E+03	3.450451E-18	1.167481E-18
4.330000E+03	3.465737E-18	1.172629E-18
4.340000E+03	3.481253E-18	1.177855E-18
4.350000E+03	3.496967E-18	1.183147E-18
4.360000E+03	3.512876E-18	1.188506E-18
4.370000E+03	3.528947E-18	1.193918E-18
4.380000E+03	3.545143E-18	1.199373E-18
4.390000E+03	3.561520E-18	1.204888E-18
4.400000E+03	3.578041E-18	1.210452E-18
4.410000E+03	3.594702E-18	1.216062E-18
4.420000E+03	3.611525E-18	1.221727E-18
4.430000E+03	3.628507E-18	1.227446E-18
4.440000E+03	3.645609E-18	1.233205E-18
4.450000E+03	3.662862E-18	1.239014E-18
4.460000E+03	3.680233E-18	1.244863E-18
4.470000E+03	3.697716E-18	1.250749E-18
4.480000E+03	3.715315E-18	1.256674E-18
4.490000E+03	3.732970E-18	1.262618E-18
4.500000E+03	3.750714E-18	1.268591E-18
4.510000E+03	3.768527E-18	1.274588E-18
4.520000E+03	3.786379E-18	1.280597E-18
4.530000E+03	3.804286E-18	1.286624E-18
4.540000E+03	3.822195E-18	1.292651E-18
4.550000E+03	3.840121E-18	1.298684E-18
4.560000E+03	3.858079E-18	1.304727E-18
4.570000E+03	3.876058E-18	1.310777E-18
4.580000E+03	3.894009E-18	1.316817E-18
4.590000E+03	3.911958E-18	1.322855E-18
4.600000E+03	3.929892E-18	1.328889E-18
4.610000E+03	3.947806E-18	1.334915E-18
4.620000E+03	3.965730E-18	1.340943E-18
4.630000E+03	3.983620E-18	1.346960E-18
4.640000E+03	4.001509E-18	1.352976E-18
4.650000E+03	4.019399E-18	1.358992E-18
4.660000E+03	4.037286E-18	1.365007E-18
4.670000E+03	4.055171E-18	1.371020E-18
4.680000E+03	4.073058E-18	1.377034E-18
4.690000E+03	4.090947E-18	1.383047E-18
4.700000E+03	4.108913E-18	1.389086E-18
4.710000E+03	4.126962E-18	1.395153E-18
4.720000E+03	4.145099E-18	1.401249E-18
4.730000E+03	4.163402E-18	1.407401E-18
4.740000E+03	4.181846E-18	1.413599E-18
4.750000E+03	4.200437E-18	1.419848E-18
4.760000E+03	4.219225E-18	1.426161E-18
4.770000E+03	4.238220E-18	1.432545E-18
4.780000E+03	4.257394E-18	1.438988E-18
4.790000E+03	4.276797E-18	1.445508E-18
4.800000E+03	4.296448E-18	1.452111E-18
4.810000E+03	4.316319E-18	1.458789E-18
4.820000E+03	4.336464E-18	1.465558E-18
4.830000E+03	4.356900E-18	1.472425E-18
4.840000E+03	4.377644E-18	1.479395E-18
4.850000E+03	4.398716E-18	1.486476E-18
4.860000E+03	4.420090E-18	1.493658E-18
4.870000E+03	4.441870E-18	1.500977E-18
4.880000E+03	4.463992E-18	1.508411E-18
4.890000E+03	4.486481E-18	1.515968E-18
4.900000E+03	4.509396E-18	1.523668E-18
4.910000E+03	4.532764E-18	1.531520E-18
4.920000E+03	4.556605E-18	1.539532E-18
4.930000E+03	4.580859E-18	1.547683E-18
4.940000E+03	4.605632E-18	1.556008E-18
4.950000E+03	4.630909E-18	1.564503E-18
4.960000E+03	4.656708E-18	1.573173E-18
4.970000E+03	4.683056E-18	1.582028E-18
4.980000E+03	4.709976E-18	1.591075E-18
4.990000E+03	4.737440E-18	1.600306E-18
5.000000E+03	4.765472E-18	1.609727E-18
5.010000E+03	4.794134E-18	1.619360E-18
5.020000E+03	4.823396E-18	1.629196E-18
5.030000E+03	4.853224E-18	1.639221E-18
5.040000E+03	4.883726E-18	1.649473E-18
5.050000E+03	4.914771E-18	1.659908E-18
5.060000E+03	4.946461E-18	1.670560E-18
5.070000E+03	4.978805E-18	1.681431E-18
5.080000E+03	5.011669E-18	1.692477E-18
5.090000E+03	5.045203E-18	1.703749E-18
5.100000E+03	5.079316E-18	1.715215E-18
5.110000E+03	5.114011E-18	1.726876E-18
5.120000E+03	5.149344E-18	1.738752E-18
5.130000E+03	5.185218E-18	1.750809E-18
5.140000E+03	5.221634E-18	1.763049E-18
5.150000E+03	5.258646E-18	1.775488E-18
5.160000E+03	5.296202E-18	1.788110E-18
5.170000E+03	5.334305E-18	1.800915E-18
5.180000E+03	5.372899E-18	1.813886E-18
5.190000E+03	5.412037E-18	1.827038E-18
5.200000E+03	5.451609E-18	1.840336E-18
5.210000E+03	5.491720E-18	1.853814E-18
5.220000E+03	5.532310E-18	1.867453E-18
5.230000E+03	5.573316E-18	1.881231E-18
5.240000E+03	5.614734E-18	1.895147E-18
5.250000E+03	5.656603E-18	1.909214E-18
5.260000E+03	5.698800E-18	1.923390E-18
5.270000E+03	5.741365E-18	1.937689E-18
5.280000E+03	5.784334E-18	1.952123E-18
5.290000E+03	5.827516E-18	1.966627E-18
5.300000E+03	5.871054E-18	1.981250E-18
5.310000E+03	5.914748E-18	1.995924E-18
5.320000E+03	5.958739E-18	2.010697E-18
5.330000E+03	6.002816E-18	2.025498E-18
5.340000E+03	6.047056E-18	2.040352E-18
5.350000E+03	6.091425E-18	2.055249E-18
5.360000E+03	6.135816E-18	2.070151E-18
5.370000E+03	6.180314E-18	2.085087E-18
5.380000E+03	6.224694E-18	2.099983E-18
5.390000E+03	6.269099E-18	2.114885E-18
5.400000E+03	6.313426E-18	2.129759E-18
5.410000E+03	6.357640E-18	2.144594E-18
5.420000E+03	6.401699E-18	2.159375E-18
5.430000E+03	6.445565E-18	2.174089E-18
5.440000E+03	6.489140E-18	2.188704E-18
5.450000E+03	6.532381E-18	2.203204E-18
5.460000E+03	6.575248E-18	2.217576E-18
5.470000E+03	6.617703E-18	2.231808E-18
5.480000E+03	6.659628E-18	2.245860E-18
5.490000E+03	6.700914E-18	2.259695E-18
5.500000E+03	6.741573E-18	2.273316E-18
5.510000E+03	6.781484E-18	2.286684E-18
5.520000E+03	6.820518E-18	2.299755E-18
5.530000E+03	6.858550E-18	2.312486E-18
5.540000E+03	6.895582E-18	2.324878E-18
5.550000E+03	6.931412E-18	2.336864E-18
5.560000E+03	6.966042E-18	2.348444E-18
5.570000E+03	6.999264E-18	2.359547E-18
5.580000E+03	7.031005E-18	2.370150E-18
5.590000E+03	7.061272E-18	2.380255E-18
5.600000E+03	7.089844E-18	2.389787E-18
5.610000E+03	7.116728E-18	2.398748E-18
5.620000E+03	7.141848E-18	2.407114E-18
5.630000E+03	7.165062E-18	2.414836E-18
5.640000E+03	7.186301E-18	2.421892E-18
5.650000E+03	7.205572E-18	2.428283E-18
5.660000E+03	7.222814E-18	2.433989E-18
5.670000E+03	7.237893E-18	2.438965E-18
5.680000E+03	7.250833E-18	2.443219E-18
5.690000E+03	7.261661E-18	2.446761E-18
5.700000E+03	7.270187E-18	2.449527E-18
5.710000E+03	7.276454E-18	2.451530E-18
5.720000E+03	7.280507E-18	2.452787E-18
5.730000E+03	7.282327E-18	2.453291E-18
5.740000E+03	7.281899E-18	2.453037E-18
5.750000E+03	7.279213E-18	2.452022E-18
5.760000E+03	7.274266E-18	2.450244E-18
5.770000E+03	7.267131E-18	2.447730E-18
5.780000E+03	7.257740E-18	2.444455E-18
5.790000E+03	7.246257E-18	2.440475E-18
5.800000E+03	7.232617E-18	2.435769E-18
5.810000E+03	7.216842E-18	2.430344E-18
5.820000E+03	7.199112E-18	2.424259E-18
5.830000E+03	7.179301E-18	2.417475E-18
5.840000E+03	7.157531E-18	2.410031E-18
5.850000E+03	7.133918E-18	2.401966E-18
5.860000E+03	7.108441E-18	2.393274E-18
5.870000E+03	7.081241E-18	2.384002E-18
5.880000E+03	7.052310E-18	2.374148E-18
5.890000E+03	7.021882E-18	2.363790E-18
5.900000E+03	6.989969E-18	2.352933E-18
5.910000E+03	6.956662E-18	2.341607E-18
5.920000E+03	6.922139E-18	2.329872E-18
5.930000E+03	6.886423E-18	2.317736E-18
5.940000E+03	6.849697E-18	2.305261E-18
5.950000E+03	6.811982E-18	2.292454E-18
5.960000E+03	6.773457E-18	2.279375E-18
5.970000E+03	6.734224E-18	2.266058E-18
5.980000E+03	6.694376E-18	2.252536E-18
5.990000E+03	6.653932E-18	2.238813E-18
6.000000E+03	6.613063E-18	2.224949E-18
6.010000E+03	6.571857E-18	2.210971E-18
6.020000E+03	6.530323E-18	2.196885E-18
6.030000E+03	6.488623E-18	2.182743E-18
6.040000E+03	6.446761E-18	2.168548E-18
6.050000E+03	6.404735E-18	2.154299E-18
6.060000E+03	6.362776E-18	2.140073E-18
6.070000E+03	6.320799E-18	2.125842E-18
6.080000E+03	6.278946E-18	2.111654E-18
6.090000E+03	6.237135E-18	2.097480E-18
6.100000E+03	6.195497E-18	2.083366E-18
6.110000E+03	6.154015E-18	2.069306E-18
6.120000E+03	6.112744E-18	2.055317E-18
6.130000E+03	6.071736E-18	2.041418E-18
6.140000E+03	6.030962E-18	2.027598E-18
6.150000E+03	5.990466E-18	2.013873E-18
6.160000E+03	5.950290E-18	2.000256E-18
6.170000E+03	5.910472E-18	1.986761E-18
6.180000E+03	5.871047E-18	1.973399E-18
6.190000E+03	5.831973E-18	1.960155E-18
6.200000E+03	5.793353E-18	1.947066E-18
6.210000E+03	5.755214E-18	1.934139E-18
6.220000E+03	5.717579E-18	1.921382E-18
6.230000E+03	5.680545E-18	1.908828E-18
6.240000E+03	5.644203E-18	1.896508E-18
6.250000E+03	5.608647E-18	1.884452E-18
6.260000E+03	5.573959E-18	1.872689E-18
6.270000E+03	5.540230E-18	1.861249E-18
6.280000E+03	5.507616E-18	1.850185E-18
6.290000E+03	5.476054E-18	1.839475E-18
6.300000E+03	5.445845E-18	1.829220E-18
6.310000E+03	5.416924E-18	1.819398E-18
6.320000E+03	5.389440E-18	1.810060E-18
6.330000E+03	5.363478E-18	1.801233E-18
6.340000E+03	5.339114E-18	1.792944E-18
6.350000E+03	5.316352E-18	1.785193E-18
6.360000E+03	5.295268E-18	1.778006E-18
6.370000E+03	5.275946E-18	1.771411E-18
6.380000E+03	5.258384E-18	1.765407E-18
6.390000E+03	5.242592E-18	1.759998E-18
6.400000E+03	5.228648E-18	1.755209E-18
6.410000E+03	5.216403E-18	1.750990E-18
6.420000E+03	5.205864E-18	1.747345E-18
6.430000E+03	5.196957E-18	1.744247E-18
6.440000E+03	5.189531E-18	1.741646E-18
6.450000E+03	5.183668E-18	1.739569E-18
6.460000E+03	5.179214E-18	1.737965E-18
6.470000E+03	5.176249E-18	1.736861E-18
6.480000E+03	5.174778E-18	1.736257E-18
6.490000E+03	5.174724E-18	1.736129E-18
6.500000E+03	5.176091E-18	1.736476E-18
6.510000E+03	5.178881E-18	1.737301E-18
6.520000E+03	5.183096E-18	1.738603E-18
6.530000E+03	5.188740E-18	1.740383E-18
6.540000E+03	5.195901E-18	1.742672E-18
6.550000E+03	5.204498E-18	1.745442E-18
6.560000E+03	5.214454E-18	1.748666E-18
6.570000E+03	5.225941E-18	1.752404E-18
6.580000E+03	5.238793E-18	1.756597E-18
6.590000E+03	5.253099E-18	1.761278E-18
6.600000E+03	5.268864E-18	1.766446E-18
6.610000E+03	5.286097E-18	1.772105E-18
6.620000E+03	5.304798E-18	1.778256E-18
6.630000E+03	5.324889E-18	1.784871E-18
6.640000E+03	5.346462E-18	1.791981E-18
6.650000E+03	5.369434E-18	1.799559E-18
6.660000E+03	5.393899E-18	1.807635E-18
6.670000E+03	5.419776E-18	1.816184E-18
6.680000E+03	5.447066E-18	1.825204E-18
6.690000E+03	5.475872E-18	1.834730E-18
6.700000E+03	5.506201E-18	1.844765E-18
6.710000E+03	5.537873E-18	1.855248E-18
6.720000E+03	5.571085E-18	1.866245E-18
6.730000E+03	5.605651E-18	1.877693E-18
6.740000E+03	5.641777E-18	1.889662E-18
6.750000E+03	5.679370E-18	1.902120E-18
6.760000E+03	5.718341E-18	1.915038E-18
6.770000E+03	5.758901E-18	1.928485E-18
6.780000E+03	5.800856E-18	1.942396E-18
6.790000E+03	5.844315E-18	1.956810E-18
6.800000E+03	5.889295E-18	1.971729E-18
6.810000E+03	5.935800E-18	1.987157E-18
6.820000E+03	5.983739E-18	2.003062E-18
6.830000E+03	6.033225E-18	2.019482E-18
6.840000E+03	6.084160E-18	2.036384E-18
6.850000E+03	6.136664E-18	2.053809E-18
6.860000E+03	6.190633E-18	2.071720E-18
6.870000E+03	6.246078E-18	2.090123E-18
6.880000E+03	6.303122E-18	2.109057E-18
6.890000E+03	6.361537E-18	2.128447E-18
6.900000E+03	6.421569E-18	2.148375E-18
6.910000E+03	6.483106E-18	2.168802E-18
6.920000E+03	6.546156E-18	2.189733E-18
6.930000E+03	6.610724E-18	2.211167E-18
6.940000E+03	6.676817E-18	2.233108E-18
6.950000E+03	6.744315E-18	2.255514E-18
6.960000E+03	6.813346E-18	2.278430E-18
6.970000E+03	6.883916E-18	2.301856E-18
6.980000E+03	6.956034E-18	2.325796E-18
6.990000E+03	7.029431E-18	2.350160E-18
7.000000E+03	7.104512E-18	2.375082E-18
7.010000E+03	7.180872E-18	2.400428E-18
7.020000E+03	7.258787E-18	2.426288E-18
7.030000E+03	7.338116E-18	2.452617E-18
7.040000E+03	7.418857E-18	2.479414E-18
7.050000E+03	7.501006E-18	2.506676E-18
7.060000E+03	7.584562E-18	2.534404E-18
7.070000E+03	7.669370E-18	2.562546E-18
7.080000E+03	7.755569E-18	2.591147E-18
7.090000E+03	7.843158E-18	2.620208E-18
7.100000E+03	7.931974E-18	2.649673E-18
7.110000E+03	8.022162E-18	2.679592E-18
7.120000E+03	8.113553E-18	2.709908E-18
7.130000E+03	8.206132E-18	2.740615E-18
7.140000E+03	8.299882E-18	2.771708E-18
7.150000E+03	8.394963E-18	2.803240E-18
7.160000E+03	8.491013E-18	2.835090E-18
7.170000E+03	8.588006E-18	2.867249E-18
7.180000E+03	8.686274E-18	2.899829E-18
7.190000E+03	8.785440E-18	2.932702E-18
7.200000E+03	8.885475E-18	2.965860E-18
7.210000E+03	8.986536E-18	2.999355E-18
7.220000E+03	9.088407E-18	3.033114E-18
7.230000E+03	9.191056E-18	3.067128E-18
7.240000E+03	9.294448E-18	3.101383E-18
7.250000E+03	9.398545E-18	3.135867E-18
7.260000E+03	9.503518E-18	3.170638E-18
7.270000E+03	9.608916E-18	3.205544E-18
7.280000E+03	9.715115E-18	3.240712E-18
7.290000E+03	9.821865E-18	3.276057E-18
7.300000E+03	9.929124E-18	3.311566E-18
7.310000E+03	1.003707E-17	3.347297E-18
7.320000E+03	1.014543E-17	3.383162E-18
7.330000E+03	1.025440E-17	3.419222E-18
7.340000E+03	1.036393E-17	3.455463E-18
7.350000E+03	1.047421E-17	3.491949E-18
7.360000E+03	1.058521E-17	3.528669E-18
7.370000E+03	1.069715E-17	3.565693E-18
7.380000E+03	1.080975E-17	3.602933E-18
7.390000E+03	1.092372E-17	3.640625E-18
7.400000E+03	1.103907E-17	3.678768E-18
7.410000E+03	1.115554E-17	3.717276E-18
7.420000E+03	1.127389E-17	3.756405E-18
7.430000E+03	1.139387E-17	3.796073E-18
7.440000E+03	1.151577E-17	3.836371E-18
7.450000E+03	1.163933E-17	3.877216E-18
7.460000E+03	1.176483E-17	3.918700E-18
7.470000E+03	1.189145E-17	3.960551E-18
7.480000E+03	1.201975E-17	4.002951E-18
7.490000E+03	1.214885E-17	4.045613E-18
7.500000E+03	1.227902E-17	4.088624E-18
7.510000E+03	1.240995E-17	4.131879E-18
7.520000E+03	1.254129E-17	4.175265E-18
7.530000E+03	1.267330E-17	4.218868E-18
7.540000E+03	1.280502E-17	4.262366E-18
7.550000E+03	1.293700E-17	4.305944E-18
7.560000E+03	1.306888E-17	4.349477E-18
7.570000E+03	1.320057E-17	4.392945E-18
7.580000E+03	1.333170E-17	4.436215E-18
7.590000E+03	1.346250E-17	4.479371E-18
7.600000E+03	1.359257E-17	4.522278E-18
7.610000E+03	1.372183E-17	4.564908E-18
7.620000E+03	1.385055E-17	4.607348E-18
7.630000E+03	1.397829E-17	4.649457E-18
7.640000E+03	1.410532E-17	4.691325E-18
7.650000E+03	1.423086E-17	4.732688E-18
7.660000E+03	1.435552E-17	4.773754E-18
7.670000E+03	1.447887E-17	4.814377E-18
7.680000E+03	1.460119E-17	4.854651E-18
7.690000E+03	1.472202E-17	4.894423E-18
7.700000E+03	1.484128E-17	4.933666E-18
7.710000E+03	1.495887E-17	4.972348E-18
7.720000E+03	1.507548E-17	5.010700E-18
7.730000E+03	1.518987E-17	5.048306E-18
7.740000E+03	1.530313E-17	5.085531E-18
7.750000E+03	1.541438E-17	5.122085E-18
7.760000E+03	1.552395E-17	5.158074E-18
