#wls	flux	fluxerr
1.600000E+03	-2.892365E-16	-1.069415E-16
1.640000E+03	-2.937120E-16	-1.083173E-16
1.680000E+03	-2.977075E-16	-1.094976E-16
1.720000E+03	-3.011748E-16	-1.104656E-16
1.760000E+03	-3.040925E-16	-1.112142E-16
1.800000E+03	-3.064617E-16	-1.117451E-16
1.840000E+03	-3.081793E-16	-1.120220E-16
1.880000E+03	-3.092711E-16	-1.120558E-16
1.920000E+03	-3.096870E-16	-1.118303E-16
1.960000E+03	-3.093814E-16	-1.113310E-16
2.000000E+03	-3.082938E-16	-1.105388E-16
2.040000E+03	-3.063956E-16	-1.094462E-16
2.080000E+03	-3.036288E-16	-1.080357E-16
2.120000E+03	-2.999172E-16	-1.062840E-16
2.160000E+03	-2.952638E-16	-1.041964E-16
2.200000E+03	-2.896223E-16	-1.017611E-16
2.240000E+03	-2.829927E-16	-9.898319E-17
2.280000E+03	-2.754295E-16	-9.588692E-17
2.320000E+03	-2.670295E-16	-9.251127E-17
2.360000E+03	-2.579325E-16	-8.890971E-17
2.400000E+03	-2.482836E-16	-8.513670E-17
2.440000E+03	-2.382171E-16	-8.124243E-17
2.480000E+03	-2.278855E-16	-7.728227E-17
2.520000E+03	-2.173948E-16	-7.329504E-17
2.560000E+03	-2.068575E-16	-6.932094E-17
2.600000E+03	-1.963492E-16	-6.538714E-17
2.640000E+03	-1.859468E-16	-6.152056E-17
2.680000E+03	-1.757068E-16	-5.774089E-17
2.720000E+03	-1.656831E-16	-5.406634E-17
2.760000E+03	-1.559255E-16	-5.051337E-17
2.800000E+03	-1.464753E-16	-4.709519E-17
2.840000E+03	-1.373711E-16	-4.382362E-17
2.880000E+03	-1.286545E-16	-4.071096E-17
2.920000E+03	-1.203535E-16	-3.776476E-17
2.960000E+03	-1.125050E-16	-3.499489E-17
3.000000E+03	-1.051279E-16	-3.240506E-17
3.010000E+03	-1.033623E-16	-3.178700E-17
3.020000E+03	-1.016259E-16	-3.117993E-17
3.030000E+03	-9.991868E-17	-3.058378E-17
3.040000E+03	-9.824511E-17	-2.999989E-17
3.050000E+03	-9.660264E-17	-2.942743E-17
3.060000E+03	-9.499126E-17	-2.886635E-17
3.070000E+03	-9.341270E-17	-2.831713E-17
3.080000E+03	-9.186473E-17	-2.777904E-17
3.090000E+03	-9.034714E-17	-2.725197E-17
3.100000E+03	-8.886347E-17	-2.673694E-17
3.110000E+03	-8.740967E-17	-2.623268E-17
3.120000E+03	-8.598730E-17	-2.573960E-17
3.130000E+03	-8.459432E-17	-2.525706E-17
3.140000E+03	-8.323551E-17	-2.478640E-17
3.150000E+03	-8.190543E-17	-2.432598E-17
3.160000E+03	-8.060540E-17	-2.387612E-17
3.170000E+03	-7.933669E-17	-2.343715E-17
3.180000E+03	-7.809881E-17	-2.300887E-17
3.190000E+03	-7.688845E-17	-2.259024E-17
3.200000E+03	-7.570949E-17	-2.218237E-17
3.210000E+03	-7.455877E-17	-2.178425E-17
3.220000E+03	-7.343719E-17	-2.139612E-17
3.230000E+03	-7.234309E-17	-2.101742E-17
3.240000E+03	-7.127731E-17	-2.064835E-17
3.250000E+03	-7.023937E-17	-2.028872E-17
3.260000E+03	-6.922899E-17	-1.993838E-17
3.270000E+03	-6.824441E-17	-1.959679E-17
3.280000E+03	-6.728644E-17	-1.926412E-17
3.290000E+03	-6.635468E-17	-1.894020E-17
3.300000E+03	-6.544758E-17	-1.862453E-17
3.310000E+03	-6.456580E-17	-1.831727E-17
3.320000E+03	-6.370794E-17	-1.801795E-17
3.330000E+03	-6.287457E-17	-1.772668E-17
3.340000E+03	-6.206433E-17	-1.744304E-17
3.350000E+03	-6.127677E-17	-1.716685E-17
3.360000E+03	-6.051152E-17	-1.689795E-17
3.370000E+03	-5.976822E-17	-1.663620E-17
3.380000E+03	-5.904646E-17	-1.638144E-17
3.390000E+03	-5.834502E-17	-1.613327E-17
3.400000E+03	-5.766436E-17	-1.589179E-17
3.410000E+03	-5.700246E-17	-1.565639E-17
3.420000E+03	-5.636062E-17	-1.542738E-17
3.430000E+03	-5.573685E-17	-1.520418E-17
3.440000E+03	-5.513087E-17	-1.498666E-17
3.450000E+03	-5.454233E-17	-1.477470E-17
3.460000E+03	-5.397020E-17	-1.456797E-17
3.470000E+03	-5.341489E-17	-1.436654E-17
3.480000E+03	-5.287536E-17	-1.417011E-17
3.490000E+03	-5.235063E-17	-1.397836E-17
3.500000E+03	-5.184043E-17	-1.379120E-17
3.510000E+03	-5.134384E-17	-1.360834E-17
3.520000E+03	-5.086125E-17	-1.342985E-17
3.530000E+03	-5.039049E-17	-1.325514E-17
3.540000E+03	-4.993199E-17	-1.308427E-17
3.550000E+03	-4.948491E-17	-1.291702E-17
3.560000E+03	-4.904905E-17	-1.275328E-17
3.570000E+03	-4.862305E-17	-1.259270E-17
3.580000E+03	-4.820617E-17	-1.243505E-17
3.590000E+03	-4.779886E-17	-1.228042E-17
3.600000E+03	-4.739929E-17	-1.212833E-17
3.610000E+03	-4.700793E-17	-1.197888E-17
3.620000E+03	-4.662412E-17	-1.183188E-17
3.630000E+03	-4.624674E-17	-1.168703E-17
3.640000E+03	-4.587523E-17	-1.154418E-17
3.650000E+03	-4.550955E-17	-1.140330E-17
3.660000E+03	-4.514871E-17	-1.126413E-17
3.670000E+03	-4.479319E-17	-1.112679E-17
3.680000E+03	-4.444157E-17	-1.099091E-17
3.690000E+03	-4.409390E-17	-1.085650E-17
3.700000E+03	-4.374980E-17	-1.072345E-17
3.710000E+03	-4.340933E-17	-1.059177E-17
3.720000E+03	-4.307171E-17	-1.046128E-17
3.730000E+03	-4.273706E-17	-1.033199E-17
3.740000E+03	-4.240509E-17	-1.020383E-17
3.750000E+03	-4.207597E-17	-1.007684E-17
3.760000E+03	-4.174946E-17	-9.950963E-18
3.770000E+03	-4.142575E-17	-9.826232E-18
3.780000E+03	-4.110466E-17	-9.702605E-18
3.790000E+03	-4.078604E-17	-9.580042E-18
3.800000E+03	-4.047095E-17	-9.458789E-18
3.810000E+03	-4.015849E-17	-9.338628E-18
3.820000E+03	-3.984935E-17	-9.219720E-18
3.830000E+03	-3.954427E-17	-9.102224E-18
3.840000E+03	-3.924280E-17	-8.986033E-18
3.850000E+03	-3.894536E-17	-8.871231E-18
3.860000E+03	-3.865271E-17	-8.757982E-18
3.870000E+03	-3.836526E-17	-8.646369E-18
3.880000E+03	-3.808345E-17	-8.536477E-18
3.890000E+03	-3.780742E-17	-8.428318E-18
3.900000E+03	-3.753801E-17	-8.322067E-18
3.910000E+03	-3.727575E-17	-8.217819E-18
3.920000E+03	-3.702120E-17	-8.115675E-18
3.930000E+03	-3.677494E-17	-8.015738E-18
3.940000E+03	-3.653760E-17	-7.918120E-18
3.950000E+03	-3.631016E-17	-7.823000E-18
3.960000E+03	-3.609330E-17	-7.730494E-18
3.970000E+03	-3.588741E-17	-7.640648E-18
3.980000E+03	-3.569392E-17	-7.553723E-18
3.990000E+03	-3.551328E-17	-7.469776E-18
4.000000E+03	-3.534667E-17	-7.389003E-18
4.010000E+03	-3.519497E-17	-7.311538E-18
4.020000E+03	-3.505880E-17	-7.237455E-18
4.030000E+03	-3.493980E-17	-7.167028E-18
4.040000E+03	-3.483868E-17	-7.100342E-18
4.050000E+03	-3.475688E-17	-7.037617E-18
4.060000E+03	-3.469557E-17	-6.979014E-18
4.070000E+03	-3.465600E-17	-6.924705E-18
4.080000E+03	-3.463952E-17	-6.874868E-18
4.090000E+03	-3.464785E-17	-6.829750E-18
4.100000E+03	-3.468219E-17	-6.789490E-18
4.110000E+03	-3.474418E-17	-6.754297E-18
4.120000E+03	-3.483615E-17	-6.724511E-18
4.130000E+03	-3.495938E-17	-6.700248E-18
4.140000E+03	-3.511615E-17	-6.681816E-18
4.150000E+03	-3.530863E-17	-6.669480E-18
4.160000E+03	-3.553913E-17	-6.663526E-18
4.170000E+03	-3.581015E-17	-6.664256E-18
4.180000E+03	-3.612439E-17	-6.671991E-18
4.190000E+03	-3.648479E-17	-6.687087E-18
4.200000E+03	-3.689444E-17	-6.709906E-18
4.210000E+03	-3.735684E-17	-6.740860E-18
4.220000E+03	-3.787564E-17	-6.780372E-18
4.230000E+03	-3.845449E-17	-6.828840E-18
4.240000E+03	-3.909778E-17	-6.886772E-18
4.250000E+03	-3.981051E-17	-6.954750E-18
4.260000E+03	-4.059776E-17	-7.033346E-18
4.270000E+03	-4.146442E-17	-7.123060E-18
4.280000E+03	-4.241673E-17	-7.224596E-18
4.290000E+03	-4.346121E-17	-7.338662E-18
4.300000E+03	-4.460484E-17	-7.466008E-18
4.310000E+03	-4.585525E-17	-7.607442E-18
4.320000E+03	-4.722016E-17	-7.763740E-18
4.330000E+03	-4.870922E-17	-7.935945E-18
4.340000E+03	-5.033115E-17	-8.124887E-18
4.350000E+03	-5.209700E-17	-8.331713E-18
4.360000E+03	-5.401787E-17	-8.557506E-18
4.370000E+03	-5.610605E-17	-8.803466E-18
4.380000E+03	-5.837427E-17	-9.070785E-18
4.390000E+03	-6.083647E-17	-9.360754E-18
4.400000E+03	-6.350365E-17	-9.674129E-18
4.410000E+03	-6.638500E-17	-1.001132E-17
4.420000E+03	-6.948809E-17	-1.037243E-17
4.430000E+03	-7.281962E-17	-1.075739E-17
4.440000E+03	-7.638649E-17	-1.116611E-17
4.450000E+03	-8.019296E-17	-1.159805E-17
4.460000E+03	-8.424198E-17	-1.205249E-17
4.470000E+03	-8.853501E-17	-1.252844E-17
4.480000E+03	-9.306820E-17	-1.302417E-17
4.490000E+03	-9.783655E-17	-1.353780E-17
4.500000E+03	-1.028301E-16	-1.406681E-17
4.510000E+03	-1.080329E-16	-1.460793E-17
4.520000E+03	-1.134242E-16	-1.515733E-17
4.530000E+03	-1.189768E-16	-1.571046E-17
4.540000E+03	-1.246557E-16	-1.626195E-17
4.550000E+03	-1.304182E-16	-1.680562E-17
4.560000E+03	-1.362108E-16	-1.733421E-17
4.570000E+03	-1.419702E-16	-1.783959E-17
4.580000E+03	-1.476265E-16	-1.831317E-17
4.590000E+03	-1.530931E-16	-1.874484E-17
4.600000E+03	-1.582736E-16	-1.912379E-17
4.610000E+03	-1.630625E-16	-1.943881E-17
4.620000E+03	-1.673414E-16	-1.967787E-17
4.630000E+03	-1.709764E-16	-1.982788E-17
4.640000E+03	-1.738329E-16	-1.987660E-17
4.650000E+03	-1.757562E-16	-1.981035E-17
4.660000E+03	-1.765942E-16	-1.961684E-17
4.670000E+03	-1.761853E-16	-1.928371E-17
4.680000E+03	-1.743654E-16	-1.879939E-17
4.690000E+03	-1.709719E-16	-1.815358E-17
4.700000E+03	-1.658464E-16	-1.733753E-17
4.710000E+03	-1.588431E-16	-1.634477E-17
4.720000E+03	-1.498235E-16	-1.517061E-17
4.730000E+03	-1.386730E-16	-1.381364E-17
4.740000E+03	-1.253064E-16	-1.227606E-17
4.750000E+03	-1.096553E-16	-1.056231E-17
4.760000E+03	-9.167872E-17	-8.679844E-18
4.770000E+03	-7.135213E-17	-6.637908E-18
4.780000E+03	-4.867968E-17	-4.448528E-18
4.790000E+03	-2.368783E-17	-2.125680E-18
4.800000E+03	3.572417E-18	3.146985E-19
4.810000E+03	3.302448E-17	2.854830E-18
4.820000E+03	6.456928E-17	5.475580E-18
4.830000E+03	9.808366E-17	8.156512E-18
4.840000E+03	1.334248E-16	1.087646E-17
4.850000E+03	1.704302E-16	1.361370E-17
4.860000E+03	2.089184E-16	1.634616E-17
4.870000E+03	2.486937E-16	1.905197E-17
4.880000E+03	2.895510E-16	2.170989E-17
4.890000E+03	3.312535E-16	2.429786E-17
4.900000E+03	3.735382E-16	2.679353E-17
4.910000E+03	4.161231E-16	2.917510E-17
4.920000E+03	4.587350E-16	3.142325E-17
4.930000E+03	5.010980E-16	3.352044E-17
4.940000E+03	5.429355E-16	3.545091E-17
4.950000E+03	5.839885E-16	3.720196E-17
4.960000E+03	6.239971E-16	3.876261E-17
4.970000E+03	6.627270E-16	4.012516E-17
4.980000E+03	6.999454E-16	4.128364E-17
4.990000E+03	7.354436E-16	4.223497E-17
5.000000E+03	7.690232E-16	4.297810E-17
5.010000E+03	8.005296E-16	4.351563E-17
5.020000E+03	8.297982E-16	4.385070E-17
5.030000E+03	8.567083E-16	4.398974E-17
5.040000E+03	8.811720E-16	4.394158E-17
5.050000E+03	9.031055E-16	4.371583E-17
5.060000E+03	9.224540E-16	4.332397E-17
5.070000E+03	9.391836E-16	4.277873E-17
5.080000E+03	9.532794E-16	4.209385E-17
5.090000E+03	9.647354E-16	4.128350E-17
5.100000E+03	9.735731E-16	4.036290E-17
5.110000E+03	9.798396E-16	3.934813E-17
5.120000E+03	9.835680E-16	3.825427E-17
5.130000E+03	9.848446E-16	3.709809E-17
5.140000E+03	9.837180E-16	3.589425E-17
5.150000E+03	9.802983E-16	3.465908E-17
5.160000E+03	9.746746E-16	3.340727E-17
5.170000E+03	9.669547E-16	3.215327E-17
5.180000E+03	9.572533E-16	3.091070E-17
5.190000E+03	9.456805E-16	2.969188E-17
5.200000E+03	9.323612E-16	2.850834E-17
5.210000E+03	9.174165E-16	2.737004E-17
5.220000E+03	9.010028E-16	2.628646E-17
5.230000E+03	8.832321E-16	2.526405E-17
5.240000E+03	8.642553E-16	2.430855E-17
5.250000E+03	8.442129E-16	2.342351E-17
5.260000E+03	8.232421E-16	2.261053E-17
5.270000E+03	8.014603E-16	2.186874E-17
5.280000E+03	7.790042E-16	2.119447E-17
5.290000E+03	7.559874E-16	2.058124E-17
5.300000E+03	7.325268E-16	2.002195E-17
5.310000E+03	7.087259E-16	1.950882E-17
5.320000E+03	6.846995E-16	1.903439E-17
5.330000E+03	6.605352E-16	1.859082E-17
5.340000E+03	6.363368E-16	1.817129E-17
5.350000E+03	6.122011E-16	1.776959E-17
5.360000E+03	5.882313E-16	1.738063E-17
5.370000E+03	5.645046E-16	1.699962E-17
5.380000E+03	5.411148E-16	1.662329E-17
5.390000E+03	5.181337E-16	1.624879E-17
5.400000E+03	4.956248E-16	1.587398E-17
5.410000E+03	4.736358E-16	1.549716E-17
5.420000E+03	4.522348E-16	1.511814E-17
5.430000E+03	4.314866E-16	1.473745E-17
5.440000E+03	4.114172E-16	1.435499E-17
5.450000E+03	3.920477E-16	1.397106E-17
5.460000E+03	3.733813E-16	1.358580E-17
5.470000E+03	3.554252E-16	1.319985E-17
5.480000E+03	3.381995E-16	1.281466E-17
5.490000E+03	3.217048E-16	1.243122E-17
5.500000E+03	3.059482E-16	1.205101E-17
5.510000E+03	2.909210E-16	1.167502E-17
5.520000E+03	2.766196E-16	1.130459E-17
5.530000E+03	2.630231E-16	1.094040E-17
5.540000E+03	2.501177E-16	1.058345E-17
5.550000E+03	2.378825E-16	1.023445E-17
5.560000E+03	2.263030E-16	9.894376E-18
5.570000E+03	2.153538E-16	9.563686E-18
5.580000E+03	2.050134E-16	9.242950E-18
5.590000E+03	1.952528E-16	8.932351E-18
5.600000E+03	1.860450E-16	8.632067E-18
5.610000E+03	1.773579E-16	8.341963E-18
5.620000E+03	1.691648E-16	8.062057E-18
5.630000E+03	1.614400E-16	7.792317E-18
5.640000E+03	1.541570E-16	7.532600E-18
5.650000E+03	1.472921E-16	7.282813E-18
5.660000E+03	1.408198E-16	7.042682E-18
5.670000E+03	1.347189E-16	6.812073E-18
5.680000E+03	1.289691E-16	6.590825E-18
5.690000E+03	1.235497E-16	6.378686E-18
5.700000E+03	1.184412E-16	6.175398E-18
5.710000E+03	1.136253E-16	5.980695E-18
5.720000E+03	1.090868E-16	5.794429E-18
5.730000E+03	1.048071E-16	5.616198E-18
5.740000E+03	1.007728E-16	5.445848E-18
5.750000E+03	9.696926E-17	5.283092E-18
5.760000E+03	9.338172E-17	5.127600E-18
5.770000E+03	8.999836E-17	4.979157E-18
5.780000E+03	8.680790E-17	4.837544E-18
5.790000E+03	8.379805E-17	4.702447E-18
5.800000E+03	8.095814E-17	4.573610E-18
5.810000E+03	7.827992E-17	4.450884E-18
5.820000E+03	7.575229E-17	4.333931E-18
5.830000E+03	7.336730E-17	4.222565E-18
5.840000E+03	7.111678E-17	4.116564E-18
5.850000E+03	6.899309E-17	4.015715E-18
5.860000E+03	6.698977E-17	3.919855E-18
5.870000E+03	6.509868E-17	3.828704E-18
5.880000E+03	6.331505E-17	3.742161E-18
5.890000E+03	6.163235E-17	3.660007E-18
5.900000E+03	6.004514E-17	3.582075E-18
5.910000E+03	5.854842E-17	3.508208E-18
5.920000E+03	5.713728E-17	3.438246E-18
5.930000E+03	5.580695E-17	3.372023E-18
5.940000E+03	5.455093E-17	3.309261E-18
5.950000E+03	5.336440E-17	3.249771E-18
5.960000E+03	5.224356E-17	3.193418E-18
5.970000E+03	5.118424E-17	3.140036E-18
5.980000E+03	5.018145E-17	3.089403E-18
5.990000E+03	4.923286E-17	3.041451E-18
6.000000E+03	4.833353E-17	2.995947E-18
6.010000E+03	4.748215E-17	2.952878E-18
6.020000E+03	4.667436E-17	2.912035E-18
6.030000E+03	4.590764E-17	2.873319E-18
6.040000E+03	4.518031E-17	2.836681E-18
6.050000E+03	4.448972E-17	2.802007E-18
6.060000E+03	4.383409E-17	2.769234E-18
6.070000E+03	4.321064E-17	2.738236E-18
6.080000E+03	4.261900E-17	2.709032E-18
6.090000E+03	4.205639E-17	2.681488E-18
6.100000E+03	4.152283E-17	2.655637E-18
6.110000E+03	4.101733E-17	2.631412E-18
6.120000E+03	4.053904E-17	2.608759E-18
6.130000E+03	4.008770E-17	2.587660E-18
6.140000E+03	3.966384E-17	2.568145E-18
6.150000E+03	3.926759E-17	2.550226E-18
6.160000E+03	3.890023E-17	2.533983E-18
6.170000E+03	3.856408E-17	2.519570E-18
6.180000E+03	3.825991E-17	2.507038E-18
6.190000E+03	3.799005E-17	2.496544E-18
6.200000E+03	3.775508E-17	2.488130E-18
6.210000E+03	3.755262E-17	2.481641E-18
6.220000E+03	3.737946E-17	2.476868E-18
6.230000E+03	3.723315E-17	2.473646E-18
6.240000E+03	3.711212E-17	2.471870E-18
6.250000E+03	3.701404E-17	2.471379E-18
6.260000E+03	3.693785E-17	2.472097E-18
6.270000E+03	3.688220E-17	2.473926E-18
6.280000E+03	3.684647E-17	2.476818E-18
6.290000E+03	3.682972E-17	2.480699E-18
6.300000E+03	3.683114E-17	2.485503E-18
6.310000E+03	3.685059E-17	2.491210E-18
6.320000E+03	3.688811E-17	2.497810E-18
6.330000E+03	3.694277E-17	2.505227E-18
6.340000E+03	3.701479E-17	2.513458E-18
6.350000E+03	3.710453E-17	2.522516E-18
6.360000E+03	3.721137E-17	2.532338E-18
6.370000E+03	3.733633E-17	2.542979E-18
6.380000E+03	3.747949E-17	2.554424E-18
6.390000E+03	3.764099E-17	2.566662E-18
6.400000E+03	3.782107E-17	2.579689E-18
6.410000E+03	3.802113E-17	2.593579E-18
6.420000E+03	3.824096E-17	2.608291E-18
6.430000E+03	3.848217E-17	2.623914E-18
6.440000E+03	3.874525E-17	2.640452E-18
6.450000E+03	3.903086E-17	2.657924E-18
6.460000E+03	3.934022E-17	2.676383E-18
6.470000E+03	3.967411E-17	2.695852E-18
6.480000E+03	4.003357E-17	2.716368E-18
6.490000E+03	4.041774E-17	2.737841E-18
6.500000E+03	4.082821E-17	2.760340E-18
6.510000E+03	4.126545E-17	2.783864E-18
6.520000E+03	4.172934E-17	2.808363E-18
6.530000E+03	4.222104E-17	2.833879E-18
6.540000E+03	4.274119E-17	2.860412E-18
6.550000E+03	4.329041E-17	2.887965E-18
6.560000E+03	4.386948E-17	2.916545E-18
6.570000E+03	4.447986E-17	2.946207E-18
6.580000E+03	4.512171E-17	2.976918E-18
6.590000E+03	4.579589E-17	3.008690E-18
6.600000E+03	4.650416E-17	3.041596E-18
6.610000E+03	4.724757E-17	3.075659E-18
6.620000E+03	4.802643E-17	3.110857E-18
6.630000E+03	4.884269E-17	3.147271E-18
6.640000E+03	4.969686E-17	3.184894E-18
6.650000E+03	5.059184E-17	3.223869E-18
6.660000E+03	5.152741E-17	3.264143E-18
6.670000E+03	5.250503E-17	3.305771E-18
6.680000E+03	5.352705E-17	3.348866E-18
6.690000E+03	5.459523E-17	3.393505E-18
6.700000E+03	5.571026E-17	3.439703E-18
6.710000E+03	5.687397E-17	3.487544E-18
6.720000E+03	5.808922E-17	3.537182E-18
6.730000E+03	5.935695E-17	3.588654E-18
6.740000E+03	6.068031E-17	3.642136E-18
6.750000E+03	6.205934E-17	3.697620E-18
6.760000E+03	6.349839E-17	3.755358E-18
6.770000E+03	6.499766E-17	3.815358E-18
6.780000E+03	6.656181E-17	3.877898E-18
6.790000E+03	6.819106E-17	3.942992E-18
6.800000E+03	6.988923E-17	4.010873E-18
6.810000E+03	7.165915E-17	4.081712E-18
6.820000E+03	7.350205E-17	4.155562E-18
6.830000E+03	7.542119E-17	4.232502E-18
6.840000E+03	7.741698E-17	4.312420E-18
6.850000E+03	7.949266E-17	4.395354E-18
6.860000E+03	8.164697E-17	4.481077E-18
6.870000E+03	8.388471E-17	4.569685E-18
6.880000E+03	8.620592E-17	4.660998E-18
6.890000E+03	8.861232E-17	4.754917E-18
6.900000E+03	9.110372E-17	4.851229E-18
6.910000E+03	9.368504E-17	4.949981E-18
6.920000E+03	9.635236E-17	5.050742E-18
6.930000E+03	9.911238E-17	5.153628E-18
6.940000E+03	1.019627E-16	5.258266E-18
6.950000E+03	1.049041E-16	5.364451E-18
6.960000E+03	1.079398E-16	5.472076E-18
6.970000E+03	1.110684E-16	5.580807E-18
6.980000E+03	1.142905E-16	5.690399E-18
6.990000E+03	1.176065E-16	5.800594E-18
7.000000E+03	1.210168E-16	5.911124E-18
7.010000E+03	1.245213E-16	6.021699E-18
7.020000E+03	1.281172E-16	6.131906E-18
7.030000E+03	1.318094E-16	6.241679E-18
7.040000E+03	1.355892E-16	6.350330E-18
7.050000E+03	1.394636E-16	6.457908E-18
7.060000E+03	1.434233E-16	6.563696E-18
7.070000E+03	1.474721E-16	6.667615E-18
7.080000E+03	1.516052E-16	6.769186E-18
7.090000E+03	1.558204E-16	6.868059E-18
7.100000E+03	1.601182E-16	6.964034E-18
7.110000E+03	1.644893E-16	7.056488E-18
7.120000E+03	1.689333E-16	7.145220E-18
7.130000E+03	1.734431E-16	7.229755E-18
7.140000E+03	1.780177E-16	7.309920E-18
7.150000E+03	1.826527E-16	7.385414E-18
7.160000E+03	1.873392E-16	7.455805E-18
7.170000E+03	1.920753E-16	7.520978E-18
7.180000E+03	1.968472E-16	7.580396E-18
7.190000E+03	2.016562E-16	7.634163E-18
7.200000E+03	2.064913E-16	7.681961E-18
7.210000E+03	2.113406E-16	7.723505E-18
7.220000E+03	2.162003E-16	7.758877E-18
7.230000E+03	2.210619E-16	7.788059E-18
7.240000E+03	2.259120E-16	7.810927E-18
7.250000E+03	2.307407E-16	7.827578E-18
7.260000E+03	2.355381E-16	7.838188E-18
7.270000E+03	2.402937E-16	7.843011E-18
7.280000E+03	2.449966E-16	7.842381E-18
7.290000E+03	2.496252E-16	7.836395E-18
7.300000E+03	2.541776E-16	7.825892E-18
7.310000E+03	2.586369E-16	7.811330E-18
7.320000E+03	2.629849E-16	7.793258E-18
7.330000E+03	2.672142E-16	7.772651E-18
7.340000E+03	2.713005E-16	7.750097E-18
7.350000E+03	2.752302E-16	7.726605E-18
7.360000E+03	2.789897E-16	7.703271E-18
7.370000E+03	2.825592E-16	7.681098E-18
7.380000E+03	2.859312E-16	7.661486E-18
7.390000E+03	2.890736E-16	7.645214E-18
7.400000E+03	2.919849E-16	7.633887E-18
7.410000E+03	2.946395E-16	7.628453E-18
7.420000E+03	2.970306E-16	7.630291E-18
7.430000E+03	2.991404E-16	7.640401E-18
7.440000E+03	3.009593E-16	7.659854E-18
7.450000E+03	3.024855E-16	7.689747E-18
7.460000E+03	3.037057E-16	7.730668E-18
7.470000E+03	3.046339E-16	7.783233E-18
7.480000E+03	3.052538E-16	7.846283E-18
7.490000E+03	3.055764E-16	7.919073E-18
7.500000E+03	3.055936E-16	8.000185E-18
7.510000E+03	3.053249E-16	8.088782E-18
7.520000E+03	3.047661E-16	8.183316E-18
7.530000E+03	3.039233E-16	8.282427E-18
7.540000E+03	3.028097E-16	8.384929E-18
7.550000E+03	3.014330E-16	8.489478E-18
7.560000E+03	2.998148E-16	8.595148E-18
7.570000E+03	2.979500E-16	8.700306E-18
7.580000E+03	2.958545E-16	8.803963E-18
7.590000E+03	2.935440E-16	8.905208E-18
7.600000E+03	2.910218E-16	9.002833E-18
7.610000E+03	2.883042E-16	9.096111E-18
7.620000E+03	2.853948E-16	9.184002E-18
7.630000E+03	2.823165E-16	9.266174E-18
7.640000E+03	2.790671E-16	9.341568E-18
7.650000E+03	2.756693E-16	9.410038E-18
