#wls	flux	fluxerr
1.600000E+03	3.580587E-16	1.175117E-16
1.640000E+03	3.685031E-16	1.209376E-16
1.680000E+03	3.782596E-16	1.241375E-16
1.720000E+03	3.872154E-16	1.270744E-16
1.760000E+03	3.952104E-16	1.296959E-16
1.800000E+03	4.021172E-16	1.319601E-16
1.840000E+03	4.077665E-16	1.338115E-16
1.880000E+03	4.120617E-16	1.352184E-16
1.920000E+03	4.148699E-16	1.361373E-16
1.960000E+03	4.160304E-16	1.365153E-16
2.000000E+03	4.154617E-16	1.363258E-16
2.040000E+03	4.130321E-16	1.355256E-16
2.080000E+03	4.086366E-16	1.340803E-16
2.120000E+03	4.022591E-16	1.319847E-16
2.160000E+03	3.937800E-16	1.291996E-16
2.200000E+03	3.831440E-16	1.257068E-16
2.240000E+03	3.702982E-16	1.214891E-16
2.280000E+03	3.551384E-16	1.165124E-16
2.320000E+03	3.381319E-16	1.109300E-16
2.360000E+03	3.197486E-16	1.048961E-16
2.400000E+03	3.003650E-16	9.853438E-17
2.440000E+03	2.803007E-16	9.194961E-17
2.480000E+03	2.598575E-16	8.524085E-17
2.520000E+03	2.393060E-16	7.849693E-17
2.560000E+03	2.188828E-16	7.179541E-17
2.600000E+03	1.988228E-16	6.521339E-17
2.640000E+03	1.793352E-16	5.881951E-17
2.680000E+03	1.606050E-16	5.267441E-17
2.720000E+03	1.427920E-16	4.683050E-17
2.760000E+03	1.260384E-16	4.133441E-17
2.800000E+03	1.104394E-16	3.621731E-17
2.840000E+03	9.606963E-17	3.150367E-17
2.880000E+03	8.298478E-17	2.721171E-17
2.920000E+03	7.121225E-17	2.335038E-17
2.960000E+03	6.075514E-17	1.992065E-17
3.000000E+03	5.158208E-17	1.691220E-17
3.010000E+03	4.948207E-17	1.622349E-17
3.020000E+03	4.745697E-17	1.555935E-17
3.030000E+03	4.550615E-17	1.491958E-17
3.040000E+03	4.362773E-17	1.430356E-17
3.050000E+03	4.181990E-17	1.371069E-17
3.060000E+03	4.008172E-17	1.314067E-17
3.070000E+03	3.841040E-17	1.259259E-17
3.080000E+03	3.680570E-17	1.206636E-17
3.090000E+03	3.526484E-17	1.156106E-17
3.100000E+03	3.378664E-17	1.107633E-17
3.110000E+03	3.236916E-17	1.061150E-17
3.120000E+03	3.101109E-17	1.016616E-17
3.130000E+03	2.971039E-17	9.739645E-18
3.140000E+03	2.846515E-17	9.331314E-18
3.150000E+03	2.727398E-17	8.940721E-18
3.160000E+03	2.613445E-17	8.567062E-18
3.170000E+03	2.504567E-17	8.210048E-18
3.180000E+03	2.400529E-17	7.868908E-18
3.190000E+03	2.301191E-17	7.543180E-18
3.200000E+03	2.206373E-17	7.232281E-18
3.210000E+03	2.115901E-17	6.935632E-18
3.220000E+03	2.029634E-17	6.652774E-18
3.230000E+03	1.947404E-17	6.383154E-18
3.240000E+03	1.869012E-17	6.126122E-18
3.250000E+03	1.794392E-17	5.881458E-18
3.260000E+03	1.723294E-17	5.648344E-18
3.270000E+03	1.655651E-17	5.426562E-18
3.280000E+03	1.591261E-17	5.215445E-18
3.290000E+03	1.530006E-17	5.014610E-18
3.300000E+03	1.471770E-17	4.823673E-18
3.310000E+03	1.416373E-17	4.642048E-18
3.320000E+03	1.363731E-17	4.469453E-18
3.330000E+03	1.313715E-17	4.305472E-18
3.340000E+03	1.266187E-17	4.149647E-18
3.350000E+03	1.221032E-17	4.001604E-18
3.360000E+03	1.178140E-17	3.860984E-18
3.370000E+03	1.137423E-17	3.727493E-18
3.380000E+03	1.098749E-17	3.600698E-18
3.390000E+03	1.062050E-17	3.480381E-18
3.400000E+03	1.027207E-17	3.366149E-18
3.410000E+03	9.941329E-18	3.257717E-18
3.420000E+03	9.627578E-18	3.154855E-18
3.430000E+03	9.329668E-18	3.057186E-18
3.440000E+03	9.047100E-18	2.964548E-18
3.450000E+03	8.779050E-18	2.876669E-18
3.460000E+03	8.524544E-18	2.793231E-18
3.470000E+03	8.283177E-18	2.714100E-18
3.480000E+03	8.054070E-18	2.638988E-18
3.490000E+03	7.836685E-18	2.567720E-18
3.500000E+03	7.630422E-18	2.500097E-18
3.510000E+03	7.434478E-18	2.435857E-18
3.520000E+03	7.248425E-18	2.374859E-18
3.530000E+03	7.071636E-18	2.316899E-18
3.540000E+03	6.903525E-18	2.261783E-18
3.550000E+03	6.743628E-18	2.209360E-18
3.560000E+03	6.591373E-18	2.159442E-18
3.570000E+03	6.446298E-18	2.111878E-18
3.580000E+03	6.307920E-18	2.066509E-18
3.590000E+03	6.175905E-18	2.023226E-18
3.600000E+03	6.049883E-18	1.981907E-18
3.610000E+03	5.929451E-18	1.942421E-18
3.620000E+03	5.814345E-18	1.904680E-18
3.630000E+03	5.704311E-18	1.868603E-18
3.640000E+03	5.599008E-18	1.834076E-18
3.650000E+03	5.498364E-18	1.801076E-18
3.660000E+03	5.402054E-18	1.769496E-18
3.670000E+03	5.309967E-18	1.739301E-18
3.680000E+03	5.221942E-18	1.710437E-18
3.690000E+03	5.137821E-18	1.682853E-18
3.700000E+03	5.057495E-18	1.656512E-18
3.710000E+03	4.980892E-18	1.631392E-18
3.720000E+03	4.907777E-18	1.607415E-18
3.730000E+03	4.838168E-18	1.584587E-18
3.740000E+03	4.771869E-18	1.562843E-18
3.750000E+03	4.708816E-18	1.542163E-18
3.760000E+03	4.648939E-18	1.522525E-18
3.770000E+03	4.592056E-18	1.503867E-18
3.780000E+03	4.538178E-18	1.486193E-18
3.790000E+03	4.487162E-18	1.469458E-18
3.800000E+03	4.438945E-18	1.453639E-18
3.810000E+03	4.393426E-18	1.438704E-18
3.820000E+03	4.350543E-18	1.424633E-18
3.830000E+03	4.310203E-18	1.411395E-18
3.840000E+03	4.272343E-18	1.398970E-18
3.850000E+03	4.236873E-18	1.387327E-18
3.860000E+03	4.203772E-18	1.376460E-18
3.870000E+03	4.172952E-18	1.366341E-18
3.880000E+03	4.144329E-18	1.356941E-18
3.890000E+03	4.117851E-18	1.348243E-18
3.900000E+03	4.093437E-18	1.340222E-18
3.910000E+03	4.071074E-18	1.332872E-18
3.920000E+03	4.050686E-18	1.326169E-18
3.930000E+03	4.032227E-18	1.320097E-18
3.940000E+03	4.015625E-18	1.314633E-18
3.950000E+03	4.000808E-18	1.309754E-18
3.960000E+03	3.987801E-18	1.305468E-18
3.970000E+03	3.976476E-18	1.301732E-18
3.980000E+03	3.966825E-18	1.298544E-18
3.990000E+03	3.958786E-18	1.295883E-18
4.000000E+03	3.952325E-18	1.293739E-18
4.010000E+03	3.947413E-18	1.292102E-18
4.020000E+03	3.943958E-18	1.290942E-18
4.030000E+03	3.941965E-18	1.290260E-18
4.040000E+03	3.941375E-18	1.290038E-18
4.050000E+03	3.942162E-18	1.290266E-18
4.060000E+03	3.944275E-18	1.290927E-18
4.070000E+03	3.947659E-18	1.292004E-18
4.080000E+03	3.952324E-18	1.293500E-18
4.090000E+03	3.958190E-18	1.295389E-18
4.100000E+03	3.965235E-18	1.297664E-18
4.110000E+03	3.973444E-18	1.300319E-18
4.120000E+03	3.982741E-18	1.303330E-18
4.130000E+03	3.993139E-18	1.306701E-18
4.140000E+03	4.004565E-18	1.310408E-18
4.150000E+03	4.017003E-18	1.314445E-18
4.160000E+03	4.030444E-18	1.318811E-18
4.170000E+03	4.044812E-18	1.323479E-18
4.180000E+03	4.060131E-18	1.328458E-18
4.190000E+03	4.076298E-18	1.333714E-18
4.200000E+03	4.093365E-18	1.339264E-18
4.210000E+03	4.111229E-18	1.345074E-18
4.220000E+03	4.129888E-18	1.351144E-18
4.230000E+03	4.149301E-18	1.357459E-18
4.240000E+03	4.169462E-18	1.364019E-18
4.250000E+03	4.190272E-18	1.370791E-18
4.260000E+03	4.211754E-18	1.377782E-18
4.270000E+03	4.233844E-18	1.384971E-18
4.280000E+03	4.256468E-18	1.392335E-18
4.290000E+03	4.279624E-18	1.399871E-18
4.300000E+03	4.303274E-18	1.407569E-18
4.310000E+03	4.327314E-18	1.415393E-18
4.320000E+03	4.351703E-18	1.423331E-18
4.330000E+03	4.376404E-18	1.431371E-18
4.340000E+03	4.401375E-18	1.439497E-18
4.350000E+03	4.426575E-18	1.447699E-18
4.360000E+03	4.451998E-18	1.455972E-18
4.370000E+03	4.477604E-18	1.464304E-18
4.380000E+03	4.503353E-18	1.472683E-18
4.390000E+03	4.529306E-18	1.481127E-18
4.400000E+03	4.555427E-18	1.489626E-18
4.410000E+03	4.581711E-18	1.498177E-18
4.420000E+03	4.608193E-18	1.506792E-18
4.430000E+03	4.634871E-18	1.515470E-18
4.440000E+03	4.661711E-18	1.524200E-18
4.450000E+03	4.688747E-18	1.532994E-18
4.460000E+03	4.715948E-18	1.541841E-18
4.470000E+03	4.743318E-18	1.550742E-18
4.480000E+03	4.770859E-18	1.559699E-18
4.490000E+03	4.798505E-18	1.568689E-18
4.500000E+03	4.826299E-18	1.577726E-18
4.510000E+03	4.854214E-18	1.586802E-18
4.520000E+03	4.882220E-18	1.595907E-18
4.530000E+03	4.910331E-18	1.605045E-18
4.540000E+03	4.938479E-18	1.614195E-18
4.550000E+03	4.966681E-18	1.623361E-18
4.560000E+03	4.994956E-18	1.632550E-18
4.570000E+03	5.023282E-18	1.641755E-18
4.580000E+03	5.051596E-18	1.650955E-18
4.590000E+03	5.079923E-18	1.660158E-18
4.600000E+03	5.108244E-18	1.669359E-18
4.610000E+03	5.136541E-18	1.678550E-18
4.620000E+03	5.164848E-18	1.687744E-18
4.630000E+03	5.193104E-18	1.696920E-18
4.640000E+03	5.221344E-18	1.706091E-18
4.650000E+03	5.249555E-18	1.715250E-18
4.660000E+03	5.277734E-18	1.724398E-18
4.670000E+03	5.305868E-18	1.733531E-18
4.680000E+03	5.333952E-18	1.742645E-18
4.690000E+03	5.361982E-18	1.751742E-18
4.700000E+03	5.390050E-18	1.760850E-18
4.710000E+03	5.418152E-18	1.769968E-18
4.720000E+03	5.446292E-18	1.779097E-18
4.730000E+03	5.474568E-18	1.788269E-18
4.740000E+03	5.502932E-18	1.797469E-18
4.750000E+03	5.531397E-18	1.806701E-18
4.760000E+03	5.560013E-18	1.815981E-18
4.770000E+03	5.588788E-18	1.825313E-18
4.780000E+03	5.617683E-18	1.834682E-18
4.790000E+03	5.646760E-18	1.844109E-18
4.800000E+03	5.676024E-18	1.853597E-18
4.810000E+03	5.705441E-18	1.863133E-18
4.820000E+03	5.735073E-18	1.872738E-18
4.830000E+03	5.764932E-18	1.882417E-18
4.840000E+03	5.795034E-18	1.892173E-18
4.850000E+03	5.825396E-18	1.902013E-18
4.860000E+03	5.855976E-18	1.911923E-18
4.870000E+03	5.886902E-18	1.921944E-18
4.880000E+03	5.918079E-18	1.932046E-18
4.890000E+03	5.949527E-18	1.942236E-18
4.900000E+03	5.981316E-18	1.952535E-18
4.910000E+03	6.013462E-18	1.962950E-18
4.920000E+03	6.045988E-18	1.973487E-18
4.930000E+03	6.078793E-18	1.984114E-18
4.940000E+03	6.112012E-18	1.994875E-18
4.950000E+03	6.145600E-18	2.005755E-18
4.960000E+03	6.179576E-18	2.016760E-18
4.970000E+03	6.213956E-18	2.027895E-18
4.980000E+03	6.248750E-18	2.039164E-18
4.990000E+03	6.283919E-18	2.050554E-18
5.000000E+03	6.319467E-18	2.062066E-18
5.010000E+03	6.355472E-18	2.073725E-18
5.020000E+03	6.391881E-18	2.085515E-18
5.030000E+03	6.428643E-18	2.097418E-18
5.040000E+03	6.465884E-18	2.109476E-18
5.050000E+03	6.503425E-18	2.121631E-18
5.060000E+03	6.541396E-18	2.133923E-18
5.070000E+03	6.579799E-18	2.146355E-18
5.080000E+03	6.618446E-18	2.158865E-18
5.090000E+03	6.657525E-18	2.171514E-18
5.100000E+03	6.696908E-18	2.184261E-18
5.110000E+03	6.736588E-18	2.197102E-18
5.120000E+03	6.776630E-18	2.210060E-18
5.130000E+03	6.816891E-18	2.223087E-18
5.140000E+03	6.857364E-18	2.236182E-18
5.150000E+03	6.898105E-18	2.249362E-18
5.160000E+03	6.939036E-18	2.262602E-18
5.170000E+03	6.980144E-18	2.275898E-18
5.180000E+03	7.021343E-18	2.289222E-18
5.190000E+03	7.062689E-18	2.302591E-18
5.200000E+03	7.104020E-18	2.315954E-18
5.210000E+03	7.145460E-18	2.329350E-18
5.220000E+03	7.186914E-18	2.342749E-18
5.230000E+03	7.228288E-18	2.356120E-18
5.240000E+03	7.269558E-18	2.369454E-18
5.250000E+03	7.310764E-18	2.382766E-18
5.260000E+03	7.351737E-18	2.396000E-18
5.270000E+03	7.392517E-18	2.409169E-18
5.280000E+03	7.433141E-18	2.422285E-18
5.290000E+03	7.473362E-18	2.435267E-18
5.300000E+03	7.513358E-18	2.448174E-18
5.310000E+03	7.552874E-18	2.460923E-18
5.320000E+03	7.592095E-18	2.473573E-18
5.330000E+03	7.630759E-18	2.486040E-18
5.340000E+03	7.668974E-18	2.498358E-18
5.350000E+03	7.706705E-18	2.510517E-18
5.360000E+03	7.743834E-18	2.522477E-18
5.370000E+03	7.780474E-18	2.534276E-18
5.380000E+03	7.816358E-18	2.545826E-18
5.390000E+03	7.851677E-18	2.557191E-18
5.400000E+03	7.886315E-18	2.568332E-18
5.410000E+03	7.920241E-18	2.579238E-18
5.420000E+03	7.953412E-18	2.589897E-18
5.430000E+03	7.985799E-18	2.600298E-18
5.440000E+03	8.017281E-18	2.610403E-18
5.450000E+03	8.047829E-18	2.620201E-18
5.460000E+03	8.077406E-18	2.629682E-18
5.470000E+03	8.105978E-18	2.638833E-18
5.480000E+03	8.133433E-18	2.647619E-18
5.490000E+03	8.159654E-18	2.656001E-18
5.500000E+03	8.184693E-18	2.663996E-18
5.510000E+03	8.208434E-18	2.671568E-18
5.520000E+03	8.230764E-18	2.678677E-18
5.530000E+03	8.251566E-18	2.685289E-18
5.540000E+03	8.270894E-18	2.691418E-18
5.550000E+03	8.288548E-18	2.697002E-18
5.560000E+03	8.304586E-18	2.702058E-18
5.570000E+03	8.318811E-18	2.706522E-18
5.580000E+03	8.331190E-18	2.710384E-18
5.590000E+03	8.341785E-18	2.713665E-18
5.600000E+03	8.350404E-18	2.716301E-18
5.610000E+03	8.357104E-18	2.718312E-18
5.620000E+03	8.361870E-18	2.719693E-18
5.630000E+03	8.364596E-18	2.720409E-18
5.640000E+03	8.365269E-18	2.720456E-18
5.650000E+03	8.363963E-18	2.719858E-18
5.660000E+03	8.360668E-18	2.718613E-18
5.670000E+03	8.355296E-18	2.716692E-18
5.680000E+03	8.347927E-18	2.714121E-18
5.690000E+03	8.338655E-18	2.710930E-18
5.700000E+03	8.327312E-18	2.707066E-18
5.710000E+03	8.313994E-18	2.702559E-18
5.720000E+03	8.298804E-18	2.697443E-18
5.730000E+03	8.281760E-18	2.691724E-18
5.740000E+03	8.262884E-18	2.685409E-18
5.750000E+03	8.242206E-18	2.678509E-18
5.760000E+03	8.219755E-18	2.671033E-18
5.770000E+03	8.195653E-18	2.663020E-18
5.780000E+03	8.169854E-18	2.654455E-18
5.790000E+03	8.142573E-18	2.645410E-18
5.800000E+03	8.113773E-18	2.635870E-18
5.810000E+03	8.083501E-18	2.625854E-18
5.820000E+03	8.051989E-18	2.615435E-18
5.830000E+03	8.019117E-18	2.604574E-18
5.840000E+03	7.985037E-18	2.593322E-18
5.850000E+03	7.949901E-18	2.581727E-18
5.860000E+03	7.913690E-18	2.569784E-18
5.870000E+03	7.876559E-18	2.557543E-18
5.880000E+03	7.838499E-18	2.545001E-18
5.890000E+03	7.799755E-18	2.532237E-18
5.900000E+03	7.760323E-18	2.519251E-18
5.910000E+03	7.720278E-18	2.506068E-18
5.920000E+03	7.679789E-18	2.492740E-18
5.930000E+03	7.638850E-18	2.479268E-18
5.940000E+03	7.597628E-18	2.465705E-18
5.950000E+03	7.556117E-18	2.452049E-18
5.960000E+03	7.514486E-18	2.438355E-18
5.970000E+03	7.472811E-18	2.424649E-18
5.980000E+03	7.431171E-18	2.410954E-18
5.990000E+03	7.389553E-18	2.397268E-18
6.000000E+03	7.348119E-18	2.383643E-18
6.010000E+03	7.306938E-18	2.370100E-18
6.020000E+03	7.265994E-18	2.356636E-18
6.030000E+03	7.225436E-18	2.343298E-18
6.040000E+03	7.185243E-18	2.330080E-18
6.050000E+03	7.145390E-18	2.316972E-18
6.060000E+03	7.106102E-18	2.304050E-18
6.070000E+03	7.067266E-18	2.291274E-18
6.080000E+03	7.029014E-18	2.278690E-18
6.090000E+03	6.991225E-18	2.266256E-18
6.100000E+03	6.954027E-18	2.254015E-18
6.110000E+03	6.917379E-18	2.241953E-18
6.120000E+03	6.881315E-18	2.230082E-18
6.130000E+03	6.845873E-18	2.218413E-18
6.140000E+03	6.810998E-18	2.206929E-18
6.150000E+03	6.776719E-18	2.195639E-18
6.160000E+03	6.743060E-18	2.184551E-18
6.170000E+03	6.710047E-18	2.173673E-18
6.180000E+03	6.677698E-18	2.163010E-18
6.190000E+03	6.645946E-18	2.152543E-18
6.200000E+03	6.614887E-18	2.142300E-18
6.210000E+03	6.584535E-18	2.132287E-18
6.220000E+03	6.554898E-18	2.122507E-18
6.230000E+03	6.526068E-18	2.112989E-18
6.240000E+03	6.498136E-18	2.103762E-18
6.250000E+03	6.471191E-18	2.094855E-18
6.260000E+03	6.445318E-18	2.086296E-18
6.270000E+03	6.420608E-18	2.078114E-18
6.280000E+03	6.397230E-18	2.070363E-18
6.290000E+03	6.375098E-18	2.063017E-18
6.300000E+03	6.354559E-18	2.056186E-18
6.310000E+03	6.335526E-18	2.049843E-18
6.320000E+03	6.318173E-18	2.044043E-18
6.330000E+03	6.302586E-18	2.038815E-18
6.340000E+03	6.288857E-18	2.034188E-18
6.350000E+03	6.276990E-18	2.030163E-18
6.360000E+03	6.267074E-18	2.026770E-18
6.370000E+03	6.259204E-18	2.024037E-18
6.380000E+03	6.253384E-18	2.021967E-18
6.390000E+03	6.249622E-18	2.020561E-18
6.400000E+03	6.248019E-18	2.019854E-18
6.410000E+03	6.248396E-18	2.019785E-18
6.420000E+03	6.250765E-18	2.020359E-18
6.430000E+03	6.255038E-18	2.021548E-18
6.440000E+03	6.261035E-18	2.023293E-18
6.450000E+03	6.268859E-18	2.025627E-18
6.460000E+03	6.278322E-18	2.028488E-18
6.470000E+03	6.289525E-18	2.031911E-18
6.480000E+03	6.302472E-18	2.035896E-18
6.490000E+03	6.317071E-18	2.040412E-18
6.500000E+03	6.333329E-18	2.045463E-18
6.510000E+03	6.351251E-18	2.051049E-18
6.520000E+03	6.370841E-18	2.057171E-18
6.530000E+03	6.392102E-18	2.063831E-18
6.540000E+03	6.415145E-18	2.071065E-18
6.550000E+03	6.439875E-18	2.078840E-18
6.560000E+03	6.466197E-18	2.087127E-18
6.570000E+03	6.494324E-18	2.095994E-18
6.580000E+03	6.524056E-18	2.105376E-18
6.590000E+03	6.555504E-18	2.115308E-18
6.600000E+03	6.588679E-18	2.125796E-18
6.610000E+03	6.623589E-18	2.136839E-18
6.620000E+03	6.660243E-18	2.148442E-18
6.630000E+03	6.698544E-18	2.160573E-18
6.640000E+03	6.738608E-18	2.173270E-18
6.650000E+03	6.780335E-18	2.186499E-18
6.660000E+03	6.823848E-18	2.200300E-18
6.670000E+03	6.869043E-18	2.214639E-18
6.680000E+03	6.915929E-18	2.229520E-18
6.690000E+03	6.964636E-18	2.244984E-18
6.700000E+03	7.015178E-18	2.261035E-18
6.710000E+03	7.067324E-18	2.277598E-18
6.720000E+03	7.121329E-18	2.294756E-18
6.730000E+03	7.176960E-18	2.312433E-18
6.740000E+03	7.234476E-18	2.330713E-18
6.750000E+03	7.293765E-18	2.349558E-18
6.760000E+03	7.354712E-18	2.368933E-18
6.770000E+03	7.417589E-18	2.388924E-18
6.780000E+03	7.482144E-18	2.409451E-18
6.790000E+03	7.548524E-18	2.430559E-18
6.800000E+03	7.616740E-18	2.452253E-18
6.810000E+03	7.686809E-18	2.474537E-18
6.820000E+03	7.758605E-18	2.497372E-18
6.830000E+03	7.832280E-18	2.520805E-18
6.840000E+03	7.907706E-18	2.544795E-18
6.850000E+03	7.985034E-18	2.569392E-18
6.860000E+03	8.064134E-18	2.594551E-18
6.870000E+03	8.145017E-18	2.620277E-18
6.880000E+03	8.227842E-18	2.646622E-18
6.890000E+03	8.312317E-18	2.673490E-18
6.900000E+03	8.398758E-18	2.700983E-18
6.910000E+03	8.487021E-18	2.729054E-18
6.920000E+03	8.577115E-18	2.757707E-18
6.930000E+03	8.669046E-18	2.786942E-18
6.940000E+03	8.762826E-18	2.816765E-18
6.950000E+03	8.858295E-18	2.847121E-18
6.960000E+03	8.955620E-18	2.878067E-18
6.970000E+03	9.054811E-18	2.909604E-18
6.980000E+03	9.155876E-18	2.941734E-18
6.990000E+03	9.258460E-18	2.974344E-18
7.000000E+03	9.363104E-18	3.007606E-18
7.010000E+03	9.469262E-18	3.041346E-18
7.020000E+03	9.577300E-18	3.075681E-18
7.030000E+03	9.687035E-18	3.110551E-18
7.040000E+03	9.798459E-18	3.145954E-18
7.050000E+03	9.911570E-18	3.181889E-18
7.060000E+03	1.002636E-17	3.218354E-18
7.070000E+03	1.014262E-17	3.255280E-18
7.080000E+03	1.026054E-17	3.292729E-18
7.090000E+03	1.038011E-17	3.330698E-18
7.100000E+03	1.050111E-17	3.369114E-18
7.110000E+03	1.062373E-17	3.408042E-18
7.120000E+03	1.074775E-17	3.447406E-18
7.130000E+03	1.087315E-17	3.487201E-18
7.140000E+03	1.099989E-17	3.527417E-18
7.150000E+03	1.112818E-17	3.568120E-18
7.160000E+03	1.125755E-17	3.609156E-18
7.170000E+03	1.138796E-17	3.650513E-18
7.180000E+03	1.151984E-17	3.692331E-18
7.190000E+03	1.165269E-17	3.734449E-18
7.200000E+03	1.178646E-17	3.776852E-18
7.210000E+03	1.192137E-17	3.819605E-18
7.220000E+03	1.205711E-17	3.862617E-18
7.230000E+03	1.219366E-17	3.905872E-18
7.240000E+03	1.233095E-17	3.949354E-18
7.250000E+03	1.246893E-17	3.993046E-18
7.260000E+03	1.260783E-17	4.037019E-18
7.270000E+03	1.274704E-17	4.081081E-18
7.280000E+03	1.288707E-17	4.125390E-18
7.290000E+03	1.302757E-17	4.169841E-18
7.300000E+03	1.316850E-17	4.214413E-18
7.310000E+03	1.331007E-17	4.259182E-18
7.320000E+03	1.345195E-17	4.304035E-18
7.330000E+03	1.359437E-17	4.349049E-18
7.340000E+03	1.373727E-17	4.394207E-18
7.350000E+03	1.388093E-17	4.439591E-18
7.360000E+03	1.402529E-17	4.485188E-18
7.370000E+03	1.417062E-17	4.531085E-18
7.380000E+03	1.431659E-17	4.577171E-18
7.390000E+03	1.446414E-17	4.623749E-18
7.400000E+03	1.461326E-17	4.670818E-18
7.410000E+03	1.476361E-17	4.718267E-18
7.420000E+03	1.491622E-17	4.766424E-18
7.430000E+03	1.507075E-17	4.815184E-18
7.440000E+03	1.522759E-17	4.864667E-18
7.450000E+03	1.538640E-17	4.914765E-18
7.460000E+03	1.554756E-17	4.965600E-18
7.470000E+03	1.570998E-17	5.016824E-18
7.480000E+03	1.587440E-17	5.068672E-18
7.490000E+03	1.603968E-17	5.120783E-18
7.500000E+03	1.620619E-17	5.173269E-18
7.510000E+03	1.637349E-17	5.225997E-18
7.520000E+03	1.654117E-17	5.278828E-18
7.530000E+03	1.670956E-17	5.331873E-18
7.540000E+03	1.687740E-17	5.384728E-18
7.550000E+03	1.704542E-17	5.437628E-18
7.560000E+03	1.721315E-17	5.490421E-18
7.570000E+03	1.738051E-17	5.543080E-18
7.580000E+03	1.754698E-17	5.595443E-18
7.590000E+03	1.771290E-17	5.647617E-18
7.600000E+03	1.787775E-17	5.699433E-18
7.610000E+03	1.804141E-17	5.750860E-18
7.620000E+03	1.820424E-17	5.802007E-18
7.630000E+03	1.836569E-17	5.852701E-18
7.640000E+03	1.852611E-17	5.903053E-18
7.650000E+03	1.868446E-17	5.952733E-18
7.660000E+03	1.884156E-17	6.002003E-18
7.670000E+03	1.899683E-17	6.050679E-18
7.680000E+03	1.915065E-17	6.098878E-18
7.690000E+03	1.930242E-17	6.146412E-18
7.700000E+03	1.945201E-17	6.193241E-18
7.710000E+03	1.959930E-17	6.239326E-18
7.720000E+03	1.974520E-17	6.284956E-18
7.730000E+03	1.988806E-17	6.329609E-18
7.740000E+03	2.002931E-17	6.373738E-18
7.750000E+03	2.016781E-17	6.416981E-18
7.760000E+03	2.030396E-17	6.459467E-18
