#wls	flux	fluxerr
1.600000E+03	5.227540E-17	8.763863E-18
1.640000E+03	5.255597E-17	8.756463E-18
1.680000E+03	5.278898E-17	8.740638E-18
1.720000E+03	5.296315E-17	8.714677E-18
1.760000E+03	5.308713E-17	8.680178E-18
1.800000E+03	5.315514E-17	8.632441E-18
1.840000E+03	5.315801E-17	8.574082E-18
1.880000E+03	5.310135E-17	8.506214E-18
1.920000E+03	5.297202E-17	8.426944E-18
1.960000E+03	5.277720E-17	8.333588E-18
2.000000E+03	5.250126E-17	8.228017E-18
2.040000E+03	5.214384E-17	8.110463E-18
2.080000E+03	5.169011E-17	7.978923E-18
2.120000E+03	5.113859E-17	7.829426E-18
2.160000E+03	5.047179E-17	7.663853E-18
2.200000E+03	4.966798E-17	7.479366E-18
2.240000E+03	4.870921E-17	7.273800E-18
2.280000E+03	4.760251E-17	7.044848E-18
2.320000E+03	4.635331E-17	6.798001E-18
2.360000E+03	4.500057E-17	6.539491E-18
2.400000E+03	4.357278E-17	6.273830E-18
2.440000E+03	4.209896E-17	6.001887E-18
2.480000E+03	4.059336E-17	5.729684E-18
2.520000E+03	3.906365E-17	5.458423E-18
2.560000E+03	3.751994E-17	5.189600E-18
2.600000E+03	3.597472E-17	4.921876E-18
2.640000E+03	3.442790E-17	4.658614E-18
2.680000E+03	3.288249E-17	4.400220E-18
2.720000E+03	3.134236E-17	4.147196E-18
2.760000E+03	2.981703E-17	3.898163E-18
2.800000E+03	2.830379E-17	3.655559E-18
2.840000E+03	2.680744E-17	3.419933E-18
2.880000E+03	2.533485E-17	3.192066E-18
2.920000E+03	2.389856E-17	2.971525E-18
2.960000E+03	2.250273E-17	2.760739E-18
3.000000E+03	2.115634E-17	2.560589E-18
3.010000E+03	2.082896E-17	2.512364E-18
3.020000E+03	2.050540E-17	2.464637E-18
3.030000E+03	2.018594E-17	2.417678E-18
3.040000E+03	1.987010E-17	2.371425E-18
3.050000E+03	1.955833E-17	2.325924E-18
3.060000E+03	1.925125E-17	2.281146E-18
3.070000E+03	1.894775E-17	2.237055E-18
3.080000E+03	1.864898E-17	2.193783E-18
3.090000E+03	1.835412E-17	2.151228E-18
3.100000E+03	1.806415E-17	2.109403E-18
3.110000E+03	1.777835E-17	2.068319E-18
3.120000E+03	1.749671E-17	2.027965E-18
3.130000E+03	1.721986E-17	1.988411E-18
3.140000E+03	1.694737E-17	1.949514E-18
3.150000E+03	1.667996E-17	1.911440E-18
3.160000E+03	1.641667E-17	1.874072E-18
3.170000E+03	1.615842E-17	1.837509E-18
3.180000E+03	1.590483E-17	1.801623E-18
3.190000E+03	1.565623E-17	1.766526E-18
3.200000E+03	1.541230E-17	1.732176E-18
3.210000E+03	1.517331E-17	1.698597E-18
3.220000E+03	1.493944E-17	1.665727E-18
3.230000E+03	1.471045E-17	1.633611E-18
3.240000E+03	1.448611E-17	1.602217E-18
3.250000E+03	1.426691E-17	1.571590E-18
3.260000E+03	1.405285E-17	1.541656E-18
3.270000E+03	1.384388E-17	1.512474E-18
3.280000E+03	1.363979E-17	1.484015E-18
3.290000E+03	1.344057E-17	1.456267E-18
3.300000E+03	1.324662E-17	1.429209E-18
3.310000E+03	1.305751E-17	1.402848E-18
3.320000E+03	1.287340E-17	1.377196E-18
3.330000E+03	1.269427E-17	1.352244E-18
3.340000E+03	1.251994E-17	1.327909E-18
3.350000E+03	1.235053E-17	1.304255E-18
3.360000E+03	1.218585E-17	1.281256E-18
3.370000E+03	1.202588E-17	1.258904E-18
3.380000E+03	1.187079E-17	1.237155E-18
3.390000E+03	1.172004E-17	1.216003E-18
3.400000E+03	1.157396E-17	1.195473E-18
3.410000E+03	1.143235E-17	1.175542E-18
3.420000E+03	1.129525E-17	1.156155E-18
3.430000E+03	1.116245E-17	1.137338E-18
3.440000E+03	1.103396E-17	1.119083E-18
3.450000E+03	1.090950E-17	1.101356E-18
3.460000E+03	1.078936E-17	1.084137E-18
3.470000E+03	1.067313E-17	1.067423E-18
3.480000E+03	1.056080E-17	1.051211E-18
3.490000E+03	1.045227E-17	1.035481E-18
3.500000E+03	1.034762E-17	1.020197E-18
3.510000E+03	1.024658E-17	1.005367E-18
3.520000E+03	1.014905E-17	9.909780E-19
3.530000E+03	1.005485E-17	9.770073E-19
3.540000E+03	9.964004E-18	9.634145E-19
3.550000E+03	9.876257E-18	9.502082E-19
3.560000E+03	9.791465E-18	9.373703E-19
3.570000E+03	9.709594E-18	9.248929E-19
3.580000E+03	9.630594E-18	9.127345E-19
3.590000E+03	9.554248E-18	9.009037E-19
3.600000E+03	9.480446E-18	8.893864E-19
3.610000E+03	9.409277E-18	8.781872E-19
3.620000E+03	9.340697E-18	8.672691E-19
3.630000E+03	9.274527E-18	8.566413E-19
3.640000E+03	9.210494E-18	8.462751E-19
3.650000E+03	9.148604E-18	8.361681E-19
3.660000E+03	9.088936E-18	8.262988E-19
3.670000E+03	9.031239E-18	8.166671E-19
3.680000E+03	8.975526E-18	8.072712E-19
3.690000E+03	8.921797E-18	7.981083E-19
3.700000E+03	8.870147E-18	7.891622E-19
3.710000E+03	8.820480E-18	7.804434E-19
3.720000E+03	8.772716E-18	7.719417E-19
3.730000E+03	8.727003E-18	7.636675E-19
3.740000E+03	8.683499E-18	7.556136E-19
3.750000E+03	8.642013E-18	7.477781E-19
3.760000E+03	8.602598E-18	7.401629E-19
3.770000E+03	8.565379E-18	7.327754E-19
3.780000E+03	8.530496E-18	7.256106E-19
3.790000E+03	8.497886E-18	7.186735E-19
3.800000E+03	8.467511E-18	7.119578E-19
3.810000E+03	8.439403E-18	7.054626E-19
3.820000E+03	8.413836E-18	6.991980E-19
3.830000E+03	8.390727E-18	6.931630E-19
3.840000E+03	8.370029E-18	6.873500E-19
3.850000E+03	8.351899E-18	6.817682E-19
3.860000E+03	8.336388E-18	6.764132E-19
3.870000E+03	8.323539E-18	6.712896E-19
3.880000E+03	8.313229E-18	6.663834E-19
3.890000E+03	8.305665E-18	6.617075E-19
3.900000E+03	8.300962E-18	6.572671E-19
3.910000E+03	8.299014E-18	6.530495E-19
3.920000E+03	8.299822E-18	6.490507E-19
3.930000E+03	8.303451E-18	6.452717E-19
3.940000E+03	8.310081E-18	6.417280E-19
3.950000E+03	8.319663E-18	6.384057E-19
3.960000E+03	8.332127E-18	6.352953E-19
3.970000E+03	8.347538E-18	6.323973E-19
3.980000E+03	8.366076E-18	6.297330E-19
3.990000E+03	8.387687E-18	6.272818E-19
4.000000E+03	8.412365E-18	6.250391E-19
4.010000E+03	8.440109E-18	6.230000E-19
4.020000E+03	8.471104E-18	6.211928E-19
4.030000E+03	8.505291E-18	6.195896E-19
4.040000E+03	8.542601E-18	6.181809E-19
4.050000E+03	8.583168E-18	6.169717E-19
4.060000E+03	8.627121E-18	6.159937E-19
4.070000E+03	8.674334E-18	6.152061E-19
4.080000E+03	8.724879E-18	6.146096E-19
4.090000E+03	8.778757E-18	6.141994E-19
4.100000E+03	8.836186E-18	6.140222E-19
4.110000E+03	8.896963E-18	6.140233E-19
4.120000E+03	8.961238E-18	6.142080E-19
4.130000E+03	9.028949E-18	6.145672E-19
4.140000E+03	9.100393E-18	6.151636E-19
4.150000E+03	9.175294E-18	6.159268E-19
4.160000E+03	9.253732E-18	6.168572E-19
4.170000E+03	9.335793E-18	6.179556E-19
4.180000E+03	9.421642E-18	6.192885E-19
4.190000E+03	9.511141E-18	6.207821E-19
4.200000E+03	9.604225E-18	6.224272E-19
4.210000E+03	9.700984E-18	6.242245E-19
4.220000E+03	9.801581E-18	6.262560E-19
4.230000E+03	9.905883E-18	6.284330E-19
4.240000E+03	1.001382E-17	6.307461E-19
4.250000E+03	1.012537E-17	6.331899E-19
4.260000E+03	1.024075E-17	6.358664E-19
4.270000E+03	1.035977E-17	6.386673E-19
4.280000E+03	1.048235E-17	6.415828E-19
4.290000E+03	1.060849E-17	6.446071E-19
4.300000E+03	1.073837E-17	6.478646E-19
4.310000E+03	1.087160E-17	6.512129E-19
4.320000E+03	1.100817E-17	6.546467E-19
4.330000E+03	1.114805E-17	6.581595E-19
4.340000E+03	1.129140E-17	6.619008E-19
4.350000E+03	1.143790E-17	6.657067E-19
4.360000E+03	1.158738E-17	6.695650E-19
4.370000E+03	1.173989E-17	6.734738E-19
4.380000E+03	1.189567E-17	6.776169E-19
4.390000E+03	1.205461E-17	6.818154E-19
4.400000E+03	1.221663E-17	6.860612E-19
4.410000E+03	1.238177E-17	6.903523E-19
4.420000E+03	1.255032E-17	6.949103E-19
4.430000E+03	1.272211E-17	6.995184E-19
4.440000E+03	1.289698E-17	7.041651E-19
4.450000E+03	1.307489E-17	7.088435E-19
4.460000E+03	1.325624E-17	7.138225E-19
4.470000E+03	1.344064E-17	7.188338E-19
4.480000E+03	1.362801E-17	7.238700E-19
4.490000E+03	1.381818E-17	7.289196E-19
4.500000E+03	1.401157E-17	7.342978E-19
4.510000E+03	1.420762E-17	7.396840E-19
4.520000E+03	1.440624E-17	7.450700E-19
4.530000E+03	1.460733E-17	7.504490E-19
4.540000E+03	1.481083E-17	7.561637E-19
4.550000E+03	1.501649E-17	7.618601E-19
4.560000E+03	1.522406E-17	7.675232E-19
4.570000E+03	1.543341E-17	7.731450E-19
4.580000E+03	1.564426E-17	7.791155E-19
4.590000E+03	1.585649E-17	7.850326E-19
4.600000E+03	1.606970E-17	7.908754E-19
4.610000E+03	1.628387E-17	7.966423E-19
4.620000E+03	1.649844E-17	8.027720E-19
4.630000E+03	1.671336E-17	8.088071E-19
4.640000E+03	1.692830E-17	8.147314E-19
4.650000E+03	1.714323E-17	8.205431E-19
4.660000E+03	1.735731E-17	8.267351E-19
4.670000E+03	1.757085E-17	8.328034E-19
4.680000E+03	1.778348E-17	8.387304E-19
4.690000E+03	1.799484E-17	8.445007E-19
4.700000E+03	1.820429E-17	8.506842E-19
4.710000E+03	1.841186E-17	8.566979E-19
4.720000E+03	1.861732E-17	8.625321E-19
4.730000E+03	1.882019E-17	8.681664E-19
4.740000E+03	1.901973E-17	8.742338E-19
4.750000E+03	1.921635E-17	8.801031E-19
4.760000E+03	1.941016E-17	8.857806E-19
4.770000E+03	1.960093E-17	8.912575E-19
4.780000E+03	1.978765E-17	8.972191E-19
4.790000E+03	1.997120E-17	9.029904E-19
4.800000E+03	2.015150E-17	9.085697E-19
4.810000E+03	2.032850E-17	9.139552E-19
4.820000E+03	2.050074E-17	9.198690E-19
4.830000E+03	2.066954E-17	9.255986E-19
4.840000E+03	2.083466E-17	9.311345E-19
4.850000E+03	2.099623E-17	9.364831E-19
4.860000E+03	2.115271E-17	9.423726E-19
4.870000E+03	2.130535E-17	9.480752E-19
4.880000E+03	2.145409E-17	9.535896E-19
4.890000E+03	2.159911E-17	9.589236E-19
4.900000E+03	2.173850E-17	9.647528E-19
4.910000E+03	2.187409E-17	9.704087E-19
4.920000E+03	2.200563E-17	9.758807E-19
4.930000E+03	2.213288E-17	9.811580E-19
4.940000E+03	2.225456E-17	9.868951E-19
4.950000E+03	2.237204E-17	9.924490E-19
4.960000E+03	2.248505E-17	9.978080E-19
4.970000E+03	2.259374E-17	1.002979E-18
4.980000E+03	2.269621E-17	1.008528E-18
4.990000E+03	2.279420E-17	1.013886E-18
5.000000E+03	2.288744E-17	1.019041E-18
5.010000E+03	2.297561E-17	1.023978E-18
5.020000E+03	2.305752E-17	1.029228E-18
5.030000E+03	2.313418E-17	1.034255E-18
5.040000E+03	2.320554E-17	1.039054E-18
5.050000E+03	2.327151E-17	1.043621E-18
5.060000E+03	2.333071E-17	1.048406E-18
5.070000E+03	2.338412E-17	1.052942E-18
5.080000E+03	2.343189E-17	1.057232E-18
5.090000E+03	2.347372E-17	1.061261E-18
5.100000E+03	2.350826E-17	1.065408E-18
5.110000E+03	2.353647E-17	1.069274E-18
5.120000E+03	2.355850E-17	1.072865E-18
5.130000E+03	2.357383E-17	1.076154E-18
5.140000E+03	2.358170E-17	1.079472E-18
5.150000E+03	2.358280E-17	1.082481E-18
5.160000E+03	2.357734E-17	1.085187E-18
5.170000E+03	2.356508E-17	1.087577E-18
5.180000E+03	2.354468E-17	1.089883E-18
5.190000E+03	2.351748E-17	1.091868E-18
5.200000E+03	2.348329E-17	1.093518E-18
5.210000E+03	2.344212E-17	1.094832E-18
5.220000E+03	2.339298E-17	1.095990E-18
5.230000E+03	2.333674E-17	1.096799E-18
5.240000E+03	2.327347E-17	1.097259E-18
5.250000E+03	2.320301E-17	1.097360E-18
5.260000E+03	2.312472E-17	1.097233E-18
5.270000E+03	2.303945E-17	1.096750E-18
5.280000E+03	2.294731E-17	1.095911E-18
5.290000E+03	2.284844E-17	1.094721E-18
5.300000E+03	2.274186E-17	1.093237E-18
5.310000E+03	2.262866E-17	1.091399E-18
5.320000E+03	2.250899E-17	1.089212E-18
5.330000E+03	2.238306E-17	1.086682E-18
5.337625E+03	2.170719E-17	1.056536E-18
5.338425E+03	2.184240E-17	1.063398E-18
5.338825E+03	2.189399E-17	1.066051E-18
5.339025E+03	2.190408E-17	1.066613E-18
5.339225E+03	2.191522E-17	1.067226E-18
5.339426E+03	2.192484E-17	1.067766E-18
5.340026E+03	2.201479E-17	1.072360E-18
5.340226E+03	2.202210E-17	1.072786E-18
5.340626E+03	2.207153E-17	1.075337E-18
5.341826E+03	2.228474E-17	1.086157E-18
5.343026E+03	2.249900E-17	1.097036E-18
5.344827E+03	2.283390E-17	1.114030E-18
5.345627E+03	2.296184E-17	1.120569E-18
5.346027E+03	2.300647E-17	1.122895E-18
5.346627E+03	2.309462E-17	1.127422E-18
5.347027E+03	2.313926E-17	1.129751E-18
5.347427E+03	2.318428E-17	1.132099E-18
5.347627E+03	2.318807E-17	1.132359E-18
5.348226E+03	2.327091E-17	1.136630E-18
5.348426E+03	2.327302E-17	1.136808E-18
5.348627E+03	2.327627E-17	1.137043E-18
5.348827E+03	2.327571E-17	1.137090E-18
5.349026E+03	2.327500E-17	1.137131E-18
5.349626E+03	2.335539E-17	1.141285E-18
5.350227E+03	2.343618E-17	1.145461E-18
5.350827E+03	2.351679E-17	1.149629E-18
5.351827E+03	2.367745E-17	1.157866E-18
5.352027E+03	2.367478E-17	1.157812E-18
5.352227E+03	2.366935E-17	1.157624E-18
5.352427E+03	2.366264E-17	1.157372E-18
5.353427E+03	2.381933E-17	1.165422E-18
5.353827E+03	2.385197E-17	1.167173E-18
5.354027E+03	2.384501E-17	1.166910E-18
5.354227E+03	2.383670E-17	1.166580E-18
5.354427E+03	2.382686E-17	1.166176E-18
5.354827E+03	2.385799E-17	1.167854E-18
5.355027E+03	2.384843E-17	1.167463E-18
5.355228E+03	2.383833E-17	1.167046E-18
5.355428E+03	2.382919E-17	1.166676E-18
5.356228E+03	2.393921E-17	1.172373E-18
5.356628E+03	2.396557E-17	1.173820E-18
5.357028E+03	2.399114E-17	1.175227E-18
5.357228E+03	2.397764E-17	1.174644E-18
5.357828E+03	2.404259E-17	1.178059E-18
5.358028E+03	2.402717E-17	1.177382E-18
5.358228E+03	2.401034E-17	1.176635E-18
5.358628E+03	2.403248E-17	1.177876E-18
5.359028E+03	2.405561E-17	1.179165E-18
5.359628E+03	2.411801E-17	1.182459E-18
5.359828E+03	2.410018E-17	1.181663E-18
5.360028E+03	2.408007E-17	1.180754E-18
5.360427E+03	2.409854E-17	1.181816E-18
5.361029E+03	2.415764E-17	1.184950E-18
5.361628E+03	2.421701E-17	1.188098E-18
5.362028E+03	2.423505E-17	1.189140E-18
5.362228E+03	2.420996E-17	1.187987E-18
5.362428E+03	2.418465E-17	1.186824E-18
5.362628E+03	2.416284E-17	1.185832E-18
5.362828E+03	2.413657E-17	1.184621E-18
5.364428E+03	2.438202E-17	1.197301E-18
5.364628E+03	2.435459E-17	1.196032E-18
5.364828E+03	2.432637E-17	1.194725E-18
5.365028E+03	2.430010E-17	1.193514E-18
5.365628E+03	2.434953E-17	1.196179E-18
5.366029E+03	2.435777E-17	1.196742E-18
5.366229E+03	2.432631E-17	1.195275E-18
5.366429E+03	2.429609E-17	1.193870E-18
5.367429E+03	2.441992E-17	1.200350E-18
5.367829E+03	2.442487E-17	1.200753E-18
5.368229E+03	2.442975E-17	1.201151E-18
5.368429E+03	2.439819E-17	1.199678E-18
5.369029E+03	2.443892E-17	1.201919E-18
5.369429E+03	2.444019E-17	1.202140E-18
5.369629E+03	2.440258E-17	1.200370E-18
5.369829E+03	2.436472E-17	1.198587E-18
5.370429E+03	2.440158E-17	1.200637E-18
5.370629E+03	2.436377E-17	1.198856E-18
5.371830E+03	2.451565E-17	1.206807E-18
5.372030E+03	2.447553E-17	1.204912E-18
5.372230E+03	2.443518E-17	1.203005E-18
5.372430E+03	2.439457E-17	1.201085E-18
5.372630E+03	2.435482E-17	1.199207E-18
5.373230E+03	2.438621E-17	1.200990E-18
5.373430E+03	2.434187E-17	1.198885E-18
5.373630E+03	2.429728E-17	1.196768E-18
5.373829E+03	2.425434E-17	1.194731E-18
5.374029E+03	2.420958E-17	1.192605E-18
5.374229E+03	2.416380E-17	1.190428E-18
5.375229E+03	2.426661E-17	1.195887E-18
5.375429E+03	2.422103E-17	1.193720E-18
5.376029E+03	2.425001E-17	1.195384E-18
5.376229E+03	2.420288E-17	1.193139E-18
5.377030E+03	2.426629E-17	1.196581E-18
5.378230E+03	2.440634E-17	1.203963E-18
5.378830E+03	2.443064E-17	1.205399E-18
5.379030E+03	2.437934E-17	1.202947E-18
5.380230E+03	2.451320E-17	1.210030E-18
5.380430E+03	2.446043E-17	1.207505E-18
5.381030E+03	2.448161E-17	1.208789E-18
5.381230E+03	2.442636E-17	1.206140E-18
5.381430E+03	2.437080E-17	1.203476E-18
5.381630E+03	2.431617E-17	1.200857E-18
5.381831E+03	2.425979E-17	1.198152E-18
5.383031E+03	2.438964E-17	1.205040E-18
5.383231E+03	2.433178E-17	1.202260E-18
5.383831E+03	2.434854E-17	1.203326E-18
5.384031E+03	2.428850E-17	1.200438E-18
5.384431E+03	2.426768E-17	1.199566E-18
5.384631E+03	2.420944E-17	1.196766E-18
5.385030E+03	2.418570E-17	1.195749E-18
5.385431E+03	2.416138E-17	1.194704E-18
5.385631E+03	2.409974E-17	1.191734E-18
5.386030E+03	2.407352E-17	1.190593E-18
5.386230E+03	2.400882E-17	1.187472E-18
5.386430E+03	2.394466E-17	1.184376E-18
5.386630E+03	2.388191E-17	1.181350E-18
5.386830E+03	2.381629E-17	1.178181E-18
5.387030E+03	2.374970E-17	1.174964E-18
5.387431E+03	2.371822E-17	1.173561E-18
5.387631E+03	2.364996E-17	1.170261E-18
5.387831E+03	2.358141E-17	1.166945E-18
5.388231E+03	2.354773E-17	1.165431E-18
5.388431E+03	2.347773E-17	1.162043E-18
5.388631E+03	2.340741E-17	1.158639E-18
5.388831E+03	2.333588E-17	1.155174E-18
5.389231E+03	2.329979E-17	1.153539E-18
5.390031E+03	2.333364E-17	1.155517E-18
5.390231E+03	2.325989E-17	1.151941E-18
5.390431E+03	2.318582E-17	1.148348E-18
5.392432E+03	2.342920E-17	1.161163E-18
5.392632E+03	2.335430E-17	1.157526E-18
5.392832E+03	2.327817E-17	1.153829E-18
5.393032E+03	2.320262E-17	1.150159E-18
5.393232E+03	2.312630E-17	1.146451E-18
5.393632E+03	2.308453E-17	1.144530E-18
5.393832E+03	2.300736E-17	1.140779E-18
5.395232E+03	2.313721E-17	1.147743E-18
5.395432E+03	2.305880E-17	1.143928E-18
5.395632E+03	2.297912E-17	1.140050E-18
5.397232E+03	2.314135E-17	1.148699E-18
5.397431E+03	2.305976E-17	1.144724E-18
5.397632E+03	2.297815E-17	1.140748E-18
5.397833E+03	2.289542E-17	1.136715E-18
5.398233E+03	2.284814E-17	1.134516E-18
5.398432E+03	2.276437E-17	1.130430E-18
5.398632E+03	2.267856E-17	1.126242E-18
5.398832E+03	2.259334E-17	1.122084E-18
5.399032E+03	2.250778E-17	1.117907E-18
5.399632E+03	2.248773E-17	1.117130E-18
5.399832E+03	2.240131E-17	1.112910E-18
5.400632E+03	2.241344E-17	1.113803E-18
5.400832E+03	2.232483E-17	1.109472E-18
5.401032E+03	2.223584E-17	1.105122E-18
5.401232E+03	2.214670E-17	1.100763E-18
5.401432E+03	2.205815E-17	1.096434E-18
5.401632E+03	2.197021E-17	1.092133E-18
5.401832E+03	2.187805E-17	1.087623E-18
5.402032E+03	2.178576E-17	1.083106E-18
5.402232E+03	2.169309E-17	1.078569E-18
5.403233E+03	2.172936E-17	1.080725E-18
5.403633E+03	2.166902E-17	1.077864E-18
5.403833E+03	2.157261E-17	1.073139E-18
5.404033E+03	2.147582E-17	1.068394E-18
5.404233E+03	2.138256E-17	1.063823E-18
5.404833E+03	2.134871E-17	1.062347E-18
5.405233E+03	2.128394E-17	1.059262E-18
5.405433E+03	2.118426E-17	1.054370E-18
5.405833E+03	2.111718E-17	1.051168E-18
5.406033E+03	2.101950E-17	1.046374E-18
5.406433E+03	2.095344E-17	1.043221E-18
5.406633E+03	2.085304E-17	1.038289E-18
5.407033E+03	2.078465E-17	1.035019E-18
5.407233E+03	2.068327E-17	1.030038E-18
5.408233E+03	2.070268E-17	1.031340E-18
5.408434E+03	2.060113E-17	1.026348E-18
5.408634E+03	2.049905E-17	1.021329E-18
5.408834E+03	2.039659E-17	1.016290E-18
5.409434E+03	2.035235E-17	1.014283E-18
5.409633E+03	2.024894E-17	1.009195E-18
5.410234E+03	2.020379E-17	1.007141E-18
5.410434E+03	2.009923E-17	1.001994E-18
5.410633E+03	1.999445E-17	9.968353E-19
5.410833E+03	1.988931E-17	9.916575E-19
5.411233E+03	1.981246E-17	9.879544E-19
5.411433E+03	1.970633E-17	9.827259E-19
5.411633E+03	1.960000E-17	9.774867E-19
5.412633E+03	1.960653E-17	9.781300E-19
5.413033E+03	1.952779E-17	9.743282E-19
5.413233E+03	1.941931E-17	9.689782E-19
5.414034E+03	1.939598E-17	9.680655E-19
5.414634E+03	1.934311E-17	9.656146E-19
5.415634E+03	1.934330E-17	9.659368E-19
5.416034E+03	1.926023E-17	9.619131E-19
5.416834E+03	1.922977E-17	9.606407E-19
5.417034E+03	1.911472E-17	9.549549E-19
5.417234E+03	1.900464E-17	9.495172E-19
5.417434E+03	1.889417E-17	9.440589E-19
5.417634E+03	1.878021E-17	9.384255E-19
5.417834E+03	1.866586E-17	9.327721E-19
5.418234E+03	1.857754E-17	9.284783E-19
5.418434E+03	1.846110E-17	9.227183E-19
5.418834E+03	1.837165E-17	9.183665E-19
5.419035E+03	1.825554E-17	9.126218E-19
5.419235E+03	1.813891E-17	9.068496E-19
5.419835E+03	1.807300E-17	9.037296E-19
5.420035E+03	1.795530E-17	8.979021E-19
5.420235E+03	1.783719E-17	8.920534E-19
5.421035E+03	1.779402E-17	8.901242E-19
5.421235E+03	1.767338E-17	8.841467E-19
5.421435E+03	1.755137E-17	8.780995E-19
5.421835E+03	1.745360E-17	8.733207E-19
5.422234E+03	1.736275E-17	8.688870E-19
5.422635E+03	1.726669E-17	8.641915E-19
5.423234E+03	1.719423E-17	8.607310E-19
5.423434E+03	1.706924E-17	8.545293E-19
5.423634E+03	1.694721E-17	8.484748E-19
5.423834E+03	1.682365E-17	8.423428E-19
5.424034E+03	1.669865E-17	8.361383E-19
5.424435E+03	1.659998E-17	8.313052E-19
5.424635E+03	1.647394E-17	8.250461E-19
5.424835E+03	1.634863E-17	8.188230E-19
5.425035E+03	1.622298E-17	8.125825E-19
5.425435E+03	1.612057E-17	8.075568E-19
5.425635E+03	1.599729E-17	8.014330E-19
5.425835E+03	1.587135E-17	7.951744E-19
5.426235E+03	1.576479E-17	7.899378E-19
5.426435E+03	1.564019E-17	7.837447E-19
5.426635E+03	1.551633E-17	7.775877E-19
5.427035E+03	1.540998E-17	7.723578E-19
5.427235E+03	1.528407E-17	7.660959E-19
5.427435E+03	1.515658E-17	7.597548E-19
5.427835E+03	1.504956E-17	7.544871E-19
5.428435E+03	1.496238E-17	7.502611E-19
5.428635E+03	1.483544E-17	7.439440E-19
5.428835E+03	1.470693E-17	7.375472E-19
5.429035E+03	1.457686E-17	7.310710E-19
5.429235E+03	1.444986E-17	7.247483E-19
5.429836E+03	1.435993E-17	7.203767E-19
5.430036E+03	1.423063E-17	7.139359E-19
5.430236E+03	1.410091E-17	7.074733E-19
5.430636E+03	1.399115E-17	7.020567E-19
5.431636E+03	1.393934E-17	6.996812E-19
5.431836E+03	1.380983E-17	6.932252E-19
