#wls	flux	fluxerr
1.600000E+03	2.364387E-16	4.180727E-17
1.640000E+03	2.433750E-16	4.303233E-17
1.680000E+03	2.498910E-16	4.418289E-17
1.720000E+03	2.559408E-16	4.525087E-17
1.760000E+03	2.613739E-16	4.620962E-17
1.800000E+03	2.661839E-16	4.705805E-17
1.840000E+03	2.702141E-16	4.776844E-17
1.880000E+03	2.734282E-16	4.833437E-17
1.920000E+03	2.757409E-16	4.874081E-17
1.960000E+03	2.770264E-16	4.896554E-17
2.000000E+03	2.772555E-16	4.900337E-17
2.040000E+03	2.763412E-16	4.883900E-17
2.080000E+03	2.742126E-16	4.845992E-17
2.120000E+03	2.708194E-16	4.785725E-17
2.160000E+03	2.661001E-16	4.702020E-17
2.200000E+03	2.599653E-16	4.593301E-17
2.240000E+03	2.523363E-16	4.458183E-17
2.280000E+03	2.432443E-16	4.297225E-17
2.320000E+03	2.328755E-16	4.113720E-17
2.360000E+03	2.215547E-16	3.913415E-17
2.400000E+03	2.095390E-16	3.700858E-17
2.440000E+03	1.970597E-16	3.480135E-17
2.480000E+03	1.842810E-16	3.254151E-17
2.520000E+03	1.713747E-16	3.025945E-17
2.560000E+03	1.584779E-16	2.797939E-17
2.600000E+03	1.457334E-16	2.572656E-17
2.640000E+03	1.332544E-16	2.352099E-17
2.680000E+03	1.211476E-16	2.138150E-17
2.720000E+03	1.095101E-16	1.932522E-17
2.760000E+03	9.841729E-17	1.736547E-17
2.800000E+03	8.793636E-17	1.551409E-17
2.840000E+03	7.812078E-17	1.378048E-17
2.880000E+03	6.901533E-17	1.217254E-17
2.920000E+03	6.065436E-17	1.069628E-17
2.960000E+03	5.305658E-17	9.354975E-18
3.000000E+03	4.622532E-17	8.149168E-18
3.010000E+03	4.463584E-17	7.868629E-18
3.020000E+03	4.309215E-17	7.596183E-18
3.030000E+03	4.159544E-17	7.332036E-18
3.040000E+03	4.014298E-17	7.075709E-18
3.050000E+03	3.873580E-17	6.827382E-18
3.060000E+03	3.737295E-17	6.586887E-18
3.070000E+03	3.605428E-17	6.354198E-18
3.080000E+03	3.477732E-17	6.128874E-18
3.090000E+03	3.354333E-17	5.911142E-18
3.100000E+03	3.234990E-17	5.700575E-18
3.110000E+03	3.119744E-17	5.497243E-18
3.120000E+03	3.008489E-17	5.300957E-18
3.130000E+03	2.901065E-17	5.111440E-18
3.140000E+03	2.797492E-17	4.928721E-18
3.150000E+03	2.697612E-17	4.752525E-18
3.160000E+03	2.601381E-17	4.582771E-18
3.170000E+03	2.508697E-17	4.419279E-18
3.180000E+03	2.419462E-17	4.261876E-18
3.190000E+03	2.333624E-17	4.110472E-18
3.200000E+03	2.251084E-17	3.964889E-18
3.210000E+03	2.171711E-17	3.824895E-18
3.220000E+03	2.095490E-17	3.690465E-18
3.230000E+03	2.022295E-17	3.561377E-18
3.240000E+03	1.952078E-17	3.437544E-18
3.250000E+03	1.884752E-17	3.318813E-18
3.260000E+03	1.820205E-17	3.204986E-18
3.270000E+03	1.758412E-17	3.096016E-18
3.280000E+03	1.699232E-17	2.991660E-18
3.290000E+03	1.642637E-17	2.891863E-18
3.300000E+03	1.588542E-17	2.796476E-18
3.310000E+03	1.536812E-17	2.705262E-18
3.320000E+03	1.487415E-17	2.618163E-18
3.330000E+03	1.440265E-17	2.535027E-18
3.340000E+03	1.395263E-17	2.455680E-18
3.350000E+03	1.352329E-17	2.379980E-18
3.360000E+03	1.311387E-17	2.307793E-18
3.370000E+03	1.272363E-17	2.238988E-18
3.380000E+03	1.235184E-17	2.173437E-18
3.390000E+03	1.199779E-17	2.111013E-18
3.400000E+03	1.166064E-17	2.051568E-18
3.410000E+03	1.133958E-17	1.994961E-18
3.420000E+03	1.103427E-17	1.941131E-18
3.430000E+03	1.074368E-17	1.889895E-18
3.440000E+03	1.046737E-17	1.841175E-18
3.450000E+03	1.020464E-17	1.794850E-18
3.460000E+03	9.954967E-18	1.750826E-18
3.470000E+03	9.717599E-18	1.708970E-18
3.480000E+03	9.491956E-18	1.669181E-18
3.490000E+03	9.277593E-18	1.631379E-18
3.500000E+03	9.073878E-18	1.595453E-18
3.510000E+03	8.880419E-18	1.561335E-18
3.520000E+03	8.696460E-18	1.528890E-18
3.530000E+03	8.521678E-18	1.498062E-18
3.540000E+03	8.355489E-18	1.468747E-18
3.550000E+03	8.197446E-18	1.440868E-18
3.560000E+03	8.047127E-18	1.414349E-18
3.570000E+03	7.903977E-18	1.389092E-18
3.580000E+03	7.767797E-18	1.365063E-18
3.590000E+03	7.638162E-18	1.342187E-18
3.600000E+03	7.514681E-18	1.320394E-18
3.610000E+03	7.397197E-18	1.299658E-18
3.620000E+03	7.285280E-18	1.279901E-18
3.630000E+03	7.178668E-18	1.261079E-18
3.640000E+03	7.077109E-18	1.243146E-18
3.650000E+03	6.980371E-18	1.226062E-18
3.660000E+03	6.888228E-18	1.209787E-18
3.670000E+03	6.800471E-18	1.194283E-18
3.680000E+03	6.716959E-18	1.179526E-18
3.690000E+03	6.637558E-18	1.165493E-18
3.700000E+03	6.562075E-18	1.152149E-18
3.710000E+03	6.490556E-18	1.139503E-18
3.720000E+03	6.422759E-18	1.127510E-18
3.730000E+03	6.358668E-18	1.116170E-18
3.740000E+03	6.298155E-18	1.105459E-18
3.750000E+03	6.241147E-18	1.095363E-18
3.760000E+03	6.187673E-18	1.085889E-18
3.770000E+03	6.137500E-18	1.076995E-18
3.780000E+03	6.090653E-18	1.068685E-18
3.790000E+03	6.047103E-18	1.060954E-18
3.800000E+03	6.006672E-18	1.053771E-18
3.810000E+03	5.969375E-18	1.047138E-18
3.820000E+03	5.935183E-18	1.041050E-18
3.830000E+03	5.903967E-18	1.035484E-18
3.840000E+03	5.875645E-18	1.030426E-18
3.850000E+03	5.850282E-18	1.025887E-18
3.860000E+03	5.827702E-18	1.021836E-18
3.870000E+03	5.807921E-18	1.018276E-18
3.880000E+03	5.790861E-18	1.015193E-18
3.890000E+03	5.776491E-18	1.012580E-18
3.900000E+03	5.764777E-18	1.010434E-18
3.910000E+03	5.755600E-18	1.008731E-18
3.920000E+03	5.748933E-18	1.007467E-18
3.930000E+03	5.744789E-18	1.006646E-18
3.940000E+03	5.743098E-18	1.006253E-18
3.950000E+03	5.743786E-18	1.006276E-18
3.960000E+03	5.746828E-18	1.006711E-18
3.970000E+03	5.752155E-18	1.007545E-18
3.980000E+03	5.759739E-18	1.008774E-18
3.990000E+03	5.769559E-18	1.010393E-18
4.000000E+03	5.781590E-18	1.012398E-18
4.010000E+03	5.795726E-18	1.014770E-18
4.020000E+03	5.811943E-18	1.017505E-18
4.030000E+03	5.830227E-18	1.020601E-18
4.040000E+03	5.850561E-18	1.024054E-18
4.050000E+03	5.872886E-18	1.027853E-18
4.060000E+03	5.897144E-18	1.031989E-18
4.070000E+03	5.923325E-18	1.036460E-18
4.080000E+03	5.951372E-18	1.041256E-18
4.090000E+03	5.981278E-18	1.046375E-18
4.100000E+03	6.012989E-18	1.051807E-18
4.110000E+03	6.046494E-18	1.057551E-18
4.120000E+03	6.081744E-18	1.063598E-18
4.130000E+03	6.118680E-18	1.069937E-18
4.140000E+03	6.157300E-18	1.076569E-18
4.150000E+03	6.197549E-18	1.083483E-18
4.160000E+03	6.239425E-18	1.090678E-18
4.170000E+03	6.282829E-18	1.098138E-18
4.180000E+03	6.327757E-18	1.105861E-18
4.190000E+03	6.374112E-18	1.113831E-18
4.200000E+03	6.421941E-18	1.122056E-18
4.210000E+03	6.471148E-18	1.130518E-18
4.220000E+03	6.521733E-18	1.139217E-18
4.230000E+03	6.573544E-18	1.148128E-18
4.240000E+03	6.626632E-18	1.157258E-18
4.250000E+03	6.680841E-18	1.166581E-18
4.260000E+03	6.736224E-18	1.176105E-18
4.270000E+03	6.792619E-18	1.185802E-18
4.280000E+03	6.849917E-18	1.195653E-18
4.290000E+03	6.908171E-18	1.205667E-18
4.300000E+03	6.967159E-18	1.215805E-18
4.310000E+03	7.026936E-18	1.226077E-18
4.320000E+03	7.087276E-18	1.236443E-18
4.330000E+03	7.148233E-18	1.246913E-18
4.340000E+03	7.209695E-18	1.257467E-18
4.350000E+03	7.271542E-18	1.268084E-18
4.360000E+03	7.333776E-18	1.278764E-18
4.370000E+03	7.396333E-18	1.289496E-18
4.380000E+03	7.459271E-18	1.300290E-18
4.390000E+03	7.522470E-18	1.311125E-18
4.400000E+03	7.586050E-18	1.322022E-18
4.410000E+03	7.650014E-18	1.332981E-18
4.420000E+03	7.714366E-18	1.344004E-18
4.430000E+03	7.779113E-18	1.355090E-18
4.440000E+03	7.844325E-18	1.366253E-18
4.450000E+03	7.909950E-18	1.377483E-18
4.460000E+03	7.976068E-18	1.388794E-18
4.470000E+03	8.042690E-18	1.400187E-18
4.480000E+03	8.109837E-18	1.411667E-18
4.490000E+03	8.177461E-18	1.423225E-18
4.500000E+03	8.245576E-18	1.434863E-18
4.510000E+03	8.314132E-18	1.446572E-18
4.520000E+03	8.383213E-18	1.458368E-18
4.530000E+03	8.452696E-18	1.470228E-18
4.540000E+03	8.522595E-18	1.482155E-18
4.550000E+03	8.592924E-18	1.494151E-18
4.560000E+03	8.663550E-18	1.506193E-18
4.570000E+03	8.734566E-18	1.518296E-18
4.580000E+03	8.805835E-18	1.530439E-18
4.590000E+03	8.877379E-18	1.542623E-18
4.600000E+03	8.949063E-18	1.554825E-18
4.610000E+03	9.020987E-18	1.567063E-18
4.620000E+03	9.093105E-18	1.579329E-18
4.630000E+03	9.165288E-18	1.591599E-18
4.640000E+03	9.237569E-18	1.603881E-18
4.650000E+03	9.309986E-18	1.616180E-18
4.660000E+03	9.382500E-18	1.628489E-18
4.670000E+03	9.454990E-18	1.640788E-18
4.680000E+03	9.527671E-18	1.653113E-18
4.690000E+03	9.600601E-18	1.665475E-18
4.700000E+03	9.673670E-18	1.677854E-18
4.710000E+03	9.746942E-18	1.690262E-18
4.720000E+03	9.820485E-18	1.702710E-18
4.730000E+03	9.894110E-18	1.715165E-18
4.740000E+03	9.967889E-18	1.727640E-18
4.750000E+03	1.004172E-17	1.740117E-18
4.760000E+03	1.011568E-17	1.752609E-18
4.770000E+03	1.018976E-17	1.765116E-18
4.780000E+03	1.026387E-17	1.777620E-18
4.790000E+03	1.033810E-17	1.790136E-18
4.800000E+03	1.041234E-17	1.802647E-18
4.810000E+03	1.048669E-17	1.815170E-18
4.820000E+03	1.056105E-17	1.827689E-18
4.830000E+03	1.063544E-17	1.840202E-18
4.840000E+03	1.070984E-17	1.852712E-18
4.850000E+03	1.078436E-17	1.865233E-18
4.860000E+03	1.085890E-17	1.877751E-18
4.870000E+03	1.093346E-17	1.890264E-18
4.880000E+03	1.100794E-17	1.902754E-18
4.890000E+03	1.108253E-17	1.915256E-18
4.900000E+03	1.115712E-17	1.927750E-18
4.910000E+03	1.123170E-17	1.940235E-18
4.920000E+03	1.130616E-17	1.952689E-18
4.930000E+03	1.138057E-17	1.965127E-18
4.940000E+03	1.145481E-17	1.977526E-18
4.950000E+03	1.152884E-17	1.989881E-18
4.960000E+03	1.160274E-17	2.002206E-18
4.970000E+03	1.167639E-17	2.014477E-18
4.980000E+03	1.174973E-17	2.026689E-18
4.990000E+03	1.182263E-17	2.038814E-18
5.000000E+03	1.189516E-17	2.050866E-18
5.010000E+03	1.196726E-17	2.062837E-18
5.020000E+03	1.203879E-17	2.074699E-18
5.030000E+03	1.210968E-17	2.086442E-18
5.040000E+03	1.217988E-17	2.098058E-18
5.050000E+03	1.224921E-17	2.109515E-18
5.060000E+03	1.231773E-17	2.120822E-18
5.070000E+03	1.238537E-17	2.131970E-18
5.080000E+03	1.245183E-17	2.142906E-18
5.090000E+03	1.251717E-17	2.153640E-18
5.100000E+03	1.258132E-17	2.164161E-18
5.110000E+03	1.264412E-17	2.174440E-18
5.120000E+03	1.270551E-17	2.184468E-18
5.130000E+03	1.276545E-17	2.194236E-18
5.140000E+03	1.282387E-17	2.203737E-18
5.150000E+03	1.288063E-17	2.212942E-18
5.160000E+03	1.293580E-17	2.221865E-18
5.170000E+03	1.298908E-17	2.230456E-18
5.180000E+03	1.304056E-17	2.238728E-18
5.190000E+03	1.309004E-17	2.246650E-18
5.200000E+03	1.313748E-17	2.254212E-18
5.210000E+03	1.318280E-17	2.261402E-18
5.220000E+03	1.322592E-17	2.268209E-18
5.230000E+03	1.326650E-17	2.274570E-18
5.240000E+03	1.330471E-17	2.280517E-18
5.250000E+03	1.334029E-17	2.286007E-18
5.260000E+03	1.337316E-17	2.291023E-18
5.270000E+03	1.340302E-17	2.295519E-18
5.280000E+03	1.342979E-17	2.299476E-18
5.290000E+03	1.345330E-17	2.302871E-18
5.300000E+03	1.347346E-17	2.305683E-18
5.310000E+03	1.349014E-17	2.307895E-18
5.320000E+03	1.350311E-17	2.309466E-18
5.330000E+03	1.351254E-17	2.310427E-18
5.340000E+03	1.351810E-17	2.310720E-18
5.350000E+03	1.351974E-17	2.310340E-18
5.360000E+03	1.351768E-17	2.309321E-18
5.370000E+03	1.351165E-17	2.307620E-18
5.380000E+03	1.350189E-17	2.305279E-18
5.390000E+03	1.348830E-17	2.302279E-18
5.400000E+03	1.347105E-17	2.298652E-18
5.410000E+03	1.345001E-17	2.294377E-18
5.420000E+03	1.342555E-17	2.289514E-18
5.430000E+03	1.339757E-17	2.284051E-18
5.440000E+03	1.336631E-17	2.278025E-18
5.450000E+03	1.333161E-17	2.271413E-18
5.460000E+03	1.329370E-17	2.264253E-18
5.470000E+03	1.325261E-17	2.256552E-18
5.480000E+03	1.320834E-17	2.248307E-18
5.490000E+03	1.316117E-17	2.239570E-18
5.500000E+03	1.311105E-17	2.230330E-18
5.510000E+03	1.305799E-17	2.220591E-18
5.520000E+03	1.300220E-17	2.210390E-18
5.530000E+03	1.294361E-17	2.199715E-18
5.540000E+03	1.288258E-17	2.188626E-18
5.550000E+03	1.281891E-17	2.177091E-18
5.560000E+03	1.275307E-17	2.165191E-18
5.570000E+03	1.268516E-17	2.152941E-18
5.580000E+03	1.261524E-17	2.140354E-18
5.590000E+03	1.254352E-17	2.127464E-18
5.600000E+03	1.247020E-17	2.114308E-18
5.610000E+03	1.239535E-17	2.100894E-18
5.620000E+03	1.231940E-17	2.087299E-18
5.630000E+03	1.224228E-17	2.073509E-18
5.640000E+03	1.216439E-17	2.059594E-18
5.650000E+03	1.208564E-17	2.045539E-18
5.660000E+03	1.200643E-17	2.031409E-18
5.670000E+03	1.192689E-17	2.017229E-18
5.680000E+03	1.184702E-17	2.002999E-18
5.690000E+03	1.176707E-17	1.988759E-18
5.700000E+03	1.168714E-17	1.974529E-18
5.710000E+03	1.160746E-17	1.960345E-18
5.720000E+03	1.152812E-17	1.946225E-18
5.730000E+03	1.144908E-17	1.932161E-18
5.740000E+03	1.137068E-17	1.918210E-18
5.750000E+03	1.129299E-17	1.904384E-18
5.760000E+03	1.121596E-17	1.890675E-18
5.770000E+03	1.113980E-17	1.877117E-18
5.780000E+03	1.106468E-17	1.863741E-18
5.790000E+03	1.099068E-17	1.850557E-18
5.800000E+03	1.091774E-17	1.837558E-18
5.810000E+03	1.084606E-17	1.824775E-18
5.820000E+03	1.077581E-17	1.812238E-18
5.830000E+03	1.070706E-17	1.799959E-18
5.840000E+03	1.063978E-17	1.787930E-18
5.850000E+03	1.057413E-17	1.776182E-18
5.860000E+03	1.051020E-17	1.764726E-18
5.870000E+03	1.044818E-17	1.753593E-18
5.880000E+03	1.038813E-17	1.742797E-18
5.890000E+03	1.033001E-17	1.732328E-18
5.900000E+03	1.027401E-17	1.722218E-18
5.910000E+03	1.022008E-17	1.712458E-18
5.920000E+03	1.016863E-17	1.703116E-18
5.930000E+03	1.011936E-17	1.694143E-18
5.940000E+03	1.007244E-17	1.685566E-18
5.950000E+03	1.002802E-17	1.677409E-18
5.960000E+03	9.986020E-18	1.669659E-18
5.970000E+03	9.946469E-18	1.662320E-18
5.980000E+03	9.909497E-18	1.655413E-18
5.990000E+03	9.875003E-18	1.648921E-18
6.000000E+03	9.843109E-18	1.642864E-18
6.010000E+03	9.813587E-18	1.637203E-18
6.020000E+03	9.786661E-18	1.631974E-18
6.030000E+03	9.762096E-18	1.627139E-18
6.040000E+03	9.740109E-18	1.622733E-18
6.050000E+03	9.720340E-18	1.618695E-18
6.060000E+03	9.702996E-18	1.615060E-18
6.070000E+03	9.687942E-18	1.611804E-18
6.080000E+03	9.675148E-18	1.608921E-18
6.090000E+03	9.664356E-18	1.606369E-18
6.100000E+03	9.655763E-18	1.604180E-18
6.110000E+03	9.648985E-18	1.602288E-18
6.120000E+03	9.644217E-18	1.600728E-18
6.130000E+03	9.641066E-18	1.599431E-18
6.140000E+03	9.639485E-18	1.598392E-18
6.150000E+03	9.639310E-18	1.597580E-18
6.160000E+03	9.640487E-18	1.596989E-18
6.170000E+03	9.642604E-18	1.596548E-18
6.180000E+03	9.645598E-18	1.596248E-18
6.190000E+03	9.649284E-18	1.596057E-18
6.200000E+03	9.653596E-18	1.595965E-18
6.210000E+03	9.658463E-18	1.595959E-18
6.220000E+03	9.664061E-18	1.596068E-18
6.230000E+03	9.670698E-18	1.596343E-18
6.240000E+03	9.678437E-18	1.596795E-18
6.250000E+03	9.687473E-18	1.597454E-18
6.260000E+03	9.698007E-18	1.598354E-18
6.270000E+03	9.710121E-18	1.599508E-18
6.280000E+03	9.724030E-18	1.600951E-18
6.290000E+03	9.739828E-18	1.602697E-18
6.300000E+03	9.757615E-18	1.604764E-18
6.310000E+03	9.777630E-18	1.607188E-18
6.320000E+03	9.799854E-18	1.609967E-18
6.330000E+03	9.824541E-18	1.613142E-18
6.340000E+03	9.851549E-18	1.616689E-18
6.350000E+03	9.881006E-18	1.620627E-18
6.360000E+03	9.912908E-18	1.624957E-18
6.370000E+03	9.947397E-18	1.629699E-18
6.380000E+03	9.984336E-18	1.634832E-18
6.390000E+03	1.002373E-17	1.640354E-18
6.400000E+03	1.006544E-17	1.646243E-18
6.410000E+03	1.010918E-17	1.652451E-18
6.420000E+03	1.015479E-17	1.658952E-18
6.430000E+03	1.020227E-17	1.665744E-18
6.440000E+03	1.025161E-17	1.672826E-18
6.450000E+03	1.030281E-17	1.680197E-18
6.460000E+03	1.035602E-17	1.687881E-18
6.470000E+03	1.041140E-17	1.695902E-18
6.480000E+03	1.046895E-17	1.704263E-18
6.490000E+03	1.052854E-17	1.712937E-18
6.500000E+03	1.059049E-17	1.721978E-18
6.510000E+03	1.065481E-17	1.731388E-18
6.520000E+03	1.072137E-17	1.741143E-18
6.530000E+03	1.079035E-17	1.751271E-18
6.540000E+03	1.086176E-17	1.761777E-18
6.550000E+03	1.093547E-17	1.772634E-18
6.560000E+03	1.101148E-17	1.783845E-18
6.570000E+03	1.109018E-17	1.795470E-18
6.580000E+03	1.117106E-17	1.807425E-18
6.590000E+03	1.125450E-17	1.819772E-18
6.600000E+03	1.134052E-17	1.832515E-18
6.610000E+03	1.142879E-17	1.845596E-18
6.620000E+03	1.151969E-17	1.859079E-18
6.630000E+03	1.161288E-17	1.872907E-18
6.640000E+03	1.170876E-17	1.887142E-18
6.650000E+03	1.180697E-17	1.901728E-18
6.660000E+03	1.190773E-17	1.916696E-18
6.670000E+03	1.201106E-17	1.932051E-18
6.680000E+03	1.211679E-17	1.947763E-18
6.690000E+03	1.222492E-17	1.963833E-18
6.700000E+03	1.233571E-17	1.980300E-18
6.710000E+03	1.244894E-17	1.997129E-18
6.720000E+03	1.256466E-17	2.014327E-18
6.730000E+03	1.268287E-17	2.031893E-18
6.740000E+03	1.280362E-17	2.049831E-18
6.750000E+03	1.292691E-17	2.068144E-18
6.760000E+03	1.305276E-17	2.086834E-18
6.770000E+03	1.318099E-17	2.105868E-18
6.780000E+03	1.331183E-17	2.125285E-18
6.790000E+03	1.344532E-17	2.145087E-18
6.800000E+03	1.358122E-17	2.165239E-18
6.810000E+03	1.371982E-17	2.185783E-18
6.820000E+03	1.386087E-17	2.206679E-18
6.830000E+03	1.400442E-17	2.227933E-18
6.840000E+03	1.415045E-17	2.249543E-18
6.850000E+03	1.429901E-17	2.271514E-18
6.860000E+03	1.445035E-17	2.293887E-18
6.870000E+03	1.460399E-17	2.316580E-18
6.880000E+03	1.476019E-17	2.339638E-18
6.890000E+03	1.491896E-17	2.363060E-18
6.900000E+03	1.508006E-17	2.386806E-18
6.910000E+03	1.524378E-17	2.410920E-18
6.920000E+03	1.541012E-17	2.435403E-18
6.930000E+03	1.557882E-17	2.460212E-18
6.940000E+03	1.574987E-17	2.485345E-18
6.950000E+03	1.592358E-17	2.510849E-18
6.960000E+03	1.609966E-17	2.536678E-18
6.970000E+03	1.627811E-17	2.562830E-18
6.980000E+03	1.645893E-17	2.589305E-18
6.990000E+03	1.664212E-17	2.616100E-18
7.000000E+03	1.682735E-17	2.643163E-18
7.010000E+03	1.701526E-17	2.670594E-18
7.020000E+03	1.720519E-17	2.698289E-18
7.030000E+03	1.739746E-17	2.726296E-18
7.040000E+03	1.759172E-17	2.754560E-18
7.050000E+03	1.778796E-17	2.783076E-18
7.060000E+03	1.798650E-17	2.811897E-18
7.070000E+03	1.818698E-17	2.840962E-18
7.080000E+03	1.838899E-17	2.870209E-18
7.090000E+03	1.859326E-17	2.899750E-18
7.100000E+03	1.879938E-17	2.929519E-18
7.110000E+03	1.900695E-17	2.959454E-18
7.120000E+03	1.921631E-17	2.989607E-18
7.130000E+03	1.942704E-17	3.019912E-18
7.140000E+03	1.963948E-17	3.050421E-18
7.150000E+03	1.985322E-17	3.081067E-18
7.160000E+03	2.006859E-17	3.111905E-18
7.170000E+03	2.028473E-17	3.142798E-18
7.180000E+03	2.050200E-17	3.173803E-18
7.190000E+03	2.072077E-17	3.204976E-18
7.200000E+03	2.094015E-17	3.236176E-18
7.210000E+03	2.116003E-17	3.267390E-18
7.220000E+03	2.138083E-17	3.298679E-18
7.230000E+03	2.160245E-17	3.330030E-18
7.240000E+03	2.182439E-17	3.361363E-18
7.250000E+03	2.204704E-17	3.392739E-18
7.260000E+03	2.226986E-17	3.424074E-18
7.270000E+03	2.249273E-17	3.455350E-18
7.280000E+03	2.271607E-17	3.486632E-18
7.290000E+03	2.293930E-17	3.517828E-18
7.300000E+03	2.316281E-17	3.549000E-18
7.310000E+03	2.338599E-17	3.580054E-18
7.320000E+03	2.360873E-17	3.610973E-18
7.330000E+03	2.383196E-17	3.641899E-18
7.340000E+03	2.405453E-17	3.672657E-18
7.350000E+03	2.427739E-17	3.703393E-18
7.360000E+03	2.449993E-17	3.734010E-18
7.370000E+03	2.472262E-17	3.764583E-18
7.380000E+03	2.494594E-17	3.795185E-18
7.390000E+03	2.516929E-17	3.825722E-18
7.400000E+03	2.539378E-17	3.856365E-18
7.410000E+03	2.561941E-17	3.887113E-18
7.420000E+03	2.584678E-17	3.918055E-18
7.430000E+03	2.607594E-17	3.949199E-18
7.440000E+03	2.630692E-17	3.980550E-18
7.450000E+03	2.654041E-17	4.012208E-18
7.460000E+03	2.677523E-17	4.043998E-18
7.470000E+03	2.701144E-17	4.075926E-18
7.480000E+03	2.724846E-17	4.107905E-18
7.490000E+03	2.748697E-17	4.140037E-18
7.500000E+03	2.772637E-17	4.172230E-18
7.510000E+03	2.796608E-17	4.204398E-18
7.520000E+03	2.820610E-17	4.236541E-18
7.530000E+03	2.844648E-17	4.268665E-18
7.540000E+03	2.868660E-17	4.300678E-18
7.550000E+03	2.892715E-17	4.332684E-18
7.560000E+03	2.916681E-17	4.364486E-18
7.570000E+03	2.940702E-17	4.396297E-18
7.580000E+03	2.964712E-17	4.428022E-18
7.590000E+03	2.988716E-17	4.459667E-18
7.600000E+03	3.012643E-17	4.491125E-18
7.610000E+03	3.036566E-17	4.522506E-18
7.620000E+03	3.060483E-17	4.553809E-18
7.630000E+03	3.084389E-17	4.585025E-18
7.640000E+03	3.108200E-17	4.616032E-18
7.650000E+03	3.131981E-17	4.646923E-18
7.660000E+03	3.155639E-17	4.677563E-18
7.670000E+03	3.179313E-17	4.708159E-18
7.680000E+03	3.202745E-17	4.738329E-18
7.690000E+03	3.226149E-17	4.768391E-18
7.700000E+03	3.249423E-17	4.798193E-18
7.710000E+03	3.272456E-17	4.827573E-18
7.720000E+03	3.295300E-17	4.856610E-18
7.730000E+03	3.317925E-17	4.885261E-18
7.740000E+03	3.340298E-17	4.913478E-18
7.750000E+03	3.362387E-17	4.941214E-18
7.760000E+03	3.384242E-17	4.968547E-18
