#wls	flux	fluxerr
1.600000E+03	3.584537E-16	1.176133E-16
1.640000E+03	3.689108E-16	1.210424E-16
1.680000E+03	3.786793E-16	1.242455E-16
1.720000E+03	3.876464E-16	1.271855E-16
1.760000E+03	3.956520E-16	1.298098E-16
1.800000E+03	4.025680E-16	1.320765E-16
1.840000E+03	4.082253E-16	1.339301E-16
1.880000E+03	4.125270E-16	1.353388E-16
1.920000E+03	4.153401E-16	1.362590E-16
1.960000E+03	4.165036E-16	1.366379E-16
2.000000E+03	4.159362E-16	1.364489E-16
2.040000E+03	4.135057E-16	1.356486E-16
2.080000E+03	4.091072E-16	1.342027E-16
2.120000E+03	4.027241E-16	1.321057E-16
2.160000E+03	3.942369E-16	1.293186E-16
2.200000E+03	3.835902E-16	1.258231E-16
2.240000E+03	3.707310E-16	1.216021E-16
2.280000E+03	3.555549E-16	1.166212E-16
2.320000E+03	3.385295E-16	1.110339E-16
2.360000E+03	3.201255E-16	1.049947E-16
2.400000E+03	3.007198E-16	9.862720E-17
2.440000E+03	2.806322E-16	9.203636E-17
2.480000E+03	2.601651E-16	8.532136E-17
2.520000E+03	2.395892E-16	7.857104E-17
2.560000E+03	2.191415E-16	7.186308E-17
2.600000E+03	1.990572E-16	6.527468E-17
2.640000E+03	1.795459E-16	5.887455E-17
2.680000E+03	1.607927E-16	5.272337E-17
2.720000E+03	1.429578E-16	4.687367E-17
2.760000E+03	1.261835E-16	4.137209E-17
2.800000E+03	1.105652E-16	3.624989E-17
2.840000E+03	9.617764E-17	3.153155E-17
2.880000E+03	8.307666E-17	2.723533E-17
2.920000E+03	7.128971E-17	2.337019E-17
2.960000E+03	6.081987E-17	1.993711E-17
3.000000E+03	5.163576E-17	1.692575E-17
3.010000E+03	4.953325E-17	1.623639E-17
3.020000E+03	4.750571E-17	1.557161E-17
3.030000E+03	4.555256E-17	1.493123E-17
3.040000E+03	4.367193E-17	1.431463E-17
3.050000E+03	4.186196E-17	1.372120E-17
3.060000E+03	4.012173E-17	1.315065E-17
3.070000E+03	3.844844E-17	1.260205E-17
3.080000E+03	3.684184E-17	1.207532E-17
3.090000E+03	3.529919E-17	1.156956E-17
3.100000E+03	3.381930E-17	1.108438E-17
3.110000E+03	3.240018E-17	1.061913E-17
3.120000E+03	3.104052E-17	1.017338E-17
3.130000E+03	2.973834E-17	9.746477E-18
3.140000E+03	2.849166E-17	9.337775E-18
3.150000E+03	2.729915E-17	8.946834E-18
3.160000E+03	2.615833E-17	8.572840E-18
3.170000E+03	2.506831E-17	8.215506E-18
3.180000E+03	2.402676E-17	7.874065E-18
3.190000E+03	2.303228E-17	7.548057E-18
3.200000E+03	2.208307E-17	7.236890E-18
3.210000E+03	2.117733E-17	6.939978E-18
3.220000E+03	2.031372E-17	6.656881E-18
3.230000E+03	1.949053E-17	6.387032E-18
3.240000E+03	1.870576E-17	6.129784E-18
3.250000E+03	1.795876E-17	5.884916E-18
3.260000E+03	1.724702E-17	5.651609E-18
3.270000E+03	1.656988E-17	5.429646E-18
3.280000E+03	1.592530E-17	5.218357E-18
3.290000E+03	1.531211E-17	5.017360E-18
3.300000E+03	1.472915E-17	4.826273E-18
3.310000E+03	1.417461E-17	4.644504E-18
3.320000E+03	1.364765E-17	4.471774E-18
3.330000E+03	1.314699E-17	4.307667E-18
3.340000E+03	1.267123E-17	4.151723E-18
3.350000E+03	1.221923E-17	4.003568E-18
3.360000E+03	1.178989E-17	3.862842E-18
3.370000E+03	1.138232E-17	3.729252E-18
3.380000E+03	1.099520E-17	3.602364E-18
3.390000E+03	1.062786E-17	3.481960E-18
3.400000E+03	1.027909E-17	3.367645E-18
3.410000E+03	9.948031E-18	3.259135E-18
3.420000E+03	9.633983E-18	3.156200E-18
3.430000E+03	9.335793E-18	3.058463E-18
3.440000E+03	9.052961E-18	2.965760E-18
3.450000E+03	8.784659E-18	2.877820E-18
3.460000E+03	8.529920E-18	2.794325E-18
3.470000E+03	8.288328E-18	2.715139E-18
3.480000E+03	8.059010E-18	2.639976E-18
3.490000E+03	7.841426E-18	2.568659E-18
3.500000E+03	7.634976E-18	2.500992E-18
3.510000E+03	7.438854E-18	2.436709E-18
3.520000E+03	7.252633E-18	2.375671E-18
3.530000E+03	7.075682E-18	2.317671E-18
3.540000E+03	6.907420E-18	2.262519E-18
3.550000E+03	6.747380E-18	2.210062E-18
3.560000E+03	6.594987E-18	2.160110E-18
3.570000E+03	6.449786E-18	2.112516E-18
3.580000E+03	6.311283E-18	2.067117E-18
3.590000E+03	6.179151E-18	2.023806E-18
3.600000E+03	6.053016E-18	1.982460E-18
3.610000E+03	5.932477E-18	1.942948E-18
3.620000E+03	5.817270E-18	1.905184E-18
3.630000E+03	5.707138E-18	1.869083E-18
3.640000E+03	5.601742E-18	1.834533E-18
3.650000E+03	5.501009E-18	1.801512E-18
3.660000E+03	5.404616E-18	1.769913E-18
3.670000E+03	5.312448E-18	1.739699E-18
3.680000E+03	5.224347E-18	1.710817E-18
3.690000E+03	5.140152E-18	1.683215E-18
3.700000E+03	5.059754E-18	1.656857E-18
3.710000E+03	4.983086E-18	1.631721E-18
3.720000E+03	4.909906E-18	1.607729E-18
3.730000E+03	4.840234E-18	1.584885E-18
3.740000E+03	4.773876E-18	1.563128E-18
3.750000E+03	4.710766E-18	1.542434E-18
3.760000E+03	4.650835E-18	1.522782E-18
3.770000E+03	4.593902E-18	1.504112E-18
3.780000E+03	4.539974E-18	1.486427E-18
3.790000E+03	4.488911E-18	1.469680E-18
3.800000E+03	4.440648E-18	1.453850E-18
3.810000E+03	4.395084E-18	1.438904E-18
3.820000E+03	4.352161E-18	1.424823E-18
3.830000E+03	4.311780E-18	1.411575E-18
3.840000E+03	4.273881E-18	1.399139E-18
3.850000E+03	4.238375E-18	1.387488E-18
3.860000E+03	4.205238E-18	1.376612E-18
3.870000E+03	4.174383E-18	1.366483E-18
3.880000E+03	4.145727E-18	1.357075E-18
3.890000E+03	4.119216E-18	1.348369E-18
3.900000E+03	4.094773E-18	1.340339E-18
3.910000E+03	4.072381E-18	1.332982E-18
3.920000E+03	4.051963E-18	1.326270E-18
3.930000E+03	4.033477E-18	1.320191E-18
3.940000E+03	4.016849E-18	1.314721E-18
3.950000E+03	4.002009E-18	1.309835E-18
3.960000E+03	3.988977E-18	1.305541E-18
3.970000E+03	3.977627E-18	1.301798E-18
3.980000E+03	3.967953E-18	1.298603E-18
3.990000E+03	3.959891E-18	1.295936E-18
4.000000E+03	3.953408E-18	1.293785E-18
4.010000E+03	3.948477E-18	1.292143E-18
4.020000E+03	3.945002E-18	1.290976E-18
4.030000E+03	3.942989E-18	1.290288E-18
4.040000E+03	3.942380E-18	1.290059E-18
4.050000E+03	3.943150E-18	1.290281E-18
4.060000E+03	3.945243E-18	1.290936E-18
4.070000E+03	3.948611E-18	1.292008E-18
4.080000E+03	3.953258E-18	1.293498E-18
4.090000E+03	3.959105E-18	1.295380E-18
4.100000E+03	3.966133E-18	1.297649E-18
4.110000E+03	3.974328E-18	1.300298E-18
4.120000E+03	3.983608E-18	1.303303E-18
4.130000E+03	3.993991E-18	1.306668E-18
4.140000E+03	4.005401E-18	1.310369E-18
4.150000E+03	4.017823E-18	1.314400E-18
4.160000E+03	4.031248E-18	1.318759E-18
4.170000E+03	4.045602E-18	1.323422E-18
4.180000E+03	4.060907E-18	1.328395E-18
4.190000E+03	4.077058E-18	1.333645E-18
4.200000E+03	4.094110E-18	1.339188E-18
4.210000E+03	4.111962E-18	1.344993E-18
4.220000E+03	4.130606E-18	1.351056E-18
4.230000E+03	4.150004E-18	1.357366E-18
4.240000E+03	4.170151E-18	1.363920E-18
4.250000E+03	4.190944E-18	1.370684E-18
4.260000E+03	4.212415E-18	1.377670E-18
4.270000E+03	4.234489E-18	1.384852E-18
4.280000E+03	4.257100E-18	1.392210E-18
4.290000E+03	4.280241E-18	1.399740E-18
4.300000E+03	4.303877E-18	1.407431E-18
4.310000E+03	4.327903E-18	1.415249E-18
4.320000E+03	4.352279E-18	1.423181E-18
4.330000E+03	4.376965E-18	1.431213E-18
4.340000E+03	4.401921E-18	1.439333E-18
4.350000E+03	4.427108E-18	1.447528E-18
4.360000E+03	4.452518E-18	1.455795E-18
4.370000E+03	4.478111E-18	1.464121E-18
4.380000E+03	4.503843E-18	1.472492E-18
4.390000E+03	4.529783E-18	1.480930E-18
4.400000E+03	4.555890E-18	1.489423E-18
4.410000E+03	4.582161E-18	1.497967E-18
4.420000E+03	4.608628E-18	1.506575E-18
4.430000E+03	4.635292E-18	1.515247E-18
4.440000E+03	4.662116E-18	1.523970E-18
4.450000E+03	4.689140E-18	1.532758E-18
4.460000E+03	4.716327E-18	1.541598E-18
4.470000E+03	4.743681E-18	1.550492E-18
4.480000E+03	4.771208E-18	1.559442E-18
4.490000E+03	4.798838E-18	1.568424E-18
4.500000E+03	4.826616E-18	1.577454E-18
4.510000E+03	4.854516E-18	1.586523E-18
4.520000E+03	4.882507E-18	1.595621E-18
4.530000E+03	4.910600E-18	1.604751E-18
4.540000E+03	4.938733E-18	1.613893E-18
4.550000E+03	4.966919E-18	1.623052E-18
4.560000E+03	4.995177E-18	1.632234E-18
4.570000E+03	5.023484E-18	1.641430E-18
4.580000E+03	5.051782E-18	1.650623E-18
4.590000E+03	5.080088E-18	1.659817E-18
4.600000E+03	5.108391E-18	1.669010E-18
4.610000E+03	5.136671E-18	1.678194E-18
4.620000E+03	5.164959E-18	1.687379E-18
4.630000E+03	5.193195E-18	1.696547E-18
4.640000E+03	5.221417E-18	1.705709E-18
4.650000E+03	5.249610E-18	1.714860E-18
4.660000E+03	5.277768E-18	1.723999E-18
4.670000E+03	5.305882E-18	1.733123E-18
4.680000E+03	5.333948E-18	1.742230E-18
4.690000E+03	5.361959E-18	1.751318E-18
4.700000E+03	5.390007E-18	1.760417E-18
4.710000E+03	5.418090E-18	1.769527E-18
4.720000E+03	5.446211E-18	1.778647E-18
4.730000E+03	5.474465E-18	1.787810E-18
4.740000E+03	5.502813E-18	1.797003E-18
4.750000E+03	5.531256E-18	1.806226E-18
4.760000E+03	5.559853E-18	1.815498E-18
4.770000E+03	5.588610E-18	1.824821E-18
4.780000E+03	5.617486E-18	1.834182E-18
4.790000E+03	5.646542E-18	1.843600E-18
4.800000E+03	5.675788E-18	1.853079E-18
4.810000E+03	5.705187E-18	1.862607E-18
4.820000E+03	5.734799E-18	1.872204E-18
4.830000E+03	5.764641E-18	1.881874E-18
4.840000E+03	5.794726E-18	1.891623E-18
4.850000E+03	5.825070E-18	1.901454E-18
4.860000E+03	5.855634E-18	1.911357E-18
4.870000E+03	5.886541E-18	1.921370E-18
4.880000E+03	5.917704E-18	1.931465E-18
4.890000E+03	5.949136E-18	1.941647E-18
4.900000E+03	5.980910E-18	1.951939E-18
4.910000E+03	6.013041E-18	1.962347E-18
4.920000E+03	6.045552E-18	1.972876E-18
4.930000E+03	6.078345E-18	1.983497E-18
4.940000E+03	6.111551E-18	1.994251E-18
4.950000E+03	6.145127E-18	2.005124E-18
4.960000E+03	6.179092E-18	2.016123E-18
4.970000E+03	6.213462E-18	2.027252E-18
4.980000E+03	6.248246E-18	2.038516E-18
4.990000E+03	6.283405E-18	2.049899E-18
5.000000E+03	6.318949E-18	2.061407E-18
5.010000E+03	6.354947E-18	2.073062E-18
5.020000E+03	6.391350E-18	2.084847E-18
5.030000E+03	6.428106E-18	2.096745E-18
5.040000E+03	6.465343E-18	2.108800E-18
5.050000E+03	6.502882E-18	2.120950E-18
5.060000E+03	6.540852E-18	2.133240E-18
5.070000E+03	6.579256E-18	2.145669E-18
5.080000E+03	6.617904E-18	2.158177E-18
5.090000E+03	6.656986E-18	2.170823E-18
5.100000E+03	6.696372E-18	2.183568E-18
5.110000E+03	6.736058E-18	2.196409E-18
5.120000E+03	6.776106E-18	2.209365E-18
5.130000E+03	6.816376E-18	2.222392E-18
5.140000E+03	6.856858E-18	2.235487E-18
5.150000E+03	6.897610E-18	2.248668E-18
5.160000E+03	6.938555E-18	2.261909E-18
5.170000E+03	6.979675E-18	2.275206E-18
5.180000E+03	7.020892E-18	2.288532E-18
5.190000E+03	7.062253E-18	2.301904E-18
5.200000E+03	7.103606E-18	2.315270E-18
5.210000E+03	7.145066E-18	2.328670E-18
5.220000E+03	7.186542E-18	2.342073E-18
5.230000E+03	7.227940E-18	2.355449E-18
5.240000E+03	7.269237E-18	2.368789E-18
5.250000E+03	7.310472E-18	2.382107E-18
5.260000E+03	7.351476E-18	2.395348E-18
5.270000E+03	7.392285E-18	2.408523E-18
5.280000E+03	7.432946E-18	2.421648E-18
5.290000E+03	7.473203E-18	2.434639E-18
5.300000E+03	7.513237E-18	2.447555E-18
5.310000E+03	7.552796E-18	2.460315E-18
5.320000E+03	7.592059E-18	2.472976E-18
5.330000E+03	7.630768E-18	2.485454E-18
5.340000E+03	7.669029E-18	2.497785E-18
5.350000E+03	7.706810E-18	2.509957E-18
5.360000E+03	7.743988E-18	2.521930E-18
5.370000E+03	7.780681E-18	2.533744E-18
5.380000E+03	7.816619E-18	2.545309E-18
5.390000E+03	7.851994E-18	2.556690E-18
5.400000E+03	7.886694E-18	2.567848E-18
5.410000E+03	7.920678E-18	2.578771E-18
5.420000E+03	7.953913E-18	2.589448E-18
5.430000E+03	7.986364E-18	2.599867E-18
5.440000E+03	8.017912E-18	2.609991E-18
5.450000E+03	8.048527E-18	2.619809E-18
5.460000E+03	8.078173E-18	2.629310E-18
5.470000E+03	8.106816E-18	2.638482E-18
5.480000E+03	8.134343E-18	2.647290E-18
5.490000E+03	8.160640E-18	2.655694E-18
5.500000E+03	8.185753E-18	2.663712E-18
5.510000E+03	8.209571E-18	2.671307E-18
5.520000E+03	8.231978E-18	2.678440E-18
5.530000E+03	8.252858E-18	2.685075E-18
5.540000E+03	8.272264E-18	2.691229E-18
5.550000E+03	8.290001E-18	2.696838E-18
5.560000E+03	8.306118E-18	2.701918E-18
5.570000E+03	8.320421E-18	2.706407E-18
5.580000E+03	8.332882E-18	2.710295E-18
5.590000E+03	8.343559E-18	2.713601E-18
5.600000E+03	8.352256E-18	2.716263E-18
5.610000E+03	8.359038E-18	2.718300E-18
5.620000E+03	8.363881E-18	2.719705E-18
5.630000E+03	8.366686E-18	2.720447E-18
5.640000E+03	8.367438E-18	2.720519E-18
5.650000E+03	8.366206E-18	2.719946E-18
5.660000E+03	8.362986E-18	2.718726E-18
5.670000E+03	8.357684E-18	2.716828E-18
5.680000E+03	8.350387E-18	2.714281E-18
5.690000E+03	8.341183E-18	2.711113E-18
5.700000E+03	8.329907E-18	2.707271E-18
5.710000E+03	8.316652E-18	2.702786E-18
5.720000E+03	8.301522E-18	2.697690E-18
5.730000E+03	8.284537E-18	2.691992E-18
5.740000E+03	8.265718E-18	2.685698E-18
5.750000E+03	8.245092E-18	2.678816E-18
5.760000E+03	8.222691E-18	2.671357E-18
5.770000E+03	8.198636E-18	2.663362E-18
5.780000E+03	8.172880E-18	2.654813E-18
5.790000E+03	8.145639E-18	2.645783E-18
5.800000E+03	8.116875E-18	2.636258E-18
5.810000E+03	8.086636E-18	2.626254E-18
5.820000E+03	8.055153E-18	2.615847E-18
5.830000E+03	8.022309E-18	2.604998E-18
5.840000E+03	7.988253E-18	2.593756E-18
5.850000E+03	7.953136E-18	2.582170E-18
5.860000E+03	7.916938E-18	2.570234E-18
5.870000E+03	7.879821E-18	2.558001E-18
5.880000E+03	7.841768E-18	2.545464E-18
5.890000E+03	7.803031E-18	2.532705E-18
5.900000E+03	7.763600E-18	2.519723E-18
5.910000E+03	7.723555E-18	2.506542E-18
5.920000E+03	7.683061E-18	2.493217E-18
5.930000E+03	7.642116E-18	2.479746E-18
5.940000E+03	7.600885E-18	2.466183E-18
5.950000E+03	7.559363E-18	2.452526E-18
5.960000E+03	7.517718E-18	2.438832E-18
5.970000E+03	7.476026E-18	2.425122E-18
5.980000E+03	7.434364E-18	2.411424E-18
5.990000E+03	7.392726E-18	2.397734E-18
6.000000E+03	7.351268E-18	2.384105E-18
6.010000E+03	7.310061E-18	2.370557E-18
6.020000E+03	7.269090E-18	2.357087E-18
6.030000E+03	7.228503E-18	2.343743E-18
6.040000E+03	7.188281E-18	2.330518E-18
6.050000E+03	7.148395E-18	2.317403E-18
6.060000E+03	7.109076E-18	2.304473E-18
6.070000E+03	7.070203E-18	2.291689E-18
6.080000E+03	7.031916E-18	2.279096E-18
6.090000E+03	6.994091E-18	2.266654E-18
6.100000E+03	6.956855E-18	2.254404E-18
6.110000E+03	6.920167E-18	2.242332E-18
6.120000E+03	6.884064E-18	2.230450E-18
6.130000E+03	6.848582E-18	2.218771E-18
6.140000E+03	6.813665E-18	2.207276E-18
6.150000E+03	6.779345E-18	2.195975E-18
6.160000E+03	6.745646E-18	2.184877E-18
6.170000E+03	6.712589E-18	2.173987E-18
6.180000E+03	6.680196E-18	2.163313E-18
6.190000E+03	6.648397E-18	2.152833E-18
6.200000E+03	6.617295E-18	2.142579E-18
6.210000E+03	6.586899E-18	2.132554E-18
6.220000E+03	6.557216E-18	2.122761E-18
6.230000E+03	6.528340E-18	2.113230E-18
6.240000E+03	6.500363E-18	2.103991E-18
6.250000E+03	6.473372E-18	2.095071E-18
6.260000E+03	6.447454E-18	2.086500E-18
6.270000E+03	6.422697E-18	2.078304E-18
6.280000E+03	6.399273E-18	2.070541E-18
6.290000E+03	6.377096E-18	2.063181E-18
6.300000E+03	6.356514E-18	2.056338E-18
6.310000E+03	6.337434E-18	2.049981E-18
6.320000E+03	6.320037E-18	2.044169E-18
6.330000E+03	6.304406E-18	2.038928E-18
6.340000E+03	6.290636E-18	2.034289E-18
6.350000E+03	6.278724E-18	2.030251E-18
6.360000E+03	6.268765E-18	2.026844E-18
6.370000E+03	6.260853E-18	2.024098E-18
6.380000E+03	6.254992E-18	2.022015E-18
6.390000E+03	6.251188E-18	2.020597E-18
6.400000E+03	6.249542E-18	2.019875E-18
6.410000E+03	6.249880E-18	2.019794E-18
6.420000E+03	6.252208E-18	2.020355E-18
6.430000E+03	6.256442E-18	2.021531E-18
6.440000E+03	6.262401E-18	2.023263E-18
6.450000E+03	6.270186E-18	2.025583E-18
6.460000E+03	6.279611E-18	2.028433E-18
6.470000E+03	6.290775E-18	2.031842E-18
6.480000E+03	6.303683E-18	2.035813E-18
6.490000E+03	6.318247E-18	2.040317E-18
6.500000E+03	6.334469E-18	2.045355E-18
6.510000E+03	6.352353E-18	2.050928E-18
6.520000E+03	6.371906E-18	2.057037E-18
6.530000E+03	6.393132E-18	2.063684E-18
6.540000E+03	6.416138E-18	2.070904E-18
6.550000E+03	6.440833E-18	2.078666E-18
6.560000E+03	6.467122E-18	2.086940E-18
6.570000E+03	6.495213E-18	2.095794E-18
6.580000E+03	6.524909E-18	2.105162E-18
6.590000E+03	6.556325E-18	2.115082E-18
6.600000E+03	6.589466E-18	2.125556E-18
6.610000E+03	6.624341E-18	2.136586E-18
6.620000E+03	6.660963E-18	2.148176E-18
6.630000E+03	6.699231E-18	2.160294E-18
6.640000E+03	6.739262E-18	2.172977E-18
6.650000E+03	6.780958E-18	2.186193E-18
6.660000E+03	6.824438E-18	2.199980E-18
6.670000E+03	6.869602E-18	2.214306E-18
6.680000E+03	6.916458E-18	2.229174E-18
6.690000E+03	6.965131E-18	2.244623E-18
6.700000E+03	7.015641E-18	2.260660E-18
6.710000E+03	7.067757E-18	2.277210E-18
6.720000E+03	7.121732E-18	2.294355E-18
6.730000E+03	7.177333E-18	2.312018E-18
6.740000E+03	7.234818E-18	2.330284E-18
6.750000E+03	7.294078E-18	2.349116E-18
6.760000E+03	7.354995E-18	2.368477E-18
6.770000E+03	7.417840E-18	2.388453E-18
6.780000E+03	7.482367E-18	2.408966E-18
6.790000E+03	7.548718E-18	2.430060E-18
6.800000E+03	7.616905E-18	2.451739E-18
6.810000E+03	7.686947E-18	2.474010E-18
6.820000E+03	7.758714E-18	2.496830E-18
6.830000E+03	7.832359E-18	2.520249E-18
6.840000E+03	7.907755E-18	2.544224E-18
6.850000E+03	7.985057E-18	2.568806E-18
6.860000E+03	8.064129E-18	2.593951E-18
6.870000E+03	8.144984E-18	2.619663E-18
6.880000E+03	8.227782E-18	2.645992E-18
6.890000E+03	8.312229E-18	2.672845E-18
6.900000E+03	8.398643E-18	2.700323E-18
6.910000E+03	8.486878E-18	2.728379E-18
6.920000E+03	8.576943E-18	2.757016E-18
6.930000E+03	8.668849E-18	2.786237E-18
6.940000E+03	8.762603E-18	2.816044E-18
6.950000E+03	8.858043E-18	2.846385E-18
6.960000E+03	8.955343E-18	2.877316E-18
6.970000E+03	9.054508E-18	2.908837E-18
6.980000E+03	9.155545E-18	2.940951E-18
6.990000E+03	9.258104E-18	2.973545E-18
7.000000E+03	9.362719E-18	3.006791E-18
7.010000E+03	9.468852E-18	3.040516E-18
7.020000E+03	9.576866E-18	3.074835E-18
7.030000E+03	9.686573E-18	3.109688E-18
7.040000E+03	9.797973E-18	3.145076E-18
7.050000E+03	9.911058E-18	3.180995E-18
7.060000E+03	1.002582E-17	3.217443E-18
7.070000E+03	1.014206E-17	3.254353E-18
7.080000E+03	1.025995E-17	3.291785E-18
7.090000E+03	1.037950E-17	3.329737E-18
7.100000E+03	1.050047E-17	3.368137E-18
7.110000E+03	1.062307E-17	3.407048E-18
7.120000E+03	1.074707E-17	3.446396E-18
7.130000E+03	1.087243E-17	3.486173E-18
7.140000E+03	1.099915E-17	3.526372E-18
7.150000E+03	1.112742E-17	3.567059E-18
7.160000E+03	1.125677E-17	3.608078E-18
7.170000E+03	1.138715E-17	3.649418E-18
7.180000E+03	1.151900E-17	3.691219E-18
7.190000E+03	1.165183E-17	3.733320E-18
7.200000E+03	1.178558E-17	3.775705E-18
7.210000E+03	1.192046E-17	3.818442E-18
7.220000E+03	1.205618E-17	3.861437E-18
7.230000E+03	1.219270E-17	3.904675E-18
7.240000E+03	1.232997E-17	3.948139E-18
7.250000E+03	1.246793E-17	3.991815E-18
7.260000E+03	1.260681E-17	4.035770E-18
7.270000E+03	1.274600E-17	4.079815E-18
7.280000E+03	1.288600E-17	4.124107E-18
7.290000E+03	1.302648E-17	4.168541E-18
7.300000E+03	1.316738E-17	4.213096E-18
7.310000E+03	1.330894E-17	4.257848E-18
7.320000E+03	1.345079E-17	4.302685E-18
7.330000E+03	1.359319E-17	4.347682E-18
7.340000E+03	1.373608E-17	4.392824E-18
7.350000E+03	1.387971E-17	4.438191E-18
7.360000E+03	1.402405E-17	4.483771E-18
7.370000E+03	1.416937E-17	4.529653E-18
7.380000E+03	1.431531E-17	4.575722E-18
7.390000E+03	1.446284E-17	4.622283E-18
7.400000E+03	1.461194E-17	4.669334E-18
7.410000E+03	1.476227E-17	4.716767E-18
7.420000E+03	1.491486E-17	4.764907E-18
7.430000E+03	1.506937E-17	4.813650E-18
7.440000E+03	1.522619E-17	4.863115E-18
7.450000E+03	1.538498E-17	4.913196E-18
7.460000E+03	1.554612E-17	4.964013E-18
7.470000E+03	1.570852E-17	5.015219E-18
7.480000E+03	1.587291E-17	5.067049E-18
7.490000E+03	1.603818E-17	5.119142E-18
7.500000E+03	1.620466E-17	5.171608E-18
7.510000E+03	1.637194E-17	5.224318E-18
7.520000E+03	1.653959E-17	5.277130E-18
7.530000E+03	1.670796E-17	5.330156E-18
7.540000E+03	1.687578E-17	5.382993E-18
7.550000E+03	1.704378E-17	5.435873E-18
7.560000E+03	1.721148E-17	5.488646E-18
7.570000E+03	1.737881E-17	5.541286E-18
7.580000E+03	1.754526E-17	5.593629E-18
7.590000E+03	1.771116E-17	5.645783E-18
7.600000E+03	1.787597E-17	5.697580E-18
7.610000E+03	1.803961E-17	5.748987E-18
7.620000E+03	1.820241E-17	5.800114E-18
7.630000E+03	1.836383E-17	5.850788E-18
7.640000E+03	1.852422E-17	5.901119E-18
7.650000E+03	1.868254E-17	5.950779E-18
7.660000E+03	1.883961E-17	6.000030E-18
7.670000E+03	1.899486E-17	6.048685E-18
7.680000E+03	1.914864E-17	6.096864E-18
7.690000E+03	1.930038E-17	6.144377E-18
7.700000E+03	1.944993E-17	6.191185E-18
7.710000E+03	1.959720E-17	6.237251E-18
7.720000E+03	1.974306E-17	6.282861E-18
7.730000E+03	1.988589E-17	6.327493E-18
7.740000E+03	2.002711E-17	6.371603E-18
7.750000E+03	2.016557E-17	6.414826E-18
7.760000E+03	2.030169E-17	6.457293E-18
