#wls	flux	fluxerr
1.600000E+03	1.250338E-16	9.204510E-18
1.640000E+03	1.291796E-16	9.509561E-18
1.680000E+03	1.331940E-16	9.804922E-18
1.720000E+03	1.370161E-16	1.008612E-17
1.760000E+03	1.406340E-16	1.035227E-17
1.800000E+03	1.439795E-16	1.059836E-17
1.840000E+03	1.470079E-16	1.082109E-17
1.880000E+03	1.496973E-16	1.101886E-17
1.920000E+03	1.519733E-16	1.118619E-17
1.960000E+03	1.537992E-16	1.132037E-17
2.000000E+03	1.551150E-16	1.141701E-17
2.040000E+03	1.558864E-16	1.147356E-17
2.080000E+03	1.560400E-16	1.148464E-17
2.120000E+03	1.555237E-16	1.144641E-17
2.160000E+03	1.542881E-16	1.135523E-17
2.200000E+03	1.522547E-16	1.120535E-17
2.240000E+03	1.493658E-16	1.099250E-17
2.280000E+03	1.456278E-16	1.071717E-17
2.320000E+03	1.411003E-16	1.038374E-17
2.360000E+03	1.359321E-16	1.000318E-17
2.400000E+03	1.302466E-16	9.584569E-18
2.440000E+03	1.241530E-16	9.135940E-18
2.480000E+03	1.177629E-16	8.665507E-18
2.520000E+03	1.111481E-16	8.178561E-18
2.560000E+03	1.043889E-16	7.681006E-18
2.600000E+03	9.755355E-17	7.177875E-18
2.640000E+03	9.071204E-17	6.674312E-18
2.680000E+03	8.392160E-17	6.174530E-18
2.720000E+03	7.723883E-17	5.682693E-18
2.760000E+03	7.071586E-17	5.202636E-18
2.800000E+03	6.440033E-17	4.737865E-18
2.840000E+03	5.833657E-17	4.291639E-18
2.880000E+03	5.256673E-17	3.867059E-18
2.920000E+03	4.712742E-17	3.466817E-18
2.960000E+03	4.204955E-17	3.093183E-18
3.000000E+03	3.735490E-17	2.747760E-18
3.010000E+03	3.624370E-17	2.666002E-18
3.020000E+03	3.515648E-17	2.586009E-18
3.030000E+03	3.409472E-17	2.507890E-18
3.040000E+03	3.305748E-17	2.431576E-18
3.050000E+03	3.204532E-17	2.357107E-18
3.060000E+03	3.105869E-17	2.284518E-18
3.070000E+03	3.009603E-17	2.213692E-18
3.080000E+03	2.915901E-17	2.144754E-18
3.090000E+03	2.824613E-17	2.077592E-18
3.100000E+03	2.735831E-17	2.012274E-18
3.110000E+03	2.649465E-17	1.948734E-18
3.120000E+03	2.565494E-17	1.886957E-18
3.130000E+03	2.483987E-17	1.826993E-18
3.140000E+03	2.404820E-17	1.768751E-18
3.150000E+03	2.328096E-17	1.712307E-18
3.160000E+03	2.253653E-17	1.657541E-18
3.170000E+03	2.181586E-17	1.604524E-18
3.180000E+03	2.111783E-17	1.553171E-18
3.190000E+03	2.044284E-17	1.503515E-18
3.200000E+03	1.979017E-17	1.455502E-18
3.210000E+03	1.915981E-17	1.409129E-18
3.220000E+03	1.855137E-17	1.364369E-18
3.230000E+03	1.796443E-17	1.321192E-18
3.240000E+03	1.739832E-17	1.279547E-18
3.250000E+03	1.685321E-17	1.239447E-18
3.260000E+03	1.632836E-17	1.200838E-18
3.270000E+03	1.582361E-17	1.163707E-18
3.280000E+03	1.533822E-17	1.128002E-18
3.290000E+03	1.487177E-17	1.093689E-18
3.300000E+03	1.442401E-17	1.060751E-18
3.310000E+03	1.399422E-17	1.029135E-18
3.320000E+03	1.358214E-17	9.988227E-19
3.330000E+03	1.318726E-17	9.697751E-19
3.340000E+03	1.280872E-17	9.419297E-19
3.350000E+03	1.244639E-17	9.152769E-19
3.360000E+03	1.209962E-17	8.897688E-19
3.370000E+03	1.176793E-17	8.653695E-19
3.380000E+03	1.145082E-17	8.420438E-19
3.390000E+03	1.114755E-17	8.197357E-19
3.400000E+03	1.085796E-17	7.984335E-19
3.410000E+03	1.058145E-17	7.780941E-19
3.420000E+03	1.031747E-17	7.586761E-19
3.430000E+03	1.006560E-17	7.401485E-19
3.440000E+03	9.825433E-18	7.224822E-19
3.450000E+03	9.596341E-18	7.056305E-19
3.460000E+03	9.378076E-18	6.895753E-19
3.470000E+03	9.170067E-18	6.742743E-19
3.480000E+03	8.971974E-18	6.597028E-19
3.490000E+03	8.783377E-18	6.458297E-19
3.500000E+03	8.603878E-18	6.326258E-19
3.510000E+03	8.433099E-18	6.200632E-19
3.520000E+03	8.270679E-18	6.081156E-19
3.530000E+03	8.116193E-18	5.967514E-19
3.540000E+03	7.969241E-18	5.859414E-19
3.550000E+03	7.829535E-18	5.756643E-19
3.560000E+03	7.696719E-18	5.658940E-19
3.570000E+03	7.570539E-18	5.566117E-19
3.580000E+03	7.450600E-18	5.477885E-19
3.590000E+03	7.336683E-18	5.394081E-19
3.600000E+03	7.228506E-18	5.314500E-19
3.610000E+03	7.125948E-18	5.239050E-19
3.620000E+03	7.028678E-18	5.167490E-19
3.630000E+03	6.936523E-18	5.099691E-19
3.640000E+03	6.849118E-18	5.035385E-19
3.650000E+03	6.766317E-18	4.974466E-19
3.660000E+03	6.687915E-18	4.916781E-19
3.670000E+03	6.613716E-18	4.862188E-19
3.680000E+03	6.543595E-18	4.810593E-19
3.690000E+03	6.477429E-18	4.761907E-19
3.700000E+03	6.415039E-18	4.715997E-19
3.710000E+03	6.356369E-18	4.672823E-19
3.720000E+03	6.301248E-18	4.632259E-19
3.730000E+03	6.249678E-18	4.594305E-19
3.740000E+03	6.201546E-18	4.558880E-19
3.750000E+03	6.156742E-18	4.525901E-19
3.760000E+03	6.115211E-18	4.495330E-19
3.770000E+03	6.076951E-18	4.467163E-19
3.780000E+03	6.041853E-18	4.441321E-19
3.790000E+03	6.009911E-18	4.417800E-19
3.800000E+03	5.981021E-18	4.396522E-19
3.810000E+03	5.955126E-18	4.377446E-19
3.820000E+03	5.932223E-18	4.360570E-19
3.830000E+03	5.912307E-18	4.345890E-19
3.840000E+03	5.895274E-18	4.333329E-19
3.850000E+03	5.881169E-18	4.322920E-19
3.860000E+03	5.869840E-18	4.314552E-19
3.870000E+03	5.861380E-18	4.308293E-19
3.880000E+03	5.855640E-18	4.304033E-19
3.890000E+03	5.852711E-18	4.301840E-19
3.900000E+03	5.852492E-18	4.301638E-19
3.910000E+03	5.854979E-18	4.303426E-19
3.920000E+03	5.860120E-18	4.307163E-19
3.930000E+03	5.867908E-18	4.312846E-19
3.940000E+03	5.878293E-18	4.320438E-19
3.950000E+03	5.891315E-18	4.329968E-19
3.960000E+03	5.906876E-18	4.341364E-19
3.970000E+03	5.924972E-18	4.354623E-19
3.980000E+03	5.945550E-18	4.369705E-19
3.990000E+03	5.968653E-18	4.386643E-19
4.000000E+03	5.994231E-18	4.405399E-19
4.010000E+03	6.022233E-18	4.425936E-19
4.020000E+03	6.052607E-18	4.448217E-19
4.030000E+03	6.085400E-18	4.472275E-19
4.040000E+03	6.120515E-18	4.498039E-19
4.050000E+03	6.157999E-18	4.525543E-19
4.060000E+03	6.197756E-18	4.554717E-19
4.070000E+03	6.239787E-18	4.585562E-19
4.080000E+03	6.284096E-18	4.618080E-19
4.090000E+03	6.330636E-18	4.652237E-19
4.100000E+03	6.379362E-18	4.688000E-19
4.110000E+03	6.430230E-18	4.725336E-19
4.120000E+03	6.483295E-18	4.764286E-19
4.130000E+03	6.538466E-18	4.804783E-19
4.140000E+03	6.595749E-18	4.846831E-19
4.150000E+03	6.655049E-18	4.890360E-19
4.160000E+03	6.716376E-18	4.935378E-19
4.170000E+03	6.779738E-18	4.981891E-19
4.180000E+03	6.845042E-18	5.029830E-19
4.190000E+03	6.912299E-18	5.079202E-19
4.200000E+03	6.981409E-18	5.129936E-19
4.210000E+03	7.052384E-18	5.182039E-19
4.220000E+03	7.125125E-18	5.235439E-19
4.230000E+03	7.199642E-18	5.290142E-19
4.240000E+03	7.275831E-18	5.346074E-19
4.250000E+03	7.353645E-18	5.403198E-19
4.260000E+03	7.432973E-18	5.461433E-19
4.270000E+03	7.513822E-18	5.520786E-19
4.280000E+03	7.596078E-18	5.581170E-19
4.290000E+03	7.679681E-18	5.642544E-19
4.300000E+03	7.764508E-18	5.704815E-19
4.310000E+03	7.850431E-18	5.767891E-19
4.320000E+03	7.937375E-18	5.831716E-19
4.330000E+03	8.025267E-18	5.896236E-19
4.340000E+03	8.113959E-18	5.961343E-19
4.350000E+03	8.203366E-18	6.026973E-19
4.360000E+03	8.293329E-18	6.093012E-19
4.370000E+03	8.383819E-18	6.159436E-19
4.380000E+03	8.474737E-18	6.226173E-19
4.390000E+03	8.566187E-18	6.293301E-19
4.400000E+03	8.658072E-18	6.360747E-19
4.410000E+03	8.750434E-18	6.428542E-19
4.420000E+03	8.843248E-18	6.496667E-19
4.430000E+03	8.936636E-18	6.565213E-19
4.440000E+03	9.030507E-18	6.634113E-19
4.450000E+03	9.124841E-18	6.703353E-19
4.460000E+03	9.219698E-18	6.772975E-19
4.470000E+03	9.315070E-18	6.842974E-19
4.480000E+03	9.410946E-18	6.913342E-19
4.490000E+03	9.507244E-18	6.984020E-19
4.500000E+03	9.604028E-18	7.055053E-19
4.510000E+03	9.701226E-18	7.126389E-19
4.520000E+03	9.798827E-18	7.198020E-19
4.530000E+03	9.896840E-18	7.269953E-19
4.540000E+03	9.995092E-18	7.342060E-19
4.550000E+03	1.009368E-17	7.414414E-19
4.560000E+03	1.019253E-17	7.486956E-19
4.570000E+03	1.029165E-17	7.559699E-19
4.580000E+03	1.039088E-17	7.632521E-19
4.590000E+03	1.049035E-17	7.705510E-19
4.600000E+03	1.058986E-17	7.778538E-19
4.610000E+03	1.068956E-17	7.851699E-19
4.620000E+03	1.078929E-17	7.924885E-19
4.630000E+03	1.088910E-17	7.998123E-19
4.640000E+03	1.098893E-17	8.071379E-19
4.650000E+03	1.108893E-17	8.144756E-19
4.660000E+03	1.118897E-17	8.218164E-19
4.670000E+03	1.128922E-17	8.291719E-19
4.680000E+03	1.138963E-17	8.365400E-19
4.690000E+03	1.149022E-17	8.439200E-19
4.700000E+03	1.159114E-17	8.513249E-19
4.710000E+03	1.169230E-17	8.587471E-19
4.720000E+03	1.179379E-17	8.661934E-19
4.730000E+03	1.189551E-17	8.736571E-19
4.740000E+03	1.199756E-17	8.811442E-19
4.750000E+03	1.209975E-17	8.886412E-19
4.760000E+03	1.220215E-17	8.961543E-19
4.770000E+03	1.230469E-17	9.036772E-19
4.780000E+03	1.240747E-17	9.112175E-19
4.790000E+03	1.251040E-17	9.187684E-19
4.800000E+03	1.261347E-17	9.263299E-19
4.810000E+03	1.271670E-17	9.339027E-19
4.820000E+03	1.282009E-17	9.414874E-19
4.830000E+03	1.292365E-17	9.490847E-19
4.840000E+03	1.302727E-17	9.566859E-19
4.850000E+03	1.313107E-17	9.643003E-19
4.860000E+03	1.323507E-17	9.719287E-19
4.870000E+03	1.333913E-17	9.795624E-19
4.880000E+03	1.344327E-17	9.872011E-19
4.890000E+03	1.354761E-17	9.948546E-19
4.900000E+03	1.365190E-17	1.002504E-18
4.910000E+03	1.375636E-17	1.010166E-18
4.920000E+03	1.386089E-17	1.017833E-18
4.930000E+03	1.396533E-17	1.025493E-18
4.940000E+03	1.406978E-17	1.033154E-18
4.950000E+03	1.417422E-17	1.040814E-18
4.960000E+03	1.427848E-17	1.048460E-18
4.970000E+03	1.438265E-17	1.056101E-18
4.980000E+03	1.448641E-17	1.063710E-18
4.990000E+03	1.458996E-17	1.071304E-18
5.000000E+03	1.469311E-17	1.078868E-18
5.010000E+03	1.479562E-17	1.086385E-18
5.020000E+03	1.489754E-17	1.093860E-18
5.030000E+03	1.499865E-17	1.101274E-18
5.040000E+03	1.509883E-17	1.108619E-18
5.050000E+03	1.519794E-17	1.115887E-18
5.060000E+03	1.529587E-17	1.123067E-18
5.070000E+03	1.539231E-17	1.130138E-18
5.080000E+03	1.548730E-17	1.137102E-18
5.090000E+03	1.558050E-17	1.143934E-18
5.100000E+03	1.567176E-17	1.150625E-18
5.110000E+03	1.576077E-17	1.157149E-18
5.120000E+03	1.584749E-17	1.163506E-18
5.130000E+03	1.593145E-17	1.169660E-18
5.140000E+03	1.601279E-17	1.175620E-18
5.150000E+03	1.609099E-17	1.181351E-18
5.160000E+03	1.616604E-17	1.186850E-18
5.170000E+03	1.623758E-17	1.192091E-18
5.180000E+03	1.630529E-17	1.197052E-18
5.190000E+03	1.636912E-17	1.201726E-18
5.200000E+03	1.642872E-17	1.206091E-18
5.210000E+03	1.648390E-17	1.210130E-18
5.220000E+03	1.653445E-17	1.213831E-18
5.230000E+03	1.658003E-17	1.217165E-18
5.240000E+03	1.662042E-17	1.220119E-18
5.250000E+03	1.665526E-17	1.222665E-18
5.260000E+03	1.668452E-17	1.224802E-18
5.270000E+03	1.670784E-17	1.226503E-18
5.280000E+03	1.672502E-17	1.227752E-18
5.290000E+03	1.673587E-17	1.228537E-18
5.300000E+03	1.674004E-17	1.228832E-18
5.310000E+03	1.673737E-17	1.228624E-18
5.320000E+03	1.672770E-17	1.227903E-18
5.330000E+03	1.671090E-17	1.226658E-18
5.340000E+03	1.668669E-17	1.224869E-18
5.350000E+03	1.665515E-17	1.222542E-18
5.360000E+03	1.661622E-17	1.219673E-18
5.370000E+03	1.656989E-17	1.216260E-18
5.380000E+03	1.651602E-17	1.212294E-18
5.390000E+03	1.645499E-17	1.207803E-18
5.400000E+03	1.638675E-17	1.202783E-18
5.410000E+03	1.631180E-17	1.197270E-18
5.420000E+03	1.623018E-17	1.191267E-18
5.430000E+03	1.614232E-17	1.184808E-18
5.440000E+03	1.604853E-17	1.177912E-18
5.450000E+03	1.594950E-17	1.170632E-18
5.460000E+03	1.584549E-17	1.162986E-18
5.470000E+03	1.573679E-17	1.154997E-18
5.480000E+03	1.562361E-17	1.146679E-18
5.490000E+03	1.550651E-17	1.138073E-18
5.500000E+03	1.538575E-17	1.129199E-18
5.510000E+03	1.526183E-17	1.120093E-18
5.520000E+03	1.513523E-17	1.110791E-18
5.530000E+03	1.500649E-17	1.101332E-18
5.540000E+03	1.487614E-17	1.091754E-18
5.550000E+03	1.474486E-17	1.082109E-18
5.560000E+03	1.461322E-17	1.072437E-18
5.570000E+03	1.448201E-17	1.062797E-18
5.580000E+03	1.435162E-17	1.053217E-18
5.590000E+03	1.422296E-17	1.043765E-18
5.600000E+03	1.409634E-17	1.034462E-18
5.610000E+03	1.397248E-17	1.025362E-18
5.620000E+03	1.385204E-17	1.016513E-18
5.630000E+03	1.373519E-17	1.007928E-18
5.640000E+03	1.362281E-17	9.996707E-19
5.650000E+03	1.351510E-17	9.917567E-19
5.660000E+03	1.341227E-17	9.842009E-19
5.670000E+03	1.331500E-17	9.770531E-19
5.680000E+03	1.322325E-17	9.703100E-19
5.690000E+03	1.313733E-17	9.639958E-19
5.700000E+03	1.305754E-17	9.581307E-19
5.710000E+03	1.298398E-17	9.527227E-19
5.720000E+03	1.291672E-17	9.477780E-19
5.730000E+03	1.285583E-17	9.432999E-19
5.740000E+03	1.280147E-17	9.393012E-19
5.750000E+03	1.275379E-17	9.357932E-19
5.760000E+03	1.271254E-17	9.327565E-19
5.770000E+03	1.267812E-17	9.302214E-19
5.780000E+03	1.265028E-17	9.281689E-19
5.790000E+03	1.262929E-17	9.266186E-19
5.800000E+03	1.261501E-17	9.255610E-19
5.810000E+03	1.260759E-17	9.250069E-19
5.820000E+03	1.260706E-17	9.249583E-19
5.830000E+03	1.261357E-17	9.254259E-19
5.840000E+03	1.262701E-17	9.264017E-19
5.850000E+03	1.264740E-17	9.278876E-19
5.860000E+03	1.267490E-17	9.298951E-19
5.870000E+03	1.270968E-17	9.324370E-19
5.880000E+03	1.275149E-17	9.354943E-19
5.890000E+03	1.280064E-17	9.390893E-19
5.900000E+03	1.285697E-17	9.432118E-19
5.910000E+03	1.292065E-17	9.478734E-19
5.920000E+03	1.299167E-17	9.530732E-19
5.930000E+03	1.306990E-17	9.588012E-19
5.940000E+03	1.315543E-17	9.650653E-19
5.950000E+03	1.324823E-17	9.718624E-19
5.960000E+03	1.334811E-17	9.791787E-19
5.970000E+03	1.345528E-17	9.870292E-19
5.980000E+03	1.356936E-17	9.953868E-19
5.990000E+03	1.369038E-17	1.004253E-18
6.000000E+03	1.381821E-17	1.013619E-18
6.010000E+03	1.395253E-17	1.023461E-18
6.020000E+03	1.409332E-17	1.033777E-18
6.030000E+03	1.424004E-17	1.044527E-18
6.040000E+03	1.439277E-17	1.055719E-18
6.050000E+03	1.455093E-17	1.067308E-18
6.060000E+03	1.471439E-17	1.079285E-18
6.070000E+03	1.488262E-17	1.091613E-18
6.080000E+03	1.505529E-17	1.104265E-18
6.090000E+03	1.523183E-17	1.117202E-18
6.100000E+03	1.541163E-17	1.130377E-18
6.110000E+03	1.559444E-17	1.143772E-18
6.120000E+03	1.577922E-17	1.157312E-18
6.130000E+03	1.596567E-17	1.170974E-18
6.140000E+03	1.615291E-17	1.184693E-18
6.150000E+03	1.634039E-17	1.198430E-18
6.160000E+03	1.652682E-17	1.212090E-18
6.170000E+03	1.671185E-17	1.225646E-18
6.180000E+03	1.689436E-17	1.239017E-18
6.190000E+03	1.707363E-17	1.252151E-18
6.200000E+03	1.724873E-17	1.264979E-18
6.210000E+03	1.741966E-17	1.277500E-18
6.220000E+03	1.758671E-17	1.289736E-18
6.230000E+03	1.775020E-17	1.301711E-18
6.240000E+03	1.791059E-17	1.313459E-18
6.250000E+03	1.806772E-17	1.324966E-18
6.260000E+03	1.822259E-17	1.336308E-18
6.270000E+03	1.837490E-17	1.347463E-18
6.280000E+03	1.852534E-17	1.358480E-18
6.290000E+03	1.867440E-17	1.369395E-18
6.300000E+03	1.882184E-17	1.380191E-18
6.310000E+03	1.896822E-17	1.390909E-18
6.320000E+03	1.911386E-17	1.401574E-18
6.330000E+03	1.925910E-17	1.412208E-18
6.340000E+03	1.940379E-17	1.422802E-18
6.350000E+03	1.954828E-17	1.433380E-18
6.360000E+03	1.969269E-17	1.443953E-18
6.370000E+03	1.983713E-17	1.454528E-18
6.380000E+03	1.998145E-17	1.465093E-18
6.390000E+03	2.012545E-17	1.475636E-18
6.400000E+03	2.026897E-17	1.486142E-18
6.410000E+03	2.041208E-17	1.496618E-18
6.420000E+03	2.055459E-17	1.507050E-18
6.430000E+03	2.069567E-17	1.517378E-18
6.440000E+03	2.083628E-17	1.527670E-18
6.450000E+03	2.097651E-17	1.537934E-18
6.460000E+03	2.111673E-17	1.548197E-18
6.470000E+03	2.125769E-17	1.558514E-18
6.480000E+03	2.139917E-17	1.568869E-18
6.490000E+03	2.154190E-17	1.579316E-18
6.500000E+03	2.168602E-17	1.589864E-18
6.510000E+03	2.183197E-17	1.600546E-18
6.520000E+03	2.197919E-17	1.611322E-18
6.530000E+03	2.212883E-17	1.622274E-18
6.540000E+03	2.228031E-17	1.633361E-18
6.550000E+03	2.243408E-17	1.644616E-18
6.560000E+03	2.259027E-17	1.656048E-18
6.570000E+03	2.274862E-17	1.667637E-18
6.580000E+03	2.290959E-17	1.679419E-18
6.590000E+03	2.307330E-17	1.691401E-18
6.600000E+03	2.323946E-17	1.703563E-18
6.610000E+03	2.340816E-17	1.715911E-18
6.620000E+03	2.357950E-17	1.728451E-18
6.630000E+03	2.375393E-17	1.741219E-18
6.640000E+03	2.393078E-17	1.754163E-18
6.650000E+03	2.411049E-17	1.767317E-18
6.660000E+03	2.429314E-17	1.780685E-18
6.670000E+03	2.447838E-17	1.794243E-18
6.680000E+03	2.466668E-17	1.808026E-18
6.690000E+03	2.485768E-17	1.822006E-18
6.700000E+03	2.505186E-17	1.836219E-18
6.710000E+03	2.524839E-17	1.850604E-18
6.720000E+03	2.544776E-17	1.865197E-18
6.730000E+03	2.565045E-17	1.880032E-18
6.740000E+03	2.585560E-17	1.895048E-18
6.750000E+03	2.606372E-17	1.910281E-18
6.760000E+03	2.627436E-17	1.925699E-18
6.770000E+03	2.648804E-17	1.941339E-18
6.780000E+03	2.670433E-17	1.957170E-18
6.790000E+03	2.692324E-17	1.973193E-18
6.800000E+03	2.714530E-17	1.989446E-18
6.810000E+03	2.736956E-17	2.005860E-18
6.820000E+03	2.759703E-17	2.022509E-18
6.830000E+03	2.782673E-17	2.039322E-18
6.840000E+03	2.805969E-17	2.056372E-18
6.850000E+03	2.829487E-17	2.073586E-18
6.860000E+03	2.853228E-17	2.090963E-18
6.870000E+03	2.877242E-17	2.108538E-18
6.880000E+03	2.901526E-17	2.126312E-18
6.890000E+03	2.925969E-17	2.144202E-18
6.900000E+03	2.950673E-17	2.162283E-18
6.910000E+03	2.975577E-17	2.180510E-18
6.920000E+03	3.000731E-17	2.198920E-18
6.930000E+03	3.026012E-17	2.217423E-18
6.940000E+03	3.051469E-17	2.236054E-18
6.950000E+03	3.077090E-17	2.254805E-18
6.960000E+03	3.102804E-17	2.273625E-18
6.970000E+03	3.128661E-17	2.292549E-18
6.980000E+03	3.154648E-17	2.311567E-18
6.990000E+03	3.180693E-17	2.330627E-18
7.000000E+03	3.206781E-17	2.349719E-18
7.010000E+03	3.232901E-17	2.368835E-18
7.020000E+03	3.259103E-17	2.388010E-18
7.030000E+03	3.285250E-17	2.407144E-18
7.040000E+03	3.311458E-17	2.426323E-18
7.050000E+03	3.337587E-17	2.445443E-18
7.060000E+03	3.363693E-17	2.464547E-18
7.070000E+03	3.389700E-17	2.483577E-18
7.080000E+03	3.415667E-17	2.502579E-18
7.090000E+03	3.441587E-17	2.521545E-18
7.100000E+03	3.467387E-17	2.540424E-18
7.110000E+03	3.492990E-17	2.559157E-18
7.120000E+03	3.518529E-17	2.577844E-18
7.130000E+03	3.543935E-17	2.596433E-18
7.140000E+03	3.569203E-17	2.614920E-18
7.150000E+03	3.594332E-17	2.633306E-18
7.160000E+03	3.619247E-17	2.651534E-18
7.170000E+03	3.644019E-17	2.669659E-18
7.180000E+03	3.668575E-17	2.687624E-18
7.190000E+03	3.692914E-17	2.705430E-18
7.200000E+03	3.717113E-17	2.723133E-18
7.210000E+03	3.741094E-17	2.740677E-18
7.220000E+03	3.764935E-17	2.758118E-18
7.230000E+03	3.788480E-17	2.775342E-18
7.240000E+03	3.811803E-17	2.792403E-18
7.250000E+03	3.834901E-17	2.809300E-18
7.260000E+03	3.857773E-17	2.826030E-18
7.270000E+03	3.880411E-17	2.842589E-18
7.280000E+03	3.902809E-17	2.858973E-18
7.290000E+03	3.924876E-17	2.875113E-18
7.300000E+03	3.946686E-17	2.891066E-18
7.310000E+03	3.968229E-17	2.906822E-18
7.320000E+03	3.989494E-17	2.922376E-18
7.330000E+03	4.010383E-17	2.937654E-18
7.340000E+03	4.030972E-17	2.952712E-18
7.350000E+03	4.051338E-17	2.967606E-18
7.360000E+03	4.071293E-17	2.982200E-18
7.370000E+03	4.090917E-17	2.996551E-18
7.380000E+03	4.110201E-17	3.010654E-18
7.390000E+03	4.129231E-17	3.024570E-18
7.400000E+03	4.147909E-17	3.038229E-18
7.410000E+03	4.166329E-17	3.051698E-18
7.420000E+03	4.184585E-17	3.065048E-18
7.430000E+03	4.202587E-17	3.078212E-18
7.440000E+03	4.220534E-17	3.091335E-18
7.450000E+03	4.238245E-17	3.104286E-18
7.460000E+03	4.255827E-17	3.117143E-18
7.470000E+03	4.273195E-17	3.129843E-18
7.480000E+03	4.290462E-17	3.142469E-18
7.490000E+03	4.307445E-17	3.154887E-18
7.500000E+03	4.324255E-17	3.167179E-18
7.510000E+03	4.340905E-17	3.179355E-18
7.520000E+03	4.357307E-17	3.191348E-18
7.530000E+03	4.373672E-17	3.203315E-18
7.540000E+03	4.389807E-17	3.215113E-18
7.550000E+03	4.405820E-17	3.226823E-18
7.560000E+03	4.421615E-17	3.238372E-18
7.570000E+03	4.437298E-17	3.249841E-18
7.580000E+03	4.452772E-17	3.261157E-18
7.590000E+03	4.468145E-17	3.272398E-18
7.600000E+03	4.483311E-17	3.283489E-18
7.610000E+03	4.498271E-17	3.294429E-18
7.620000E+03	4.513132E-17	3.305296E-18
7.630000E+03	4.527783E-17	3.316011E-18
7.640000E+03	4.542218E-17	3.326567E-18
7.650000E+03	4.556544E-17	3.337044E-18
7.660000E+03	4.570640E-17	3.347353E-18
7.670000E+03	4.584609E-17	3.357569E-18
7.680000E+03	4.598212E-17	3.367517E-18
7.690000E+03	4.611663E-17	3.377355E-18
7.700000E+03	4.624947E-17	3.387070E-18
7.710000E+03	4.637932E-17	3.396567E-18
7.720000E+03	4.650715E-17	3.405916E-18
7.730000E+03	4.663162E-17	3.415019E-18
7.740000E+03	4.675249E-17	3.423859E-18
7.750000E+03	4.687071E-17	3.432506E-18
7.760000E+03	4.698605E-17	3.440942E-18
