#wls	flux	fluxerr
1.600000E+03	2.982735E-16	8.234462E-17
1.640000E+03	3.069804E-16	8.474728E-17
1.680000E+03	3.151187E-16	8.699284E-17
1.720000E+03	3.226248E-16	8.906374E-17
1.760000E+03	3.293025E-16	9.090577E-17
1.800000E+03	3.351372E-16	9.251497E-17
1.840000E+03	3.399252E-16	9.383504E-17
1.880000E+03	3.436150E-16	9.485182E-17
1.920000E+03	3.460940E-16	9.553425E-17
1.960000E+03	3.472004E-16	9.583763E-17
2.000000E+03	3.468946E-16	9.575106E-17
2.040000E+03	3.450662E-16	9.524414E-17
2.080000E+03	3.416291E-16	9.429306E-17
2.120000E+03	3.365238E-16	9.288150E-17
2.160000E+03	3.296827E-16	9.099080E-17
2.200000E+03	3.210067E-16	8.859365E-17
2.240000E+03	3.104163E-16	8.566818E-17
2.280000E+03	2.979739E-16	8.223165E-17
2.320000E+03	2.839353E-16	7.835474E-17
2.360000E+03	2.687273E-16	7.415524E-17
2.400000E+03	2.526919E-16	6.972762E-17
2.440000E+03	2.361383E-16	6.515723E-17
2.480000E+03	2.192925E-16	6.050646E-17
2.520000E+03	2.023884E-16	5.583990E-17
2.560000E+03	1.856155E-16	5.120984E-17
2.600000E+03	1.691663E-16	4.666938E-17
2.640000E+03	1.531949E-16	4.226108E-17
2.680000E+03	1.378425E-16	3.802389E-17
2.720000E+03	1.232334E-16	3.399210E-17
2.760000E+03	1.094614E-16	3.019155E-17
2.800000E+03	9.660439E-17	2.664374E-17
2.840000E+03	8.471844E-17	2.336410E-17
2.880000E+03	7.384350E-17	2.036362E-17
2.920000E+03	6.400197E-17	1.764844E-17
2.960000E+03	5.519393E-17	1.521856E-17
3.000000E+03	4.739892E-17	1.306828E-17
3.010000E+03	4.560385E-17	1.257312E-17
3.020000E+03	4.386777E-17	1.209425E-17
3.030000E+03	4.219146E-17	1.163187E-17
3.040000E+03	4.057167E-17	1.118509E-17
3.050000E+03	3.900900E-17	1.075406E-17
3.060000E+03	3.750201E-17	1.033841E-17
3.070000E+03	3.605007E-17	9.937942E-18
3.080000E+03	3.465024E-17	9.551854E-18
3.090000E+03	3.330331E-17	9.180364E-18
3.100000E+03	3.200643E-17	8.822683E-18
3.110000E+03	3.075952E-17	8.478790E-18
3.120000E+03	2.956104E-17	8.148259E-18
3.130000E+03	2.840900E-17	7.830540E-18
3.140000E+03	2.730308E-17	7.525546E-18
3.150000E+03	2.624129E-17	7.232727E-18
3.160000E+03	2.522274E-17	6.951834E-18
3.170000E+03	2.424601E-17	6.682481E-18
3.180000E+03	2.330971E-17	6.424281E-18
3.190000E+03	2.241288E-17	6.176970E-18
3.200000E+03	2.155418E-17	5.940176E-18
3.210000E+03	2.073189E-17	5.713428E-18
3.220000E+03	1.994547E-17	5.496572E-18
3.230000E+03	1.919327E-17	5.289155E-18
3.240000E+03	1.847436E-17	5.090921E-18
3.250000E+03	1.778750E-17	4.901527E-18
3.260000E+03	1.713123E-17	4.720570E-18
3.270000E+03	1.650492E-17	4.547877E-18
3.280000E+03	1.590691E-17	4.382987E-18
3.290000E+03	1.533659E-17	4.225736E-18
3.300000E+03	1.479286E-17	4.075817E-18
3.310000E+03	1.427422E-17	3.932816E-18
3.320000E+03	1.378009E-17	3.796576E-18
3.330000E+03	1.330946E-17	3.666817E-18
3.340000E+03	1.286117E-17	3.543219E-18
3.350000E+03	1.243431E-17	3.425527E-18
3.360000E+03	1.202797E-17	3.313497E-18
3.370000E+03	1.164131E-17	3.206891E-18
3.380000E+03	1.127349E-17	3.105480E-18
3.390000E+03	1.092370E-17	3.009042E-18
3.400000E+03	1.059104E-17	2.917326E-18
3.410000E+03	1.027464E-17	2.830094E-18
3.420000E+03	9.974078E-18	2.747228E-18
3.430000E+03	9.688296E-18	2.668436E-18
3.440000E+03	9.416791E-18	2.593581E-18
3.450000E+03	9.158841E-18	2.522462E-18
3.460000E+03	8.913875E-18	2.454923E-18
3.470000E+03	8.681140E-18	2.390756E-18
3.480000E+03	8.460029E-18	2.329793E-18
3.490000E+03	8.250073E-18	2.271904E-18
3.500000E+03	8.050633E-18	2.216915E-18
3.510000E+03	7.861293E-18	2.164709E-18
3.520000E+03	7.681315E-18	2.115084E-18
3.530000E+03	7.510348E-18	2.067942E-18
3.540000E+03	7.347821E-18	2.023127E-18
3.550000E+03	7.193278E-18	1.980512E-18
3.560000E+03	7.046298E-18	1.939982E-18
3.570000E+03	6.906342E-18	1.901387E-18
3.580000E+03	6.773190E-18	1.864668E-18
3.590000E+03	6.646425E-18	1.829708E-18
3.600000E+03	6.525662E-18	1.796403E-18
3.610000E+03	6.410727E-18	1.764704E-18
3.620000E+03	6.301208E-18	1.734497E-18
3.630000E+03	6.196839E-18	1.705709E-18
3.640000E+03	6.097370E-18	1.678271E-18
3.650000E+03	6.002561E-18	1.652118E-18
3.660000E+03	5.912186E-18	1.627186E-18
3.670000E+03	5.826029E-18	1.603416E-18
3.680000E+03	5.743937E-18	1.580766E-18
3.690000E+03	5.665760E-18	1.559195E-18
3.700000E+03	5.591303E-18	1.538648E-18
3.710000E+03	5.520569E-18	1.519127E-18
3.720000E+03	5.453324E-18	1.500567E-18
3.730000E+03	5.389524E-18	1.482955E-18
3.740000E+03	5.329034E-18	1.466255E-18
3.750000E+03	5.271766E-18	1.450443E-18
3.760000E+03	5.217720E-18	1.435517E-18
3.770000E+03	5.166675E-18	1.421418E-18
3.780000E+03	5.118635E-18	1.408146E-18
3.790000E+03	5.073552E-18	1.395688E-18
3.800000E+03	5.031257E-18	1.383998E-18
3.810000E+03	4.991750E-18	1.373075E-18
3.820000E+03	4.954987E-18	1.362907E-18
3.830000E+03	4.920841E-18	1.353460E-18
3.840000E+03	4.889234E-18	1.344710E-18
3.850000E+03	4.860202E-18	1.336670E-18
3.860000E+03	4.833585E-18	1.329293E-18
3.870000E+03	4.809382E-18	1.322581E-18
3.880000E+03	4.787519E-18	1.316512E-18
3.890000E+03	4.767953E-18	1.311075E-18
3.900000E+03	4.750649E-18	1.306260E-18
3.910000E+03	4.735495E-18	1.302036E-18
3.920000E+03	4.722457E-18	1.298393E-18
3.930000E+03	4.711537E-18	1.295333E-18
3.940000E+03	4.702667E-18	1.292836E-18
3.950000E+03	4.695775E-18	1.290882E-18
3.960000E+03	4.690837E-18	1.289465E-18
3.970000E+03	4.687781E-18	1.288566E-18
3.980000E+03	4.686584E-18	1.288176E-18
3.990000E+03	4.687220E-18	1.288290E-18
4.000000E+03	4.689660E-18	1.288900E-18
4.010000E+03	4.693811E-18	1.289979E-18
4.020000E+03	4.699650E-18	1.291521E-18
4.030000E+03	4.707154E-18	1.293520E-18
4.040000E+03	4.716307E-18	1.295971E-18
4.050000E+03	4.727049E-18	1.298859E-18
4.060000E+03	4.739329E-18	1.302168E-18
4.070000E+03	4.753133E-18	1.305895E-18
4.080000E+03	4.768405E-18	1.310024E-18
4.090000E+03	4.785133E-18	1.314552E-18
4.100000E+03	4.803266E-18	1.319465E-18
4.110000E+03	4.822793E-18	1.324761E-18
4.120000E+03	4.843667E-18	1.330425E-18
4.130000E+03	4.865841E-18	1.336444E-18
4.140000E+03	4.889303E-18	1.342816E-18
4.150000E+03	4.914010E-18	1.349529E-18
4.160000E+03	4.939955E-18	1.356581E-18
4.170000E+03	4.967052E-18	1.363947E-18
4.180000E+03	4.995297E-18	1.371628E-18
4.190000E+03	5.024609E-18	1.379599E-18
4.200000E+03	5.055022E-18	1.387872E-18
4.210000E+03	5.086452E-18	1.396422E-18
4.220000E+03	5.118897E-18	1.405249E-18
4.230000E+03	5.152234E-18	1.414319E-18
4.240000E+03	5.186500E-18	1.423643E-18
4.250000E+03	5.221572E-18	1.433186E-18
4.260000E+03	5.257489E-18	1.442959E-18
4.270000E+03	5.294123E-18	1.452927E-18
4.280000E+03	5.331392E-18	1.463068E-18
4.290000E+03	5.369330E-18	1.473390E-18
4.300000E+03	5.407770E-18	1.483848E-18
4.310000E+03	5.446748E-18	1.494451E-18
4.320000E+03	5.486091E-18	1.505153E-18
4.330000E+03	5.525833E-18	1.515962E-18
4.340000E+03	5.565885E-18	1.526854E-18
4.350000E+03	5.606153E-18	1.537803E-18
4.360000E+03	5.646630E-18	1.548807E-18
4.370000E+03	5.687265E-18	1.559852E-18
4.380000E+03	5.728097E-18	1.570949E-18
4.390000E+03	5.769035E-18	1.582073E-18
4.400000E+03	5.810164E-18	1.593247E-18
4.410000E+03	5.851486E-18	1.604471E-18
4.420000E+03	5.893003E-18	1.615747E-18
4.430000E+03	5.934715E-18	1.627074E-18
4.440000E+03	5.976678E-18	1.638467E-18
4.450000E+03	6.018848E-18	1.649914E-18
4.460000E+03	6.061281E-18	1.661431E-18
4.470000E+03	6.103988E-18	1.673021E-18
4.480000E+03	6.146981E-18	1.684686E-18
4.490000E+03	6.190222E-18	1.696417E-18
4.500000E+03	6.233725E-18	1.708216E-18
4.510000E+03	6.277451E-18	1.720075E-18
4.520000E+03	6.321468E-18	1.732010E-18
4.530000E+03	6.365690E-18	1.743999E-18
4.540000E+03	6.410134E-18	1.756046E-18
4.550000E+03	6.454819E-18	1.768156E-18
4.560000E+03	6.499655E-18	1.780305E-18
4.570000E+03	6.544722E-18	1.792514E-18
4.580000E+03	6.589930E-18	1.804759E-18
4.590000E+03	6.635306E-18	1.817046E-18
4.600000E+03	6.680761E-18	1.829353E-18
4.610000E+03	6.726382E-18	1.841702E-18
4.620000E+03	6.772141E-18	1.854085E-18
4.630000E+03	6.817952E-18	1.866480E-18
4.640000E+03	6.863850E-18	1.878895E-18
4.650000E+03	6.909874E-18	1.891342E-18
4.660000E+03	6.956002E-18	1.903814E-18
4.670000E+03	7.002152E-18	1.916289E-18
4.680000E+03	7.048496E-18	1.928814E-18
4.690000E+03	7.095084E-18	1.941402E-18
4.700000E+03	7.141841E-18	1.954033E-18
4.710000E+03	7.188824E-18	1.966722E-18
4.720000E+03	7.236093E-18	1.979486E-18
4.730000E+03	7.283515E-18	1.992289E-18
4.740000E+03	7.331149E-18	2.005146E-18
4.750000E+03	7.378931E-18	2.018040E-18
4.760000E+03	7.426925E-18	2.030989E-18
4.770000E+03	7.475134E-18	2.043992E-18
4.780000E+03	7.523492E-18	2.057033E-18
4.790000E+03	7.572069E-18	2.070130E-18
4.800000E+03	7.620804E-18	2.083266E-18
4.810000E+03	7.669771E-18	2.096461E-18
4.820000E+03	7.718905E-18	2.109699E-18
4.830000E+03	7.768213E-18	2.122980E-18
4.840000E+03	7.817701E-18	2.136307E-18
4.850000E+03	7.867450E-18	2.149700E-18
4.860000E+03	7.917395E-18	2.163143E-18
4.870000E+03	7.967544E-18	2.176638E-18
4.880000E+03	8.017826E-18	2.190165E-18
4.890000E+03	8.068402E-18	2.203768E-18
4.900000E+03	8.119200E-18	2.217428E-18
4.910000E+03	8.170226E-18	2.231145E-18
4.920000E+03	8.221408E-18	2.244901E-18
4.930000E+03	8.272827E-18	2.258717E-18
4.940000E+03	8.324408E-18	2.272573E-18
4.950000E+03	8.376148E-18	2.286467E-18
4.960000E+03	8.428129E-18	2.300423E-18
4.970000E+03	8.480270E-18	2.314418E-18
4.980000E+03	8.532567E-18	2.328451E-18
4.990000E+03	8.584934E-18	2.342498E-18
5.000000E+03	8.637444E-18	2.356580E-18
5.010000E+03	8.690094E-18	2.370695E-18
5.020000E+03	8.742789E-18	2.384817E-18
5.030000E+03	8.795519E-18	2.398944E-18
5.040000E+03	8.848271E-18	2.413072E-18
5.050000E+03	8.900946E-18	2.427174E-18
5.060000E+03	8.953615E-18	2.441269E-18
5.070000E+03	9.006261E-18	2.455353E-18
5.080000E+03	9.058693E-18	2.469373E-18
5.090000E+03	9.110975E-18	2.483348E-18
5.100000E+03	9.163090E-18	2.497272E-18
5.110000E+03	9.214925E-18	2.511114E-18
5.120000E+03	9.266457E-18	2.524868E-18
5.130000E+03	9.317656E-18	2.538526E-18
5.140000E+03	9.368496E-18	2.552082E-18
5.150000E+03	9.418856E-18	2.565501E-18
5.160000E+03	9.468794E-18	2.578800E-18
5.170000E+03	9.518090E-18	2.591918E-18
5.180000E+03	9.566799E-18	2.604872E-18
5.190000E+03	9.614783E-18	2.617623E-18
5.200000E+03	9.661999E-18	2.630159E-18
5.210000E+03	9.708398E-18	2.642467E-18
5.220000E+03	9.753926E-18	2.654534E-18
5.230000E+03	9.798340E-18	2.666291E-18
5.240000E+03	9.841770E-18	2.677776E-18
5.250000E+03	9.884059E-18	2.688944E-18
5.260000E+03	9.925145E-18	2.699781E-18
5.270000E+03	9.964865E-18	2.710241E-18
5.280000E+03	1.000315E-17	2.720305E-18
5.290000E+03	1.003993E-17	2.729955E-18
5.300000E+03	1.007514E-17	2.739173E-18
5.310000E+03	1.010871E-17	2.747940E-18
5.320000E+03	1.014048E-17	2.756213E-18
5.330000E+03	1.017058E-17	2.764027E-18
5.340000E+03	1.019875E-17	2.771313E-18
5.350000E+03	1.022493E-17	2.778054E-18
5.360000E+03	1.024928E-17	2.784292E-18
5.370000E+03	1.027155E-17	2.789960E-18
5.380000E+03	1.029189E-17	2.795100E-18
5.390000E+03	1.031016E-17	2.799676E-18
5.400000E+03	1.032645E-17	2.803707E-18
5.410000E+03	1.034061E-17	2.807159E-18
5.420000E+03	1.035285E-17	2.810084E-18
5.430000E+03	1.036304E-17	2.812451E-18
5.440000E+03	1.037129E-17	2.814286E-18
5.450000E+03	1.037739E-17	2.815535E-18
5.460000E+03	1.038145E-17	2.816228E-18
5.470000E+03	1.038338E-17	2.816340E-18
5.480000E+03	1.038310E-17	2.815849E-18
5.490000E+03	1.038074E-17	2.814792E-18
5.500000E+03	1.037612E-17	2.813119E-18
5.510000E+03	1.036918E-17	2.810814E-18
5.520000E+03	1.035994E-17	2.807886E-18
5.530000E+03	1.034827E-17	2.804294E-18
5.540000E+03	1.033430E-17	2.800080E-18
5.550000E+03	1.031778E-17	2.795172E-18
5.560000E+03	1.029897E-17	2.789644E-18
5.570000E+03	1.027784E-17	2.783485E-18
5.580000E+03	1.025434E-17	2.776683E-18
5.590000E+03	1.022854E-17	2.769258E-18
5.600000E+03	1.020051E-17	2.761226E-18
5.610000E+03	1.017020E-17	2.752580E-18
5.620000E+03	1.013790E-17	2.743395E-18
5.630000E+03	1.010347E-17	2.733632E-18
5.640000E+03	1.006719E-17	2.723369E-18
5.650000E+03	1.002892E-17	2.712568E-18
5.660000E+03	9.988934E-18	2.701305E-18
5.670000E+03	9.947309E-18	2.689599E-18
5.680000E+03	9.904013E-18	2.677442E-18
5.690000E+03	9.859217E-18	2.664880E-18
5.700000E+03	9.812992E-18	2.651934E-18
5.710000E+03	9.765512E-18	2.638650E-18
5.720000E+03	9.716848E-18	2.625047E-18
5.730000E+03	9.666969E-18	2.611118E-18
5.740000E+03	9.616151E-18	2.596937E-18
5.750000E+03	9.564466E-18	2.582524E-18
5.760000E+03	9.511887E-18	2.567872E-18
5.770000E+03	9.458588E-18	2.553028E-18
5.780000E+03	9.404747E-18	2.538040E-18
5.790000E+03	9.350436E-18	2.522927E-18
5.800000E+03	9.295637E-18	2.507685E-18
5.810000E+03	9.240525E-18	2.492361E-18
5.820000E+03	9.185280E-18	2.477004E-18
5.830000E+03	9.129980E-18	2.461635E-18
5.840000E+03	9.074608E-18	2.446250E-18
5.850000E+03	9.019342E-18	2.430895E-18
5.860000E+03	8.964265E-18	2.415594E-18
5.870000E+03	8.909555E-18	2.400396E-18
5.880000E+03	8.855290E-18	2.385319E-18
5.890000E+03	8.801454E-18	2.370362E-18
5.900000E+03	8.748222E-18	2.355569E-18
5.910000E+03	8.695571E-18	2.340936E-18
5.920000E+03	8.643867E-18	2.326561E-18
5.930000E+03	8.592894E-18	2.312385E-18
5.940000E+03	8.542813E-18	2.298451E-18
5.950000E+03	8.493791E-18	2.284806E-18
5.960000E+03	8.445793E-18	2.271438E-18
5.970000E+03	8.398878E-18	2.258364E-18
5.980000E+03	8.353199E-18	2.245625E-18
5.990000E+03	8.308715E-18	2.233209E-18
6.000000E+03	8.265567E-18	2.221154E-18
6.010000E+03	8.223613E-18	2.209422E-18
6.020000E+03	8.183083E-18	2.198075E-18
6.030000E+03	8.143827E-18	2.187072E-18
6.040000E+03	8.106070E-18	2.176473E-18
6.050000E+03	8.069557E-18	2.166210E-18
6.060000E+03	8.034508E-18	2.156341E-18
6.070000E+03	8.000853E-18	2.146848E-18
6.080000E+03	7.968613E-18	2.137735E-18
6.090000E+03	7.937615E-18	2.128957E-18
6.100000E+03	7.908067E-18	2.120568E-18
6.110000E+03	7.879696E-18	2.112496E-18
6.120000E+03	7.852701E-18	2.104794E-18
6.130000E+03	7.826802E-18	2.097385E-18
6.140000E+03	7.802003E-18	2.090272E-18
6.150000E+03	7.778209E-18	2.083429E-18
6.160000E+03	7.755415E-18	2.076853E-18
6.170000E+03	7.733328E-18	2.070467E-18
6.180000E+03	7.711938E-18	2.064268E-18
6.190000E+03	7.691132E-18	2.058225E-18
6.200000E+03	7.670894E-18	2.052334E-18
6.210000E+03	7.651205E-18	2.046590E-18
6.220000E+03	7.632236E-18	2.041038E-18
6.230000E+03	7.614259E-18	2.035751E-18
6.240000E+03	7.597350E-18	2.030749E-18
6.250000E+03	7.581687E-18	2.026080E-18
6.260000E+03	7.567443E-18	2.021789E-18
6.270000E+03	7.554702E-18	2.017899E-18
6.280000E+03	7.543644E-18	2.014458E-18
6.290000E+03	7.534353E-18	2.011487E-18
6.300000E+03	7.526919E-18	2.009011E-18
6.310000E+03	7.521529E-18	2.007078E-18
6.320000E+03	7.518174E-18	2.005686E-18
6.330000E+03	7.517054E-18	2.004888E-18
6.340000E+03	7.518061E-18	2.004655E-18
6.350000E+03	7.521292E-18	2.005012E-18
6.360000E+03	7.526746E-18	2.005959E-18
6.370000E+03	7.534528E-18	2.007523E-18
6.380000E+03	7.544535E-18	2.009675E-18
6.390000E+03	7.556767E-18	2.012416E-18
6.400000E+03	7.571114E-18	2.015716E-18
6.410000E+03	7.587362E-18	2.019517E-18
6.420000E+03	7.605393E-18	2.023788E-18
6.430000E+03	7.625200E-18	2.028526E-18
6.440000E+03	7.646780E-18	2.033731E-18
6.450000E+03	7.670127E-18	2.039399E-18
6.460000E+03	7.695351E-18	2.045561E-18
6.470000E+03	7.722568E-18	2.052245E-18
6.480000E+03	7.751781E-18	2.059454E-18
6.490000E+03	7.782875E-18	2.067155E-18
6.500000E+03	7.816094E-18	2.075413E-18
6.510000E+03	7.851443E-18	2.084230E-18
6.520000E+03	7.888815E-18	2.093575E-18
6.530000E+03	7.928339E-18	2.103483E-18
6.540000E+03	7.970029E-18	2.113957E-18
6.550000E+03	8.013770E-18	2.124966E-18
6.560000E+03	8.059576E-18	2.136513E-18
6.570000E+03	8.107717E-18	2.148670E-18
6.580000E+03	8.157822E-18	2.161336E-18
6.590000E+03	8.210162E-18	2.174585E-18
6.600000E+03	8.264759E-18	2.188420E-18
6.610000E+03	8.321363E-18	2.202775E-18
6.620000E+03	8.380257E-18	2.217725E-18
6.630000E+03	8.441187E-18	2.233202E-18
6.640000E+03	8.504446E-18	2.249282E-18
6.650000E+03	8.569775E-18	2.265897E-18
6.660000E+03	8.637334E-18	2.283089E-18
6.670000E+03	8.707141E-18	2.300861E-18
6.680000E+03	8.779071E-18	2.319180E-18
6.690000E+03	8.853138E-18	2.338049E-18
6.700000E+03	8.929517E-18	2.357513E-18
6.710000E+03	9.008076E-18	2.377538E-18
6.720000E+03	9.088833E-18	2.398128E-18
6.730000E+03	9.171807E-18	2.419286E-18
6.740000E+03	9.257023E-18	2.441019E-18
6.750000E+03	9.344498E-18	2.463331E-18
6.760000E+03	9.434257E-18	2.486227E-18
6.770000E+03	9.526154E-18	2.509669E-18
6.780000E+03	9.620377E-18	2.533706E-18
6.790000E+03	9.716949E-18	2.558342E-18
6.800000E+03	9.815721E-18	2.583538E-18
6.810000E+03	9.916888E-18	2.609345E-18
6.820000E+03	1.002030E-17	2.635722E-18
6.830000E+03	1.012597E-17	2.662672E-18
6.840000E+03	1.023392E-17	2.690201E-18
6.850000E+03	1.034417E-17	2.718313E-18
6.860000E+03	1.045693E-17	2.747064E-18
6.870000E+03	1.057185E-17	2.776357E-18
6.880000E+03	1.068912E-17	2.806248E-18
6.890000E+03	1.080879E-17	2.836741E-18
6.900000E+03	1.093065E-17	2.867788E-18
6.910000E+03	1.105493E-17	2.899445E-18
6.920000E+03	1.118166E-17	2.931718E-18
6.930000E+03	1.131064E-17	2.964555E-18
6.940000E+03	1.144188E-17	2.997959E-18
6.950000E+03	1.157561E-17	3.031990E-18
6.960000E+03	1.171164E-17	3.066595E-18
6.970000E+03	1.184997E-17	3.101775E-18
6.980000E+03	1.199061E-17	3.137533E-18
6.990000E+03	1.213358E-17	3.173870E-18
7.000000E+03	1.227864E-17	3.210727E-18
7.010000E+03	1.242628E-17	3.248228E-18
7.020000E+03	1.257603E-17	3.286249E-18
7.030000E+03	1.272813E-17	3.324855E-18
7.040000E+03	1.288233E-17	3.363979E-18
7.050000E+03	1.303864E-17	3.403621E-18
7.060000E+03	1.319730E-17	3.443845E-18
7.070000E+03	1.335806E-17	3.484584E-18
7.080000E+03	1.352063E-17	3.525763E-18
7.090000E+03	1.368555E-17	3.567520E-18
7.100000E+03	1.385253E-17	3.609781E-18
7.110000E+03	1.402129E-17	3.652470E-18
7.120000E+03	1.419208E-17	3.695654E-18
7.130000E+03	1.436459E-17	3.739252E-18
7.140000E+03	1.453911E-17	3.783334E-18
7.150000E+03	1.471529E-17	3.827815E-18
7.160000E+03	1.489343E-17	3.872766E-18
7.170000E+03	1.507287E-17	3.918021E-18
7.180000E+03	1.525388E-17	3.963646E-18
7.190000E+03	1.543675E-17	4.009716E-18
7.200000E+03	1.562079E-17	4.056052E-18
7.210000E+03	1.580595E-17	4.102641E-18
7.220000E+03	1.599250E-17	4.149552E-18
7.230000E+03	1.618041E-17	4.196776E-18
7.240000E+03	1.636928E-17	4.244209E-18
7.250000E+03	1.655937E-17	4.291920E-18
7.260000E+03	1.675029E-17	4.339806E-18
7.270000E+03	1.694198E-17	4.387850E-18
7.280000E+03	1.713470E-17	4.436123E-18
7.290000E+03	1.732803E-17	4.484512E-18
7.300000E+03	1.752228E-17	4.533100E-18
7.310000E+03	1.771698E-17	4.581763E-18
7.320000E+03	1.791208E-17	4.630485E-18
7.330000E+03	1.810825E-17	4.679446E-18
7.340000E+03	1.830466E-17	4.728428E-18
7.350000E+03	1.850204E-17	4.777616E-18
7.360000E+03	1.869991E-17	4.826891E-18
7.370000E+03	1.889864E-17	4.876346E-18
7.380000E+03	1.909859E-17	4.926075E-18
7.390000E+03	1.929932E-17	4.975963E-18
7.400000E+03	1.950166E-17	5.026221E-18
7.410000E+03	1.970559E-17	5.076849E-18
7.420000E+03	1.991159E-17	5.127967E-18
7.430000E+03	2.011965E-17	5.179570E-18
7.440000E+03	2.032980E-17	5.231670E-18
7.450000E+03	2.054255E-17	5.284391E-18
7.460000E+03	2.075696E-17	5.337499E-18
7.470000E+03	2.097307E-17	5.390995E-18
7.480000E+03	2.119039E-17	5.444759E-18
7.490000E+03	2.140940E-17	5.498912E-18
7.500000E+03	2.162964E-17	5.553335E-18
7.510000E+03	2.185056E-17	5.607888E-18
7.520000E+03	2.207217E-17	5.662570E-18
7.530000E+03	2.229442E-17	5.717374E-18
7.540000E+03	2.251679E-17	5.772159E-18
7.550000E+03	2.273976E-17	5.827053E-18
7.560000E+03	2.296220E-17	5.881768E-18
7.570000E+03	2.318518E-17	5.936574E-18
7.580000E+03	2.340809E-17	5.991317E-18
7.590000E+03	2.363088E-17	6.045982E-18
7.600000E+03	2.385290E-17	6.100406E-18
7.610000E+03	2.407465E-17	6.154718E-18
7.620000E+03	2.429607E-17	6.208898E-18
7.630000E+03	2.451703E-17	6.262918E-18
7.640000E+03	2.473686E-17	6.316605E-18
7.650000E+03	2.495600E-17	6.370073E-18
7.660000E+03	2.517375E-17	6.423142E-18
7.670000E+03	2.539120E-17	6.476090E-18
7.680000E+03	2.560630E-17	6.528398E-18
7.690000E+03	2.582079E-17	6.580507E-18
7.700000E+03	2.603387E-17	6.632216E-18
7.710000E+03	2.624469E-17	6.683308E-18
7.720000E+03	2.645371E-17	6.733903E-18
7.730000E+03	2.666075E-17	6.783951E-18
7.740000E+03	2.686557E-17	6.833398E-18
7.750000E+03	2.706797E-17	6.882190E-18
7.760000E+03	2.726844E-17	6.930452E-18
