#wls	flux	fluxerr
1.600000E+03	3.357409E-17	2.631591E-17
1.640000E+03	2.991857E-17	2.342638E-17
1.680000E+03	2.642699E-17	2.066893E-17
1.720000E+03	2.310046E-17	1.804473E-17
1.760000E+03	1.994225E-17	1.555660E-17
1.800000E+03	1.695611E-17	1.320769E-17
1.840000E+03	1.413940E-17	1.099611E-17
1.880000E+03	1.149657E-17	8.925404E-18
1.920000E+03	9.027432E-18	6.995488E-18
1.960000E+03	6.732189E-18	5.206474E-18
2.000000E+03	4.610810E-18	3.558240E-18
2.040000E+03	2.663873E-18	2.051050E-18
2.080000E+03	8.913225E-19	6.845949E-19
2.120000E+03	-7.067338E-19	-5.414008E-19
2.160000E+03	-2.130379E-18	-1.627456E-18
2.200000E+03	-3.380296E-18	-2.574648E-18
2.240000E+03	-4.458093E-18	-3.384866E-18
2.280000E+03	-5.367354E-18	-4.061593E-18
2.320000E+03	-6.114146E-18	-4.610271E-18
2.360000E+03	-6.707438E-18	-5.038587E-18
2.400000E+03	-7.158217E-18	-5.355759E-18
2.440000E+03	-7.478671E-18	-5.571897E-18
2.480000E+03	-7.682636E-18	-5.698297E-18
2.520000E+03	-7.783166E-18	-5.745613E-18
2.560000E+03	-7.793796E-18	-5.724775E-18
2.600000E+03	-7.726742E-18	-5.645649E-18
2.640000E+03	-7.593985E-18	-5.517834E-18
2.680000E+03	-7.406361E-18	-5.349987E-18
2.720000E+03	-7.174095E-18	-5.150217E-18
2.760000E+03	-6.906763E-18	-4.926048E-18
2.800000E+03	-6.613042E-18	-4.684246E-18
2.840000E+03	-6.300949E-18	-4.430984E-18
2.880000E+03	-5.978131E-18	-4.172051E-18
2.920000E+03	-5.651107E-18	-3.912318E-18
2.960000E+03	-5.326340E-18	-3.656488E-18
3.000000E+03	-5.008965E-18	-3.408220E-18
3.010000E+03	-4.931470E-18	-3.347815E-18
3.020000E+03	-4.854719E-18	-3.288076E-18
3.030000E+03	-4.778766E-18	-3.229040E-18
3.040000E+03	-4.703872E-18	-3.170884E-18
3.050000E+03	-4.629973E-18	-3.113560E-18
3.060000E+03	-4.557105E-18	-3.057093E-18
3.070000E+03	-4.485408E-18	-3.001573E-18
3.080000E+03	-4.414815E-18	-2.946955E-18
3.090000E+03	-4.345361E-18	-2.893257E-18
3.100000E+03	-4.277259E-18	-2.840620E-18
3.110000E+03	-4.210353E-18	-2.788936E-18
3.120000E+03	-4.144757E-18	-2.738276E-18
3.130000E+03	-4.080411E-18	-2.688598E-18
3.140000E+03	-4.017579E-18	-2.640072E-18
3.150000E+03	-3.956036E-18	-2.592544E-18
3.160000E+03	-3.895879E-18	-2.546075E-18
3.170000E+03	-3.837199E-18	-2.500718E-18
3.180000E+03	-3.780002E-18	-2.456472E-18
3.190000E+03	-3.724156E-18	-2.413247E-18
3.200000E+03	-3.669883E-18	-2.371181E-18
3.210000E+03	-3.617049E-18	-2.330179E-18
3.220000E+03	-3.565727E-18	-2.290286E-18
3.230000E+03	-3.515857E-18	-2.251456E-18
3.240000E+03	-3.467507E-18	-2.213725E-18
3.250000E+03	-3.420676E-18	-2.177087E-18
3.260000E+03	-3.375364E-18	-2.141534E-18
3.270000E+03	-3.331512E-18	-2.107025E-18
3.280000E+03	-3.289177E-18	-2.073585E-18
3.290000E+03	-3.248355E-18	-2.041208E-18
3.300000E+03	-3.208987E-18	-2.009848E-18
3.310000E+03	-3.171126E-18	-1.979531E-18
3.320000E+03	-3.134712E-18	-1.950213E-18
3.330000E+03	-3.099791E-18	-1.921914E-18
3.340000E+03	-3.066307E-18	-1.894593E-18
3.350000E+03	-3.034253E-18	-1.868237E-18
3.360000E+03	-3.003622E-18	-1.842835E-18
3.370000E+03	-2.974407E-18	-1.818374E-18
3.380000E+03	-2.946596E-18	-1.794839E-18
3.390000E+03	-2.920137E-18	-1.772191E-18
3.400000E+03	-2.895064E-18	-1.750443E-18
3.410000E+03	-2.871281E-18	-1.729528E-18
3.420000E+03	-2.848860E-18	-1.709483E-18
3.430000E+03	-2.827708E-18	-1.690242E-18
3.440000E+03	-2.807812E-18	-1.671792E-18
3.450000E+03	-2.789161E-18	-1.654117E-18
3.460000E+03	-2.771702E-18	-1.637179E-18
3.470000E+03	-2.755458E-18	-1.620983E-18
3.480000E+03	-2.740378E-18	-1.605491E-18
3.490000E+03	-2.726405E-18	-1.590664E-18
3.500000E+03	-2.713526E-18	-1.576484E-18
3.510000E+03	-2.701687E-18	-1.562914E-18
3.520000E+03	-2.690902E-18	-1.549956E-18
3.530000E+03	-2.681050E-18	-1.537531E-18
3.540000E+03	-2.672142E-18	-1.525640E-18
3.550000E+03	-2.664124E-18	-1.514245E-18
3.560000E+03	-2.656970E-18	-1.503326E-18
3.570000E+03	-2.650592E-18	-1.492825E-18
3.580000E+03	-2.644932E-18	-1.482705E-18
3.590000E+03	-2.639992E-18	-1.472962E-18
3.600000E+03	-2.635651E-18	-1.463523E-18
3.610000E+03	-2.631908E-18	-1.454382E-18
3.620000E+03	-2.628700E-18	-1.445501E-18
3.630000E+03	-2.625931E-18	-1.436823E-18
3.640000E+03	-2.623538E-18	-1.428309E-18
3.650000E+03	-2.621482E-18	-1.419936E-18
3.660000E+03	-2.619669E-18	-1.411650E-18
3.670000E+03	-2.618083E-18	-1.403441E-18
3.680000E+03	-2.616600E-18	-1.395241E-18
3.690000E+03	-2.615176E-18	-1.387026E-18
3.700000E+03	-2.613738E-18	-1.378756E-18
3.710000E+03	-2.612242E-18	-1.370409E-18
3.720000E+03	-2.610587E-18	-1.361933E-18
3.730000E+03	-2.608726E-18	-1.353304E-18
3.740000E+03	-2.606587E-18	-1.344488E-18
3.750000E+03	-2.604120E-18	-1.335462E-18
3.760000E+03	-2.601253E-18	-1.326192E-18
3.770000E+03	-2.597941E-18	-1.316658E-18
3.780000E+03	-2.594110E-18	-1.306828E-18
3.790000E+03	-2.589693E-18	-1.296674E-18
3.800000E+03	-2.584697E-18	-1.286204E-18
3.810000E+03	-2.579006E-18	-1.275367E-18
3.820000E+03	-2.572605E-18	-1.264163E-18
3.830000E+03	-2.565485E-18	-1.252594E-18
3.840000E+03	-2.557562E-18	-1.240627E-18
3.850000E+03	-2.548806E-18	-1.228256E-18
3.860000E+03	-2.539216E-18	-1.215488E-18
3.870000E+03	-2.528768E-18	-1.202321E-18
3.880000E+03	-2.517443E-18	-1.188756E-18
3.890000E+03	-2.505202E-18	-1.174783E-18
3.900000E+03	-2.492057E-18	-1.160418E-18
3.910000E+03	-2.478002E-18	-1.145668E-18
3.920000E+03	-2.463033E-18	-1.130541E-18
3.930000E+03	-2.447153E-18	-1.115048E-18
3.940000E+03	-2.430367E-18	-1.099203E-18
3.950000E+03	-2.412705E-18	-1.083030E-18
3.960000E+03	-2.394182E-18	-1.066545E-18
3.970000E+03	-2.374792E-18	-1.049755E-18
3.980000E+03	-2.354599E-18	-1.032699E-18
3.990000E+03	-2.333602E-18	-1.015387E-18
4.000000E+03	-2.311848E-18	-9.978489E-19
4.010000E+03	-2.289366E-18	-9.801055E-19
4.020000E+03	-2.266162E-18	-9.621699E-19
4.030000E+03	-2.242308E-18	-9.440809E-19
4.040000E+03	-2.217813E-18	-9.258515E-19
4.050000E+03	-2.192729E-18	-9.075115E-19
4.060000E+03	-2.167085E-18	-8.890809E-19
4.070000E+03	-2.140910E-18	-8.705791E-19
4.080000E+03	-2.114231E-18	-8.520249E-19
4.090000E+03	-2.087090E-18	-8.334426E-19
4.100000E+03	-2.059491E-18	-8.148398E-19
4.110000E+03	-2.031448E-18	-7.962303E-19
4.120000E+03	-2.003011E-18	-7.776392E-19
4.130000E+03	-1.974149E-18	-7.590613E-19
4.140000E+03	-1.944878E-18	-7.405093E-19
4.150000E+03	-1.915187E-18	-7.219857E-19
4.160000E+03	-1.885058E-18	-7.034904E-19
4.170000E+03	-1.854459E-18	-6.850188E-19
4.180000E+03	-1.823348E-18	-6.665623E-19
4.190000E+03	-1.791667E-18	-6.481080E-19
4.200000E+03	-1.759340E-18	-6.296376E-19
4.210000E+03	-1.726276E-18	-6.111277E-19
4.220000E+03	-1.692356E-18	-5.925477E-19
4.230000E+03	-1.657425E-18	-5.738558E-19
4.240000E+03	-1.621310E-18	-5.550069E-19
4.250000E+03	-1.583822E-18	-5.359523E-19
4.260000E+03	-1.544710E-18	-5.166271E-19
4.270000E+03	-1.503652E-18	-4.969459E-19
4.280000E+03	-1.460310E-18	-4.768238E-19
4.290000E+03	-1.414265E-18	-4.561550E-19
4.300000E+03	-1.365017E-18	-4.348147E-19
4.310000E+03	-1.311970E-18	-4.126565E-19
4.320000E+03	-1.254402E-18	-3.895043E-19
4.330000E+03	-1.191486E-18	-3.651618E-19
4.340000E+03	-1.122183E-18	-3.393819E-19
4.350000E+03	-1.045291E-18	-3.118869E-19
4.360000E+03	-9.593439E-19	-2.823400E-19
4.370000E+03	-8.625868E-19	-2.503460E-19
4.380000E+03	-7.529094E-19	-2.154365E-19
4.390000E+03	-6.278069E-19	-1.770671E-19
4.400000E+03	-4.843159E-19	-1.346077E-19
4.410000E+03	-3.189857E-19	-8.734399E-20
4.420000E+03	-1.278146E-19	-3.447082E-20
4.430000E+03	9.378148E-20	2.490481E-20
4.440000E+03	3.510278E-19	9.176681E-20
4.450000E+03	6.498539E-19	1.671928E-19
4.460000E+03	9.969675E-19	2.523580E-19
4.470000E+03	1.399945E-18	3.485416E-19
4.480000E+03	1.867267E-18	4.571173E-19
4.490000E+03	2.408474E-18	5.795713E-19
4.500000E+03	3.034202E-18	7.174898E-19
4.510000E+03	3.756253E-18	8.725516E-19
4.520000E+03	4.587706E-18	1.046530E-18
4.530000E+03	5.542973E-18	1.241277E-18
4.540000E+03	6.637855E-18	1.458714E-18
4.550000E+03	7.889568E-18	1.700801E-18
4.560000E+03	9.316678E-18	1.969500E-18
4.570000E+03	1.093910E-17	2.266747E-18
4.580000E+03	1.277838E-17	2.594481E-18
4.590000E+03	1.485690E-17	2.954457E-18
4.600000E+03	1.719816E-17	3.348279E-18
4.610000E+03	1.982679E-17	3.777393E-18
4.620000E+03	2.276793E-17	4.242946E-18
4.630000E+03	2.604628E-17	4.745599E-18
4.640000E+03	2.968772E-17	5.285844E-18
4.650000E+03	3.371573E-17	5.863356E-18
4.660000E+03	3.815429E-17	6.477536E-18
4.670000E+03	4.302483E-17	7.127016E-18
4.680000E+03	4.834648E-17	7.809746E-18
4.690000E+03	5.413548E-17	8.522970E-18
4.700000E+03	6.040482E-17	9.263232E-18
4.710000E+03	6.716540E-17	1.002663E-17
4.720000E+03	7.442301E-17	1.080842E-17
4.730000E+03	8.218090E-17	1.160353E-17
4.740000E+03	9.044038E-17	1.240665E-17
4.750000E+03	9.919769E-17	1.321193E-17
4.760000E+03	1.084515E-16	1.401401E-17
4.770000E+03	1.181922E-16	1.480670E-17
4.780000E+03	1.284135E-16	1.558452E-17
4.790000E+03	1.391054E-16	1.634184E-17
4.800000E+03	1.502527E-16	1.707284E-17
4.810000E+03	1.618430E-16	1.777249E-17
4.820000E+03	1.738610E-16	1.843592E-17
4.830000E+03	1.862821E-16	1.905781E-17
4.840000E+03	1.990849E-16	1.963394E-17
4.850000E+03	2.122454E-16	2.016048E-17
4.860000E+03	2.257360E-16	2.063411E-17
4.870000E+03	2.395304E-16	2.105249E-17
4.880000E+03	2.536045E-16	2.141441E-17
4.890000E+03	2.679291E-16	2.171919E-17
4.900000E+03	2.824799E-16	2.196767E-17
4.910000E+03	2.972248E-16	2.216119E-17
4.920000E+03	3.121405E-16	2.230309E-17
4.930000E+03	3.272011E-16	2.239782E-17
4.940000E+03	3.423787E-16	2.245113E-17
4.950000E+03	3.576527E-16	2.247085E-17
4.960000E+03	3.729964E-16	2.246597E-17
4.970000E+03	3.883920E-16	2.244776E-17
4.980000E+03	4.038151E-16	2.242875E-17
4.990000E+03	4.192493E-16	2.242355E-17
5.000000E+03	4.346763E-16	2.244809E-17
5.010000E+03	4.500946E-16	2.252028E-17
5.020000E+03	4.654845E-16	2.265774E-17
5.030000E+03	4.808321E-16	2.287842E-17
5.040000E+03	4.961223E-16	2.319954E-17
5.050000E+03	5.113187E-16	2.363514E-17
5.060000E+03	5.263807E-16	2.419243E-17
5.070000E+03	5.412625E-16	2.487353E-17
5.080000E+03	5.559169E-16	2.567713E-17
5.090000E+03	5.702895E-16	2.659854E-17
5.100000E+03	5.843328E-16	2.763073E-17
5.110000E+03	5.980125E-16	2.876516E-17
5.120000E+03	6.112845E-16	2.999126E-17
5.130000E+03	6.241433E-16	3.129907E-17
5.140000E+03	6.365572E-16	3.267659E-17
5.150000E+03	6.485277E-16	3.411326E-17
5.160000E+03	6.600386E-16	3.559776E-17
5.170000E+03	6.710812E-16	3.711943E-17
5.180000E+03	6.816476E-16	3.866807E-17
5.190000E+03	6.917241E-16	4.023361E-17
5.200000E+03	7.013059E-16	4.180702E-17
5.210000E+03	7.103810E-16	4.337936E-17
5.220000E+03	7.189600E-16	4.494363E-17
5.230000E+03	7.270175E-16	4.649112E-17
5.240000E+03	7.345599E-16	4.801556E-17
5.250000E+03	7.415859E-16	4.951075E-17
5.260000E+03	7.480946E-16	5.097096E-17
5.270000E+03	7.540727E-16	5.239002E-17
5.280000E+03	7.595278E-16	5.376364E-17
5.290000E+03	7.644550E-16	5.508703E-17
5.300000E+03	7.688586E-16	5.635645E-17
5.310000E+03	7.727344E-16	5.756789E-17
5.320000E+03	7.760961E-16	5.871902E-17
5.330000E+03	7.789347E-16	5.980615E-17
5.340000E+03	7.812584E-16	6.082717E-17
5.350000E+03	7.830685E-16	6.177977E-17
5.360000E+03	7.843837E-16	6.266329E-17
5.370000E+03	7.851925E-16	6.347496E-17
5.380000E+03	7.855162E-16	6.421489E-17
5.390000E+03	7.853628E-16	6.488238E-17
5.400000E+03	7.847412E-16	6.547705E-17
5.410000E+03	7.836464E-16	6.599759E-17
5.420000E+03	7.820904E-16	6.644428E-17
5.430000E+03	7.800868E-16	6.681776E-17
5.440000E+03	7.776192E-16	6.711626E-17
5.450000E+03	7.747040E-16	6.734102E-17
5.460000E+03	7.713358E-16	6.749149E-17
5.470000E+03	7.675263E-16	6.756878E-17
5.480000E+03	7.633268E-16	6.757766E-17
5.490000E+03	7.587597E-16	6.752052E-17
5.500000E+03	7.538803E-16	6.740264E-17
5.510000E+03	7.487312E-16	6.722753E-17
5.520000E+03	7.433794E-16	6.700078E-17
5.530000E+03	7.378535E-16	6.672467E-17
5.540000E+03	7.322034E-16	6.640350E-17
5.550000E+03	7.264631E-16	6.604028E-17
5.560000E+03	7.206863E-16	6.563987E-17
5.570000E+03	7.148955E-16	6.520440E-17
5.580000E+03	7.091257E-16	6.473716E-17
5.590000E+03	7.034024E-16	6.424064E-17
5.600000E+03	6.977627E-16	6.371840E-17
5.610000E+03	6.922198E-16	6.317184E-17
5.620000E+03	6.867989E-16	6.260345E-17
5.630000E+03	6.815225E-16	6.201549E-17
5.640000E+03	6.764034E-16	6.140927E-17
5.650000E+03	6.714590E-16	6.078653E-17
5.660000E+03	6.666906E-16	6.014751E-17
5.670000E+03	6.621111E-16	5.949348E-17
5.680000E+03	6.577312E-16	5.882542E-17
5.690000E+03	6.535528E-16	5.814353E-17
5.700000E+03	6.495756E-16	5.744777E-17
5.710000E+03	6.457983E-16	5.673793E-17
5.720000E+03	6.422311E-16	5.601482E-17
5.730000E+03	6.388558E-16	5.527669E-17
5.740000E+03	6.356802E-16	5.452407E-17
5.750000E+03	6.326977E-16	5.375617E-17
5.760000E+03	6.298937E-16	5.297153E-17
5.770000E+03	6.272667E-16	5.216979E-17
5.780000E+03	6.248147E-16	5.135052E-17
5.790000E+03	6.225216E-16	5.051212E-17
5.800000E+03	6.203779E-16	4.965357E-17
5.810000E+03	6.183875E-16	4.877493E-17
5.820000E+03	6.165274E-16	4.787411E-17
5.830000E+03	6.147945E-16	4.695067E-17
5.840000E+03	6.131796E-16	4.600371E-17
5.850000E+03	6.116734E-16	4.503235E-17
5.860000E+03	6.102737E-16	4.403632E-17
5.870000E+03	6.089585E-16	4.301396E-17
5.880000E+03	6.077327E-16	4.196562E-17
5.890000E+03	6.065821E-16	4.089036E-17
5.900000E+03	6.054986E-16	3.978781E-17
5.910000E+03	6.044751E-16	3.865774E-17
5.920000E+03	6.035046E-16	3.750006E-17
5.930000E+03	6.025871E-16	3.631527E-17
5.940000E+03	6.017026E-16	3.510279E-17
5.950000E+03	6.008446E-16	3.386311E-17
5.960000E+03	6.000137E-16	3.259734E-17
5.970000E+03	5.992039E-16	3.130645E-17
5.980000E+03	5.983954E-16	2.999106E-17
5.990000E+03	5.975957E-16	2.865363E-17
6.000000E+03	5.967782E-16	2.729542E-17
6.010000E+03	5.959570E-16	2.592030E-17
6.020000E+03	5.951052E-16	2.453103E-17
6.030000E+03	5.942161E-16	2.313243E-17
6.040000E+03	5.932897E-16	2.173090E-17
6.050000E+03	5.923123E-16	2.033408E-17
6.060000E+03	5.912767E-16	1.895231E-17
6.070000E+03	5.901611E-16	1.759870E-17
6.080000E+03	5.889726E-16	1.629156E-17
6.090000E+03	5.876818E-16	1.505381E-17
6.100000E+03	5.862954E-16	1.391660E-17
6.110000E+03	5.847985E-16	1.291882E-17
6.120000E+03	5.831762E-16	1.210754E-17
6.130000E+03	5.814212E-16	1.153466E-17
6.140000E+03	5.795335E-16	1.124837E-17
6.150000E+03	5.774996E-16	1.127999E-17
6.160000E+03	5.753140E-16	1.162496E-17
6.170000E+03	5.729863E-16	1.224613E-17
6.180000E+03	5.704984E-16	1.309233E-17
6.190000E+03	5.678558E-16	1.411145E-17
6.200000E+03	5.650663E-16	1.525733E-17
6.210000E+03	5.621409E-16	1.649236E-17
6.220000E+03	5.590793E-16	1.778688E-17
6.230000E+03	5.558904E-16	1.911829E-17
6.240000E+03	5.525919E-16	2.046972E-17
6.250000E+03	5.491873E-16	2.182790E-17
6.260000E+03	5.456954E-16	2.318320E-17
6.270000E+03	5.421276E-16	2.452804E-17
6.280000E+03	5.385019E-16	2.585693E-17
6.290000E+03	5.348293E-16	2.716543E-17
6.300000E+03	5.311201E-16	2.845014E-17
6.310000E+03	5.273913E-16	2.970885E-17
6.320000E+03	5.236591E-16	3.094006E-17
6.330000E+03	5.199248E-16	3.214195E-17
6.340000E+03	5.162037E-16	3.331398E-17
6.350000E+03	5.125099E-16	3.445598E-17
6.360000E+03	5.088429E-16	3.556710E-17
6.370000E+03	5.052227E-16	3.664819E-17
6.380000E+03	5.016546E-16	3.769936E-17
6.390000E+03	4.981429E-16	3.872078E-17
6.400000E+03	4.946915E-16	3.971278E-17
6.410000E+03	4.913182E-16	4.067693E-17
6.420000E+03	4.880183E-16	4.161314E-17
6.430000E+03	4.848084E-16	4.252321E-17
6.440000E+03	4.816902E-16	4.340780E-17
6.450000E+03	4.786652E-16	4.426757E-17
6.460000E+03	4.757411E-16	4.510387E-17
6.470000E+03	4.729186E-16	4.591741E-17
6.480000E+03	4.702050E-16	4.670960E-17
6.490000E+03	4.675856E-16	4.747971E-17
6.500000E+03	4.650748E-16	4.822987E-17
6.510000E+03	4.626716E-16	4.896075E-17
6.520000E+03	4.603680E-16	4.967222E-17
6.530000E+03	4.581704E-16	5.036569E-17
6.540000E+03	4.560775E-16	5.104173E-17
6.550000E+03	4.540877E-16	5.170091E-17
6.560000E+03	4.521999E-16	5.234379E-17
6.570000E+03	4.504198E-16	5.297174E-17
6.580000E+03	4.487383E-16	5.358439E-17
6.590000E+03	4.471537E-16	5.418218E-17
6.600000E+03	4.456717E-16	5.476645E-17
6.610000E+03	4.442904E-16	5.533764E-17
6.620000E+03	4.430006E-16	5.589519E-17
6.630000E+03	4.418077E-16	5.644039E-17
6.640000E+03	4.407025E-16	5.697265E-17
6.650000E+03	4.396978E-16	5.749415E-17
6.660000E+03	4.387767E-16	5.800327E-17
6.670000E+03	4.379374E-16	5.850025E-17
6.680000E+03	4.371851E-16	5.898627E-17
6.690000E+03	4.365179E-16	5.946157E-17
6.700000E+03	4.359262E-16	5.992530E-17
6.710000E+03	4.354079E-16	6.037761E-17
6.720000E+03	4.349685E-16	6.081965E-17
6.730000E+03	4.345982E-16	6.125050E-17
6.740000E+03	4.343028E-16	6.167133E-17
6.750000E+03	4.340645E-16	6.208002E-17
6.760000E+03	4.338969E-16	6.247884E-17
6.770000E+03	4.337824E-16	6.286561E-17
6.780000E+03	4.337342E-16	6.324259E-17
6.790000E+03	4.337349E-16	6.360757E-17
6.800000E+03	4.337901E-16	6.396166E-17
6.810000E+03	4.338976E-16	6.430488E-17
6.820000E+03	4.340476E-16	6.463608E-17
6.830000E+03	4.342461E-16	6.495643E-17
6.840000E+03	4.344830E-16	6.526473E-17
6.850000E+03	4.347643E-16	6.556219E-17
6.860000E+03	4.350719E-16	6.584637E-17
6.870000E+03	4.354202E-16	6.611974E-17
6.880000E+03	4.357992E-16	6.638109E-17
6.890000E+03	4.362069E-16	6.663043E-17
6.900000E+03	4.366331E-16	6.686652E-17
6.910000E+03	4.370930E-16	6.709198E-17
6.920000E+03	4.375595E-16	6.730301E-17
6.930000E+03	4.380560E-16	6.750353E-17
6.940000E+03	4.385640E-16	6.769108E-17
6.950000E+03	4.390820E-16	6.786574E-17
6.960000E+03	4.396166E-16	6.802895E-17
6.970000E+03	4.401578E-16	6.817955E-17
6.980000E+03	4.407039E-16	6.831768E-17
6.990000E+03	4.412534E-16	6.844355E-17
7.000000E+03	4.418046E-16	6.855735E-17
7.010000E+03	4.423561E-16	6.865931E-17
7.020000E+03	4.428973E-16	6.874832E-17
7.030000E+03	4.434443E-16	6.882735E-17
7.040000E+03	4.439694E-16	6.889264E-17
7.050000E+03	4.444970E-16	6.894857E-17
7.060000E+03	4.449992E-16	6.899136E-17
7.070000E+03	4.454921E-16	6.902414E-17
7.080000E+03	4.459649E-16	6.904586E-17
7.090000E+03	4.464160E-16	6.905695E-17
7.100000E+03	4.468527E-16	6.905920E-17
7.110000E+03	4.472551E-16	6.905025E-17
7.120000E+03	4.476304E-16	6.903196E-17
7.130000E+03	4.479673E-16	6.900336E-17
7.140000E+03	4.482730E-16	6.896634E-17
7.150000E+03	4.485454E-16	6.892138E-17
7.160000E+03	4.487730E-16	6.886758E-17
7.170000E+03	4.489627E-16	6.880684E-17
7.180000E+03	4.490938E-16	6.873688E-17
7.190000E+03	4.491818E-16	6.866099E-17
7.200000E+03	4.492152E-16	6.857830E-17
7.210000E+03	4.491816E-16	6.848791E-17
7.220000E+03	4.490876E-16	6.839174E-17
7.230000E+03	4.489300E-16	6.829029E-17
7.240000E+03	4.486962E-16	6.818264E-17
7.250000E+03	4.483832E-16	6.806929E-17
7.260000E+03	4.479876E-16	6.795070E-17
7.270000E+03	4.475058E-16	6.782735E-17
7.280000E+03	4.469344E-16	6.769966E-17
7.290000E+03	4.462513E-16	6.756524E-17
7.300000E+03	4.454714E-16	6.742731E-17
7.310000E+03	4.445820E-16	6.728485E-17
7.320000E+03	4.435702E-16	6.713680E-17
7.330000E+03	4.424420E-16	6.698493E-17
7.340000E+03	4.411758E-16	6.682673E-17
7.350000E+03	4.397683E-16	6.666250E-17
7.360000E+03	4.382170E-16	6.649251E-17
7.370000E+03	4.365101E-16	6.631559E-17
7.380000E+03	4.346549E-16	6.613340E-17
7.390000E+03	4.326221E-16	6.594193E-17
7.400000E+03	4.304293E-16	6.574400E-17
7.410000E+03	4.280581E-16	6.553588E-17
7.420000E+03	4.255186E-16	6.531790E-17
7.430000E+03	4.228029E-16	6.508762E-17
7.440000E+03	4.199132E-16	6.484403E-17
7.450000E+03	4.168609E-16	6.458756E-17
7.460000E+03	4.136401E-16	6.431594E-17
7.470000E+03	4.102814E-16	6.403254E-17
7.480000E+03	4.067708E-16	6.373381E-17
7.490000E+03	4.031305E-16	6.342184E-17
7.500000E+03	3.993563E-16	6.309463E-17
7.510000E+03	3.954789E-16	6.275570E-17
7.520000E+03	3.914942E-16	6.240312E-17
7.530000E+03	3.874065E-16	6.203632E-17
7.540000E+03	3.832290E-16	6.165618E-17
7.550000E+03	3.789662E-16	6.126226E-17
7.560000E+03	3.746394E-16	6.085686E-17
7.570000E+03	3.702367E-16	6.043704E-17
7.580000E+03	3.657715E-16	6.000391E-17
7.590000E+03	3.612571E-16	5.955871E-17
7.600000E+03	3.566907E-16	5.910008E-17
7.610000E+03	3.520858E-16	5.862940E-17
7.620000E+03	3.474401E-16	5.814551E-17
7.630000E+03	3.427748E-16	5.765121E-17
7.640000E+03	3.380797E-16	5.714415E-17
7.650000E+03	3.333759E-16	5.662725E-17
7.660000E+03	3.286531E-16	5.609825E-17
7.670000E+03	3.239319E-16	5.556013E-17
