#wls	flux	fluxerr
1.600000E+03	1.358212E-17	2.088170E-18
1.640000E+03	1.315476E-17	2.020069E-18
1.680000E+03	1.272686E-17	1.951960E-18
1.720000E+03	1.229805E-17	1.883794E-18
1.760000E+03	1.186913E-17	1.815699E-18
1.800000E+03	1.144165E-17	1.747921E-18
1.840000E+03	1.101325E-17	1.680104E-18
1.880000E+03	1.058640E-17	1.612632E-18
1.920000E+03	1.016073E-17	1.545453E-18
1.960000E+03	9.736072E-18	1.478552E-18
2.000000E+03	9.311884E-18	1.411850E-18
2.040000E+03	8.888639E-18	1.345429E-18
2.080000E+03	8.465933E-18	1.279235E-18
2.120000E+03	8.042942E-18	1.213151E-18
2.160000E+03	7.621004E-18	1.147388E-18
2.200000E+03	7.200025E-18	1.081941E-18
2.240000E+03	6.781025E-18	1.016971E-18
2.280000E+03	6.366096E-18	9.527990E-19
2.320000E+03	5.957952E-18	8.898377E-19
2.360000E+03	5.559805E-18	8.285692E-19
2.400000E+03	5.174480E-18	7.694144E-19
2.440000E+03	4.804148E-18	7.126926E-19
2.480000E+03	4.450965E-18	6.587177E-19
2.520000E+03	4.115860E-18	6.076187E-19
2.560000E+03	3.799676E-18	5.595096E-19
2.600000E+03	3.502427E-18	5.143806E-19
2.640000E+03	3.224064E-18	4.722116E-19
2.680000E+03	2.964138E-18	4.329232E-19
2.720000E+03	2.722136E-18	3.964264E-19
2.760000E+03	2.497491E-18	3.626242E-19
2.800000E+03	2.289515E-18	3.314018E-19
2.840000E+03	2.097508E-18	3.026434E-19
2.880000E+03	1.920866E-18	2.762465E-19
2.920000E+03	1.758818E-18	2.520853E-19
2.960000E+03	1.610790E-18	2.300628E-19
3.000000E+03	1.475998E-18	2.100517E-19
3.010000E+03	1.444323E-18	2.053552E-19
3.020000E+03	1.413397E-18	2.007719E-19
3.030000E+03	1.383205E-18	1.962998E-19
3.040000E+03	1.353795E-18	1.919453E-19
3.050000E+03	1.325119E-18	1.877015E-19
3.060000E+03	1.297162E-18	1.835660E-19
3.070000E+03	1.269937E-18	1.795403E-19
3.080000E+03	1.243400E-18	1.756180E-19
3.090000E+03	1.217536E-18	1.717970E-19
3.100000E+03	1.192382E-18	1.680820E-19
3.110000E+03	1.167870E-18	1.644634E-19
3.120000E+03	1.144012E-18	1.609425E-19
3.130000E+03	1.120769E-18	1.575138E-19
3.140000E+03	1.098194E-18	1.541844E-19
3.150000E+03	1.076206E-18	1.509426E-19
3.160000E+03	1.054812E-18	1.477895E-19
3.170000E+03	1.034018E-18	1.447257E-19
3.180000E+03	1.013810E-18	1.417488E-19
3.190000E+03	9.941358E-19	1.388513E-19
3.200000E+03	9.750380E-19	1.360392E-19
3.210000E+03	9.564664E-19	1.333052E-19
3.220000E+03	9.384258E-19	1.306497E-19
3.230000E+03	9.208869E-19	1.280685E-19
3.240000E+03	9.038538E-19	1.255620E-19
3.250000E+03	8.873140E-19	1.231283E-19
3.260000E+03	8.712554E-19	1.207655E-19
3.270000E+03	8.556519E-19	1.184698E-19
3.280000E+03	8.405071E-19	1.162415E-19
3.290000E+03	8.258098E-19	1.140790E-19
3.300000E+03	8.115358E-19	1.119787E-19
3.310000E+03	7.976885E-19	1.099409E-19
3.320000E+03	7.842452E-19	1.079623E-19
3.330000E+03	7.712089E-19	1.060433E-19
3.340000E+03	7.585582E-19	1.041806E-19
3.350000E+03	7.462843E-19	1.023729E-19
3.360000E+03	7.343791E-19	1.006190E-19
3.370000E+03	7.228343E-19	9.891761E-20
3.380000E+03	7.116421E-19	9.726748E-20
3.390000E+03	7.007846E-19	9.566602E-20
3.400000E+03	6.902648E-19	9.411355E-20
3.410000E+03	6.800564E-19	9.260630E-20
3.420000E+03	6.701724E-19	9.114592E-20
3.430000E+03	6.605875E-19	8.972885E-20
3.440000E+03	6.512963E-19	8.835422E-20
3.450000E+03	6.422937E-19	8.702122E-20
3.460000E+03	6.335660E-19	8.572786E-20
3.470000E+03	6.251171E-19	8.447457E-20
3.480000E+03	6.169341E-19	8.325947E-20
3.490000E+03	6.090050E-19	8.208083E-20
3.500000E+03	6.013262E-19	8.093805E-20
3.510000E+03	5.938869E-19	7.982957E-20
3.520000E+03	5.866916E-19	7.875589E-20
3.530000E+03	5.797155E-19	7.771357E-20
3.540000E+03	5.729640E-19	7.670324E-20
3.550000E+03	5.664281E-19	7.572358E-20
3.560000E+03	5.601064E-19	7.477430E-20
3.570000E+03	5.539839E-19	7.385332E-20
3.580000E+03	5.480538E-19	7.295963E-20
3.590000E+03	5.423221E-19	7.209394E-20
3.600000E+03	5.367698E-19	7.125364E-20
3.610000E+03	5.314034E-19	7.043949E-20
3.620000E+03	5.262174E-19	6.965068E-20
3.630000E+03	5.212005E-19	6.888564E-20
3.640000E+03	5.163488E-19	6.814375E-20
3.650000E+03	5.116637E-19	6.742511E-20
3.660000E+03	5.071359E-19	6.672845E-20
3.670000E+03	5.027733E-19	6.605469E-20
3.680000E+03	4.985618E-19	6.540191E-20
3.690000E+03	4.945045E-19	6.477043E-20
3.700000E+03	4.905991E-19	6.415989E-20
3.710000E+03	4.868491E-19	6.357066E-20
3.720000E+03	4.832476E-19	6.300175E-20
3.730000E+03	4.797987E-19	6.245360E-20
3.740000E+03	4.765013E-19	6.192602E-20
3.750000E+03	4.733599E-19	6.141948E-20
3.760000E+03	4.703740E-19	6.093385E-20
3.770000E+03	4.675485E-19	6.046965E-20
3.780000E+03	4.648836E-19	6.002684E-20
3.790000E+03	4.623800E-19	5.960540E-20
3.800000E+03	4.600524E-19	5.920712E-20
3.810000E+03	4.578928E-19	5.883089E-20
3.820000E+03	4.559120E-19	5.847799E-20
3.830000E+03	4.541208E-19	5.814967E-20
3.840000E+03	4.525170E-19	5.784555E-20
3.850000E+03	4.511079E-19	5.756645E-20
3.860000E+03	4.499055E-19	5.731376E-20
3.870000E+03	4.489176E-19	5.708834E-20
3.880000E+03	4.481527E-19	5.689113E-20
3.890000E+03	4.476157E-19	5.672261E-20
3.900000E+03	4.473202E-19	5.658435E-20
3.910000E+03	4.472767E-19	5.647750E-20
3.920000E+03	4.474961E-19	5.640328E-20
3.930000E+03	4.479902E-19	5.636297E-20
3.940000E+03	4.487716E-19	5.635799E-20
3.950000E+03	4.498580E-19	5.639034E-20
3.960000E+03	4.512639E-19	5.646161E-20
3.970000E+03	4.530009E-19	5.657305E-20
3.980000E+03	4.550942E-19	5.672753E-20
3.990000E+03	4.575580E-19	5.692657E-20
4.000000E+03	4.604163E-19	5.717288E-20
4.010000E+03	4.636903E-19	5.746882E-20
4.020000E+03	4.673994E-19	5.781642E-20
4.030000E+03	4.715766E-19	5.821950E-20
4.040000E+03	4.762454E-19	5.868054E-20
4.050000E+03	4.814396E-19	5.920337E-20
4.060000E+03	4.871916E-19	5.979153E-20
4.070000E+03	4.935362E-19	6.044888E-20
4.080000E+03	5.005121E-19	6.117966E-20
4.090000E+03	5.081650E-19	6.198898E-20
4.100000E+03	5.165362E-19	6.288133E-20
4.110000E+03	5.256752E-19	6.386214E-20
4.120000E+03	5.356451E-19	6.493848E-20
4.130000E+03	5.464962E-19	6.611575E-20
4.140000E+03	5.582977E-19	6.740161E-20
4.150000E+03	5.711205E-19	6.880383E-20
4.160000E+03	5.850420E-19	7.033088E-20
4.170000E+03	6.001470E-19	7.199206E-20
4.180000E+03	6.165285E-19	7.379751E-20
4.190000E+03	6.342885E-19	7.575838E-20
4.200000E+03	6.535384E-19	7.788681E-20
4.210000E+03	6.744010E-19	8.019616E-20
4.220000E+03	6.970102E-19	8.270099E-20
4.230000E+03	7.215075E-19	8.541658E-20
4.240000E+03	7.480540E-19	8.836039E-20
4.250000E+03	7.768331E-19	9.155230E-20
4.260000E+03	8.080396E-19	9.501332E-20
4.270000E+03	8.418725E-19	9.876475E-20
4.280000E+03	8.785718E-19	1.028325E-19
4.290000E+03	9.183930E-19	1.072438E-19
4.300000E+03	9.616164E-19	1.120288E-19
4.310000E+03	1.008548E-18	1.172201E-19
4.320000E+03	1.059514E-18	1.228522E-19
4.330000E+03	1.114896E-18	1.289660E-19
4.340000E+03	1.175077E-18	1.356015E-19
4.350000E+03	1.240507E-18	1.428067E-19
4.360000E+03	1.311660E-18	1.506312E-19
4.370000E+03	1.389062E-18	1.591302E-19
4.380000E+03	1.473268E-18	1.683618E-19
4.390000E+03	1.564895E-18	1.783903E-19
4.400000E+03	1.664592E-18	1.892827E-19
4.410000E+03	1.773089E-18	2.011150E-19
4.420000E+03	1.891142E-18	2.139645E-19
4.430000E+03	2.019557E-18	2.279138E-19
4.440000E+03	2.159230E-18	2.430544E-19
4.450000E+03	2.311083E-18	2.594797E-19
4.460000E+03	2.476107E-18	2.772897E-19
4.470000E+03	2.655382E-18	2.965932E-19
4.480000E+03	2.849970E-18	3.174953E-19
4.490000E+03	3.061059E-18	3.401142E-19
4.500000E+03	3.289867E-18	3.645697E-19
4.510000E+03	3.537622E-18	3.909814E-19
4.520000E+03	3.805626E-18	4.194751E-19
4.530000E+03	4.095208E-18	4.501785E-19
4.540000E+03	4.407721E-18	4.832199E-19
4.550000E+03	4.744533E-18	5.187273E-19
4.560000E+03	5.106957E-18	5.568215E-19
4.570000E+03	5.496280E-18	5.976185E-19
4.580000E+03	5.913903E-18	6.412450E-19
4.590000E+03	6.360962E-18	6.877972E-19
4.600000E+03	6.838555E-18	7.373657E-19
4.610000E+03	7.347795E-18	7.900413E-19
4.620000E+03	7.889620E-18	8.458949E-19
4.630000E+03	8.464582E-18	9.049541E-19
4.640000E+03	9.073517E-18	9.672767E-19
4.650000E+03	9.716481E-18	1.032836E-18
4.660000E+03	1.039382E-17	1.101637E-18
4.670000E+03	1.110538E-17	1.173628E-18
4.680000E+03	1.185071E-17	1.248732E-18
4.690000E+03	1.262909E-17	1.326838E-18
4.700000E+03	1.343948E-17	1.407805E-18
4.710000E+03	1.428082E-17	1.491493E-18
4.720000E+03	1.515134E-17	1.577686E-18
4.730000E+03	1.604910E-17	1.666155E-18
4.740000E+03	1.697203E-17	1.756657E-18
4.750000E+03	1.791727E-17	1.848874E-18
4.760000E+03	1.888255E-17	1.942551E-18
4.770000E+03	1.986430E-17	2.037299E-18
4.780000E+03	2.085963E-17	2.132810E-18
4.790000E+03	2.186511E-17	2.228717E-18
4.800000E+03	2.287667E-17	2.324598E-18
4.810000E+03	2.389077E-17	2.420087E-18
4.820000E+03	2.490378E-17	2.514816E-18
4.830000E+03	2.591131E-17	2.608341E-18
4.840000E+03	2.690961E-17	2.700294E-18
4.850000E+03	2.789474E-17	2.790286E-18
4.860000E+03	2.886252E-17	2.877915E-18
4.870000E+03	2.980906E-17	2.962812E-18
4.880000E+03	3.073095E-17	3.044657E-18
4.890000E+03	3.162427E-17	3.123089E-18
4.900000E+03	3.248592E-17	3.197830E-18
4.910000E+03	3.331200E-17	3.268528E-18
4.920000E+03	3.409982E-17	3.334956E-18
4.930000E+03	3.484662E-17	3.396881E-18
4.940000E+03	3.554951E-17	3.454063E-18
4.950000E+03	3.620659E-17	3.506364E-18
4.960000E+03	3.681556E-17	3.553604E-18
4.970000E+03	3.737512E-17	3.595707E-18
4.980000E+03	3.788353E-17	3.632555E-18
4.990000E+03	3.833971E-17	3.664095E-18
5.000000E+03	3.874250E-17	3.690268E-18
5.010000E+03	3.909222E-17	3.711159E-18
5.020000E+03	3.938789E-17	3.726726E-18
5.030000E+03	3.962960E-17	3.737031E-18
5.040000E+03	3.981811E-17	3.742200E-18
5.050000E+03	3.995365E-17	3.742305E-18
5.060000E+03	4.003707E-17	3.737479E-18
5.070000E+03	4.006944E-17	3.727872E-18
5.080000E+03	4.005206E-17	3.713655E-18
5.090000E+03	3.998600E-17	3.694975E-18
5.100000E+03	3.987289E-17	3.672030E-18
5.110000E+03	3.971494E-17	3.645069E-18
5.120000E+03	3.951324E-17	3.614235E-18
5.130000E+03	3.927067E-17	3.579832E-18
5.140000E+03	3.898811E-17	3.541982E-18
5.150000E+03	3.866860E-17	3.500996E-18
5.160000E+03	3.831398E-17	3.457077E-18
5.170000E+03	3.792658E-17	3.410467E-18
5.180000E+03	3.750873E-17	3.361406E-18
5.190000E+03	3.706236E-17	3.310096E-18
5.200000E+03	3.658984E-17	3.256774E-18
5.210000E+03	3.609314E-17	3.201638E-18
5.220000E+03	3.557528E-17	3.144979E-18
5.230000E+03	3.503745E-17	3.086919E-18
5.240000E+03	3.448222E-17	3.027704E-18
5.250000E+03	3.391179E-17	2.967540E-18
5.260000E+03	3.332824E-17	2.906622E-18
5.270000E+03	3.273295E-17	2.845081E-18
5.280000E+03	3.212823E-17	2.783126E-18
5.290000E+03	3.151564E-17	2.720900E-18
5.300000E+03	3.089700E-17	2.658566E-18
5.310000E+03	3.027374E-17	2.596249E-18
5.320000E+03	2.964782E-17	2.534119E-18
5.330000E+03	2.902021E-17	2.472258E-18
5.340000E+03	2.839239E-17	2.410791E-18
5.350000E+03	2.776552E-17	2.349812E-18
5.360000E+03	2.714121E-17	2.289454E-18
5.370000E+03	2.651988E-17	2.229747E-18
5.380000E+03	2.590298E-17	2.170805E-18
5.390000E+03	2.529131E-17	2.112690E-18
5.400000E+03	2.468564E-17	2.055459E-18
5.410000E+03	2.408614E-17	1.999116E-18
5.420000E+03	2.349347E-17	1.943709E-18
5.430000E+03	2.290820E-17	1.889277E-18
5.440000E+03	2.232996E-17	1.835779E-18
5.450000E+03	2.175926E-17	1.783250E-18
5.460000E+03	2.119592E-17	1.731664E-18
5.470000E+03	2.064018E-17	1.681033E-18
5.480000E+03	2.009323E-17	1.631446E-18
5.490000E+03	1.955536E-17	1.582915E-18
5.500000E+03	1.902756E-17	1.535511E-18
5.510000E+03	1.851032E-17	1.489262E-18
5.520000E+03	1.800458E-17	1.444233E-18
5.530000E+03	1.751027E-17	1.400408E-18
5.540000E+03	1.702784E-17	1.357809E-18
5.550000E+03	1.655727E-17	1.316426E-18
5.560000E+03	1.609904E-17	1.276284E-18
5.570000E+03	1.565287E-17	1.237350E-18
5.580000E+03	1.521882E-17	1.199618E-18
5.590000E+03	1.479672E-17	1.163063E-18
5.600000E+03	1.438672E-17	1.127685E-18
5.610000E+03	1.398844E-17	1.093446E-18
5.620000E+03	1.360184E-17	1.060329E-18
5.630000E+03	1.322681E-17	1.028319E-18
5.640000E+03	1.286311E-17	9.973848E-19
5.650000E+03	1.251061E-17	9.675078E-19
5.660000E+03	1.216891E-17	9.386482E-19
5.670000E+03	1.183791E-17	9.107871E-19
5.680000E+03	1.151743E-17	8.839039E-19
5.690000E+03	1.120720E-17	8.579684E-19
5.700000E+03	1.090696E-17	8.329527E-19
5.710000E+03	1.061643E-17	8.088266E-19
5.720000E+03	1.033557E-17	7.855800E-19
5.730000E+03	1.006387E-17	7.631672E-19
5.740000E+03	9.801297E-18	7.415776E-19
5.750000E+03	9.547583E-18	7.207843E-19
5.760000E+03	9.302360E-18	7.007529E-19
5.770000E+03	9.065482E-18	6.814660E-19
5.780000E+03	8.836790E-18	6.629055E-19
5.790000E+03	8.615956E-18	6.450406E-19
5.800000E+03	8.402739E-18	6.278480E-19
5.810000E+03	8.197091E-18	6.113185E-19
5.820000E+03	7.998612E-18	5.954170E-19
5.830000E+03	7.807166E-18	5.801284E-19
5.840000E+03	7.622559E-18	5.654336E-19
5.850000E+03	7.444581E-18	5.513124E-19
5.860000E+03	7.273116E-18	5.377518E-19
5.870000E+03	7.107827E-18	5.247229E-19
5.880000E+03	6.948691E-18	5.122199E-19
5.890000E+03	6.795455E-18	5.002203E-19
5.900000E+03	6.647968E-18	4.887096E-19
5.910000E+03	6.506071E-18	4.776726E-19
5.920000E+03	6.369618E-18	4.670953E-19
5.930000E+03	6.238544E-18	4.569698E-19
5.940000E+03	6.112575E-18	4.472733E-19
5.950000E+03	5.991594E-18	4.379943E-19
5.960000E+03	5.875557E-18	4.291271E-19
5.970000E+03	5.764356E-18	4.206612E-19
5.980000E+03	5.657760E-18	4.125777E-19
5.990000E+03	5.555813E-18	4.048773E-19
6.000000E+03	5.458236E-18	3.975379E-19
6.010000E+03	5.365149E-18	3.905663E-19
6.020000E+03	5.276292E-18	3.839417E-19
6.030000E+03	5.191607E-18	3.776583E-19
6.040000E+03	5.111100E-18	3.717151E-19
6.050000E+03	5.034663E-18	3.661029E-19
6.060000E+03	4.962252E-18	3.608171E-19
6.070000E+03	4.893708E-18	3.558452E-19
6.080000E+03	4.829119E-18	3.511925E-19
6.090000E+03	4.768277E-18	3.468429E-19
6.100000E+03	4.711261E-18	3.428014E-19
6.110000E+03	4.657975E-18	3.390594E-19
6.120000E+03	4.608323E-18	3.356089E-19
6.130000E+03	4.562264E-18	3.324458E-19
6.140000E+03	4.519814E-18	3.295704E-19
6.150000E+03	4.480873E-18	3.269746E-19
6.160000E+03	4.445391E-18	3.246541E-19
6.170000E+03	4.413425E-18	3.226127E-19
6.180000E+03	4.384803E-18	3.208373E-19
6.190000E+03	4.359516E-18	3.193272E-19
6.200000E+03	4.337545E-18	3.180807E-19
6.210000E+03	4.318867E-18	3.170961E-19
6.220000E+03	4.303340E-18	3.163632E-19
6.230000E+03	4.290875E-18	3.158753E-19
6.240000E+03	4.281431E-18	3.156299E-19
6.250000E+03	4.274855E-18	3.156159E-19
6.260000E+03	4.271100E-18	3.158301E-19
6.270000E+03	4.270062E-18	3.162654E-19
6.280000E+03	4.271695E-18	3.169188E-19
6.290000E+03	4.275894E-18	3.177831E-19
6.300000E+03	4.282560E-18	3.188512E-19
6.310000E+03	4.291648E-18	3.201207E-19
6.320000E+03	4.303122E-18	3.215893E-19
6.330000E+03	4.316828E-18	3.232463E-19
6.340000E+03	4.332736E-18	3.250900E-19
6.350000E+03	4.350820E-18	3.271193E-19
6.360000E+03	4.370939E-18	3.293241E-19
6.370000E+03	4.393137E-18	3.317087E-19
6.380000E+03	4.417344E-18	3.342683E-19
6.390000E+03	4.443491E-18	3.369987E-19
6.400000E+03	4.471514E-18	3.398957E-19
6.410000E+03	4.501485E-18	3.429656E-19
6.420000E+03	4.533284E-18	3.462001E-19
6.430000E+03	4.566996E-18	3.496064E-19
6.440000E+03	4.602576E-18	3.531823E-19
6.450000E+03	4.639988E-18	3.569255E-19
6.460000E+03	4.679263E-18	3.608395E-19
6.470000E+03	4.720373E-18	3.649231E-19
6.480000E+03	4.763362E-18	3.691807E-19
6.490000E+03	4.808063E-18	3.736001E-19
6.500000E+03	4.854599E-18	3.781920E-19
6.510000E+03	4.902954E-18	3.829561E-19
6.520000E+03	4.953035E-18	3.878861E-19
6.530000E+03	5.004908E-18	3.929882E-19
6.540000E+03	5.058561E-18	3.982625E-19
6.550000E+03	5.113985E-18	4.037093E-19
6.560000E+03	5.171175E-18	4.093292E-19
6.570000E+03	5.230211E-18	4.151296E-19
6.580000E+03	5.291007E-18	4.211048E-19
6.590000E+03	5.353560E-18	4.272556E-19
6.600000E+03	5.417958E-18	4.335903E-19
6.610000E+03	5.484208E-18	4.401103E-19
6.620000E+03	5.552222E-18	4.468099E-19
6.630000E+03	5.622096E-18	4.536979E-19
6.640000E+03	5.693743E-18	4.607683E-19
6.650000E+03	5.767362E-18	4.680385E-19
6.660000E+03	5.842767E-18	4.754947E-19
6.670000E+03	5.919964E-18	4.831384E-19
6.680000E+03	5.999062E-18	4.909796E-19
6.690000E+03	6.080070E-18	4.990205E-19
6.700000E+03	6.162894E-18	5.072544E-19
6.710000E+03	6.247539E-18	5.156830E-19
6.720000E+03	6.334122E-18	5.243172E-19
6.730000E+03	6.422541E-18	5.331497E-19
6.740000E+03	6.512918E-18	5.421919E-19
6.750000E+03	6.605027E-18	5.514263E-19
6.760000E+03	6.699109E-18	5.608741E-19
6.770000E+03	6.794927E-18	5.705168E-19
6.780000E+03	6.892729E-18	5.803764E-19
6.790000E+03	6.992270E-18	5.904335E-19
6.800000E+03	7.093674E-18	6.006997E-19
6.810000E+03	7.196942E-18	6.111765E-19
6.820000E+03	7.301941E-18	6.218537E-19
6.830000E+03	7.408796E-18	6.327431E-19
6.840000E+03	7.517367E-18	6.438341E-19
6.850000E+03	7.627784E-18	6.551388E-19
6.860000E+03	7.739750E-18	6.666330E-19
6.870000E+03	7.853538E-18	6.783412E-19
6.880000E+03	7.968989E-18	6.902509E-19
6.890000E+03	8.086081E-18	7.023614E-19
6.900000E+03	8.204637E-18	7.146583E-19
6.910000E+03	8.324942E-18	7.271674E-19
6.920000E+03	8.446499E-18	7.398464E-19
6.930000E+03	8.569743E-18	7.527344E-19
6.940000E+03	8.694322E-18	7.658015E-19
6.950000E+03	8.820193E-18	7.790448E-19
6.960000E+03	8.947481E-18	7.924762E-19
6.970000E+03	9.075974E-18	8.060778E-19
6.980000E+03	9.205601E-18	8.198442E-19
6.990000E+03	9.336323E-18	8.337726E-19
7.000000E+03	9.468065E-18	8.478570E-19
7.010000E+03	9.600776E-18	8.620936E-19
7.020000E+03	9.734181E-18	8.764583E-19
7.030000E+03	9.868597E-18	8.909801E-19
7.040000E+03	1.000336E-17	9.055997E-19
7.050000E+03	1.013896E-17	9.203617E-19
7.060000E+03	1.027473E-17	9.352057E-19
7.070000E+03	1.041096E-17	9.501596E-19
7.080000E+03	1.054735E-17	9.651945E-19
7.090000E+03	1.068378E-17	9.803010E-19
7.100000E+03	1.082038E-17	9.954893E-19
7.110000E+03	1.095656E-17	1.010707E-18
7.120000E+03	1.109245E-17	1.025965E-18
7.130000E+03	1.122766E-17	1.041228E-18
7.140000E+03	1.136230E-17	1.056504E-18
7.150000E+03	1.149623E-17	1.071780E-18
7.160000E+03	1.162907E-17	1.087021E-18
7.170000E+03	1.176089E-17	1.102232E-18
7.180000E+03	1.189107E-17	1.117355E-18
7.190000E+03	1.201991E-17	1.132417E-18
7.200000E+03	1.214702E-17	1.147380E-18
7.210000E+03	1.227196E-17	1.162200E-18
7.220000E+03	1.239481E-17	1.176886E-18
7.230000E+03	1.251539E-17	1.191416E-18
7.240000E+03	1.263324E-17	1.205748E-18
7.250000E+03	1.274818E-17	1.219861E-18
7.260000E+03	1.286001E-17	1.233734E-18
7.270000E+03	1.296853E-17	1.247346E-18
7.280000E+03	1.307354E-17	1.260676E-18
7.290000E+03	1.317429E-17	1.273648E-18
7.300000E+03	1.327113E-17	1.286295E-18
7.310000E+03	1.336357E-17	1.298564E-18
7.320000E+03	1.345112E-17	1.310406E-18
7.330000E+03	1.353387E-17	1.321826E-18
7.340000E+03	1.361103E-17	1.332744E-18
7.350000E+03	1.368240E-17	1.343137E-18
7.360000E+03	1.374780E-17	1.352980E-18
7.370000E+03	1.380671E-17	1.362222E-18
7.380000E+03	1.385925E-17	1.370867E-18
7.390000E+03	1.390437E-17	1.378809E-18
7.400000E+03	1.394247E-17	1.386080E-18
7.410000E+03	1.397280E-17	1.392602E-18
7.420000E+03	1.399552E-17	1.398384E-18
7.430000E+03	1.401019E-17	1.403379E-18
7.440000E+03	1.401670E-17	1.407568E-18
7.450000E+03	1.401529E-17	1.410969E-18
7.460000E+03	1.400555E-17	1.413537E-18
7.470000E+03	1.398837E-17	1.415355E-18
7.480000E+03	1.396314E-17	1.416354E-18
7.490000E+03	1.393044E-17	1.416586E-18
7.500000E+03	1.389000E-17	1.416021E-18
7.510000E+03	1.384279E-17	1.414747E-18
7.520000E+03	1.378856E-17	1.412736E-18
7.530000E+03	1.372741E-17	1.409991E-18
7.540000E+03	1.365972E-17	1.406546E-18
7.550000E+03	1.358564E-17	1.402411E-18
7.560000E+03	1.350591E-17	1.397656E-18
7.570000E+03	1.342006E-17	1.392230E-18
7.580000E+03	1.332859E-17	1.386177E-18
7.590000E+03	1.323194E-17	1.379540E-18
7.600000E+03	1.313003E-17	1.372306E-18
7.610000E+03	1.302333E-17	1.364520E-18
7.620000E+03	1.291176E-17	1.356168E-18
7.630000E+03	1.279612E-17	1.347331E-18
7.640000E+03	1.267602E-17	1.337965E-18
7.650000E+03	1.255227E-17	1.328152E-18
7.660000E+03	1.242451E-17	1.317849E-18
7.670000E+03	1.229353E-17	1.307138E-18
7.680000E+03	1.215900E-17	1.295981E-18
7.690000E+03	1.202167E-17	1.284455E-18
7.700000E+03	1.188150E-17	1.272552E-18
7.710000E+03	1.173870E-17	1.260295E-18
7.720000E+03	1.159349E-17	1.247702E-18
7.730000E+03	1.144608E-17	1.234796E-18
7.740000E+03	1.129668E-17	1.221597E-18
7.750000E+03	1.114523E-17	1.208097E-18
7.760000E+03	1.099246E-17	1.194374E-18
