#wls	flux	fluxerr
1.600000E+03	1.531955E-16	2.703843E-17
1.640000E+03	1.580937E-16	2.790271E-17
1.680000E+03	1.627937E-16	2.873198E-17
1.720000E+03	1.672189E-16	2.951271E-17
1.760000E+03	1.713518E-16	3.024183E-17
1.800000E+03	1.751078E-16	3.090441E-17
1.840000E+03	1.784313E-16	3.149062E-17
1.880000E+03	1.812946E-16	3.199559E-17
1.920000E+03	1.836083E-16	3.240354E-17
1.960000E+03	1.853289E-16	3.270678E-17
2.000000E+03	1.863863E-16	3.289298E-17
2.040000E+03	1.867435E-16	3.295556E-17
2.080000E+03	1.863170E-16	3.287985E-17
2.120000E+03	1.850518E-16	3.265610E-17
2.160000E+03	1.828980E-16	3.227553E-17
2.200000E+03	1.797733E-16	3.172360E-17
2.240000E+03	1.756224E-16	3.099061E-17
2.280000E+03	1.704679E-16	3.008053E-17
2.320000E+03	1.643964E-16	2.900864E-17
2.360000E+03	1.575970E-16	2.780834E-17
2.400000E+03	1.502278E-16	2.650752E-17
2.440000E+03	1.424281E-16	2.513078E-17
2.480000E+03	1.343384E-16	2.370289E-17
2.520000E+03	1.260511E-16	2.224019E-17
2.560000E+03	1.176668E-16	2.076042E-17
2.600000E+03	1.092703E-16	1.927854E-17
2.640000E+03	1.009464E-16	1.780954E-17
2.680000E+03	9.276349E-17	1.636546E-17
2.720000E+03	8.478735E-17	1.495792E-17
2.760000E+03	7.707685E-17	1.359730E-17
2.800000E+03	6.968406E-17	1.229278E-17
2.840000E+03	6.265579E-17	1.105263E-17
2.880000E+03	5.603489E-17	9.884399E-18
2.920000E+03	4.985685E-17	8.794343E-18
2.960000E+03	4.414987E-17	7.787435E-18
3.000000E+03	3.893144E-17	6.866754E-18
3.010000E+03	3.770514E-17	6.650402E-18
3.020000E+03	3.650888E-17	6.439353E-18
3.030000E+03	3.534409E-17	6.233860E-18
3.040000E+03	3.420968E-17	6.033724E-18
3.050000E+03	3.310608E-17	5.839028E-18
3.060000E+03	3.203363E-17	5.649827E-18
3.070000E+03	3.099054E-17	5.465810E-18
3.080000E+03	2.997841E-17	5.287253E-18
3.090000E+03	2.899550E-17	5.113854E-18
3.100000E+03	2.804258E-17	4.945746E-18
3.110000E+03	2.711855E-17	4.782736E-18
3.120000E+03	2.622297E-17	4.624746E-18
3.130000E+03	2.535635E-17	4.471867E-18
3.140000E+03	2.451717E-17	4.323829E-18
3.150000E+03	2.370631E-17	4.180787E-18
3.160000E+03	2.292182E-17	4.042400E-18
3.170000E+03	2.216450E-17	3.908804E-18
3.180000E+03	2.143290E-17	3.779749E-18
3.190000E+03	2.072726E-17	3.655272E-18
3.200000E+03	2.004661E-17	3.535205E-18
3.210000E+03	1.939070E-17	3.419504E-18
3.220000E+03	1.875894E-17	3.308062E-18
3.230000E+03	1.815071E-17	3.200771E-18
3.240000E+03	1.756513E-17	3.097476E-18
3.250000E+03	1.700217E-17	2.998174E-18
3.260000E+03	1.646097E-17	2.902709E-18
3.270000E+03	1.594117E-17	2.811020E-18
3.280000E+03	1.544193E-17	2.722957E-18
3.290000E+03	1.496266E-17	2.638418E-18
3.300000E+03	1.450300E-17	2.557338E-18
3.310000E+03	1.406215E-17	2.479577E-18
3.320000E+03	1.363977E-17	2.405073E-18
3.330000E+03	1.323524E-17	2.333718E-18
3.340000E+03	1.284765E-17	2.265353E-18
3.350000E+03	1.247684E-17	2.199945E-18
3.360000E+03	1.212205E-17	2.137366E-18
3.370000E+03	1.178281E-17	2.077528E-18
3.380000E+03	1.145856E-17	2.020335E-18
3.390000E+03	1.114853E-17	1.965649E-18
3.400000E+03	1.085254E-17	1.913441E-18
3.410000E+03	1.056998E-17	1.863601E-18
3.420000E+03	1.030025E-17	1.816023E-18
3.430000E+03	1.004291E-17	1.770633E-18
3.440000E+03	9.797569E-18	1.727357E-18
3.450000E+03	9.563567E-18	1.686082E-18
3.460000E+03	9.340647E-18	1.646762E-18
3.470000E+03	9.128217E-18	1.609291E-18
3.480000E+03	8.925933E-18	1.573610E-18
3.490000E+03	8.733360E-18	1.539642E-18
3.500000E+03	8.550087E-18	1.507314E-18
3.510000E+03	8.375723E-18	1.476557E-18
3.520000E+03	8.209896E-18	1.447306E-18
3.530000E+03	8.052170E-18	1.419483E-18
3.540000E+03	7.902131E-18	1.393016E-18
3.550000E+03	7.759479E-18	1.367852E-18
3.560000E+03	7.623849E-18	1.343926E-18
3.570000E+03	7.494975E-18	1.321192E-18
3.580000E+03	7.372450E-18	1.299577E-18
3.590000E+03	7.256047E-18	1.279042E-18
3.600000E+03	7.145475E-18	1.259535E-18
3.610000E+03	7.040600E-18	1.241032E-18
3.620000E+03	6.941083E-18	1.223474E-18
3.630000E+03	6.846743E-18	1.206830E-18
3.640000E+03	6.757208E-18	1.191032E-18
3.650000E+03	6.672324E-18	1.176055E-18
3.660000E+03	6.591879E-18	1.161860E-18
3.670000E+03	6.515669E-18	1.148412E-18
3.680000E+03	6.443560E-18	1.135687E-18
3.690000E+03	6.375425E-18	1.123663E-18
3.700000E+03	6.311077E-18	1.112306E-18
3.710000E+03	6.250454E-18	1.101606E-18
3.720000E+03	6.193379E-18	1.091532E-18
3.730000E+03	6.139847E-18	1.082082E-18
3.740000E+03	6.089738E-18	1.073236E-18
3.750000E+03	6.042940E-18	1.064973E-18
3.760000E+03	5.999392E-18	1.057283E-18
3.770000E+03	5.959084E-18	1.050164E-18
3.780000E+03	5.921903E-18	1.043596E-18
3.790000E+03	5.887837E-18	1.037578E-18
3.800000E+03	5.856776E-18	1.032089E-18
3.810000E+03	5.828658E-18	1.027119E-18
3.820000E+03	5.803472E-18	1.022665E-18
3.830000E+03	5.781206E-18	1.018726E-18
3.840000E+03	5.761751E-18	1.015282E-18
3.850000E+03	5.745139E-18	1.012340E-18
3.860000E+03	5.731220E-18	1.009872E-18
3.870000E+03	5.720073E-18	1.007892E-18
3.880000E+03	5.711545E-18	1.006373E-18
3.890000E+03	5.705718E-18	1.005331E-18
3.900000E+03	5.702489E-18	1.004746E-18
3.910000E+03	5.701846E-18	1.004617E-18
3.920000E+03	5.703731E-18	1.004933E-18
3.930000E+03	5.708136E-18	1.005693E-18
3.940000E+03	5.715005E-18	1.006887E-18
3.950000E+03	5.724375E-18	1.008521E-18
3.960000E+03	5.736146E-18	1.010578E-18
3.970000E+03	5.750313E-18	1.013057E-18
3.980000E+03	5.766822E-18	1.015949E-18
3.990000E+03	5.785713E-18	1.019260E-18
4.000000E+03	5.806935E-18	1.022981E-18
4.010000E+03	5.830440E-18	1.027104E-18
4.020000E+03	5.856178E-18	1.031621E-18
4.030000E+03	5.884191E-18	1.036538E-18
4.040000E+03	5.914386E-18	1.041839E-18
4.050000E+03	5.946810E-18	1.047532E-18
4.060000E+03	5.981367E-18	1.053601E-18
4.070000E+03	6.018060E-18	1.060045E-18
4.080000E+03	6.056890E-18	1.066866E-18
4.090000E+03	6.097811E-18	1.074055E-18
4.100000E+03	6.140781E-18	1.081604E-18
4.110000E+03	6.185753E-18	1.089505E-18
4.120000E+03	6.232781E-18	1.097768E-18
4.130000E+03	6.281772E-18	1.106376E-18
4.140000E+03	6.332731E-18	1.115331E-18
4.150000E+03	6.385567E-18	1.124616E-18
4.160000E+03	6.440284E-18	1.134231E-18
4.170000E+03	6.496888E-18	1.144178E-18
4.180000E+03	6.555286E-18	1.154441E-18
4.190000E+03	6.615483E-18	1.165020E-18
4.200000E+03	6.677382E-18	1.175898E-18
4.210000E+03	6.740990E-18	1.187077E-18
4.220000E+03	6.806208E-18	1.198538E-18
4.230000E+03	6.873039E-18	1.210283E-18
4.240000E+03	6.941379E-18	1.222293E-18
4.250000E+03	7.011179E-18	1.234560E-18
4.260000E+03	7.082329E-18	1.247063E-18
4.270000E+03	7.154827E-18	1.259803E-18
4.280000E+03	7.228561E-18	1.272761E-18
4.290000E+03	7.303471E-18	1.285924E-18
4.300000E+03	7.379436E-18	1.299273E-18
4.310000E+03	7.456329E-18	1.312784E-18
4.320000E+03	7.534081E-18	1.326446E-18
4.330000E+03	7.612618E-18	1.340245E-18
4.340000E+03	7.691802E-18	1.354158E-18
4.350000E+03	7.771555E-18	1.368170E-18
4.360000E+03	7.851729E-18	1.382255E-18
4.370000E+03	7.932299E-18	1.396409E-18
4.380000E+03	8.013178E-18	1.410617E-18
4.390000E+03	8.094473E-18	1.424897E-18
4.400000E+03	8.176099E-18	1.439235E-18
4.410000E+03	8.258103E-18	1.453638E-18
4.420000E+03	8.340470E-18	1.468104E-18
4.430000E+03	8.423325E-18	1.482656E-18
4.440000E+03	8.506592E-18	1.497279E-18
4.450000E+03	8.590263E-18	1.511973E-18
4.460000E+03	8.674407E-18	1.526748E-18
4.470000E+03	8.759022E-18	1.541606E-18
4.480000E+03	8.844111E-18	1.556547E-18
4.490000E+03	8.929606E-18	1.571558E-18
4.500000E+03	9.015587E-18	1.586653E-18
4.510000E+03	9.101989E-18	1.601822E-18
4.520000E+03	9.188823E-18	1.617066E-18
4.530000E+03	9.276105E-18	1.632388E-18
4.540000E+03	9.363695E-18	1.647763E-18
4.550000E+03	9.451688E-18	1.663208E-18
4.560000E+03	9.540027E-18	1.678713E-18
4.570000E+03	9.628738E-18	1.694282E-18
4.580000E+03	9.717680E-18	1.709891E-18
4.590000E+03	9.806968E-18	1.725560E-18
4.600000E+03	9.896465E-18	1.741264E-18
4.610000E+03	9.986293E-18	1.757026E-18
4.620000E+03	1.007632E-17	1.772822E-18
4.630000E+03	1.016658E-17	1.788658E-18
4.640000E+03	1.025705E-17	1.804529E-18
4.650000E+03	1.034785E-17	1.820458E-18
4.660000E+03	1.043888E-17	1.836425E-18
4.670000E+03	1.053027E-17	1.852455E-18
4.680000E+03	1.062201E-17	1.868545E-18
4.690000E+03	1.071406E-17	1.884689E-18
4.700000E+03	1.080661E-17	1.900920E-18
4.710000E+03	1.089953E-17	1.917215E-18
4.720000E+03	1.099293E-17	1.933593E-18
4.730000E+03	1.108667E-17	1.950030E-18
4.740000E+03	1.118087E-17	1.966546E-18
4.750000E+03	1.127529E-17	1.983100E-18
4.760000E+03	1.137005E-17	1.999711E-18
4.770000E+03	1.146501E-17	2.016357E-18
4.780000E+03	1.156027E-17	2.033055E-18
4.790000E+03	1.165574E-17	2.049787E-18
4.800000E+03	1.175138E-17	2.066550E-18
4.810000E+03	1.184720E-17	2.083341E-18
4.820000E+03	1.194319E-17	2.100161E-18
4.830000E+03	1.203934E-17	2.117009E-18
4.840000E+03	1.213553E-17	2.133862E-18
4.850000E+03	1.223185E-17	2.150736E-18
4.860000E+03	1.232829E-17	2.167631E-18
4.870000E+03	1.242474E-17	2.184526E-18
4.880000E+03	1.252116E-17	2.201413E-18
4.890000E+03	1.261767E-17	2.218315E-18
4.900000E+03	1.271400E-17	2.235184E-18
4.910000E+03	1.281036E-17	2.252056E-18
4.920000E+03	1.290660E-17	2.268907E-18
4.930000E+03	1.300258E-17	2.285711E-18
4.940000E+03	1.309838E-17	2.302480E-18
4.950000E+03	1.319396E-17	2.319209E-18
4.960000E+03	1.328915E-17	2.335869E-18
4.970000E+03	1.338403E-17	2.352472E-18
4.980000E+03	1.347828E-17	2.368964E-18
4.990000E+03	1.357212E-17	2.385381E-18
5.000000E+03	1.366533E-17	2.401687E-18
5.010000E+03	1.375771E-17	2.417845E-18
5.020000E+03	1.384934E-17	2.433869E-18
5.030000E+03	1.393999E-17	2.449720E-18
5.040000E+03	1.402956E-17	2.465379E-18
5.050000E+03	1.411798E-17	2.480835E-18
5.060000E+03	1.420513E-17	2.496066E-18
5.070000E+03	1.429078E-17	2.511031E-18
5.080000E+03	1.437496E-17	2.525737E-18
5.090000E+03	1.445742E-17	2.540139E-18
5.100000E+03	1.453802E-17	2.554213E-18
5.110000E+03	1.461651E-17	2.567915E-18
5.120000E+03	1.469291E-17	2.581247E-18
5.130000E+03	1.476678E-17	2.594134E-18
5.140000E+03	1.483829E-17	2.606604E-18
5.150000E+03	1.490700E-17	2.618580E-18
5.160000E+03	1.497292E-17	2.630065E-18
5.170000E+03	1.503575E-17	2.641007E-18
5.180000E+03	1.509521E-17	2.651356E-18
5.190000E+03	1.515129E-17	2.661109E-18
5.200000E+03	1.520370E-17	2.670215E-18
5.210000E+03	1.525229E-17	2.678649E-18
5.220000E+03	1.529692E-17	2.686387E-18
5.230000E+03	1.533730E-17	2.693377E-18
5.240000E+03	1.537330E-17	2.699597E-18
5.250000E+03	1.540462E-17	2.704994E-18
5.260000E+03	1.543131E-17	2.709576E-18
5.270000E+03	1.545309E-17	2.713296E-18
5.280000E+03	1.546985E-17	2.716134E-18
5.290000E+03	1.548153E-17	2.718078E-18
5.300000E+03	1.548787E-17	2.719084E-18
5.310000E+03	1.548881E-17	2.719141E-18
5.320000E+03	1.548431E-17	2.718243E-18
5.330000E+03	1.547435E-17	2.716383E-18
5.340000E+03	1.545875E-17	2.713536E-18
5.350000E+03	1.543768E-17	2.709727E-18
5.360000E+03	1.541118E-17	2.704964E-18
5.370000E+03	1.537930E-17	2.699256E-18
5.380000E+03	1.534197E-17	2.692593E-18
5.390000E+03	1.529960E-17	2.685045E-18
5.400000E+03	1.525217E-17	2.676607E-18
5.410000E+03	1.520012E-17	2.667360E-18
5.420000E+03	1.514349E-17	2.657308E-18
5.430000E+03	1.508263E-17	2.646514E-18
5.440000E+03	1.501774E-17	2.635014E-18
5.450000E+03	1.494937E-17	2.622903E-18
5.460000E+03	1.487763E-17	2.610201E-18
5.470000E+03	1.480265E-17	2.596931E-18
5.480000E+03	1.472441E-17	2.583091E-18
5.490000E+03	1.464325E-17	2.568737E-18
5.500000E+03	1.455919E-17	2.553876E-18
5.510000E+03	1.447242E-17	2.538540E-18
5.520000E+03	1.438316E-17	2.522767E-18
5.530000E+03	1.429161E-17	2.506594E-18
5.540000E+03	1.419800E-17	2.490060E-18
5.550000E+03	1.410270E-17	2.473231E-18
5.560000E+03	1.400594E-17	2.456147E-18
5.570000E+03	1.390821E-17	2.438893E-18
5.580000E+03	1.380961E-17	2.421487E-18
5.590000E+03	1.371076E-17	2.404040E-18
5.600000E+03	1.361173E-17	2.386559E-18
5.610000E+03	1.351297E-17	2.369128E-18
5.620000E+03	1.341495E-17	2.351828E-18
5.630000E+03	1.331767E-17	2.334660E-18
5.640000E+03	1.322186E-17	2.317749E-18
5.650000E+03	1.312763E-17	2.301116E-18
5.660000E+03	1.303510E-17	2.284782E-18
5.670000E+03	1.294489E-17	2.268855E-18
5.680000E+03	1.285696E-17	2.253328E-18
5.690000E+03	1.277162E-17	2.238258E-18
5.700000E+03	1.268920E-17	2.223700E-18
5.710000E+03	1.260984E-17	2.209678E-18
5.720000E+03	1.253371E-17	2.196222E-18
5.730000E+03	1.246092E-17	2.183353E-18
5.740000E+03	1.239172E-17	2.171113E-18
5.750000E+03	1.232634E-17	2.159543E-18
5.760000E+03	1.226461E-17	2.148614E-18
5.770000E+03	1.220699E-17	2.138404E-18
5.780000E+03	1.215330E-17	2.128884E-18
5.790000E+03	1.210385E-17	2.120106E-18
5.800000E+03	1.205855E-17	2.112057E-18
5.810000E+03	1.201759E-17	2.104766E-18
5.820000E+03	1.198098E-17	2.098237E-18
5.830000E+03	1.194888E-17	2.092498E-18
5.840000E+03	1.192117E-17	2.087529E-18
5.850000E+03	1.189789E-17	2.083334E-18
5.860000E+03	1.187914E-17	2.079934E-18
5.870000E+03	1.186507E-17	2.077351E-18
5.880000E+03	1.185541E-17	2.075540E-18
5.890000E+03	1.185041E-17	2.074544E-18
5.900000E+03	1.184992E-17	2.074337E-18
5.910000E+03	1.185404E-17	2.074939E-18
5.920000E+03	1.186276E-17	2.076342E-18
5.930000E+03	1.187591E-17	2.078520E-18
5.940000E+03	1.189358E-17	2.081488E-18
5.950000E+03	1.191572E-17	2.085238E-18
5.960000E+03	1.194216E-17	2.089738E-18
5.970000E+03	1.197308E-17	2.095023E-18
5.980000E+03	1.200818E-17	2.101036E-18
5.990000E+03	1.204751E-17	2.107787E-18
6.000000E+03	1.209099E-17	2.115264E-18
6.010000E+03	1.213840E-17	2.123426E-18
6.020000E+03	1.218978E-17	2.132282E-18
6.030000E+03	1.224477E-17	2.141766E-18
6.040000E+03	1.230353E-17	2.151908E-18
6.050000E+03	1.236566E-17	2.162638E-18
6.060000E+03	1.243120E-17	2.173960E-18
6.070000E+03	1.249986E-17	2.185828E-18
6.080000E+03	1.257153E-17	2.198218E-18
6.090000E+03	1.264592E-17	2.211082E-18
6.100000E+03	1.272270E-17	2.224362E-18
6.110000E+03	1.280192E-17	2.238065E-18
6.120000E+03	1.288293E-17	2.252078E-18
6.130000E+03	1.296574E-17	2.266404E-18
6.140000E+03	1.304985E-17	2.280954E-18
6.150000E+03	1.313509E-17	2.295700E-18
6.160000E+03	1.322065E-17	2.310498E-18
6.170000E+03	1.330650E-17	2.325343E-18
6.180000E+03	1.339194E-17	2.340113E-18
6.190000E+03	1.347659E-17	2.354745E-18
6.200000E+03	1.355992E-17	2.369142E-18
6.210000E+03	1.364206E-17	2.383327E-18
6.220000E+03	1.372331E-17	2.397354E-18
6.230000E+03	1.380404E-17	2.411288E-18
6.240000E+03	1.388460E-17	2.425191E-18
6.250000E+03	1.396489E-17	2.439042E-18
6.260000E+03	1.404570E-17	2.452980E-18
6.270000E+03	1.412673E-17	2.466955E-18
6.280000E+03	1.420849E-17	2.481056E-18
6.290000E+03	1.429129E-17	2.495333E-18
6.300000E+03	1.437491E-17	2.509751E-18
6.310000E+03	1.445970E-17	2.524371E-18
6.320000E+03	1.454583E-17	2.539223E-18
6.330000E+03	1.463352E-17	2.554341E-18
6.340000E+03	1.472257E-17	2.569695E-18
6.350000E+03	1.481320E-17	2.585321E-18
6.360000E+03	1.490543E-17	2.601224E-18
6.370000E+03	1.499929E-17	2.617408E-18
6.380000E+03	1.509461E-17	2.633843E-18
6.390000E+03	1.519120E-17	2.650495E-18
6.400000E+03	1.528886E-17	2.667331E-18
6.410000E+03	1.538762E-17	2.684355E-18
6.420000E+03	1.548727E-17	2.701532E-18
6.430000E+03	1.558715E-17	2.718744E-18
6.440000E+03	1.568793E-17	2.736110E-18
6.450000E+03	1.578964E-17	2.753635E-18
6.460000E+03	1.589252E-17	2.771360E-18
6.470000E+03	1.599709E-17	2.789375E-18
6.480000E+03	1.610316E-17	2.807649E-18
6.490000E+03	1.621125E-17	2.826269E-18
6.500000E+03	1.632141E-17	2.845247E-18
6.510000E+03	1.643395E-17	2.864638E-18
6.520000E+03	1.654846E-17	2.884365E-18
6.530000E+03	1.666573E-17	2.904571E-18
6.540000E+03	1.678535E-17	2.925181E-18
6.550000E+03	1.690761E-17	2.946248E-18
6.560000E+03	1.703260E-17	2.967786E-18
6.570000E+03	1.716013E-17	2.989760E-18
6.580000E+03	1.729052E-17	3.012229E-18
6.590000E+03	1.742384E-17	3.035204E-18
6.600000E+03	1.755990E-17	3.058650E-18
6.610000E+03	1.769874E-17	3.082577E-18
6.620000E+03	1.784042E-17	3.106993E-18
6.630000E+03	1.798531E-17	3.131962E-18
6.640000E+03	1.813288E-17	3.157394E-18
6.650000E+03	1.828348E-17	3.183346E-18
6.660000E+03	1.843716E-17	3.209830E-18
6.670000E+03	1.859367E-17	3.236801E-18
6.680000E+03	1.875339E-17	3.264324E-18
6.690000E+03	1.891604E-17	3.292353E-18
6.700000E+03	1.908200E-17	3.320951E-18
6.710000E+03	1.925066E-17	3.350014E-18
6.720000E+03	1.942239E-17	3.379602E-18
6.730000E+03	1.959758E-17	3.409788E-18
6.740000E+03	1.977559E-17	3.440458E-18
6.750000E+03	1.995680E-17	3.471678E-18
6.760000E+03	2.014088E-17	3.503392E-18
6.770000E+03	2.032825E-17	3.535670E-18
6.780000E+03	2.051857E-17	3.568455E-18
6.790000E+03	2.071186E-17	3.601747E-18
6.800000E+03	2.090852E-17	3.635621E-18
6.810000E+03	2.110783E-17	3.669947E-18
6.820000E+03	2.131056E-17	3.704862E-18
6.830000E+03	2.151597E-17	3.740234E-18
6.840000E+03	2.172485E-17	3.776201E-18
6.850000E+03	2.193643E-17	3.812629E-18
6.860000E+03	2.215070E-17	3.849520E-18
6.870000E+03	2.236808E-17	3.886940E-18
6.880000E+03	2.258858E-17	3.924896E-18
6.890000E+03	2.281134E-17	3.963236E-18
6.900000E+03	2.303721E-17	4.002109E-18
6.910000E+03	2.326576E-17	4.041439E-18
6.920000E+03	2.349741E-17	4.081299E-18
6.930000E+03	2.373127E-17	4.121532E-18
6.940000E+03	2.396775E-17	4.162213E-18
6.950000E+03	2.420684E-17	4.203340E-18
6.960000E+03	2.444803E-17	4.244822E-18
6.970000E+03	2.469179E-17	4.286740E-18
6.980000E+03	2.493807E-17	4.329086E-18
6.990000E+03	2.518636E-17	4.371773E-18
7.000000E+03	2.543662E-17	4.414794E-18
7.010000E+03	2.568880E-17	4.458138E-18
7.020000E+03	2.594338E-17	4.501888E-18
7.030000E+03	2.619929E-17	4.545859E-18
7.040000E+03	2.645751E-17	4.590224E-18
7.050000E+03	2.671697E-17	4.634792E-18
7.060000E+03	2.697813E-17	4.679646E-18
7.070000E+03	2.724042E-17	4.724686E-18
7.080000E+03	2.750431E-17	4.769994E-18
7.090000E+03	2.776978E-17	4.815566E-18
7.100000E+03	2.803621E-17	4.861296E-18
7.110000E+03	2.830298E-17	4.907073E-18
7.120000E+03	2.857117E-17	4.953088E-18
7.130000E+03	2.884015E-17	4.999229E-18
7.140000E+03	2.910989E-17	5.045491E-18
7.150000E+03	2.938031E-17	5.091862E-18
7.160000E+03	2.965075E-17	5.138227E-18
7.170000E+03	2.992177E-17	5.184681E-18
7.180000E+03	3.019269E-17	5.231108E-18
7.190000E+03	3.046343E-17	5.277494E-18
7.200000E+03	3.073456E-17	5.323938E-18
7.210000E+03	3.100538E-17	5.370319E-18
7.220000E+03	3.127650E-17	5.416740E-18
7.230000E+03	3.154651E-17	5.462959E-18
7.240000E+03	3.181600E-17	5.509079E-18
7.250000E+03	3.208489E-17	5.555086E-18
7.260000E+03	3.235313E-17	5.600969E-18
7.270000E+03	3.262063E-17	5.646715E-18
7.280000E+03	3.288733E-17	5.692313E-18
7.290000E+03	3.315246E-17	5.737628E-18
7.300000E+03	3.341661E-17	5.782765E-18
7.310000E+03	3.367974E-17	5.827716E-18
7.320000E+03	3.394178E-17	5.872468E-18
7.330000E+03	3.420193E-17	5.916883E-18
7.340000E+03	3.446084E-17	5.961076E-18
7.350000E+03	3.471923E-17	6.005168E-18
7.360000E+03	3.497551E-17	6.048888E-18
7.370000E+03	3.523041E-17	6.092359E-18
7.380000E+03	3.548388E-17	6.135572E-18
7.390000E+03	3.573667E-17	6.178661E-18
7.400000E+03	3.598797E-17	6.221482E-18
7.410000E+03	3.623855E-17	6.264171E-18
7.420000E+03	3.648925E-17	6.306872E-18
7.430000E+03	3.673927E-17	6.349446E-18
7.440000E+03	3.699030E-17	6.392187E-18
7.450000E+03	3.724070E-17	6.434809E-18
7.460000E+03	3.749137E-17	6.477470E-18
7.470000E+03	3.774148E-17	6.520025E-18
7.480000E+03	3.799193E-17	6.562632E-18
7.490000E+03	3.824101E-17	6.604993E-18
7.500000E+03	3.848962E-17	6.647264E-18
7.510000E+03	3.873778E-17	6.689449E-18
7.520000E+03	3.898458E-17	6.731392E-18
7.530000E+03	3.923187E-17	6.773411E-18
7.540000E+03	3.947781E-17	6.815190E-18
7.550000E+03	3.972331E-17	6.856885E-18
7.560000E+03	3.996742E-17	6.898332E-18
7.570000E+03	4.021105E-17	6.939689E-18
7.580000E+03	4.045322E-17	6.980787E-18
7.590000E+03	4.069482E-17	7.021778E-18
7.600000E+03	4.093484E-17	7.062489E-18
7.610000E+03	4.117318E-17	7.102903E-18
7.620000E+03	4.141074E-17	7.143177E-18
7.630000E+03	4.164642E-17	7.183119E-18
7.640000E+03	4.188012E-17	7.222712E-18
7.650000E+03	4.211270E-17	7.262106E-18
7.660000E+03	4.234299E-17	7.301098E-18
7.670000E+03	4.257188E-17	7.339842E-18
7.680000E+03	4.279709E-17	7.377946E-18
7.690000E+03	4.302051E-17	7.415735E-18
7.700000E+03	4.324197E-17	7.453179E-18
7.710000E+03	4.346015E-17	7.490054E-18
7.720000E+03	4.367593E-17	7.526508E-18
7.730000E+03	4.388795E-17	7.562310E-18
7.740000E+03	4.409595E-17	7.597412E-18
7.750000E+03	4.430076E-17	7.631961E-18
7.760000E+03	4.450211E-17	7.665909E-18
