#wls	flux	fluxerr
1.600000E+03	1.593796E-16	6.024326E-17
1.640000E+03	1.677357E-16	6.317203E-17
1.680000E+03	1.762446E-16	6.613527E-17
1.720000E+03	1.848388E-16	6.908916E-17
1.760000E+03	1.934843E-16	7.203700E-17
1.800000E+03	2.020919E-16	7.492470E-17
1.840000E+03	2.105656E-16	7.773600E-17
1.880000E+03	2.188649E-16	8.043286E-17
1.920000E+03	2.268297E-16	8.297960E-17
1.960000E+03	2.343801E-16	8.532184E-17
2.000000E+03	2.413487E-16	8.742642E-17
2.040000E+03	2.476399E-16	8.923186E-17
2.080000E+03	2.530353E-16	9.069237E-17
2.120000E+03	2.573875E-16	9.172749E-17
2.160000E+03	2.604866E-16	9.230109E-17
2.200000E+03	2.621193E-16	9.231022E-17
2.240000E+03	2.620341E-16	9.171130E-17
2.280000E+03	2.601499E-16	9.045032E-17
2.320000E+03	2.564206E-16	8.856113E-17
2.360000E+03	2.510453E-16	8.608735E-17
2.400000E+03	2.441327E-16	8.311701E-17
2.440000E+03	2.358604E-16	7.968455E-17
2.480000E+03	2.263637E-16	7.588526E-17
2.520000E+03	2.157988E-16	7.174533E-17
2.560000E+03	2.042881E-16	6.735257E-17
2.600000E+03	1.920252E-16	6.274532E-17
2.640000E+03	1.791571E-16	5.801459E-17
2.680000E+03	1.658936E-16	5.320352E-17
2.720000E+03	1.523915E-16	4.839959E-17
2.760000E+03	1.388751E-16	4.364990E-17
2.800000E+03	1.255051E-16	3.903505E-17
2.840000E+03	1.124955E-16	3.459793E-17
2.880000E+03	9.999777E-17	3.040720E-17
2.920000E+03	8.819378E-17	2.649474E-17
2.960000E+03	7.719317E-17	2.290749E-17
2.989568E+03	2.585489E-16	7.600069E-17
2.989768E+03	2.590151E-16	7.613282E-17
2.991769E+03	2.595707E-16	7.624637E-17
2.991969E+03	2.599958E-16	7.636624E-17
2.993369E+03	2.604252E-16	7.645739E-17
2.993569E+03	2.608366E-16	7.657316E-17
2.994969E+03	2.612249E-16	7.665204E-17
2.995769E+03	2.615972E-16	7.674119E-17
2.996569E+03	2.619697E-16	7.683030E-17
2.996769E+03	2.622983E-16	7.692162E-17
2.997170E+03	2.625955E-16	7.699865E-17
2.997370E+03	2.629102E-16	7.708589E-17
2.998769E+03	2.632581E-16	7.715227E-17
3.012770E+03	2.642331E-16	7.708030E-17
3.013170E+03	2.644897E-16	7.714488E-17
3.013970E+03	2.647531E-16	7.720111E-17
3.014770E+03	2.650025E-16	7.725322E-17
3.015771E+03	2.652625E-16	7.730317E-17
3.016371E+03	2.655157E-16	7.736146E-17
3.016971E+03	2.657552E-16	7.741570E-17
3.017771E+03	2.660189E-16	7.747178E-17
3.019171E+03	2.662721E-16	7.750917E-17
3.019371E+03	2.664493E-16	7.755555E-17
3.019571E+03	2.665988E-16	7.759386E-17
3.020371E+03	2.667654E-16	7.762153E-17
3.021372E+03	2.669287E-16	7.764295E-17
3.022171E+03	2.670816E-16	7.766656E-17
3.022972E+03	2.671928E-16	7.767798E-17
3.023371E+03	2.672970E-16	7.769786E-17
3.023571E+03	2.673631E-16	7.771184E-17
3.023771E+03	2.674154E-16	7.772179E-17
3.024971E+03	2.675196E-16	7.772068E-17
3.025171E+03	2.675579E-16	7.772656E-17
3.025771E+03	2.676170E-16	7.772801E-17
3.025971E+03	2.676275E-16	7.772581E-17
3.027772E+03	2.677077E-16	7.770182E-17
3.027972E+03	2.676902E-16	7.769151E-17
3.028972E+03	2.677146E-16	7.767232E-17
3.031972E+03	2.678299E-16	7.762681E-17
3.032172E+03	2.677846E-16	7.760843E-17
3.032372E+03	2.677392E-16	7.759001E-17
3.033773E+03	2.677290E-16	7.755014E-17
3.033973E+03	2.676558E-16	7.752366E-17
3.034372E+03	2.675791E-16	7.749094E-17
3.034573E+03	2.674919E-16	7.746040E-17
3.034773E+03	2.673769E-16	7.742182E-17
3.035372E+03	2.672827E-16	7.737877E-17
3.036172E+03	2.672130E-16	7.733752E-17
3.036772E+03	2.670770E-16	7.728235E-17
3.036972E+03	2.669061E-16	7.722762E-17
3.037372E+03	2.667316E-16	7.716661E-17
3.038172E+03	2.665780E-16	7.710114E-17
3.038372E+03	2.664210E-16	7.705045E-17
3.038572E+03	2.662080E-16	7.698361E-17
3.038772E+03	2.660230E-16	7.692485E-17
3.038972E+03	2.658100E-16	7.685802E-17
3.040373E+03	2.656458E-16	7.677375E-17
3.040973E+03	2.654257E-16	7.669439E-17
3.041173E+03	2.651707E-16	7.661548E-17
3.042573E+03	2.649504E-16	7.651511E-17
3.042773E+03	2.646813E-16	7.643217E-17
3.043173E+03	2.643808E-16	7.633491E-17
3.044173E+03	2.641533E-16	7.624306E-17
3.044373E+03	2.638422E-16	7.614804E-17
3.044773E+03	2.634995E-16	7.603868E-17
3.045173E+03	2.631429E-16	7.592534E-17
3.045373E+03	2.627757E-16	7.581419E-17
3.045574E+03	2.623806E-16	7.569498E-17
3.046174E+03	2.620342E-16	7.557942E-17
3.047573E+03	2.617010E-16	7.544699E-17
3.048573E+03	2.613749E-16	7.532702E-17
3.048973E+03	2.609759E-16	7.520164E-17
3.049173E+03	2.605245E-16	7.506640E-17
3.050373E+03	2.601384E-16	7.492411E-17
3.050573E+03	2.597009E-16	7.479294E-17
3.052574E+03	2.593137E-16	7.462977E-17
3.052774E+03	2.588200E-16	7.448252E-17
3.052974E+03	2.582981E-16	7.432719E-17
3.055574E+03	2.579411E-16	7.415752E-17
3.058575E+03	2.575902E-16	7.397948E-17
3.059974E+03	2.571009E-16	7.380298E-17
3.061174E+03	2.566294E-16	7.363681E-17
3.061374E+03	2.560646E-16	7.346960E-17
3.061774E+03	2.554959E-16	7.329621E-17
3.062174E+03	2.549411E-16	7.312683E-17
3.065175E+03	2.544902E-16	7.292089E-17
3.066775E+03	2.539677E-16	7.273033E-17
3.069375E+03	2.534956E-16	7.252890E-17
3.071376E+03	2.529928E-16	7.233405E-17
3.071575E+03	2.523705E-16	7.215107E-17
3.072975E+03	2.517524E-16	7.193882E-17
3.073575E+03	2.511079E-16	7.173944E-17
3.075175E+03	2.504994E-16	7.152512E-17
3.075775E+03	2.498403E-16	7.132180E-17
3.076576E+03	2.491630E-16	7.110826E-17
3.077776E+03	2.485054E-16	7.089045E-17
3.079976E+03	2.478834E-16	7.065778E-17
3.081576E+03	2.472309E-16	7.043172E-17
3.081776E+03	2.464804E-16	7.021291E-17
3.081977E+03	2.457299E-16	6.999411E-17
3.082177E+03	2.449651E-16	6.977131E-17
3.084176E+03	2.442890E-16	6.952918E-17
3.084776E+03	2.435294E-16	6.929814E-17
3.085776E+03	2.427752E-16	6.905885E-17
3.086376E+03	2.419730E-16	6.881588E-17
3.087176E+03	2.411944E-16	6.857482E-17
3.088577E+03	2.404025E-16	6.831540E-17
3.089577E+03	2.396330E-16	6.807231E-17
3.089777E+03	2.387823E-16	6.782578E-17
3.092977E+03	2.380620E-16	6.754349E-17
3.094178E+03	2.372305E-16	6.727846E-17
3.094778E+03	2.363416E-16	6.701187E-17
3.096377E+03	2.355286E-16	6.674284E-17
3.096577E+03	2.346058E-16	6.647655E-17
3.097177E+03	2.336880E-16	6.620211E-17
3.098577E+03	2.328219E-16	6.592338E-17
3.098777E+03	2.318704E-16	6.564921E-17
3.098977E+03	2.309330E-16	6.537908E-17
3.099177E+03	2.299531E-16	6.509695E-17
3.099977E+03	2.290153E-16	6.481267E-17
3.100178E+03	2.280351E-16	6.453058E-17
3.100378E+03	2.270407E-16	6.424453E-17
3.100778E+03	2.260413E-16	6.395245E-17
3.102178E+03	2.250735E-16	6.364629E-17
3.102578E+03	2.240453E-16	6.334634E-17
3.102778E+03	2.230503E-16	6.306042E-17
3.103378E+03	2.220167E-16	6.275454E-17
3.103578E+03	2.209932E-16	6.246069E-17
3.104978E+03	2.199951E-16	6.214692E-17
3.105578E+03	2.189466E-16	6.183721E-17
3.106179E+03	2.178838E-16	6.152356E-17
3.107178E+03	2.168241E-16	6.120203E-17
3.107579E+03	2.157376E-16	6.088645E-17
3.108978E+03	2.146807E-16	6.055720E-17
3.109178E+03	2.135707E-16	6.023969E-17
3.109978E+03	2.124584E-16	5.990842E-17
3.110178E+03	2.113198E-16	5.958300E-17
3.110578E+03	2.101755E-16	5.925169E-17
3.110778E+03	2.090225E-16	5.892233E-17
3.111178E+03	2.078637E-16	5.858708E-17
3.111378E+03	2.066821E-16	5.824979E-17
3.111978E+03	2.054889E-16	5.790077E-17
3.112379E+03	2.043155E-16	5.756167E-17
3.113379E+03	2.031243E-16	5.720507E-17
3.114179E+03	2.019385E-16	5.685442E-17
3.114779E+03	2.007157E-16	5.649769E-17
3.115379E+03	1.995352E-16	5.615300E-17
3.115579E+03	1.982813E-16	5.579604E-17
3.115979E+03	1.970497E-16	5.544132E-17
3.116779E+03	1.958056E-16	5.507504E-17
3.118180E+03	1.945993E-16	5.470748E-17
3.118380E+03	1.933304E-16	5.434675E-17
3.119380E+03	1.920645E-16	5.397098E-17
3.119780E+03	1.907888E-16	5.360459E-17
3.119979E+03	1.894767E-16	5.323203E-17
3.120179E+03	1.881645E-16	5.285946E-17
3.120379E+03	1.868380E-16	5.248295E-17
3.120979E+03	1.855551E-16	5.211102E-17
3.121179E+03	1.842283E-16	5.173456E-17
3.121379E+03	1.829155E-16	5.136212E-17
3.121579E+03	1.815601E-16	5.097775E-17
3.121779E+03	1.802188E-16	5.059739E-17
3.121979E+03	1.788631E-16	5.021305E-17
3.122579E+03	1.774936E-16	4.981752E-17
3.122779E+03	1.761517E-16	4.943724E-17
3.122979E+03	1.747673E-16	4.904505E-17
3.123379E+03	1.733898E-16	4.865128E-17
3.123779E+03	1.720263E-16	4.826154E-17
3.123979E+03	1.706555E-16	4.787342E-17
3.124380E+03	1.692491E-16	4.747181E-17
3.124980E+03	1.678493E-16	4.706871E-17
3.125780E+03	1.664702E-16	4.666812E-17
3.125980E+03	1.650418E-16	4.626425E-17
3.126180E+03	1.636133E-16	4.586041E-17
3.126780E+03	1.621981E-16	4.545358E-17
3.127180E+03	1.607901E-16	4.505231E-17
3.127380E+03	1.593326E-16	4.464061E-17
3.127780E+03	1.578958E-16	4.423147E-17
3.127980E+03	1.564381E-16	4.381986E-17
3.129180E+03	1.549839E-16	4.339311E-17
3.129380E+03	1.535113E-16	4.297762E-17
3.129580E+03	1.520529E-16	4.256614E-17
3.130181E+03	1.506069E-16	4.215187E-17
3.130381E+03	1.491480E-16	4.174046E-17
3.130581E+03	1.476607E-16	4.132114E-17
3.130981E+03	1.461793E-16	4.090047E-17
3.131180E+03	1.446632E-16	4.047325E-17
3.132180E+03	1.431707E-16	4.004072E-17
3.132380E+03	1.416839E-16	3.962196E-17
3.132580E+03	1.402113E-16	3.920722E-17
3.132780E+03	1.386973E-16	3.878096E-17
3.133380E+03	1.371789E-16	3.834779E-17
3.133580E+03	1.356403E-16	3.791484E-17
3.133780E+03	1.341002E-16	3.748152E-17
3.133980E+03	1.325585E-16	3.704784E-17
3.134380E+03	1.310364E-16	3.661695E-17
3.134580E+03	1.294915E-16	3.618254E-17
3.134780E+03	1.279408E-16	3.574656E-17
3.135180E+03	1.263967E-16	3.530985E-17
3.135580E+03	1.248538E-16	3.487359E-17
3.135780E+03	1.232940E-16	3.443534E-17
3.136381E+03	1.217457E-16	3.399525E-17
3.136581E+03	1.201970E-16	3.356028E-17
3.137181E+03	1.186609E-16	3.312390E-17
3.137581E+03	1.171052E-16	3.268473E-17
3.137781E+03	1.155916E-16	3.225984E-17
3.137981E+03	1.140507E-16	3.182741E-17
3.138781E+03	1.124995E-16	3.138509E-17
3.138981E+03	1.109397E-16	3.094759E-17
3.139581E+03	1.094073E-16	3.051322E-17
3.140981E+03	1.078854E-16	3.007291E-17
3.141181E+03	1.063261E-16	2.963602E-17
3.141581E+03	1.047639E-16	2.919619E-17
3.141781E+03	1.032056E-16	2.875975E-17
3.141981E+03	1.016188E-16	2.831541E-17
3.142582E+03	1.000673E-16	2.787677E-17
3.142782E+03	9.850706E-17	2.744006E-17
3.143182E+03	9.691514E-17	2.699253E-17
3.143381E+03	9.532752E-17	2.654836E-17
3.144581E+03	9.375078E-17	2.609740E-17
3.144781E+03	9.216401E-17	2.565374E-17
3.144981E+03	9.059282E-17	2.521450E-17
3.145181E+03	8.902720E-17	2.477687E-17
3.145381E+03	8.746572E-17	2.434045E-17
3.145581E+03	8.586701E-17	2.389374E-17
3.145981E+03	8.430023E-17	2.345421E-17
3.146181E+03	8.275400E-17	2.302227E-17
3.146381E+03	8.116766E-17	2.257924E-17
3.146581E+03	7.958834E-17	2.213822E-17
3.146781E+03	7.800032E-17	2.169486E-17
3.147181E+03	7.641394E-17	2.125040E-17
3.147381E+03	7.484843E-17	2.081346E-17
3.147981E+03	7.328321E-17	2.037357E-17
3.148182E+03	7.174444E-17	1.994425E-17
3.148382E+03	7.017270E-17	1.950584E-17
3.148782E+03	6.861797E-17	1.907078E-17
3.148982E+03	6.708017E-17	1.864196E-17
3.149382E+03	6.550927E-17	1.820264E-17
3.149582E+03	6.394116E-17	1.776556E-17
3.149982E+03	6.236981E-17	1.732634E-17
3.150982E+03	6.084013E-17	1.689496E-17
3.151182E+03	5.929272E-17	1.646400E-17
3.151382E+03	5.774805E-17	1.603387E-17
3.151582E+03	5.619466E-17	1.560138E-17
3.151982E+03	5.468916E-17	1.518109E-17
3.152182E+03	5.317689E-17	1.476018E-17
3.152582E+03	5.162380E-17	1.432690E-17
3.152782E+03	5.008978E-17	1.390011E-17
3.152982E+03	4.857706E-17	1.347930E-17
3.153382E+03	4.707191E-17	1.305965E-17
3.153582E+03	4.553886E-17	1.263336E-17
3.154183E+03	4.401798E-17	1.220864E-17
3.154383E+03	4.254745E-17	1.179987E-17
3.154783E+03	4.107709E-17	1.139035E-17
3.155182E+03	3.957789E-17	1.097296E-17
3.155383E+03	3.806969E-17	1.055400E-17
3.155582E+03	3.660283E-17	1.014657E-17
3.155782E+03	3.512155E-17	9.735208E-18
3.156182E+03	3.364727E-17	9.325132E-18
3.157182E+03	3.220113E-17	8.920927E-18
3.157382E+03	3.074634E-17	8.517243E-18
3.157782E+03	2.931412E-17	8.119250E-18
3.158182E+03	2.785448E-17	7.713784E-18
3.158382E+03	2.638919E-17	7.307438E-18
3.158782E+03	2.496060E-17	6.910787E-18
3.158982E+03	2.351503E-17	6.510057E-18
3.159182E+03	2.210082E-17	6.118068E-18
3.159382E+03	2.071369E-17	5.733634E-18
3.159582E+03	1.930210E-17	5.342491E-18
3.159782E+03	1.789900E-17	4.953755E-18
3.159982E+03	1.653011E-17	4.574548E-18
3.160183E+03	1.512819E-17	4.186258E-18
3.160383E+03	1.373990E-17	3.801799E-18
3.160983E+03	1.241494E-17	3.434394E-18
3.161583E+03	1.107333E-17	3.062551E-18
3.161783E+03	9.751024E-18	2.696634E-18
3.162183E+03	8.413077E-18	2.326268E-18
3.162383E+03	7.068589E-18	1.954358E-18
3.162783E+03	5.763609E-18	1.593306E-18
3.162983E+03	4.435308E-18	1.226013E-18
3.163183E+03	3.137400E-18	8.671765E-19
3.163383E+03	1.822625E-18	5.037342E-19
3.163783E+03	5.254202E-19	1.451924E-19
3.163983E+03	-7.603394E-19	-2.100928E-19
3.164383E+03	-1.999924E-18	-5.525228E-19
3.164583E+03	-3.251213E-18	-8.981497E-19
3.164783E+03	-4.504901E-18	-1.244385E-18
3.164983E+03	-5.720728E-18	-1.580111E-18
3.165183E+03	-6.956429E-18	-1.921273E-18
3.165383E+03	-8.138075E-18	-2.247454E-18
3.165583E+03	-9.330709E-18	-2.576619E-18
3.166184E+03	-1.052520E-17	-2.905795E-18
3.166384E+03	-1.167902E-17	-3.224093E-18
3.166584E+03	-1.284210E-17	-3.544897E-18
3.166784E+03	-1.398192E-17	-3.859231E-18
3.167184E+03	-1.506743E-17	-4.158208E-18
3.167383E+03	-1.614887E-17	-4.456312E-18
3.167584E+03	-1.721893E-17	-4.751228E-18
3.167784E+03	-1.828047E-17	-5.043749E-18
3.168383E+03	-1.933085E-17	-5.332320E-18
3.168983E+03	-2.037288E-17	-5.618453E-18
3.169183E+03	-2.140333E-17	-5.902175E-18
3.169583E+03	-2.242190E-17	-6.182099E-18
3.169783E+03	-2.343536E-17	-6.461025E-18
3.169983E+03	-2.443600E-17	-6.736373E-18
3.170183E+03	-2.542237E-17	-7.007748E-18
3.170383E+03	-2.640166E-17	-7.277128E-18
3.170583E+03	-2.736382E-17	-7.541742E-18
3.170783E+03	-2.830884E-17	-7.801595E-18
3.170983E+03	-2.923388E-17	-8.055898E-18
3.171383E+03	-3.014304E-17	-8.305143E-18
3.171583E+03	-3.103239E-17	-8.549518E-18
3.171783E+03	-3.190317E-17	-8.788737E-18
3.171983E+03	-3.275393E-17	-9.022404E-18
3.172184E+03	-3.358755E-17	-9.251311E-18
3.172384E+03	-3.440115E-17	-9.474671E-18
3.172584E+03	-3.519617E-17	-9.692879E-18
3.173184E+03	-3.597421E-17	-9.904838E-18
3.173384E+03	-3.670914E-17	-1.010640E-17
3.173584E+03	-3.741256E-17	-1.029926E-17
3.173784E+03	-3.813902E-17	-1.049842E-17
3.173984E+03	-3.887413E-17	-1.069995E-17
3.174184E+03	-3.957200E-17	-1.089118E-17
3.174384E+03	-4.026848E-17	-1.108201E-17
3.174584E+03	-4.088032E-17	-1.124951E-17
3.174784E+03	-4.152667E-17	-1.142649E-17
3.174984E+03	-4.214580E-17	-1.159594E-17
3.175184E+03	-4.275924E-17	-1.176380E-17
3.175384E+03	-4.332391E-17	-1.191823E-17
3.175584E+03	-4.383837E-17	-1.205881E-17
3.175784E+03	-4.436006E-17	-1.220136E-17
3.175984E+03	-4.486743E-17	-1.233995E-17
3.176184E+03	-4.533893E-17	-1.246866E-17
3.176384E+03	-4.582341E-17	-1.260091E-17
3.176584E+03	-4.626628E-17	-1.272170E-17
3.176784E+03	-4.666466E-17	-1.283024E-17
3.176984E+03	-4.707456E-17	-1.294193E-17
3.177384E+03	-4.746355E-17	-1.304683E-17
3.177584E+03	-4.777154E-17	-1.313047E-17
3.177784E+03	-4.812123E-17	-1.322555E-17
3.177984E+03	-4.841779E-17	-1.330602E-17
3.178185E+03	-4.871295E-17	-1.338608E-17
3.178385E+03	-4.892336E-17	-1.344285E-17
3.178585E+03	-4.917401E-17	-1.351066E-17
3.178785E+03	-4.935141E-17	-1.355834E-17
3.179185E+03	-4.952230E-17	-1.360317E-17
3.179385E+03	-4.970117E-17	-1.365123E-17
3.179785E+03	-4.985631E-17	-1.369170E-17
3.180184E+03	-4.998848E-17	-1.372585E-17
3.180385E+03	-5.007111E-17	-1.374745E-17
3.180584E+03	-5.011923E-17	-1.375959E-17
3.180784E+03	-5.015012E-17	-1.376700E-17
3.180984E+03	-5.016807E-17	-1.377084E-17
3.181184E+03	-5.011558E-17	-1.375536E-17
3.181584E+03	-5.008103E-17	-1.374372E-17
3.181784E+03	-5.001559E-17	-1.372468E-17
3.181984E+03	-4.988976E-17	-1.368908E-17
3.182184E+03	-4.973371E-17	-1.364519E-17
3.182384E+03	-4.957622E-17	-1.360091E-17
3.182584E+03	-4.938132E-17	-1.354638E-17
3.182784E+03	-4.916340E-17	-1.348554E-17
3.182984E+03	-4.889512E-17	-1.341090E-17
3.183184E+03	-4.861243E-17	-1.333231E-17
3.183384E+03	-4.829377E-17	-1.324388E-17
3.183584E+03	-4.794775E-17	-1.314795E-17
3.183784E+03	-4.759307E-17	-1.304967E-17
3.183984E+03	-4.720095E-17	-1.294114E-17
3.184185E+03	-4.673833E-17	-1.281329E-17
3.184385E+03	-4.623394E-17	-1.267401E-17
3.184585E+03	-4.574245E-17	-1.253829E-17
3.184785E+03	-4.522502E-17	-1.239549E-17
3.185185E+03	-4.466774E-17	-1.224082E-17
3.185385E+03	-4.405954E-17	-1.207320E-17
3.185585E+03	-4.340814E-17	-1.189376E-17
3.185785E+03	-4.275091E-17	-1.171276E-17
3.185985E+03	-4.205478E-17	-1.152113E-17
3.186385E+03	-4.134164E-17	-1.132398E-17
3.186585E+03	-4.059354E-17	-1.111819E-17
3.186785E+03	-3.979500E-17	-1.089861E-17
3.186985E+03	-3.896472E-17	-1.067038E-17
3.187185E+03	-3.807968E-17	-1.042720E-17
3.187385E+03	-3.717153E-17	-1.017772E-17
3.187585E+03	-3.619563E-17	-9.909732E-18
3.187785E+03	-3.524413E-17	-9.648466E-18
3.187985E+03	-3.421193E-17	-9.365149E-18
3.188385E+03	-3.316090E-17	-9.076008E-18
3.188585E+03	-3.207663E-17	-8.778556E-18
3.188785E+03	-3.093180E-17	-8.464576E-18
3.189185E+03	-2.977518E-17	-8.146774E-18
3.189385E+03	-2.857393E-17	-7.817484E-18
3.189585E+03	-2.733802E-17	-7.478762E-18
3.189785E+03	-2.606744E-17	-7.130610E-18
3.190386E+03	-2.476286E-17	-6.772139E-18
3.190586E+03	-2.341992E-17	-6.404365E-18
3.190786E+03	-2.204229E-17	-6.027164E-18
3.191186E+03	-2.062653E-17	-5.639151E-18
3.191385E+03	-1.917368E-17	-5.241539E-18
3.191586E+03	-1.768181E-17	-4.833320E-18
3.191785E+03	-1.615234E-17	-4.414891E-18
3.191985E+03	-1.458240E-17	-3.985467E-18
3.192385E+03	-1.298492E-17	-3.548303E-18
3.192585E+03	-1.134533E-17	-3.100017E-18
3.192785E+03	-9.649675E-18	-2.636484E-18
3.192985E+03	-7.921731E-18	-2.164203E-18
3.193185E+03	-6.156454E-18	-1.681799E-18
3.193585E+03	-4.333844E-18	-1.183717E-18
3.193785E+03	-2.463533E-18	-6.728194E-19
3.193985E+03	-5.577569E-19	-1.523178E-19
3.194185E+03	1.380822E-18	3.770585E-19
3.194385E+03	3.364042E-18	9.185401E-19
3.194585E+03	5.392589E-18	1.472311E-18
3.194785E+03	7.466439E-18	2.038362E-18
3.194985E+03	9.585890E-18	2.616770E-18
3.195185E+03	1.175123E-17	3.207612E-18
3.195385E+03	1.396260E-17	3.810926E-18
3.195585E+03	1.622033E-17	4.426792E-18
3.195785E+03	1.852409E-17	5.055126E-18
3.196186E+03	2.087656E-17	5.696192E-18
3.196386E+03	2.327458E-17	6.349991E-18
3.196586E+03	2.571896E-17	7.016330E-18
3.196786E+03	2.821403E-17	7.696393E-18
3.197186E+03	3.075681E-17	8.388691E-18
3.197386E+03	3.334764E-17	9.094596E-18
3.198186E+03	3.599095E-17	9.812353E-18
3.198786E+03	3.868256E-17	1.054366E-17
3.198986E+03	4.141894E-17	1.128861E-17
3.199186E+03	4.420607E-17	1.204727E-17
3.199586E+03	4.704453E-17	1.281877E-17
3.199786E+03	4.993184E-17	1.360443E-17
3.199986E+03	5.286849E-17	1.440339E-17
3.200186E+03	5.586024E-17	1.521725E-17
3.200386E+03	5.779989E-17	1.574438E-17
3.200786E+03	5.997328E-17	1.633379E-17
3.200986E+03	6.267421E-17	1.706803E-17
3.201186E+03	6.536528E-17	1.779946E-17
3.201786E+03	6.829059E-17	1.859158E-17
3.201987E+03	7.129575E-17	1.940815E-17
3.202387E+03	7.375266E-17	2.007376E-17
3.202587E+03	7.575034E-17	2.061583E-17
3.203187E+03	7.900144E-17	2.149547E-17
3.203387E+03	8.142581E-17	2.215334E-17
3.203787E+03	8.449109E-17	2.298362E-17
3.204387E+03	8.354124E-17	2.271977E-17
3.204786E+03	8.440240E-17	2.295030E-17
3.205386E+03	8.765474E-17	2.382892E-17
3.205586E+03	7.666219E-17	2.083892E-17
3.205786E+03	7.664816E-17	2.083344E-17
3.206186E+03	7.011453E-17	1.905449E-17
3.207186E+03	7.163608E-17	1.946017E-17
3.207786E+03	7.344838E-17	1.994767E-17
3.208587E+03	7.248208E-17	1.967889E-17
3.208787E+03	7.471957E-17	2.028474E-17
3.208987E+03	7.652627E-17	2.077354E-17
3.209387E+03	7.752365E-17	2.104090E-17
3.209787E+03	7.749999E-17	2.103108E-17
3.209987E+03	7.662963E-17	2.079322E-17
3.210387E+03	7.488290E-17	2.031597E-17
3.210987E+03	7.263553E-17	1.970148E-17
3.211987E+03	7.012016E-17	1.901154E-17
3.212587E+03	6.727508E-17	1.823574E-17
3.212787E+03	6.302835E-17	1.708322E-17
3.213187E+03	5.840598E-17	1.582782E-17
3.213387E+03	5.299153E-17	1.435936E-17
3.213787E+03	4.718344E-17	1.278344E-17
3.214388E+03	4.715340E-17	1.277220E-17
3.214988E+03	4.257479E-17	1.152921E-17
3.215988E+03	3.798381E-17	1.028181E-17
3.216188E+03	3.678321E-17	9.956010E-18
3.216588E+03	3.435416E-17	9.297036E-18
3.216787E+03	3.390800E-17	9.175555E-18
