#wls	flux	fluxerr
1.600000E+03	1.050920E-16	3.849319E-17
1.640000E+03	1.088551E-16	3.983997E-17
1.680000E+03	1.125520E-16	4.115964E-17
1.720000E+03	1.161340E-16	4.243431E-17
1.760000E+03	1.195925E-16	4.366085E-17
1.800000E+03	1.228707E-16	4.481863E-17
1.840000E+03	1.259311E-16	4.589401E-17
1.880000E+03	1.287543E-16	4.688009E-17
1.920000E+03	1.312752E-16	4.775328E-17
1.960000E+03	1.334590E-16	4.850127E-17
2.000000E+03	1.352498E-16	4.910395E-17
2.040000E+03	1.366120E-16	4.954881E-17
2.080000E+03	1.374740E-16	4.981029E-17
2.120000E+03	1.377805E-16	4.986895E-17
2.160000E+03	1.374764E-16	4.970543E-17
2.200000E+03	1.364784E-16	4.929035E-17
2.240000E+03	1.347185E-16	4.860004E-17
2.280000E+03	1.321847E-16	4.763110E-17
2.320000E+03	1.289125E-16	4.639730E-17
2.360000E+03	1.250194E-16	4.494193E-17
2.400000E+03	1.206029E-16	4.330093E-17
2.440000E+03	1.157494E-16	4.150600E-17
2.480000E+03	1.105508E-16	3.959079E-17
2.520000E+03	1.050640E-16	3.757629E-17
2.560000E+03	9.935666E-17	3.548721E-17
2.600000E+03	9.348755E-17	3.334498E-17
2.640000E+03	8.751967E-17	3.117245E-17
2.680000E+03	8.150642E-17	2.898893E-17
2.720000E+03	7.550306E-17	2.681430E-17
2.760000E+03	6.956295E-17	2.466762E-17
2.800000E+03	6.373712E-17	2.256706E-17
2.840000E+03	5.807532E-17	2.053020E-17
2.880000E+03	5.262674E-17	1.857430E-17
2.920000E+03	4.743626E-17	1.671499E-17
2.960000E+03	4.254389E-17	1.496606E-17
3.000000E+03	3.798086E-17	1.333812E-17
3.010000E+03	3.689526E-17	1.295128E-17
3.020000E+03	3.583098E-17	1.257223E-17
3.030000E+03	3.478967E-17	1.220153E-17
3.040000E+03	3.377049E-17	1.183889E-17
3.050000E+03	3.277415E-17	1.148454E-17
3.060000E+03	3.180126E-17	1.113869E-17
3.070000E+03	3.085031E-17	1.080080E-17
3.080000E+03	2.992317E-17	1.047152E-17
3.090000E+03	2.901842E-17	1.015034E-17
3.100000E+03	2.813710E-17	9.837612E-18
3.110000E+03	2.727843E-17	9.533062E-18
3.120000E+03	2.644229E-17	9.236635E-18
3.130000E+03	2.562953E-17	8.948619E-18
3.140000E+03	2.483894E-17	8.668580E-18
3.150000E+03	2.407174E-17	8.396939E-18
3.160000E+03	2.332631E-17	8.133123E-18
3.170000E+03	2.260379E-17	7.877514E-18
3.180000E+03	2.190308E-17	7.629720E-18
3.190000E+03	2.122472E-17	7.389924E-18
3.200000E+03	2.056804E-17	7.157881E-18
3.210000E+03	1.993313E-17	6.933614E-18
3.220000E+03	1.931967E-17	6.717000E-18
3.230000E+03	1.872732E-17	6.507911E-18
3.240000E+03	1.815544E-17	6.306123E-18
3.250000E+03	1.760430E-17	6.111710E-18
3.260000E+03	1.707322E-17	5.924433E-18
3.270000E+03	1.656207E-17	5.744237E-18
3.280000E+03	1.607020E-17	5.570886E-18
3.290000E+03	1.559720E-17	5.404228E-18
3.300000E+03	1.514286E-17	5.244189E-18
3.310000E+03	1.470651E-17	5.090520E-18
3.320000E+03	1.428794E-17	4.943144E-18
3.330000E+03	1.388666E-17	4.801883E-18
3.340000E+03	1.350181E-17	4.666429E-18
3.350000E+03	1.313334E-17	4.536758E-18
3.360000E+03	1.278056E-17	4.412627E-18
3.370000E+03	1.244305E-17	4.293880E-18
3.380000E+03	1.212032E-17	4.180342E-18
3.390000E+03	1.181161E-17	4.071746E-18
3.400000E+03	1.151683E-17	3.968049E-18
3.410000E+03	1.123537E-17	3.869036E-18
3.420000E+03	1.096666E-17	3.774508E-18
3.430000E+03	1.071030E-17	3.684319E-18
3.440000E+03	1.046593E-17	3.598333E-18
3.450000E+03	1.023288E-17	3.516322E-18
3.460000E+03	1.001093E-17	3.438203E-18
3.470000E+03	9.799502E-18	3.363768E-18
3.480000E+03	9.598265E-18	3.292901E-18
3.490000E+03	9.406800E-18	3.225452E-18
3.500000E+03	9.224708E-18	3.161281E-18
3.510000E+03	9.051614E-18	3.100253E-18
3.520000E+03	8.887158E-18	3.042241E-18
3.530000E+03	8.730910E-18	2.987093E-18
3.540000E+03	8.582462E-18	2.934664E-18
3.550000E+03	8.441531E-18	2.884855E-18
3.560000E+03	8.307754E-18	2.837537E-18
3.570000E+03	8.180881E-18	2.792622E-18
3.580000E+03	8.060504E-18	2.749965E-18
3.590000E+03	7.946409E-18	2.709491E-18
3.600000E+03	7.838309E-18	2.671099E-18
3.610000E+03	7.736091E-18	2.634746E-18
3.620000E+03	7.639413E-18	2.600314E-18
3.630000E+03	7.548107E-18	2.567741E-18
3.640000E+03	7.461789E-18	2.536894E-18
3.650000E+03	7.380318E-18	2.507724E-18
3.660000E+03	7.303485E-18	2.480155E-18
3.670000E+03	7.231089E-18	2.454118E-18
3.680000E+03	7.163008E-18	2.429567E-18
3.690000E+03	7.099121E-18	2.406461E-18
3.700000E+03	7.039245E-18	2.384734E-18
3.710000E+03	6.983331E-18	2.364368E-18
3.720000E+03	6.931203E-18	2.345300E-18
3.730000E+03	6.882875E-18	2.327533E-18
3.740000E+03	6.838233E-18	2.311027E-18
3.750000E+03	6.797168E-18	2.295742E-18
3.760000E+03	6.759630E-18	2.281660E-18
3.770000E+03	6.725627E-18	2.268781E-18
3.780000E+03	6.695048E-18	2.257066E-18
3.790000E+03	6.667899E-18	2.246514E-18
3.800000E+03	6.644071E-18	2.237086E-18
3.810000E+03	6.623514E-18	2.228765E-18
3.820000E+03	6.606234E-18	2.221549E-18
3.830000E+03	6.592232E-18	2.215438E-18
3.840000E+03	6.581405E-18	2.210394E-18
3.850000E+03	6.573810E-18	2.206434E-18
3.860000E+03	6.569289E-18	2.203505E-18
3.870000E+03	6.567954E-18	2.201640E-18
3.880000E+03	6.569646E-18	2.200785E-18
3.890000E+03	6.574476E-18	2.200975E-18
3.900000E+03	6.582340E-18	2.202174E-18
3.910000E+03	6.593240E-18	2.204379E-18
3.920000E+03	6.607125E-18	2.207573E-18
3.930000E+03	6.623998E-18	2.211753E-18
3.940000E+03	6.643806E-18	2.216900E-18
3.950000E+03	6.666605E-18	2.223031E-18
3.960000E+03	6.692288E-18	2.230109E-18
3.970000E+03	6.720859E-18	2.238132E-18
3.980000E+03	6.752264E-18	2.247081E-18
3.990000E+03	6.786558E-18	2.256972E-18
4.000000E+03	6.823691E-18	2.267787E-18
4.010000E+03	6.863609E-18	2.279504E-18
4.020000E+03	6.906262E-18	2.292107E-18
4.030000E+03	6.951707E-18	2.305612E-18
4.040000E+03	6.999838E-18	2.319982E-18
4.050000E+03	7.050717E-18	2.335235E-18
4.060000E+03	7.104237E-18	2.351335E-18
4.070000E+03	7.160407E-18	2.368281E-18
4.080000E+03	7.219235E-18	2.386075E-18
4.090000E+03	7.280675E-18	2.404701E-18
4.100000E+03	7.344679E-18	2.424139E-18
4.110000E+03	7.411203E-18	2.444374E-18
4.120000E+03	7.480318E-18	2.465427E-18
4.130000E+03	7.551921E-18	2.487263E-18
4.140000E+03	7.626027E-18	2.509884E-18
4.150000E+03	7.702535E-18	2.533255E-18
4.160000E+03	7.781460E-18	2.557380E-18
4.170000E+03	7.862823E-18	2.582263E-18
4.180000E+03	7.946518E-18	2.607869E-18
4.190000E+03	8.032567E-18	2.634202E-18
4.200000E+03	8.120864E-18	2.661225E-18
4.210000E+03	8.211431E-18	2.688945E-18
4.220000E+03	8.304160E-18	2.717325E-18
4.230000E+03	8.399074E-18	2.746369E-18
4.240000E+03	8.496062E-18	2.776040E-18
4.250000E+03	8.595075E-18	2.806322E-18
4.260000E+03	8.696002E-18	2.837174E-18
4.270000E+03	8.798856E-18	2.868601E-18
4.280000E+03	8.903517E-18	2.900562E-18
4.290000E+03	9.009929E-18	2.933037E-18
4.300000E+03	9.117961E-18	2.965982E-18
4.310000E+03	9.227472E-18	2.999350E-18
4.320000E+03	9.338392E-18	3.033118E-18
4.330000E+03	9.450645E-18	3.067258E-18
4.340000E+03	9.564073E-18	3.101719E-18
4.350000E+03	9.678590E-18	3.136472E-18
4.360000E+03	9.794022E-18	3.171460E-18
4.370000E+03	9.910349E-18	3.206676E-18
4.380000E+03	1.002747E-17	3.242084E-18
4.390000E+03	1.014552E-17	3.277729E-18
4.400000E+03	1.026439E-17	3.313577E-18
4.410000E+03	1.038414E-17	3.349646E-18
4.420000E+03	1.050476E-17	3.385927E-18
4.430000E+03	1.062639E-17	3.422469E-18
4.440000E+03	1.074893E-17	3.459239E-18
4.450000E+03	1.087237E-17	3.496231E-18
4.460000E+03	1.099678E-17	3.533469E-18
4.470000E+03	1.112217E-17	3.570953E-18
4.480000E+03	1.124852E-17	3.608676E-18
4.490000E+03	1.137574E-17	3.646610E-18
4.500000E+03	1.150393E-17	3.684784E-18
4.510000E+03	1.163298E-17	3.723165E-18
4.520000E+03	1.176292E-17	3.761759E-18
4.530000E+03	1.189374E-17	3.800565E-18
4.540000E+03	1.202525E-17	3.839519E-18
4.550000E+03	1.215757E-17	3.878658E-18
4.560000E+03	1.229059E-17	3.917952E-18
4.570000E+03	1.242436E-17	3.957409E-18
4.580000E+03	1.255867E-17	3.996962E-18
4.590000E+03	1.269367E-17	4.036663E-18
4.600000E+03	1.282915E-17	4.076443E-18
4.610000E+03	1.296529E-17	4.116357E-18
4.620000E+03	1.310187E-17	4.156339E-18
4.630000E+03	1.323899E-17	4.196412E-18
4.640000E+03	1.337654E-17	4.236549E-18
4.650000E+03	1.351475E-17	4.276816E-18
4.660000E+03	1.365343E-17	4.317156E-18
4.670000E+03	1.379278E-17	4.357634E-18
4.680000E+03	1.393281E-17	4.398244E-18
4.690000E+03	1.407344E-17	4.438970E-18
4.700000E+03	1.421495E-17	4.479896E-18
4.710000E+03	1.435718E-17	4.520968E-18
4.720000E+03	1.450028E-17	4.562235E-18
4.730000E+03	1.464410E-17	4.603649E-18
4.740000E+03	1.478878E-17	4.645254E-18
4.750000E+03	1.493408E-17	4.686970E-18
4.760000E+03	1.508012E-17	4.728842E-18
4.770000E+03	1.522679E-17	4.770828E-18
4.780000E+03	1.537422E-17	4.812973E-18
4.790000E+03	1.552232E-17	4.855241E-18
4.800000E+03	1.567108E-17	4.897636E-18
4.810000E+03	1.582050E-17	4.940155E-18
4.820000E+03	1.597062E-17	4.982810E-18
4.830000E+03	1.612144E-17	5.025598E-18
4.840000E+03	1.627282E-17	5.068477E-18
4.850000E+03	1.642492E-17	5.111499E-18
4.860000E+03	1.657775E-17	5.154660E-18
4.870000E+03	1.673115E-17	5.197917E-18
4.880000E+03	1.688514E-17	5.241271E-18
4.890000E+03	1.703987E-17	5.284767E-18
4.900000E+03	1.719500E-17	5.328305E-18
4.910000E+03	1.735087E-17	5.371984E-18
4.920000E+03	1.750727E-17	5.415744E-18
4.930000E+03	1.766403E-17	5.459527E-18
4.940000E+03	1.782126E-17	5.503370E-18
4.950000E+03	1.797895E-17	5.547267E-18
4.960000E+03	1.813683E-17	5.591137E-18
4.970000E+03	1.829504E-17	5.635022E-18
4.980000E+03	1.845312E-17	5.678780E-18
4.990000E+03	1.861136E-17	5.722500E-18
5.000000E+03	1.876942E-17	5.766081E-18
5.010000E+03	1.892705E-17	5.809441E-18
5.020000E+03	1.908424E-17	5.852584E-18
5.030000E+03	1.924068E-17	5.895411E-18
5.040000E+03	1.939620E-17	5.937870E-18
5.050000E+03	1.955058E-17	5.979897E-18
5.060000E+03	1.970364E-17	6.021439E-18
5.070000E+03	1.985496E-17	6.062368E-18
5.080000E+03	2.000450E-17	6.102672E-18
5.090000E+03	2.015183E-17	6.142222E-18
5.100000E+03	2.029669E-17	6.180940E-18
5.110000E+03	2.043860E-17	6.218688E-18
5.120000E+03	2.057750E-17	6.255442E-18
5.130000E+03	2.071270E-17	6.291000E-18
5.140000E+03	2.084431E-17	6.325400E-18
5.150000E+03	2.097163E-17	6.358432E-18
5.160000E+03	2.109459E-17	6.390073E-18
5.170000E+03	2.121267E-17	6.420178E-18
5.180000E+03	2.132536E-17	6.448591E-18
5.190000E+03	2.143258E-17	6.475295E-18
5.200000E+03	2.153379E-17	6.500133E-18
5.210000E+03	2.162869E-17	6.523017E-18
5.220000E+03	2.171698E-17	6.543863E-18
5.230000E+03	2.179814E-17	6.562518E-18
5.240000E+03	2.187185E-17	6.578898E-18
5.250000E+03	2.193759E-17	6.592845E-18
5.260000E+03	2.199527E-17	6.604346E-18
5.270000E+03	2.204439E-17	6.613252E-18
5.280000E+03	2.208464E-17	6.619483E-18
5.290000E+03	2.211577E-17	6.622968E-18
5.300000E+03	2.213729E-17	6.623569E-18
5.310000E+03	2.214897E-17	6.621222E-18
5.320000E+03	2.215058E-17	6.615872E-18
5.330000E+03	2.214197E-17	6.607480E-18
5.340000E+03	2.212277E-17	6.595944E-18
5.350000E+03	2.209310E-17	6.581307E-18
5.360000E+03	2.205291E-17	6.563567E-18
5.370000E+03	2.200220E-17	6.542731E-18
5.380000E+03	2.194084E-17	6.518765E-18
5.390000E+03	2.186940E-17	6.491851E-18
5.400000E+03	2.178787E-17	6.461995E-18
5.410000E+03	2.169696E-17	6.429413E-18
5.420000E+03	2.159681E-17	6.394154E-18
5.430000E+03	2.148808E-17	6.356420E-18
5.440000E+03	2.137128E-17	6.316372E-18
5.450000E+03	2.124740E-17	6.274308E-18
5.460000E+03	2.111692E-17	6.230374E-18
5.470000E+03	2.098032E-17	6.184718E-18
5.480000E+03	2.083799E-17	6.137459E-18
5.490000E+03	2.069079E-17	6.088852E-18
5.500000E+03	2.053919E-17	6.039044E-18
5.510000E+03	2.038395E-17	5.988258E-18
5.520000E+03	2.022585E-17	5.936728E-18
5.530000E+03	2.006570E-17	5.884694E-18
5.540000E+03	1.990432E-17	5.832395E-18
5.550000E+03	1.974275E-17	5.780139E-18
5.560000E+03	1.958180E-17	5.728163E-18
5.570000E+03	1.942269E-17	5.676821E-18
5.580000E+03	1.926598E-17	5.626280E-18
5.590000E+03	1.911301E-17	5.576926E-18
5.600000E+03	1.896428E-17	5.528901E-18
5.610000E+03	1.882081E-17	5.482501E-18
5.620000E+03	1.868358E-17	5.438004E-18
5.630000E+03	1.855288E-17	5.395497E-18
5.640000E+03	1.842995E-17	5.355329E-18
5.650000E+03	1.831515E-17	5.317603E-18
5.660000E+03	1.820878E-17	5.282399E-18
5.670000E+03	1.811183E-17	5.249997E-18
5.680000E+03	1.802427E-17	5.220385E-18
5.690000E+03	1.794662E-17	5.193700E-18
5.700000E+03	1.787925E-17	5.170051E-18
5.710000E+03	1.782238E-17	5.149491E-18
5.720000E+03	1.777615E-17	5.132052E-18
5.730000E+03	1.774068E-17	5.117763E-18
5.740000E+03	1.771621E-17	5.106688E-18
5.750000E+03	1.770302E-17	5.098898E-18
5.760000E+03	1.770077E-17	5.094289E-18
5.770000E+03	1.771009E-17	5.093034E-18
5.780000E+03	1.773064E-17	5.095031E-18
5.790000E+03	1.776285E-17	5.100394E-18
5.800000E+03	1.780660E-17	5.109081E-18
5.810000E+03	1.786215E-17	5.121166E-18
5.820000E+03	1.792957E-17	5.136655E-18
5.830000E+03	1.800915E-17	5.155627E-18
5.840000E+03	1.810079E-17	5.178049E-18
5.850000E+03	1.820457E-17	5.203935E-18
5.860000E+03	1.832082E-17	5.233372E-18
5.870000E+03	1.844982E-17	5.266436E-18
5.880000E+03	1.859128E-17	5.303035E-18
5.890000E+03	1.874568E-17	5.343302E-18
5.900000E+03	1.891292E-17	5.387203E-18
5.910000E+03	1.909330E-17	5.434812E-18
5.920000E+03	1.928685E-17	5.486139E-18
5.930000E+03	1.949341E-17	5.541129E-18
5.940000E+03	1.971322E-17	5.599845E-18
5.950000E+03	1.994628E-17	5.662279E-18
5.960000E+03	2.019232E-17	5.728355E-18
5.970000E+03	2.045172E-17	5.798171E-18
5.980000E+03	2.072393E-17	5.871566E-18
5.990000E+03	2.100900E-17	5.948552E-18
6.000000E+03	2.130675E-17	6.029076E-18
6.010000E+03	2.161668E-17	6.112990E-18
6.020000E+03	2.193873E-17	6.200274E-18
6.030000E+03	2.227202E-17	6.290675E-18
6.040000E+03	2.261664E-17	6.384219E-18
6.050000E+03	2.297154E-17	6.480607E-18
6.060000E+03	2.333643E-17	6.579756E-18
6.070000E+03	2.371039E-17	6.681400E-18
6.080000E+03	2.409267E-17	6.785337E-18
6.090000E+03	2.448218E-17	6.891256E-18
6.100000E+03	2.487775E-17	6.998824E-18
6.110000E+03	2.527867E-17	7.107850E-18
6.120000E+03	2.568300E-17	7.217788E-18
6.130000E+03	2.608988E-17	7.328400E-18
6.140000E+03	2.649751E-17	7.439184E-18
6.150000E+03	2.690461E-17	7.549785E-18
6.160000E+03	2.730858E-17	7.659478E-18
6.170000E+03	2.770839E-17	7.767982E-18
6.180000E+03	2.810166E-17	7.874637E-18
6.190000E+03	2.848673E-17	7.978982E-18
6.200000E+03	2.886168E-17	8.080492E-18
6.210000E+03	2.922636E-17	8.179130E-18
6.220000E+03	2.958113E-17	8.275008E-18
6.230000E+03	2.992653E-17	8.368285E-18
6.240000E+03	3.026328E-17	8.459168E-18
6.250000E+03	3.059105E-17	8.547571E-18
6.260000E+03	3.091158E-17	8.633994E-18
6.270000E+03	3.122435E-17	8.718295E-18
6.280000E+03	3.153053E-17	8.800804E-18
6.290000E+03	3.183094E-17	8.881763E-18
6.300000E+03	3.212526E-17	8.961083E-18
6.310000E+03	3.241442E-17	9.039031E-18
6.320000E+03	3.269899E-17	9.115767E-18
6.330000E+03	3.297962E-17	9.191476E-18
6.340000E+03	3.325604E-17	9.266082E-18
6.350000E+03	3.352891E-17	9.339778E-18
6.360000E+03	3.379845E-17	9.412621E-18
6.370000E+03	3.406490E-17	9.484684E-18
6.380000E+03	3.432802E-17	9.555899E-18
6.390000E+03	3.458753E-17	9.626193E-18
6.400000E+03	3.484316E-17	9.695490E-18
6.410000E+03	3.509508E-17	9.763843E-18
6.420000E+03	3.534300E-17	9.831168E-18
6.430000E+03	3.558554E-17	9.897086E-18
6.440000E+03	3.582439E-17	9.962069E-18
6.450000E+03	3.605973E-17	1.002617E-17
6.460000E+03	3.629227E-17	1.008958E-17
6.470000E+03	3.652331E-17	1.015267E-17
6.480000E+03	3.675253E-17	1.021534E-17
6.490000E+03	3.698123E-17	1.027797E-17
6.500000E+03	3.720969E-17	1.034063E-17
6.510000E+03	3.743869E-17	1.040353E-17
6.520000E+03	3.766732E-17	1.046642E-17
6.530000E+03	3.789756E-17	1.052986E-17
6.540000E+03	3.812846E-17	1.059359E-17
6.550000E+03	3.836082E-17	1.065781E-17
6.560000E+03	3.859486E-17	1.072261E-17
6.570000E+03	3.883017E-17	1.078785E-17
6.580000E+03	3.906756E-17	1.085378E-17
6.590000E+03	3.930723E-17	1.092043E-17
6.600000E+03	3.954871E-17	1.098770E-17
6.610000E+03	3.979217E-17	1.105561E-17
6.620000E+03	4.003774E-17	1.112422E-17
6.630000E+03	4.028624E-17	1.119373E-17
6.640000E+03	4.053646E-17	1.126384E-17
6.650000E+03	4.078918E-17	1.133474E-17
6.660000E+03	4.104450E-17	1.140647E-17
6.670000E+03	4.130183E-17	1.147886E-17
6.680000E+03	4.156193E-17	1.155213E-17
6.690000E+03	4.182416E-17	1.162610E-17
6.700000E+03	4.208929E-17	1.170098E-17
6.710000E+03	4.235593E-17	1.177640E-17
6.720000E+03	4.262483E-17	1.185254E-17
6.730000E+03	4.289674E-17	1.192964E-17
6.740000E+03	4.317023E-17	1.200728E-17
6.750000E+03	4.344605E-17	1.208569E-17
6.760000E+03	4.372346E-17	1.216465E-17
6.770000E+03	4.400322E-17	1.224437E-17
6.780000E+03	4.428457E-17	1.232465E-17
6.790000E+03	4.456752E-17	1.240549E-17
6.800000E+03	4.485285E-17	1.248711E-17
6.810000E+03	4.513894E-17	1.256905E-17
6.820000E+03	4.542740E-17	1.265177E-17
6.830000E+03	4.571656E-17	1.273481E-17
6.840000E+03	4.600804E-17	1.281860E-17
6.850000E+03	4.630010E-17	1.290268E-17
6.860000E+03	4.659268E-17	1.298702E-17
6.870000E+03	4.688651E-17	1.307183E-17
6.880000E+03	4.718151E-17	1.315708E-17
6.890000E+03	4.747579E-17	1.324226E-17
6.900000E+03	4.777097E-17	1.332781E-17
6.910000E+03	4.806600E-17	1.341343E-17
6.920000E+03	4.836159E-17	1.349934E-17
6.930000E+03	4.865575E-17	1.358497E-17
6.940000E+03	4.894918E-17	1.367052E-17
6.950000E+03	4.924164E-17	1.375592E-17
6.960000E+03	4.953200E-17	1.384086E-17
6.970000E+03	4.982094E-17	1.392553E-17
6.980000E+03	5.010826E-17	1.400986E-17
6.990000E+03	5.039277E-17	1.409354E-17
7.000000E+03	5.067424E-17	1.417650E-17
7.010000E+03	5.095245E-17	1.425866E-17
7.020000E+03	5.122820E-17	1.434026E-17
7.030000E+03	5.149930E-17	1.442068E-17
7.040000E+03	5.176761E-17	1.450045E-17
7.050000E+03	5.203093E-17	1.457894E-17
7.060000E+03	5.229015E-17	1.465641E-17
7.070000E+03	5.254412E-17	1.473252E-17
7.080000E+03	5.279379E-17	1.480756E-17
7.090000E+03	5.303911E-17	1.488149E-17
7.100000E+03	5.327897E-17	1.495402E-17
7.110000E+03	5.351224E-17	1.502481E-17
7.120000E+03	5.374109E-17	1.509449E-17
7.130000E+03	5.396444E-17	1.516273E-17
7.140000E+03	5.418234E-17	1.522957E-17
7.150000E+03	5.439481E-17	1.529499E-17
7.160000E+03	5.460084E-17	1.535872E-17
7.170000E+03	5.480160E-17	1.542108E-17
7.180000E+03	5.499605E-17	1.548179E-17
7.190000E+03	5.518428E-17	1.554085E-17
7.200000E+03	5.536755E-17	1.559863E-17
7.210000E+03	5.554480E-17	1.565482E-17
7.220000E+03	5.571731E-17	1.570979E-17
7.230000E+03	5.588284E-17	1.576289E-17
7.240000E+03	5.604261E-17	1.581448E-17
7.250000E+03	5.619673E-17	1.586458E-17
7.260000E+03	5.634521E-17	1.591320E-17
7.270000E+03	5.648810E-17	1.596034E-17
7.280000E+03	5.662543E-17	1.600601E-17
7.290000E+03	5.675594E-17	1.604986E-17
7.300000E+03	5.688083E-17	1.609222E-17
7.310000E+03	5.700009E-17	1.613308E-17
7.320000E+03	5.711363E-17	1.617242E-17
7.330000E+03	5.722018E-17	1.620988E-17
7.340000E+03	5.732090E-17	1.624578E-17
7.350000E+03	5.741699E-17	1.628047E-17
7.360000E+03	5.750591E-17	1.631321E-17
7.370000E+03	5.758887E-17	1.634435E-17
7.380000E+03	5.766586E-17	1.637389E-17
7.390000E+03	5.773814E-17	1.640218E-17
7.400000E+03	5.780448E-17	1.642887E-17
7.410000E+03	5.786623E-17	1.645433E-17
7.420000E+03	5.792479E-17	1.647898E-17
7.430000E+03	5.797897E-17	1.650246E-17
7.440000E+03	5.803157E-17	1.652557E-17
7.450000E+03	5.808014E-17	1.654762E-17
7.460000E+03	5.812620E-17	1.656904E-17
7.470000E+03	5.816865E-17	1.658951E-17
7.480000E+03	5.820904E-17	1.660947E-17
7.490000E+03	5.824495E-17	1.662823E-17
7.500000E+03	5.827792E-17	1.664623E-17
7.510000E+03	5.830819E-17	1.666353E-17
7.520000E+03	5.833461E-17	1.667981E-17
7.530000E+03	5.836011E-17	1.669591E-17
7.540000E+03	5.838220E-17	1.671110E-17
7.550000E+03	5.840240E-17	1.672582E-17
7.560000E+03	5.841954E-17	1.673974E-17
7.570000E+03	5.843512E-17	1.675328E-17
7.580000E+03	5.844791E-17	1.676609E-17
7.590000E+03	5.845945E-17	1.677860E-17
7.600000E+03	5.846840E-17	1.679043E-17
7.610000E+03	5.847488E-17	1.680161E-17
7.620000E+03	5.848034E-17	1.681256E-17
7.630000E+03	5.848340E-17	1.682287E-17
7.640000E+03	5.848408E-17	1.683256E-17
7.650000E+03	5.848377E-17	1.684201E-17
7.660000E+03	5.848101E-17	1.685081E-17
7.670000E+03	5.847717E-17	1.685934E-17
7.680000E+03	5.846928E-17	1.686676E-17
7.690000E+03	5.846011E-17	1.687385E-17
7.700000E+03	5.844950E-17	1.688057E-17
7.710000E+03	5.843589E-17	1.688647E-17
7.720000E+03	5.842053E-17	1.689190E-17
7.730000E+03	5.840180E-17	1.689640E-17
7.740000E+03	5.837948E-17	1.689989E-17
7.750000E+03	5.835484E-17	1.690275E-17
7.760000E+03	5.832764E-17	1.690489E-17
