#wls	flux	fluxerr
1.600000E+03	1.689236E-16	2.188623E-17
1.640000E+03	1.748029E-16	2.264722E-17
1.680000E+03	1.805306E-16	2.338850E-17
1.720000E+03	1.860477E-16	2.410244E-17
1.760000E+03	1.913090E-16	2.478316E-17
1.800000E+03	1.962448E-16	2.542164E-17
1.840000E+03	2.007990E-16	2.601062E-17
1.880000E+03	2.049111E-16	2.654227E-17
1.920000E+03	2.084990E-16	2.700594E-17
1.960000E+03	2.114963E-16	2.739306E-17
2.000000E+03	2.138361E-16	2.769496E-17
2.040000E+03	2.154513E-16	2.790297E-17
2.080000E+03	2.162623E-16	2.800677E-17
2.120000E+03	2.162112E-16	2.799890E-17
2.160000E+03	2.152190E-16	2.786912E-17
2.200000E+03	2.132221E-16	2.760924E-17
2.240000E+03	2.101232E-16	2.720665E-17
2.280000E+03	2.058597E-16	2.665330E-17
2.320000E+03	2.005331E-16	2.596231E-17
2.360000E+03	1.942890E-16	2.515260E-17
2.400000E+03	1.872419E-16	2.423897E-17
2.440000E+03	1.794827E-16	2.323324E-17
2.480000E+03	1.710957E-16	2.214632E-17
2.520000E+03	1.621778E-16	2.099079E-17
2.560000E+03	1.528147E-16	1.977773E-17
2.600000E+03	1.431123E-16	1.852088E-17
2.640000E+03	1.331671E-16	1.723274E-17
2.680000E+03	1.230726E-16	1.592541E-17
2.720000E+03	1.129386E-16	1.461312E-17
2.760000E+03	1.028653E-16	1.330883E-17
2.800000E+03	9.295338E-17	1.202557E-17
2.840000E+03	8.329972E-17	1.077589E-17
2.880000E+03	7.400026E-17	9.572179E-18
2.920000E+03	6.515533E-17	8.427422E-18
2.960000E+03	5.686334E-17	7.354338E-18
3.000000E+03	4.919785E-17	6.362428E-18
3.010000E+03	4.738497E-17	6.127857E-18
3.020000E+03	4.561644E-17	5.899029E-18
3.030000E+03	4.389012E-17	5.675669E-18
3.040000E+03	4.220716E-17	5.457924E-18
3.050000E+03	4.056943E-17	5.246036E-18
3.060000E+03	3.897500E-17	5.039755E-18
3.070000E+03	3.742556E-17	4.839299E-18
3.080000E+03	3.592096E-17	4.644650E-18
3.090000E+03	3.446107E-17	4.455788E-18
3.100000E+03	3.304578E-17	4.272701E-18
3.110000E+03	3.167629E-17	4.095543E-18
3.120000E+03	3.035171E-17	3.924198E-18
3.130000E+03	2.907237E-17	3.758709E-18
3.140000E+03	2.783795E-17	3.599034E-18
3.150000E+03	2.664802E-17	3.445118E-18
3.160000E+03	2.550262E-17	3.296965E-18
3.170000E+03	2.440158E-17	3.154552E-18
3.180000E+03	2.334325E-17	3.017667E-18
3.190000E+03	2.232816E-17	2.886378E-18
3.200000E+03	2.135496E-17	2.760509E-18
3.210000E+03	2.042304E-17	2.639981E-18
3.220000E+03	1.953134E-17	2.524656E-18
3.230000E+03	1.867842E-17	2.414351E-18
3.240000E+03	1.786412E-17	2.309042E-18
3.250000E+03	1.708633E-17	2.208455E-18
3.260000E+03	1.634470E-17	2.112548E-18
3.270000E+03	1.563796E-17	2.021154E-18
3.280000E+03	1.496436E-17	1.934047E-18
3.290000E+03	1.432338E-17	1.851160E-18
3.300000E+03	1.371328E-17	1.772267E-18
3.310000E+03	1.313305E-17	1.697238E-18
3.320000E+03	1.258146E-17	1.625914E-18
3.330000E+03	1.205747E-17	1.558159E-18
3.340000E+03	1.155969E-17	1.493796E-18
3.350000E+03	1.108698E-17	1.432674E-18
3.360000E+03	1.063820E-17	1.374647E-18
3.370000E+03	1.021241E-17	1.319594E-18
3.380000E+03	9.808388E-18	1.267356E-18
3.390000E+03	9.425118E-18	1.217801E-18
3.400000E+03	9.061616E-18	1.170804E-18
3.410000E+03	8.716827E-18	1.126226E-18
3.420000E+03	8.389861E-18	1.083953E-18
3.430000E+03	8.079863E-18	1.043874E-18
3.440000E+03	7.785920E-18	1.005872E-18
3.450000E+03	7.507262E-18	9.698459E-19
3.460000E+03	7.243069E-18	9.356901E-19
3.470000E+03	6.992569E-18	9.033050E-19
3.480000E+03	6.755036E-18	8.725965E-19
3.490000E+03	6.529717E-18	8.434674E-19
3.500000E+03	6.316053E-18	8.158451E-19
3.510000E+03	6.113370E-18	7.896426E-19
3.520000E+03	5.920984E-18	7.647715E-19
3.530000E+03	5.738206E-18	7.411424E-19
3.540000E+03	5.564573E-18	7.186958E-19
3.550000E+03	5.399487E-18	6.973541E-19
3.560000E+03	5.242287E-18	6.770321E-19
3.570000E+03	5.092531E-18	6.576723E-19
3.580000E+03	4.949757E-18	6.392153E-19
3.590000E+03	4.813485E-18	6.215990E-19
3.600000E+03	4.683237E-18	6.047613E-19
3.610000E+03	4.558740E-18	5.886672E-19
3.620000E+03	4.439651E-18	5.732722E-19
3.630000E+03	4.325647E-18	5.585347E-19
3.640000E+03	4.216617E-18	5.444402E-19
3.650000E+03	4.112329E-18	5.309586E-19
3.660000E+03	4.012593E-18	5.180655E-19
3.670000E+03	3.917257E-18	5.057411E-19
3.680000E+03	3.826168E-18	4.939657E-19
3.690000E+03	3.739138E-18	4.827150E-19
3.700000E+03	3.656080E-18	4.719776E-19
3.710000E+03	3.576779E-18	4.617257E-19
3.720000E+03	3.501115E-18	4.519440E-19
3.730000E+03	3.428997E-18	4.426204E-19
3.740000E+03	3.360193E-18	4.337252E-19
3.750000E+03	3.294673E-18	4.252542E-19
3.760000E+03	3.232213E-18	4.171788E-19
3.770000E+03	3.172759E-18	4.094917E-19
3.780000E+03	3.116178E-18	4.021758E-19
3.790000E+03	3.062341E-18	3.952146E-19
3.800000E+03	3.011152E-18	3.885953E-19
3.810000E+03	2.962491E-18	3.823027E-19
3.820000E+03	2.916268E-18	3.763251E-19
3.830000E+03	2.872398E-18	3.706514E-19
3.840000E+03	2.830777E-18	3.652681E-19
3.850000E+03	2.791325E-18	3.601650E-19
3.860000E+03	2.753970E-18	3.553328E-19
3.870000E+03	2.718619E-18	3.507594E-19
3.880000E+03	2.685207E-18	3.464365E-19
3.890000E+03	2.653671E-18	3.423557E-19
3.900000E+03	2.623929E-18	3.385066E-19
3.910000E+03	2.595925E-18	3.348819E-19
3.920000E+03	2.569584E-18	3.314720E-19
3.930000E+03	2.544873E-18	3.282724E-19
3.940000E+03	2.521722E-18	3.252743E-19
3.950000E+03	2.500082E-18	3.224712E-19
3.960000E+03	2.479869E-18	3.198522E-19
3.970000E+03	2.461075E-18	3.174164E-19
3.980000E+03	2.443620E-18	3.151534E-19
3.990000E+03	2.427462E-18	3.130578E-19
4.000000E+03	2.412541E-18	3.111218E-19
4.010000E+03	2.398841E-18	3.093432E-19
4.020000E+03	2.386284E-18	3.077122E-19
4.030000E+03	2.374854E-18	3.062266E-19
4.040000E+03	2.364484E-18	3.048776E-19
4.050000E+03	2.355158E-18	3.036633E-19
4.060000E+03	2.346809E-18	3.025749E-19
4.070000E+03	2.339409E-18	3.016089E-19
4.080000E+03	2.332931E-18	3.007619E-19
4.090000E+03	2.327348E-18	3.000301E-19
4.100000E+03	2.322600E-18	2.994060E-19
4.110000E+03	2.318664E-18	2.988865E-19
4.120000E+03	2.315500E-18	2.984665E-19
4.130000E+03	2.313088E-18	2.981434E-19
4.140000E+03	2.311409E-18	2.979148E-19
4.150000E+03	2.310408E-18	2.977735E-19
4.160000E+03	2.310089E-18	2.977199E-19
4.170000E+03	2.310399E-18	2.977474E-19
4.180000E+03	2.311324E-18	2.978540E-19
4.190000E+03	2.312850E-18	2.980381E-19
4.200000E+03	2.314932E-18	2.982937E-19
4.210000E+03	2.317557E-18	2.986191E-19
4.220000E+03	2.320699E-18	2.990110E-19
4.230000E+03	2.324366E-18	2.994704E-19
4.240000E+03	2.328498E-18	2.999896E-19
4.250000E+03	2.333103E-18	3.005698E-19
4.260000E+03	2.338144E-18	3.012058E-19
4.270000E+03	2.343631E-18	3.018992E-19
4.280000E+03	2.349506E-18	3.026425E-19
4.290000E+03	2.355766E-18	3.034351E-19
4.300000E+03	2.362407E-18	3.042767E-19
4.310000E+03	2.369372E-18	3.051598E-19
4.320000E+03	2.376675E-18	3.060864E-19
4.330000E+03	2.384240E-18	3.070466E-19
4.340000E+03	2.392084E-18	3.080424E-19
4.350000E+03	2.400110E-18	3.090614E-19
4.360000E+03	2.408315E-18	3.101034E-19
4.370000E+03	2.416750E-18	3.111748E-19
4.380000E+03	2.425416E-18	3.122757E-19
4.390000E+03	2.434330E-18	3.134085E-19
4.400000E+03	2.443492E-18	3.145728E-19
4.410000E+03	2.452862E-18	3.157639E-19
4.420000E+03	2.462481E-18	3.169866E-19
4.430000E+03	2.472310E-18	3.182363E-19
4.440000E+03	2.482350E-18	3.195129E-19
4.450000E+03	2.492586E-18	3.208144E-19
4.460000E+03	2.503019E-18	3.221412E-19
4.470000E+03	2.513614E-18	3.234884E-19
4.480000E+03	2.524395E-18	3.248595E-19
4.490000E+03	2.535327E-18	3.262497E-19
4.500000E+03	2.546397E-18	3.276575E-19
4.510000E+03	2.557634E-18	3.290865E-19
4.520000E+03	2.568988E-18	3.305302E-19
4.530000E+03	2.580468E-18	3.319900E-19
4.540000E+03	2.592090E-18	3.334677E-19
4.550000E+03	2.603827E-18	3.349600E-19
4.560000E+03	2.615699E-18	3.364694E-19
4.570000E+03	2.627682E-18	3.379927E-19
4.580000E+03	2.639796E-18	3.395327E-19
4.590000E+03	2.652045E-18	3.410898E-19
4.600000E+03	2.664431E-18	3.426641E-19
4.610000E+03	2.676934E-18	3.442532E-19
4.620000E+03	2.689602E-18	3.458633E-19
4.630000E+03	2.702395E-18	3.474892E-19
4.640000E+03	2.715338E-18	3.491341E-19
4.650000E+03	2.728437E-18	3.507987E-19
4.660000E+03	2.741671E-18	3.524803E-19
4.670000E+03	2.755094E-18	3.541859E-19
4.680000E+03	2.768660E-18	3.559097E-19
4.690000E+03	2.782399E-18	3.576552E-19
4.700000E+03	2.796364E-18	3.594296E-19
4.710000E+03	2.810537E-18	3.612303E-19
4.720000E+03	2.824946E-18	3.630611E-19
4.730000E+03	2.839625E-18	3.649262E-19
4.740000E+03	2.854581E-18	3.668265E-19
4.750000E+03	2.869821E-18	3.687629E-19
4.760000E+03	2.885401E-18	3.707428E-19
4.770000E+03	2.901283E-18	3.727609E-19
4.780000E+03	2.917522E-18	3.748247E-19
4.790000E+03	2.934129E-18	3.769353E-19
4.800000E+03	2.951089E-18	3.790908E-19
4.810000E+03	2.968462E-18	3.812991E-19
4.820000E+03	2.986234E-18	3.835581E-19
4.830000E+03	3.004416E-18	3.858693E-19
4.840000E+03	3.023021E-18	3.882344E-19
4.850000E+03	3.042060E-18	3.906549E-19
4.860000E+03	3.061604E-18	3.931397E-19
4.870000E+03	3.081585E-18	3.956802E-19
4.880000E+03	3.102073E-18	3.982852E-19
4.890000E+03	3.123055E-18	4.009533E-19
4.900000E+03	3.144577E-18	4.036901E-19
4.910000E+03	3.166627E-18	4.064941E-19
4.920000E+03	3.189219E-18	4.093673E-19
4.930000E+03	3.212402E-18	4.123157E-19
4.940000E+03	3.236130E-18	4.153336E-19
4.950000E+03	3.260452E-18	4.184270E-19
4.960000E+03	3.285379E-18	4.215977E-19
4.970000E+03	3.310931E-18	4.248478E-19
4.980000E+03	3.337089E-18	4.281751E-19
4.990000E+03	3.363866E-18	4.315812E-19
5.000000E+03	3.391308E-18	4.350720E-19
5.010000E+03	3.419363E-18	4.386406E-19
5.020000E+03	3.448107E-18	4.422971E-19
5.030000E+03	3.477485E-18	4.460341E-19
5.040000E+03	3.507507E-18	4.498530E-19
5.050000E+03	3.538215E-18	4.537592E-19
5.060000E+03	3.569584E-18	4.577494E-19
5.070000E+03	3.601621E-18	4.618244E-19
5.080000E+03	3.634298E-18	4.659808E-19
5.090000E+03	3.667654E-18	4.702234E-19
5.100000E+03	3.701694E-18	4.745529E-19
5.110000E+03	3.736352E-18	4.789606E-19
5.120000E+03	3.771666E-18	4.834518E-19
5.130000E+03	3.807637E-18	4.880262E-19
5.140000E+03	3.844270E-18	4.926844E-19
5.150000E+03	3.881530E-18	4.974222E-19
5.160000E+03	3.919418E-18	5.022395E-19
5.170000E+03	3.957900E-18	5.071319E-19
5.180000E+03	3.997055E-18	5.121096E-19
5.190000E+03	4.036809E-18	5.171631E-19
5.200000E+03	4.077166E-18	5.222927E-19
5.210000E+03	4.118129E-18	5.274989E-19
5.220000E+03	4.159742E-18	5.327874E-19
5.230000E+03	4.201928E-18	5.381481E-19
5.240000E+03	4.244686E-18	5.435811E-19
5.250000E+03	4.288101E-18	5.490970E-19
5.260000E+03	4.332049E-18	5.546800E-19
5.270000E+03	4.376611E-18	5.603405E-19
5.280000E+03	4.421741E-18	5.660725E-19
5.290000E+03	4.467435E-18	5.718755E-19
5.300000E+03	4.513730E-18	5.777542E-19
5.310000E+03	4.560530E-18	5.836963E-19
5.320000E+03	4.607869E-18	5.897061E-19
5.330000E+03	4.655734E-18	5.957819E-19
5.340000E+03	4.704110E-18	6.019218E-19
5.350000E+03	4.753029E-18	6.081299E-19
5.360000E+03	4.802376E-18	6.143913E-19
5.370000E+03	4.852172E-18	6.207089E-19
5.380000E+03	4.902392E-18	6.270792E-19
5.390000E+03	4.952954E-18	6.334919E-19
5.400000E+03	5.003919E-18	6.399547E-19
5.410000E+03	5.055199E-18	6.464563E-19
5.420000E+03	5.106699E-18	6.529846E-19
5.430000E+03	5.158367E-18	6.595329E-19
5.440000E+03	5.210203E-18	6.661012E-19
5.450000E+03	5.262045E-18	6.726687E-19
5.460000E+03	5.313884E-18	6.792343E-19
5.470000E+03	5.365651E-18	6.857893E-19
5.480000E+03	5.417174E-18	6.923114E-19
5.490000E+03	5.468371E-18	6.987904E-19
5.500000E+03	5.519218E-18	7.052230E-19
5.510000E+03	5.569574E-18	7.115914E-19
5.520000E+03	5.619291E-18	7.178766E-19
5.530000E+03	5.668213E-18	7.240588E-19
5.540000E+03	5.716353E-18	7.301394E-19
5.550000E+03	5.763430E-18	7.360828E-19
5.560000E+03	5.809388E-18	7.418817E-19
5.570000E+03	5.854049E-18	7.475135E-19
5.580000E+03	5.897293E-18	7.529630E-19
5.590000E+03	5.938995E-18	7.582141E-19
5.600000E+03	5.978969E-18	7.632432E-19
5.610000E+03	6.017146E-18	7.680414E-19
5.620000E+03	6.053336E-18	7.725849E-19
5.630000E+03	6.087350E-18	7.768492E-19
5.640000E+03	6.119188E-18	7.808346E-19
5.650000E+03	6.148667E-18	7.845178E-19
5.660000E+03	6.175611E-18	7.878765E-19
5.670000E+03	6.199976E-18	7.909049E-19
5.680000E+03	6.221731E-18	7.935995E-19
5.690000E+03	6.240658E-18	7.959324E-19
5.700000E+03	6.256749E-18	7.979026E-19
5.710000E+03	6.270001E-18	7.995100E-19
5.720000E+03	6.280297E-18	8.007398E-19
5.730000E+03	6.287661E-18	8.015949E-19
5.740000E+03	6.291993E-18	8.020630E-19
5.750000E+03	6.293339E-18	8.021500E-19
5.760000E+03	6.291689E-18	8.018546E-19
5.770000E+03	6.287109E-18	8.011854E-19
5.780000E+03	6.279471E-18	8.001263E-19
5.790000E+03	6.268993E-18	7.987051E-19
5.800000E+03	6.255565E-18	7.969081E-19
5.810000E+03	6.239292E-18	7.947484E-19
5.820000E+03	6.220216E-18	7.922318E-19
5.830000E+03	6.198391E-18	7.893652E-19
5.840000E+03	6.173951E-18	7.861658E-19
5.850000E+03	6.146968E-18	7.826429E-19
5.860000E+03	6.117529E-18	7.788075E-19
5.870000E+03	6.085663E-18	7.746638E-19
5.880000E+03	6.051612E-18	7.702422E-19
5.890000E+03	6.015424E-18	7.655493E-19
5.900000E+03	5.977290E-18	7.606094E-19
5.910000E+03	5.937271E-18	7.554303E-19
5.920000E+03	5.895570E-18	7.500381E-19
5.930000E+03	5.852323E-18	7.444499E-19
5.940000E+03	5.807663E-18	7.386828E-19
5.950000E+03	5.761727E-18	7.327544E-19
5.960000E+03	5.714647E-18	7.266814E-19
5.970000E+03	5.666617E-18	7.204886E-19
5.980000E+03	5.617632E-18	7.141754E-19
5.990000E+03	5.567943E-18	7.077739E-19
6.000000E+03	5.517604E-18	7.012908E-19
6.010000E+03	5.466726E-18	6.947403E-19
6.020000E+03	5.415481E-18	6.881443E-19
6.030000E+03	5.363844E-18	6.814998E-19
6.040000E+03	5.312040E-18	6.748353E-19
6.050000E+03	5.260037E-18	6.681465E-19
6.060000E+03	5.207984E-18	6.614528E-19
6.070000E+03	5.155965E-18	6.547646E-19
6.080000E+03	5.103998E-18	6.480843E-19
6.090000E+03	5.052156E-18	6.414210E-19
6.100000E+03	5.000507E-18	6.347836E-19
6.110000E+03	4.949119E-18	6.281807E-19
6.120000E+03	4.898054E-18	6.216198E-19
6.130000E+03	4.847365E-18	6.151081E-19
6.140000E+03	4.797105E-18	6.086521E-19
6.150000E+03	4.747325E-18	6.022581E-19
6.160000E+03	4.698125E-18	5.959391E-19
6.170000E+03	4.649608E-18	5.897080E-19
6.180000E+03	4.601868E-18	5.835766E-19
6.190000E+03	4.554934E-18	5.775487E-19
6.200000E+03	4.508835E-18	5.716279E-19
6.210000E+03	4.463538E-18	5.658099E-19
6.220000E+03	4.419066E-18	5.600977E-19
6.230000E+03	4.375437E-18	5.544935E-19
6.240000E+03	4.332613E-18	5.489924E-19
6.250000E+03	4.290667E-18	5.436037E-19
6.260000E+03	4.249725E-18	5.383433E-19
6.270000E+03	4.209740E-18	5.332052E-19
6.280000E+03	4.170777E-18	5.281976E-19
6.290000E+03	4.132956E-18	5.233356E-19
6.300000E+03	4.096223E-18	5.186124E-19
6.310000E+03	4.060749E-18	5.140496E-19
6.320000E+03	4.026593E-18	5.096544E-19
6.330000E+03	3.993693E-18	5.054192E-19
6.340000E+03	3.962219E-18	5.013652E-19
6.350000E+03	3.932222E-18	4.974990E-19
6.360000E+03	3.903698E-18	4.938198E-19
6.370000E+03	3.876700E-18	4.903344E-19
6.380000E+03	3.851389E-18	4.870630E-19
6.390000E+03	3.827704E-18	4.839979E-19
6.400000E+03	3.805700E-18	4.811458E-19
6.410000E+03	3.785482E-18	4.785200E-19
6.420000E+03	3.766879E-18	4.760988E-19
6.430000E+03	3.749774E-18	4.738673E-19
6.440000E+03	3.734109E-18	4.718181E-19
6.450000E+03	3.719826E-18	4.699438E-19
6.460000E+03	3.706810E-18	4.682298E-19
6.470000E+03	3.695057E-18	4.666754E-19
6.480000E+03	3.684510E-18	4.652735E-19
6.490000E+03	3.675166E-18	4.640236E-19
6.500000E+03	3.666965E-18	4.629183E-19
6.510000E+03	3.659909E-18	4.619572E-19
6.520000E+03	3.653993E-18	4.611402E-19
6.530000E+03	3.649159E-18	4.604596E-19
6.540000E+03	3.645462E-18	4.599223E-19
6.550000E+03	3.642902E-18	4.595284E-19
6.560000E+03	3.641420E-18	4.592702E-19
6.570000E+03	3.641072E-18	4.591548E-19
6.580000E+03	3.641801E-18	4.591749E-19
6.590000E+03	3.643604E-18	4.593302E-19
6.600000E+03	3.646541E-18	4.596280E-19
6.610000E+03	3.650493E-18	4.600534E-19
6.620000E+03	3.655639E-18	4.606287E-19
6.630000E+03	3.661800E-18	4.613314E-19
6.640000E+03	3.669098E-18	4.621768E-19
6.650000E+03	3.677470E-18	4.631570E-19
6.660000E+03	3.686922E-18	4.642725E-19
6.670000E+03	3.697513E-18	4.655307E-19
6.680000E+03	3.709186E-18	4.669245E-19
6.690000E+03	3.721940E-18	4.684536E-19
6.700000E+03	3.735780E-18	4.701185E-19
6.710000E+03	3.750771E-18	4.719275E-19
6.720000E+03	3.766787E-18	4.738644E-19
6.730000E+03	3.783963E-18	4.759463E-19
6.740000E+03	3.802234E-18	4.781649E-19
6.750000E+03	3.821605E-18	4.805208E-19
6.760000E+03	3.842080E-18	4.830145E-19
6.770000E+03	3.863663E-18	4.856461E-19
6.780000E+03	3.886426E-18	4.884250E-19
6.790000E+03	3.910239E-18	4.913345E-19
6.800000E+03	3.935171E-18	4.943834E-19
6.810000E+03	3.961228E-18	4.975722E-19
6.820000E+03	3.988418E-18	5.009018E-19
6.830000E+03	4.016742E-18	5.043724E-19
6.840000E+03	4.046207E-18	5.079848E-19
6.850000E+03	4.076818E-18	5.117394E-19
6.860000E+03	4.108504E-18	5.156274E-19
6.870000E+03	4.141344E-18	5.196586E-19
6.880000E+03	4.175343E-18	5.238333E-19
6.890000E+03	4.210428E-18	5.281426E-19
6.900000E+03	4.246680E-18	5.325963E-19
6.910000E+03	4.284103E-18	5.371951E-19
6.920000E+03	4.322620E-18	5.419291E-19
6.930000E+03	4.362234E-18	5.467985E-19
6.940000E+03	4.403027E-18	5.518137E-19
6.950000E+03	4.444921E-18	5.569646E-19
6.960000E+03	4.487916E-18	5.622514E-19
6.970000E+03	4.532099E-18	5.676849E-19
6.980000E+03	4.577389E-18	5.732546E-19
6.990000E+03	4.623784E-18	5.789604E-19
7.000000E+03	4.671197E-18	5.847912E-19
7.010000E+03	4.719807E-18	5.907694E-19
7.020000E+03	4.769527E-18	5.968841E-19
7.030000E+03	4.820359E-18	6.031352E-19
7.040000E+03	4.872206E-18	6.095107E-19
7.050000E+03	4.925164E-18	6.160226E-19
7.060000E+03	4.979134E-18	6.226582E-19
7.070000E+03	5.034314E-18	6.294424E-19
7.080000E+03	5.090405E-18	6.363376E-19
7.090000E+03	5.147605E-18	6.433686E-19
7.100000E+03	5.205808E-18	6.505219E-19
7.110000E+03	5.265120E-18	6.578108E-19
7.120000E+03	5.325323E-18	6.652079E-19
7.130000E+03	5.386627E-18	6.727393E-19
7.140000E+03	5.448811E-18	6.803776E-19
7.150000E+03	5.511977E-18	6.881352E-19
7.160000E+03	5.576121E-18	6.960116E-19
7.170000E+03	5.641237E-18	7.040061E-19
7.180000E+03	5.707201E-18	7.121029E-19
7.190000E+03	5.774000E-18	7.203006E-19
7.200000E+03	5.841748E-18	7.286130E-19
7.210000E+03	5.910310E-18	7.370236E-19
7.220000E+03	5.979803E-18	7.455466E-19
7.230000E+03	6.049959E-18	7.541487E-19
7.240000E+03	6.121022E-18	7.628602E-19
7.250000E+03	6.192849E-18	7.716633E-19
7.260000E+03	6.265427E-18	7.805560E-19
7.270000E+03	6.338737E-18	7.895363E-19
7.280000E+03	6.412762E-18	7.986019E-19
7.290000E+03	6.487487E-18	8.077507E-19
7.300000E+03	6.563036E-18	8.169982E-19
7.310000E+03	6.639102E-18	8.263062E-19
7.320000E+03	6.716106E-18	8.357269E-19
7.330000E+03	6.793887E-18	8.452403E-19
7.340000E+03	6.872275E-18	8.548252E-19
7.350000E+03	6.951717E-18	8.645371E-19
7.360000E+03	7.031887E-18	8.743355E-19
7.370000E+03	7.113258E-18	8.842788E-19
7.380000E+03	7.195663E-18	8.943466E-19
7.390000E+03	7.279266E-18	9.045591E-19
7.400000E+03	7.364239E-18	9.149374E-19
7.410000E+03	7.450592E-18	9.254827E-19
7.420000E+03	7.538690E-18	9.362402E-19
7.430000E+03	7.628736E-18	9.472352E-19
7.440000E+03	7.720585E-18	9.584494E-19
7.450000E+03	7.814269E-18	9.698866E-19
7.460000E+03	7.909815E-18	9.815500E-19
7.470000E+03	8.007063E-18	9.934198E-19
7.480000E+03	8.105839E-18	1.005474E-18
7.490000E+03	8.205959E-18	1.017690E-18
7.500000E+03	8.307424E-18	1.030068E-18
7.510000E+03	8.410034E-18	1.042582E-18
7.520000E+03	8.513574E-18	1.055207E-18
7.530000E+03	8.618238E-18	1.067965E-18
7.540000E+03	8.723589E-18	1.080804E-18
7.550000E+03	8.829600E-18	1.093719E-18
7.560000E+03	8.936242E-18	1.106706E-18
7.570000E+03	9.043488E-18	1.119763E-18
7.580000E+03	9.151306E-18	1.132886E-18
7.590000E+03	9.259436E-18	1.146042E-18
7.600000E+03	9.367832E-18	1.159225E-18
7.610000E+03	9.476687E-18	1.172460E-18
7.620000E+03	9.585722E-18	1.185711E-18
7.630000E+03	9.695130E-18	1.199004E-18
7.640000E+03	9.804367E-18	1.212269E-18
7.650000E+03	9.913867E-18	1.225562E-18
7.660000E+03	1.002332E-17	1.238844E-18
7.670000E+03	1.013266E-17	1.252106E-18
7.680000E+03	1.024180E-17	1.265339E-18
7.690000E+03	1.035095E-17	1.278568E-18
7.700000E+03	1.045976E-17	1.291748E-18
7.710000E+03	1.056813E-17	1.304871E-18
7.720000E+03	1.067626E-17	1.317958E-18
7.730000E+03	1.078407E-17	1.331000E-18
7.740000E+03	1.089118E-17	1.343950E-18
7.750000E+03	1.099777E-17	1.356832E-18
7.760000E+03	1.110376E-17	1.369634E-18
