#wls	flux	fluxerr
1.600000E+03	1.430795E-16	2.063613E-17
1.640000E+03	1.477143E-16	2.130437E-17
1.680000E+03	1.521757E-16	2.194759E-17
1.720000E+03	1.563928E-16	2.255553E-17
1.760000E+03	1.603500E-16	2.312599E-17
1.800000E+03	1.639687E-16	2.364760E-17
1.840000E+03	1.671974E-16	2.411293E-17
1.880000E+03	1.700103E-16	2.451829E-17
1.920000E+03	1.723235E-16	2.485156E-17
1.960000E+03	1.740958E-16	2.510681E-17
2.000000E+03	1.752608E-16	2.527446E-17
2.040000E+03	1.757824E-16	2.534931E-17
2.080000E+03	1.755807E-16	2.531985E-17
2.120000E+03	1.746016E-16	2.517825E-17
2.160000E+03	1.727949E-16	2.491733E-17
2.200000E+03	1.700798E-16	2.452540E-17
2.240000E+03	1.663994E-16	2.399428E-17
2.280000E+03	1.617705E-16	2.332641E-17
2.320000E+03	1.562695E-16	2.253278E-17
2.360000E+03	1.500708E-16	2.163858E-17
2.400000E+03	1.433201E-16	2.066482E-17
2.440000E+03	1.361454E-16	1.962994E-17
2.480000E+03	1.286766E-16	1.855270E-17
2.520000E+03	1.209989E-16	1.744535E-17
2.560000E+03	1.132049E-16	1.632128E-17
2.600000E+03	1.053733E-16	1.519184E-17
2.640000E+03	9.758356E-17	1.406847E-17
2.680000E+03	8.989975E-17	1.296041E-17
2.720000E+03	8.238418E-17	1.187665E-17
2.760000E+03	7.509327E-17	1.082532E-17
2.800000E+03	6.807747E-17	9.813688E-18
2.840000E+03	6.138282E-17	8.848398E-18
2.880000E+03	5.505222E-17	7.935629E-18
2.920000E+03	4.912204E-17	7.080620E-18
2.960000E+03	4.362217E-17	6.287678E-18
3.000000E+03	3.857259E-17	5.559679E-18
3.010000E+03	3.738288E-17	5.388160E-18
3.020000E+03	3.622108E-17	5.220668E-18
3.030000E+03	3.508868E-17	5.057415E-18
3.040000E+03	3.398464E-17	4.898251E-18
3.050000E+03	3.290948E-17	4.743252E-18
3.060000E+03	3.186357E-17	4.592471E-18
3.070000E+03	3.084522E-17	4.445664E-18
3.080000E+03	2.985608E-17	4.303070E-18
3.090000E+03	2.889452E-17	4.164451E-18
3.100000E+03	2.796132E-17	4.029924E-18
3.110000E+03	2.705553E-17	3.899346E-18
3.120000E+03	2.617673E-17	3.772662E-18
3.130000E+03	2.532552E-17	3.649955E-18
3.140000E+03	2.450047E-17	3.531020E-18
3.150000E+03	2.370251E-17	3.415992E-18
3.160000E+03	2.292981E-17	3.304605E-18
3.170000E+03	2.218318E-17	3.196977E-18
3.180000E+03	2.146130E-17	3.092917E-18
3.190000E+03	2.076445E-17	2.992466E-18
3.200000E+03	2.009172E-17	2.895493E-18
3.210000E+03	1.944296E-17	2.801975E-18
3.220000E+03	1.881762E-17	2.711833E-18
3.230000E+03	1.821513E-17	2.624986E-18
3.240000E+03	1.763468E-17	2.541317E-18
3.250000E+03	1.707630E-17	2.460830E-18
3.260000E+03	1.653917E-17	2.383405E-18
3.270000E+03	1.602297E-17	2.308997E-18
3.280000E+03	1.552691E-17	2.237495E-18
3.290000E+03	1.505044E-17	2.168815E-18
3.300000E+03	1.459325E-17	2.102914E-18
3.310000E+03	1.415456E-17	2.039681E-18
3.320000E+03	1.373404E-17	1.979067E-18
3.330000E+03	1.333114E-17	1.920993E-18
3.340000E+03	1.294496E-17	1.865328E-18
3.350000E+03	1.257533E-17	1.812051E-18
3.360000E+03	1.222158E-17	1.761061E-18
3.370000E+03	1.188319E-17	1.712287E-18
3.380000E+03	1.155967E-17	1.665654E-18
3.390000E+03	1.125023E-17	1.621052E-18
3.400000E+03	1.095472E-17	1.578458E-18
3.410000E+03	1.067253E-17	1.537783E-18
3.420000E+03	1.040308E-17	1.498946E-18
3.430000E+03	1.014597E-17	1.461886E-18
3.440000E+03	9.900769E-18	1.426543E-18
3.450000E+03	9.666848E-18	1.392826E-18
3.460000E+03	9.443964E-18	1.360700E-18
3.470000E+03	9.231523E-18	1.330079E-18
3.480000E+03	9.029194E-18	1.300915E-18
3.490000E+03	8.836546E-18	1.273147E-18
3.500000E+03	8.653174E-18	1.246715E-18
3.510000E+03	8.478692E-18	1.221565E-18
3.520000E+03	8.312736E-18	1.197643E-18
3.530000E+03	8.154868E-18	1.174887E-18
3.540000E+03	8.004684E-18	1.153239E-18
3.550000E+03	7.861886E-18	1.132655E-18
3.560000E+03	7.726109E-18	1.113083E-18
3.570000E+03	7.597095E-18	1.094485E-18
3.580000E+03	7.474438E-18	1.076804E-18
3.590000E+03	7.357913E-18	1.060006E-18
3.600000E+03	7.247233E-18	1.044051E-18
3.610000E+03	7.142267E-18	1.028919E-18
3.620000E+03	7.042677E-18	1.014562E-18
3.630000E+03	6.948286E-18	1.000954E-18
3.640000E+03	6.858721E-18	9.880415E-19
3.650000E+03	6.773830E-18	9.758024E-19
3.660000E+03	6.693402E-18	9.642065E-19
3.670000E+03	6.617235E-18	9.532244E-19
3.680000E+03	6.545198E-18	9.428376E-19
3.690000E+03	6.477162E-18	9.330273E-19
3.700000E+03	6.412944E-18	9.237671E-19
3.710000E+03	6.352482E-18	9.150481E-19
3.720000E+03	6.295602E-18	9.068452E-19
3.730000E+03	6.242300E-18	8.991578E-19
3.740000E+03	6.192459E-18	8.919691E-19
3.750000E+03	6.145968E-18	8.852628E-19
3.760000E+03	6.102764E-18	8.790303E-19
3.770000E+03	6.062843E-18	8.732707E-19
3.780000E+03	6.026093E-18	8.679678E-19
3.790000E+03	5.992504E-18	8.631204E-19
3.800000E+03	5.961966E-18	8.587125E-19
3.810000E+03	5.934420E-18	8.547356E-19
3.820000E+03	5.909857E-18	8.511882E-19
3.830000E+03	5.888266E-18	8.480691E-19
3.840000E+03	5.869540E-18	8.453625E-19
3.850000E+03	5.853716E-18	8.430739E-19
3.860000E+03	5.840640E-18	8.411811E-19
3.870000E+03	5.830398E-18	8.396965E-19
3.880000E+03	5.822836E-18	8.385978E-19
3.890000E+03	5.818040E-18	8.378975E-19
3.900000E+03	5.815907E-18	8.375806E-19
3.910000E+03	5.816426E-18	8.376456E-19
3.920000E+03	5.819544E-18	8.380849E-19
3.930000E+03	5.825250E-18	8.388968E-19
3.940000E+03	5.833493E-18	8.400740E-19
3.950000E+03	5.844311E-18	8.416218E-19
3.960000E+03	5.857604E-18	8.435261E-19
3.970000E+03	5.873368E-18	8.457861E-19
3.980000E+03	5.891550E-18	8.483942E-19
3.990000E+03	5.912191E-18	8.513564E-19
4.000000E+03	5.935244E-18	8.546656E-19
4.010000E+03	5.960658E-18	8.583148E-19
4.020000E+03	5.988383E-18	8.622965E-19
4.030000E+03	6.018467E-18	8.666177E-19
4.040000E+03	6.050812E-18	8.712645E-19
4.050000E+03	6.085468E-18	8.762438E-19
4.060000E+03	6.122341E-18	8.815421E-19
4.070000E+03	6.161430E-18	8.871594E-19
4.080000E+03	6.202742E-18	8.930965E-19
4.090000E+03	6.246229E-18	8.993466E-19
4.100000E+03	6.291847E-18	9.059033E-19
4.110000E+03	6.339553E-18	9.127604E-19
4.120000E+03	6.389400E-18	9.199256E-19
4.130000E+03	6.441296E-18	9.273855E-19
4.140000E+03	6.495248E-18	9.351412E-19
4.150000E+03	6.551162E-18	9.431790E-19
4.160000E+03	6.609043E-18	9.514998E-19
4.170000E+03	6.668900E-18	9.601050E-19
4.180000E+03	6.730638E-18	9.689805E-19
4.190000E+03	6.794265E-18	9.781277E-19
4.200000E+03	6.859682E-18	9.875323E-19
4.210000E+03	6.926897E-18	9.971953E-19
4.220000E+03	6.995808E-18	1.007102E-18
4.230000E+03	7.066421E-18	1.017254E-18
4.240000E+03	7.138632E-18	1.027635E-18
4.250000E+03	7.212388E-18	1.038239E-18
4.260000E+03	7.287579E-18	1.049048E-18
4.270000E+03	7.364203E-18	1.060064E-18
4.280000E+03	7.442146E-18	1.071269E-18
4.290000E+03	7.521345E-18	1.082655E-18
4.300000E+03	7.601676E-18	1.094203E-18
4.310000E+03	7.683009E-18	1.105895E-18
4.320000E+03	7.765271E-18	1.117720E-18
4.330000E+03	7.848385E-18	1.129668E-18
4.340000E+03	7.932208E-18	1.141717E-18
4.350000E+03	8.016656E-18	1.153855E-18
4.360000E+03	8.101576E-18	1.166061E-18
4.370000E+03	8.186939E-18	1.178331E-18
4.380000E+03	8.272654E-18	1.190651E-18
4.390000E+03	8.358826E-18	1.203036E-18
4.400000E+03	8.445365E-18	1.215474E-18
4.410000E+03	8.532318E-18	1.227970E-18
4.420000E+03	8.619663E-18	1.240523E-18
4.430000E+03	8.707529E-18	1.253150E-18
4.440000E+03	8.795830E-18	1.265840E-18
4.450000E+03	8.884558E-18	1.278590E-18
4.460000E+03	8.973776E-18	1.291411E-18
4.470000E+03	9.063483E-18	1.304301E-18
4.480000E+03	9.153676E-18	1.317261E-18
4.490000E+03	9.244279E-18	1.330279E-18
4.500000E+03	9.335373E-18	1.343368E-18
4.510000E+03	9.426887E-18	1.356516E-18
4.520000E+03	9.518828E-18	1.369726E-18
4.530000E+03	9.611209E-18	1.382998E-18
4.540000E+03	9.703879E-18	1.396312E-18
4.550000E+03	9.796937E-18	1.409681E-18
4.560000E+03	9.890321E-18	1.423096E-18
4.570000E+03	9.984050E-18	1.436560E-18
4.580000E+03	1.007798E-17	1.450054E-18
4.590000E+03	1.017222E-17	1.463590E-18
4.600000E+03	1.026665E-17	1.477153E-18
4.610000E+03	1.036136E-17	1.490757E-18
4.620000E+03	1.045624E-17	1.504384E-18
4.630000E+03	1.055130E-17	1.518037E-18
4.640000E+03	1.064653E-17	1.531714E-18
4.650000E+03	1.074207E-17	1.545434E-18
4.660000E+03	1.083777E-17	1.559177E-18
4.670000E+03	1.093382E-17	1.572969E-18
4.680000E+03	1.103016E-17	1.586805E-18
4.690000E+03	1.112680E-17	1.600680E-18
4.700000E+03	1.122390E-17	1.614623E-18
4.710000E+03	1.132135E-17	1.628616E-18
4.720000E+03	1.141925E-17	1.642671E-18
4.730000E+03	1.151748E-17	1.656774E-18
4.740000E+03	1.161613E-17	1.670936E-18
4.750000E+03	1.171499E-17	1.685129E-18
4.760000E+03	1.181416E-17	1.699365E-18
4.770000E+03	1.191352E-17	1.713628E-18
4.780000E+03	1.201317E-17	1.727933E-18
4.790000E+03	1.211302E-17	1.742264E-18
4.800000E+03	1.221303E-17	1.756620E-18
4.810000E+03	1.231322E-17	1.771000E-18
4.820000E+03	1.241358E-17	1.785403E-18
4.830000E+03	1.251410E-17	1.799829E-18
4.840000E+03	1.261467E-17	1.814260E-18
4.850000E+03	1.271537E-17	1.828712E-18
4.860000E+03	1.281624E-17	1.843185E-18
4.870000E+03	1.291711E-17	1.857659E-18
4.880000E+03	1.301797E-17	1.872130E-18
4.890000E+03	1.311895E-17	1.886618E-18
4.900000E+03	1.321977E-17	1.901082E-18
4.910000E+03	1.332065E-17	1.915555E-18
4.920000E+03	1.342146E-17	1.930016E-18
4.930000E+03	1.352202E-17	1.944440E-18
4.940000E+03	1.362244E-17	1.958843E-18
4.950000E+03	1.372267E-17	1.973220E-18
4.960000E+03	1.382255E-17	1.987543E-18
4.970000E+03	1.392214E-17	2.001825E-18
4.980000E+03	1.402113E-17	2.016020E-18
4.990000E+03	1.411972E-17	2.030157E-18
5.000000E+03	1.421772E-17	2.044208E-18
5.010000E+03	1.431490E-17	2.058140E-18
5.020000E+03	1.441132E-17	2.071962E-18
5.030000E+03	1.450675E-17	2.085642E-18
5.040000E+03	1.460109E-17	2.099164E-18
5.050000E+03	1.469426E-17	2.112516E-18
5.060000E+03	1.478612E-17	2.125679E-18
5.070000E+03	1.487642E-17	2.138618E-18
5.080000E+03	1.496519E-17	2.151335E-18
5.090000E+03	1.505214E-17	2.163790E-18
5.100000E+03	1.513714E-17	2.175965E-18
5.110000E+03	1.521990E-17	2.187817E-18
5.120000E+03	1.530044E-17	2.199348E-18
5.130000E+03	1.537828E-17	2.210491E-18
5.140000E+03	1.545359E-17	2.221269E-18
5.150000E+03	1.552590E-17	2.231614E-18
5.160000E+03	1.559518E-17	2.241525E-18
5.170000E+03	1.566114E-17	2.250957E-18
5.180000E+03	1.572346E-17	2.259864E-18
5.190000E+03	1.578210E-17	2.268243E-18
5.200000E+03	1.583675E-17	2.276047E-18
5.210000E+03	1.588724E-17	2.283253E-18
5.220000E+03	1.593341E-17	2.289839E-18
5.230000E+03	1.597493E-17	2.295754E-18
5.240000E+03	1.601164E-17	2.300978E-18
5.250000E+03	1.604325E-17	2.305468E-18
5.260000E+03	1.606974E-17	2.309221E-18
5.270000E+03	1.609083E-17	2.312199E-18
5.280000E+03	1.610639E-17	2.314381E-18
5.290000E+03	1.611630E-17	2.315752E-18
5.300000E+03	1.612032E-17	2.316275E-18
5.310000E+03	1.611835E-17	2.315937E-18
5.320000E+03	1.611031E-17	2.314727E-18
5.330000E+03	1.609618E-17	2.312642E-18
5.340000E+03	1.607577E-17	2.309654E-18
5.350000E+03	1.604924E-17	2.305787E-18
5.360000E+03	1.601662E-17	2.301044E-18
5.370000E+03	1.597797E-17	2.295435E-18
5.380000E+03	1.593321E-17	2.288948E-18
5.390000E+03	1.588277E-17	2.281646E-18
5.400000E+03	1.582664E-17	2.273526E-18
5.410000E+03	1.576530E-17	2.264657E-18
5.420000E+03	1.569880E-17	2.255047E-18
5.430000E+03	1.562754E-17	2.244754E-18
5.440000E+03	1.555176E-17	2.233813E-18
5.450000E+03	1.547208E-17	2.222309E-18
5.460000E+03	1.538863E-17	2.210266E-18
5.470000E+03	1.530162E-17	2.197711E-18
5.480000E+03	1.521109E-17	2.184651E-18
5.490000E+03	1.511742E-17	2.171141E-18
5.500000E+03	1.502073E-17	2.157197E-18
5.510000E+03	1.492126E-17	2.142855E-18
5.520000E+03	1.481933E-17	2.128159E-18
5.530000E+03	1.471523E-17	2.113152E-18
5.540000E+03	1.460924E-17	2.097874E-18
5.550000E+03	1.450184E-17	2.082394E-18
5.560000E+03	1.439331E-17	2.066753E-18
5.570000E+03	1.428427E-17	2.051039E-18
5.580000E+03	1.417485E-17	2.035271E-18
5.590000E+03	1.406578E-17	2.019553E-18
5.600000E+03	1.395717E-17	2.003902E-18
5.610000E+03	1.384956E-17	1.988396E-18
5.620000E+03	1.374346E-17	1.973107E-18
5.630000E+03	1.363895E-17	1.958045E-18
5.640000E+03	1.353677E-17	1.943320E-18
5.650000E+03	1.343709E-17	1.928954E-18
5.660000E+03	1.334004E-17	1.914965E-18
5.670000E+03	1.324630E-17	1.901452E-18
5.680000E+03	1.315582E-17	1.888408E-18
5.690000E+03	1.306894E-17	1.875882E-18
5.700000E+03	1.298599E-17	1.863919E-18
5.710000E+03	1.290713E-17	1.852544E-18
5.720000E+03	1.283251E-17	1.841777E-18
5.730000E+03	1.276224E-17	1.831636E-18
5.740000E+03	1.269657E-17	1.822154E-18
5.750000E+03	1.263573E-17	1.813367E-18
5.760000E+03	1.257953E-17	1.805245E-18
5.770000E+03	1.252844E-17	1.797857E-18
5.780000E+03	1.248224E-17	1.791170E-18
5.790000E+03	1.244125E-17	1.785232E-18
5.800000E+03	1.240537E-17	1.780027E-18
5.810000E+03	1.237477E-17	1.775578E-18
5.820000E+03	1.234946E-17	1.771890E-18
5.830000E+03	1.232961E-17	1.768984E-18
5.840000E+03	1.231508E-17	1.766842E-18
5.850000E+03	1.230588E-17	1.765464E-18
5.860000E+03	1.230214E-17	1.764868E-18
5.870000E+03	1.230399E-17	1.765075E-18
5.880000E+03	1.231117E-17	1.766046E-18
5.890000E+03	1.232391E-17	1.767814E-18
5.900000E+03	1.234206E-17	1.770358E-18
5.910000E+03	1.236572E-17	1.773691E-18
5.920000E+03	1.239487E-17	1.777811E-18
5.930000E+03	1.242933E-17	1.782692E-18
5.940000E+03	1.246918E-17	1.788346E-18
5.950000E+03	1.251437E-17	1.794765E-18
5.960000E+03	1.256469E-17	1.801918E-18
5.970000E+03	1.262034E-17	1.809835E-18
5.980000E+03	1.268096E-17	1.818465E-18
5.990000E+03	1.274661E-17	1.827813E-18
6.000000E+03	1.281716E-17	1.837864E-18
6.010000E+03	1.289238E-17	1.848583E-18
6.020000E+03	1.297226E-17	1.859970E-18
6.030000E+03	1.305637E-17	1.871962E-18
6.040000E+03	1.314489E-17	1.884584E-18
6.050000E+03	1.323732E-17	1.897767E-18
6.060000E+03	1.333367E-17	1.911508E-18
6.070000E+03	1.343357E-17	1.925759E-18
6.080000E+03	1.353687E-17	1.940494E-18
6.090000E+03	1.364317E-17	1.955659E-18
6.100000E+03	1.375212E-17	1.971202E-18
6.110000E+03	1.386365E-17	1.987113E-18
6.120000E+03	1.397703E-17	2.003287E-18
6.130000E+03	1.409219E-17	2.019716E-18
6.140000E+03	1.420855E-17	2.036314E-18
6.150000E+03	1.432585E-17	2.053046E-18
6.160000E+03	1.444314E-17	2.069774E-18
6.170000E+03	1.456031E-17	2.086482E-18
6.180000E+03	1.467656E-17	2.103058E-18
6.190000E+03	1.479142E-17	2.119434E-18
6.200000E+03	1.490424E-17	2.135514E-18
6.210000E+03	1.501511E-17	2.151315E-18
6.220000E+03	1.512435E-17	2.166879E-18
6.230000E+03	1.523230E-17	2.182257E-18
6.240000E+03	1.533937E-17	2.197508E-18
6.250000E+03	1.544540E-17	2.212607E-18
6.260000E+03	1.555124E-17	2.227678E-18
6.270000E+03	1.565659E-17	2.242677E-18
6.280000E+03	1.576200E-17	2.257683E-18
6.290000E+03	1.586781E-17	2.272745E-18
6.300000E+03	1.597379E-17	2.287828E-18
6.310000E+03	1.608034E-17	2.302992E-18
6.320000E+03	1.618767E-17	2.318267E-18
6.330000E+03	1.629603E-17	2.333686E-18
6.340000E+03	1.640522E-17	2.349223E-18
6.350000E+03	1.651550E-17	2.364915E-18
6.360000E+03	1.662692E-17	2.380767E-18
6.370000E+03	1.673952E-17	2.396787E-18
6.380000E+03	1.685314E-17	2.412951E-18
6.390000E+03	1.696757E-17	2.429229E-18
6.400000E+03	1.708263E-17	2.445595E-18
6.410000E+03	1.719834E-17	2.462053E-18
6.420000E+03	1.731450E-17	2.478573E-18
6.430000E+03	1.743040E-17	2.495053E-18
6.440000E+03	1.754678E-17	2.511602E-18
6.450000E+03	1.766371E-17	2.528227E-18
6.460000E+03	1.778148E-17	2.544969E-18
6.470000E+03	1.790066E-17	2.561912E-18
6.480000E+03	1.802106E-17	2.579027E-18
6.490000E+03	1.814328E-17	2.596401E-18
6.500000E+03	1.826741E-17	2.614045E-18
6.510000E+03	1.839377E-17	2.632008E-18
6.520000E+03	1.852193E-17	2.650225E-18
6.530000E+03	1.865279E-17	2.668827E-18
6.540000E+03	1.878587E-17	2.687744E-18
6.550000E+03	1.892156E-17	2.707032E-18
6.560000E+03	1.905992E-17	2.726700E-18
6.570000E+03	1.920076E-17	2.746719E-18
6.580000E+03	1.934443E-17	2.767142E-18
6.590000E+03	1.949104E-17	2.787984E-18
6.600000E+03	1.964036E-17	2.809210E-18
6.610000E+03	1.979245E-17	2.830828E-18
6.620000E+03	1.994737E-17	2.852851E-18
6.630000E+03	2.010554E-17	2.875335E-18
6.640000E+03	2.026636E-17	2.898196E-18
6.650000E+03	2.043023E-17	2.921490E-18
6.660000E+03	2.059722E-17	2.945227E-18
6.670000E+03	2.076704E-17	2.969367E-18
6.680000E+03	2.094009E-17	2.993965E-18
6.690000E+03	2.111609E-17	3.018981E-18
6.700000E+03	2.129544E-17	3.044475E-18
6.710000E+03	2.147746E-17	3.070347E-18
6.720000E+03	2.166258E-17	3.096659E-18
6.730000E+03	2.185121E-17	3.123469E-18
6.740000E+03	2.204263E-17	3.150675E-18
6.750000E+03	2.223728E-17	3.178340E-18
6.760000E+03	2.243480E-17	3.206412E-18
6.770000E+03	2.263561E-17	3.234950E-18
6.780000E+03	2.283935E-17	3.263904E-18
6.790000E+03	2.304605E-17	3.293278E-18
6.800000E+03	2.325614E-17	3.323132E-18
6.810000E+03	2.346880E-17	3.353352E-18
6.820000E+03	2.368491E-17	3.384060E-18
6.830000E+03	2.390363E-17	3.415137E-18
6.840000E+03	2.412582E-17	3.446705E-18
6.850000E+03	2.435062E-17	3.478644E-18
6.860000E+03	2.457803E-17	3.510951E-18
6.870000E+03	2.480848E-17	3.543689E-18
6.880000E+03	2.504197E-17	3.576858E-18
6.890000E+03	2.527757E-17	3.610323E-18
6.900000E+03	2.551617E-17	3.644214E-18
6.910000E+03	2.575730E-17	3.678462E-18
6.920000E+03	2.600139E-17	3.713128E-18
6.930000E+03	2.624745E-17	3.748073E-18
6.940000E+03	2.649594E-17	3.783359E-18
6.950000E+03	2.674678E-17	3.818978E-18
6.960000E+03	2.699945E-17	3.854852E-18
6.970000E+03	2.725438E-17	3.891047E-18
6.980000E+03	2.751155E-17	3.927557E-18
6.990000E+03	2.777037E-17	3.964297E-18
7.000000E+03	2.803076E-17	4.001257E-18
7.010000E+03	2.829267E-17	4.038431E-18
7.020000E+03	2.855658E-17	4.075885E-18
7.030000E+03	2.882133E-17	4.113454E-18
7.040000E+03	2.908796E-17	4.151289E-18
7.050000E+03	2.935530E-17	4.189219E-18
7.060000E+03	2.962383E-17	4.227315E-18
7.070000E+03	2.989291E-17	4.265486E-18
7.080000E+03	3.016307E-17	4.303805E-18
7.090000E+03	3.043426E-17	4.342268E-18
7.100000E+03	3.070581E-17	4.380778E-18
7.110000E+03	3.097704E-17	4.419238E-18
7.120000E+03	3.124913E-17	4.457815E-18
7.130000E+03	3.152140E-17	4.496415E-18
7.140000E+03	3.179379E-17	4.535026E-18
7.150000E+03	3.206627E-17	4.573646E-18
7.160000E+03	3.233810E-17	4.612169E-18
7.170000E+03	3.260990E-17	4.650684E-18
7.180000E+03	3.288093E-17	4.689084E-18
7.190000E+03	3.315114E-17	4.727363E-18
7.200000E+03	3.342115E-17	4.765609E-18
7.210000E+03	3.369022E-17	4.803717E-18
7.220000E+03	3.395898E-17	4.841776E-18
7.230000E+03	3.422597E-17	4.879579E-18
7.240000E+03	3.449182E-17	4.917215E-18
7.250000E+03	3.475647E-17	4.954675E-18
7.260000E+03	3.501984E-17	4.991950E-18
7.270000E+03	3.528187E-17	5.029029E-18
7.280000E+03	3.554249E-17	5.065903E-18
7.290000E+03	3.580087E-17	5.102453E-18
7.300000E+03	3.605768E-17	5.138776E-18
7.310000E+03	3.631286E-17	5.174863E-18
7.320000E+03	3.656633E-17	5.210703E-18
7.330000E+03	3.681725E-17	5.246175E-18
7.340000E+03	3.706631E-17	5.281379E-18
7.350000E+03	3.731429E-17	5.316425E-18
7.360000E+03	3.755951E-17	5.351074E-18
7.370000E+03	3.780271E-17	5.385432E-18
7.380000E+03	3.804387E-17	5.419494E-18
7.390000E+03	3.828379E-17	5.453377E-18
7.400000E+03	3.852159E-17	5.486956E-18
7.410000E+03	3.875814E-17	5.520352E-18
7.420000E+03	3.899431E-17	5.553692E-18
7.430000E+03	3.922927E-17	5.586856E-18
7.440000E+03	3.946483E-17	5.620100E-18
7.450000E+03	3.969924E-17	5.653180E-18
7.460000E+03	3.993347E-17	5.686230E-18
7.470000E+03	4.016668E-17	5.719131E-18
7.480000E+03	4.039981E-17	5.752018E-18
7.490000E+03	4.063107E-17	5.784637E-18
7.500000E+03	4.086144E-17	5.817125E-18
7.510000E+03	4.109093E-17	5.849486E-18
7.520000E+03	4.131864E-17	5.881590E-18
7.530000E+03	4.154653E-17	5.913716E-18
7.540000E+03	4.177264E-17	5.945587E-18
7.550000E+03	4.199799E-17	5.977347E-18
7.560000E+03	4.222157E-17	6.008853E-18
7.570000E+03	4.244435E-17	6.040243E-18
7.580000E+03	4.266532E-17	6.071372E-18
7.590000E+03	4.288544E-17	6.102377E-18
7.600000E+03	4.310366E-17	6.133110E-18
7.610000E+03	4.331991E-17	6.163559E-18
7.620000E+03	4.353512E-17	6.193861E-18
7.630000E+03	4.374820E-17	6.223856E-18
7.640000E+03	4.395902E-17	6.253526E-18
7.650000E+03	4.416852E-17	6.283008E-18
7.660000E+03	4.437552E-17	6.312131E-18
7.670000E+03	4.458094E-17	6.341029E-18
7.680000E+03	4.478244E-17	6.369366E-18
7.690000E+03	4.498202E-17	6.397430E-18
7.700000E+03	4.517951E-17	6.425192E-18
7.710000E+03	4.537360E-17	6.452470E-18
7.720000E+03	4.556516E-17	6.479388E-18
7.730000E+03	4.575287E-17	6.505756E-18
7.740000E+03	4.593645E-17	6.531535E-18
7.750000E+03	4.611680E-17	6.556853E-18
7.760000E+03	4.629365E-17	6.581674E-18
