#wls	flux	fluxerr
1.600000E+03	2.740832E-16	2.139514E-17
1.640000E+03	2.834619E-16	2.211754E-17
1.680000E+03	2.927812E-16	2.283438E-17
1.720000E+03	3.020195E-16	2.354396E-17
1.760000E+03	3.110604E-16	2.423718E-17
1.800000E+03	3.198617E-16	2.491074E-17
1.840000E+03	3.283145E-16	2.555616E-17
1.880000E+03	3.363549E-16	2.616847E-17
1.920000E+03	3.438814E-16	2.673980E-17
1.960000E+03	3.507835E-16	2.726160E-17
2.000000E+03	3.568921E-16	2.772076E-17
2.040000E+03	3.620883E-16	2.810815E-17
2.080000E+03	3.662278E-16	2.841266E-17
2.120000E+03	3.691006E-16	2.861812E-17
2.160000E+03	3.705168E-16	2.870999E-17
2.200000E+03	3.702482E-16	2.867079E-17
2.240000E+03	3.680904E-16	2.848495E-17
2.280000E+03	3.639706E-16	2.814712E-17
2.320000E+03	3.578956E-16	2.765814E-17
2.360000E+03	3.500784E-16	2.703480E-17
2.400000E+03	3.407063E-16	2.629186E-17
2.440000E+03	3.299452E-16	2.544240E-17
2.480000E+03	3.179869E-16	2.450147E-17
2.520000E+03	3.049744E-16	2.348035E-17
2.560000E+03	2.910319E-16	2.238883E-17
2.600000E+03	2.763273E-16	2.124005E-17
2.640000E+03	2.609812E-16	2.004347E-17
2.680000E+03	2.451506E-16	1.881132E-17
2.720000E+03	2.289715E-16	1.755420E-17
2.760000E+03	2.126195E-16	1.628572E-17
2.800000E+03	1.962517E-16	1.501798E-17
2.840000E+03	1.800459E-16	1.376468E-17
2.880000E+03	1.641827E-16	1.253964E-17
2.920000E+03	1.488395E-16	1.135639E-17
2.960000E+03	1.341829E-16	1.022760E-17
3.000000E+03	1.203586E-16	9.164259E-18
3.010000E+03	1.170457E-16	8.909640E-18
3.020000E+03	1.137948E-16	8.659862E-18
3.030000E+03	1.106043E-16	8.414790E-18
3.040000E+03	1.074795E-16	8.174846E-18
3.050000E+03	1.044188E-16	7.939882E-18
3.060000E+03	1.014225E-16	7.709936E-18
3.070000E+03	9.849122E-17	7.485042E-18
3.080000E+03	9.562931E-17	7.265532E-18
3.090000E+03	9.283288E-17	7.051105E-18
3.100000E+03	9.010595E-17	6.842064E-18
3.110000E+03	8.744659E-17	6.638258E-18
3.120000E+03	8.485648E-17	6.439812E-18
3.130000E+03	8.233541E-17	6.246706E-18
3.140000E+03	7.988312E-17	6.058916E-18
3.150000E+03	7.749926E-17	5.876413E-18
3.160000E+03	7.518491E-17	5.699275E-18
3.170000E+03	7.293812E-17	5.527350E-18
3.180000E+03	7.075971E-17	5.360695E-18
3.190000E+03	6.864897E-17	5.199255E-18
3.200000E+03	6.660519E-17	5.042972E-18
3.210000E+03	6.462866E-17	4.891863E-18
3.220000E+03	6.271626E-17	4.745689E-18
3.230000E+03	6.087030E-17	4.604619E-18
3.240000E+03	5.908660E-17	4.468335E-18
3.250000E+03	5.736711E-17	4.336981E-18
3.260000E+03	5.570874E-17	4.210319E-18
3.270000E+03	5.411128E-17	4.088329E-18
3.280000E+03	5.257343E-17	3.970909E-18
3.290000E+03	5.109319E-17	3.857905E-18
3.300000E+03	4.967085E-17	3.749336E-18
3.310000E+03	4.830355E-17	3.644981E-18
3.320000E+03	4.699005E-17	3.544744E-18
3.330000E+03	4.573044E-17	3.448628E-18
3.340000E+03	4.452197E-17	3.356422E-18
3.350000E+03	4.336335E-17	3.268026E-18
3.360000E+03	4.225333E-17	3.183343E-18
3.370000E+03	4.119115E-17	3.102312E-18
3.380000E+03	4.017436E-17	3.024746E-18
3.390000E+03	3.920177E-17	2.950552E-18
3.400000E+03	3.827262E-17	2.879669E-18
3.410000E+03	3.738519E-17	2.811966E-18
3.420000E+03	3.653824E-17	2.747347E-18
3.430000E+03	3.572970E-17	2.685653E-18
3.440000E+03	3.495893E-17	2.626832E-18
3.450000E+03	3.422480E-17	2.570800E-18
3.460000E+03	3.352543E-17	2.517411E-18
3.470000E+03	3.285983E-17	2.466588E-18
3.480000E+03	3.222664E-17	2.418227E-18
3.490000E+03	3.162537E-17	2.372290E-18
3.500000E+03	3.105399E-17	2.328622E-18
3.510000E+03	3.051206E-17	2.287187E-18
3.520000E+03	2.999813E-17	2.247874E-18
3.530000E+03	2.951110E-17	2.210601E-18
3.540000E+03	2.905000E-17	2.175291E-18
3.550000E+03	2.861356E-17	2.141848E-18
3.560000E+03	2.820123E-17	2.110228E-18
3.570000E+03	2.781155E-17	2.080322E-18
3.580000E+03	2.744374E-17	2.052069E-18
3.590000E+03	2.709740E-17	2.025437E-18
3.600000E+03	2.677150E-17	2.000347E-18
3.610000E+03	2.646540E-17	1.976752E-18
3.620000E+03	2.617821E-17	1.954581E-18
3.630000E+03	2.590908E-17	1.933771E-18
3.640000E+03	2.565746E-17	1.914280E-18
3.650000E+03	2.542235E-17	1.896029E-18
3.660000E+03	2.520354E-17	1.879005E-18
3.670000E+03	2.500007E-17	1.863133E-18
3.680000E+03	2.481152E-17	1.848381E-18
3.690000E+03	2.463774E-17	1.834736E-18
3.700000E+03	2.447786E-17	1.822133E-18
3.710000E+03	2.433152E-17	1.810544E-18
3.720000E+03	2.419878E-17	1.799972E-18
3.730000E+03	2.407911E-17	1.790375E-18
3.740000E+03	2.397208E-17	1.781723E-18
3.750000E+03	2.387782E-17	1.774023E-18
3.760000E+03	2.379575E-17	1.767230E-18
3.770000E+03	2.372574E-17	1.761335E-18
3.780000E+03	2.366786E-17	1.756340E-18
3.790000E+03	2.362173E-17	1.752219E-18
3.800000E+03	2.358724E-17	1.748960E-18
3.810000E+03	2.356422E-17	1.746551E-18
3.820000E+03	2.355254E-17	1.744980E-18
3.830000E+03	2.355226E-17	1.744250E-18
3.840000E+03	2.356303E-17	1.744337E-18
3.850000E+03	2.358489E-17	1.745240E-18
3.860000E+03	2.361790E-17	1.746965E-18
3.870000E+03	2.366173E-17	1.749483E-18
3.880000E+03	2.371617E-17	1.752782E-18
3.890000E+03	2.378153E-17	1.756879E-18
3.900000E+03	2.385760E-17	1.761762E-18
3.910000E+03	2.394406E-17	1.767403E-18
3.920000E+03	2.404110E-17	1.773818E-18
3.930000E+03	2.414878E-17	1.781007E-18
3.940000E+03	2.426649E-17	1.788927E-18
3.950000E+03	2.439444E-17	1.797591E-18
3.960000E+03	2.453264E-17	1.806999E-18
3.970000E+03	2.468088E-17	1.817135E-18
3.980000E+03	2.483873E-17	1.827965E-18
3.990000E+03	2.500657E-17	1.839517E-18
4.000000E+03	2.518396E-17	1.851758E-18
4.010000E+03	2.537063E-17	1.864666E-18
4.020000E+03	2.556672E-17	1.878252E-18
4.030000E+03	2.577179E-17	1.892482E-18
4.040000E+03	2.598593E-17	1.907360E-18
4.050000E+03	2.620846E-17	1.922838E-18
4.060000E+03	2.643969E-17	1.938935E-18
4.070000E+03	2.667910E-17	1.955615E-18
4.080000E+03	2.692638E-17	1.972852E-18
4.090000E+03	2.718164E-17	1.990654E-18
4.100000E+03	2.744409E-17	2.008962E-18
4.110000E+03	2.771407E-17	2.027801E-18
4.120000E+03	2.799079E-17	2.047111E-18
4.130000E+03	2.827410E-17	2.066882E-18
4.140000E+03	2.856389E-17	2.087104E-18
4.150000E+03	2.885952E-17	2.107730E-18
4.160000E+03	2.916086E-17	2.128749E-18
4.170000E+03	2.946753E-17	2.150134E-18
4.180000E+03	2.977886E-17	2.171835E-18
4.190000E+03	3.009494E-17	2.193857E-18
4.200000E+03	3.041484E-17	2.216133E-18
4.210000E+03	3.073860E-17	2.238664E-18
4.220000E+03	3.106527E-17	2.261383E-18
4.230000E+03	3.139462E-17	2.284269E-18
4.240000E+03	3.172616E-17	2.307290E-18
4.250000E+03	3.205884E-17	2.330367E-18
4.260000E+03	3.239264E-17	2.353498E-18
4.270000E+03	3.272674E-17	2.376625E-18
4.280000E+03	3.306029E-17	2.399685E-18
4.290000E+03	3.339241E-17	2.422614E-18
4.300000E+03	3.372275E-17	2.445388E-18
4.310000E+03	3.405064E-17	2.467957E-18
4.320000E+03	3.437464E-17	2.490218E-18
4.330000E+03	3.469459E-17	2.512159E-18
4.340000E+03	3.500898E-17	2.533673E-18
4.350000E+03	3.531772E-17	2.554751E-18
4.360000E+03	3.561957E-17	2.575305E-18
4.370000E+03	3.591422E-17	2.595314E-18
4.380000E+03	3.620141E-17	2.614760E-18
4.390000E+03	3.648098E-17	2.633632E-18
4.400000E+03	3.675291E-17	2.651929E-18
4.410000E+03	3.701754E-17	2.669676E-18
4.420000E+03	3.727538E-17	2.686912E-18
4.430000E+03	3.752671E-17	2.703656E-18
4.440000E+03	3.777216E-17	2.719955E-18
4.450000E+03	3.801181E-17	2.735815E-18
4.460000E+03	3.824673E-17	2.751316E-18
4.470000E+03	3.847705E-17	2.766463E-18
4.480000E+03	3.870323E-17	2.781294E-18
4.490000E+03	3.892576E-17	2.795843E-18
4.500000E+03	3.914513E-17	2.810144E-18
4.510000E+03	3.936180E-17	2.824234E-18
4.520000E+03	3.957628E-17	2.838146E-18
4.530000E+03	3.978838E-17	2.851869E-18
4.540000E+03	3.999924E-17	2.865484E-18
4.550000E+03	4.020867E-17	2.878977E-18
4.560000E+03	4.041710E-17	2.892380E-18
4.570000E+03	4.062465E-17	2.905701E-18
4.580000E+03	4.083209E-17	2.918996E-18
4.590000E+03	4.103955E-17	2.932273E-18
4.600000E+03	4.124671E-17	2.945509E-18
4.610000E+03	4.145471E-17	2.958787E-18
4.620000E+03	4.166323E-17	2.972083E-18
4.630000E+03	4.187230E-17	2.985399E-18
4.640000E+03	4.208271E-17	2.998791E-18
4.650000E+03	4.229482E-17	3.012286E-18
4.660000E+03	4.250791E-17	3.025830E-18
4.670000E+03	4.272313E-17	3.039506E-18
4.680000E+03	4.294050E-17	3.053316E-18
4.690000E+03	4.316003E-17	3.067259E-18
4.700000E+03	4.338213E-17	3.081365E-18
4.710000E+03	4.360683E-17	3.095636E-18
4.720000E+03	4.383459E-17	3.110103E-18
4.730000E+03	4.406462E-17	3.124710E-18
4.740000E+03	4.429743E-17	3.139493E-18
4.750000E+03	4.453346E-17	3.154483E-18
4.760000E+03	4.477158E-17	3.169599E-18
4.770000E+03	4.501264E-17	3.184902E-18
4.780000E+03	4.525633E-17	3.200369E-18
4.790000E+03	4.550224E-17	3.215971E-18
4.800000E+03	4.575131E-17	3.231774E-18
4.810000E+03	4.600227E-17	3.247688E-18
4.820000E+03	4.625645E-17	3.263807E-18
4.830000E+03	4.651254E-17	3.280037E-18
4.840000E+03	4.677139E-17	3.296440E-18
4.850000E+03	4.703212E-17	3.312951E-18
4.860000E+03	4.729556E-17	3.329630E-18
4.870000E+03	4.756077E-17	3.346409E-18
4.880000E+03	4.782815E-17	3.363318E-18
4.890000E+03	4.809761E-17	3.380348E-18
4.900000E+03	4.836863E-17	3.397465E-18
4.910000E+03	4.864110E-17	3.414659E-18
4.920000E+03	4.891495E-17	3.431925E-18
4.930000E+03	4.919049E-17	3.449286E-18
4.940000E+03	4.946669E-17	3.466669E-18
4.950000E+03	4.974439E-17	3.484132E-18
4.960000E+03	5.002245E-17	3.501597E-18
4.970000E+03	5.030119E-17	3.519084E-18
4.980000E+03	5.057996E-17	3.536548E-18
4.990000E+03	5.085853E-17	3.553975E-18
5.000000E+03	5.113662E-17	3.571343E-18
5.010000E+03	5.141449E-17	3.588672E-18
5.020000E+03	5.169083E-17	3.605870E-18
5.030000E+03	5.196574E-17	3.622944E-18
5.040000E+03	5.223832E-17	3.639832E-18
5.050000E+03	5.250866E-17	3.656540E-18
5.060000E+03	5.277574E-17	3.672998E-18
5.070000E+03	5.303850E-17	3.689133E-18
5.080000E+03	5.329689E-17	3.704941E-18
5.090000E+03	5.355028E-17	3.720380E-18
5.100000E+03	5.379749E-17	3.735367E-18
5.110000E+03	5.403728E-17	3.749819E-18
5.120000E+03	5.426997E-17	3.763759E-18
5.130000E+03	5.449374E-17	3.777060E-18
5.140000E+03	5.470778E-17	3.789668E-18
5.150000E+03	5.491125E-17	3.801527E-18
5.160000E+03	5.510336E-17	3.812582E-18
5.170000E+03	5.528266E-17	3.822737E-18
5.180000E+03	5.544888E-17	3.831972E-18
5.190000E+03	5.560001E-17	3.840151E-18
5.200000E+03	5.573574E-17	3.847255E-18
5.210000E+03	5.585406E-17	3.853148E-18
5.220000E+03	5.595518E-17	3.857845E-18
5.230000E+03	5.603711E-17	3.861212E-18
5.240000E+03	5.609948E-17	3.863226E-18
5.250000E+03	5.614027E-17	3.863751E-18
5.260000E+03	5.615912E-17	3.862765E-18
5.270000E+03	5.615516E-17	3.860209E-18
5.280000E+03	5.612638E-17	3.855950E-18
5.290000E+03	5.607195E-17	3.849934E-18
5.300000E+03	5.599161E-17	3.842145E-18
5.310000E+03	5.588408E-17	3.832500E-18
5.320000E+03	5.574815E-17	3.820919E-18
5.330000E+03	5.558327E-17	3.807369E-18
5.340000E+03	5.538902E-17	3.791823E-18
5.350000E+03	5.516512E-17	3.774266E-18
5.360000E+03	5.491085E-17	3.754653E-18
5.370000E+03	5.462685E-17	3.733032E-18
5.380000E+03	5.431283E-17	3.709386E-18
5.390000E+03	5.396983E-17	3.683790E-18
5.400000E+03	5.359803E-17	3.656260E-18
5.410000E+03	5.319944E-17	3.626937E-18
5.420000E+03	5.277584E-17	3.595944E-18
5.430000E+03	5.232811E-17	3.563346E-18
5.440000E+03	5.185957E-17	3.529371E-18
5.450000E+03	5.137211E-17	3.494150E-18
5.460000E+03	5.086588E-17	3.457696E-18
5.470000E+03	5.034483E-17	3.420280E-18
5.480000E+03	4.981060E-17	3.382014E-18
5.490000E+03	4.926505E-17	3.343026E-18
5.500000E+03	4.871078E-17	3.303494E-18
5.510000E+03	4.815007E-17	3.263574E-18
5.520000E+03	4.758538E-17	3.223431E-18
5.530000E+03	4.702013E-17	3.183300E-18
5.540000E+03	4.645685E-17	3.143349E-18
5.550000E+03	4.589937E-17	3.103839E-18
5.560000E+03	4.535095E-17	3.064989E-18
5.570000E+03	4.481425E-17	3.026976E-18
5.580000E+03	4.429261E-17	2.990026E-18
5.590000E+03	4.378870E-17	2.954315E-18
5.600000E+03	4.330495E-17	2.920008E-18
5.610000E+03	4.284395E-17	2.887273E-18
5.620000E+03	4.240754E-17	2.856234E-18
5.630000E+03	4.199729E-17	2.826993E-18
5.640000E+03	4.161489E-17	2.799661E-18
5.650000E+03	4.126128E-17	2.774297E-18
5.660000E+03	4.093755E-17	2.750972E-18
5.670000E+03	4.064406E-17	2.729705E-18
5.680000E+03	4.038092E-17	2.710502E-18
5.690000E+03	4.014842E-17	2.693377E-18
5.700000E+03	3.994619E-17	2.678304E-18
5.710000E+03	3.977375E-17	2.665244E-18
5.720000E+03	3.963078E-17	2.654176E-18
5.730000E+03	3.951656E-17	2.645045E-18
5.740000E+03	3.943061E-17	2.637819E-18
5.750000E+03	3.937162E-17	2.632405E-18
5.760000E+03	3.933954E-17	2.628796E-18
5.770000E+03	3.933305E-17	2.626903E-18
5.780000E+03	3.935134E-17	2.626669E-18
5.790000E+03	3.939447E-17	2.628093E-18
5.800000E+03	3.946086E-17	2.631069E-18
5.810000E+03	3.955077E-17	2.635612E-18
5.820000E+03	3.966362E-17	2.641679E-18
5.830000E+03	3.979897E-17	2.649240E-18
5.840000E+03	3.995594E-17	2.658232E-18
5.850000E+03	4.013504E-17	2.668690E-18
5.860000E+03	4.033552E-17	2.680560E-18
5.870000E+03	4.055756E-17	2.693850E-18
5.880000E+03	4.080088E-17	2.708542E-18
5.890000E+03	4.106482E-17	2.724589E-18
5.900000E+03	4.134957E-17	2.742002E-18
5.910000E+03	4.165537E-17	2.760794E-18
5.920000E+03	4.198106E-17	2.780886E-18
5.930000E+03	4.232683E-17	2.802289E-18
5.940000E+03	4.269240E-17	2.824983E-18
5.950000E+03	4.307794E-17	2.848977E-18
5.960000E+03	4.348217E-17	2.874184E-18
5.970000E+03	4.390567E-17	2.900642E-18
5.980000E+03	4.434707E-17	2.928257E-18
5.990000E+03	4.480643E-17	2.957032E-18
6.000000E+03	4.528325E-17	2.986933E-18
6.010000E+03	4.577652E-17	3.017891E-18
6.020000E+03	4.628620E-17	3.049903E-18
6.030000E+03	4.681063E-17	3.082857E-18
6.040000E+03	4.735022E-17	3.116780E-18
6.050000E+03	4.790263E-17	3.151517E-18
6.060000E+03	4.846819E-17	3.187087E-18
6.070000E+03	4.904497E-17	3.223364E-18
6.080000E+03	4.963267E-17	3.260327E-18
6.090000E+03	5.022912E-17	3.297833E-18
6.100000E+03	5.083335E-17	3.335816E-18
6.110000E+03	5.144358E-17	3.374162E-18
6.120000E+03	5.205865E-17	3.412793E-18
6.130000E+03	5.267606E-17	3.451545E-18
6.140000E+03	5.329378E-17	3.490286E-18
6.150000E+03	5.391046E-17	3.528927E-18
6.160000E+03	5.452394E-17	3.567330E-18
6.170000E+03	5.513081E-17	3.605270E-18
6.180000E+03	5.572959E-17	3.642651E-18
6.190000E+03	5.631817E-17	3.679339E-18
6.200000E+03	5.689527E-17	3.715251E-18
6.210000E+03	5.746047E-17	3.750360E-18
6.220000E+03	5.801352E-17	3.784652E-18
6.230000E+03	5.855508E-17	3.818172E-18
6.240000E+03	5.908748E-17	3.851074E-18
6.250000E+03	5.961103E-17	3.883378E-18
6.260000E+03	6.012532E-17	3.915060E-18
6.270000E+03	6.063318E-17	3.946305E-18
6.280000E+03	6.113518E-17	3.977152E-18
6.290000E+03	6.163035E-17	4.007537E-18
6.300000E+03	6.212182E-17	4.037666E-18
6.310000E+03	6.260785E-17	4.067426E-18
6.320000E+03	6.309086E-17	4.096974E-18
6.330000E+03	6.356998E-17	4.126256E-18
6.340000E+03	6.404600E-17	4.155322E-18
6.350000E+03	6.451891E-17	4.184173E-18
6.360000E+03	6.498868E-17	4.212808E-18
6.370000E+03	6.545525E-17	4.241222E-18
6.380000E+03	6.591764E-17	4.269353E-18
6.390000E+03	6.637487E-17	4.297139E-18
6.400000E+03	6.682773E-17	4.324630E-18
6.410000E+03	6.727422E-17	4.351699E-18
6.420000E+03	6.771516E-17	4.378399E-18
6.430000E+03	6.814944E-17	4.404659E-18
6.440000E+03	6.857694E-17	4.430472E-18
6.450000E+03	6.899851E-17	4.455894E-18
6.460000E+03	6.941613E-17	4.481054E-18
6.470000E+03	6.982985E-17	4.505955E-18
6.480000E+03	7.024069E-17	4.530664E-18
6.490000E+03	7.064984E-17	4.555257E-18
6.500000E+03	7.105631E-17	4.579673E-18
6.510000E+03	7.146241E-17	4.604059E-18
6.520000E+03	7.186831E-17	4.628428E-18
6.530000E+03	7.227308E-17	4.652719E-18
6.540000E+03	7.267915E-17	4.677090E-18
6.550000E+03	7.308557E-17	4.701480E-18
6.560000E+03	7.349139E-17	4.725827E-18
6.570000E+03	7.389910E-17	4.750293E-18
6.580000E+03	7.430770E-17	4.774813E-18
6.590000E+03	7.471734E-17	4.799397E-18
6.600000E+03	7.512941E-17	4.824136E-18
6.610000E+03	7.554158E-17	4.848878E-18
6.620000E+03	7.595392E-17	4.873630E-18
6.630000E+03	7.636899E-17	4.898556E-18
6.640000E+03	7.678430E-17	4.923497E-18
6.650000E+03	7.719984E-17	4.948452E-18
6.660000E+03	7.761686E-17	4.973502E-18
6.670000E+03	7.803400E-17	4.998560E-18
6.680000E+03	7.845112E-17	5.023618E-18
6.690000E+03	7.886940E-17	5.048751E-18
6.700000E+03	7.928598E-17	5.073777E-18
6.710000E+03	7.970060E-17	5.098680E-18
6.720000E+03	8.011573E-17	5.123619E-18
6.730000E+03	8.052833E-17	5.148400E-18
6.740000E+03	8.093806E-17	5.173001E-18
6.750000E+03	8.134595E-17	5.197489E-18
6.760000E+03	8.175020E-17	5.221750E-18
6.770000E+03	8.215040E-17	5.245758E-18
6.780000E+03	8.254612E-17	5.269487E-18
6.790000E+03	8.293688E-17	5.292907E-18
6.800000E+03	8.332073E-17	5.315895E-18
6.810000E+03	8.369868E-17	5.338515E-18
6.820000E+03	8.407025E-17	5.360738E-18
6.830000E+03	8.443341E-17	5.382436E-18
6.840000E+03	8.478922E-17	5.403677E-18
6.850000E+03	8.513565E-17	5.424332E-18
6.860000E+03	8.547220E-17	5.444372E-18
6.870000E+03	8.579840E-17	5.463766E-18
6.880000E+03	8.611218E-17	5.482386E-18
6.890000E+03	8.641628E-17	5.500405E-18
6.900000E+03	8.670873E-17	5.517701E-18
6.910000E+03	8.698749E-17	5.534144E-18
6.920000E+03	8.725380E-17	5.549813E-18
6.930000E+03	8.750568E-17	5.564586E-18
6.940000E+03	8.774278E-17	5.578440E-18
6.950000E+03	8.796650E-17	5.591466E-18
6.960000E+03	8.817488E-17	5.603540E-18
6.970000E+03	8.836771E-17	5.614650E-18
6.980000E+03	8.854480E-17	5.624786E-18
6.990000E+03	8.870602E-17	5.633940E-18
7.000000E+03	8.884955E-17	5.641999E-18
7.010000E+03	8.897879E-17	5.649178E-18
7.020000E+03	8.909034E-17	5.655264E-18
7.030000E+03	8.918422E-17	5.660259E-18
7.040000E+03	8.926239E-17	5.664287E-18
7.050000E+03	8.932328E-17	5.667252E-18
7.060000E+03	8.936718E-17	5.669171E-18
7.070000E+03	8.939448E-17	5.670072E-18
7.080000E+03	8.940562E-17	5.669982E-18
7.090000E+03	8.940292E-17	5.669050E-18
7.100000E+03	8.938343E-17	5.667090E-18
7.110000E+03	8.934786E-17	5.664148E-18
7.120000E+03	8.929878E-17	5.660386E-18
7.130000E+03	8.923707E-17	5.655863E-18
7.140000E+03	8.916185E-17	5.650522E-18
7.150000E+03	8.907596E-17	5.644545E-18
7.160000E+03	8.897683E-17	5.637769E-18
7.170000E+03	8.886924E-17	5.630498E-18
7.180000E+03	8.875252E-17	5.622690E-18
7.190000E+03	8.862791E-17	5.614422E-18
7.200000E+03	8.849477E-17	5.605658E-18
7.210000E+03	8.835801E-17	5.596707E-18
7.220000E+03	8.821519E-17	5.587414E-18
7.230000E+03	8.806934E-17	5.577973E-18
7.240000E+03	8.791977E-17	5.568340E-18
7.250000E+03	8.776939E-17	5.558700E-18
7.260000E+03	8.761738E-17	5.549002E-18
7.270000E+03	8.746468E-17	5.539303E-18
7.280000E+03	8.731393E-17	5.529775E-18
7.290000E+03	8.716406E-17	5.520347E-18
7.300000E+03	8.701749E-17	5.511174E-18
7.310000E+03	8.687105E-17	5.502056E-18
7.320000E+03	8.672698E-17	5.493134E-18
7.330000E+03	8.658746E-17	5.484548E-18
7.340000E+03	8.644895E-17	5.476073E-18
7.350000E+03	8.631346E-17	5.467837E-18
7.360000E+03	8.617916E-17	5.459724E-18
7.370000E+03	8.604787E-17	5.451852E-18
7.380000E+03	8.591765E-17	5.444095E-18
7.390000E+03	8.578831E-17	5.436444E-18
7.400000E+03	8.565962E-17	5.428884E-18
7.410000E+03	8.552941E-17	5.421277E-18
7.420000E+03	8.539727E-17	5.413598E-18
7.430000E+03	8.526273E-17	5.405819E-18
7.440000E+03	8.512526E-17	5.397905E-18
7.450000E+03	8.498610E-17	5.389935E-18
7.460000E+03	8.484267E-17	5.381746E-18
7.470000E+03	8.469802E-17	5.373531E-18
7.480000E+03	8.455142E-17	5.365245E-18
7.490000E+03	8.440225E-17	5.356848E-18
7.500000E+03	8.425005E-17	5.348312E-18
7.510000E+03	8.409469E-17	5.339628E-18
7.520000E+03	8.394028E-17	5.331055E-18
7.530000E+03	8.378363E-17	5.322389E-18
7.540000E+03	8.362762E-17	5.313813E-18
7.550000E+03	8.347345E-17	5.305402E-18
7.560000E+03	8.332422E-17	5.297353E-18
7.570000E+03	8.317727E-17	5.289494E-18
7.580000E+03	8.303558E-17	5.282016E-18
7.590000E+03	8.290011E-17	5.274978E-18
7.600000E+03	8.277361E-17	5.268555E-18
7.610000E+03	8.265280E-17	5.262538E-18
7.620000E+03	8.254209E-17	5.257207E-18
7.630000E+03	8.243991E-17	5.252461E-18
7.640000E+03	8.234457E-17	5.248193E-18
7.650000E+03	8.226010E-17	5.244658E-18
7.660000E+03	8.218460E-17	5.241738E-18
7.670000E+03	8.211804E-17	5.239428E-18
7.680000E+03	8.206028E-17	5.237720E-18
7.690000E+03	8.201113E-17	5.236601E-18
7.700000E+03	8.197032E-17	5.236054E-18
7.710000E+03	8.193952E-17	5.236187E-18
7.720000E+03	8.191434E-17	5.236717E-18
7.730000E+03	8.189833E-17	5.237873E-18
7.740000E+03	8.188896E-17	5.239492E-18
7.750000E+03	8.188572E-17	5.241541E-18
7.760000E+03	8.188795E-17	5.243979E-18
