#wls	flux	fluxerr
1.600000E+03	2.850732E-16	5.647326E-17
1.640000E+03	2.932909E-16	5.809920E-17
1.680000E+03	3.009717E-16	5.961855E-17
1.720000E+03	3.080581E-16	6.101988E-17
1.760000E+03	3.143656E-16	6.226669E-17
1.800000E+03	3.198844E-16	6.335703E-17
1.840000E+03	3.244239E-16	6.425313E-17
1.880000E+03	3.279388E-16	6.494606E-17
1.920000E+03	3.303255E-16	6.541531E-17
1.960000E+03	3.314330E-16	6.563101E-17
2.000000E+03	3.312270E-16	6.558639E-17
2.040000E+03	3.296050E-16	6.526119E-17
2.080000E+03	3.264863E-16	6.463951E-17
2.120000E+03	3.218156E-16	6.371042E-17
2.160000E+03	3.155273E-16	6.246103E-17
2.200000E+03	3.075242E-16	6.087216E-17
2.240000E+03	2.977262E-16	5.892805E-17
2.280000E+03	2.861860E-16	5.663922E-17
2.320000E+03	2.731398E-16	5.405252E-17
2.360000E+03	2.589877E-16	5.124721E-17
2.400000E+03	2.440479E-16	4.828635E-17
2.440000E+03	2.286066E-16	4.522665E-17
2.480000E+03	2.128705E-16	4.210905E-17
2.520000E+03	1.970538E-16	3.897597E-17
2.560000E+03	1.813285E-16	3.586148E-17
2.600000E+03	1.658706E-16	3.280040E-17
2.640000E+03	1.508203E-16	2.982049E-17
2.680000E+03	1.363069E-16	2.694735E-17
2.720000E+03	1.224459E-16	2.420375E-17
2.760000E+03	1.093247E-16	2.160701E-17
2.800000E+03	9.701825E-17	1.917189E-17
2.840000E+03	8.558250E-17	1.690943E-17
2.880000E+03	7.506032E-17	1.482805E-17
2.920000E+03	6.547971E-17	1.293323E-17
2.960000E+03	5.684873E-17	1.122650E-17
3.000000E+03	4.915637E-17	9.705636E-18
3.010000E+03	4.737657E-17	9.353785E-18
3.020000E+03	4.565190E-17	9.012847E-18
3.030000E+03	4.398336E-17	8.683020E-18
3.040000E+03	4.236784E-17	8.363686E-18
3.050000E+03	4.080613E-17	8.054999E-18
3.060000E+03	3.929696E-17	7.756712E-18
3.070000E+03	3.783990E-17	7.468735E-18
3.080000E+03	3.643210E-17	7.190504E-18
3.090000E+03	3.507464E-17	6.922234E-18
3.100000E+03	3.376472E-17	6.663370E-18
3.110000E+03	3.250249E-17	6.413940E-18
3.120000E+03	3.128661E-17	6.173679E-18
3.130000E+03	3.011517E-17	5.942209E-18
3.140000E+03	2.898811E-17	5.719516E-18
3.150000E+03	2.790359E-17	5.505237E-18
3.160000E+03	2.686086E-17	5.299223E-18
3.170000E+03	2.585865E-17	5.101223E-18
3.180000E+03	2.489576E-17	4.910998E-18
3.190000E+03	2.397139E-17	4.728389E-18
3.200000E+03	2.308433E-17	4.553157E-18
3.210000E+03	2.223302E-17	4.384995E-18
3.220000E+03	2.141710E-17	4.223827E-18
3.230000E+03	2.063511E-17	4.069369E-18
3.240000E+03	1.988631E-17	3.921470E-18
3.250000E+03	1.916963E-17	3.779921E-18
3.260000E+03	1.848377E-17	3.644463E-18
3.270000E+03	1.782828E-17	3.515007E-18
3.280000E+03	1.720157E-17	3.391238E-18
3.290000E+03	1.660320E-17	3.273068E-18
3.300000E+03	1.603211E-17	3.160290E-18
3.310000E+03	1.548685E-17	3.052615E-18
3.320000E+03	1.496692E-17	2.949945E-18
3.330000E+03	1.447135E-17	2.852087E-18
3.340000E+03	1.399899E-17	2.758813E-18
3.350000E+03	1.354892E-17	2.669943E-18
3.360000E+03	1.312028E-17	2.585305E-18
3.370000E+03	1.271220E-17	2.504728E-18
3.380000E+03	1.232386E-17	2.428049E-18
3.390000E+03	1.195444E-17	2.355107E-18
3.400000E+03	1.160302E-17	2.285717E-18
3.410000E+03	1.126869E-17	2.219704E-18
3.420000E+03	1.095105E-17	2.156986E-18
3.430000E+03	1.064899E-17	2.097341E-18
3.440000E+03	1.036199E-17	2.040671E-18
3.450000E+03	1.008929E-17	1.986824E-18
3.460000E+03	9.830313E-18	1.935685E-18
3.470000E+03	9.584249E-18	1.887095E-18
3.480000E+03	9.350469E-18	1.840930E-18
3.490000E+03	9.128479E-18	1.797090E-18
3.500000E+03	8.917606E-18	1.755445E-18
3.510000E+03	8.717414E-18	1.715907E-18
3.520000E+03	8.527113E-18	1.678321E-18
3.530000E+03	8.346346E-18	1.642615E-18
3.540000E+03	8.174498E-18	1.608669E-18
3.550000E+03	8.011093E-18	1.576389E-18
3.560000E+03	7.855686E-18	1.545686E-18
3.570000E+03	7.707698E-18	1.516447E-18
3.580000E+03	7.566904E-18	1.488626E-18
3.590000E+03	7.432865E-18	1.462138E-18
3.600000E+03	7.305165E-18	1.436900E-18
3.610000E+03	7.183631E-18	1.412878E-18
3.620000E+03	7.067821E-18	1.389984E-18
3.630000E+03	6.957456E-18	1.368164E-18
3.640000E+03	6.852271E-18	1.347365E-18
3.650000E+03	6.752019E-18	1.327538E-18
3.660000E+03	6.656462E-18	1.308637E-18
3.670000E+03	6.565383E-18	1.290618E-18
3.680000E+03	6.478623E-18	1.273451E-18
3.690000E+03	6.396039E-18	1.257106E-18
3.700000E+03	6.317427E-18	1.241544E-18
3.710000E+03	6.242818E-18	1.226770E-18
3.720000E+03	6.171960E-18	1.212735E-18
3.730000E+03	6.104825E-18	1.199433E-18
3.740000E+03	6.041278E-18	1.186837E-18
3.750000E+03	5.981233E-18	1.174931E-18
3.760000E+03	5.924709E-18	1.163718E-18
3.770000E+03	5.871465E-18	1.153149E-18
3.780000E+03	5.821519E-18	1.143230E-18
3.790000E+03	5.774828E-18	1.133950E-18
3.800000E+03	5.731210E-18	1.125275E-18
3.810000E+03	5.690675E-18	1.117206E-18
3.820000E+03	5.653180E-18	1.109734E-18
3.830000E+03	5.618591E-18	1.102833E-18
3.840000E+03	5.586826E-18	1.096487E-18
3.850000E+03	5.557934E-18	1.090705E-18
3.860000E+03	5.531739E-18	1.085452E-18
3.870000E+03	5.508250E-18	1.080731E-18
3.880000E+03	5.487379E-18	1.076523E-18
3.890000E+03	5.469093E-18	1.072822E-18
3.900000E+03	5.453352E-18	1.069619E-18
3.910000E+03	5.440035E-18	1.066892E-18
3.920000E+03	5.429107E-18	1.064633E-18
3.930000E+03	5.420577E-18	1.062844E-18
3.940000E+03	5.414369E-18	1.061509E-18
3.950000E+03	5.410407E-18	1.060614E-18
3.960000E+03	5.408662E-18	1.060153E-18
3.970000E+03	5.409060E-18	1.060111E-18
3.980000E+03	5.411572E-18	1.060481E-18
3.990000E+03	5.416171E-18	1.061260E-18
4.000000E+03	5.422829E-18	1.062441E-18
4.010000E+03	5.431437E-18	1.064003E-18
4.020000E+03	5.441973E-18	1.065940E-18
4.030000E+03	5.454414E-18	1.068250E-18
4.040000E+03	5.468742E-18	1.070927E-18
4.050000E+03	5.484894E-18	1.073959E-18
4.060000E+03	5.502813E-18	1.077336E-18
4.070000E+03	5.522484E-18	1.081053E-18
4.080000E+03	5.543851E-18	1.085101E-18
4.090000E+03	5.566900E-18	1.089476E-18
4.100000E+03	5.591577E-18	1.094166E-18
4.110000E+03	5.617869E-18	1.099171E-18
4.120000E+03	5.645725E-18	1.104479E-18
4.130000E+03	5.675090E-18	1.110079E-18
4.140000E+03	5.705955E-18	1.115970E-18
4.150000E+03	5.738268E-18	1.122142E-18
4.160000E+03	5.772020E-18	1.128592E-18
4.170000E+03	5.807120E-18	1.135303E-18
4.180000E+03	5.843561E-18	1.142272E-18
4.190000E+03	5.881250E-18	1.149482E-18
4.200000E+03	5.920228E-18	1.156941E-18
4.210000E+03	5.960402E-18	1.164631E-18
4.220000E+03	6.001771E-18	1.172550E-18
4.230000E+03	6.044193E-18	1.180671E-18
4.240000E+03	6.087713E-18	1.189003E-18
4.250000E+03	6.132184E-18	1.197517E-18
4.260000E+03	6.177654E-18	1.206222E-18
4.270000E+03	6.223977E-18	1.215090E-18
4.280000E+03	6.271049E-18	1.224099E-18
4.290000E+03	6.318917E-18	1.233260E-18
4.300000E+03	6.367381E-18	1.242533E-18
4.310000E+03	6.416485E-18	1.251927E-18
4.320000E+03	6.466031E-18	1.261402E-18
4.330000E+03	6.516061E-18	1.270968E-18
4.340000E+03	6.566477E-18	1.280604E-18
4.350000E+03	6.617169E-18	1.290289E-18
4.360000E+03	6.668138E-18	1.300024E-18
4.370000E+03	6.719328E-18	1.309796E-18
4.380000E+03	6.770792E-18	1.319618E-18
4.390000E+03	6.822423E-18	1.329467E-18
4.400000E+03	6.874329E-18	1.339365E-18
4.410000E+03	6.926516E-18	1.349312E-18
4.420000E+03	6.978988E-18	1.359310E-18
4.430000E+03	7.031751E-18	1.369360E-18
4.440000E+03	7.084873E-18	1.379474E-18
4.450000E+03	7.138304E-18	1.389643E-18
4.460000E+03	7.192119E-18	1.399881E-18
4.470000E+03	7.246332E-18	1.410192E-18
4.480000E+03	7.300957E-18	1.420577E-18
4.490000E+03	7.355955E-18	1.431029E-18
4.500000E+03	7.411338E-18	1.441550E-18
4.510000E+03	7.467064E-18	1.452132E-18
4.520000E+03	7.523212E-18	1.462790E-18
4.530000E+03	7.579669E-18	1.473503E-18
4.540000E+03	7.636452E-18	1.484273E-18
4.550000E+03	7.693575E-18	1.495103E-18
4.560000E+03	7.750924E-18	1.505970E-18
4.570000E+03	7.808580E-18	1.516891E-18
4.580000E+03	7.866427E-18	1.527843E-18
4.590000E+03	7.924485E-18	1.538829E-18
4.600000E+03	7.982642E-18	1.549828E-18
4.610000E+03	8.040985E-18	1.560856E-18
4.620000E+03	8.099476E-18	1.571907E-18
4.630000E+03	8.158004E-18	1.582958E-18
4.640000E+03	8.216603E-18	1.594016E-18
4.650000E+03	8.275307E-18	1.605088E-18
4.660000E+03	8.334088E-18	1.616167E-18
4.670000E+03	8.392839E-18	1.627234E-18
4.680000E+03	8.451757E-18	1.638326E-18
4.690000E+03	8.510895E-18	1.649453E-18
4.700000E+03	8.570159E-18	1.660598E-18
4.710000E+03	8.629611E-18	1.671772E-18
4.720000E+03	8.689314E-18	1.682987E-18
4.730000E+03	8.749104E-18	1.694211E-18
4.740000E+03	8.809050E-18	1.705458E-18
4.750000E+03	8.869064E-18	1.716710E-18
4.760000E+03	8.929221E-18	1.727983E-18
4.770000E+03	8.989521E-18	1.739275E-18
4.780000E+03	9.049880E-18	1.750570E-18
4.790000E+03	9.110381E-18	1.761886E-18
4.800000E+03	9.170944E-18	1.773205E-18
4.810000E+03	9.231659E-18	1.784545E-18
4.820000E+03	9.292446E-18	1.795891E-18
4.830000E+03	9.353311E-18	1.807244E-18
4.840000E+03	9.414263E-18	1.818605E-18
4.850000E+03	9.475396E-18	1.829993E-18
4.860000E+03	9.536629E-18	1.841391E-18
4.870000E+03	9.597971E-18	1.852801E-18
4.880000E+03	9.659332E-18	1.864207E-18
4.890000E+03	9.720900E-18	1.875644E-18
4.900000E+03	9.782583E-18	1.887094E-18
4.910000E+03	9.844381E-18	1.898557E-18
4.920000E+03	9.906196E-18	1.910014E-18
4.930000E+03	9.968113E-18	1.921481E-18
4.940000E+03	1.003003E-17	1.932939E-18
4.950000E+03	1.009192E-17	1.944384E-18
4.960000E+03	1.015388E-17	1.955832E-18
4.970000E+03	1.021580E-17	1.967261E-18
4.980000E+03	1.027765E-17	1.978669E-18
4.990000E+03	1.033931E-17	1.990031E-18
5.000000E+03	1.040087E-17	2.001362E-18
5.010000E+03	1.046230E-17	2.012658E-18
5.020000E+03	1.052346E-17	2.023894E-18
5.030000E+03	1.058433E-17	2.035063E-18
5.040000E+03	1.064487E-17	2.046158E-18
5.050000E+03	1.070493E-17	2.057153E-18
5.060000E+03	1.076459E-17	2.068059E-18
5.070000E+03	1.082380E-17	2.078869E-18
5.080000E+03	1.088232E-17	2.089535E-18
5.090000E+03	1.094020E-17	2.100070E-18
5.100000E+03	1.099742E-17	2.110467E-18
5.110000E+03	1.105383E-17	2.120698E-18
5.120000E+03	1.110940E-17	2.130758E-18
5.130000E+03	1.116411E-17	2.140641E-18
5.140000E+03	1.121791E-17	2.150343E-18
5.150000E+03	1.127069E-17	2.159836E-18
5.160000E+03	1.132252E-17	2.169138E-18
5.170000E+03	1.137316E-17	2.178201E-18
5.180000E+03	1.142268E-17	2.187039E-18
5.190000E+03	1.147093E-17	2.195625E-18
5.200000E+03	1.151786E-17	2.203950E-18
5.210000E+03	1.156343E-17	2.212003E-18
5.220000E+03	1.160758E-17	2.219774E-18
5.230000E+03	1.165000E-17	2.227205E-18
5.240000E+03	1.169084E-17	2.234324E-18
5.250000E+03	1.172991E-17	2.241094E-18
5.260000E+03	1.176708E-17	2.247495E-18
5.270000E+03	1.180216E-17	2.253484E-18
5.280000E+03	1.183502E-17	2.259041E-18
5.290000E+03	1.186554E-17	2.264144E-18
5.300000E+03	1.189362E-17	2.268772E-18
5.310000E+03	1.191913E-17	2.272903E-18
5.320000E+03	1.194188E-17	2.276496E-18
5.330000E+03	1.196198E-17	2.279580E-18
5.340000E+03	1.197914E-17	2.282093E-18
5.350000E+03	1.199328E-17	2.284025E-18
5.360000E+03	1.200457E-17	2.285408E-18
5.370000E+03	1.201274E-17	2.286191E-18
5.380000E+03	1.201800E-17	2.286412E-18
5.390000E+03	1.202020E-17	2.286046E-18
5.400000E+03	1.201945E-17	2.285113E-18
5.410000E+03	1.201563E-17	2.283593E-18
5.420000E+03	1.200900E-17	2.281532E-18
5.430000E+03	1.199945E-17	2.278913E-18
5.440000E+03	1.198714E-17	2.275766E-18
5.450000E+03	1.197187E-17	2.272055E-18
5.460000E+03	1.195384E-17	2.267814E-18
5.470000E+03	1.193298E-17	2.263035E-18
5.480000E+03	1.190926E-17	2.257712E-18
5.490000E+03	1.188290E-17	2.251885E-18
5.500000E+03	1.185375E-17	2.245529E-18
5.510000E+03	1.182182E-17	2.238644E-18
5.520000E+03	1.178722E-17	2.231253E-18
5.530000E+03	1.174985E-17	2.223337E-18
5.540000E+03	1.170996E-17	2.214943E-18
5.550000E+03	1.166733E-17	2.206033E-18
5.560000E+03	1.162233E-17	2.196676E-18
5.570000E+03	1.157500E-17	2.186878E-18
5.580000E+03	1.152535E-17	2.176645E-18
5.590000E+03	1.147353E-17	2.166003E-18
5.600000E+03	1.141967E-17	2.154979E-18
5.610000E+03	1.136379E-17	2.143576E-18
5.620000E+03	1.130625E-17	2.131864E-18
5.630000E+03	1.124694E-17	2.119821E-18
5.640000E+03	1.118622E-17	2.107515E-18
5.650000E+03	1.112395E-17	2.094922E-18
5.660000E+03	1.106049E-17	2.082107E-18
5.670000E+03	1.099592E-17	2.069090E-18
5.680000E+03	1.093022E-17	2.055866E-18
5.690000E+03	1.086361E-17	2.042474E-18
5.700000E+03	1.079617E-17	2.028931E-18
5.710000E+03	1.072810E-17	2.015274E-18
5.720000E+03	1.065946E-17	2.001518E-18
5.730000E+03	1.059023E-17	1.987656E-18
5.740000E+03	1.052071E-17	1.973745E-18
5.750000E+03	1.045096E-17	1.959797E-18
5.760000E+03	1.038096E-17	1.945807E-18
5.770000E+03	1.031087E-17	1.931809E-18
5.780000E+03	1.024089E-17	1.917837E-18
5.790000E+03	1.017109E-17	1.903905E-18
5.800000E+03	1.010143E-17	1.890006E-18
5.810000E+03	1.003211E-17	1.876176E-18
5.820000E+03	9.963302E-18	1.862449E-18
5.830000E+03	9.895094E-18	1.848841E-18
5.840000E+03	9.827461E-18	1.835347E-18
5.850000E+03	9.760595E-18	1.822002E-18
5.860000E+03	9.694584E-18	1.808824E-18
5.870000E+03	9.629625E-18	1.795848E-18
5.880000E+03	9.565805E-18	1.783091E-18
5.890000E+03	9.503111E-18	1.770550E-18
5.900000E+03	9.441736E-18	1.758261E-18
5.910000E+03	9.381661E-18	1.746220E-18
5.920000E+03	9.323282E-18	1.734500E-18
5.930000E+03	9.266360E-18	1.723056E-18
5.940000E+03	9.211069E-18	1.711921E-18
5.950000E+03	9.157575E-18	1.701125E-18
5.960000E+03	9.105831E-18	1.690659E-18
5.970000E+03	9.055888E-18	1.680532E-18
5.980000E+03	9.007889E-18	1.670770E-18
5.990000E+03	8.961771E-18	1.661360E-18
6.000000E+03	8.917666E-18	1.652328E-18
6.010000E+03	8.875396E-18	1.643639E-18
6.020000E+03	8.835189E-18	1.635334E-18
6.030000E+03	8.796854E-18	1.627379E-18
6.040000E+03	8.760610E-18	1.619813E-18
6.050000E+03	8.726160E-18	1.612580E-18
6.060000E+03	8.693709E-18	1.605719E-18
6.070000E+03	8.663161E-18	1.599210E-18
6.080000E+03	8.634512E-18	1.593053E-18
6.090000E+03	8.607549E-18	1.587208E-18
6.100000E+03	8.582474E-18	1.581711E-18
6.110000E+03	8.558964E-18	1.576502E-18
6.120000E+03	8.537211E-18	1.571617E-18
6.130000E+03	8.516890E-18	1.566995E-18
6.140000E+03	8.497979E-18	1.562631E-18
6.150000E+03	8.480351E-18	1.558502E-18
6.160000E+03	8.463980E-18	1.554603E-18
6.170000E+03	8.448524E-18	1.550870E-18
6.180000E+03	8.433947E-18	1.547297E-18
6.190000E+03	8.420108E-18	1.543857E-18
6.200000E+03	8.406966E-18	1.540542E-18
6.210000E+03	8.394479E-18	1.537346E-18
6.220000E+03	8.382817E-18	1.534298E-18
6.230000E+03	8.372260E-18	1.531450E-18
6.240000E+03	8.362875E-18	1.528814E-18
6.250000E+03	8.354843E-18	1.526422E-18
6.260000E+03	8.348345E-18	1.524306E-18
6.270000E+03	8.343458E-18	1.522481E-18
6.280000E+03	8.340371E-18	1.520981E-18
6.290000E+03	8.339169E-18	1.519819E-18
6.300000E+03	8.339940E-18	1.519013E-18
6.310000E+03	8.342889E-18	1.518597E-18
6.320000E+03	8.347999E-18	1.518569E-18
6.330000E+03	8.355485E-18	1.518966E-18
6.340000E+03	8.365225E-18	1.519767E-18
6.350000E+03	8.377321E-18	1.520987E-18
6.360000E+03	8.391772E-18	1.522627E-18
6.370000E+03	8.408691E-18	1.524706E-18
6.380000E+03	8.427957E-18	1.527201E-18
6.390000E+03	8.449572E-18	1.530112E-18
6.400000E+03	8.473414E-18	1.533416E-18
6.410000E+03	8.499235E-18	1.537066E-18
6.420000E+03	8.526904E-18	1.541040E-18
6.430000E+03	8.556414E-18	1.545333E-18
6.440000E+03	8.587756E-18	1.549945E-18
6.450000E+03	8.620923E-18	1.554873E-18
6.460000E+03	8.656036E-18	1.560139E-18
6.470000E+03	8.693229E-18	1.565765E-18
6.480000E+03	8.732501E-18	1.571750E-18
6.490000E+03	8.773727E-18	1.578072E-18
6.500000E+03	8.817176E-18	1.584778E-18
6.510000E+03	8.862861E-18	1.591869E-18
6.520000E+03	8.910655E-18	1.599322E-18
6.530000E+03	8.960707E-18	1.607161E-18
6.540000E+03	9.013030E-18	1.615390E-18
6.550000E+03	9.067502E-18	1.623985E-18
6.560000E+03	9.124130E-18	1.632945E-18
6.570000E+03	9.183223E-18	1.642326E-18
6.580000E+03	9.244359E-18	1.652052E-18
6.590000E+03	9.307848E-18	1.662176E-18
6.600000E+03	9.373713E-18	1.672701E-18
6.610000E+03	9.441667E-18	1.683576E-18
6.620000E+03	9.512033E-18	1.694857E-18
6.630000E+03	9.584520E-18	1.706490E-18
6.640000E+03	9.659461E-18	1.718535E-18
6.650000E+03	9.736557E-18	1.730937E-18
6.660000E+03	9.815985E-18	1.743727E-18
6.670000E+03	9.897767E-18	1.756907E-18
6.680000E+03	9.981755E-18	1.770450E-18
6.690000E+03	1.006797E-17	1.784357E-18
6.700000E+03	1.015659E-17	1.798662E-18
6.710000E+03	1.024747E-17	1.813336E-18
6.720000E+03	1.034063E-17	1.828382E-18
6.730000E+03	1.043609E-17	1.843801E-18
6.740000E+03	1.053387E-17	1.859597E-18
6.750000E+03	1.063399E-17	1.875772E-18
6.760000E+03	1.073647E-17	1.892329E-18
6.770000E+03	1.084115E-17	1.909237E-18
6.780000E+03	1.094823E-17	1.926532E-18
6.790000E+03	1.105774E-17	1.944217E-18
6.800000E+03	1.116951E-17	1.962260E-18
6.810000E+03	1.128375E-17	1.980698E-18
6.820000E+03	1.140028E-17	1.999499E-18
6.830000E+03	1.151913E-17	2.018665E-18
6.840000E+03	1.164031E-17	2.038199E-18
6.850000E+03	1.176384E-17	2.058101E-18
6.860000E+03	1.188996E-17	2.078412E-18
6.870000E+03	1.201826E-17	2.099059E-18
6.880000E+03	1.214896E-17	2.120082E-18
6.890000E+03	1.228210E-17	2.141482E-18
6.900000E+03	1.241745E-17	2.163223E-18
6.910000E+03	1.255528E-17	2.185345E-18
6.920000E+03	1.269558E-17	2.207851E-18
6.930000E+03	1.283816E-17	2.230702E-18
6.940000E+03	1.298301E-17	2.253898E-18
6.950000E+03	1.313040E-17	2.277482E-18
6.960000E+03	1.328009E-17	2.301412E-18
6.970000E+03	1.343210E-17	2.325691E-18
6.980000E+03	1.358641E-17	2.350315E-18
6.990000E+03	1.374306E-17	2.375286E-18
7.000000E+03	1.390175E-17	2.400556E-18
7.010000E+03	1.406307E-17	2.426220E-18
7.020000E+03	1.422642E-17	2.452179E-18
7.030000E+03	1.439212E-17	2.478482E-18
7.040000E+03	1.455987E-17	2.505079E-18
7.050000E+03	1.472966E-17	2.531967E-18
7.060000E+03	1.490177E-17	2.559192E-18
7.070000E+03	1.507591E-17	2.586703E-18
7.080000E+03	1.525176E-17	2.614443E-18
7.090000E+03	1.542990E-17	2.642513E-18
7.100000E+03	1.561002E-17	2.670857E-18
7.110000E+03	1.579179E-17	2.699416E-18
7.120000E+03	1.597550E-17	2.728242E-18
7.130000E+03	1.616080E-17	2.757272E-18
7.140000E+03	1.634798E-17	2.786554E-18
7.150000E+03	1.653669E-17	2.816029E-18
7.160000E+03	1.672725E-17	2.845749E-18
7.170000E+03	1.691891E-17	2.875586E-18
7.180000E+03	1.711198E-17	2.905592E-18
7.190000E+03	1.730677E-17	2.935819E-18
7.200000E+03	1.750254E-17	2.966141E-18
7.210000E+03	1.769921E-17	2.996542E-18
7.220000E+03	1.789711E-17	3.027079E-18
7.230000E+03	1.809618E-17	3.057741E-18
7.240000E+03	1.829600E-17	3.088454E-18
7.250000E+03	1.849687E-17	3.119272E-18
7.260000E+03	1.869836E-17	3.150119E-18
7.270000E+03	1.890036E-17	3.180978E-18
7.280000E+03	1.910321E-17	3.211904E-18
7.290000E+03	1.930642E-17	3.242815E-18
7.300000E+03	1.951032E-17	3.273765E-18
7.310000E+03	1.971440E-17	3.304672E-18
7.320000E+03	1.991855E-17	3.335512E-18
7.330000E+03	2.012354E-17	3.366419E-18
7.340000E+03	2.032843E-17	3.397231E-18
7.350000E+03	2.053399E-17	3.428078E-18
7.360000E+03	2.073970E-17	3.458875E-18
7.370000E+03	2.094595E-17	3.489684E-18
7.380000E+03	2.115315E-17	3.520574E-18
7.390000E+03	2.136076E-17	3.551455E-18
7.400000E+03	2.156974E-17	3.582486E-18
7.410000E+03	2.178007E-17	3.613664E-18
7.420000E+03	2.199224E-17	3.645069E-18
7.430000E+03	2.220630E-17	3.676707E-18
7.440000E+03	2.242227E-17	3.708582E-18
7.450000E+03	2.264072E-17	3.740785E-18
7.460000E+03	2.286064E-17	3.773153E-18
7.470000E+03	2.308207E-17	3.805687E-18
7.480000E+03	2.330451E-17	3.838306E-18
7.490000E+03	2.352851E-17	3.871100E-18
7.500000E+03	2.375356E-17	3.903984E-18
7.510000E+03	2.397914E-17	3.936872E-18
7.520000E+03	2.420526E-17	3.969767E-18
7.530000E+03	2.443194E-17	4.002671E-18
7.540000E+03	2.465862E-17	4.035493E-18
7.550000E+03	2.488592E-17	4.068334E-18
7.560000E+03	2.511270E-17	4.101007E-18
7.570000E+03	2.534015E-17	4.133709E-18
7.580000E+03	2.556772E-17	4.166348E-18
7.590000E+03	2.579544E-17	4.198929E-18
7.600000E+03	2.602268E-17	4.231351E-18
7.610000E+03	2.625006E-17	4.263716E-18
7.620000E+03	2.647757E-17	4.296021E-18
7.630000E+03	2.670515E-17	4.328257E-18
7.640000E+03	2.693208E-17	4.360309E-18
7.650000E+03	2.715889E-17	4.392261E-18
7.660000E+03	2.738481E-17	4.423990E-18
7.670000E+03	2.761102E-17	4.455688E-18
7.680000E+03	2.783528E-17	4.486993E-18
7.690000E+03	2.805947E-17	4.518210E-18
7.700000E+03	2.828267E-17	4.549191E-18
7.710000E+03	2.850395E-17	4.579786E-18
7.720000E+03	2.872374E-17	4.610067E-18
7.730000E+03	2.894178E-17	4.639994E-18
7.740000E+03	2.915781E-17	4.669524E-18
7.750000E+03	2.937151E-17	4.698612E-18
7.760000E+03	2.958337E-17	4.727332E-18
