#wls	flux	fluxerr
1.600000E+03	3.435975E-16	1.095791E-16
1.640000E+03	3.535185E-16	1.127413E-16
1.680000E+03	3.627688E-16	1.156896E-16
1.720000E+03	3.712415E-16	1.183897E-16
1.760000E+03	3.787835E-16	1.207928E-16
1.800000E+03	3.852737E-16	1.228604E-16
1.840000E+03	3.905513E-16	1.245411E-16
1.880000E+03	3.945256E-16	1.258061E-16
1.920000E+03	3.970716E-16	1.266156E-16
1.960000E+03	3.980377E-16	1.269211E-16
2.000000E+03	3.973493E-16	1.266990E-16
2.040000E+03	3.948833E-16	1.259100E-16
2.080000E+03	3.905429E-16	1.245233E-16
2.120000E+03	3.843165E-16	1.225352E-16
2.160000E+03	3.760934E-16	1.199105E-16
2.200000E+03	3.658247E-16	1.166336E-16
2.240000E+03	3.534636E-16	1.126898E-16
2.280000E+03	3.389141E-16	1.080483E-16
2.320000E+03	3.226242E-16	1.028522E-16
2.360000E+03	3.050450E-16	9.724525E-17
2.400000E+03	2.865354E-16	9.134192E-17
2.440000E+03	2.674005E-16	8.523953E-17
2.480000E+03	2.479263E-16	7.902930E-17
2.520000E+03	2.283692E-16	7.279291E-17
2.560000E+03	2.089516E-16	6.660132E-17
2.600000E+03	1.898936E-16	6.052469E-17
2.640000E+03	1.713907E-16	5.462535E-17
2.680000E+03	1.536146E-16	4.895799E-17
2.720000E+03	1.367131E-16	4.356972E-17
2.760000E+03	1.208172E-16	3.850230E-17
2.800000E+03	1.060138E-16	3.378335E-17
2.840000E+03	9.237056E-17	2.943446E-17
2.880000E+03	7.993843E-17	2.547179E-17
2.920000E+03	6.874231E-17	2.190326E-17
2.960000E+03	5.878521E-17	1.872979E-17
3.000000E+03	5.003841E-17	1.594219E-17
3.010000E+03	4.803397E-17	1.530339E-17
3.020000E+03	4.610025E-17	1.468714E-17
3.030000E+03	4.423663E-17	1.409323E-17
3.040000E+03	4.244141E-17	1.352113E-17
3.050000E+03	4.071287E-17	1.297029E-17
3.060000E+03	3.905016E-17	1.244043E-17
3.070000E+03	3.745062E-17	1.193070E-17
3.080000E+03	3.591411E-17	1.144107E-17
3.090000E+03	3.443800E-17	1.097069E-17
3.100000E+03	3.302118E-17	1.051921E-17
3.110000E+03	3.166184E-17	1.008605E-17
3.120000E+03	3.035876E-17	9.670815E-18
3.130000E+03	2.911007E-17	9.272921E-18
3.140000E+03	2.791391E-17	8.891771E-18
3.150000E+03	2.676904E-17	8.526966E-18
3.160000E+03	2.567313E-17	8.177766E-18
3.170000E+03	2.462537E-17	7.843913E-18
3.180000E+03	2.362357E-17	7.524707E-18
3.190000E+03	2.266639E-17	7.219721E-18
3.200000E+03	2.175216E-17	6.928422E-18
3.210000E+03	2.087922E-17	6.650283E-18
3.220000E+03	2.004629E-17	6.384896E-18
3.230000E+03	1.925177E-17	6.131748E-18
3.240000E+03	1.849378E-17	5.890242E-18
3.250000E+03	1.777174E-17	5.660192E-18
3.260000E+03	1.708327E-17	5.440838E-18
3.270000E+03	1.642778E-17	5.231995E-18
3.280000E+03	1.580333E-17	5.033044E-18
3.290000E+03	1.520885E-17	4.843640E-18
3.300000E+03	1.464325E-17	4.663441E-18
3.310000E+03	1.410482E-17	4.491899E-18
3.320000E+03	1.359279E-17	4.328768E-18
3.330000E+03	1.310596E-17	4.173668E-18
3.340000E+03	1.264301E-17	4.026177E-18
3.350000E+03	1.220287E-17	3.885953E-18
3.360000E+03	1.178451E-17	3.752669E-18
3.370000E+03	1.138710E-17	3.626060E-18
3.380000E+03	1.100937E-17	3.505723E-18
3.390000E+03	1.065073E-17	3.391465E-18
3.400000E+03	1.031001E-17	3.282919E-18
3.410000E+03	9.986409E-18	3.179825E-18
3.420000E+03	9.679269E-18	3.081977E-18
3.430000E+03	9.387479E-18	2.989018E-18
3.440000E+03	9.110587E-18	2.900806E-18
3.450000E+03	8.847800E-18	2.817088E-18
3.460000E+03	8.598184E-18	2.737565E-18
3.470000E+03	8.361363E-18	2.662118E-18
3.480000E+03	8.136488E-18	2.590477E-18
3.490000E+03	7.923048E-18	2.522479E-18
3.500000E+03	7.720472E-18	2.457942E-18
3.510000E+03	7.527968E-18	2.396613E-18
3.520000E+03	7.345142E-18	2.338366E-18
3.530000E+03	7.171376E-18	2.283006E-18
3.540000E+03	7.006101E-18	2.230351E-18
3.550000E+03	6.848873E-18	2.180259E-18
3.560000E+03	6.699125E-18	2.132550E-18
3.570000E+03	6.556416E-18	2.087082E-18
3.580000E+03	6.420265E-18	2.043704E-18
3.590000E+03	6.290351E-18	2.002312E-18
3.600000E+03	6.166314E-18	1.962792E-18
3.610000E+03	6.047758E-18	1.925018E-18
3.620000E+03	5.934427E-18	1.888909E-18
3.630000E+03	5.826076E-18	1.854385E-18
3.640000E+03	5.722365E-18	1.821340E-18
3.650000E+03	5.623236E-18	1.789754E-18
3.660000E+03	5.528368E-18	1.759525E-18
3.670000E+03	5.437657E-18	1.730620E-18
3.680000E+03	5.350947E-18	1.702989E-18
3.690000E+03	5.268087E-18	1.676585E-18
3.700000E+03	5.188974E-18	1.651373E-18
3.710000E+03	5.113550E-18	1.627336E-18
3.720000E+03	5.041573E-18	1.604398E-18
3.730000E+03	4.973075E-18	1.582567E-18
3.740000E+03	4.907865E-18	1.561782E-18
3.750000E+03	4.845880E-18	1.542025E-18
3.760000E+03	4.787063E-18	1.523277E-18
3.770000E+03	4.731231E-18	1.505478E-18
3.780000E+03	4.678401E-18	1.488636E-18
3.790000E+03	4.628434E-18	1.472705E-18
3.800000E+03	4.581274E-18	1.457668E-18
3.810000E+03	4.536820E-18	1.443492E-18
3.820000E+03	4.495017E-18	1.430159E-18
3.830000E+03	4.455770E-18	1.417641E-18
3.840000E+03	4.419023E-18	1.405918E-18
3.850000E+03	4.384690E-18	1.394964E-18
3.860000E+03	4.352750E-18	1.384770E-18
3.870000E+03	4.323117E-18	1.375312E-18
3.880000E+03	4.295711E-18	1.366561E-18
3.890000E+03	4.270477E-18	1.358503E-18
3.900000E+03	4.247340E-18	1.351111E-18
3.910000E+03	4.226289E-18	1.344383E-18
3.920000E+03	4.207244E-18	1.338293E-18
3.930000E+03	4.190166E-18	1.332828E-18
3.940000E+03	4.174980E-18	1.327966E-18
3.950000E+03	4.161619E-18	1.323684E-18
3.960000E+03	4.150106E-18	1.319990E-18
3.970000E+03	4.140313E-18	1.316843E-18
3.980000E+03	4.132238E-18	1.314242E-18
3.990000E+03	4.125814E-18	1.312166E-18
4.000000E+03	4.121013E-18	1.310606E-18
4.010000E+03	4.117807E-18	1.309554E-18
4.020000E+03	4.116099E-18	1.308977E-18
4.030000E+03	4.115901E-18	1.308881E-18
4.040000E+03	4.117151E-18	1.309245E-18
4.050000E+03	4.119830E-18	1.310062E-18
4.060000E+03	4.123879E-18	1.311316E-18
4.070000E+03	4.129250E-18	1.312989E-18
4.080000E+03	4.135950E-18	1.315084E-18
4.090000E+03	4.143899E-18	1.317576E-18
4.100000E+03	4.153081E-18	1.320460E-18
4.110000E+03	4.163477E-18	1.323730E-18
4.120000E+03	4.175009E-18	1.327360E-18
4.130000E+03	4.187696E-18	1.331357E-18
4.140000E+03	4.201460E-18	1.335696E-18
4.150000E+03	4.216285E-18	1.340371E-18
4.160000E+03	4.232165E-18	1.345382E-18
4.170000E+03	4.249022E-18	1.350703E-18
4.180000E+03	4.266882E-18	1.356341E-18
4.190000E+03	4.285634E-18	1.362263E-18
4.200000E+03	4.305338E-18	1.368487E-18
4.210000E+03	4.325887E-18	1.374979E-18
4.220000E+03	4.347276E-18	1.381737E-18
4.230000E+03	4.369465E-18	1.388748E-18
4.240000E+03	4.392446E-18	1.396011E-18
4.250000E+03	4.416118E-18	1.403492E-18
4.260000E+03	4.440504E-18	1.411200E-18
4.270000E+03	4.465536E-18	1.419112E-18
4.280000E+03	4.491138E-18	1.427205E-18
4.290000E+03	4.517305E-18	1.435476E-18
4.300000E+03	4.544002E-18	1.443915E-18
4.310000E+03	4.571111E-18	1.452484E-18
4.320000E+03	4.598598E-18	1.461172E-18
4.330000E+03	4.626415E-18	1.469965E-18
4.340000E+03	4.654524E-18	1.478849E-18
4.350000E+03	4.682881E-18	1.487811E-18
4.360000E+03	4.711479E-18	1.496848E-18
4.370000E+03	4.740274E-18	1.505948E-18
4.380000E+03	4.769225E-18	1.515096E-18
4.390000E+03	4.798403E-18	1.524315E-18
4.400000E+03	4.827765E-18	1.533591E-18
4.410000E+03	4.857310E-18	1.542925E-18
4.420000E+03	4.887076E-18	1.552328E-18
4.430000E+03	4.917065E-18	1.561801E-18
4.440000E+03	4.947237E-18	1.571331E-18
4.450000E+03	4.977638E-18	1.580933E-18
4.460000E+03	5.008232E-18	1.590595E-18
4.470000E+03	5.039025E-18	1.600320E-18
4.480000E+03	5.070025E-18	1.610108E-18
4.490000E+03	5.101160E-18	1.619939E-18
4.500000E+03	5.132479E-18	1.629827E-18
4.510000E+03	5.163952E-18	1.639763E-18
4.520000E+03	5.195552E-18	1.649738E-18
4.530000E+03	5.227293E-18	1.659756E-18
4.540000E+03	5.259103E-18	1.669796E-18
4.550000E+03	5.291000E-18	1.679862E-18
4.560000E+03	5.323003E-18	1.689960E-18
4.570000E+03	5.355090E-18	1.700084E-18
4.580000E+03	5.387190E-18	1.710211E-18
4.590000E+03	5.419333E-18	1.720350E-18
4.600000E+03	5.451495E-18	1.730495E-18
4.610000E+03	5.483657E-18	1.740638E-18
4.620000E+03	5.515851E-18	1.750789E-18
4.630000E+03	5.548013E-18	1.760930E-18
4.640000E+03	5.580173E-18	1.771068E-18
4.650000E+03	5.612322E-18	1.781202E-18
4.660000E+03	5.644446E-18	1.791327E-18
4.670000E+03	5.676537E-18	1.801440E-18
4.680000E+03	5.708584E-18	1.811537E-18
4.690000E+03	5.740578E-18	1.821617E-18
4.700000E+03	5.772616E-18	1.831709E-18
4.710000E+03	5.804694E-18	1.841812E-18
4.720000E+03	5.836811E-18	1.851927E-18
4.730000E+03	5.869071E-18	1.862085E-18
4.740000E+03	5.901423E-18	1.872271E-18
4.750000E+03	5.933868E-18	1.882486E-18
4.760000E+03	5.966470E-18	1.892749E-18
4.770000E+03	5.999230E-18	1.903060E-18
4.780000E+03	6.032104E-18	1.913407E-18
4.790000E+03	6.065152E-18	1.923807E-18
4.800000E+03	6.098384E-18	1.934264E-18
4.810000E+03	6.131756E-18	1.944764E-18
4.820000E+03	6.165333E-18	1.955327E-18
4.830000E+03	6.199124E-18	1.965957E-18
4.840000E+03	6.233147E-18	1.976659E-18
4.850000E+03	6.267411E-18	1.987435E-18
4.860000E+03	6.301875E-18	1.998273E-18
4.870000E+03	6.336665E-18	2.009214E-18
4.880000E+03	6.371682E-18	2.020224E-18
4.890000E+03	6.406936E-18	2.031309E-18
4.900000E+03	6.442506E-18	2.042491E-18
4.910000E+03	6.478401E-18	2.053775E-18
4.920000E+03	6.514640E-18	2.065166E-18
4.930000E+03	6.551114E-18	2.076631E-18
4.940000E+03	6.587959E-18	2.088211E-18
4.950000E+03	6.625126E-18	2.099891E-18
4.960000E+03	6.662629E-18	2.111676E-18
4.970000E+03	6.700477E-18	2.123568E-18
4.980000E+03	6.738686E-18	2.135573E-18
4.990000E+03	6.777196E-18	2.147672E-18
5.000000E+03	6.816020E-18	2.159868E-18
5.010000E+03	6.855229E-18	2.172184E-18
5.020000E+03	6.894764E-18	2.184601E-18
5.030000E+03	6.934564E-18	2.197101E-18
5.040000E+03	6.974767E-18	2.209726E-18
5.050000E+03	7.015174E-18	2.222414E-18
5.060000E+03	7.055918E-18	2.235206E-18
5.070000E+03	7.097000E-18	2.248104E-18
5.080000E+03	7.138215E-18	2.261041E-18
5.090000E+03	7.179761E-18	2.274081E-18
5.100000E+03	7.221493E-18	2.287178E-18
5.110000E+03	7.263409E-18	2.300331E-18
5.120000E+03	7.305562E-18	2.313557E-18
5.130000E+03	7.347808E-18	2.326810E-18
5.140000E+03	7.390127E-18	2.340084E-18
5.150000E+03	7.432577E-18	2.353397E-18
5.160000E+03	7.475070E-18	2.366721E-18
5.170000E+03	7.517587E-18	2.380050E-18
5.180000E+03	7.560035E-18	2.393356E-18
5.190000E+03	7.602463E-18	2.406652E-18
5.200000E+03	7.644698E-18	2.419885E-18
5.210000E+03	7.686864E-18	2.433094E-18
5.220000E+03	7.728857E-18	2.446246E-18
5.230000E+03	7.770573E-18	2.459308E-18
5.240000E+03	7.811977E-18	2.472268E-18
5.250000E+03	7.853115E-18	2.485142E-18
5.260000E+03	7.893797E-18	2.497869E-18
5.270000E+03	7.934062E-18	2.510462E-18
5.280000E+03	7.973952E-18	2.522934E-18
5.290000E+03	8.013193E-18	2.535198E-18
5.300000E+03	8.051980E-18	2.547315E-18
5.310000E+03	8.090038E-18	2.559200E-18
5.320000E+03	8.127561E-18	2.570913E-18
5.330000E+03	8.164271E-18	2.582366E-18
5.340000E+03	8.200284E-18	2.593597E-18
5.350000E+03	8.235563E-18	2.604593E-18
5.360000E+03	8.269982E-18	2.615314E-18
5.370000E+03	8.303668E-18	2.625802E-18
5.380000E+03	8.336333E-18	2.635964E-18
5.390000E+03	8.368187E-18	2.645867E-18
5.400000E+03	8.399113E-18	2.655475E-18
5.410000E+03	8.429071E-18	2.664774E-18
5.420000E+03	8.458030E-18	2.673756E-18
5.430000E+03	8.485957E-18	2.682408E-18
5.440000E+03	8.512735E-18	2.690695E-18
5.450000E+03	8.538331E-18	2.698607E-18
5.460000E+03	8.562719E-18	2.706135E-18
5.470000E+03	8.585868E-18	2.713268E-18
5.480000E+03	8.607670E-18	2.719975E-18
5.490000E+03	8.628007E-18	2.726216E-18
5.500000E+03	8.646948E-18	2.732014E-18
5.510000E+03	8.664381E-18	2.737333E-18
5.520000E+03	8.680196E-18	2.742140E-18
5.530000E+03	8.694290E-18	2.746401E-18
5.540000E+03	8.706730E-18	2.750138E-18
5.550000E+03	8.717324E-18	2.753290E-18
5.560000E+03	8.726145E-18	2.755881E-18
5.570000E+03	8.733005E-18	2.757850E-18
5.580000E+03	8.737893E-18	2.759196E-18
5.590000E+03	8.740889E-18	2.759942E-18
5.600000E+03	8.741808E-18	2.760032E-18
5.610000E+03	8.740737E-18	2.759492E-18
5.620000E+03	8.737671E-18	2.758321E-18
5.630000E+03	8.732529E-18	2.756494E-18
5.640000E+03	8.725309E-18	2.754010E-18
5.650000E+03	8.716113E-18	2.750901E-18
5.660000E+03	8.704948E-18	2.747171E-18
5.670000E+03	8.691739E-18	2.742794E-18
5.680000E+03	8.676594E-18	2.737806E-18
5.690000E+03	8.659624E-18	2.732242E-18
5.700000E+03	8.640669E-18	2.726051E-18
5.710000E+03	8.619852E-18	2.719272E-18
5.720000E+03	8.597287E-18	2.711942E-18
5.730000E+03	8.573014E-18	2.704073E-18
5.740000E+03	8.547067E-18	2.695676E-18
5.750000E+03	8.519487E-18	2.686764E-18
5.760000E+03	8.490322E-18	2.677352E-18
5.770000E+03	8.459704E-18	2.667483E-18
5.780000E+03	8.427598E-18	2.657144E-18
5.790000E+03	8.394234E-18	2.646409E-18
5.800000E+03	8.359583E-18	2.635270E-18
5.810000E+03	8.323702E-18	2.623742E-18
5.820000E+03	8.286832E-18	2.611904E-18
5.830000E+03	8.248859E-18	2.599720E-18
5.840000E+03	8.209943E-18	2.587238E-18
5.850000E+03	8.170238E-18	2.574509E-18
5.860000E+03	8.129730E-18	2.561528E-18
5.870000E+03	8.088578E-18	2.548344E-18
5.880000E+03	8.046766E-18	2.534954E-18
5.890000E+03	8.004551E-18	2.521438E-18
5.900000E+03	7.961917E-18	2.507791E-18
5.910000E+03	7.918943E-18	2.494038E-18
5.920000E+03	7.875791E-18	2.480230E-18
5.930000E+03	7.832451E-18	2.466365E-18
5.940000E+03	7.789086E-18	2.452492E-18
5.950000E+03	7.745682E-18	2.438609E-18
5.960000E+03	7.702401E-18	2.424765E-18
5.970000E+03	7.659317E-18	2.410985E-18
5.980000E+03	7.616498E-18	2.397290E-18
5.990000E+03	7.573925E-18	2.383673E-18
6.000000E+03	7.531754E-18	2.370183E-18
6.010000E+03	7.490046E-18	2.356841E-18
6.020000E+03	7.448777E-18	2.343639E-18
6.030000E+03	7.408093E-18	2.330621E-18
6.040000E+03	7.367962E-18	2.317779E-18
6.050000E+03	7.328352E-18	2.305102E-18
6.060000E+03	7.289484E-18	2.292659E-18
6.070000E+03	7.251235E-18	2.280412E-18
6.080000E+03	7.213733E-18	2.268402E-18
6.090000E+03	7.176849E-18	2.256586E-18
6.100000E+03	7.140703E-18	2.245004E-18
6.110000E+03	7.105248E-18	2.233640E-18
6.120000E+03	7.070515E-18	2.222504E-18
6.130000E+03	7.036534E-18	2.211606E-18
6.140000E+03	7.003241E-18	2.200925E-18
6.150000E+03	6.970660E-18	2.190468E-18
6.160000E+03	6.938816E-18	2.180244E-18
6.170000E+03	6.907721E-18	2.170256E-18
6.180000E+03	6.877390E-18	2.160509E-18
6.190000E+03	6.847751E-18	2.150980E-18
6.200000E+03	6.818897E-18	2.141699E-18
6.210000E+03	6.790835E-18	2.132667E-18
6.220000E+03	6.763572E-18	2.123887E-18
6.230000E+03	6.737194E-18	2.115385E-18
6.240000E+03	6.711792E-18	2.107190E-18
6.250000E+03	6.687454E-18	2.099330E-18
6.260000E+03	6.664266E-18	2.091831E-18
6.270000E+03	6.642311E-18	2.084720E-18
6.280000E+03	6.621769E-18	2.078053E-18
6.290000E+03	6.602545E-18	2.071799E-18
6.300000E+03	6.584997E-18	2.066072E-18
6.310000E+03	6.569028E-18	2.060840E-18
6.320000E+03	6.554820E-18	2.056160E-18
6.330000E+03	6.542461E-18	2.052061E-18
6.340000E+03	6.532047E-18	2.048571E-18
6.350000E+03	6.523575E-18	2.045689E-18
6.360000E+03	6.517142E-18	2.043447E-18
6.370000E+03	6.512846E-18	2.041874E-18
6.380000E+03	6.510692E-18	2.040972E-18
6.390000E+03	6.510686E-18	2.040741E-18
6.400000E+03	6.512932E-18	2.041216E-18
6.410000E+03	6.517249E-18	2.042339E-18
6.420000E+03	6.523646E-18	2.044112E-18
6.430000E+03	6.532033E-18	2.046507E-18
6.440000E+03	6.542223E-18	2.049465E-18
6.450000E+03	6.554321E-18	2.053019E-18
6.460000E+03	6.568134E-18	2.057108E-18
6.470000E+03	6.583761E-18	2.061763E-18
6.480000E+03	6.601217E-18	2.066989E-18
6.490000E+03	6.620398E-18	2.072752E-18
6.500000E+03	6.641314E-18	2.079056E-18
6.510000E+03	6.663967E-18	2.085901E-18
6.520000E+03	6.688368E-18	2.093290E-18
6.530000E+03	6.714515E-18	2.101223E-18
6.540000E+03	6.742528E-18	2.109737E-18
6.550000E+03	6.772305E-18	2.118800E-18
6.560000E+03	6.803749E-18	2.128381E-18
6.570000E+03	6.837083E-18	2.138549E-18
6.580000E+03	6.872098E-18	2.149239E-18
6.590000E+03	6.908911E-18	2.160488E-18
6.600000E+03	6.947532E-18	2.172299E-18
6.610000E+03	6.987973E-18	2.184674E-18
6.620000E+03	7.030245E-18	2.197617E-18
6.630000E+03	7.074243E-18	2.211096E-18
6.640000E+03	7.120092E-18	2.225148E-18
6.650000E+03	7.167687E-18	2.239741E-18
6.660000E+03	7.217156E-18	2.254915E-18
6.670000E+03	7.268395E-18	2.270637E-18
6.680000E+03	7.321409E-18	2.286908E-18
6.690000E+03	7.376339E-18	2.303772E-18
6.700000E+03	7.433198E-18	2.321233E-18
6.710000E+03	7.491746E-18	2.339216E-18
6.720000E+03	7.552250E-18	2.357804E-18
6.730000E+03	7.614463E-18	2.376919E-18
6.740000E+03	7.678665E-18	2.396648E-18
6.750000E+03	7.744734E-18	2.416954E-18
6.760000E+03	7.812548E-18	2.437797E-18
6.770000E+03	7.882395E-18	2.459269E-18
6.780000E+03	7.954011E-18	2.481285E-18
6.790000E+03	8.027551E-18	2.503894E-18
6.800000E+03	8.103030E-18	2.527101E-18
6.810000E+03	8.180462E-18	2.550909E-18
6.820000E+03	8.259714E-18	2.575277E-18
6.830000E+03	8.340949E-18	2.600255E-18
6.840000E+03	8.424026E-18	2.625800E-18
6.850000E+03	8.509115E-18	2.651963E-18
6.860000E+03	8.596074E-18	2.678700E-18
6.870000E+03	8.684912E-18	2.706015E-18
6.880000E+03	8.775802E-18	2.733960E-18
6.890000E+03	8.868431E-18	2.762437E-18
6.900000E+03	8.963138E-18	2.791553E-18
6.910000E+03	9.059767E-18	2.821257E-18
6.920000E+03	9.158330E-18	2.851555E-18
6.930000E+03	9.258837E-18	2.882447E-18
6.940000E+03	9.361297E-18	2.913938E-18
6.950000E+03	9.465536E-18	2.945972E-18
6.960000E+03	9.571741E-18	2.978607E-18
6.970000E+03	9.679918E-18	3.011846E-18
6.980000E+03	9.790076E-18	3.045690E-18
6.990000E+03	9.901839E-18	3.080022E-18
7.000000E+03	1.001578E-17	3.115021E-18
7.010000E+03	1.013132E-17	3.150505E-18
7.020000E+03	1.024886E-17	3.186598E-18
7.030000E+03	1.036818E-17	3.223235E-18
7.040000E+03	1.048929E-17	3.260416E-18
7.050000E+03	1.061219E-17	3.298139E-18
7.060000E+03	1.073686E-17	3.336401E-18
7.070000E+03	1.086308E-17	3.375133E-18
7.080000E+03	1.099105E-17	3.414397E-18
7.090000E+03	1.112078E-17	3.454191E-18
7.100000E+03	1.125201E-17	3.494440E-18
7.110000E+03	1.138495E-17	3.535209E-18
7.120000E+03	1.151937E-17	3.576421E-18
7.130000E+03	1.165524E-17	3.618069E-18
7.140000E+03	1.179253E-17	3.660144E-18
7.150000E+03	1.193146E-17	3.702715E-18
7.160000E+03	1.207151E-17	3.745621E-18
7.170000E+03	1.221265E-17	3.788848E-18
7.180000E+03	1.235534E-17	3.832543E-18
7.190000E+03	1.249905E-17	3.876538E-18
7.200000E+03	1.264372E-17	3.920817E-18
7.210000E+03	1.278957E-17	3.965450E-18
7.220000E+03	1.293630E-17	4.010339E-18
7.230000E+03	1.308386E-17	4.055468E-18
7.240000E+03	1.323218E-17	4.100820E-18
7.250000E+03	1.338122E-17	4.146379E-18
7.260000E+03	1.353120E-17	4.192216E-18
7.270000E+03	1.368150E-17	4.238134E-18
7.280000E+03	1.383263E-17	4.284295E-18
7.290000E+03	1.398425E-17	4.330591E-18
7.300000E+03	1.413628E-17	4.377001E-18
7.310000E+03	1.428898E-17	4.423601E-18
7.320000E+03	1.444198E-17	4.470277E-18
7.330000E+03	1.459552E-17	4.517107E-18
7.340000E+03	1.474956E-17	4.564075E-18
7.350000E+03	1.490437E-17	4.611265E-18
7.360000E+03	1.505991E-17	4.658665E-18
7.370000E+03	1.521648E-17	4.706367E-18
7.380000E+03	1.537370E-17	4.754255E-18
7.390000E+03	1.553259E-17	4.802643E-18
7.400000E+03	1.569315E-17	4.851531E-18
7.410000E+03	1.585502E-17	4.900808E-18
7.420000E+03	1.601930E-17	4.950812E-18
7.430000E+03	1.618564E-17	5.001437E-18
7.440000E+03	1.635445E-17	5.052808E-18
7.450000E+03	1.652537E-17	5.104814E-18
7.460000E+03	1.669882E-17	5.157584E-18
7.470000E+03	1.687363E-17	5.210757E-18
7.480000E+03	1.705061E-17	5.264581E-18
7.490000E+03	1.722854E-17	5.318680E-18
7.500000E+03	1.740780E-17	5.373172E-18
7.510000E+03	1.758795E-17	5.427922E-18
7.520000E+03	1.776853E-17	5.482789E-18
7.530000E+03	1.794993E-17	5.537887E-18
7.540000E+03	1.813079E-17	5.592801E-18
7.550000E+03	1.831190E-17	5.647775E-18
7.560000E+03	1.849275E-17	5.702652E-18
7.570000E+03	1.867328E-17	5.757410E-18
7.580000E+03	1.885292E-17	5.811877E-18
7.590000E+03	1.903205E-17	5.866170E-18
7.600000E+03	1.921011E-17	5.920113E-18
7.610000E+03	1.938698E-17	5.973674E-18
7.620000E+03	1.956304E-17	6.026970E-18
7.630000E+03	1.973771E-17	6.079817E-18
7.640000E+03	1.991136E-17	6.132336E-18
7.650000E+03	2.008288E-17	6.184181E-18
7.660000E+03	2.025314E-17	6.235623E-18
7.670000E+03	2.042155E-17	6.286479E-18
7.680000E+03	2.058846E-17	6.336858E-18
7.690000E+03	2.075325E-17	6.386566E-18
7.700000E+03	2.091578E-17	6.435567E-18
7.710000E+03	2.107591E-17	6.483812E-18
7.720000E+03	2.123460E-17	6.531601E-18
7.730000E+03	2.139009E-17	6.578391E-18
7.740000E+03	2.154391E-17	6.624652E-18
7.750000E+03	2.169481E-17	6.670001E-18
7.760000E+03	2.184319E-17	6.714566E-18
