#wls	flux	fluxerr
1.600000E+03	7.182131E-17	2.455313E-17
1.640000E+03	7.221056E-17	2.462417E-17
1.680000E+03	7.251457E-17	2.466558E-17
1.720000E+03	7.273913E-17	2.467957E-17
1.760000E+03	7.286070E-17	2.465835E-17
1.800000E+03	7.290245E-17	2.460536E-17
1.840000E+03	7.283470E-17	2.451549E-17
1.880000E+03	7.266599E-17	2.439190E-17
1.920000E+03	7.239054E-17	2.423294E-17
1.960000E+03	7.199637E-17	2.403003E-17
2.000000E+03	7.148398E-17	2.378862E-17
2.040000E+03	7.084213E-17	2.350531E-17
2.080000E+03	7.006106E-17	2.317726E-17
2.120000E+03	6.913814E-17	2.279910E-17
2.160000E+03	6.805341E-17	2.236975E-17
2.200000E+03	6.678047E-17	2.188108E-17
2.240000E+03	6.529020E-17	2.132416E-17
2.280000E+03	6.358067E-17	2.069430E-17
2.320000E+03	6.167426E-17	2.000448E-17
2.360000E+03	5.963192E-17	1.927507E-17
2.400000E+03	5.749525E-17	1.851992E-17
2.440000E+03	5.530293E-17	1.774742E-17
2.480000E+03	5.306608E-17	1.696601E-17
2.520000E+03	5.080324E-17	1.618173E-17
2.560000E+03	4.852402E-17	1.539773E-17
2.600000E+03	4.624507E-17	1.461554E-17
2.640000E+03	4.396910E-17	1.384016E-17
2.680000E+03	4.170358E-17	1.307392E-17
2.720000E+03	3.945668E-17	1.231930E-17
2.760000E+03	3.723648E-17	1.157560E-17
2.800000E+03	3.504678E-17	1.084741E-17
2.840000E+03	3.289508E-17	1.013691E-17
2.880000E+03	3.079180E-17	9.447124E-18
2.920000E+03	2.875223E-17	8.780253E-18
2.960000E+03	2.678809E-17	8.142181E-18
3.000000E+03	2.491379E-17	7.536938E-18
3.010000E+03	2.446070E-17	7.391148E-18
3.020000E+03	2.401394E-17	7.247307E-18
3.030000E+03	2.357427E-17	7.105937E-18
3.040000E+03	2.314062E-17	6.966705E-18
3.050000E+03	2.271398E-17	6.829902E-18
3.060000E+03	2.229438E-17	6.695403E-18
3.070000E+03	2.188210E-17	6.563414E-18
3.080000E+03	2.147614E-17	6.433632E-18
3.090000E+03	2.107780E-17	6.306432E-18
3.100000E+03	2.068619E-17	6.181426E-18
3.110000E+03	2.030198E-17	6.058928E-18
3.120000E+03	1.992506E-17	5.938897E-18
3.130000E+03	1.955495E-17	5.821177E-18
3.140000E+03	1.919241E-17	5.705883E-18
3.150000E+03	1.883688E-17	5.592949E-18
3.160000E+03	1.848864E-17	5.482453E-18
3.170000E+03	1.814757E-17	5.374349E-18
3.180000E+03	1.781366E-17	5.268526E-18
3.190000E+03	1.748706E-17	5.165122E-18
3.200000E+03	1.716763E-17	5.064089E-18
3.210000E+03	1.685497E-17	4.965304E-18
3.220000E+03	1.654965E-17	4.868824E-18
3.230000E+03	1.625123E-17	4.774615E-18
3.240000E+03	1.595992E-17	4.682732E-18
3.250000E+03	1.567566E-17	4.593145E-18
3.260000E+03	1.539821E-17	4.505686E-18
3.270000E+03	1.512791E-17	4.420542E-18
3.280000E+03	1.486423E-17	4.337545E-18
3.290000E+03	1.460754E-17	4.256799E-18
3.300000E+03	1.435781E-17	4.178204E-18
3.310000E+03	1.411449E-17	4.101674E-18
3.320000E+03	1.387790E-17	4.027294E-18
3.330000E+03	1.364797E-17	3.955039E-18
3.340000E+03	1.342445E-17	3.884751E-18
3.350000E+03	1.320723E-17	3.816466E-18
3.360000E+03	1.299624E-17	3.750160E-18
3.370000E+03	1.279139E-17	3.685797E-18
3.380000E+03	1.259268E-17	3.623297E-18
3.390000E+03	1.239997E-17	3.562687E-18
3.400000E+03	1.221303E-17	3.503893E-18
3.410000E+03	1.203164E-17	3.446850E-18
3.420000E+03	1.185610E-17	3.391560E-18
3.430000E+03	1.168586E-17	3.337935E-18
3.440000E+03	1.152100E-17	3.285989E-18
3.450000E+03	1.136133E-17	3.235662E-18
3.460000E+03	1.120687E-17	3.186886E-18
3.470000E+03	1.105725E-17	3.139617E-18
3.480000E+03	1.091231E-17	3.093805E-18
3.490000E+03	1.077204E-17	3.049440E-18
3.500000E+03	1.063622E-17	3.006391E-18
3.510000E+03	1.050480E-17	2.964701E-18
3.520000E+03	1.037730E-17	2.924233E-18
3.530000E+03	1.025375E-17	2.884988E-18
3.540000E+03	1.013389E-17	2.846826E-18
3.550000E+03	1.001750E-17	2.809743E-18
3.560000E+03	9.904402E-18	2.773688E-18
3.570000E+03	9.794257E-18	2.738557E-18
3.580000E+03	9.687178E-18	2.704324E-18
3.590000E+03	9.582893E-18	2.670965E-18
3.600000E+03	9.481194E-18	2.638419E-18
3.610000E+03	9.382160E-18	2.606705E-18
3.620000E+03	9.285546E-18	2.575697E-18
3.630000E+03	9.191218E-18	2.545409E-18
3.640000E+03	9.099088E-18	2.515816E-18
3.650000E+03	9.009075E-18	2.486890E-18
3.660000E+03	8.921136E-18	2.458566E-18
3.670000E+03	8.835157E-18	2.430861E-18
3.680000E+03	8.751140E-18	2.403776E-18
3.690000E+03	8.669089E-18	2.377306E-18
3.700000E+03	8.588956E-18	2.351387E-18
3.710000E+03	8.510929E-18	2.326118E-18
3.720000E+03	8.434839E-18	2.301451E-18
3.730000E+03	8.360815E-18	2.277417E-18
3.740000E+03	8.288864E-18	2.253968E-18
3.750000E+03	8.218991E-18	2.231151E-18
3.760000E+03	8.151365E-18	2.209009E-18
3.770000E+03	8.085801E-18	2.187488E-18
3.780000E+03	8.022485E-18	2.166590E-18
3.790000E+03	7.961462E-18	2.146371E-18
3.800000E+03	7.902604E-18	2.126793E-18
3.810000E+03	7.846040E-18	2.107888E-18
3.820000E+03	7.791862E-18	2.089632E-18
3.830000E+03	7.739964E-18	2.072038E-18
3.840000E+03	7.690331E-18	2.055101E-18
3.850000E+03	7.643136E-18	2.038862E-18
3.860000E+03	7.598263E-18	2.023243E-18
3.870000E+03	7.555779E-18	2.008304E-18
3.880000E+03	7.515659E-18	1.994033E-18
3.890000E+03	7.477931E-18	1.980437E-18
3.900000E+03	7.442653E-18	1.967482E-18
3.910000E+03	7.409704E-18	1.955177E-18
3.920000E+03	7.379108E-18	1.943525E-18
3.930000E+03	7.350946E-18	1.932544E-18
3.940000E+03	7.325209E-18	1.922185E-18
3.950000E+03	7.301828E-18	1.912471E-18
3.960000E+03	7.280823E-18	1.903401E-18
3.970000E+03	7.262154E-18	1.894963E-18
3.980000E+03	7.245863E-18	1.887123E-18
3.990000E+03	7.231937E-18	1.879915E-18
4.000000E+03	7.220392E-18	1.873339E-18
4.010000E+03	7.211129E-18	1.867368E-18
4.020000E+03	7.204190E-18	1.861966E-18
4.030000E+03	7.199563E-18	1.857170E-18
4.040000E+03	7.197264E-18	1.852978E-18
4.050000E+03	7.197252E-18	1.849378E-18
4.060000E+03	7.199515E-18	1.846323E-18
4.070000E+03	7.204042E-18	1.843845E-18
4.080000E+03	7.210796E-18	1.841934E-18
4.090000E+03	7.219795E-18	1.840589E-18
4.100000E+03	7.231025E-18	1.839765E-18
4.110000E+03	7.244481E-18	1.839495E-18
4.120000E+03	7.260122E-18	1.839767E-18
4.130000E+03	7.277914E-18	1.840568E-18
4.140000E+03	7.297896E-18	1.841865E-18
4.150000E+03	7.320012E-18	1.843681E-18
4.160000E+03	7.344277E-18	1.846015E-18
4.170000E+03	7.370600E-18	1.848842E-18
4.180000E+03	7.399027E-18	1.852131E-18
4.190000E+03	7.429440E-18	1.855887E-18
4.200000E+03	7.461917E-18	1.860128E-18
4.210000E+03	7.496367E-18	1.864828E-18
4.220000E+03	7.532836E-18	1.869954E-18
4.230000E+03	7.571146E-18	1.875500E-18
4.240000E+03	7.611378E-18	1.881482E-18
4.250000E+03	7.653373E-18	1.887859E-18
4.260000E+03	7.697234E-18	1.894613E-18
4.270000E+03	7.742780E-18	1.901736E-18
4.280000E+03	7.789906E-18	1.909199E-18
4.290000E+03	7.838686E-18	1.917019E-18
4.300000E+03	7.888917E-18	1.925103E-18
4.310000E+03	7.940650E-18	1.933501E-18
4.320000E+03	7.993650E-18	1.942153E-18
4.330000E+03	8.047989E-18	1.951075E-18
4.340000E+03	8.103577E-18	1.960202E-18
4.350000E+03	8.160268E-18	1.969539E-18
4.360000E+03	8.218072E-18	1.979084E-18
4.370000E+03	8.276927E-18	1.988821E-18
4.380000E+03	8.336926E-18	1.998730E-18
4.390000E+03	8.397917E-18	2.008814E-18
4.400000E+03	8.460038E-18	2.019104E-18
4.410000E+03	8.523294E-18	2.029598E-18
4.420000E+03	8.587714E-18	2.040262E-18
4.430000E+03	8.653283E-18	2.051130E-18
4.440000E+03	8.720076E-18	2.062218E-18
4.450000E+03	8.788035E-18	2.073511E-18
4.460000E+03	8.857266E-18	2.084990E-18
4.470000E+03	8.927758E-18	2.096691E-18
4.480000E+03	8.999529E-18	2.108617E-18
4.490000E+03	9.072521E-18	2.120751E-18
4.500000E+03	9.146770E-18	2.133060E-18
4.510000E+03	9.222197E-18	2.145564E-18
4.520000E+03	9.298892E-18	2.158280E-18
4.530000E+03	9.376717E-18	2.171176E-18
4.540000E+03	9.455710E-18	2.184217E-18
4.550000E+03	9.535867E-18	2.197441E-18
4.560000E+03	9.617043E-18	2.210812E-18
4.570000E+03	9.699336E-18	2.224352E-18
4.580000E+03	9.782620E-18	2.237988E-18
4.590000E+03	9.866894E-18	2.251761E-18
4.600000E+03	9.952008E-18	2.265632E-18
4.610000E+03	1.003807E-17	2.279625E-18
4.620000E+03	1.012503E-17	2.293690E-18
4.630000E+03	1.021273E-17	2.307825E-18
4.640000E+03	1.030118E-17	2.322033E-18
4.650000E+03	1.039041E-17	2.336321E-18
4.660000E+03	1.048038E-17	2.350637E-18
4.670000E+03	1.057091E-17	2.364980E-18
4.680000E+03	1.066222E-17	2.379396E-18
4.690000E+03	1.075434E-17	2.393892E-18
4.700000E+03	1.084714E-17	2.408399E-18
4.710000E+03	1.094064E-17	2.422959E-18
4.720000E+03	1.103488E-17	2.437579E-18
4.730000E+03	1.112961E-17	2.452203E-18
4.740000E+03	1.122489E-17	2.466804E-18
4.750000E+03	1.132054E-17	2.481382E-18
4.760000E+03	1.141661E-17	2.495944E-18
4.770000E+03	1.151303E-17	2.510478E-18
4.780000E+03	1.160967E-17	2.524914E-18
4.790000E+03	1.170655E-17	2.539296E-18
4.800000E+03	1.180351E-17	2.553587E-18
4.810000E+03	1.190061E-17	2.567800E-18
4.820000E+03	1.199767E-17	2.581861E-18
4.830000E+03	1.209466E-17	2.595798E-18
4.840000E+03	1.219149E-17	2.609594E-18
4.850000E+03	1.228824E-17	2.623263E-18
4.860000E+03	1.238471E-17	2.636733E-18
4.870000E+03	1.248087E-17	2.650028E-18
4.880000E+03	1.257655E-17	2.663114E-18
4.890000E+03	1.267192E-17	2.676028E-18
4.900000E+03	1.276676E-17	2.688691E-18
4.910000E+03	1.286107E-17	2.701137E-18
4.920000E+03	1.295467E-17	2.713328E-18
4.930000E+03	1.304762E-17	2.725280E-18
4.940000E+03	1.313964E-17	2.736902E-18
4.950000E+03	1.323076E-17	2.748236E-18
4.960000E+03	1.332104E-17	2.759294E-18
4.970000E+03	1.341032E-17	2.770043E-18
4.980000E+03	1.349837E-17	2.780412E-18
4.990000E+03	1.358515E-17	2.790421E-18
5.000000E+03	1.367073E-17	2.800087E-18
5.010000E+03	1.375504E-17	2.809400E-18
5.020000E+03	1.383771E-17	2.818258E-18
5.030000E+03	1.391888E-17	2.826718E-18
5.040000E+03	1.399845E-17	2.834766E-18
5.050000E+03	1.407626E-17	2.842368E-18
5.060000E+03	1.415213E-17	2.849471E-18
5.070000E+03	1.422624E-17	2.856135E-18
5.080000E+03	1.429824E-17	2.862298E-18
5.090000E+03	1.436825E-17	2.867981E-18
5.100000E+03	1.443593E-17	2.873104E-18
5.110000E+03	1.450136E-17	2.877705E-18
5.120000E+03	1.456452E-17	2.881786E-18
5.130000E+03	1.462536E-17	2.885340E-18
5.140000E+03	1.468353E-17	2.888286E-18
5.150000E+03	1.473920E-17	2.890677E-18
5.160000E+03	1.479247E-17	2.892539E-18
5.170000E+03	1.484307E-17	2.893822E-18
5.180000E+03	1.489075E-17	2.894471E-18
5.190000E+03	1.493570E-17	2.894540E-18
5.200000E+03	1.497794E-17	2.894037E-18
5.210000E+03	1.501745E-17	2.892964E-18
5.220000E+03	1.505384E-17	2.891241E-18
5.230000E+03	1.508721E-17	2.888902E-18
5.240000E+03	1.511786E-17	2.886011E-18
5.250000E+03	1.514566E-17	2.882544E-18
5.260000E+03	1.517016E-17	2.878421E-18
5.270000E+03	1.519168E-17	2.873709E-18
5.280000E+03	1.521025E-17	2.868419E-18
5.290000E+03	1.522586E-17	2.862557E-18
5.300000E+03	1.523806E-17	2.856044E-18
5.310000E+03	1.524738E-17	2.848982E-18
5.320000E+03	1.525374E-17	2.841362E-18
5.330000E+03	1.525749E-17	2.833254E-18
5.337598E+03	-1.298720E-17	-2.405979E-18
5.337998E+03	-1.269782E-17	-2.352077E-18
5.338198E+03	-1.255103E-17	-2.324742E-18
5.338398E+03	-1.240306E-17	-2.297190E-18
5.338598E+03	-1.225511E-17	-2.269648E-18
5.338998E+03	-1.196340E-17	-2.215346E-18
5.339598E+03	-1.152799E-17	-2.134320E-18
5.339798E+03	-1.138067E-17	-2.106913E-18
5.340598E+03	-1.080290E-17	-1.999452E-18
5.341198E+03	-1.036634E-17	-1.918294E-18
5.341398E+03	-1.021708E-17	-1.890555E-18
5.341598E+03	-1.006860E-17	-1.862963E-18
5.341798E+03	-9.919476E-18	-1.835258E-18
5.342799E+03	-9.193557E-18	-1.700421E-18
5.342999E+03	-9.043467E-18	-1.672557E-18
5.343999E+03	-8.319088E-18	-1.538106E-18
5.344199E+03	-8.169508E-18	-1.510356E-18
5.344399E+03	-8.019578E-18	-1.482545E-18
5.344799E+03	-7.726196E-18	-1.428131E-18
5.345799E+03	-7.000772E-18	-1.293638E-18
5.345999E+03	-6.852284E-18	-1.266121E-18
5.346399E+03	-6.558841E-18	-1.211749E-18
5.346599E+03	-6.409470E-18	-1.184079E-18
5.346799E+03	-6.260631E-18	-1.156510E-18
5.346999E+03	-6.111413E-18	-1.128875E-18
5.347199E+03	-5.962090E-18	-1.101224E-18
5.347400E+03	-5.812484E-18	-1.073524E-18
5.348000E+03	-5.376189E-18	-9.927575E-19
5.348199E+03	-5.227544E-18	-9.652490E-19
5.348999E+03	-4.647210E-18	-8.578780E-19
5.349199E+03	-4.498930E-18	-8.304536E-19
5.349599E+03	-4.207266E-18	-7.765187E-19
5.350999E+03	-3.198943E-18	-5.901584E-19
5.351199E+03	-3.051535E-18	-5.629286E-19
5.351599E+03	-2.761048E-18	-5.092778E-19
5.351799E+03	-2.614466E-18	-4.822106E-19
5.351999E+03	-2.467958E-18	-4.551603E-19
5.352199E+03	-2.321829E-18	-4.281832E-19
5.352399E+03	-2.175837E-18	-4.012348E-19
5.352599E+03	-2.030116E-18	-3.743398E-19
5.352799E+03	-1.884559E-18	-3.474784E-19
5.353000E+03	-1.738285E-18	-3.204880E-19
5.353200E+03	-1.593216E-18	-2.937232E-19
5.353800E+03	-1.163239E-18	-2.144129E-19
5.354000E+03	-1.019207E-18	-1.878526E-19
5.355200E+03	-1.613696E-19	-2.973130E-20
5.355800E+03	2.664343E-19	4.907959E-20
5.356200E+03	5.507424E-19	1.014390E-19
5.357000E+03	1.118451E-18	2.059514E-19
5.357200E+03	1.259393E-18	2.318899E-19
5.357400E+03	1.399832E-18	2.577326E-19
5.357600E+03	1.539767E-18	2.834793E-19
5.358801E+03	2.389345E-18	4.397260E-19
5.360401E+03	3.524973E-18	6.483980E-19
5.360600E+03	3.661215E-18	6.734169E-19
5.361200E+03	4.080900E-18	7.504697E-19
5.362800E+03	5.208138E-18	9.572871E-19
5.363400E+03	5.626640E-18	1.034016E-18
5.363801E+03	5.901882E-18	1.084461E-18
5.364401E+03	6.317279E-18	1.160572E-18
5.365401E+03	7.014349E-18	1.288230E-18
5.365601E+03	7.143598E-18	1.311885E-18
5.366001E+03	7.413924E-18	1.361358E-18
5.366201E+03	7.541391E-18	1.384677E-18
5.367001E+03	8.091675E-18	1.485343E-18
5.367401E+03	8.358846E-18	1.534193E-18
5.368201E+03	8.906650E-18	1.634328E-18
5.368801E+03	9.311181E-18	1.708236E-18
5.369001E+03	9.432606E-18	1.730404E-18
5.369202E+03	9.554407E-18	1.752638E-18
5.370202E+03	1.023663E-17	1.877195E-18
5.370602E+03	1.049610E-17	1.924535E-18
5.370802E+03	1.061443E-17	1.946111E-18
5.371002E+03	1.073164E-17	1.967475E-18
5.371202E+03	1.084805E-17	1.988694E-18
5.371602E+03	1.110276E-17	2.035133E-18
5.371802E+03	1.121786E-17	2.056101E-18
5.372002E+03	1.133118E-17	2.076741E-18
5.372202E+03	1.144464E-17	2.097404E-18
5.373601E+03	1.238701E-17	2.269112E-18
5.373801E+03	1.249630E-17	2.288987E-18
5.375002E+03	1.329723E-17	2.434777E-18
5.375202E+03	1.340284E-17	2.453962E-18
5.375402E+03	1.350692E-17	2.472863E-18
5.375602E+03	1.361150E-17	2.491853E-18
5.375802E+03	1.371576E-17	2.510781E-18
5.376002E+03	1.381886E-17	2.529497E-18
5.376402E+03	1.405719E-17	2.572799E-18
5.376802E+03	1.429332E-17	2.615687E-18
5.378002E+03	1.507459E-17	2.757621E-18
5.378202E+03	1.517268E-17	2.775390E-18
5.378402E+03	1.526712E-17	2.792490E-18
5.378602E+03	1.536246E-17	2.809751E-18
5.379202E+03	1.572544E-17	2.875597E-18
5.379802E+03	1.608797E-17	2.941335E-18
5.380002E+03	1.617726E-17	2.957474E-18
5.380403E+03	1.639965E-17	2.997753E-18
5.380603E+03	1.648651E-17	3.013442E-18
5.381603E+03	1.710809E-17	3.126071E-18
5.381803E+03	1.719311E-17	3.141410E-18
5.382003E+03	1.727549E-17	3.156263E-18
5.382603E+03	1.762289E-17	3.219126E-18
5.382803E+03	1.770327E-17	3.233605E-18
5.383403E+03	1.804517E-17	3.295432E-18
5.383603E+03	1.812251E-17	3.309348E-18
5.383803E+03	1.819822E-17	3.322966E-18
5.384003E+03	1.827252E-17	3.336323E-18
5.384203E+03	1.834465E-17	3.349282E-18
5.384403E+03	1.841661E-17	3.362208E-18
5.384803E+03	1.861850E-17	3.398638E-18
5.385604E+03	1.907846E-17	3.481722E-18
5.385803E+03	1.914437E-17	3.493531E-18
5.386003E+03	1.920869E-17	3.505048E-18
5.386203E+03	1.927243E-17	3.516457E-18
5.386803E+03	1.959111E-17	3.573929E-18
5.387003E+03	1.965149E-17	3.584718E-18
5.387403E+03	1.983766E-17	3.618223E-18
5.387603E+03	1.989535E-17	3.628516E-18
5.389203E+03	2.084044E-17	3.798966E-18
5.389603E+03	2.101894E-17	3.831023E-18
5.389803E+03	2.106922E-17	3.839944E-18
5.390603E+03	2.149698E-17	3.916918E-18
5.390803E+03	2.154410E-17	3.925257E-18
5.391404E+03	2.184063E-17	3.978530E-18
5.392404E+03	2.238306E-17	4.076055E-18
5.393004E+03	2.267279E-17	4.128034E-18
5.393604E+03	2.295974E-17	4.179489E-18
5.393804E+03	2.299569E-17	4.185769E-18
5.394004E+03	2.302938E-17	4.191637E-18
5.394604E+03	2.331068E-17	4.242035E-18
5.395004E+03	2.346473E-17	4.269531E-18
5.395404E+03	2.361741E-17	4.296769E-18
5.396204E+03	2.401174E-17	4.367408E-18
5.397205E+03	2.452128E-17	4.458678E-18
5.397404E+03	2.454250E-17	4.462256E-18
5.397805E+03	2.468325E-17	4.487279E-18
5.398204E+03	2.482101E-17	4.511754E-18
5.398404E+03	2.483654E-17	4.514292E-18
5.398604E+03	2.485205E-17	4.516826E-18
5.398804E+03	2.486818E-17	4.519472E-18
5.399404E+03	2.511344E-17	4.563181E-18
5.399604E+03	2.512040E-17	4.564157E-18
5.399804E+03	2.512626E-17	4.564935E-18
5.400004E+03	2.513062E-17	4.565437E-18
5.400204E+03	2.513337E-17	4.565650E-18
5.400404E+03	2.513523E-17	4.565698E-18
5.400604E+03	2.513604E-17	4.565556E-18
5.400804E+03	2.513469E-17	4.565024E-18
5.401404E+03	2.536079E-17	4.605216E-18
5.401604E+03	2.535643E-17	4.604134E-18
5.401804E+03	2.535046E-17	4.602758E-18
5.402005E+03	2.534397E-17	4.601288E-18
5.402605E+03	2.555986E-17	4.639604E-18
5.403405E+03	2.588608E-17	4.697631E-18
5.405005E+03	2.665231E-17	4.834236E-18
5.405205E+03	2.663243E-17	4.830326E-18
5.405605E+03	2.672130E-17	4.845831E-18
5.405805E+03	2.669773E-17	4.841250E-18
5.406005E+03	2.667302E-17	4.836463E-18
5.406205E+03	2.664664E-17	4.831374E-18
5.406805E+03	2.683615E-17	4.864813E-18
5.408006E+03	2.734741E-17	4.955610E-18
5.408206E+03	2.731275E-17	4.949017E-18
5.408406E+03	2.727692E-17	4.942210E-18
5.409206E+03	2.755886E-17	4.992031E-18
5.409406E+03	2.751802E-17	4.984318E-18
5.409606E+03	2.747607E-17	4.976404E-18
5.409806E+03	2.743094E-17	4.967916E-18
5.410006E+03	2.738538E-17	4.959352E-18
5.411005E+03	2.775561E-17	5.024809E-18
5.411605E+03	2.791191E-17	5.052145E-18
5.412005E+03	2.796186E-17	5.060546E-18
5.412605E+03	2.811179E-17	5.086713E-18
5.412806E+03	2.805415E-17	5.075960E-18
5.413006E+03	2.799483E-17	5.064906E-18
5.413206E+03	2.793365E-17	5.053518E-18
5.413806E+03	2.807163E-17	5.077516E-18
5.414006E+03	2.800634E-17	5.065385E-18
5.414206E+03	2.793917E-17	5.052916E-18
5.414606E+03	2.796930E-17	5.057724E-18
5.414806E+03	2.789844E-17	5.044592E-18
5.415006E+03	2.782578E-17	5.031135E-18
5.415206E+03	2.775192E-17	5.017461E-18
5.415406E+03	2.767904E-17	5.003968E-18
5.415606E+03	2.760570E-17	4.990394E-18
5.416006E+03	2.762360E-17	4.992997E-18
5.417206E+03	2.801616E-17	5.062026E-18
5.417606E+03	2.802694E-17	5.063332E-18
5.418006E+03	2.803230E-17	5.063657E-18
5.418206E+03	2.794335E-17	5.047271E-18
5.419007E+03	2.813006E-17	5.079705E-18
5.419607E+03	2.821809E-17	5.094633E-18
5.419807E+03	2.812012E-17	5.076621E-18
5.420007E+03	2.802103E-17	5.058412E-18
5.420207E+03	2.792384E-17	5.040548E-18
5.420407E+03	2.782230E-17	5.021900E-18
5.420607E+03	2.771873E-17	5.002889E-18
5.421207E+03	2.778989E-17	5.014777E-18
5.421807E+03	2.786140E-17	5.026723E-18
5.422407E+03	2.793003E-17	5.038148E-18
5.422606E+03	2.781876E-17	5.017759E-18
5.423007E+03	2.779081E-17	5.012079E-18
5.423206E+03	2.767489E-17	4.990859E-18
5.424207E+03	2.789575E-17	5.029089E-18
5.424407E+03	2.777570E-17	5.007128E-18
5.424607E+03	2.765538E-17	4.985123E-18
5.424807E+03	2.752962E-17	4.962138E-18
5.425207E+03	2.748840E-17	4.954079E-18
5.425407E+03	2.736460E-17	4.931453E-18
5.425807E+03	2.731658E-17	4.922175E-18
5.426007E+03	2.718633E-17	4.898394E-18
5.426407E+03	2.713395E-17	4.888336E-18
5.426607E+03	2.699797E-17	4.863528E-18
5.426807E+03	2.686250E-17	4.838818E-18
5.427007E+03	2.672750E-17	4.814193E-18
5.427207E+03	2.658778E-17	4.788724E-18
5.427407E+03	2.645030E-17	4.763658E-18
5.427607E+03	2.631077E-17	4.738228E-18
5.427807E+03	2.616908E-17	4.712413E-18
5.428007E+03	2.602526E-17	4.686217E-18
5.428807E+03	2.610175E-17	4.698795E-18
5.429007E+03	2.595450E-17	4.671991E-18
5.430008E+03	2.609686E-17	4.696122E-18
5.430608E+03	2.608896E-17	4.693805E-18
5.431208E+03	2.607915E-17	4.691146E-18
5.431408E+03	2.592560E-17	4.663229E-18
5.431608E+03	2.576522E-17	4.634086E-18
5.431808E+03	2.560446E-17	4.604879E-18
5.432008E+03	2.544245E-17	4.575451E-18
5.433608E+03	2.576274E-17	4.630695E-18
5.433808E+03	2.559385E-17	4.600045E-18
5.434408E+03	2.556120E-17	4.593300E-18
5.434609E+03	2.539367E-17	4.562903E-18
5.434809E+03	2.521980E-17	4.531373E-18
5.435408E+03	2.517670E-17	4.522767E-18
5.435808E+03	2.506240E-17	4.501660E-18
5.436208E+03	2.494953E-17	4.480816E-18
5.437008E+03	2.496066E-17	4.481673E-18
5.437208E+03	2.477704E-17	4.448423E-18
5.437608E+03	2.465711E-17	4.426327E-18
5.438208E+03	2.459694E-17	4.414681E-18
