#wls	flux	fluxerr
1.600000E+03	3.029050E-16	5.528497E-17
1.640000E+03	3.132041E-16	5.711188E-17
1.680000E+03	3.234418E-16	5.892285E-17
1.720000E+03	3.336641E-16	6.072611E-17
1.760000E+03	3.437520E-16	6.249988E-17
1.800000E+03	3.536371E-16	6.423168E-17
1.840000E+03	3.632700E-16	6.591246E-17
1.880000E+03	3.725292E-16	6.752022E-17
1.920000E+03	3.813130E-16	6.903662E-17
1.960000E+03	3.895105E-16	7.044170E-17
2.000000E+03	3.969457E-16	7.170391E-17
2.040000E+03	4.035244E-16	7.280658E-17
2.080000E+03	4.090134E-16	7.370811E-17
2.120000E+03	4.131925E-16	7.436944E-17
2.160000E+03	4.158850E-16	7.475962E-17
2.200000E+03	4.168645E-16	7.483892E-17
2.240000E+03	4.158747E-16	7.456252E-17
2.280000E+03	4.128893E-16	7.392712E-17
2.320000E+03	4.078686E-16	7.292708E-17
2.360000E+03	4.009648E-16	7.159114E-17
2.400000E+03	3.923502E-16	6.995151E-17
2.440000E+03	3.821925E-16	6.803950E-17
2.480000E+03	3.706715E-16	6.588843E-17
2.520000E+03	3.578999E-16	6.351958E-17
2.560000E+03	3.440551E-16	6.096559E-17
2.600000E+03	3.292460E-16	5.824688E-17
2.640000E+03	3.136085E-16	5.538850E-17
2.680000E+03	2.972695E-16	5.241380E-17
2.720000E+03	2.803822E-16	4.935068E-17
2.760000E+03	2.630950E-16	4.622597E-17
2.800000E+03	2.455639E-16	4.306773E-17
2.840000E+03	2.279714E-16	3.990846E-17
2.880000E+03	2.104965E-16	3.677979E-17
2.920000E+03	1.933331E-16	3.371574E-17
2.960000E+03	1.766707E-16	3.074934E-17
3.000000E+03	1.606862E-16	2.791106E-17
3.010000E+03	1.568139E-16	2.722458E-17
3.020000E+03	1.529963E-16	2.654821E-17
3.030000E+03	1.492348E-16	2.588219E-17
3.040000E+03	1.455340E-16	2.522731E-17
3.050000E+03	1.418921E-16	2.458323E-17
3.060000E+03	1.383103E-16	2.395014E-17
3.070000E+03	1.347956E-16	2.332928E-17
3.080000E+03	1.313432E-16	2.271978E-17
3.090000E+03	1.279595E-16	2.212273E-17
3.100000E+03	1.246427E-16	2.153781E-17
3.110000E+03	1.213935E-16	2.096511E-17
3.120000E+03	1.182173E-16	2.040558E-17
3.130000E+03	1.151099E-16	1.985846E-17
3.140000E+03	1.120739E-16	1.932418E-17
3.150000E+03	1.091098E-16	1.880282E-17
3.160000E+03	1.062197E-16	1.829471E-17
3.170000E+03	1.034017E-16	1.779953E-17
3.180000E+03	1.006578E-16	1.731759E-17
3.190000E+03	9.798782E-17	1.684883E-17
3.200000E+03	9.538977E-17	1.639291E-17
3.210000E+03	9.286521E-17	1.595007E-17
3.220000E+03	9.041539E-17	1.552052E-17
3.230000E+03	8.803662E-17	1.510359E-17
3.240000E+03	8.573151E-17	1.469972E-17
3.250000E+03	8.349652E-17	1.430829E-17
3.260000E+03	8.133518E-17	1.392987E-17
3.270000E+03	7.924263E-17	1.356362E-17
3.280000E+03	7.721947E-17	1.320963E-17
3.290000E+03	7.526607E-17	1.286793E-17
3.300000E+03	7.338023E-17	1.253814E-17
3.310000E+03	7.156212E-17	1.222026E-17
3.320000E+03	6.980850E-17	1.191373E-17
3.330000E+03	6.811943E-17	1.161853E-17
3.340000E+03	6.649385E-17	1.133447E-17
3.350000E+03	6.493061E-17	1.106134E-17
3.360000E+03	6.342854E-17	1.079891E-17
3.370000E+03	6.198557E-17	1.054682E-17
3.380000E+03	6.060057E-17	1.030487E-17
3.390000E+03	5.927238E-17	1.007283E-17
3.400000E+03	5.799984E-17	9.850495E-18
3.410000E+03	5.678099E-17	9.637516E-18
3.420000E+03	5.561471E-17	9.433688E-18
3.430000E+03	5.449988E-17	9.238805E-18
3.440000E+03	5.343466E-17	9.052540E-18
3.450000E+03	5.241797E-17	8.874696E-18
3.460000E+03	5.144876E-17	8.705082E-18
3.470000E+03	5.052469E-17	8.543286E-18
3.480000E+03	4.964542E-17	8.389239E-18
3.490000E+03	4.880934E-17	8.242657E-18
3.500000E+03	4.801496E-17	8.103273E-18
3.510000E+03	4.726139E-17	7.970924E-18
3.520000E+03	4.654665E-17	7.845268E-18
3.530000E+03	4.586999E-17	7.726161E-18
3.540000E+03	4.523011E-17	7.613376E-18
3.550000E+03	4.462578E-17	7.506695E-18
3.560000E+03	4.405586E-17	7.405914E-18
3.570000E+03	4.351922E-17	7.310833E-18
3.580000E+03	4.301436E-17	7.221188E-18
3.590000E+03	4.254075E-17	7.136883E-18
3.600000E+03	4.209699E-17	7.057671E-18
3.610000E+03	4.168263E-17	6.983469E-18
3.620000E+03	4.129595E-17	6.913976E-18
3.630000E+03	4.093700E-17	6.849197E-18
3.640000E+03	4.060375E-17	6.788778E-18
3.650000E+03	4.029589E-17	6.732663E-18
3.660000E+03	4.001237E-17	6.680663E-18
3.670000E+03	3.975290E-17	6.632729E-18
3.680000E+03	3.951610E-17	6.588617E-18
3.690000E+03	3.930175E-17	6.548286E-18
3.700000E+03	3.910891E-17	6.511569E-18
3.710000E+03	3.893739E-17	6.478431E-18
3.720000E+03	3.878629E-17	6.448710E-18
3.730000E+03	3.865582E-17	6.422438E-18
3.740000E+03	3.854471E-17	6.399397E-18
3.750000E+03	3.845321E-17	6.379618E-18
3.760000E+03	3.838079E-17	6.363010E-18
3.770000E+03	3.832731E-17	6.349543E-18
3.780000E+03	3.829226E-17	6.339124E-18
3.790000E+03	3.827585E-17	6.331782E-18
3.800000E+03	3.827723E-17	6.327370E-18
3.810000E+03	3.829659E-17	6.325912E-18
3.820000E+03	3.833378E-17	6.327377E-18
3.830000E+03	3.838862E-17	6.331730E-18
3.840000E+03	3.846096E-17	6.338940E-18
3.850000E+03	3.855029E-17	6.348915E-18
3.860000E+03	3.865710E-17	6.361728E-18
3.870000E+03	3.878121E-17	6.377346E-18
3.880000E+03	3.892209E-17	6.395675E-18
3.890000E+03	3.907989E-17	6.416733E-18
3.900000E+03	3.925440E-17	6.440477E-18
3.910000E+03	3.944575E-17	6.466924E-18
3.920000E+03	3.965338E-17	6.495975E-18
3.930000E+03	3.987773E-17	6.527697E-18
3.940000E+03	4.011821E-17	6.561986E-18
3.950000E+03	4.037528E-17	6.598910E-18
3.960000E+03	4.064831E-17	6.638362E-18
3.970000E+03	4.093703E-17	6.680290E-18
3.980000E+03	4.124184E-17	6.724752E-18
3.990000E+03	4.156208E-17	6.771635E-18
4.000000E+03	4.189777E-17	6.820938E-18
4.010000E+03	4.224857E-17	6.872597E-18
4.020000E+03	4.261447E-17	6.926605E-18
4.030000E+03	4.299509E-17	6.982896E-18
4.040000E+03	4.339002E-17	7.041394E-18
4.050000E+03	4.379919E-17	7.102084E-18
4.060000E+03	4.422251E-17	7.164945E-18
4.070000E+03	4.465878E-17	7.229776E-18
4.080000E+03	4.510856E-17	7.296665E-18
4.090000E+03	4.557061E-17	7.365403E-18
4.100000E+03	4.604507E-17	7.436009E-18
4.110000E+03	4.653096E-17	7.508319E-18
4.120000E+03	4.702803E-17	7.582289E-18
4.130000E+03	4.753558E-17	7.657800E-18
4.140000E+03	4.805290E-17	7.734734E-18
4.150000E+03	4.857920E-17	7.812959E-18
4.160000E+03	4.911369E-17	7.892344E-18
4.170000E+03	4.965588E-17	7.972809E-18
4.180000E+03	5.020488E-17	8.054205E-18
4.190000E+03	5.075934E-17	8.136313E-18
4.200000E+03	5.131823E-17	8.218967E-18
4.210000E+03	5.188046E-17	8.301990E-18
4.220000E+03	5.244538E-17	8.385276E-18
4.230000E+03	5.301136E-17	8.468564E-18
4.240000E+03	5.357721E-17	8.551661E-18
4.250000E+03	5.414118E-17	8.634291E-18
4.260000E+03	5.470242E-17	8.716318E-18
4.270000E+03	5.525910E-17	8.797449E-18
4.280000E+03	5.580981E-17	8.877465E-18
4.290000E+03	5.635311E-17	8.956137E-18
4.300000E+03	5.688660E-17	9.033089E-18
4.310000E+03	5.740970E-17	9.108231E-18
4.320000E+03	5.792000E-17	9.181185E-18
4.330000E+03	5.841597E-17	9.251715E-18
4.340000E+03	5.889566E-17	9.319519E-18
4.350000E+03	5.935863E-17	9.384532E-18
4.360000E+03	5.980204E-17	9.446314E-18
4.370000E+03	6.022565E-17	9.504835E-18
4.380000E+03	6.062840E-17	9.559935E-18
4.390000E+03	6.100990E-17	9.611561E-18
4.400000E+03	6.137052E-17	9.659784E-18
4.410000E+03	6.171039E-17	9.704629E-18
4.420000E+03	6.203089E-17	9.746322E-18
4.430000E+03	6.233150E-17	9.784794E-18
4.440000E+03	6.261398E-17	9.820325E-18
4.450000E+03	6.287864E-17	9.852972E-18
4.460000E+03	6.312640E-17	9.882889E-18
4.470000E+03	6.335939E-17	9.910414E-18
4.480000E+03	6.357708E-17	9.935472E-18
4.490000E+03	6.378228E-17	9.958505E-18
4.500000E+03	6.397453E-17	9.979449E-18
4.510000E+03	6.415616E-17	9.998671E-18
4.520000E+03	6.432788E-17	1.001629E-17
4.530000E+03	6.449094E-17	1.003249E-17
4.540000E+03	6.464661E-17	1.004749E-17
4.550000E+03	6.479498E-17	1.006129E-17
4.560000E+03	6.493847E-17	1.007429E-17
4.570000E+03	6.507715E-17	1.008648E-17
4.580000E+03	6.521222E-17	1.009806E-17
4.590000E+03	6.534487E-17	1.010921E-17
4.600000E+03	6.547628E-17	1.012012E-17
4.610000E+03	6.560700E-17	1.013087E-17
4.620000E+03	6.573754E-17	1.014153E-17
4.630000E+03	6.586898E-17	1.015229E-17
4.640000E+03	6.600238E-17	1.016329E-17
4.650000E+03	6.613877E-17	1.017469E-17
4.660000E+03	6.627792E-17	1.018646E-17
4.670000E+03	6.642142E-17	1.019885E-17
4.680000E+03	6.656959E-17	1.021189E-17
4.690000E+03	6.672272E-17	1.022564E-17
4.700000E+03	6.688171E-17	1.024021E-17
4.710000E+03	6.704678E-17	1.025566E-17
4.720000E+03	6.721812E-17	1.027200E-17
4.730000E+03	6.739591E-17	1.028925E-17
4.740000E+03	6.758028E-17	1.030743E-17
4.750000E+03	6.777132E-17	1.032656E-17
4.760000E+03	6.796911E-17	1.034665E-17
4.770000E+03	6.817369E-17	1.036769E-17
4.780000E+03	6.838442E-17	1.038958E-17
4.790000E+03	6.860193E-17	1.041242E-17
4.800000E+03	6.882485E-17	1.043600E-17
4.810000E+03	6.905442E-17	1.046050E-17
4.820000E+03	6.928920E-17	1.048570E-17
4.830000E+03	6.952971E-17	1.051167E-17
4.840000E+03	6.977582E-17	1.053840E-17
4.850000E+03	7.002594E-17	1.056565E-17
4.860000E+03	7.028124E-17	1.059357E-17
4.870000E+03	7.054078E-17	1.062204E-17
4.880000E+03	7.080499E-17	1.065111E-17
4.890000E+03	7.107151E-17	1.068043E-17
4.900000E+03	7.134207E-17	1.071025E-17
4.910000E+03	7.161497E-17	1.074033E-17
4.920000E+03	7.189052E-17	1.077069E-17
4.930000E+03	7.216763E-17	1.080118E-17
4.940000E+03	7.244658E-17	1.083185E-17
4.950000E+03	7.272553E-17	1.086240E-17
4.960000E+03	7.300467E-17	1.089288E-17
4.970000E+03	7.328427E-17	1.092332E-17
4.980000E+03	7.356234E-17	1.095343E-17
4.990000E+03	7.383832E-17	1.098311E-17
5.000000E+03	7.411234E-17	1.101240E-17
5.010000E+03	7.438381E-17	1.104121E-17
5.020000E+03	7.465059E-17	1.106921E-17
5.030000E+03	7.491273E-17	1.109642E-17
5.040000E+03	7.516951E-17	1.112274E-17
5.050000E+03	7.542019E-17	1.114805E-17
5.060000E+03	7.566320E-17	1.117213E-17
5.070000E+03	7.589775E-17	1.119486E-17
5.080000E+03	7.612369E-17	1.121624E-17
5.090000E+03	7.633862E-17	1.123590E-17
5.100000E+03	7.654238E-17	1.125383E-17
5.110000E+03	7.673320E-17	1.126977E-17
5.120000E+03	7.691010E-17	1.128359E-17
5.130000E+03	7.707203E-17	1.129514E-17
5.140000E+03	7.721795E-17	1.130428E-17
5.150000E+03	7.734598E-17	1.131073E-17
5.160000E+03	7.745583E-17	1.131446E-17
5.170000E+03	7.754482E-17	1.131510E-17
5.180000E+03	7.761261E-17	1.131260E-17
5.190000E+03	7.765733E-17	1.130670E-17
5.200000E+03	7.767788E-17	1.129725E-17
5.210000E+03	7.767319E-17	1.128411E-17
5.220000E+03	7.764223E-17	1.126714E-17
5.230000E+03	7.758245E-17	1.124599E-17
5.240000E+03	7.749450E-17	1.122075E-17
5.250000E+03	7.737519E-17	1.119100E-17
5.260000E+03	7.722532E-17	1.115685E-17
5.270000E+03	7.704270E-17	1.111800E-17
5.280000E+03	7.682757E-17	1.107451E-17
5.290000E+03	7.657877E-17	1.102623E-17
5.300000E+03	7.629532E-17	1.097303E-17
5.310000E+03	7.597792E-17	1.091503E-17
5.320000E+03	7.562517E-17	1.085205E-17
5.330000E+03	7.523818E-17	1.078425E-17
5.340000E+03	7.481672E-17	1.071164E-17
5.350000E+03	7.436082E-17	1.063423E-17
5.360000E+03	7.387147E-17	1.055217E-17
5.370000E+03	7.334993E-17	1.046567E-17
5.380000E+03	7.279764E-17	1.037495E-17
5.390000E+03	7.221489E-17	1.028006E-17
5.400000E+03	7.160432E-17	1.018140E-17
5.410000E+03	7.096742E-17	1.007919E-17
5.420000E+03	7.030726E-17	9.973875E-18
5.430000E+03	6.962502E-17	9.865644E-18
5.440000E+03	6.892555E-17	9.755190E-18
5.450000E+03	6.821239E-17	9.643025E-18
5.460000E+03	6.749256E-17	9.530145E-18
5.470000E+03	6.676763E-17	9.416778E-18
5.480000E+03	6.603596E-17	9.302693E-18
5.490000E+03	6.529739E-17	9.187874E-18
5.500000E+03	6.455379E-17	9.072586E-18
5.510000E+03	6.380958E-17	8.957449E-18
5.520000E+03	6.306579E-17	8.842611E-18
5.530000E+03	6.232726E-17	8.728749E-18
5.540000E+03	6.159549E-17	8.616070E-18
5.550000E+03	6.087380E-17	8.505034E-18
5.560000E+03	6.016537E-17	8.396079E-18
5.570000E+03	5.947317E-17	8.289616E-18
5.580000E+03	5.879888E-17	8.185866E-18
5.590000E+03	5.814517E-17	8.085195E-18
5.600000E+03	5.751455E-17	7.987941E-18
5.610000E+03	5.690873E-17	7.894328E-18
5.620000E+03	5.632924E-17	7.804558E-18
5.630000E+03	5.577858E-17	7.718961E-18
5.640000E+03	5.525730E-17	7.637601E-18
5.650000E+03	5.476692E-17	7.560674E-18
5.660000E+03	5.430822E-17	7.488269E-18
5.670000E+03	5.388232E-17	7.420527E-18
5.680000E+03	5.348965E-17	7.357490E-18
5.690000E+03	5.313046E-17	7.299176E-18
5.700000E+03	5.280541E-17	7.245659E-18
5.710000E+03	5.251503E-17	7.196994E-18
5.720000E+03	5.225861E-17	7.153067E-18
5.730000E+03	5.203646E-17	7.113903E-18
5.740000E+03	5.184822E-17	7.079435E-18
5.750000E+03	5.169345E-17	7.049588E-18
5.760000E+03	5.157274E-17	7.024424E-18
5.770000E+03	5.148444E-17	7.003701E-18
5.780000E+03	5.142904E-17	6.987469E-18
5.790000E+03	5.140532E-17	6.975548E-18
5.800000E+03	5.141316E-17	6.967904E-18
5.810000E+03	5.145187E-17	6.964429E-18
5.820000E+03	5.152073E-17	6.965008E-18
5.830000E+03	5.161958E-17	6.969606E-18
5.840000E+03	5.174713E-17	6.978032E-18
5.850000E+03	5.190321E-17	6.990250E-18
5.860000E+03	5.208709E-17	7.006148E-18
5.870000E+03	5.229748E-17	7.025536E-18
5.880000E+03	5.253480E-17	7.048460E-18
5.890000E+03	5.279717E-17	7.074652E-18
5.900000E+03	5.308506E-17	7.104162E-18
5.910000E+03	5.339714E-17	7.136802E-18
5.920000E+03	5.373272E-17	7.172465E-18
5.930000E+03	5.409169E-17	7.211126E-18
5.940000E+03	5.447214E-17	7.252518E-18
5.950000E+03	5.487396E-17	7.296615E-18
5.960000E+03	5.529707E-17	7.343397E-18
5.970000E+03	5.573952E-17	7.392594E-18
5.980000E+03	5.620124E-17	7.444187E-18
5.990000E+03	5.668154E-17	7.498074E-18
6.000000E+03	5.717909E-17	7.554071E-18
6.010000E+03	5.769319E-17	7.612078E-18
6.020000E+03	5.822320E-17	7.672001E-18
6.030000E+03	5.876778E-17	7.733656E-18
6.040000E+03	5.932630E-17	7.796954E-18
6.050000E+03	5.989887E-17	7.861900E-18
6.060000E+03	6.048284E-17	7.928144E-18
6.070000E+03	6.107912E-17	7.995797E-18
6.080000E+03	6.168510E-17	8.064512E-18
6.090000E+03	6.230185E-17	8.134426E-18
6.100000E+03	6.292684E-17	8.205202E-18
6.110000E+03	6.356058E-17	8.276904E-18
6.120000E+03	6.420142E-17	8.349313E-18
6.130000E+03	6.485005E-17	8.422516E-18
6.140000E+03	6.550495E-17	8.496313E-18
6.150000E+03	6.616540E-17	8.570609E-18
6.160000E+03	6.683231E-17	8.645517E-18
6.170000E+03	6.750406E-17	8.720828E-18
6.180000E+03	6.818135E-17	8.796630E-18
6.190000E+03	6.886377E-17	8.872868E-18
6.200000E+03	6.955050E-17	8.949436E-18
6.210000E+03	7.024029E-17	9.026171E-18
6.220000E+03	7.093339E-17	9.103105E-18
6.230000E+03	7.162790E-17	9.179995E-18
6.240000E+03	7.232279E-17	9.256709E-18
6.250000E+03	7.301696E-17	9.333109E-18
6.260000E+03	7.371141E-17	9.409322E-18
6.270000E+03	7.440339E-17	9.485000E-18
6.280000E+03	7.509208E-17	9.560042E-18
6.290000E+03	7.577793E-17	9.634505E-18
6.300000E+03	7.646047E-17	9.708332E-18
6.310000E+03	7.713841E-17	9.781362E-18
6.320000E+03	7.781054E-17	9.853444E-18
6.330000E+03	7.847784E-17	9.924708E-18
6.340000E+03	7.913835E-17	9.994906E-18
6.350000E+03	7.979217E-17	1.006406E-17
6.360000E+03	8.043858E-17	1.013207E-17
6.370000E+03	8.107685E-17	1.019887E-17
6.380000E+03	8.170627E-17	1.026435E-17
6.390000E+03	8.232634E-17	1.032848E-17
6.400000E+03	8.293632E-17	1.039115E-17
6.410000E+03	8.353472E-17	1.045219E-17
6.420000E+03	8.412210E-17	1.051168E-17
6.430000E+03	8.469811E-17	1.056957E-17
6.440000E+03	8.526359E-17	1.062598E-17
6.450000E+03	8.581955E-17	1.068104E-17
6.460000E+03	8.636438E-17	1.073456E-17
6.470000E+03	8.690057E-17	1.078685E-17
6.480000E+03	8.742795E-17	1.083790E-17
6.490000E+03	8.794782E-17	1.088787E-17
6.500000E+03	8.845868E-17	1.093658E-17
6.510000E+03	8.896331E-17	1.098438E-17
6.520000E+03	8.946032E-17	1.103111E-17
6.530000E+03	8.995116E-17	1.107694E-17
6.540000E+03	9.043451E-17	1.112172E-17
6.550000E+03	9.091180E-17	1.116563E-17
6.560000E+03	9.138460E-17	1.120887E-17
6.570000E+03	9.185012E-17	1.125110E-17
6.580000E+03	9.230985E-17	1.129250E-17
6.590000E+03	9.276542E-17	1.133329E-17
6.600000E+03	9.321392E-17	1.137310E-17
6.610000E+03	9.365837E-17	1.141231E-17
6.620000E+03	9.409578E-17	1.145057E-17
6.630000E+03	9.452932E-17	1.148826E-17
6.640000E+03	9.495595E-17	1.152501E-17
6.650000E+03	9.537714E-17	1.156102E-17
6.660000E+03	9.579285E-17	1.159627E-17
6.670000E+03	9.620145E-17	1.163059E-17
6.680000E+03	9.660455E-17	1.166416E-17
6.690000E+03	9.700033E-17	1.169677E-17
6.700000E+03	9.738860E-17	1.172842E-17
6.710000E+03	9.777099E-17	1.175928E-17
6.720000E+03	9.814552E-17	1.178915E-17
6.730000E+03	9.851033E-17	1.181779E-17
6.740000E+03	9.886860E-17	1.184560E-17
6.750000E+03	9.921653E-17	1.187213E-17
6.760000E+03	9.955568E-17	1.189756E-17
6.770000E+03	9.988568E-17	1.192188E-17
6.780000E+03	1.002044E-16	1.194482E-17
6.790000E+03	1.005115E-16	1.196635E-17
6.800000E+03	1.008066E-16	1.198644E-17
6.810000E+03	1.010911E-16	1.200527E-17
6.820000E+03	1.013630E-16	1.202259E-17
6.830000E+03	1.016197E-16	1.203813E-17
6.840000E+03	1.018629E-16	1.205207E-17
6.850000E+03	1.020921E-16	1.206438E-17
6.860000E+03	1.023070E-16	1.207503E-17
6.870000E+03	1.025052E-16	1.208375E-17
6.880000E+03	1.026864E-16	1.209050E-17
6.890000E+03	1.028521E-16	1.209549E-17
6.900000E+03	1.030001E-16	1.209845E-17
6.910000E+03	1.031299E-16	1.209935E-17
6.920000E+03	1.032414E-16	1.209817E-17
6.930000E+03	1.033342E-16	1.209489E-17
6.940000E+03	1.034080E-16	1.208948E-17
6.950000E+03	1.034627E-16	1.208194E-17
6.960000E+03	1.034961E-16	1.207203E-17
6.970000E+03	1.035081E-16	1.205974E-17
6.980000E+03	1.035005E-16	1.204530E-17
6.990000E+03	1.034733E-16	1.202871E-17
7.000000E+03	1.034225E-16	1.200953E-17
7.010000E+03	1.033521E-16	1.198824E-17
7.020000E+03	1.032603E-16	1.196462E-17
7.030000E+03	1.031471E-16	1.193871E-17
7.040000E+03	1.030109E-16	1.191031E-17
7.050000E+03	1.028539E-16	1.187969E-17
7.060000E+03	1.026763E-16	1.184691E-17
7.070000E+03	1.024787E-16	1.181201E-17
7.080000E+03	1.022594E-16	1.177484E-17
7.090000E+03	1.020190E-16	1.173545E-17
7.100000E+03	1.017599E-16	1.169415E-17
7.110000E+03	1.014809E-16	1.165079E-17
7.120000E+03	1.011806E-16	1.160523E-17
7.130000E+03	1.008636E-16	1.155801E-17
7.140000E+03	1.005289E-16	1.150902E-17
7.150000E+03	1.001772E-16	1.145835E-17
7.160000E+03	9.980733E-17	1.140586E-17
7.170000E+03	9.942227E-17	1.135192E-17
7.180000E+03	9.902301E-17	1.129663E-17
7.190000E+03	9.860839E-17	1.123987E-17
7.200000E+03	9.817951E-17	1.118178E-17
7.210000E+03	9.773944E-17	1.112271E-17
7.220000E+03	9.728718E-17	1.106254E-17
7.230000E+03	9.682385E-17	1.100142E-17
7.240000E+03	9.635052E-17	1.093946E-17
7.250000E+03	9.586842E-17	1.087681E-17
7.260000E+03	9.537668E-17	1.081338E-17
7.270000E+03	9.488049E-17	1.074975E-17
7.280000E+03	9.437898E-17	1.068583E-17
7.290000E+03	9.386956E-17	1.062132E-17
7.300000E+03	9.335931E-17	1.055704E-17
7.310000E+03	9.284368E-17	1.049246E-17
7.320000E+03	9.232792E-17	1.042818E-17
7.330000E+03	9.181151E-17	1.036414E-17
7.340000E+03	9.129590E-17	1.030051E-17
7.350000E+03	9.078070E-17	1.023724E-17
7.360000E+03	9.026742E-17	1.017451E-17
7.370000E+03	8.975780E-17	1.011250E-17
7.380000E+03	8.925367E-17	1.005142E-17
7.390000E+03	8.875299E-17	9.991046E-18
7.400000E+03	8.825970E-17	9.931816E-18
7.410000E+03	8.777210E-17	9.873537E-18
7.420000E+03	8.729055E-17	9.816251E-18
7.430000E+03	8.681547E-17	9.760002E-18
7.440000E+03	8.635129E-17	9.705287E-18
7.450000E+03	8.590049E-17	9.652384E-18
7.460000E+03	8.546948E-17	9.602010E-18
7.470000E+03	8.506458E-17	9.554877E-18
7.480000E+03	8.468639E-17	9.511047E-18
7.490000E+03	8.433897E-17	9.470975E-18
7.500000E+03	8.402770E-17	9.435257E-18
7.510000E+03	8.374976E-17	9.403571E-18
7.520000E+03	8.350904E-17	9.376342E-18
7.530000E+03	8.330465E-17	9.353468E-18
7.540000E+03	8.313498E-17	9.334762E-18
7.550000E+03	8.299811E-17	9.320002E-18
7.560000E+03	8.289150E-17	9.308901E-18
7.570000E+03	8.281479E-17	9.301413E-18
7.580000E+03	8.276366E-17	9.297050E-18
7.590000E+03	8.273768E-17	9.295762E-18
7.600000E+03	8.273286E-17	9.297098E-18
7.610000E+03	8.274904E-17	9.301036E-18
7.620000E+03	8.278439E-17	9.307370E-18
7.630000E+03	8.283529E-17	9.315692E-18
7.640000E+03	8.290191E-17	9.326018E-18
7.650000E+03	8.298286E-17	9.338190E-18
7.660000E+03	8.307472E-17	9.351823E-18
7.670000E+03	8.317809E-17	9.366984E-18
7.680000E+03	8.328988E-17	9.383320E-18
7.690000E+03	8.341284E-17	9.401144E-18
7.700000E+03	8.354190E-17	9.419880E-18
7.710000E+03	8.367805E-17	9.439639E-18
7.720000E+03	8.381831E-17	9.460084E-18
7.730000E+03	8.396379E-17	9.481337E-18
7.740000E+03	8.411355E-17	9.503293E-18
7.750000E+03	8.426686E-17	9.525866E-18
7.760000E+03	8.442082E-17	9.548726E-18
