#wls	flux	fluxerr
1.600000E+03	1.430260E-16	7.176053E-17
1.640000E+03	1.478679E-16	7.417978E-17
1.680000E+03	1.526189E-16	7.655208E-17
1.720000E+03	1.572600E-16	7.886792E-17
1.760000E+03	1.617230E-16	8.109299E-17
1.800000E+03	1.659785E-16	8.321251E-17
1.840000E+03	1.699632E-16	8.519470E-17
1.880000E+03	1.736378E-16	8.701994E-17
1.920000E+03	1.769448E-16	8.865934E-17
1.960000E+03	1.798236E-16	9.008263E-17
2.000000E+03	1.821855E-16	9.124542E-17
2.040000E+03	1.839703E-16	9.211770E-17
2.080000E+03	1.851076E-16	9.266439E-17
2.120000E+03	1.854978E-16	9.283579E-17
2.160000E+03	1.850558E-16	9.258959E-17
2.200000E+03	1.836823E-16	9.187649E-17
2.240000E+03	1.812958E-16	9.065610E-17
2.280000E+03	1.778853E-16	8.892340E-17
2.320000E+03	1.734823E-16	8.669459E-17
2.360000E+03	1.682203E-16	8.403694E-17
2.400000E+03	1.622194E-16	8.101097E-17
2.440000E+03	1.555885E-16	7.767149E-17
2.480000E+03	1.484467E-16	7.407840E-17
2.520000E+03	1.408883E-16	7.027911E-17
2.560000E+03	1.329962E-16	6.631546E-17
2.600000E+03	1.248711E-16	6.223789E-17
2.640000E+03	1.165883E-16	5.808426E-17
2.680000E+03	1.082361E-16	5.389885E-17
2.720000E+03	9.988908E-17	4.971900E-17
2.760000E+03	9.163495E-17	4.558851E-17
2.800000E+03	8.354792E-17	4.154439E-17
2.840000E+03	7.570641E-17	3.762571E-17
2.880000E+03	6.818471E-17	3.386935E-17
2.920000E+03	6.105085E-17	3.030901E-17
2.960000E+03	5.436398E-17	2.697390E-17
3.000000E+03	4.817081E-17	2.388698E-17
3.010000E+03	4.670328E-17	2.315579E-17
3.020000E+03	4.526944E-17	2.244150E-17
3.030000E+03	4.386834E-17	2.174362E-17
3.040000E+03	4.250194E-17	2.106312E-17
3.050000E+03	4.116918E-17	2.039949E-17
3.060000E+03	3.987000E-17	1.975267E-17
3.070000E+03	3.860433E-17	1.912262E-17
3.080000E+03	3.737359E-17	1.851005E-17
3.090000E+03	3.617595E-17	1.791405E-17
3.100000E+03	3.501268E-17	1.733523E-17
3.110000E+03	3.388271E-17	1.677306E-17
3.120000E+03	3.278639E-17	1.622770E-17
3.130000E+03	3.172331E-17	1.569896E-17
3.140000E+03	3.069305E-17	1.518661E-17
3.150000E+03	2.969516E-17	1.469042E-17
3.160000E+03	2.872973E-17	1.421044E-17
3.170000E+03	2.779570E-17	1.374613E-17
3.180000E+03	2.689307E-17	1.329748E-17
3.190000E+03	2.602125E-17	1.286421E-17
3.200000E+03	2.517969E-17	1.244602E-17
3.210000E+03	2.436819E-17	1.204282E-17
3.220000E+03	2.358530E-17	1.165387E-17
3.230000E+03	2.283162E-17	1.127949E-17
3.240000E+03	2.210531E-17	1.091874E-17
3.250000E+03	2.140686E-17	1.057186E-17
3.260000E+03	2.073485E-17	1.023815E-17
3.270000E+03	2.008898E-17	9.917443E-18
3.280000E+03	1.946855E-17	9.609405E-18
3.290000E+03	1.887259E-17	9.313541E-18
3.300000E+03	1.830101E-17	9.029805E-18
3.310000E+03	1.775255E-17	8.757567E-18
3.320000E+03	1.722656E-17	8.496504E-18
3.330000E+03	1.672291E-17	8.246540E-18
3.340000E+03	1.624041E-17	8.007087E-18
3.350000E+03	1.577842E-17	7.777829E-18
3.360000E+03	1.533633E-17	7.558456E-18
3.370000E+03	1.491372E-17	7.348753E-18
3.380000E+03	1.450955E-17	7.148209E-18
3.390000E+03	1.412325E-17	6.956537E-18
3.400000E+03	1.375444E-17	6.773538E-18
3.410000E+03	1.340234E-17	6.598835E-18
3.420000E+03	1.306642E-17	6.432156E-18
3.430000E+03	1.274581E-17	6.273073E-18
3.440000E+03	1.244018E-17	6.121417E-18
3.450000E+03	1.214904E-17	5.976940E-18
3.460000E+03	1.187161E-17	5.839260E-18
3.470000E+03	1.160745E-17	5.708152E-18
3.480000E+03	1.135599E-17	5.583339E-18
3.490000E+03	1.111697E-17	5.464683E-18
3.500000E+03	1.088960E-17	5.351793E-18
3.510000E+03	1.067364E-17	5.244549E-18
3.520000E+03	1.046849E-17	5.142656E-18
3.530000E+03	1.027371E-17	5.045896E-18
3.540000E+03	1.008889E-17	4.954055E-18
3.550000E+03	9.913513E-18	4.866888E-18
3.560000E+03	9.747322E-18	4.784259E-18
3.570000E+03	9.589754E-18	4.705891E-18
3.580000E+03	9.440483E-18	4.631622E-18
3.590000E+03	9.299306E-18	4.561349E-18
3.600000E+03	9.165827E-18	4.494877E-18
3.610000E+03	9.039760E-18	4.432062E-18
3.620000E+03	8.920760E-18	4.372733E-18
3.630000E+03	8.808481E-18	4.316720E-18
3.640000E+03	8.702701E-18	4.263910E-18
3.650000E+03	8.603032E-18	4.214111E-18
3.660000E+03	8.509351E-18	4.167263E-18
3.670000E+03	8.421309E-18	4.123191E-18
3.680000E+03	8.338714E-18	4.081800E-18
3.690000E+03	8.261470E-18	4.043042E-18
3.700000E+03	8.189263E-18	4.006762E-18
3.710000E+03	8.121918E-18	3.972871E-18
3.720000E+03	8.059440E-18	3.941371E-18
3.730000E+03	8.001599E-18	3.912148E-18
3.740000E+03	7.948236E-18	3.885122E-18
3.750000E+03	7.899358E-18	3.860295E-18
3.760000E+03	7.854739E-18	3.837557E-18
3.770000E+03	7.814310E-18	3.816871E-18
3.780000E+03	7.778068E-18	3.798234E-18
3.790000E+03	7.745870E-18	3.781576E-18
3.800000E+03	7.717647E-18	3.766861E-18
3.810000E+03	7.693318E-18	3.754049E-18
3.820000E+03	7.672826E-18	3.743109E-18
3.830000E+03	7.656151E-18	3.734032E-18
3.840000E+03	7.643168E-18	3.726754E-18
3.850000E+03	7.633859E-18	3.721266E-18
3.860000E+03	7.628230E-18	3.717569E-18
3.870000E+03	7.626143E-18	3.715594E-18
3.880000E+03	7.627523E-18	3.715305E-18
3.890000E+03	7.632428E-18	3.716727E-18
3.900000E+03	7.640791E-18	3.719826E-18
3.910000E+03	7.652471E-18	3.724533E-18
3.920000E+03	7.667532E-18	3.730878E-18
3.930000E+03	7.685961E-18	3.738853E-18
3.940000E+03	7.707565E-18	3.748363E-18
3.950000E+03	7.732396E-18	3.759432E-18
3.960000E+03	7.760447E-18	3.772054E-18
3.970000E+03	7.791652E-18	3.786197E-18
3.980000E+03	7.825860E-18	3.801787E-18
3.990000E+03	7.863207E-18	3.818887E-18
4.000000E+03	7.903545E-18	3.837425E-18
4.010000E+03	7.946811E-18	3.857369E-18
4.020000E+03	7.993049E-18	3.878739E-18
4.030000E+03	8.042132E-18	3.901472E-18
4.040000E+03	8.094120E-18	3.925596E-18
4.050000E+03	8.148798E-18	3.951005E-18
4.060000E+03	8.206298E-18	3.977763E-18
4.070000E+03	8.266482E-18	4.005801E-18
4.080000E+03	8.329273E-18	4.035081E-18
4.090000E+03	8.394737E-18	4.065633E-18
4.100000E+03	8.462667E-18	4.097356E-18
4.110000E+03	8.533193E-18	4.130312E-18
4.120000E+03	8.606119E-18	4.164405E-18
4.130000E+03	8.681430E-18	4.199627E-18
4.140000E+03	8.759136E-18	4.235980E-18
4.150000E+03	8.839097E-18	4.273397E-18
4.160000E+03	8.921312E-18	4.311876E-18
4.170000E+03	9.005718E-18	4.351385E-18
4.180000E+03	9.092174E-18	4.391855E-18
4.190000E+03	9.180762E-18	4.433325E-18
4.200000E+03	9.271265E-18	4.475689E-18
4.210000E+03	9.363773E-18	4.518989E-18
4.220000E+03	9.458062E-18	4.563117E-18
4.230000E+03	9.554152E-18	4.608080E-18
4.240000E+03	9.651973E-18	4.653845E-18
4.250000E+03	9.751308E-18	4.700307E-18
4.260000E+03	9.852242E-18	4.747504E-18
4.270000E+03	9.954635E-18	4.795368E-18
4.280000E+03	1.005834E-17	4.843828E-18
4.290000E+03	1.016320E-17	4.892811E-18
4.300000E+03	1.026923E-17	4.942319E-18
4.310000E+03	1.037636E-17	4.992318E-18
4.320000E+03	1.048427E-17	5.042655E-18
4.330000E+03	1.059304E-17	5.093366E-18
4.340000E+03	1.070234E-17	5.144297E-18
4.350000E+03	1.081226E-17	5.195485E-18
4.360000E+03	1.092254E-17	5.246804E-18
4.370000E+03	1.103317E-17	5.298255E-18
4.380000E+03	1.114415E-17	5.349837E-18
4.390000E+03	1.125549E-17	5.401549E-18
4.400000E+03	1.136719E-17	5.453392E-18
4.410000E+03	1.147933E-17	5.505409E-18
4.420000E+03	1.159202E-17	5.557650E-18
4.430000E+03	1.170528E-17	5.610119E-18
4.440000E+03	1.181919E-17	5.662864E-18
4.450000E+03	1.193370E-17	5.715850E-18
4.460000E+03	1.204901E-17	5.769179E-18
4.470000E+03	1.216504E-17	5.822811E-18
4.480000E+03	1.228182E-17	5.876762E-18
4.490000E+03	1.239939E-17	5.931042E-18
4.500000E+03	1.251776E-17	5.985667E-18
4.510000E+03	1.263699E-17	6.040654E-18
4.520000E+03	1.275709E-17	6.096019E-18
4.530000E+03	1.287791E-17	6.151677E-18
4.540000E+03	1.299969E-17	6.207754E-18
4.550000E+03	1.312227E-17	6.264163E-18
4.560000E+03	1.324569E-17	6.320928E-18
4.570000E+03	1.336989E-17	6.378017E-18
4.580000E+03	1.349504E-17	6.435511E-18
4.590000E+03	1.362107E-17	6.493382E-18
4.600000E+03	1.374783E-17	6.551547E-18
4.610000E+03	1.387561E-17	6.610151E-18
4.620000E+03	1.400424E-17	6.669111E-18
4.630000E+03	1.413367E-17	6.728402E-18
4.640000E+03	1.426411E-17	6.788122E-18
4.650000E+03	1.439566E-17	6.848318E-18
4.660000E+03	1.452801E-17	6.908839E-18
4.670000E+03	1.466152E-17	6.969866E-18
4.680000E+03	1.479617E-17	7.031378E-18
4.690000E+03	1.493194E-17	7.093369E-18
4.700000E+03	1.506895E-17	7.155894E-18
4.710000E+03	1.520719E-17	7.218946E-18
4.720000E+03	1.534679E-17	7.282590E-18
4.730000E+03	1.548747E-17	7.346688E-18
4.740000E+03	1.562937E-17	7.411303E-18
4.750000E+03	1.577263E-17	7.476508E-18
4.760000E+03	1.591682E-17	7.542094E-18
4.770000E+03	1.606222E-17	7.608197E-18
4.780000E+03	1.620871E-17	7.674751E-18
4.790000E+03	1.635613E-17	7.741683E-18
4.800000E+03	1.650479E-17	7.809141E-18
4.810000E+03	1.665423E-17	7.876904E-18
4.820000E+03	1.680492E-17	7.945195E-18
4.830000E+03	1.695639E-17	8.013793E-18
4.840000E+03	1.710895E-17	8.082841E-18
4.850000E+03	1.726229E-17	8.152187E-18
4.860000E+03	1.741672E-17	8.221984E-18
4.870000E+03	1.757191E-17	8.292069E-18
4.880000E+03	1.772800E-17	8.362512E-18
4.890000E+03	1.788498E-17	8.433307E-18
4.900000E+03	1.804265E-17	8.504360E-18
4.910000E+03	1.820099E-17	8.575654E-18
4.920000E+03	1.835996E-17	8.647175E-18
4.930000E+03	1.851968E-17	8.718981E-18
4.940000E+03	1.867976E-17	8.790880E-18
4.950000E+03	1.884049E-17	8.863013E-18
4.960000E+03	1.900144E-17	8.935173E-18
4.970000E+03	1.916270E-17	9.007411E-18
4.980000E+03	1.932401E-17	9.079594E-18
4.990000E+03	1.948525E-17	9.151666E-18
5.000000E+03	1.964630E-17	9.223575E-18
5.010000E+03	1.980722E-17	9.295350E-18
5.020000E+03	1.996748E-17	9.366736E-18
5.030000E+03	2.012710E-17	9.437747E-18
5.040000E+03	2.028571E-17	9.508210E-18
5.050000E+03	2.044332E-17	9.578123E-18
5.060000E+03	2.059952E-17	9.647297E-18
5.070000E+03	2.075386E-17	9.715531E-18
5.080000E+03	2.090632E-17	9.782800E-18
5.090000E+03	2.105661E-17	9.848985E-18
5.100000E+03	2.120428E-17	9.913865E-18
5.110000E+03	2.134879E-17	9.977196E-18
5.120000E+03	2.149029E-17	1.003904E-17
5.130000E+03	2.162800E-17	1.009905E-17
5.140000E+03	2.176160E-17	1.015706E-17
5.150000E+03	2.189073E-17	1.021292E-17
5.160000E+03	2.201505E-17	1.026646E-17
5.170000E+03	2.213396E-17	1.031741E-17
5.180000E+03	2.224730E-17	1.036571E-17
5.190000E+03	2.235427E-17	1.041097E-17
5.200000E+03	2.245469E-17	1.045311E-17
5.210000E+03	2.254775E-17	1.049178E-17
5.220000E+03	2.263351E-17	1.052699E-17
5.230000E+03	2.271115E-17	1.055837E-17
5.240000E+03	2.278054E-17	1.058586E-17
5.250000E+03	2.284088E-17	1.060910E-17
5.260000E+03	2.289205E-17	1.062805E-17
5.270000E+03	2.293377E-17	1.064256E-17
5.280000E+03	2.296530E-17	1.065231E-17
5.290000E+03	2.298638E-17	1.065719E-17
5.300000E+03	2.299705E-17	1.065721E-17
5.310000E+03	2.299690E-17	1.065219E-17
5.320000E+03	2.298560E-17	1.064200E-17
5.330000E+03	2.296308E-17	1.062659E-17
5.340000E+03	2.292934E-17	1.060598E-17
5.350000E+03	2.288442E-17	1.058021E-17
5.360000E+03	2.282824E-17	1.054923E-17
5.370000E+03	2.276122E-17	1.051324E-17
5.380000E+03	2.268339E-17	1.047228E-17
5.390000E+03	2.259532E-17	1.042660E-17
5.400000E+03	2.249721E-17	1.037631E-17
5.410000E+03	2.238998E-17	1.032185E-17
5.420000E+03	2.227442E-17	1.026357E-17
5.430000E+03	2.215092E-17	1.020167E-17
5.440000E+03	2.202085E-17	1.013678E-17
5.450000E+03	2.188493E-17	1.006924E-17
5.460000E+03	2.174308E-17	9.999013E-18
5.470000E+03	2.159683E-17	9.926808E-18
5.480000E+03	2.144661E-17	9.852832E-18
5.490000E+03	2.129293E-17	9.777316E-18
5.500000E+03	2.113654E-17	9.700610E-18
5.510000E+03	2.097800E-17	9.622971E-18
5.520000E+03	2.081789E-17	9.544665E-18
5.530000E+03	2.065721E-17	9.466157E-18
5.540000E+03	2.049654E-17	9.387711E-18
5.550000E+03	2.033709E-17	9.309880E-18
5.560000E+03	2.017980E-17	9.233097E-18
5.570000E+03	2.002540E-17	9.157692E-18
5.580000E+03	1.987499E-17	9.084166E-18
5.590000E+03	1.972940E-17	9.012898E-18
5.600000E+03	1.958944E-17	8.944251E-18
5.610000E+03	1.945603E-17	8.878645E-18
5.620000E+03	1.932986E-17	8.816387E-18
5.630000E+03	1.921154E-17	8.757756E-18
5.640000E+03	1.910185E-17	8.703091E-18
5.650000E+03	1.900127E-17	8.652617E-18
5.660000E+03	1.891044E-17	8.606612E-18
5.670000E+03	1.882975E-17	8.565248E-18
5.680000E+03	1.875954E-17	8.528667E-18
5.690000E+03	1.870026E-17	8.497079E-18
5.700000E+03	1.865216E-17	8.470576E-18
5.710000E+03	1.861542E-17	8.449239E-18
5.720000E+03	1.859040E-17	8.433218E-18
5.730000E+03	1.857719E-17	8.422553E-18
5.740000E+03	1.857609E-17	8.417364E-18
5.750000E+03	1.858697E-17	8.417584E-18
5.760000E+03	1.861025E-17	8.423397E-18
5.770000E+03	1.864578E-17	8.434720E-18
5.780000E+03	1.869355E-17	8.451546E-18
5.790000E+03	1.875397E-17	8.474047E-18
5.800000E+03	1.882663E-17	8.502031E-18
5.810000E+03	1.891193E-17	8.535666E-18
5.820000E+03	1.900986E-17	8.574937E-18
5.830000E+03	1.912041E-17	8.619829E-18
5.840000E+03	1.924334E-17	8.670230E-18
5.850000E+03	1.937906E-17	8.726309E-18
5.860000E+03	1.952734E-17	8.787952E-18
5.870000E+03	1.968837E-17	8.855233E-18
5.880000E+03	1.986211E-17	8.928131E-18
5.890000E+03	2.004832E-17	9.006521E-18
5.900000E+03	2.024717E-17	9.090471E-18
5.910000E+03	2.045883E-17	9.180048E-18
5.920000E+03	2.068278E-17	9.275008E-18
5.930000E+03	2.091917E-17	9.375406E-18
5.940000E+03	2.116789E-17	9.481186E-18
5.950000E+03	2.142907E-17	9.592394E-18
5.960000E+03	2.170208E-17	9.708733E-18
5.970000E+03	2.198724E-17	9.830344E-18
5.980000E+03	2.228386E-17	9.956900E-18
5.990000E+03	2.259195E-17	1.008840E-17
6.000000E+03	2.291126E-17	1.022473E-17
6.010000E+03	2.324123E-17	1.036562E-17
6.020000E+03	2.358179E-17	1.051103E-17
6.030000E+03	2.393203E-17	1.066055E-17
6.040000E+03	2.429208E-17	1.081422E-17
6.050000E+03	2.466067E-17	1.097148E-17
6.060000E+03	2.503783E-17	1.113233E-17
6.070000E+03	2.542248E-17	1.129628E-17
6.080000E+03	2.581432E-17	1.146319E-17
6.090000E+03	2.621214E-17	1.163252E-17
6.100000E+03	2.661526E-17	1.180396E-17
6.110000E+03	2.702268E-17	1.197706E-17
6.120000E+03	2.743367E-17	1.215150E-17
6.130000E+03	2.784680E-17	1.232663E-17
6.140000E+03	2.826093E-17	1.250197E-17
6.150000E+03	2.867524E-17	1.267712E-17
6.160000E+03	2.908853E-17	1.285158E-17
6.170000E+03	2.949888E-17	1.302449E-17
6.180000E+03	2.990539E-17	1.319545E-17
6.190000E+03	3.030679E-17	1.336390E-17
6.200000E+03	3.070220E-17	1.352948E-17
6.210000E+03	3.109112E-17	1.369195E-17
6.220000E+03	3.147314E-17	1.385115E-17
6.230000E+03	3.184829E-17	1.400709E-17
6.240000E+03	3.221755E-17	1.416021E-17
6.250000E+03	3.258077E-17	1.431044E-17
6.260000E+03	3.293745E-17	1.445759E-17
6.270000E+03	3.328887E-17	1.460220E-17
6.280000E+03	3.363517E-17	1.474435E-17
6.290000E+03	3.397563E-17	1.488373E-17
6.300000E+03	3.431183E-17	1.502103E-17
6.310000E+03	3.464275E-17	1.515581E-17
6.320000E+03	3.496969E-17	1.528864E-17
6.330000E+03	3.529213E-17	1.541931E-17
6.340000E+03	3.561058E-17	1.554802E-17
6.350000E+03	3.592508E-17	1.567482E-17
6.360000E+03	3.623569E-17	1.579972E-17
6.370000E+03	3.654252E-17	1.592277E-17
6.380000E+03	3.684518E-17	1.604381E-17
6.390000E+03	3.714324E-17	1.616266E-17
6.400000E+03	3.743736E-17	1.627960E-17
6.410000E+03	3.772659E-17	1.639423E-17
6.420000E+03	3.801160E-17	1.650684E-17
6.430000E+03	3.829197E-17	1.661726E-17
6.440000E+03	3.856784E-17	1.672554E-17
6.450000E+03	3.883991E-17	1.683200E-17
6.460000E+03	3.910951E-17	1.693720E-17
6.470000E+03	3.937685E-17	1.704126E-17
6.480000E+03	3.964273E-17	1.714451E-17
6.490000E+03	3.990800E-17	1.724733E-17
6.500000E+03	4.017231E-17	1.734956E-17
6.510000E+03	4.043713E-17	1.745183E-17
6.520000E+03	4.070275E-17	1.755428E-17
6.530000E+03	4.096880E-17	1.765673E-17
6.540000E+03	4.123681E-17	1.775986E-17
6.550000E+03	4.150641E-17	1.786350E-17
6.560000E+03	4.177721E-17	1.796747E-17
6.570000E+03	4.205075E-17	1.807245E-17
6.580000E+03	4.232663E-17	1.817826E-17
6.590000E+03	4.260505E-17	1.828498E-17
6.600000E+03	4.288695E-17	1.839300E-17
6.610000E+03	4.317112E-17	1.850182E-17
6.620000E+03	4.345773E-17	1.861150E-17
6.630000E+03	4.374838E-17	1.872272E-17
6.640000E+03	4.404178E-17	1.883493E-17
6.650000E+03	4.433805E-17	1.894818E-17
6.660000E+03	4.463805E-17	1.906283E-17
6.670000E+03	4.494113E-17	1.917860E-17
6.680000E+03	4.524735E-17	1.929551E-17
6.690000E+03	4.555755E-17	1.941393E-17
6.700000E+03	4.587023E-17	1.953320E-17
6.710000E+03	4.618538E-17	1.965332E-17
6.720000E+03	4.650458E-17	1.977497E-17
6.730000E+03	4.682623E-17	1.989746E-17
6.740000E+03	4.715028E-17	2.002076E-17
6.750000E+03	4.747749E-17	2.014519E-17
6.760000E+03	4.780698E-17	2.027039E-17
6.770000E+03	4.813864E-17	2.039630E-17
6.780000E+03	4.847237E-17	2.052288E-17
6.790000E+03	4.880806E-17	2.065008E-17
6.800000E+03	4.914469E-17	2.077747E-17
6.810000E+03	4.948299E-17	2.090536E-17
6.820000E+03	4.982281E-17	2.103367E-17
6.830000E+03	5.016309E-17	2.116198E-17
6.840000E+03	5.050454E-17	2.129057E-17
6.850000E+03	5.084609E-17	2.141899E-17
6.860000E+03	5.118751E-17	2.154715E-17
6.870000E+03	5.152861E-17	2.167497E-17
6.880000E+03	5.186821E-17	2.180195E-17
6.890000E+03	5.220803E-17	2.192882E-17
6.900000E+03	5.254690E-17	2.205510E-17
6.910000E+03	5.288362E-17	2.218027E-17
6.920000E+03	5.321896E-17	2.230466E-17
6.930000E+03	5.355172E-17	2.242777E-17
6.940000E+03	5.388167E-17	2.254952E-17
6.950000E+03	5.420962E-17	2.267024E-17
6.960000E+03	5.453437E-17	2.278944E-17
6.970000E+03	5.485572E-17	2.290703E-17
6.980000E+03	5.517348E-17	2.302294E-17
6.990000E+03	5.548750E-17	2.313712E-17
7.000000E+03	5.579655E-17	2.324905E-17
7.010000E+03	5.610264E-17	2.335959E-17
7.020000E+03	5.640349E-17	2.346778E-17
7.030000E+03	5.669898E-17	2.357357E-17
7.040000E+03	5.699014E-17	2.367742E-17
7.050000E+03	5.727577E-17	2.377882E-17
7.060000E+03	5.755584E-17	2.387777E-17
7.070000E+03	5.783031E-17	2.397425E-17
7.080000E+03	5.809919E-17	2.406829E-17
7.090000E+03	5.836366E-17	2.416037E-17
7.100000E+03	5.862144E-17	2.424956E-17
7.110000E+03	5.887259E-17	2.433588E-17
7.120000E+03	5.911835E-17	2.441988E-17
7.130000E+03	5.935886E-17	2.450159E-17
7.140000E+03	5.959303E-17	2.458059E-17
7.150000E+03	5.982221E-17	2.465744E-17
7.160000E+03	6.004411E-17	2.473120E-17
7.170000E+03	6.026135E-17	2.480295E-17
7.180000E+03	6.047286E-17	2.487227E-17
7.190000E+03	6.067884E-17	2.493924E-17
7.200000E+03	6.087818E-17	2.500343E-17
7.210000E+03	6.107359E-17	2.506593E-17
7.220000E+03	6.126273E-17	2.512581E-17
7.230000E+03	6.144701E-17	2.518365E-17
7.240000E+03	6.162534E-17	2.523900E-17
7.250000E+03	6.179910E-17	2.529245E-17
7.260000E+03	6.196722E-17	2.534356E-17
7.270000E+03	6.212976E-17	2.539236E-17
7.280000E+03	6.228813E-17	2.543943E-17
7.290000E+03	6.244119E-17	2.548433E-17
7.300000E+03	6.259026E-17	2.552758E-17
7.310000E+03	6.273278E-17	2.556816E-17
7.320000E+03	6.287016E-17	2.560665E-17
7.330000E+03	6.300383E-17	2.564363E-17
7.340000E+03	6.313118E-17	2.567805E-17
7.350000E+03	6.325349E-17	2.571045E-17
7.360000E+03	6.336959E-17	2.574034E-17
7.370000E+03	6.348082E-17	2.576829E-17
7.380000E+03	6.358600E-17	2.579382E-17
7.390000E+03	6.368506E-17	2.581691E-17
7.400000E+03	6.377824E-17	2.583767E-17
7.410000E+03	6.386422E-17	2.585557E-17
7.420000E+03	6.394311E-17	2.587066E-17
7.430000E+03	6.401516E-17	2.588305E-17
7.440000E+03	6.408042E-17	2.589277E-17
7.450000E+03	6.414055E-17	2.590051E-17
7.460000E+03	6.419437E-17	2.590578E-17
7.470000E+03	6.424505E-17	2.590988E-17
7.480000E+03	6.429271E-17	2.591286E-17
7.490000E+03	6.433771E-17	2.591488E-17
7.500000E+03	6.438032E-17	2.591603E-17
7.510000E+03	6.442064E-17	2.591637E-17
7.520000E+03	6.446180E-17	2.591717E-17
7.530000E+03	6.450087E-17	2.591725E-17
7.540000E+03	6.453940E-17	2.591722E-17
7.550000E+03	6.457732E-17	2.591708E-17
7.560000E+03	6.461603E-17	2.591736E-17
7.570000E+03	6.465256E-17	2.591689E-17
7.580000E+03	6.468823E-17	2.591619E-17
7.590000E+03	6.472304E-17	2.591526E-17
7.600000E+03	6.475849E-17	2.591470E-17
7.610000E+03	6.479131E-17	2.591321E-17
7.620000E+03	6.482465E-17	2.591205E-17
7.630000E+03	6.485674E-17	2.591050E-17
7.640000E+03	6.488612E-17	2.590798E-17
7.650000E+03	6.491570E-17	2.590566E-17
7.660000E+03	6.494395E-17	2.590293E-17
7.670000E+03	6.497068E-17	2.589971E-17
7.680000E+03	6.499596E-17	2.589603E-17
7.690000E+03	6.501959E-17	2.589180E-17
7.700000E+03	6.504150E-17	2.588701E-17
7.710000E+03	6.506327E-17	2.588228E-17
7.720000E+03	6.508149E-17	2.587625E-17
7.730000E+03	6.509936E-17	2.587021E-17
7.740000E+03	6.511506E-17	2.586342E-17
7.750000E+03	6.512852E-17	2.585586E-17
7.760000E+03	6.513953E-17	2.584745E-17
