#wls	flux	fluxerr
1.600000E+03	3.692894E-16	1.237135E-16
1.640000E+03	3.801980E-16	1.273658E-16
1.680000E+03	3.904131E-16	1.307856E-16
1.720000E+03	3.998183E-16	1.339340E-16
1.760000E+03	4.082479E-16	1.367554E-16
1.800000E+03	4.155691E-16	1.392053E-16
1.840000E+03	4.216058E-16	1.412247E-16
1.880000E+03	4.262564E-16	1.427798E-16
1.920000E+03	4.293809E-16	1.438235E-16
1.960000E+03	4.308102E-16	1.442993E-16
2.000000E+03	4.304564E-16	1.441777E-16
2.040000E+03	4.281789E-16	1.434118E-16
2.080000E+03	4.238641E-16	1.419634E-16
2.120000E+03	4.174904E-16	1.398255E-16
2.160000E+03	4.089276E-16	1.369544E-16
2.200000E+03	3.981127E-16	1.333291E-16
2.240000E+03	3.849844E-16	1.289292E-16
2.280000E+03	3.694281E-16	1.237163E-16
2.320000E+03	3.519234E-16	1.178511E-16
2.360000E+03	3.329556E-16	1.114962E-16
2.400000E+03	3.129128E-16	1.047816E-16
2.440000E+03	2.921258E-16	9.781805E-17
2.480000E+03	2.709082E-16	9.071067E-17
2.520000E+03	2.495429E-16	8.355419E-17
2.560000E+03	2.282777E-16	7.643161E-17
2.600000E+03	2.073608E-16	6.942600E-17
2.640000E+03	1.870145E-16	6.261184E-17
2.680000E+03	1.674364E-16	5.605528E-17
2.720000E+03	1.487990E-16	4.981401E-17
2.760000E+03	1.312562E-16	4.393957E-17
2.800000E+03	1.149131E-16	3.846712E-17
2.840000E+03	9.985306E-17	3.342451E-17
2.880000E+03	8.613862E-17	2.883266E-17
2.920000E+03	7.380191E-17	2.470228E-17
2.960000E+03	6.284829E-17	2.103513E-17
3.000000E+03	5.324585E-17	1.782047E-17
3.010000E+03	5.104865E-17	1.708492E-17
3.020000E+03	4.893031E-17	1.637578E-17
3.030000E+03	4.689012E-17	1.569281E-17
3.040000E+03	4.492615E-17	1.503536E-17
3.050000E+03	4.303645E-17	1.440278E-17
3.060000E+03	4.122001E-17	1.379473E-17
3.070000E+03	3.947396E-17	1.321024E-17
3.080000E+03	3.779794E-17	1.264921E-17
3.090000E+03	3.618911E-17	1.211068E-17
3.100000E+03	3.464620E-17	1.159421E-17
3.110000E+03	3.316711E-17	1.109911E-17
3.120000E+03	3.175050E-17	1.062493E-17
3.130000E+03	3.039421E-17	1.017095E-17
3.140000E+03	2.909628E-17	9.736500E-18
3.150000E+03	2.785517E-17	9.321077E-18
3.160000E+03	2.666839E-17	8.923845E-18
3.170000E+03	2.553498E-17	8.544480E-18
3.180000E+03	2.445250E-17	8.182163E-18
3.190000E+03	2.341945E-17	7.836395E-18
3.200000E+03	2.243394E-17	7.506540E-18
3.210000E+03	2.149412E-17	7.191983E-18
3.220000E+03	2.059854E-17	6.892237E-18
3.230000E+03	1.974541E-17	6.606698E-18
3.240000E+03	1.893264E-17	6.334672E-18
3.250000E+03	1.815949E-17	6.075905E-18
3.260000E+03	1.742335E-17	5.829532E-18
3.270000E+03	1.672349E-17	5.595300E-18
3.280000E+03	1.605777E-17	5.372496E-18
3.290000E+03	1.542494E-17	5.160701E-18
3.300000E+03	1.482374E-17	4.959493E-18
3.310000E+03	1.425228E-17	4.768243E-18
3.320000E+03	1.370964E-17	4.586637E-18
3.330000E+03	1.319446E-17	4.414223E-18
3.340000E+03	1.270527E-17	4.250506E-18
3.350000E+03	1.224084E-17	4.095078E-18
3.360000E+03	1.180002E-17	3.947550E-18
3.370000E+03	1.138183E-17	3.807598E-18
3.380000E+03	1.098489E-17	3.674758E-18
3.390000E+03	1.060847E-17	3.548788E-18
3.400000E+03	1.025132E-17	3.429264E-18
3.410000E+03	9.912509E-18	3.315879E-18
3.420000E+03	9.591288E-18	3.208381E-18
3.430000E+03	9.286462E-18	3.106370E-18
3.440000E+03	8.997482E-18	3.009661E-18
3.450000E+03	8.723486E-18	2.917968E-18
3.460000E+03	8.463458E-18	2.830949E-18
3.470000E+03	8.216958E-18	2.748457E-18
3.480000E+03	7.983075E-18	2.670187E-18
3.490000E+03	7.761240E-18	2.595950E-18
3.500000E+03	7.550825E-18	2.525534E-18
3.510000E+03	7.351001E-18	2.458662E-18
3.520000E+03	7.161319E-18	2.395183E-18
3.530000E+03	6.981130E-18	2.334882E-18
3.540000E+03	6.809830E-18	2.277555E-18
3.550000E+03	6.646938E-18	2.223042E-18
3.560000E+03	6.491869E-18	2.171146E-18
3.570000E+03	6.344148E-18	2.121709E-18
3.580000E+03	6.203276E-18	2.074564E-18
3.590000E+03	6.068912E-18	2.029597E-18
3.600000E+03	5.940673E-18	1.986679E-18
3.610000E+03	5.818150E-18	1.945674E-18
3.620000E+03	5.701069E-18	1.906490E-18
3.630000E+03	5.589170E-18	1.869040E-18
3.640000E+03	5.482101E-18	1.833206E-18
3.650000E+03	5.379782E-18	1.798961E-18
3.660000E+03	5.281887E-18	1.766197E-18
3.670000E+03	5.188295E-18	1.734872E-18
3.680000E+03	5.098838E-18	1.704931E-18
3.690000E+03	5.013350E-18	1.676318E-18
3.700000E+03	4.931718E-18	1.648995E-18
3.710000E+03	4.853862E-18	1.622935E-18
3.720000E+03	4.779541E-18	1.598058E-18
3.730000E+03	4.708763E-18	1.574366E-18
3.740000E+03	4.641332E-18	1.551794E-18
3.750000E+03	4.577176E-18	1.530317E-18
3.760000E+03	4.516217E-18	1.509910E-18
3.770000E+03	4.458268E-18	1.490509E-18
3.780000E+03	4.403335E-18	1.472118E-18
3.790000E+03	4.351267E-18	1.454684E-18
3.800000E+03	4.301999E-18	1.438188E-18
3.810000E+03	4.255426E-18	1.422592E-18
3.820000E+03	4.211481E-18	1.407876E-18
3.830000E+03	4.170067E-18	1.394006E-18
3.840000E+03	4.131120E-18	1.380961E-18
3.850000E+03	4.094548E-18	1.368710E-18
3.860000E+03	4.060324E-18	1.357244E-18
3.870000E+03	4.028361E-18	1.346535E-18
3.880000E+03	3.998570E-18	1.336552E-18
3.890000E+03	3.970904E-18	1.327279E-18
3.900000E+03	3.945277E-18	1.318688E-18
3.910000E+03	3.921675E-18	1.310774E-18
3.920000E+03	3.900019E-18	1.303510E-18
3.930000E+03	3.880265E-18	1.296882E-18
3.940000E+03	3.862340E-18	1.290866E-18
3.950000E+03	3.846171E-18	1.285436E-18
3.960000E+03	3.831778E-18	1.280601E-18
3.970000E+03	3.819033E-18	1.276316E-18
3.980000E+03	3.807931E-18	1.272580E-18
3.990000E+03	3.798406E-18	1.269371E-18
4.000000E+03	3.790421E-18	1.266677E-18
4.010000E+03	3.783948E-18	1.264488E-18
4.020000E+03	3.778896E-18	1.262773E-18
4.030000E+03	3.775262E-18	1.261533E-18
4.040000E+03	3.772990E-18	1.260747E-18
4.050000E+03	3.772054E-18	1.260408E-18
4.060000E+03	3.772399E-18	1.260497E-18
4.070000E+03	3.773972E-18	1.260995E-18
4.080000E+03	3.776777E-18	1.261905E-18
4.090000E+03	3.780737E-18	1.263201E-18
4.100000E+03	3.785832E-18	1.264876E-18
4.110000E+03	3.792045E-18	1.266924E-18
4.120000E+03	3.799297E-18	1.269319E-18
4.130000E+03	3.807603E-18	1.272066E-18
4.140000E+03	3.816890E-18	1.275140E-18
4.150000E+03	3.827145E-18	1.278538E-18
4.160000E+03	3.838352E-18	1.282253E-18
4.170000E+03	3.850443E-18	1.286263E-18
4.180000E+03	3.863439E-18	1.290575E-18
4.190000E+03	3.877234E-18	1.295153E-18
4.200000E+03	3.891887E-18	1.300018E-18
4.210000E+03	3.907294E-18	1.305134E-18
4.220000E+03	3.923450E-18	1.310500E-18
4.230000E+03	3.940317E-18	1.316103E-18
4.240000E+03	3.957892E-18	1.321942E-18
4.250000E+03	3.976077E-18	1.327984E-18
4.260000E+03	3.994895E-18	1.334237E-18
4.270000E+03	4.014287E-18	1.340681E-18
4.280000E+03	4.034181E-18	1.347293E-18
4.290000E+03	4.054580E-18	1.354072E-18
4.300000E+03	4.075443E-18	1.361006E-18
4.310000E+03	4.096677E-18	1.368064E-18
4.320000E+03	4.118241E-18	1.375231E-18
4.330000E+03	4.140103E-18	1.382497E-18
4.340000E+03	4.162222E-18	1.389848E-18
4.350000E+03	4.184564E-18	1.397273E-18
4.360000E+03	4.207120E-18	1.404769E-18
4.370000E+03	4.229852E-18	1.412323E-18
4.380000E+03	4.252723E-18	1.419923E-18
4.390000E+03	4.275790E-18	1.427587E-18
4.400000E+03	4.299016E-18	1.435305E-18
4.410000E+03	4.322398E-18	1.443073E-18
4.420000E+03	4.345962E-18	1.450902E-18
4.430000E+03	4.369710E-18	1.458791E-18
4.440000E+03	4.393601E-18	1.466728E-18
4.450000E+03	4.417672E-18	1.474724E-18
4.460000E+03	4.441884E-18	1.482766E-18
4.470000E+03	4.466239E-18	1.490856E-18
4.480000E+03	4.490741E-18	1.498994E-18
4.490000E+03	4.515322E-18	1.507157E-18
4.500000E+03	4.540022E-18	1.515360E-18
4.510000E+03	4.564811E-18	1.523591E-18
4.520000E+03	4.589663E-18	1.531843E-18
4.530000E+03	4.614589E-18	1.540118E-18
4.540000E+03	4.639526E-18	1.548397E-18
4.550000E+03	4.664489E-18	1.556684E-18
4.560000E+03	4.689494E-18	1.564984E-18
4.570000E+03	4.714522E-18	1.573291E-18
4.580000E+03	4.739517E-18	1.581586E-18
4.590000E+03	4.764501E-18	1.589876E-18
4.600000E+03	4.789458E-18	1.598157E-18
4.610000E+03	4.814378E-18	1.606425E-18
4.620000E+03	4.839285E-18	1.614687E-18
4.630000E+03	4.864132E-18	1.622929E-18
4.640000E+03	4.888952E-18	1.631161E-18
4.650000E+03	4.913735E-18	1.639380E-18
4.660000E+03	4.938477E-18	1.647584E-18
4.670000E+03	4.963174E-18	1.655773E-18
4.680000E+03	4.987820E-18	1.663943E-18
4.690000E+03	5.012414E-18	1.672096E-18
4.700000E+03	5.037046E-18	1.680260E-18
4.710000E+03	5.061712E-18	1.688435E-18
4.720000E+03	5.086418E-18	1.696622E-18
4.730000E+03	5.111258E-18	1.704853E-18
4.740000E+03	5.136191E-18	1.713115E-18
4.750000E+03	5.161225E-18	1.721409E-18
4.760000E+03	5.186415E-18	1.729754E-18
4.770000E+03	5.211769E-18	1.738153E-18
4.780000E+03	5.237252E-18	1.746594E-18
4.790000E+03	5.262916E-18	1.755095E-18
4.800000E+03	5.288782E-18	1.763662E-18
4.810000E+03	5.314809E-18	1.772282E-18
4.820000E+03	5.341059E-18	1.780975E-18
4.830000E+03	5.367552E-18	1.789748E-18
4.840000E+03	5.394298E-18	1.798605E-18
4.850000E+03	5.421318E-18	1.807552E-18
4.860000E+03	5.448578E-18	1.816578E-18
4.870000E+03	5.476197E-18	1.825723E-18
4.880000E+03	5.504092E-18	1.834958E-18
4.890000E+03	5.532284E-18	1.844292E-18
4.900000E+03	5.560841E-18	1.853746E-18
4.910000E+03	5.589785E-18	1.863328E-18
4.920000E+03	5.619140E-18	1.873046E-18
4.930000E+03	5.648815E-18	1.882870E-18
4.940000E+03	5.678942E-18	1.892843E-18
4.950000E+03	5.709486E-18	1.902954E-18
4.960000E+03	5.740465E-18	1.913209E-18
4.970000E+03	5.771898E-18	1.923614E-18
4.980000E+03	5.803807E-18	1.934176E-18
4.990000E+03	5.836149E-18	1.944882E-18
5.000000E+03	5.868940E-18	1.955735E-18
5.010000E+03	5.902253E-18	1.966762E-18
5.020000E+03	5.936040E-18	1.977945E-18
5.030000E+03	5.970258E-18	1.989270E-18
5.040000E+03	6.005029E-18	2.000778E-18
5.050000E+03	6.040190E-18	2.012415E-18
5.060000E+03	6.075860E-18	2.024220E-18
5.070000E+03	6.112043E-18	2.036195E-18
5.080000E+03	6.148572E-18	2.048283E-18
5.090000E+03	6.185617E-18	2.060542E-18
5.100000E+03	6.223067E-18	2.072934E-18
5.110000E+03	6.260917E-18	2.085458E-18
5.120000E+03	6.299224E-18	2.098132E-18
5.130000E+03	6.337865E-18	2.110917E-18
5.140000E+03	6.376836E-18	2.123809E-18
5.150000E+03	6.416191E-18	2.136828E-18
5.160000E+03	6.455860E-18	2.149950E-18
5.170000E+03	6.495838E-18	2.163173E-18
5.180000E+03	6.536045E-18	2.176471E-18
5.190000E+03	6.576541E-18	2.189863E-18
5.200000E+03	6.617179E-18	2.203300E-18
5.210000E+03	6.658074E-18	2.216822E-18
5.220000E+03	6.699151E-18	2.230403E-18
5.230000E+03	6.740321E-18	2.244012E-18
5.240000E+03	6.781565E-18	2.257645E-18
5.250000E+03	6.822927E-18	2.271315E-18
5.260000E+03	6.864254E-18	2.284972E-18
5.270000E+03	6.905581E-18	2.298626E-18
5.280000E+03	6.946950E-18	2.312293E-18
5.290000E+03	6.988125E-18	2.325894E-18
5.300000E+03	7.029279E-18	2.339486E-18
5.310000E+03	7.070172E-18	2.352989E-18
5.320000E+03	7.110975E-18	2.366460E-18
5.330000E+03	7.151442E-18	2.379817E-18
5.340000E+03	7.191671E-18	2.393094E-18
5.350000E+03	7.231624E-18	2.406276E-18
5.360000E+03	7.271191E-18	2.419328E-18
5.370000E+03	7.310477E-18	2.432285E-18
5.380000E+03	7.349221E-18	2.445060E-18
5.390000E+03	7.387606E-18	2.457713E-18
5.400000E+03	7.425521E-18	2.470208E-18
5.410000E+03	7.462925E-18	2.482532E-18
5.420000E+03	7.499785E-18	2.494672E-18
5.430000E+03	7.536066E-18	2.506618E-18
5.440000E+03	7.571655E-18	2.518331E-18
5.450000E+03	7.606517E-18	2.529802E-18
5.460000E+03	7.640617E-18	2.541016E-18
5.470000E+03	7.673918E-18	2.551964E-18
5.480000E+03	7.706310E-18	2.562607E-18
5.490000E+03	7.737676E-18	2.572907E-18
5.500000E+03	7.768053E-18	2.582876E-18
5.510000E+03	7.797330E-18	2.592478E-18
5.520000E+03	7.825382E-18	2.601671E-18
5.530000E+03	7.852096E-18	2.610418E-18
5.540000E+03	7.877504E-18	2.618728E-18
5.550000E+03	7.901410E-18	2.626538E-18
5.560000E+03	7.923846E-18	2.633857E-18
5.570000E+03	7.944611E-18	2.640620E-18
5.580000E+03	7.963663E-18	2.646811E-18
5.590000E+03	7.981041E-18	2.652445E-18
5.600000E+03	7.996542E-18	2.657453E-18
5.610000E+03	8.010205E-18	2.661850E-18
5.620000E+03	8.021995E-18	2.665623E-18
5.630000E+03	8.031791E-18	2.668732E-18
5.640000E+03	8.039562E-18	2.671167E-18
5.650000E+03	8.045359E-18	2.672944E-18
5.660000E+03	8.049156E-18	2.674057E-18
5.670000E+03	8.050845E-18	2.674468E-18
5.680000E+03	8.050491E-18	2.674200E-18
5.690000E+03	8.048162E-18	2.673275E-18
5.700000E+03	8.043682E-18	2.671635E-18
5.710000E+03	8.037131E-18	2.669306E-18
5.720000E+03	8.028590E-18	2.666316E-18
5.730000E+03	8.018064E-18	2.662666E-18
5.740000E+03	8.005564E-18	2.658360E-18
5.750000E+03	7.991102E-18	2.653402E-18
5.760000E+03	7.974699E-18	2.647800E-18
5.770000E+03	7.956459E-18	2.641587E-18
5.780000E+03	7.936328E-18	2.634747E-18
5.790000E+03	7.914503E-18	2.627344E-18
5.800000E+03	7.890939E-18	2.619364E-18
5.810000E+03	7.865674E-18	2.610819E-18
5.820000E+03	7.838921E-18	2.601781E-18
5.830000E+03	7.810563E-18	2.592211E-18
5.840000E+03	7.780738E-18	2.582153E-18
5.850000E+03	7.749591E-18	2.571658E-18
5.860000E+03	7.717099E-18	2.560716E-18
5.870000E+03	7.683421E-18	2.549382E-18
5.880000E+03	7.648540E-18	2.537649E-18
5.890000E+03	7.612704E-18	2.525600E-18
5.900000E+03	7.575916E-18	2.513235E-18
5.910000E+03	7.538254E-18	2.500582E-18
5.920000E+03	7.499892E-18	2.487697E-18
5.930000E+03	7.460835E-18	2.474582E-18
5.940000E+03	7.421255E-18	2.461295E-18
5.950000E+03	7.381158E-18	2.447837E-18
5.960000E+03	7.340715E-18	2.434265E-18
5.970000E+03	7.300017E-18	2.420610E-18
5.980000E+03	7.259145E-18	2.406898E-18
5.990000E+03	7.218101E-18	2.393130E-18
6.000000E+03	7.177050E-18	2.379360E-18
6.010000E+03	7.136068E-18	2.365615E-18
6.020000E+03	7.095148E-18	2.351891E-18
6.030000E+03	7.054445E-18	2.338240E-18
6.040000E+03	7.013944E-18	2.324657E-18
6.050000E+03	6.973629E-18	2.311136E-18
6.060000E+03	6.933729E-18	2.297755E-18
6.070000E+03	6.894134E-18	2.284475E-18
6.080000E+03	6.854985E-18	2.271344E-18
6.090000E+03	6.816169E-18	2.258325E-18
6.100000E+03	6.777815E-18	2.245460E-18
6.110000E+03	6.739890E-18	2.232737E-18
6.120000E+03	6.702435E-18	2.220172E-18
6.130000E+03	6.665488E-18	2.207775E-18
6.140000E+03	6.629004E-18	2.195533E-18
6.150000E+03	6.593015E-18	2.183457E-18
6.160000E+03	6.557550E-18	2.171554E-18
6.170000E+03	6.522639E-18	2.159836E-18
6.180000E+03	6.488304E-18	2.148309E-18
6.190000E+03	6.454486E-18	2.136955E-18
6.200000E+03	6.421280E-18	2.125804E-18
6.210000E+03	6.388709E-18	2.114864E-18
6.220000E+03	6.356781E-18	2.104138E-18
6.230000E+03	6.325591E-18	2.093657E-18
6.240000E+03	6.295230E-18	2.083451E-18
6.250000E+03	6.265789E-18	2.073551E-18
6.260000E+03	6.237355E-18	2.063984E-18
6.270000E+03	6.210017E-18	2.054781E-18
6.280000E+03	6.183944E-18	2.045997E-18
6.290000E+03	6.159053E-18	2.037604E-18
6.300000E+03	6.135682E-18	2.029716E-18
6.310000E+03	6.113750E-18	2.022303E-18
6.320000E+03	6.093425E-18	2.015422E-18
6.330000E+03	6.074794E-18	2.009102E-18
6.340000E+03	6.057943E-18	2.003371E-18
6.350000E+03	6.042878E-18	1.998231E-18
6.360000E+03	6.029684E-18	1.993709E-18
6.370000E+03	6.018453E-18	1.989837E-18
6.380000E+03	6.009192E-18	1.986615E-18
6.390000E+03	6.001904E-18	1.984046E-18
6.400000E+03	5.996685E-18	1.982160E-18
6.410000E+03	5.993369E-18	1.980903E-18
6.420000E+03	5.991960E-18	1.980275E-18
6.430000E+03	5.992377E-18	1.980251E-18
6.440000E+03	5.994448E-18	1.980772E-18
6.450000E+03	5.998268E-18	1.981870E-18
6.460000E+03	6.003659E-18	1.983486E-18
6.470000E+03	6.010717E-18	1.985652E-18
6.480000E+03	6.019446E-18	1.988369E-18
6.490000E+03	6.029762E-18	1.991609E-18
6.500000E+03	6.041665E-18	1.995371E-18
6.510000E+03	6.055160E-18	1.999659E-18
6.520000E+03	6.070254E-18	2.004472E-18
6.530000E+03	6.086952E-18	2.009814E-18
6.540000E+03	6.105353E-18	2.015717E-18
6.550000E+03	6.125370E-18	2.022151E-18
6.560000E+03	6.146912E-18	2.029086E-18
6.570000E+03	6.170179E-18	2.036589E-18
6.580000E+03	6.194982E-18	2.044597E-18
6.590000E+03	6.221428E-18	2.053145E-18
6.600000E+03	6.249522E-18	2.062235E-18
6.610000E+03	6.279276E-18	2.071870E-18
6.620000E+03	6.310695E-18	2.082052E-18
6.630000E+03	6.343686E-18	2.092750E-18
6.640000E+03	6.378361E-18	2.104001E-18
6.650000E+03	6.414623E-18	2.115772E-18
6.660000E+03	6.452586E-18	2.128102E-18
6.670000E+03	6.492153E-18	2.140957E-18
6.680000E+03	6.533333E-18	2.154342E-18
6.690000E+03	6.576242E-18	2.168293E-18
6.700000E+03	6.620898E-18	2.182817E-18
6.710000E+03	6.667083E-18	2.197841E-18
6.720000E+03	6.715033E-18	2.213444E-18
6.730000E+03	6.764530E-18	2.229553E-18
6.740000E+03	6.815819E-18	2.246249E-18
6.750000E+03	6.868790E-18	2.263495E-18
6.760000E+03	6.923338E-18	2.281257E-18
6.770000E+03	6.979717E-18	2.299618E-18
6.780000E+03	7.037693E-18	2.318501E-18
6.790000E+03	7.097398E-18	2.337949E-18
6.800000E+03	7.158849E-18	2.357968E-18
6.810000E+03	7.222058E-18	2.378561E-18
6.820000E+03	7.286906E-18	2.399689E-18
6.830000E+03	7.353537E-18	2.421399E-18
6.840000E+03	7.421831E-18	2.443652E-18
6.850000E+03	7.491931E-18	2.466495E-18
6.860000E+03	7.563711E-18	2.489885E-18
6.870000E+03	7.637186E-18	2.513828E-18
6.880000E+03	7.712499E-18	2.538370E-18
6.890000E+03	7.789381E-18	2.563423E-18
6.900000E+03	7.868128E-18	2.589084E-18
6.910000E+03	7.948600E-18	2.615307E-18
6.920000E+03	8.030812E-18	2.642096E-18
6.930000E+03	8.114766E-18	2.669452E-18
6.940000E+03	8.200470E-18	2.697378E-18
6.950000E+03	8.287776E-18	2.725824E-18
6.960000E+03	8.376842E-18	2.754842E-18
6.970000E+03	8.467676E-18	2.784435E-18
6.980000E+03	8.560283E-18	2.814604E-18
6.990000E+03	8.654336E-18	2.845242E-18
7.000000E+03	8.750333E-18	2.876512E-18
7.010000E+03	8.847770E-18	2.908247E-18
7.020000E+03	8.946987E-18	2.940561E-18
7.030000E+03	9.047810E-18	2.973395E-18
7.040000E+03	9.150233E-18	3.006747E-18
7.050000E+03	9.254257E-18	3.040617E-18
7.060000E+03	9.359870E-18	3.075002E-18
7.070000E+03	9.466880E-18	3.109837E-18
7.080000E+03	9.575462E-18	3.145181E-18
7.090000E+03	9.685607E-18	3.181031E-18
7.100000E+03	9.797116E-18	3.217319E-18
7.110000E+03	9.910162E-18	3.254104E-18
7.120000E+03	1.002454E-17	3.291317E-18
7.130000E+03	1.014022E-17	3.328950E-18
7.140000E+03	1.025718E-17	3.366997E-18
7.150000E+03	1.037563E-17	3.405518E-18
7.160000E+03	1.049510E-17	3.444369E-18
7.170000E+03	1.061556E-17	3.483536E-18
7.180000E+03	1.073743E-17	3.523154E-18
7.190000E+03	1.086023E-17	3.563070E-18
7.200000E+03	1.098392E-17	3.603269E-18
7.210000E+03	1.110870E-17	3.643815E-18
7.220000E+03	1.123430E-17	3.684619E-18
7.230000E+03	1.136066E-17	3.725668E-18
7.240000E+03	1.148776E-17	3.766945E-18
7.250000E+03	1.161554E-17	3.808435E-18
7.260000E+03	1.174420E-17	3.850207E-18
7.270000E+03	1.187319E-17	3.892076E-18
7.280000E+03	1.200296E-17	3.934193E-18
7.290000E+03	1.213323E-17	3.976459E-18
7.300000E+03	1.226391E-17	4.018854E-18
7.310000E+03	1.239524E-17	4.061449E-18
7.320000E+03	1.252688E-17	4.104138E-18
7.330000E+03	1.265906E-17	4.146992E-18
7.340000E+03	1.279172E-17	4.189996E-18
7.350000E+03	1.292512E-17	4.233228E-18
7.360000E+03	1.305920E-17	4.276675E-18
7.370000E+03	1.319422E-17	4.320421E-18
7.380000E+03	1.332986E-17	4.364357E-18
7.390000E+03	1.346699E-17	4.408772E-18
7.400000E+03	1.360561E-17	4.453665E-18
7.410000E+03	1.374540E-17	4.498930E-18
7.420000E+03	1.388731E-17	4.544878E-18
7.430000E+03	1.403103E-17	4.591410E-18
7.440000E+03	1.417692E-17	4.638637E-18
7.450000E+03	1.432465E-17	4.686456E-18
7.460000E+03	1.447457E-17	4.734983E-18
7.470000E+03	1.462568E-17	4.783885E-18
7.480000E+03	1.477865E-17	4.833385E-18
7.490000E+03	1.493242E-17	4.883137E-18
7.500000E+03	1.508732E-17	4.933247E-18
7.510000E+03	1.524297E-17	4.983588E-18
7.520000E+03	1.539894E-17	5.034024E-18
7.530000E+03	1.555557E-17	5.084663E-18
7.540000E+03	1.571166E-17	5.135115E-18
7.550000E+03	1.586790E-17	5.185605E-18
7.560000E+03	1.602384E-17	5.235986E-18
7.570000E+03	1.617940E-17	5.286231E-18
7.580000E+03	1.633411E-17	5.336185E-18
7.590000E+03	1.648827E-17	5.385950E-18
7.600000E+03	1.664139E-17	5.435364E-18
7.610000E+03	1.679337E-17	5.484396E-18
7.620000E+03	1.694454E-17	5.533149E-18
7.630000E+03	1.709437E-17	5.581458E-18
7.640000E+03	1.724321E-17	5.629430E-18
7.650000E+03	1.739007E-17	5.676749E-18
7.660000E+03	1.753574E-17	5.723666E-18
7.670000E+03	1.767967E-17	5.770005E-18
7.680000E+03	1.782221E-17	5.815880E-18
7.690000E+03	1.796280E-17	5.861110E-18
7.700000E+03	1.810133E-17	5.905660E-18
7.710000E+03	1.823770E-17	5.949494E-18
7.720000E+03	1.837275E-17	5.992887E-18
7.730000E+03	1.850495E-17	6.035344E-18
7.740000E+03	1.863564E-17	6.077299E-18
7.750000E+03	1.876376E-17	6.118407E-18
7.760000E+03	1.888970E-17	6.158795E-18
