#wls	flux	fluxerr
1.600000E+03	2.590070E-16	5.408829E-17
1.640000E+03	2.670332E-16	5.560086E-17
1.680000E+03	2.749103E-16	5.706774E-17
1.720000E+03	2.826141E-16	5.848367E-17
1.760000E+03	2.900314E-16	5.982513E-17
1.800000E+03	2.971201E-16	6.108347E-17
1.840000E+03	3.037765E-16	6.223759E-17
1.880000E+03	3.099405E-16	6.327567E-17
1.920000E+03	3.155187E-16	6.417926E-17
1.960000E+03	3.204112E-16	6.492898E-17
2.000000E+03	3.244673E-16	6.549551E-17
2.040000E+03	3.275853E-16	6.586004E-17
2.080000E+03	3.296434E-16	6.600012E-17
2.120000E+03	3.304652E-16	6.588294E-17
2.160000E+03	3.298973E-16	6.548103E-17
2.200000E+03	3.277574E-16	6.476193E-17
2.240000E+03	3.238910E-16	6.369951E-17
2.280000E+03	3.182652E-16	6.229229E-17
2.320000E+03	3.109200E-16	6.055326E-17
2.360000E+03	3.020756E-16	5.853059E-17
2.400000E+03	2.919276E-16	5.626693E-17
2.440000E+03	2.806510E-16	5.380049E-17
2.480000E+03	2.684399E-16	5.117257E-17
2.520000E+03	2.554446E-16	4.841553E-17
2.560000E+03	2.417976E-16	4.555780E-17
2.600000E+03	2.276648E-16	4.263367E-17
2.640000E+03	2.131704E-16	3.966899E-17
2.680000E+03	1.984647E-16	3.669393E-17
2.720000E+03	1.836775E-16	3.373425E-17
2.760000E+03	1.689664E-16	3.082015E-17
2.800000E+03	1.544680E-16	2.797726E-17
2.840000E+03	1.403306E-16	2.523265E-17
2.880000E+03	1.266976E-16	2.261161E-17
2.920000E+03	1.137033E-16	2.013704E-17
2.960000E+03	1.014660E-16	1.782821E-17
3.000000E+03	9.008123E-17	1.569962E-17
3.010000E+03	8.737591E-17	1.519666E-17
3.020000E+03	8.472976E-17	1.470576E-17
3.030000E+03	8.214114E-17	1.422660E-17
3.040000E+03	7.961383E-17	1.375979E-17
3.050000E+03	7.714600E-17	1.330494E-17
3.060000E+03	7.473766E-17	1.286202E-17
3.070000E+03	7.238877E-17	1.243095E-17
3.080000E+03	7.010215E-17	1.201218E-17
3.090000E+03	6.787449E-17	1.160507E-17
3.100000E+03	6.570825E-17	1.120999E-17
3.110000E+03	6.360157E-17	1.082657E-17
3.120000E+03	6.155519E-17	1.045488E-17
3.130000E+03	5.956857E-17	1.009476E-17
3.140000E+03	5.764121E-17	9.746084E-18
3.150000E+03	5.577269E-17	9.408711E-18
3.160000E+03	5.396350E-17	9.082668E-18
3.170000E+03	5.221197E-17	8.767616E-18
3.180000E+03	5.051836E-17	8.463542E-18
3.190000E+03	4.888187E-17	8.170251E-18
3.200000E+03	4.730160E-17	7.887535E-18
3.210000E+03	4.577741E-17	7.615315E-18
3.220000E+03	4.430672E-17	7.353102E-18
3.230000E+03	4.289080E-17	7.101049E-18
3.240000E+03	4.152631E-17	6.858552E-18
3.250000E+03	4.021430E-17	6.625723E-18
3.260000E+03	3.895220E-17	6.402087E-18
3.270000E+03	3.773949E-17	6.187504E-18
3.280000E+03	3.657496E-17	5.981723E-18
3.290000E+03	3.545680E-17	5.784394E-18
3.300000E+03	3.438486E-17	5.595444E-18
3.310000E+03	3.335680E-17	5.414440E-18
3.320000E+03	3.237141E-17	5.241139E-18
3.330000E+03	3.142841E-17	5.075447E-18
3.340000E+03	3.052560E-17	4.916961E-18
3.350000E+03	2.966180E-17	4.765448E-18
3.360000E+03	2.883583E-17	4.620673E-18
3.370000E+03	2.804692E-17	4.482468E-18
3.380000E+03	2.729312E-17	4.350483E-18
3.390000E+03	2.657332E-17	4.224498E-18
3.400000E+03	2.588679E-17	4.104359E-18
3.410000E+03	2.523205E-17	3.989793E-18
3.420000E+03	2.460802E-17	3.880592E-18
3.430000E+03	2.401303E-17	3.776458E-18
3.440000E+03	2.344639E-17	3.677246E-18
3.450000E+03	2.290711E-17	3.582769E-18
3.460000E+03	2.239368E-17	3.492758E-18
3.470000E+03	2.190524E-17	3.407049E-18
3.480000E+03	2.144067E-17	3.325438E-18
3.490000E+03	2.099946E-17	3.247815E-18
3.500000E+03	2.058010E-17	3.173921E-18
3.510000E+03	2.018214E-17	3.103661E-18
3.520000E+03	1.980446E-17	3.036834E-18
3.530000E+03	1.944623E-17	2.973290E-18
3.540000E+03	1.910668E-17	2.912887E-18
3.550000E+03	1.878486E-17	2.855456E-18
3.560000E+03	1.848028E-17	2.800904E-18
3.570000E+03	1.819187E-17	2.749045E-18
3.580000E+03	1.791906E-17	2.699773E-18
3.590000E+03	1.766141E-17	2.653003E-18
3.600000E+03	1.741820E-17	2.608607E-18
3.610000E+03	1.718887E-17	2.566487E-18
3.620000E+03	1.697277E-17	2.526522E-18
3.630000E+03	1.676924E-17	2.488601E-18
3.640000E+03	1.657786E-17	2.452647E-18
3.650000E+03	1.639788E-17	2.418533E-18
3.660000E+03	1.622912E-17	2.386214E-18
3.670000E+03	1.607088E-17	2.355579E-18
3.680000E+03	1.592285E-17	2.326564E-18
3.690000E+03	1.578488E-17	2.299138E-18
3.700000E+03	1.565638E-17	2.273200E-18
3.710000E+03	1.553708E-17	2.248698E-18
3.720000E+03	1.542698E-17	2.225622E-18
3.730000E+03	1.532571E-17	2.203906E-18
3.740000E+03	1.523296E-17	2.183494E-18
3.750000E+03	1.514877E-17	2.164380E-18
3.760000E+03	1.507271E-17	2.146492E-18
3.770000E+03	1.500465E-17	2.129800E-18
3.780000E+03	1.494456E-17	2.114292E-18
3.790000E+03	1.489219E-17	2.099919E-18
3.800000E+03	1.484737E-17	2.086648E-18
3.810000E+03	1.480999E-17	2.074454E-18
3.820000E+03	1.477988E-17	2.063304E-18
3.830000E+03	1.475705E-17	2.053189E-18
3.840000E+03	1.474125E-17	2.044065E-18
3.850000E+03	1.473249E-17	2.035923E-18
3.860000E+03	1.473076E-17	2.028754E-18
3.870000E+03	1.473584E-17	2.022517E-18
3.880000E+03	1.474759E-17	2.017186E-18
3.890000E+03	1.476617E-17	2.012772E-18
3.900000E+03	1.479146E-17	2.009250E-18
3.910000E+03	1.482322E-17	2.006580E-18
3.920000E+03	1.486156E-17	2.004767E-18
3.930000E+03	1.490650E-17	2.003806E-18
3.940000E+03	1.495765E-17	2.003635E-18
3.950000E+03	1.501512E-17	2.004263E-18
3.960000E+03	1.507889E-17	2.005677E-18
3.970000E+03	1.514881E-17	2.007850E-18
3.980000E+03	1.522456E-17	2.010733E-18
3.990000E+03	1.530638E-17	2.014347E-18
4.000000E+03	1.539393E-17	2.018643E-18
4.010000E+03	1.548703E-17	2.023589E-18
4.020000E+03	1.558573E-17	2.029185E-18
4.030000E+03	1.568969E-17	2.035380E-18
4.040000E+03	1.579895E-17	2.042174E-18
4.050000E+03	1.591306E-17	2.049501E-18
4.060000E+03	1.603217E-17	2.057376E-18
4.070000E+03	1.615594E-17	2.065750E-18
4.080000E+03	1.628416E-17	2.074590E-18
4.090000E+03	1.641689E-17	2.083899E-18
4.100000E+03	1.655364E-17	2.093611E-18
4.110000E+03	1.669461E-17	2.103748E-18
4.120000E+03	1.683934E-17	2.114245E-18
4.130000E+03	1.698775E-17	2.125091E-18
4.140000E+03	1.713976E-17	2.136272E-18
4.150000E+03	1.729503E-17	2.147744E-18
4.160000E+03	1.745351E-17	2.159496E-18
4.170000E+03	1.761499E-17	2.171501E-18
4.180000E+03	1.777916E-17	2.183719E-18
4.190000E+03	1.794609E-17	2.196156E-18
4.200000E+03	1.811529E-17	2.208753E-18
4.210000E+03	1.828691E-17	2.221525E-18
4.220000E+03	1.846042E-17	2.234409E-18
4.230000E+03	1.863579E-17	2.247399E-18
4.240000E+03	1.881280E-17	2.260472E-18
4.250000E+03	1.899095E-17	2.273566E-18
4.260000E+03	1.917031E-17	2.286691E-18
4.270000E+03	1.935049E-17	2.299802E-18
4.280000E+03	1.953111E-17	2.312856E-18
4.290000E+03	1.971175E-17	2.325807E-18
4.300000E+03	1.989236E-17	2.338651E-18
4.310000E+03	2.007266E-17	2.351358E-18
4.320000E+03	2.025194E-17	2.363849E-18
4.330000E+03	2.043027E-17	2.376137E-18
4.340000E+03	2.060690E-17	2.388140E-18
4.350000E+03	2.078193E-17	2.399874E-18
4.360000E+03	2.095477E-17	2.411278E-18
4.370000E+03	2.112533E-17	2.422348E-18
4.380000E+03	2.129355E-17	2.433081E-18
4.390000E+03	2.145938E-17	2.443480E-18
4.400000E+03	2.162285E-17	2.453554E-18
4.410000E+03	2.178425E-17	2.463343E-18
4.420000E+03	2.194391E-17	2.472890E-18
4.430000E+03	2.210200E-17	2.482219E-18
4.440000E+03	2.225887E-17	2.491376E-18
4.450000E+03	2.241452E-17	2.500368E-18
4.460000E+03	2.256951E-17	2.509259E-18
4.470000E+03	2.272384E-17	2.518056E-18
4.480000E+03	2.287771E-17	2.526784E-18
4.490000E+03	2.303128E-17	2.535467E-18
4.500000E+03	2.318474E-17	2.544124E-18
4.510000E+03	2.333826E-17	2.552778E-18
4.520000E+03	2.349201E-17	2.561446E-18
4.530000E+03	2.364576E-17	2.570106E-18
4.540000E+03	2.380011E-17	2.578820E-18
4.550000E+03	2.395483E-17	2.587565E-18
4.560000E+03	2.411009E-17	2.596360E-18
4.570000E+03	2.426588E-17	2.605204E-18
4.580000E+03	2.442259E-17	2.614138E-18
4.590000E+03	2.458019E-17	2.623159E-18
4.600000E+03	2.473844E-17	2.632241E-18
4.610000E+03	2.489794E-17	2.641448E-18
4.620000E+03	2.505839E-17	2.650747E-18
4.630000E+03	2.521975E-17	2.660134E-18
4.640000E+03	2.538237E-17	2.669645E-18
4.650000E+03	2.554641E-17	2.679297E-18
4.660000E+03	2.571135E-17	2.689034E-18
4.670000E+03	2.587777E-17	2.698916E-18
4.680000E+03	2.604562E-17	2.708938E-18
4.690000E+03	2.621479E-17	2.719087E-18
4.700000E+03	2.638543E-17	2.729378E-18
4.710000E+03	2.655743E-17	2.739800E-18
4.720000E+03	2.673096E-17	2.750368E-18
4.730000E+03	2.690547E-17	2.761027E-18
4.740000E+03	2.708132E-17	2.771812E-18
4.750000E+03	2.725893E-17	2.782766E-18
4.760000E+03	2.743765E-17	2.793822E-18
4.770000E+03	2.761815E-17	2.805046E-18
4.780000E+03	2.780026E-17	2.816424E-18
4.790000E+03	2.798383E-17	2.827937E-18
4.800000E+03	2.816945E-17	2.839645E-18
4.810000E+03	2.835640E-17	2.851475E-18
4.820000E+03	2.854547E-17	2.863505E-18
4.830000E+03	2.873586E-17	2.875655E-18
4.840000E+03	2.892811E-17	2.887978E-18
4.850000E+03	2.912162E-17	2.900415E-18
4.860000E+03	2.931691E-17	2.913015E-18
4.870000E+03	2.951338E-17	2.925720E-18
4.880000E+03	2.971127E-17	2.938553E-18
4.890000E+03	2.991056E-17	2.951512E-18
4.900000E+03	3.011094E-17	2.964565E-18
4.910000E+03	3.031236E-17	2.977710E-18
4.920000E+03	3.051477E-17	2.990939E-18
4.930000E+03	3.071844E-17	3.004281E-18
4.940000E+03	3.092275E-17	3.017675E-18
4.950000E+03	3.112830E-17	3.031180E-18
4.960000E+03	3.133450E-17	3.044740E-18
4.970000E+03	3.154167E-17	3.058385E-18
4.980000E+03	3.174953E-17	3.072089E-18
4.990000E+03	3.195807E-17	3.085854E-18
5.000000E+03	3.216724E-17	3.099673E-18
5.010000E+03	3.237725E-17	3.113569E-18
5.020000E+03	3.258733E-17	3.127468E-18
5.030000E+03	3.279761E-17	3.141386E-18
5.040000E+03	3.300756E-17	3.155272E-18
5.050000E+03	3.321726E-17	3.169135E-18
5.060000E+03	3.342610E-17	3.182921E-18
5.070000E+03	3.363344E-17	3.196569E-18
5.080000E+03	3.383927E-17	3.210083E-18
5.090000E+03	3.404324E-17	3.223430E-18
5.100000E+03	3.424457E-17	3.236542E-18
5.110000E+03	3.444250E-17	3.249348E-18
5.120000E+03	3.463717E-17	3.261868E-18
5.130000E+03	3.482735E-17	3.273988E-18
5.140000E+03	3.501246E-17	3.285657E-18
5.150000E+03	3.519189E-17	3.296826E-18
5.160000E+03	3.536509E-17	3.307446E-18
5.170000E+03	3.553112E-17	3.317435E-18
5.180000E+03	3.568980E-17	3.326782E-18
5.190000E+03	3.583991E-17	3.335379E-18
5.200000E+03	3.598132E-17	3.343221E-18
5.210000E+03	3.611282E-17	3.350202E-18
5.220000E+03	3.623466E-17	3.356349E-18
5.230000E+03	3.634563E-17	3.361560E-18
5.240000E+03	3.644547E-17	3.365817E-18
5.250000E+03	3.653287E-17	3.369006E-18
5.260000E+03	3.660750E-17	3.371104E-18
5.270000E+03	3.666865E-17	3.372051E-18
5.280000E+03	3.671482E-17	3.371719E-18
5.290000E+03	3.674520E-17	3.370041E-18
5.300000E+03	3.675936E-17	3.366985E-18
5.310000E+03	3.675613E-17	3.362451E-18
5.320000E+03	3.673433E-17	3.356340E-18
5.330000E+03	3.669320E-17	3.348591E-18
5.340000E+03	3.663201E-17	3.339144E-18
5.350000E+03	3.655010E-17	3.327947E-18
5.360000E+03	3.644653E-17	3.314921E-18
5.370000E+03	3.632120E-17	3.300066E-18
5.380000E+03	3.617336E-17	3.283321E-18
5.390000E+03	3.600319E-17	3.264707E-18
5.400000E+03	3.581027E-17	3.244193E-18
5.410000E+03	3.559549E-17	3.221865E-18
5.420000E+03	3.535979E-17	3.197814E-18
5.430000E+03	3.510362E-17	3.172084E-18
5.440000E+03	3.482908E-17	3.144867E-18
5.450000E+03	3.453762E-17	3.116299E-18
5.460000E+03	3.422954E-17	3.086407E-18
5.470000E+03	3.390775E-17	3.055455E-18
5.480000E+03	3.357378E-17	3.023582E-18
5.490000E+03	3.322932E-17	2.990937E-18
5.500000E+03	3.287650E-17	2.957714E-18
5.510000E+03	3.251724E-17	2.924082E-18
5.520000E+03	3.215350E-17	2.890210E-18
5.530000E+03	3.178789E-17	2.856324E-18
5.540000E+03	3.142244E-17	2.822599E-18
5.550000E+03	3.106011E-17	2.789291E-18
5.560000E+03	3.070350E-17	2.756626E-18
5.570000E+03	3.035488E-17	2.724800E-18
5.580000E+03	3.001714E-17	2.694063E-18
5.590000E+03	2.969267E-17	2.664622E-18
5.600000E+03	2.938381E-17	2.636680E-18
5.610000E+03	2.909301E-17	2.610448E-18
5.620000E+03	2.882219E-17	2.586095E-18
5.630000E+03	2.857289E-17	2.563749E-18
5.640000E+03	2.834671E-17	2.543550E-18
5.650000E+03	2.814463E-17	2.525582E-18
5.660000E+03	2.796746E-17	2.509910E-18
5.670000E+03	2.781544E-17	2.496552E-18
5.680000E+03	2.768854E-17	2.485504E-18
5.690000E+03	2.758659E-17	2.476746E-18
5.700000E+03	2.750893E-17	2.470215E-18
5.710000E+03	2.745474E-17	2.465835E-18
5.720000E+03	2.742321E-17	2.463531E-18
5.730000E+03	2.741309E-17	2.463190E-18
5.740000E+03	2.742344E-17	2.464723E-18
5.750000E+03	2.745267E-17	2.467986E-18
5.760000E+03	2.750008E-17	2.472915E-18
5.770000E+03	2.756428E-17	2.479383E-18
5.780000E+03	2.764452E-17	2.487321E-18
5.790000E+03	2.774083E-17	2.496730E-18
5.800000E+03	2.785220E-17	2.507517E-18
5.810000E+03	2.797905E-17	2.519719E-18
5.820000E+03	2.812134E-17	2.533330E-18
5.830000E+03	2.827907E-17	2.548349E-18
5.840000E+03	2.845201E-17	2.564755E-18
5.850000E+03	2.864091E-17	2.582613E-18
5.860000E+03	2.884554E-17	2.601901E-18
5.870000E+03	2.906629E-17	2.622653E-18
5.880000E+03	2.930323E-17	2.644874E-18
5.890000E+03	2.955610E-17	2.668539E-18
5.900000E+03	2.982533E-17	2.693685E-18
5.910000E+03	3.011134E-17	2.720348E-18
5.920000E+03	3.041352E-17	2.748473E-18
5.930000E+03	3.073216E-17	2.778084E-18
5.940000E+03	3.106716E-17	2.809169E-18
5.950000E+03	3.141874E-17	2.841747E-18
5.960000E+03	3.178598E-17	2.875732E-18
5.970000E+03	3.216933E-17	2.911164E-18
5.980000E+03	3.256779E-17	2.947949E-18
5.990000E+03	3.298136E-17	2.986085E-18
6.000000E+03	3.340968E-17	3.025537E-18
6.010000E+03	3.385192E-17	3.066226E-18
6.020000E+03	3.430801E-17	3.108144E-18
6.030000E+03	3.477663E-17	3.151168E-18
6.040000E+03	3.525803E-17	3.195316E-18
6.050000E+03	3.575034E-17	3.240417E-18
6.060000E+03	3.625371E-17	3.286479E-18
6.070000E+03	3.676653E-17	3.333356E-18
6.080000E+03	3.728848E-17	3.381010E-18
6.090000E+03	3.781777E-17	3.429278E-18
6.100000E+03	3.835349E-17	3.478073E-18
6.110000E+03	3.889412E-17	3.527252E-18
6.120000E+03	3.943853E-17	3.576708E-18
6.130000E+03	3.998454E-17	3.626240E-18
6.140000E+03	4.053032E-17	3.675676E-18
6.150000E+03	4.107440E-17	3.724879E-18
6.160000E+03	4.161477E-17	3.773664E-18
6.170000E+03	4.214832E-17	3.821742E-18
6.180000E+03	4.267335E-17	3.868955E-18
6.190000E+03	4.318770E-17	3.915105E-18
6.200000E+03	4.369009E-17	3.960070E-18
6.210000E+03	4.418022E-17	4.003821E-18
6.220000E+03	4.465807E-17	4.046351E-18
6.230000E+03	4.512428E-17	4.087717E-18
6.240000E+03	4.558080E-17	4.128091E-18
6.250000E+03	4.602801E-17	4.167503E-18
6.260000E+03	4.646572E-17	4.205937E-18
6.270000E+03	4.689628E-17	4.243599E-18
6.280000E+03	4.732029E-17	4.280544E-18
6.290000E+03	4.773718E-17	4.316715E-18
6.300000E+03	4.814953E-17	4.352343E-18
6.310000E+03	4.855620E-17	4.387318E-18
6.320000E+03	4.895923E-17	4.421824E-18
6.330000E+03	4.935814E-17	4.455810E-18
6.340000E+03	4.975374E-17	4.489344E-18
6.350000E+03	5.014616E-17	4.522436E-18
6.360000E+03	5.053557E-17	4.555094E-18
6.370000E+03	5.092211E-17	4.587328E-18
6.380000E+03	5.130519E-17	4.619080E-18
6.390000E+03	5.168416E-17	4.650287E-18
6.400000E+03	5.205981E-17	4.681016E-18
6.410000E+03	5.243066E-17	4.711131E-18
6.420000E+03	5.279742E-17	4.740691E-18
6.430000E+03	5.315931E-17	4.769623E-18
6.440000E+03	5.351624E-17	4.797915E-18
6.450000E+03	5.386894E-17	4.825632E-18
6.460000E+03	5.421904E-17	4.852913E-18
6.470000E+03	5.456666E-17	4.879767E-18
6.480000E+03	5.491275E-17	4.906277E-18
6.490000E+03	5.525839E-17	4.932534E-18
6.500000E+03	5.560297E-17	4.958481E-18
6.510000E+03	5.594846E-17	4.984291E-18
6.520000E+03	5.629515E-17	5.009985E-18
6.530000E+03	5.664243E-17	5.035507E-18
6.540000E+03	5.699230E-17	5.061030E-18
6.550000E+03	5.734414E-17	5.086495E-18
6.560000E+03	5.769726E-17	5.111838E-18
6.570000E+03	5.805370E-17	5.137237E-18
6.580000E+03	5.841277E-17	5.162626E-18
6.590000E+03	5.877470E-17	5.188024E-18
6.600000E+03	5.914068E-17	5.213531E-18
6.610000E+03	5.950905E-17	5.238998E-18
6.620000E+03	5.987997E-17	5.264435E-18
6.630000E+03	6.025557E-17	5.290028E-18
6.640000E+03	6.063401E-17	5.315612E-18
6.650000E+03	6.101533E-17	5.341186E-18
6.660000E+03	6.140054E-17	5.366839E-18
6.670000E+03	6.178858E-17	5.392473E-18
6.680000E+03	6.217936E-17	5.418080E-18
6.690000E+03	6.257380E-17	5.443738E-18
6.700000E+03	6.296963E-17	5.469247E-18
6.710000E+03	6.336666E-17	5.494590E-18
6.720000E+03	6.376685E-17	5.519937E-18
6.730000E+03	6.416779E-17	5.545077E-18
6.740000E+03	6.456920E-17	5.569988E-18
6.750000E+03	6.497190E-17	5.594741E-18
6.760000E+03	6.537446E-17	5.619212E-18
6.770000E+03	6.577647E-17	5.643369E-18
6.780000E+03	6.617756E-17	5.667181E-18
6.790000E+03	6.657731E-17	5.690615E-18
6.800000E+03	6.697413E-17	5.713540E-18
6.810000E+03	6.736880E-17	5.736026E-18
6.820000E+03	6.776092E-17	5.758042E-18
6.830000E+03	6.814881E-17	5.779452E-18
6.840000E+03	6.853324E-17	5.800327E-18
6.850000E+03	6.891251E-17	5.820529E-18
6.860000E+03	6.928616E-17	5.840028E-18
6.870000E+03	6.965376E-17	5.858795E-18
6.880000E+03	7.001360E-17	5.876695E-18
6.890000E+03	7.036792E-17	5.893927E-18
6.900000E+03	7.071511E-17	5.910366E-18
6.910000E+03	7.105356E-17	5.925888E-18
6.920000E+03	7.138427E-17	5.940589E-18
6.930000E+03	7.170565E-17	5.954349E-18
6.940000E+03	7.201742E-17	5.967158E-18
6.950000E+03	7.232064E-17	5.979120E-18
6.960000E+03	7.261364E-17	5.990108E-18
6.970000E+03	7.289615E-17	6.000117E-18
6.980000E+03	7.316786E-17	6.009139E-18
6.990000E+03	7.342855E-17	6.017171E-18
7.000000E+03	7.367657E-17	6.024097E-18
7.010000E+03	7.391465E-17	6.030157E-18
7.020000E+03	7.413982E-17	6.035128E-18
7.030000E+03	7.435202E-17	6.039025E-18
7.040000E+03	7.455270E-17	6.041984E-18
7.050000E+03	7.474041E-17	6.043911E-18
7.060000E+03	7.491523E-17	6.044831E-18
7.070000E+03	7.507731E-17	6.044777E-18
7.080000E+03	7.522685E-17	6.043789E-18
7.090000E+03	7.536565E-17	6.042031E-18
7.100000E+03	7.549106E-17	6.039314E-18
7.110000E+03	7.560357E-17	6.035698E-18
7.120000E+03	7.570523E-17	6.031371E-18
7.130000E+03	7.579675E-17	6.026411E-18
7.140000E+03	7.587738E-17	6.020779E-18
7.150000E+03	7.594947E-17	6.014687E-18
7.160000E+03	7.601082E-17	6.007980E-18
7.170000E+03	7.606548E-17	6.001001E-18
7.180000E+03	7.611288E-17	5.993726E-18
7.190000E+03	7.615410E-17	5.986262E-18
7.200000E+03	7.618870E-17	5.978595E-18
7.210000E+03	7.622097E-17	5.971084E-18
7.220000E+03	7.624898E-17	5.963597E-18
7.230000E+03	7.627550E-17	5.956373E-18
7.240000E+03	7.630011E-17	5.949397E-18
7.250000E+03	7.632544E-17	5.942895E-18
7.260000E+03	7.635079E-17	5.936834E-18
7.270000E+03	7.637694E-17	5.931292E-18
7.280000E+03	7.640597E-17	5.926453E-18
7.290000E+03	7.643654E-17	5.922233E-18
7.300000E+03	7.647037E-17	5.918784E-18
7.310000E+03	7.650400E-17	5.915860E-18
7.320000E+03	7.653863E-17	5.913574E-18
7.330000E+03	7.657539E-17	5.912036E-18
7.340000E+03	7.661030E-17	5.910958E-18
7.350000E+03	7.664423E-17	5.910430E-18
7.360000E+03	7.667470E-17	5.910282E-18
7.370000E+03	7.670259E-17	5.910603E-18
7.380000E+03	7.672546E-17	5.911227E-18
7.390000E+03	7.674260E-17	5.912120E-18
7.400000E+03	7.675340E-17	5.913257E-18
7.410000E+03	7.675571E-17	5.914491E-18
7.420000E+03	7.674914E-17	5.915812E-18
7.430000E+03	7.673351E-17	5.917226E-18
7.440000E+03	7.670880E-17	5.918747E-18
7.450000E+03	7.667678E-17	5.920531E-18
7.460000E+03	7.663601E-17	5.922481E-18
7.470000E+03	7.659032E-17	5.924910E-18
7.480000E+03	7.654018E-17	5.927869E-18
7.490000E+03	7.648619E-17	5.931420E-18
7.500000E+03	7.642908E-17	5.935631E-18
7.510000E+03	7.636960E-17	5.940576E-18
7.520000E+03	7.631186E-17	5.946578E-18
7.530000E+03	7.625267E-17	5.953375E-18
7.540000E+03	7.619384E-17	5.961094E-18
7.550000E+03	7.613534E-17	5.969717E-18
7.560000E+03	7.607883E-17	5.979358E-18
7.570000E+03	7.602073E-17	5.989720E-18
7.580000E+03	7.596295E-17	6.000938E-18
7.590000E+03	7.590574E-17	6.013012E-18
7.600000E+03	7.585110E-17	6.026086E-18
7.610000E+03	7.579578E-17	6.039885E-18
7.620000E+03	7.574367E-17	6.054702E-18
7.630000E+03	7.569329E-17	6.070404E-18
7.640000E+03	7.564320E-17	6.086856E-18
7.650000E+03	7.559737E-17	6.104363E-18
7.660000E+03	7.555437E-17	6.122796E-18
7.670000E+03	7.551470E-17	6.142178E-18
7.680000E+03	7.547879E-17	6.162531E-18
7.690000E+03	7.544706E-17	6.183874E-18
7.700000E+03	7.541981E-17	6.206220E-18
7.710000E+03	7.539905E-17	6.229720E-18
7.720000E+03	7.538125E-17	6.254071E-18
7.730000E+03	7.537004E-17	6.279563E-18
7.740000E+03	7.536351E-17	6.306025E-18
7.750000E+03	7.536144E-17	6.333428E-18
7.760000E+03	7.536355E-17	6.361735E-18
