#wls	flux	fluxerr
1.600000E+03	1.642130E-16	7.644896E-17
1.640000E+03	1.696386E-16	7.896099E-17
1.680000E+03	1.749598E-16	8.142261E-17
1.720000E+03	1.801563E-16	8.382430E-17
1.760000E+03	1.851513E-16	8.613022E-17
1.800000E+03	1.899126E-16	8.832538E-17
1.840000E+03	1.943689E-16	9.037661E-17
1.880000E+03	1.984771E-16	9.226378E-17
1.920000E+03	2.021725E-16	9.395694E-17
1.960000E+03	2.053871E-16	9.542445E-17
2.000000E+03	2.080206E-16	9.661985E-17
2.040000E+03	2.100050E-16	9.751176E-17
2.080000E+03	2.112606E-16	9.806332E-17
2.120000E+03	2.116739E-16	9.822214E-17
2.160000E+03	2.111475E-16	9.794344E-17
2.200000E+03	2.095678E-16	9.717496E-17
2.240000E+03	2.068408E-16	9.587367E-17
2.280000E+03	2.029528E-16	9.403380E-17
2.320000E+03	1.979378E-16	9.167191E-17
2.360000E+03	1.919465E-16	8.885844E-17
2.400000E+03	1.851137E-16	8.565648E-17
2.440000E+03	1.775618E-16	8.212331E-17
2.480000E+03	1.694247E-16	7.832146E-17
2.520000E+03	1.608083E-16	7.430048E-17
2.560000E+03	1.518061E-16	7.010401E-17
2.600000E+03	1.425317E-16	6.578504E-17
2.640000E+03	1.330708E-16	6.138355E-17
2.680000E+03	1.235243E-16	5.694641E-17
2.720000E+03	1.139781E-16	5.251346E-17
2.760000E+03	1.045329E-16	4.813145E-17
2.800000E+03	9.527528E-17	4.384029E-17
2.840000E+03	8.629639E-17	3.968201E-17
2.880000E+03	7.768278E-17	3.569638E-17
2.920000E+03	6.951370E-17	3.191968E-17
2.960000E+03	6.185808E-17	2.838335E-17
3.000000E+03	5.476999E-17	2.511186E-17
3.010000E+03	5.309084E-17	2.433726E-17
3.020000E+03	5.145042E-17	2.358067E-17
3.030000E+03	4.984766E-17	2.284159E-17
3.040000E+03	4.828477E-17	2.212104E-17
3.050000E+03	4.676057E-17	2.141847E-17
3.060000E+03	4.527498E-17	2.073383E-17
3.070000E+03	4.382791E-17	2.006707E-17
3.080000E+03	4.242098E-17	1.941892E-17
3.090000E+03	4.105211E-17	1.878844E-17
3.100000E+03	3.972273E-17	1.817625E-17
3.110000E+03	3.843164E-17	1.758181E-17
3.120000E+03	3.717922E-17	1.700527E-17
3.130000E+03	3.596501E-17	1.644643E-17
3.140000E+03	3.478852E-17	1.590505E-17
3.150000E+03	3.364925E-17	1.538088E-17
3.160000E+03	3.254728E-17	1.487396E-17
3.170000E+03	3.148142E-17	1.438374E-17
3.180000E+03	3.045165E-17	1.391019E-17
3.190000E+03	2.945730E-17	1.345302E-17
3.200000E+03	2.849773E-17	1.301190E-17
3.210000E+03	2.757273E-17	1.258673E-17
3.220000E+03	2.668060E-17	1.217674E-17
3.230000E+03	2.582204E-17	1.178223E-17
3.240000E+03	2.499494E-17	1.140224E-17
3.250000E+03	2.419982E-17	1.103699E-17
3.260000E+03	2.343510E-17	1.068575E-17
3.270000E+03	2.270037E-17	1.034833E-17
3.280000E+03	2.199484E-17	1.002436E-17
3.290000E+03	2.131741E-17	9.713318E-18
3.300000E+03	2.066792E-17	9.415145E-18
3.310000E+03	2.004495E-17	9.129178E-18
3.320000E+03	1.944775E-17	8.855064E-18
3.330000E+03	1.887611E-17	8.592709E-18
3.340000E+03	1.832871E-17	8.341495E-18
3.350000E+03	1.780479E-17	8.101074E-18
3.360000E+03	1.730364E-17	7.871113E-18
3.370000E+03	1.682475E-17	7.651381E-18
3.380000E+03	1.636694E-17	7.441330E-18
3.390000E+03	1.592955E-17	7.240652E-18
3.400000E+03	1.551212E-17	7.049133E-18
3.410000E+03	1.511377E-17	6.866369E-18
3.420000E+03	1.473386E-17	6.692063E-18
3.430000E+03	1.437142E-17	6.525765E-18
3.440000E+03	1.402603E-17	6.367287E-18
3.450000E+03	1.369714E-17	6.216369E-18
3.460000E+03	1.338385E-17	6.072596E-18
3.470000E+03	1.308566E-17	5.935736E-18
3.480000E+03	1.280190E-17	5.805488E-18
3.490000E+03	1.253228E-17	5.681704E-18
3.500000E+03	1.227587E-17	5.563972E-18
3.510000E+03	1.203242E-17	5.452163E-18
3.520000E+03	1.180124E-17	5.345961E-18
3.530000E+03	1.158182E-17	5.245138E-18
3.540000E+03	1.137369E-17	5.149469E-18
3.550000E+03	1.117626E-17	5.058691E-18
3.560000E+03	1.098924E-17	4.972665E-18
3.570000E+03	1.081199E-17	4.891096E-18
3.580000E+03	1.064413E-17	4.813814E-18
3.590000E+03	1.048542E-17	4.740705E-18
3.600000E+03	1.033543E-17	4.671570E-18
3.610000E+03	1.019382E-17	4.606254E-18
3.620000E+03	1.006020E-17	4.544577E-18
3.630000E+03	9.934187E-18	4.486363E-18
3.640000E+03	9.815521E-18	4.431492E-18
3.650000E+03	9.703758E-18	4.379762E-18
3.660000E+03	9.598770E-18	4.331113E-18
3.670000E+03	9.500140E-18	4.285353E-18
3.680000E+03	9.407672E-18	4.242391E-18
3.690000E+03	9.321257E-18	4.202177E-18
3.700000E+03	9.240525E-18	4.164542E-18
3.710000E+03	9.165295E-18	4.129402E-18
3.720000E+03	9.095563E-18	4.096752E-18
3.730000E+03	9.031062E-18	4.066472E-18
3.740000E+03	8.971625E-18	4.038482E-18
3.750000E+03	8.917256E-18	4.012784E-18
3.760000E+03	8.867696E-18	3.989259E-18
3.770000E+03	8.822875E-18	3.967874E-18
3.780000E+03	8.782778E-18	3.948619E-18
3.790000E+03	8.747251E-18	3.931424E-18
3.800000E+03	8.716209E-18	3.916249E-18
3.810000E+03	8.689576E-18	3.903058E-18
3.820000E+03	8.667263E-18	3.891809E-18
3.830000E+03	8.649268E-18	3.882499E-18
3.840000E+03	8.635440E-18	3.875059E-18
3.850000E+03	8.625758E-18	3.869479E-18
3.860000E+03	8.620231E-18	3.865758E-18
3.870000E+03	8.618700E-18	3.863826E-18
3.880000E+03	8.621089E-18	3.863646E-18
3.890000E+03	8.627449E-18	3.865240E-18
3.900000E+03	8.637713E-18	3.868576E-18
3.910000E+03	8.651723E-18	3.873580E-18
3.920000E+03	8.669545E-18	3.880282E-18
3.930000E+03	8.691159E-18	3.888670E-18
3.940000E+03	8.716348E-18	3.898646E-18
3.950000E+03	8.745175E-18	3.910237E-18
3.960000E+03	8.777613E-18	3.923427E-18
3.970000E+03	8.813592E-18	3.938186E-18
3.980000E+03	8.852947E-18	3.954437E-18
3.990000E+03	8.895798E-18	3.972233E-18
4.000000E+03	8.942005E-18	3.991508E-18
4.010000E+03	8.991463E-18	4.012216E-18
4.020000E+03	9.044232E-18	4.034381E-18
4.030000E+03	9.100145E-18	4.057927E-18
4.040000E+03	9.159269E-18	4.082882E-18
4.050000E+03	9.221357E-18	4.109135E-18
4.060000E+03	9.286538E-18	4.136742E-18
4.070000E+03	9.354652E-18	4.165630E-18
4.080000E+03	9.425611E-18	4.195759E-18
4.090000E+03	9.499462E-18	4.227148E-18
4.100000E+03	9.575979E-18	4.259695E-18
4.110000E+03	9.655285E-18	4.293454E-18
4.120000E+03	9.737154E-18	4.328322E-18
4.130000E+03	9.821573E-18	4.364293E-18
4.140000E+03	9.908521E-18	4.401356E-18
4.150000E+03	9.997843E-18	4.439440E-18
4.160000E+03	1.008954E-17	4.478545E-18
4.170000E+03	1.018351E-17	4.518627E-18
4.180000E+03	1.027961E-17	4.559618E-18
4.190000E+03	1.037790E-17	4.601546E-18
4.200000E+03	1.047816E-17	4.644307E-18
4.210000E+03	1.058046E-17	4.687936E-18
4.220000E+03	1.068455E-17	4.732321E-18
4.230000E+03	1.079043E-17	4.777464E-18
4.240000E+03	1.089805E-17	4.823331E-18
4.250000E+03	1.100713E-17	4.869809E-18
4.260000E+03	1.111777E-17	4.916937E-18
4.270000E+03	1.122981E-17	4.964642E-18
4.280000E+03	1.134308E-17	5.012849E-18
4.290000E+03	1.145742E-17	5.061484E-18
4.300000E+03	1.157281E-17	5.110548E-18
4.310000E+03	1.168920E-17	5.160005E-18
4.320000E+03	1.180621E-17	5.209694E-18
4.330000E+03	1.192396E-17	5.259666E-18
4.340000E+03	1.204207E-17	5.309751E-18
4.350000E+03	1.216064E-17	5.359998E-18
4.360000E+03	1.227939E-17	5.410281E-18
4.370000E+03	1.239833E-17	5.460601E-18
4.380000E+03	1.251748E-17	5.510970E-18
4.390000E+03	1.263683E-17	5.561385E-18
4.400000E+03	1.275641E-17	5.611853E-18
4.410000E+03	1.287633E-17	5.662430E-18
4.420000E+03	1.299670E-17	5.713159E-18
4.430000E+03	1.311755E-17	5.764054E-18
4.440000E+03	1.323901E-17	5.815170E-18
4.450000E+03	1.336099E-17	5.866472E-18
4.460000E+03	1.348374E-17	5.918066E-18
4.470000E+03	1.360720E-17	5.969925E-18
4.480000E+03	1.373140E-17	6.022062E-18
4.490000E+03	1.385638E-17	6.074493E-18
4.500000E+03	1.398219E-17	6.127243E-18
4.510000E+03	1.410887E-17	6.180330E-18
4.520000E+03	1.423649E-17	6.233777E-18
4.530000E+03	1.436485E-17	6.287501E-18
4.540000E+03	1.449425E-17	6.341633E-18
4.550000E+03	1.462450E-17	6.396091E-18
4.560000E+03	1.475567E-17	6.450897E-18
4.570000E+03	1.488769E-17	6.506024E-18
4.580000E+03	1.502076E-17	6.561558E-18
4.590000E+03	1.515481E-17	6.617471E-18
4.600000E+03	1.528965E-17	6.673679E-18
4.610000E+03	1.542564E-17	6.730332E-18
4.620000E+03	1.556257E-17	6.787344E-18
4.630000E+03	1.570039E-17	6.844689E-18
4.640000E+03	1.583933E-17	6.902470E-18
4.650000E+03	1.597949E-17	6.960726E-18
4.660000E+03	1.612053E-17	7.019312E-18
4.670000E+03	1.626286E-17	7.078398E-18
4.680000E+03	1.640644E-17	7.137974E-18
4.690000E+03	1.655125E-17	7.198025E-18
4.700000E+03	1.669741E-17	7.258604E-18
4.710000E+03	1.684490E-17	7.319706E-18
4.720000E+03	1.699389E-17	7.381395E-18
4.730000E+03	1.714405E-17	7.443532E-18
4.740000E+03	1.729553E-17	7.506178E-18
4.750000E+03	1.744850E-17	7.569411E-18
4.760000E+03	1.760248E-17	7.633016E-18
4.770000E+03	1.775781E-17	7.697141E-18
4.780000E+03	1.791432E-17	7.761714E-18
4.790000E+03	1.807187E-17	7.826667E-18
4.800000E+03	1.823079E-17	7.892150E-18
4.810000E+03	1.839059E-17	7.957944E-18
4.820000E+03	1.855178E-17	8.024274E-18
4.830000E+03	1.871386E-17	8.090915E-18
4.840000E+03	1.887718E-17	8.158023E-18
4.850000E+03	1.904138E-17	8.225440E-18
4.860000E+03	1.920682E-17	8.293322E-18
4.870000E+03	1.937313E-17	8.361509E-18
4.880000E+03	1.954049E-17	8.430071E-18
4.890000E+03	1.970889E-17	8.499008E-18
4.900000E+03	1.987812E-17	8.568227E-18
4.910000E+03	2.004814E-17	8.637711E-18
4.920000E+03	2.021894E-17	8.707454E-18
4.930000E+03	2.039067E-17	8.777519E-18
4.940000E+03	2.056288E-17	8.847715E-18
4.950000E+03	2.073594E-17	8.918193E-18
4.960000E+03	2.090937E-17	8.988752E-18
4.970000E+03	2.108330E-17	9.059444E-18
4.980000E+03	2.125744E-17	9.130147E-18
4.990000E+03	2.143169E-17	9.200813E-18
5.000000E+03	2.160593E-17	9.271392E-18
5.010000E+03	2.178024E-17	9.341922E-18
5.020000E+03	2.195407E-17	9.412158E-18
5.030000E+03	2.212744E-17	9.482117E-18
5.040000E+03	2.229998E-17	9.551633E-18
5.050000E+03	2.247169E-17	9.620710E-18
5.060000E+03	2.264214E-17	9.689162E-18
5.070000E+03	2.281086E-17	9.756789E-18
5.080000E+03	2.297781E-17	9.823577E-18
5.090000E+03	2.314271E-17	9.889403E-18
5.100000E+03	2.330504E-17	9.954046E-18
5.110000E+03	2.346425E-17	1.001728E-17
5.120000E+03	2.362046E-17	1.007914E-17
5.130000E+03	2.377284E-17	1.013929E-17
5.140000E+03	2.392105E-17	1.019758E-17
5.150000E+03	2.406467E-17	1.025384E-17
5.160000E+03	2.420332E-17	1.030790E-17
5.170000E+03	2.433635E-17	1.035949E-17
5.180000E+03	2.446357E-17	1.040854E-17
5.190000E+03	2.458408E-17	1.045465E-17
5.200000E+03	2.469768E-17	1.049776E-17
5.210000E+03	2.480343E-17	1.053747E-17
5.220000E+03	2.490139E-17	1.057381E-17
5.230000E+03	2.499062E-17	1.060637E-17
5.240000E+03	2.507094E-17	1.063510E-17
5.250000E+03	2.514140E-17	1.065959E-17
5.260000E+03	2.520185E-17	1.067979E-17
5.270000E+03	2.525188E-17	1.069553E-17
5.280000E+03	2.529062E-17	1.070644E-17
5.290000E+03	2.531770E-17	1.071239E-17
5.300000E+03	2.533306E-17	1.071334E-17
5.310000E+03	2.533617E-17	1.070909E-17
5.320000E+03	2.532656E-17	1.069944E-17
5.330000E+03	2.530405E-17	1.068433E-17
5.340000E+03	2.526854E-17	1.066372E-17
5.350000E+03	2.521999E-17	1.063760E-17
5.360000E+03	2.515819E-17	1.060590E-17
5.370000E+03	2.508352E-17	1.056877E-17
5.380000E+03	2.499595E-17	1.052623E-17
5.390000E+03	2.489604E-17	1.047851E-17
5.400000E+03	2.478396E-17	1.042570E-17
5.410000E+03	2.466070E-17	1.036822E-17
5.420000E+03	2.452712E-17	1.030643E-17
5.430000E+03	2.438367E-17	1.024054E-17
5.440000E+03	2.423188E-17	1.017119E-17
5.450000E+03	2.407261E-17	1.009875E-17
5.460000E+03	2.390585E-17	1.002323E-17
5.470000E+03	2.373337E-17	9.945357E-18
5.480000E+03	2.355576E-17	9.865403E-18
5.490000E+03	2.337372E-17	9.783657E-18
5.500000E+03	2.318821E-17	9.700525E-18
5.510000E+03	2.300001E-17	9.616331E-18
5.520000E+03	2.280989E-17	9.531411E-18
5.530000E+03	2.261915E-17	9.446296E-18
5.540000E+03	2.242858E-17	9.361328E-18
5.550000E+03	2.223967E-17	9.277119E-18
5.560000E+03	2.205361E-17	9.194173E-18
5.570000E+03	2.187137E-17	9.112889E-18
5.580000E+03	2.169429E-17	9.033820E-18
5.590000E+03	2.152342E-17	8.957403E-18
5.600000E+03	2.135974E-17	8.884042E-18
5.610000E+03	2.120438E-17	8.814200E-18
5.620000E+03	2.105815E-17	8.748211E-18
5.630000E+03	2.092181E-17	8.686376E-18
5.640000E+03	2.079619E-17	8.629040E-18
5.650000E+03	2.068185E-17	8.576427E-18
5.660000E+03	2.057948E-17	8.528813E-18
5.670000E+03	2.048945E-17	8.486343E-18
5.680000E+03	2.041207E-17	8.449131E-18
5.690000E+03	2.034776E-17	8.417351E-18
5.700000E+03	2.029668E-17	8.391055E-18
5.710000E+03	2.025893E-17	8.370271E-18
5.720000E+03	2.023476E-17	8.355098E-18
5.730000E+03	2.022416E-17	8.345518E-18
5.740000E+03	2.022732E-17	8.341598E-18
5.750000E+03	2.024394E-17	8.343207E-18
5.760000E+03	2.027438E-17	8.350479E-18
5.770000E+03	2.031832E-17	8.363276E-18
5.780000E+03	2.037567E-17	8.381546E-18
5.790000E+03	2.044675E-17	8.405410E-18
5.800000E+03	2.053103E-17	8.434646E-18
5.810000E+03	2.062886E-17	8.469379E-18
5.820000E+03	2.074017E-17	8.509572E-18
5.830000E+03	2.086487E-17	8.555180E-18
5.840000E+03	2.100268E-17	8.606075E-18
5.850000E+03	2.115401E-17	8.662412E-18
5.860000E+03	2.131857E-17	8.724065E-18
5.870000E+03	2.149656E-17	8.791099E-18
5.880000E+03	2.168792E-17	8.863487E-18
5.890000E+03	2.189239E-17	8.941107E-18
5.900000E+03	2.211015E-17	9.024016E-18
5.910000E+03	2.234138E-17	9.112287E-18
5.920000E+03	2.258553E-17	9.205674E-18
5.930000E+03	2.284275E-17	9.304234E-18
5.940000E+03	2.311293E-17	9.407910E-18
5.950000E+03	2.339622E-17	9.516747E-18
5.960000E+03	2.369193E-17	9.630455E-18
5.970000E+03	2.400040E-17	9.749167E-18
5.980000E+03	2.432089E-17	9.872566E-18
5.990000E+03	2.465343E-17	1.000065E-17
6.000000E+03	2.499772E-17	1.013330E-17
6.010000E+03	2.535317E-17	1.027025E-17
6.020000E+03	2.571969E-17	1.041146E-17
6.030000E+03	2.609630E-17	1.055653E-17
6.040000E+03	2.648315E-17	1.070550E-17
6.050000E+03	2.687883E-17	1.085780E-17
6.060000E+03	2.728341E-17	1.101345E-17
6.070000E+03	2.769569E-17	1.117195E-17
6.080000E+03	2.811536E-17	1.133318E-17
6.090000E+03	2.854109E-17	1.149658E-17
6.100000E+03	2.897218E-17	1.166188E-17
6.110000E+03	2.940751E-17	1.182861E-17
6.120000E+03	2.984629E-17	1.199646E-17
6.130000E+03	3.028699E-17	1.216481E-17
6.140000E+03	3.072837E-17	1.233315E-17
6.150000E+03	3.116955E-17	1.250114E-17
6.160000E+03	3.160925E-17	1.266825E-17
6.170000E+03	3.204537E-17	1.283365E-17
6.180000E+03	3.247698E-17	1.299697E-17
6.190000E+03	3.290271E-17	1.315768E-17
6.200000E+03	3.332166E-17	1.331539E-17
6.210000E+03	3.373332E-17	1.346994E-17
6.220000E+03	3.413728E-17	1.362114E-17
6.230000E+03	3.453363E-17	1.376906E-17
6.240000E+03	3.492346E-17	1.391413E-17
6.250000E+03	3.530668E-17	1.405631E-17
6.260000E+03	3.568280E-17	1.419542E-17
6.270000E+03	3.605327E-17	1.433204E-17
6.280000E+03	3.641827E-17	1.446626E-17
6.290000E+03	3.677708E-17	1.459778E-17
6.300000E+03	3.713148E-17	1.472733E-17
6.310000E+03	3.748038E-17	1.485446E-17
6.320000E+03	3.782523E-17	1.497976E-17
6.330000E+03	3.816552E-17	1.510303E-17
6.340000E+03	3.850181E-17	1.522451E-17
6.350000E+03	3.883416E-17	1.534420E-17
6.360000E+03	3.916268E-17	1.546216E-17
6.370000E+03	3.948748E-17	1.557845E-17
6.380000E+03	3.980814E-17	1.569288E-17
6.390000E+03	4.012421E-17	1.580529E-17
6.400000E+03	4.043638E-17	1.591597E-17
6.410000E+03	4.074365E-17	1.602451E-17
6.420000E+03	4.104672E-17	1.613119E-17
6.430000E+03	4.134513E-17	1.623584E-17
6.440000E+03	4.163901E-17	1.633851E-17
6.450000E+03	4.192910E-17	1.643950E-17
6.460000E+03	4.221683E-17	1.653937E-17
6.470000E+03	4.250241E-17	1.663820E-17
6.480000E+03	4.278669E-17	1.673634E-17
6.490000E+03	4.307056E-17	1.683413E-17
6.500000E+03	4.335366E-17	1.693141E-17
6.510000E+03	4.363753E-17	1.702882E-17
6.520000E+03	4.392248E-17	1.712645E-17
6.530000E+03	4.420811E-17	1.722415E-17
6.540000E+03	4.449606E-17	1.732257E-17
6.550000E+03	4.478593E-17	1.742154E-17
6.560000E+03	4.507728E-17	1.752088E-17
6.570000E+03	4.537176E-17	1.762125E-17
6.580000E+03	4.566893E-17	1.772247E-17
6.590000E+03	4.596902E-17	1.782462E-17
6.600000E+03	4.627300E-17	1.792807E-17
6.610000E+03	4.657958E-17	1.803233E-17
6.620000E+03	4.688892E-17	1.813746E-17
6.630000E+03	4.720274E-17	1.824411E-17
6.640000E+03	4.751962E-17	1.835173E-17
6.650000E+03	4.783968E-17	1.846037E-17
6.660000E+03	4.816382E-17	1.857038E-17
6.670000E+03	4.849133E-17	1.868146E-17
6.680000E+03	4.882224E-17	1.879365E-17
6.690000E+03	4.915742E-17	1.890726E-17
6.700000E+03	4.949522E-17	1.902166E-17
6.710000E+03	4.983561E-17	1.913683E-17
6.720000E+03	5.018024E-17	1.925340E-17
6.730000E+03	5.052735E-17	1.937071E-17
6.740000E+03	5.087686E-17	1.948871E-17
6.750000E+03	5.122952E-17	1.960770E-17
6.760000E+03	5.158435E-17	1.972729E-17
6.770000E+03	5.194119E-17	1.984742E-17
6.780000E+03	5.229987E-17	1.996803E-17
6.790000E+03	5.266023E-17	2.008905E-17
6.800000E+03	5.302113E-17	2.021006E-17
6.810000E+03	5.338330E-17	2.033132E-17
6.820000E+03	5.374653E-17	2.045276E-17
6.830000E+03	5.410963E-17	2.057392E-17
6.840000E+03	5.447334E-17	2.069510E-17
6.850000E+03	5.483644E-17	2.081582E-17
6.860000E+03	5.519866E-17	2.093598E-17
6.870000E+03	5.555975E-17	2.105550E-17
6.880000E+03	5.591839E-17	2.117388E-17
6.890000E+03	5.627643E-17	2.129181E-17
6.900000E+03	5.663255E-17	2.140880E-17
6.910000E+03	5.698544E-17	2.152437E-17
6.920000E+03	5.733591E-17	2.163882E-17
6.930000E+03	5.768263E-17	2.175166E-17
6.940000E+03	5.802534E-17	2.186279E-17
6.950000E+03	5.836491E-17	2.197254E-17
6.960000E+03	5.870002E-17	2.208042E-17
6.970000E+03	5.903044E-17	2.218636E-17
6.980000E+03	5.935596E-17	2.229028E-17
6.990000E+03	5.967641E-17	2.239213E-17
7.000000E+03	5.999046E-17	2.249140E-17
7.010000E+03	6.030029E-17	2.258894E-17
7.020000E+03	6.060345E-17	2.268382E-17
7.030000E+03	6.089980E-17	2.277600E-17
7.040000E+03	6.119049E-17	2.286592E-17
7.050000E+03	6.147425E-17	2.295312E-17
7.060000E+03	6.175107E-17	2.303760E-17
7.070000E+03	6.202095E-17	2.311937E-17
7.080000E+03	6.228395E-17	2.319846E-17
7.090000E+03	6.254139E-17	2.327536E-17
7.100000E+03	6.279088E-17	2.334921E-17
7.110000E+03	6.303256E-17	2.342006E-17
7.120000E+03	6.326785E-17	2.348845E-17
7.130000E+03	6.349697E-17	2.355447E-17
7.140000E+03	6.371887E-17	2.361774E-17
7.150000E+03	6.393510E-17	2.367884E-17
7.160000E+03	6.414332E-17	2.373691E-17
7.170000E+03	6.434644E-17	2.379305E-17
7.180000E+03	6.454345E-17	2.384688E-17
7.190000E+03	6.473467E-17	2.389853E-17
7.200000E+03	6.491906E-17	2.394763E-17
7.210000E+03	6.509961E-17	2.399528E-17
7.220000E+03	6.527393E-17	2.404063E-17
7.230000E+03	6.544365E-17	2.408426E-17
7.240000E+03	6.560766E-17	2.412579E-17
7.250000E+03	6.576758E-17	2.416581E-17
7.260000E+03	6.592221E-17	2.420390E-17
7.270000E+03	6.607172E-17	2.424012E-17
7.280000E+03	6.621766E-17	2.427505E-17
7.290000E+03	6.635871E-17	2.430821E-17
7.300000E+03	6.649636E-17	2.434016E-17
7.310000E+03	6.662783E-17	2.436988E-17
7.320000E+03	6.675453E-17	2.439790E-17
7.330000E+03	6.687788E-17	2.442474E-17
7.340000E+03	6.699501E-17	2.444938E-17
7.350000E+03	6.710730E-17	2.447230E-17
7.360000E+03	6.721329E-17	2.449301E-17
7.370000E+03	6.731440E-17	2.451200E-17
7.380000E+03	6.740917E-17	2.452878E-17
7.390000E+03	6.749763E-17	2.454334E-17
7.400000E+03	6.757979E-17	2.455572E-17
7.410000E+03	6.765428E-17	2.456541E-17
7.420000E+03	6.772119E-17	2.457247E-17
7.430000E+03	6.778068E-17	2.457695E-17
7.440000E+03	6.783295E-17	2.457894E-17
7.450000E+03	6.787976E-17	2.457909E-17
7.460000E+03	6.791987E-17	2.457696E-17
7.470000E+03	6.795664E-17	2.457376E-17
7.480000E+03	6.799042E-17	2.456964E-17
7.490000E+03	6.802158E-17	2.456473E-17
7.500000E+03	6.805046E-17	2.455916E-17
7.510000E+03	6.807736E-17	2.455304E-17
7.520000E+03	6.810559E-17	2.454758E-17
7.530000E+03	6.813203E-17	2.454164E-17
7.540000E+03	6.815818E-17	2.453578E-17
7.550000E+03	6.818399E-17	2.452996E-17
7.560000E+03	6.821092E-17	2.452472E-17
7.570000E+03	6.823571E-17	2.451889E-17
7.580000E+03	6.825983E-17	2.451298E-17
7.590000E+03	6.828319E-17	2.450697E-17
7.600000E+03	6.830728E-17	2.450138E-17
7.610000E+03	6.832882E-17	2.449506E-17
7.620000E+03	6.835098E-17	2.448911E-17
7.630000E+03	6.837206E-17	2.448295E-17
7.640000E+03	6.839042E-17	2.447598E-17
7.650000E+03	6.840926E-17	2.446934E-17
7.660000E+03	6.842695E-17	2.446246E-17
7.670000E+03	6.844345E-17	2.445531E-17
7.680000E+03	6.845875E-17	2.444789E-17
7.690000E+03	6.847282E-17	2.444020E-17
7.700000E+03	6.848564E-17	2.443222E-17
7.710000E+03	6.849883E-17	2.442453E-17
7.720000E+03	6.850901E-17	2.441593E-17
7.730000E+03	6.851944E-17	2.440757E-17
7.740000E+03	6.852838E-17	2.439884E-17
7.750000E+03	6.853570E-17	2.438969E-17
7.760000E+03	6.854128E-17	2.438008E-17
