#wls	flux	fluxerr
1.600000E+03	3.239701E-16	1.035178E-16
1.640000E+03	3.343633E-16	1.068372E-16
1.680000E+03	3.442697E-16	1.100009E-16
1.720000E+03	3.535919E-16	1.129778E-16
1.760000E+03	3.621866E-16	1.157221E-16
1.800000E+03	3.699378E-16	1.181968E-16
1.840000E+03	3.766875E-16	1.203514E-16
1.880000E+03	3.823408E-16	1.221555E-16
1.920000E+03	3.867653E-16	1.235670E-16
1.960000E+03	3.897970E-16	1.245334E-16
2.000000E+03	3.913413E-16	1.250245E-16
2.040000E+03	3.912496E-16	1.249928E-16
2.080000E+03	3.893923E-16	1.243971E-16
2.120000E+03	3.857178E-16	1.232208E-16
2.160000E+03	3.800691E-16	1.214139E-16
2.200000E+03	3.723432E-16	1.189433E-16
2.240000E+03	3.624326E-16	1.157750E-16
2.280000E+03	3.501715E-16	1.118559E-16
2.320000E+03	3.359534E-16	1.073118E-16
2.360000E+03	3.201837E-16	1.022723E-16
2.400000E+03	3.031848E-16	9.684028E-17
2.440000E+03	2.852318E-16	9.110372E-17
2.480000E+03	2.665906E-16	8.514759E-17
2.520000E+03	2.475066E-16	7.905028E-17
2.560000E+03	2.282007E-16	7.288236E-17
2.600000E+03	2.089040E-16	6.671766E-17
2.640000E+03	1.898329E-16	6.062529E-17
2.680000E+03	1.711907E-16	5.467019E-17
2.720000E+03	1.531660E-16	4.891257E-17
2.760000E+03	1.359397E-16	4.341018E-17
2.800000E+03	1.196517E-16	3.820775E-17
2.840000E+03	1.044277E-16	3.334532E-17
2.880000E+03	9.037756E-17	2.885800E-17
2.920000E+03	7.758279E-17	2.477177E-17
2.960000E+03	6.609739E-17	2.110385E-17
3.000000E+03	5.593348E-17	1.785808E-17
3.010000E+03	5.359577E-17	1.711156E-17
3.020000E+03	5.133787E-17	1.639054E-17
3.030000E+03	4.915959E-17	1.569495E-17
3.040000E+03	4.705939E-17	1.502430E-17
3.050000E+03	4.503570E-17	1.437808E-17
3.060000E+03	4.308789E-17	1.375611E-17
3.070000E+03	4.121330E-17	1.315751E-17
3.080000E+03	3.941202E-17	1.258233E-17
3.090000E+03	3.768127E-17	1.202968E-17
3.100000E+03	3.602007E-17	1.149924E-17
3.110000E+03	3.442650E-17	1.099040E-17
3.120000E+03	3.289932E-17	1.050277E-17
3.130000E+03	3.143651E-17	1.003569E-17
3.140000E+03	3.003613E-17	9.588547E-18
3.150000E+03	2.869673E-17	9.160880E-18
3.160000E+03	2.741581E-17	8.751890E-18
3.170000E+03	2.619240E-17	8.361263E-18
3.180000E+03	2.502403E-17	7.988214E-18
3.190000E+03	2.390915E-17	7.632251E-18
3.200000E+03	2.284583E-17	7.292748E-18
3.210000E+03	2.183211E-17	6.969084E-18
3.220000E+03	2.086647E-17	6.660776E-18
3.230000E+03	1.994701E-17	6.367213E-18
3.240000E+03	1.907151E-17	6.087690E-18
3.250000E+03	1.823914E-17	5.821935E-18
3.260000E+03	1.744716E-17	5.569080E-18
3.270000E+03	1.669470E-17	5.328843E-18
3.280000E+03	1.597949E-17	5.100504E-18
3.290000E+03	1.530016E-17	4.883618E-18
3.300000E+03	1.465531E-17	4.677743E-18
3.310000E+03	1.404294E-17	4.482236E-18
3.320000E+03	1.346196E-17	4.296756E-18
3.330000E+03	1.291090E-17	4.120827E-18
3.340000E+03	1.238815E-17	3.953938E-18
3.350000E+03	1.189238E-17	3.795662E-18
3.360000E+03	1.142229E-17	3.645585E-18
3.370000E+03	1.097679E-17	3.503361E-18
3.380000E+03	1.055439E-17	3.368512E-18
3.390000E+03	1.015424E-17	3.240767E-18
3.400000E+03	9.774984E-18	3.119691E-18
3.410000E+03	9.415589E-18	3.004958E-18
3.420000E+03	9.075196E-18	2.896290E-18
3.430000E+03	8.752532E-18	2.793283E-18
3.440000E+03	8.446939E-18	2.695727E-18
3.450000E+03	8.157471E-18	2.603318E-18
3.460000E+03	7.883053E-18	2.515714E-18
3.470000E+03	7.623141E-18	2.432741E-18
3.480000E+03	7.376767E-18	2.354090E-18
3.490000E+03	7.143287E-18	2.279556E-18
3.500000E+03	6.922011E-18	2.208917E-18
3.510000E+03	6.712064E-18	2.141895E-18
3.520000E+03	6.512934E-18	2.078326E-18
3.530000E+03	6.323929E-18	2.017990E-18
3.540000E+03	6.144409E-18	1.960681E-18
3.550000E+03	5.973844E-18	1.906231E-18
3.560000E+03	5.811626E-18	1.854446E-18
3.570000E+03	5.657247E-18	1.805163E-18
3.580000E+03	5.510186E-18	1.758217E-18
3.590000E+03	5.370064E-18	1.713485E-18
3.600000E+03	5.236476E-18	1.670840E-18
3.610000E+03	5.108993E-18	1.630143E-18
3.620000E+03	4.987312E-18	1.591298E-18
3.630000E+03	4.871146E-18	1.554214E-18
3.640000E+03	4.760131E-18	1.518774E-18
3.650000E+03	4.654143E-18	1.484939E-18
3.660000E+03	4.552848E-18	1.452601E-18
3.670000E+03	4.456087E-18	1.421711E-18
3.680000E+03	4.363672E-18	1.392209E-18
3.690000E+03	4.275412E-18	1.364032E-18
3.700000E+03	4.191166E-18	1.337137E-18
3.710000E+03	4.110824E-18	1.311488E-18
3.720000E+03	4.034139E-18	1.287006E-18
3.730000E+03	3.961080E-18	1.263682E-18
3.740000E+03	3.891444E-18	1.241450E-18
3.750000E+03	3.825132E-18	1.220279E-18
3.760000E+03	3.762047E-18	1.200137E-18
3.770000E+03	3.701999E-18	1.180966E-18
3.780000E+03	3.644961E-18	1.162754E-18
3.790000E+03	3.590777E-18	1.145454E-18
3.800000E+03	3.539364E-18	1.129038E-18
3.810000E+03	3.490607E-18	1.113469E-18
3.820000E+03	3.444425E-18	1.098723E-18
3.830000E+03	3.400712E-18	1.084763E-18
3.840000E+03	3.359388E-18	1.071567E-18
3.850000E+03	3.320357E-18	1.059102E-18
3.860000E+03	3.283574E-18	1.047354E-18
3.870000E+03	3.248944E-18	1.036294E-18
3.880000E+03	3.216377E-18	1.025892E-18
3.890000E+03	3.185811E-18	1.016127E-18
3.900000E+03	3.157158E-18	1.006974E-18
3.910000E+03	3.130391E-18	9.984221E-19
3.920000E+03	3.105427E-18	9.904453E-19
3.930000E+03	3.082213E-18	9.830268E-19
3.940000E+03	3.060675E-18	9.761433E-19
3.950000E+03	3.040743E-18	9.697717E-19
3.960000E+03	3.022417E-18	9.639128E-19
3.970000E+03	3.005583E-18	9.585295E-19
3.980000E+03	2.990222E-18	9.536162E-19
3.990000E+03	2.976271E-18	9.491525E-19
4.000000E+03	2.963693E-18	9.451268E-19
4.010000E+03	2.952449E-18	9.415266E-19
4.020000E+03	2.942461E-18	9.383267E-19
4.030000E+03	2.933717E-18	9.355239E-19
4.040000E+03	2.926165E-18	9.331010E-19
4.050000E+03	2.919775E-18	9.310487E-19
4.060000E+03	2.914496E-18	9.293503E-19
4.070000E+03	2.910277E-18	9.279903E-19
4.080000E+03	2.907117E-18	9.269676E-19
4.090000E+03	2.904946E-18	9.262605E-19
4.100000E+03	2.903744E-18	9.258623E-19
4.110000E+03	2.903490E-18	9.257661E-19
4.120000E+03	2.904115E-18	9.259502E-19
4.130000E+03	2.905627E-18	9.264167E-19
4.140000E+03	2.907963E-18	9.271463E-19
4.150000E+03	2.911106E-18	9.281328E-19
4.160000E+03	2.915040E-18	9.293713E-19
4.170000E+03	2.919706E-18	9.308432E-19
4.180000E+03	2.925115E-18	9.325518E-19
4.190000E+03	2.931185E-18	9.344709E-19
4.200000E+03	2.937951E-18	9.366117E-19
4.210000E+03	2.945333E-18	9.389490E-19
4.220000E+03	2.953324E-18	9.414802E-19
4.230000E+03	2.961888E-18	9.441936E-19
4.240000E+03	2.971020E-18	9.470879E-19
4.250000E+03	2.980642E-18	9.501385E-19
4.260000E+03	2.990771E-18	9.533502E-19
4.270000E+03	3.001352E-18	9.567059E-19
4.280000E+03	3.012334E-18	9.601894E-19
4.290000E+03	3.023709E-18	9.637976E-19
4.300000E+03	3.035450E-18	9.675225E-19
4.310000E+03	3.047481E-18	9.713394E-19
4.320000E+03	3.059770E-18	9.752384E-19
4.330000E+03	3.072289E-18	9.792103E-19
4.340000E+03	3.085006E-18	9.832451E-19
4.350000E+03	3.097894E-18	9.873342E-19
4.360000E+03	3.110945E-18	9.914751E-19
4.370000E+03	3.124131E-18	9.956586E-19
4.380000E+03	3.137422E-18	9.998755E-19
4.390000E+03	3.150861E-18	1.004139E-18
4.400000E+03	3.164421E-18	1.008441E-18
4.410000E+03	3.178098E-18	1.012780E-18
4.420000E+03	3.191917E-18	1.017164E-18
4.430000E+03	3.205876E-18	1.021592E-18
4.440000E+03	3.219949E-18	1.026056E-18
4.450000E+03	3.234161E-18	1.030565E-18
4.460000E+03	3.248493E-18	1.035111E-18
4.470000E+03	3.262944E-18	1.039695E-18
4.480000E+03	3.277521E-18	1.044319E-18
4.490000E+03	3.292173E-18	1.048966E-18
4.500000E+03	3.306938E-18	1.053649E-18
4.510000E+03	3.321795E-18	1.058361E-18
4.520000E+03	3.336726E-18	1.063096E-18
4.530000E+03	3.351743E-18	1.067859E-18
4.540000E+03	3.366804E-18	1.072635E-18
4.550000E+03	3.381923E-18	1.077429E-18
4.560000E+03	3.397114E-18	1.082246E-18
4.570000E+03	3.412369E-18	1.087082E-18
4.580000E+03	3.427646E-18	1.091926E-18
4.590000E+03	3.442968E-18	1.096784E-18
4.600000E+03	3.458326E-18	1.101652E-18
4.610000E+03	3.473716E-18	1.106531E-18
4.620000E+03	3.489159E-18	1.111426E-18
4.630000E+03	3.504626E-18	1.116328E-18
4.640000E+03	3.520143E-18	1.121246E-18
4.650000E+03	3.535709E-18	1.126179E-18
4.660000E+03	3.551324E-18	1.131127E-18
4.670000E+03	3.566986E-18	1.136090E-18
4.680000E+03	3.582700E-18	1.141069E-18
4.690000E+03	3.598468E-18	1.146066E-18
4.700000E+03	3.614356E-18	1.151099E-18
4.710000E+03	3.630371E-18	1.156173E-18
4.720000E+03	3.646521E-18	1.161290E-18
4.730000E+03	3.662875E-18	1.166471E-18
4.740000E+03	3.679412E-18	1.171710E-18
4.750000E+03	3.696140E-18	1.177009E-18
4.760000E+03	3.713106E-18	1.182384E-18
4.770000E+03	3.730318E-18	1.187836E-18
4.780000E+03	3.747757E-18	1.193361E-18
4.790000E+03	3.765470E-18	1.198972E-18
4.800000E+03	3.783468E-18	1.204674E-18
4.810000E+03	3.801734E-18	1.210461E-18
4.820000E+03	3.820318E-18	1.216348E-18
4.830000E+03	3.839233E-18	1.222340E-18
4.840000E+03	3.858497E-18	1.228443E-18
4.850000E+03	3.878128E-18	1.234662E-18
4.860000E+03	3.898107E-18	1.240992E-18
4.870000E+03	3.918523E-18	1.247460E-18
4.880000E+03	3.939323E-18	1.254050E-18
4.890000E+03	3.960526E-18	1.260767E-18
4.900000E+03	3.982188E-18	1.267631E-18
4.910000E+03	4.004328E-18	1.274646E-18
4.920000E+03	4.026965E-18	1.281818E-18
4.930000E+03	4.050045E-18	1.289131E-18
4.940000E+03	4.073662E-18	1.296614E-18
4.950000E+03	4.097798E-18	1.304262E-18
4.960000E+03	4.122471E-18	1.312080E-18
4.970000E+03	4.147703E-18	1.320076E-18
4.980000E+03	4.173510E-18	1.328254E-18
4.990000E+03	4.199872E-18	1.336608E-18
5.000000E+03	4.226806E-18	1.345143E-18
5.010000E+03	4.254368E-18	1.353877E-18
5.020000E+03	4.282534E-18	1.362803E-18
5.030000E+03	4.311280E-18	1.371913E-18
5.040000E+03	4.340702E-18	1.381237E-18
5.050000E+03	4.370689E-18	1.390740E-18
5.060000E+03	4.401336E-18	1.400452E-18
5.070000E+03	4.432658E-18	1.410379E-18
5.080000E+03	4.464537E-18	1.420482E-18
5.090000E+03	4.497112E-18	1.430805E-18
5.100000E+03	4.530305E-18	1.441324E-18
5.110000E+03	4.564124E-18	1.452042E-18
5.120000E+03	4.598621E-18	1.462975E-18
5.130000E+03	4.633716E-18	1.474096E-18
5.140000E+03	4.669413E-18	1.485409E-18
5.150000E+03	4.705758E-18	1.496926E-18
5.160000E+03	4.742713E-18	1.508637E-18
5.170000E+03	4.780280E-18	1.520541E-18
5.180000E+03	4.818410E-18	1.532624E-18
5.190000E+03	4.857151E-18	1.544900E-18
5.200000E+03	4.896406E-18	1.557338E-18
5.210000E+03	4.936268E-18	1.569968E-18
5.220000E+03	4.976682E-18	1.582773E-18
5.230000E+03	5.017594E-18	1.595735E-18
5.240000E+03	5.058995E-18	1.608852E-18
5.250000E+03	5.100925E-18	1.622136E-18
5.260000E+03	5.143269E-18	1.635550E-18
5.270000E+03	5.186062E-18	1.649106E-18
5.280000E+03	5.229341E-18	1.662815E-18
5.290000E+03	5.272929E-18	1.676621E-18
5.300000E+03	5.316964E-18	1.690569E-18
5.310000E+03	5.361264E-18	1.704599E-18
5.320000E+03	5.405961E-18	1.718754E-18
5.330000E+03	5.450868E-18	1.732975E-18
5.340000E+03	5.496060E-18	1.747285E-18
5.350000E+03	5.541508E-18	1.761676E-18
5.360000E+03	5.587122E-18	1.776118E-18
5.370000E+03	5.632980E-18	1.790635E-18
5.380000E+03	5.678873E-18	1.805163E-18
5.390000E+03	5.724934E-18	1.819743E-18
5.400000E+03	5.771066E-18	1.834345E-18
5.410000E+03	5.817226E-18	1.848953E-18
5.420000E+03	5.863369E-18	1.863555E-18
5.430000E+03	5.909452E-18	1.878137E-18
5.440000E+03	5.955367E-18	1.892664E-18
5.450000E+03	6.001063E-18	1.907120E-18
5.460000E+03	6.046489E-18	1.921488E-18
5.470000E+03	6.091588E-18	1.935751E-18
5.480000E+03	6.136243E-18	1.949872E-18
5.490000E+03	6.180332E-18	1.963812E-18
5.500000E+03	6.223853E-18	1.977570E-18
5.510000E+03	6.266682E-18	1.991106E-18
5.520000E+03	6.308686E-18	2.004379E-18
5.530000E+03	6.349732E-18	2.017346E-18
5.540000E+03	6.389809E-18	2.030004E-18
5.550000E+03	6.428718E-18	2.042290E-18
5.560000E+03	6.466444E-18	2.054199E-18
5.570000E+03	6.502781E-18	2.065665E-18
5.580000E+03	6.537653E-18	2.076664E-18
5.590000E+03	6.571043E-18	2.087191E-18
5.600000E+03	6.602743E-18	2.097181E-18
5.610000E+03	6.632743E-18	2.106629E-18
5.620000E+03	6.660965E-18	2.115511E-18
5.630000E+03	6.687267E-18	2.123783E-18
5.640000E+03	6.711580E-18	2.131421E-18
5.650000E+03	6.733899E-18	2.138426E-18
5.660000E+03	6.754161E-18	2.144777E-18
5.670000E+03	6.772236E-18	2.150431E-18
5.680000E+03	6.788137E-18	2.155395E-18
5.690000E+03	6.801881E-18	2.159673E-18
5.700000E+03	6.813279E-18	2.163206E-18
5.710000E+03	6.822364E-18	2.166003E-18
5.720000E+03	6.829168E-18	2.168075E-18
5.730000E+03	6.833665E-18	2.169415E-18
5.740000E+03	6.835832E-18	2.170014E-18
5.750000E+03	6.835652E-18	2.169867E-18
5.760000E+03	6.833115E-18	2.168973E-18
5.770000E+03	6.828293E-18	2.167352E-18
5.780000E+03	6.821113E-18	2.164983E-18
5.790000E+03	6.811736E-18	2.161916E-18
5.800000E+03	6.800106E-18	2.158133E-18
5.810000E+03	6.786246E-18	2.153643E-18
5.820000E+03	6.770336E-18	2.148503E-18
5.830000E+03	6.752265E-18	2.142676E-18
5.840000E+03	6.732153E-18	2.136202E-18
5.850000E+03	6.710124E-18	2.129120E-18
5.860000E+03	6.686166E-18	2.121426E-18
5.870000E+03	6.660409E-18	2.113161E-18
5.880000E+03	6.632855E-18	2.104327E-18
5.890000E+03	6.603721E-18	2.094991E-18
5.900000E+03	6.573015E-18	2.085157E-18
5.910000E+03	6.540818E-18	2.074851E-18
5.920000E+03	6.507290E-18	2.064123E-18
5.930000E+03	6.472447E-18	2.052978E-18
5.940000E+03	6.436454E-18	2.041469E-18
5.950000E+03	6.399328E-18	2.029601E-18
5.960000E+03	6.361239E-18	2.017429E-18
5.970000E+03	6.322280E-18	2.004981E-18
5.980000E+03	6.282543E-18	1.992287E-18
5.990000E+03	6.242051E-18	1.979355E-18
6.000000E+03	6.200968E-18	1.966236E-18
6.010000E+03	6.159383E-18	1.952958E-18
6.020000E+03	6.117313E-18	1.939528E-18
6.030000E+03	6.074916E-18	1.925994E-18
6.040000E+03	6.032207E-18	1.912363E-18
6.050000E+03	5.989195E-18	1.898636E-18
6.060000E+03	5.946101E-18	1.884885E-18
6.070000E+03	5.902861E-18	1.871087E-18
6.080000E+03	5.859615E-18	1.857289E-18
6.090000E+03	5.816294E-18	1.843468E-18
6.100000E+03	5.773036E-18	1.829668E-18
6.110000E+03	5.729834E-18	1.815887E-18
6.120000E+03	5.686746E-18	1.802143E-18
6.130000E+03	5.643834E-18	1.788455E-18
6.140000E+03	5.601079E-18	1.774818E-18
6.150000E+03	5.558534E-18	1.761248E-18
6.160000E+03	5.516243E-18	1.747760E-18
6.170000E+03	5.474255E-18	1.734369E-18
6.180000E+03	5.432608E-18	1.721087E-18
6.190000E+03	5.391271E-18	1.707904E-18
6.200000E+03	5.350349E-18	1.694853E-18
6.210000E+03	5.309872E-18	1.681945E-18
6.220000E+03	5.269870E-18	1.669188E-18
6.230000E+03	5.230435E-18	1.656611E-18
6.240000E+03	5.191661E-18	1.644244E-18
6.250000E+03	5.153634E-18	1.632115E-18
6.260000E+03	5.116440E-18	1.620251E-18
6.270000E+03	5.080162E-18	1.608678E-18
6.280000E+03	5.044947E-18	1.597441E-18
6.290000E+03	5.010740E-18	1.586525E-18
6.300000E+03	4.977819E-18	1.576017E-18
6.310000E+03	4.946125E-18	1.565898E-18
6.320000E+03	4.915799E-18	1.556213E-18
6.330000E+03	4.886915E-18	1.546985E-18
6.340000E+03	4.859542E-18	1.538236E-18
6.350000E+03	4.833687E-18	1.529969E-18
6.360000E+03	4.809421E-18	1.522204E-18
6.370000E+03	4.786811E-18	1.514964E-18
6.380000E+03	4.765866E-18	1.508252E-18
6.390000E+03	4.746583E-18	1.502065E-18
6.400000E+03	4.729036E-18	1.496429E-18
6.410000E+03	4.713091E-18	1.491299E-18
6.420000E+03	4.698748E-18	1.486677E-18
6.430000E+03	4.685944E-18	1.482542E-18
6.440000E+03	4.674537E-18	1.478849E-18
6.450000E+03	4.664603E-18	1.475622E-18
6.460000E+03	4.656001E-18	1.472816E-18
6.470000E+03	4.648799E-18	1.470454E-18
6.480000E+03	4.643005E-18	1.468536E-18
6.490000E+03	4.638545E-18	1.467040E-18
6.500000E+03	4.635420E-18	1.465966E-18
6.510000E+03	4.633633E-18	1.465315E-18
6.520000E+03	4.633186E-18	1.465088E-18
6.530000E+03	4.634076E-18	1.465283E-18
6.540000E+03	4.636382E-18	1.465925E-18
6.550000E+03	4.640034E-18	1.466992E-18
6.560000E+03	4.644956E-18	1.468461E-18
6.570000E+03	4.651304E-18	1.470380E-18
6.580000E+03	4.658928E-18	1.472701E-18
6.590000E+03	4.667905E-18	1.475450E-18
6.600000E+03	4.678242E-18	1.478628E-18
6.610000E+03	4.689943E-18	1.482236E-18
6.620000E+03	4.703007E-18	1.486274E-18
6.630000E+03	4.717367E-18	1.490721E-18
6.640000E+03	4.733101E-18	1.495601E-18
6.650000E+03	4.750137E-18	1.500891E-18
6.660000E+03	4.768559E-18	1.506618E-18
6.670000E+03	4.788292E-18	1.512759E-18
6.680000E+03	4.809341E-18	1.519314E-18
6.690000E+03	4.831792E-18	1.526311E-18
6.700000E+03	4.855653E-18	1.533752E-18
6.710000E+03	4.880767E-18	1.541588E-18
6.720000E+03	4.907306E-18	1.549872E-18
6.730000E+03	4.935106E-18	1.558553E-18
6.740000E+03	4.964345E-18	1.567687E-18
6.750000E+03	4.994949E-18	1.577250E-18
6.760000E+03	5.026832E-18	1.587216E-18
6.770000E+03	5.060182E-18	1.597644E-18
6.780000E+03	5.094829E-18	1.608479E-18
6.790000E+03	5.130868E-18	1.619752E-18
6.800000E+03	5.168309E-18	1.631465E-18
6.810000E+03	5.207162E-18	1.643623E-18
6.820000E+03	5.247342E-18	1.656197E-18
6.830000E+03	5.288951E-18	1.669220E-18
6.840000E+03	5.331901E-18	1.682665E-18
6.850000E+03	5.376299E-18	1.696564E-18
6.860000E+03	5.422054E-18	1.710889E-18
6.870000E+03	5.469172E-18	1.725642E-18
6.880000E+03	5.517765E-18	1.740858E-18
6.890000E+03	5.567636E-18	1.756475E-18
6.900000E+03	5.618996E-18	1.772559E-18
6.910000E+03	5.671750E-18	1.789080E-18
6.920000E+03	5.725906E-18	1.806041E-18
6.930000E+03	5.781472E-18	1.823444E-18
6.940000E+03	5.838452E-18	1.841290E-18
6.950000E+03	5.896742E-18	1.859547E-18
6.960000E+03	5.956458E-18	1.878250E-18
6.970000E+03	6.017604E-18	1.897401E-18
6.980000E+03	6.080190E-18	1.917004E-18
6.990000E+03	6.143981E-18	1.936983E-18
7.000000E+03	6.209338E-18	1.957452E-18
7.010000E+03	6.275903E-18	1.978300E-18
7.020000E+03	6.343919E-18	1.999601E-18
7.030000E+03	6.413268E-18	2.021319E-18
7.040000E+03	6.483949E-18	2.043454E-18
7.050000E+03	6.555960E-18	2.066004E-18
7.060000E+03	6.629301E-18	2.088970E-18
7.070000E+03	6.703837E-18	2.112308E-18
7.080000E+03	6.779694E-18	2.136060E-18
7.090000E+03	6.856873E-18	2.160224E-18
7.100000E+03	6.935232E-18	2.184756E-18
7.110000E+03	7.014898E-18	2.209696E-18
7.120000E+03	7.095729E-18	2.234998E-18
7.130000E+03	7.177712E-18	2.260660E-18
7.140000E+03	7.260836E-18	2.286677E-18
7.150000E+03	7.345237E-18	2.313092E-18
7.160000E+03	7.430605E-18	2.339808E-18
7.170000E+03	7.516919E-18	2.366817E-18
7.180000E+03	7.604472E-18	2.394212E-18
7.190000E+03	7.692936E-18	2.421890E-18
7.200000E+03	7.782284E-18	2.449841E-18
7.210000E+03	7.872662E-18	2.478112E-18
7.220000E+03	7.963876E-18	2.506642E-18
7.230000E+03	8.055904E-18	2.535424E-18
7.240000E+03	8.148715E-18	2.564447E-18
7.250000E+03	8.242281E-18	2.593704E-18
7.260000E+03	8.336746E-18	2.623239E-18
7.270000E+03	8.431725E-18	2.652930E-18
7.280000E+03	8.527546E-18	2.682883E-18
7.290000E+03	8.623992E-18	2.713027E-18
7.300000E+03	8.721028E-18	2.743352E-18
7.310000E+03	8.818810E-18	2.773906E-18
7.320000E+03	8.917110E-18	2.804619E-18
7.330000E+03	9.016086E-18	2.835540E-18
7.340000E+03	9.115709E-18	2.866659E-18
7.350000E+03	9.216150E-18	2.898030E-18
7.360000E+03	9.317382E-18	2.929646E-18
7.370000E+03	9.419595E-18	2.961564E-18
7.380000E+03	9.522550E-18	2.993711E-18
7.390000E+03	9.626881E-18	3.026286E-18
7.400000E+03	9.732592E-18	3.059289E-18
7.410000E+03	9.839452E-18	3.092648E-18
7.420000E+03	9.948145E-18	3.126578E-18
7.430000E+03	1.005846E-17	3.161012E-18
7.440000E+03	1.017064E-17	3.196027E-18
7.450000E+03	1.028446E-17	3.231554E-18
7.460000E+03	1.040019E-17	3.267673E-18
7.470000E+03	1.051710E-17	3.304156E-18
7.480000E+03	1.063567E-17	3.341157E-18
7.490000E+03	1.075515E-17	3.378439E-18
7.500000E+03	1.087577E-17	3.416073E-18
7.510000E+03	1.099726E-17	3.453973E-18
7.520000E+03	1.111932E-17	3.492045E-18
7.530000E+03	1.124217E-17	3.530362E-18
7.540000E+03	1.136497E-17	3.568655E-18
7.550000E+03	1.148820E-17	3.607079E-18
7.560000E+03	1.161153E-17	3.645530E-18
7.570000E+03	1.173492E-17	3.683990E-18
7.580000E+03	1.185800E-17	3.722349E-18
7.590000E+03	1.198100E-17	3.760678E-18
7.600000E+03	1.210356E-17	3.798861E-18
7.610000E+03	1.222559E-17	3.836876E-18
7.620000E+03	1.234734E-17	3.874794E-18
7.630000E+03	1.246842E-17	3.912497E-18
7.640000E+03	1.258907E-17	3.950058E-18
7.650000E+03	1.270858E-17	3.987256E-18
7.660000E+03	1.282749E-17	4.024263E-18
7.670000E+03	1.294542E-17	4.060955E-18
7.680000E+03	1.306261E-17	4.097409E-18
7.690000E+03	1.317864E-17	4.133496E-18
7.700000E+03	1.329344E-17	4.169190E-18
7.710000E+03	1.340690E-17	4.204462E-18
7.720000E+03	1.351966E-17	4.239506E-18
7.730000E+03	1.363057E-17	4.273967E-18
7.740000E+03	1.374062E-17	4.308153E-18
7.750000E+03	1.384902E-17	4.341814E-18
7.760000E+03	1.395604E-17	4.375041E-18
