#wls	flux	fluxerr
1.600000E+03	2.368775E-16	7.705429E-17
1.640000E+03	2.438514E-16	7.919389E-17
1.680000E+03	2.506462E-16	8.126340E-17
1.720000E+03	2.572380E-16	8.325489E-17
1.760000E+03	2.635225E-16	8.513445E-17
1.800000E+03	2.694599E-16	8.688937E-17
1.840000E+03	2.749557E-16	8.848938E-17
1.880000E+03	2.799558E-16	8.991743E-17
1.920000E+03	2.843763E-16	9.114714E-17
1.960000E+03	2.881288E-16	9.215106E-17
2.000000E+03	2.910805E-16	9.288771E-17
2.040000E+03	2.931443E-16	9.333083E-17
2.080000E+03	2.942166E-16	9.344917E-17
2.120000E+03	2.941469E-16	9.319704E-17
2.160000E+03	2.928077E-16	9.253674E-17
2.200000E+03	2.900486E-16	9.142392E-17
2.240000E+03	2.857465E-16	8.982343E-17
2.280000E+03	2.798879E-16	8.773524E-17
2.320000E+03	2.725249E-16	8.518008E-17
2.360000E+03	2.638675E-16	8.222792E-17
2.400000E+03	2.541026E-16	7.894104E-17
2.440000E+03	2.433976E-16	7.537513E-17
2.480000E+03	2.319352E-16	7.159014E-17
2.520000E+03	2.198578E-16	6.763310E-17
2.560000E+03	2.072910E-16	6.354532E-17
2.600000E+03	1.943876E-16	5.937607E-17
2.640000E+03	1.812622E-16	5.516234E-17
2.680000E+03	1.680501E-16	5.094704E-17
2.720000E+03	1.548667E-16	4.676644E-17
2.760000E+03	1.418482E-16	4.266247E-17
2.800000E+03	1.291111E-16	3.867062E-17
2.840000E+03	1.167787E-16	3.482772E-17
2.880000E+03	1.049679E-16	3.116803E-17
2.920000E+03	9.378500E-17	2.772197E-17
2.960000E+03	8.332126E-17	2.451492E-17
3.000000E+03	7.364697E-17	2.156545E-17
3.010000E+03	7.135697E-17	2.086958E-17
3.020000E+03	6.912042E-17	2.019081E-17
3.030000E+03	6.693581E-17	1.952867E-17
3.040000E+03	6.480603E-17	1.888394E-17
3.050000E+03	6.272946E-17	1.825612E-17
3.060000E+03	6.070592E-17	1.764509E-17
3.070000E+03	5.873521E-17	1.705077E-17
3.080000E+03	5.681946E-17	1.647371E-17
3.090000E+03	5.495583E-17	1.591306E-17
3.100000E+03	5.314616E-17	1.536929E-17
3.110000E+03	5.138883E-17	1.484188E-17
3.120000E+03	4.968433E-17	1.433093E-17
3.130000E+03	4.803206E-17	1.383621E-17
3.140000E+03	4.643138E-17	1.335750E-17
3.150000E+03	4.488165E-17	1.289455E-17
3.160000E+03	4.338305E-17	1.244738E-17
3.170000E+03	4.193400E-17	1.201547E-17
3.180000E+03	4.053455E-17	1.159880E-17
3.190000E+03	3.918383E-17	1.119706E-17
3.200000E+03	3.788097E-17	1.080995E-17
3.210000E+03	3.662569E-17	1.043736E-17
3.220000E+03	3.541576E-17	1.007860E-17
3.230000E+03	3.425203E-17	9.733853E-18
3.240000E+03	3.313172E-17	9.402289E-18
3.250000E+03	3.205546E-17	9.084044E-18
3.260000E+03	3.102109E-17	8.778457E-18
3.270000E+03	3.002805E-17	8.485325E-18
3.280000E+03	2.907523E-17	8.204292E-18
3.290000E+03	2.816108E-17	7.934876E-18
3.300000E+03	2.728536E-17	7.676971E-18
3.310000E+03	2.644613E-17	7.429982E-18
3.320000E+03	2.564227E-17	7.193564E-18
3.330000E+03	2.487350E-17	6.967594E-18
3.340000E+03	2.413797E-17	6.751514E-18
3.350000E+03	2.343462E-17	6.544992E-18
3.360000E+03	2.276243E-17	6.347711E-18
3.370000E+03	2.212070E-17	6.159435E-18
3.380000E+03	2.150779E-17	5.979675E-18
3.390000E+03	2.092274E-17	5.808135E-18
3.400000E+03	2.036489E-17	5.644595E-18
3.410000E+03	1.983301E-17	5.488685E-18
3.420000E+03	1.932620E-17	5.340123E-18
3.430000E+03	1.884307E-17	5.198500E-18
3.440000E+03	1.838304E-17	5.063628E-18
3.450000E+03	1.794528E-17	4.935249E-18
3.460000E+03	1.752858E-17	4.813003E-18
3.470000E+03	1.713218E-17	4.696661E-18
3.480000E+03	1.675519E-17	4.585951E-18
3.490000E+03	1.639713E-17	4.480721E-18
3.500000E+03	1.605680E-17	4.380617E-18
3.510000E+03	1.573380E-17	4.285511E-18
3.520000E+03	1.542718E-17	4.195125E-18
3.530000E+03	1.513628E-17	4.109255E-18
3.540000E+03	1.486042E-17	4.027701E-18
3.550000E+03	1.459884E-17	3.950237E-18
3.560000E+03	1.435113E-17	3.876732E-18
3.570000E+03	1.411640E-17	3.806935E-18
3.580000E+03	1.389417E-17	3.740696E-18
3.590000E+03	1.368411E-17	3.677908E-18
3.600000E+03	1.348560E-17	3.618393E-18
3.610000E+03	1.329819E-17	3.562017E-18
3.620000E+03	1.312136E-17	3.508624E-18
3.630000E+03	1.295459E-17	3.458061E-18
3.640000E+03	1.279751E-17	3.410219E-18
3.650000E+03	1.264955E-17	3.364933E-18
3.660000E+03	1.251051E-17	3.322136E-18
3.670000E+03	1.237987E-17	3.281681E-18
3.680000E+03	1.225735E-17	3.243483E-18
3.690000E+03	1.214282E-17	3.207495E-18
3.700000E+03	1.203578E-17	3.173577E-18
3.710000E+03	1.193600E-17	3.141658E-18
3.720000E+03	1.184350E-17	3.111730E-18
3.730000E+03	1.175791E-17	3.083693E-18
3.740000E+03	1.167902E-17	3.057478E-18
3.750000E+03	1.160683E-17	3.033076E-18
3.760000E+03	1.154099E-17	3.010390E-18
3.770000E+03	1.148141E-17	2.989384E-18
3.780000E+03	1.142805E-17	2.970045E-18
3.790000E+03	1.138072E-17	2.952307E-18
3.800000E+03	1.133928E-17	2.936134E-18
3.810000E+03	1.130361E-17	2.921483E-18
3.820000E+03	1.127363E-17	2.908324E-18
3.830000E+03	1.124930E-17	2.896643E-18
3.840000E+03	1.123043E-17	2.886380E-18
3.850000E+03	1.121700E-17	2.877524E-18
3.860000E+03	1.120902E-17	2.870069E-18
3.870000E+03	1.120627E-17	2.863954E-18
3.880000E+03	1.120867E-17	2.859149E-18
3.890000E+03	1.121631E-17	2.855670E-18
3.900000E+03	1.122908E-17	2.853483E-18
3.910000E+03	1.124679E-17	2.852532E-18
3.920000E+03	1.126952E-17	2.852832E-18
3.930000E+03	1.129727E-17	2.854374E-18
3.940000E+03	1.132974E-17	2.857075E-18
3.950000E+03	1.136700E-17	2.860948E-18
3.960000E+03	1.140902E-17	2.865982E-18
3.970000E+03	1.145569E-17	2.872137E-18
3.980000E+03	1.150680E-17	2.879355E-18
3.990000E+03	1.156247E-17	2.887665E-18
4.000000E+03	1.162250E-17	2.897006E-18
4.010000E+03	1.168673E-17	2.907335E-18
4.020000E+03	1.175520E-17	2.918657E-18
4.030000E+03	1.182769E-17	2.930908E-18
4.040000E+03	1.190423E-17	2.944094E-18
4.050000E+03	1.198448E-17	2.958123E-18
4.060000E+03	1.206857E-17	2.973026E-18
4.070000E+03	1.215624E-17	2.988734E-18
4.080000E+03	1.224738E-17	3.005210E-18
4.090000E+03	1.234201E-17	3.022460E-18
4.100000E+03	1.243979E-17	3.040394E-18
4.110000E+03	1.254088E-17	3.059049E-18
4.120000E+03	1.264493E-17	3.078335E-18
4.130000E+03	1.275191E-17	3.098243E-18
4.140000E+03	1.286178E-17	3.118755E-18
4.150000E+03	1.297430E-17	3.139815E-18
4.160000E+03	1.308944E-17	3.161412E-18
4.170000E+03	1.320708E-17	3.183514E-18
4.180000E+03	1.332697E-17	3.206059E-18
4.190000E+03	1.344922E-17	3.229068E-18
4.200000E+03	1.357347E-17	3.252459E-18
4.210000E+03	1.369984E-17	3.276252E-18
4.220000E+03	1.382798E-17	3.300366E-18
4.230000E+03	1.395787E-17	3.324794E-18
4.240000E+03	1.408940E-17	3.349507E-18
4.250000E+03	1.422220E-17	3.374420E-18
4.260000E+03	1.435637E-17	3.399555E-18
4.270000E+03	1.449168E-17	3.424857E-18
4.280000E+03	1.462788E-17	3.450266E-18
4.290000E+03	1.476470E-17	3.475721E-18
4.300000E+03	1.490214E-17	3.501222E-18
4.310000E+03	1.504008E-17	3.526739E-18
4.320000E+03	1.517800E-17	3.552158E-18
4.330000E+03	1.531603E-17	3.577504E-18
4.340000E+03	1.545367E-17	3.602665E-18
4.350000E+03	1.559103E-17	3.627673E-18
4.360000E+03	1.572776E-17	3.652443E-18
4.370000E+03	1.586388E-17	3.676983E-18
4.380000E+03	1.599939E-17	3.701300E-18
4.390000E+03	1.613437E-17	3.725414E-18
4.400000E+03	1.626885E-17	3.749332E-18
4.410000E+03	1.640298E-17	3.773095E-18
4.420000E+03	1.653695E-17	3.796747E-18
4.430000E+03	1.667082E-17	3.820305E-18
4.440000E+03	1.680481E-17	3.843823E-18
4.450000E+03	1.693886E-17	3.867286E-18
4.460000E+03	1.707334E-17	3.890785E-18
4.470000E+03	1.720823E-17	3.914313E-18
4.480000E+03	1.734362E-17	3.937894E-18
4.490000E+03	1.747961E-17	3.961555E-18
4.500000E+03	1.761632E-17	3.985320E-18
4.510000E+03	1.775383E-17	4.009213E-18
4.520000E+03	1.789227E-17	4.033257E-18
4.530000E+03	1.803144E-17	4.057408E-18
4.540000E+03	1.817172E-17	4.081755E-18
4.550000E+03	1.831294E-17	4.106256E-18
4.560000E+03	1.845520E-17	4.130932E-18
4.570000E+03	1.859844E-17	4.155770E-18
4.580000E+03	1.874294E-17	4.180835E-18
4.590000E+03	1.888865E-17	4.206110E-18
4.600000E+03	1.903534E-17	4.231546E-18
4.610000E+03	1.918347E-17	4.257242E-18
4.620000E+03	1.933279E-17	4.283144E-18
4.630000E+03	1.948324E-17	4.309237E-18
4.640000E+03	1.963509E-17	4.335582E-18
4.650000E+03	1.978845E-17	4.362201E-18
4.660000E+03	1.994291E-17	4.388999E-18
4.670000E+03	2.009892E-17	4.416078E-18
4.680000E+03	2.025642E-17	4.443424E-18
4.690000E+03	2.041534E-17	4.471020E-18
4.700000E+03	2.057582E-17	4.498894E-18
4.710000E+03	2.073781E-17	4.527035E-18
4.720000E+03	2.090148E-17	4.555479E-18
4.730000E+03	2.106643E-17	4.584138E-18
4.740000E+03	2.123289E-17	4.613062E-18
4.750000E+03	2.140111E-17	4.642302E-18
4.760000E+03	2.157055E-17	4.671742E-18
4.770000E+03	2.174168E-17	4.701482E-18
4.780000E+03	2.191437E-17	4.731490E-18
4.790000E+03	2.208845E-17	4.761734E-18
4.800000E+03	2.226441E-17	4.792314E-18
4.810000E+03	2.244164E-17	4.823100E-18
4.820000E+03	2.262081E-17	4.854233E-18
4.830000E+03	2.280129E-17	4.885578E-18
4.840000E+03	2.298352E-17	4.917228E-18
4.850000E+03	2.316704E-17	4.949086E-18
4.860000E+03	2.335231E-17	4.981245E-18
4.870000E+03	2.353886E-17	5.013605E-18
4.880000E+03	2.372688E-17	5.046209E-18
4.890000E+03	2.391637E-17	5.079053E-18
4.900000E+03	2.410708E-17	5.112083E-18
4.910000E+03	2.429898E-17	5.145294E-18
4.920000E+03	2.449206E-17	5.178682E-18
4.930000E+03	2.468654E-17	5.212293E-18
4.940000E+03	2.488193E-17	5.246023E-18
4.950000E+03	2.507869E-17	5.279969E-18
4.960000E+03	2.527634E-17	5.314027E-18
4.970000E+03	2.547508E-17	5.348243E-18
4.980000E+03	2.567465E-17	5.382559E-18
4.990000E+03	2.587501E-17	5.416969E-18
5.000000E+03	2.607609E-17	5.451454E-18
5.010000E+03	2.627805E-17	5.486053E-18
5.020000E+03	2.648026E-17	5.520631E-18
5.030000E+03	2.668284E-17	5.555214E-18
5.040000E+03	2.688536E-17	5.589713E-18
5.050000E+03	2.708785E-17	5.624136E-18
5.060000E+03	2.728984E-17	5.658385E-18
5.070000E+03	2.749079E-17	5.692351E-18
5.080000E+03	2.769067E-17	5.726028E-18
5.090000E+03	2.788917E-17	5.759353E-18
5.100000E+03	2.808564E-17	5.792196E-18
5.110000E+03	2.827944E-17	5.824428E-18
5.120000E+03	2.847069E-17	5.856075E-18
5.130000E+03	2.865840E-17	5.886938E-18
5.140000E+03	2.884211E-17	5.916925E-18
5.150000E+03	2.902135E-17	5.945944E-18
5.160000E+03	2.919563E-17	5.973900E-18
5.170000E+03	2.936417E-17	6.000640E-18
5.180000E+03	2.952680E-17	6.026130E-18
5.190000E+03	2.968243E-17	6.050158E-18
5.200000E+03	2.983088E-17	6.072694E-18
5.210000E+03	2.997106E-17	6.093519E-18
5.220000E+03	3.010307E-17	6.112664E-18
5.230000E+03	3.022579E-17	6.129905E-18
5.240000E+03	3.033895E-17	6.145202E-18
5.250000E+03	3.044141E-17	6.158326E-18
5.260000E+03	3.053284E-17	6.169222E-18
5.270000E+03	3.061262E-17	6.177776E-18
5.280000E+03	3.067950E-17	6.183742E-18
5.290000E+03	3.073281E-17	6.186996E-18
5.300000E+03	3.077217E-17	6.187475E-18
5.310000E+03	3.079664E-17	6.184998E-18
5.320000E+03	3.080525E-17	6.179385E-18
5.330000E+03	3.079740E-17	6.170524E-18
5.340000E+03	3.077252E-17	6.158316E-18
5.350000E+03	3.073013E-17	6.142675E-18
5.360000E+03	3.066948E-17	6.123468E-18
5.370000E+03	3.059058E-17	6.100706E-18
5.380000E+03	3.049293E-17	6.074304E-18
5.390000E+03	3.037677E-17	6.044322E-18
5.400000E+03	3.024193E-17	6.010741E-18
5.410000E+03	3.008932E-17	5.973750E-18
5.420000E+03	2.991975E-17	5.933525E-18
5.430000E+03	2.973363E-17	5.890157E-18
5.440000E+03	2.953281E-17	5.844021E-18
5.450000E+03	2.931843E-17	5.795356E-18
5.460000E+03	2.909068E-17	5.744203E-18
5.470000E+03	2.885199E-17	5.691050E-18
5.480000E+03	2.860350E-17	5.636128E-18
5.490000E+03	2.834650E-17	5.579698E-18
5.500000E+03	2.808267E-17	5.522093E-18
5.510000E+03	2.781345E-17	5.463599E-18
5.520000E+03	2.754033E-17	5.404513E-18
5.530000E+03	2.726542E-17	5.345245E-18
5.540000E+03	2.699030E-17	5.286104E-18
5.550000E+03	2.671738E-17	5.227556E-18
5.560000E+03	2.644875E-17	5.170006E-18
5.570000E+03	2.618620E-17	5.113798E-18
5.580000E+03	2.593200E-17	5.059367E-18
5.590000E+03	2.568807E-17	5.007079E-18
5.600000E+03	2.545617E-17	4.957269E-18
5.610000E+03	2.523820E-17	4.910296E-18
5.620000E+03	2.503562E-17	4.866434E-18
5.630000E+03	2.484967E-17	4.825914E-18
5.640000E+03	2.468163E-17	4.788973E-18
5.650000E+03	2.453231E-17	4.755754E-18
5.660000E+03	2.440248E-17	4.726395E-18
5.670000E+03	2.429247E-17	4.700950E-18
5.680000E+03	2.420236E-17	4.679419E-18
5.690000E+03	2.413228E-17	4.661817E-18
5.700000E+03	2.408189E-17	4.648068E-18
5.710000E+03	2.405074E-17	4.638071E-18
5.720000E+03	2.403847E-17	4.631745E-18
5.730000E+03	2.404438E-17	4.628948E-18
5.740000E+03	2.406798E-17	4.629574E-18
5.750000E+03	2.410826E-17	4.633417E-18
5.760000E+03	2.416499E-17	4.640427E-18
5.770000E+03	2.423729E-17	4.650424E-18
5.780000E+03	2.432459E-17	4.663289E-18
5.790000E+03	2.442697E-17	4.679030E-18
5.800000E+03	2.454357E-17	4.697476E-18
5.810000E+03	2.467471E-17	4.718677E-18
5.820000E+03	2.482024E-17	4.742600E-18
5.830000E+03	2.498011E-17	4.769226E-18
5.840000E+03	2.515405E-17	4.798496E-18
5.850000E+03	2.534265E-17	4.830514E-18
5.860000E+03	2.554569E-17	4.865234E-18
5.870000E+03	2.576351E-17	4.902708E-18
5.880000E+03	2.599622E-17	4.942951E-18
5.890000E+03	2.624357E-17	4.985909E-18
5.900000E+03	2.650593E-17	5.031644E-18
5.910000E+03	2.678362E-17	5.080210E-18
5.920000E+03	2.707609E-17	5.131493E-18
5.930000E+03	2.738361E-17	5.185537E-18
5.940000E+03	2.770611E-17	5.242319E-18
5.950000E+03	2.804380E-17	5.301876E-18
5.960000E+03	2.839591E-17	5.364049E-18
5.970000E+03	2.876286E-17	5.428916E-18
5.980000E+03	2.914379E-17	5.496301E-18
5.990000E+03	2.953872E-17	5.566202E-18
6.000000E+03	2.994731E-17	5.638551E-18
6.010000E+03	3.036884E-17	5.713204E-18
6.020000E+03	3.080323E-17	5.790136E-18
6.030000E+03	3.124929E-17	5.869120E-18
6.040000E+03	3.170721E-17	5.950184E-18
6.050000E+03	3.217530E-17	6.033004E-18
6.060000E+03	3.265363E-17	6.117593E-18
6.070000E+03	3.314078E-17	6.203672E-18
6.080000E+03	3.363635E-17	6.291166E-18
6.090000E+03	3.413872E-17	6.379767E-18
6.100000E+03	3.464699E-17	6.469302E-18
6.110000E+03	3.515976E-17	6.559507E-18
6.120000E+03	3.567599E-17	6.650186E-18
6.130000E+03	3.619369E-17	6.740966E-18
6.140000E+03	3.671124E-17	6.831542E-18
6.150000E+03	3.722735E-17	6.921678E-18
6.160000E+03	3.774030E-17	7.011053E-18
6.170000E+03	3.824738E-17	7.099163E-18
6.180000E+03	3.874727E-17	7.185769E-18
6.190000E+03	3.923823E-17	7.270550E-18
6.200000E+03	3.971911E-17	7.353297E-18
6.210000E+03	4.018943E-17	7.433927E-18
6.220000E+03	4.064887E-17	7.512386E-18
6.230000E+03	4.109778E-17	7.588742E-18
6.240000E+03	4.153773E-17	7.663294E-18
6.250000E+03	4.196889E-17	7.736075E-18
6.260000E+03	4.239099E-17	7.807039E-18
6.270000E+03	4.280600E-17	7.876557E-18
6.280000E+03	4.321441E-17	7.944721E-18
6.290000E+03	4.361560E-17	8.011420E-18
6.300000E+03	4.401187E-17	8.077083E-18
6.310000E+03	4.440214E-17	8.141510E-18
6.320000E+03	4.478827E-17	8.205042E-18
6.330000E+03	4.516980E-17	8.267596E-18
6.340000E+03	4.554746E-17	8.329306E-18
6.350000E+03	4.592143E-17	8.390203E-18
6.360000E+03	4.629185E-17	8.450315E-18
6.370000E+03	4.665888E-17	8.509670E-18
6.380000E+03	4.702203E-17	8.568176E-18
6.390000E+03	4.738072E-17	8.625731E-18
6.400000E+03	4.773576E-17	8.682479E-18
6.410000E+03	4.808584E-17	8.738185E-18
6.420000E+03	4.843172E-17	8.792986E-18
6.430000E+03	4.877276E-17	8.846767E-18
6.440000E+03	4.910901E-17	8.899536E-18
6.450000E+03	4.944124E-17	8.951435E-18
6.460000E+03	4.977104E-17	9.002752E-18
6.470000E+03	5.009855E-17	9.053512E-18
6.480000E+03	5.042475E-17	9.103890E-18
6.490000E+03	5.075061E-17	9.154063E-18
6.500000E+03	5.107564E-17	9.203938E-18
6.510000E+03	5.140163E-17	9.253842E-18
6.520000E+03	5.172891E-17	9.303828E-18
6.530000E+03	5.205697E-17	9.353802E-18
6.540000E+03	5.238769E-17	9.404105E-18
6.550000E+03	5.272057E-17	9.454643E-18
6.560000E+03	5.305503E-17	9.505308E-18
6.570000E+03	5.339302E-17	9.556450E-18
6.580000E+03	5.373395E-17	9.607960E-18
6.590000E+03	5.407808E-17	9.659884E-18
6.600000E+03	5.442654E-17	9.712419E-18
6.610000E+03	5.477777E-17	9.765286E-18
6.620000E+03	5.513195E-17	9.818518E-18
6.630000E+03	5.549106E-17	9.872462E-18
6.640000E+03	5.585341E-17	9.926818E-18
6.650000E+03	5.621910E-17	9.981598E-18
6.660000E+03	5.658909E-17	1.003698E-17
6.670000E+03	5.696248E-17	1.009279E-17
6.680000E+03	5.733923E-17	1.014903E-17
6.690000E+03	5.772028E-17	1.020586E-17
6.700000E+03	5.810356E-17	1.026292E-17
6.710000E+03	5.848894E-17	1.032018E-17
6.720000E+03	5.887828E-17	1.037797E-17
6.730000E+03	5.926939E-17	1.043591E-17
6.740000E+03	5.966203E-17	1.049395E-17
6.750000E+03	6.005702E-17	1.055224E-17
6.760000E+03	6.045304E-17	1.061055E-17
6.770000E+03	6.084981E-17	1.066883E-17
6.780000E+03	6.124703E-17	1.072704E-17
6.790000E+03	6.164434E-17	1.078510E-17
6.800000E+03	6.204032E-17	1.084278E-17
6.810000E+03	6.243571E-17	1.090021E-17
6.820000E+03	6.283013E-17	1.095733E-17
6.830000E+03	6.322210E-17	1.101388E-17
6.840000E+03	6.361237E-17	1.107000E-17
6.850000E+03	6.399940E-17	1.112544E-17
6.860000E+03	6.438282E-17	1.118012E-17
6.870000E+03	6.476224E-17	1.123400E-17
6.880000E+03	6.513610E-17	1.128680E-17
6.890000E+03	6.550647E-17	1.133890E-17
6.900000E+03	6.587182E-17	1.139003E-17
6.910000E+03	6.623061E-17	1.143995E-17
6.920000E+03	6.658377E-17	1.148882E-17
6.930000E+03	6.692975E-17	1.153639E-17
6.940000E+03	6.726825E-17	1.158260E-17
6.950000E+03	6.760025E-17	1.162766E-17
6.960000E+03	6.792422E-17	1.167129E-17
6.970000E+03	6.823986E-17	1.171348E-17
6.980000E+03	6.854694E-17	1.175417E-17
6.990000E+03	6.884522E-17	1.179335E-17
7.000000E+03	6.913315E-17	1.183078E-17
7.010000E+03	6.941325E-17	1.186688E-17
7.020000E+03	6.968270E-17	1.190119E-17
7.030000E+03	6.994137E-17	1.193372E-17
7.040000E+03	7.019059E-17	1.196469E-17
7.050000E+03	7.042896E-17	1.199388E-17
7.060000E+03	7.065652E-17	1.202132E-17
7.070000E+03	7.087335E-17	1.204703E-17
7.080000E+03	7.107959E-17	1.207107E-17
7.090000E+03	7.127689E-17	1.209371E-17
7.100000E+03	7.146270E-17	1.211454E-17
7.110000E+03	7.163733E-17	1.213364E-17
7.120000E+03	7.180268E-17	1.215134E-17
7.130000E+03	7.195924E-17	1.216774E-17
7.140000E+03	7.210613E-17	1.218270E-17
7.150000E+03	7.224545E-17	1.219660E-17
7.160000E+03	7.237495E-17	1.220907E-17
7.170000E+03	7.249831E-17	1.222075E-17
7.180000E+03	7.261485E-17	1.223154E-17
7.190000E+03	7.272540E-17	1.224159E-17
7.200000E+03	7.282931E-17	1.225080E-17
7.210000E+03	7.293045E-17	1.225985E-17
7.220000E+03	7.302667E-17	1.226839E-17
7.230000E+03	7.312033E-17	1.227682E-17
7.240000E+03	7.321067E-17	1.228504E-17
7.250000E+03	7.329994E-17	1.229342E-17
7.260000E+03	7.338716E-17	1.230184E-17
7.270000E+03	7.347282E-17	1.231037E-17
7.280000E+03	7.355876E-17	1.231934E-17
7.290000E+03	7.364358E-17	1.232854E-17
7.300000E+03	7.372885E-17	1.233823E-17
7.310000E+03	7.381124E-17	1.234788E-17
7.320000E+03	7.389204E-17	1.235772E-17
7.330000E+03	7.397242E-17	1.236795E-17
7.340000E+03	7.404868E-17	1.237797E-17
7.350000E+03	7.412186E-17	1.238797E-17
7.360000E+03	7.418976E-17	1.239760E-17
7.370000E+03	7.425343E-17	1.240704E-17
7.380000E+03	7.431072E-17	1.241596E-17
7.390000E+03	7.436115E-17	1.242428E-17
7.400000E+03	7.440435E-17	1.243196E-17
7.410000E+03	7.443843E-17	1.243869E-17
7.420000E+03	7.446326E-17	1.244447E-17
7.430000E+03	7.447885E-17	1.244932E-17
7.440000E+03	7.448536E-17	1.245326E-17
7.450000E+03	7.448473E-17	1.245665E-17
7.460000E+03	7.447578E-17	1.245928E-17
7.470000E+03	7.446238E-17	1.246182E-17
7.480000E+03	7.444524E-17	1.246440E-17
7.490000E+03	7.442510E-17	1.246716E-17
7.500000E+03	7.440273E-17	1.247023E-17
7.510000E+03	7.437891E-17	1.247376E-17
7.520000E+03	7.435743E-17	1.247839E-17
7.530000E+03	7.433490E-17	1.248355E-17
7.540000E+03	7.431287E-17	1.248949E-17
7.550000E+03	7.429117E-17	1.249616E-17
7.560000E+03	7.427129E-17	1.250382E-17
7.570000E+03	7.424962E-17	1.251184E-17
7.580000E+03	7.422772E-17	1.252047E-17
7.590000E+03	7.420551E-17	1.252968E-17
7.600000E+03	7.418469E-17	1.253977E-17
7.610000E+03	7.416185E-17	1.255012E-17
7.620000E+03	7.414054E-17	1.256134E-17
7.630000E+03	7.411919E-17	1.257315E-17
7.640000E+03	7.409621E-17	1.258526E-17
7.650000E+03	7.407537E-17	1.259831E-17
7.660000E+03	7.405519E-17	1.261203E-17
7.670000E+03	7.403595E-17	1.262646E-17
7.680000E+03	7.401792E-17	1.264164E-17
7.690000E+03	7.400141E-17	1.265759E-17
7.700000E+03	7.398662E-17	1.267437E-17
7.710000E+03	7.397557E-17	1.269228E-17
7.720000E+03	7.396475E-17	1.271074E-17
7.730000E+03	7.395784E-17	1.273035E-17
7.740000E+03	7.395302E-17	1.275080E-17
7.750000E+03	7.395020E-17	1.277206E-17
7.760000E+03	7.394921E-17	1.279409E-17
