#wls	flux	fluxerr
1.600000E+03	1.195348E-16	5.688163E-17
1.640000E+03	1.236003E-16	5.880424E-17
1.680000E+03	1.275874E-16	6.068832E-17
1.720000E+03	1.314421E-16	6.250814E-17
1.760000E+03	1.351568E-16	6.426006E-17
1.800000E+03	1.386696E-16	6.591462E-17
1.840000E+03	1.419395E-16	6.745239E-17
1.880000E+03	1.449465E-16	6.886392E-17
1.920000E+03	1.476193E-16	7.011531E-17
1.960000E+03	1.499201E-16	7.118876E-17
2.000000E+03	1.517873E-16	7.205504E-17
2.040000E+03	1.531822E-16	7.269601E-17
2.080000E+03	1.540248E-16	7.307386E-17
2.120000E+03	1.542539E-16	7.315972E-17
2.160000E+03	1.538078E-16	7.292462E-17
2.200000E+03	1.525929E-16	7.232448E-17
2.240000E+03	1.505326E-16	7.132341E-17
2.280000E+03	1.476126E-16	6.991501E-17
2.320000E+03	1.438713E-16	6.811801E-17
2.360000E+03	1.394389E-16	6.599442E-17
2.400000E+03	1.344226E-16	6.359544E-17
2.440000E+03	1.289173E-16	6.096636E-17
2.480000E+03	1.230244E-16	5.815537E-17
2.520000E+03	1.168063E-16	5.519240E-17
2.560000E+03	1.103381E-16	5.211313E-17
2.600000E+03	1.036854E-16	4.894883E-17
2.640000E+03	9.691934E-17	4.573325E-17
2.680000E+03	9.010064E-17	4.249528E-17
2.720000E+03	8.329302E-17	3.926510E-17
2.760000E+03	7.655852E-17	3.607204E-17
2.800000E+03	6.995716E-17	3.294444E-17
2.840000E+03	6.354786E-17	2.991007E-17
2.880000E+03	5.738912E-17	2.699642E-17
2.920000E+03	5.153470E-17	2.422869E-17
2.960000E+03	4.603282E-17	2.162941E-17
3.000000E+03	4.092157E-17	1.921630E-17
3.010000E+03	3.970921E-17	1.864415E-17
3.020000E+03	3.852230E-17	1.808411E-17
3.030000E+03	3.736266E-17	1.753702E-17
3.040000E+03	3.622941E-17	1.700247E-17
3.050000E+03	3.512335E-17	1.648083E-17
3.060000E+03	3.404509E-17	1.597237E-17
3.070000E+03	3.299304E-17	1.547635E-17
3.080000E+03	3.196918E-17	1.499370E-17
3.090000E+03	3.097193E-17	1.452366E-17
3.100000E+03	3.000237E-17	1.406674E-17
3.110000E+03	2.905961E-17	1.362252E-17
3.120000E+03	2.814342E-17	1.319088E-17
3.130000E+03	2.725461E-17	1.277220E-17
3.140000E+03	2.639178E-17	1.236581E-17
3.150000E+03	2.555610E-17	1.197227E-17
3.160000E+03	2.474573E-17	1.159070E-17
3.170000E+03	2.396170E-17	1.122157E-17
3.180000E+03	2.320270E-17	1.086429E-17
3.190000E+03	2.246917E-17	1.051903E-17
3.200000E+03	2.176023E-17	1.018540E-17
3.210000E+03	2.107584E-17	9.863353E-18
3.220000E+03	2.041548E-17	9.552654E-18
3.230000E+03	1.977866E-17	9.253066E-18
3.240000E+03	1.916459E-17	8.964213E-18
3.250000E+03	1.857338E-17	8.686142E-18
3.260000E+03	1.800422E-17	8.418468E-18
3.270000E+03	1.745685E-17	8.161070E-18
3.280000E+03	1.693047E-17	7.913565E-18
3.290000E+03	1.642454E-17	7.675702E-18
3.300000E+03	1.593880E-17	7.447347E-18
3.310000E+03	1.547247E-17	7.228132E-18
3.320000E+03	1.502523E-17	7.017908E-18
3.330000E+03	1.459655E-17	6.816420E-18
3.340000E+03	1.418546E-17	6.623213E-18
3.350000E+03	1.379187E-17	6.438242E-18
3.360000E+03	1.341506E-17	6.261161E-18
3.370000E+03	1.305450E-17	6.091729E-18
3.380000E+03	1.270973E-17	5.929714E-18
3.390000E+03	1.237989E-17	5.774725E-18
3.400000E+03	1.206487E-17	5.626696E-18
3.410000E+03	1.176403E-17	5.485332E-18
3.420000E+03	1.147678E-17	5.350349E-18
3.430000E+03	1.120269E-17	5.221550E-18
3.440000E+03	1.094133E-17	5.098726E-18
3.450000E+03	1.069204E-17	4.981569E-18
3.460000E+03	1.045458E-17	4.869961E-18
3.470000E+03	1.022832E-17	4.763609E-18
3.480000E+03	1.001291E-17	4.662351E-18
3.490000E+03	9.807924E-18	4.565976E-18
3.500000E+03	9.612920E-18	4.474283E-18
3.510000E+03	9.427503E-18	4.387083E-18
3.520000E+03	9.251288E-18	4.304196E-18
3.530000E+03	9.083816E-18	4.225404E-18
3.540000E+03	8.924655E-18	4.150506E-18
3.550000E+03	8.773494E-18	4.079353E-18
3.560000E+03	8.629949E-18	4.011766E-18
3.570000E+03	8.493749E-18	3.947617E-18
3.580000E+03	8.364458E-18	3.886700E-18
3.590000E+03	8.241844E-18	3.828907E-18
3.600000E+03	8.125599E-18	3.774093E-18
3.610000E+03	8.015594E-18	3.722195E-18
3.620000E+03	7.911468E-18	3.673045E-18
3.630000E+03	7.813031E-18	3.626552E-18
3.640000E+03	7.719882E-18	3.582530E-18
3.650000E+03	7.631860E-18	3.540901E-18
3.660000E+03	7.548740E-18	3.501560E-18
3.670000E+03	7.470306E-18	3.464406E-18
3.680000E+03	7.396421E-18	3.429374E-18
3.690000E+03	7.326950E-18	3.396399E-18
3.700000E+03	7.261696E-18	3.365389E-18
3.710000E+03	7.200598E-18	3.336316E-18
3.720000E+03	7.143468E-18	3.309089E-18
3.730000E+03	7.090309E-18	3.283710E-18
3.740000E+03	7.040997E-18	3.260121E-18
3.750000E+03	6.995411E-18	3.238263E-18
3.760000E+03	6.953493E-18	3.218108E-18
3.770000E+03	6.915241E-18	3.199656E-18
3.780000E+03	6.880534E-18	3.182848E-18
3.790000E+03	6.849370E-18	3.167684E-18
3.800000E+03	6.821629E-18	3.154104E-18
3.810000E+03	6.797248E-18	3.142081E-18
3.820000E+03	6.776223E-18	3.131611E-18
3.830000E+03	6.758548E-18	3.122691E-18
3.840000E+03	6.744103E-18	3.115262E-18
3.850000E+03	6.732939E-18	3.109349E-18
3.860000E+03	6.724881E-18	3.104869E-18
3.870000E+03	6.720031E-18	3.101868E-18
3.880000E+03	6.718218E-18	3.100266E-18
3.890000E+03	6.719543E-18	3.100110E-18
3.900000E+03	6.723891E-18	3.101343E-18
3.910000E+03	6.731252E-18	3.103962E-18
3.920000E+03	6.741564E-18	3.107936E-18
3.930000E+03	6.754820E-18	3.113262E-18
3.940000E+03	6.770960E-18	3.119909E-18
3.950000E+03	6.790029E-18	3.127900E-18
3.960000E+03	6.811912E-18	3.137178E-18
3.970000E+03	6.836604E-18	3.147741E-18
3.980000E+03	6.864044E-18	3.159559E-18
3.990000E+03	6.894279E-18	3.172654E-18
4.000000E+03	6.927250E-18	3.186998E-18
4.010000E+03	6.962900E-18	3.202562E-18
4.020000E+03	7.001166E-18	3.219317E-18
4.030000E+03	7.042104E-18	3.237287E-18
4.040000E+03	7.085596E-18	3.256419E-18
4.050000E+03	7.131700E-18	3.276735E-18
4.060000E+03	7.180299E-18	3.298184E-18
4.070000E+03	7.231395E-18	3.320764E-18
4.080000E+03	7.284988E-18	3.344474E-18
4.090000E+03	7.341023E-18	3.369288E-18
4.100000E+03	7.399446E-18	3.395180E-18
4.110000E+03	7.460200E-18	3.422123E-18
4.120000E+03	7.523350E-18	3.450147E-18
4.130000E+03	7.588785E-18	3.479198E-18
4.140000E+03	7.656511E-18	3.509280E-18
4.150000E+03	7.726417E-18	3.540339E-18
4.160000E+03	7.798510E-18	3.572379E-18
4.170000E+03	7.872801E-18	3.605404E-18
4.180000E+03	7.949177E-18	3.639360E-18
4.190000E+03	8.027652E-18	3.674254E-18
4.200000E+03	8.108112E-18	3.710032E-18
4.210000E+03	8.190570E-18	3.746699E-18
4.220000E+03	8.274910E-18	3.784202E-18
4.230000E+03	8.361148E-18	3.822547E-18
4.240000E+03	8.449164E-18	3.861678E-18
4.250000E+03	8.538908E-18	3.901572E-18
4.260000E+03	8.630255E-18	3.942170E-18
4.270000E+03	8.723218E-18	3.983479E-18
4.280000E+03	8.817672E-18	4.025438E-18
4.290000E+03	8.913555E-18	4.068022E-18
4.300000E+03	9.010734E-18	4.111167E-18
4.310000E+03	9.109072E-18	4.154810E-18
4.320000E+03	9.208497E-18	4.198919E-18
4.330000E+03	9.308938E-18	4.243460E-18
4.340000E+03	9.410240E-18	4.288362E-18
4.350000E+03	9.512324E-18	4.333589E-18
4.360000E+03	9.615028E-18	4.379066E-18
4.370000E+03	9.718337E-18	4.424786E-18
4.380000E+03	9.822159E-18	4.470708E-18
4.390000E+03	9.926640E-18	4.516896E-18
4.400000E+03	1.003169E-17	4.563310E-18
4.410000E+03	1.013737E-17	4.609980E-18
4.420000E+03	1.024369E-17	4.656902E-18
4.430000E+03	1.035080E-17	4.704151E-18
4.440000E+03	1.045861E-17	4.751685E-18
4.450000E+03	1.056713E-17	4.799506E-18
4.460000E+03	1.067644E-17	4.847652E-18
4.470000E+03	1.078655E-17	4.896127E-18
4.480000E+03	1.089748E-17	4.944934E-18
4.490000E+03	1.100913E-17	4.994038E-18
4.500000E+03	1.112163E-17	5.043484E-18
4.510000E+03	1.123489E-17	5.093242E-18
4.520000E+03	1.134892E-17	5.143315E-18
4.530000E+03	1.146376E-17	5.193712E-18
4.540000E+03	1.157923E-17	5.244359E-18
4.550000E+03	1.169545E-17	5.295311E-18
4.560000E+03	1.181237E-17	5.346538E-18
4.570000E+03	1.193002E-17	5.398055E-18
4.580000E+03	1.204822E-17	5.449782E-18
4.590000E+03	1.216712E-17	5.501788E-18
4.600000E+03	1.228655E-17	5.553995E-18
4.610000E+03	1.240667E-17	5.606472E-18
4.620000E+03	1.252733E-17	5.659148E-18
4.630000E+03	1.264856E-17	5.712045E-18
4.640000E+03	1.277034E-17	5.765147E-18
4.650000E+03	1.289283E-17	5.818531E-18
4.660000E+03	1.301589E-17	5.872130E-18
4.670000E+03	1.313972E-17	5.926031E-18
4.680000E+03	1.326429E-17	5.980225E-18
4.690000E+03	1.338958E-17	6.034700E-18
4.700000E+03	1.351581E-17	6.089554E-18
4.710000E+03	1.364286E-17	6.144731E-18
4.720000E+03	1.377082E-17	6.200277E-18
4.730000E+03	1.389959E-17	6.256141E-18
4.740000E+03	1.402927E-17	6.312368E-18
4.750000E+03	1.415962E-17	6.368853E-18
4.760000E+03	1.429075E-17	6.425641E-18
4.770000E+03	1.442255E-17	6.482682E-18
4.780000E+03	1.455514E-17	6.540030E-18
4.790000E+03	1.468839E-17	6.597632E-18
4.800000E+03	1.482231E-17	6.655481E-18
4.810000E+03	1.495688E-17	6.713578E-18
4.820000E+03	1.509213E-17	6.771927E-18
4.830000E+03	1.522804E-17	6.830525E-18
4.840000E+03	1.536447E-17	6.889309E-18
4.850000E+03	1.550156E-17	6.948336E-18
4.860000E+03	1.563931E-17	7.007606E-18
4.870000E+03	1.577755E-17	7.067048E-18
4.880000E+03	1.591627E-17	7.126652E-18
4.890000E+03	1.605561E-17	7.186484E-18
4.900000E+03	1.619524E-17	7.246391E-18
4.910000E+03	1.633543E-17	7.306496E-18
4.920000E+03	1.647598E-17	7.366712E-18
4.930000E+03	1.661671E-17	7.426953E-18
4.940000E+03	1.675772E-17	7.487265E-18
4.950000E+03	1.689893E-17	7.547616E-18
4.960000E+03	1.704013E-17	7.607907E-18
4.970000E+03	1.718138E-17	7.668166E-18
4.980000E+03	1.732229E-17	7.728216E-18
4.990000E+03	1.746307E-17	7.788154E-18
5.000000E+03	1.760342E-17	7.847848E-18
5.010000E+03	1.774307E-17	7.907176E-18
5.020000E+03	1.788203E-17	7.966142E-18
5.030000E+03	1.801999E-17	8.024604E-18
5.040000E+03	1.815677E-17	8.082486E-18
5.050000E+03	1.829219E-17	8.139712E-18
5.060000E+03	1.842605E-17	8.196190E-18
5.070000E+03	1.855798E-17	8.251753E-18
5.080000E+03	1.868793E-17	8.306384E-18
5.090000E+03	1.881548E-17	8.359895E-18
5.100000E+03	1.894040E-17	8.412186E-18
5.110000E+03	1.906224E-17	8.463056E-18
5.120000E+03	1.918092E-17	8.512476E-18
5.130000E+03	1.929579E-17	8.560156E-18
5.140000E+03	1.940694E-17	8.606135E-18
5.150000E+03	1.951370E-17	8.650124E-18
5.160000E+03	1.961597E-17	8.692071E-18
5.170000E+03	1.971325E-17	8.731768E-18
5.180000E+03	1.980504E-17	8.768990E-18
5.190000E+03	1.989123E-17	8.803691E-18
5.200000E+03	1.997131E-17	8.835652E-18
5.210000E+03	2.004500E-17	8.864745E-18
5.220000E+03	2.011200E-17	8.890848E-18
5.230000E+03	2.017180E-17	8.913736E-18
5.240000E+03	2.022415E-17	8.933306E-18
5.250000E+03	2.026859E-17	8.949350E-18
5.260000E+03	2.030506E-17	8.961851E-18
5.270000E+03	2.033315E-17	8.970636E-18
5.280000E+03	2.035266E-17	8.975617E-18
5.290000E+03	2.036342E-17	8.976723E-18
5.300000E+03	2.036509E-17	8.973810E-18
5.310000E+03	2.035757E-17	8.966841E-18
5.320000E+03	2.034081E-17	8.955795E-18
5.330000E+03	2.031478E-17	8.940666E-18
5.340000E+03	2.027930E-17	8.921382E-18
5.350000E+03	2.023468E-17	8.898079E-18
5.360000E+03	2.018101E-17	8.870808E-18
5.370000E+03	2.011849E-17	8.839659E-18
5.380000E+03	2.004715E-17	8.804651E-18
5.390000E+03	1.996768E-17	8.766089E-18
5.400000E+03	1.988024E-17	8.724048E-18
5.410000E+03	1.978561E-17	8.678879E-18
5.420000E+03	1.968405E-17	8.630698E-18
5.430000E+03	1.957626E-17	8.579815E-18
5.440000E+03	1.946277E-17	8.526468E-18
5.450000E+03	1.934459E-17	8.471100E-18
5.460000E+03	1.922212E-17	8.413893E-18
5.470000E+03	1.909586E-17	8.355061E-18
5.480000E+03	1.896612E-17	8.294751E-18
5.490000E+03	1.883365E-17	8.233283E-18
5.500000E+03	1.869880E-17	8.170821E-18
5.510000E+03	1.856218E-17	8.107628E-18
5.520000E+03	1.842438E-17	8.043964E-18
5.530000E+03	1.828601E-17	7.980099E-18
5.540000E+03	1.814769E-17	7.916297E-18
5.550000E+03	1.801020E-17	7.852905E-18
5.560000E+03	1.787412E-17	7.790172E-18
5.570000E+03	1.774039E-17	7.728512E-18
5.580000E+03	1.760939E-17	7.668081E-18
5.590000E+03	1.748215E-17	7.609329E-18
5.600000E+03	1.735899E-17	7.552398E-18
5.610000E+03	1.724071E-17	7.497630E-18
5.620000E+03	1.712808E-17	7.445357E-18
5.630000E+03	1.702128E-17	7.395656E-18
5.640000E+03	1.692135E-17	7.348970E-18
5.650000E+03	1.682855E-17	7.305417E-18
5.660000E+03	1.674317E-17	7.265110E-18
5.670000E+03	1.666606E-17	7.228421E-18
5.680000E+03	1.659724E-17	7.195351E-18
5.690000E+03	1.653719E-17	7.166100E-18
5.700000E+03	1.648633E-17	7.140851E-18
5.710000E+03	1.644488E-17	7.119693E-18
5.720000E+03	1.641309E-17	7.102722E-18
5.730000E+03	1.639110E-17	7.090000E-18
5.740000E+03	1.637925E-17	7.081666E-18
5.750000E+03	1.637785E-17	7.077848E-18
5.760000E+03	1.638665E-17	7.078435E-18
5.770000E+03	1.640630E-17	7.083698E-18
5.780000E+03	1.643652E-17	7.093509E-18
5.790000E+03	1.647774E-17	7.108053E-18
5.800000E+03	1.652986E-17	7.127275E-18
5.810000E+03	1.659310E-17	7.151267E-18
5.820000E+03	1.666755E-17	7.180056E-18
5.830000E+03	1.675340E-17	7.213724E-18
5.840000E+03	1.685054E-17	7.252215E-18
5.850000E+03	1.695900E-17	7.295530E-18
5.860000E+03	1.707900E-17	7.343761E-18
5.870000E+03	1.721074E-17	7.396992E-18
5.880000E+03	1.735387E-17	7.455058E-18
5.890000E+03	1.750879E-17	7.518130E-18
5.900000E+03	1.767532E-17	7.586116E-18
5.910000E+03	1.785361E-17	7.659083E-18
5.920000E+03	1.804367E-17	7.737022E-18
5.930000E+03	1.824526E-17	7.819825E-18
5.940000E+03	1.845850E-17	7.907539E-18
5.950000E+03	1.868334E-17	8.000130E-18
5.960000E+03	1.891946E-17	8.097459E-18
5.970000E+03	1.916716E-17	8.199644E-18
5.980000E+03	1.942585E-17	8.306432E-18
5.990000E+03	1.969556E-17	8.417826E-18
6.000000E+03	1.997608E-17	8.533726E-18
6.010000E+03	2.026692E-17	8.653923E-18
6.020000E+03	2.056801E-17	8.778380E-18
6.030000E+03	2.087855E-17	8.906746E-18
6.040000E+03	2.119862E-17	9.039052E-18
6.050000E+03	2.152733E-17	9.174910E-18
6.060000E+03	2.186442E-17	9.314212E-18
6.070000E+03	2.220915E-17	9.456632E-18
6.080000E+03	2.256093E-17	9.601914E-18
6.090000E+03	2.291890E-17	9.749691E-18
6.100000E+03	2.328209E-17	9.899548E-18
6.110000E+03	2.365009E-17	1.005131E-17
6.120000E+03	2.402131E-17	1.020429E-17
6.130000E+03	2.439521E-17	1.035827E-17
6.140000E+03	2.477039E-17	1.051264E-17
6.150000E+03	2.514600E-17	1.066705E-17
6.160000E+03	2.551991E-17	1.082059E-17
6.170000E+03	2.589152E-17	1.097302E-17
6.180000E+03	2.625892E-17	1.112352E-17
6.190000E+03	2.662087E-17	1.127157E-17
6.200000E+03	2.697578E-17	1.141651E-17
6.210000E+03	2.732345E-17	1.155824E-17
6.220000E+03	2.766413E-17	1.169689E-17
6.230000E+03	2.799818E-17	1.183262E-17
6.240000E+03	2.832612E-17	1.196563E-17
6.250000E+03	2.864745E-17	1.209574E-17
6.260000E+03	2.896364E-17	1.222356E-17
6.270000E+03	2.927399E-17	1.234880E-17
6.280000E+03	2.957941E-17	1.247186E-17
6.290000E+03	2.988052E-17	1.259298E-17
6.300000E+03	3.017683E-17	1.271198E-17
6.310000E+03	3.046909E-17	1.282917E-17
6.320000E+03	3.075770E-17	1.294471E-17
6.330000E+03	3.104313E-17	1.305883E-17
6.340000E+03	3.132505E-17	1.317136E-17
6.350000E+03	3.160399E-17	1.328255E-17
6.360000E+03	3.188009E-17	1.339244E-17
6.370000E+03	3.215350E-17	1.350111E-17
6.380000E+03	3.242395E-17	1.360844E-17
6.390000E+03	3.269115E-17	1.371432E-17
6.400000E+03	3.295477E-17	1.381860E-17
6.410000E+03	3.321499E-17	1.392137E-17
6.420000E+03	3.347147E-17	1.402248E-17
6.430000E+03	3.372291E-17	1.412139E-17
6.440000E+03	3.397086E-17	1.421876E-17
6.450000E+03	3.421550E-17	1.431466E-17
6.460000E+03	3.445751E-17	1.440938E-17
6.470000E+03	3.469809E-17	1.450341E-17
6.480000E+03	3.493695E-17	1.459665E-17
6.490000E+03	3.517535E-17	1.468962E-17
6.500000E+03	3.541354E-17	1.478241E-17
6.510000E+03	3.565228E-17	1.487536E-17
6.520000E+03	3.589072E-17	1.496811E-17
6.530000E+03	3.613078E-17	1.506144E-17
6.540000E+03	3.637156E-17	1.515500E-17
6.550000E+03	3.661383E-17	1.524910E-17
6.560000E+03	3.685786E-17	1.534385E-17
6.570000E+03	3.710325E-17	1.543909E-17
6.580000E+03	3.735081E-17	1.553515E-17
6.590000E+03	3.760072E-17	1.563210E-17
6.600000E+03	3.785257E-17	1.572977E-17
6.610000E+03	3.810654E-17	1.582825E-17
6.620000E+03	3.836275E-17	1.592757E-17
6.630000E+03	3.862200E-17	1.602806E-17
6.640000E+03	3.888316E-17	1.612927E-17
6.650000E+03	3.914696E-17	1.623148E-17
6.660000E+03	3.941352E-17	1.633475E-17
6.670000E+03	3.968229E-17	1.643885E-17
6.680000E+03	3.995400E-17	1.654408E-17
6.690000E+03	4.022802E-17	1.665018E-17
6.700000E+03	4.050513E-17	1.675746E-17
6.710000E+03	4.078397E-17	1.686537E-17
6.720000E+03	4.106523E-17	1.697419E-17
6.730000E+03	4.134967E-17	1.708424E-17
6.740000E+03	4.163587E-17	1.719492E-17
6.750000E+03	4.192450E-17	1.730651E-17
6.760000E+03	4.221485E-17	1.741872E-17
6.770000E+03	4.250759E-17	1.753182E-17
6.780000E+03	4.280195E-17	1.764550E-17
6.790000E+03	4.309784E-17	1.775972E-17
6.800000E+03	4.339599E-17	1.787477E-17
6.810000E+03	4.369477E-17	1.798999E-17
6.820000E+03	4.399563E-17	1.810597E-17
6.830000E+03	4.429690E-17	1.822203E-17
6.840000E+03	4.460010E-17	1.833878E-17
6.850000E+03	4.490345E-17	1.845551E-17
6.860000E+03	4.520684E-17	1.857216E-17
6.870000E+03	4.551094E-17	1.868902E-17
6.880000E+03	4.581563E-17	1.880601E-17
6.890000E+03	4.611903E-17	1.892239E-17
6.900000E+03	4.642270E-17	1.903880E-17
6.910000E+03	4.672561E-17	1.915480E-17
6.920000E+03	4.702847E-17	1.927069E-17
6.930000E+03	4.732933E-17	1.938568E-17
6.940000E+03	4.762890E-17	1.950005E-17
6.950000E+03	4.792700E-17	1.961373E-17
6.960000E+03	4.822254E-17	1.972629E-17
6.970000E+03	4.851625E-17	1.983801E-17
6.980000E+03	4.880796E-17	1.994884E-17
6.990000E+03	4.909659E-17	2.005833E-17
7.000000E+03	4.938193E-17	2.016640E-17
7.010000E+03	4.966385E-17	2.027299E-17
7.020000E+03	4.994316E-17	2.037846E-17
7.030000E+03	5.021778E-17	2.048193E-17
7.040000E+03	5.048957E-17	2.058419E-17
7.050000E+03	5.075641E-17	2.068436E-17
7.060000E+03	5.101920E-17	2.078282E-17
7.070000E+03	5.127687E-17	2.087913E-17
7.080000E+03	5.153036E-17	2.097368E-17
7.090000E+03	5.177961E-17	2.106646E-17
7.100000E+03	5.202358E-17	2.115703E-17
7.110000E+03	5.226116E-17	2.124495E-17
7.120000E+03	5.249446E-17	2.133109E-17
7.130000E+03	5.272242E-17	2.141501E-17
7.140000E+03	5.294506E-17	2.149673E-17
7.150000E+03	5.316242E-17	2.157627E-17
7.160000E+03	5.337343E-17	2.165320E-17
7.170000E+03	5.357925E-17	2.172799E-17
7.180000E+03	5.377881E-17	2.180021E-17
7.190000E+03	5.397216E-17	2.186990E-17
7.200000E+03	5.416049E-17	2.193752E-17
7.210000E+03	5.434275E-17	2.200267E-17
7.220000E+03	5.452014E-17	2.206583E-17
7.230000E+03	5.469045E-17	2.212611E-17
7.240000E+03	5.485488E-17	2.218400E-17
7.250000E+03	5.501351E-17	2.223954E-17
7.260000E+03	5.516638E-17	2.229275E-17
7.270000E+03	5.531356E-17	2.234366E-17
7.280000E+03	5.545512E-17	2.239230E-17
7.290000E+03	5.558993E-17	2.243822E-17
7.300000E+03	5.571921E-17	2.248193E-17
7.310000E+03	5.584305E-17	2.252344E-17
7.320000E+03	5.596148E-17	2.256280E-17
7.330000E+03	5.607336E-17	2.259953E-17
7.340000E+03	5.617995E-17	2.263415E-17
7.350000E+03	5.628256E-17	2.266719E-17
7.360000E+03	5.637883E-17	2.269771E-17
7.370000E+03	5.647002E-17	2.272621E-17
7.380000E+03	5.655625E-17	2.275275E-17
7.390000E+03	5.663889E-17	2.277789E-17
7.400000E+03	5.671677E-17	2.280115E-17
7.410000E+03	5.679131E-17	2.282310E-17
7.420000E+03	5.686392E-17	2.284433E-17
7.430000E+03	5.693349E-17	2.286438E-17
7.440000E+03	5.700277E-17	2.288436E-17
7.450000E+03	5.706934E-17	2.290331E-17
7.460000E+03	5.713470E-17	2.292183E-17
7.470000E+03	5.719773E-17	2.293945E-17
7.480000E+03	5.725988E-17	2.295679E-17
7.490000E+03	5.731871E-17	2.297286E-17
7.500000E+03	5.737566E-17	2.298823E-17
7.510000E+03	5.743089E-17	2.300297E-17
7.520000E+03	5.748315E-17	2.301659E-17
7.530000E+03	5.753528E-17	2.303023E-17
7.540000E+03	5.758470E-17	2.304284E-17
7.550000E+03	5.763282E-17	2.305501E-17
7.560000E+03	5.767840E-17	2.306623E-17
7.570000E+03	5.772282E-17	2.307705E-17
7.580000E+03	5.776476E-17	2.308694E-17
7.590000E+03	5.780562E-17	2.309648E-17
7.600000E+03	5.784400E-17	2.310509E-17
7.610000E+03	5.787992E-17	2.311278E-17
7.620000E+03	5.791473E-17	2.312011E-17
7.630000E+03	5.794699E-17	2.312648E-17
7.640000E+03	5.797667E-17	2.313189E-17
7.650000E+03	5.800509E-17	2.313687E-17
7.660000E+03	5.803077E-17	2.314083E-17
7.670000E+03	5.805504E-17	2.314429E-17
7.680000E+03	5.807496E-17	2.314609E-17
7.690000E+03	5.809324E-17	2.314730E-17
7.700000E+03	5.810979E-17	2.314789E-17
7.710000E+03	5.812301E-17	2.314723E-17
7.720000E+03	5.813420E-17	2.314583E-17
7.730000E+03	5.814175E-17	2.314306E-17
7.740000E+03	5.814550E-17	2.313884E-17
7.750000E+03	5.814671E-17	2.313368E-17
7.760000E+03	5.814521E-17	2.312751E-17
