#wls	flux	fluxerr
1.600000E+03	9.467590E-17	1.855590E-16
1.640000E+03	9.328080E-17	1.833090E-16
1.680000E+03	9.179584E-17	1.808714E-16
1.720000E+03	9.017985E-17	1.781659E-16
1.760000E+03	8.847627E-17	1.752739E-16
1.800000E+03	8.664411E-17	1.721138E-16
1.840000E+03	8.472482E-17	1.687644E-16
1.880000E+03	8.268605E-17	1.651600E-16
1.920000E+03	8.057329E-17	1.613890E-16
1.960000E+03	7.834102E-17	1.573578E-16
2.000000E+03	7.603908E-17	1.531654E-16
2.040000E+03	7.362594E-17	1.487245E-16
2.080000E+03	7.113834E-17	1.441094E-16
2.120000E+03	6.855183E-17	1.392657E-16
2.160000E+03	6.588935E-17	1.342413E-16
2.200000E+03	6.311446E-17	1.289562E-16
2.240000E+03	6.024876E-17	1.234563E-16
2.280000E+03	5.724130E-17	1.176302E-16
2.320000E+03	5.418201E-17	1.116654E-16
2.360000E+03	5.110270E-17	1.056207E-16
2.400000E+03	4.806185E-17	9.962267E-17
2.440000E+03	4.506222E-17	9.367094E-17
2.480000E+03	4.214060E-17	8.784937E-17
2.520000E+03	3.929262E-17	8.214306E-17
2.560000E+03	3.653965E-17	7.660512E-17
2.600000E+03	3.387601E-17	7.121786E-17
2.640000E+03	3.131796E-17	6.602452E-17
2.680000E+03	2.885941E-17	6.100656E-17
2.720000E+03	2.651127E-17	5.619651E-17
2.760000E+03	2.427094E-17	5.158331E-17
2.800000E+03	2.214409E-17	4.718853E-17
2.840000E+03	2.012829E-17	4.300180E-17
2.880000E+03	1.823037E-17	3.904711E-17
2.920000E+03	1.645263E-17	3.532455E-17
2.960000E+03	1.480141E-17	3.185704E-17
2.993873E+03	8.219285E-17	1.772497E-16
3.006473E+03	8.140900E-17	1.756880E-16
3.023874E+03	8.024853E-17	1.733528E-16
3.027274E+03	8.009594E-17	1.730563E-16
3.028274E+03	8.010984E-17	1.730959E-16
3.033275E+03	7.982853E-17	1.725359E-16
3.035674E+03	7.970398E-17	1.722894E-16
3.040275E+03	7.943338E-17	1.717480E-16
3.043075E+03	7.927565E-17	1.714333E-16
3.043475E+03	7.929504E-17	1.714790E-16
3.045075E+03	7.923762E-17	1.713697E-16
3.047875E+03	7.909167E-17	1.710802E-16
3.048075E+03	7.913052E-17	1.711661E-16
3.048275E+03	7.913426E-17	1.711761E-16
3.048475E+03	7.913804E-17	1.711861E-16
3.051275E+03	7.895712E-17	1.708208E-16
3.051475E+03	7.895504E-17	1.708181E-16
3.052075E+03	7.891382E-17	1.707345E-16
3.053076E+03	7.888582E-17	1.706832E-16
3.053876E+03	7.883089E-17	1.705717E-16
3.055876E+03	7.868209E-17	1.702681E-16
3.056676E+03	7.862147E-17	1.701443E-16
3.056876E+03	7.860201E-17	1.701040E-16
3.057476E+03	7.855513E-17	1.700081E-16
3.057676E+03	7.852404E-17	1.699426E-16
3.058276E+03	7.848879E-17	1.698718E-16
3.059276E+03	7.843200E-17	1.697580E-16
3.060075E+03	7.834270E-17	1.695720E-16
3.061276E+03	7.821449E-17	1.693054E-16
3.062476E+03	7.811540E-17	1.691018E-16
3.062676E+03	7.806139E-17	1.689867E-16
3.063076E+03	7.799378E-17	1.688440E-16
3.064676E+03	7.786197E-17	1.685731E-16
3.065476E+03	7.777311E-17	1.683879E-16
3.066076E+03	7.767485E-17	1.681805E-16
3.066876E+03	7.758038E-17	1.679832E-16
3.067476E+03	7.747088E-17	1.677514E-16
3.068077E+03	7.736704E-17	1.675320E-16
3.069077E+03	7.722498E-17	1.672332E-16
3.069677E+03	7.710998E-17	1.669895E-16
3.070277E+03	7.698934E-17	1.667336E-16
3.070477E+03	7.689567E-17	1.665325E-16
3.073876E+03	7.658767E-17	1.658954E-16
3.074076E+03	7.648859E-17	1.656825E-16
3.074276E+03	7.638959E-17	1.654698E-16
3.074476E+03	7.629057E-17	1.652571E-16
3.075076E+03	7.615928E-17	1.649779E-16
3.075877E+03	7.600902E-17	1.646594E-16
3.076077E+03	7.589882E-17	1.644224E-16
3.076277E+03	7.578860E-17	1.641853E-16
3.077277E+03	7.561983E-17	1.638284E-16
3.078277E+03	7.544563E-17	1.634596E-16
3.079077E+03	7.527910E-17	1.631056E-16
3.079477E+03	7.513905E-17	1.628056E-16
3.080477E+03	7.494839E-17	1.624011E-16
3.080677E+03	7.480468E-17	1.620914E-16
3.080877E+03	7.466102E-17	1.617818E-16
3.081077E+03	7.451172E-17	1.614599E-16
3.081277E+03	7.436247E-17	1.611382E-16
3.081877E+03	7.418160E-17	1.607514E-16
3.082077E+03	7.402683E-17	1.604176E-16
3.082477E+03	7.385349E-17	1.600454E-16
3.082677E+03	7.369321E-17	1.596997E-16
3.083077E+03	7.351439E-17	1.593155E-16
3.084677E+03	7.325302E-17	1.587624E-16
3.084877E+03	7.308180E-17	1.583930E-16
3.085477E+03	7.288504E-17	1.579715E-16
3.085877E+03	7.270691E-17	1.575887E-16
3.086077E+03	7.253028E-17	1.572075E-16
3.086677E+03	7.232836E-17	1.567747E-16
3.086877E+03	7.212929E-17	1.563449E-16
3.087077E+03	7.194726E-17	1.559519E-16
3.088277E+03	7.171371E-17	1.554554E-16
3.088477E+03	7.152065E-17	1.550385E-16
3.088677E+03	7.134460E-17	1.546585E-16
3.090278E+03	7.106433E-17	1.540638E-16
3.090478E+03	7.087738E-17	1.536601E-16
3.090878E+03	7.066115E-17	1.531945E-16
3.091078E+03	7.044620E-17	1.527300E-16
3.091678E+03	7.020105E-17	1.522033E-16
3.092878E+03	6.991374E-17	1.515898E-16
3.093078E+03	6.971052E-17	1.511507E-16
3.093278E+03	6.948487E-17	1.506630E-16
3.093878E+03	6.927991E-17	1.502232E-16
3.094078E+03	6.904886E-17	1.497238E-16
3.094478E+03	6.882828E-17	1.492486E-16
3.095077E+03	6.857908E-17	1.487128E-16
3.095477E+03	6.833077E-17	1.481774E-16
3.095677E+03	6.807784E-17	1.476304E-16
3.096677E+03	6.782209E-17	1.470834E-16
3.096877E+03	6.758627E-17	1.465735E-16
3.097077E+03	6.733932E-17	1.460395E-16
3.097277E+03	6.708125E-17	1.454813E-16
3.097477E+03	6.684568E-17	1.449719E-16
3.097677E+03	6.658222E-17	1.444020E-16
3.098078E+03	6.630151E-17	1.437962E-16
3.098678E+03	6.602068E-17	1.431915E-16
3.098878E+03	6.574084E-17	1.425860E-16
3.099478E+03	6.545484E-17	1.419701E-16
3.099678E+03	6.519766E-17	1.414137E-16
3.100078E+03	6.492352E-17	1.408220E-16
3.100278E+03	6.466656E-17	1.402661E-16
3.101478E+03	6.432521E-17	1.395343E-16
3.101678E+03	6.403516E-17	1.389065E-16
3.101878E+03	6.373409E-17	1.382548E-16
3.102278E+03	6.342198E-17	1.375806E-16
3.102478E+03	6.312670E-17	1.369415E-16
3.103478E+03	6.277626E-17	1.361882E-16
3.103678E+03	6.247030E-17	1.355258E-16
3.103878E+03	6.216444E-17	1.348637E-16
3.104078E+03	6.185869E-17	1.342017E-16
3.105479E+03	6.148803E-17	1.334071E-16
3.106079E+03	6.116129E-17	1.327023E-16
3.106878E+03	6.081867E-17	1.319642E-16
3.107079E+03	6.050280E-17	1.312802E-16
3.108478E+03	6.012915E-17	1.304787E-16
3.108878E+03	5.980332E-17	1.297743E-16
3.109278E+03	5.947216E-17	1.290583E-16
3.109478E+03	5.915163E-17	1.283641E-16
3.110278E+03	5.880021E-17	1.276066E-16
3.110478E+03	5.848007E-17	1.269131E-16
3.110678E+03	5.816558E-17	1.262319E-16
3.110878E+03	5.785125E-17	1.255510E-16
3.111078E+03	5.751488E-17	1.248223E-16
3.111278E+03	5.717309E-17	1.240818E-16
3.112278E+03	5.681349E-17	1.233076E-16
3.113079E+03	5.643677E-17	1.224949E-16
3.114279E+03	5.606293E-17	1.216908E-16
3.114479E+03	5.574988E-17	1.210125E-16
3.114679E+03	5.542590E-17	1.203105E-16
3.115479E+03	5.506302E-17	1.195277E-16
3.115679E+03	5.470426E-17	1.187501E-16
3.117079E+03	5.429748E-17	1.178753E-16
3.117679E+03	5.392965E-17	1.170803E-16
3.117879E+03	5.358654E-17	1.163366E-16
3.119278E+03	5.319775E-17	1.155006E-16
3.121079E+03	5.275497E-17	1.145496E-16
3.121279E+03	5.240376E-17	1.137881E-16
3.121479E+03	5.203295E-17	1.129841E-16
3.123679E+03	5.158543E-17	1.120246E-16
3.124879E+03	5.117474E-17	1.111394E-16
3.125079E+03	5.081948E-17	1.103690E-16
3.125479E+03	5.045273E-17	1.095746E-16
3.125679E+03	5.009123E-17	1.087906E-16
3.126879E+03	4.968220E-17	1.079087E-16
3.127079E+03	4.931473E-17	1.071116E-16
3.127479E+03	4.893550E-17	1.062900E-16
3.129480E+03	4.848519E-17	1.053223E-16
3.129680E+03	4.810952E-17	1.045073E-16
3.130480E+03	4.770541E-17	1.036336E-16
3.130680E+03	4.732261E-17	1.028030E-16
3.131079E+03	4.692786E-17	1.019475E-16
3.131680E+03	4.652180E-17	1.010683E-16
3.131880E+03	4.613852E-17	1.002366E-16
3.132079E+03	4.573857E-17	9.936870E-17
3.133279E+03	4.529975E-17	9.842116E-17
3.133679E+03	4.492874E-17	9.761700E-17
3.134479E+03	4.451302E-17	9.671755E-17
3.135280E+03	4.408591E-17	9.579328E-17
3.135480E+03	4.369448E-17	9.494369E-17
3.135680E+03	4.333565E-17	9.416490E-17
3.135880E+03	4.294340E-17	9.331350E-17
3.136080E+03	4.255346E-17	9.246709E-17
3.137280E+03	4.210641E-17	9.150101E-17
3.137480E+03	4.169926E-17	9.061713E-17
3.139680E+03	4.121281E-17	8.956964E-17
3.140080E+03	4.082693E-17	8.873271E-17
3.141480E+03	4.037380E-17	8.775385E-17
3.141880E+03	3.996567E-17	8.686845E-17
3.143081E+03	3.954161E-17	8.595172E-17
3.143680E+03	3.911132E-17	8.501887E-17
3.144081E+03	3.870167E-17	8.413003E-17
3.144480E+03	3.829990E-17	8.325825E-17
3.145080E+03	3.789649E-17	8.238368E-17
3.146080E+03	3.747164E-17	8.146403E-17
3.146280E+03	3.708394E-17	8.062195E-17
3.147080E+03	3.666618E-17	7.971678E-17
3.147280E+03	3.628753E-17	7.889431E-17
3.147680E+03	3.590051E-17	7.805438E-17
3.148280E+03	3.548500E-17	7.715322E-17
3.149680E+03	3.504401E-17	7.619952E-17
3.150081E+03	3.462507E-17	7.529003E-17
3.151081E+03	3.421496E-17	7.440184E-17
3.151281E+03	3.379218E-17	7.348317E-17
3.152081E+03	3.337472E-17	7.257817E-17
3.152481E+03	3.298445E-17	7.173084E-17
3.152681E+03	3.258105E-17	7.085424E-17
3.153681E+03	3.213421E-17	6.988583E-17
3.153881E+03	3.176545E-17	6.908450E-17
3.154081E+03	3.136062E-17	6.820472E-17
3.154481E+03	3.092598E-17	6.726072E-17
3.156480E+03	3.050101E-17	6.634277E-17
3.157080E+03	3.007869E-17	6.542603E-17
3.158881E+03	2.962469E-17	6.444402E-17
3.161481E+03	2.914398E-17	6.340608E-17
3.161681E+03	2.873542E-17	6.251781E-17
3.161881E+03	2.835872E-17	6.169883E-17
3.162081E+03	2.793882E-17	6.078585E-17
3.162881E+03	2.751445E-17	5.986480E-17
3.163481E+03	2.711500E-17	5.899737E-17
3.164081E+03	2.669170E-17	5.807798E-17
3.164281E+03	2.627871E-17	5.717989E-17
3.164481E+03	2.586269E-17	5.627521E-17
3.164882E+03	2.547023E-17	5.542227E-17
3.165482E+03	2.504726E-17	5.450344E-17
3.165882E+03	2.463648E-17	5.361058E-17
3.166082E+03	2.421555E-17	5.269510E-17
3.166282E+03	2.382793E-17	5.185211E-17
3.166482E+03	2.341571E-17	5.095555E-17
3.167082E+03	2.299284E-17	5.003673E-17
3.167682E+03	2.259407E-17	4.917031E-17
3.168081E+03	2.219969E-17	4.831293E-17
3.168282E+03	2.179627E-17	4.743543E-17
3.168881E+03	2.137283E-17	4.651518E-17
3.169481E+03	2.095979E-17	4.561753E-17
3.169681E+03	2.054714E-17	4.471983E-17
3.171281E+03	2.014576E-17	4.384952E-17
3.172282E+03	1.976386E-17	4.302026E-17
3.172482E+03	1.937128E-17	4.216613E-17
3.172882E+03	1.898804E-17	4.133267E-17
3.173482E+03	1.860018E-17	4.048952E-17
3.173682E+03	1.819620E-17	3.961048E-17
3.174282E+03	1.779806E-17	3.874486E-17
3.174482E+03	1.739607E-17	3.787012E-17
3.174882E+03	1.701576E-17	3.704289E-17
3.175082E+03	1.663606E-17	3.621664E-17
3.175682E+03	1.623924E-17	3.535373E-17
3.176482E+03	1.585931E-17	3.452788E-17
3.177082E+03	1.546182E-17	3.366341E-17
3.177282E+03	1.507531E-17	3.282221E-17
3.177482E+03	1.469051E-17	3.198470E-17
3.178082E+03	1.431534E-17	3.116874E-17
3.178282E+03	1.393147E-17	3.033321E-17
3.178882E+03	1.355853E-17	2.952201E-17
3.179481E+03	1.320525E-17	2.875358E-17
3.179682E+03	1.284701E-17	2.797379E-17
3.180282E+03	1.250006E-17	2.721907E-17
3.180482E+03	1.212766E-17	2.640840E-17
3.180882E+03	1.175121E-17	2.558913E-17
3.183282E+03	1.137605E-17	2.477492E-17
3.183482E+03	1.104216E-17	2.404800E-17
3.184482E+03	1.069974E-17	2.330330E-17
3.185282E+03	1.034888E-17	2.253998E-17
3.185682E+03	9.998974E-18	2.177827E-17
3.186482E+03	9.645361E-18	2.100885E-17
3.186682E+03	9.295660E-18	2.024734E-17
3.186882E+03	8.948154E-18	1.949060E-17
3.187483E+03	8.600283E-18	1.873338E-17
3.188083E+03	8.255374E-18	1.798258E-17
3.188683E+03	7.912373E-18	1.723589E-17
3.189083E+03	7.574185E-18	1.649950E-17
3.189283E+03	7.240105E-18	1.577188E-17
3.189483E+03	6.908723E-18	1.505013E-17
3.190083E+03	6.577690E-18	1.432939E-17
3.190283E+03	6.252330E-18	1.362072E-17
3.190683E+03	5.929124E-18	1.291685E-17
3.191083E+03	5.608718E-18	1.221905E-17
3.191283E+03	5.293603E-18	1.153265E-17
3.192082E+03	4.979133E-18	1.084793E-17
3.192282E+03	4.671358E-18	1.017748E-17
3.192483E+03	4.367389E-18	9.515312E-18
3.193082E+03	4.065790E-18	8.858450E-18
3.193682E+03	3.768465E-18	8.210864E-18
3.193882E+03	3.476958E-18	7.575788E-18
3.194683E+03	3.187957E-18	6.946344E-18
3.194883E+03	2.904718E-18	6.329243E-18
3.196083E+03	2.623141E-18	5.716004E-18
3.196283E+03	2.370295E-18	5.165082E-18
3.197483E+03	2.094040E-18	4.563341E-18
3.197683E+03	1.835919E-18	4.000880E-18
3.197883E+03	1.571492E-18	3.424664E-18
3.198083E+03	1.306699E-18	2.847640E-18
3.198483E+03	1.058238E-18	2.306219E-18
3.199083E+03	8.357358E-19	1.821369E-18
3.199283E+03	5.808663E-19	1.265927E-18
3.199883E+03	3.329162E-19	7.255697E-19
3.200283E+03	8.833185E-20	1.925171E-19
3.200483E+03	-1.337255E-19	-2.914539E-19
3.200683E+03	-3.631333E-19	-7.914540E-19
3.201483E+03	-5.897794E-19	-1.285477E-18
3.202084E+03	-8.180474E-19	-1.783056E-18
3.202884E+03	-1.001494E-18	-2.182982E-18
3.203684E+03	-1.201689E-18	-2.619443E-18
3.203883E+03	-1.414824E-18	-3.084063E-18
3.204084E+03	-1.618667E-18	-3.528434E-18
3.204284E+03	-1.815667E-18	-3.957899E-18
3.204483E+03	-1.997892E-18	-4.355161E-18
3.205083E+03	-2.196616E-18	-4.788481E-18
3.205283E+03	-2.349043E-18	-5.120806E-18
3.206083E+03	-2.530922E-18	-5.517488E-18
3.206483E+03	-2.715694E-18	-5.920401E-18
3.206883E+03	-2.879360E-18	-6.277314E-18
3.207083E+03	-3.055131E-18	-6.660571E-18
3.207283E+03	-3.225711E-18	-7.032519E-18
3.207483E+03	-3.357657E-18	-7.320243E-18
3.207883E+03	-3.500196E-18	-7.631134E-18
3.208083E+03	-3.642116E-18	-7.940617E-18
3.208283E+03	-3.788195E-18	-8.259174E-18
3.208683E+03	-3.903859E-18	-8.511498E-18
3.208883E+03	-4.024669E-18	-8.774975E-18
3.209083E+03	-4.158817E-18	-9.067535E-18
3.209284E+03	-4.287086E-18	-9.347284E-18
3.209484E+03	-4.390485E-18	-9.572812E-18
3.209684E+03	-4.497293E-18	-9.805777E-18
3.210084E+03	-4.597721E-18	-1.002492E-17
3.210284E+03	-4.693445E-18	-1.023373E-17
3.210484E+03	-4.783721E-18	-1.043066E-17
3.211284E+03	-4.865638E-18	-1.060964E-17
3.211484E+03	-4.944878E-18	-1.078252E-17
3.211684E+03	-5.018223E-18	-1.094255E-17
3.211884E+03	-5.085424E-18	-1.108918E-17
3.212084E+03	-5.147192E-18	-1.122397E-17
3.212484E+03	-5.201442E-18	-1.134246E-17
3.213284E+03	-5.248721E-18	-1.144595E-17
3.213684E+03	-5.293784E-18	-1.154442E-17
3.214284E+03	-5.329288E-18	-1.162215E-17
3.214484E+03	-5.349520E-18	-1.166637E-17
3.214684E+03	-5.370750E-18	-1.171277E-17
3.214884E+03	-5.384411E-18	-1.174266E-17
3.215883E+03	-5.376581E-18	-1.172609E-17
3.216084E+03	-5.384680E-18	-1.174386E-17
3.217084E+03	-5.374332E-18	-1.172179E-17
3.217284E+03	-5.365322E-18	-1.170224E-17
3.217884E+03	-5.352889E-18	-1.167542E-17
3.218084E+03	-5.315229E-18	-1.159338E-17
3.218284E+03	-5.259490E-18	-1.147190E-17
3.219084E+03	-5.218554E-18	-1.138300E-17
3.219284E+03	-5.164889E-18	-1.126604E-17
3.220084E+03	-5.100970E-18	-1.112699E-17
3.220284E+03	-5.039843E-18	-1.099375E-17
3.220484E+03	-4.949439E-18	-1.079664E-17
3.220684E+03	-4.870254E-18	-1.062400E-17
3.221484E+03	-4.775895E-18	-1.041851E-17
3.222484E+03	-4.691696E-18	-1.023527E-17
3.222884E+03	-4.588597E-18	-1.001052E-17
3.224085E+03	-4.477298E-18	-9.768207E-18
3.224285E+03	-4.373502E-18	-9.541835E-18
3.224885E+03	-4.257768E-18	-9.289569E-18
3.226285E+03	-4.108548E-18	-8.964530E-18
3.226485E+03	-3.971934E-18	-8.666524E-18
3.226685E+03	-3.838114E-18	-8.374607E-18
3.226885E+03	-3.698056E-18	-8.069074E-18
3.227085E+03	-3.523287E-18	-7.687796E-18
3.227285E+03	-3.352021E-18	-7.314156E-18
3.227485E+03	-3.176429E-18	-6.931069E-18
3.229084E+03	-2.985941E-18	-6.515855E-18
3.229284E+03	-2.787849E-18	-6.083634E-18
3.229484E+03	-2.584702E-18	-5.640375E-18
3.229884E+03	-2.388166E-18	-5.211578E-18
3.230084E+03	-2.156301E-18	-4.705630E-18
3.230284E+03	-1.922729E-18	-4.195947E-18
3.230484E+03	-1.700427E-18	-3.710853E-18
3.230684E+03	-1.464882E-18	-3.196848E-18
3.230884E+03	-1.223805E-18	-2.670763E-18
3.231084E+03	-9.568243E-19	-2.088136E-18
3.231685E+03	-6.875552E-19	-1.500531E-18
3.231885E+03	-4.137056E-19	-9.028850E-19
3.233085E+03	-1.372246E-19	-2.994985E-19
3.233285E+03	1.581597E-19	3.451930E-19
3.233485E+03	4.504134E-19	9.830626E-19
3.234285E+03	7.519096E-19	1.641156E-18
3.234485E+03	1.067467E-18	2.329927E-18
3.234685E+03	1.408521E-18	3.074360E-18
3.236085E+03	1.741289E-18	3.800908E-18
3.237285E+03	2.090245E-18	4.562841E-18
3.237685E+03	2.452500E-18	5.353703E-18
3.237885E+03	2.826853E-18	6.170951E-18
3.238085E+03	3.196085E-18	6.977032E-18
3.238285E+03	3.575108E-18	7.804502E-18
3.238485E+03	3.963424E-18	8.652271E-18
3.239286E+03	4.358139E-18	9.514257E-18
3.239486E+03	4.772007E-18	1.041786E-17
3.239885E+03	5.202601E-18	1.135808E-17
3.240485E+03	5.626055E-18	1.228285E-17
3.240686E+03	6.068460E-18	1.324882E-17
3.240885E+03	6.524020E-18	1.424353E-17
3.242085E+03	6.980044E-18	1.523989E-17
3.242285E+03	7.457492E-18	1.628245E-17
3.242485E+03	7.935260E-18	1.732574E-17
3.242685E+03	8.428597E-18	1.840303E-17
3.244485E+03	8.916815E-18	1.947043E-17
3.244685E+03	9.439523E-18	2.061197E-17
3.244885E+03	9.963026E-18	2.175526E-17
3.245285E+03	1.049280E-17	2.291244E-17
3.245885E+03	1.103787E-17	2.410326E-17
3.246086E+03	1.159728E-17	2.532505E-17
3.246286E+03	1.217808E-17	2.659355E-17
3.246486E+03	1.276650E-17	2.787873E-17
3.247086E+03	1.334600E-17	2.914492E-17
3.247486E+03	1.394158E-17	3.044602E-17
3.247886E+03	1.454798E-17	3.177082E-17
3.248086E+03	1.517135E-17	3.313244E-17
3.248286E+03	1.579940E-17	3.450429E-17
3.248686E+03	1.643257E-17	3.588766E-17
3.248886E+03	1.708255E-17	3.730746E-17
3.249286E+03	1.775403E-17	3.877458E-17
3.249686E+03	1.843188E-17	4.025563E-17
3.250086E+03	1.602989E-17	3.501020E-17
3.250686E+03	1.380003E-17	3.014078E-17
3.250886E+03	1.394939E-17	3.046723E-17
3.251086E+03	1.437300E-17	3.139272E-17
3.251286E+03	1.140127E-17	2.490223E-17
3.251486E+03	1.137190E-17	2.483827E-17
3.251686E+03	1.177087E-17	2.570990E-17
3.251885E+03	1.213118E-17	2.649709E-17
3.252285E+03	1.147101E-17	2.505555E-17
3.252485E+03	1.112624E-17	2.430268E-17
3.252686E+03	1.106867E-17	2.417712E-17
3.252885E+03	1.125529E-17	2.458494E-17
3.253085E+03	1.110807E-17	2.426356E-17
3.253286E+03	1.093508E-17	2.388588E-17
3.253886E+03	1.108986E-17	2.422456E-17
3.254286E+03	1.057775E-17	2.310627E-17
3.255286E+03	1.033678E-17	2.258081E-17
3.255686E+03	9.822662E-18	2.145804E-17
3.255886E+03	9.595389E-18	2.096172E-17
3.256286E+03	9.519066E-18	2.079531E-17
3.256886E+03	9.734876E-18	2.126728E-17
3.257486E+03	9.981510E-18	2.180660E-17
3.257686E+03	1.011413E-17	2.209650E-17
3.258086E+03	1.027541E-17	2.244922E-17
3.258286E+03	1.052866E-17	2.300268E-17
3.258686E+03	1.014916E-17	2.217392E-17
3.259286E+03	1.012479E-17	2.212120E-17
3.259486E+03	9.671472E-18	2.113092E-17
3.259686E+03	9.679908E-18	2.114952E-17
3.259886E+03	9.584703E-18	2.094167E-17
3.260086E+03	9.563130E-18	2.089470E-17
3.260286E+03	9.626278E-18	2.103284E-17
3.260887E+03	9.577536E-18	2.092683E-17
3.261287E+03	9.697430E-18	2.118913E-17
3.261487E+03	9.895885E-18	2.162293E-17
3.262487E+03	9.539137E-18	2.084423E-17
3.262687E+03	9.291547E-18	2.030338E-17
3.262887E+03	9.143539E-18	1.998011E-17
3.263087E+03	8.643561E-18	1.888773E-17
3.263287E+03	8.459514E-18	1.848570E-17
3.263487E+03	8.358071E-18	1.826416E-17
3.264686E+03	8.489388E-18	1.855198E-17
3.264887E+03	8.332614E-18	1.820953E-17
3.265286E+03	8.314690E-18	1.817064E-17
3.265486E+03	8.361378E-18	1.827281E-17
3.265686E+03	8.341084E-18	1.822860E-17
3.265886E+03	8.261558E-18	1.805494E-17
3.266286E+03	8.070322E-18	1.763729E-17
3.266486E+03	8.162744E-18	1.783941E-17
3.266686E+03	8.226739E-18	1.797941E-17
3.266886E+03	8.186278E-18	1.789112E-17
3.267086E+03	8.182883E-18	1.788383E-17
3.268087E+03	7.816427E-18	1.708360E-17
3.268487E+03	7.808809E-18	1.706721E-17
3.268687E+03	7.903497E-18	1.727430E-17
3.268887E+03	7.845875E-18	1.714849E-17
3.269287E+03	7.597190E-18	1.660520E-17
3.269487E+03	7.629911E-18	1.667684E-17
3.270287E+03	7.674801E-18	1.677548E-17
3.270487E+03	7.673421E-18	1.677259E-17
3.270687E+03	7.729592E-18	1.689550E-17
3.271287E+03	7.767603E-18	1.697897E-17
3.271487E+03	7.765246E-18	1.697395E-17
3.272687E+03	7.793256E-18	1.703595E-17
3.273487E+03	7.829267E-18	1.711519E-17
3.273687E+03	7.749894E-18	1.694181E-17
3.274087E+03	7.472660E-18	1.633601E-17
3.274287E+03	7.420645E-18	1.622242E-17
3.274887E+03	7.277606E-18	1.591008E-17
3.275288E+03	7.236292E-18	1.582000E-17
3.275888E+03	7.303990E-18	1.596836E-17
3.276088E+03	7.293607E-18	1.594578E-17
3.276688E+03	7.362178E-18	1.609606E-17
3.277088E+03	7.394339E-18	1.616662E-17
3.277487E+03	7.194820E-18	1.573064E-17
3.277887E+03	7.221298E-18	1.578877E-17
