#wls	flux	fluxerr
1.600000E+03	-9.861562E-17	-3.215879E-16
1.640000E+03	-9.726361E-17	-3.189844E-16
1.680000E+03	-9.583118E-17	-3.161229E-16
1.720000E+03	-9.431019E-17	-3.129720E-16
1.760000E+03	-9.270099E-17	-3.095276E-16
1.800000E+03	-9.108076E-17	-3.051186E-16
1.840000E+03	-8.937694E-17	-3.004220E-16
1.880000E+03	-8.758736E-17	-2.954274E-16
1.920000E+03	-8.570316E-17	-2.901012E-16
1.960000E+03	-8.383233E-17	-2.837720E-16
2.000000E+03	-8.185707E-17	-2.770892E-16
2.040000E+03	-7.977902E-17	-2.700584E-16
2.080000E+03	-7.757557E-17	-2.626031E-16
2.120000E+03	-7.538450E-17	-2.540883E-16
2.160000E+03	-7.305841E-17	-2.451637E-16
2.200000E+03	-7.058027E-17	-2.357797E-16
2.240000E+03	-6.796149E-17	-2.259829E-16
2.280000E+03	-6.535983E-17	-2.152102E-16
2.320000E+03	-6.264325E-17	-2.042088E-16
2.360000E+03	-5.984364E-17	-1.930954E-16
2.400000E+03	-5.699515E-17	-1.819901E-16
2.440000E+03	-5.427920E-17	-1.704767E-16
2.480000E+03	-5.155487E-17	-1.592177E-16
2.520000E+03	-4.884686E-17	-1.482898E-16
2.560000E+03	-4.617360E-17	-1.377463E-16
2.600000E+03	-4.367016E-17	-1.271399E-16
2.640000E+03	-4.120155E-17	-1.170209E-16
2.680000E+03	-3.877663E-17	-1.074009E-16
2.720000E+03	-3.640544E-17	-9.829235E-17
2.760000E+03	-3.418750E-17	-8.929325E-17
2.800000E+03	-3.201454E-17	-8.085968E-17
2.840000E+03	-2.989600E-17	-7.298876E-17
2.880000E+03	-2.784463E-17	-6.568330E-17
2.920000E+03	-2.591645E-17	-5.863154E-17
2.960000E+03	-2.405380E-17	-5.216980E-17
3.000000E+03	-2.227023E-17	-4.628692E-17
3.010000E+03	-2.183813E-17	-4.490482E-17
3.020000E+03	-2.141457E-17	-4.351695E-17
3.030000E+03	-2.099598E-17	-4.216443E-17
3.040000E+03	-2.058296E-17	-4.084775E-17
3.050000E+03	-2.017568E-17	-3.956649E-17
3.060000E+03	-1.977495E-17	-3.830190E-17
3.070000E+03	-1.937987E-17	-3.707240E-17
3.080000E+03	-1.899061E-17	-3.587758E-17
3.090000E+03	-1.860739E-17	-3.471701E-17
3.100000E+03	-1.823062E-17	-3.357346E-17
3.110000E+03	-1.786020E-17	-3.246445E-17
3.120000E+03	-1.749593E-17	-3.138880E-17
3.130000E+03	-1.713867E-17	-3.034723E-17
3.140000E+03	-1.678701E-17	-2.932130E-17
3.150000E+03	-1.644194E-17	-2.832826E-17
3.160000E+03	-1.610390E-17	-2.736802E-17
3.170000E+03	-1.577270E-17	-2.643941E-17
3.180000E+03	-1.544704E-17	-2.552624E-17
3.190000E+03	-1.512802E-17	-2.464383E-17
3.200000E+03	-1.481598E-17	-2.379190E-17
3.210000E+03	-1.451098E-17	-2.296971E-17
3.220000E+03	-1.421029E-17	-2.216067E-17
3.230000E+03	-1.391629E-17	-2.138026E-17
3.240000E+03	-1.362901E-17	-2.062769E-17
3.250000E+03	-1.334844E-17	-1.990216E-17
3.260000E+03	-1.307117E-17	-1.918791E-17
3.270000E+03	-1.280014E-17	-1.849946E-17
3.280000E+03	-1.253531E-17	-1.783599E-17
3.290000E+03	-1.227642E-17	-1.719638E-17
3.300000E+03	-1.201944E-17	-1.656580E-17
3.310000E+03	-1.176781E-17	-1.595779E-17
3.320000E+03	-1.152166E-17	-1.537185E-17
3.330000E+03	-1.128076E-17	-1.480701E-17
3.340000E+03	-1.103976E-17	-1.424841E-17
3.350000E+03	-1.080347E-17	-1.370983E-17
3.360000E+03	-1.057140E-17	-1.319008E-17
3.370000E+03	-1.034371E-17	-1.268876E-17
3.380000E+03	-1.011320E-17	-1.219041E-17
3.390000E+03	-9.885852E-18	-1.170882E-17
3.400000E+03	-9.661363E-18	-1.124315E-17
3.410000E+03	-9.439113E-18	-1.079224E-17
3.420000E+03	-9.210872E-18	-1.034120E-17
3.430000E+03	-8.983388E-18	-9.903298E-18
3.440000E+03	-8.756174E-18	-9.477689E-18
3.450000E+03	-8.528693E-18	-9.063507E-18
3.460000E+03	-8.290398E-18	-8.645162E-18
3.470000E+03	-8.049777E-18	-8.236500E-18
3.480000E+03	-7.805889E-18	-7.836423E-18
3.490000E+03	-7.557953E-18	-7.444067E-18
3.500000E+03	-7.293003E-18	-7.043377E-18
3.510000E+03	-7.021157E-18	-6.648523E-18
3.520000E+03	-6.741169E-18	-6.258430E-18
3.530000E+03	-6.451799E-18	-5.872113E-18
3.540000E+03	-6.137167E-18	-5.472963E-18
3.550000E+03	-5.809073E-18	-5.075412E-18
3.560000E+03	-5.465972E-18	-4.678524E-18
3.570000E+03	-5.106201E-18	-4.281354E-18
3.580000E+03	-4.709755E-18	-3.866166E-18
3.590000E+03	-4.291113E-18	-3.448376E-18
3.600000E+03	-3.848011E-18	-3.026947E-18
3.610000E+03	-3.378113E-18	-2.600911E-18
3.620000E+03	-2.856530E-18	-2.151440E-18
3.630000E+03	-2.300826E-18	-1.695004E-18
3.640000E+03	-1.708147E-18	-1.230731E-18
3.650000E+03	-1.075396E-18	-7.577208E-19
3.660000E+03	-3.715845E-19	-2.558922E-19
3.670000E+03	3.816180E-19	2.568244E-19
3.680000E+03	1.187867E-18	7.811418E-19
3.690000E+03	2.050949E-18	1.317695E-18
3.700000E+03	3.006567E-18	1.886181E-18
3.710000E+03	4.030139E-18	2.468455E-18
3.720000E+03	5.125880E-18	3.064809E-18
3.730000E+03	6.297961E-18	3.675344E-18
3.740000E+03	7.585223E-18	4.317998E-18
3.750000E+03	8.960893E-18	4.975204E-18
3.760000E+03	1.042929E-17	5.646577E-18
3.770000E+03	1.199473E-17	6.331591E-18
3.780000E+03	1.369804E-17	7.045698E-18
3.790000E+03	1.551006E-17	7.772108E-18
3.800000E+03	1.743428E-17	8.509424E-18
3.810000E+03	1.947420E-17	9.256213E-18
3.820000E+03	2.167252E-17	1.002559E-17
3.830000E+03	2.399618E-17	1.080114E-17
3.840000E+03	2.644748E-17	1.158065E-17
3.850000E+03	2.902839E-17	1.236180E-17
3.860000E+03	3.178158E-17	1.315501E-17
3.870000E+03	3.467052E-17	1.394485E-17
3.880000E+03	3.769499E-17	1.472818E-17
3.890000E+03	4.085483E-17	1.550199E-17
3.900000E+03	4.419157E-17	1.627444E-17
3.910000E+03	4.766459E-17	1.703108E-17
3.920000E+03	5.127205E-17	1.776869E-17
3.930000E+03	5.501058E-17	1.848372E-17
3.940000E+03	5.891942E-17	1.918274E-17
3.950000E+03	6.295647E-17	1.985314E-17
3.960000E+03	6.711631E-17	2.049138E-17
3.970000E+03	7.139561E-17	2.109479E-17
3.980000E+03	7.582979E-17	2.166909E-17
3.990000E+03	8.037659E-17	2.220336E-17
4.000000E+03	8.503160E-17	2.269530E-17
4.010000E+03	8.978948E-17	2.314256E-17
4.020000E+03	9.468346E-17	2.355175E-17
4.030000E+03	9.967525E-17	2.391354E-17
4.040000E+03	1.047606E-16	2.422646E-17
4.050000E+03	1.099346E-16	2.448901E-17
4.060000E+03	1.152245E-16	2.470902E-17
4.070000E+03	1.205981E-16	2.487768E-17
4.080000E+03	1.260510E-16	2.499404E-17
4.090000E+03	1.315787E-16	2.505733E-17
4.100000E+03	1.371963E-16	2.507717E-17
4.110000E+03	1.428798E-16	2.504374E-17
4.120000E+03	1.486221E-16	2.495626E-17
4.130000E+03	1.544181E-16	2.481447E-17
4.140000E+03	1.602690E-16	2.463198E-17
4.150000E+03	1.661592E-16	2.439588E-17
4.160000E+03	1.720819E-16	2.410613E-17
4.170000E+03	1.780295E-16	2.376274E-17
4.180000E+03	1.839884E-16	2.338622E-17
4.190000E+03	1.899555E-16	2.295831E-17
4.200000E+03	1.959267E-16	2.247989E-17
4.210000E+03	2.018980E-16	2.195192E-17
4.220000E+03	2.078354E-16	2.140507E-17
4.230000E+03	2.137624E-16	2.081293E-17
4.240000E+03	2.196747E-16	2.017658E-17
4.250000E+03	2.255740E-16	1.949764E-17
4.260000E+03	2.314079E-16	1.882345E-17
4.270000E+03	2.372202E-16	1.811173E-17
4.280000E+03	2.430151E-16	1.736411E-17
4.290000E+03	2.487858E-16	1.658140E-17
4.300000E+03	2.544560E-16	1.583993E-17
4.310000E+03	2.600942E-16	1.506900E-17
4.320000E+03	2.656979E-16	1.426968E-17
4.330000E+03	2.712622E-16	1.344290E-17
4.340000E+03	2.766762E-16	1.272240E-17
4.350000E+03	2.820434E-16	1.198082E-17
4.360000E+03	2.873618E-16	1.121913E-17
4.370000E+03	2.926470E-16	1.043889E-17
4.380000E+03	2.977549E-16	9.895361E-18
4.390000E+03	3.028423E-16	9.340644E-18
4.400000E+03	3.078980E-16	8.774869E-18
4.410000E+03	3.128875E-16	8.197648E-18
4.420000E+03	3.175611E-16	8.045683E-18
4.430000E+03	3.220805E-16	7.887264E-18
4.440000E+03	3.264080E-16	7.721966E-18
4.450000E+03	3.305066E-16	7.549475E-18
4.460000E+03	3.340332E-16	7.764079E-18
4.470000E+03	3.372602E-16	7.971840E-18
4.480000E+03	3.401617E-16	8.171779E-18
4.490000E+03	3.427240E-16	8.363195E-18
4.500000E+03	3.444644E-16	8.671379E-18
4.510000E+03	3.458171E-16	8.967253E-18
4.520000E+03	3.467766E-16	9.249866E-18
4.530000E+03	3.473335E-16	9.518173E-18
4.540000E+03	3.468585E-16	9.732641E-18
4.550000E+03	3.459263E-16	9.929376E-18
4.560000E+03	3.445227E-16	1.010721E-17
4.570000E+03	3.426268E-16	1.026477E-17
4.580000E+03	3.394590E-16	1.030608E-17
4.590000E+03	3.357286E-16	1.032535E-17
4.600000E+03	3.313968E-16	1.032082E-17
4.610000E+03	3.264316E-16	1.029092E-17
4.620000E+03	3.199481E-16	1.013547E-17
4.630000E+03	3.127380E-16	9.954209E-18
4.640000E+03	3.047495E-16	9.745203E-18
4.650000E+03	2.959235E-16	9.506277E-18
4.660000E+03	2.858264E-16	9.174039E-18
4.670000E+03	2.747994E-16	8.812635E-18
4.680000E+03	2.627842E-16	8.420261E-18
4.690000E+03	2.497210E-16	7.995063E-18
4.700000E+03	2.363369E-16	7.541329E-18
4.710000E+03	2.219000E-16	7.057235E-18
4.720000E+03	2.063774E-16	6.542014E-18
4.730000E+03	1.897602E-16	5.995670E-18
4.740000E+03	1.743464E-16	5.497775E-18
4.750000E+03	1.580932E-16	4.975476E-18
4.760000E+03	1.410336E-16	4.429938E-18
4.770000E+03	1.231921E-16	3.862044E-18
4.780000E+03	1.085262E-16	3.414256E-18
4.790000E+03	9.331599E-17	2.945973E-18
4.800000E+03	7.756483E-17	2.457162E-18
4.810000E+03	6.127221E-17	1.947662E-18
4.820000E+03	5.023588E-17	1.612939E-18
4.830000E+03	3.888123E-17	1.260773E-18
4.840000E+03	2.720177E-17	8.906934E-19
4.850000E+03	1.518942E-17	5.021673E-19
4.860000E+03	1.043519E-17	3.496680E-19
4.870000E+03	5.569986E-18	1.891358E-19
4.880000E+03	5.904522E-19	2.031360E-20
4.890000E+03	-4.506374E-18	-1.570480E-19
4.900000E+03	-2.760395E-18	-9.757116E-20
4.910000E+03	-9.836918E-19	-3.525999E-20
4.920000E+03	8.240098E-19	2.994733E-20
4.930000E+03	2.662659E-18	9.810141E-20
4.940000E+03	1.084733E-17	4.049357E-19
4.950000E+03	1.910831E-17	7.226842E-19
4.960000E+03	2.744049E-17	1.051338E-18
4.970000E+03	3.583686E-17	1.390806E-18
4.980000E+03	5.013704E-17	1.967841E-18
4.990000E+03	6.441501E-17	2.556871E-18
5.000000E+03	7.865525E-17	3.157447E-18
5.010000E+03	9.284024E-17	3.769013E-18
5.020000E+03	1.120687E-16	4.591177E-18
5.030000E+03	1.310171E-16	5.416782E-18
5.040000E+03	1.496616E-16	6.244863E-18
5.050000E+03	1.679834E-16	7.074634E-18
5.060000E+03	1.900915E-16	8.060986E-18
5.070000E+03	2.115432E-16	9.033500E-18
5.080000E+03	2.323231E-16	9.991383E-18
5.090000E+03	2.524299E-16	1.093443E-17
5.100000E+03	2.747820E-16	1.195971E-17
5.110000E+03	2.960676E-16	1.294943E-17
5.120000E+03	3.163111E-16	1.390443E-17
5.130000E+03	3.355275E-16	1.482517E-17
5.140000E+03	3.553013E-16	1.574429E-17
5.150000E+03	3.736569E-16	1.660726E-17
5.160000E+03	3.906324E-16	1.741561E-17
5.170000E+03	4.062746E-16	1.817124E-17
5.180000E+03	4.207504E-16	1.884296E-17
5.190000E+03	4.335128E-16	1.944078E-17
5.200000E+03	4.446212E-16	1.996726E-17
5.210000E+03	4.541166E-16	2.042414E-17
5.220000E+03	4.607681E-16	2.072638E-17
5.230000E+03	4.654694E-16	2.094118E-17
5.240000E+03	4.682760E-16	2.107102E-17
5.250000E+03	4.692438E-16	2.111840E-17
5.260000E+03	4.658411E-16	2.096223E-17
5.270000E+03	4.603304E-16	2.071099E-17
5.280000E+03	4.527969E-16	2.036853E-17
5.290000E+03	4.433123E-16	1.993809E-17
5.300000E+03	4.284145E-16	1.929555E-17
5.310000E+03	4.114695E-16	1.856217E-17
5.320000E+03	3.926123E-16	1.774384E-17
5.330000E+03	3.719735E-16	1.684627E-17
5.340000E+03	3.460746E-16	1.578371E-17
5.350000E+03	3.185895E-16	1.465190E-17
5.359604E+03	2.879412E-16	1.337071E-17
5.359804E+03	2.867117E-16	1.331657E-17
5.362803E+03	2.816485E-16	1.314461E-17
5.364804E+03	2.777204E-16	1.300544E-17
5.367004E+03	2.732710E-16	1.284739E-17
5.368004E+03	2.706603E-16	1.274823E-17
5.371005E+03	2.643460E-16	1.253014E-17
5.372005E+03	2.615175E-16	1.242366E-17
5.372205E+03	2.602003E-16	1.236667E-17
5.372805E+03	2.581187E-16	1.228453E-17
5.373605E+03	2.555945E-16	1.218754E-17
5.373805E+03	2.542693E-16	1.213019E-17
5.374405E+03	2.521537E-16	1.204683E-17
5.375405E+03	2.492133E-16	1.193597E-17
5.377205E+03	2.445265E-16	1.176627E-17
5.378005E+03	2.419061E-16	1.166522E-17
5.378205E+03	2.405587E-16	1.160657E-17
5.378405E+03	2.392231E-16	1.154845E-17
5.380006E+03	2.347787E-16	1.138475E-17
5.380606E+03	2.325362E-16	1.129555E-17
5.380806E+03	2.312086E-16	1.123762E-17
5.381206E+03	2.294024E-16	1.116297E-17
5.381606E+03	2.275829E-16	1.108749E-17
5.382206E+03	2.253181E-16	1.099686E-17
5.383206E+03	2.221088E-16	1.087347E-17
5.383406E+03	2.207825E-16	1.081528E-17
5.383606E+03	2.194253E-16	1.075545E-17
5.384606E+03	2.161839E-16	1.063001E-17
5.385007E+03	2.143601E-16	1.055395E-17
5.385207E+03	2.130155E-16	1.049456E-17
5.385806E+03	2.107283E-16	1.040197E-17
5.386406E+03	2.084046E-16	1.030760E-17
5.387406E+03	2.050856E-16	1.017774E-17
5.387606E+03	2.037397E-16	1.011790E-17
5.387806E+03	2.023987E-16	1.005814E-17
5.388206E+03	2.005901E-16	9.981946E-18
5.388606E+03	1.987797E-16	9.905615E-18
5.388806E+03	1.974926E-16	9.848386E-18
5.389406E+03	1.951560E-16	9.752209E-18
5.389606E+03	1.938340E-16	9.692979E-18
5.390407E+03	1.910132E-16	9.579403E-18
5.391007E+03	1.886831E-16	9.483431E-18
5.391607E+03	1.863617E-16	9.387316E-18
5.392007E+03	1.845466E-16	9.309725E-18
5.392207E+03	1.832597E-16	9.251755E-18
5.392407E+03	1.819344E-16	9.191804E-18
5.392607E+03	1.806357E-16	9.132994E-18
5.392807E+03	1.793218E-16	9.073370E-18
5.393007E+03	1.780337E-16	9.015010E-18
5.393807E+03	1.752007E-16	8.898915E-18
5.394007E+03	1.739009E-16	8.839663E-18
5.394607E+03	1.715901E-16	8.742572E-18
5.394807E+03	1.703274E-16	8.685089E-18
5.395007E+03	1.690705E-16	8.627856E-18
5.395607E+03	1.667911E-16	8.531617E-18
5.395808E+03	1.655077E-16	8.472761E-18
5.396408E+03	1.632171E-16	8.375823E-18
5.396608E+03	1.619469E-16	8.317479E-18
5.397208E+03	1.596607E-16	8.220009E-18
5.397408E+03	1.584163E-16	8.162654E-18
5.397608E+03	1.571609E-16	8.104681E-18
5.398007E+03	1.554216E-16	8.028415E-18
5.398208E+03	1.541669E-16	7.970217E-18
5.398408E+03	1.529282E-16	7.912770E-18
5.398807E+03	1.511789E-16	7.835434E-18
5.399007E+03	1.499318E-16	7.777435E-18
5.399207E+03	1.487169E-16	7.720907E-18
5.399407E+03	1.475100E-16	7.664740E-18
5.399607E+03	1.462970E-16	7.608217E-18
5.400007E+03	1.445868E-16	7.532301E-18
5.400207E+03	1.434127E-16	7.477510E-18
5.400407E+03	1.422100E-16	7.421179E-18
5.400607E+03	1.410062E-16	7.364743E-18
5.401208E+03	1.387970E-16	7.268593E-18
5.401408E+03	1.376290E-16	7.213660E-18
5.401808E+03	1.359656E-16	7.138972E-18
5.402608E+03	1.332924E-16	7.023825E-18
5.402808E+03	1.321368E-16	6.969334E-18
5.403208E+03	1.304728E-16	6.893839E-18
5.403408E+03	1.293103E-16	6.838584E-18
5.403808E+03	1.276597E-16	6.763655E-18
5.404408E+03	1.255129E-16	6.668603E-18
5.404608E+03	1.243692E-16	6.613902E-18
5.405008E+03	1.227306E-16	6.538907E-18
5.405208E+03	1.215957E-16	6.484552E-18
5.405408E+03	1.204856E-16	6.431469E-18
5.405608E+03	1.193604E-16	6.377304E-18
5.405808E+03	1.182411E-16	6.323403E-18
5.406008E+03	1.171440E-16	6.270637E-18
5.406809E+03	1.145729E-16	6.156772E-18
5.407209E+03	1.129997E-16	6.083849E-18
5.407409E+03	1.119170E-16	6.031404E-18
5.407609E+03	1.108362E-16	5.979010E-18
5.407809E+03	1.097675E-16	5.927214E-18
5.408209E+03	1.082302E-16	5.855553E-18
5.408409E+03	1.071759E-16	5.804222E-18
5.408609E+03	1.061178E-16	5.752636E-18
5.408809E+03	1.050619E-16	5.701122E-18
5.409409E+03	1.030308E-16	5.607461E-18
5.409609E+03	1.019895E-16	5.556377E-18
5.409809E+03	1.009635E-16	5.506072E-18
5.410008E+03	9.993146E-17	5.455363E-18
5.410208E+03	9.891183E-17	5.405081E-18
5.410408E+03	9.789988E-17	5.355170E-18
5.410609E+03	9.688358E-17	5.305000E-18
5.411008E+03	9.542014E-17	5.235655E-18
5.411408E+03	9.397248E-17	5.166663E-18
5.411608E+03	9.298159E-17	5.117442E-18
5.412009E+03	9.152114E-17	5.047630E-18
5.412209E+03	9.052767E-17	4.998148E-18
5.412609E+03	8.908985E-17	4.928891E-18
5.412809E+03	8.811220E-17	4.879904E-18
5.413209E+03	8.668272E-17	4.810962E-18
5.413409E+03	8.573409E-17	4.763465E-18
5.413809E+03	8.432624E-17	4.695094E-18
5.414009E+03	8.339125E-17	4.648000E-18
5.414209E+03	8.246040E-17	4.601089E-18
5.414409E+03	8.153379E-17	4.554367E-18
5.414609E+03	8.060978E-17	4.507542E-18
5.414809E+03	7.969661E-17	4.461277E-18
5.415009E+03	7.878590E-17	4.415102E-18
5.415209E+03	7.786975E-17	4.368574E-18
5.415409E+03	7.697288E-17	4.322856E-18
5.416009E+03	7.519433E-17	4.236812E-18
5.416209E+03	7.430266E-17	4.191255E-18
5.416409E+03	7.342015E-17	4.146167E-18
5.416809E+03	7.211971E-17	4.081549E-18
5.417209E+03	7.082400E-17	4.017127E-18
5.417410E+03	6.996718E-17	3.973045E-18
5.417810E+03	6.868397E-17	3.909194E-18
5.418010E+03	6.784036E-17	3.865475E-18
5.418210E+03	6.702182E-17	3.823141E-18
5.418410E+03	6.619688E-17	3.780399E-18
5.418610E+03	6.537623E-17	3.737858E-18
5.418810E+03	6.455564E-17	3.695090E-18
5.419010E+03	6.374073E-17	3.652603E-18
5.419210E+03	6.294877E-17	3.611389E-18
5.419410E+03	6.214807E-17	3.569630E-18
5.420010E+03	6.052598E-17	3.488204E-18
5.420410E+03	5.933148E-17	3.427338E-18
5.420810E+03	5.814217E-17	3.366701E-18
5.421010E+03	5.735964E-17	3.325463E-18
5.421210E+03	5.659498E-17	3.284932E-18
5.421410E+03	5.584924E-17	3.245460E-18
5.421610E+03	5.510355E-17	3.205951E-18
5.421810E+03	5.435548E-17	3.166261E-18
5.422010E+03	5.360950E-17	3.126461E-18
5.422209E+03	5.288431E-17	3.087815E-18
5.422409E+03	5.216615E-17	3.049559E-18
5.422609E+03	5.145080E-17	3.011427E-18
5.422810E+03	5.072266E-17	2.972334E-18
5.423011E+03	4.999908E-17	2.933468E-18
5.423210E+03	4.929013E-17	2.895384E-18
5.423410E+03	4.859330E-17	2.857990E-18
5.423610E+03	4.790853E-17	2.821077E-18
5.423810E+03	4.721800E-17	2.783788E-18
5.424010E+03	4.654015E-17	2.747208E-18
5.424210E+03	4.587000E-17	2.711044E-18
5.424610E+03	4.483192E-17	2.656084E-18
5.424810E+03	4.417470E-17	2.620384E-18
5.425010E+03	4.351102E-17	2.584264E-18
5.425210E+03	4.286546E-17	2.549182E-18
5.425610E+03	4.186735E-17	2.495904E-18
5.425810E+03	4.124374E-17	2.461808E-18
5.426010E+03	4.062398E-17	2.427909E-18
5.426210E+03	4.000369E-17	2.393943E-18
5.426410E+03	3.939268E-17	2.360285E-18
5.426610E+03	3.878230E-17	2.326630E-18
5.426810E+03	3.817478E-17	2.293115E-18
5.427010E+03	3.757658E-17	2.260125E-18
5.427210E+03	3.697253E-17	2.226560E-18
5.427410E+03	3.638512E-17	2.193964E-18
5.427610E+03	3.580367E-17	2.161695E-18
5.427810E+03	3.522508E-17	2.129566E-18
5.428010E+03	3.465019E-17	2.097440E-18
5.428210E+03	3.407819E-17	2.065458E-18
5.428411E+03	3.352045E-17	2.034322E-18
5.428611E+03	3.296716E-17	2.003412E-18
5.428811E+03	3.241508E-17	1.972310E-18
5.429011E+03	3.186393E-17	1.941234E-18
5.429611E+03	3.067495E-17	1.876228E-18
5.429811E+03	3.014975E-17	1.846652E-18
5.430011E+03	2.962685E-17	1.816953E-18
5.430211E+03	2.911038E-17	1.787621E-18
5.430411E+03	2.859848E-17	1.758542E-18
5.430611E+03	2.809026E-17	1.729661E-18
5.430811E+03	2.758670E-17	1.700852E-18
5.431011E+03	2.709721E-17	1.672885E-18
5.431211E+03	2.660605E-17	1.644789E-18
5.431411E+03	2.611597E-17	1.616733E-18
5.431611E+03	2.563307E-17	1.588909E-18
5.431811E+03	2.514963E-17	1.561026E-18
5.432011E+03	2.467647E-17	1.533755E-18
5.432211E+03	2.421095E-17	1.506934E-18
5.432611E+03	2.345107E-17	1.463483E-18
5.432811E+03	2.299997E-17	1.437294E-18
5.433011E+03	2.255150E-17	1.411247E-18
5.433211E+03	2.211027E-17	1.385629E-18
5.433411E+03	2.166847E-17	1.359745E-18
5.433611E+03	2.123384E-17	1.334289E-18
5.433812E+03	2.080264E-17	1.309036E-18
5.434012E+03	2.037628E-17	1.284056E-18
5.434212E+03	1.994662E-17	1.258662E-18
5.434412E+03	1.952754E-17	1.233914E-18
5.434611E+03	1.911544E-17	1.209577E-18
5.434811E+03	1.870187E-17	1.185135E-18
5.435011E+03	1.830358E-17	1.161458E-18
5.435212E+03	1.790702E-17	1.137881E-18
5.435412E+03	1.751706E-17	1.114695E-18
5.435611E+03	1.712656E-17	1.091449E-18
5.435811E+03	1.674162E-17	1.068365E-18
5.436011E+03	1.636053E-17	1.045508E-18
5.436211E+03	1.599118E-17	1.023384E-18
5.436411E+03	1.562180E-17	1.001241E-18
5.436611E+03	1.525610E-17	9.791373E-19
5.436811E+03	1.489407E-17	9.572530E-19
5.437011E+03	1.453285E-17	9.354043E-19
5.437211E+03	1.418319E-17	9.142823E-19
5.437411E+03	1.383545E-17	8.930907E-19
5.437611E+03	1.348798E-17	8.719018E-19
5.437811E+03	1.314993E-17	8.513066E-19
5.438011E+03	1.281732E-17	8.310493E-19
5.438211E+03	1.248822E-17	8.108286E-19
5.438411E+03	1.216489E-17	7.909698E-19
5.438611E+03	1.184180E-17	7.711140E-19
5.438811E+03	1.151770E-17	7.511783E-19
5.439011E+03	1.120344E-17	7.316949E-19
5.439212E+03	1.088567E-17	7.119758E-19
5.439412E+03	1.057832E-17	6.929200E-19
5.439612E+03	1.027061E-17	6.738278E-19
5.439812E+03	9.967869E-18	6.548756E-19
5.440012E+03	9.669189E-18	6.361788E-19
5.440212E+03	9.373669E-18	6.176786E-19
5.440412E+03	9.081678E-18	5.993994E-19
5.440612E+03	8.796428E-18	5.813816E-19
