#wls	flux	fluxerr
1.600000E+03	1.430797E-16	2.063617E-17
1.640000E+03	1.477145E-16	2.130441E-17
1.680000E+03	1.521758E-16	2.194762E-17
1.720000E+03	1.563930E-16	2.255558E-17
1.760000E+03	1.603501E-16	2.312602E-17
1.800000E+03	1.639689E-16	2.364765E-17
1.840000E+03	1.671975E-16	2.411297E-17
1.880000E+03	1.700104E-16	2.451832E-17
1.920000E+03	1.723236E-16	2.485159E-17
1.960000E+03	1.740959E-16	2.510684E-17
2.000000E+03	1.752610E-16	2.527451E-17
2.040000E+03	1.757826E-16	2.534936E-17
2.080000E+03	1.755809E-16	2.531989E-17
2.120000E+03	1.746017E-16	2.517829E-17
2.160000E+03	1.727950E-16	2.491736E-17
2.200000E+03	1.700799E-16	2.452543E-17
2.240000E+03	1.663995E-16	2.399431E-17
2.280000E+03	1.617706E-16	2.332644E-17
2.320000E+03	1.562696E-16	2.253281E-17
2.360000E+03	1.500709E-16	2.163862E-17
2.400000E+03	1.433202E-16	2.066484E-17
2.440000E+03	1.361454E-16	1.962996E-17
2.480000E+03	1.286767E-16	1.855272E-17
2.520000E+03	1.209989E-16	1.744537E-17
2.560000E+03	1.132049E-16	1.632130E-17
2.600000E+03	1.053733E-16	1.519186E-17
2.640000E+03	9.758360E-17	1.406848E-17
2.680000E+03	8.989978E-17	1.296042E-17
2.720000E+03	8.238423E-17	1.187666E-17
2.760000E+03	7.509330E-17	1.082533E-17
2.800000E+03	6.807750E-17	9.813700E-18
2.840000E+03	6.138284E-17	8.848407E-18
2.880000E+03	5.505224E-17	7.935637E-18
2.920000E+03	4.912206E-17	7.080628E-18
2.960000E+03	4.362218E-17	6.287684E-18
3.000000E+03	3.857260E-17	5.559684E-18
3.010000E+03	3.738289E-17	5.388165E-18
3.020000E+03	3.622109E-17	5.220673E-18
3.030000E+03	3.508869E-17	5.057419E-18
3.040000E+03	3.398465E-17	4.898256E-18
3.050000E+03	3.290948E-17	4.743256E-18
3.060000E+03	3.186357E-17	4.592475E-18
3.070000E+03	3.084523E-17	4.445669E-18
3.080000E+03	2.985610E-17	4.303075E-18
3.090000E+03	2.889452E-17	4.164455E-18
3.100000E+03	2.796134E-17	4.029928E-18
3.110000E+03	2.705553E-17	3.899349E-18
3.120000E+03	2.617673E-17	3.772665E-18
3.130000E+03	2.532553E-17	3.649960E-18
3.140000E+03	2.450048E-17	3.531024E-18
3.150000E+03	2.370252E-17	3.415995E-18
3.160000E+03	2.292981E-17	3.304607E-18
3.170000E+03	2.218318E-17	3.196980E-18
3.180000E+03	2.146130E-17	3.092919E-18
3.190000E+03	2.076445E-17	2.992468E-18
3.200000E+03	2.009172E-17	2.895495E-18
3.210000E+03	1.944296E-17	2.801977E-18
3.220000E+03	1.881762E-17	2.711835E-18
3.230000E+03	1.821514E-17	2.624989E-18
3.240000E+03	1.763468E-17	2.541318E-18
3.250000E+03	1.707630E-17	2.460831E-18
3.260000E+03	1.653917E-17	2.383406E-18
3.270000E+03	1.602298E-17	2.309000E-18
3.280000E+03	1.552691E-17	2.237496E-18
3.290000E+03	1.505044E-17	2.168816E-18
3.300000E+03	1.459325E-17	2.102916E-18
3.310000E+03	1.415456E-17	2.039682E-18
3.320000E+03	1.373404E-17	1.979068E-18
3.330000E+03	1.333115E-17	1.920995E-18
3.340000E+03	1.294495E-17	1.865329E-18
3.350000E+03	1.257534E-17	1.812053E-18
3.360000E+03	1.222159E-17	1.761063E-18
3.370000E+03	1.188319E-17	1.712287E-18
3.380000E+03	1.155967E-17	1.665656E-18
3.390000E+03	1.125023E-17	1.621054E-18
3.400000E+03	1.095472E-17	1.578460E-18
3.410000E+03	1.067253E-17	1.537785E-18
3.420000E+03	1.040309E-17	1.498947E-18
3.430000E+03	1.014596E-17	1.461886E-18
3.440000E+03	9.900764E-18	1.426543E-18
3.450000E+03	9.666849E-18	1.392827E-18
3.460000E+03	9.443965E-18	1.360701E-18
3.470000E+03	9.231524E-18	1.330080E-18
3.480000E+03	9.029195E-18	1.300916E-18
3.490000E+03	8.836547E-18	1.273148E-18
3.500000E+03	8.653175E-18	1.246716E-18
3.510000E+03	8.478692E-18	1.221566E-18
3.520000E+03	8.312736E-18	1.197644E-18
3.530000E+03	8.154869E-18	1.174888E-18
3.540000E+03	8.004684E-18	1.153240E-18
3.550000E+03	7.861886E-18	1.132656E-18
3.560000E+03	7.726110E-18	1.113084E-18
3.570000E+03	7.597095E-18	1.094486E-18
3.580000E+03	7.474439E-18	1.076805E-18
3.590000E+03	7.357914E-18	1.060007E-18
3.600000E+03	7.247233E-18	1.044052E-18
3.610000E+03	7.142266E-18	1.028920E-18
3.620000E+03	7.042678E-18	1.014563E-18
3.630000E+03	6.948287E-18	1.000955E-18
3.640000E+03	6.858722E-18	9.880422E-19
3.650000E+03	6.773831E-18	9.758032E-19
3.660000E+03	6.693403E-18	9.642072E-19
3.670000E+03	6.617235E-18	9.532252E-19
3.680000E+03	6.545198E-18	9.428383E-19
3.690000E+03	6.477162E-18	9.330280E-19
3.700000E+03	6.412944E-18	9.237678E-19
3.710000E+03	6.352482E-18	9.150488E-19
3.720000E+03	6.295603E-18	9.068459E-19
3.730000E+03	6.242300E-18	8.991584E-19
3.740000E+03	6.192461E-18	8.919699E-19
3.750000E+03	6.145968E-18	8.852635E-19
3.760000E+03	6.102764E-18	8.790310E-19
3.770000E+03	6.062843E-18	8.732714E-19
3.780000E+03	6.026093E-18	8.679685E-19
3.790000E+03	5.992504E-18	8.631211E-19
3.800000E+03	5.961966E-18	8.587131E-19
3.810000E+03	5.934420E-18	8.547362E-19
3.820000E+03	5.909857E-18	8.511888E-19
3.830000E+03	5.888266E-18	8.480697E-19
3.840000E+03	5.869540E-18	8.453631E-19
3.850000E+03	5.853716E-18	8.430745E-19
3.860000E+03	5.840640E-18	8.411817E-19
3.870000E+03	5.830398E-18	8.396971E-19
3.880000E+03	5.822836E-18	8.385984E-19
3.890000E+03	5.818040E-18	8.378981E-19
3.900000E+03	5.815907E-18	8.375812E-19
3.910000E+03	5.816426E-18	8.376462E-19
3.920000E+03	5.819544E-18	8.380855E-19
3.930000E+03	5.825251E-18	8.388975E-19
3.940000E+03	5.833493E-18	8.400746E-19
3.950000E+03	5.844311E-18	8.416224E-19
3.960000E+03	5.857604E-18	8.435267E-19
3.970000E+03	5.873368E-18	8.457867E-19
3.980000E+03	5.891550E-18	8.483948E-19
3.990000E+03	5.912191E-18	8.513570E-19
4.000000E+03	5.935244E-18	8.546662E-19
4.010000E+03	5.960658E-18	8.583154E-19
4.020000E+03	5.988383E-18	8.622972E-19
4.030000E+03	6.018467E-18	8.666184E-19
4.040000E+03	6.050812E-18	8.712651E-19
4.050000E+03	6.085468E-18	8.762444E-19
4.060000E+03	6.122341E-18	8.815427E-19
4.070000E+03	6.161430E-18	8.871601E-19
4.080000E+03	6.202742E-18	8.930971E-19
4.090000E+03	6.246229E-18	8.993472E-19
4.100000E+03	6.291847E-18	9.059040E-19
4.110000E+03	6.339553E-18	9.127611E-19
4.120000E+03	6.389399E-18	9.199261E-19
4.130000E+03	6.441295E-18	9.273861E-19
4.140000E+03	6.495247E-18	9.351418E-19
4.150000E+03	6.551161E-18	9.431796E-19
4.160000E+03	6.609042E-18	9.515004E-19
4.170000E+03	6.668900E-18	9.601056E-19
4.180000E+03	6.730638E-18	9.689811E-19
4.190000E+03	6.794264E-18	9.781283E-19
4.200000E+03	6.859682E-18	9.875329E-19
4.210000E+03	6.926897E-18	9.971961E-19
4.220000E+03	6.995807E-18	1.007103E-18
4.230000E+03	7.066421E-18	1.017255E-18
4.240000E+03	7.138632E-18	1.027636E-18
4.250000E+03	7.212387E-18	1.038239E-18
4.260000E+03	7.287577E-18	1.049049E-18
4.270000E+03	7.364202E-18	1.060065E-18
4.280000E+03	7.442145E-18	1.071270E-18
4.290000E+03	7.521344E-18	1.082655E-18
4.300000E+03	7.601676E-18	1.094204E-18
4.310000E+03	7.683009E-18	1.105896E-18
4.320000E+03	7.765271E-18	1.117721E-18
4.330000E+03	7.848384E-18	1.129668E-18
4.340000E+03	7.932207E-18	1.141717E-18
4.350000E+03	8.016655E-18	1.153856E-18
4.360000E+03	8.101575E-18	1.166062E-18
4.370000E+03	8.186938E-18	1.178332E-18
4.380000E+03	8.272653E-18	1.190652E-18
4.390000E+03	8.358825E-18	1.203037E-18
4.400000E+03	8.445364E-18	1.215474E-18
4.410000E+03	8.532316E-18	1.227971E-18
4.420000E+03	8.619662E-18	1.240524E-18
4.430000E+03	8.707527E-18	1.253151E-18
4.440000E+03	8.795829E-18	1.265841E-18
4.450000E+03	8.884556E-18	1.278591E-18
4.460000E+03	8.973775E-18	1.291411E-18
4.470000E+03	9.063481E-18	1.304302E-18
4.480000E+03	9.153674E-18	1.317262E-18
4.490000E+03	9.244278E-18	1.330280E-18
4.500000E+03	9.335372E-18	1.343369E-18
4.510000E+03	9.426885E-18	1.356517E-18
4.520000E+03	9.518827E-18	1.369727E-18
4.530000E+03	9.611207E-18	1.382999E-18
4.540000E+03	9.703878E-18	1.396313E-18
4.550000E+03	9.796941E-18	1.409682E-18
4.560000E+03	9.890316E-18	1.423096E-18
4.570000E+03	9.984045E-18	1.436560E-18
4.580000E+03	1.007798E-17	1.450054E-18
4.590000E+03	1.017223E-17	1.463592E-18
4.600000E+03	1.026664E-17	1.477154E-18
4.610000E+03	1.036136E-17	1.490757E-18
4.620000E+03	1.045623E-17	1.504384E-18
4.630000E+03	1.055131E-17	1.518039E-18
4.640000E+03	1.064654E-17	1.531716E-18
4.650000E+03	1.074206E-17	1.545434E-18
4.660000E+03	1.083778E-17	1.559179E-18
4.670000E+03	1.093381E-17	1.572970E-18
4.680000E+03	1.103016E-17	1.586805E-18
4.690000E+03	1.112679E-17	1.600681E-18
4.700000E+03	1.122389E-17	1.614623E-18
4.710000E+03	1.132135E-17	1.628616E-18
4.720000E+03	1.141925E-17	1.642672E-18
4.730000E+03	1.151747E-17	1.656774E-18
4.740000E+03	1.161612E-17	1.670937E-18
4.750000E+03	1.171499E-17	1.685130E-18
4.760000E+03	1.181415E-17	1.699366E-18
4.770000E+03	1.191352E-17	1.713629E-18
4.780000E+03	1.201317E-17	1.727934E-18
4.790000E+03	1.211301E-17	1.742265E-18
4.800000E+03	1.221303E-17	1.756620E-18
4.810000E+03	1.231322E-17	1.771000E-18
4.820000E+03	1.241358E-17	1.785404E-18
4.830000E+03	1.251410E-17	1.799830E-18
4.840000E+03	1.261466E-17	1.814261E-18
4.850000E+03	1.271538E-17	1.828714E-18
4.860000E+03	1.281623E-17	1.843186E-18
4.870000E+03	1.291710E-17	1.857660E-18
4.880000E+03	1.301797E-17	1.872132E-18
4.890000E+03	1.311894E-17	1.886618E-18
4.900000E+03	1.321976E-17	1.901083E-18
4.910000E+03	1.332065E-17	1.915556E-18
4.920000E+03	1.342146E-17	1.930016E-18
4.930000E+03	1.352202E-17	1.944441E-18
4.940000E+03	1.362243E-17	1.958844E-18
4.950000E+03	1.372267E-17	1.973221E-18
4.960000E+03	1.382255E-17	1.987544E-18
4.970000E+03	1.392213E-17	2.001826E-18
4.980000E+03	1.402113E-17	2.016021E-18
4.990000E+03	1.411973E-17	2.030159E-18
5.000000E+03	1.421772E-17	2.044209E-18
5.010000E+03	1.431490E-17	2.058141E-18
5.020000E+03	1.441131E-17	2.071963E-18
5.030000E+03	1.450675E-17	2.085643E-18
5.040000E+03	1.460110E-17	2.099166E-18
5.050000E+03	1.469426E-17	2.112517E-18
5.060000E+03	1.478612E-17	2.125680E-18
5.070000E+03	1.487642E-17	2.138619E-18
5.080000E+03	1.496518E-17	2.151336E-18
5.090000E+03	1.505213E-17	2.163791E-18
5.100000E+03	1.513714E-17	2.175966E-18
5.110000E+03	1.521990E-17	2.187818E-18
5.120000E+03	1.530044E-17	2.199349E-18
5.130000E+03	1.537828E-17	2.210492E-18
5.140000E+03	1.545359E-17	2.221270E-18
5.150000E+03	1.552589E-17	2.231615E-18
5.160000E+03	1.559518E-17	2.241526E-18
5.170000E+03	1.566114E-17	2.250959E-18
5.180000E+03	1.572345E-17	2.259866E-18
5.190000E+03	1.578210E-17	2.268244E-18
5.200000E+03	1.583674E-17	2.276049E-18
5.210000E+03	1.588723E-17	2.283254E-18
5.220000E+03	1.593341E-17	2.289840E-18
5.230000E+03	1.597493E-17	2.295756E-18
5.240000E+03	1.601164E-17	2.300979E-18
5.250000E+03	1.604325E-17	2.305469E-18
5.260000E+03	1.606973E-17	2.309223E-18
5.270000E+03	1.609083E-17	2.312200E-18
5.280000E+03	1.610639E-17	2.314383E-18
5.290000E+03	1.611630E-17	2.315754E-18
5.300000E+03	1.612032E-17	2.316276E-18
5.310000E+03	1.611834E-17	2.315938E-18
5.320000E+03	1.611031E-17	2.314729E-18
5.330000E+03	1.609618E-17	2.312644E-18
5.340000E+03	1.607577E-17	2.309655E-18
5.350000E+03	1.604924E-17	2.305789E-18
5.360000E+03	1.601662E-17	2.301046E-18
5.370000E+03	1.597797E-17	2.295436E-18
5.380000E+03	1.593321E-17	2.288950E-18
5.390000E+03	1.588277E-17	2.281647E-18
5.400000E+03	1.582664E-17	2.273527E-18
5.410000E+03	1.576530E-17	2.264659E-18
5.420000E+03	1.569880E-17	2.255050E-18
5.430000E+03	1.562753E-17	2.244755E-18
5.440000E+03	1.555176E-17	2.233814E-18
5.450000E+03	1.547207E-17	2.222310E-18
5.460000E+03	1.538863E-17	2.210267E-18
5.470000E+03	1.530162E-17	2.197713E-18
5.480000E+03	1.521108E-17	2.184652E-18
5.490000E+03	1.511742E-17	2.171142E-18
5.500000E+03	1.502072E-17	2.157198E-18
5.510000E+03	1.492127E-17	2.142858E-18
5.520000E+03	1.481934E-17	2.128162E-18
5.530000E+03	1.471522E-17	2.113153E-18
5.540000E+03	1.460923E-17	2.097875E-18
5.550000E+03	1.450183E-17	2.082395E-18
5.560000E+03	1.439331E-17	2.066754E-18
5.570000E+03	1.428427E-17	2.051040E-18
5.580000E+03	1.417485E-17	2.035272E-18
5.590000E+03	1.406578E-17	2.019554E-18
5.600000E+03	1.395716E-17	2.003903E-18
5.610000E+03	1.384956E-17	1.988397E-18
5.620000E+03	1.374346E-17	1.973108E-18
5.630000E+03	1.363895E-17	1.958047E-18
5.640000E+03	1.353677E-17	1.943322E-18
5.650000E+03	1.343709E-17	1.928955E-18
5.660000E+03	1.334005E-17	1.914968E-18
5.670000E+03	1.324630E-17	1.901455E-18
5.680000E+03	1.315582E-17	1.888409E-18
5.690000E+03	1.306894E-17	1.875883E-18
5.700000E+03	1.298599E-17	1.863920E-18
5.710000E+03	1.290713E-17	1.852545E-18
5.720000E+03	1.283250E-17	1.841777E-18
5.730000E+03	1.276224E-17	1.831636E-18
5.740000E+03	1.269657E-17	1.822156E-18
5.750000E+03	1.263573E-17	1.813368E-18
5.760000E+03	1.257953E-17	1.805247E-18
5.770000E+03	1.252844E-17	1.797858E-18
5.780000E+03	1.248224E-17	1.791172E-18
5.790000E+03	1.244125E-17	1.785234E-18
5.800000E+03	1.240537E-17	1.780028E-18
5.810000E+03	1.237477E-17	1.775580E-18
5.820000E+03	1.234947E-17	1.771892E-18
5.830000E+03	1.232961E-17	1.768985E-18
5.840000E+03	1.231508E-17	1.766843E-18
5.850000E+03	1.230588E-17	1.765464E-18
5.860000E+03	1.230213E-17	1.764869E-18
5.870000E+03	1.230400E-17	1.765078E-18
5.880000E+03	1.231117E-17	1.766047E-18
5.890000E+03	1.232391E-17	1.767815E-18
5.900000E+03	1.234206E-17	1.770358E-18
5.910000E+03	1.236572E-17	1.773692E-18
5.920000E+03	1.239488E-17	1.777813E-18
5.930000E+03	1.242933E-17	1.782694E-18
5.940000E+03	1.246918E-17	1.788348E-18
5.950000E+03	1.251437E-17	1.794766E-18
5.960000E+03	1.256469E-17	1.801919E-18
5.970000E+03	1.262034E-17	1.809836E-18
5.980000E+03	1.268096E-17	1.818465E-18
5.990000E+03	1.274660E-17	1.827813E-18
6.000000E+03	1.281716E-17	1.837865E-18
6.010000E+03	1.289236E-17	1.848582E-18
6.020000E+03	1.297225E-17	1.859969E-18
6.030000E+03	1.305637E-17	1.871963E-18
6.040000E+03	1.314488E-17	1.884583E-18
6.050000E+03	1.323731E-17	1.897766E-18
6.060000E+03	1.333366E-17	1.911508E-18
6.070000E+03	1.343357E-17	1.925759E-18
6.080000E+03	1.353686E-17	1.940495E-18
6.090000E+03	1.364317E-17	1.955660E-18
6.100000E+03	1.375211E-17	1.971201E-18
6.110000E+03	1.386364E-17	1.987112E-18
6.120000E+03	1.397702E-17	2.003287E-18
6.130000E+03	1.409218E-17	2.019716E-18
6.140000E+03	1.420855E-17	2.036315E-18
6.150000E+03	1.432584E-17	2.053045E-18
6.160000E+03	1.444313E-17	2.069773E-18
6.170000E+03	1.456030E-17	2.086483E-18
6.180000E+03	1.467655E-17	2.103059E-18
6.190000E+03	1.479141E-17	2.119433E-18
6.200000E+03	1.490423E-17	2.135514E-18
6.210000E+03	1.501510E-17	2.151314E-18
6.220000E+03	1.512434E-17	2.166878E-18
6.230000E+03	1.523230E-17	2.182258E-18
6.240000E+03	1.533936E-17	2.197507E-18
6.250000E+03	1.544539E-17	2.212607E-18
6.260000E+03	1.555123E-17	2.227678E-18
6.270000E+03	1.565658E-17	2.242677E-18
6.280000E+03	1.576199E-17	2.257683E-18
6.290000E+03	1.586780E-17	2.272744E-18
6.300000E+03	1.597377E-17	2.287827E-18
6.310000E+03	1.608032E-17	2.302992E-18
6.320000E+03	1.618766E-17	2.318266E-18
6.330000E+03	1.629602E-17	2.333686E-18
6.340000E+03	1.640521E-17	2.349223E-18
6.350000E+03	1.651549E-17	2.364915E-18
6.360000E+03	1.662691E-17	2.380767E-18
6.370000E+03	1.673951E-17	2.396787E-18
6.380000E+03	1.685312E-17	2.412950E-18
6.390000E+03	1.696756E-17	2.429229E-18
6.400000E+03	1.708261E-17	2.445594E-18
6.410000E+03	1.719833E-17	2.462053E-18
6.420000E+03	1.731449E-17	2.478573E-18
6.430000E+03	1.743037E-17	2.495052E-18
6.440000E+03	1.754677E-17	2.511602E-18
6.450000E+03	1.766370E-17	2.528227E-18
6.460000E+03	1.778147E-17	2.544969E-18
6.470000E+03	1.790065E-17	2.561912E-18
6.480000E+03	1.802105E-17	2.579027E-18
6.490000E+03	1.814327E-17	2.596401E-18
6.500000E+03	1.826738E-17	2.614044E-18
6.510000E+03	1.839376E-17	2.632008E-18
6.520000E+03	1.852192E-17	2.650225E-18
6.530000E+03	1.865277E-17	2.668826E-18
6.540000E+03	1.878586E-17	2.687744E-18
6.550000E+03	1.892154E-17	2.707031E-18
6.560000E+03	1.905991E-17	2.726700E-18
6.570000E+03	1.920074E-17	2.746719E-18
6.580000E+03	1.934442E-17	2.767143E-18
6.590000E+03	1.949103E-17	2.787984E-18
6.600000E+03	1.964034E-17	2.809209E-18
6.610000E+03	1.979243E-17	2.830828E-18
6.620000E+03	1.994736E-17	2.852851E-18
6.630000E+03	2.010553E-17	2.875336E-18
6.640000E+03	2.026634E-17	2.898195E-18
6.650000E+03	2.043022E-17	2.921490E-18
6.660000E+03	2.059721E-17	2.945227E-18
6.670000E+03	2.076702E-17	2.969366E-18
6.680000E+03	2.094007E-17	2.993964E-18
6.690000E+03	2.111608E-17	3.018982E-18
6.700000E+03	2.129542E-17	3.044474E-18
6.710000E+03	2.147745E-17	3.070348E-18
6.720000E+03	2.166256E-17	3.096658E-18
6.730000E+03	2.185119E-17	3.123468E-18
6.740000E+03	2.204262E-17	3.150676E-18
6.750000E+03	2.223726E-17	3.178339E-18
6.760000E+03	2.243478E-17	3.206411E-18
6.770000E+03	2.263559E-17	3.234950E-18
6.780000E+03	2.283933E-17	3.263904E-18
6.790000E+03	2.304603E-17	3.293277E-18
6.800000E+03	2.325612E-17	3.323132E-18
6.810000E+03	2.346879E-17	3.353352E-18
6.820000E+03	2.368490E-17	3.384060E-18
6.830000E+03	2.390361E-17	3.415136E-18
6.840000E+03	2.412580E-17	3.446705E-18
6.850000E+03	2.435060E-17	3.478644E-18
6.860000E+03	2.457801E-17	3.510951E-18
6.870000E+03	2.480846E-17	3.543689E-18
6.880000E+03	2.504196E-17	3.576858E-18
6.890000E+03	2.527755E-17	3.610323E-18
6.900000E+03	2.551615E-17	3.644214E-18
6.910000E+03	2.575728E-17	3.678462E-18
6.920000E+03	2.600137E-17	3.713128E-18
6.930000E+03	2.624743E-17	3.748073E-18
6.940000E+03	2.649591E-17	3.783357E-18
6.950000E+03	2.674676E-17	3.818978E-18
6.960000E+03	2.699943E-17	3.854852E-18
6.970000E+03	2.725437E-17	3.891047E-18
6.980000E+03	2.751154E-17	3.927557E-18
6.990000E+03	2.777035E-17	3.964297E-18
7.000000E+03	2.803074E-17	4.001258E-18
7.010000E+03	2.829265E-17	4.038430E-18
7.020000E+03	2.855657E-17	4.075886E-18
7.030000E+03	2.882131E-17	4.113455E-18
7.040000E+03	2.908795E-17	4.151290E-18
7.050000E+03	2.935528E-17	4.189219E-18
7.060000E+03	2.962380E-17	4.227315E-18
7.070000E+03	2.989288E-17	4.265485E-18
7.080000E+03	3.016305E-17	4.303806E-18
7.090000E+03	3.043424E-17	4.342269E-18
7.100000E+03	3.070580E-17	4.380779E-18
7.110000E+03	3.097702E-17	4.419239E-18
7.120000E+03	3.124911E-17	4.457816E-18
7.130000E+03	3.152138E-17	4.496414E-18
7.140000E+03	3.179378E-17	4.535027E-18
7.150000E+03	3.206625E-17	4.573647E-18
7.160000E+03	3.233808E-17	4.612170E-18
7.170000E+03	3.260988E-17	4.650683E-18
7.180000E+03	3.288092E-17	4.689085E-18
7.190000E+03	3.315112E-17	4.727363E-18
7.200000E+03	3.342113E-17	4.765609E-18
7.210000E+03	3.369020E-17	4.803717E-18
7.220000E+03	3.395896E-17	4.841777E-18
7.230000E+03	3.422596E-17	4.879581E-18
7.240000E+03	3.449181E-17	4.917217E-18
7.250000E+03	3.475645E-17	4.954677E-18
7.260000E+03	3.501983E-17	4.991951E-18
7.270000E+03	3.528185E-17	5.029030E-18
7.280000E+03	3.554248E-17	5.065904E-18
7.290000E+03	3.580085E-17	5.102455E-18
7.300000E+03	3.605766E-17	5.138778E-18
7.310000E+03	3.631283E-17	5.174864E-18
7.320000E+03	3.656632E-17	5.210705E-18
7.330000E+03	3.681723E-17	5.246175E-18
7.340000E+03	3.706630E-17	5.281381E-18
7.350000E+03	3.731428E-17	5.316427E-18
7.360000E+03	3.755950E-17	5.351076E-18
7.370000E+03	3.780270E-17	5.385433E-18
7.380000E+03	3.804386E-17	5.419496E-18
7.390000E+03	3.828377E-17	5.453379E-18
7.400000E+03	3.852158E-17	5.486958E-18
7.410000E+03	3.875812E-17	5.520354E-18
7.420000E+03	3.899430E-17	5.553694E-18
7.430000E+03	3.922926E-17	5.586858E-18
7.440000E+03	3.946481E-17	5.620102E-18
7.450000E+03	3.969923E-17	5.653182E-18
7.460000E+03	3.993346E-17	5.686233E-18
7.470000E+03	4.016667E-17	5.719134E-18
7.480000E+03	4.039979E-17	5.752021E-18
7.490000E+03	4.063107E-17	5.784640E-18
7.500000E+03	4.086142E-17	5.817127E-18
7.510000E+03	4.109093E-17	5.849489E-18
7.520000E+03	4.131864E-17	5.881594E-18
7.530000E+03	4.154651E-17	5.913719E-18
7.540000E+03	4.177264E-17	5.945591E-18
7.550000E+03	4.199798E-17	5.977350E-18
7.560000E+03	4.222156E-17	6.008855E-18
7.570000E+03	4.244434E-17	6.040245E-18
7.580000E+03	4.266531E-17	6.071374E-18
7.590000E+03	4.288544E-17	6.102381E-18
7.600000E+03	4.310365E-17	6.133113E-18
7.610000E+03	4.331989E-17	6.163562E-18
7.620000E+03	4.353511E-17	6.193864E-18
7.630000E+03	4.374819E-17	6.223858E-18
7.640000E+03	4.395900E-17	6.253529E-18
7.650000E+03	4.416852E-17	6.283012E-18
7.660000E+03	4.437551E-17	6.312135E-18
7.670000E+03	4.458093E-17	6.341032E-18
7.680000E+03	4.478243E-17	6.369369E-18
7.690000E+03	4.498201E-17	6.397432E-18
7.700000E+03	4.517951E-17	6.425197E-18
7.710000E+03	4.537358E-17	6.452473E-18
7.720000E+03	4.556516E-17	6.479392E-18
7.730000E+03	4.575287E-17	6.505760E-18
7.740000E+03	4.593645E-17	6.531539E-18
7.750000E+03	4.611679E-17	6.556856E-18
7.760000E+03	4.629365E-17	6.581678E-18
