#wls	flux	fluxerr
1.600000E+03	1.385227E-16	1.334600E-17
1.640000E+03	1.430685E-16	1.378374E-17
1.680000E+03	1.474584E-16	1.420645E-17
1.720000E+03	1.516244E-16	1.460758E-17
1.760000E+03	1.555524E-16	1.498575E-17
1.800000E+03	1.591669E-16	1.533370E-17
1.840000E+03	1.624178E-16	1.564660E-17
1.880000E+03	1.652808E-16	1.592212E-17
1.920000E+03	1.676739E-16	1.615236E-17
1.960000E+03	1.695570E-16	1.633344E-17
2.000000E+03	1.708644E-16	1.645906E-17
2.040000E+03	1.715598E-16	1.652571E-17
2.080000E+03	1.715635E-16	1.652572E-17
2.120000E+03	1.708203E-16	1.645379E-17
2.160000E+03	1.692784E-16	1.630491E-17
2.200000E+03	1.668549E-16	1.607113E-17
2.240000E+03	1.634899E-16	1.574666E-17
2.280000E+03	1.591945E-16	1.533259E-17
2.320000E+03	1.540388E-16	1.483567E-17
2.360000E+03	1.481891E-16	1.427193E-17
2.400000E+03	1.417844E-16	1.365476E-17
2.440000E+03	1.349468E-16	1.299592E-17
2.480000E+03	1.278010E-16	1.230743E-17
2.520000E+03	1.204276E-16	1.159705E-17
2.560000E+03	1.129160E-16	1.087339E-17
2.600000E+03	1.053420E-16	1.014376E-17
2.640000E+03	9.778260E-17	9.415570E-18
2.680000E+03	9.030047E-17	8.694855E-18
2.720000E+03	8.295708E-17	7.987537E-18
2.760000E+03	7.580864E-17	7.299026E-18
2.800000E+03	6.890597E-17	6.634215E-18
2.840000E+03	6.229601E-17	5.997622E-18
2.880000E+03	5.602305E-17	5.393511E-18
2.920000E+03	5.012519E-17	4.825546E-18
2.960000E+03	4.463438E-17	4.296802E-18
3.000000E+03	3.957286E-17	3.809415E-18
3.010000E+03	3.837719E-17	3.694284E-18
3.020000E+03	3.720829E-17	3.581731E-18
3.030000E+03	3.606774E-17	3.471909E-18
3.040000E+03	3.495451E-17	3.364719E-18
3.050000E+03	3.386917E-17	3.260216E-18
3.060000E+03	3.281217E-17	3.158441E-18
3.070000E+03	3.178184E-17	3.059236E-18
3.080000E+03	3.077993E-17	2.962768E-18
3.090000E+03	2.980480E-17	2.868879E-18
3.100000E+03	2.885736E-17	2.777658E-18
3.110000E+03	2.793667E-17	2.689013E-18
3.120000E+03	2.704239E-17	2.602911E-18
3.130000E+03	2.617524E-17	2.519422E-18
3.140000E+03	2.533379E-17	2.438408E-18
3.150000E+03	2.451912E-17	2.359972E-18
3.160000E+03	2.372937E-17	2.283938E-18
3.170000E+03	2.296553E-17	2.210398E-18
3.180000E+03	2.222629E-17	2.139227E-18
3.190000E+03	2.151202E-17	2.070460E-18
3.200000E+03	2.082188E-17	2.004017E-18
3.210000E+03	2.015577E-17	1.939889E-18
3.220000E+03	1.951321E-17	1.878028E-18
3.230000E+03	1.889372E-17	1.818388E-18
3.240000E+03	1.829647E-17	1.760890E-18
3.250000E+03	1.772160E-17	1.705547E-18
3.260000E+03	1.716831E-17	1.652281E-18
3.270000E+03	1.663633E-17	1.601068E-18
3.280000E+03	1.612487E-17	1.551830E-18
3.290000E+03	1.563343E-17	1.504520E-18
3.300000E+03	1.516173E-17	1.459109E-18
3.310000E+03	1.470897E-17	1.415523E-18
3.320000E+03	1.427488E-17	1.373734E-18
3.330000E+03	1.385888E-17	1.333688E-18
3.340000E+03	1.346007E-17	1.295296E-18
3.350000E+03	1.307831E-17	1.258545E-18
3.360000E+03	1.271289E-17	1.223368E-18
3.370000E+03	1.236332E-17	1.189716E-18
3.380000E+03	1.202908E-17	1.157541E-18
3.390000E+03	1.170937E-17	1.126764E-18
3.400000E+03	1.140403E-17	1.097371E-18
3.410000E+03	1.111246E-17	1.069302E-18
3.420000E+03	1.083404E-17	1.042500E-18
3.430000E+03	1.056835E-17	1.016924E-18
3.440000E+03	1.031498E-17	9.925330E-19
3.450000E+03	1.007325E-17	9.692631E-19
3.460000E+03	9.842936E-18	9.470915E-19
3.470000E+03	9.623405E-18	9.259583E-19
3.480000E+03	9.414324E-18	9.058308E-19
3.490000E+03	9.215246E-18	8.866663E-19
3.500000E+03	9.025755E-18	8.684245E-19
3.510000E+03	8.845452E-18	8.510672E-19
3.520000E+03	8.673963E-18	8.345582E-19
3.530000E+03	8.510836E-18	8.188541E-19
3.540000E+03	8.355652E-18	8.039145E-19
3.550000E+03	8.208105E-18	7.897100E-19
3.560000E+03	8.067823E-18	7.762046E-19
3.570000E+03	7.934535E-18	7.633725E-19
3.580000E+03	7.807825E-18	7.511735E-19
3.590000E+03	7.687463E-18	7.395854E-19
3.600000E+03	7.573150E-18	7.285795E-19
3.610000E+03	7.464757E-18	7.181434E-19
3.620000E+03	7.361935E-18	7.082434E-19
3.630000E+03	7.264502E-18	6.988620E-19
3.640000E+03	7.172071E-18	6.899621E-19
3.650000E+03	7.084488E-18	6.815286E-19
3.660000E+03	7.001535E-18	6.735408E-19
3.670000E+03	6.923006E-18	6.659786E-19
3.680000E+03	6.848765E-18	6.588292E-19
3.690000E+03	6.778683E-18	6.520799E-19
3.700000E+03	6.712571E-18	6.457126E-19
3.710000E+03	6.650367E-18	6.397214E-19
3.720000E+03	6.591890E-18	6.340888E-19
3.730000E+03	6.537141E-18	6.288149E-19
3.740000E+03	6.485998E-18	6.238881E-19
3.750000E+03	6.438348E-18	6.192972E-19
3.760000E+03	6.394130E-18	6.150366E-19
3.770000E+03	6.353341E-18	6.111059E-19
3.780000E+03	6.315865E-18	6.074939E-19
3.790000E+03	6.281696E-18	6.042000E-19
3.800000E+03	6.250721E-18	6.012134E-19
3.810000E+03	6.222879E-18	5.985282E-19
3.820000E+03	6.198166E-18	5.961439E-19
3.830000E+03	6.176573E-18	5.940598E-19
3.840000E+03	6.157988E-18	5.922651E-19
3.850000E+03	6.142456E-18	5.907640E-19
3.860000E+03	6.129817E-18	5.895411E-19
3.870000E+03	6.120164E-18	5.886054E-19
3.880000E+03	6.113338E-18	5.879416E-19
3.890000E+03	6.109432E-18	5.875586E-19
3.900000E+03	6.108340E-18	5.874463E-19
3.910000E+03	6.110054E-18	5.876037E-19
3.920000E+03	6.114518E-18	5.880256E-19
3.930000E+03	6.121727E-18	5.887114E-19
3.940000E+03	6.131623E-18	5.896556E-19
3.950000E+03	6.144250E-18	5.908624E-19
3.960000E+03	6.159505E-18	5.923218E-19
3.970000E+03	6.177384E-18	5.940335E-19
3.980000E+03	6.197832E-18	5.959922E-19
3.990000E+03	6.220893E-18	5.982021E-19
4.000000E+03	6.246518E-18	6.006584E-19
4.010000E+03	6.274653E-18	6.033561E-19
4.020000E+03	6.305246E-18	6.062900E-19
4.030000E+03	6.338347E-18	6.094649E-19
4.040000E+03	6.373854E-18	6.128711E-19
4.050000E+03	6.411820E-18	6.165136E-19
4.060000E+03	6.452145E-18	6.203828E-19
4.070000E+03	6.494830E-18	6.244789E-19
4.080000E+03	6.539879E-18	6.288020E-19
4.090000E+03	6.587245E-18	6.333478E-19
4.100000E+03	6.636882E-18	6.381118E-19
4.110000E+03	6.688741E-18	6.430894E-19
4.120000E+03	6.742885E-18	6.482863E-19
4.130000E+03	6.799212E-18	6.536931E-19
4.140000E+03	6.857733E-18	6.593106E-19
4.150000E+03	6.918349E-18	6.651294E-19
4.160000E+03	6.981066E-18	6.711499E-19
4.170000E+03	7.045896E-18	6.773735E-19
4.180000E+03	7.112739E-18	6.837904E-19
4.190000E+03	7.181604E-18	6.904014E-19
4.200000E+03	7.252390E-18	6.971969E-19
4.210000E+03	7.325105E-18	7.041776E-19
4.220000E+03	7.399645E-18	7.113336E-19
4.230000E+03	7.476017E-18	7.186655E-19
4.240000E+03	7.554114E-18	7.261629E-19
4.250000E+03	7.633880E-18	7.338206E-19
4.260000E+03	7.715202E-18	7.416276E-19
4.270000E+03	7.798081E-18	7.495840E-19
4.280000E+03	7.882395E-18	7.576782E-19
4.290000E+03	7.968082E-18	7.659041E-19
4.300000E+03	8.055010E-18	7.742490E-19
4.310000E+03	8.143043E-18	7.826998E-19
4.320000E+03	8.232104E-18	7.912493E-19
4.330000E+03	8.322113E-18	7.998895E-19
4.340000E+03	8.412916E-18	8.086058E-19
4.350000E+03	8.504424E-18	8.173897E-19
4.360000E+03	8.596474E-18	8.262252E-19
4.370000E+03	8.689034E-18	8.351097E-19
4.380000E+03	8.782002E-18	8.440330E-19
4.390000E+03	8.875490E-18	8.530060E-19
4.400000E+03	8.969399E-18	8.620192E-19
4.410000E+03	9.063773E-18	8.710769E-19
4.420000E+03	9.158590E-18	8.801768E-19
4.430000E+03	9.253979E-18	8.893314E-19
4.440000E+03	9.349849E-18	8.985320E-19
4.450000E+03	9.446186E-18	9.077771E-19
4.460000E+03	9.543052E-18	9.170728E-19
4.470000E+03	9.640440E-18	9.264185E-19
4.480000E+03	9.738345E-18	9.358134E-19
4.490000E+03	9.836680E-18	9.452495E-19
4.500000E+03	9.935529E-18	9.547346E-19
4.510000E+03	1.003480E-17	9.642597E-19
4.520000E+03	1.013452E-17	9.738278E-19
4.530000E+03	1.023466E-17	9.834369E-19
4.540000E+03	1.033509E-17	9.930719E-19
4.550000E+03	1.043589E-17	1.002743E-18
4.560000E+03	1.053698E-17	1.012442E-18
4.570000E+03	1.063841E-17	1.022173E-18
4.580000E+03	1.073999E-17	1.031918E-18
4.590000E+03	1.084185E-17	1.041690E-18
4.600000E+03	1.094383E-17	1.051473E-18
4.610000E+03	1.104606E-17	1.061279E-18
4.620000E+03	1.114839E-17	1.071096E-18
4.630000E+03	1.125086E-17	1.080925E-18
4.640000E+03	1.135343E-17	1.090763E-18
4.650000E+03	1.145623E-17	1.100624E-18
4.660000E+03	1.155915E-17	1.110495E-18
4.670000E+03	1.166236E-17	1.120393E-18
4.680000E+03	1.176581E-17	1.130316E-18
4.690000E+03	1.186949E-17	1.140259E-18
4.700000E+03	1.197361E-17	1.150244E-18
4.710000E+03	1.207802E-17	1.160257E-18
4.720000E+03	1.218285E-17	1.170310E-18
4.730000E+03	1.228796E-17	1.180390E-18
4.740000E+03	1.239349E-17	1.190508E-18
4.750000E+03	1.249917E-17	1.200642E-18
4.760000E+03	1.260514E-17	1.210803E-18
4.770000E+03	1.271127E-17	1.220979E-18
4.780000E+03	1.281768E-17	1.231182E-18
4.790000E+03	1.292427E-17	1.241401E-18
4.800000E+03	1.303102E-17	1.251636E-18
4.810000E+03	1.313793E-17	1.261886E-18
4.820000E+03	1.324502E-17	1.272153E-18
4.830000E+03	1.335229E-17	1.282436E-18
4.840000E+03	1.345961E-17	1.292724E-18
4.850000E+03	1.356709E-17	1.303027E-18
4.860000E+03	1.367476E-17	1.313348E-18
4.870000E+03	1.378248E-17	1.323673E-18
4.880000E+03	1.389023E-17	1.334001E-18
4.890000E+03	1.399813E-17	1.344343E-18
4.900000E+03	1.410593E-17	1.354674E-18
4.910000E+03	1.421386E-17	1.365018E-18
4.920000E+03	1.432177E-17	1.375360E-18
4.930000E+03	1.442950E-17	1.385684E-18
4.940000E+03	1.453716E-17	1.396001E-18
4.950000E+03	1.464471E-17	1.406307E-18
4.960000E+03	1.475197E-17	1.416584E-18
4.970000E+03	1.485903E-17	1.426842E-18
4.980000E+03	1.496554E-17	1.437047E-18
4.990000E+03	1.507173E-17	1.447222E-18
5.000000E+03	1.517738E-17	1.457344E-18
5.010000E+03	1.528226E-17	1.467391E-18
5.020000E+03	1.538643E-17	1.477369E-18
5.030000E+03	1.548963E-17	1.487254E-18
5.040000E+03	1.559177E-17	1.497038E-18
5.050000E+03	1.569271E-17	1.506706E-18
5.060000E+03	1.579234E-17	1.516246E-18
5.070000E+03	1.589037E-17	1.525634E-18
5.080000E+03	1.598680E-17	1.534868E-18
5.090000E+03	1.608135E-17	1.543920E-18
5.100000E+03	1.617385E-17	1.552776E-18
5.110000E+03	1.626398E-17	1.561402E-18
5.120000E+03	1.635173E-17	1.569802E-18
5.130000E+03	1.643661E-17	1.577925E-18
5.140000E+03	1.651876E-17	1.585785E-18
5.150000E+03	1.659768E-17	1.593335E-18
5.160000E+03	1.667333E-17	1.600571E-18
5.170000E+03	1.674539E-17	1.607461E-18
5.180000E+03	1.681347E-17	1.613970E-18
5.190000E+03	1.687756E-17	1.620095E-18
5.200000E+03	1.693729E-17	1.625802E-18
5.210000E+03	1.699247E-17	1.631072E-18
5.220000E+03	1.704291E-17	1.635885E-18
5.230000E+03	1.708823E-17	1.640209E-18
5.240000E+03	1.712825E-17	1.644022E-18
5.250000E+03	1.716260E-17	1.647291E-18
5.260000E+03	1.719127E-17	1.650015E-18
5.270000E+03	1.721392E-17	1.652161E-18
5.280000E+03	1.723037E-17	1.653712E-18
5.290000E+03	1.724046E-17	1.654652E-18
5.300000E+03	1.724388E-17	1.654952E-18
5.310000E+03	1.724050E-17	1.654600E-18
5.320000E+03	1.723021E-17	1.653584E-18
5.330000E+03	1.721291E-17	1.651896E-18
5.340000E+03	1.718839E-17	1.649514E-18
5.350000E+03	1.715677E-17	1.646451E-18
5.360000E+03	1.711806E-17	1.642708E-18
5.370000E+03	1.707227E-17	1.638286E-18
5.380000E+03	1.701932E-17	1.633176E-18
5.390000E+03	1.695964E-17	1.627421E-18
5.400000E+03	1.689321E-17	1.621018E-18
5.410000E+03	1.682056E-17	1.614018E-18
5.420000E+03	1.674172E-17	1.606426E-18
5.430000E+03	1.665717E-17	1.598284E-18
5.440000E+03	1.656719E-17	1.589623E-18
5.450000E+03	1.647247E-17	1.580507E-18
5.460000E+03	1.637324E-17	1.570958E-18
5.470000E+03	1.626974E-17	1.561000E-18
5.480000E+03	1.616210E-17	1.550645E-18
5.490000E+03	1.605083E-17	1.539943E-18
5.500000E+03	1.593614E-17	1.528912E-18
5.510000E+03	1.581839E-17	1.517588E-18
5.520000E+03	1.569801E-17	1.506012E-18
5.530000E+03	1.557542E-17	1.494224E-18
5.540000E+03	1.545104E-17	1.482266E-18
5.550000E+03	1.532548E-17	1.470195E-18
5.560000E+03	1.519920E-17	1.458054E-18
5.570000E+03	1.507289E-17	1.445911E-18
5.580000E+03	1.494684E-17	1.433794E-18
5.590000E+03	1.482189E-17	1.421782E-18
5.600000E+03	1.469829E-17	1.409900E-18
5.610000E+03	1.457664E-17	1.398206E-18
5.620000E+03	1.445758E-17	1.386761E-18
5.630000E+03	1.434125E-17	1.375578E-18
5.640000E+03	1.422848E-17	1.364736E-18
5.650000E+03	1.411947E-17	1.354256E-18
5.660000E+03	1.401441E-17	1.344154E-18
5.670000E+03	1.391401E-17	1.334501E-18
5.680000E+03	1.381822E-17	1.325290E-18
5.690000E+03	1.372742E-17	1.316557E-18
5.700000E+03	1.364192E-17	1.308333E-18
5.710000E+03	1.356189E-17	1.300634E-18
5.720000E+03	1.348744E-17	1.293470E-18
5.730000E+03	1.341868E-17	1.286852E-18
5.740000E+03	1.335584E-17	1.280803E-18
5.750000E+03	1.329914E-17	1.275342E-18
5.760000E+03	1.324834E-17	1.270447E-18
5.770000E+03	1.320391E-17	1.266163E-18
5.780000E+03	1.316559E-17	1.262466E-18
5.790000E+03	1.313373E-17	1.259387E-18
5.800000E+03	1.310817E-17	1.256913E-18
5.810000E+03	1.308908E-17	1.255059E-18
5.820000E+03	1.307650E-17	1.253830E-18
5.830000E+03	1.307055E-17	1.253236E-18
5.840000E+03	1.307112E-17	1.253268E-18
5.850000E+03	1.307823E-17	1.253927E-18
5.860000E+03	1.309200E-17	1.255224E-18
5.870000E+03	1.311260E-17	1.257176E-18
5.880000E+03	1.313974E-17	1.259754E-18
5.890000E+03	1.317368E-17	1.262985E-18
5.900000E+03	1.321429E-17	1.266855E-18
5.910000E+03	1.326168E-17	1.271375E-18
5.920000E+03	1.331583E-17	1.276543E-18
5.930000E+03	1.337656E-17	1.282341E-18
5.940000E+03	1.344395E-17	1.288778E-18
5.950000E+03	1.351798E-17	1.295850E-18
5.960000E+03	1.359840E-17	1.303536E-18
5.970000E+03	1.368544E-17	1.311855E-18
5.980000E+03	1.377869E-17	1.320769E-18
5.990000E+03	1.387820E-17	1.330283E-18
6.000000E+03	1.398383E-17	1.340384E-18
6.010000E+03	1.409526E-17	1.351040E-18
6.020000E+03	1.421251E-17	1.362253E-18
6.030000E+03	1.433505E-17	1.373973E-18
6.040000E+03	1.446299E-17	1.386211E-18
6.050000E+03	1.459579E-17	1.398913E-18
6.060000E+03	1.473335E-17	1.412072E-18
6.070000E+03	1.487525E-17	1.425646E-18
6.080000E+03	1.502120E-17	1.439607E-18
6.090000E+03	1.517070E-17	1.453909E-18
6.100000E+03	1.532327E-17	1.468504E-18
6.110000E+03	1.547872E-17	1.483374E-18
6.120000E+03	1.563617E-17	1.498436E-18
6.130000E+03	1.579541E-17	1.513669E-18
6.140000E+03	1.595570E-17	1.529002E-18
6.150000E+03	1.611665E-17	1.544397E-18
6.160000E+03	1.627707E-17	1.559741E-18
6.170000E+03	1.643674E-17	1.575013E-18
6.180000E+03	1.659467E-17	1.590119E-18
6.190000E+03	1.675025E-17	1.604998E-18
6.200000E+03	1.690265E-17	1.619572E-18
6.210000E+03	1.705191E-17	1.633844E-18
6.220000E+03	1.719834E-17	1.647845E-18
6.230000E+03	1.734232E-17	1.661611E-18
6.240000E+03	1.748426E-17	1.675180E-18
6.250000E+03	1.762398E-17	1.688537E-18
6.260000E+03	1.776245E-17	1.701774E-18
6.270000E+03	1.789934E-17	1.714859E-18
6.280000E+03	1.803527E-17	1.727852E-18
6.290000E+03	1.817069E-17	1.740795E-18
6.300000E+03	1.830533E-17	1.753663E-18
6.310000E+03	1.843969E-17	1.766504E-18
6.320000E+03	1.857403E-17	1.779343E-18
6.330000E+03	1.870868E-17	1.792211E-18
6.340000E+03	1.884342E-17	1.805088E-18
6.350000E+03	1.897862E-17	1.818008E-18
6.360000E+03	1.911431E-17	1.830975E-18
6.370000E+03	1.925061E-17	1.844000E-18
6.380000E+03	1.938734E-17	1.857065E-18
6.390000E+03	1.952431E-17	1.870153E-18
6.400000E+03	1.966130E-17	1.883243E-18
6.410000E+03	1.979840E-17	1.896342E-18
6.420000E+03	1.993538E-17	1.909430E-18
6.430000E+03	2.007143E-17	1.922429E-18
6.440000E+03	2.020747E-17	1.935426E-18
6.450000E+03	2.034355E-17	1.948427E-18
6.460000E+03	2.048005E-17	1.961467E-18
6.470000E+03	2.061765E-17	1.974613E-18
6.480000E+03	2.075612E-17	1.987841E-18
6.490000E+03	2.089619E-17	2.001223E-18
6.500000E+03	2.103797E-17	2.014767E-18
6.510000E+03	2.118186E-17	2.028513E-18
6.520000E+03	2.132734E-17	2.042412E-18
6.530000E+03	2.147550E-17	2.056566E-18
6.540000E+03	2.162576E-17	2.070921E-18
6.550000E+03	2.177859E-17	2.085522E-18
6.560000E+03	2.193408E-17	2.100377E-18
6.570000E+03	2.209198E-17	2.115462E-18
6.580000E+03	2.225274E-17	2.130822E-18
6.590000E+03	2.241648E-17	2.146465E-18
6.600000E+03	2.258291E-17	2.162366E-18
6.610000E+03	2.275213E-17	2.178533E-18
6.620000E+03	2.292422E-17	2.194975E-18
6.630000E+03	2.309962E-17	2.211734E-18
6.640000E+03	2.327768E-17	2.228746E-18
6.650000E+03	2.345883E-17	2.246054E-18
6.660000E+03	2.364316E-17	2.263666E-18
6.670000E+03	2.383033E-17	2.281549E-18
6.680000E+03	2.402081E-17	2.299749E-18
6.690000E+03	2.421426E-17	2.318232E-18
6.700000E+03	2.441113E-17	2.337042E-18
6.710000E+03	2.461066E-17	2.356106E-18
6.720000E+03	2.481329E-17	2.375467E-18
6.730000E+03	2.501952E-17	2.395172E-18
6.740000E+03	2.522853E-17	2.415141E-18
6.750000E+03	2.544080E-17	2.435423E-18
6.760000E+03	2.565591E-17	2.455976E-18
6.770000E+03	2.587436E-17	2.476848E-18
6.780000E+03	2.609571E-17	2.497997E-18
6.790000E+03	2.632000E-17	2.519427E-18
6.800000E+03	2.654774E-17	2.541186E-18
6.810000E+03	2.677798E-17	2.563184E-18
6.820000E+03	2.701171E-17	2.585515E-18
6.830000E+03	2.724796E-17	2.608087E-18
6.840000E+03	2.748774E-17	2.630996E-18
6.850000E+03	2.773004E-17	2.654147E-18
6.860000E+03	2.797485E-17	2.677536E-18
6.870000E+03	2.822267E-17	2.701212E-18
6.880000E+03	2.847348E-17	2.725175E-18
6.890000E+03	2.872620E-17	2.749319E-18
6.900000E+03	2.898185E-17	2.773743E-18
6.910000E+03	2.923984E-17	2.798390E-18
6.920000E+03	2.950067E-17	2.823309E-18
6.930000E+03	2.976319E-17	2.848388E-18
6.940000E+03	3.002786E-17	2.873672E-18
6.950000E+03	3.029462E-17	2.899156E-18
6.960000E+03	3.056281E-17	2.924776E-18
6.970000E+03	3.083292E-17	2.950578E-18
6.980000E+03	3.110486E-17	2.976556E-18
6.990000E+03	3.137797E-17	3.002644E-18
7.000000E+03	3.165213E-17	3.028832E-18
7.010000E+03	3.192723E-17	3.055110E-18
7.020000E+03	3.220383E-17	3.081530E-18
7.030000E+03	3.248055E-17	3.107961E-18
7.040000E+03	3.275859E-17	3.134518E-18
7.050000E+03	3.303657E-17	3.161068E-18
7.060000E+03	3.331506E-17	3.187666E-18
7.070000E+03	3.359331E-17	3.214241E-18
7.080000E+03	3.387191E-17	3.240847E-18
7.090000E+03	3.415079E-17	3.267481E-18
7.100000E+03	3.442922E-17	3.294071E-18
7.110000E+03	3.470642E-17	3.320542E-18
7.120000E+03	3.498373E-17	3.347024E-18
7.130000E+03	3.526041E-17	3.373443E-18
7.140000E+03	3.553640E-17	3.399797E-18
7.150000E+03	3.581168E-17	3.426082E-18
7.160000E+03	3.608544E-17	3.452221E-18
7.170000E+03	3.635841E-17	3.478283E-18
7.180000E+03	3.662979E-17	3.504193E-18
7.190000E+03	3.689953E-17	3.529946E-18
7.200000E+03	3.716837E-17	3.555611E-18
7.210000E+03	3.743551E-17	3.581114E-18
7.220000E+03	3.770167E-17	3.606522E-18
7.230000E+03	3.796525E-17	3.631683E-18
7.240000E+03	3.822698E-17	3.656666E-18
7.250000E+03	3.848680E-17	3.681466E-18
7.260000E+03	3.874465E-17	3.706078E-18
7.270000E+03	3.900047E-17	3.730493E-18
7.280000E+03	3.925420E-17	3.754709E-18
7.290000E+03	3.950490E-17	3.778635E-18
7.300000E+03	3.975333E-17	3.802343E-18
7.310000E+03	3.999942E-17	3.825827E-18
7.320000E+03	4.024308E-17	3.849078E-18
7.330000E+03	4.048334E-17	3.872003E-18
7.340000E+03	4.072099E-17	3.894678E-18
7.350000E+03	4.095684E-17	3.917182E-18
7.360000E+03	4.118905E-17	3.939336E-18
7.370000E+03	4.141843E-17	3.961219E-18
7.380000E+03	4.164491E-17	3.982825E-18
7.390000E+03	4.186939E-17	4.004239E-18
7.400000E+03	4.209091E-17	4.025370E-18
7.410000E+03	4.231041E-17	4.046307E-18
7.420000E+03	4.252885E-17	4.067143E-18
7.430000E+03	4.274532E-17	4.087789E-18
7.440000E+03	4.296180E-17	4.108437E-18
7.450000E+03	4.317644E-17	4.128909E-18
7.460000E+03	4.339029E-17	4.149305E-18
7.470000E+03	4.360245E-17	4.169539E-18
7.480000E+03	4.381402E-17	4.189717E-18
7.490000E+03	4.402307E-17	4.209654E-18
7.500000E+03	4.423070E-17	4.229453E-18
7.510000E+03	4.443699E-17	4.249126E-18
7.520000E+03	4.464097E-17	4.268577E-18
7.530000E+03	4.484480E-17	4.288014E-18
7.540000E+03	4.504641E-17	4.307239E-18
7.550000E+03	4.524693E-17	4.326360E-18
7.560000E+03	4.544529E-17	4.345274E-18
7.570000E+03	4.564261E-17	4.364088E-18
7.580000E+03	4.583780E-17	4.382698E-18
7.590000E+03	4.603193E-17	4.401208E-18
7.600000E+03	4.622390E-17	4.419511E-18
7.610000E+03	4.641368E-17	4.437605E-18
7.620000E+03	4.660233E-17	4.455591E-18
7.630000E+03	4.678868E-17	4.473356E-18
7.640000E+03	4.697262E-17	4.490892E-18
7.650000E+03	4.715522E-17	4.508299E-18
7.660000E+03	4.733522E-17	4.525458E-18
7.670000E+03	4.751365E-17	4.542468E-18
7.680000E+03	4.768803E-17	4.559090E-18
7.690000E+03	4.786054E-17	4.575533E-18
7.700000E+03	4.803100E-17	4.591781E-18
7.710000E+03	4.819805E-17	4.607703E-18
7.720000E+03	4.836268E-17	4.623393E-18
7.730000E+03	4.852345E-17	4.638715E-18
7.740000E+03	4.868012E-17	4.653645E-18
7.750000E+03	4.883365E-17	4.668275E-18
7.760000E+03	4.898380E-17	4.682582E-18
