#wls	flux	fluxerr
1.600000E+03	1.388495E-18	-6.074359E-18
1.640000E+03	4.478192E-18	-1.937071E-17
1.680000E+03	6.511472E-18	-2.784173E-17
1.720000E+03	7.215298E-18	-3.049499E-17
1.760000E+03	6.444816E-18	-2.691608E-17
1.800000E+03	3.967027E-18	-1.637145E-17
1.840000E+03	-3.869417E-19	1.577383E-18
1.880000E+03	-6.723398E-18	2.707427E-17
1.920000E+03	-1.525694E-17	6.066478E-17
1.960000E+03	-2.585027E-17	1.014980E-16
2.000000E+03	-3.879145E-17	1.503308E-16
2.040000E+03	-5.355959E-17	2.048847E-16
2.080000E+03	-7.056081E-17	2.662924E-16
2.120000E+03	-8.871166E-17	3.303414E-16
2.160000E+03	-1.086142E-16	3.988206E-16
2.200000E+03	-1.284941E-16	4.653466E-16
2.240000E+03	-1.492246E-16	5.326088E-16
2.280000E+03	-1.683293E-16	5.922871E-16
2.320000E+03	-1.872250E-16	6.488620E-16
2.360000E+03	-2.028307E-16	6.926537E-16
2.400000E+03	-2.173437E-16	7.305642E-16
2.440000E+03	-2.271626E-16	7.519984E-16
2.480000E+03	-2.352899E-16	7.661087E-16
2.520000E+03	-2.377045E-16	7.618225E-16
2.560000E+03	-2.381976E-16	7.502335E-16
2.600000E+03	-2.325391E-16	7.204971E-16
2.640000E+03	-2.251720E-16	6.849748E-16
2.680000E+03	-2.118877E-16	6.336981E-16
2.720000E+03	-1.976046E-16	5.795726E-16
2.760000E+03	-1.783622E-16	5.140113E-16
2.800000E+03	-1.592252E-16	4.493945E-16
2.840000E+03	-1.366773E-16	3.788312E-16
2.880000E+03	-1.155476E-16	3.131279E-16
2.920000E+03	-9.286753E-17	2.470805E-16
2.960000E+03	-7.280934E-17	1.889697E-16
2.996961E+03	-9.144013E-16	2.324262E-15
2.997561E+03	-9.094354E-16	2.310696E-15
2.998360E+03	-9.030657E-16	2.293459E-15
2.998561E+03	-9.000666E-16	2.285577E-15
2.998961E+03	-8.959232E-16	2.274578E-15
3.015962E+03	-7.965979E-16	2.002524E-15
3.019763E+03	-7.729570E-16	1.938782E-15
3.019963E+03	-7.703568E-16	1.932028E-15
3.020363E+03	-7.665025E-16	1.921913E-15
3.021163E+03	-7.604241E-16	1.905775E-15
3.021763E+03	-7.554428E-16	1.892628E-15
3.022762E+03	-7.480888E-16	1.873100E-15
3.023363E+03	-7.431482E-16	1.860075E-15
3.023963E+03	-7.383062E-16	1.847301E-15
3.024563E+03	-7.332950E-16	1.834115E-15
3.024763E+03	-7.305301E-16	1.826984E-15
3.024963E+03	-7.277357E-16	1.819783E-15
3.026763E+03	-7.160334E-16	1.788619E-15
3.026963E+03	-7.133850E-16	1.781796E-15
3.028563E+03	-7.028606E-16	1.753850E-15
3.029363E+03	-6.967919E-16	1.737887E-15
3.029764E+03	-6.928891E-16	1.727741E-15
3.030764E+03	-6.857032E-16	1.708824E-15
3.032764E+03	-6.731550E-16	1.675553E-15
3.032964E+03	-6.705178E-16	1.668792E-15
3.033364E+03	-6.666318E-16	1.658726E-15
3.034363E+03	-6.596052E-16	1.640273E-15
3.034963E+03	-6.548379E-16	1.627834E-15
3.035164E+03	-6.520588E-16	1.620733E-15
3.035964E+03	-6.460764E-16	1.605099E-15
3.037364E+03	-6.366844E-16	1.580455E-15
3.038164E+03	-6.307556E-16	1.564985E-15
3.039564E+03	-6.216460E-16	1.541134E-15
3.043765E+03	-5.976560E-16	1.477907E-15
3.044565E+03	-5.918409E-16	1.462858E-15
3.050765E+03	-5.574326E-16	1.372656E-15
3.067567E+03	-4.669843E-16	1.139548E-15
3.079768E+03	-4.041366E-16	9.776952E-16
3.089168E+03	-3.556713E-16	8.556074E-16
3.092169E+03	-3.399313E-16	8.160419E-16
3.095568E+03	-3.222190E-16	7.718777E-16
3.095769E+03	-3.202168E-16	7.669804E-16
3.095968E+03	-3.182925E-16	7.622761E-16
3.096168E+03	-3.163205E-16	7.574579E-16
3.097569E+03	-3.086567E-16	7.384566E-16
3.097769E+03	-3.066907E-16	7.336588E-16
3.098169E+03	-3.037585E-16	7.264619E-16
3.098369E+03	-3.018134E-16	7.217187E-16
3.100369E+03	-2.913813E-16	6.958965E-16
3.100569E+03	-2.894736E-16	6.912507E-16
3.101569E+03	-2.838871E-16	6.774846E-16
3.101969E+03	-2.811591E-16	6.708022E-16
3.102369E+03	-2.783620E-16	6.639618E-16
3.102769E+03	-2.756335E-16	6.572863E-16
3.103970E+03	-2.692978E-16	6.416953E-16
3.104770E+03	-2.647194E-16	6.304604E-16
3.106170E+03	-2.574636E-16	6.126371E-16
3.106370E+03	-2.557078E-16	6.083801E-16
3.106970E+03	-2.521514E-16	5.996908E-16
3.107169E+03	-2.503701E-16	5.953784E-16
3.107369E+03	-2.486070E-16	5.911108E-16
3.107570E+03	-2.468666E-16	5.868975E-16
3.108169E+03	-2.433734E-16	5.783745E-16
3.108769E+03	-2.398848E-16	5.698641E-16
3.108969E+03	-2.381538E-16	5.656814E-16
3.110170E+03	-2.321132E-16	5.509102E-16
3.110370E+03	-2.304103E-16	5.467989E-16
3.110570E+03	-2.287221E-16	5.427232E-16
3.110970E+03	-2.261956E-16	5.365916E-16
3.111170E+03	-2.245243E-16	5.325586E-16
3.111370E+03	-2.228366E-16	5.284883E-16
3.111570E+03	-2.211522E-16	5.244262E-16
3.112570E+03	-2.161222E-16	5.121735E-16
3.112970E+03	-2.136573E-16	5.062004E-16
3.113370E+03	-2.111752E-16	5.001933E-16
3.113970E+03	-2.078858E-16	4.922117E-16
3.114170E+03	-2.062678E-16	4.883187E-16
3.114570E+03	-2.038413E-16	4.824501E-16
3.114770E+03	-2.022975E-16	4.787351E-16
3.114970E+03	-2.007425E-16	4.749942E-16
3.115170E+03	-1.991513E-16	4.711692E-16
3.115571E+03	-1.967899E-16	4.654625E-16
3.115971E+03	-1.944181E-16	4.597354E-16
3.116371E+03	-1.920480E-16	4.540135E-16
3.116571E+03	-1.905496E-16	4.504136E-16
3.116771E+03	-1.890168E-16	4.467331E-16
3.116971E+03	-1.874701E-16	4.430208E-16
3.117171E+03	-1.859305E-16	4.393258E-16
3.117371E+03	-1.844106E-16	4.356793E-16
3.117971E+03	-1.813719E-16	4.283346E-16
3.118171E+03	-1.798658E-16	4.247238E-16
3.118771E+03	-1.768337E-16	4.174024E-16
3.118970E+03	-1.753621E-16	4.138760E-16
3.119171E+03	-1.738962E-16	4.103630E-16
3.119370E+03	-1.724152E-16	4.068163E-16
3.119570E+03	-1.709857E-16	4.033911E-16
3.120170E+03	-1.680592E-16	3.963345E-16
3.120370E+03	-1.666021E-16	3.928471E-16
3.120570E+03	-1.651514E-16	3.893765E-16
3.120770E+03	-1.637359E-16	3.859892E-16
3.120970E+03	-1.622925E-16	3.825373E-16
3.121170E+03	-1.608716E-16	3.791391E-16
3.121370E+03	-1.594417E-16	3.757210E-16
3.121570E+03	-1.580404E-16	3.723706E-16
3.121771E+03	-1.566264E-16	3.689918E-16
3.122371E+03	-1.537906E-16	3.621701E-16
3.122571E+03	-1.523981E-16	3.588449E-16
3.122971E+03	-1.503146E-16	3.538474E-16
3.123171E+03	-1.489364E-16	3.505578E-16
3.123371E+03	-1.475681E-16	3.472922E-16
3.123571E+03	-1.462356E-16	3.441121E-16
3.123771E+03	-1.448807E-16	3.408795E-16
3.123971E+03	-1.435467E-16	3.376975E-16
3.124371E+03	-1.415373E-16	3.328839E-16
3.124571E+03	-1.402172E-16	3.297368E-16
3.124771E+03	-1.389212E-16	3.266465E-16
3.124971E+03	-1.376029E-16	3.235053E-16
3.125171E+03	-1.363113E-16	3.204271E-16
3.125371E+03	-1.350149E-16	3.173386E-16
3.125571E+03	-1.337196E-16	3.142534E-16
3.125771E+03	-1.324225E-16	3.111650E-16
3.126171E+03	-1.304814E-16	3.065241E-16
3.126371E+03	-1.292068E-16	3.034907E-16
3.126571E+03	-1.279364E-16	3.004677E-16
3.126771E+03	-1.266752E-16	2.974672E-16
3.126971E+03	-1.254182E-16	2.944771E-16
3.127171E+03	-1.241677E-16	2.915034E-16
3.127371E+03	-1.229241E-16	2.885462E-16
3.127571E+03	-1.216843E-16	2.855990E-16
3.127772E+03	-1.204482E-16	2.826610E-16
3.127972E+03	-1.192245E-16	2.797530E-16
3.128172E+03	-1.180050E-16	2.768555E-16
3.128372E+03	-1.167920E-16	2.739743E-16
3.128572E+03	-1.155858E-16	2.711095E-16
3.128772E+03	-1.143836E-16	2.682550E-16
3.128972E+03	-1.132062E-16	2.654590E-16
3.129172E+03	-1.120275E-16	2.626611E-16
3.129372E+03	-1.108606E-16	2.598911E-16
3.129572E+03	-1.096975E-16	2.571313E-16
3.129772E+03	-1.085436E-16	2.543934E-16
3.129972E+03	-1.074085E-16	2.517005E-16
3.130172E+03	-1.062552E-16	2.489652E-16
3.130372E+03	-1.051083E-16	2.462462E-16
3.130572E+03	-1.039731E-16	2.435548E-16
3.130772E+03	-1.028542E-16	2.409024E-16
3.130972E+03	-1.017320E-16	2.382431E-16
3.131171E+03	-1.006192E-16	2.356066E-16
3.131372E+03	-9.950254E-17	2.329612E-16
3.131572E+03	-9.839996E-17	2.303500E-16
3.131771E+03	-9.732110E-17	2.277947E-16
3.131972E+03	-9.624514E-17	2.252470E-16
3.132171E+03	-9.516723E-17	2.226953E-16
3.132371E+03	-9.408592E-17	2.201364E-16
3.132571E+03	-9.302286E-17	2.176206E-16
3.132771E+03	-9.195460E-17	2.150936E-16
3.132971E+03	-9.090903E-17	2.126200E-16
3.133171E+03	-8.985605E-17	2.101300E-16
3.133371E+03	-8.884136E-17	2.077299E-16
3.133571E+03	-8.781241E-17	2.052973E-16
3.133771E+03	-8.678778E-17	2.028752E-16
3.133972E+03	-8.577121E-17	2.004727E-16
3.134172E+03	-8.476817E-17	1.981023E-16
3.134372E+03	-8.375154E-17	1.957011E-16
3.134572E+03	-8.275243E-17	1.933411E-16
3.134772E+03	-8.175524E-17	1.909864E-16
3.134972E+03	-8.077533E-17	1.886725E-16
3.135172E+03	-7.979089E-17	1.863488E-16
3.135372E+03	-7.881298E-17	1.840408E-16
3.135572E+03	-7.786243E-17	1.817975E-16
3.135772E+03	-7.690977E-17	1.795495E-16
3.135972E+03	-7.595902E-17	1.773069E-16
3.136172E+03	-7.501052E-17	1.750698E-16
3.136372E+03	-7.407027E-17	1.728529E-16
3.136572E+03	-7.313034E-17	1.706369E-16
3.136772E+03	-7.220878E-17	1.684647E-16
3.136972E+03	-7.129560E-17	1.663124E-16
3.137172E+03	-7.039643E-17	1.641935E-16
3.137372E+03	-6.948555E-17	1.620476E-16
3.137572E+03	-6.858279E-17	1.599214E-16
3.137772E+03	-6.770213E-17	1.578471E-16
3.137972E+03	-6.682151E-17	1.557736E-16
3.138172E+03	-6.594130E-17	1.537014E-16
3.138372E+03	-6.507677E-17	1.516665E-16
3.138572E+03	-6.420696E-17	1.496196E-16
3.138772E+03	-6.335837E-17	1.476230E-16
3.138972E+03	-6.251025E-17	1.456276E-16
3.139172E+03	-6.166057E-17	1.436294E-16
3.139372E+03	-6.083202E-17	1.416807E-16
3.139572E+03	-5.999450E-17	1.397119E-16
3.139772E+03	-5.916874E-17	1.377707E-16
3.139973E+03	-5.835045E-17	1.358476E-16
3.140173E+03	-5.754218E-17	1.339481E-16
3.140373E+03	-5.673082E-17	1.320421E-16
3.140573E+03	-5.593098E-17	1.301633E-16
3.140773E+03	-5.514056E-17	1.283071E-16
3.140973E+03	-5.435444E-17	1.264611E-16
3.141173E+03	-5.357764E-17	1.246375E-16
3.141373E+03	-5.280685E-17	1.228281E-16
3.141573E+03	-5.204183E-17	1.210329E-16
3.141773E+03	-5.128455E-17	1.192559E-16
3.141973E+03	-5.053469E-17	1.174969E-16
3.142173E+03	-4.979076E-17	1.157518E-16
3.142373E+03	-4.905420E-17	1.140246E-16
3.142573E+03	-4.832517E-17	1.123151E-16
3.142773E+03	-4.760179E-17	1.106194E-16
3.142972E+03	-4.689590E-17	1.089646E-16
3.143173E+03	-4.618043E-17	1.072881E-16
3.143372E+03	-4.547458E-17	1.056343E-16
3.143573E+03	-4.478176E-17	1.040112E-16
3.143773E+03	-4.409017E-17	1.023913E-16
3.143972E+03	-4.340598E-17	1.007893E-16
3.144173E+03	-4.272544E-17	9.919581E-17
3.144372E+03	-4.204945E-17	9.761366E-17
3.144572E+03	-4.138049E-17	9.604796E-17
3.144772E+03	-4.072610E-17	9.451668E-17
3.144972E+03	-4.006981E-17	9.298121E-17
3.145172E+03	-3.942054E-17	9.146261E-17
3.145372E+03	-3.877986E-17	8.996414E-17
3.145572E+03	-3.815186E-17	8.849567E-17
3.145772E+03	-3.752932E-17	8.704006E-17
3.145972E+03	-3.691634E-17	8.560718E-17
3.146173E+03	-3.631562E-17	8.420287E-17
3.146373E+03	-3.570753E-17	8.278208E-17
3.146573E+03	-3.510076E-17	8.136454E-17
3.146773E+03	-3.451172E-17	7.998872E-17
3.147173E+03	-3.360355E-17	7.786304E-17
3.147373E+03	-3.302643E-17	7.651577E-17
3.147573E+03	-3.244929E-17	7.516862E-17
3.147773E+03	-3.188528E-17	7.385240E-17
3.147973E+03	-3.132783E-17	7.255155E-17
3.148173E+03	-3.077797E-17	7.126878E-17
3.148373E+03	-3.023201E-17	6.999521E-17
3.148573E+03	-2.969231E-17	6.873664E-17
3.148773E+03	-2.916152E-17	6.749884E-17
3.148973E+03	-2.864179E-17	6.628716E-17
3.149173E+03	-2.812577E-17	6.508418E-17
3.149373E+03	-2.760363E-17	6.386755E-17
3.149573E+03	-2.709146E-17	6.267413E-17
3.149773E+03	-2.658538E-17	6.149527E-17
3.149973E+03	-2.609017E-17	6.034171E-17
3.150173E+03	-2.559973E-17	5.919963E-17
3.150373E+03	-2.510957E-17	5.805835E-17
3.150573E+03	-2.462538E-17	5.693132E-17
3.150773E+03	-2.415624E-17	5.583924E-17
3.150973E+03	-2.368391E-17	5.474021E-17
3.151173E+03	-2.322084E-17	5.366272E-17
3.151373E+03	-2.276893E-17	5.261145E-17
3.151573E+03	-2.231841E-17	5.156353E-17
3.151773E+03	-2.186929E-17	5.051925E-17
3.151973E+03	-2.142594E-17	4.948844E-17
3.152174E+03	-2.099009E-17	4.847533E-17
3.152374E+03	-2.056011E-17	4.747593E-17
3.152574E+03	-2.013362E-17	4.648500E-17
3.152774E+03	-1.972273E-17	4.553020E-17
3.152974E+03	-1.931311E-17	4.457872E-17
3.153174E+03	-1.890695E-17	4.363534E-17
3.153374E+03	-1.850798E-17	4.270893E-17
3.153574E+03	-1.811526E-17	4.179707E-17
3.153774E+03	-1.772673E-17	4.089523E-17
3.153974E+03	-1.734617E-17	4.001190E-17
3.154174E+03	-1.696970E-17	3.913835E-17
3.154374E+03	-1.659561E-17	3.827041E-17
3.154574E+03	-1.622652E-17	3.741435E-17
3.154774E+03	-1.586688E-17	3.658016E-17
3.154974E+03	-1.551375E-17	3.576134E-17
3.155173E+03	-1.515720E-17	3.493473E-17
3.155374E+03	-1.480839E-17	3.412628E-17
3.155573E+03	-1.446580E-17	3.333228E-17
3.155773E+03	-1.412440E-17	3.254134E-17
3.155974E+03	-1.378761E-17	3.176108E-17
3.156173E+03	-1.346236E-17	3.100778E-17
3.156373E+03	-1.313988E-17	3.026091E-17
3.156573E+03	-1.282113E-17	2.952294E-17
3.156773E+03	-1.250995E-17	2.880250E-17
3.156973E+03	-1.220089E-17	2.808723E-17
3.157173E+03	-1.189411E-17	2.737730E-17
3.157373E+03	-1.159531E-17	2.668601E-17
3.157573E+03	-1.130154E-17	2.600638E-17
3.157773E+03	-1.100918E-17	2.533028E-17
3.157973E+03	-1.072385E-17	2.467044E-17
3.158173E+03	-1.044461E-17	2.402488E-17
3.158374E+03	-1.016980E-17	2.338956E-17
3.158574E+03	-9.897264E-18	2.275976E-17
3.158774E+03	-9.632541E-18	2.214798E-17
3.158974E+03	-9.374664E-18	2.155222E-17
3.159174E+03	-9.114416E-18	2.095105E-17
3.159374E+03	-8.857373E-18	2.035752E-17
3.159574E+03	-8.603621E-18	1.977160E-17
3.159774E+03	-8.355910E-18	1.919983E-17
3.159974E+03	-8.114705E-18	1.864305E-17
3.160174E+03	-7.879695E-18	1.810075E-17
3.160374E+03	-7.642747E-18	1.755404E-17
3.160574E+03	-7.413481E-18	1.702523E-17
3.160774E+03	-7.186049E-18	1.650066E-17
3.160974E+03	-6.960436E-18	1.598051E-17
3.161174E+03	-6.740192E-18	1.547273E-17
3.161374E+03	-6.522682E-18	1.497145E-17
3.161574E+03	-6.306602E-18	1.447350E-17
3.161774E+03	-6.094671E-18	1.398529E-17
3.161974E+03	-5.886419E-18	1.350556E-17
3.162174E+03	-5.681693E-18	1.303414E-17
3.162374E+03	-5.480910E-18	1.257179E-17
3.162574E+03	-5.284686E-18	1.212013E-17
3.162774E+03	-5.090966E-18	1.167422E-17
3.162974E+03	-4.900804E-18	1.123670E-17
3.163174E+03	-4.714534E-18	1.080811E-17
3.163374E+03	-4.529097E-18	1.038164E-17
3.163574E+03	-4.346420E-18	9.961526E-18
3.163774E+03	-4.166723E-18	9.548440E-18
3.163974E+03	-3.991282E-18	9.145126E-18
3.164174E+03	-3.819502E-18	8.750397E-18
3.164375E+03	-3.648183E-18	8.356735E-18
3.164575E+03	-3.479950E-18	7.970341E-18
3.164775E+03	-3.317371E-18	7.596910E-18
3.164975E+03	-3.153402E-18	7.220486E-18
3.165175E+03	-2.992266E-18	6.850560E-18
3.165375E+03	-2.833309E-18	6.485810E-18
3.165575E+03	-2.677240E-18	6.127682E-18
3.165775E+03	-2.523849E-18	5.775861E-18
3.165975E+03	-2.372653E-18	5.429076E-18
3.166175E+03	-2.225040E-18	5.090665E-18
3.166375E+03	-2.077863E-18	4.753258E-18
3.166575E+03	-1.931764E-18	4.418491E-18
3.166775E+03	-1.788001E-18	4.089073E-18
3.166975E+03	-1.645934E-18	3.763706E-18
3.167175E+03	-1.506519E-18	3.444408E-18
3.167374E+03	-1.369221E-18	3.130118E-18
3.167575E+03	-1.231664E-18	2.815236E-18
3.167774E+03	-1.097576E-18	2.508451E-18
3.167974E+03	-9.639239E-19	2.202664E-18
3.168175E+03	-8.315460E-19	1.899948E-18
3.168374E+03	-7.018612E-19	1.603390E-18
3.168574E+03	-5.719361E-19	1.306441E-18
3.168774E+03	-4.434993E-19	1.012893E-18
3.168974E+03	-3.160472E-19	7.217504E-19
3.169174E+03	-1.896899E-19	4.331091E-19
3.169374E+03	-6.427604E-20	2.848444E-19
3.169574E+03	6.026974E-20	1.375634E-19
3.169774E+03	1.841586E-19	4.201293E-19
3.169974E+03	3.073128E-19	7.010197E-19
3.170174E+03	4.297677E-19	9.799876E-19
3.170374E+03	5.518927E-19	1.258205E-18
3.170575E+03	6.740055E-19	1.536066E-18
3.170775E+03	7.951989E-19	1.811836E-18
3.170975E+03	9.162800E-19	2.087026E-18
3.171175E+03	1.037039E-18	2.361485E-18
3.171375E+03	1.157459E-18	2.634850E-18
3.171575E+03	1.278913E-18	2.910571E-18
3.171775E+03	1.399777E-18	3.184627E-18
3.171975E+03	1.520143E-18	3.457552E-18
3.172175E+03	1.641070E-18	3.731430E-18
3.172375E+03	1.761685E-18	4.004602E-18
3.172575E+03	1.883238E-18	4.279587E-18
3.172775E+03	2.004943E-18	4.554914E-18
3.172975E+03	2.128075E-18	4.833161E-18
3.173175E+03	2.250931E-18	5.110782E-18
3.173375E+03	2.375260E-18	5.391424E-18
3.173575E+03	2.499127E-18	5.671013E-18
3.173775E+03	2.624424E-18	5.953521E-18
3.173975E+03	2.750249E-18	6.237222E-18
3.174175E+03	2.877217E-18	6.523189E-18
3.174375E+03	3.005650E-18	6.812471E-18
3.174575E+03	3.134872E-18	7.103210E-18
3.174775E+03	3.266949E-18	7.400407E-18
3.174975E+03	3.402198E-18	7.704452E-18
3.175175E+03	3.536026E-18	8.005265E-18
3.175375E+03	3.672559E-18	8.311861E-18
3.175575E+03	3.809544E-18	8.619464E-18
3.175775E+03	3.948061E-18	8.930187E-18
3.175975E+03	4.089211E-18	9.246848E-18
3.176175E+03	4.231710E-18	9.566210E-18
3.176375E+03	4.378626E-18	9.895531E-18
3.176576E+03	4.527356E-18	1.022858E-17
3.176776E+03	4.677004E-18	1.056368E-17
3.176976E+03	4.829954E-18	1.090588E-17
3.177176E+03	4.983301E-18	1.124894E-17
3.177376E+03	5.139678E-18	1.159847E-17
3.177576E+03	5.300966E-18	1.195905E-17
3.177776E+03	5.464238E-18	1.232371E-17
3.177976E+03	5.630416E-18	1.269489E-17
3.178176E+03	5.798680E-18	1.307038E-17
3.178376E+03	5.969498E-18	1.345158E-17
3.178576E+03	6.143495E-18	1.383954E-17
3.178776E+03	6.320191E-18	1.423353E-17
3.178976E+03	6.499703E-18	1.463345E-17
3.179176E+03	6.682036E-18	1.503967E-17
3.179376E+03	6.867855E-18	1.545331E-17
3.179575E+03	7.056523E-18	1.587332E-17
3.179776E+03	7.249072E-18	1.630158E-17
3.179976E+03	7.446356E-18	1.674045E-17
3.180175E+03	7.651566E-18	1.719671E-17
3.180376E+03	7.858621E-18	1.765699E-17
3.180575E+03	8.065323E-18	1.811606E-17
3.180775E+03	8.277999E-18	1.858845E-17
3.180975E+03	8.495533E-18	1.907127E-17
3.181175E+03	8.715405E-18	1.955925E-17
3.181375E+03	8.947514E-18	2.007421E-17
3.181575E+03	9.179602E-18	2.058901E-17
3.181775E+03	9.418369E-18	2.111829E-17
3.181975E+03	9.659126E-18	2.165192E-17
3.182175E+03	9.905387E-18	2.219737E-17
3.182375E+03	1.015721E-17	2.275517E-17
3.182576E+03	1.041483E-17	2.332536E-17
3.182776E+03	1.067381E-17	2.389854E-17
3.182976E+03	1.093792E-17	2.448264E-17
3.183176E+03	1.121168E-17	2.508820E-17
3.183376E+03	1.149391E-17	2.571214E-17
3.183576E+03	1.177549E-17	2.633448E-17
3.183776E+03	1.206650E-17	2.697730E-17
3.183976E+03	1.235918E-17	2.762371E-17
3.184176E+03	1.265674E-17	2.828043E-17
3.184376E+03	1.295917E-17	2.894787E-17
3.184576E+03	1.327072E-17	2.963504E-17
3.184776E+03	1.358902E-17	3.033712E-17
3.184976E+03	1.391257E-17	3.105027E-17
3.185176E+03	1.424050E-17	3.177300E-17
3.185376E+03	1.457896E-17	3.251857E-17
3.185576E+03	1.492023E-17	3.327021E-17
3.185776E+03	1.526967E-17	3.403938E-17
3.185976E+03	1.562736E-17	3.482670E-17
3.186176E+03	1.598624E-17	3.561598E-17
3.186376E+03	1.635348E-17	3.642369E-17
3.186576E+03	1.672746E-17	3.724565E-17
3.186776E+03	1.710911E-17	3.808447E-17
3.186976E+03	1.749767E-17	3.893793E-17
3.187176E+03	1.789316E-17	3.980655E-17
3.187376E+03	1.829669E-17	4.069227E-17
3.187576E+03	1.870734E-17	4.159357E-17
3.187776E+03	1.912525E-17	4.251021E-17
3.187976E+03	1.955143E-17	4.344497E-17
3.188176E+03	1.998505E-17	4.439544E-17
3.188376E+03	2.042715E-17	4.536445E-17
3.188576E+03	2.087583E-17	4.634722E-17
3.188777E+03	2.133525E-17	4.735346E-17
3.188977E+03	2.180147E-17	4.837399E-17
3.189177E+03	2.227547E-17	4.941146E-17
3.189377E+03	2.275960E-17	5.047048E-17
3.189577E+03	2.325065E-17	5.154454E-17
3.189777E+03	2.375092E-17	5.263809E-17
3.189977E+03	2.425939E-17	5.374947E-17
3.190177E+03	2.477726E-17	5.488073E-17
3.190377E+03	2.530460E-17	5.603259E-17
3.190577E+03	2.584045E-17	5.720229E-17
3.190777E+03	2.638482E-17	5.839048E-17
3.190977E+03	2.693903E-17	5.959943E-17
3.191177E+03	2.750190E-17	6.082713E-17
3.191376E+03	2.807361E-17	6.207345E-17
3.191577E+03	2.865773E-17	6.334658E-17
3.191776E+03	2.924847E-17	6.463348E-17
3.191977E+03	2.985188E-17	6.594774E-17
3.192177E+03	3.046449E-17	6.728131E-17
3.192376E+03	3.108506E-17	6.863209E-17
3.192576E+03	3.171747E-17	7.000780E-17
3.192776E+03	3.235926E-17	7.140372E-17
3.193176E+03	3.327147E-17	7.337344E-17
3.193376E+03	3.395155E-17	7.485175E-17
3.193576E+03	3.464159E-17	7.635062E-17
3.193776E+03	3.528881E-17	7.775460E-17
3.193976E+03	3.610612E-17	7.953207E-17
3.194176E+03	3.477805E-17	7.658452E-17
3.194376E+03	3.331400E-17	7.333898E-17
3.194576E+03	3.317667E-17	7.301553E-17
3.194777E+03	3.354615E-17	7.380688E-17
3.194977E+03	3.352304E-17	7.373471E-17
3.195177E+03	3.394965E-17	7.465109E-17
3.195377E+03	3.436212E-17	7.553621E-17
3.195577E+03	3.205473E-17	7.044330E-17
