#wls	flux	fluxerr
1.600000E+03	1.100614E-16	4.626547E-17
1.640000E+03	1.139128E-16	4.785737E-17
1.680000E+03	1.176940E-16	4.941726E-17
1.720000E+03	1.213545E-16	5.092383E-17
1.760000E+03	1.248861E-16	5.237372E-17
1.800000E+03	1.282308E-16	5.374259E-17
1.840000E+03	1.313498E-16	5.501428E-17
1.880000E+03	1.342239E-16	5.618082E-17
1.920000E+03	1.367857E-16	5.721417E-17
1.960000E+03	1.389999E-16	5.809978E-17
2.000000E+03	1.408086E-16	5.881360E-17
2.040000E+03	1.421752E-16	5.934078E-17
2.080000E+03	1.430252E-16	5.965056E-17
2.120000E+03	1.433014E-16	5.971952E-17
2.160000E+03	1.429464E-16	5.952433E-17
2.200000E+03	1.418733E-16	5.902938E-17
2.240000E+03	1.400109E-16	5.820586E-17
2.280000E+03	1.373460E-16	5.704916E-17
2.320000E+03	1.339153E-16	5.557536E-17
2.360000E+03	1.298400E-16	5.383560E-17
2.400000E+03	1.252205E-16	5.187235E-17
2.440000E+03	1.201459E-16	4.972320E-17
2.480000E+03	1.147109E-16	4.742791E-17
2.520000E+03	1.089743E-16	4.501138E-17
2.560000E+03	1.030059E-16	4.250291E-17
2.600000E+03	9.686696E-17	3.992820E-17
2.640000E+03	9.062307E-17	3.731465E-17
2.680000E+03	8.433030E-17	3.468564E-17
2.720000E+03	7.804692E-17	3.206534E-17
2.760000E+03	7.182944E-17	2.947713E-17
2.800000E+03	6.573227E-17	2.694338E-17
2.840000E+03	5.980859E-17	2.448589E-17
2.880000E+03	5.411114E-17	2.212614E-17
2.920000E+03	4.868825E-17	1.988372E-17
2.960000E+03	4.358321E-17	1.777602E-17
3.000000E+03	3.883019E-17	1.581663E-17
3.010000E+03	3.770095E-17	1.535155E-17
3.020000E+03	3.659461E-17	1.489606E-17
3.030000E+03	3.551287E-17	1.445086E-17
3.040000E+03	3.445491E-17	1.401561E-17
3.050000E+03	3.342147E-17	1.359059E-17
3.060000E+03	3.241315E-17	1.317605E-17
3.070000E+03	3.142846E-17	1.277137E-17
3.080000E+03	3.046928E-17	1.237731E-17
3.090000E+03	2.953415E-17	1.199326E-17
3.100000E+03	2.862413E-17	1.161965E-17
3.110000E+03	2.773841E-17	1.125613E-17
3.120000E+03	2.687680E-17	1.090264E-17
3.130000E+03	2.604014E-17	1.055948E-17
3.140000E+03	2.522714E-17	1.022614E-17
3.150000E+03	2.443898E-17	9.903086E-18
3.160000E+03	2.367397E-17	9.589620E-18
3.170000E+03	2.293315E-17	9.286161E-18
3.180000E+03	2.221534E-17	8.992212E-18
3.190000E+03	2.152104E-17	8.707973E-18
3.200000E+03	2.084948E-17	8.433123E-18
3.210000E+03	2.020065E-17	8.167652E-18
3.220000E+03	1.957418E-17	7.911395E-18
3.230000E+03	1.896964E-17	7.664174E-18
3.240000E+03	1.838630E-17	7.425687E-18
3.250000E+03	1.782439E-17	7.196015E-18
3.260000E+03	1.728315E-17	6.974842E-18
3.270000E+03	1.676239E-17	6.762088E-18
3.280000E+03	1.626139E-17	6.557451E-18
3.290000E+03	1.577969E-17	6.360735E-18
3.300000E+03	1.531707E-17	6.171848E-18
3.310000E+03	1.487281E-17	5.990492E-18
3.320000E+03	1.444664E-17	5.816547E-18
3.330000E+03	1.403808E-17	5.649813E-18
3.340000E+03	1.364623E-17	5.489924E-18
3.350000E+03	1.327102E-17	5.336837E-18
3.360000E+03	1.291177E-17	5.190279E-18
3.370000E+03	1.256800E-17	5.050049E-18
3.380000E+03	1.223925E-17	4.915954E-18
3.390000E+03	1.192474E-17	4.787675E-18
3.400000E+03	1.162436E-17	4.665157E-18
3.410000E+03	1.133750E-17	4.548156E-18
3.420000E+03	1.106360E-17	4.436439E-18
3.430000E+03	1.080225E-17	4.329832E-18
3.440000E+03	1.055305E-17	4.228177E-18
3.450000E+03	1.031538E-17	4.131211E-18
3.460000E+03	1.008899E-17	4.038833E-18
3.470000E+03	9.873285E-18	3.950803E-18
3.480000E+03	9.667952E-18	3.866985E-18
3.490000E+03	9.472557E-18	3.787204E-18
3.500000E+03	9.286697E-18	3.711293E-18
3.510000E+03	9.109990E-18	3.639096E-18
3.520000E+03	8.942071E-18	3.570461E-18
3.530000E+03	8.782501E-18	3.505211E-18
3.540000E+03	8.630868E-18	3.443176E-18
3.550000E+03	8.486880E-18	3.384236E-18
3.560000E+03	8.350167E-18	3.328240E-18
3.570000E+03	8.220474E-18	3.275083E-18
3.580000E+03	8.097385E-18	3.224595E-18
3.590000E+03	7.980680E-18	3.176687E-18
3.600000E+03	7.870067E-18	3.131238E-18
3.610000E+03	7.765427E-18	3.088198E-18
3.620000E+03	7.666413E-18	3.047427E-18
3.630000E+03	7.572850E-18	3.008851E-18
3.640000E+03	7.484350E-18	2.972314E-18
3.650000E+03	7.400765E-18	2.937756E-18
3.660000E+03	7.321880E-18	2.905087E-18
3.670000E+03	7.247492E-18	2.874225E-18
3.680000E+03	7.177471E-18	2.845116E-18
3.690000E+03	7.111691E-18	2.817707E-18
3.700000E+03	7.049966E-18	2.791924E-18
3.710000E+03	6.992241E-18	2.767742E-18
3.720000E+03	6.938336E-18	2.745088E-18
3.730000E+03	6.888259E-18	2.723963E-18
3.740000E+03	6.841896E-18	2.704319E-18
3.750000E+03	6.799132E-18	2.686110E-18
3.760000E+03	6.759914E-18	2.669312E-18
3.770000E+03	6.724244E-18	2.653924E-18
3.780000E+03	6.692011E-18	2.639901E-18
3.790000E+03	6.663216E-18	2.627240E-18
3.800000E+03	6.637743E-18	2.615895E-18
3.810000E+03	6.615541E-18	2.605843E-18
3.820000E+03	6.596609E-18	2.597082E-18
3.830000E+03	6.580945E-18	2.589609E-18
3.840000E+03	6.568438E-18	2.583380E-18
3.850000E+03	6.559140E-18	2.578411E-18
3.860000E+03	6.552888E-18	2.574638E-18
3.870000E+03	6.549787E-18	2.572100E-18
3.880000E+03	6.549674E-18	2.570731E-18
3.890000E+03	6.552652E-18	2.570570E-18
3.900000E+03	6.558614E-18	2.571572E-18
3.910000E+03	6.567555E-18	2.573734E-18
3.920000E+03	6.579421E-18	2.577033E-18
3.930000E+03	6.594209E-18	2.581466E-18
3.940000E+03	6.611864E-18	2.587010E-18
3.950000E+03	6.632434E-18	2.593682E-18
3.960000E+03	6.655813E-18	2.601437E-18
3.970000E+03	6.681999E-18	2.610275E-18
3.980000E+03	6.710936E-18	2.620170E-18
3.990000E+03	6.742676E-18	2.631143E-18
4.000000E+03	6.777165E-18	2.643169E-18
4.010000E+03	6.814349E-18	2.656225E-18
4.020000E+03	6.854174E-18	2.670290E-18
4.030000E+03	6.896693E-18	2.685382E-18
4.040000E+03	6.941802E-18	2.701458E-18
4.050000E+03	6.989556E-18	2.718539E-18
4.060000E+03	7.039850E-18	2.736580E-18
4.070000E+03	7.092685E-18	2.755583E-18
4.080000E+03	7.148068E-18	2.775547E-18
4.090000E+03	7.205950E-18	2.796451E-18
4.100000E+03	7.266280E-18	2.818275E-18
4.110000E+03	7.329010E-18	2.840996E-18
4.120000E+03	7.394207E-18	2.864641E-18
4.130000E+03	7.461766E-18	2.889167E-18
4.140000E+03	7.531699E-18	2.914575E-18
4.150000E+03	7.603899E-18	2.940825E-18
4.160000E+03	7.678379E-18	2.967918E-18
4.170000E+03	7.755156E-18	2.995859E-18
4.180000E+03	7.834121E-18	3.024606E-18
4.190000E+03	7.915293E-18	3.054164E-18
4.200000E+03	7.998564E-18	3.084488E-18
4.210000E+03	8.083949E-18	3.115585E-18
4.220000E+03	8.171341E-18	3.147410E-18
4.230000E+03	8.260756E-18	3.179969E-18
4.240000E+03	8.352083E-18	3.213217E-18
4.250000E+03	8.445271E-18	3.247133E-18
4.260000E+03	8.540202E-18	3.281670E-18
4.270000E+03	8.636891E-18	3.316833E-18
4.280000E+03	8.735214E-18	3.352573E-18
4.290000E+03	8.835114E-18	3.388867E-18
4.300000E+03	8.936458E-18	3.425662E-18
4.310000E+03	9.039111E-18	3.462906E-18
4.320000E+03	9.142999E-18	3.500569E-18
4.330000E+03	9.248049E-18	3.538622E-18
4.340000E+03	9.354111E-18	3.577007E-18
4.350000E+03	9.461096E-18	3.615689E-18
4.360000E+03	9.568840E-18	3.654605E-18
4.370000E+03	9.677328E-18	3.693748E-18
4.380000E+03	9.786459E-18	3.733079E-18
4.390000E+03	9.896375E-18	3.772651E-18
4.400000E+03	1.000698E-17	3.812427E-18
4.410000E+03	1.011833E-17	3.852429E-18
4.420000E+03	1.023042E-17	3.892652E-18
4.430000E+03	1.034340E-17	3.933153E-18
4.440000E+03	1.045717E-17	3.973897E-18
4.450000E+03	1.057174E-17	4.014881E-18
4.460000E+03	1.068717E-17	4.056133E-18
4.470000E+03	1.080348E-17	4.097655E-18
4.480000E+03	1.092066E-17	4.139444E-18
4.490000E+03	1.103863E-17	4.181470E-18
4.500000E+03	1.115747E-17	4.223763E-18
4.510000E+03	1.127712E-17	4.266300E-18
4.520000E+03	1.139758E-17	4.309074E-18
4.530000E+03	1.151887E-17	4.352100E-18
4.540000E+03	1.164081E-17	4.395303E-18
4.550000E+03	1.176352E-17	4.438733E-18
4.560000E+03	1.188691E-17	4.482351E-18
4.570000E+03	1.201102E-17	4.526175E-18
4.580000E+03	1.213567E-17	4.570135E-18
4.590000E+03	1.226101E-17	4.614283E-18
4.600000E+03	1.238684E-17	4.658551E-18
4.610000E+03	1.251334E-17	4.702999E-18
4.620000E+03	1.264033E-17	4.747562E-18
4.630000E+03	1.276785E-17	4.792256E-18
4.640000E+03	1.289588E-17	4.837069E-18
4.650000E+03	1.302457E-17	4.882062E-18
4.660000E+03	1.315379E-17	4.927178E-18
4.670000E+03	1.328370E-17	4.972486E-18
4.680000E+03	1.341433E-17	5.017987E-18
4.690000E+03	1.354560E-17	5.063659E-18
4.700000E+03	1.367779E-17	5.109598E-18
4.710000E+03	1.381073E-17	5.155745E-18
4.720000E+03	1.394454E-17	5.202145E-18
4.730000E+03	1.407912E-17	5.248755E-18
4.740000E+03	1.421457E-17	5.295617E-18
4.750000E+03	1.435065E-17	5.342634E-18
4.760000E+03	1.448748E-17	5.389859E-18
4.770000E+03	1.462495E-17	5.437241E-18
4.780000E+03	1.476319E-17	5.484836E-18
4.790000E+03	1.490208E-17	5.532593E-18
4.800000E+03	1.504161E-17	5.580511E-18
4.810000E+03	1.518180E-17	5.628595E-18
4.820000E+03	1.532265E-17	5.676845E-18
4.830000E+03	1.546417E-17	5.725265E-18
4.840000E+03	1.560623E-17	5.773804E-18
4.850000E+03	1.574897E-17	5.822513E-18
4.860000E+03	1.589236E-17	5.871387E-18
4.870000E+03	1.603630E-17	5.920380E-18
4.880000E+03	1.618074E-17	5.969480E-18
4.890000E+03	1.632585E-17	6.018744E-18
4.900000E+03	1.647128E-17	6.068045E-18
4.910000E+03	1.661733E-17	6.117493E-18
4.920000E+03	1.676383E-17	6.167023E-18
4.930000E+03	1.691054E-17	6.216552E-18
4.940000E+03	1.705762E-17	6.266133E-18
4.950000E+03	1.720498E-17	6.315733E-18
4.960000E+03	1.735242E-17	6.365281E-18
4.970000E+03	1.750001E-17	6.414799E-18
4.980000E+03	1.764733E-17	6.464138E-18
4.990000E+03	1.779461E-17	6.513380E-18
5.000000E+03	1.794157E-17	6.562425E-18
5.010000E+03	1.808793E-17	6.611163E-18
5.020000E+03	1.823369E-17	6.659606E-18
5.030000E+03	1.837853E-17	6.707630E-18
5.040000E+03	1.852231E-17	6.755185E-18
5.050000E+03	1.866481E-17	6.802193E-18
5.060000E+03	1.880585E-17	6.848592E-18
5.070000E+03	1.894503E-17	6.894237E-18
5.080000E+03	1.908231E-17	6.939113E-18
5.090000E+03	1.921729E-17	6.983074E-18
5.100000E+03	1.934971E-17	7.026034E-18
5.110000E+03	1.947912E-17	7.067829E-18
5.120000E+03	1.960545E-17	7.108433E-18
5.130000E+03	1.972804E-17	7.147616E-18
5.140000E+03	1.984699E-17	7.185414E-18
5.150000E+03	1.996162E-17	7.221581E-18
5.160000E+03	2.007185E-17	7.256096E-18
5.170000E+03	2.017715E-17	7.288773E-18
5.180000E+03	2.027705E-17	7.319440E-18
5.190000E+03	2.037142E-17	7.348060E-18
5.200000E+03	2.045978E-17	7.374463E-18
5.210000E+03	2.054181E-17	7.398538E-18
5.220000E+03	2.061720E-17	7.420183E-18
5.230000E+03	2.068548E-17	7.439229E-18
5.240000E+03	2.074634E-17	7.455573E-18
5.250000E+03	2.079931E-17	7.469051E-18
5.260000E+03	2.084432E-17	7.479649E-18
5.270000E+03	2.088091E-17	7.487205E-18
5.280000E+03	2.090886E-17	7.491647E-18
5.290000E+03	2.092796E-17	7.492906E-18
5.300000E+03	2.093781E-17	7.490851E-18
5.310000E+03	2.093826E-17	7.485437E-18
5.320000E+03	2.092921E-17	7.476626E-18
5.330000E+03	2.091056E-17	7.464403E-18
5.340000E+03	2.088208E-17	7.448686E-18
5.350000E+03	2.084400E-17	7.429565E-18
5.360000E+03	2.079636E-17	7.407065E-18
5.370000E+03	2.073929E-17	7.381241E-18
5.380000E+03	2.067275E-17	7.352085E-18
5.390000E+03	2.059740E-17	7.319839E-18
5.400000E+03	2.051330E-17	7.284533E-18
5.410000E+03	2.042125E-17	7.246455E-18
5.420000E+03	2.032142E-17	7.205676E-18
5.430000E+03	2.021450E-17	7.162447E-18
5.440000E+03	2.010104E-17	7.116961E-18
5.450000E+03	1.998200E-17	7.069574E-18
5.460000E+03	1.985781E-17	7.020436E-18
5.470000E+03	1.972896E-17	6.969726E-18
5.480000E+03	1.959577E-17	6.917563E-18
5.490000E+03	1.945904E-17	6.864228E-18
5.500000E+03	1.931914E-17	6.809859E-18
5.510000E+03	1.917675E-17	6.754693E-18
5.520000E+03	1.903250E-17	6.698959E-18
5.530000E+03	1.888707E-17	6.642896E-18
5.540000E+03	1.874115E-17	6.586748E-18
5.550000E+03	1.859559E-17	6.530813E-18
5.560000E+03	1.845107E-17	6.475332E-18
5.570000E+03	1.830861E-17	6.420657E-18
5.580000E+03	1.816864E-17	6.366940E-18
5.590000E+03	1.803230E-17	6.314581E-18
5.600000E+03	1.789999E-17	6.263715E-18
5.610000E+03	1.777257E-17	6.214638E-18
5.620000E+03	1.765086E-17	6.167637E-18
5.630000E+03	1.753511E-17	6.122795E-18
5.640000E+03	1.742643E-17	6.080489E-18
5.650000E+03	1.732513E-17	6.040825E-18
5.660000E+03	1.723146E-17	6.003891E-18
5.670000E+03	1.714638E-17	5.970006E-18
5.680000E+03	1.706987E-17	5.939165E-18
5.690000E+03	1.700244E-17	5.911533E-18
5.700000E+03	1.694451E-17	5.887253E-18
5.710000E+03	1.689632E-17	5.866399E-18
5.720000E+03	1.685806E-17	5.849035E-18
5.730000E+03	1.682991E-17	5.835211E-18
5.740000E+03	1.681218E-17	5.825033E-18
5.750000E+03	1.680517E-17	5.818591E-18
5.760000E+03	1.680864E-17	5.815801E-18
5.770000E+03	1.682320E-17	5.816866E-18
5.780000E+03	1.684861E-17	5.821689E-18
5.790000E+03	1.688527E-17	5.830411E-18
5.800000E+03	1.693309E-17	5.842988E-18
5.810000E+03	1.699232E-17	5.859499E-18
5.820000E+03	1.706303E-17	5.879964E-18
5.830000E+03	1.714548E-17	5.904464E-18
5.840000E+03	1.723955E-17	5.932949E-18
5.850000E+03	1.734529E-17	5.965431E-18
5.860000E+03	1.746297E-17	6.001996E-18
5.870000E+03	1.759284E-17	6.042721E-18
5.880000E+03	1.773455E-17	6.087482E-18
5.890000E+03	1.788857E-17	6.136430E-18
5.900000E+03	1.805472E-17	6.189500E-18
5.910000E+03	1.823324E-17	6.246764E-18
5.920000E+03	1.842415E-17	6.308226E-18
5.930000E+03	1.862721E-17	6.373799E-18
5.940000E+03	1.884266E-17	6.443553E-18
5.950000E+03	1.907042E-17	6.517458E-18
5.960000E+03	1.931020E-17	6.595412E-18
5.970000E+03	1.956235E-17	6.677524E-18
5.980000E+03	1.982631E-17	6.763597E-18
5.990000E+03	2.010211E-17	6.853643E-18
6.000000E+03	2.038954E-17	6.947580E-18
6.010000E+03	2.068814E-17	7.045247E-18
6.020000E+03	2.099781E-17	7.146611E-18
6.030000E+03	2.131774E-17	7.251385E-18
6.040000E+03	2.164801E-17	7.359598E-18
6.050000E+03	2.198763E-17	7.470913E-18
6.060000E+03	2.233638E-17	7.585248E-18
6.070000E+03	2.269338E-17	7.702304E-18
6.080000E+03	2.305802E-17	7.821872E-18
6.090000E+03	2.342931E-17	7.943616E-18
6.100000E+03	2.380619E-17	8.067180E-18
6.110000E+03	2.418812E-17	8.192380E-18
6.120000E+03	2.457335E-17	8.318621E-18
6.130000E+03	2.496122E-17	8.445687E-18
6.140000E+03	2.535013E-17	8.573034E-18
6.150000E+03	2.573905E-17	8.700323E-18
6.160000E+03	2.612564E-17	8.826767E-18
6.170000E+03	2.650913E-17	8.952105E-18
6.180000E+03	2.688742E-17	9.075638E-18
6.190000E+03	2.725908E-17	9.196892E-18
6.200000E+03	2.762242E-17	9.315302E-18
6.210000E+03	2.797719E-17	9.430792E-18
6.220000E+03	2.832369E-17	9.543469E-18
6.230000E+03	2.866232E-17	9.653479E-18
6.240000E+03	2.899367E-17	9.761027E-18
6.250000E+03	2.931732E-17	9.865974E-18
6.260000E+03	2.963481E-17	9.968856E-18
6.270000E+03	2.994555E-17	1.006947E-17
6.280000E+03	3.025052E-17	1.016816E-17
6.290000E+03	3.055045E-17	1.026517E-17
6.300000E+03	3.084488E-17	1.036036E-17
6.310000E+03	3.113467E-17	1.045402E-17
6.320000E+03	3.142031E-17	1.054631E-17
6.330000E+03	3.170230E-17	1.063742E-17
6.340000E+03	3.198039E-17	1.072725E-17
6.350000E+03	3.225515E-17	1.081599E-17
6.360000E+03	3.252677E-17	1.090373E-17
6.370000E+03	3.279544E-17	1.099052E-17
6.380000E+03	3.306091E-17	1.107627E-17
6.390000E+03	3.332290E-17	1.116091E-17
6.400000E+03	3.358113E-17	1.124433E-17
6.410000E+03	3.383575E-17	1.132659E-17
6.420000E+03	3.408648E-17	1.140760E-17
6.430000E+03	3.433196E-17	1.148690E-17
6.440000E+03	3.457383E-17	1.156505E-17
6.450000E+03	3.481226E-17	1.164210E-17
6.460000E+03	3.504792E-17	1.171828E-17
6.470000E+03	3.528207E-17	1.179402E-17
6.480000E+03	3.551441E-17	1.186920E-17
6.490000E+03	3.574621E-17	1.194426E-17
6.500000E+03	3.597771E-17	1.201928E-17
6.510000E+03	3.620970E-17	1.209453E-17
6.520000E+03	3.644132E-17	1.216971E-17
6.530000E+03	3.667446E-17	1.224546E-17
6.540000E+03	3.690825E-17	1.232149E-17
6.550000E+03	3.714345E-17	1.239805E-17
6.560000E+03	3.738031E-17	1.247522E-17
6.570000E+03	3.761845E-17	1.255288E-17
6.580000E+03	3.785863E-17	1.263129E-17
6.590000E+03	3.810107E-17	1.271051E-17
6.600000E+03	3.834534E-17	1.279041E-17
6.610000E+03	3.859158E-17	1.287103E-17
6.620000E+03	3.883996E-17	1.295242E-17
6.630000E+03	3.909126E-17	1.303485E-17
6.640000E+03	3.934431E-17	1.311793E-17
6.650000E+03	3.959989E-17	1.320192E-17
6.660000E+03	3.985810E-17	1.328685E-17
6.670000E+03	4.011836E-17	1.337252E-17
6.680000E+03	4.038143E-17	1.345920E-17
6.690000E+03	4.064669E-17	1.354668E-17
6.700000E+03	4.091489E-17	1.363520E-17
6.710000E+03	4.118469E-17	1.372432E-17
6.720000E+03	4.145682E-17	1.381429E-17
6.730000E+03	4.173201E-17	1.390534E-17
6.740000E+03	4.200887E-17	1.399701E-17
6.750000E+03	4.228811E-17	1.408955E-17
6.760000E+03	4.256898E-17	1.418270E-17
6.770000E+03	4.285222E-17	1.427670E-17
6.780000E+03	4.313707E-17	1.437131E-17
6.790000E+03	4.342347E-17	1.446651E-17
6.800000E+03	4.371219E-17	1.456256E-17
6.810000E+03	4.400160E-17	1.465890E-17
6.820000E+03	4.429322E-17	1.475605E-17
6.830000E+03	4.458538E-17	1.485345E-17
6.840000E+03	4.487964E-17	1.495162E-17
6.850000E+03	4.517427E-17	1.504999E-17
6.860000E+03	4.546914E-17	1.514852E-17
6.870000E+03	4.576498E-17	1.524743E-17
6.880000E+03	4.606166E-17	1.534671E-17
6.890000E+03	4.635736E-17	1.544573E-17
6.900000E+03	4.665361E-17	1.554501E-17
6.910000E+03	4.694940E-17	1.564421E-17
6.920000E+03	4.724544E-17	1.574357E-17
6.930000E+03	4.753979E-17	1.584245E-17
6.940000E+03	4.783315E-17	1.594107E-17
6.950000E+03	4.812533E-17	1.603937E-17
6.960000E+03	4.841521E-17	1.613699E-17
6.970000E+03	4.870350E-17	1.623416E-17
6.980000E+03	4.899007E-17	1.633082E-17
6.990000E+03	4.927374E-17	1.642660E-17
7.000000E+03	4.955435E-17	1.652144E-17
7.010000E+03	4.983169E-17	1.661527E-17
7.020000E+03	5.010660E-17	1.670837E-17
7.030000E+03	5.037693E-17	1.680002E-17
7.040000E+03	5.064455E-17	1.689085E-17
7.050000E+03	5.090730E-17	1.698013E-17
7.060000E+03	5.116611E-17	1.706818E-17
7.070000E+03	5.141983E-17	1.715461E-17
7.080000E+03	5.166943E-17	1.723974E-17
7.090000E+03	5.191481E-17	1.732355E-17
7.100000E+03	5.215494E-17	1.740569E-17
7.110000E+03	5.238870E-17	1.748578E-17
7.120000E+03	5.261817E-17	1.756451E-17
7.130000E+03	5.284231E-17	1.764156E-17
7.140000E+03	5.306114E-17	1.771690E-17
7.150000E+03	5.327470E-17	1.779056E-17
7.160000E+03	5.348192E-17	1.786219E-17
7.170000E+03	5.368395E-17	1.793216E-17
7.180000E+03	5.387973E-17	1.800013E-17
7.190000E+03	5.406934E-17	1.806611E-17
7.200000E+03	5.425395E-17	1.813050E-17
7.210000E+03	5.443252E-17	1.819295E-17
7.220000E+03	5.460626E-17	1.825386E-17
7.230000E+03	5.477295E-17	1.831250E-17
7.240000E+03	5.493377E-17	1.836925E-17
7.250000E+03	5.508880E-17	1.842414E-17
7.260000E+03	5.523810E-17	1.847718E-17
7.270000E+03	5.538170E-17	1.852840E-17
7.280000E+03	5.551965E-17	1.857781E-17
7.290000E+03	5.565079E-17	1.862500E-17
7.300000E+03	5.577631E-17	1.867040E-17
7.310000E+03	5.589627E-17	1.871401E-17
7.320000E+03	5.601065E-17	1.875582E-17
7.330000E+03	5.611828E-17	1.879545E-17
7.340000E+03	5.622038E-17	1.883330E-17
7.350000E+03	5.631820E-17	1.886978E-17
7.360000E+03	5.640933E-17	1.890410E-17
7.370000E+03	5.649502E-17	1.893667E-17
7.380000E+03	5.657532E-17	1.896750E-17
7.390000E+03	5.665157E-17	1.899704E-17
7.400000E+03	5.672258E-17	1.902490E-17
7.410000E+03	5.678970E-17	1.905152E-17
7.420000E+03	5.685436E-17	1.907739E-17
7.430000E+03	5.691539E-17	1.910211E-17
7.440000E+03	5.697552E-17	1.912660E-17
7.450000E+03	5.703238E-17	1.915006E-17
7.460000E+03	5.708738E-17	1.917297E-17
7.470000E+03	5.713944E-17	1.919496E-17
7.480000E+03	5.719003E-17	1.921653E-17
7.490000E+03	5.723668E-17	1.923684E-17
7.500000E+03	5.728088E-17	1.925640E-17
7.510000E+03	5.732280E-17	1.927526E-17
7.520000E+03	5.736128E-17	1.929303E-17
7.530000E+03	5.739914E-17	1.931067E-17
7.540000E+03	5.743388E-17	1.932733E-17
7.550000E+03	5.746697E-17	1.934350E-17
7.560000E+03	5.749719E-17	1.935876E-17
7.570000E+03	5.752602E-17	1.937363E-17
7.580000E+03	5.755218E-17	1.938766E-17
7.590000E+03	5.757713E-17	1.940134E-17
7.600000E+03	5.759954E-17	1.941423E-17
7.610000E+03	5.761947E-17	1.942634E-17
7.620000E+03	5.763829E-17	1.943813E-17
7.630000E+03	5.765463E-17	1.944915E-17
7.640000E+03	5.766848E-17	1.945938E-17
7.650000E+03	5.768118E-17	1.946928E-17
7.660000E+03	5.769129E-17	1.947835E-17
7.670000E+03	5.770014E-17	1.948705E-17
7.680000E+03	5.770478E-17	1.949438E-17
7.690000E+03	5.770796E-17	1.950126E-17
7.700000E+03	5.770954E-17	1.950765E-17
7.710000E+03	5.770798E-17	1.951303E-17
7.720000E+03	5.770451E-17	1.951780E-17
7.730000E+03	5.769756E-17	1.952144E-17
7.740000E+03	5.768692E-17	1.952387E-17
7.750000E+03	5.767383E-17	1.952552E-17
7.760000E+03	5.765811E-17	1.952631E-17
