#wls	flux	fluxerr
1.600000E+03	1.652404E-16	2.132417E-17
1.640000E+03	1.710123E-16	2.206831E-17
1.680000E+03	1.766404E-16	2.279380E-17
1.720000E+03	1.820672E-16	2.349326E-17
1.760000E+03	1.872488E-16	2.416101E-17
1.800000E+03	1.921172E-16	2.478828E-17
1.840000E+03	1.966180E-16	2.536805E-17
1.880000E+03	2.006923E-16	2.589272E-17
1.920000E+03	2.042596E-16	2.635191E-17
1.960000E+03	2.072551E-16	2.673728E-17
2.000000E+03	2.096131E-16	2.704035E-17
2.040000E+03	2.112680E-16	2.725266E-17
2.080000E+03	2.121409E-16	2.736405E-17
2.120000E+03	2.121748E-16	2.736720E-17
2.160000E+03	2.112913E-16	2.725197E-17
2.200000E+03	2.094270E-16	2.701023E-17
2.240000E+03	2.064850E-16	2.662949E-17
2.280000E+03	2.024023E-16	2.610166E-17
2.320000E+03	1.972765E-16	2.543933E-17
2.360000E+03	1.912491E-16	2.466077E-17
2.400000E+03	1.844305E-16	2.378026E-17
2.440000E+03	1.769084E-16	2.280910E-17
2.480000E+03	1.687637E-16	2.175774E-17
2.520000E+03	1.600897E-16	2.063825E-17
2.560000E+03	1.509692E-16	1.946130E-17
2.600000E+03	1.415044E-16	1.824007E-17
2.640000E+03	1.317890E-16	1.698668E-17
2.680000E+03	1.219136E-16	1.571278E-17
2.720000E+03	1.119851E-16	1.443220E-17
2.760000E+03	1.021016E-16	1.315755E-17
2.800000E+03	9.236184E-17	1.190158E-17
2.840000E+03	8.286122E-17	1.067658E-17
2.880000E+03	7.369473E-17	9.494787E-18
2.920000E+03	6.496219E-17	8.369058E-18
2.960000E+03	5.676194E-17	7.312055E-18
3.000000E+03	4.916789E-17	6.333288E-18
3.010000E+03	4.736977E-17	6.101550E-18
3.020000E+03	4.561478E-17	5.875375E-18
3.030000E+03	4.390080E-17	5.654491E-18
3.040000E+03	4.222899E-17	5.439048E-18
3.050000E+03	4.060128E-17	5.229292E-18
3.060000E+03	3.901571E-17	5.024971E-18
3.070000E+03	3.747404E-17	4.826313E-18
3.080000E+03	3.597611E-17	4.633295E-18
3.090000E+03	3.452185E-17	4.445910E-18
3.100000E+03	3.311121E-17	4.264148E-18
3.110000E+03	3.174549E-17	4.088180E-18
3.120000E+03	3.042387E-17	3.917895E-18
3.130000E+03	2.914679E-17	3.753355E-18
3.140000E+03	2.791401E-17	3.594526E-18
3.150000E+03	2.672521E-17	3.441367E-18
3.160000E+03	2.558050E-17	3.293891E-18
3.170000E+03	2.447977E-17	3.152084E-18
3.180000E+03	2.342144E-17	3.015742E-18
3.190000E+03	2.240608E-17	2.884940E-18
3.200000E+03	2.143239E-17	2.759506E-18
3.210000E+03	2.049977E-17	2.639368E-18
3.220000E+03	1.960720E-17	2.524390E-18
3.230000E+03	1.875328E-17	2.414394E-18
3.240000E+03	1.793786E-17	2.309358E-18
3.250000E+03	1.715885E-17	2.209014E-18
3.260000E+03	1.641594E-17	2.113322E-18
3.270000E+03	1.570787E-17	2.022120E-18
3.280000E+03	1.503289E-17	1.935181E-18
3.290000E+03	1.439049E-17	1.852441E-18
3.300000E+03	1.377898E-17	1.773680E-18
3.310000E+03	1.319732E-17	1.698765E-18
3.320000E+03	1.264430E-17	1.627540E-18
3.330000E+03	1.211889E-17	1.559872E-18
3.340000E+03	1.161970E-17	1.495581E-18
3.350000E+03	1.114558E-17	1.434521E-18
3.360000E+03	1.069542E-17	1.376547E-18
3.370000E+03	1.026825E-17	1.321535E-18
3.380000E+03	9.862873E-18	1.269330E-18
3.390000E+03	9.478267E-18	1.219801E-18
3.400000E+03	9.113452E-18	1.172821E-18
3.410000E+03	8.767370E-18	1.128254E-18
3.420000E+03	8.439133E-18	1.085985E-18
3.430000E+03	8.127886E-18	1.045905E-18
3.440000E+03	7.832718E-18	1.007895E-18
3.450000E+03	7.552860E-18	9.718579E-19
3.460000E+03	7.287490E-18	9.376864E-19
3.470000E+03	7.035838E-18	9.052817E-19
3.480000E+03	6.797179E-18	8.745503E-19
3.490000E+03	6.570759E-18	8.453951E-19
3.500000E+03	6.356019E-18	8.177439E-19
3.510000E+03	6.152289E-18	7.915107E-19
3.520000E+03	5.958883E-18	7.666071E-19
3.530000E+03	5.775109E-18	7.429438E-19
3.540000E+03	5.600511E-18	7.204620E-19
3.550000E+03	5.434486E-18	6.990842E-19
3.560000E+03	5.276375E-18	6.787257E-19
3.570000E+03	5.125734E-18	6.593290E-19
3.580000E+03	4.982102E-18	6.408348E-19
3.590000E+03	4.844998E-18	6.231813E-19
3.600000E+03	4.713940E-18	6.063063E-19
3.610000E+03	4.588659E-18	5.901752E-19
3.620000E+03	4.468808E-18	5.747433E-19
3.630000E+03	4.354066E-18	5.599693E-19
3.640000E+03	4.244321E-18	5.458388E-19
3.650000E+03	4.139341E-18	5.323217E-19
3.660000E+03	4.038936E-18	5.193937E-19
3.670000E+03	3.942953E-18	5.070350E-19
3.680000E+03	3.851239E-18	4.952260E-19
3.690000E+03	3.763606E-18	4.839423E-19
3.700000E+03	3.679967E-18	4.731728E-19
3.710000E+03	3.600102E-18	4.628892E-19
3.720000E+03	3.523895E-18	4.530763E-19
3.730000E+03	3.451251E-18	4.437222E-19
3.740000E+03	3.381939E-18	4.347969E-19
3.750000E+03	3.315925E-18	4.262961E-19
3.760000E+03	3.252987E-18	4.181912E-19
3.770000E+03	3.193068E-18	4.104748E-19
3.780000E+03	3.136035E-18	4.031298E-19
3.790000E+03	3.081758E-18	3.961395E-19
3.800000E+03	3.030140E-18	3.894914E-19
3.810000E+03	2.981059E-18	3.831698E-19
3.820000E+03	2.934427E-18	3.771632E-19
3.830000E+03	2.890157E-18	3.714606E-19
3.840000E+03	2.848144E-18	3.660482E-19
3.850000E+03	2.808310E-18	3.609164E-19
3.860000E+03	2.770582E-18	3.560553E-19
3.870000E+03	2.734868E-18	3.514534E-19
3.880000E+03	2.701101E-18	3.471020E-19
3.890000E+03	2.669220E-18	3.429930E-19
3.900000E+03	2.639143E-18	3.391162E-19
3.910000E+03	2.610814E-18	3.354640E-19
3.920000E+03	2.584158E-18	3.320271E-19
3.930000E+03	2.559143E-18	3.288012E-19
3.940000E+03	2.535698E-18	3.257771E-19
3.950000E+03	2.513775E-18	3.229488E-19
3.960000E+03	2.493289E-18	3.203051E-19
3.970000E+03	2.474232E-18	3.178451E-19
3.980000E+03	2.456522E-18	3.155583E-19
3.990000E+03	2.440119E-18	3.134394E-19
4.000000E+03	2.424961E-18	3.114807E-19
4.010000E+03	2.411030E-18	3.096795E-19
4.020000E+03	2.398251E-18	3.080264E-19
4.030000E+03	2.386608E-18	3.065192E-19
4.040000E+03	2.376028E-18	3.051487E-19
4.050000E+03	2.366500E-18	3.039131E-19
4.060000E+03	2.357954E-18	3.028038E-19
4.070000E+03	2.350363E-18	3.018171E-19
4.080000E+03	2.343698E-18	3.009494E-19
4.090000E+03	2.337934E-18	3.001972E-19
4.100000E+03	2.333008E-18	2.995527E-19
4.110000E+03	2.328899E-18	2.990130E-19
4.120000E+03	2.325565E-18	2.985729E-19
4.130000E+03	2.322987E-18	2.982298E-19
4.140000E+03	2.321146E-18	2.979811E-19
4.150000E+03	2.319986E-18	2.978200E-19
4.160000E+03	2.319510E-18	2.977465E-19
4.170000E+03	2.319666E-18	2.977540E-19
4.180000E+03	2.320441E-18	2.978409E-19
4.190000E+03	2.321819E-18	2.980052E-19
4.200000E+03	2.323755E-18	2.982411E-19
4.210000E+03	2.326237E-18	2.985468E-19
4.220000E+03	2.329238E-18	2.989191E-19
4.230000E+03	2.332767E-18	2.993589E-19
4.240000E+03	2.336763E-18	2.998587E-19
4.250000E+03	2.341238E-18	3.004197E-19
4.260000E+03	2.346149E-18	3.010366E-19
4.270000E+03	2.351510E-18	3.017111E-19
4.280000E+03	2.357263E-18	3.024357E-19
4.290000E+03	2.363404E-18	3.032099E-19
4.300000E+03	2.369930E-18	3.040335E-19
4.310000E+03	2.376784E-18	3.048988E-19
4.320000E+03	2.383982E-18	3.058082E-19
4.330000E+03	2.391446E-18	3.067516E-19
4.340000E+03	2.399195E-18	3.077312E-19
4.350000E+03	2.407129E-18	3.087345E-19
4.360000E+03	2.415246E-18	3.097611E-19
4.370000E+03	2.423602E-18	3.108180E-19
4.380000E+03	2.432192E-18	3.119049E-19
4.390000E+03	2.441035E-18	3.130240E-19
4.400000E+03	2.450130E-18	3.141752E-19
4.410000E+03	2.459440E-18	3.153538E-19
4.420000E+03	2.469004E-18	3.165646E-19
4.430000E+03	2.478782E-18	3.178027E-19
4.440000E+03	2.488776E-18	3.190683E-19
4.450000E+03	2.498970E-18	3.203594E-19
4.460000E+03	2.509366E-18	3.216761E-19
4.470000E+03	2.519926E-18	3.230137E-19
4.480000E+03	2.530677E-18	3.243754E-19
4.490000E+03	2.541582E-18	3.257566E-19
4.500000E+03	2.552626E-18	3.271556E-19
4.510000E+03	2.563841E-18	3.285761E-19
4.520000E+03	2.575174E-18	3.300113E-19
4.530000E+03	2.586635E-18	3.314628E-19
4.540000E+03	2.598238E-18	3.329323E-19
4.550000E+03	2.609959E-18	3.344167E-19
4.560000E+03	2.621817E-18	3.359184E-19
4.570000E+03	2.633788E-18	3.374342E-19
4.580000E+03	2.645896E-18	3.389673E-19
4.590000E+03	2.658142E-18	3.405177E-19
4.600000E+03	2.670529E-18	3.420861E-19
4.610000E+03	2.683040E-18	3.436700E-19
4.620000E+03	2.695724E-18	3.452757E-19
4.630000E+03	2.708538E-18	3.468978E-19
4.640000E+03	2.721511E-18	3.485400E-19
4.650000E+03	2.734645E-18	3.502026E-19
4.660000E+03	2.747925E-18	3.518834E-19
4.670000E+03	2.761398E-18	3.535888E-19
4.680000E+03	2.775025E-18	3.553134E-19
4.690000E+03	2.788829E-18	3.570606E-19
4.700000E+03	2.802869E-18	3.588375E-19
4.710000E+03	2.817124E-18	3.606415E-19
4.720000E+03	2.831624E-18	3.624768E-19
4.730000E+03	2.846401E-18	3.643470E-19
4.740000E+03	2.861462E-18	3.662532E-19
4.750000E+03	2.876814E-18	3.681965E-19
4.760000E+03	2.892515E-18	3.701840E-19
4.770000E+03	2.908524E-18	3.722104E-19
4.780000E+03	2.924898E-18	3.742834E-19
4.790000E+03	2.941648E-18	3.764039E-19
4.800000E+03	2.958755E-18	3.785697E-19
4.810000E+03	2.976283E-18	3.807890E-19
4.820000E+03	2.994215E-18	3.830596E-19
4.830000E+03	3.012562E-18	3.853829E-19
4.840000E+03	3.031338E-18	3.877606E-19
4.850000E+03	3.050555E-18	3.901942E-19
4.860000E+03	3.070282E-18	3.926926E-19
4.870000E+03	3.090451E-18	3.952471E-19
4.880000E+03	3.111132E-18	3.978667E-19
4.890000E+03	3.132316E-18	4.005499E-19
4.900000E+03	3.154046E-18	4.033026E-19
4.910000E+03	3.176310E-18	4.061229E-19
4.920000E+03	3.199125E-18	4.090133E-19
4.930000E+03	3.222536E-18	4.119793E-19
4.940000E+03	3.246501E-18	4.150156E-19
4.950000E+03	3.271068E-18	4.181281E-19
4.960000E+03	3.296249E-18	4.213187E-19
4.970000E+03	3.322061E-18	4.245892E-19
4.980000E+03	3.348489E-18	4.279379E-19
4.990000E+03	3.375543E-18	4.313660E-19
5.000000E+03	3.403270E-18	4.348794E-19
5.010000E+03	3.431619E-18	4.384716E-19
5.020000E+03	3.460664E-18	4.421520E-19
5.030000E+03	3.490351E-18	4.459138E-19
5.040000E+03	3.520690E-18	4.497582E-19
5.050000E+03	3.551722E-18	4.536903E-19
5.060000E+03	3.583421E-18	4.577069E-19
5.070000E+03	3.615796E-18	4.618091E-19
5.080000E+03	3.648818E-18	4.659930E-19
5.090000E+03	3.682524E-18	4.702636E-19
5.100000E+03	3.716920E-18	4.746215E-19
5.110000E+03	3.751937E-18	4.790578E-19
5.120000E+03	3.787616E-18	4.835777E-19
5.130000E+03	3.823956E-18	4.881811E-19
5.140000E+03	3.860958E-18	4.928682E-19
5.150000E+03	3.898589E-18	4.976347E-19
5.160000E+03	3.936850E-18	5.024806E-19
5.170000E+03	3.975706E-18	5.074015E-19
5.180000E+03	4.015235E-18	5.124072E-19
5.190000E+03	4.055364E-18	5.174886E-19
5.200000E+03	4.096098E-18	5.226462E-19
5.210000E+03	4.137439E-18	5.278802E-19
5.220000E+03	4.179434E-18	5.331964E-19
5.230000E+03	4.222003E-18	5.385849E-19
5.240000E+03	4.265149E-18	5.440460E-19
5.250000E+03	4.308956E-18	5.495902E-19
5.260000E+03	4.353300E-18	5.552017E-19
5.270000E+03	4.398263E-18	5.608910E-19
5.280000E+03	4.443799E-18	5.666522E-19
5.290000E+03	4.489904E-18	5.724847E-19
5.300000E+03	4.536617E-18	5.783936E-19
5.310000E+03	4.583839E-18	5.843661E-19
5.320000E+03	4.631608E-18	5.904070E-19
5.330000E+03	4.679909E-18	5.965145E-19
5.340000E+03	4.728730E-18	6.026870E-19
5.350000E+03	4.778103E-18	6.089284E-19
5.360000E+03	4.827912E-18	6.152242E-19
5.370000E+03	4.878183E-18	6.215773E-19
5.380000E+03	4.928887E-18	6.279843E-19
5.390000E+03	4.979944E-18	6.344348E-19
5.400000E+03	5.031415E-18	6.409367E-19
5.410000E+03	5.083210E-18	6.474783E-19
5.420000E+03	5.135235E-18	6.540477E-19
5.430000E+03	5.187437E-18	6.606384E-19
5.440000E+03	5.239816E-18	6.672499E-19
5.450000E+03	5.292207E-18	6.738616E-19
5.460000E+03	5.344602E-18	6.804722E-19
5.470000E+03	5.396936E-18	6.870734E-19
5.480000E+03	5.449030E-18	6.936427E-19
5.490000E+03	5.500808E-18	7.001701E-19
5.500000E+03	5.552244E-18	7.066525E-19
5.510000E+03	5.603196E-18	7.130718E-19
5.520000E+03	5.653516E-18	7.194090E-19
5.530000E+03	5.703048E-18	7.256444E-19
5.540000E+03	5.751802E-18	7.317793E-19
5.550000E+03	5.799497E-18	7.377779E-19
5.560000E+03	5.846074E-18	7.436328E-19
5.570000E+03	5.891355E-18	7.493215E-19
5.580000E+03	5.935217E-18	7.548281E-19
5.590000E+03	5.977531E-18	7.601364E-19
5.600000E+03	6.018109E-18	7.652225E-19
5.610000E+03	6.056878E-18	7.700774E-19
5.620000E+03	6.093647E-18	7.746765E-19
5.630000E+03	6.128219E-18	7.789950E-19
5.640000E+03	6.160590E-18	7.830326E-19
5.650000E+03	6.190575E-18	7.867655E-19
5.660000E+03	6.217991E-18	7.901709E-19
5.670000E+03	6.242792E-18	7.932430E-19
5.680000E+03	6.264945E-18	7.959775E-19
5.690000E+03	6.284231E-18	7.983469E-19
5.700000E+03	6.300637E-18	8.003494E-19
5.710000E+03	6.314165E-18	8.019855E-19
5.720000E+03	6.324694E-18	8.032399E-19
5.730000E+03	6.332251E-18	8.041163E-19
5.740000E+03	6.336736E-18	8.046021E-19
5.750000E+03	6.338198E-18	8.047033E-19
5.760000E+03	6.336625E-18	8.044189E-19
5.770000E+03	6.332086E-18	8.037576E-19
5.780000E+03	6.324453E-18	8.027032E-19
5.790000E+03	6.313944E-18	8.012837E-19
5.800000E+03	6.300449E-18	7.994851E-19
5.810000E+03	6.284070E-18	7.973204E-19
5.820000E+03	6.264849E-18	7.947953E-19
5.830000E+03	6.242841E-18	7.919166E-19
5.840000E+03	6.218174E-18	7.887010E-19
5.850000E+03	6.190925E-18	7.851580E-19
5.860000E+03	6.161178E-18	7.812987E-19
5.870000E+03	6.128963E-18	7.771268E-19
5.880000E+03	6.094526E-18	7.726737E-19
5.890000E+03	6.057919E-18	7.679461E-19
5.900000E+03	6.019337E-18	7.629686E-19
5.910000E+03	5.978847E-18	7.577502E-19
5.920000E+03	5.936656E-18	7.523168E-19
5.930000E+03	5.892904E-18	7.466865E-19
5.940000E+03	5.847731E-18	7.408769E-19
5.950000E+03	5.801275E-18	7.349058E-19
5.960000E+03	5.753670E-18	7.287901E-19
5.970000E+03	5.705116E-18	7.225551E-19
5.980000E+03	5.655606E-18	7.162002E-19
5.990000E+03	5.605396E-18	7.097577E-19
6.000000E+03	5.554537E-18	7.032341E-19
6.010000E+03	5.503144E-18	6.966440E-19
6.020000E+03	5.451390E-18	6.900094E-19
6.030000E+03	5.399247E-18	6.833268E-19
6.040000E+03	5.346945E-18	6.766252E-19
6.050000E+03	5.294447E-18	6.699000E-19
6.060000E+03	5.241906E-18	6.631707E-19
6.070000E+03	5.189406E-18	6.564478E-19
6.080000E+03	5.136964E-18	6.497334E-19
6.090000E+03	5.084652E-18	6.430367E-19
6.100000E+03	5.032540E-18	6.363667E-19
6.110000E+03	4.980695E-18	6.297317E-19
6.120000E+03	4.929178E-18	6.231393E-19
6.130000E+03	4.878044E-18	6.165967E-19
6.140000E+03	4.827346E-18	6.101105E-19
6.150000E+03	4.777130E-18	6.036866E-19
6.160000E+03	4.727505E-18	5.973384E-19
6.170000E+03	4.678567E-18	5.910784E-19
6.180000E+03	4.630412E-18	5.849186E-19
6.190000E+03	4.583071E-18	5.788627E-19
6.200000E+03	4.536571E-18	5.729144E-19
6.210000E+03	4.490879E-18	5.670692E-19
6.220000E+03	4.446017E-18	5.613301E-19
6.230000E+03	4.402005E-18	5.556994E-19
6.240000E+03	4.358803E-18	5.501720E-19
6.250000E+03	4.316483E-18	5.447572E-19
6.260000E+03	4.275175E-18	5.394710E-19
6.270000E+03	4.234828E-18	5.343073E-19
6.280000E+03	4.195508E-18	5.292743E-19
6.290000E+03	4.157338E-18	5.243872E-19
6.300000E+03	4.120261E-18	5.196390E-19
6.310000E+03	4.084449E-18	5.150514E-19
6.320000E+03	4.049962E-18	5.106317E-19
6.330000E+03	4.016738E-18	5.063722E-19
6.340000E+03	3.984947E-18	5.022941E-19
6.350000E+03	3.954640E-18	4.984039E-19
6.360000E+03	3.925813E-18	4.947009E-19
6.370000E+03	3.898519E-18	4.911918E-19
6.380000E+03	3.872920E-18	4.878970E-19
6.390000E+03	3.848956E-18	4.848087E-19
6.400000E+03	3.826678E-18	4.819333E-19
6.410000E+03	3.806196E-18	4.792846E-19
6.420000E+03	3.787334E-18	4.768403E-19
6.430000E+03	3.769978E-18	4.745861E-19
6.440000E+03	3.754068E-18	4.725141E-19
6.450000E+03	3.739545E-18	4.706169E-19
6.460000E+03	3.726292E-18	4.688799E-19
6.470000E+03	3.714308E-18	4.673027E-19
6.480000E+03	3.703533E-18	4.658779E-19
6.490000E+03	3.693965E-18	4.646048E-19
6.500000E+03	3.685546E-18	4.634764E-19
6.510000E+03	3.678273E-18	4.624921E-19
6.520000E+03	3.672144E-18	4.616517E-19
6.530000E+03	3.667100E-18	4.609476E-19
6.540000E+03	3.663199E-18	4.603870E-19
6.550000E+03	3.660437E-18	4.599694E-19
6.560000E+03	3.658755E-18	4.596875E-19
6.570000E+03	3.658212E-18	4.595482E-19
6.580000E+03	3.658748E-18	4.595444E-19
6.590000E+03	3.660361E-18	4.596755E-19
6.600000E+03	3.663113E-18	4.599492E-19
6.610000E+03	3.666880E-18	4.603501E-19
6.620000E+03	3.671847E-18	4.609009E-19
6.630000E+03	3.677829E-18	4.615789E-19
6.640000E+03	3.684951E-18	4.623994E-19
6.650000E+03	3.693151E-18	4.633546E-19
6.660000E+03	3.702431E-18	4.644446E-19
6.670000E+03	3.712856E-18	4.656775E-19
6.680000E+03	3.724362E-18	4.670455E-19
6.690000E+03	3.736954E-18	4.685487E-19
6.700000E+03	3.750633E-18	4.701874E-19
6.710000E+03	3.765464E-18	4.719698E-19
6.720000E+03	3.781323E-18	4.738801E-19
6.730000E+03	3.798341E-18	4.759348E-19
6.740000E+03	3.816458E-18	4.781260E-19
6.750000E+03	3.835677E-18	4.804543E-19
6.760000E+03	3.856001E-18	4.829200E-19
6.770000E+03	3.877433E-18	4.855233E-19
6.780000E+03	3.900049E-18	4.882736E-19
6.790000E+03	3.923713E-18	4.911539E-19
6.800000E+03	3.948499E-18	4.941733E-19
6.810000E+03	3.974412E-18	4.973325E-19
6.820000E+03	4.001456E-18	5.006317E-19
6.830000E+03	4.029638E-18	5.040719E-19
6.840000E+03	4.058960E-18	5.076533E-19
6.850000E+03	4.089429E-18	5.113765E-19
6.860000E+03	4.120975E-18	5.152327E-19
6.870000E+03	4.153675E-18	5.192317E-19
6.880000E+03	4.187534E-18	5.233737E-19
6.890000E+03	4.222480E-18	5.276499E-19
6.900000E+03	4.258592E-18	5.320699E-19
6.910000E+03	4.295875E-18	5.366345E-19
6.920000E+03	4.334254E-18	5.413339E-19
6.930000E+03	4.373726E-18	5.461679E-19
6.940000E+03	4.414379E-18	5.511472E-19
6.950000E+03	4.456130E-18	5.562617E-19
6.960000E+03	4.498981E-18	5.615112E-19
6.970000E+03	4.543020E-18	5.669068E-19
6.980000E+03	4.588161E-18	5.724378E-19
6.990000E+03	4.634407E-18	5.781042E-19
7.000000E+03	4.681667E-18	5.838947E-19
7.010000E+03	4.730123E-18	5.898320E-19
7.020000E+03	4.779685E-18	5.959047E-19
7.030000E+03	4.830357E-18	6.021132E-19
7.040000E+03	4.882041E-18	6.084453E-19
7.050000E+03	4.934833E-18	6.149129E-19
7.060000E+03	4.988635E-18	6.215036E-19
7.070000E+03	5.043644E-18	6.282420E-19
7.080000E+03	5.099561E-18	6.350905E-19
7.090000E+03	5.156583E-18	6.420739E-19
7.100000E+03	5.214606E-18	6.491789E-19
7.110000E+03	5.273734E-18	6.564185E-19
7.120000E+03	5.333750E-18	6.637657E-19
7.130000E+03	5.394865E-18	6.712465E-19
7.140000E+03	5.456855E-18	6.788332E-19
7.150000E+03	5.519827E-18	6.865386E-19
7.160000E+03	5.583772E-18	6.943620E-19
7.170000E+03	5.648687E-18	7.023028E-19
7.180000E+03	5.714447E-18	7.103451E-19
7.190000E+03	5.781040E-18	7.184877E-19
7.200000E+03	5.848579E-18	7.267444E-19
7.210000E+03	5.916931E-18	7.350988E-19
7.220000E+03	5.986211E-18	7.435649E-19
7.230000E+03	6.056153E-18	7.521095E-19
7.240000E+03	6.127001E-18	7.607632E-19
7.250000E+03	6.198611E-18	7.695079E-19
7.260000E+03	6.270971E-18	7.783420E-19
7.270000E+03	6.344063E-18	7.872633E-19
7.280000E+03	6.417872E-18	7.962697E-19
7.290000E+03	6.492381E-18	8.053592E-19
7.300000E+03	6.567715E-18	8.145472E-19
7.310000E+03	6.643567E-18	8.237957E-19
7.320000E+03	6.720360E-18	8.331568E-19
7.330000E+03	6.797933E-18	8.426108E-19
7.340000E+03	6.876115E-18	8.521362E-19
7.350000E+03	6.955354E-18	8.617887E-19
7.360000E+03	7.035327E-18	8.715280E-19
7.370000E+03	7.116503E-18	8.814122E-19
7.380000E+03	7.198717E-18	8.914209E-19
7.390000E+03	7.282133E-18	9.015741E-19
7.400000E+03	7.366925E-18	9.118934E-19
7.410000E+03	7.453099E-18	9.223796E-19
7.420000E+03	7.541021E-18	9.330776E-19
7.430000E+03	7.630897E-18	9.440129E-19
7.440000E+03	7.722581E-18	9.551672E-19
7.450000E+03	7.816102E-18	9.665441E-19
7.460000E+03	7.911490E-18	9.781471E-19
7.470000E+03	8.008585E-18	9.899562E-19
7.480000E+03	8.107212E-18	1.001950E-18
7.490000E+03	8.207188E-18	1.014105E-18
7.500000E+03	8.308515E-18	1.026423E-18
7.510000E+03	8.410992E-18	1.038877E-18
7.520000E+03	8.514403E-18	1.051441E-18
7.530000E+03	8.618943E-18	1.064140E-18
7.540000E+03	8.724174E-18	1.076919E-18
7.550000E+03	8.830071E-18	1.089775E-18
7.560000E+03	8.936606E-18	1.102704E-18
7.570000E+03	9.043748E-18	1.115703E-18
7.580000E+03	9.151474E-18	1.128768E-18
7.590000E+03	9.259518E-18	1.141868E-18
7.600000E+03	9.367842E-18	1.154997E-18
7.610000E+03	9.476637E-18	1.168178E-18
7.620000E+03	9.585625E-18	1.181378E-18
7.630000E+03	9.695001E-18	1.194621E-18
7.640000E+03	9.804221E-18	1.207839E-18
7.650000E+03	9.913719E-18	1.221086E-18
7.660000E+03	1.002319E-17	1.234324E-18
7.670000E+03	1.013256E-17	1.247545E-18
7.680000E+03	1.024175E-17	1.260739E-18
7.690000E+03	1.035097E-17	1.273930E-18
7.700000E+03	1.045985E-17	1.287075E-18
7.710000E+03	1.056832E-17	1.300164E-18
7.720000E+03	1.067657E-17	1.313221E-18
7.730000E+03	1.078450E-17	1.326234E-18
7.740000E+03	1.089174E-17	1.339157E-18
7.750000E+03	1.099848E-17	1.352013E-18
7.760000E+03	1.110463E-17	1.364791E-18
