#wls	flux	fluxerr
1.600000E+03	2.389656E-16	5.696446E-17
1.640000E+03	2.468760E-16	5.884940E-17
1.680000E+03	2.544942E-16	6.066461E-17
1.720000E+03	2.617310E-16	6.238886E-17
1.760000E+03	2.685165E-16	6.400546E-17
1.800000E+03	2.747472E-16	6.548973E-17
1.840000E+03	2.803404E-16	6.682200E-17
1.880000E+03	2.852079E-16	6.798123E-17
1.920000E+03	2.892331E-16	6.893962E-17
1.960000E+03	2.923241E-16	6.967531E-17
2.000000E+03	2.943898E-16	7.016657E-17
2.040000E+03	2.953433E-16	7.039267E-17
2.080000E+03	2.950818E-16	7.032918E-17
2.120000E+03	2.935381E-16	6.996007E-17
2.160000E+03	2.906192E-16	6.926319E-17
2.200000E+03	2.862585E-16	6.822267E-17
2.240000E+03	2.803500E-16	6.681329E-17
2.280000E+03	2.728400E-16	6.502228E-17
2.320000E+03	2.638972E-16	6.288984E-17
2.360000E+03	2.537489E-16	6.047018E-17
2.400000E+03	2.425794E-16	5.780721E-17
2.440000E+03	2.305416E-16	5.493743E-17
2.480000E+03	2.177796E-16	5.189516E-17
2.520000E+03	2.044520E-16	4.871821E-17
2.560000E+03	1.907017E-16	4.544067E-17
2.600000E+03	1.766935E-16	4.210180E-17
2.640000E+03	1.625780E-16	3.873748E-17
2.680000E+03	1.484969E-16	3.538151E-17
2.720000E+03	1.346074E-16	3.207133E-17
2.760000E+03	1.210487E-16	2.884011E-17
2.800000E+03	1.079544E-16	2.571969E-17
2.840000E+03	9.544631E-17	2.273908E-17
2.880000E+03	8.363807E-17	1.992533E-17
2.920000E+03	7.264026E-17	1.730480E-17
2.960000E+03	6.255280E-17	1.490127E-17
3.000000E+03	5.343921E-17	1.272985E-17
3.010000E+03	5.131623E-17	1.222404E-17
3.020000E+03	4.925765E-17	1.173358E-17
3.030000E+03	4.726060E-17	1.125778E-17
3.040000E+03	4.532574E-17	1.079680E-17
3.050000E+03	4.345439E-17	1.035095E-17
3.060000E+03	4.164382E-17	9.919591E-18
3.070000E+03	3.989507E-17	9.502963E-18
3.080000E+03	3.820718E-17	9.100835E-18
3.090000E+03	3.657913E-17	8.712969E-18
3.100000E+03	3.500992E-17	8.339123E-18
3.110000E+03	3.349986E-17	7.979373E-18
3.120000E+03	3.204699E-17	7.633250E-18
3.130000E+03	3.065073E-17	7.300614E-18
3.140000E+03	2.930973E-17	6.981148E-18
3.150000E+03	2.802265E-17	6.674529E-18
3.160000E+03	2.678867E-17	6.380562E-18
3.170000E+03	2.560681E-17	6.099013E-18
3.180000E+03	2.447462E-17	5.829300E-18
3.190000E+03	2.339202E-17	5.571401E-18
3.200000E+03	2.235697E-17	5.324832E-18
3.210000E+03	2.136835E-17	5.089324E-18
3.220000E+03	2.042455E-17	4.864496E-18
3.230000E+03	1.952370E-17	4.649900E-18
3.240000E+03	1.866524E-17	4.445405E-18
3.250000E+03	1.784665E-17	4.250408E-18
3.260000E+03	1.706731E-17	4.064762E-18
3.270000E+03	1.632565E-17	3.888092E-18
3.280000E+03	1.561962E-17	3.719911E-18
3.290000E+03	1.494851E-17	3.560049E-18
3.300000E+03	1.431036E-17	3.408040E-18
3.310000E+03	1.370399E-17	3.263603E-18
3.320000E+03	1.312801E-17	3.126405E-18
3.330000E+03	1.258126E-17	2.996169E-18
3.340000E+03	1.206222E-17	2.872535E-18
3.350000E+03	1.156963E-17	2.755202E-18
3.360000E+03	1.110227E-17	2.643878E-18
3.370000E+03	1.065910E-17	2.538320E-18
3.380000E+03	1.023884E-17	2.438216E-18
3.390000E+03	9.840393E-18	2.343310E-18
3.400000E+03	9.462709E-18	2.253349E-18
3.410000E+03	9.104671E-18	2.168069E-18
3.420000E+03	8.765334E-18	2.087243E-18
3.430000E+03	8.443793E-18	2.010656E-18
3.440000E+03	8.139079E-18	1.938077E-18
3.450000E+03	7.850378E-18	1.869313E-18
3.460000E+03	7.576825E-18	1.804157E-18
3.470000E+03	7.317599E-18	1.742413E-18
3.480000E+03	7.071934E-18	1.683900E-18
3.490000E+03	6.839033E-18	1.628427E-18
3.500000E+03	6.618295E-18	1.575851E-18
3.510000E+03	6.409014E-18	1.526005E-18
3.520000E+03	6.210462E-18	1.478713E-18
3.530000E+03	6.021903E-18	1.433802E-18
3.540000E+03	5.842854E-18	1.391156E-18
3.550000E+03	5.672673E-18	1.350622E-18
3.560000E+03	5.510665E-18	1.312035E-18
3.570000E+03	5.356362E-18	1.275283E-18
3.580000E+03	5.209272E-18	1.240250E-18
3.590000E+03	5.068895E-18	1.206815E-18
3.600000E+03	4.934722E-18	1.174858E-18
3.610000E+03	4.806469E-18	1.144310E-18
3.620000E+03	4.683775E-18	1.115087E-18
3.630000E+03	4.566306E-18	1.087109E-18
3.640000E+03	4.453944E-18	1.060346E-18
3.650000E+03	4.346453E-18	1.034744E-18
3.660000E+03	4.243637E-18	1.010256E-18
3.670000E+03	4.145341E-18	9.868437E-19
3.680000E+03	4.051415E-18	9.644723E-19
3.690000E+03	3.961666E-18	9.430958E-19
3.700000E+03	3.876013E-18	9.226948E-19
3.710000E+03	3.794235E-18	9.032168E-19
3.720000E+03	3.716217E-18	8.846341E-19
3.730000E+03	3.641877E-18	8.669271E-19
3.740000E+03	3.570973E-18	8.500388E-19
3.750000E+03	3.503488E-18	8.339644E-19
3.760000E+03	3.439193E-18	8.186499E-19
3.770000E+03	3.378038E-18	8.040829E-19
3.780000E+03	3.319894E-18	7.902329E-19
3.790000E+03	3.264629E-18	7.770685E-19
3.800000E+03	3.212145E-18	7.645665E-19
3.810000E+03	3.162325E-18	7.526986E-19
3.820000E+03	3.115074E-18	7.414426E-19
3.830000E+03	3.070306E-18	7.307777E-19
3.840000E+03	3.027911E-18	7.206780E-19
3.850000E+03	2.987808E-18	7.111238E-19
3.860000E+03	2.949920E-18	7.020969E-19
3.870000E+03	2.914147E-18	6.935738E-19
3.880000E+03	2.880420E-18	6.855376E-19
3.890000E+03	2.848667E-18	6.779716E-19
3.900000E+03	2.818804E-18	6.708553E-19
3.910000E+03	2.790766E-18	6.641736E-19
3.920000E+03	2.764473E-18	6.579073E-19
3.930000E+03	2.739888E-18	6.520477E-19
3.940000E+03	2.716937E-18	6.465770E-19
3.950000E+03	2.695569E-18	6.414830E-19
3.960000E+03	2.675692E-18	6.367440E-19
3.970000E+03	2.657300E-18	6.323583E-19
3.980000E+03	2.640307E-18	6.283058E-19
3.990000E+03	2.624674E-18	6.245768E-19
4.000000E+03	2.610335E-18	6.211561E-19
4.010000E+03	2.597275E-18	6.180394E-19
4.020000E+03	2.585417E-18	6.152090E-19
4.030000E+03	2.574746E-18	6.126610E-19
4.040000E+03	2.565189E-18	6.103780E-19
4.050000E+03	2.556734E-18	6.083575E-19
4.060000E+03	2.549312E-18	6.065826E-19
4.070000E+03	2.542896E-18	6.050471E-19
4.080000E+03	2.537458E-18	6.037442E-19
4.090000E+03	2.532973E-18	6.026681E-19
4.100000E+03	2.529377E-18	6.018036E-19
4.110000E+03	2.526649E-18	6.011454E-19
4.120000E+03	2.524748E-18	6.006841E-19
4.130000E+03	2.523652E-18	6.004142E-19
4.140000E+03	2.523343E-18	6.003314E-19
4.150000E+03	2.523764E-18	6.004224E-19
4.160000E+03	2.524920E-18	6.006879E-19
4.170000E+03	2.526751E-18	6.011142E-19
4.180000E+03	2.529246E-18	6.016985E-19
4.190000E+03	2.532391E-18	6.024370E-19
4.200000E+03	2.536133E-18	6.033175E-19
4.210000E+03	2.540460E-18	6.043373E-19
4.220000E+03	2.545342E-18	6.054889E-19
4.230000E+03	2.550786E-18	6.067743E-19
4.240000E+03	2.556726E-18	6.081772E-19
4.250000E+03	2.563171E-18	6.097005E-19
4.260000E+03	2.570074E-18	6.113323E-19
4.270000E+03	2.577448E-18	6.130762E-19
4.280000E+03	2.585224E-18	6.149155E-19
4.290000E+03	2.593397E-18	6.168494E-19
4.300000E+03	2.601961E-18	6.188758E-19
4.310000E+03	2.610849E-18	6.209793E-19
4.320000E+03	2.620077E-18	6.231636E-19
4.330000E+03	2.629559E-18	6.254080E-19
4.340000E+03	2.639309E-18	6.277162E-19
4.350000E+03	2.649221E-18	6.300625E-19
4.360000E+03	2.659289E-18	6.324459E-19
4.370000E+03	2.669571E-18	6.348801E-19
4.380000E+03	2.680067E-18	6.373651E-19
4.390000E+03	2.690796E-18	6.399052E-19
4.400000E+03	2.701755E-18	6.425000E-19
4.410000E+03	2.712906E-18	6.451402E-19
4.420000E+03	2.724292E-18	6.478362E-19
4.430000E+03	2.735873E-18	6.505782E-19
4.440000E+03	2.747650E-18	6.533668E-19
4.450000E+03	2.759609E-18	6.561985E-19
4.460000E+03	2.771752E-18	6.590737E-19
4.470000E+03	2.784044E-18	6.619843E-19
4.480000E+03	2.796511E-18	6.649362E-19
4.490000E+03	2.809119E-18	6.679215E-19
4.500000E+03	2.821855E-18	6.709371E-19
4.510000E+03	2.834751E-18	6.739904E-19
4.520000E+03	2.847749E-18	6.770678E-19
4.530000E+03	2.860863E-18	6.801726E-19
4.540000E+03	2.874106E-18	6.833079E-19
4.550000E+03	2.887446E-18	6.864661E-19
4.560000E+03	2.900901E-18	6.896513E-19
4.570000E+03	2.914440E-18	6.928563E-19
4.580000E+03	2.928080E-18	6.960853E-19
4.590000E+03	2.941819E-18	6.993373E-19
4.600000E+03	2.955652E-18	7.026116E-19
4.610000E+03	2.969550E-18	7.059013E-19
4.620000E+03	2.983564E-18	7.092182E-19
4.630000E+03	2.997643E-18	7.125502E-19
4.640000E+03	3.011808E-18	7.159027E-19
4.650000E+03	3.026064E-18	7.192763E-19
4.660000E+03	3.040383E-18	7.226650E-19
4.670000E+03	3.054820E-18	7.260813E-19
4.680000E+03	3.069326E-18	7.295137E-19
4.690000E+03	3.083931E-18	7.329695E-19
4.700000E+03	3.098690E-18	7.364615E-19
4.710000E+03	3.113584E-18	7.399855E-19
4.720000E+03	3.128644E-18	7.435487E-19
4.730000E+03	3.143906E-18	7.471598E-19
4.740000E+03	3.159379E-18	7.508204E-19
4.750000E+03	3.175070E-18	7.545329E-19
4.760000E+03	3.191044E-18	7.583123E-19
4.770000E+03	3.207256E-18	7.621478E-19
4.780000E+03	3.223771E-18	7.660552E-19
4.790000E+03	3.240605E-18	7.700383E-19
4.800000E+03	3.257738E-18	7.740918E-19
4.810000E+03	3.275241E-18	7.782332E-19
4.820000E+03	3.293100E-18	7.824588E-19
4.830000E+03	3.311329E-18	7.867719E-19
4.840000E+03	3.329939E-18	7.911753E-19
4.850000E+03	3.348945E-18	7.956726E-19
4.860000E+03	3.368424E-18	8.002819E-19
4.870000E+03	3.388300E-18	8.049851E-19
4.880000E+03	3.408650E-18	8.098006E-19
4.890000E+03	3.429459E-18	8.147248E-19
4.900000E+03	3.450773E-18	8.197685E-19
4.910000E+03	3.472579E-18	8.249288E-19
4.920000E+03	3.494889E-18	8.302086E-19
4.930000E+03	3.517756E-18	8.356202E-19
4.940000E+03	3.541130E-18	8.411520E-19
4.950000E+03	3.565058E-18	8.468148E-19
4.960000E+03	3.589558E-18	8.526132E-19
4.970000E+03	3.614646E-18	8.585507E-19
4.980000E+03	3.640301E-18	8.646227E-19
4.990000E+03	3.666541E-18	8.708329E-19
5.000000E+03	3.693414E-18	8.771932E-19
5.010000E+03	3.720865E-18	8.836902E-19
5.020000E+03	3.748979E-18	8.903442E-19
5.030000E+03	3.777698E-18	8.971413E-19
5.040000E+03	3.807033E-18	9.040846E-19
5.050000E+03	3.837035E-18	9.111855E-19
5.060000E+03	3.867680E-18	9.184385E-19
5.070000E+03	3.898976E-18	9.258456E-19
5.080000E+03	3.930900E-18	9.334013E-19
5.090000E+03	3.963495E-18	9.411160E-19
5.100000E+03	3.996775E-18	9.489925E-19
5.110000E+03	4.030671E-18	9.570148E-19
5.120000E+03	4.065227E-18	9.651932E-19
5.130000E+03	4.100452E-18	9.735298E-19
5.140000E+03	4.136351E-18	9.820258E-19
5.150000E+03	4.172894E-18	9.906740E-19
5.160000E+03	4.210080E-18	9.994742E-19
5.170000E+03	4.247875E-18	1.008419E-18
5.180000E+03	4.286364E-18	1.017527E-18
5.190000E+03	4.325466E-18	1.026780E-18
5.200000E+03	4.365181E-18	1.036178E-18
5.210000E+03	4.405509E-18	1.045720E-18
5.220000E+03	4.446491E-18	1.055418E-18
5.230000E+03	4.488039E-18	1.065249E-18
5.240000E+03	4.530148E-18	1.075212E-18
5.250000E+03	4.572901E-18	1.085327E-18
5.260000E+03	4.616156E-18	1.095561E-18
5.270000E+03	4.659994E-18	1.105932E-18
5.280000E+03	4.704360E-18	1.116428E-18
5.290000E+03	4.749241E-18	1.127045E-18
5.300000E+03	4.794669E-18	1.137791E-18
5.310000E+03	4.840533E-18	1.148639E-18
5.320000E+03	4.886861E-18	1.159597E-18
5.330000E+03	4.933631E-18	1.170659E-18
5.340000E+03	4.980822E-18	1.181820E-18
5.350000E+03	5.028454E-18	1.193085E-18
5.360000E+03	5.076400E-18	1.204423E-18
5.370000E+03	5.124679E-18	1.215839E-18
5.380000E+03	5.173255E-18	1.227325E-18
5.390000E+03	5.222038E-18	1.238859E-18
5.400000E+03	5.271091E-18	1.250456E-18
5.410000E+03	5.320320E-18	1.262094E-18
5.420000E+03	5.369620E-18	1.273748E-18
5.430000E+03	5.418943E-18	1.285406E-18
5.440000E+03	5.468285E-18	1.297068E-18
5.450000E+03	5.517481E-18	1.308694E-18
5.460000E+03	5.566520E-18	1.320281E-18
5.470000E+03	5.615337E-18	1.331815E-18
5.480000E+03	5.663750E-18	1.343253E-18
5.490000E+03	5.711682E-18	1.354575E-18
5.500000E+03	5.759113E-18	1.365777E-18
5.510000E+03	5.805904E-18	1.376827E-18
5.520000E+03	5.851911E-18	1.387689E-18
5.530000E+03	5.896987E-18	1.398330E-18
5.540000E+03	5.941161E-18	1.408756E-18
5.550000E+03	5.984158E-18	1.418902E-18
5.560000E+03	6.025943E-18	1.428760E-18
5.570000E+03	6.066357E-18	1.438291E-18
5.580000E+03	6.105302E-18	1.447473E-18
5.590000E+03	6.142678E-18	1.456283E-18
5.600000E+03	6.178326E-18	1.464682E-18
5.610000E+03	6.212209E-18	1.472661E-18
5.620000E+03	6.244170E-18	1.480184E-18
5.630000E+03	6.274048E-18	1.487212E-18
5.640000E+03	6.301883E-18	1.493756E-18
5.650000E+03	6.327522E-18	1.499778E-18
5.660000E+03	6.350817E-18	1.505243E-18
5.670000E+03	6.371754E-18	1.510150E-18
5.680000E+03	6.390329E-18	1.514495E-18
5.690000E+03	6.406341E-18	1.518233E-18
5.700000E+03	6.419800E-18	1.521365E-18
5.710000E+03	6.430720E-18	1.523895E-18
5.720000E+03	6.438988E-18	1.525796E-18
5.730000E+03	6.444636E-18	1.527075E-18
5.740000E+03	6.447569E-18	1.527711E-18
5.750000E+03	6.447835E-18	1.527715E-18
5.760000E+03	6.445421E-18	1.527083E-18
5.770000E+03	6.440398E-18	1.525833E-18
5.780000E+03	6.432633E-18	1.523934E-18
5.790000E+03	6.422348E-18	1.521437E-18
5.800000E+03	6.409431E-18	1.518316E-18
5.810000E+03	6.393983E-18	1.514596E-18
5.820000E+03	6.376045E-18	1.510286E-18
5.830000E+03	6.355668E-18	1.505398E-18
5.840000E+03	6.332977E-18	1.499962E-18
5.850000E+03	6.308036E-18	1.493994E-18
5.860000E+03	6.280918E-18	1.487510E-18
5.870000E+03	6.251630E-18	1.480513E-18
5.880000E+03	6.220393E-18	1.473054E-18
5.890000E+03	6.187228E-18	1.465139E-18
5.900000E+03	6.152295E-18	1.456805E-18
5.910000E+03	6.115624E-18	1.448061E-18
5.920000E+03	6.077383E-18	1.438945E-18
5.930000E+03	6.037673E-18	1.429482E-18
5.940000E+03	5.996601E-18	1.419697E-18
5.950000E+03	5.954270E-18	1.409614E-18
5.960000E+03	5.910789E-18	1.399260E-18
5.970000E+03	5.866330E-18	1.388675E-18
5.980000E+03	5.820866E-18	1.377852E-18
5.990000E+03	5.774634E-18	1.366848E-18
6.000000E+03	5.727671E-18	1.355672E-18
6.010000E+03	5.680078E-18	1.344348E-18
6.020000E+03	5.632021E-18	1.332915E-18
6.030000E+03	5.583464E-18	1.321364E-18
6.040000E+03	5.534632E-18	1.309748E-18
6.050000E+03	5.485485E-18	1.298059E-18
6.060000E+03	5.436173E-18	1.286331E-18
6.070000E+03	5.386782E-18	1.274586E-18
6.080000E+03	5.337323E-18	1.262825E-18
6.090000E+03	5.287877E-18	1.251068E-18
6.100000E+03	5.238515E-18	1.239332E-18
6.110000E+03	5.189304E-18	1.227633E-18
6.120000E+03	5.140311E-18	1.215985E-18
6.130000E+03	5.091595E-18	1.204404E-18
6.140000E+03	5.043215E-18	1.192904E-18
6.150000E+03	4.995222E-18	1.181496E-18
6.160000E+03	4.947731E-18	1.170207E-18
6.170000E+03	4.900847E-18	1.159062E-18
6.180000E+03	4.854674E-18	1.148087E-18
6.190000E+03	4.809247E-18	1.137289E-18
6.200000E+03	4.764604E-18	1.126677E-18
6.210000E+03	4.720707E-18	1.116242E-18
6.220000E+03	4.677589E-18	1.105992E-18
6.230000E+03	4.635272E-18	1.095933E-18
6.240000E+03	4.593716E-18	1.086054E-18
6.250000E+03	4.553004E-18	1.076375E-18
6.260000E+03	4.513275E-18	1.066929E-18
6.270000E+03	4.474480E-18	1.057705E-18
6.280000E+03	4.436691E-18	1.048719E-18
6.290000E+03	4.400043E-18	1.040004E-18
6.300000E+03	4.364477E-18	1.031545E-18
6.310000E+03	4.330185E-18	1.023388E-18
6.320000E+03	4.297227E-18	1.015546E-18
6.330000E+03	4.265547E-18	1.008007E-18
6.340000E+03	4.235325E-18	1.000814E-18
6.350000E+03	4.206622E-18	9.939794E-19
6.360000E+03	4.179440E-18	9.875049E-19
6.370000E+03	4.153834E-18	9.814033E-19
6.380000E+03	4.129985E-18	9.757171E-19
6.390000E+03	4.107833E-18	9.704323E-19
6.400000E+03	4.087436E-18	9.655623E-19
6.410000E+03	4.068913E-18	9.611354E-19
6.420000E+03	4.052086E-18	9.571092E-19
6.430000E+03	4.036831E-18	9.534544E-19
6.440000E+03	4.023090E-18	9.501577E-19
6.450000E+03	4.010801E-18	9.472038E-19
6.460000E+03	3.999843E-18	9.445643E-19
6.470000E+03	3.990215E-18	9.422390E-19
6.480000E+03	3.981857E-18	9.402137E-19
6.490000E+03	3.974768E-18	9.384880E-19
6.500000E+03	3.968886E-18	9.370472E-19
6.510000E+03	3.964211E-18	9.358912E-19
6.520000E+03	3.960742E-18	9.350201E-19
6.530000E+03	3.958419E-18	9.344190E-19
6.540000E+03	3.957299E-18	9.341020E-19
6.550000E+03	3.957386E-18	9.340698E-19
6.560000E+03	3.958617E-18	9.343071E-19
6.570000E+03	3.961053E-18	9.348288E-19
6.580000E+03	3.964633E-18	9.356201E-19
6.590000E+03	3.969356E-18	9.366809E-19
6.600000E+03	3.975288E-18	9.380266E-19
6.610000E+03	3.982300E-18	9.396267E-19
6.620000E+03	3.990590E-18	9.415279E-19
6.630000E+03	3.999961E-18	9.436838E-19
6.640000E+03	4.010548E-18	9.461260E-19
6.650000E+03	4.022286E-18	9.488393E-19
6.660000E+03	4.035179E-18	9.518245E-19
6.670000E+03	4.049293E-18	9.550973E-19
6.680000E+03	4.064569E-18	9.586433E-19
6.690000E+03	4.081005E-18	9.624624E-19
6.700000E+03	4.098608E-18	9.665559E-19
6.710000E+03	4.117449E-18	9.709407E-19
6.720000E+03	4.137394E-18	9.755850E-19
6.730000E+03	4.158585E-18	9.805224E-19
6.740000E+03	4.180956E-18	9.857372E-19
6.750000E+03	4.204514E-18	9.912311E-19
6.760000E+03	4.229262E-18	9.970044E-19
6.770000E+03	4.255204E-18	1.003058E-18
6.780000E+03	4.282423E-18	1.009412E-18
6.790000E+03	4.310771E-18	1.016032E-18
6.800000E+03	4.340330E-18	1.022935E-18
6.810000E+03	4.371105E-18	1.030124E-18
6.820000E+03	4.403101E-18	1.037600E-18
6.830000E+03	4.436325E-18	1.045363E-18
6.840000E+03	4.470781E-18	1.053416E-18
6.850000E+03	4.506477E-18	1.061760E-18
6.860000E+03	4.543336E-18	1.070377E-18
6.870000E+03	4.581442E-18	1.079286E-18
6.880000E+03	4.620806E-18	1.088489E-18
6.890000E+03	4.661346E-18	1.097969E-18
6.900000E+03	4.703150E-18	1.107745E-18
6.910000E+03	4.746228E-18	1.117819E-18
6.920000E+03	4.790496E-18	1.128173E-18
6.930000E+03	4.835954E-18	1.138804E-18
6.940000E+03	4.882700E-18	1.149738E-18
6.950000E+03	4.930646E-18	1.160953E-18
6.960000E+03	4.979793E-18	1.172448E-18
6.970000E+03	5.030241E-18	1.184248E-18
6.980000E+03	5.081900E-18	1.196331E-18
6.990000E+03	5.134768E-18	1.208698E-18
7.000000E+03	5.188749E-18	1.221324E-18
7.010000E+03	5.244046E-18	1.234258E-18
7.020000E+03	5.300557E-18	1.247476E-18
7.030000E+03	5.358288E-18	1.260979E-18
7.040000E+03	5.417132E-18	1.274742E-18
7.050000E+03	5.477193E-18	1.288789E-18
7.060000E+03	5.538361E-18	1.303095E-18
7.070000E+03	5.600858E-18	1.317711E-18
7.080000E+03	5.664345E-18	1.332558E-18
7.090000E+03	5.729046E-18	1.347688E-18
7.100000E+03	5.794841E-18	1.363073E-18
7.110000E+03	5.861847E-18	1.378741E-18
7.120000E+03	5.929816E-18	1.394633E-18
7.130000E+03	5.998985E-18	1.410804E-18
7.140000E+03	6.069102E-18	1.427197E-18
7.150000E+03	6.140281E-18	1.443836E-18
7.160000E+03	6.212514E-18	1.460721E-18
7.170000E+03	6.285789E-18	1.477848E-18
7.180000E+03	6.359966E-18	1.495185E-18
7.190000E+03	6.435029E-18	1.512727E-18
7.200000E+03	6.511098E-18	1.530503E-18
7.210000E+03	6.588021E-18	1.548477E-18
7.220000E+03	6.665922E-18	1.566679E-18
7.230000E+03	6.744499E-18	1.585036E-18
7.240000E+03	6.824019E-18	1.603612E-18
7.250000E+03	6.904315E-18	1.622368E-18
7.260000E+03	6.985368E-18	1.641299E-18
7.270000E+03	7.067153E-18	1.660399E-18
7.280000E+03	7.149645E-18	1.679662E-18
7.290000E+03	7.232819E-18	1.699083E-18
7.300000E+03	7.316809E-18	1.718692E-18
7.310000E+03	7.401265E-18	1.738408E-18
7.320000E+03	7.486652E-18	1.758339E-18
7.330000E+03	7.572786E-18	1.778443E-18
7.340000E+03	7.659470E-18	1.798673E-18
7.350000E+03	7.747197E-18	1.819145E-18
7.360000E+03	7.835603E-18	1.839773E-18
7.370000E+03	7.925205E-18	1.860679E-18
7.380000E+03	8.015818E-18	1.881819E-18
7.390000E+03	8.107618E-18	1.903234E-18
7.400000E+03	8.200794E-18	1.924970E-18
7.410000E+03	8.295353E-18	1.947026E-18
7.420000E+03	8.391694E-18	1.969498E-18
7.430000E+03	8.490043E-18	1.992437E-18
7.440000E+03	8.590234E-18	2.015805E-18
7.450000E+03	8.692293E-18	2.039608E-18
7.460000E+03	8.796248E-18	2.063852E-18
7.470000E+03	8.901914E-18	2.088494E-18
7.480000E+03	9.009091E-18	2.113487E-18
7.490000E+03	9.117566E-18	2.138781E-18
7.500000E+03	9.227340E-18	2.164376E-18
7.510000E+03	9.338176E-18	2.190216E-18
7.520000E+03	9.449834E-18	2.216245E-18
7.530000E+03	9.562517E-18	2.242510E-18
7.540000E+03	9.675736E-18	2.268897E-18
7.550000E+03	9.789446E-18	2.295396E-18
7.560000E+03	9.903608E-18	2.321996E-18
7.570000E+03	1.001818E-17	2.348688E-18
7.580000E+03	1.013310E-17	2.375461E-18
7.590000E+03	1.024809E-17	2.402243E-18
7.600000E+03	1.036307E-17	2.429020E-18
7.610000E+03	1.047825E-17	2.455840E-18
7.620000E+03	1.059330E-17	2.482625E-18
7.630000E+03	1.070843E-17	2.509425E-18
7.640000E+03	1.082302E-17	2.536096E-18
7.650000E+03	1.093756E-17	2.562750E-18
7.660000E+03	1.105169E-17	2.589304E-18
7.670000E+03	1.116533E-17	2.615742E-18
7.680000E+03	1.127842E-17	2.642043E-18
7.690000E+03	1.139114E-17	2.668258E-18
7.700000E+03	1.150315E-17	2.694300E-18
7.710000E+03	1.161433E-17	2.720147E-18
7.720000E+03	1.172493E-17	2.745851E-18
7.730000E+03	1.183485E-17	2.771394E-18
7.740000E+03	1.194369E-17	2.796682E-18
7.750000E+03	1.205169E-17	2.821767E-18
7.760000E+03	1.215875E-17	2.846631E-18
