#wls	flux	fluxerr
1.600000E+03	1.250585E-16	9.201924E-18
1.640000E+03	1.292051E-16	9.506883E-18
1.680000E+03	1.332201E-16	9.802150E-18
1.720000E+03	1.370429E-16	1.008326E-17
1.760000E+03	1.406611E-16	1.034931E-17
1.800000E+03	1.440070E-16	1.059531E-17
1.840000E+03	1.470358E-16	1.081796E-17
1.880000E+03	1.497253E-16	1.101565E-17
1.920000E+03	1.520015E-16	1.118291E-17
1.960000E+03	1.538273E-16	1.131703E-17
2.000000E+03	1.551429E-16	1.141359E-17
2.040000E+03	1.559141E-16	1.147011E-17
2.080000E+03	1.560671E-16	1.148114E-17
2.120000E+03	1.555503E-16	1.144289E-17
2.160000E+03	1.543139E-16	1.135170E-17
2.200000E+03	1.522796E-16	1.120182E-17
2.240000E+03	1.493897E-16	1.098900E-17
2.280000E+03	1.456504E-16	1.071370E-17
2.320000E+03	1.411217E-16	1.038035E-17
2.360000E+03	1.359520E-16	9.999862E-18
2.400000E+03	1.302652E-16	9.581350E-18
2.440000E+03	1.241701E-16	9.132821E-18
2.480000E+03	1.177785E-16	8.662511E-18
2.520000E+03	1.111623E-16	8.175693E-18
2.560000E+03	1.044016E-16	7.678271E-18
2.600000E+03	9.756496E-17	7.175281E-18
2.640000E+03	9.072218E-17	6.671865E-18
2.680000E+03	8.393052E-17	6.172233E-18
2.720000E+03	7.724661E-17	5.680547E-18
2.760000E+03	7.072259E-17	5.200643E-18
2.800000E+03	6.440609E-17	4.736022E-18
2.840000E+03	5.834144E-17	4.289945E-18
2.880000E+03	5.257081E-17	3.865510E-18
2.920000E+03	4.713080E-17	3.465408E-18
2.960000E+03	4.205230E-17	3.091907E-18
3.000000E+03	3.735712E-17	2.746610E-18
3.010000E+03	3.624580E-17	2.664883E-18
3.020000E+03	3.515848E-17	2.584920E-18
3.030000E+03	3.409661E-17	2.506830E-18
3.040000E+03	3.305927E-17	2.430545E-18
3.050000E+03	3.204701E-17	2.356104E-18
3.060000E+03	3.106029E-17	2.283543E-18
3.070000E+03	3.009753E-17	2.212744E-18
3.080000E+03	2.916044E-17	2.143833E-18
3.090000E+03	2.824749E-17	2.076698E-18
3.100000E+03	2.735958E-17	2.011405E-18
3.110000E+03	2.649586E-17	1.947892E-18
3.120000E+03	2.565608E-17	1.886139E-18
3.130000E+03	2.484097E-17	1.826200E-18
3.140000E+03	2.404923E-17	1.767981E-18
3.150000E+03	2.328194E-17	1.711561E-18
3.160000E+03	2.253746E-17	1.656817E-18
3.170000E+03	2.181676E-17	1.603823E-18
3.180000E+03	2.111868E-17	1.552492E-18
3.190000E+03	2.044366E-17	1.502857E-18
3.200000E+03	1.979096E-17	1.454864E-18
3.210000E+03	1.916057E-17	1.408512E-18
3.220000E+03	1.855209E-17	1.363771E-18
3.230000E+03	1.796514E-17	1.320613E-18
3.240000E+03	1.739899E-17	1.278985E-18
3.250000E+03	1.685385E-17	1.238902E-18
3.260000E+03	1.632899E-17	1.200310E-18
3.270000E+03	1.582421E-17	1.163196E-18
3.280000E+03	1.533882E-17	1.127506E-18
3.290000E+03	1.487234E-17	1.093208E-18
3.300000E+03	1.442456E-17	1.060284E-18
3.310000E+03	1.399476E-17	1.028683E-18
3.320000E+03	1.358266E-17	9.983835E-19
3.330000E+03	1.318776E-17	9.693486E-19
3.340000E+03	1.280920E-17	9.415153E-19
3.350000E+03	1.244686E-17	9.148743E-19
3.360000E+03	1.210008E-17	8.893774E-19
3.370000E+03	1.176836E-17	8.649882E-19
3.380000E+03	1.145125E-17	8.416730E-19
3.390000E+03	1.114796E-17	8.193742E-19
3.400000E+03	1.085836E-17	7.980816E-19
3.410000E+03	1.058184E-17	7.777508E-19
3.420000E+03	1.031785E-17	7.583410E-19
3.430000E+03	1.006596E-17	7.398213E-19
3.440000E+03	9.825779E-18	7.221625E-19
3.450000E+03	9.596676E-18	7.053181E-19
3.460000E+03	9.378401E-18	6.892697E-19
3.470000E+03	9.170382E-18	6.739754E-19
3.480000E+03	8.972279E-18	6.594100E-19
3.490000E+03	8.783673E-18	6.455430E-19
3.500000E+03	8.604165E-18	6.323447E-19
3.510000E+03	8.433375E-18	6.197874E-19
3.520000E+03	8.270947E-18	6.078448E-19
3.530000E+03	8.116454E-18	5.964856E-19
3.540000E+03	7.969494E-18	5.856801E-19
3.550000E+03	7.829780E-18	5.754074E-19
3.560000E+03	7.696957E-18	5.656412E-19
3.570000E+03	7.570770E-18	5.563629E-19
3.580000E+03	7.450824E-18	5.475434E-19
3.590000E+03	7.336901E-18	5.391666E-19
3.600000E+03	7.228718E-18	5.312118E-19
3.610000E+03	7.126155E-18	5.236700E-19
3.620000E+03	7.028879E-18	5.165170E-19
3.630000E+03	6.936719E-18	5.097400E-19
3.640000E+03	6.849309E-18	5.033121E-19
3.650000E+03	6.766503E-18	4.972228E-19
3.660000E+03	6.688096E-18	4.914567E-19
3.670000E+03	6.613893E-18	4.859996E-19
3.680000E+03	6.543768E-18	4.808423E-19
3.690000E+03	6.477598E-18	4.759757E-19
3.700000E+03	6.415203E-18	4.713866E-19
3.710000E+03	6.356530E-18	4.670710E-19
3.720000E+03	6.301405E-18	4.630163E-19
3.730000E+03	6.249832E-18	4.592225E-19
3.740000E+03	6.201696E-18	4.556813E-19
3.750000E+03	6.156888E-18	4.523848E-19
3.760000E+03	6.115354E-18	4.493289E-19
3.770000E+03	6.077091E-18	4.465133E-19
3.780000E+03	6.041989E-18	4.439301E-19
3.790000E+03	6.010045E-18	4.415789E-19
3.800000E+03	5.981151E-18	4.394519E-19
3.810000E+03	5.955254E-18	4.375451E-19
3.820000E+03	5.932348E-18	4.358580E-19
3.830000E+03	5.912429E-18	4.343905E-19
3.840000E+03	5.895394E-18	4.331348E-19
3.850000E+03	5.881286E-18	4.320943E-19
3.860000E+03	5.869954E-18	4.312577E-19
3.870000E+03	5.861492E-18	4.306319E-19
3.880000E+03	5.855750E-18	4.302060E-19
3.890000E+03	5.852818E-18	4.299865E-19
3.900000E+03	5.852597E-18	4.299662E-19
3.910000E+03	5.855082E-18	4.301447E-19
3.920000E+03	5.860219E-18	4.305181E-19
3.930000E+03	5.868006E-18	4.310860E-19
3.940000E+03	5.878388E-18	4.318446E-19
3.950000E+03	5.891407E-18	4.327970E-19
3.960000E+03	5.906966E-18	4.339358E-19
3.970000E+03	5.925059E-18	4.352608E-19
3.980000E+03	5.945634E-18	4.367682E-19
3.990000E+03	5.968735E-18	4.384610E-19
4.000000E+03	5.994310E-18	4.403355E-19
4.010000E+03	6.022308E-18	4.423880E-19
4.020000E+03	6.052681E-18	4.446149E-19
4.030000E+03	6.085472E-18	4.470194E-19
4.040000E+03	6.120583E-18	4.495943E-19
4.050000E+03	6.158065E-18	4.523432E-19
4.060000E+03	6.197820E-18	4.552591E-19
4.070000E+03	6.239848E-18	4.583419E-19
4.080000E+03	6.284154E-18	4.615920E-19
4.090000E+03	6.330691E-18	4.650058E-19
4.100000E+03	6.379415E-18	4.685803E-19
4.110000E+03	6.430281E-18	4.723119E-19
4.120000E+03	6.483344E-18	4.762049E-19
4.130000E+03	6.538512E-18	4.802525E-19
4.140000E+03	6.595792E-18	4.844550E-19
4.150000E+03	6.655090E-18	4.888058E-19
4.160000E+03	6.716415E-18	4.933053E-19
4.170000E+03	6.779775E-18	4.979542E-19
4.180000E+03	6.845077E-18	5.027457E-19
4.190000E+03	6.912331E-18	5.076803E-19
4.200000E+03	6.981439E-18	5.127511E-19
4.210000E+03	7.052412E-18	5.179588E-19
4.220000E+03	7.125150E-18	5.232960E-19
4.230000E+03	7.199664E-18	5.287636E-19
4.240000E+03	7.275852E-18	5.343540E-19
4.250000E+03	7.353663E-18	5.400635E-19
4.260000E+03	7.432989E-18	5.458841E-19
4.270000E+03	7.513836E-18	5.518163E-19
4.280000E+03	7.596090E-18	5.578517E-19
4.290000E+03	7.679690E-18	5.639860E-19
4.300000E+03	7.764514E-18	5.702100E-19
4.310000E+03	7.850435E-18	5.765144E-19
4.320000E+03	7.937377E-18	5.828937E-19
4.330000E+03	8.025265E-18	5.893423E-19
4.340000E+03	8.113955E-18	5.958497E-19
4.350000E+03	8.203358E-18	6.024094E-19
4.360000E+03	8.293319E-18	6.090099E-19
4.370000E+03	8.383806E-18	6.156490E-19
4.380000E+03	8.474720E-18	6.223193E-19
4.390000E+03	8.566167E-18	6.290286E-19
4.400000E+03	8.658049E-18	6.357697E-19
4.410000E+03	8.750407E-18	6.425457E-19
4.420000E+03	8.843217E-18	6.493547E-19
4.430000E+03	8.936601E-18	6.562058E-19
4.440000E+03	9.030467E-18	6.630922E-19
4.450000E+03	9.124799E-18	6.700126E-19
4.460000E+03	9.219657E-18	6.769716E-19
4.470000E+03	9.315019E-18	6.839675E-19
4.480000E+03	9.410894E-18	6.910009E-19
4.490000E+03	9.507183E-18	6.980646E-19
4.500000E+03	9.603967E-18	7.051645E-19
4.510000E+03	9.701154E-18	7.122940E-19
4.520000E+03	9.798755E-18	7.194536E-19
4.530000E+03	9.896759E-18	7.266428E-19
4.540000E+03	9.995010E-18	7.338500E-19
4.550000E+03	1.009360E-17	7.410820E-19
4.560000E+03	1.019245E-17	7.483327E-19
4.570000E+03	1.029157E-17	7.556035E-19
4.580000E+03	1.039079E-17	7.628816E-19
4.590000E+03	1.049024E-17	7.701763E-19
4.600000E+03	1.058976E-17	7.774756E-19
4.610000E+03	1.068946E-17	7.847881E-19
4.620000E+03	1.078919E-17	7.921032E-19
4.630000E+03	1.088899E-17	7.994235E-19
4.640000E+03	1.098882E-17	8.067450E-19
4.650000E+03	1.108882E-17	8.140791E-19
4.660000E+03	1.118886E-17	8.214164E-19
4.670000E+03	1.128910E-17	8.287684E-19
4.680000E+03	1.138952E-17	8.361330E-19
4.690000E+03	1.149009E-17	8.435089E-19
4.700000E+03	1.159101E-17	8.509102E-19
4.710000E+03	1.169217E-17	8.583289E-19
4.720000E+03	1.179366E-17	8.657716E-19
4.730000E+03	1.189539E-17	8.732317E-19
4.740000E+03	1.199745E-17	8.807159E-19
4.750000E+03	1.209962E-17	8.882087E-19
4.760000E+03	1.220203E-17	8.957182E-19
4.770000E+03	1.230457E-17	9.032376E-19
4.780000E+03	1.240735E-17	9.107743E-19
4.790000E+03	1.251027E-17	9.183216E-19
4.800000E+03	1.261334E-17	9.258795E-19
4.810000E+03	1.271657E-17	9.334486E-19
4.820000E+03	1.281996E-17	9.410298E-19
4.830000E+03	1.292353E-17	9.486235E-19
4.840000E+03	1.302715E-17	9.562210E-19
4.850000E+03	1.313095E-17	9.638319E-19
4.860000E+03	1.323494E-17	9.714567E-19
4.870000E+03	1.333901E-17	9.790867E-19
4.880000E+03	1.344315E-17	9.867218E-19
4.890000E+03	1.354749E-17	9.943716E-19
4.900000E+03	1.365177E-17	1.002017E-18
4.910000E+03	1.375624E-17	1.009676E-18
4.920000E+03	1.386077E-17	1.017339E-18
4.930000E+03	1.396521E-17	1.024996E-18
4.940000E+03	1.406965E-17	1.032652E-18
4.950000E+03	1.417410E-17	1.040309E-18
4.960000E+03	1.427835E-17	1.047951E-18
4.970000E+03	1.438252E-17	1.055588E-18
4.980000E+03	1.448627E-17	1.063193E-18
4.990000E+03	1.458982E-17	1.070784E-18
5.000000E+03	1.469296E-17	1.078343E-18
5.010000E+03	1.479547E-17	1.085857E-18
5.020000E+03	1.489739E-17	1.093328E-18
5.030000E+03	1.499849E-17	1.100738E-18
5.040000E+03	1.509867E-17	1.108080E-18
5.050000E+03	1.519777E-17	1.115343E-18
5.060000E+03	1.529569E-17	1.122519E-18
5.070000E+03	1.539213E-17	1.129587E-18
5.080000E+03	1.548711E-17	1.136546E-18
5.090000E+03	1.558031E-17	1.143376E-18
5.100000E+03	1.567157E-17	1.150063E-18
5.110000E+03	1.576057E-17	1.156583E-18
5.120000E+03	1.584729E-17	1.162937E-18
5.130000E+03	1.593124E-17	1.169087E-18
5.140000E+03	1.601256E-17	1.175044E-18
5.150000E+03	1.609076E-17	1.180772E-18
5.160000E+03	1.616580E-17	1.186267E-18
5.170000E+03	1.623734E-17	1.191506E-18
5.180000E+03	1.630504E-17	1.196463E-18
5.190000E+03	1.636886E-17	1.201135E-18
5.200000E+03	1.642846E-17	1.205497E-18
5.210000E+03	1.648363E-17	1.209535E-18
5.220000E+03	1.653418E-17	1.213233E-18
5.230000E+03	1.657974E-17	1.216565E-18
5.240000E+03	1.662013E-17	1.219517E-18
5.250000E+03	1.665497E-17	1.222062E-18
5.260000E+03	1.668423E-17	1.224198E-18
5.270000E+03	1.670754E-17	1.225897E-18
5.280000E+03	1.672471E-17	1.227145E-18
5.290000E+03	1.673556E-17	1.227929E-18
5.300000E+03	1.673973E-17	1.228224E-18
5.310000E+03	1.673705E-17	1.228016E-18
5.320000E+03	1.672738E-17	1.227295E-18
5.330000E+03	1.671057E-17	1.226050E-18
5.340000E+03	1.668637E-17	1.224262E-18
5.350000E+03	1.665482E-17	1.221936E-18
5.360000E+03	1.661589E-17	1.219068E-18
5.370000E+03	1.656957E-17	1.215658E-18
5.380000E+03	1.651571E-17	1.211695E-18
5.390000E+03	1.645468E-17	1.207206E-18
5.400000E+03	1.638646E-17	1.202190E-18
5.410000E+03	1.631152E-17	1.196680E-18
5.420000E+03	1.622992E-17	1.190682E-18
5.430000E+03	1.614208E-17	1.184226E-18
5.440000E+03	1.604831E-17	1.177335E-18
5.450000E+03	1.594931E-17	1.170061E-18
5.460000E+03	1.584532E-17	1.162421E-18
5.470000E+03	1.573665E-17	1.154437E-18
5.480000E+03	1.562350E-17	1.146126E-18
5.490000E+03	1.550643E-17	1.137526E-18
5.500000E+03	1.538571E-17	1.128659E-18
5.510000E+03	1.526181E-17	1.119559E-18
5.520000E+03	1.513526E-17	1.110264E-18
5.530000E+03	1.500654E-17	1.100811E-18
5.540000E+03	1.487623E-17	1.091241E-18
5.550000E+03	1.474499E-17	1.081604E-18
5.560000E+03	1.461337E-17	1.071938E-18
5.570000E+03	1.448220E-17	1.062305E-18
5.580000E+03	1.435183E-17	1.052732E-18
5.590000E+03	1.422320E-17	1.043286E-18
5.600000E+03	1.409661E-17	1.033990E-18
5.610000E+03	1.397277E-17	1.024896E-18
5.620000E+03	1.385235E-17	1.016052E-18
5.630000E+03	1.373551E-17	1.007472E-18
5.640000E+03	1.362314E-17	9.992196E-19
5.650000E+03	1.351544E-17	9.913100E-19
5.660000E+03	1.341261E-17	9.837578E-19
5.670000E+03	1.331534E-17	9.766134E-19
5.680000E+03	1.322359E-17	9.698736E-19
5.690000E+03	1.313767E-17	9.635618E-19
5.700000E+03	1.305787E-17	9.576990E-19
5.710000E+03	1.298429E-17	9.522925E-19
5.720000E+03	1.291702E-17	9.473490E-19
5.730000E+03	1.285611E-17	9.428720E-19
5.740000E+03	1.280172E-17	9.388734E-19
5.750000E+03	1.275402E-17	9.353648E-19
5.760000E+03	1.271274E-17	9.323280E-19
5.770000E+03	1.267830E-17	9.297925E-19
5.780000E+03	1.265043E-17	9.277381E-19
5.790000E+03	1.262939E-17	9.261857E-19
5.800000E+03	1.261508E-17	9.251265E-19
5.810000E+03	1.260764E-17	9.245706E-19
5.820000E+03	1.260706E-17	9.245186E-19
5.830000E+03	1.261354E-17	9.249834E-19
5.840000E+03	1.262694E-17	9.259561E-19
5.850000E+03	1.264728E-17	9.274381E-19
5.860000E+03	1.267474E-17	9.294415E-19
5.870000E+03	1.270948E-17	9.319790E-19
5.880000E+03	1.275124E-17	9.350311E-19
5.890000E+03	1.280032E-17	9.386200E-19
5.900000E+03	1.285660E-17	9.427362E-19
5.910000E+03	1.292022E-17	9.473912E-19
5.920000E+03	1.299119E-17	9.525850E-19
5.930000E+03	1.306935E-17	9.583054E-19
5.940000E+03	1.315482E-17	9.645618E-19
5.950000E+03	1.324755E-17	9.713508E-19
5.960000E+03	1.334736E-17	9.786583E-19
5.970000E+03	1.345445E-17	9.864996E-19
5.980000E+03	1.356845E-17	9.948473E-19
5.990000E+03	1.368939E-17	1.003703E-18
6.000000E+03	1.381714E-17	1.013059E-18
6.010000E+03	1.395137E-17	1.022889E-18
6.020000E+03	1.409208E-17	1.033194E-18
6.030000E+03	1.423870E-17	1.043933E-18
6.040000E+03	1.439134E-17	1.055112E-18
6.050000E+03	1.454940E-17	1.066689E-18
6.060000E+03	1.471275E-17	1.078652E-18
6.070000E+03	1.488088E-17	1.090967E-18
6.080000E+03	1.505345E-17	1.103606E-18
6.090000E+03	1.522988E-17	1.116528E-18
6.100000E+03	1.540958E-17	1.129689E-18
6.110000E+03	1.559227E-17	1.143070E-18
6.120000E+03	1.577695E-17	1.156595E-18
6.130000E+03	1.596328E-17	1.170243E-18
6.140000E+03	1.615041E-17	1.183947E-18
6.150000E+03	1.633779E-17	1.197670E-18
6.160000E+03	1.652411E-17	1.211315E-18
6.170000E+03	1.670905E-17	1.224858E-18
6.180000E+03	1.689145E-17	1.238215E-18
6.190000E+03	1.707062E-17	1.251336E-18
6.200000E+03	1.724564E-17	1.264151E-18
6.210000E+03	1.741648E-17	1.276660E-18
6.220000E+03	1.758344E-17	1.288883E-18
6.230000E+03	1.774686E-17	1.300848E-18
6.240000E+03	1.790718E-17	1.312585E-18
6.250000E+03	1.806422E-17	1.324081E-18
6.260000E+03	1.821903E-17	1.335413E-18
6.270000E+03	1.837129E-17	1.346558E-18
6.280000E+03	1.852166E-17	1.357565E-18
6.290000E+03	1.867066E-17	1.368471E-18
6.300000E+03	1.881805E-17	1.379258E-18
6.310000E+03	1.896438E-17	1.389968E-18
6.320000E+03	1.910997E-17	1.400623E-18
6.330000E+03	1.925517E-17	1.411249E-18
6.340000E+03	1.939981E-17	1.421834E-18
6.350000E+03	1.954426E-17	1.432405E-18
6.360000E+03	1.968863E-17	1.442970E-18
6.370000E+03	1.983303E-17	1.453537E-18
6.380000E+03	1.997730E-17	1.464094E-18
6.390000E+03	2.012128E-17	1.474629E-18
6.400000E+03	2.026475E-17	1.485127E-18
6.410000E+03	2.040784E-17	1.495597E-18
6.420000E+03	2.055032E-17	1.506022E-18
6.430000E+03	2.069137E-17	1.516342E-18
6.440000E+03	2.083196E-17	1.526627E-18
6.450000E+03	2.097215E-17	1.536884E-18
6.460000E+03	2.111236E-17	1.547142E-18
6.470000E+03	2.125329E-17	1.557452E-18
6.480000E+03	2.139473E-17	1.567800E-18
6.490000E+03	2.153745E-17	1.578240E-18
6.500000E+03	2.168154E-17	1.588782E-18
6.510000E+03	2.182748E-17	1.599458E-18
6.520000E+03	2.197469E-17	1.610227E-18
6.530000E+03	2.212430E-17	1.621172E-18
6.540000E+03	2.227576E-17	1.632252E-18
6.550000E+03	2.242952E-17	1.643501E-18
6.560000E+03	2.258569E-17	1.654925E-18
6.570000E+03	2.274403E-17	1.666509E-18
6.580000E+03	2.290498E-17	1.678284E-18
6.590000E+03	2.306866E-17	1.690259E-18
6.600000E+03	2.323481E-17	1.702414E-18
6.610000E+03	2.340350E-17	1.714755E-18
6.620000E+03	2.357483E-17	1.727289E-18
6.630000E+03	2.374926E-17	1.740050E-18
6.640000E+03	2.392608E-17	1.752986E-18
6.650000E+03	2.410578E-17	1.766133E-18
6.660000E+03	2.428841E-17	1.779494E-18
6.670000E+03	2.447364E-17	1.793045E-18
6.680000E+03	2.466194E-17	1.806821E-18
6.690000E+03	2.485293E-17	1.820793E-18
6.700000E+03	2.504709E-17	1.834998E-18
6.710000E+03	2.524362E-17	1.849376E-18
6.720000E+03	2.544298E-17	1.863962E-18
6.730000E+03	2.564566E-17	1.878789E-18
6.740000E+03	2.585081E-17	1.893798E-18
6.750000E+03	2.605892E-17	1.909023E-18
6.760000E+03	2.626956E-17	1.924433E-18
6.770000E+03	2.648323E-17	1.940066E-18
6.780000E+03	2.669952E-17	1.955889E-18
6.790000E+03	2.691843E-17	1.971904E-18
6.800000E+03	2.714049E-17	1.988150E-18
6.810000E+03	2.736475E-17	2.004556E-18
6.820000E+03	2.759221E-17	2.021197E-18
6.830000E+03	2.782191E-17	2.038001E-18
6.840000E+03	2.805487E-17	2.055044E-18
6.850000E+03	2.829006E-17	2.072250E-18
6.860000E+03	2.852747E-17	2.089618E-18
6.870000E+03	2.876761E-17	2.107186E-18
6.880000E+03	2.901045E-17	2.124951E-18
6.890000E+03	2.925488E-17	2.142833E-18
6.900000E+03	2.950192E-17	2.160905E-18
6.910000E+03	2.975098E-17	2.179125E-18
6.920000E+03	3.000252E-17	2.197526E-18
6.930000E+03	3.025535E-17	2.216022E-18
6.940000E+03	3.050992E-17	2.234644E-18
6.950000E+03	3.076613E-17	2.253387E-18
6.960000E+03	3.102329E-17	2.272199E-18
6.970000E+03	3.128187E-17	2.291114E-18
6.980000E+03	3.154176E-17	2.310125E-18
6.990000E+03	3.180221E-17	2.329177E-18
7.000000E+03	3.206312E-17	2.348262E-18
7.010000E+03	3.232434E-17	2.367369E-18
7.020000E+03	3.258639E-17	2.386537E-18
7.030000E+03	3.284788E-17	2.405664E-18
7.040000E+03	3.310999E-17	2.424836E-18
7.050000E+03	3.337131E-17	2.443950E-18
7.060000E+03	3.363240E-17	2.463047E-18
7.070000E+03	3.389251E-17	2.482071E-18
7.080000E+03	3.415222E-17	2.501066E-18
7.090000E+03	3.441146E-17	2.520027E-18
7.100000E+03	3.466950E-17	2.538899E-18
7.110000E+03	3.492556E-17	2.557626E-18
7.120000E+03	3.518102E-17	2.576309E-18
7.130000E+03	3.543513E-17	2.594893E-18
7.140000E+03	3.568786E-17	2.613375E-18
7.150000E+03	3.593921E-17	2.631756E-18
7.160000E+03	3.618841E-17	2.649980E-18
7.170000E+03	3.643619E-17	2.668100E-18
7.180000E+03	3.668182E-17	2.686062E-18
7.190000E+03	3.692527E-17	2.703864E-18
7.200000E+03	3.716732E-17	2.721564E-18
7.210000E+03	3.740720E-17	2.739104E-18
7.220000E+03	3.764569E-17	2.756542E-18
7.230000E+03	3.788120E-17	2.773763E-18
7.240000E+03	3.811450E-17	2.790821E-18
7.250000E+03	3.834556E-17	2.807715E-18
7.260000E+03	3.857434E-17	2.824442E-18
7.270000E+03	3.880080E-17	2.840999E-18
7.280000E+03	3.902485E-17	2.857380E-18
7.290000E+03	3.924561E-17	2.873520E-18
7.300000E+03	3.946378E-17	2.889470E-18
7.310000E+03	3.967928E-17	2.905225E-18
7.320000E+03	3.989201E-17	2.920776E-18
7.330000E+03	4.010099E-17	2.936053E-18
7.340000E+03	4.030696E-17	2.951110E-18
7.350000E+03	4.051070E-17	2.966004E-18
7.360000E+03	4.071033E-17	2.980597E-18
7.370000E+03	4.090666E-17	2.994948E-18
7.380000E+03	4.109959E-17	3.009050E-18
7.390000E+03	4.128998E-17	3.022966E-18
7.400000E+03	4.147686E-17	3.036626E-18
7.410000E+03	4.166116E-17	3.050096E-18
7.420000E+03	4.184382E-17	3.063447E-18
7.430000E+03	4.202395E-17	3.076612E-18
7.440000E+03	4.220351E-17	3.089736E-18
7.450000E+03	4.238072E-17	3.102689E-18
7.460000E+03	4.255664E-17	3.115546E-18
7.470000E+03	4.273044E-17	3.128249E-18
7.480000E+03	4.290321E-17	3.140877E-18
7.490000E+03	4.307315E-17	3.153298E-18
7.500000E+03	4.324136E-17	3.165592E-18
7.510000E+03	4.340799E-17	3.177770E-18
7.520000E+03	4.357211E-17	3.189765E-18
7.530000E+03	4.373589E-17	3.201736E-18
7.540000E+03	4.389735E-17	3.213537E-18
7.550000E+03	4.405759E-17	3.225249E-18
7.560000E+03	4.421565E-17	3.236801E-18
7.570000E+03	4.437260E-17	3.248273E-18
7.580000E+03	4.452746E-17	3.259592E-18
7.590000E+03	4.468130E-17	3.270836E-18
7.600000E+03	4.483307E-17	3.281930E-18
7.610000E+03	4.498279E-17	3.292873E-18
7.620000E+03	4.513151E-17	3.303744E-18
7.630000E+03	4.527813E-17	3.314462E-18
7.640000E+03	4.542260E-17	3.325022E-18
7.650000E+03	4.556596E-17	3.335501E-18
7.660000E+03	4.570704E-17	3.345814E-18
7.670000E+03	4.584683E-17	3.356032E-18
7.680000E+03	4.598298E-17	3.365985E-18
7.690000E+03	4.611759E-17	3.375825E-18
7.700000E+03	4.625053E-17	3.385543E-18
7.710000E+03	4.638049E-17	3.395043E-18
7.720000E+03	4.650843E-17	3.404396E-18
7.730000E+03	4.663300E-17	3.413502E-18
7.740000E+03	4.675397E-17	3.422346E-18
7.750000E+03	4.687229E-17	3.430995E-18
7.760000E+03	4.698774E-17	3.439435E-18
