#wls	flux	fluxerr
1.600000E+03	1.431306E-16	7.182300E-17
1.640000E+03	1.479757E-16	7.424423E-17
1.680000E+03	1.527296E-16	7.661835E-17
1.720000E+03	1.573734E-16	7.893585E-17
1.760000E+03	1.618387E-16	8.116237E-17
1.800000E+03	1.660961E-16	8.328312E-17
1.840000E+03	1.700820E-16	8.526623E-17
1.880000E+03	1.737574E-16	8.709211E-17
1.920000E+03	1.770646E-16	8.873184E-17
1.960000E+03	1.799430E-16	9.015511E-17
2.000000E+03	1.823038E-16	9.131750E-17
2.040000E+03	1.840867E-16	9.218898E-17
2.080000E+03	1.852215E-16	9.273448E-17
2.120000E+03	1.856085E-16	9.290427E-17
2.160000E+03	1.851624E-16	9.265604E-17
2.200000E+03	1.837842E-16	9.194048E-17
2.240000E+03	1.813924E-16	9.071726E-17
2.280000E+03	1.779761E-16	8.898135E-17
2.320000E+03	1.735667E-16	8.674903E-17
2.360000E+03	1.682980E-16	8.408769E-17
2.400000E+03	1.622903E-16	8.105790E-17
2.440000E+03	1.556527E-16	7.771454E-17
2.480000E+03	1.485043E-16	7.411768E-17
2.520000E+03	1.409396E-16	7.031472E-17
2.560000E+03	1.330416E-16	6.634753E-17
2.600000E+03	1.249108E-16	6.226657E-17
2.640000E+03	1.166230E-16	5.810985E-17
2.680000E+03	1.082662E-16	5.392157E-17
2.720000E+03	9.991516E-17	4.973910E-17
2.760000E+03	9.165749E-17	4.560625E-17
2.800000E+03	8.356742E-17	4.156005E-17
2.840000E+03	7.572325E-17	3.763948E-17
2.880000E+03	6.819934E-17	3.388148E-17
2.920000E+03	6.106364E-17	3.031972E-17
2.960000E+03	5.437515E-17	2.698333E-17
3.000000E+03	4.818061E-17	2.389528E-17
3.010000E+03	4.671277E-17	2.316383E-17
3.020000E+03	4.527863E-17	2.244929E-17
3.030000E+03	4.387724E-17	2.175117E-17
3.040000E+03	4.251055E-17	2.107043E-17
3.050000E+03	4.117753E-17	2.040657E-17
3.060000E+03	3.987809E-17	1.975953E-17
3.070000E+03	3.861216E-17	1.912927E-17
3.080000E+03	3.738117E-17	1.851648E-17
3.090000E+03	3.618330E-17	1.792028E-17
3.100000E+03	3.501979E-17	1.734126E-17
3.110000E+03	3.388960E-17	1.677889E-17
3.120000E+03	3.279306E-17	1.623336E-17
3.130000E+03	3.172977E-17	1.570443E-17
3.140000E+03	3.069930E-17	1.519190E-17
3.150000E+03	2.970121E-17	1.469554E-17
3.160000E+03	2.873559E-17	1.421539E-17
3.170000E+03	2.780136E-17	1.375092E-17
3.180000E+03	2.689854E-17	1.330211E-17
3.190000E+03	2.602654E-17	1.286869E-17
3.200000E+03	2.518480E-17	1.245035E-17
3.210000E+03	2.437313E-17	1.204700E-17
3.220000E+03	2.359006E-17	1.165792E-17
3.230000E+03	2.283621E-17	1.128339E-17
3.240000E+03	2.210974E-17	1.092251E-17
3.250000E+03	2.141112E-17	1.057550E-17
3.260000E+03	2.073896E-17	1.024166E-17
3.270000E+03	2.009293E-17	9.920836E-18
3.280000E+03	1.947235E-17	9.612677E-18
3.290000E+03	1.887624E-17	9.316696E-18
3.300000E+03	1.830451E-17	9.032846E-18
3.310000E+03	1.775591E-17	8.760497E-18
3.320000E+03	1.722979E-17	8.499330E-18
3.330000E+03	1.672600E-17	8.249261E-18
3.340000E+03	1.624336E-17	8.009709E-18
3.350000E+03	1.578125E-17	7.780354E-18
3.360000E+03	1.533903E-17	7.560884E-18
3.370000E+03	1.491629E-17	7.351091E-18
3.380000E+03	1.451200E-17	7.150457E-18
3.390000E+03	1.412558E-17	6.958696E-18
3.400000E+03	1.375665E-17	6.775613E-18
3.410000E+03	1.340444E-17	6.600832E-18
3.420000E+03	1.306841E-17	6.434075E-18
3.430000E+03	1.274769E-17	6.274915E-18
3.440000E+03	1.244196E-17	6.123186E-18
3.450000E+03	1.215072E-17	5.978637E-18
3.460000E+03	1.187319E-17	5.840886E-18
3.470000E+03	1.160893E-17	5.709713E-18
3.480000E+03	1.135738E-17	5.584835E-18
3.490000E+03	1.111826E-17	5.466115E-18
3.500000E+03	1.089080E-17	5.353165E-18
3.510000E+03	1.067475E-17	5.245862E-18
3.520000E+03	1.046951E-17	5.143913E-18
3.530000E+03	1.027465E-17	5.047095E-18
3.540000E+03	1.008975E-17	4.955202E-18
3.550000E+03	9.914290E-18	4.867981E-18
3.560000E+03	9.748023E-18	4.785303E-18
3.570000E+03	9.590378E-18	4.706886E-18
3.580000E+03	9.441035E-18	4.632570E-18
3.590000E+03	9.299785E-18	4.562252E-18
3.600000E+03	9.166233E-18	4.495734E-18
3.610000E+03	9.040093E-18	4.432874E-18
3.620000E+03	8.921019E-18	4.373501E-18
3.630000E+03	8.808679E-18	4.317449E-18
3.640000E+03	8.702832E-18	4.264599E-18
3.650000E+03	8.603097E-18	4.214761E-18
3.660000E+03	8.509351E-18	4.167874E-18
3.670000E+03	8.421240E-18	4.123762E-18
3.680000E+03	8.338581E-18	4.082334E-18
3.690000E+03	8.261276E-18	4.043541E-18
3.700000E+03	8.189004E-18	4.007223E-18
3.710000E+03	8.121601E-18	3.973299E-18
3.720000E+03	8.059062E-18	3.941765E-18
3.730000E+03	8.001155E-18	3.912505E-18
3.740000E+03	7.947734E-18	3.885447E-18
3.750000E+03	7.898794E-18	3.860587E-18
3.760000E+03	7.854116E-18	3.837817E-18
3.770000E+03	7.813631E-18	3.817100E-18
3.780000E+03	7.777328E-18	3.798432E-18
3.790000E+03	7.745071E-18	3.781743E-18
3.800000E+03	7.716787E-18	3.766996E-18
3.810000E+03	7.692400E-18	3.754153E-18
3.820000E+03	7.671846E-18	3.743182E-18
3.830000E+03	7.655111E-18	3.734074E-18
3.840000E+03	7.642066E-18	3.726765E-18
3.850000E+03	7.632701E-18	3.721250E-18
3.860000E+03	7.627015E-18	3.717525E-18
3.870000E+03	7.624862E-18	3.715518E-18
3.880000E+03	7.626184E-18	3.715200E-18
3.890000E+03	7.631029E-18	3.716593E-18
3.900000E+03	7.639327E-18	3.719662E-18
3.910000E+03	7.650952E-18	3.724344E-18
3.920000E+03	7.665949E-18	3.730659E-18
3.930000E+03	7.684317E-18	3.738606E-18
3.940000E+03	7.705857E-18	3.748086E-18
3.950000E+03	7.730628E-18	3.759127E-18
3.960000E+03	7.758615E-18	3.771721E-18
3.970000E+03	7.789753E-18	3.785834E-18
3.980000E+03	7.823904E-18	3.801398E-18
3.990000E+03	7.861185E-18	3.818469E-18
4.000000E+03	7.901459E-18	3.836979E-18
4.010000E+03	7.944660E-18	3.856895E-18
4.020000E+03	7.990841E-18	3.878241E-18
4.030000E+03	8.039864E-18	3.900948E-18
4.040000E+03	8.091784E-18	3.925043E-18
4.050000E+03	8.146403E-18	3.950428E-18
4.060000E+03	8.203840E-18	3.977160E-18
4.070000E+03	8.263965E-18	4.005174E-18
4.080000E+03	8.326701E-18	4.034432E-18
4.090000E+03	8.392107E-18	4.064961E-18
4.100000E+03	8.459982E-18	4.096663E-18
4.110000E+03	8.530457E-18	4.129599E-18
4.120000E+03	8.603324E-18	4.163669E-18
4.130000E+03	8.678589E-18	4.198875E-18
4.140000E+03	8.756248E-18	4.235211E-18
4.150000E+03	8.836159E-18	4.272610E-18
4.160000E+03	8.918334E-18	4.311076E-18
4.170000E+03	9.002697E-18	4.350570E-18
4.180000E+03	9.089113E-18	4.391028E-18
4.190000E+03	9.177665E-18	4.432487E-18
4.200000E+03	9.268137E-18	4.474843E-18
4.210000E+03	9.360610E-18	4.518133E-18
4.220000E+03	9.454880E-18	4.562259E-18
4.230000E+03	9.550943E-18	4.607217E-18
4.240000E+03	9.648746E-18	4.652981E-18
4.250000E+03	9.748063E-18	4.699440E-18
4.260000E+03	9.848981E-18	4.746637E-18
4.270000E+03	9.951368E-18	4.794507E-18
4.280000E+03	1.005506E-17	4.842970E-18
4.290000E+03	1.015992E-17	4.891960E-18
4.300000E+03	1.026596E-17	4.941477E-18
4.310000E+03	1.037309E-17	4.991487E-18
4.320000E+03	1.048101E-17	5.041834E-18
4.330000E+03	1.058979E-17	5.092562E-18
4.340000E+03	1.069911E-17	5.143507E-18
4.350000E+03	1.080905E-17	5.194713E-18
4.360000E+03	1.091934E-17	5.246050E-18
4.370000E+03	1.103000E-17	5.297523E-18
4.380000E+03	1.114101E-17	5.349127E-18
4.390000E+03	1.125238E-17	5.400862E-18
4.400000E+03	1.136411E-17	5.452729E-18
4.410000E+03	1.147629E-17	5.504771E-18
4.420000E+03	1.158902E-17	5.557038E-18
4.430000E+03	1.170231E-17	5.609532E-18
4.440000E+03	1.181627E-17	5.662307E-18
4.450000E+03	1.193081E-17	5.715320E-18
4.460000E+03	1.204616E-17	5.768678E-18
4.470000E+03	1.216224E-17	5.822341E-18
4.480000E+03	1.227907E-17	5.876320E-18
4.490000E+03	1.239668E-17	5.930631E-18
4.500000E+03	1.251510E-17	5.985286E-18
4.510000E+03	1.263437E-17	6.040305E-18
4.520000E+03	1.275453E-17	6.095701E-18
4.530000E+03	1.287539E-17	6.151390E-18
4.540000E+03	1.299722E-17	6.207496E-18
4.550000E+03	1.311984E-17	6.263938E-18
4.560000E+03	1.324331E-17	6.320733E-18
4.570000E+03	1.336755E-17	6.377851E-18
4.580000E+03	1.349274E-17	6.435375E-18
4.590000E+03	1.361882E-17	6.493274E-18
4.600000E+03	1.374561E-17	6.551467E-18
4.610000E+03	1.387343E-17	6.610098E-18
4.620000E+03	1.400210E-17	6.669086E-18
4.630000E+03	1.413157E-17	6.728406E-18
4.640000E+03	1.426205E-17	6.788152E-18
4.650000E+03	1.439363E-17	6.848374E-18
4.660000E+03	1.452601E-17	6.908921E-18
4.670000E+03	1.465955E-17	6.969972E-18
4.680000E+03	1.479424E-17	7.031508E-18
4.690000E+03	1.493004E-17	7.093526E-18
4.700000E+03	1.506708E-17	7.156073E-18
4.710000E+03	1.520535E-17	7.219150E-18
4.720000E+03	1.534498E-17	7.282816E-18
4.730000E+03	1.548569E-17	7.346938E-18
4.740000E+03	1.562761E-17	7.411576E-18
4.750000E+03	1.577089E-17	7.476804E-18
4.760000E+03	1.591510E-17	7.542409E-18
4.770000E+03	1.606054E-17	7.608533E-18
4.780000E+03	1.620705E-17	7.675111E-18
4.790000E+03	1.635449E-17	7.742063E-18
4.800000E+03	1.650317E-17	7.809540E-18
4.810000E+03	1.665262E-17	7.877323E-18
4.820000E+03	1.680333E-17	7.945633E-18
4.830000E+03	1.695481E-17	8.014246E-18
4.840000E+03	1.710740E-17	8.083314E-18
4.850000E+03	1.726075E-17	8.152677E-18
4.860000E+03	1.741519E-17	8.222491E-18
4.870000E+03	1.757039E-17	8.292589E-18
4.880000E+03	1.772648E-17	8.363048E-18
4.890000E+03	1.788347E-17	8.433855E-18
4.900000E+03	1.804115E-17	8.504920E-18
4.910000E+03	1.819949E-17	8.576229E-18
4.920000E+03	1.835845E-17	8.647758E-18
4.930000E+03	1.851818E-17	8.719573E-18
4.940000E+03	1.867825E-17	8.791482E-18
4.950000E+03	1.883897E-17	8.863622E-18
4.960000E+03	1.899991E-17	8.935788E-18
4.970000E+03	1.916116E-17	9.008030E-18
4.980000E+03	1.932244E-17	9.080212E-18
4.990000E+03	1.948366E-17	9.152288E-18
5.000000E+03	1.964468E-17	9.224193E-18
5.010000E+03	1.980557E-17	9.295964E-18
5.020000E+03	1.996579E-17	9.367343E-18
5.030000E+03	2.012537E-17	9.438346E-18
5.040000E+03	2.028394E-17	9.508797E-18
5.050000E+03	2.044149E-17	9.578697E-18
5.060000E+03	2.059763E-17	9.647855E-18
5.070000E+03	2.075191E-17	9.716067E-18
5.080000E+03	2.090430E-17	9.783315E-18
5.090000E+03	2.105452E-17	9.849475E-18
5.100000E+03	2.120210E-17	9.914323E-18
5.110000E+03	2.134653E-17	9.977626E-18
5.120000E+03	2.148792E-17	1.003943E-17
5.130000E+03	2.162554E-17	1.009940E-17
5.140000E+03	2.175903E-17	1.015738E-17
5.150000E+03	2.188806E-17	1.021319E-17
5.160000E+03	2.201226E-17	1.026669E-17
5.170000E+03	2.213104E-17	1.031759E-17
5.180000E+03	2.224426E-17	1.036583E-17
5.190000E+03	2.235110E-17	1.041104E-17
5.200000E+03	2.245140E-17	1.045314E-17
5.210000E+03	2.254432E-17	1.049174E-17
5.220000E+03	2.262994E-17	1.052689E-17
5.230000E+03	2.270744E-17	1.055821E-17
5.240000E+03	2.277668E-17	1.058565E-17
5.250000E+03	2.283688E-17	1.060883E-17
5.260000E+03	2.288792E-17	1.062771E-17
5.270000E+03	2.292951E-17	1.064217E-17
5.280000E+03	2.296090E-17	1.065186E-17
5.290000E+03	2.298187E-17	1.065668E-17
5.300000E+03	2.299242E-17	1.065665E-17
5.310000E+03	2.299217E-17	1.065159E-17
5.320000E+03	2.298078E-17	1.064135E-17
5.330000E+03	2.295818E-17	1.062590E-17
5.340000E+03	2.292437E-17	1.060526E-17
5.350000E+03	2.287941E-17	1.057946E-17
5.360000E+03	2.282320E-17	1.054846E-17
5.370000E+03	2.275617E-17	1.051247E-17
5.380000E+03	2.267835E-17	1.047150E-17
5.390000E+03	2.259031E-17	1.042583E-17
5.400000E+03	2.249224E-17	1.037556E-17
5.410000E+03	2.238508E-17	1.032112E-17
5.420000E+03	2.226962E-17	1.026288E-17
5.430000E+03	2.214623E-17	1.020102E-17
5.440000E+03	2.201629E-17	1.013618E-17
5.450000E+03	2.188051E-17	1.006870E-17
5.460000E+03	2.173884E-17	9.998541E-18
5.470000E+03	2.159276E-17	9.926407E-18
5.480000E+03	2.144274E-17	9.852510E-18
5.490000E+03	2.128926E-17	9.777077E-18
5.500000E+03	2.113308E-17	9.700456E-18
5.510000E+03	2.097475E-17	9.622902E-18
5.520000E+03	2.081486E-17	9.544685E-18
5.530000E+03	2.065439E-17	9.466262E-18
5.540000E+03	2.049393E-17	9.387904E-18
5.550000E+03	2.033468E-17	9.310153E-18
5.560000E+03	2.017759E-17	9.233448E-18
5.570000E+03	2.002337E-17	9.158115E-18
5.580000E+03	1.987313E-17	9.084654E-18
5.590000E+03	1.972770E-17	9.013447E-18
5.600000E+03	1.958786E-17	8.944848E-18
5.610000E+03	1.945456E-17	8.879283E-18
5.620000E+03	1.932848E-17	8.817057E-18
5.630000E+03	1.921024E-17	8.758448E-18
5.640000E+03	1.910058E-17	8.703794E-18
5.650000E+03	1.900003E-17	8.653322E-18
5.660000E+03	1.890920E-17	8.607310E-18
5.670000E+03	1.882849E-17	8.565927E-18
5.680000E+03	1.875822E-17	8.529321E-18
5.690000E+03	1.869888E-17	8.497695E-18
5.700000E+03	1.865069E-17	8.471149E-18
5.710000E+03	1.861385E-17	8.449763E-18
5.720000E+03	1.858871E-17	8.433685E-18
5.730000E+03	1.857537E-17	8.422958E-18
5.740000E+03	1.857413E-17	8.417703E-18
5.750000E+03	1.858485E-17	8.417853E-18
5.760000E+03	1.860797E-17	8.423594E-18
5.770000E+03	1.864333E-17	8.434843E-18
5.780000E+03	1.869093E-17	8.451594E-18
5.790000E+03	1.875118E-17	8.474024E-18
5.800000E+03	1.882367E-17	8.501933E-18
5.810000E+03	1.890881E-17	8.535498E-18
5.820000E+03	1.900657E-17	8.574699E-18
5.830000E+03	1.911696E-17	8.619525E-18
5.840000E+03	1.923973E-17	8.669862E-18
5.850000E+03	1.937530E-17	8.725879E-18
5.860000E+03	1.952343E-17	8.787466E-18
5.870000E+03	1.968432E-17	8.854696E-18
5.880000E+03	1.985793E-17	8.927545E-18
5.890000E+03	2.004402E-17	9.005891E-18
5.900000E+03	2.024274E-17	9.089799E-18
5.910000E+03	2.045430E-17	9.179341E-18
5.920000E+03	2.067815E-17	9.274271E-18
5.930000E+03	2.091444E-17	9.374642E-18
5.940000E+03	2.116308E-17	9.480400E-18
5.950000E+03	2.142418E-17	9.591587E-18
5.960000E+03	2.169713E-17	9.707915E-18
5.970000E+03	2.198223E-17	9.829516E-18
5.980000E+03	2.227880E-17	9.956069E-18
5.990000E+03	2.258684E-17	1.008757E-17
6.000000E+03	2.290612E-17	1.022390E-17
6.010000E+03	2.323607E-17	1.036480E-17
6.020000E+03	2.357662E-17	1.051023E-17
6.030000E+03	2.392685E-17	1.065976E-17
6.040000E+03	2.428691E-17	1.081346E-17
6.050000E+03	2.465549E-17	1.097074E-17
6.060000E+03	2.503268E-17	1.113163E-17
6.070000E+03	2.541736E-17	1.129561E-17
6.080000E+03	2.580923E-17	1.146256E-17
6.090000E+03	2.620709E-17	1.163193E-17
6.100000E+03	2.661026E-17	1.180342E-17
6.110000E+03	2.701774E-17	1.197657E-17
6.120000E+03	2.742878E-17	1.215106E-17
6.130000E+03	2.784198E-17	1.232625E-17
6.140000E+03	2.825619E-17	1.250164E-17
6.150000E+03	2.867057E-17	1.267685E-17
6.160000E+03	2.908395E-17	1.285137E-17
6.170000E+03	2.949439E-17	1.302434E-17
6.180000E+03	2.990098E-17	1.319536E-17
6.190000E+03	3.030247E-17	1.336388E-17
6.200000E+03	3.069796E-17	1.352951E-17
6.210000E+03	3.108697E-17	1.369205E-17
6.220000E+03	3.146908E-17	1.385131E-17
6.230000E+03	3.184432E-17	1.400731E-17
6.240000E+03	3.221366E-17	1.416048E-17
6.250000E+03	3.257696E-17	1.431078E-17
6.260000E+03	3.293372E-17	1.445797E-17
6.270000E+03	3.328522E-17	1.460264E-17
6.280000E+03	3.363158E-17	1.474483E-17
6.290000E+03	3.397210E-17	1.488426E-17
6.300000E+03	3.430836E-17	1.502160E-17
6.310000E+03	3.463933E-17	1.515642E-17
6.320000E+03	3.496630E-17	1.528928E-17
6.330000E+03	3.528878E-17	1.541998E-17
6.340000E+03	3.560726E-17	1.554872E-17
6.350000E+03	3.592177E-17	1.567554E-17
6.360000E+03	3.623239E-17	1.580046E-17
6.370000E+03	3.653923E-17	1.592353E-17
6.380000E+03	3.684188E-17	1.604458E-17
6.390000E+03	3.713993E-17	1.616344E-17
6.400000E+03	3.743401E-17	1.628038E-17
6.410000E+03	3.772321E-17	1.639501E-17
6.420000E+03	3.800819E-17	1.650762E-17
6.430000E+03	3.828852E-17	1.661803E-17
6.440000E+03	3.856434E-17	1.672630E-17
6.450000E+03	3.883635E-17	1.683275E-17
6.460000E+03	3.910588E-17	1.693794E-17
6.470000E+03	3.937315E-17	1.704198E-17
6.480000E+03	3.963895E-17	1.714521E-17
6.490000E+03	3.990414E-17	1.724800E-17
6.500000E+03	4.016836E-17	1.735020E-17
6.510000E+03	4.043309E-17	1.745244E-17
6.520000E+03	4.069861E-17	1.755486E-17
6.530000E+03	4.096455E-17	1.765728E-17
6.540000E+03	4.123244E-17	1.776037E-17
6.550000E+03	4.150193E-17	1.786397E-17
6.560000E+03	4.177260E-17	1.796790E-17
6.570000E+03	4.204602E-17	1.807284E-17
6.580000E+03	4.232177E-17	1.817860E-17
6.590000E+03	4.260006E-17	1.828527E-17
6.600000E+03	4.288181E-17	1.839325E-17
6.610000E+03	4.316584E-17	1.850202E-17
6.620000E+03	4.345230E-17	1.861165E-17
6.630000E+03	4.374280E-17	1.872281E-17
6.640000E+03	4.403604E-17	1.883497E-17
6.650000E+03	4.433215E-17	1.894816E-17
6.660000E+03	4.463199E-17	1.906275E-17
6.670000E+03	4.493490E-17	1.917846E-17
6.680000E+03	4.524095E-17	1.929532E-17
6.690000E+03	4.555099E-17	1.941367E-17
6.700000E+03	4.586350E-17	1.953289E-17
6.710000E+03	4.617848E-17	1.965295E-17
6.720000E+03	4.649751E-17	1.977454E-17
6.730000E+03	4.681899E-17	1.989697E-17
6.740000E+03	4.714287E-17	2.002021E-17
6.750000E+03	4.746993E-17	2.014459E-17
6.760000E+03	4.779925E-17	2.026974E-17
6.770000E+03	4.813077E-17	2.039560E-17
6.780000E+03	4.846435E-17	2.052213E-17
6.790000E+03	4.879990E-17	2.064928E-17
6.800000E+03	4.913640E-17	2.077663E-17
6.810000E+03	4.947458E-17	2.090448E-17
6.820000E+03	4.981428E-17	2.103276E-17
6.830000E+03	5.015446E-17	2.116103E-17
6.840000E+03	5.049583E-17	2.128960E-17
6.850000E+03	5.083730E-17	2.141800E-17
6.860000E+03	5.117866E-17	2.154615E-17
6.870000E+03	5.151971E-17	2.167396E-17
6.880000E+03	5.185928E-17	2.180095E-17
6.890000E+03	5.219909E-17	2.192783E-17
6.900000E+03	5.253796E-17	2.205411E-17
6.910000E+03	5.287470E-17	2.217930E-17
6.920000E+03	5.321009E-17	2.230373E-17
6.930000E+03	5.354291E-17	2.242688E-17
6.940000E+03	5.387293E-17	2.254867E-17
6.950000E+03	5.420099E-17	2.266945E-17
6.960000E+03	5.452586E-17	2.278870E-17
6.970000E+03	5.484735E-17	2.290637E-17
6.980000E+03	5.516528E-17	2.302236E-17
6.990000E+03	5.547949E-17	2.313663E-17
7.000000E+03	5.578874E-17	2.324865E-17
7.010000E+03	5.609506E-17	2.335929E-17
7.020000E+03	5.639616E-17	2.346759E-17
7.030000E+03	5.669192E-17	2.357351E-17
7.040000E+03	5.698337E-17	2.367748E-17
7.050000E+03	5.726931E-17	2.377902E-17
7.060000E+03	5.754971E-17	2.387811E-17
7.070000E+03	5.782453E-17	2.397475E-17
7.080000E+03	5.809377E-17	2.406894E-17
7.090000E+03	5.835863E-17	2.416118E-17
7.100000E+03	5.861681E-17	2.425055E-17
7.110000E+03	5.886837E-17	2.433705E-17
7.120000E+03	5.911456E-17	2.442122E-17
7.130000E+03	5.935551E-17	2.450312E-17
7.140000E+03	5.959013E-17	2.458230E-17
7.150000E+03	5.981976E-17	2.465934E-17
7.160000E+03	6.004212E-17	2.473329E-17
7.170000E+03	6.025982E-17	2.480524E-17
7.180000E+03	6.047180E-17	2.487475E-17
7.190000E+03	6.067824E-17	2.494191E-17
7.200000E+03	6.087804E-17	2.500629E-17
7.210000E+03	6.107391E-17	2.506898E-17
7.220000E+03	6.126350E-17	2.512904E-17
7.230000E+03	6.144823E-17	2.518706E-17
7.240000E+03	6.162700E-17	2.524260E-17
7.250000E+03	6.180122E-17	2.529623E-17
7.260000E+03	6.196969E-17	2.534747E-17
7.270000E+03	6.213263E-17	2.539644E-17
7.280000E+03	6.229141E-17	2.544367E-17
7.290000E+03	6.244484E-17	2.548871E-17
7.300000E+03	6.259427E-17	2.553211E-17
7.310000E+03	6.273717E-17	2.557284E-17
7.320000E+03	6.287488E-17	2.561145E-17
7.330000E+03	6.300887E-17	2.564856E-17
7.340000E+03	6.313650E-17	2.568309E-17
7.350000E+03	6.325915E-17	2.571562E-17
7.360000E+03	6.337554E-17	2.574563E-17
7.370000E+03	6.348713E-17	2.577372E-17
7.380000E+03	6.359256E-17	2.579934E-17
7.390000E+03	6.369200E-17	2.582258E-17
7.400000E+03	6.378544E-17	2.584343E-17
7.410000E+03	6.387175E-17	2.586146E-17
7.420000E+03	6.395093E-17	2.587666E-17
7.430000E+03	6.402322E-17	2.588914E-17
7.440000E+03	6.408878E-17	2.589897E-17
7.450000E+03	6.414922E-17	2.590682E-17
7.460000E+03	6.420336E-17	2.591222E-17
7.470000E+03	6.425424E-17	2.591639E-17
7.480000E+03	6.430223E-17	2.591949E-17
7.490000E+03	6.434752E-17	2.592161E-17
7.500000E+03	6.439040E-17	2.592286E-17
7.510000E+03	6.443094E-17	2.592328E-17
7.520000E+03	6.447238E-17	2.592419E-17
7.530000E+03	6.451167E-17	2.592434E-17
7.540000E+03	6.455043E-17	2.592439E-17
7.550000E+03	6.458858E-17	2.592433E-17
7.560000E+03	6.462752E-17	2.592469E-17
7.570000E+03	6.466421E-17	2.592427E-17
7.580000E+03	6.470012E-17	2.592366E-17
7.590000E+03	6.473516E-17	2.592281E-17
7.600000E+03	6.477079E-17	2.592232E-17
7.610000E+03	6.480385E-17	2.592091E-17
7.620000E+03	6.483736E-17	2.591981E-17
7.630000E+03	6.486969E-17	2.591834E-17
7.640000E+03	6.489926E-17	2.591589E-17
7.650000E+03	6.492902E-17	2.591363E-17
7.660000E+03	6.495746E-17	2.591096E-17
7.670000E+03	6.498439E-17	2.590781E-17
7.680000E+03	6.500986E-17	2.590419E-17
7.690000E+03	6.503368E-17	2.590003E-17
7.700000E+03	6.505579E-17	2.589531E-17
7.710000E+03	6.507770E-17	2.589063E-17
7.720000E+03	6.509612E-17	2.588467E-17
7.730000E+03	6.511408E-17	2.587865E-17
7.740000E+03	6.512993E-17	2.587191E-17
7.750000E+03	6.514353E-17	2.586440E-17
7.760000E+03	6.515465E-17	2.585602E-17
