#wls	flux	fluxerr
1.600000E+03	8.149828E-17	3.777924E-18
1.640000E+03	8.169801E-17	3.786731E-18
1.680000E+03	8.180056E-17	3.791016E-18
1.720000E+03	8.181354E-17	3.791132E-18
1.760000E+03	8.171156E-17	3.785903E-18
1.800000E+03	8.151574E-17	3.776310E-18
1.840000E+03	8.120013E-17	3.761152E-18
1.880000E+03	8.077558E-17	3.740934E-18
1.920000E+03	8.023696E-17	3.715419E-18
1.960000E+03	7.956627E-17	3.683778E-18
2.000000E+03	7.877164E-17	3.646388E-18
2.040000E+03	7.784209E-17	3.602745E-18
2.080000E+03	7.676840E-17	3.552425E-18
2.120000E+03	7.554341E-17	3.495101E-18
2.160000E+03	7.415284E-17	3.430117E-18
2.200000E+03	7.256959E-17	3.356224E-18
2.240000E+03	7.076386E-17	3.272050E-18
2.280000E+03	6.873008E-17	3.177344E-18
2.320000E+03	6.649979E-17	3.073574E-18
2.360000E+03	6.413994E-17	2.963840E-18
2.400000E+03	6.169597E-17	2.850247E-18
2.440000E+03	5.920497E-17	2.734512E-18
2.480000E+03	5.668377E-17	2.617417E-18
2.520000E+03	5.415184E-17	2.499863E-18
2.560000E+03	5.161892E-17	2.382303E-18
2.600000E+03	4.909821E-17	2.265349E-18
2.640000E+03	4.659595E-17	2.149290E-18
2.680000E+03	4.411911E-17	2.034450E-18
2.720000E+03	4.167530E-17	1.921180E-18
2.760000E+03	3.926886E-17	1.809683E-18
2.800000E+03	3.690607E-17	1.700249E-18
2.840000E+03	3.459367E-17	1.593189E-18
2.880000E+03	3.234146E-17	1.488955E-18
2.920000E+03	3.016235E-17	1.388141E-18
2.960000E+03	2.807010E-17	1.291379E-18
3.000000E+03	2.607909E-17	1.199330E-18
3.010000E+03	2.559862E-17	1.177121E-18
3.020000E+03	2.512491E-17	1.155226E-18
3.030000E+03	2.465904E-17	1.133696E-18
3.040000E+03	2.419988E-17	1.112476E-18
3.050000E+03	2.374846E-17	1.091616E-18
3.060000E+03	2.330468E-17	1.071111E-18
3.070000E+03	2.286895E-17	1.050978E-18
3.080000E+03	2.244025E-17	1.031172E-18
3.090000E+03	2.201989E-17	1.011753E-18
3.100000E+03	2.160686E-17	9.926725E-19
3.110000E+03	2.120196E-17	9.739697E-19
3.120000E+03	2.080507E-17	9.556374E-19
3.130000E+03	2.041567E-17	9.376522E-19
3.140000E+03	2.003447E-17	9.200467E-19
3.150000E+03	1.966095E-17	9.027972E-19
3.160000E+03	1.929540E-17	8.859161E-19
3.170000E+03	1.893768E-17	8.693972E-19
3.180000E+03	1.858769E-17	8.532365E-19
3.190000E+03	1.824565E-17	8.374431E-19
3.200000E+03	1.791143E-17	8.220117E-19
3.210000E+03	1.758461E-17	8.069224E-19
3.220000E+03	1.726569E-17	7.921987E-19
3.230000E+03	1.695426E-17	7.778208E-19
3.240000E+03	1.665048E-17	7.637966E-19
3.250000E+03	1.635425E-17	7.501209E-19
3.260000E+03	1.606518E-17	7.367765E-19
3.270000E+03	1.578368E-17	7.237816E-19
3.280000E+03	1.550916E-17	7.111088E-19
3.290000E+03	1.524199E-17	6.987758E-19
3.300000E+03	1.498205E-17	6.867762E-19
3.310000E+03	1.472879E-17	6.750853E-19
3.320000E+03	1.448257E-17	6.637192E-19
3.330000E+03	1.424328E-17	6.526725E-19
3.340000E+03	1.401061E-17	6.419312E-19
3.350000E+03	1.378446E-17	6.314910E-19
3.360000E+03	1.356478E-17	6.213492E-19
3.370000E+03	1.335146E-17	6.115004E-19
3.380000E+03	1.314443E-17	6.019418E-19
3.390000E+03	1.294362E-17	5.926697E-19
3.400000E+03	1.274877E-17	5.836721E-19
3.410000E+03	1.255967E-17	5.749397E-19
3.420000E+03	1.237656E-17	5.664828E-19
3.430000E+03	1.219892E-17	5.582785E-19
3.440000E+03	1.202686E-17	5.503306E-19
3.450000E+03	1.186017E-17	5.426303E-19
3.460000E+03	1.169883E-17	5.351762E-19
3.470000E+03	1.154249E-17	5.279525E-19
3.480000E+03	1.139104E-17	5.209534E-19
3.490000E+03	1.124443E-17	5.141772E-19
3.500000E+03	1.110239E-17	5.076116E-19
3.510000E+03	1.096494E-17	5.012567E-19
3.520000E+03	1.083158E-17	4.950904E-19
3.530000E+03	1.070235E-17	4.891137E-19
3.540000E+03	1.057692E-17	4.833120E-19
3.550000E+03	1.045512E-17	4.776771E-19
3.560000E+03	1.033677E-17	4.722012E-19
3.570000E+03	1.022152E-17	4.668677E-19
3.580000E+03	1.010944E-17	4.616801E-19
3.590000E+03	1.000029E-17	4.566277E-19
3.600000E+03	9.893874E-18	4.517006E-19
3.610000E+03	9.790265E-18	4.469028E-19
3.620000E+03	9.689171E-18	4.422208E-19
3.630000E+03	9.590499E-18	4.376502E-19
3.640000E+03	9.494162E-18	4.331870E-19
3.650000E+03	9.400075E-18	4.288274E-19
3.660000E+03	9.308158E-18	4.245676E-19
3.670000E+03	9.218332E-18	4.204040E-19
3.680000E+03	9.130598E-18	4.163367E-19
3.690000E+03	9.044962E-18	4.123658E-19
3.700000E+03	8.961336E-18	4.084872E-19
3.710000E+03	8.879950E-18	4.047116E-19
3.720000E+03	8.800629E-18	4.010308E-19
3.730000E+03	8.723507E-18	3.974510E-19
3.740000E+03	8.648555E-18	3.939706E-19
3.750000E+03	8.575814E-18	3.905916E-19
3.760000E+03	8.505462E-18	3.873221E-19
3.770000E+03	8.437304E-18	3.841532E-19
3.780000E+03	8.371507E-18	3.810922E-19
3.790000E+03	8.308150E-18	3.781429E-19
3.800000E+03	8.247101E-18	3.752992E-19
3.810000E+03	8.188499E-18	3.725673E-19
3.820000E+03	8.132406E-18	3.699501E-19
3.830000E+03	8.078746E-18	3.674439E-19
3.840000E+03	8.027506E-18	3.650482E-19
3.850000E+03	7.978864E-18	3.627711E-19
3.860000E+03	7.932673E-18	3.606056E-19
3.870000E+03	7.889034E-18	3.585565E-19
3.880000E+03	7.847922E-18	3.566225E-19
3.890000E+03	7.809370E-18	3.548050E-19
3.900000E+03	7.773408E-18	3.531054E-19
3.910000E+03	7.739942E-18	3.515193E-19
3.920000E+03	7.708999E-18	3.500479E-19
3.930000E+03	7.680665E-18	3.486949E-19
3.940000E+03	7.654901E-18	3.474587E-19
3.950000E+03	7.631669E-18	3.463374E-19
3.960000E+03	7.610992E-18	3.453320E-19
3.970000E+03	7.592828E-18	3.444404E-19
3.980000E+03	7.577198E-18	3.436637E-19
3.990000E+03	7.564121E-18	3.430026E-19
4.000000E+03	7.553616E-18	3.424578E-19
4.010000E+03	7.545584E-18	3.420248E-19
4.020000E+03	7.540043E-18	3.417045E-19
4.030000E+03	7.537013E-18	3.414975E-19
4.040000E+03	7.536512E-18	3.414046E-19
4.050000E+03	7.538500E-18	3.414241E-19
4.060000E+03	7.542940E-18	3.415541E-19
4.070000E+03	7.549851E-18	3.417953E-19
4.080000E+03	7.559195E-18	3.421461E-19
4.090000E+03	7.570994E-18	3.426073E-19
4.100000E+03	7.585209E-18	3.431771E-19
4.110000E+03	7.601864E-18	3.438565E-19
4.120000E+03	7.620923E-18	3.446438E-19
4.130000E+03	7.642347E-18	3.455372E-19
4.140000E+03	7.666162E-18	3.465377E-19
4.150000E+03	7.692333E-18	3.476437E-19
4.160000E+03	7.720882E-18	3.488561E-19
4.170000E+03	7.751718E-18	3.501707E-19
4.180000E+03	7.784862E-18	3.515884E-19
4.190000E+03	7.820221E-18	3.531050E-19
4.200000E+03	7.857878E-18	3.547240E-19
4.210000E+03	7.897738E-18	3.564411E-19
4.220000E+03	7.939825E-18	3.582574E-19
4.230000E+03	7.983981E-18	3.601655E-19
4.240000E+03	8.030287E-18	3.621691E-19
4.250000E+03	8.078580E-18	3.642608E-19
4.260000E+03	8.128946E-18	3.664443E-19
4.270000E+03	8.181214E-18	3.687119E-19
4.280000E+03	8.235275E-18	3.710586E-19
4.290000E+03	8.291207E-18	3.734877E-19
4.300000E+03	8.348768E-18	3.759884E-19
4.310000E+03	8.408033E-18	3.785640E-19
4.320000E+03	8.468747E-18	3.812029E-19
4.330000E+03	8.530981E-18	3.839082E-19
4.340000E+03	8.594606E-18	3.866741E-19
4.350000E+03	8.659486E-18	3.894943E-19
4.360000E+03	8.725616E-18	3.923686E-19
4.370000E+03	8.792923E-18	3.952937E-19
4.380000E+03	8.861471E-18	3.982724E-19
4.390000E+03	8.931110E-18	4.012978E-19
4.400000E+03	9.001977E-18	4.043761E-19
4.410000E+03	9.074064E-18	4.075068E-19
4.420000E+03	9.147366E-18	4.106897E-19
4.430000E+03	9.221876E-18	4.139244E-19
4.440000E+03	9.297664E-18	4.172139E-19
4.450000E+03	9.374650E-18	4.205547E-19
4.460000E+03	9.452906E-18	4.239498E-19
4.470000E+03	9.532429E-18	4.273991E-19
4.480000E+03	9.613219E-18	4.309024E-19
4.490000E+03	9.695194E-18	4.344561E-19
4.500000E+03	9.778353E-18	4.380601E-19
4.510000E+03	9.862611E-18	4.417104E-19
4.520000E+03	9.948050E-18	4.454108E-19
4.530000E+03	1.003450E-17	4.491535E-19
4.540000E+03	1.012197E-17	4.529384E-19
4.550000E+03	1.021044E-17	4.567655E-19
4.560000E+03	1.029975E-17	4.606269E-19
4.570000E+03	1.038998E-17	4.645263E-19
4.580000E+03	1.048096E-17	4.684559E-19
4.590000E+03	1.057268E-17	4.724156E-19
4.600000E+03	1.066497E-17	4.763970E-19
4.610000E+03	1.075791E-17	4.804044E-19
4.620000E+03	1.085141E-17	4.844337E-19
4.630000E+03	1.094529E-17	4.884762E-19
4.640000E+03	1.103955E-17	4.925323E-19
4.650000E+03	1.113421E-17	4.966024E-19
4.660000E+03	1.122916E-17	5.006822E-19
4.670000E+03	1.132421E-17	5.047629E-19
4.680000E+03	1.141958E-17	5.088545E-19
4.690000E+03	1.151529E-17	5.129571E-19
4.700000E+03	1.161115E-17	5.170633E-19
4.710000E+03	1.170720E-17	5.211736E-19
4.720000E+03	1.180345E-17	5.252893E-19
4.730000E+03	1.189962E-17	5.293980E-19
4.740000E+03	1.199573E-17	5.335001E-19
4.750000E+03	1.209161E-17	5.375878E-19
4.760000E+03	1.218726E-17	5.416621E-19
4.770000E+03	1.228266E-17	5.457207E-19
4.780000E+03	1.237757E-17	5.497543E-19
4.790000E+03	1.247206E-17	5.537649E-19
4.800000E+03	1.256593E-17	5.577444E-19
4.810000E+03	1.265922E-17	5.616941E-19
4.820000E+03	1.275176E-17	5.656065E-19
4.830000E+03	1.284347E-17	5.694783E-19
4.840000E+03	1.293428E-17	5.733061E-19
4.850000E+03	1.302425E-17	5.770929E-19
4.860000E+03	1.311318E-17	5.808296E-19
4.870000E+03	1.320101E-17	5.845138E-19
4.880000E+03	1.328755E-17	5.881367E-19
4.890000E+03	1.337299E-17	5.917072E-19
4.900000E+03	1.345714E-17	5.952165E-19
4.910000E+03	1.353992E-17	5.986617E-19
4.920000E+03	1.362117E-17	6.020353E-19
4.930000E+03	1.370095E-17	6.053398E-19
4.940000E+03	1.377905E-17	6.085667E-19
4.950000E+03	1.385543E-17	6.117139E-19
4.960000E+03	1.393016E-17	6.147841E-19
4.970000E+03	1.400305E-17	6.177696E-19
4.980000E+03	1.407404E-17	6.206675E-19
4.990000E+03	1.414295E-17	6.234700E-19
5.000000E+03	1.420984E-17	6.261800E-19
5.010000E+03	1.427467E-17	6.287958E-19
5.020000E+03	1.433725E-17	6.313087E-19
5.030000E+03	1.439753E-17	6.337172E-19
5.040000E+03	1.445547E-17	6.360193E-19
5.050000E+03	1.451087E-17	6.382062E-19
5.060000E+03	1.456384E-17	6.402828E-19
5.070000E+03	1.461432E-17	6.422473E-19
5.080000E+03	1.466201E-17	6.440855E-19
5.090000E+03	1.470699E-17	6.458022E-19
5.100000E+03	1.474924E-17	6.473957E-19
5.110000E+03	1.478860E-17	6.488598E-19
5.120000E+03	1.482503E-17	6.501922E-19
5.130000E+03	1.485850E-17	6.513924E-19
5.140000E+03	1.488902E-17	6.524606E-19
5.150000E+03	1.491641E-17	6.533890E-19
5.160000E+03	1.494080E-17	6.541840E-19
5.170000E+03	1.496192E-17	6.548333E-19
5.180000E+03	1.497990E-17	6.553431E-19
5.190000E+03	1.499460E-17	6.557073E-19
5.200000E+03	1.500605E-17	6.559275E-19
5.210000E+03	1.501427E-17	6.560045E-19
5.220000E+03	1.501927E-17	6.559391E-19
5.230000E+03	1.502079E-17	6.557203E-19
5.240000E+03	1.501918E-17	6.553634E-19
5.250000E+03	1.501432E-17	6.548635E-19
5.260000E+03	1.500628E-17	6.542237E-19
5.270000E+03	1.499498E-17	6.534402E-19
5.280000E+03	1.498047E-17	6.525165E-19
5.290000E+03	1.496285E-17	6.514561E-19
5.300000E+03	1.494220E-17	6.502631E-19
5.310000E+03	1.491862E-17	6.489419E-19
5.320000E+03	1.489205E-17	6.474906E-19
5.330000E+03	1.486292E-17	6.459273E-19
5.340000E+03	1.483105E-17	6.442445E-19
5.350000E+03	1.479655E-17	6.424476E-19
5.360000E+03	1.475987E-17	6.405562E-19
5.370000E+03	1.472087E-17	6.385641E-19
5.380000E+03	1.467998E-17	6.364900E-19
5.390000E+03	1.463721E-17	6.343349E-19
5.400000E+03	1.459289E-17	6.321128E-19
5.410000E+03	1.454704E-17	6.298249E-19
5.420000E+03	1.450013E-17	6.274916E-19
5.430000E+03	1.445220E-17	6.251147E-19
5.440000E+03	1.440357E-17	6.227083E-19
5.450000E+03	1.435417E-17	6.202690E-19
5.460000E+03	1.430433E-17	6.178114E-19
5.470000E+03	1.425410E-17	6.153376E-19
5.480000E+03	1.420355E-17	6.128510E-19
5.490000E+03	1.415304E-17	6.103666E-19
5.500000E+03	1.410247E-17	6.078810E-19
5.510000E+03	1.405195E-17	6.053976E-19
5.520000E+03	1.400165E-17	6.029248E-19
5.530000E+03	1.395151E-17	6.004599E-19
5.540000E+03	1.390189E-17	5.980182E-19
5.550000E+03	1.385258E-17	5.955903E-19
5.560000E+03	1.380406E-17	5.931974E-19
5.570000E+03	1.375638E-17	5.908414E-19
5.580000E+03	1.370961E-17	5.885253E-19
5.590000E+03	1.366393E-17	5.862568E-19
5.600000E+03	1.361954E-17	5.840439E-19
5.610000E+03	1.357646E-17	5.818884E-19
5.620000E+03	1.353516E-17	5.798095E-19
5.630000E+03	1.349551E-17	5.778018E-19
5.640000E+03	1.345796E-17	5.758844E-19
5.650000E+03	1.342235E-17	5.740504E-19
5.660000E+03	1.338911E-17	5.723185E-19
5.670000E+03	1.335839E-17	5.706940E-19
5.680000E+03	1.333014E-17	5.691752E-19
5.690000E+03	1.330463E-17	5.677736E-19
5.700000E+03	1.328195E-17	5.664925E-19
5.710000E+03	1.326236E-17	5.653429E-19
5.720000E+03	1.324592E-17	5.643271E-19
5.730000E+03	1.323258E-17	5.634430E-19
5.740000E+03	1.322269E-17	5.627051E-19
5.750000E+03	1.321634E-17	5.621167E-19
5.760000E+03	1.321340E-17	5.616728E-19
5.770000E+03	1.321410E-17	5.613821E-19
5.780000E+03	1.321862E-17	5.612522E-19
5.790000E+03	1.322699E-17	5.612846E-19
5.800000E+03	1.323910E-17	5.614738E-19
5.810000E+03	1.325513E-17	5.618271E-19
5.820000E+03	1.327523E-17	5.623513E-19
5.830000E+03	1.329943E-17	5.630466E-19
5.840000E+03	1.332760E-17	5.639074E-19
5.850000E+03	1.335988E-17	5.649395E-19
5.860000E+03	1.339627E-17	5.661424E-19
5.870000E+03	1.343694E-17	5.675228E-19
5.880000E+03	1.348185E-17	5.690793E-19
5.890000E+03	1.353085E-17	5.708048E-19
5.900000E+03	1.358408E-17	5.727051E-19
5.910000E+03	1.364137E-17	5.747721E-19
5.920000E+03	1.370313E-17	5.770236E-19
5.930000E+03	1.376888E-17	5.794383E-19
5.940000E+03	1.383874E-17	5.820216E-19
5.950000E+03	1.391281E-17	5.847773E-19
5.960000E+03	1.399090E-17	5.876966E-19
5.970000E+03	1.407295E-17	5.907764E-19
5.980000E+03	1.415906E-17	5.940217E-19
5.990000E+03	1.424899E-17	5.974213E-19
6.000000E+03	1.434286E-17	6.009802E-19
6.010000E+03	1.444023E-17	6.046795E-19
6.020000E+03	1.454137E-17	6.085301E-19
6.030000E+03	1.464585E-17	6.125138E-19
6.040000E+03	1.475390E-17	6.166402E-19
6.050000E+03	1.486490E-17	6.208827E-19
6.060000E+03	1.497907E-17	6.252507E-19
6.070000E+03	1.509613E-17	6.297318E-19
6.080000E+03	1.521594E-17	6.343203E-19
6.090000E+03	1.533800E-17	6.389950E-19
6.100000E+03	1.546253E-17	6.437646E-19
6.110000E+03	1.558881E-17	6.485989E-19
6.120000E+03	1.571705E-17	6.535070E-19
6.130000E+03	1.584650E-17	6.584569E-19
6.140000E+03	1.597697E-17	6.634412E-19
6.150000E+03	1.610805E-17	6.684429E-19
6.160000E+03	1.623956E-17	6.734537E-19
6.170000E+03	1.637065E-17	6.784387E-19
6.180000E+03	1.650106E-17	6.833876E-19
6.190000E+03	1.663037E-17	6.882822E-19
6.200000E+03	1.675830E-17	6.931118E-19
6.210000E+03	1.688458E-17	6.978651E-19
6.220000E+03	1.700940E-17	7.025497E-19
6.230000E+03	1.713315E-17	7.071825E-19
6.240000E+03	1.725585E-17	7.117637E-19
6.250000E+03	1.737772E-17	7.163029E-19
6.260000E+03	1.749905E-17	7.208120E-19
6.270000E+03	1.761988E-17	7.252925E-19
6.280000E+03	1.774051E-17	7.297573E-19
6.290000E+03	1.786104E-17	7.342103E-19
6.300000E+03	1.798160E-17	7.386566E-19
6.310000E+03	1.810255E-17	7.431111E-19
6.320000E+03	1.822380E-17	7.475700E-19
6.330000E+03	1.834576E-17	7.520502E-19
6.340000E+03	1.846811E-17	7.565387E-19
6.350000E+03	1.859103E-17	7.610430E-19
6.360000E+03	1.871446E-17	7.655600E-19
6.370000E+03	1.883863E-17	7.700992E-19
6.380000E+03	1.896321E-17	7.746473E-19
6.390000E+03	1.908814E-17	7.792022E-19
6.400000E+03	1.921314E-17	7.837516E-19
6.410000E+03	1.933757E-17	7.882700E-19
6.420000E+03	1.946110E-17	7.927438E-19
6.430000E+03	1.958363E-17	7.971695E-19
6.440000E+03	1.970512E-17	8.015446E-19
6.450000E+03	1.982548E-17	8.058665E-19
6.460000E+03	1.994497E-17	8.101454E-19
6.470000E+03	2.006383E-17	8.143915E-19
6.480000E+03	2.018203E-17	8.186032E-19
6.490000E+03	2.029925E-17	8.227678E-19
6.500000E+03	2.041606E-17	8.269087E-19
6.510000E+03	2.053245E-17	8.310253E-19
6.520000E+03	2.064811E-17	8.351056E-19
6.530000E+03	2.076335E-17	8.391614E-19
6.540000E+03	2.087816E-17	8.431933E-19
6.550000E+03	2.099224E-17	8.471884E-19
6.560000E+03	2.110556E-17	8.511461E-19
6.570000E+03	2.121882E-17	8.550948E-19
6.580000E+03	2.133101E-17	8.589938E-19
6.590000E+03	2.144283E-17	8.628709E-19
6.600000E+03	2.155430E-17	8.667277E-19
6.610000E+03	2.166475E-17	8.705370E-19
6.620000E+03	2.177489E-17	8.743272E-19
6.630000E+03	2.188403E-17	8.780715E-19
6.640000E+03	2.199294E-17	8.817999E-19
6.650000E+03	2.210090E-17	8.854844E-19
6.660000E+03	2.220831E-17	8.891409E-19
6.670000E+03	2.231520E-17	8.927707E-19
6.680000E+03	2.242124E-17	8.963605E-19
6.690000E+03	2.252644E-17	8.999113E-19
6.700000E+03	2.263125E-17	9.034409E-19
6.710000E+03	2.273531E-17	9.069347E-19
6.720000E+03	2.283865E-17	9.103949E-19
6.730000E+03	2.294133E-17	9.138230E-19
6.740000E+03	2.304337E-17	9.172208E-19
6.750000E+03	2.314483E-17	9.205904E-19
6.760000E+03	2.324576E-17	9.239342E-19
6.770000E+03	2.334579E-17	9.272372E-19
6.780000E+03	2.344538E-17	9.305179E-19
6.790000E+03	2.354458E-17	9.337786E-19
6.800000E+03	2.364303E-17	9.370052E-19
6.810000E+03	2.374120E-17	9.402162E-19
6.820000E+03	2.383873E-17	9.433975E-19
6.830000E+03	2.393565E-17	9.465505E-19
6.840000E+03	2.403203E-17	9.496784E-19
6.850000E+03	2.412791E-17	9.527824E-19
6.860000E+03	2.422380E-17	9.558830E-19
6.870000E+03	2.431886E-17	9.589473E-19
6.880000E+03	2.441360E-17	9.619955E-19
6.890000E+03	2.450807E-17	9.650296E-19
6.900000E+03	2.460187E-17	9.680340E-19
6.910000E+03	2.469552E-17	9.710290E-19
6.920000E+03	2.478907E-17	9.740177E-19
6.930000E+03	2.488213E-17	9.769836E-19
6.940000E+03	2.497472E-17	9.799287E-19
6.950000E+03	2.506741E-17	9.828747E-19
6.960000E+03	2.515975E-17	9.858047E-19
6.970000E+03	2.525182E-17	9.887212E-19
6.980000E+03	2.534365E-17	9.916264E-19
6.990000E+03	2.543530E-17	9.945226E-19
7.000000E+03	2.552634E-17	9.973926E-19
7.010000E+03	2.561781E-17	1.000278E-18
7.020000E+03	2.570877E-17	1.003141E-18
7.030000E+03	2.579978E-17	1.006005E-18
7.040000E+03	2.589036E-17	1.008851E-18
7.050000E+03	2.598059E-17	1.011681E-18
7.060000E+03	2.607102E-17	1.014518E-18
7.070000E+03	2.616118E-17	1.017344E-18
7.080000E+03	2.625060E-17	1.020140E-18
7.090000E+03	2.634038E-17	1.022950E-18
7.100000E+03	2.643005E-17	1.025754E-18
7.110000E+03	2.651910E-17	1.028534E-18
7.120000E+03	2.660812E-17	1.031313E-18
7.130000E+03	2.669663E-17	1.034072E-18
7.140000E+03	2.678520E-17	1.036833E-18
7.150000E+03	2.687334E-17	1.039578E-18
7.160000E+03	2.696163E-17	1.042329E-18
7.170000E+03	2.704900E-17	1.045046E-18
7.180000E+03	2.713607E-17	1.047751E-18
7.190000E+03	2.722341E-17	1.050468E-18
7.200000E+03	2.730996E-17	1.053155E-18
7.210000E+03	2.739572E-17	1.055814E-18
7.220000E+03	2.748132E-17	1.058468E-18
7.230000E+03	2.756678E-17	1.061118E-18
7.240000E+03	2.765156E-17	1.063744E-18
7.250000E+03	2.773629E-17	1.066370E-18
7.260000E+03	2.782038E-17	1.068974E-18
7.270000E+03	2.790389E-17	1.071558E-18
7.280000E+03	2.798743E-17	1.074146E-18
7.290000E+03	2.807043E-17	1.076717E-18
7.300000E+03	2.815354E-17	1.079294E-18
7.310000E+03	2.823616E-17	1.081857E-18
7.320000E+03	2.831833E-17	1.084405E-18
7.330000E+03	2.840133E-17	1.086989E-18
7.340000E+03	2.848393E-17	1.089562E-18
7.350000E+03	2.856742E-17	1.092173E-18
7.360000E+03	2.865124E-17	1.094801E-18
7.370000E+03	2.873604E-17	1.097471E-18
7.380000E+03	2.882253E-17	1.100210E-18
7.390000E+03	2.891012E-17	1.102996E-18
7.400000E+03	2.900018E-17	1.105881E-18
7.410000E+03	2.909277E-17	1.108867E-18
7.420000E+03	2.918863E-17	1.111984E-18
7.430000E+03	2.928788E-17	1.115234E-18
7.440000E+03	2.939059E-17	1.118622E-18
7.450000E+03	2.949752E-17	1.122177E-18
7.460000E+03	2.960741E-17	1.125849E-18
7.470000E+03	2.972034E-17	1.129643E-18
7.480000E+03	2.983564E-17	1.133533E-18
7.490000E+03	2.995411E-17	1.137549E-18
7.500000E+03	3.007505E-17	1.141666E-18
7.510000E+03	3.019782E-17	1.145858E-18
7.520000E+03	3.032244E-17	1.150128E-18
7.530000E+03	3.044889E-17	1.154474E-18
7.540000E+03	3.057648E-17	1.158870E-18
7.550000E+03	3.070590E-17	1.163343E-18
7.560000E+03	3.083569E-17	1.167838E-18
7.570000E+03	3.096727E-17	1.172409E-18
7.580000E+03	3.109986E-17	1.177026E-18
7.590000E+03	3.123344E-17	1.181688E-18
7.600000E+03	3.136716E-17	1.186364E-18
7.610000E+03	3.150171E-17	1.191079E-18
7.620000E+03	3.163703E-17	1.195831E-18
7.630000E+03	3.177304E-17	1.200618E-18
7.640000E+03	3.190884E-17	1.205405E-18
7.650000E+03	3.204512E-17	1.210218E-18
7.660000E+03	3.218096E-17	1.215023E-18
7.670000E+03	3.231786E-17	1.219876E-18
7.680000E+03	3.245327E-17	1.224681E-18
7.690000E+03	3.258947E-17	1.229524E-18
7.700000E+03	3.272553E-17	1.234370E-18
7.710000E+03	3.286046E-17	1.239182E-18
7.720000E+03	3.299495E-17	1.243986E-18
7.730000E+03	3.312882E-17	1.248775E-18
7.740000E+03	3.326193E-17	1.253544E-18
7.750000E+03	3.339410E-17	1.258286E-18
7.760000E+03	3.352603E-17	1.263028E-18
