#wls	flux	fluxerr
1.600000E+03	2.798499E-16	5.578702E-17
1.640000E+03	2.879219E-16	5.739416E-17
1.680000E+03	2.954683E-16	5.889627E-17
1.720000E+03	3.024327E-16	6.028211E-17
1.760000E+03	3.086342E-16	6.151566E-17
1.800000E+03	3.140635E-16	6.259501E-17
1.840000E+03	3.185332E-16	6.348287E-17
1.880000E+03	3.219990E-16	6.417039E-17
1.920000E+03	3.243598E-16	6.463744E-17
1.960000E+03	3.254672E-16	6.485451E-17
2.000000E+03	3.252872E-16	6.481482E-17
2.040000E+03	3.237194E-16	6.449842E-17
2.080000E+03	3.206844E-16	6.388954E-17
2.120000E+03	3.161277E-16	6.297738E-17
2.160000E+03	3.099842E-16	6.174902E-17
2.200000E+03	3.021586E-16	6.018557E-17
2.240000E+03	2.925712E-16	5.827123E-17
2.280000E+03	2.812730E-16	5.601627E-17
2.320000E+03	2.684951E-16	5.346680E-17
2.360000E+03	2.546300E-16	5.070108E-17
2.400000E+03	2.399894E-16	4.778125E-17
2.440000E+03	2.248540E-16	4.476331E-17
2.480000E+03	2.094261E-16	4.168753E-17
2.520000E+03	1.939154E-16	3.859574E-17
2.560000E+03	1.784904E-16	3.552151E-17
2.600000E+03	1.633237E-16	3.249922E-17
2.640000E+03	1.485525E-16	2.955620E-17
2.680000E+03	1.343038E-16	2.671772E-17
2.720000E+03	1.206907E-16	2.400628E-17
2.760000E+03	1.077995E-16	2.143903E-17
2.800000E+03	9.570390E-17	1.903060E-17
2.840000E+03	8.445919E-17	1.679197E-17
2.880000E+03	7.410806E-17	1.473157E-17
2.920000E+03	6.467870E-17	1.285497E-17
2.960000E+03	5.617973E-17	1.116381E-17
3.000000E+03	4.860115E-17	9.656036E-18
3.010000E+03	4.684706E-17	9.307094E-18
3.020000E+03	4.514709E-17	8.968931E-18
3.030000E+03	4.350222E-17	8.641744E-18
3.040000E+03	4.190939E-17	8.324920E-18
3.050000E+03	4.036940E-17	8.018620E-18
3.060000E+03	3.888100E-17	7.722594E-18
3.070000E+03	3.744382E-17	7.436764E-18
3.080000E+03	3.605500E-17	7.160566E-18
3.090000E+03	3.471564E-17	6.894215E-18
3.100000E+03	3.342301E-17	6.637165E-18
3.110000E+03	3.217725E-17	6.389447E-18
3.120000E+03	3.097706E-17	6.150800E-18
3.130000E+03	2.982055E-17	5.920848E-18
3.140000E+03	2.870770E-17	5.699586E-18
3.150000E+03	2.763667E-17	5.486646E-18
3.160000E+03	2.660678E-17	5.281894E-18
3.170000E+03	2.561676E-17	5.085077E-18
3.180000E+03	2.466543E-17	4.895959E-18
3.190000E+03	2.375202E-17	4.714385E-18
3.200000E+03	2.287533E-17	4.540118E-18
3.210000E+03	2.203384E-17	4.372853E-18
3.220000E+03	2.122720E-17	4.212522E-18
3.230000E+03	2.045398E-17	4.058837E-18
3.240000E+03	1.971348E-17	3.911663E-18
3.250000E+03	1.900467E-17	3.770792E-18
3.260000E+03	1.832625E-17	3.635965E-18
3.270000E+03	1.767782E-17	3.507099E-18
3.280000E+03	1.705781E-17	3.383887E-18
3.290000E+03	1.646576E-17	3.266236E-18
3.300000E+03	1.590071E-17	3.153951E-18
3.310000E+03	1.536116E-17	3.046737E-18
3.320000E+03	1.484666E-17	2.944501E-18
3.330000E+03	1.435623E-17	2.847052E-18
3.340000E+03	1.388873E-17	2.754161E-18
3.350000E+03	1.344329E-17	2.665654E-18
3.360000E+03	1.301903E-17	2.581356E-18
3.370000E+03	1.261511E-17	2.501101E-18
3.380000E+03	1.223071E-17	2.424726E-18
3.390000E+03	1.186504E-17	2.352070E-18
3.400000E+03	1.151716E-17	2.282951E-18
3.410000E+03	1.118620E-17	2.217194E-18
3.420000E+03	1.087176E-17	2.154717E-18
3.430000E+03	1.057273E-17	2.095302E-18
3.440000E+03	1.028860E-17	2.038849E-18
3.450000E+03	1.001864E-17	1.985208E-18
3.460000E+03	9.762254E-18	1.934264E-18
3.470000E+03	9.518653E-18	1.885859E-18
3.480000E+03	9.287209E-18	1.839868E-18
3.490000E+03	9.067436E-18	1.796194E-18
3.500000E+03	8.858667E-18	1.754706E-18
3.510000E+03	8.660471E-18	1.715317E-18
3.520000E+03	8.472068E-18	1.677872E-18
3.530000E+03	8.293101E-18	1.642301E-18
3.540000E+03	8.122967E-18	1.608482E-18
3.550000E+03	7.961192E-18	1.576324E-18
3.560000E+03	7.807334E-18	1.545736E-18
3.570000E+03	7.660822E-18	1.516607E-18
3.580000E+03	7.521436E-18	1.488891E-18
3.590000E+03	7.388737E-18	1.462503E-18
3.600000E+03	7.262315E-18	1.437361E-18
3.610000E+03	7.142000E-18	1.413430E-18
3.620000E+03	7.027351E-18	1.390623E-18
3.630000E+03	6.918094E-18	1.368886E-18
3.640000E+03	6.813966E-18	1.348167E-18
3.650000E+03	6.714722E-18	1.328416E-18
3.660000E+03	6.620131E-18	1.309588E-18
3.670000E+03	6.529971E-18	1.291639E-18
3.680000E+03	6.444092E-18	1.274538E-18
3.690000E+03	6.362348E-18	1.258258E-18
3.700000E+03	6.284543E-18	1.242758E-18
3.710000E+03	6.210707E-18	1.228045E-18
3.720000E+03	6.140589E-18	1.214069E-18
3.730000E+03	6.074166E-18	1.200824E-18
3.740000E+03	6.011302E-18	1.188285E-18
3.750000E+03	5.951915E-18	1.176435E-18
3.760000E+03	5.896022E-18	1.165276E-18
3.770000E+03	5.843386E-18	1.154762E-18
3.780000E+03	5.794025E-18	1.144896E-18
3.790000E+03	5.747897E-18	1.135670E-18
3.800000E+03	5.704824E-18	1.127048E-18
3.810000E+03	5.664812E-18	1.119031E-18
3.820000E+03	5.627819E-18	1.111612E-18
3.830000E+03	5.593718E-18	1.104764E-18
3.840000E+03	5.562421E-18	1.098471E-18
3.850000E+03	5.533982E-18	1.092742E-18
3.860000E+03	5.508223E-18	1.087542E-18
3.870000E+03	5.485156E-18	1.082874E-18
3.880000E+03	5.464694E-18	1.078720E-18
3.890000E+03	5.446801E-18	1.075073E-18
3.900000E+03	5.431443E-18	1.071926E-18
3.910000E+03	5.418496E-18	1.069255E-18
3.920000E+03	5.407925E-18	1.067052E-18
3.930000E+03	5.399743E-18	1.065320E-18
3.940000E+03	5.393872E-18	1.064043E-18
3.950000E+03	5.390239E-18	1.063206E-18
3.960000E+03	5.388812E-18	1.062804E-18
3.970000E+03	5.389522E-18	1.062823E-18
3.980000E+03	5.392336E-18	1.063255E-18
3.990000E+03	5.397229E-18	1.064096E-18
4.000000E+03	5.404175E-18	1.065340E-18
4.010000E+03	5.413063E-18	1.066966E-18
4.020000E+03	5.423871E-18	1.068969E-18
4.030000E+03	5.436579E-18	1.071344E-18
4.040000E+03	5.451167E-18	1.074089E-18
4.050000E+03	5.467573E-18	1.077189E-18
4.060000E+03	5.485742E-18	1.080635E-18
4.070000E+03	5.505658E-18	1.084424E-18
4.080000E+03	5.527266E-18	1.088543E-18
4.090000E+03	5.550553E-18	1.092991E-18
4.100000E+03	5.575464E-18	1.097756E-18
4.110000E+03	5.601990E-18	1.102836E-18
4.120000E+03	5.630076E-18	1.108222E-18
4.130000E+03	5.659669E-18	1.113901E-18
4.140000E+03	5.690760E-18	1.119872E-18
4.150000E+03	5.723297E-18	1.126125E-18
4.160000E+03	5.757272E-18	1.132658E-18
4.170000E+03	5.792593E-18	1.139452E-18
4.180000E+03	5.829254E-18	1.146507E-18
4.190000E+03	5.867161E-18	1.153804E-18
4.200000E+03	5.906359E-18	1.161352E-18
4.210000E+03	5.946753E-18	1.169131E-18
4.220000E+03	5.988341E-18	1.177141E-18
4.230000E+03	6.030984E-18	1.185354E-18
4.240000E+03	6.074725E-18	1.193780E-18
4.250000E+03	6.119421E-18	1.202390E-18
4.260000E+03	6.165116E-18	1.211192E-18
4.270000E+03	6.211665E-18	1.220157E-18
4.280000E+03	6.258964E-18	1.229266E-18
4.290000E+03	6.307062E-18	1.238527E-18
4.300000E+03	6.355755E-18	1.247901E-18
4.310000E+03	6.405093E-18	1.257398E-18
4.320000E+03	6.454870E-18	1.266975E-18
4.330000E+03	6.505138E-18	1.276645E-18
4.340000E+03	6.555790E-18	1.286385E-18
4.350000E+03	6.606725E-18	1.296177E-18
4.360000E+03	6.657938E-18	1.306017E-18
4.370000E+03	6.709378E-18	1.315898E-18
4.380000E+03	6.761097E-18	1.325828E-18
4.390000E+03	6.812986E-18	1.335787E-18
4.400000E+03	6.865157E-18	1.345796E-18
4.410000E+03	6.917612E-18	1.355856E-18
4.420000E+03	6.970358E-18	1.365968E-18
4.430000E+03	7.023400E-18	1.376132E-18
4.440000E+03	7.076805E-18	1.386362E-18
4.450000E+03	7.130525E-18	1.396648E-18
4.460000E+03	7.184635E-18	1.407006E-18
4.470000E+03	7.239145E-18	1.417436E-18
4.480000E+03	7.294078E-18	1.427943E-18
4.490000E+03	7.349386E-18	1.438518E-18
4.500000E+03	7.405088E-18	1.449164E-18
4.510000E+03	7.461141E-18	1.459873E-18
4.520000E+03	7.517618E-18	1.470660E-18
4.530000E+03	7.574415E-18	1.481502E-18
4.540000E+03	7.631542E-18	1.492404E-18
4.550000E+03	7.689014E-18	1.503366E-18
4.560000E+03	7.746717E-18	1.514367E-18
4.570000E+03	7.804731E-18	1.525423E-18
4.580000E+03	7.862939E-18	1.536510E-18
4.590000E+03	7.921359E-18	1.547632E-18
4.600000E+03	7.979879E-18	1.558767E-18
4.610000E+03	8.038586E-18	1.569931E-18
4.620000E+03	8.097442E-18	1.581118E-18
4.630000E+03	8.156335E-18	1.592306E-18
4.640000E+03	8.215299E-18	1.603500E-18
4.650000E+03	8.274369E-18	1.614708E-18
4.660000E+03	8.333513E-18	1.625924E-18
4.670000E+03	8.392629E-18	1.637126E-18
4.680000E+03	8.451907E-18	1.648354E-18
4.690000E+03	8.511405E-18	1.659616E-18
4.700000E+03	8.571028E-18	1.670896E-18
4.710000E+03	8.630836E-18	1.682205E-18
4.720000E+03	8.690892E-18	1.693554E-18
4.730000E+03	8.751032E-18	1.704912E-18
4.740000E+03	8.811325E-18	1.716292E-18
4.750000E+03	8.871681E-18	1.727676E-18
4.760000E+03	8.932179E-18	1.739081E-18
4.770000E+03	8.992813E-18	1.750504E-18
4.780000E+03	9.053503E-18	1.761929E-18
4.790000E+03	9.114329E-18	1.773373E-18
4.800000E+03	9.175214E-18	1.784820E-18
4.810000E+03	9.236245E-18	1.796288E-18
4.820000E+03	9.297343E-18	1.807760E-18
4.830000E+03	9.358515E-18	1.819237E-18
4.840000E+03	9.419767E-18	1.830722E-18
4.850000E+03	9.481197E-18	1.842233E-18
4.860000E+03	9.542722E-18	1.853754E-18
4.870000E+03	9.604350E-18	1.865285E-18
4.880000E+03	9.665996E-18	1.876812E-18
4.890000E+03	9.727840E-18	1.888367E-18
4.900000E+03	9.789797E-18	1.899936E-18
4.910000E+03	9.851863E-18	1.911516E-18
4.920000E+03	9.913939E-18	1.923089E-18
4.930000E+03	9.976110E-18	1.934671E-18
4.940000E+03	1.003827E-17	1.946242E-18
4.950000E+03	1.010040E-17	1.957797E-18
4.960000E+03	1.016259E-17	1.969354E-18
4.970000E+03	1.022472E-17	1.980889E-18
4.980000E+03	1.028677E-17	1.992400E-18
4.990000E+03	1.034862E-17	2.003863E-18
5.000000E+03	1.041036E-17	2.015292E-18
5.010000E+03	1.047194E-17	2.026683E-18
5.020000E+03	1.053325E-17	2.038010E-18
5.030000E+03	1.059425E-17	2.049267E-18
5.040000E+03	1.065490E-17	2.060446E-18
5.050000E+03	1.071506E-17	2.071520E-18
5.060000E+03	1.077479E-17	2.082501E-18
5.070000E+03	1.083405E-17	2.093380E-18
5.080000E+03	1.089259E-17	2.104109E-18
5.090000E+03	1.095047E-17	2.114701E-18
5.100000E+03	1.100765E-17	2.125149E-18
5.110000E+03	1.106399E-17	2.135423E-18
5.120000E+03	1.111947E-17	2.145520E-18
5.130000E+03	1.117405E-17	2.155434E-18
5.140000E+03	1.122770E-17	2.165158E-18
5.150000E+03	1.128030E-17	2.174668E-18
5.160000E+03	1.133193E-17	2.183981E-18
5.170000E+03	1.138233E-17	2.193048E-18
5.180000E+03	1.143159E-17	2.201885E-18
5.190000E+03	1.147957E-17	2.210463E-18
5.200000E+03	1.152621E-17	2.218774E-18
5.210000E+03	1.157146E-17	2.226809E-18
5.220000E+03	1.161527E-17	2.234556E-18
5.230000E+03	1.165734E-17	2.241957E-18
5.240000E+03	1.169781E-17	2.249042E-18
5.250000E+03	1.173648E-17	2.255770E-18
5.260000E+03	1.177324E-17	2.262123E-18
5.270000E+03	1.180787E-17	2.268058E-18
5.280000E+03	1.184026E-17	2.273551E-18
5.290000E+03	1.187029E-17	2.278583E-18
5.300000E+03	1.189783E-17	2.283129E-18
5.310000E+03	1.192277E-17	2.287168E-18
5.320000E+03	1.194490E-17	2.290659E-18
5.330000E+03	1.196436E-17	2.293630E-18
5.340000E+03	1.198082E-17	2.296019E-18
5.350000E+03	1.199422E-17	2.297815E-18
5.360000E+03	1.200474E-17	2.299052E-18
5.370000E+03	1.201211E-17	2.299678E-18
5.380000E+03	1.201652E-17	2.299733E-18
5.390000E+03	1.201784E-17	2.299191E-18
5.400000E+03	1.201619E-17	2.298074E-18
5.410000E+03	1.201144E-17	2.296359E-18
5.420000E+03	1.200384E-17	2.294096E-18
5.430000E+03	1.199330E-17	2.291266E-18
5.440000E+03	1.197998E-17	2.287902E-18
5.450000E+03	1.196369E-17	2.283966E-18
5.460000E+03	1.194461E-17	2.279494E-18
5.470000E+03	1.192269E-17	2.274479E-18
5.480000E+03	1.189790E-17	2.268913E-18
5.490000E+03	1.187046E-17	2.262840E-18
5.500000E+03	1.184023E-17	2.256235E-18
5.510000E+03	1.180722E-17	2.249097E-18
5.520000E+03	1.177155E-17	2.241453E-18
5.530000E+03	1.173312E-17	2.233283E-18
5.540000E+03	1.169218E-17	2.224636E-18
5.550000E+03	1.164853E-17	2.215472E-18
5.560000E+03	1.160253E-17	2.205864E-18
5.570000E+03	1.155423E-17	2.195819E-18
5.580000E+03	1.150365E-17	2.185342E-18
5.590000E+03	1.145092E-17	2.174461E-18
5.600000E+03	1.139620E-17	2.163203E-18
5.610000E+03	1.133951E-17	2.151573E-18
5.620000E+03	1.128120E-17	2.139640E-18
5.630000E+03	1.122117E-17	2.127384E-18
5.640000E+03	1.115977E-17	2.114873E-18
5.650000E+03	1.109688E-17	2.102083E-18
5.660000E+03	1.103284E-17	2.089079E-18
5.670000E+03	1.096774E-17	2.075882E-18
5.680000E+03	1.090158E-17	2.062486E-18
5.690000E+03	1.083455E-17	2.048932E-18
5.700000E+03	1.076675E-17	2.035236E-18
5.710000E+03	1.069836E-17	2.021435E-18
5.720000E+03	1.062946E-17	2.007544E-18
5.730000E+03	1.056001E-17	1.993556E-18
5.740000E+03	1.049032E-17	1.979527E-18
5.750000E+03	1.042046E-17	1.965471E-18
5.760000E+03	1.035038E-17	1.951381E-18
5.770000E+03	1.028026E-17	1.937292E-18
5.780000E+03	1.021030E-17	1.923236E-18
5.790000E+03	1.014055E-17	1.909229E-18
5.800000E+03	1.007100E-17	1.895264E-18
5.810000E+03	1.000181E-17	1.881374E-18
5.820000E+03	9.933175E-18	1.867596E-18
5.830000E+03	9.865178E-18	1.853944E-18
5.840000E+03	9.797792E-18	1.840413E-18
5.850000E+03	9.731207E-18	1.827040E-18
5.860000E+03	9.665512E-18	1.813840E-18
5.870000E+03	9.600902E-18	1.800850E-18
5.880000E+03	9.537465E-18	1.788086E-18
5.890000E+03	9.475187E-18	1.775546E-18
5.900000E+03	9.414262E-18	1.763266E-18
5.910000E+03	9.354672E-18	1.751241E-18
5.920000E+03	9.296812E-18	1.739546E-18
5.930000E+03	9.240442E-18	1.728135E-18
5.940000E+03	9.185738E-18	1.717041E-18
5.950000E+03	9.132862E-18	1.706294E-18
5.960000E+03	9.081769E-18	1.695884E-18
5.970000E+03	9.032504E-18	1.685820E-18
5.980000E+03	8.985212E-18	1.676129E-18
5.990000E+03	8.939825E-18	1.666797E-18
6.000000E+03	8.896478E-18	1.657849E-18
6.010000E+03	8.854989E-18	1.649250E-18
6.020000E+03	8.815581E-18	1.641042E-18
6.030000E+03	8.778067E-18	1.633188E-18
6.040000E+03	8.742663E-18	1.625730E-18
6.050000E+03	8.709066E-18	1.618609E-18
6.060000E+03	8.677486E-18	1.611865E-18
6.070000E+03	8.647820E-18	1.605477E-18
6.080000E+03	8.620066E-18	1.599445E-18
6.090000E+03	8.594010E-18	1.593729E-18
6.100000E+03	8.569848E-18	1.588364E-18
6.110000E+03	8.547262E-18	1.583291E-18
6.120000E+03	8.526439E-18	1.578544E-18
6.130000E+03	8.507053E-18	1.574062E-18
6.140000E+03	8.489082E-18	1.569841E-18
6.150000E+03	8.472397E-18	1.565856E-18
6.160000E+03	8.456972E-18	1.562103E-18
6.170000E+03	8.442461E-18	1.558516E-18
6.180000E+03	8.428830E-18	1.555090E-18
6.190000E+03	8.415935E-18	1.551798E-18
6.200000E+03	8.403735E-18	1.548631E-18
6.210000E+03	8.392185E-18	1.545582E-18
6.220000E+03	8.381456E-18	1.542681E-18
6.230000E+03	8.371825E-18	1.539980E-18
6.240000E+03	8.363361E-18	1.537490E-18
6.250000E+03	8.356242E-18	1.535244E-18
6.260000E+03	8.350649E-18	1.533275E-18
6.270000E+03	8.346656E-18	1.531596E-18
6.280000E+03	8.344457E-18	1.530241E-18
6.290000E+03	8.344132E-18	1.529226E-18
6.300000E+03	8.345772E-18	1.528565E-18
6.310000E+03	8.349580E-18	1.528295E-18
6.320000E+03	8.355540E-18	1.528413E-18
6.330000E+03	8.363869E-18	1.528958E-18
6.340000E+03	8.374438E-18	1.529905E-18
6.350000E+03	8.387358E-18	1.531273E-18
6.360000E+03	8.402622E-18	1.533061E-18
6.370000E+03	8.420345E-18	1.535289E-18
6.380000E+03	8.440409E-18	1.537933E-18
6.390000E+03	8.462812E-18	1.540993E-18
6.400000E+03	8.487433E-18	1.544446E-18
6.410000E+03	8.514026E-18	1.548247E-18
6.420000E+03	8.542458E-18	1.552370E-18
6.430000E+03	8.572721E-18	1.556813E-18
6.440000E+03	8.604808E-18	1.561575E-18
6.450000E+03	8.638710E-18	1.566652E-18
6.460000E+03	8.674554E-18	1.572067E-18
6.470000E+03	8.712468E-18	1.577843E-18
6.480000E+03	8.752455E-18	1.583979E-18
6.490000E+03	8.794387E-18	1.590451E-18
6.500000E+03	8.838537E-18	1.597308E-18
6.510000E+03	8.884915E-18	1.604551E-18
6.520000E+03	8.933397E-18	1.612155E-18
6.530000E+03	8.984133E-18	1.620148E-18
6.540000E+03	9.037135E-18	1.628531E-18
6.550000E+03	9.092277E-18	1.637280E-18
6.560000E+03	9.149573E-18	1.646396E-18
6.570000E+03	9.209330E-18	1.655934E-18
6.580000E+03	9.271125E-18	1.665816E-18
6.590000E+03	9.335270E-18	1.676098E-18
6.600000E+03	9.401785E-18	1.686783E-18
6.610000E+03	9.470387E-18	1.697818E-18
6.620000E+03	9.541398E-18	1.709260E-18
6.630000E+03	9.614527E-18	1.721056E-18
6.640000E+03	9.690106E-18	1.733264E-18
6.650000E+03	9.767836E-18	1.745831E-18
6.660000E+03	9.847896E-18	1.758786E-18
6.670000E+03	9.930307E-18	1.772132E-18
6.680000E+03	1.001492E-17	1.785843E-18
6.690000E+03	1.010175E-17	1.799919E-18
6.700000E+03	1.019099E-17	1.814393E-18
6.710000E+03	1.028249E-17	1.829238E-18
6.720000E+03	1.037627E-17	1.844455E-18
6.730000E+03	1.047234E-17	1.860047E-18
6.740000E+03	1.057072E-17	1.876016E-18
6.750000E+03	1.067144E-17	1.892366E-18
6.760000E+03	1.077452E-17	1.909097E-18
6.770000E+03	1.087980E-17	1.926181E-18
6.780000E+03	1.098747E-17	1.943653E-18
6.790000E+03	1.109757E-17	1.961516E-18
6.800000E+03	1.120993E-17	1.979737E-18
6.810000E+03	1.132475E-17	1.998356E-18
6.820000E+03	1.144187E-17	2.017337E-18
6.830000E+03	1.156130E-17	2.036685E-18
6.840000E+03	1.168305E-17	2.056400E-18
6.850000E+03	1.180715E-17	2.076484E-18
6.860000E+03	1.193384E-17	2.096979E-18
6.870000E+03	1.206269E-17	2.117810E-18
6.880000E+03	1.219396E-17	2.139017E-18
6.890000E+03	1.232764E-17	2.160603E-18
6.900000E+03	1.246355E-17	2.182528E-18
6.910000E+03	1.260191E-17	2.204837E-18
6.920000E+03	1.274276E-17	2.227530E-18
6.930000E+03	1.288588E-17	2.250567E-18
6.940000E+03	1.303126E-17	2.273950E-18
6.950000E+03	1.317917E-17	2.297722E-18
6.960000E+03	1.332939E-17	2.321841E-18
6.970000E+03	1.348190E-17	2.346307E-18
6.980000E+03	1.363673E-17	2.371119E-18
6.990000E+03	1.379388E-17	2.396278E-18
7.000000E+03	1.395308E-17	2.421737E-18
7.010000E+03	1.411488E-17	2.447589E-18
7.020000E+03	1.427872E-17	2.473737E-18
7.030000E+03	1.444490E-17	2.500229E-18
7.040000E+03	1.461310E-17	2.527010E-18
7.050000E+03	1.478336E-17	2.554085E-18
7.060000E+03	1.495592E-17	2.581495E-18
7.070000E+03	1.513050E-17	2.609190E-18
7.080000E+03	1.530677E-17	2.637112E-18
7.090000E+03	1.548533E-17	2.665365E-18
7.100000E+03	1.566588E-17	2.693893E-18
7.110000E+03	1.584805E-17	2.722633E-18
7.120000E+03	1.603216E-17	2.751638E-18
7.130000E+03	1.621783E-17	2.780843E-18
7.140000E+03	1.640538E-17	2.810302E-18
7.150000E+03	1.659446E-17	2.839951E-18
7.160000E+03	1.678535E-17	2.869841E-18
7.170000E+03	1.697734E-17	2.899849E-18
7.180000E+03	1.717072E-17	2.930021E-18
7.190000E+03	1.736583E-17	2.960415E-18
7.200000E+03	1.756188E-17	2.990898E-18
7.210000E+03	1.775885E-17	3.021463E-18
7.220000E+03	1.795700E-17	3.052156E-18
7.230000E+03	1.815634E-17	3.082975E-18
7.240000E+03	1.835640E-17	3.113842E-18
7.250000E+03	1.855749E-17	3.144809E-18
7.260000E+03	1.875919E-17	3.175803E-18
7.270000E+03	1.896140E-17	3.206807E-18
7.280000E+03	1.916445E-17	3.237878E-18
7.290000E+03	1.936786E-17	3.268931E-18
7.300000E+03	1.957194E-17	3.300021E-18
7.310000E+03	1.977617E-17	3.331060E-18
7.320000E+03	1.998047E-17	3.362033E-18
7.330000E+03	2.018561E-17	3.393070E-18
7.340000E+03	2.039062E-17	3.424007E-18
7.350000E+03	2.059628E-17	3.454976E-18
7.360000E+03	2.080207E-17	3.485889E-18
7.370000E+03	2.100839E-17	3.516812E-18
7.380000E+03	2.121562E-17	3.547810E-18
7.390000E+03	2.142328E-17	3.578800E-18
7.400000E+03	2.163227E-17	3.609934E-18
7.410000E+03	2.184260E-17	3.641213E-18
7.420000E+03	2.205475E-17	3.672716E-18
7.430000E+03	2.226877E-17	3.704450E-18
7.440000E+03	2.248471E-17	3.736420E-18
7.450000E+03	2.270310E-17	3.768719E-18
7.460000E+03	2.292296E-17	3.801178E-18
7.470000E+03	2.314431E-17	3.833802E-18
7.480000E+03	2.336665E-17	3.866506E-18
7.490000E+03	2.359056E-17	3.899388E-18
7.500000E+03	2.381550E-17	3.932356E-18
7.510000E+03	2.404097E-17	3.965328E-18
7.520000E+03	2.426695E-17	3.998300E-18
7.530000E+03	2.449349E-17	4.031281E-18
7.540000E+03	2.472003E-17	4.064178E-18
7.550000E+03	2.494719E-17	4.097094E-18
7.560000E+03	2.517381E-17	4.129838E-18
7.570000E+03	2.540111E-17	4.162610E-18
7.580000E+03	2.562854E-17	4.195322E-18
7.590000E+03	2.585615E-17	4.227979E-18
7.600000E+03	2.608329E-17	4.260477E-18
7.610000E+03	2.631061E-17	4.292922E-18
7.620000E+03	2.653808E-17	4.325311E-18
7.630000E+03	2.676567E-17	4.357637E-18
7.640000E+03	2.699264E-17	4.389783E-18
7.650000E+03	2.721954E-17	4.421835E-18
7.660000E+03	2.744558E-17	4.453669E-18
7.670000E+03	2.767194E-17	4.485475E-18
7.680000E+03	2.789640E-17	4.516892E-18
7.690000E+03	2.812081E-17	4.548224E-18
7.700000E+03	2.834427E-17	4.579324E-18
7.710000E+03	2.856581E-17	4.610037E-18
7.720000E+03	2.878589E-17	4.640439E-18
7.730000E+03	2.900425E-17	4.670487E-18
7.740000E+03	2.922059E-17	4.700137E-18
7.750000E+03	2.943464E-17	4.729344E-18
7.760000E+03	2.964684E-17	4.758183E-18
