#wls	flux	fluxerr
1.600000E+03	3.638024E-16	1.222335E-16
1.640000E+03	3.745259E-16	1.258344E-16
1.680000E+03	3.845633E-16	1.292046E-16
1.720000E+03	3.938000E-16	1.323056E-16
1.760000E+03	4.020728E-16	1.350827E-16
1.800000E+03	4.092510E-16	1.374918E-16
1.840000E+03	4.151614E-16	1.394748E-16
1.880000E+03	4.197040E-16	1.409981E-16
1.920000E+03	4.227416E-16	1.420158E-16
1.960000E+03	4.241081E-16	1.424719E-16
2.000000E+03	4.237177E-16	1.423377E-16
2.040000E+03	4.214324E-16	1.415669E-16
2.080000E+03	4.171415E-16	1.401224E-16
2.120000E+03	4.108240E-16	1.379971E-16
2.160000E+03	4.023536E-16	1.351487E-16
2.200000E+03	3.916689E-16	1.315565E-16
2.240000E+03	3.787107E-16	1.272009E-16
2.280000E+03	3.633675E-16	1.220443E-16
2.320000E+03	3.461127E-16	1.162458E-16
2.360000E+03	3.274236E-16	1.099659E-16
2.400000E+03	3.076831E-16	1.033331E-16
2.440000E+03	2.872172E-16	9.645698E-17
2.480000E+03	2.663340E-16	8.944109E-17
2.520000E+03	2.453120E-16	8.237891E-17
2.560000E+03	2.243947E-16	7.535224E-17
2.600000E+03	2.038258E-16	6.844299E-17
2.640000E+03	1.838232E-16	6.172423E-17
2.680000E+03	1.645804E-16	5.526099E-17
2.720000E+03	1.462659E-16	4.910983E-17
2.760000E+03	1.290302E-16	4.332126E-17
2.800000E+03	1.129755E-16	3.792959E-17
2.840000E+03	9.818278E-17	3.296194E-17
2.880000E+03	8.471276E-17	2.843868E-17
2.920000E+03	7.259621E-17	2.437009E-17
2.960000E+03	6.183790E-17	2.075774E-17
3.000000E+03	5.240619E-17	1.759096E-17
3.010000E+03	5.024797E-17	1.686634E-17
3.020000E+03	4.816715E-17	1.616771E-17
3.030000E+03	4.616303E-17	1.549485E-17
3.040000E+03	4.423373E-17	1.484711E-17
3.050000E+03	4.237736E-17	1.422386E-17
3.060000E+03	4.059291E-17	1.362476E-17
3.070000E+03	3.887751E-17	1.304885E-17
3.080000E+03	3.723091E-17	1.249604E-17
3.090000E+03	3.565025E-17	1.196538E-17
3.100000E+03	3.413429E-17	1.145644E-17
3.110000E+03	3.268098E-17	1.096855E-17
3.120000E+03	3.128899E-17	1.050124E-17
3.130000E+03	2.995625E-17	1.005383E-17
3.140000E+03	2.868076E-17	9.625638E-18
3.150000E+03	2.746108E-17	9.216190E-18
3.160000E+03	2.629471E-17	8.824639E-18
3.170000E+03	2.518072E-17	8.450679E-18
3.180000E+03	2.411670E-17	8.093494E-18
3.190000E+03	2.310119E-17	7.752598E-18
3.200000E+03	2.213236E-17	7.427376E-18
3.210000E+03	2.120836E-17	7.117203E-18
3.220000E+03	2.032778E-17	6.821609E-18
3.230000E+03	1.948884E-17	6.539998E-18
3.240000E+03	1.868952E-17	6.271687E-18
3.250000E+03	1.792908E-17	6.016428E-18
3.260000E+03	1.720497E-17	5.773366E-18
3.270000E+03	1.651646E-17	5.542257E-18
3.280000E+03	1.586147E-17	5.322398E-18
3.290000E+03	1.523875E-17	5.113377E-18
3.300000E+03	1.464710E-17	4.914782E-18
3.310000E+03	1.408464E-17	4.725991E-18
3.320000E+03	1.355049E-17	4.546700E-18
3.330000E+03	1.304331E-17	4.376463E-18
3.340000E+03	1.256164E-17	4.214792E-18
3.350000E+03	1.210431E-17	4.061291E-18
3.360000E+03	1.167017E-17	3.915573E-18
3.370000E+03	1.125828E-17	3.777323E-18
3.380000E+03	1.086727E-17	3.646084E-18
3.390000E+03	1.049645E-17	3.521620E-18
3.400000E+03	1.014456E-17	3.403511E-18
3.410000E+03	9.810708E-18	3.291458E-18
3.420000E+03	9.494163E-18	3.185214E-18
3.430000E+03	9.193743E-18	3.084382E-18
3.440000E+03	8.908917E-18	2.988783E-18
3.450000E+03	8.638837E-18	2.898135E-18
3.460000E+03	8.382507E-18	2.812101E-18
3.470000E+03	8.139495E-18	2.730538E-18
3.480000E+03	7.908907E-18	2.653144E-18
3.490000E+03	7.690184E-18	2.579732E-18
3.500000E+03	7.482710E-18	2.510096E-18
3.510000E+03	7.285667E-18	2.443961E-18
3.520000E+03	7.098618E-18	2.381180E-18
3.530000E+03	6.920920E-18	2.321537E-18
3.540000E+03	6.751982E-18	2.264835E-18
3.550000E+03	6.591331E-18	2.210913E-18
3.560000E+03	6.438388E-18	2.159578E-18
3.570000E+03	6.292688E-18	2.110675E-18
3.580000E+03	6.153738E-18	2.064036E-18
3.590000E+03	6.021202E-18	2.019550E-18
3.600000E+03	5.894703E-18	1.977090E-18
3.610000E+03	5.773839E-18	1.936521E-18
3.620000E+03	5.658338E-18	1.897753E-18
3.630000E+03	5.547946E-18	1.860698E-18
3.640000E+03	5.442316E-18	1.825242E-18
3.650000E+03	5.341369E-18	1.791357E-18
3.660000E+03	5.244784E-18	1.758936E-18
3.670000E+03	5.152442E-18	1.727938E-18
3.680000E+03	5.064179E-18	1.698310E-18
3.690000E+03	4.979832E-18	1.669995E-18
3.700000E+03	4.899285E-18	1.642956E-18
3.710000E+03	4.822470E-18	1.617169E-18
3.720000E+03	4.749140E-18	1.592551E-18
3.730000E+03	4.679311E-18	1.569108E-18
3.740000E+03	4.612787E-18	1.546774E-18
3.750000E+03	4.549495E-18	1.525524E-18
3.760000E+03	4.489361E-18	1.505333E-18
3.770000E+03	4.432207E-18	1.486143E-18
3.780000E+03	4.378029E-18	1.467950E-18
3.790000E+03	4.326689E-18	1.450710E-18
3.800000E+03	4.278116E-18	1.434398E-18
3.810000E+03	4.232210E-18	1.418980E-18
3.820000E+03	4.188906E-18	1.404436E-18
3.830000E+03	4.148107E-18	1.390731E-18
3.840000E+03	4.109750E-18	1.377846E-18
3.850000E+03	4.073745E-18	1.365749E-18
3.860000E+03	4.040067E-18	1.354433E-18
3.870000E+03	4.008628E-18	1.343868E-18
3.880000E+03	3.979344E-18	1.334025E-18
3.890000E+03	3.952162E-18	1.324888E-18
3.900000E+03	3.927003E-18	1.316428E-18
3.910000E+03	3.903849E-18	1.308641E-18
3.920000E+03	3.882626E-18	1.301502E-18
3.930000E+03	3.863289E-18	1.294994E-18
3.940000E+03	3.845763E-18	1.289094E-18
3.950000E+03	3.829981E-18	1.283778E-18
3.960000E+03	3.815960E-18	1.279053E-18
3.970000E+03	3.803576E-18	1.274877E-18
3.980000E+03	3.792821E-18	1.271246E-18
3.990000E+03	3.783631E-18	1.268140E-18
4.000000E+03	3.775972E-18	1.265547E-18
4.010000E+03	3.769811E-18	1.263456E-18
4.020000E+03	3.765062E-18	1.261838E-18
4.030000E+03	3.761726E-18	1.260694E-18
4.040000E+03	3.759742E-18	1.260003E-18
4.050000E+03	3.759086E-18	1.259756E-18
4.060000E+03	3.759703E-18	1.259936E-18
4.070000E+03	3.761543E-18	1.260526E-18
4.080000E+03	3.764611E-18	1.261527E-18
4.090000E+03	3.768827E-18	1.262912E-18
4.100000E+03	3.774174E-18	1.264676E-18
4.110000E+03	3.780633E-18	1.266813E-18
4.120000E+03	3.788128E-18	1.269296E-18
4.130000E+03	3.796673E-18	1.272131E-18
4.140000E+03	3.806196E-18	1.275294E-18
4.150000E+03	3.816685E-18	1.278779E-18
4.160000E+03	3.828121E-18	1.282582E-18
4.170000E+03	3.840442E-18	1.286681E-18
4.180000E+03	3.853663E-18	1.291080E-18
4.190000E+03	3.867684E-18	1.295748E-18
4.200000E+03	3.882556E-18	1.300700E-18
4.210000E+03	3.898184E-18	1.305905E-18
4.220000E+03	3.914560E-18	1.311360E-18
4.230000E+03	3.931648E-18	1.317054E-18
4.240000E+03	3.949440E-18	1.322982E-18
4.250000E+03	3.967843E-18	1.329115E-18
4.260000E+03	3.986879E-18	1.335459E-18
4.270000E+03	4.006486E-18	1.341995E-18
4.280000E+03	4.026599E-18	1.348699E-18
4.290000E+03	4.047211E-18	1.355569E-18
4.300000E+03	4.068289E-18	1.362596E-18
4.310000E+03	4.089736E-18	1.369745E-18
4.320000E+03	4.111514E-18	1.377004E-18
4.330000E+03	4.133588E-18	1.384362E-18
4.340000E+03	4.155918E-18	1.391806E-18
4.350000E+03	4.178468E-18	1.399322E-18
4.360000E+03	4.201231E-18	1.406909E-18
4.370000E+03	4.224170E-18	1.414554E-18
4.380000E+03	4.247244E-18	1.422245E-18
4.390000E+03	4.270514E-18	1.429999E-18
4.400000E+03	4.293943E-18	1.437807E-18
4.410000E+03	4.317526E-18	1.445665E-18
4.420000E+03	4.341290E-18	1.453584E-18
4.430000E+03	4.365238E-18	1.461563E-18
4.440000E+03	4.389331E-18	1.469591E-18
4.450000E+03	4.413603E-18	1.477677E-18
4.460000E+03	4.438019E-18	1.485811E-18
4.470000E+03	4.462579E-18	1.493993E-18
4.480000E+03	4.487292E-18	1.502225E-18
4.490000E+03	4.512081E-18	1.510482E-18
4.500000E+03	4.536994E-18	1.518779E-18
4.510000E+03	4.562003E-18	1.527109E-18
4.520000E+03	4.587077E-18	1.535459E-18
4.530000E+03	4.612228E-18	1.543834E-18
4.540000E+03	4.637394E-18	1.552213E-18
4.550000E+03	4.662590E-18	1.560602E-18
4.560000E+03	4.687831E-18	1.569005E-18
4.570000E+03	4.713102E-18	1.577417E-18
4.580000E+03	4.738342E-18	1.585818E-18
4.590000E+03	4.763573E-18	1.594215E-18
4.600000E+03	4.788782E-18	1.602604E-18
4.610000E+03	4.813954E-18	1.610980E-18
4.620000E+03	4.839118E-18	1.619353E-18
4.630000E+03	4.864226E-18	1.627706E-18
4.640000E+03	4.889305E-18	1.636048E-18
4.650000E+03	4.914349E-18	1.644378E-18
4.660000E+03	4.939353E-18	1.652694E-18
4.670000E+03	4.964312E-18	1.660994E-18
4.680000E+03	4.989223E-18	1.669277E-18
4.690000E+03	5.014081E-18	1.677541E-18
4.700000E+03	5.038973E-18	1.685816E-18
4.710000E+03	5.063899E-18	1.694101E-18
4.720000E+03	5.088865E-18	1.702399E-18
4.730000E+03	5.113963E-18	1.710740E-18
4.740000E+03	5.139153E-18	1.719111E-18
4.750000E+03	5.164443E-18	1.727515E-18
4.760000E+03	5.189885E-18	1.735969E-18
4.770000E+03	5.215488E-18	1.744475E-18
4.780000E+03	5.241216E-18	1.753023E-18
4.790000E+03	5.267126E-18	1.761630E-18
4.800000E+03	5.293233E-18	1.770302E-18
4.810000E+03	5.319495E-18	1.779026E-18
4.820000E+03	5.345980E-18	1.787823E-18
4.830000E+03	5.372701E-18	1.796697E-18
4.840000E+03	5.399673E-18	1.805655E-18
4.850000E+03	5.426911E-18	1.814701E-18
4.860000E+03	5.454384E-18	1.823824E-18
4.870000E+03	5.482211E-18	1.833065E-18
4.880000E+03	5.510308E-18	1.842394E-18
4.890000E+03	5.538692E-18	1.851819E-18
4.900000E+03	5.567438E-18	1.861363E-18
4.910000E+03	5.596561E-18	1.871033E-18
4.920000E+03	5.626083E-18	1.880835E-18
4.930000E+03	5.655921E-18	1.890741E-18
4.940000E+03	5.686196E-18	1.900793E-18
4.950000E+03	5.716877E-18	1.910978E-18
4.960000E+03	5.747983E-18	1.921305E-18
4.970000E+03	5.779530E-18	1.931778E-18
4.980000E+03	5.811538E-18	1.942404E-18
4.990000E+03	5.843965E-18	1.953168E-18
5.000000E+03	5.876827E-18	1.964077E-18
5.010000E+03	5.910193E-18	1.975153E-18
5.020000E+03	5.944019E-18	1.986381E-18
5.030000E+03	5.978260E-18	1.997747E-18
5.040000E+03	6.013037E-18	2.009290E-18
5.050000E+03	6.048185E-18	2.020956E-18
5.060000E+03	6.083826E-18	2.032785E-18
5.070000E+03	6.119962E-18	2.044778E-18
5.080000E+03	6.156425E-18	2.056879E-18
5.090000E+03	6.193387E-18	2.069145E-18
5.100000E+03	6.230734E-18	2.081538E-18
5.110000E+03	6.268461E-18	2.094057E-18
5.120000E+03	6.306627E-18	2.106721E-18
5.130000E+03	6.345110E-18	2.119489E-18
5.140000E+03	6.383899E-18	2.132358E-18
5.150000E+03	6.423050E-18	2.145346E-18
5.160000E+03	6.462496E-18	2.158431E-18
5.170000E+03	6.502225E-18	2.171609E-18
5.180000E+03	6.542165E-18	2.184856E-18
5.190000E+03	6.582366E-18	2.198188E-18
5.200000E+03	6.622688E-18	2.211559E-18
5.210000E+03	6.663240E-18	2.225005E-18
5.220000E+03	6.703946E-18	2.238500E-18
5.230000E+03	6.744720E-18	2.252017E-18
5.240000E+03	6.785541E-18	2.265547E-18
5.250000E+03	6.826452E-18	2.279106E-18
5.260000E+03	6.867294E-18	2.292640E-18
5.270000E+03	6.908111E-18	2.306164E-18
5.280000E+03	6.948937E-18	2.319689E-18
5.290000E+03	6.989542E-18	2.333138E-18
5.300000E+03	7.030095E-18	2.346568E-18
5.310000E+03	7.070357E-18	2.359899E-18
5.320000E+03	7.110500E-18	2.373188E-18
5.330000E+03	7.150275E-18	2.386353E-18
5.340000E+03	7.189784E-18	2.399427E-18
5.350000E+03	7.228991E-18	2.412399E-18
5.360000E+03	7.267781E-18	2.425229E-18
5.370000E+03	7.306265E-18	2.437955E-18
5.380000E+03	7.344183E-18	2.450491E-18
5.390000E+03	7.381713E-18	2.462895E-18
5.400000E+03	7.418747E-18	2.475132E-18
5.410000E+03	7.455249E-18	2.487190E-18
5.420000E+03	7.491181E-18	2.499055E-18
5.430000E+03	7.526509E-18	2.510717E-18
5.440000E+03	7.561123E-18	2.522139E-18
5.450000E+03	7.594986E-18	2.533309E-18
5.460000E+03	7.628061E-18	2.544214E-18
5.470000E+03	7.660318E-18	2.554845E-18
5.480000E+03	7.691642E-18	2.565162E-18
5.490000E+03	7.721919E-18	2.575129E-18
5.500000E+03	7.751189E-18	2.584757E-18
5.510000E+03	7.779338E-18	2.594011E-18
5.520000E+03	7.806251E-18	2.602850E-18
5.530000E+03	7.831806E-18	2.611235E-18
5.540000E+03	7.856046E-18	2.619180E-18
5.550000E+03	7.878768E-18	2.626617E-18
5.560000E+03	7.900015E-18	2.633561E-18
5.570000E+03	7.919587E-18	2.639945E-18
5.580000E+03	7.937445E-18	2.645756E-18
5.590000E+03	7.953625E-18	2.651007E-18
5.600000E+03	7.967933E-18	2.655632E-18
5.610000E+03	7.980412E-18	2.659646E-18
5.620000E+03	7.991024E-18	2.663037E-18
5.630000E+03	7.999658E-18	2.665767E-18
5.640000E+03	8.006285E-18	2.667828E-18
5.650000E+03	8.010954E-18	2.669235E-18
5.660000E+03	8.013646E-18	2.669982E-18
5.670000E+03	8.014257E-18	2.670036E-18
5.680000E+03	8.012855E-18	2.669417E-18
5.690000E+03	8.009509E-18	2.668150E-18
5.700000E+03	8.004047E-18	2.666178E-18
5.710000E+03	7.996548E-18	2.663527E-18
5.720000E+03	7.987100E-18	2.660226E-18
5.730000E+03	7.975710E-18	2.656277E-18
5.740000E+03	7.962385E-18	2.651684E-18
5.750000E+03	7.947145E-18	2.646453E-18
5.760000E+03	7.930006E-18	2.640589E-18
5.770000E+03	7.911080E-18	2.634130E-18
5.780000E+03	7.890312E-18	2.627058E-18
5.790000E+03	7.867901E-18	2.619439E-18
5.800000E+03	7.843800E-18	2.611257E-18
5.810000E+03	7.818053E-18	2.602527E-18
5.820000E+03	7.790872E-18	2.593320E-18
5.830000E+03	7.762143E-18	2.583598E-18
5.840000E+03	7.732001E-18	2.573407E-18
5.850000E+03	7.700592E-18	2.562794E-18
5.860000E+03	7.667896E-18	2.551753E-18
5.870000E+03	7.634068E-18	2.540336E-18
5.880000E+03	7.599094E-18	2.528538E-18
5.890000E+03	7.563219E-18	2.516441E-18
5.900000E+03	7.526439E-18	2.504044E-18
5.910000E+03	7.488840E-18	2.491374E-18
5.920000E+03	7.450586E-18	2.478488E-18
5.930000E+03	7.411682E-18	2.465387E-18
5.940000E+03	7.372296E-18	2.452126E-18
5.950000E+03	7.332437E-18	2.438708E-18
5.960000E+03	7.292267E-18	2.425188E-18
5.970000E+03	7.251877E-18	2.411596E-18
5.980000E+03	7.211346E-18	2.397958E-18
5.990000E+03	7.170674E-18	2.384273E-18
6.000000E+03	7.130022E-18	2.370597E-18
6.010000E+03	7.089468E-18	2.356954E-18
6.020000E+03	7.049001E-18	2.343342E-18
6.030000E+03	7.008773E-18	2.329809E-18
6.040000E+03	6.968770E-18	2.316353E-18
6.050000E+03	6.928974E-18	2.302966E-18
6.060000E+03	6.889610E-18	2.289724E-18
6.070000E+03	6.850570E-18	2.276590E-18
6.080000E+03	6.811993E-18	2.263612E-18
6.090000E+03	6.773765E-18	2.250750E-18
6.100000E+03	6.736012E-18	2.238047E-18
6.110000E+03	6.698703E-18	2.225493E-18
6.120000E+03	6.661873E-18	2.213099E-18
6.130000E+03	6.625565E-18	2.200880E-18
6.140000E+03	6.589731E-18	2.188818E-18
6.150000E+03	6.554402E-18	2.176926E-18
6.160000E+03	6.519606E-18	2.165211E-18
6.170000E+03	6.485373E-18	2.153684E-18
6.180000E+03	6.451722E-18	2.142351E-18
6.190000E+03	6.418591E-18	2.131193E-18
6.200000E+03	6.386083E-18	2.120241E-18
6.210000E+03	6.354213E-18	2.109502E-18
6.220000E+03	6.322989E-18	2.098979E-18
6.230000E+03	6.292507E-18	2.088703E-18
6.240000E+03	6.262854E-18	2.078703E-18
6.250000E+03	6.234121E-18	2.069008E-18
6.260000E+03	6.206398E-18	2.059650E-18
6.270000E+03	6.179768E-18	2.050655E-18
6.280000E+03	6.154397E-18	2.042079E-18
6.290000E+03	6.130209E-18	2.033895E-18
6.300000E+03	6.107537E-18	2.026215E-18
6.310000E+03	6.086297E-18	2.019011E-18
6.320000E+03	6.066658E-18	2.012337E-18
6.330000E+03	6.048709E-18	2.006225E-18
6.340000E+03	6.032533E-18	2.000701E-18
6.350000E+03	6.018135E-18	1.995767E-18
6.360000E+03	6.005602E-18	1.991451E-18
6.370000E+03	5.995024E-18	1.987784E-18
6.380000E+03	5.986408E-18	1.984767E-18
6.390000E+03	5.979759E-18	1.982401E-18
6.400000E+03	5.975173E-18	1.980719E-18
6.410000E+03	5.972478E-18	1.979664E-18
6.420000E+03	5.971687E-18	1.979239E-18
6.430000E+03	5.972714E-18	1.979416E-18
6.440000E+03	5.975390E-18	1.980139E-18
6.450000E+03	5.979808E-18	1.981438E-18
6.460000E+03	5.985793E-18	1.983255E-18
6.470000E+03	5.993438E-18	1.985621E-18
6.480000E+03	6.002749E-18	1.988538E-18
6.490000E+03	6.013639E-18	1.991977E-18
6.500000E+03	6.026113E-18	1.995939E-18
6.510000E+03	6.040174E-18	2.000425E-18
6.520000E+03	6.055828E-18	2.005437E-18
6.530000E+03	6.073078E-18	2.010976E-18
6.540000E+03	6.092027E-18	2.017077E-18
6.550000E+03	6.112587E-18	2.023708E-18
6.560000E+03	6.134666E-18	2.030841E-18
6.570000E+03	6.158466E-18	2.038541E-18
6.580000E+03	6.183798E-18	2.046746E-18
6.590000E+03	6.210764E-18	2.055490E-18
6.600000E+03	6.239378E-18	2.064777E-18
6.610000E+03	6.269642E-18	2.074608E-18
6.620000E+03	6.301571E-18	2.084986E-18
6.630000E+03	6.335064E-18	2.095880E-18
6.640000E+03	6.370239E-18	2.107327E-18
6.650000E+03	6.406994E-18	2.119295E-18
6.660000E+03	6.445447E-18	2.131821E-18
6.670000E+03	6.485500E-18	2.144873E-18
6.680000E+03	6.527160E-18	2.158453E-18
6.690000E+03	6.570549E-18	2.172602E-18
6.700000E+03	6.615680E-18	2.187323E-18
6.710000E+03	6.662335E-18	2.202545E-18
6.720000E+03	6.710753E-18	2.218346E-18
6.730000E+03	6.760715E-18	2.234653E-18
6.740000E+03	6.812463E-18	2.251548E-18
6.750000E+03	6.865894E-18	2.268994E-18
6.760000E+03	6.920899E-18	2.286956E-18
6.770000E+03	6.977727E-18	2.305516E-18
6.780000E+03	7.036152E-18	2.324600E-18
6.790000E+03	7.096303E-18	2.344250E-18
6.800000E+03	7.158197E-18	2.364470E-18
6.810000E+03	7.221846E-18	2.385266E-18
6.820000E+03	7.287131E-18	2.406597E-18
6.830000E+03	7.354195E-18	2.428511E-18
6.840000E+03	7.422919E-18	2.450968E-18
6.850000E+03	7.493446E-18	2.474015E-18
6.860000E+03	7.565652E-18	2.497611E-18
6.870000E+03	7.639548E-18	2.521759E-18
6.880000E+03	7.715281E-18	2.546508E-18
6.890000E+03	7.792579E-18	2.571768E-18
6.900000E+03	7.871737E-18	2.597636E-18
6.910000E+03	7.952622E-18	2.624068E-18
6.920000E+03	8.035240E-18	2.651065E-18
6.930000E+03	8.119598E-18	2.678631E-18
6.940000E+03	8.205706E-18	2.706767E-18
6.950000E+03	8.293410E-18	2.735423E-18
6.960000E+03	8.382874E-18	2.764653E-18
6.970000E+03	8.474102E-18	2.794458E-18
6.980000E+03	8.567101E-18	2.824840E-18
6.990000E+03	8.661542E-18	2.855691E-18
7.000000E+03	8.757928E-18	2.887175E-18
7.010000E+03	8.855749E-18	2.919126E-18
7.020000E+03	8.955349E-18	2.951655E-18
7.030000E+03	9.056551E-18	2.984704E-18
7.040000E+03	9.159355E-18	3.018274E-18
7.050000E+03	9.263752E-18	3.052361E-18
7.060000E+03	9.369738E-18	3.086964E-18
7.070000E+03	9.477120E-18	3.122019E-18
7.080000E+03	9.586071E-18	3.157582E-18
7.090000E+03	9.696585E-18	3.193652E-18
7.100000E+03	9.808453E-18	3.230159E-18
7.110000E+03	9.921862E-18	3.267165E-18
7.120000E+03	1.003660E-17	3.304599E-18
7.130000E+03	1.015263E-17	3.342452E-18
7.140000E+03	1.026995E-17	3.380719E-18
7.150000E+03	1.038874E-17	3.419463E-18
7.160000E+03	1.050856E-17	3.458534E-18
7.170000E+03	1.062937E-17	3.497922E-18
7.180000E+03	1.075157E-17	3.537762E-18
7.190000E+03	1.087471E-17	3.577897E-18
7.200000E+03	1.099873E-17	3.618316E-18
7.210000E+03	1.112384E-17	3.659082E-18
7.220000E+03	1.124976E-17	3.700105E-18
7.230000E+03	1.137645E-17	3.741371E-18
7.240000E+03	1.150386E-17	3.782866E-18
7.250000E+03	1.163195E-17	3.824572E-18
7.260000E+03	1.176091E-17	3.866557E-18
7.270000E+03	1.189020E-17	3.908641E-18
7.280000E+03	1.202028E-17	3.950971E-18
7.290000E+03	1.215083E-17	3.993447E-18
7.300000E+03	1.228180E-17	4.036052E-18
7.310000E+03	1.241340E-17	4.078856E-18
7.320000E+03	1.254532E-17	4.121751E-18
7.330000E+03	1.267777E-17	4.164812E-18
7.340000E+03	1.281070E-17	4.208021E-18
7.350000E+03	1.294435E-17	4.251456E-18
7.360000E+03	1.307869E-17	4.295105E-18
7.370000E+03	1.321396E-17	4.339053E-18
7.380000E+03	1.334985E-17	4.383190E-18
7.390000E+03	1.348722E-17	4.427807E-18
7.400000E+03	1.362609E-17	4.472902E-18
7.410000E+03	1.376612E-17	4.518369E-18
7.420000E+03	1.390827E-17	4.564521E-18
7.430000E+03	1.405223E-17	4.611258E-18
7.440000E+03	1.419836E-17	4.658691E-18
7.450000E+03	1.434632E-17	4.706719E-18
7.460000E+03	1.449649E-17	4.755457E-18
7.470000E+03	1.464784E-17	4.804571E-18
7.480000E+03	1.480105E-17	4.854285E-18
7.490000E+03	1.495506E-17	4.904252E-18
7.500000E+03	1.511021E-17	4.954577E-18
7.510000E+03	1.526610E-17	5.005134E-18
7.520000E+03	1.542231E-17	5.055789E-18
7.530000E+03	1.557919E-17	5.106645E-18
7.540000E+03	1.573553E-17	5.157316E-18
7.550000E+03	1.589202E-17	5.208025E-18
7.560000E+03	1.604821E-17	5.258624E-18
7.570000E+03	1.620403E-17	5.309089E-18
7.580000E+03	1.635899E-17	5.359263E-18
7.590000E+03	1.651342E-17	5.409248E-18
7.600000E+03	1.666680E-17	5.458881E-18
7.610000E+03	1.681904E-17	5.508131E-18
7.620000E+03	1.697048E-17	5.557104E-18
7.630000E+03	1.712058E-17	5.605631E-18
7.640000E+03	1.726969E-17	5.653821E-18
7.650000E+03	1.741683E-17	5.701357E-18
7.660000E+03	1.756278E-17	5.748491E-18
7.670000E+03	1.770699E-17	5.795046E-18
7.680000E+03	1.784980E-17	5.841135E-18
7.690000E+03	1.799067E-17	5.886577E-18
7.700000E+03	1.812949E-17	5.931338E-18
7.710000E+03	1.826614E-17	5.975380E-18
7.720000E+03	1.840146E-17	6.018980E-18
7.730000E+03	1.853394E-17	6.061639E-18
7.740000E+03	1.866490E-17	6.103796E-18
7.750000E+03	1.879329E-17	6.145100E-18
7.760000E+03	1.891950E-17	6.185683E-18
