#wls	flux	fluxerr
1.600000E+03	3.689810E-16	1.236303E-16
1.640000E+03	3.798793E-16	1.272798E-16
1.680000E+03	3.900844E-16	1.306968E-16
1.720000E+03	3.994799E-16	1.338424E-16
1.760000E+03	4.079008E-16	1.366613E-16
1.800000E+03	4.152140E-16	1.391090E-16
1.840000E+03	4.212435E-16	1.411263E-16
1.880000E+03	4.258879E-16	1.426795E-16
1.920000E+03	4.290074E-16	1.437218E-16
1.960000E+03	4.304329E-16	1.441964E-16
2.000000E+03	4.300770E-16	1.440741E-16
2.040000E+03	4.277990E-16	1.433078E-16
2.080000E+03	4.234854E-16	1.418597E-16
2.120000E+03	4.171146E-16	1.397223E-16
2.160000E+03	4.085569E-16	1.368525E-16
2.200000E+03	3.977493E-16	1.332291E-16
2.240000E+03	3.846304E-16	1.288316E-16
2.280000E+03	3.690859E-16	1.236218E-16
2.320000E+03	3.515953E-16	1.177604E-16
2.360000E+03	3.326432E-16	1.114097E-16
2.400000E+03	3.126172E-16	1.046996E-16
2.440000E+03	2.918483E-16	9.774103E-17
2.480000E+03	2.706495E-16	9.063880E-17
2.520000E+03	2.493034E-16	8.348759E-17
2.560000E+03	2.280578E-16	7.637040E-17
2.600000E+03	2.071605E-16	6.937025E-17
2.640000E+03	1.868336E-16	6.256147E-17
2.680000E+03	1.672745E-16	5.601018E-17
2.720000E+03	1.486553E-16	4.977400E-17
2.760000E+03	1.311299E-16	4.390443E-17
2.800000E+03	1.148031E-16	3.843655E-17
2.840000E+03	9.975820E-17	3.339818E-17
2.880000E+03	8.605762E-17	2.881023E-17
2.920000E+03	7.373339E-17	2.468336E-17
2.960000E+03	6.279085E-17	2.101932E-17
3.000000E+03	5.319810E-17	1.780738E-17
3.010000E+03	5.100313E-17	1.707246E-17
3.020000E+03	4.888691E-17	1.636392E-17
3.030000E+03	4.684878E-17	1.568152E-17
3.040000E+03	4.488676E-17	1.502462E-17
3.050000E+03	4.299897E-17	1.439258E-17
3.060000E+03	4.118436E-17	1.378504E-17
3.070000E+03	3.944003E-17	1.320104E-17
3.080000E+03	3.776570E-17	1.264048E-17
3.090000E+03	3.615847E-17	1.210239E-17
3.100000E+03	3.461708E-17	1.158635E-17
3.110000E+03	3.313947E-17	1.109166E-17
3.120000E+03	3.172425E-17	1.061787E-17
3.130000E+03	3.036930E-17	1.016426E-17
3.140000E+03	2.907264E-17	9.730171E-18
3.150000E+03	2.783277E-17	9.315097E-18
3.160000E+03	2.664715E-17	8.918187E-18
3.170000E+03	2.551485E-17	8.539132E-18
3.180000E+03	2.443340E-17	8.177100E-18
3.190000E+03	2.340135E-17	7.831613E-18
3.200000E+03	2.241678E-17	7.502021E-18
3.210000E+03	2.147787E-17	7.187714E-18
3.220000E+03	2.058315E-17	6.888206E-18
3.230000E+03	1.973082E-17	6.602890E-18
3.240000E+03	1.891882E-17	6.331076E-18
3.250000E+03	1.814639E-17	6.072511E-18
3.260000E+03	1.741094E-17	5.826327E-18
3.270000E+03	1.671173E-17	5.592273E-18
3.280000E+03	1.604662E-17	5.369637E-18
3.290000E+03	1.541436E-17	5.158000E-18
3.300000E+03	1.481370E-17	4.956941E-18
3.310000E+03	1.424276E-17	4.765832E-18
3.320000E+03	1.370060E-17	4.584358E-18
3.330000E+03	1.318588E-17	4.412068E-18
3.340000E+03	1.269711E-17	4.248467E-18
3.350000E+03	1.223309E-17	4.093150E-18
3.360000E+03	1.179264E-17	3.945725E-18
3.370000E+03	1.137481E-17	3.805870E-18
3.380000E+03	1.097821E-17	3.673121E-18
3.390000E+03	1.060211E-17	3.547237E-18
3.400000E+03	1.024526E-17	3.427794E-18
3.410000E+03	9.906732E-18	3.314485E-18
3.420000E+03	9.585779E-18	3.207059E-18
3.430000E+03	9.281203E-18	3.105115E-18
3.440000E+03	8.992460E-18	3.008471E-18
3.450000E+03	8.718685E-18	2.916836E-18
3.460000E+03	8.458869E-18	2.829874E-18
3.470000E+03	8.212567E-18	2.747435E-18
3.480000E+03	7.978870E-18	2.669215E-18
3.490000E+03	7.757214E-18	2.595025E-18
3.500000E+03	7.546966E-18	2.524653E-18
3.510000E+03	7.347299E-18	2.457823E-18
3.520000E+03	7.157768E-18	2.394385E-18
3.530000E+03	6.977720E-18	2.334121E-18
3.540000E+03	6.806555E-18	2.276830E-18
3.550000E+03	6.643792E-18	2.222351E-18
3.560000E+03	6.488841E-18	2.170486E-18
3.570000E+03	6.341236E-18	2.121080E-18
3.580000E+03	6.200473E-18	2.073964E-18
3.590000E+03	6.066212E-18	2.029024E-18
3.600000E+03	5.938073E-18	1.986133E-18
3.610000E+03	5.815645E-18	1.945153E-18
3.620000E+03	5.698655E-18	1.905993E-18
3.630000E+03	5.586840E-18	1.868564E-18
3.640000E+03	5.479853E-18	1.832752E-18
3.650000E+03	5.377613E-18	1.798528E-18
3.660000E+03	5.279793E-18	1.765784E-18
3.670000E+03	5.186272E-18	1.734478E-18
3.680000E+03	5.096882E-18	1.704554E-18
3.690000E+03	5.011459E-18	1.675958E-18
3.700000E+03	4.929888E-18	1.648651E-18
3.710000E+03	4.852092E-18	1.622607E-18
3.720000E+03	4.777826E-18	1.597744E-18
3.730000E+03	4.707104E-18	1.574067E-18
3.740000E+03	4.639723E-18	1.551508E-18
3.750000E+03	4.575616E-18	1.530044E-18
3.760000E+03	4.514703E-18	1.509649E-18
3.770000E+03	4.456800E-18	1.490261E-18
3.780000E+03	4.401910E-18	1.471880E-18
3.790000E+03	4.349883E-18	1.454458E-18
3.800000E+03	4.300656E-18	1.437972E-18
3.810000E+03	4.254121E-18	1.422387E-18
3.820000E+03	4.210213E-18	1.407681E-18
3.830000E+03	4.168831E-18	1.393819E-18
3.840000E+03	4.129919E-18	1.380783E-18
3.850000E+03	4.093379E-18	1.368542E-18
3.860000E+03	4.059186E-18	1.357084E-18
3.870000E+03	4.027253E-18	1.346383E-18
3.880000E+03	3.997491E-18	1.336408E-18
3.890000E+03	3.969851E-18	1.327142E-18
3.900000E+03	3.944251E-18	1.318559E-18
3.910000E+03	3.920675E-18	1.310652E-18
3.920000E+03	3.899043E-18	1.303396E-18
3.930000E+03	3.879314E-18	1.296775E-18
3.940000E+03	3.861411E-18	1.290765E-18
3.950000E+03	3.845263E-18	1.285342E-18
3.960000E+03	3.830892E-18	1.280513E-18
3.970000E+03	3.818168E-18	1.276234E-18
3.980000E+03	3.807086E-18	1.272504E-18
3.990000E+03	3.797579E-18	1.269301E-18
4.000000E+03	3.789614E-18	1.266613E-18
4.010000E+03	3.783157E-18	1.264429E-18
4.020000E+03	3.778122E-18	1.262720E-18
4.030000E+03	3.774506E-18	1.261485E-18
4.040000E+03	3.772251E-18	1.260705E-18
4.050000E+03	3.771329E-18	1.260370E-18
4.060000E+03	3.771691E-18	1.260464E-18
4.070000E+03	3.773277E-18	1.260968E-18
4.080000E+03	3.776097E-18	1.261883E-18
4.090000E+03	3.780073E-18	1.263185E-18
4.100000E+03	3.785184E-18	1.264865E-18
4.110000E+03	3.791409E-18	1.266918E-18
4.120000E+03	3.798674E-18	1.269317E-18
4.130000E+03	3.806995E-18	1.272070E-18
4.140000E+03	3.816295E-18	1.275149E-18
4.150000E+03	3.826561E-18	1.278550E-18
4.160000E+03	3.837783E-18	1.282271E-18
4.170000E+03	3.849888E-18	1.286286E-18
4.180000E+03	3.862894E-18	1.290602E-18
4.190000E+03	3.876704E-18	1.295186E-18
4.200000E+03	3.891368E-18	1.300056E-18
4.210000E+03	3.906788E-18	1.305177E-18
4.220000E+03	3.922957E-18	1.310548E-18
4.230000E+03	3.939838E-18	1.316156E-18
4.240000E+03	3.957424E-18	1.322000E-18
4.250000E+03	3.975620E-18	1.328047E-18
4.260000E+03	3.994453E-18	1.334306E-18
4.270000E+03	4.013855E-18	1.340754E-18
4.280000E+03	4.033762E-18	1.347372E-18
4.290000E+03	4.054172E-18	1.354156E-18
4.300000E+03	4.075048E-18	1.361095E-18
4.310000E+03	4.096294E-18	1.368158E-18
4.320000E+03	4.117871E-18	1.375330E-18
4.330000E+03	4.139744E-18	1.382601E-18
4.340000E+03	4.161877E-18	1.389958E-18
4.350000E+03	4.184229E-18	1.397387E-18
4.360000E+03	4.206797E-18	1.404889E-18
4.370000E+03	4.229542E-18	1.412448E-18
4.380000E+03	4.252424E-18	1.420053E-18
4.390000E+03	4.275503E-18	1.427723E-18
4.400000E+03	4.298739E-18	1.435445E-18
4.410000E+03	4.322132E-18	1.443218E-18
4.420000E+03	4.345709E-18	1.451053E-18
4.430000E+03	4.369467E-18	1.458947E-18
4.440000E+03	4.393371E-18	1.466889E-18
4.450000E+03	4.417452E-18	1.474890E-18
4.460000E+03	4.441676E-18	1.482937E-18
4.470000E+03	4.466043E-18	1.491032E-18
4.480000E+03	4.490558E-18	1.499175E-18
4.490000E+03	4.515150E-18	1.507344E-18
4.500000E+03	4.539862E-18	1.515552E-18
4.510000E+03	4.564662E-18	1.523788E-18
4.520000E+03	4.589528E-18	1.532046E-18
4.530000E+03	4.614466E-18	1.540327E-18
4.540000E+03	4.639416E-18	1.548612E-18
4.550000E+03	4.664391E-18	1.556904E-18
4.560000E+03	4.689410E-18	1.565209E-18
4.570000E+03	4.714452E-18	1.573522E-18
4.580000E+03	4.739461E-18	1.581823E-18
4.590000E+03	4.764459E-18	1.590120E-18
4.600000E+03	4.789429E-18	1.598406E-18
4.610000E+03	4.814363E-18	1.606680E-18
4.620000E+03	4.839286E-18	1.614949E-18
4.630000E+03	4.864147E-18	1.623197E-18
4.640000E+03	4.888980E-18	1.631435E-18
4.650000E+03	4.913779E-18	1.639660E-18
4.660000E+03	4.938536E-18	1.647871E-18
4.670000E+03	4.963247E-18	1.656065E-18
4.680000E+03	4.987909E-18	1.664242E-18
4.690000E+03	5.012519E-18	1.672402E-18
4.700000E+03	5.037162E-18	1.680571E-18
4.710000E+03	5.061845E-18	1.688753E-18
4.720000E+03	5.086565E-18	1.696946E-18
4.730000E+03	5.111419E-18	1.705183E-18
4.740000E+03	5.136366E-18	1.713450E-18
4.750000E+03	5.161415E-18	1.721751E-18
4.760000E+03	5.186621E-18	1.730103E-18
4.770000E+03	5.211986E-18	1.738507E-18
4.780000E+03	5.237482E-18	1.746954E-18
4.790000E+03	5.263162E-18	1.755461E-18
4.800000E+03	5.289041E-18	1.764034E-18
4.810000E+03	5.315081E-18	1.772659E-18
4.820000E+03	5.341346E-18	1.781359E-18
4.830000E+03	5.367849E-18	1.790137E-18
4.840000E+03	5.394610E-18	1.799000E-18
4.850000E+03	5.421641E-18	1.807952E-18
4.860000E+03	5.448913E-18	1.816983E-18
4.870000E+03	5.476542E-18	1.826133E-18
4.880000E+03	5.504450E-18	1.835374E-18
4.890000E+03	5.532650E-18	1.844712E-18
4.900000E+03	5.561219E-18	1.854172E-18
4.910000E+03	5.590173E-18	1.863759E-18
4.920000E+03	5.619536E-18	1.873481E-18
4.930000E+03	5.649223E-18	1.883311E-18
4.940000E+03	5.679357E-18	1.893287E-18
4.950000E+03	5.709908E-18	1.903402E-18
4.960000E+03	5.740894E-18	1.913661E-18
4.970000E+03	5.772335E-18	1.924070E-18
4.980000E+03	5.804247E-18	1.934636E-18
4.990000E+03	5.836593E-18	1.945344E-18
5.000000E+03	5.869389E-18	1.956201E-18
5.010000E+03	5.902704E-18	1.967230E-18
5.020000E+03	5.936493E-18	1.978415E-18
5.030000E+03	5.970713E-18	1.989743E-18
5.040000E+03	6.005483E-18	2.001253E-18
5.050000E+03	6.040643E-18	2.012891E-18
5.060000E+03	6.076311E-18	2.024697E-18
5.070000E+03	6.112492E-18	2.036673E-18
5.080000E+03	6.149016E-18	2.048762E-18
5.090000E+03	6.186057E-18	2.061021E-18
5.100000E+03	6.223501E-18	2.073413E-18
5.110000E+03	6.261343E-18	2.085936E-18
5.120000E+03	6.299642E-18	2.098610E-18
5.130000E+03	6.338275E-18	2.111394E-18
5.140000E+03	6.377237E-18	2.124286E-18
5.150000E+03	6.416578E-18	2.137302E-18
5.160000E+03	6.456236E-18	2.150422E-18
5.170000E+03	6.496197E-18	2.163642E-18
5.180000E+03	6.536391E-18	2.176937E-18
5.190000E+03	6.576868E-18	2.190325E-18
5.200000E+03	6.617489E-18	2.203759E-18
5.210000E+03	6.658365E-18	2.217277E-18
5.220000E+03	6.699420E-18	2.230852E-18
5.230000E+03	6.740567E-18	2.244456E-18
5.240000E+03	6.781788E-18	2.258083E-18
5.250000E+03	6.823124E-18	2.271747E-18
5.260000E+03	6.864422E-18	2.285396E-18
5.270000E+03	6.905719E-18	2.299043E-18
5.280000E+03	6.947057E-18	2.312702E-18
5.290000E+03	6.988200E-18	2.326294E-18
5.300000E+03	7.029322E-18	2.339877E-18
5.310000E+03	7.070179E-18	2.353370E-18
5.320000E+03	7.110944E-18	2.366831E-18
5.330000E+03	7.151372E-18	2.380178E-18
5.340000E+03	7.191559E-18	2.393442E-18
5.350000E+03	7.231470E-18	2.406613E-18
5.360000E+03	7.270993E-18	2.419652E-18
5.370000E+03	7.310233E-18	2.432596E-18
5.380000E+03	7.348932E-18	2.445358E-18
5.390000E+03	7.387268E-18	2.457997E-18
5.400000E+03	7.425131E-18	2.470476E-18
5.410000E+03	7.462484E-18	2.482785E-18
5.420000E+03	7.499294E-18	2.494910E-18
5.430000E+03	7.535521E-18	2.506840E-18
5.440000E+03	7.571054E-18	2.518537E-18
5.450000E+03	7.605859E-18	2.529990E-18
5.460000E+03	7.639902E-18	2.541188E-18
5.470000E+03	7.673143E-18	2.552117E-18
5.480000E+03	7.705475E-18	2.562741E-18
5.490000E+03	7.736778E-18	2.573022E-18
5.500000E+03	7.767093E-18	2.582973E-18
5.510000E+03	7.796304E-18	2.592554E-18
5.520000E+03	7.824294E-18	2.601728E-18
5.530000E+03	7.850942E-18	2.610454E-18
5.540000E+03	7.876286E-18	2.618745E-18
5.550000E+03	7.900121E-18	2.626532E-18
5.560000E+03	7.922491E-18	2.633830E-18
5.570000E+03	7.943189E-18	2.640572E-18
5.580000E+03	7.962173E-18	2.646742E-18
5.590000E+03	7.979484E-18	2.652354E-18
5.600000E+03	7.994916E-18	2.657340E-18
5.610000E+03	8.008514E-18	2.661716E-18
5.620000E+03	8.020235E-18	2.665466E-18
5.630000E+03	8.029967E-18	2.668554E-18
5.640000E+03	8.037672E-18	2.670968E-18
5.650000E+03	8.043406E-18	2.672725E-18
5.660000E+03	8.047141E-18	2.673817E-18
5.670000E+03	8.048768E-18	2.674208E-18
5.680000E+03	8.048353E-18	2.673919E-18
5.690000E+03	8.045968E-18	2.672976E-18
5.700000E+03	8.041434E-18	2.671317E-18
5.710000E+03	8.034829E-18	2.668970E-18
5.720000E+03	8.026237E-18	2.665962E-18
5.730000E+03	8.015661E-18	2.662295E-18
5.740000E+03	8.003115E-18	2.657973E-18
5.750000E+03	7.988611E-18	2.653001E-18
5.760000E+03	7.972164E-18	2.647383E-18
5.770000E+03	7.953886E-18	2.641157E-18
5.780000E+03	7.933719E-18	2.634303E-18
5.790000E+03	7.911860E-18	2.626888E-18
5.800000E+03	7.888266E-18	2.618897E-18
5.810000E+03	7.862972E-18	2.610341E-18
5.820000E+03	7.836196E-18	2.601294E-18
5.830000E+03	7.807819E-18	2.591715E-18
5.840000E+03	7.777974E-18	2.581650E-18
5.850000E+03	7.746812E-18	2.571148E-18
5.860000E+03	7.714311E-18	2.560201E-18
5.870000E+03	7.680623E-18	2.548862E-18
5.880000E+03	7.645737E-18	2.537125E-18
5.890000E+03	7.609901E-18	2.525074E-18
5.900000E+03	7.573112E-18	2.512708E-18
5.910000E+03	7.535454E-18	2.500053E-18
5.920000E+03	7.497098E-18	2.487168E-18
5.930000E+03	7.458049E-18	2.474054E-18
5.940000E+03	7.418481E-18	2.460769E-18
5.950000E+03	7.378397E-18	2.447313E-18
5.960000E+03	7.337971E-18	2.433745E-18
5.970000E+03	7.297291E-18	2.420093E-18
5.980000E+03	7.256438E-18	2.406385E-18
5.990000E+03	7.215415E-18	2.392622E-18
6.000000E+03	7.174388E-18	2.378858E-18
6.010000E+03	7.133429E-18	2.365118E-18
6.020000E+03	7.092536E-18	2.351401E-18
6.030000E+03	7.051860E-18	2.337757E-18
6.040000E+03	7.011389E-18	2.324182E-18
6.050000E+03	6.971103E-18	2.310669E-18
6.060000E+03	6.931232E-18	2.297295E-18
6.070000E+03	6.891670E-18	2.284024E-18
6.080000E+03	6.852553E-18	2.270902E-18
6.090000E+03	6.813771E-18	2.257891E-18
6.100000E+03	6.775452E-18	2.245035E-18
6.110000E+03	6.737563E-18	2.232323E-18
6.120000E+03	6.700143E-18	2.219767E-18
6.130000E+03	6.663231E-18	2.207380E-18
6.140000E+03	6.626783E-18	2.195149E-18
6.150000E+03	6.590831E-18	2.183082E-18
6.160000E+03	6.555407E-18	2.171191E-18
6.170000E+03	6.520533E-18	2.159483E-18
6.180000E+03	6.486237E-18	2.147968E-18
6.190000E+03	6.452458E-18	2.136625E-18
6.200000E+03	6.419293E-18	2.125485E-18
6.210000E+03	6.386760E-18	2.114556E-18
6.220000E+03	6.354873E-18	2.103842E-18
6.230000E+03	6.323722E-18	2.093372E-18
6.240000E+03	6.293401E-18	2.083178E-18
6.250000E+03	6.264002E-18	2.073290E-18
6.260000E+03	6.235610E-18	2.063736E-18
6.270000E+03	6.208311E-18	2.054544E-18
6.280000E+03	6.182277E-18	2.045771E-18
6.290000E+03	6.157426E-18	2.037391E-18
6.300000E+03	6.134097E-18	2.029514E-18
6.310000E+03	6.112202E-18	2.022113E-18
6.320000E+03	6.091916E-18	2.015244E-18
6.330000E+03	6.073324E-18	2.008936E-18
6.340000E+03	6.056513E-18	2.003217E-18
6.350000E+03	6.041484E-18	1.998088E-18
6.360000E+03	6.028329E-18	1.993579E-18
6.370000E+03	6.017136E-18	1.989718E-18
6.380000E+03	6.007910E-18	1.986507E-18
6.390000E+03	6.000658E-18	1.983950E-18
6.400000E+03	5.995477E-18	1.982076E-18
6.410000E+03	5.992196E-18	1.980830E-18
6.420000E+03	5.990820E-18	1.980213E-18
6.430000E+03	5.991274E-18	1.980201E-18
6.440000E+03	5.993380E-18	1.980733E-18
6.450000E+03	5.997231E-18	1.981842E-18
6.460000E+03	6.002656E-18	1.983470E-18
6.470000E+03	6.009749E-18	1.985648E-18
6.480000E+03	6.018512E-18	1.988376E-18
6.490000E+03	6.028858E-18	1.991626E-18
6.500000E+03	6.040794E-18	1.995401E-18
6.510000E+03	6.054324E-18	1.999700E-18
6.520000E+03	6.069448E-18	2.004524E-18
6.530000E+03	6.086177E-18	2.009877E-18
6.540000E+03	6.104608E-18	2.015790E-18
6.550000E+03	6.124656E-18	2.022236E-18
6.560000E+03	6.146229E-18	2.029183E-18
6.570000E+03	6.169527E-18	2.036697E-18
6.580000E+03	6.194360E-18	2.044716E-18
6.590000E+03	6.220834E-18	2.053275E-18
6.600000E+03	6.248959E-18	2.062376E-18
6.610000E+03	6.278741E-18	2.072022E-18
6.620000E+03	6.310190E-18	2.082215E-18
6.630000E+03	6.343210E-18	2.092924E-18
6.640000E+03	6.377914E-18	2.104186E-18
6.650000E+03	6.414203E-18	2.115968E-18
6.660000E+03	6.452195E-18	2.128309E-18
6.670000E+03	6.491788E-18	2.141176E-18
6.680000E+03	6.532994E-18	2.154571E-18
6.690000E+03	6.575933E-18	2.168534E-18
6.700000E+03	6.620616E-18	2.183069E-18
6.710000E+03	6.666825E-18	2.198104E-18
6.720000E+03	6.714804E-18	2.213719E-18
6.730000E+03	6.764326E-18	2.229838E-18
6.740000E+03	6.815639E-18	2.246545E-18
6.750000E+03	6.868640E-18	2.263803E-18
6.760000E+03	6.923214E-18	2.281577E-18
6.770000E+03	6.979616E-18	2.299948E-18
6.780000E+03	7.037617E-18	2.318842E-18
6.790000E+03	7.097349E-18	2.338302E-18
6.800000E+03	7.158826E-18	2.358332E-18
6.810000E+03	7.222060E-18	2.378937E-18
6.820000E+03	7.286934E-18	2.400077E-18
6.830000E+03	7.353588E-18	2.421798E-18
6.840000E+03	7.421905E-18	2.444062E-18
6.850000E+03	7.492028E-18	2.466916E-18
6.860000E+03	7.563835E-18	2.490319E-18
6.870000E+03	7.637333E-18	2.514272E-18
6.880000E+03	7.712672E-18	2.538827E-18
6.890000E+03	7.789576E-18	2.563891E-18
6.900000E+03	7.868346E-18	2.589564E-18
6.910000E+03	7.948843E-18	2.615799E-18
6.920000E+03	8.031075E-18	2.642599E-18
6.930000E+03	8.115053E-18	2.669967E-18
6.940000E+03	8.200781E-18	2.697905E-18
6.950000E+03	8.288109E-18	2.726362E-18
6.960000E+03	8.377198E-18	2.755392E-18
6.970000E+03	8.468053E-18	2.784997E-18
6.980000E+03	8.560684E-18	2.815179E-18
6.990000E+03	8.654758E-18	2.845828E-18
7.000000E+03	8.750777E-18	2.877109E-18
7.010000E+03	8.848236E-18	2.908857E-18
7.020000E+03	8.947473E-18	2.941182E-18
7.030000E+03	9.048318E-18	2.974029E-18
7.040000E+03	9.150763E-18	3.007393E-18
7.050000E+03	9.254808E-18	3.041276E-18
7.060000E+03	9.360441E-18	3.075672E-18
7.070000E+03	9.467473E-18	3.110520E-18
7.080000E+03	9.576075E-18	3.145876E-18
7.090000E+03	9.686243E-18	3.181738E-18
7.100000E+03	9.797770E-18	3.218039E-18
7.110000E+03	9.910838E-18	3.254837E-18
7.120000E+03	1.002523E-17	3.292062E-18
7.130000E+03	1.014093E-17	3.329707E-18
7.140000E+03	1.025792E-17	3.367766E-18
7.150000E+03	1.037638E-17	3.406300E-18
7.160000E+03	1.049587E-17	3.445162E-18
7.170000E+03	1.061635E-17	3.484342E-18
7.180000E+03	1.073824E-17	3.523973E-18
7.190000E+03	1.086106E-17	3.563901E-18
7.200000E+03	1.098477E-17	3.604112E-18
7.210000E+03	1.110957E-17	3.644670E-18
7.220000E+03	1.123518E-17	3.685487E-18
7.230000E+03	1.136157E-17	3.726547E-18
7.240000E+03	1.148868E-17	3.767837E-18
7.250000E+03	1.161648E-17	3.809339E-18
7.260000E+03	1.174515E-17	3.851122E-18
7.270000E+03	1.187416E-17	3.893003E-18
7.280000E+03	1.200396E-17	3.935132E-18
7.290000E+03	1.213423E-17	3.977410E-18
7.300000E+03	1.226493E-17	4.019816E-18
7.310000E+03	1.239628E-17	4.062423E-18
7.320000E+03	1.252793E-17	4.105123E-18
7.330000E+03	1.266013E-17	4.147989E-18
7.340000E+03	1.279281E-17	4.191005E-18
7.350000E+03	1.292622E-17	4.234248E-18
7.360000E+03	1.306031E-17	4.277706E-18
7.370000E+03	1.319535E-17	4.321463E-18
7.380000E+03	1.333100E-17	4.365410E-18
7.390000E+03	1.346814E-17	4.409836E-18
7.400000E+03	1.360677E-17	4.454740E-18
7.410000E+03	1.374658E-17	4.500017E-18
7.420000E+03	1.388850E-17	4.545976E-18
7.430000E+03	1.403224E-17	4.592519E-18
7.440000E+03	1.417814E-17	4.639757E-18
7.450000E+03	1.432588E-17	4.687588E-18
7.460000E+03	1.447582E-17	4.736126E-18
7.470000E+03	1.462694E-17	4.785040E-18
7.480000E+03	1.477992E-17	4.834552E-18
7.490000E+03	1.493371E-17	4.884316E-18
7.500000E+03	1.508862E-17	4.934438E-18
7.510000E+03	1.524428E-17	4.984790E-18
7.520000E+03	1.540027E-17	5.035239E-18
7.530000E+03	1.555690E-17	5.085889E-18
7.540000E+03	1.571301E-17	5.136354E-18
7.550000E+03	1.586926E-17	5.186856E-18
7.560000E+03	1.602522E-17	5.237248E-18
7.570000E+03	1.618080E-17	5.287506E-18
7.580000E+03	1.633552E-17	5.337472E-18
7.590000E+03	1.648969E-17	5.387249E-18
7.600000E+03	1.664282E-17	5.436674E-18
7.610000E+03	1.679482E-17	5.485718E-18
7.620000E+03	1.694600E-17	5.534484E-18
7.630000E+03	1.709585E-17	5.582804E-18
7.640000E+03	1.724470E-17	5.630788E-18
7.650000E+03	1.739158E-17	5.678119E-18
7.660000E+03	1.753727E-17	5.725048E-18
7.670000E+03	1.768121E-17	5.771399E-18
7.680000E+03	1.782376E-17	5.817285E-18
7.690000E+03	1.796436E-17	5.862526E-18
7.700000E+03	1.810291E-17	5.907088E-18
7.710000E+03	1.823930E-17	5.950933E-18
7.720000E+03	1.837436E-17	5.994338E-18
7.730000E+03	1.850657E-17	6.036805E-18
7.740000E+03	1.863728E-17	6.078771E-18
7.750000E+03	1.876542E-17	6.119890E-18
7.760000E+03	1.889137E-17	6.160288E-18
