#wls	flux	fluxerr
1.600000E+03	2.880946E-16	7.015790E-17
1.640000E+03	2.964651E-16	7.219504E-17
1.680000E+03	3.042896E-16	7.409905E-17
1.720000E+03	3.115081E-16	7.585531E-17
1.760000E+03	3.179327E-16	7.741807E-17
1.800000E+03	3.235506E-16	7.878422E-17
1.840000E+03	3.281674E-16	7.990643E-17
1.880000E+03	3.317349E-16	8.077293E-17
1.920000E+03	3.341464E-16	8.135783E-17
1.960000E+03	3.352470E-16	8.162336E-17
2.000000E+03	3.349999E-16	8.156061E-17
2.040000E+03	3.333004E-16	8.114409E-17
2.080000E+03	3.300656E-16	8.035371E-17
2.120000E+03	3.252390E-16	7.917569E-17
2.160000E+03	3.187544E-16	7.759402E-17
2.200000E+03	3.105155E-16	7.558528E-17
2.240000E+03	3.004429E-16	7.313018E-17
2.280000E+03	2.885941E-16	7.024281E-17
2.320000E+03	2.752120E-16	6.698238E-17
2.360000E+03	2.607052E-16	6.344839E-17
2.400000E+03	2.454001E-16	5.972032E-17
2.440000E+03	2.295913E-16	5.586993E-17
2.480000E+03	2.134923E-16	5.194922E-17
2.520000E+03	1.973248E-16	4.801219E-17
2.560000E+03	1.812677E-16	4.410237E-17
2.600000E+03	1.655030E-16	4.026405E-17
2.640000E+03	1.501761E-16	3.653265E-17
2.680000E+03	1.354207E-16	3.294072E-17
2.720000E+03	1.213554E-16	2.951705E-17
2.760000E+03	1.080696E-16	2.628341E-17
2.800000E+03	9.563879E-17	2.325814E-17
2.840000E+03	8.411817E-17	2.045465E-17
2.880000E+03	7.354858E-17	1.788281E-17
2.920000E+03	6.395475E-17	1.554863E-17
2.960000E+03	5.534057E-17	1.345299E-17
3.000000E+03	4.769044E-17	1.159206E-17
3.010000E+03	4.592457E-17	1.116253E-17
3.020000E+03	4.421509E-17	1.074672E-17
3.030000E+03	4.256286E-17	1.034485E-17
3.040000E+03	4.096475E-17	9.956155E-18
3.050000E+03	3.942141E-17	9.580787E-18
3.060000E+03	3.793153E-17	9.218431E-18
3.070000E+03	3.649459E-17	8.868958E-18
3.080000E+03	3.510771E-17	8.531669E-18
3.090000E+03	3.377185E-17	8.206795E-18
3.100000E+03	3.248421E-17	7.893653E-18
3.110000E+03	3.124481E-17	7.592251E-18
3.120000E+03	3.005224E-17	7.302245E-18
3.130000E+03	2.890458E-17	7.023164E-18
3.140000E+03	2.780164E-17	6.754965E-18
3.150000E+03	2.674151E-17	6.497184E-18
3.160000E+03	2.572342E-17	6.249627E-18
3.170000E+03	2.474603E-17	6.011974E-18
3.180000E+03	2.380805E-17	5.783909E-18
3.190000E+03	2.290865E-17	5.565227E-18
3.200000E+03	2.204654E-17	5.355619E-18
3.210000E+03	2.122014E-17	5.154694E-18
3.220000E+03	2.042898E-17	4.962345E-18
3.230000E+03	1.967151E-17	4.778187E-18
3.240000E+03	1.894690E-17	4.602023E-18
3.250000E+03	1.825400E-17	4.433572E-18
3.260000E+03	1.759143E-17	4.272495E-18
3.270000E+03	1.695862E-17	4.118657E-18
3.280000E+03	1.635399E-17	3.971674E-18
3.290000E+03	1.577701E-17	3.831412E-18
3.300000E+03	1.522661E-17	3.697615E-18
3.310000E+03	1.470133E-17	3.569927E-18
3.320000E+03	1.420065E-17	3.448219E-18
3.330000E+03	1.372359E-17	3.332254E-18
3.340000E+03	1.326901E-17	3.221755E-18
3.350000E+03	1.283601E-17	3.116502E-18
3.360000E+03	1.242372E-17	3.016284E-18
3.370000E+03	1.203129E-17	2.920895E-18
3.380000E+03	1.165790E-17	2.830135E-18
3.390000E+03	1.130275E-17	2.743810E-18
3.400000E+03	1.096495E-17	2.661699E-18
3.410000E+03	1.064361E-17	2.583593E-18
3.420000E+03	1.033833E-17	2.509389E-18
3.430000E+03	1.004804E-17	2.438827E-18
3.440000E+03	9.772238E-18	2.371787E-18
3.450000E+03	9.510196E-18	2.308091E-18
3.460000E+03	9.261337E-18	2.247599E-18
3.470000E+03	9.024898E-18	2.190125E-18
3.480000E+03	8.800269E-18	2.135521E-18
3.490000E+03	8.586974E-18	2.083671E-18
3.500000E+03	8.384367E-18	2.034419E-18
3.510000E+03	8.192027E-18	1.987660E-18
3.520000E+03	8.009200E-18	1.943214E-18
3.530000E+03	7.835534E-18	1.900993E-18
3.540000E+03	7.670446E-18	1.860856E-18
3.550000E+03	7.513475E-18	1.822691E-18
3.560000E+03	7.364189E-18	1.786393E-18
3.570000E+03	7.222040E-18	1.751829E-18
3.580000E+03	7.086808E-18	1.718945E-18
3.590000E+03	6.958068E-18	1.687638E-18
3.600000E+03	6.835425E-18	1.657812E-18
3.610000E+03	6.718710E-18	1.629426E-18
3.620000E+03	6.607501E-18	1.602377E-18
3.630000E+03	6.501528E-18	1.576600E-18
3.640000E+03	6.400538E-18	1.552033E-18
3.650000E+03	6.304292E-18	1.528618E-18
3.660000E+03	6.212558E-18	1.506299E-18
3.670000E+03	6.125121E-18	1.485023E-18
3.680000E+03	6.041830E-18	1.464753E-18
3.690000E+03	5.962537E-18	1.445454E-18
3.700000E+03	5.887043E-18	1.427078E-18
3.710000E+03	5.815369E-18	1.409629E-18
3.720000E+03	5.747268E-18	1.393047E-18
3.730000E+03	5.682706E-18	1.377323E-18
3.740000E+03	5.621550E-18	1.362427E-18
3.750000E+03	5.563714E-18	1.348335E-18
3.760000E+03	5.509206E-18	1.335052E-18
3.770000E+03	5.457800E-18	1.322521E-18
3.780000E+03	5.409504E-18	1.310744E-18
3.790000E+03	5.364275E-18	1.299710E-18
3.800000E+03	5.321942E-18	1.289379E-18
3.810000E+03	5.282507E-18	1.279751E-18
3.820000E+03	5.245927E-18	1.270815E-18
3.830000E+03	5.212078E-18	1.262540E-18
3.840000E+03	5.180878E-18	1.254908E-18
3.850000E+03	5.152368E-18	1.247927E-18
3.860000E+03	5.126384E-18	1.241559E-18
3.870000E+03	5.102931E-18	1.235803E-18
3.880000E+03	5.081927E-18	1.230641E-18
3.890000E+03	5.063335E-18	1.226062E-18
3.900000E+03	5.047120E-18	1.222059E-18
3.910000E+03	5.033164E-18	1.218603E-18
3.920000E+03	5.021435E-18	1.215685E-18
3.930000E+03	5.011938E-18	1.213308E-18
3.940000E+03	5.004600E-18	1.211453E-18
3.950000E+03	4.999353E-18	1.210104E-18
3.960000E+03	4.996164E-18	1.209252E-18
3.970000E+03	4.994968E-18	1.208882E-18
3.980000E+03	4.995735E-18	1.208986E-18
3.990000E+03	4.998441E-18	1.209559E-18
4.000000E+03	5.003059E-18	1.210594E-18
4.010000E+03	5.009488E-18	1.212066E-18
4.020000E+03	5.017705E-18	1.213969E-18
4.030000E+03	5.027690E-18	1.216300E-18
4.040000E+03	5.039425E-18	1.219052E-18
4.050000E+03	5.052850E-18	1.222213E-18
4.060000E+03	5.067912E-18	1.225768E-18
4.070000E+03	5.084592E-18	1.229713E-18
4.080000E+03	5.102839E-18	1.234036E-18
4.090000E+03	5.122638E-18	1.238732E-18
4.100000E+03	5.143938E-18	1.243791E-18
4.110000E+03	5.166727E-18	1.249207E-18
4.120000E+03	5.190956E-18	1.254970E-18
4.130000E+03	5.216575E-18	1.261068E-18
4.140000E+03	5.243574E-18	1.267497E-18
4.150000E+03	5.271907E-18	1.274247E-18
4.160000E+03	5.301567E-18	1.281315E-18
4.170000E+03	5.332466E-18	1.288681E-18
4.180000E+03	5.364598E-18	1.296344E-18
4.190000E+03	5.397876E-18	1.304281E-18
4.200000E+03	5.432339E-18	1.312502E-18
4.210000E+03	5.467898E-18	1.320985E-18
4.220000E+03	5.504553E-18	1.329731E-18
4.230000E+03	5.542171E-18	1.338707E-18
4.240000E+03	5.580792E-18	1.347924E-18
4.250000E+03	5.620287E-18	1.357348E-18
4.260000E+03	5.660695E-18	1.366991E-18
4.270000E+03	5.701883E-18	1.376819E-18
4.280000E+03	5.743758E-18	1.386811E-18
4.290000E+03	5.786366E-18	1.396977E-18
4.300000E+03	5.829520E-18	1.407272E-18
4.310000E+03	5.873264E-18	1.417706E-18
4.320000E+03	5.917411E-18	1.428235E-18
4.330000E+03	5.962001E-18	1.438868E-18
4.340000E+03	6.006941E-18	1.449582E-18
4.350000E+03	6.052128E-18	1.460353E-18
4.360000E+03	6.097559E-18	1.471179E-18
4.370000E+03	6.143182E-18	1.482049E-18
4.380000E+03	6.189043E-18	1.492973E-18
4.390000E+03	6.235040E-18	1.503927E-18
4.400000E+03	6.281272E-18	1.514934E-18
4.410000E+03	6.327740E-18	1.525995E-18
4.420000E+03	6.374451E-18	1.537111E-18
4.430000E+03	6.421406E-18	1.548282E-18
4.440000E+03	6.468667E-18	1.559524E-18
4.450000E+03	6.516189E-18	1.570825E-18
4.460000E+03	6.564034E-18	1.582201E-18
4.470000E+03	6.612215E-18	1.593654E-18
4.480000E+03	6.660745E-18	1.605188E-18
4.490000E+03	6.709583E-18	1.616792E-18
4.500000E+03	6.758746E-18	1.628470E-18
4.510000E+03	6.808189E-18	1.640213E-18
4.520000E+03	6.857989E-18	1.652037E-18
4.530000E+03	6.908045E-18	1.663920E-18
4.540000E+03	6.958376E-18	1.675864E-18
4.550000E+03	7.009000E-18	1.687875E-18
4.560000E+03	7.059816E-18	1.699929E-18
4.570000E+03	7.110906E-18	1.712044E-18
4.580000E+03	7.162169E-18	1.724197E-18
4.590000E+03	7.213630E-18	1.736393E-18
4.600000E+03	7.265189E-18	1.748608E-18
4.610000E+03	7.316933E-18	1.760864E-18
4.620000E+03	7.368830E-18	1.773152E-18
4.630000E+03	7.420783E-18	1.785450E-18
4.640000E+03	7.472827E-18	1.797764E-18
4.650000E+03	7.524997E-18	1.810105E-18
4.660000E+03	7.577268E-18	1.822465E-18
4.670000E+03	7.629548E-18	1.834823E-18
4.680000E+03	7.682018E-18	1.847222E-18
4.690000E+03	7.734729E-18	1.859674E-18
4.700000E+03	7.787600E-18	1.872160E-18
4.710000E+03	7.840687E-18	1.884693E-18
4.720000E+03	7.894056E-18	1.897289E-18
4.730000E+03	7.947556E-18	1.909911E-18
4.740000E+03	8.001250E-18	1.922575E-18
4.750000E+03	8.055066E-18	1.935263E-18
4.760000E+03	8.109073E-18	1.947992E-18
4.770000E+03	8.163271E-18	1.960762E-18
4.780000E+03	8.217585E-18	1.973555E-18
4.790000E+03	8.272095E-18	1.986389E-18
4.800000E+03	8.326727E-18	1.999247E-18
4.810000E+03	8.381563E-18	2.012149E-18
4.820000E+03	8.436531E-18	2.025077E-18
4.830000E+03	8.491638E-18	2.038032E-18
4.840000E+03	8.546890E-18	2.051017E-18
4.850000E+03	8.602373E-18	2.064052E-18
4.860000E+03	8.658014E-18	2.077119E-18
4.870000E+03	8.713821E-18	2.090220E-18
4.880000E+03	8.769716E-18	2.103336E-18
4.890000E+03	8.825867E-18	2.116508E-18
4.900000E+03	8.882196E-18	2.129716E-18
4.910000E+03	8.938706E-18	2.142962E-18
4.920000E+03	8.995315E-18	2.156225E-18
4.930000E+03	9.052104E-18	2.169525E-18
4.940000E+03	9.108985E-18	2.182841E-18
4.950000E+03	9.165952E-18	2.196172E-18
4.960000E+03	9.223087E-18	2.209536E-18
4.970000E+03	9.280292E-18	2.222911E-18
4.980000E+03	9.337563E-18	2.236294E-18
4.990000E+03	9.394792E-18	2.249662E-18
5.000000E+03	9.452057E-18	2.263031E-18
5.010000E+03	9.509342E-18	2.276398E-18
5.020000E+03	9.566540E-18	2.289738E-18
5.030000E+03	9.623628E-18	2.303045E-18
5.040000E+03	9.680585E-18	2.316313E-18
5.050000E+03	9.737296E-18	2.329516E-18
5.060000E+03	9.793830E-18	2.342669E-18
5.070000E+03	9.850161E-18	2.355767E-18
5.080000E+03	9.906073E-18	2.368757E-18
5.090000E+03	9.961636E-18	2.381657E-18
5.100000E+03	1.001682E-17	2.394460E-18
5.110000E+03	1.007150E-17	2.407135E-18
5.120000E+03	1.012566E-17	2.419676E-18
5.130000E+03	1.017925E-17	2.432077E-18
5.140000E+03	1.023225E-17	2.444330E-18
5.150000E+03	1.028454E-17	2.456404E-18
5.160000E+03	1.033617E-17	2.468314E-18
5.170000E+03	1.038691E-17	2.480005E-18
5.180000E+03	1.043683E-17	2.491491E-18
5.190000E+03	1.048577E-17	2.502737E-18
5.200000E+03	1.053368E-17	2.513731E-18
5.210000E+03	1.058052E-17	2.524461E-18
5.220000E+03	1.062622E-17	2.534914E-18
5.230000E+03	1.067052E-17	2.545023E-18
5.240000E+03	1.071354E-17	2.554822E-18
5.250000E+03	1.075511E-17	2.564269E-18
5.260000E+03	1.079516E-17	2.573345E-18
5.270000E+03	1.083349E-17	2.582004E-18
5.280000E+03	1.087002E-17	2.590228E-18
5.290000E+03	1.090466E-17	2.597995E-18
5.300000E+03	1.093732E-17	2.605284E-18
5.310000E+03	1.096792E-17	2.612077E-18
5.320000E+03	1.099628E-17	2.618328E-18
5.330000E+03	1.102252E-17	2.624071E-18
5.340000E+03	1.104637E-17	2.629237E-18
5.350000E+03	1.106775E-17	2.633811E-18
5.360000E+03	1.108683E-17	2.637832E-18
5.370000E+03	1.110334E-17	2.641235E-18
5.380000E+03	1.111746E-17	2.644064E-18
5.390000E+03	1.112904E-17	2.646286E-18
5.400000E+03	1.113817E-17	2.647920E-18
5.410000E+03	1.114473E-17	2.648938E-18
5.420000E+03	1.114892E-17	2.649391E-18
5.430000E+03	1.115065E-17	2.649253E-18
5.440000E+03	1.115004E-17	2.648555E-18
5.450000E+03	1.114688E-17	2.647249E-18
5.460000E+03	1.114132E-17	2.645369E-18
5.470000E+03	1.113329E-17	2.642899E-18
5.480000E+03	1.112271E-17	2.639823E-18
5.490000E+03	1.110977E-17	2.636181E-18
5.500000E+03	1.109429E-17	2.631936E-18
5.510000E+03	1.107623E-17	2.627078E-18
5.520000E+03	1.105569E-17	2.621627E-18
5.530000E+03	1.103250E-17	2.615549E-18
5.540000E+03	1.100688E-17	2.608891E-18
5.550000E+03	1.097857E-17	2.601597E-18
5.560000E+03	1.094790E-17	2.593742E-18
5.570000E+03	1.091486E-17	2.585324E-18
5.580000E+03	1.087943E-17	2.576339E-18
5.590000E+03	1.084170E-17	2.566813E-18
5.600000E+03	1.080179E-17	2.556768E-18
5.610000E+03	1.075967E-17	2.546203E-18
5.620000E+03	1.071567E-17	2.535193E-18
5.630000E+03	1.066967E-17	2.523709E-18
5.640000E+03	1.062196E-17	2.511825E-18
5.650000E+03	1.057244E-17	2.499512E-18
5.660000E+03	1.052140E-17	2.486843E-18
5.670000E+03	1.046893E-17	2.473837E-18
5.680000E+03	1.041501E-17	2.460491E-18
5.690000E+03	1.035982E-17	2.446849E-18
5.700000E+03	1.030345E-17	2.432930E-18
5.710000E+03	1.024609E-17	2.418779E-18
5.720000E+03	1.018780E-17	2.404414E-18
5.730000E+03	1.012857E-17	2.389828E-18
5.740000E+03	1.006868E-17	2.375089E-18
5.750000E+03	1.000819E-17	2.360215E-18
5.760000E+03	9.947095E-18	2.345199E-18
5.770000E+03	9.885562E-18	2.330084E-18
5.780000E+03	9.823777E-18	2.314914E-18
5.790000E+03	9.761815E-18	2.299706E-18
5.800000E+03	9.699653E-18	2.284455E-18
5.810000E+03	9.637473E-18	2.269203E-18
5.820000E+03	9.575461E-18	2.253996E-18
5.830000E+03	9.513700E-18	2.238851E-18
5.840000E+03	9.452168E-18	2.223764E-18
5.850000E+03	9.391055E-18	2.208780E-18
5.860000E+03	9.330446E-18	2.193919E-18
5.870000E+03	9.270527E-18	2.179225E-18
5.880000E+03	9.211383E-18	2.164716E-18
5.890000E+03	9.152995E-18	2.150389E-18
5.900000E+03	9.095549E-18	2.136288E-18
5.910000E+03	9.039021E-18	2.122406E-18
5.920000E+03	8.983794E-18	2.108833E-18
5.930000E+03	8.929637E-18	2.095515E-18
5.940000E+03	8.876719E-18	2.082492E-18
5.950000E+03	8.825211E-18	2.069803E-18
5.960000E+03	8.775069E-18	2.057438E-18
5.970000E+03	8.726353E-18	2.045410E-18
5.980000E+03	8.679212E-18	2.033755E-18
5.990000E+03	8.633596E-18	2.022460E-18
6.000000E+03	8.589645E-18	2.011557E-18
6.010000E+03	8.547200E-18	2.001010E-18
6.020000E+03	8.506492E-18	1.990872E-18
6.030000E+03	8.467353E-18	1.981103E-18
6.040000E+03	8.430006E-18	1.971755E-18
6.050000E+03	8.394178E-18	1.962765E-18
6.060000E+03	8.360084E-18	1.954181E-18
6.070000E+03	8.327639E-18	1.945984E-18
6.080000E+03	8.296853E-18	1.938176E-18
6.090000E+03	8.267540E-18	1.930714E-18
6.100000E+03	8.239899E-18	1.923642E-18
6.110000E+03	8.213637E-18	1.916892E-18
6.120000E+03	8.188951E-18	1.910511E-18
6.130000E+03	8.165536E-18	1.904427E-18
6.140000E+03	8.143389E-18	1.898638E-18
6.150000E+03	8.122396E-18	1.893118E-18
6.160000E+03	8.102545E-18	1.887864E-18
6.170000E+03	8.083519E-18	1.882802E-18
6.180000E+03	8.065293E-18	1.877925E-18
6.190000E+03	8.047744E-18	1.873205E-18
6.200000E+03	8.030843E-18	1.868636E-18
6.210000E+03	8.014560E-18	1.864209E-18
6.220000E+03	7.999068E-18	1.859965E-18
6.230000E+03	7.984640E-18	1.855967E-18
6.240000E+03	7.971350E-18	1.852233E-18
6.250000E+03	7.959376E-18	1.848804E-18
6.260000E+03	7.948898E-18	1.845719E-18
6.270000E+03	7.939994E-18	1.842999E-18
6.280000E+03	7.932850E-18	1.840685E-18
6.290000E+03	7.927549E-18	1.838796E-18
6.300000E+03	7.924182E-18	1.837352E-18
6.310000E+03	7.922943E-18	1.836399E-18
6.320000E+03	7.923821E-18	1.835934E-18
6.330000E+03	7.927023E-18	1.836003E-18
6.340000E+03	7.932431E-18	1.836578E-18
6.350000E+03	7.940151E-18	1.837684E-18
6.360000E+03	7.950175E-18	1.839318E-18
6.370000E+03	7.962618E-18	1.841507E-18
6.380000E+03	7.977364E-18	1.844222E-18
6.390000E+03	7.994417E-18	1.847464E-18
6.400000E+03	8.013660E-18	1.851205E-18
6.410000E+03	8.034861E-18	1.855392E-18
6.420000E+03	8.057899E-18	1.859995E-18
6.430000E+03	8.082764E-18	1.865012E-18
6.440000E+03	8.109451E-18	1.870441E-18
6.450000E+03	8.137955E-18	1.876281E-18
6.460000E+03	8.168390E-18	1.882557E-18
6.470000E+03	8.200881E-18	1.889297E-18
6.480000E+03	8.235431E-18	1.896502E-18
6.490000E+03	8.271917E-18	1.904142E-18
6.500000E+03	8.310596E-18	1.912277E-18
6.510000E+03	8.351479E-18	1.920908E-18
6.520000E+03	8.394447E-18	1.930006E-18
6.530000E+03	8.439641E-18	1.939605E-18
6.540000E+03	8.487075E-18	1.949705E-18
6.550000E+03	8.536628E-18	1.960280E-18
6.560000E+03	8.588312E-18	1.971330E-18
6.570000E+03	8.642416E-18	1.982922E-18
6.580000E+03	8.698546E-18	1.994964E-18
6.590000E+03	8.756991E-18	2.007522E-18
6.600000E+03	8.817772E-18	2.020601E-18
6.610000E+03	8.880623E-18	2.034137E-18
6.620000E+03	8.945847E-18	2.048201E-18
6.630000E+03	9.013171E-18	2.062728E-18
6.640000E+03	9.082908E-18	2.077790E-18
6.650000E+03	9.154781E-18	2.093323E-18
6.660000E+03	9.228958E-18	2.109364E-18
6.670000E+03	9.305459E-18	2.125917E-18
6.680000E+03	9.384149E-18	2.142950E-18
6.690000E+03	9.465044E-18	2.160467E-18
6.700000E+03	9.548325E-18	2.178507E-18
6.710000E+03	9.633853E-18	2.197039E-18
6.720000E+03	9.721647E-18	2.216065E-18
6.730000E+03	9.811726E-18	2.235590E-18
6.740000E+03	9.904110E-18	2.255617E-18
6.750000E+03	9.998824E-18	2.276150E-18
6.760000E+03	1.009589E-17	2.297195E-18
6.770000E+03	1.019515E-17	2.318714E-18
6.780000E+03	1.029680E-17	2.340752E-18
6.790000E+03	1.040088E-17	2.363314E-18
6.800000E+03	1.050720E-17	2.386362E-18
6.810000E+03	1.061600E-17	2.409943E-18
6.820000E+03	1.072709E-17	2.434018E-18
6.830000E+03	1.084051E-17	2.458590E-18
6.840000E+03	1.095626E-17	2.483663E-18
6.850000E+03	1.107437E-17	2.509242E-18
6.860000E+03	1.119506E-17	2.535375E-18
6.870000E+03	1.131796E-17	2.561975E-18
6.880000E+03	1.144327E-17	2.589090E-18
6.890000E+03	1.157102E-17	2.616727E-18
6.900000E+03	1.170103E-17	2.644837E-18
6.910000E+03	1.183351E-17	2.673475E-18
6.920000E+03	1.196849E-17	2.702644E-18
6.930000E+03	1.210577E-17	2.732295E-18
6.940000E+03	1.224536E-17	2.762432E-18
6.950000E+03	1.238750E-17	2.793108E-18
6.960000E+03	1.253197E-17	2.824273E-18
6.970000E+03	1.267879E-17	2.855930E-18
6.980000E+03	1.282797E-17	2.888078E-18
6.990000E+03	1.297951E-17	2.920720E-18
7.000000E+03	1.313316E-17	2.953798E-18
7.010000E+03	1.328946E-17	2.987428E-18
7.020000E+03	1.344787E-17	3.021494E-18
7.030000E+03	1.360867E-17	3.056054E-18
7.040000E+03	1.377160E-17	3.091049E-18
7.050000E+03	1.393664E-17	3.126475E-18
7.060000E+03	1.410406E-17	3.162392E-18
7.070000E+03	1.427359E-17	3.198736E-18
7.080000E+03	1.444492E-17	3.235440E-18
7.090000E+03	1.461863E-17	3.272629E-18
7.100000E+03	1.479439E-17	3.310233E-18
7.110000E+03	1.497192E-17	3.348184E-18
7.120000E+03	1.515148E-17	3.386543E-18
7.130000E+03	1.533274E-17	3.425233E-18
7.140000E+03	1.551597E-17	3.464316E-18
7.150000E+03	1.570087E-17	3.503722E-18
7.160000E+03	1.588770E-17	3.543507E-18
7.170000E+03	1.607578E-17	3.583523E-18
7.180000E+03	1.626540E-17	3.623829E-18
7.190000E+03	1.645685E-17	3.664492E-18
7.200000E+03	1.664942E-17	3.705353E-18
7.210000E+03	1.684305E-17	3.746399E-18
7.220000E+03	1.703802E-17	3.787689E-18
7.230000E+03	1.723430E-17	3.829217E-18
7.240000E+03	1.743145E-17	3.870885E-18
7.250000E+03	1.762977E-17	3.912761E-18
7.260000E+03	1.782885E-17	3.954750E-18
7.270000E+03	1.802858E-17	3.996830E-18
7.280000E+03	1.822930E-17	4.039074E-18
7.290000E+03	1.843053E-17	4.081376E-18
7.300000E+03	1.863257E-17	4.123803E-18
7.310000E+03	1.883496E-17	4.166252E-18
7.320000E+03	1.903760E-17	4.208701E-18
7.330000E+03	1.924124E-17	4.251316E-18
7.340000E+03	1.944495E-17	4.293891E-18
7.350000E+03	1.964953E-17	4.336601E-18
7.360000E+03	1.985447E-17	4.379334E-18
7.370000E+03	2.006012E-17	4.422169E-18
7.380000E+03	2.026690E-17	4.465196E-18
7.390000E+03	2.047431E-17	4.508305E-18
7.400000E+03	2.068325E-17	4.551694E-18
7.410000E+03	2.089369E-17	4.595355E-18
7.420000E+03	2.110612E-17	4.639397E-18
7.430000E+03	2.132058E-17	4.683827E-18
7.440000E+03	2.153707E-17	4.728643E-18
7.450000E+03	2.175613E-17	4.773965E-18
7.460000E+03	2.197680E-17	4.819581E-18
7.470000E+03	2.219911E-17	4.865496E-18
7.480000E+03	2.242256E-17	4.911600E-18
7.490000E+03	2.264767E-17	4.958007E-18
7.500000E+03	2.287397E-17	5.004612E-18
7.510000E+03	2.310090E-17	5.051295E-18
7.520000E+03	2.332846E-17	5.098056E-18
7.530000E+03	2.355666E-17	5.144895E-18
7.540000E+03	2.378496E-17	5.191694E-18
7.550000E+03	2.401390E-17	5.238571E-18
7.560000E+03	2.424232E-17	5.285274E-18
7.570000E+03	2.447139E-17	5.332057E-18
7.580000E+03	2.470047E-17	5.378782E-18
7.590000E+03	2.492957E-17	5.425450E-18
7.600000E+03	2.515802E-17	5.471917E-18
7.610000E+03	2.538639E-17	5.518307E-18
7.620000E+03	2.561463E-17	5.564608E-18
7.630000E+03	2.584264E-17	5.610799E-18
7.640000E+03	2.606972E-17	5.656728E-18
7.650000E+03	2.629636E-17	5.702505E-18
7.660000E+03	2.652181E-17	5.747963E-18
7.670000E+03	2.674722E-17	5.793355E-18
7.680000E+03	2.697043E-17	5.838215E-18
7.690000E+03	2.719329E-17	5.882941E-18
7.700000E+03	2.741492E-17	5.927343E-18
7.710000E+03	2.763442E-17	5.971230E-18
7.720000E+03	2.785225E-17	6.014702E-18
7.730000E+03	2.806818E-17	6.057708E-18
7.740000E+03	2.828195E-17	6.100196E-18
7.750000E+03	2.849332E-17	6.142112E-18
7.760000E+03	2.870276E-17	6.183563E-18
