#wls	flux	fluxerr
1.600000E+03	2.466406E-16	6.027767E-17
1.640000E+03	2.580887E-16	6.283324E-17
1.680000E+03	2.696236E-16	6.538074E-17
1.720000E+03	2.811197E-16	6.788842E-17
1.760000E+03	2.925421E-16	7.034681E-17
1.800000E+03	3.037330E-16	7.271720E-17
1.840000E+03	3.145722E-16	7.497037E-17
1.880000E+03	3.249775E-16	7.708680E-17
1.920000E+03	3.347434E-16	7.901821E-17
1.960000E+03	3.437321E-16	8.073329E-17
2.000000E+03	3.517419E-16	8.218648E-17
2.040000E+03	3.586160E-16	8.334390E-17
2.080000E+03	3.640945E-16	8.414878E-17
2.120000E+03	3.679533E-16	8.455417E-17
2.160000E+03	3.699633E-16	8.451351E-17
2.200000E+03	3.698166E-16	8.396394E-17
2.240000E+03	3.672459E-16	8.285393E-17
2.280000E+03	3.621416E-16	8.116944E-17
2.320000E+03	3.545379E-16	7.892958E-17
2.360000E+03	3.447133E-16	7.620791E-17
2.400000E+03	3.329127E-16	7.306948E-17
2.440000E+03	3.193716E-16	6.957623E-17
2.480000E+03	3.043613E-16	6.579684E-17
2.520000E+03	2.880770E-16	6.178221E-17
2.560000E+03	2.707614E-16	5.759245E-17
2.600000E+03	2.526497E-16	5.328470E-17
2.640000E+03	2.340032E-16	4.892010E-17
2.680000E+03	2.150672E-16	4.455479E-17
2.720000E+03	1.960991E-16	4.024567E-17
2.760000E+03	1.773521E-16	3.604689E-17
2.800000E+03	1.590695E-16	3.200855E-17
2.840000E+03	1.414812E-16	2.817608E-17
2.880000E+03	1.247995E-16	2.458942E-17
2.920000E+03	1.092045E-16	2.128016E-17
2.960000E+03	9.483918E-17	1.827098E-17
3.000000E+03	8.179804E-17	1.557371E-17
3.010000E+03	7.875301E-17	1.494889E-17
3.020000E+03	7.579206E-17	1.434324E-17
3.030000E+03	7.291832E-17	1.375723E-17
3.040000E+03	7.012961E-17	1.319034E-17
3.050000E+03	6.742684E-17	1.264260E-17
3.060000E+03	6.481058E-17	1.211400E-17
3.070000E+03	6.227708E-17	1.160371E-17
3.080000E+03	5.982927E-17	1.111215E-17
3.090000E+03	5.746337E-17	1.063849E-17
3.100000E+03	5.518048E-17	1.018281E-17
3.110000E+03	5.297800E-17	9.744492E-18
3.120000E+03	5.085453E-17	9.323164E-18
3.130000E+03	4.881053E-17	8.918784E-18
3.140000E+03	4.684268E-17	8.530617E-18
3.150000E+03	4.495222E-17	8.158770E-18
3.160000E+03	4.313495E-17	7.802357E-18
3.170000E+03	4.139175E-17	7.461413E-18
3.180000E+03	3.971930E-17	7.135225E-18
3.190000E+03	3.811729E-17	6.823618E-18
3.200000E+03	3.658311E-17	6.526010E-18
3.210000E+03	3.511555E-17	6.242068E-18
3.220000E+03	3.371260E-17	5.971326E-18
3.230000E+03	3.237245E-17	5.713352E-18
3.240000E+03	3.109269E-17	5.467616E-18
3.250000E+03	2.987252E-17	5.233873E-18
3.260000E+03	2.870949E-17	5.011590E-18
3.270000E+03	2.760213E-17	4.800411E-18
3.280000E+03	2.654804E-17	4.599824E-18
3.290000E+03	2.554530E-17	4.409398E-18
3.300000E+03	2.459232E-17	4.228773E-18
3.310000E+03	2.368681E-17	4.057464E-18
3.320000E+03	2.282718E-17	3.895115E-18
3.330000E+03	2.201156E-17	3.741323E-18
3.340000E+03	2.123747E-17	3.595589E-18
3.350000E+03	2.050374E-17	3.457639E-18
3.360000E+03	1.980834E-17	3.327056E-18
3.370000E+03	1.914961E-17	3.203492E-18
3.380000E+03	1.852591E-17	3.086604E-18
3.390000E+03	1.793518E-17	2.975986E-18
3.400000E+03	1.737644E-17	2.871414E-18
3.410000E+03	1.684800E-17	2.772545E-18
3.420000E+03	1.634824E-17	2.679061E-18
3.430000E+03	1.587587E-17	2.590693E-18
3.440000E+03	1.542961E-17	2.507184E-18
3.450000E+03	1.500789E-17	2.428225E-18
3.460000E+03	1.460977E-17	2.353619E-18
3.470000E+03	1.423382E-17	2.283089E-18
3.480000E+03	1.387905E-17	2.216436E-18
3.490000E+03	1.354436E-17	2.153441E-18
3.500000E+03	1.322871E-17	2.093902E-18
3.510000E+03	1.293112E-17	2.037626E-18
3.520000E+03	1.265071E-17	1.984438E-18
3.530000E+03	1.238646E-17	1.934145E-18
3.540000E+03	1.213747E-17	1.886575E-18
3.550000E+03	1.190301E-17	1.841584E-18
3.560000E+03	1.168226E-17	1.799016E-18
3.570000E+03	1.147460E-17	1.758749E-18
3.580000E+03	1.127917E-17	1.720626E-18
3.590000E+03	1.109545E-17	1.684540E-18
3.600000E+03	1.092277E-17	1.650370E-18
3.610000E+03	1.076078E-17	1.618037E-18
3.620000E+03	1.060879E-17	1.587418E-18
3.630000E+03	1.046639E-17	1.558430E-18
3.640000E+03	1.033286E-17	1.530947E-18
3.650000E+03	1.020782E-17	1.504896E-18
3.660000E+03	1.009086E-17	1.480196E-18
3.670000E+03	9.981552E-18	1.456771E-18
3.680000E+03	9.879590E-18	1.434559E-18
3.690000E+03	9.784684E-18	1.413503E-18
3.700000E+03	9.696471E-18	1.393537E-18
3.710000E+03	9.614768E-18	1.374619E-18
3.720000E+03	9.539227E-18	1.356688E-18
3.730000E+03	9.469769E-18	1.339718E-18
3.740000E+03	9.406135E-18	1.323662E-18
3.750000E+03	9.348083E-18	1.308471E-18
3.760000E+03	9.295453E-18	1.294113E-18
3.770000E+03	9.248167E-18	1.280566E-18
3.780000E+03	9.205990E-18	1.267785E-18
3.790000E+03	9.168853E-18	1.255751E-18
3.800000E+03	9.136533E-18	1.244422E-18
3.810000E+03	9.108891E-18	1.233770E-18
3.820000E+03	9.085870E-18	1.223777E-18
3.830000E+03	9.067416E-18	1.214426E-18
3.840000E+03	9.053327E-18	1.205681E-18
3.850000E+03	9.043632E-18	1.197537E-18
3.860000E+03	9.038060E-18	1.189949E-18
3.870000E+03	9.036718E-18	1.182921E-18
3.880000E+03	9.039342E-18	1.176412E-18
3.890000E+03	9.046033E-18	1.170427E-18
3.900000E+03	9.056598E-18	1.164931E-18
3.910000E+03	9.070995E-18	1.159912E-18
3.920000E+03	9.089103E-18	1.155347E-18
3.930000E+03	9.110878E-18	1.151223E-18
3.940000E+03	9.136205E-18	1.147518E-18
3.950000E+03	9.165113E-18	1.144229E-18
3.960000E+03	9.197415E-18	1.141326E-18
3.970000E+03	9.233073E-18	1.138797E-18
3.980000E+03	9.271975E-18	1.136623E-18
3.990000E+03	9.314153E-18	1.134802E-18
4.000000E+03	9.359503E-18	1.133315E-18
4.010000E+03	9.407912E-18	1.132143E-18
4.020000E+03	9.459269E-18	1.131268E-18
4.030000E+03	9.513621E-18	1.130689E-18
4.040000E+03	9.570789E-18	1.130381E-18
4.050000E+03	9.630825E-18	1.130346E-18
4.060000E+03	9.693564E-18	1.130560E-18
4.070000E+03	9.758994E-18	1.131018E-18
4.080000E+03	9.827113E-18	1.131715E-18
4.090000E+03	9.897852E-18	1.132640E-18
4.100000E+03	9.971142E-18	1.133782E-18
4.110000E+03	1.004693E-17	1.135131E-18
4.120000E+03	1.012531E-17	1.136696E-18
4.130000E+03	1.020617E-17	1.138461E-18
4.140000E+03	1.028954E-17	1.140426E-18
4.150000E+03	1.037530E-17	1.142577E-18
4.160000E+03	1.046351E-17	1.144918E-18
4.170000E+03	1.055423E-17	1.147453E-18
4.180000E+03	1.064734E-17	1.150168E-18
4.190000E+03	1.074294E-17	1.153071E-18
4.200000E+03	1.084092E-17	1.156150E-18
4.210000E+03	1.094140E-17	1.159417E-18
4.220000E+03	1.104430E-17	1.162861E-18
4.230000E+03	1.114973E-17	1.166494E-18
4.240000E+03	1.125764E-17	1.170310E-18
4.250000E+03	1.136808E-17	1.174314E-18
4.260000E+03	1.148102E-17	1.178501E-18
4.270000E+03	1.159661E-17	1.182889E-18
4.280000E+03	1.171484E-17	1.187476E-18
4.290000E+03	1.183578E-17	1.192270E-18
4.300000E+03	1.195946E-17	1.197274E-18
4.310000E+03	1.208587E-17	1.202486E-18
4.320000E+03	1.221511E-17	1.207920E-18
4.330000E+03	1.234729E-17	1.213587E-18
4.340000E+03	1.248244E-17	1.219490E-18
4.350000E+03	1.262067E-17	1.225642E-18
4.360000E+03	1.276201E-17	1.232049E-18
4.370000E+03	1.290668E-17	1.238733E-18
4.380000E+03	1.305484E-17	1.245711E-18
4.390000E+03	1.320694E-17	1.253029E-18
4.400000E+03	1.336293E-17	1.260682E-18
4.410000E+03	1.352273E-17	1.268667E-18
4.420000E+03	1.368616E-17	1.276969E-18
4.430000E+03	1.385330E-17	1.285599E-18
4.440000E+03	1.402382E-17	1.294532E-18
4.450000E+03	1.419757E-17	1.303757E-18
4.460000E+03	1.437447E-17	1.313274E-18
4.470000E+03	1.455434E-17	1.323069E-18
4.480000E+03	1.473691E-17	1.333127E-18
4.490000E+03	1.492180E-17	1.343414E-18
4.500000E+03	1.510883E-17	1.353920E-18
4.510000E+03	1.529757E-17	1.364613E-18
4.520000E+03	1.548767E-17	1.375466E-18
4.530000E+03	1.567873E-17	1.386452E-18
4.540000E+03	1.587015E-17	1.397523E-18
4.550000E+03	1.606160E-17	1.408659E-18
4.560000E+03	1.625251E-17	1.419818E-18
4.570000E+03	1.644245E-17	1.430970E-18
4.580000E+03	1.663063E-17	1.442058E-18
4.590000E+03	1.681670E-17	1.453060E-18
4.600000E+03	1.699986E-17	1.463916E-18
4.610000E+03	1.717969E-17	1.474602E-18
4.620000E+03	1.735532E-17	1.485053E-18
4.630000E+03	1.752616E-17	1.495229E-18
4.640000E+03	1.769141E-17	1.505075E-18
4.650000E+03	1.785057E-17	1.514556E-18
4.660000E+03	1.800266E-17	1.523603E-18
4.670000E+03	1.814711E-17	1.532179E-18
4.680000E+03	1.828304E-17	1.540219E-18
4.690000E+03	1.840955E-17	1.547659E-18
4.700000E+03	1.852600E-17	1.554454E-18
4.710000E+03	1.863128E-17	1.560523E-18
4.720000E+03	1.872456E-17	1.565806E-18
4.730000E+03	1.880510E-17	1.570249E-18
4.740000E+03	1.887333E-17	1.573897E-18
4.750000E+03	1.892934E-17	1.576763E-18
4.760000E+03	1.897363E-17	1.578897E-18
4.770000E+03	1.900646E-17	1.580322E-18
4.780000E+03	1.902850E-17	1.581093E-18
4.790000E+03	1.904003E-17	1.581233E-18
4.800000E+03	1.904150E-17	1.580775E-18
4.810000E+03	1.903340E-17	1.579756E-18
4.820000E+03	1.901615E-17	1.578207E-18
4.830000E+03	1.899020E-17	1.576161E-18
4.840000E+03	1.895579E-17	1.573632E-18
4.850000E+03	1.891355E-17	1.570665E-18
4.860000E+03	1.886389E-17	1.567290E-18
4.870000E+03	1.880708E-17	1.563521E-18
4.880000E+03	1.874352E-17	1.559385E-18
4.890000E+03	1.867382E-17	1.554924E-18
4.900000E+03	1.859802E-17	1.550135E-18
4.910000E+03	1.851687E-17	1.545072E-18
4.920000E+03	1.843054E-17	1.539742E-18
4.930000E+03	1.833921E-17	1.534151E-18
4.940000E+03	1.824335E-17	1.528331E-18
4.950000E+03	1.814319E-17	1.522295E-18
4.960000E+03	1.803887E-17	1.516043E-18
4.970000E+03	1.793073E-17	1.509598E-18
4.980000E+03	1.781865E-17	1.502943E-18
4.990000E+03	1.770319E-17	1.496114E-18
5.000000E+03	1.758431E-17	1.489103E-18
5.010000E+03	1.746201E-17	1.481901E-18
5.020000E+03	1.733661E-17	1.474526E-18
5.030000E+03	1.720805E-17	1.466969E-18
5.040000E+03	1.707649E-17	1.459233E-18
5.050000E+03	1.694205E-17	1.451321E-18
5.060000E+03	1.680482E-17	1.443236E-18
5.070000E+03	1.666474E-17	1.434963E-18
5.080000E+03	1.652207E-17	1.426518E-18
5.090000E+03	1.637672E-17	1.417887E-18
5.100000E+03	1.622879E-17	1.409070E-18
5.110000E+03	1.607816E-17	1.400052E-18
5.120000E+03	1.592513E-17	1.390850E-18
5.130000E+03	1.576947E-17	1.381438E-18
5.140000E+03	1.561162E-17	1.371849E-18
5.150000E+03	1.545141E-17	1.362062E-18
5.160000E+03	1.528917E-17	1.352097E-18
5.170000E+03	1.512488E-17	1.341949E-18
5.180000E+03	1.495857E-17	1.331613E-18
5.190000E+03	1.479052E-17	1.321109E-18
5.200000E+03	1.462075E-17	1.310433E-18
5.210000E+03	1.444943E-17	1.299594E-18
5.220000E+03	1.427669E-17	1.288599E-18
5.230000E+03	1.410258E-17	1.277448E-18
5.240000E+03	1.392725E-17	1.266148E-18
5.250000E+03	1.375073E-17	1.254698E-18
5.260000E+03	1.357332E-17	1.243121E-18
5.270000E+03	1.339505E-17	1.231416E-18
5.280000E+03	1.321611E-17	1.219594E-18
5.290000E+03	1.303666E-17	1.207668E-18
5.300000E+03	1.285676E-17	1.195638E-18
5.310000E+03	1.267657E-17	1.183517E-18
5.320000E+03	1.249631E-17	1.171320E-18
5.330000E+03	1.231613E-17	1.159060E-18
5.340000E+03	1.213614E-17	1.146743E-18
5.350000E+03	1.195664E-17	1.134396E-18
5.360000E+03	1.177784E-17	1.122035E-18
5.370000E+03	1.159997E-17	1.109682E-18
5.380000E+03	1.142312E-17	1.097342E-18
5.390000E+03	1.124780E-17	1.085064E-18
5.400000E+03	1.107418E-17	1.072863E-18
5.410000E+03	1.090274E-17	1.060784E-18
5.420000E+03	1.073370E-17	1.048851E-18
5.430000E+03	1.056747E-17	1.037103E-18
5.440000E+03	1.040434E-17	1.025571E-18
5.450000E+03	1.024487E-17	1.014311E-18
5.460000E+03	1.008930E-17	1.003348E-18
5.470000E+03	9.937802E-18	9.927044E-19
5.480000E+03	9.790513E-18	9.823942E-19
5.490000E+03	9.647722E-18	9.724484E-19
5.500000E+03	9.509536E-18	9.628804E-19
5.510000E+03	9.376228E-18	9.537204E-19
5.520000E+03	9.248059E-18	9.449987E-19
5.530000E+03	9.125272E-18	9.367440E-19
5.540000E+03	9.008085E-18	9.289833E-19
5.550000E+03	8.896791E-18	9.217520E-19
5.560000E+03	8.791563E-18	9.150737E-19
5.570000E+03	8.692726E-18	9.089888E-19
5.580000E+03	8.600318E-18	9.035079E-19
5.590000E+03	8.514707E-18	8.986769E-19
5.600000E+03	8.435867E-18	8.945008E-19
5.610000E+03	8.364013E-18	8.910107E-19
5.620000E+03	8.299342E-18	8.882358E-19
5.630000E+03	8.241730E-18	8.861718E-19
5.640000E+03	8.191461E-18	8.848581E-19
5.650000E+03	8.148469E-18	8.842970E-19
5.660000E+03	8.112637E-18	8.844853E-19
5.670000E+03	8.084178E-18	8.854553E-19
5.680000E+03	8.062878E-18	8.871935E-19
5.690000E+03	8.048744E-18	8.897102E-19
5.700000E+03	8.041781E-18	8.930155E-19
5.710000E+03	8.041914E-18	8.971106E-19
5.720000E+03	8.049045E-18	9.019942E-19
5.730000E+03	8.063081E-18	9.076655E-19
5.740000E+03	8.084019E-18	9.141334E-19
5.750000E+03	8.111845E-18	9.214057E-19
5.760000E+03	8.146289E-18	9.294612E-19
5.770000E+03	8.187522E-18	9.383282E-19
5.780000E+03	8.235287E-18	9.479865E-19
5.790000E+03	8.289676E-18	9.584558E-19
5.800000E+03	8.350530E-18	9.697263E-19
5.810000E+03	8.417872E-18	9.818094E-19
5.820000E+03	8.491641E-18	9.947067E-19
5.830000E+03	8.571873E-18	1.008431E-18
5.840000E+03	8.658425E-18	1.022974E-18
5.850000E+03	8.751250E-18	1.038339E-18
5.860000E+03	8.850398E-18	1.054538E-18
5.870000E+03	8.955930E-18	1.071589E-18
5.880000E+03	9.067614E-18	1.089471E-18
5.890000E+03	9.185617E-18	1.108213E-18
5.900000E+03	9.309810E-18	1.127805E-18
5.910000E+03	9.440273E-18	1.148267E-18
5.920000E+03	9.576979E-18	1.169601E-18
5.930000E+03	9.719795E-18	1.191800E-18
5.940000E+03	9.868796E-18	1.214880E-18
5.950000E+03	1.002395E-17	1.238843E-18
5.960000E+03	1.018510E-17	1.263679E-18
5.970000E+03	1.035245E-17	1.289418E-18
5.980000E+03	1.052570E-17	1.316031E-18
5.990000E+03	1.070494E-17	1.343534E-18
6.000000E+03	1.089010E-17	1.371925E-18
6.010000E+03	1.108099E-17	1.401187E-18
6.020000E+03	1.127768E-17	1.431334E-18
6.030000E+03	1.147984E-17	1.462329E-18
6.040000E+03	1.168763E-17	1.494198E-18
6.050000E+03	1.190070E-17	1.526902E-18
6.060000E+03	1.211911E-17	1.560453E-18
6.070000E+03	1.234258E-17	1.594819E-18
6.080000E+03	1.257103E-17	1.629993E-18
6.090000E+03	1.280417E-17	1.665942E-18
6.100000E+03	1.304169E-17	1.702629E-18
6.110000E+03	1.328361E-17	1.740057E-18
6.120000E+03	1.352929E-17	1.778148E-18
6.130000E+03	1.377870E-17	1.816897E-18
6.140000E+03	1.403132E-17	1.856239E-18
6.150000E+03	1.428695E-17	1.896146E-18
6.160000E+03	1.454464E-17	1.936494E-18
6.170000E+03	1.480432E-17	1.977270E-18
6.180000E+03	1.506517E-17	2.018365E-18
6.190000E+03	1.532668E-17	2.059708E-18
6.200000E+03	1.558813E-17	2.101199E-18
6.210000E+03	1.584955E-17	2.142839E-18
6.220000E+03	1.611123E-17	2.184663E-18
6.230000E+03	1.637348E-17	2.226708E-18
6.240000E+03	1.663667E-17	2.269025E-18
6.250000E+03	1.690057E-17	2.311577E-18
6.260000E+03	1.716610E-17	2.354488E-18
6.270000E+03	1.743287E-17	2.397703E-18
6.280000E+03	1.770141E-17	2.441293E-18
6.290000E+03	1.797211E-17	2.485308E-18
6.300000E+03	1.824466E-17	2.529703E-18
6.310000E+03	1.851943E-17	2.574532E-18
6.320000E+03	1.879666E-17	2.619824E-18
6.330000E+03	1.907656E-17	2.665606E-18
6.340000E+03	1.935888E-17	2.711841E-18
6.350000E+03	1.964385E-17	2.758563E-18
6.360000E+03	1.993149E-17	2.805772E-18
6.370000E+03	2.022185E-17	2.853472E-18
6.380000E+03	2.051463E-17	2.901622E-18
6.390000E+03	2.080961E-17	2.950186E-18
6.400000E+03	2.110647E-17	2.999117E-18
6.410000E+03	2.140523E-17	3.048416E-18
6.420000E+03	2.170559E-17	3.098039E-18
6.430000E+03	2.200661E-17	3.147844E-18
6.440000E+03	2.230918E-17	3.197960E-18
6.450000E+03	2.261334E-17	3.248387E-18
6.460000E+03	2.291943E-17	3.299170E-18
6.470000E+03	2.322818E-17	3.350415E-18
6.480000E+03	2.353934E-17	3.402080E-18
6.490000E+03	2.385366E-17	3.454273E-18
6.500000E+03	2.417130E-17	3.507014E-18
6.510000E+03	2.449273E-17	3.560370E-18
6.520000E+03	2.481731E-17	3.614248E-18
6.530000E+03	2.514633E-17	3.668831E-18
6.540000E+03	2.547917E-17	3.724029E-18
6.550000E+03	2.581635E-17	3.779915E-18
6.560000E+03	2.615802E-17	3.836511E-18
6.570000E+03	2.650394E-17	3.893779E-18
6.580000E+03	2.685463E-17	3.951794E-18
6.590000E+03	2.721030E-17	4.010585E-18
6.600000E+03	2.757066E-17	4.070109E-18
6.610000E+03	2.793585E-17	4.130383E-18
6.620000E+03	2.830604E-17	4.191431E-18
6.630000E+03	2.868184E-17	4.253342E-18
6.640000E+03	2.906248E-17	4.315998E-18
6.650000E+03	2.944858E-17	4.379492E-18
6.660000E+03	2.984028E-17	4.443840E-18
6.670000E+03	3.023722E-17	4.508987E-18
6.680000E+03	3.064002E-17	4.575025E-18
6.690000E+03	3.104832E-17	4.641896E-18
6.700000E+03	3.146274E-17	4.709690E-18
6.710000E+03	3.188234E-17	4.778265E-18
6.720000E+03	3.230777E-17	4.847714E-18
6.730000E+03	3.273968E-17	4.918134E-18
6.740000E+03	3.317710E-17	4.989374E-18
6.750000E+03	3.362068E-17	5.061531E-18
6.760000E+03	3.406993E-17	5.134527E-18
6.770000E+03	3.452557E-17	5.208468E-18
6.780000E+03	3.498712E-17	5.283277E-18
6.790000E+03	3.545465E-17	5.358960E-18
6.800000E+03	3.592893E-17	5.435632E-18
6.810000E+03	3.640878E-17	5.513111E-18
6.820000E+03	3.689561E-17	5.591605E-18
6.830000E+03	3.738821E-17	5.670928E-18
6.840000E+03	3.788804E-17	5.751298E-18
6.850000E+03	3.839385E-17	5.832517E-18
6.860000E+03	3.890569E-17	5.914593E-18
6.870000E+03	3.942436E-17	5.997640E-18
6.880000E+03	3.994992E-17	6.081666E-18
6.890000E+03	4.048099E-17	6.166452E-18
6.900000E+03	4.101907E-17	6.252225E-18
6.910000E+03	4.156345E-17	6.338869E-18
6.920000E+03	4.211497E-17	6.426508E-18
6.930000E+03	4.267205E-17	6.514897E-18
6.940000E+03	4.323546E-17	6.604148E-18
6.950000E+03	4.380525E-17	6.694261E-18
6.960000E+03	4.438056E-17	6.785101E-18
6.970000E+03	4.496220E-17	6.876784E-18
6.980000E+03	4.555019E-17	6.969310E-18
6.990000E+03	4.614367E-17	7.062538E-18
7.000000E+03	4.674256E-17	7.156453E-18
7.010000E+03	4.734686E-17	7.251047E-18
7.020000E+03	4.795749E-17	7.346455E-18
7.030000E+03	4.857255E-17	7.442380E-18
7.040000E+03	4.919396E-17	7.539106E-18
7.050000E+03	4.981976E-17	7.636332E-18
7.060000E+03	5.045090E-17	7.734194E-18
7.070000E+03	5.108640E-17	7.832534E-18
7.080000E+03	5.172723E-17	7.931496E-18
7.090000E+03	5.237341E-17	8.031075E-18
7.100000E+03	5.302389E-17	8.131105E-18
7.110000E+03	5.367759E-17	8.231410E-18
7.120000E+03	5.433661E-17	8.332308E-18
7.130000E+03	5.499985E-17	8.433623E-18
7.140000E+03	5.566732E-17	8.535349E-18
7.150000E+03	5.633894E-17	8.637468E-18
7.160000E+03	5.701355E-17	8.739792E-18
7.170000E+03	5.769221E-17	8.842481E-18
7.180000E+03	5.837363E-17	8.945327E-18
7.190000E+03	5.905772E-17	9.048312E-18
7.200000E+03	5.974560E-17	9.151597E-18
7.210000E+03	6.043586E-17	9.254963E-18
7.220000E+03	6.112964E-17	9.358577E-18
7.230000E+03	6.182420E-17	9.462013E-18
7.240000E+03	6.252056E-17	9.565418E-18
7.250000E+03	6.321842E-17	9.668743E-18
7.260000E+03	6.391748E-17	9.771936E-18
7.270000E+03	6.461734E-17	9.874925E-18
7.280000E+03	6.531755E-17	9.977642E-18
7.290000E+03	6.601619E-17	1.007978E-17
7.300000E+03	6.671409E-17	1.018147E-17
7.310000E+03	6.741060E-17	1.028260E-17
7.320000E+03	6.810503E-17	1.038307E-17
7.330000E+03	6.879513E-17	1.048252E-17
7.340000E+03	6.948158E-17	1.058105E-17
7.350000E+03	7.016505E-17	1.067877E-17
7.360000E+03	7.084154E-17	1.077506E-17
7.370000E+03	7.151162E-17	1.087000E-17
7.380000E+03	7.217429E-17	1.096345E-17
7.390000E+03	7.283003E-17	1.105546E-17
7.400000E+03	7.347616E-17	1.114564E-17
7.410000E+03	7.411314E-17	1.123406E-17
7.420000E+03	7.474146E-17	1.132078E-17
7.430000E+03	7.535827E-17	1.140537E-17
7.440000E+03	7.596575E-17	1.148818E-17
7.450000E+03	7.655923E-17	1.156848E-17
7.460000E+03	7.713913E-17	1.164635E-17
7.470000E+03	7.770236E-17	1.172133E-17
7.480000E+03	7.824929E-17	1.179347E-17
7.490000E+03	7.877490E-17	1.186202E-17
7.500000E+03	7.927954E-17	1.192705E-17
7.510000E+03	7.976169E-17	1.198834E-17
7.520000E+03	8.021892E-17	1.204552E-17
7.530000E+03	8.065565E-17	1.209927E-17
7.540000E+03	8.106889E-17	1.214915E-17
7.550000E+03	8.146138E-17	1.219559E-17
7.560000E+03	8.183202E-17	1.223843E-17
7.570000E+03	8.218361E-17	1.227809E-17
7.580000E+03	8.251505E-17	1.231443E-17
7.590000E+03	8.282920E-17	1.234789E-17
7.600000E+03	8.312498E-17	1.237830E-17
7.610000E+03	8.340325E-17	1.240580E-17
7.620000E+03	8.366683E-17	1.243082E-17
7.630000E+03	8.391452E-17	1.245319E-17
7.640000E+03	8.414701E-17	1.247302E-17
7.650000E+03	8.436705E-17	1.249072E-17
7.660000E+03	8.457319E-17	1.250608E-17
7.670000E+03	8.476803E-17	1.251949E-17
7.680000E+03	8.494790E-17	1.253042E-17
7.690000E+03	8.511736E-17	1.253955E-17
7.700000E+03	8.527685E-17	1.254694E-17
7.710000E+03	8.542456E-17	1.255234E-17
7.720000E+03	8.556290E-17	1.255611E-17
7.730000E+03	8.569000E-17	1.255798E-17
7.740000E+03	8.580606E-17	1.255798E-17
7.750000E+03	8.591336E-17	1.255646E-17
7.760000E+03	8.601200E-17	1.255344E-17
