#wls	flux	fluxerr
1.600000E+03	2.447118E-16	2.624144E-17
1.640000E+03	2.499095E-16	2.674396E-17
1.680000E+03	2.550542E-16	2.723737E-17
1.720000E+03	2.601043E-16	2.771720E-17
1.760000E+03	2.650372E-16	2.818101E-17
1.800000E+03	2.698022E-16	2.862344E-17
1.840000E+03	2.743897E-16	2.904349E-17
1.880000E+03	2.787612E-16	2.943717E-17
1.920000E+03	2.828524E-16	2.979776E-17
1.960000E+03	2.865970E-16	3.011846E-17
2.000000E+03	2.899280E-16	3.039244E-17
2.040000E+03	2.927986E-16	3.061505E-17
2.080000E+03	2.950664E-16	3.077179E-17
2.120000E+03	2.966580E-16	3.085545E-17
2.160000E+03	2.974730E-16	3.085614E-17
2.200000E+03	2.973588E-16	3.075874E-17
2.240000E+03	2.962720E-16	3.055955E-17
2.280000E+03	2.941536E-16	3.025338E-17
2.320000E+03	2.910386E-16	2.984477E-17
2.360000E+03	2.869960E-16	2.934172E-17
2.400000E+03	2.821205E-16	2.875482E-17
2.440000E+03	2.765376E-16	2.809766E-17
2.480000E+03	2.703121E-16	2.737758E-17
2.520000E+03	2.635385E-16	2.660486E-17
2.560000E+03	2.562907E-16	2.578757E-17
2.600000E+03	2.486084E-16	2.493029E-17
2.640000E+03	2.405422E-16	2.403864E-17
2.680000E+03	2.321276E-16	2.311669E-17
2.720000E+03	2.234126E-16	2.216972E-17
2.760000E+03	2.144359E-16	2.120201E-17
2.800000E+03	2.052445E-16	2.021861E-17
2.840000E+03	1.958882E-16	1.922480E-17
2.880000E+03	1.864466E-16	1.822871E-17
2.920000E+03	1.769974E-16	1.723811E-17
2.960000E+03	1.676233E-16	1.626122E-17
3.000000E+03	1.584315E-16	1.530844E-17
3.010000E+03	1.561752E-16	1.507527E-17
3.020000E+03	1.539373E-16	1.484428E-17
3.030000E+03	1.517190E-16	1.461557E-17
3.040000E+03	1.495248E-16	1.438959E-17
3.050000E+03	1.473560E-16	1.416643E-17
3.060000E+03	1.452137E-16	1.394621E-17
3.070000E+03	1.430990E-16	1.372903E-17
3.080000E+03	1.410134E-16	1.351503E-17
3.090000E+03	1.389582E-16	1.330430E-17
3.100000E+03	1.369373E-16	1.309725E-17
3.110000E+03	1.349520E-16	1.289396E-17
3.120000E+03	1.330009E-16	1.269430E-17
3.130000E+03	1.310906E-16	1.249889E-17
3.140000E+03	1.292170E-16	1.230733E-17
3.150000E+03	1.273840E-16	1.211999E-17
3.160000E+03	1.255954E-16	1.193721E-17
3.170000E+03	1.238500E-16	1.175885E-17
3.180000E+03	1.221513E-16	1.158526E-17
3.190000E+03	1.204983E-16	1.141632E-17
3.200000E+03	1.188943E-16	1.125233E-17
3.210000E+03	1.173407E-16	1.109340E-17
3.220000E+03	1.158364E-16	1.093942E-17
3.230000E+03	1.143848E-16	1.079071E-17
3.240000E+03	1.129871E-16	1.064734E-17
3.250000E+03	1.116444E-16	1.050942E-17
3.260000E+03	1.103576E-16	1.037701E-17
3.270000E+03	1.091281E-16	1.025023E-17
3.280000E+03	1.079569E-16	1.012916E-17
3.290000E+03	1.068434E-16	1.001372E-17
3.300000E+03	1.057921E-16	9.904308E-18
3.310000E+03	1.048006E-16	9.800697E-18
3.320000E+03	1.038718E-16	9.703132E-18
3.330000E+03	1.030051E-16	9.611536E-18
3.340000E+03	1.022031E-16	9.526144E-18
3.350000E+03	1.014669E-16	9.447024E-18
3.360000E+03	1.007945E-16	9.373988E-18
3.370000E+03	1.001900E-16	9.307385E-18
3.380000E+03	9.965166E-17	9.247032E-18
3.390000E+03	9.918192E-17	9.193142E-18
3.400000E+03	9.878196E-17	9.145801E-18
3.410000E+03	9.845015E-17	9.104838E-18
3.420000E+03	9.819040E-17	9.070591E-18
3.430000E+03	9.800121E-17	9.042903E-18
3.440000E+03	9.788385E-17	9.021868E-18
3.450000E+03	9.783961E-17	9.007583E-18
3.460000E+03	9.786844E-17	9.000021E-18
3.470000E+03	9.797298E-17	8.999403E-18
3.480000E+03	9.815210E-17	9.005600E-18
3.490000E+03	9.840719E-17	9.018720E-18
3.500000E+03	9.873841E-17	9.038752E-18
3.510000E+03	9.914848E-17	9.065922E-18
3.520000E+03	9.963638E-17	9.100113E-18
3.530000E+03	1.002025E-16	9.141339E-18
3.540000E+03	1.008495E-16	9.189812E-18
3.550000E+03	1.015753E-16	9.245325E-18
3.560000E+03	1.023814E-16	9.307986E-18
3.570000E+03	1.032694E-16	9.377917E-18
3.580000E+03	1.042382E-16	9.454997E-18
3.590000E+03	1.052894E-16	9.539342E-18
3.600000E+03	1.064221E-16	9.630838E-18
3.610000E+03	1.076361E-16	9.729459E-18
3.620000E+03	1.089328E-16	9.835300E-18
3.630000E+03	1.103097E-16	9.948109E-18
3.640000E+03	1.117689E-16	1.006805E-17
3.650000E+03	1.133090E-16	1.019498E-17
3.660000E+03	1.149293E-16	1.032880E-17
3.670000E+03	1.166280E-16	1.046933E-17
3.680000E+03	1.184052E-16	1.061657E-17
3.690000E+03	1.202596E-16	1.077036E-17
3.700000E+03	1.221888E-16	1.093046E-17
3.710000E+03	1.241919E-16	1.109680E-17
3.720000E+03	1.262672E-16	1.126917E-17
3.730000E+03	1.284109E-16	1.144723E-17
3.740000E+03	1.306239E-16	1.163105E-17
3.750000E+03	1.329010E-16	1.182012E-17
3.760000E+03	1.352397E-16	1.201422E-17
3.770000E+03	1.376390E-16	1.221325E-17
3.780000E+03	1.400921E-16	1.241658E-17
3.790000E+03	1.425985E-16	1.262415E-17
3.800000E+03	1.451518E-16	1.283540E-17
3.810000E+03	1.477497E-16	1.305008E-17
3.820000E+03	1.503878E-16	1.326783E-17
3.830000E+03	1.530602E-16	1.348809E-17
3.840000E+03	1.557618E-16	1.371043E-17
3.850000E+03	1.584890E-16	1.393451E-17
3.860000E+03	1.612348E-16	1.415972E-17
3.870000E+03	1.639950E-16	1.438569E-17
3.880000E+03	1.667619E-16	1.461174E-17
3.890000E+03	1.695310E-16	1.483747E-17
3.900000E+03	1.722956E-16	1.506233E-17
3.910000E+03	1.750493E-16	1.528573E-17
3.920000E+03	1.777869E-16	1.550725E-17
3.930000E+03	1.805001E-16	1.572616E-17
3.940000E+03	1.831836E-16	1.594202E-17
3.950000E+03	1.858320E-16	1.615438E-17
3.960000E+03	1.884354E-16	1.636238E-17
3.970000E+03	1.909918E-16	1.656586E-17
3.980000E+03	1.934928E-16	1.676415E-17
3.990000E+03	1.959318E-16	1.695665E-17
4.000000E+03	1.983041E-16	1.714301E-17
4.010000E+03	2.006015E-16	1.732254E-17
4.020000E+03	2.028214E-16	1.749504E-17
4.030000E+03	2.049579E-16	1.766003E-17
4.040000E+03	2.070057E-16	1.781708E-17
4.050000E+03	2.089573E-16	1.796558E-17
4.060000E+03	2.108116E-16	1.810546E-17
4.070000E+03	2.125638E-16	1.823635E-17
4.080000E+03	2.142097E-16	1.835792E-17
4.090000E+03	2.157455E-16	1.846988E-17
4.100000E+03	2.171675E-16	1.857194E-17
4.110000E+03	2.184747E-16	1.866407E-17
4.120000E+03	2.196626E-16	1.874591E-17
4.130000E+03	2.207310E-16	1.881748E-17
4.140000E+03	2.216782E-16	1.887867E-17
4.150000E+03	2.225032E-16	1.892944E-17
4.160000E+03	2.232054E-16	1.896976E-17
4.170000E+03	2.237846E-16	1.899967E-17
4.180000E+03	2.242433E-16	1.901941E-17
4.190000E+03	2.245787E-16	1.902876E-17
4.200000E+03	2.247941E-16	1.902806E-17
4.210000E+03	2.248935E-16	1.901768E-17
4.220000E+03	2.248756E-16	1.899753E-17
4.230000E+03	2.247453E-16	1.896805E-17
4.240000E+03	2.245042E-16	1.892943E-17
4.250000E+03	2.241580E-16	1.888216E-17
4.260000E+03	2.237089E-16	1.882646E-17
4.270000E+03	2.231597E-16	1.876259E-17
4.280000E+03	2.225190E-16	1.869130E-17
4.290000E+03	2.217859E-16	1.861254E-17
4.300000E+03	2.209695E-16	1.852708E-17
4.310000E+03	2.200727E-16	1.843521E-17
4.320000E+03	2.191007E-16	1.833737E-17
4.330000E+03	2.180566E-16	1.823383E-17
4.340000E+03	2.169470E-16	1.812517E-17
4.350000E+03	2.157763E-16	1.801176E-17
4.360000E+03	2.145467E-16	1.789381E-17
4.370000E+03	2.132679E-16	1.777213E-17
4.380000E+03	2.119417E-16	1.764688E-17
4.390000E+03	2.105752E-16	1.751867E-17
4.400000E+03	2.091723E-16	1.738780E-17
4.410000E+03	2.077399E-16	1.725487E-17
4.420000E+03	2.062797E-16	1.712001E-17
4.430000E+03	2.048003E-16	1.698393E-17
4.440000E+03	2.033044E-16	1.684686E-17
4.450000E+03	2.017947E-16	1.670902E-17
4.460000E+03	2.002788E-16	1.657102E-17
4.470000E+03	1.987589E-16	1.643305E-17
4.480000E+03	1.972385E-16	1.629539E-17
4.490000E+03	1.957211E-16	1.615833E-17
4.500000E+03	1.942102E-16	1.602214E-17
4.510000E+03	1.927075E-16	1.588696E-17
4.520000E+03	1.912179E-16	1.575319E-17
4.530000E+03	1.897450E-16	1.562111E-17
4.540000E+03	1.882903E-16	1.549085E-17
4.550000E+03	1.868556E-16	1.536253E-17
4.560000E+03	1.854459E-16	1.523657E-17
4.570000E+03	1.840649E-16	1.511326E-17
4.580000E+03	1.827127E-16	1.499258E-17
4.590000E+03	1.813962E-16	1.487512E-17
4.600000E+03	1.801139E-16	1.476072E-17
4.610000E+03	1.788712E-16	1.464982E-17
4.620000E+03	1.776716E-16	1.454270E-17
4.630000E+03	1.765174E-16	1.443953E-17
4.640000E+03	1.754121E-16	1.434060E-17
4.650000E+03	1.743563E-16	1.424593E-17
4.660000E+03	1.733570E-16	1.415609E-17
4.670000E+03	1.724131E-16	1.407098E-17
4.680000E+03	1.715302E-16	1.399104E-17
4.690000E+03	1.707101E-16	1.391641E-17
4.700000E+03	1.699566E-16	1.384739E-17
4.710000E+03	1.692695E-16	1.378394E-17
4.720000E+03	1.686514E-16	1.372627E-17
4.730000E+03	1.681012E-16	1.367428E-17
4.740000E+03	1.676221E-16	1.362820E-17
4.750000E+03	1.672099E-16	1.358770E-17
4.760000E+03	1.668653E-16	1.355281E-17
4.770000E+03	1.665867E-16	1.352341E-17
4.780000E+03	1.663713E-16	1.349923E-17
4.790000E+03	1.662190E-16	1.348027E-17
4.800000E+03	1.661268E-16	1.346628E-17
4.810000E+03	1.660934E-16	1.345713E-17
4.820000E+03	1.661170E-16	1.345269E-17
4.830000E+03	1.661964E-16	1.345283E-17
4.840000E+03	1.663284E-16	1.345730E-17
4.850000E+03	1.665149E-16	1.346623E-17
4.860000E+03	1.667495E-16	1.347910E-17
4.870000E+03	1.670336E-16	1.349603E-17
4.880000E+03	1.673643E-16	1.351676E-17
4.890000E+03	1.677413E-16	1.354127E-17
4.900000E+03	1.681597E-16	1.356916E-17
4.910000E+03	1.686192E-16	1.360039E-17
4.920000E+03	1.691181E-16	1.363482E-17
4.930000E+03	1.696526E-16	1.367215E-17
4.940000E+03	1.702226E-16	1.371235E-17
4.950000E+03	1.708242E-16	1.375511E-17
4.960000E+03	1.714574E-16	1.380042E-17
4.970000E+03	1.721164E-16	1.384782E-17
4.980000E+03	1.728028E-16	1.389742E-17
4.990000E+03	1.735111E-16	1.394878E-17
5.000000E+03	1.742410E-16	1.400188E-17
5.010000E+03	1.749888E-16	1.405641E-17
5.020000E+03	1.757542E-16	1.411235E-17
5.030000E+03	1.765354E-16	1.416955E-17
5.040000E+03	1.773268E-16	1.422757E-17
5.050000E+03	1.781286E-16	1.428639E-17
5.060000E+03	1.789385E-16	1.434586E-17
5.070000E+03	1.797550E-16	1.440583E-17
5.080000E+03	1.805724E-16	1.446586E-17
5.090000E+03	1.813924E-16	1.452608E-17
5.100000E+03	1.822131E-16	1.458632E-17
5.110000E+03	1.830269E-16	1.464600E-17
5.120000E+03	1.838371E-16	1.470537E-17
5.130000E+03	1.846380E-16	1.476397E-17
5.140000E+03	1.854269E-16	1.482159E-17
5.150000E+03	1.862013E-16	1.487802E-17
5.160000E+03	1.869566E-16	1.493290E-17
5.170000E+03	1.876918E-16	1.498616E-17
5.180000E+03	1.884017E-16	1.503737E-17
5.190000E+03	1.890831E-16	1.508628E-17
5.200000E+03	1.897323E-16	1.513260E-17
5.210000E+03	1.903417E-16	1.517571E-17
5.220000E+03	1.909111E-16	1.521562E-17
5.230000E+03	1.914344E-16	1.525184E-17
5.240000E+03	1.919054E-16	1.528387E-17
5.250000E+03	1.923196E-16	1.531136E-17
5.260000E+03	1.926726E-16	1.533396E-17
5.270000E+03	1.929578E-16	1.535116E-17
5.280000E+03	1.931728E-16	1.536276E-17
5.290000E+03	1.933093E-16	1.536811E-17
5.300000E+03	1.933652E-16	1.536706E-17
5.310000E+03	1.933327E-16	1.535898E-17
5.320000E+03	1.932102E-16	1.534376E-17
5.330000E+03	1.929929E-16	1.532102E-17
5.340000E+03	1.926782E-16	1.529057E-17
5.350000E+03	1.922642E-16	1.525225E-17
5.360000E+03	1.917459E-16	1.520568E-17
5.370000E+03	1.911249E-16	1.515100E-17
5.380000E+03	1.903995E-16	1.508808E-17
5.390000E+03	1.895712E-16	1.501704E-17
5.400000E+03	1.886384E-16	1.493778E-17
5.410000E+03	1.876080E-16	1.485083E-17
5.420000E+03	1.864786E-16	1.475611E-17
5.430000E+03	1.852553E-16	1.465402E-17
5.440000E+03	1.839443E-16	1.454505E-17
5.450000E+03	1.825433E-16	1.442904E-17
5.460000E+03	1.810514E-16	1.430592E-17
5.470000E+03	1.794685E-16	1.417569E-17
5.480000E+03	1.778121E-16	1.403974E-17
5.490000E+03	1.760978E-16	1.389931E-17
5.500000E+03	1.743384E-16	1.375540E-17
5.510000E+03	1.725470E-16	1.360907E-17
5.520000E+03	1.707367E-16	1.346134E-17
5.530000E+03	1.689173E-16	1.331299E-17
5.540000E+03	1.671054E-16	1.316531E-17
5.550000E+03	1.653101E-16	1.301905E-17
5.560000E+03	1.635420E-16	1.287502E-17
5.570000E+03	1.618144E-16	1.273426E-17
5.580000E+03	1.601346E-16	1.259736E-17
5.590000E+03	1.585127E-16	1.246509E-17
5.600000E+03	1.569577E-16	1.233817E-17
5.610000E+03	1.554760E-16	1.221710E-17
5.620000E+03	1.540749E-16	1.210242E-17
5.630000E+03	1.527588E-16	1.199448E-17
5.640000E+03	1.515313E-16	1.189357E-17
5.650000E+03	1.503965E-16	1.179998E-17
5.660000E+03	1.493545E-16	1.171374E-17
5.670000E+03	1.484107E-16	1.163524E-17
5.680000E+03	1.475619E-16	1.156423E-17
5.690000E+03	1.468103E-16	1.150087E-17
5.700000E+03	1.461540E-16	1.144500E-17
5.710000E+03	1.455894E-16	1.139634E-17
5.720000E+03	1.451163E-16	1.135487E-17
5.730000E+03	1.447300E-16	1.132019E-17
5.740000E+03	1.444279E-16	1.129211E-17
5.750000E+03	1.442056E-16	1.127027E-17
5.760000E+03	1.440602E-16	1.125444E-17
5.770000E+03	1.439851E-16	1.124410E-17
5.780000E+03	1.439784E-16	1.123909E-17
5.790000E+03	1.440320E-16	1.123877E-17
5.800000E+03	1.441423E-16	1.124285E-17
5.810000E+03	1.443057E-16	1.125106E-17
5.820000E+03	1.445172E-16	1.126300E-17
5.830000E+03	1.447704E-16	1.127816E-17
5.840000E+03	1.450622E-16	1.129630E-17
5.850000E+03	1.453899E-16	1.131721E-17
5.860000E+03	1.457460E-16	1.134029E-17
5.870000E+03	1.461284E-16	1.136538E-17
5.880000E+03	1.465349E-16	1.139232E-17
5.890000E+03	1.469593E-16	1.142061E-17
5.900000E+03	1.474018E-16	1.145027E-17
5.910000E+03	1.478598E-16	1.148110E-17
5.920000E+03	1.483280E-16	1.151268E-17
5.930000E+03	1.488060E-16	1.154498E-17
5.940000E+03	1.492939E-16	1.157802E-17
5.950000E+03	1.497874E-16	1.161145E-17
5.960000E+03	1.502870E-16	1.164532E-17
5.970000E+03	1.507924E-16	1.167960E-17
5.980000E+03	1.513015E-16	1.171414E-17
5.990000E+03	1.518145E-16	1.174893E-17
6.000000E+03	1.523318E-16	1.178402E-17
6.010000E+03	1.528522E-16	1.181932E-17
6.020000E+03	1.533785E-16	1.185504E-17
6.030000E+03	1.539104E-16	1.189116E-17
6.040000E+03	1.544493E-16	1.192778E-17
6.050000E+03	1.549934E-16	1.196478E-17
6.060000E+03	1.555485E-16	1.200260E-17
6.070000E+03	1.561116E-16	1.204099E-17
6.080000E+03	1.566890E-16	1.208046E-17
6.090000E+03	1.572780E-16	1.212079E-17
6.100000E+03	1.578854E-16	1.216251E-17
6.110000E+03	1.585090E-16	1.220544E-17
6.120000E+03	1.591541E-16	1.225000E-17
6.130000E+03	1.598244E-16	1.229646E-17
6.140000E+03	1.605218E-16	1.234498E-17
6.150000E+03	1.612478E-16	1.239566E-17
6.160000E+03	1.620080E-16	1.244894E-17
6.170000E+03	1.628054E-16	1.250504E-17
6.180000E+03	1.636423E-16	1.256416E-17
6.190000E+03	1.645201E-16	1.262636E-17
6.200000E+03	1.654428E-16	1.269198E-17
6.210000E+03	1.664112E-16	1.276107E-17
6.220000E+03	1.674186E-16	1.283310E-17
6.230000E+03	1.684656E-16	1.290813E-17
6.240000E+03	1.695457E-16	1.298566E-17
6.250000E+03	1.706542E-16	1.306533E-17
6.260000E+03	1.717907E-16	1.314709E-17
6.270000E+03	1.729499E-16	1.323054E-17
6.280000E+03	1.741292E-16	1.331548E-17
6.290000E+03	1.753236E-16	1.340152E-17
6.300000E+03	1.765281E-16	1.348827E-17
6.310000E+03	1.777448E-16	1.357591E-17
6.320000E+03	1.789645E-16	1.366372E-17
6.330000E+03	1.801874E-16	1.375171E-17
6.340000E+03	1.814065E-16	1.383936E-17
6.350000E+03	1.826227E-16	1.392672E-17
6.360000E+03	1.838292E-16	1.401329E-17
6.370000E+03	1.850249E-16	1.409898E-17
6.380000E+03	1.862084E-16	1.418367E-17
6.390000E+03	1.873710E-16	1.426671E-17
6.400000E+03	1.885145E-16	1.434824E-17
6.410000E+03	1.896356E-16	1.442800E-17
6.420000E+03	1.907312E-16	1.450577E-17
6.430000E+03	1.918012E-16	1.458152E-17
6.440000E+03	1.928457E-16	1.465528E-17
6.450000E+03	1.938651E-16	1.472708E-17
6.460000E+03	1.948572E-16	1.479675E-17
6.470000E+03	1.958200E-16	1.486413E-17
6.480000E+03	1.967545E-16	1.492931E-17
6.490000E+03	1.976530E-16	1.499170E-17
6.500000E+03	1.985200E-16	1.505165E-17
6.510000E+03	1.993540E-16	1.510905E-17
6.520000E+03	2.001539E-16	1.516381E-17
6.530000E+03	2.009186E-16	1.521586E-17
6.540000E+03	2.016470E-16	1.526511E-17
6.550000E+03	2.023418E-16	1.531177E-17
6.560000E+03	2.029990E-16	1.535553E-17
6.570000E+03	2.036214E-16	1.539662E-17
6.580000E+03	2.042087E-16	1.543502E-17
6.590000E+03	2.047573E-16	1.547044E-17
6.600000E+03	2.052703E-16	1.550314E-17
6.610000E+03	2.057477E-16	1.553312E-17
6.620000E+03	2.061896E-16	1.556038E-17
6.630000E+03	2.065961E-16	1.558493E-17
6.640000E+03	2.069674E-16	1.560679E-17
6.650000E+03	2.073037E-16	1.562598E-17
6.660000E+03	2.076016E-16	1.564225E-17
6.670000E+03	2.078650E-16	1.565589E-17
6.680000E+03	2.080907E-16	1.566667E-17
6.690000E+03	2.082823E-16	1.567486E-17
6.700000E+03	2.084404E-16	1.568051E-17
6.710000E+03	2.085616E-16	1.568335E-17
6.720000E+03	2.086462E-16	1.568344E-17
6.730000E+03	2.086980E-16	1.568104E-17
6.740000E+03	2.087102E-16	1.567566E-17
6.750000E+03	2.086903E-16	1.566785E-17
6.760000E+03	2.086349E-16	1.565737E-17
6.770000E+03	2.085407E-16	1.564397E-17
6.780000E+03	2.084115E-16	1.562795E-17
6.790000E+03	2.082478E-16	1.560934E-17
6.800000E+03	2.080460E-16	1.558788E-17
6.810000E+03	2.078103E-16	1.556389E-17
6.820000E+03	2.075372E-16	1.553710E-17
6.830000E+03	2.072310E-16	1.550784E-17
6.840000E+03	2.068844E-16	1.547558E-17
6.850000E+03	2.065055E-16	1.544091E-17
6.860000E+03	2.060872E-16	1.540332E-17
6.870000E+03	2.056377E-16	1.536342E-17
6.880000E+03	2.051498E-16	1.532068E-17
6.890000E+03	2.046281E-16	1.527544E-17
6.900000E+03	2.040695E-16	1.522748E-17
6.910000E+03	2.034785E-16	1.517714E-17
6.920000E+03	2.028521E-16	1.512419E-17
6.930000E+03	2.021951E-16	1.506900E-17
6.940000E+03	2.015005E-16	1.501106E-17
6.950000E+03	2.007773E-16	1.495103E-17
6.960000E+03	2.000225E-16	1.488871E-17
6.970000E+03	1.992334E-16	1.482388E-17
6.980000E+03	1.984189E-16	1.475721E-17
6.990000E+03	1.975725E-16	1.468824E-17
7.000000E+03	1.966992E-16	1.461733E-17
7.010000E+03	1.957967E-16	1.454431E-17
7.020000E+03	1.948701E-16	1.446957E-17
7.030000E+03	1.939170E-16	1.439294E-17
7.040000E+03	1.929427E-16	1.431480E-17
7.050000E+03	1.919412E-16	1.423472E-17
7.060000E+03	1.909216E-16	1.415338E-17
7.070000E+03	1.898778E-16	1.407033E-17
7.080000E+03	1.888193E-16	1.398627E-17
7.090000E+03	1.877400E-16	1.390076E-17
7.100000E+03	1.866455E-16	1.381421E-17
7.110000E+03	1.855337E-16	1.372647E-17
7.120000E+03	1.844103E-16	1.363797E-17
7.130000E+03	1.832769E-16	1.354882E-17
7.140000E+03	1.821279E-16	1.345861E-17
7.150000E+03	1.809726E-16	1.336804E-17
7.160000E+03	1.798126E-16	1.327723E-17
7.170000E+03	1.786424E-16	1.318576E-17
7.180000E+03	1.774675E-16	1.309405E-17
7.190000E+03	1.762897E-16	1.300223E-17
7.200000E+03	1.751070E-16	1.291015E-17
7.210000E+03	1.739282E-16	1.281847E-17
7.220000E+03	1.727480E-16	1.272679E-17
7.230000E+03	1.715678E-16	1.263523E-17
7.240000E+03	1.703928E-16	1.254415E-17
7.250000E+03	1.692174E-16	1.245317E-17
7.260000E+03	1.680502E-16	1.236290E-17
7.270000E+03	1.668892E-16	1.227318E-17
7.280000E+03	1.657356E-16	1.218414E-17
7.290000E+03	1.645875E-16	1.209561E-17
7.300000E+03	1.634463E-16	1.200771E-17
7.310000E+03	1.623168E-16	1.192077E-17
7.320000E+03	1.611969E-16	1.183466E-17
7.330000E+03	1.600847E-16	1.174924E-17
7.340000E+03	1.589817E-16	1.166460E-17
7.350000E+03	1.578896E-16	1.158088E-17
7.360000E+03	1.568098E-16	1.149818E-17
7.370000E+03	1.557408E-16	1.141639E-17
7.380000E+03	1.546812E-16	1.133540E-17
7.390000E+03	1.536328E-16	1.125536E-17
7.400000E+03	1.525913E-16	1.117594E-17
7.410000E+03	1.515655E-16	1.109779E-17
7.420000E+03	1.505480E-16	1.102036E-17
7.430000E+03	1.495412E-16	1.094384E-17
7.440000E+03	1.485512E-16	1.086866E-17
7.450000E+03	1.475836E-16	1.079524E-17
7.460000E+03	1.466380E-16	1.072355E-17
7.470000E+03	1.457235E-16	1.065425E-17
7.480000E+03	1.448422E-16	1.058749E-17
7.490000E+03	1.440028E-16	1.052391E-17
7.500000E+03	1.432037E-16	1.046337E-17
7.510000E+03	1.424521E-16	1.040641E-17
7.520000E+03	1.417483E-16	1.035303E-17
7.530000E+03	1.410916E-16	1.030319E-17
7.540000E+03	1.404837E-16	1.025701E-17
7.550000E+03	1.399200E-16	1.021414E-17
7.560000E+03	1.394046E-16	1.017487E-17
7.570000E+03	1.389325E-16	1.013885E-17
7.580000E+03	1.385014E-16	1.010590E-17
7.590000E+03	1.381125E-16	1.007610E-17
7.600000E+03	1.377639E-16	1.004932E-17
7.610000E+03	1.374539E-16	1.002542E-17
7.620000E+03	1.371776E-16	1.000404E-17
7.630000E+03	1.369398E-16	9.985539E-18
7.640000E+03	1.367326E-16	9.969338E-18
7.650000E+03	1.365610E-16	9.955790E-18
7.660000E+03	1.364174E-16	9.944342E-18
7.670000E+03	1.363068E-16	9.935366E-18
7.680000E+03	1.362218E-16	9.928311E-18
7.690000E+03	1.361676E-16	9.923554E-18
7.700000E+03	1.361399E-16	9.920782E-18
7.710000E+03	1.361376E-16	9.919919E-18
7.720000E+03	1.361565E-16	9.920652E-18
7.730000E+03	1.362020E-16	9.923377E-18
7.740000E+03	1.362699E-16	9.927778E-18
7.750000E+03	1.363591E-16	9.933788E-18
7.760000E+03	1.364655E-16	9.941099E-18
