#wls	flux	fluxerr
1.600000E+03	2.854042E-16	4.370645E-17
1.640000E+03	2.935411E-16	4.494994E-17
1.680000E+03	3.011438E-16	4.611132E-17
1.720000E+03	3.081565E-16	4.718204E-17
1.760000E+03	3.143972E-16	4.813424E-17
1.800000E+03	3.198583E-16	4.896676E-17
1.840000E+03	3.243515E-16	4.965079E-17
1.880000E+03	3.278338E-16	5.017977E-17
1.920000E+03	3.302044E-16	5.053827E-17
1.960000E+03	3.313145E-16	5.070358E-17
2.000000E+03	3.311317E-16	5.067076E-17
2.040000E+03	3.295553E-16	5.042447E-17
2.080000E+03	3.265057E-16	4.995257E-17
2.120000E+03	3.219282E-16	4.924678E-17
2.160000E+03	3.157568E-16	4.829707E-17
2.200000E+03	3.078937E-16	4.708858E-17
2.240000E+03	2.982557E-16	4.560870E-17
2.280000E+03	2.868920E-16	4.386507E-17
2.320000E+03	2.740346E-16	4.189328E-17
2.360000E+03	2.600787E-16	3.975388E-17
2.400000E+03	2.453380E-16	3.749491E-17
2.440000E+03	2.300936E-16	3.515941E-17
2.480000E+03	2.145469E-16	3.277824E-17
2.520000E+03	1.989069E-16	3.038340E-17
2.560000E+03	1.833407E-16	2.800045E-17
2.600000E+03	1.680200E-16	2.565566E-17
2.640000E+03	1.530810E-16	2.336984E-17
2.680000E+03	1.386501E-16	2.116233E-17
2.720000E+03	1.248407E-16	1.905039E-17
2.760000E+03	1.117393E-16	1.704725E-17
2.800000E+03	9.942109E-17	1.516433E-17
2.840000E+03	8.794331E-17	1.341033E-17
2.880000E+03	7.735151E-17	1.179215E-17
2.920000E+03	6.767754E-17	1.031459E-17
2.960000E+03	5.893396E-17	8.979476E-18
3.000000E+03	5.111477E-17	7.785829E-18
3.010000E+03	4.930156E-17	7.509078E-18
3.020000E+03	4.754292E-17	7.240675E-18
3.030000E+03	4.584003E-17	6.980795E-18
3.040000E+03	4.418969E-17	6.728953E-18
3.050000E+03	4.259287E-17	6.485294E-18
3.060000E+03	4.104836E-17	6.249632E-18
3.070000E+03	3.955582E-17	6.021914E-18
3.080000E+03	3.811236E-17	5.801699E-18
3.090000E+03	3.671921E-17	5.589172E-18
3.100000E+03	3.537355E-17	5.383905E-18
3.110000E+03	3.407564E-17	5.185932E-18
3.120000E+03	3.282415E-17	4.995054E-18
3.130000E+03	3.161718E-17	4.810976E-18
3.140000E+03	3.045481E-17	4.633714E-18
3.150000E+03	2.933524E-17	4.462988E-18
3.160000E+03	2.825784E-17	4.298703E-18
3.170000E+03	2.722136E-17	4.140666E-18
3.180000E+03	2.622460E-17	3.988696E-18
3.190000E+03	2.526679E-17	3.842673E-18
3.200000E+03	2.434670E-17	3.702409E-18
3.210000E+03	2.346267E-17	3.567650E-18
3.220000E+03	2.261442E-17	3.438353E-18
3.230000E+03	2.180055E-17	3.314304E-18
3.240000E+03	2.102053E-17	3.195420E-18
3.250000E+03	2.027340E-17	3.081555E-18
3.260000E+03	1.955789E-17	2.972514E-18
3.270000E+03	1.887366E-17	2.868245E-18
3.280000E+03	1.821914E-17	2.768509E-18
3.290000E+03	1.759388E-17	2.673235E-18
3.300000E+03	1.699686E-17	2.582267E-18
3.310000E+03	1.642657E-17	2.495376E-18
3.320000E+03	1.588252E-17	2.412486E-18
3.330000E+03	1.536373E-17	2.333446E-18
3.340000E+03	1.486901E-17	2.258077E-18
3.350000E+03	1.439746E-17	2.186238E-18
3.360000E+03	1.394818E-17	2.117794E-18
3.370000E+03	1.352030E-17	2.052612E-18
3.380000E+03	1.311299E-17	1.990562E-18
3.390000E+03	1.272540E-17	1.931519E-18
3.400000E+03	1.235660E-17	1.875336E-18
3.410000E+03	1.200565E-17	1.821874E-18
3.420000E+03	1.167214E-17	1.771067E-18
3.430000E+03	1.135491E-17	1.722740E-18
3.440000E+03	1.105343E-17	1.676812E-18
3.450000E+03	1.076692E-17	1.633163E-18
3.460000E+03	1.049477E-17	1.591700E-18
3.470000E+03	1.023615E-17	1.552295E-18
3.480000E+03	9.990376E-18	1.514848E-18
3.490000E+03	9.756954E-18	1.479279E-18
3.500000E+03	9.535173E-18	1.445483E-18
3.510000E+03	9.324584E-18	1.413389E-18
3.520000E+03	9.124358E-18	1.382872E-18
3.530000E+03	8.934124E-18	1.353875E-18
3.540000E+03	8.753244E-18	1.326301E-18
3.550000E+03	8.581221E-18	1.300074E-18
3.560000E+03	8.417591E-18	1.275123E-18
3.570000E+03	8.261746E-18	1.251357E-18
3.580000E+03	8.113460E-18	1.228740E-18
3.590000E+03	7.972266E-18	1.207201E-18
3.600000E+03	7.837728E-18	1.186674E-18
3.610000E+03	7.709669E-18	1.167132E-18
3.620000E+03	7.587619E-18	1.148503E-18
3.630000E+03	7.471281E-18	1.130742E-18
3.640000E+03	7.360383E-18	1.113808E-18
3.650000E+03	7.254661E-18	1.097660E-18
3.660000E+03	7.153873E-18	1.082262E-18
3.670000E+03	7.057788E-18	1.067578E-18
3.680000E+03	6.966248E-18	1.053584E-18
3.690000E+03	6.879105E-18	1.040258E-18
3.700000E+03	6.796155E-18	1.027568E-18
3.710000E+03	6.717438E-18	1.015520E-18
3.720000E+03	6.642690E-18	1.004074E-18
3.730000E+03	6.571895E-18	9.932282E-19
3.740000E+03	6.504909E-18	9.829594E-19
3.750000E+03	6.441647E-18	9.732552E-19
3.760000E+03	6.382135E-18	9.641190E-19
3.770000E+03	6.326117E-18	9.555119E-19
3.780000E+03	6.273613E-18	9.474370E-19
3.790000E+03	6.224583E-18	9.398878E-19
3.800000E+03	6.178833E-18	9.328347E-19
3.810000E+03	6.136373E-18	9.262792E-19
3.820000E+03	6.097162E-18	9.202149E-19
3.830000E+03	6.061061E-18	9.146205E-19
3.840000E+03	6.027981E-18	9.094823E-19
3.850000E+03	5.997975E-18	9.048084E-19
3.860000E+03	5.970864E-18	9.005711E-19
3.870000E+03	5.946649E-18	8.967708E-19
3.880000E+03	5.925248E-18	8.933947E-19
3.890000E+03	5.906620E-18	8.904364E-19
3.900000E+03	5.890726E-18	8.878899E-19
3.910000E+03	5.877436E-18	8.857354E-19
3.920000E+03	5.866716E-18	8.839675E-19
3.930000E+03	5.858577E-18	8.825877E-19
3.940000E+03	5.852939E-18	8.815838E-19
3.950000E+03	5.849727E-18	8.809441E-19
3.960000E+03	5.848903E-18	8.806629E-19
3.970000E+03	5.850394E-18	8.807290E-19
3.980000E+03	5.854164E-18	8.811366E-19
3.990000E+03	5.860186E-18	8.818816E-19
4.000000E+03	5.868427E-18	8.829589E-19
4.010000E+03	5.878771E-18	8.843506E-19
4.020000E+03	5.891193E-18	8.860529E-19
4.030000E+03	5.905669E-18	8.880620E-19
4.040000E+03	5.922181E-18	8.903749E-19
4.050000E+03	5.940661E-18	8.929814E-19
4.060000E+03	5.961051E-18	8.958724E-19
4.070000E+03	5.983337E-18	8.990456E-19
4.080000E+03	6.007460E-18	9.024921E-19
4.090000E+03	6.033410E-18	9.062101E-19
4.100000E+03	6.061129E-18	9.101906E-19
4.110000E+03	6.090605E-18	9.144317E-19
4.120000E+03	6.121777E-18	9.189242E-19
4.130000E+03	6.154588E-18	9.236591E-19
4.140000E+03	6.189024E-18	9.286343E-19
4.150000E+03	6.225029E-18	9.338411E-19
4.160000E+03	6.262595E-18	9.392782E-19
4.170000E+03	6.301620E-18	9.449300E-19
4.180000E+03	6.342098E-18	9.507956E-19
4.190000E+03	6.383929E-18	9.568595E-19
4.200000E+03	6.427160E-18	9.631290E-19
4.210000E+03	6.471692E-18	9.695888E-19
4.220000E+03	6.517527E-18	9.762390E-19
4.230000E+03	6.564508E-18	9.830563E-19
4.240000E+03	6.612690E-18	9.900481E-19
4.250000E+03	6.661910E-18	9.971904E-19
4.260000E+03	6.712216E-18	1.004490E-18
4.270000E+03	6.763448E-18	1.011923E-18
4.280000E+03	6.815492E-18	1.019472E-18
4.290000E+03	6.868394E-18	1.027143E-18
4.300000E+03	6.921932E-18	1.034904E-18
4.310000E+03	6.976156E-18	1.042762E-18
4.320000E+03	7.030851E-18	1.050685E-18
4.330000E+03	7.086063E-18	1.058678E-18
4.340000E+03	7.141686E-18	1.066727E-18
4.350000E+03	7.197609E-18	1.074815E-18
4.360000E+03	7.253835E-18	1.082941E-18
4.370000E+03	7.310304E-18	1.091098E-18
4.380000E+03	7.367074E-18	1.099293E-18
4.390000E+03	7.424030E-18	1.107509E-18
4.400000E+03	7.481289E-18	1.115764E-18
4.410000E+03	7.538856E-18	1.124058E-18
4.420000E+03	7.596736E-18	1.132392E-18
4.430000E+03	7.654931E-18	1.140766E-18
4.440000E+03	7.713514E-18	1.149191E-18
4.450000E+03	7.772431E-18	1.157658E-18
4.460000E+03	7.831761E-18	1.166180E-18
4.470000E+03	7.891524E-18	1.174759E-18
4.480000E+03	7.951742E-18	1.183399E-18
4.490000E+03	8.012370E-18	1.192092E-18
4.500000E+03	8.073428E-18	1.200841E-18
4.510000E+03	8.134868E-18	1.209640E-18
4.520000E+03	8.196771E-18	1.218500E-18
4.530000E+03	8.259017E-18	1.227402E-18
4.540000E+03	8.321617E-18	1.236350E-18
4.550000E+03	8.384583E-18	1.245343E-18
4.560000E+03	8.447781E-18	1.254363E-18
4.570000E+03	8.511293E-18	1.263421E-18
4.580000E+03	8.574989E-18	1.272498E-18
4.590000E+03	8.638882E-18	1.281595E-18
4.600000E+03	8.702842E-18	1.290694E-18
4.610000E+03	8.766968E-18	1.299809E-18
4.620000E+03	8.831212E-18	1.308932E-18
4.630000E+03	8.895452E-18	1.318046E-18
4.640000E+03	8.959725E-18	1.327155E-18
4.650000E+03	9.024068E-18	1.336266E-18
4.660000E+03	9.088445E-18	1.345373E-18
4.670000E+03	9.152740E-18	1.354458E-18
4.680000E+03	9.217161E-18	1.363553E-18
4.690000E+03	9.281763E-18	1.372665E-18
4.700000E+03	9.346442E-18	1.381778E-18
4.710000E+03	9.411260E-18	1.390903E-18
4.720000E+03	9.476288E-18	1.400049E-18
4.730000E+03	9.541342E-18	1.409188E-18
4.740000E+03	9.606494E-18	1.418332E-18
4.750000E+03	9.671644E-18	1.427466E-18
4.760000E+03	9.736874E-18	1.436602E-18
4.770000E+03	9.802178E-18	1.445738E-18
4.780000E+03	9.867463E-18	1.454860E-18
4.790000E+03	9.932817E-18	1.463983E-18
4.800000E+03	9.998152E-18	1.473092E-18
4.810000E+03	1.006356E-17	1.482200E-18
4.820000E+03	1.012895E-17	1.491296E-18
4.830000E+03	1.019434E-17	1.500381E-18
4.840000E+03	1.025973E-17	1.509454E-18
4.850000E+03	1.032522E-17	1.518532E-18
4.860000E+03	1.039073E-17	1.527600E-18
4.870000E+03	1.045625E-17	1.536660E-18
4.880000E+03	1.052171E-17	1.545698E-18
4.890000E+03	1.058729E-17	1.554743E-18
4.900000E+03	1.065289E-17	1.563780E-18
4.910000E+03	1.071852E-17	1.572809E-18
4.920000E+03	1.078406E-17	1.581812E-18
4.930000E+03	1.084959E-17	1.590802E-18
4.940000E+03	1.091498E-17	1.599760E-18
4.950000E+03	1.098021E-17	1.608682E-18
4.960000E+03	1.104535E-17	1.617580E-18
4.970000E+03	1.111029E-17	1.626434E-18
4.980000E+03	1.117500E-17	1.635242E-18
4.990000E+03	1.123934E-17	1.643985E-18
5.000000E+03	1.130340E-17	1.652674E-18
5.010000E+03	1.136715E-17	1.661304E-18
5.020000E+03	1.143043E-17	1.669854E-18
5.030000E+03	1.149321E-17	1.678317E-18
5.040000E+03	1.155543E-17	1.686686E-18
5.050000E+03	1.161692E-17	1.694935E-18
5.060000E+03	1.167774E-17	1.703074E-18
5.070000E+03	1.173783E-17	1.711094E-18
5.080000E+03	1.179691E-17	1.718953E-18
5.090000E+03	1.185503E-17	1.726659E-18
5.100000E+03	1.191214E-17	1.734206E-18
5.110000E+03	1.196808E-17	1.741569E-18
5.120000E+03	1.202281E-17	1.748744E-18
5.130000E+03	1.207631E-17	1.755727E-18
5.140000E+03	1.212855E-17	1.762514E-18
5.150000E+03	1.217939E-17	1.769085E-18
5.160000E+03	1.222893E-17	1.775455E-18
5.170000E+03	1.227692E-17	1.781587E-18
5.180000E+03	1.232345E-17	1.787495E-18
5.190000E+03	1.236837E-17	1.793156E-18
5.200000E+03	1.241162E-17	1.798565E-18
5.210000E+03	1.245317E-17	1.803714E-18
5.220000E+03	1.249295E-17	1.808595E-18
5.230000E+03	1.253064E-17	1.813163E-18
5.240000E+03	1.256641E-17	1.817441E-18
5.250000E+03	1.260004E-17	1.821398E-18
5.260000E+03	1.263142E-17	1.825019E-18
5.270000E+03	1.266029E-17	1.828267E-18
5.280000E+03	1.268650E-17	1.831120E-18
5.290000E+03	1.270991E-17	1.833559E-18
5.300000E+03	1.273038E-17	1.835565E-18
5.310000E+03	1.274779E-17	1.837118E-18
5.320000E+03	1.276187E-17	1.838184E-18
5.330000E+03	1.277280E-17	1.838788E-18
5.340000E+03	1.278025E-17	1.838881E-18
5.350000E+03	1.278414E-17	1.838456E-18
5.360000E+03	1.278470E-17	1.837545E-18
5.370000E+03	1.278166E-17	1.836110E-18
5.380000E+03	1.277527E-17	1.834187E-18
5.390000E+03	1.276539E-17	1.831758E-18
5.400000E+03	1.275217E-17	1.828844E-18
5.410000E+03	1.273548E-17	1.825428E-18
5.420000E+03	1.271562E-17	1.821554E-18
5.430000E+03	1.269251E-17	1.817211E-18
5.440000E+03	1.266632E-17	1.812424E-18
5.450000E+03	1.263689E-17	1.807171E-18
5.460000E+03	1.260443E-17	1.801482E-18
5.470000E+03	1.256892E-17	1.795357E-18
5.480000E+03	1.253035E-17	1.788794E-18
5.490000E+03	1.248899E-17	1.781832E-18
5.500000E+03	1.244472E-17	1.774456E-18
5.510000E+03	1.239758E-17	1.766670E-18
5.520000E+03	1.234774E-17	1.758501E-18
5.530000E+03	1.229512E-17	1.749938E-18
5.540000E+03	1.224002E-17	1.741025E-18
5.550000E+03	1.218226E-17	1.731736E-18
5.560000E+03	1.212227E-17	1.722133E-18
5.570000E+03	1.206010E-17	1.712224E-18
5.580000E+03	1.199581E-17	1.702019E-18
5.590000E+03	1.192958E-17	1.691543E-18
5.600000E+03	1.186159E-17	1.680823E-18
5.610000E+03	1.179188E-17	1.669864E-18
5.620000E+03	1.172086E-17	1.658726E-18
5.630000E+03	1.164843E-17	1.647395E-18
5.640000E+03	1.157496E-17	1.635923E-18
5.650000E+03	1.150034E-17	1.624297E-18
5.660000E+03	1.142494E-17	1.612566E-18
5.670000E+03	1.134887E-17	1.600748E-18
5.680000E+03	1.127211E-17	1.588841E-18
5.690000E+03	1.119489E-17	1.576877E-18
5.700000E+03	1.111730E-17	1.564868E-18
5.710000E+03	1.103953E-17	1.552843E-18
5.720000E+03	1.096167E-17	1.540814E-18
5.730000E+03	1.088369E-17	1.528775E-18
5.740000E+03	1.080586E-17	1.516768E-18
5.750000E+03	1.072828E-17	1.504803E-18
5.760000E+03	1.065090E-17	1.492875E-18
5.770000E+03	1.057390E-17	1.481009E-18
5.780000E+03	1.049745E-17	1.469230E-18
5.790000E+03	1.042163E-17	1.457548E-18
5.800000E+03	1.034639E-17	1.445954E-18
5.810000E+03	1.027190E-17	1.434476E-18
5.820000E+03	1.019837E-17	1.423139E-18
5.830000E+03	1.012585E-17	1.411953E-18
5.840000E+03	1.005432E-17	1.400913E-18
5.850000E+03	9.983954E-18	1.390044E-18
5.860000E+03	9.914832E-18	1.379357E-18
5.870000E+03	9.847150E-18	1.368878E-18
5.880000E+03	9.781003E-18	1.358620E-18
5.890000E+03	9.716366E-18	1.348580E-18
5.900000E+03	9.653442E-18	1.338785E-18
5.910000E+03	9.592212E-18	1.329232E-18
5.920000E+03	9.533077E-18	1.319977E-18
5.930000E+03	9.475784E-18	1.310983E-18
5.940000E+03	9.420498E-18	1.302273E-18
5.950000E+03	9.367379E-18	1.293868E-18
5.960000E+03	9.316360E-18	1.285759E-18
5.970000E+03	9.267477E-18	1.277949E-18
5.980000E+03	9.220868E-18	1.270458E-18
5.990000E+03	9.176442E-18	1.263272E-18
6.000000E+03	9.134326E-18	1.256407E-18
6.010000E+03	9.094317E-18	1.249836E-18
6.020000E+03	9.056635E-18	1.243587E-18
6.030000E+03	9.021068E-18	1.237631E-18
6.040000E+03	8.987827E-18	1.231996E-18
6.050000E+03	8.956587E-18	1.226637E-18
6.060000E+03	8.927551E-18	1.221581E-18
6.070000E+03	8.900602E-18	1.216810E-18
6.080000E+03	8.875721E-18	1.212322E-18
6.090000E+03	8.852680E-18	1.208086E-18
6.100000E+03	8.831668E-18	1.204125E-18
6.110000E+03	8.812341E-18	1.200392E-18
6.120000E+03	8.794886E-18	1.196913E-18
6.130000E+03	8.778955E-18	1.193639E-18
6.140000E+03	8.764512E-18	1.190565E-18
6.150000E+03	8.751415E-18	1.187671E-18
6.160000E+03	8.739628E-18	1.184952E-18
6.170000E+03	8.728780E-18	1.182356E-18
6.180000E+03	8.718827E-18	1.179878E-18
6.190000E+03	8.709611E-18	1.177496E-18
6.200000E+03	8.701079E-18	1.175202E-18
6.210000E+03	8.693178E-18	1.172989E-18
6.220000E+03	8.686073E-18	1.170880E-18
6.230000E+03	8.680048E-18	1.168911E-18
6.240000E+03	8.675164E-18	1.167090E-18
6.250000E+03	8.671601E-18	1.165443E-18
6.260000E+03	8.669539E-18	1.163991E-18
6.270000E+03	8.669054E-18	1.162745E-18
6.280000E+03	8.670340E-18	1.161730E-18
6.290000E+03	8.673478E-18	1.160955E-18
6.300000E+03	8.678559E-18	1.160434E-18
6.310000E+03	8.685794E-18	1.160192E-18
6.320000E+03	8.695160E-18	1.160226E-18
6.330000E+03	8.706882E-18	1.160564E-18
6.340000E+03	8.720829E-18	1.161189E-18
6.350000E+03	8.737110E-18	1.162114E-18
6.360000E+03	8.755718E-18	1.163337E-18
6.370000E+03	8.776773E-18	1.164873E-18
6.380000E+03	8.800151E-18	1.166704E-18
6.390000E+03	8.825846E-18	1.168828E-18
6.400000E+03	8.853737E-18	1.171229E-18
6.410000E+03	8.883562E-18	1.173870E-18
6.420000E+03	8.915183E-18	1.176733E-18
6.430000E+03	8.948593E-18	1.179815E-18
6.440000E+03	8.983781E-18	1.183115E-18
6.450000E+03	9.020742E-18	1.186630E-18
6.460000E+03	9.059603E-18	1.190378E-18
6.470000E+03	9.100500E-18	1.194373E-18
6.480000E+03	9.143439E-18	1.198617E-18
6.490000E+03	9.188285E-18	1.203091E-18
6.500000E+03	9.235321E-18	1.207830E-18
6.510000E+03	9.284560E-18	1.212835E-18
6.520000E+03	9.335872E-18	1.218088E-18
6.530000E+03	9.389412E-18	1.223609E-18
6.540000E+03	9.445196E-18	1.229398E-18
6.550000E+03	9.503091E-18	1.235436E-18
6.560000E+03	9.563109E-18	1.241724E-18
6.570000E+03	9.625572E-18	1.248303E-18
6.580000E+03	9.690039E-18	1.255114E-18
6.590000E+03	9.756834E-18	1.262198E-18
6.600000E+03	9.825980E-18	1.269557E-18
6.610000E+03	9.897178E-18	1.277150E-18
6.620000E+03	9.970768E-18	1.285021E-18
6.630000E+03	1.004644E-17	1.293129E-18
6.640000E+03	1.012455E-17	1.301517E-18
6.650000E+03	1.020477E-17	1.310143E-18
6.660000E+03	1.028730E-17	1.319029E-18
6.670000E+03	1.037215E-17	1.328178E-18
6.680000E+03	1.045916E-17	1.337568E-18
6.690000E+03	1.054836E-17	1.347198E-18
6.700000E+03	1.063993E-17	1.357094E-18
6.710000E+03	1.073372E-17	1.367233E-18
6.720000E+03	1.082974E-17	1.377615E-18
6.730000E+03	1.092801E-17	1.388243E-18
6.740000E+03	1.102856E-17	1.399116E-18
6.750000E+03	1.113140E-17	1.410238E-18
6.760000E+03	1.123655E-17	1.421608E-18
6.770000E+03	1.134384E-17	1.433203E-18
6.780000E+03	1.145349E-17	1.445049E-18
6.790000E+03	1.156552E-17	1.457148E-18
6.800000E+03	1.167975E-17	1.469475E-18
6.810000E+03	1.179639E-17	1.482057E-18
6.820000E+03	1.191527E-17	1.494869E-18
6.830000E+03	1.203640E-17	1.507910E-18
6.840000E+03	1.215979E-17	1.521183E-18
6.850000E+03	1.228546E-17	1.534687E-18
6.860000E+03	1.241366E-17	1.548452E-18
6.870000E+03	1.254395E-17	1.562422E-18
6.880000E+03	1.267656E-17	1.576623E-18
6.890000E+03	1.281154E-17	1.591061E-18
6.900000E+03	1.294864E-17	1.605703E-18
6.910000E+03	1.308814E-17	1.620581E-18
6.920000E+03	1.323003E-17	1.635694E-18
6.930000E+03	1.337410E-17	1.651015E-18
6.940000E+03	1.352035E-17	1.666540E-18
6.950000E+03	1.366906E-17	1.682303E-18
6.960000E+03	1.381996E-17	1.698271E-18
6.970000E+03	1.397307E-17	1.714442E-18
6.980000E+03	1.412840E-17	1.730818E-18
6.990000E+03	1.428594E-17	1.747395E-18
7.000000E+03	1.444542E-17	1.764139E-18
7.010000E+03	1.460738E-17	1.781115E-18
7.020000E+03	1.477128E-17	1.798254E-18
7.030000E+03	1.493739E-17	1.815588E-18
7.040000E+03	1.510542E-17	1.833081E-18
7.050000E+03	1.527535E-17	1.850728E-18
7.060000E+03	1.544747E-17	1.868565E-18
7.070000E+03	1.562149E-17	1.886552E-18
7.080000E+03	1.579704E-17	1.904647E-18
7.090000E+03	1.597477E-17	1.922923E-18
7.100000E+03	1.615433E-17	1.941339E-18
7.110000E+03	1.633537E-17	1.959852E-18
7.120000E+03	1.651820E-17	1.978497E-18
7.130000E+03	1.670245E-17	1.997227E-18
7.140000E+03	1.688844E-17	2.016082E-18
7.150000E+03	1.707578E-17	2.035012E-18
7.160000E+03	1.726480E-17	2.054056E-18
7.170000E+03	1.745475E-17	2.073124E-18
7.180000E+03	1.764593E-17	2.092251E-18
7.190000E+03	1.783868E-17	2.111475E-18
7.200000E+03	1.803222E-17	2.130704E-18
7.210000E+03	1.822649E-17	2.149929E-18
7.220000E+03	1.842181E-17	2.169188E-18
7.230000E+03	1.861815E-17	2.188477E-18
7.240000E+03	1.881506E-17	2.207742E-18
7.250000E+03	1.901288E-17	2.227022E-18
7.260000E+03	1.921117E-17	2.246264E-18
7.270000E+03	1.940982E-17	2.265457E-18
7.280000E+03	1.960920E-17	2.284641E-18
7.290000E+03	1.980879E-17	2.303757E-18
7.300000E+03	2.000895E-17	2.322845E-18
7.310000E+03	2.020915E-17	2.341846E-18
7.320000E+03	2.040926E-17	2.360741E-18
7.330000E+03	2.061009E-17	2.379627E-18
7.340000E+03	2.081065E-17	2.398386E-18
7.350000E+03	2.101172E-17	2.417112E-18
7.360000E+03	2.121280E-17	2.435742E-18
7.370000E+03	2.141424E-17	2.454320E-18
7.380000E+03	2.161649E-17	2.472897E-18
7.390000E+03	2.181902E-17	2.491411E-18
7.400000E+03	2.202279E-17	2.509971E-18
7.410000E+03	2.222779E-17	2.528575E-18
7.420000E+03	2.243457E-17	2.547285E-18
7.430000E+03	2.264315E-17	2.566102E-18
7.440000E+03	2.285356E-17	2.585030E-18
7.450000E+03	2.306639E-17	2.604133E-18
7.460000E+03	2.328065E-17	2.623297E-18
7.470000E+03	2.349637E-17	2.642526E-18
7.480000E+03	2.371303E-17	2.661761E-18
7.490000E+03	2.393123E-17	2.681068E-18
7.500000E+03	2.415046E-17	2.700388E-18
7.510000E+03	2.437019E-17	2.719665E-18
7.520000E+03	2.459044E-17	2.738898E-18
7.530000E+03	2.481125E-17	2.758091E-18
7.540000E+03	2.503202E-17	2.777180E-18
7.550000E+03	2.525342E-17	2.796237E-18
7.560000E+03	2.547429E-17	2.815135E-18
7.570000E+03	2.569592E-17	2.834016E-18
7.580000E+03	2.591776E-17	2.852821E-18
7.590000E+03	2.613991E-17	2.871559E-18
7.600000E+03	2.636180E-17	2.890169E-18
7.610000E+03	2.658408E-17	2.908723E-18
7.620000E+03	2.680676E-17	2.927221E-18
7.630000E+03	2.702984E-17	2.945664E-18
7.640000E+03	2.725257E-17	2.963970E-18
7.650000E+03	2.747552E-17	2.982201E-18
7.660000E+03	2.769788E-17	3.000269E-18
7.670000E+03	2.792083E-17	3.018306E-18
7.680000E+03	2.814209E-17	3.036060E-18
7.690000E+03	2.836353E-17	3.053738E-18
7.700000E+03	2.858424E-17	3.071239E-18
7.710000E+03	2.880321E-17	3.088459E-18
7.720000E+03	2.902093E-17	3.105450E-18
7.730000E+03	2.923712E-17	3.122182E-18
7.740000E+03	2.945148E-17	3.138628E-18
7.750000E+03	2.966371E-17	3.154754E-18
7.760000E+03	2.987426E-17	3.170612E-18
