#wls	flux	fluxerr
1.600000E+03	1.202997E-16	4.116081E-17
1.640000E+03	1.244215E-16	4.254429E-17
1.680000E+03	1.284468E-16	4.389228E-17
1.720000E+03	1.323191E-16	4.518551E-17
1.760000E+03	1.360285E-16	4.642061E-17
1.800000E+03	1.395107E-16	4.757567E-17
1.840000E+03	1.427231E-16	4.863630E-17
1.880000E+03	1.456449E-16	4.959547E-17
1.920000E+03	1.482033E-16	5.042862E-17
1.960000E+03	1.503610E-16	5.112327E-17
2.000000E+03	1.520572E-16	5.165896E-17
2.040000E+03	1.532548E-16	5.202352E-17
2.080000E+03	1.538768E-16	5.219115E-17
2.120000E+03	1.538659E-16	5.214287E-17
2.160000E+03	1.531655E-16	5.186010E-17
2.200000E+03	1.516887E-16	5.131405E-17
2.240000E+03	1.493668E-16	5.048217E-17
2.280000E+03	1.461938E-16	4.936332E-17
2.320000E+03	1.422167E-16	4.797417E-17
2.360000E+03	1.375726E-16	4.636181E-17
2.400000E+03	1.323750E-16	4.456517E-17
2.440000E+03	1.267244E-16	4.261878E-17
2.480000E+03	1.207259E-16	4.055848E-17
2.520000E+03	1.144457E-16	3.840703E-17
2.560000E+03	1.079605E-16	3.619055E-17
2.600000E+03	1.013361E-16	3.393149E-17
2.640000E+03	9.464262E-17	3.165355E-17
2.680000E+03	8.793798E-17	2.937636E-17
2.720000E+03	8.128163E-17	2.711992E-17
2.760000E+03	7.472989E-17	2.490310E-17
2.800000E+03	6.833580E-17	2.274358E-17
2.840000E+03	6.215020E-17	2.065821E-17
2.880000E+03	5.622262E-17	1.866332E-17
2.920000E+03	5.059741E-17	1.677342E-17
2.960000E+03	4.531313E-17	1.500103E-17
3.000000E+03	4.039847E-17	1.335529E-17
3.010000E+03	3.923092E-17	1.296471E-17
3.020000E+03	3.808686E-17	1.258214E-17
3.030000E+03	3.696800E-17	1.220814E-17
3.040000E+03	3.587334E-17	1.184238E-17
3.050000E+03	3.480357E-17	1.148508E-17
3.060000E+03	3.375924E-17	1.113640E-17
3.070000E+03	3.273870E-17	1.079580E-17
3.080000E+03	3.174384E-17	1.046389E-17
3.090000E+03	3.077304E-17	1.014014E-17
3.100000E+03	2.982736E-17	9.824880E-18
3.110000E+03	2.890592E-17	9.517819E-18
3.120000E+03	2.800853E-17	9.218881E-18
3.130000E+03	2.713605E-17	8.928348E-18
3.140000E+03	2.628724E-17	8.645801E-18
3.150000E+03	2.546341E-17	8.371663E-18
3.160000E+03	2.466290E-17	8.105383E-18
3.170000E+03	2.388690E-17	7.847344E-18
3.180000E+03	2.313429E-17	7.597167E-18
3.190000E+03	2.240568E-17	7.355047E-18
3.200000E+03	2.170036E-17	7.120740E-18
3.210000E+03	2.101841E-17	6.894272E-18
3.220000E+03	2.035954E-17	6.675533E-18
3.230000E+03	1.972341E-17	6.464405E-18
3.240000E+03	1.910940E-17	6.260679E-18
3.250000E+03	1.851779E-17	6.064440E-18
3.260000E+03	1.794791E-17	5.875458E-18
3.270000E+03	1.739965E-17	5.693689E-18
3.280000E+03	1.687230E-17	5.518895E-18
3.290000E+03	1.636543E-17	5.350928E-18
3.300000E+03	1.587882E-17	5.189712E-18
3.310000E+03	1.541174E-17	5.034994E-18
3.320000E+03	1.496393E-17	4.886684E-18
3.330000E+03	1.453483E-17	4.744597E-18
3.340000E+03	1.412354E-17	4.608428E-18
3.350000E+03	1.372993E-17	4.478130E-18
3.360000E+03	1.335329E-17	4.353462E-18
3.370000E+03	1.299310E-17	4.234254E-18
3.380000E+03	1.264885E-17	4.120328E-18
3.390000E+03	1.231970E-17	4.011407E-18
3.400000E+03	1.200550E-17	3.907437E-18
3.410000E+03	1.170561E-17	3.808201E-18
3.420000E+03	1.141938E-17	3.713489E-18
3.430000E+03	1.114638E-17	3.623147E-18
3.440000E+03	1.088616E-17	3.537032E-18
3.450000E+03	1.063804E-17	3.454910E-18
3.460000E+03	1.040173E-17	3.376690E-18
3.470000E+03	1.017660E-17	3.302158E-18
3.480000E+03	9.962294E-18	3.231195E-18
3.490000E+03	9.758348E-18	3.163648E-18
3.500000E+03	9.564328E-18	3.099370E-18
3.510000E+03	9.379826E-18	3.038226E-18
3.520000E+03	9.204456E-18	2.980087E-18
3.530000E+03	9.037754E-18	2.924800E-18
3.540000E+03	8.879289E-18	2.872221E-18
3.550000E+03	8.728752E-18	2.822247E-18
3.560000E+03	8.585761E-18	2.774751E-18
3.570000E+03	8.450041E-18	2.729642E-18
3.580000E+03	8.321161E-18	2.686777E-18
3.590000E+03	8.198889E-18	2.646079E-18
3.600000E+03	8.082917E-18	2.607446E-18
3.610000E+03	7.973116E-18	2.570832E-18
3.620000E+03	7.869127E-18	2.536121E-18
3.630000E+03	7.770762E-18	2.503249E-18
3.640000E+03	7.677623E-18	2.472085E-18
3.650000E+03	7.589555E-18	2.442577E-18
3.660000E+03	7.506334E-18	2.414652E-18
3.670000E+03	7.427752E-18	2.388240E-18
3.680000E+03	7.353678E-18	2.363297E-18
3.690000E+03	7.283980E-18	2.339779E-18
3.700000E+03	7.218469E-18	2.317623E-18
3.710000E+03	7.157089E-18	2.296809E-18
3.720000E+03	7.099652E-18	2.277276E-18
3.730000E+03	7.046170E-18	2.259025E-18
3.740000E+03	6.996520E-18	2.242015E-18
3.750000E+03	6.950582E-18	2.226207E-18
3.760000E+03	6.908299E-18	2.211580E-18
3.770000E+03	6.869672E-18	2.198132E-18
3.780000E+03	6.834579E-18	2.185824E-18
3.790000E+03	6.803023E-18	2.174655E-18
3.800000E+03	6.774885E-18	2.164584E-18
3.810000E+03	6.750111E-18	2.155593E-18
3.820000E+03	6.728703E-18	2.147682E-18
3.830000E+03	6.710663E-18	2.140849E-18
3.840000E+03	6.695881E-18	2.135058E-18
3.850000E+03	6.684416E-18	2.130325E-18
3.860000E+03	6.676107E-18	2.126599E-18
3.870000E+03	6.671066E-18	2.123913E-18
3.880000E+03	6.669134E-18	2.122215E-18
3.890000E+03	6.670421E-18	2.121538E-18
3.900000E+03	6.674817E-18	2.121847E-18
3.910000E+03	6.682325E-18	2.123140E-18
3.920000E+03	6.692888E-18	2.125398E-18
3.930000E+03	6.706508E-18	2.128620E-18
3.940000E+03	6.723124E-18	2.132785E-18
3.950000E+03	6.742792E-18	2.137910E-18
3.960000E+03	6.765400E-18	2.143957E-18
3.970000E+03	6.790946E-18	2.150925E-18
3.980000E+03	6.819371E-18	2.158793E-18
3.990000E+03	6.850727E-18	2.167576E-18
4.000000E+03	6.884957E-18	2.177255E-18
4.010000E+03	6.922002E-18	2.187809E-18
4.020000E+03	6.961805E-18	2.199220E-18
4.030000E+03	7.004418E-18	2.211502E-18
4.040000E+03	7.049730E-18	2.224619E-18
4.050000E+03	7.097795E-18	2.238586E-18
4.060000E+03	7.148505E-18	2.253368E-18
4.070000E+03	7.201862E-18	2.268965E-18
4.080000E+03	7.257872E-18	2.285376E-18
4.090000E+03	7.316485E-18	2.302585E-18
4.100000E+03	7.377653E-18	2.320575E-18
4.110000E+03	7.441328E-18	2.339330E-18
4.120000E+03	7.507579E-18	2.358870E-18
4.130000E+03	7.576300E-18	2.379160E-18
4.140000E+03	7.647506E-18	2.400205E-18
4.150000E+03	7.721090E-18	2.421968E-18
4.160000E+03	7.797064E-18	2.444453E-18
4.170000E+03	7.875448E-18	2.467665E-18
4.180000E+03	7.956132E-18	2.491567E-18
4.190000E+03	8.039136E-18	2.516166E-18
4.200000E+03	8.124350E-18	2.541425E-18
4.210000E+03	8.211794E-18	2.567349E-18
4.220000E+03	8.301361E-18	2.593903E-18
4.230000E+03	8.393069E-18	2.621093E-18
4.240000E+03	8.486808E-18	2.648883E-18
4.250000E+03	8.582531E-18	2.677257E-18
4.260000E+03	8.680123E-18	2.706177E-18
4.270000E+03	8.779602E-18	2.735650E-18
4.280000E+03	8.880847E-18	2.765635E-18
4.290000E+03	8.983802E-18	2.796115E-18
4.300000E+03	9.088337E-18	2.827048E-18
4.310000E+03	9.194313E-18	2.858391E-18
4.320000E+03	9.301659E-18	2.890120E-18
4.330000E+03	9.410297E-18	2.922210E-18
4.340000E+03	9.520067E-18	2.954612E-18
4.350000E+03	9.630879E-18	2.987296E-18
4.360000E+03	9.742557E-18	3.020207E-18
4.370000E+03	9.855074E-18	3.053337E-18
4.380000E+03	9.968321E-18	3.086652E-18
4.390000E+03	1.008243E-17	3.120191E-18
4.400000E+03	1.019729E-17	3.153920E-18
4.410000E+03	1.031294E-17	3.187854E-18
4.420000E+03	1.042937E-17	3.221983E-18
4.430000E+03	1.054671E-17	3.256353E-18
4.440000E+03	1.066486E-17	3.290927E-18
4.450000E+03	1.078381E-17	3.325706E-18
4.460000E+03	1.090361E-17	3.360701E-18
4.470000E+03	1.102427E-17	3.395921E-18
4.480000E+03	1.114578E-17	3.431357E-18
4.490000E+03	1.126804E-17	3.466978E-18
4.500000E+03	1.139115E-17	3.502816E-18
4.510000E+03	1.151499E-17	3.538835E-18
4.520000E+03	1.163958E-17	3.575039E-18
4.530000E+03	1.176491E-17	3.611424E-18
4.540000E+03	1.189078E-17	3.647928E-18
4.550000E+03	1.201729E-17	3.684585E-18
4.560000E+03	1.214435E-17	3.721361E-18
4.570000E+03	1.227196E-17	3.758261E-18
4.580000E+03	1.239992E-17	3.795221E-18
4.590000E+03	1.252837E-17	3.832284E-18
4.600000E+03	1.265709E-17	3.869386E-18
4.610000E+03	1.278626E-17	3.906574E-18
4.620000E+03	1.291567E-17	3.943788E-18
4.630000E+03	1.304538E-17	3.981046E-18
4.640000E+03	1.317530E-17	4.018322E-18
4.650000E+03	1.330564E-17	4.055675E-18
4.660000E+03	1.343622E-17	4.093056E-18
4.670000E+03	1.356726E-17	4.130528E-18
4.680000E+03	1.369871E-17	4.168076E-18
4.690000E+03	1.383056E-17	4.205694E-18
4.700000E+03	1.396304E-17	4.243458E-18
4.710000E+03	1.409600E-17	4.281318E-18
4.720000E+03	1.422960E-17	4.319320E-18
4.730000E+03	1.436367E-17	4.357418E-18
4.740000E+03	1.449840E-17	4.395665E-18
4.750000E+03	1.463350E-17	4.433974E-18
4.760000E+03	1.476915E-17	4.472398E-18
4.770000E+03	1.490523E-17	4.510902E-18
4.780000E+03	1.504189E-17	4.549530E-18
4.790000E+03	1.517901E-17	4.588247E-18
4.800000E+03	1.531663E-17	4.627062E-18
4.810000E+03	1.545473E-17	4.665971E-18
4.820000E+03	1.559336E-17	4.704985E-18
4.830000E+03	1.573249E-17	4.744103E-18
4.840000E+03	1.587201E-17	4.783282E-18
4.850000E+03	1.601207E-17	4.822571E-18
4.860000E+03	1.615268E-17	4.861973E-18
4.870000E+03	1.629371E-17	4.901449E-18
4.880000E+03	1.643515E-17	4.940995E-18
4.890000E+03	1.657719E-17	4.980666E-18
4.900000E+03	1.671950E-17	5.020367E-18
4.910000E+03	1.686244E-17	5.060200E-18
4.920000E+03	1.700583E-17	5.100115E-18
4.930000E+03	1.714950E-17	5.140060E-18
4.940000E+03	1.729361E-17	5.180079E-18
4.950000E+03	1.743810E-17	5.220159E-18
4.960000E+03	1.758280E-17	5.260245E-18
4.970000E+03	1.772781E-17	5.300368E-18
4.980000E+03	1.787270E-17	5.340401E-18
4.990000E+03	1.801775E-17	5.380428E-18
5.000000E+03	1.816270E-17	5.420367E-18
5.010000E+03	1.830724E-17	5.460129E-18
5.020000E+03	1.845143E-17	5.499730E-18
5.030000E+03	1.859496E-17	5.539077E-18
5.040000E+03	1.873765E-17	5.578122E-18
5.050000E+03	1.887933E-17	5.616810E-18
5.060000E+03	1.901980E-17	5.655085E-18
5.070000E+03	1.915868E-17	5.692832E-18
5.080000E+03	1.929592E-17	5.730038E-18
5.090000E+03	1.943109E-17	5.766576E-18
5.100000E+03	1.956394E-17	5.802375E-18
5.110000E+03	1.969401E-17	5.837298E-18
5.120000E+03	1.982124E-17	5.871329E-18
5.130000E+03	1.994497E-17	5.904276E-18
5.140000E+03	2.006533E-17	5.936175E-18
5.150000E+03	2.018168E-17	5.966844E-18
5.160000E+03	2.029396E-17	5.996263E-18
5.170000E+03	2.040174E-17	6.024310E-18
5.180000E+03	2.050453E-17	6.050845E-18
5.190000E+03	2.060232E-17	6.075862E-18
5.200000E+03	2.069462E-17	6.099224E-18
5.210000E+03	2.078120E-17	6.120865E-18
5.220000E+03	2.086177E-17	6.140702E-18
5.230000E+03	2.093587E-17	6.158607E-18
5.240000E+03	2.100322E-17	6.174495E-18
5.250000E+03	2.106335E-17	6.188234E-18
5.260000E+03	2.111615E-17	6.199802E-18
5.270000E+03	2.116115E-17	6.209058E-18
5.280000E+03	2.119805E-17	6.215919E-18
5.290000E+03	2.122656E-17	6.220307E-18
5.300000E+03	2.124617E-17	6.222078E-18
5.310000E+03	2.125660E-17	6.221156E-18
5.320000E+03	2.125759E-17	6.217465E-18
5.330000E+03	2.124889E-17	6.210941E-18
5.340000E+03	2.123005E-17	6.201459E-18
5.350000E+03	2.120109E-17	6.189031E-18
5.360000E+03	2.116185E-17	6.173613E-18
5.370000E+03	2.111224E-17	6.155186E-18
5.380000E+03	2.105197E-17	6.133673E-18
5.390000E+03	2.098151E-17	6.109214E-18
5.400000E+03	2.090071E-17	6.081774E-18
5.410000E+03	2.081020E-17	6.051539E-18
5.420000E+03	2.071000E-17	6.018525E-18
5.430000E+03	2.060068E-17	5.982900E-18
5.440000E+03	2.048268E-17	5.944799E-18
5.450000E+03	2.035694E-17	5.904498E-18
5.460000E+03	2.022387E-17	5.862118E-18
5.470000E+03	2.008395E-17	5.817807E-18
5.480000E+03	1.993757E-17	5.771681E-18
5.490000E+03	1.978560E-17	5.723993E-18
5.500000E+03	1.962856E-17	5.674898E-18
5.510000E+03	1.946723E-17	5.624626E-18
5.520000E+03	1.930248E-17	5.573427E-18
5.530000E+03	1.913516E-17	5.521549E-18
5.540000E+03	1.896616E-17	5.469255E-18
5.550000E+03	1.879660E-17	5.416864E-18
5.560000E+03	1.862737E-17	5.364634E-18
5.570000E+03	1.845974E-17	5.312932E-18
5.580000E+03	1.829442E-17	5.261956E-18
5.590000E+03	1.813277E-17	5.212102E-18
5.600000E+03	1.797541E-17	5.163545E-18
5.610000E+03	1.782344E-17	5.116596E-18
5.620000E+03	1.767784E-17	5.071535E-18
5.630000E+03	1.753902E-17	5.028475E-18
5.640000E+03	1.740814E-17	4.987748E-18
5.650000E+03	1.728561E-17	4.949463E-18
5.660000E+03	1.717169E-17	4.913690E-18
5.670000E+03	1.706729E-17	4.880688E-18
5.680000E+03	1.697234E-17	4.850429E-18
5.690000E+03	1.688724E-17	4.823025E-18
5.700000E+03	1.681228E-17	4.798548E-18
5.710000E+03	1.674754E-17	4.777023E-18
5.720000E+03	1.669303E-17	4.758441E-18
5.730000E+03	1.664873E-17	4.742793E-18
5.740000E+03	1.661476E-17	4.730110E-18
5.750000E+03	1.659123E-17	4.720416E-18
5.760000E+03	1.657772E-17	4.713586E-18
5.770000E+03	1.657472E-17	4.709756E-18
5.780000E+03	1.658186E-17	4.708811E-18
5.790000E+03	1.659948E-17	4.710846E-18
5.800000E+03	1.662747E-17	4.715825E-18
5.810000E+03	1.666606E-17	4.723804E-18
5.820000E+03	1.671534E-17	4.734808E-18
5.830000E+03	1.677560E-17	4.748911E-18
5.840000E+03	1.684677E-17	4.766087E-18
5.850000E+03	1.692899E-17	4.786373E-18
5.860000E+03	1.702255E-17	4.809841E-18
5.870000E+03	1.712775E-17	4.836575E-18
5.880000E+03	1.724436E-17	4.866505E-18
5.890000E+03	1.737285E-17	4.899752E-18
5.900000E+03	1.751317E-17	4.936302E-18
5.910000E+03	1.766559E-17	4.976224E-18
5.920000E+03	1.783022E-17	5.019542E-18
5.930000E+03	1.800695E-17	5.066218E-18
5.940000E+03	1.819600E-17	5.116315E-18
5.950000E+03	1.839740E-17	5.169829E-18
5.960000E+03	1.861093E-17	5.226696E-18
5.970000E+03	1.883697E-17	5.287017E-18
5.980000E+03	1.907499E-17	5.350639E-18
5.990000E+03	1.932511E-17	5.417587E-18
6.000000E+03	1.958713E-17	5.487804E-18
6.010000E+03	1.986062E-17	5.561160E-18
6.020000E+03	2.014552E-17	5.637640E-18
6.030000E+03	2.044104E-17	5.717014E-18
6.040000E+03	2.074726E-17	5.799301E-18
6.050000E+03	2.106321E-17	5.884230E-18
6.060000E+03	2.138865E-17	5.971724E-18
6.070000E+03	2.172268E-17	6.061533E-18
6.080000E+03	2.206463E-17	6.153469E-18
6.090000E+03	2.241347E-17	6.247239E-18
6.100000E+03	2.276806E-17	6.342524E-18
6.110000E+03	2.312772E-17	6.439136E-18
6.120000E+03	2.349057E-17	6.536552E-18
6.130000E+03	2.385576E-17	6.634531E-18
6.140000E+03	2.422150E-17	6.732582E-18
6.150000E+03	2.458651E-17	6.830347E-18
6.160000E+03	2.494823E-17	6.927118E-18
6.170000E+03	2.530561E-17	7.022609E-18
6.180000E+03	2.565636E-17	7.116185E-18
6.190000E+03	2.599888E-17	7.207414E-18
6.200000E+03	2.633147E-17	7.295822E-18
6.210000E+03	2.665393E-17	7.381368E-18
6.220000E+03	2.696670E-17	7.464175E-18
6.230000E+03	2.727041E-17	7.544421E-18
6.240000E+03	2.756583E-17	7.622333E-18
6.250000E+03	2.785287E-17	7.697885E-18
6.260000E+03	2.813325E-17	7.771562E-18
6.270000E+03	2.840667E-17	7.843280E-18
6.280000E+03	2.867426E-17	7.913361E-18
6.290000E+03	2.893694E-17	7.982059E-18
6.300000E+03	2.919443E-17	8.049304E-18
6.310000E+03	2.944767E-17	8.115355E-18
6.320000E+03	2.969723E-17	8.180373E-18
6.330000E+03	2.994369E-17	8.244520E-18
6.340000E+03	3.018684E-17	8.307739E-18
6.350000E+03	3.042728E-17	8.370199E-18
6.360000E+03	3.066523E-17	8.431959E-18
6.370000E+03	3.090090E-17	8.493081E-18
6.380000E+03	3.113405E-17	8.553500E-18
6.390000E+03	3.136448E-17	8.613160E-18
6.400000E+03	3.159190E-17	8.671989E-18
6.410000E+03	3.181651E-17	8.730037E-18
6.420000E+03	3.203804E-17	8.787234E-18
6.430000E+03	3.225523E-17	8.843239E-18
6.440000E+03	3.246964E-17	8.898475E-18
6.450000E+03	3.268142E-17	8.952993E-18
6.460000E+03	3.289123E-17	9.006967E-18
6.470000E+03	3.310021E-17	9.060717E-18
6.480000E+03	3.330812E-17	9.114173E-18
6.490000E+03	3.351611E-17	9.167655E-18
6.500000E+03	3.372443E-17	9.221228E-18
6.510000E+03	3.393377E-17	9.275084E-18
6.520000E+03	3.414333E-17	9.329003E-18
6.530000E+03	3.435485E-17	9.383461E-18
6.540000E+03	3.456747E-17	9.438223E-18
6.550000E+03	3.478192E-17	9.493488E-18
6.560000E+03	3.499836E-17	9.549303E-18
6.570000E+03	3.521643E-17	9.605565E-18
6.580000E+03	3.543682E-17	9.662466E-18
6.590000E+03	3.565971E-17	9.720056E-18
6.600000E+03	3.588470E-17	9.778222E-18
6.610000E+03	3.611193E-17	9.837003E-18
6.620000E+03	3.634153E-17	9.896439E-18
6.630000E+03	3.657424E-17	9.956728E-18
6.640000E+03	3.680899E-17	1.001758E-17
6.650000E+03	3.704648E-17	1.007918E-17
6.660000E+03	3.728680E-17	1.014156E-17
6.670000E+03	3.752941E-17	1.020457E-17
6.680000E+03	3.777498E-17	1.026840E-17
6.690000E+03	3.802293E-17	1.033288E-17
6.700000E+03	3.827393E-17	1.039820E-17
6.710000E+03	3.852670E-17	1.046401E-17
6.720000E+03	3.878193E-17	1.053050E-17
6.730000E+03	3.904028E-17	1.059784E-17
6.740000E+03	3.930045E-17	1.066570E-17
6.750000E+03	3.956313E-17	1.073424E-17
6.760000E+03	3.982766E-17	1.080331E-17
6.770000E+03	4.009476E-17	1.087308E-17
6.780000E+03	4.036375E-17	1.094338E-17
6.790000E+03	4.063469E-17	1.101422E-17
6.800000E+03	4.090832E-17	1.108581E-17
6.810000E+03	4.118324E-17	1.115777E-17
6.820000E+03	4.146094E-17	1.123049E-17
6.830000E+03	4.173998E-17	1.130360E-17
6.840000E+03	4.202188E-17	1.137751E-17
6.850000E+03	4.230512E-17	1.145179E-17
6.860000E+03	4.258964E-17	1.152645E-17
6.870000E+03	4.287620E-17	1.160168E-17
6.880000E+03	4.316471E-17	1.167747E-17
6.890000E+03	4.345349E-17	1.175335E-17
6.900000E+03	4.374399E-17	1.182973E-17
6.910000E+03	4.403527E-17	1.190634E-17
6.920000E+03	4.432797E-17	1.198337E-17
6.930000E+03	4.462024E-17	1.206031E-17
6.940000E+03	4.491268E-17	1.213734E-17
6.950000E+03	4.520507E-17	1.221438E-17
6.960000E+03	4.549631E-17	1.229115E-17
6.970000E+03	4.578701E-17	1.236781E-17
6.980000E+03	4.607693E-17	1.244429E-17
6.990000E+03	4.636494E-17	1.252030E-17
7.000000E+03	4.665079E-17	1.259578E-17
7.010000E+03	4.693423E-17	1.267064E-17
7.020000E+03	4.721599E-17	1.274510E-17
7.030000E+03	4.749401E-17	1.281860E-17
7.040000E+03	4.776997E-17	1.289159E-17
7.050000E+03	4.804184E-17	1.296353E-17
7.060000E+03	4.831041E-17	1.303463E-17
7.070000E+03	4.857460E-17	1.310461E-17
7.080000E+03	4.883528E-17	1.317370E-17
7.090000E+03	4.909239E-17	1.324188E-17
7.100000E+03	4.934489E-17	1.330889E-17
7.110000E+03	4.959176E-17	1.337444E-17
7.120000E+03	4.983499E-17	1.343907E-17
7.130000E+03	5.007359E-17	1.350252E-17
7.140000E+03	5.030759E-17	1.356481E-17
7.150000E+03	5.053706E-17	1.362594E-17
7.160000E+03	5.076104E-17	1.368567E-17
7.170000E+03	5.098063E-17	1.374429E-17
7.180000E+03	5.119490E-17	1.380155E-17
7.190000E+03	5.140394E-17	1.385749E-17
7.200000E+03	5.160898E-17	1.391242E-17
7.210000E+03	5.180906E-17	1.396611E-17
7.220000E+03	5.200543E-17	1.401888E-17
7.230000E+03	5.219603E-17	1.407018E-17
7.240000E+03	5.238206E-17	1.412035E-17
7.250000E+03	5.256362E-17	1.416939E-17
7.260000E+03	5.274074E-17	1.421734E-17
7.270000E+03	5.291345E-17	1.426419E-17
7.280000E+03	5.308171E-17	1.430994E-17
7.290000E+03	5.324434E-17	1.435427E-17
7.300000E+03	5.340231E-17	1.439745E-17
7.310000E+03	5.355554E-17	1.443945E-17
7.320000E+03	5.370385E-17	1.448023E-17
7.330000E+03	5.384590E-17	1.451942E-17
7.340000E+03	5.398270E-17	1.455731E-17
7.350000E+03	5.411527E-17	1.459417E-17
7.360000E+03	5.424109E-17	1.462933E-17
7.370000E+03	5.436121E-17	1.466305E-17
7.380000E+03	5.447551E-17	1.469532E-17
7.390000E+03	5.458510E-17	1.472644E-17
7.400000E+03	5.468875E-17	1.475608E-17
7.410000E+03	5.478765E-17	1.478455E-17
7.420000E+03	5.488307E-17	1.481220E-17
7.430000E+03	5.497387E-17	1.483873E-17
7.440000E+03	5.506270E-17	1.486485E-17
7.450000E+03	5.514728E-17	1.488995E-17
7.460000E+03	5.522910E-17	1.491443E-17
7.470000E+03	5.530718E-17	1.493804E-17
7.480000E+03	5.538312E-17	1.496119E-17
7.490000E+03	5.545470E-17	1.498330E-17
7.500000E+03	5.552352E-17	1.500479E-17
7.510000E+03	5.558986E-17	1.502575E-17
7.520000E+03	5.565269E-17	1.504590E-17
7.530000E+03	5.571478E-17	1.506598E-17
7.540000E+03	5.577370E-17	1.508535E-17
7.550000E+03	5.583089E-17	1.510438E-17
7.560000E+03	5.588520E-17	1.512278E-17
7.570000E+03	5.593806E-17	1.514091E-17
7.580000E+03	5.598833E-17	1.515848E-17
7.590000E+03	5.603747E-17	1.517587E-17
7.600000E+03	5.608432E-17	1.519276E-17
7.610000E+03	5.612897E-17	1.520919E-17
7.620000E+03	5.617288E-17	1.522555E-17
7.630000E+03	5.621476E-17	1.524148E-17
7.640000E+03	5.625465E-17	1.525699E-17
7.650000E+03	5.629387E-17	1.527245E-17
7.660000E+03	5.633101E-17	1.528746E-17
7.670000E+03	5.636737E-17	1.530237E-17
7.680000E+03	5.640007E-17	1.531641E-17
7.690000E+03	5.643171E-17	1.533028E-17
7.700000E+03	5.646214E-17	1.534393E-17
7.710000E+03	5.648982E-17	1.535694E-17
7.720000E+03	5.651593E-17	1.536964E-17
7.730000E+03	5.653891E-17	1.538159E-17
7.740000E+03	5.655853E-17	1.539274E-17
7.750000E+03	5.657602E-17	1.540340E-17
7.760000E+03	5.659115E-17	1.541353E-17
