#wls	flux	fluxerr
1.600000E+03	-1.056574E-16	-7.415269E-17
1.640000E+03	-1.182496E-16	-8.276071E-17
1.680000E+03	-1.310769E-16	-9.148248E-17
1.720000E+03	-1.438767E-16	-1.000958E-16
1.760000E+03	-1.568299E-16	-1.087564E-16
1.800000E+03	-1.695876E-16	-1.171735E-16
1.840000E+03	-1.824029E-16	-1.255629E-16
1.880000E+03	-1.948479E-16	-1.335701E-16
1.920000E+03	-2.072146E-16	-1.414485E-16
1.960000E+03	-2.189550E-16	-1.487533E-16
2.000000E+03	-2.304378E-16	-1.558032E-16
2.040000E+03	-2.410237E-16	-1.620836E-16
2.080000E+03	-2.511097E-16	-1.679470E-16
2.120000E+03	-2.599201E-16	-1.727819E-16
2.160000E+03	-2.679817E-16	-1.770436E-16
2.200000E+03	-2.743357E-16	-1.799975E-16
2.240000E+03	-2.796642E-16	-1.822178E-16
2.280000E+03	-2.829921E-16	-1.829614E-16
2.320000E+03	-2.851967E-16	-1.829422E-16
2.360000E+03	-2.853489E-16	-1.814500E-16
2.400000E+03	-2.845122E-16	-1.793234E-16
2.440000E+03	-2.817552E-16	-1.758540E-16
2.480000E+03	-2.782275E-16	-1.719323E-16
2.520000E+03	-2.729141E-16	-1.668044E-16
2.560000E+03	-2.670700E-16	-1.614174E-16
2.600000E+03	-2.595773E-16	-1.549656E-16
2.640000E+03	-2.517430E-16	-1.484135E-16
2.680000E+03	-2.424072E-16	-1.409470E-16
2.720000E+03	-2.329314E-16	-1.335418E-16
2.760000E+03	-2.221326E-16	-1.253914E-16
2.800000E+03	-2.114075E-16	-1.174638E-16
2.840000E+03	-1.995682E-16	-1.089741E-16
2.880000E+03	-1.880557E-16	-1.008788E-16
2.920000E+03	-1.756997E-16	-9.242934E-17
2.960000E+03	-1.639258E-16	-8.452978E-17
2.991594E+03	-1.451265E-15	-7.358052E-16
2.991794E+03	-1.442553E-15	-7.313087E-16
2.991994E+03	-1.433637E-15	-7.267093E-16
2.992194E+03	-1.424724E-15	-7.221118E-16
2.992594E+03	-1.415737E-15	-7.173997E-16
2.992794E+03	-1.406911E-15	-7.128489E-16
2.994594E+03	-1.396837E-15	-7.070448E-16
2.994994E+03	-1.387839E-15	-7.023356E-16
2.995194E+03	-1.378997E-15	-6.977842E-16
2.996395E+03	-1.369413E-15	-6.924757E-16
2.996595E+03	-1.360551E-15	-6.879186E-16
2.998794E+03	-1.350183E-15	-6.818471E-16
2.999594E+03	-1.340844E-15	-6.768283E-16
3.019997E+03	-1.315938E-15	-6.566745E-16
3.064200E+03	-1.266122E-15	-6.154313E-16
3.080002E+03	-1.243287E-15	-5.985682E-16
3.083802E+03	-1.231209E-15	-5.913440E-16
3.084402E+03	-1.222327E-15	-5.868568E-16
3.085802E+03	-1.212549E-15	-5.816494E-16
3.086002E+03	-1.204038E-15	-5.774940E-16
3.094404E+03	-1.187202E-15	-5.663904E-16
3.095803E+03	-1.177577E-15	-5.612984E-16
3.100004E+03	-1.165020E-15	-5.538173E-16
3.100604E+03	-1.156195E-15	-5.494103E-16
3.105205E+03	-1.143143E-15	-5.415924E-16
3.109004E+03	-1.131203E-15	-5.346146E-16
3.110604E+03	-1.121560E-15	-5.295036E-16
3.111005E+03	-1.113117E-15	-5.253799E-16
3.111805E+03	-1.104364E-15	-5.209753E-16
3.112005E+03	-1.096167E-15	-5.170407E-16
3.112605E+03	-1.087585E-15	-5.127912E-16
3.113205E+03	-1.078938E-15	-5.085136E-16
3.113405E+03	-1.070729E-15	-5.045785E-16
3.114205E+03	-1.061842E-15	-5.001276E-16
3.114605E+03	-1.053342E-15	-4.959933E-16
3.115605E+03	-1.044198E-15	-4.913642E-16
3.116606E+03	-1.035091E-15	-4.867570E-16
3.116806E+03	-1.027015E-15	-4.828955E-16
3.117406E+03	-1.018496E-15	-4.787003E-16
3.119206E+03	-1.008790E-15	-4.735739E-16
3.119606E+03	-1.000366E-15	-4.694946E-16
3.120605E+03	-9.913435E-16	-4.649520E-16
3.121405E+03	-9.825474E-16	-4.605815E-16
3.123606E+03	-9.725221E-16	-4.552145E-16
3.123806E+03	-9.644556E-16	-4.513785E-16
3.125206E+03	-9.551788E-16	-4.466190E-16
3.126406E+03	-9.461070E-16	-4.420221E-16
3.126606E+03	-9.381660E-16	-4.382533E-16
3.126806E+03	-9.302273E-16	-4.344866E-16
3.127206E+03	-9.221068E-16	-4.305782E-16
3.127406E+03	-9.142004E-16	-4.268290E-16
3.128007E+03	-9.059068E-16	-4.227863E-16
3.128607E+03	-8.976469E-16	-4.187625E-16
3.128807E+03	-8.897557E-16	-4.150255E-16
3.129207E+03	-8.816887E-16	-4.111520E-16
3.129407E+03	-8.738296E-16	-4.074323E-16
3.129807E+03	-8.657718E-16	-4.035664E-16
3.132006E+03	-8.561743E-16	-3.985013E-16
3.132206E+03	-8.483646E-16	-3.948130E-16
3.132806E+03	-8.400653E-16	-3.907921E-16
3.133406E+03	-8.317990E-16	-3.867896E-16
3.133607E+03	-8.238559E-16	-3.830439E-16
3.134207E+03	-8.156535E-16	-3.790761E-16
3.134407E+03	-8.077206E-16	-3.753384E-16
3.135007E+03	-7.997296E-16	-3.714738E-16
3.135807E+03	-7.913869E-16	-3.673990E-16
3.136007E+03	-7.835935E-16	-3.637315E-16
3.136607E+03	-7.754801E-16	-3.598186E-16
3.136807E+03	-7.676467E-16	-3.561355E-16
3.137007E+03	-7.598902E-16	-3.524890E-16
3.138207E+03	-7.515454E-16	-3.483332E-16
3.138407E+03	-7.438028E-16	-3.446976E-16
3.139007E+03	-7.357286E-16	-3.408162E-16
3.139207E+03	-7.282649E-16	-3.373126E-16
3.139808E+03	-7.203518E-16	-3.335105E-16
3.140008E+03	-7.126274E-16	-3.298891E-16
3.140408E+03	-7.050995E-16	-3.263150E-16
3.140608E+03	-6.977012E-16	-3.228469E-16
3.141008E+03	-6.900120E-16	-3.192015E-16
3.141808E+03	-6.819902E-16	-3.153176E-16
3.142008E+03	-6.745332E-16	-3.118272E-16
3.142208E+03	-6.669569E-16	-3.082825E-16
3.142608E+03	-6.592675E-16	-3.046446E-16
3.142808E+03	-6.517724E-16	-3.011398E-16
3.143008E+03	-6.443291E-16	-2.976598E-16
3.143207E+03	-6.371092E-16	-2.942842E-16
3.144407E+03	-6.290688E-16	-2.903305E-16
3.144807E+03	-6.215086E-16	-2.867624E-16
3.145408E+03	-6.138688E-16	-2.831201E-16
3.146408E+03	-6.060741E-16	-2.793323E-16
3.146608E+03	-5.989103E-16	-2.759925E-16
3.146808E+03	-5.916279E-16	-2.725989E-16
3.147208E+03	-5.843183E-16	-2.691565E-16
3.148008E+03	-5.769336E-16	-2.656079E-16
3.148208E+03	-5.697391E-16	-2.622593E-16
3.148408E+03	-5.625962E-16	-2.589355E-16
3.149408E+03	-5.552357E-16	-2.553707E-16
3.149808E+03	-5.482270E-16	-2.520772E-16
3.150408E+03	-5.409345E-16	-2.486205E-16
3.150608E+03	-5.339833E-16	-2.453915E-16
3.151409E+03	-5.266851E-16	-2.419029E-16
3.151609E+03	-5.196473E-16	-2.386372E-16
3.151809E+03	-5.126609E-16	-2.353961E-16
3.152009E+03	-5.058228E-16	-2.322239E-16
3.152209E+03	-4.989388E-16	-2.290316E-16
3.153009E+03	-4.918748E-16	-2.256631E-16
3.153209E+03	-4.850495E-16	-2.225007E-16
3.153409E+03	-4.782032E-16	-2.193296E-16
3.153609E+03	-4.715527E-16	-2.162491E-16
3.154209E+03	-4.647699E-16	-2.130493E-16
3.154409E+03	-4.580314E-16	-2.099310E-16
3.155009E+03	-4.510937E-16	-2.066645E-16
3.155209E+03	-4.445087E-16	-2.036192E-16
3.155608E+03	-4.378527E-16	-2.005142E-16
3.155809E+03	-4.312983E-16	-1.974848E-16
3.156008E+03	-4.247478E-16	-1.944583E-16
3.156209E+03	-4.182714E-16	-1.914663E-16
3.157009E+03	-4.114711E-16	-1.882478E-16
3.157609E+03	-4.048936E-16	-1.851606E-16
3.158009E+03	-3.985109E-16	-1.821905E-16
3.158209E+03	-3.921268E-16	-1.792466E-16
3.158409E+03	-3.858895E-16	-1.763707E-16
3.158809E+03	-3.796166E-16	-1.734548E-16
3.159009E+03	-3.733862E-16	-1.705840E-16
3.159409E+03	-3.670986E-16	-1.676642E-16
3.159609E+03	-3.608990E-16	-1.648095E-16
3.159809E+03	-3.547021E-16	-1.619568E-16
3.160209E+03	-3.485481E-16	-1.591020E-16
3.160609E+03	-3.424949E-16	-1.562947E-16
3.161409E+03	-3.361730E-16	-1.533232E-16
3.161809E+03	-3.300612E-16	-1.504931E-16
3.162210E+03	-3.239546E-16	-1.476670E-16
3.162410E+03	-3.181901E-16	-1.450188E-16
3.163010E+03	-3.122836E-16	-1.422664E-16
3.163210E+03	-3.063835E-16	-1.395587E-16
3.163410E+03	-3.006533E-16	-1.369292E-16
3.163810E+03	-2.948331E-16	-1.342404E-16
3.164010E+03	-2.891333E-16	-1.316265E-16
3.164210E+03	-2.834836E-16	-1.290362E-16
3.164410E+03	-2.779320E-16	-1.264913E-16
3.164810E+03	-2.722000E-16	-1.238474E-16
3.165010E+03	-2.667976E-16	-1.213721E-16
3.165210E+03	-2.613263E-16	-1.188662E-16
3.165410E+03	-2.558098E-16	-1.163405E-16
3.165610E+03	-2.504624E-16	-1.138923E-16
3.165810E+03	-2.449985E-16	-1.113919E-16
3.166010E+03	-2.395371E-16	-1.088933E-16
3.166410E+03	-2.341162E-16	-1.063986E-16
3.166610E+03	-2.289368E-16	-1.040300E-16
3.167010E+03	-2.237169E-16	-1.016291E-16
3.167209E+03	-2.185153E-16	-9.925202E-17
3.167610E+03	-2.132939E-16	-9.685269E-17
3.168410E+03	-2.079052E-16	-9.435193E-17
3.168610E+03	-2.027938E-16	-9.201912E-17
3.168810E+03	-1.978175E-16	-8.974825E-17
3.169010E+03	-1.927344E-16	-8.742960E-17
3.169410E+03	-1.876494E-16	-8.509856E-17
3.169610E+03	-1.826742E-16	-8.283045E-17
3.170410E+03	-1.775693E-16	-8.046964E-17
3.170610E+03	-1.726449E-16	-7.822683E-17
3.170810E+03	-1.677676E-16	-7.600598E-17
3.171010E+03	-1.629376E-16	-7.380720E-17
3.171410E+03	-1.581193E-16	-7.160406E-17
3.171610E+03	-1.533872E-16	-6.945116E-17
3.171810E+03	-1.487045E-16	-6.732127E-17
3.172210E+03	-1.440344E-16	-6.518832E-17
3.172810E+03	-1.393847E-16	-6.305670E-17
3.173010E+03	-1.348560E-16	-6.099919E-17
3.173811E+03	-1.302819E-16	-5.889623E-17
3.174611E+03	-1.257614E-16	-5.681989E-17
3.174811E+03	-1.213751E-16	-5.483022E-17
3.175011E+03	-1.169744E-16	-5.283464E-17
3.175411E+03	-1.126755E-16	-5.087824E-17
3.175811E+03	-1.083738E-16	-4.892166E-17
3.176011E+03	-1.041367E-16	-4.700218E-17
3.176611E+03	-9.993517E-17	-4.508627E-17
3.177011E+03	-9.575360E-17	-4.318723E-17
3.177211E+03	-9.182165E-17	-4.140783E-17
3.177811E+03	-8.785779E-17	-3.960308E-17
3.178411E+03	-8.389029E-17	-3.779824E-17
3.178611E+03	-7.996547E-17	-3.602461E-17
3.179212E+03	-7.604952E-17	-3.424553E-17
3.179412E+03	-7.219837E-17	-3.250661E-17
3.180012E+03	-6.842531E-17	-3.079441E-17
3.180211E+03	-6.476474E-17	-2.914277E-17
3.180811E+03	-6.113402E-17	-2.749702E-17
3.181211E+03	-5.743875E-17	-2.582743E-17
3.181411E+03	-5.384696E-17	-2.420885E-17
3.181611E+03	-5.042747E-17	-2.266819E-17
3.181811E+03	-4.698866E-17	-2.111929E-17
3.182011E+03	-4.356089E-17	-1.957581E-17
3.182811E+03	-4.010937E-17	-1.801422E-17
3.183011E+03	-3.665490E-17	-1.646032E-17
3.183211E+03	-3.336304E-17	-1.497988E-17
3.183611E+03	-3.001630E-17	-1.347327E-17
3.183811E+03	-2.689165E-17	-1.206895E-17
3.184411E+03	-2.365877E-17	-1.061338E-17
3.184611E+03	-2.046249E-17	-9.178178E-18
3.184811E+03	-1.729969E-17	-7.758408E-18
3.185012E+03	-1.420800E-17	-6.370938E-18
3.185212E+03	-1.118464E-17	-5.014514E-18
3.185412E+03	-8.294639E-18	-3.718268E-18
3.185812E+03	-5.444694E-18	-2.439997E-18
3.186012E+03	-2.637557E-18	-1.181827E-18
3.186412E+03	1.277264E-19	5.721437E-20
3.186612E+03	2.851442E-18	1.277101E-18
3.186812E+03	5.533169E-18	2.477827E-18
3.187412E+03	8.168763E-18	3.656468E-18
3.187612E+03	1.077104E-17	4.820581E-18
3.188412E+03	1.332098E-17	5.958296E-18
3.189212E+03	1.582467E-17	7.073993E-18
3.189412E+03	1.829638E-17	8.177698E-18
3.189812E+03	2.072054E-17	9.258464E-18
3.190012E+03	2.310702E-17	1.032328E-17
3.190412E+03	2.544431E-17	1.136413E-17
3.190613E+03	2.774498E-17	1.238983E-17
3.190813E+03	3.000522E-17	1.339719E-17
3.191013E+03	3.222044E-17	1.438414E-17
3.191412E+03	3.438640E-17	1.534656E-17
3.191613E+03	3.648797E-17	1.628207E-17
3.191812E+03	3.858622E-17	1.721583E-17
3.193012E+03	4.063735E-17	1.811486E-17
3.193612E+03	4.274272E-17	1.904489E-17
3.194812E+03	4.466481E-17	1.988358E-17
3.195012E+03	4.663254E-17	2.075647E-17
3.195212E+03	4.840181E-17	2.154078E-17
3.196012E+03	5.013274E-17	2.229783E-17
3.196213E+03	5.197429E-17	2.311345E-17
3.196413E+03	5.364987E-17	2.385503E-17
3.196613E+03	5.533141E-17	2.459905E-17
3.196813E+03	5.700747E-17	2.534041E-17
3.197013E+03	5.870555E-17	2.609133E-17
3.197213E+03	6.041413E-17	2.684669E-17
3.197413E+03	6.205314E-17	2.757091E-17
3.198013E+03	6.345154E-17	2.817960E-17
3.198213E+03	6.501248E-17	2.886852E-17
3.198613E+03	6.643139E-17	2.948976E-17
3.198813E+03	6.785542E-17	3.011740E-17
3.199013E+03	6.918042E-17	3.070090E-17
3.199413E+03	7.050187E-17	3.127796E-17
3.199613E+03	7.177712E-17	3.183895E-17
3.199813E+03	7.298551E-17	3.237012E-17
3.200013E+03	7.424340E-17	3.292308E-17
3.200413E+03	7.540285E-17	3.342720E-17
3.201013E+03	7.642642E-17	3.386571E-17
3.201213E+03	7.736925E-17	3.427835E-17
3.201613E+03	7.834048E-17	3.469822E-17
3.202014E+03	7.929911E-17	3.511223E-17
3.202414E+03	8.024530E-17	3.552049E-17
3.203014E+03	8.109121E-17	3.587873E-17
3.203214E+03	8.187779E-17	3.622129E-17
3.203414E+03	8.268211E-17	3.657160E-17
3.203613E+03	8.335440E-17	3.686343E-17
3.203814E+03	8.412596E-17	3.719901E-17
3.204213E+03	8.485141E-17	3.750850E-17
3.205013E+03	8.547484E-17	3.776128E-17
3.205813E+03	8.596290E-17	3.795393E-17
3.206013E+03	8.639189E-17	3.813757E-17
3.206213E+03	8.686806E-17	3.834197E-17
3.206813E+03	8.736149E-17	3.854224E-17
3.207013E+03	8.766956E-17	3.867229E-17
3.207614E+03	8.801234E-17	3.880581E-17
3.208414E+03	8.821713E-17	3.887249E-17
3.208814E+03	8.847030E-17	3.897221E-17
3.209214E+03	8.877026E-17	3.909245E-17
3.210214E+03	8.885825E-17	3.910144E-17
3.210414E+03	8.906503E-17	3.918646E-17
3.211814E+03	8.911285E-17	3.916566E-17
3.212014E+03	8.912596E-17	3.916544E-17
3.212214E+03	8.921756E-17	3.919970E-17
3.212814E+03	8.922288E-17	3.918407E-17
3.213014E+03	8.926496E-17	3.919655E-17
3.214615E+03	8.908521E-17	3.906968E-17
3.214815E+03	8.898621E-17	3.902028E-17
3.215215E+03	8.878593E-17	3.892051E-17
3.215415E+03	8.842122E-17	3.875469E-17
3.216615E+03	8.816728E-17	3.860776E-17
3.216814E+03	8.794162E-17	3.850306E-17
3.217014E+03	8.765796E-17	3.837296E-17
3.217214E+03	8.726977E-17	3.819714E-17
3.218014E+03	8.677786E-17	3.795843E-17
3.218614E+03	8.628283E-17	3.772444E-17
3.218814E+03	8.581124E-17	3.751246E-17
3.219015E+03	8.531536E-17	3.728990E-17
3.220015E+03	8.469483E-17	3.699007E-17
3.221215E+03	8.402477E-17	3.666337E-17
3.222815E+03	8.328048E-17	3.629353E-17
3.223015E+03	8.267742E-17	3.602513E-17
3.223415E+03	8.202397E-17	3.572929E-17
3.224015E+03	8.131864E-17	3.540552E-17
3.224215E+03	8.063313E-17	3.510159E-17
3.227016E+03	7.967325E-17	3.460804E-17
3.227816E+03	7.891346E-17	3.425655E-17
3.229015E+03	7.804290E-17	3.384683E-17
3.229215E+03	7.713966E-17	3.344985E-17
3.229415E+03	7.640542E-17	3.312627E-17
3.230416E+03	7.549046E-17	3.270385E-17
3.231416E+03	7.448645E-17	3.224354E-17
3.232016E+03	7.353576E-17	3.181695E-17
3.234616E+03	7.230880E-17	3.122194E-17
3.235216E+03	7.127920E-17	3.076276E-17
3.235616E+03	7.027737E-17	3.032078E-17
3.235816E+03	6.927205E-17	2.988230E-17
3.236017E+03	6.824341E-17	2.943389E-17
3.236617E+03	6.714574E-17	2.894667E-17
3.236817E+03	6.606498E-17	2.847623E-17
3.238017E+03	6.485989E-17	2.793014E-17
3.239617E+03	6.359332E-17	2.734987E-17
3.240017E+03	6.242338E-17	2.683815E-17
3.240216E+03	6.125484E-17	2.633157E-17
3.240416E+03	6.006538E-17	2.581613E-17
3.240617E+03	5.885076E-17	2.529003E-17
3.242417E+03	5.746569E-17	2.465930E-17
3.242617E+03	5.617848E-17	2.410308E-17
3.243217E+03	5.478431E-17	2.349362E-17
3.243417E+03	5.335175E-17	2.287562E-17
3.243817E+03	5.194414E-17	2.226492E-17
3.245017E+03	5.043104E-17	2.159554E-17
3.245217E+03	4.899524E-17	2.097733E-17
3.245417E+03	4.756465E-17	2.036154E-17
3.245617E+03	4.607946E-17	1.972258E-17
3.245817E+03	4.458883E-17	1.908150E-17
3.246417E+03	4.315442E-17	1.845873E-17
3.247618E+03	4.165039E-17	1.779815E-17
3.247818E+03	4.009778E-17	1.713192E-17
3.248618E+03	3.847472E-17	1.642784E-17
3.249618E+03	3.691990E-17	1.575121E-17
3.249818E+03	3.529323E-17	1.505479E-17
3.250218E+03	3.369468E-17	1.436824E-17
3.251018E+03	3.208987E-17	1.367504E-17
3.251218E+03	3.051280E-17	1.300086E-17
3.251418E+03	2.886489E-17	1.229672E-17
3.252218E+03	2.718908E-17	1.157528E-17
3.252418E+03	2.552593E-17	1.086546E-17
3.253218E+03	2.380861E-17	1.012786E-17
3.253418E+03	2.204818E-17	9.377467E-18
3.253618E+03	2.035184E-17	8.654577E-18
3.253818E+03	1.867559E-17	7.940459E-18
3.254018E+03	1.682176E-17	7.151086E-18
3.255018E+03	1.505914E-17	6.396556E-18
3.255418E+03	1.337583E-17	5.679691E-18
3.255618E+03	1.165563E-17	4.948447E-18
3.256418E+03	9.837526E-18	4.173829E-18
3.256618E+03	7.917923E-18	3.358838E-18
3.257218E+03	6.066522E-18	2.572195E-18
3.257818E+03	4.107182E-18	1.740582E-18
3.258619E+03	2.167336E-18	9.178912E-19
3.259019E+03	2.949249E-19	1.248630E-19
3.260019E+03	-1.439290E-18	-6.088539E-19
3.260819E+03	-3.162845E-18	-1.337078E-18
3.261219E+03	-4.934684E-18	-2.085426E-18
3.261819E+03	-6.728389E-18	-2.842049E-18
3.262219E+03	-8.510101E-18	-3.593450E-18
3.262419E+03	-1.038501E-17	-4.384420E-18
3.263019E+03	-1.218719E-17	-5.142725E-18
3.263219E+03	-1.396874E-17	-5.893526E-18
3.264220E+03	-1.589231E-17	-6.699536E-18
3.265219E+03	-1.763825E-17	-7.429395E-18
3.265419E+03	-1.946144E-17	-8.195978E-18
3.266219E+03	-2.129762E-17	-8.963306E-18
3.266419E+03	-2.323314E-17	-9.776266E-18
3.267219E+03	-2.502573E-17	-1.052356E-17
3.267419E+03	-2.684752E-17	-1.128776E-17
3.267819E+03	-2.865593E-17	-1.204407E-17
3.268019E+03	-3.054642E-17	-1.283650E-17
3.268619E+03	-3.241893E-17	-1.361657E-17
3.268819E+03	-3.420280E-17	-1.436343E-17
3.269419E+03	-3.589648E-17	-1.506714E-17
3.269619E+03	-3.768679E-17	-1.581595E-17
3.270420E+03	-3.938885E-17	-1.651919E-17
3.271020E+03	-4.125374E-17	-1.729260E-17
3.271420E+03	-4.293182E-17	-1.798999E-17
3.271620E+03	-4.464982E-17	-1.870676E-17
3.272420E+03	-4.640874E-17	-1.943064E-17
3.272620E+03	-4.825482E-17	-2.020017E-17
3.273220E+03	-4.990697E-17	-2.088125E-17
3.274820E+03	-5.146853E-17	-2.150563E-17
3.275420E+03	-5.320741E-17	-2.222096E-17
3.276220E+03	-5.480479E-17	-2.287262E-17
3.276620E+03	-5.648888E-17	-2.356751E-17
3.276820E+03	-5.829471E-17	-2.431680E-17
3.277420E+03	-5.996654E-17	-2.500149E-17
3.278420E+03	-6.164978E-17	-2.568151E-17
3.279020E+03	-6.334474E-17	-2.637416E-17
3.279620E+03	-6.502150E-17	-2.705850E-17
3.280020E+03	-6.662851E-17	-2.771784E-17
3.280220E+03	-6.820590E-17	-2.836922E-17
3.281020E+03	-6.980114E-17	-2.901298E-17
3.282421E+03	-7.114120E-17	-2.953470E-17
3.282621E+03	-7.257756E-17	-3.012588E-17
3.282821E+03	-7.398275E-17	-3.070391E-17
3.283021E+03	-7.537888E-17	-3.127798E-17
3.283421E+03	-7.684110E-17	-3.187383E-17
3.284021E+03	-7.815401E-17	-3.240181E-17
3.284221E+03	-7.954325E-17	-3.297213E-17
3.284421E+03	-8.093340E-17	-3.354263E-17
3.284621E+03	-8.222875E-17	-3.407365E-17
3.285021E+03	-8.348576E-17	-3.458268E-17
3.285821E+03	-8.473444E-17	-3.507586E-17
3.286021E+03	-8.600685E-17	-3.559647E-17
3.286221E+03	-8.722847E-17	-3.609588E-17
3.287422E+03	-8.835293E-17	-3.652349E-17
3.287622E+03	-8.961180E-17	-3.703751E-17
3.288421E+03	-9.056421E-17	-3.740543E-17
3.289222E+03	-9.170026E-17	-3.784850E-17
3.290021E+03	-9.269074E-17	-3.823095E-17
3.290421E+03	-9.379661E-17	-3.867371E-17
3.290821E+03	-9.477262E-17	-3.906263E-17
3.291221E+03	-9.563073E-17	-3.940269E-17
3.291421E+03	-9.655421E-17	-3.977630E-17
3.291621E+03	-9.746504E-17	-4.014458E-17
3.292622E+03	-9.810877E-17	-4.037469E-17
3.292822E+03	-9.889104E-17	-4.068957E-17
3.293022E+03	-9.964523E-17	-4.099277E-17
3.293222E+03	-1.004439E-16	-4.131415E-17
3.293422E+03	-1.013183E-16	-4.166658E-17
3.294022E+03	-1.020514E-16	-4.194620E-17
3.295022E+03	-1.025127E-16	-4.209917E-17
3.295222E+03	-1.030936E-16	-4.233039E-17
3.295622E+03	-1.036295E-16	-4.253560E-17
3.296622E+03	-1.040022E-16	-4.265136E-17
3.297022E+03	-1.043328E-16	-4.277202E-17
3.297222E+03	-1.048325E-16	-4.296936E-17
3.297422E+03	-1.052500E-16	-4.313297E-17
3.298022E+03	-1.056339E-16	-4.326757E-17
3.298223E+03	-1.059219E-16	-4.337792E-17
3.298623E+03	-1.061384E-16	-4.345135E-17
3.299423E+03	-1.062193E-16	-4.345401E-17
3.299623E+03	-1.063337E-16	-4.349320E-17
3.299823E+03	-1.065235E-16	-4.356319E-17
3.300222E+03	-1.064693E-16	-4.352580E-17
3.300823E+03	-1.063064E-16	-4.343626E-17
3.301023E+03	-1.062753E-16	-4.341591E-17
3.301222E+03	-1.061440E-16	-4.335469E-17
3.301622E+03	-1.058116E-16	-4.320375E-17
3.301822E+03	-1.055743E-16	-4.309926E-17
3.302222E+03	-1.051443E-16	-4.290859E-17
3.302422E+03	-1.048842E-16	-4.279492E-17
3.302622E+03	-1.044895E-16	-4.262638E-17
3.302822E+03	-1.039431E-16	-4.239601E-17
3.303222E+03	-1.034263E-16	-4.217034E-17
3.303422E+03	-1.028732E-16	-4.193741E-17
3.303622E+03	-1.021802E-16	-4.164756E-17
3.303823E+03	-1.013839E-16	-4.131564E-17
3.304623E+03	-1.005075E-16	-4.092959E-17
3.304823E+03	-9.956399E-17	-4.053819E-17
3.305223E+03	-9.858462E-17	-4.012523E-17
3.305423E+03	-9.752227E-17	-3.968582E-17
3.305623E+03	-9.640714E-17	-3.922508E-17
3.306023E+03	-9.525573E-17	-3.874288E-17
3.306223E+03	-9.397840E-17	-3.821659E-17
3.307023E+03	-9.547784E-17	-3.879881E-17
3.307623E+03	-9.305045E-17	-3.779226E-17
3.308023E+03	-8.924421E-17	-3.623349E-17
3.308423E+03	-8.846645E-17	-3.590494E-17
3.309223E+03	-8.833111E-17	-3.582451E-17
3.309424E+03	-8.863773E-17	-3.594243E-17
3.309624E+03	-8.933892E-17	-3.622031E-17
3.310024E+03	-9.027680E-17	-3.658750E-17
