#wls	flux	fluxerr
1.600000E+03	2.939075E-16	8.138358E-17
1.640000E+03	3.024868E-16	8.375814E-17
1.680000E+03	3.105065E-16	8.597764E-17
1.720000E+03	3.179040E-16	8.802468E-17
1.760000E+03	3.244857E-16	8.984572E-17
1.800000E+03	3.302379E-16	9.143689E-17
1.840000E+03	3.349598E-16	9.274268E-17
1.880000E+03	3.386007E-16	9.374899E-17
1.920000E+03	3.410499E-16	9.442523E-17
1.960000E+03	3.421482E-16	9.472728E-17
2.000000E+03	3.418563E-16	9.464435E-17
2.040000E+03	3.400661E-16	9.414647E-17
2.080000E+03	3.366919E-16	9.320999E-17
2.120000E+03	3.316760E-16	9.181894E-17
2.160000E+03	3.249510E-16	8.995469E-17
2.200000E+03	3.164195E-16	8.759036E-17
2.240000E+03	3.060025E-16	8.470411E-17
2.280000E+03	2.937614E-16	8.131300E-17
2.320000E+03	2.799475E-16	7.748663E-17
2.360000E+03	2.649813E-16	7.334147E-17
2.400000E+03	2.491995E-16	6.897073E-17
2.440000E+03	2.329060E-16	6.445860E-17
2.480000E+03	2.163232E-16	5.986668E-17
2.520000E+03	1.996813E-16	5.525865E-17
2.560000E+03	1.831667E-16	5.068614E-17
2.600000E+03	1.669686E-16	4.620155E-17
2.640000E+03	1.512385E-16	4.184678E-17
2.680000E+03	1.361154E-16	3.766030E-17
2.720000E+03	1.217216E-16	3.367598E-17
2.760000E+03	1.081495E-16	2.991934E-17
2.800000E+03	9.547594E-17	2.641163E-17
2.840000E+03	8.375634E-17	2.316816E-17
2.880000E+03	7.303031E-17	2.019986E-17
2.920000E+03	6.332032E-17	1.751292E-17
2.960000E+03	5.462689E-17	1.510744E-17
3.000000E+03	4.693034E-17	1.297794E-17
3.010000E+03	4.515747E-17	1.248743E-17
3.020000E+03	4.344269E-17	1.201301E-17
3.030000E+03	4.178676E-17	1.155488E-17
3.040000E+03	4.018650E-17	1.111216E-17
3.050000E+03	3.864249E-17	1.068500E-17
3.060000E+03	3.715333E-17	1.027303E-17
3.070000E+03	3.571840E-17	9.876066E-18
3.080000E+03	3.433482E-17	9.493313E-18
3.090000E+03	3.300337E-17	9.124988E-18
3.100000E+03	3.172124E-17	8.770313E-18
3.110000E+03	3.048834E-17	8.429261E-18
3.120000E+03	2.930322E-17	8.101433E-18
3.130000E+03	2.816386E-17	7.786266E-18
3.140000E+03	2.706998E-17	7.483687E-18
3.150000E+03	2.601964E-17	7.193154E-18
3.160000E+03	2.501194E-17	6.914420E-18
3.170000E+03	2.404549E-17	6.647102E-18
3.180000E+03	2.311894E-17	6.390821E-18
3.190000E+03	2.223137E-17	6.145329E-18
3.200000E+03	2.138141E-17	5.910241E-18
3.210000E+03	2.056742E-17	5.685105E-18
3.220000E+03	1.978884E-17	5.469765E-18
3.230000E+03	1.904406E-17	5.263778E-18
3.240000E+03	1.833217E-17	5.066890E-18
3.250000E+03	1.765196E-17	4.878767E-18
3.260000E+03	1.700198E-17	4.699006E-18
3.270000E+03	1.638163E-17	4.527440E-18
3.280000E+03	1.578925E-17	4.363614E-18
3.290000E+03	1.522427E-17	4.207365E-18
3.300000E+03	1.468559E-17	4.058393E-18
3.310000E+03	1.417173E-17	3.916286E-18
3.320000E+03	1.368213E-17	3.780889E-18
3.330000E+03	1.321579E-17	3.651927E-18
3.340000E+03	1.277157E-17	3.529082E-18
3.350000E+03	1.234856E-17	3.412103E-18
3.360000E+03	1.194588E-17	3.300747E-18
3.370000E+03	1.156268E-17	3.194779E-18
3.380000E+03	1.119814E-17	3.093972E-18
3.390000E+03	1.085147E-17	2.998106E-18
3.400000E+03	1.052176E-17	2.906931E-18
3.410000E+03	1.020817E-17	2.820212E-18
3.420000E+03	9.910268E-18	2.737832E-18
3.430000E+03	9.627009E-18	2.659502E-18
3.440000E+03	9.357900E-18	2.585084E-18
3.450000E+03	9.102225E-18	2.514381E-18
3.460000E+03	8.859418E-18	2.447236E-18
3.470000E+03	8.628731E-18	2.383442E-18
3.480000E+03	8.409569E-18	2.322835E-18
3.490000E+03	8.201462E-18	2.265284E-18
3.500000E+03	8.003778E-18	2.210615E-18
3.510000E+03	7.816107E-18	2.158713E-18
3.520000E+03	7.637715E-18	2.109378E-18
3.530000E+03	7.468257E-18	2.062512E-18
3.540000E+03	7.307164E-18	2.017958E-18
3.550000E+03	7.153987E-18	1.975593E-18
3.560000E+03	7.008307E-18	1.935300E-18
3.570000E+03	6.869591E-18	1.896932E-18
3.580000E+03	6.737618E-18	1.860429E-18
3.590000E+03	6.611977E-18	1.825675E-18
3.600000E+03	6.492287E-18	1.792566E-18
3.610000E+03	6.378375E-18	1.761054E-18
3.620000E+03	6.269833E-18	1.731027E-18
3.630000E+03	6.166396E-18	1.702410E-18
3.640000E+03	6.067817E-18	1.675136E-18
3.650000E+03	5.973859E-18	1.649139E-18
3.660000E+03	5.884298E-18	1.624357E-18
3.670000E+03	5.798921E-18	1.600731E-18
3.680000E+03	5.717573E-18	1.578219E-18
3.690000E+03	5.640111E-18	1.556780E-18
3.700000E+03	5.566336E-18	1.536360E-18
3.710000E+03	5.496258E-18	1.516962E-18
3.720000E+03	5.429641E-18	1.498519E-18
3.730000E+03	5.366445E-18	1.481022E-18
3.740000E+03	5.306533E-18	1.464431E-18
3.750000E+03	5.249821E-18	1.448725E-18
3.760000E+03	5.196309E-18	1.433902E-18
3.770000E+03	5.145777E-18	1.419903E-18
3.780000E+03	5.098231E-18	1.406727E-18
3.790000E+03	5.053624E-18	1.394363E-18
3.800000E+03	5.011787E-18	1.382764E-18
3.810000E+03	4.972720E-18	1.371930E-18
3.820000E+03	4.936381E-18	1.361849E-18
3.830000E+03	4.902646E-18	1.352486E-18
3.840000E+03	4.871433E-18	1.343819E-18
3.850000E+03	4.842784E-18	1.335860E-18
3.860000E+03	4.816535E-18	1.328563E-18
3.870000E+03	4.792690E-18	1.321929E-18
3.880000E+03	4.771170E-18	1.315937E-18
3.890000E+03	4.751940E-18	1.310576E-18
3.900000E+03	4.734959E-18	1.305835E-18
3.910000E+03	4.720118E-18	1.301685E-18
3.920000E+03	4.707383E-18	1.298115E-18
3.930000E+03	4.696758E-18	1.295126E-18
3.940000E+03	4.688172E-18	1.292700E-18
3.950000E+03	4.681560E-18	1.290818E-18
3.960000E+03	4.676890E-18	1.289471E-18
3.970000E+03	4.674099E-18	1.288641E-18
3.980000E+03	4.673157E-18	1.288321E-18
3.990000E+03	4.674042E-18	1.288503E-18
4.000000E+03	4.676724E-18	1.289181E-18
4.010000E+03	4.681112E-18	1.290329E-18
4.020000E+03	4.687180E-18	1.291939E-18
4.030000E+03	4.694911E-18	1.294006E-18
4.040000E+03	4.704284E-18	1.296525E-18
4.050000E+03	4.715242E-18	1.299480E-18
4.060000E+03	4.727734E-18	1.302858E-18
4.070000E+03	4.741743E-18	1.306652E-18
4.080000E+03	4.757218E-18	1.310849E-18
4.090000E+03	4.774146E-18	1.315446E-18
4.100000E+03	4.792476E-18	1.320428E-18
4.110000E+03	4.812198E-18	1.325792E-18
4.120000E+03	4.833262E-18	1.331525E-18
4.130000E+03	4.855623E-18	1.337614E-18
4.140000E+03	4.879271E-18	1.344056E-18
4.150000E+03	4.904161E-18	1.350839E-18
4.160000E+03	4.930287E-18	1.357962E-18
4.170000E+03	4.957564E-18	1.365399E-18
4.180000E+03	4.985989E-18	1.373152E-18
4.190000E+03	5.015477E-18	1.381196E-18
4.200000E+03	5.046066E-18	1.389541E-18
4.210000E+03	5.077670E-18	1.398164E-18
4.220000E+03	5.110290E-18	1.407065E-18
4.230000E+03	5.143802E-18	1.416211E-18
4.240000E+03	5.178242E-18	1.425610E-18
4.250000E+03	5.213488E-18	1.435229E-18
4.260000E+03	5.249578E-18	1.445079E-18
4.270000E+03	5.286390E-18	1.455125E-18
4.280000E+03	5.323832E-18	1.465343E-18
4.290000E+03	5.361948E-18	1.475744E-18
4.300000E+03	5.400566E-18	1.486282E-18
4.310000E+03	5.439723E-18	1.496966E-18
4.320000E+03	5.479244E-18	1.507748E-18
4.330000E+03	5.519169E-18	1.518639E-18
4.340000E+03	5.559405E-18	1.529614E-18
4.350000E+03	5.599860E-18	1.540646E-18
4.360000E+03	5.640524E-18	1.551734E-18
4.370000E+03	5.681352E-18	1.562865E-18
4.380000E+03	5.722380E-18	1.574048E-18
4.390000E+03	5.763518E-18	1.585260E-18
4.400000E+03	5.804849E-18	1.596522E-18
4.410000E+03	5.846378E-18	1.607836E-18
4.420000E+03	5.888103E-18	1.619202E-18
4.430000E+03	5.930029E-18	1.630621E-18
4.440000E+03	5.972210E-18	1.642107E-18
4.450000E+03	6.014603E-18	1.653649E-18
4.460000E+03	6.057264E-18	1.665263E-18
4.470000E+03	6.100203E-18	1.676950E-18
4.480000E+03	6.143433E-18	1.688715E-18
4.490000E+03	6.186918E-18	1.700547E-18
4.500000E+03	6.230666E-18	1.712448E-18
4.510000E+03	6.274643E-18	1.724411E-18
4.520000E+03	6.318918E-18	1.736451E-18
4.530000E+03	6.363401E-18	1.748547E-18
4.540000E+03	6.408110E-18	1.760702E-18
4.550000E+03	6.453064E-18	1.772921E-18
4.560000E+03	6.498174E-18	1.785181E-18
4.570000E+03	6.543519E-18	1.797502E-18
4.580000E+03	6.589008E-18	1.809859E-18
4.590000E+03	6.634669E-18	1.822261E-18
4.600000E+03	6.680410E-18	1.834682E-18
4.610000E+03	6.726319E-18	1.847146E-18
4.620000E+03	6.772368E-18	1.859645E-18
4.630000E+03	6.818472E-18	1.872156E-18
4.640000E+03	6.864665E-18	1.884688E-18
4.650000E+03	6.910984E-18	1.897252E-18
4.660000E+03	6.957406E-18	1.909841E-18
4.670000E+03	7.003853E-18	1.922433E-18
4.680000E+03	7.050492E-18	1.935075E-18
4.690000E+03	7.097372E-18	1.947780E-18
4.700000E+03	7.144424E-18	1.960528E-18
4.710000E+03	7.191700E-18	1.973335E-18
4.720000E+03	7.239260E-18	1.986216E-18
4.730000E+03	7.286973E-18	1.999135E-18
4.740000E+03	7.334896E-18	2.012109E-18
4.750000E+03	7.382965E-18	2.025119E-18
4.760000E+03	7.431243E-18	2.038182E-18
4.770000E+03	7.479733E-18	2.051300E-18
4.780000E+03	7.528371E-18	2.064455E-18
4.790000E+03	7.577225E-18	2.077665E-18
4.800000E+03	7.626235E-18	2.090915E-18
4.810000E+03	7.675472E-18	2.104222E-18
4.820000E+03	7.724872E-18	2.117571E-18
4.830000E+03	7.774445E-18	2.130963E-18
4.840000E+03	7.824194E-18	2.144399E-18
4.850000E+03	7.874201E-18	2.157902E-18
4.860000E+03	7.924399E-18	2.171453E-18
4.870000E+03	7.974797E-18	2.185054E-18
4.880000E+03	8.025325E-18	2.198687E-18
4.890000E+03	8.076142E-18	2.212395E-18
4.900000E+03	8.127176E-18	2.226158E-18
4.910000E+03	8.178433E-18	2.239978E-18
4.920000E+03	8.229840E-18	2.253835E-18
4.930000E+03	8.281477E-18	2.267750E-18
4.940000E+03	8.333270E-18	2.281703E-18
4.950000E+03	8.385216E-18	2.295694E-18
4.960000E+03	8.437395E-18	2.309744E-18
4.970000E+03	8.489725E-18	2.323830E-18
4.980000E+03	8.542201E-18	2.337952E-18
4.990000E+03	8.594738E-18	2.352085E-18
5.000000E+03	8.647409E-18	2.366251E-18
5.010000E+03	8.700208E-18	2.380447E-18
5.020000E+03	8.753040E-18	2.394646E-18
5.030000E+03	8.805894E-18	2.408847E-18
5.040000E+03	8.858759E-18	2.423046E-18
5.050000E+03	8.911531E-18	2.437214E-18
5.060000E+03	8.964283E-18	2.451372E-18
5.070000E+03	9.016997E-18	2.465514E-18
5.080000E+03	9.069479E-18	2.479588E-18
5.090000E+03	9.121798E-18	2.493612E-18
5.100000E+03	9.173932E-18	2.507580E-18
5.110000E+03	9.225768E-18	2.521461E-18
5.120000E+03	9.277282E-18	2.535249E-18
5.130000E+03	9.328448E-18	2.548937E-18
5.140000E+03	9.379237E-18	2.562516E-18
5.150000E+03	9.429526E-18	2.575953E-18
5.160000E+03	9.479378E-18	2.589266E-18
5.170000E+03	9.528568E-18	2.602392E-18
5.180000E+03	9.577153E-18	2.615348E-18
5.190000E+03	9.624995E-18	2.628095E-18
5.200000E+03	9.672050E-18	2.640623E-18
5.210000E+03	9.718270E-18	2.652916E-18
5.220000E+03	9.763600E-18	2.664962E-18
5.230000E+03	9.807796E-18	2.676692E-18
5.240000E+03	9.850987E-18	2.688143E-18
5.250000E+03	9.893016E-18	2.699272E-18
5.260000E+03	9.933819E-18	2.710061E-18
5.270000E+03	9.973233E-18	2.720465E-18
5.280000E+03	1.001118E-17	2.730466E-18
5.290000E+03	1.004761E-17	2.740046E-18
5.300000E+03	1.008244E-17	2.749184E-18
5.310000E+03	1.011560E-17	2.757863E-18
5.320000E+03	1.014692E-17	2.766037E-18
5.330000E+03	1.017655E-17	2.773744E-18
5.340000E+03	1.020422E-17	2.780913E-18
5.350000E+03	1.022988E-17	2.787527E-18
5.360000E+03	1.025367E-17	2.793629E-18
5.370000E+03	1.027534E-17	2.799149E-18
5.380000E+03	1.029505E-17	2.804133E-18
5.390000E+03	1.031268E-17	2.808542E-18
5.400000E+03	1.032828E-17	2.812397E-18
5.410000E+03	1.034173E-17	2.815664E-18
5.420000E+03	1.035323E-17	2.818393E-18
5.430000E+03	1.036266E-17	2.820557E-18
5.440000E+03	1.037012E-17	2.822180E-18
5.450000E+03	1.037540E-17	2.823209E-18
5.460000E+03	1.037863E-17	2.823675E-18
5.470000E+03	1.037971E-17	2.823553E-18
5.480000E+03	1.037856E-17	2.822823E-18
5.490000E+03	1.037531E-17	2.821519E-18
5.500000E+03	1.036979E-17	2.819596E-18
5.510000E+03	1.036194E-17	2.817036E-18
5.520000E+03	1.035180E-17	2.813851E-18
5.530000E+03	1.033921E-17	2.809998E-18
5.540000E+03	1.032433E-17	2.805521E-18
5.550000E+03	1.030690E-17	2.800350E-18
5.560000E+03	1.028719E-17	2.794559E-18
5.570000E+03	1.026516E-17	2.788137E-18
5.580000E+03	1.024078E-17	2.781074E-18
5.590000E+03	1.021411E-17	2.773390E-18
5.600000E+03	1.018523E-17	2.765103E-18
5.610000E+03	1.015409E-17	2.756205E-18
5.620000E+03	1.012098E-17	2.746771E-18
5.630000E+03	1.008577E-17	2.736767E-18
5.640000E+03	1.004873E-17	2.726266E-18
5.650000E+03	1.000973E-17	2.715234E-18
5.660000E+03	9.969042E-18	2.703747E-18
5.670000E+03	9.926747E-18	2.691823E-18
5.680000E+03	9.882809E-18	2.679455E-18
5.690000E+03	9.837404E-18	2.666691E-18
5.700000E+03	9.790603E-18	2.653549E-18
5.710000E+03	9.742577E-18	2.640077E-18
5.720000E+03	9.693400E-18	2.626295E-18
5.730000E+03	9.643043E-18	2.612195E-18
5.740000E+03	9.591777E-18	2.597851E-18
5.750000E+03	9.539678E-18	2.583283E-18
5.760000E+03	9.486716E-18	2.568484E-18
5.770000E+03	9.433069E-18	2.553501E-18
5.780000E+03	9.378908E-18	2.538382E-18
5.790000E+03	9.324313E-18	2.523147E-18
5.800000E+03	9.269258E-18	2.507791E-18
5.810000E+03	9.213923E-18	2.492362E-18
5.820000E+03	9.158484E-18	2.476907E-18
5.830000E+03	9.103021E-18	2.461448E-18
5.840000E+03	9.047517E-18	2.445981E-18
5.850000E+03	8.992148E-18	2.430554E-18
5.860000E+03	8.936999E-18	2.415189E-18
5.870000E+03	8.882246E-18	2.399933E-18
5.880000E+03	8.827968E-18	2.384809E-18
5.890000E+03	8.774146E-18	2.369811E-18
5.900000E+03	8.720957E-18	2.354987E-18
5.910000E+03	8.668380E-18	2.340331E-18
5.920000E+03	8.616779E-18	2.325941E-18
5.930000E+03	8.565932E-18	2.311757E-18
5.940000E+03	8.516010E-18	2.297826E-18
5.950000E+03	8.467171E-18	2.284189E-18
5.960000E+03	8.419382E-18	2.270839E-18
5.970000E+03	8.372704E-18	2.257790E-18
5.980000E+03	8.327286E-18	2.245083E-18
5.990000E+03	8.283086E-18	2.232708E-18
6.000000E+03	8.240246E-18	2.220700E-18
6.010000E+03	8.198623E-18	2.209023E-18
6.020000E+03	8.158445E-18	2.197738E-18
6.030000E+03	8.119561E-18	2.186802E-18
6.040000E+03	8.082196E-18	2.176277E-18
6.050000E+03	8.046092E-18	2.166094E-18
6.060000E+03	8.011471E-18	2.156311E-18
6.070000E+03	7.978259E-18	2.146908E-18
6.080000E+03	7.946478E-18	2.137892E-18
6.090000E+03	7.915954E-18	2.129215E-18
6.100000E+03	7.886892E-18	2.120932E-18
6.110000E+03	7.859020E-18	2.112970E-18
6.120000E+03	7.832535E-18	2.105381E-18
6.130000E+03	7.807156E-18	2.098090E-18
6.140000E+03	7.782888E-18	2.091098E-18
6.150000E+03	7.759634E-18	2.084379E-18
6.160000E+03	7.737389E-18	2.077931E-18
6.170000E+03	7.715858E-18	2.071675E-18
6.180000E+03	7.695030E-18	2.065607E-18
6.190000E+03	7.674792E-18	2.059698E-18
6.200000E+03	7.655128E-18	2.053943E-18
6.210000E+03	7.636017E-18	2.048336E-18
6.220000E+03	7.617630E-18	2.042923E-18
6.230000E+03	7.600237E-18	2.037776E-18
6.240000E+03	7.583911E-18	2.032915E-18
6.250000E+03	7.568831E-18	2.028387E-18
6.260000E+03	7.555171E-18	2.024239E-18
6.270000E+03	7.543010E-18	2.020491E-18
6.280000E+03	7.532530E-18	2.017193E-18
6.290000E+03	7.523816E-18	2.014367E-18
6.300000E+03	7.516953E-18	2.012034E-18
6.310000E+03	7.512132E-18	2.010246E-18
6.320000E+03	7.509341E-18	2.008999E-18
6.330000E+03	7.508781E-18	2.008347E-18
6.340000E+03	7.510344E-18	2.008260E-18
6.350000E+03	7.514125E-18	2.008763E-18
6.360000E+03	7.520128E-18	2.009857E-18
6.370000E+03	7.528451E-18	2.011567E-18
6.380000E+03	7.538994E-18	2.013867E-18
6.390000E+03	7.551759E-18	2.016755E-18
6.400000E+03	7.566636E-18	2.020204E-18
6.410000E+03	7.583405E-18	2.024152E-18
6.420000E+03	7.601955E-18	2.028571E-18
6.430000E+03	7.622278E-18	2.033458E-18
6.440000E+03	7.644369E-18	2.038810E-18
6.450000E+03	7.668221E-18	2.044627E-18
6.460000E+03	7.693946E-18	2.050936E-18
6.470000E+03	7.721661E-18	2.057770E-18
6.480000E+03	7.751367E-18	2.065127E-18
6.490000E+03	7.782950E-18	2.072977E-18
6.500000E+03	7.816652E-18	2.081385E-18
6.510000E+03	7.852484E-18	2.090351E-18
6.520000E+03	7.890332E-18	2.099846E-18
6.530000E+03	7.930329E-18	2.109905E-18
6.540000E+03	7.972488E-18	2.120530E-18
6.550000E+03	8.016698E-18	2.131691E-18
6.560000E+03	8.062967E-18	2.143390E-18
6.570000E+03	8.111567E-18	2.155699E-18
6.580000E+03	8.162129E-18	2.168519E-18
6.590000E+03	8.214924E-18	2.181921E-18
6.600000E+03	8.269972E-18	2.195911E-18
6.610000E+03	8.327022E-18	2.210421E-18
6.620000E+03	8.386362E-18	2.225527E-18
6.630000E+03	8.447734E-18	2.241161E-18
6.640000E+03	8.511435E-18	2.257399E-18
6.650000E+03	8.577202E-18	2.274172E-18
6.660000E+03	8.645194E-18	2.291522E-18
6.670000E+03	8.715433E-18	2.309454E-18
6.680000E+03	8.787794E-18	2.327934E-18
6.690000E+03	8.862291E-18	2.346965E-18
6.700000E+03	8.939095E-18	2.366592E-18
6.710000E+03	9.018075E-18	2.386779E-18
6.720000E+03	9.099253E-18	2.407532E-18
6.730000E+03	9.182647E-18	2.428856E-18
6.740000E+03	9.268278E-18	2.450754E-18
6.750000E+03	9.356169E-18	2.473232E-18
6.760000E+03	9.446340E-18	2.496296E-18
6.770000E+03	9.538646E-18	2.519906E-18
6.780000E+03	9.633276E-18	2.544111E-18
6.790000E+03	9.730253E-18	2.568917E-18
6.800000E+03	9.829428E-18	2.594283E-18
6.810000E+03	9.930998E-18	2.620262E-18
6.820000E+03	1.003481E-17	2.646811E-18
6.830000E+03	1.014087E-17	2.673935E-18
6.840000E+03	1.024922E-17	2.701638E-18
6.850000E+03	1.035986E-17	2.729925E-18
6.860000E+03	1.047302E-17	2.758852E-18
6.870000E+03	1.058832E-17	2.788322E-18
6.880000E+03	1.070599E-17	2.818390E-18
6.890000E+03	1.082603E-17	2.849062E-18
6.900000E+03	1.094828E-17	2.880288E-18
6.910000E+03	1.107295E-17	2.912126E-18
6.920000E+03	1.120005E-17	2.944580E-18
6.930000E+03	1.132941E-17	2.977600E-18
6.940000E+03	1.146102E-17	3.011187E-18
6.950000E+03	1.159513E-17	3.045403E-18
6.960000E+03	1.173153E-17	3.080192E-18
6.970000E+03	1.187023E-17	3.115558E-18
6.980000E+03	1.201124E-17	3.151503E-18
6.990000E+03	1.215457E-17	3.188028E-18
7.000000E+03	1.230000E-17	3.225072E-18
7.010000E+03	1.244800E-17	3.262762E-18
7.020000E+03	1.259811E-17	3.300973E-18
7.030000E+03	1.275056E-17	3.339769E-18
7.040000E+03	1.290512E-17	3.379085E-18
7.050000E+03	1.306178E-17	3.418918E-18
7.060000E+03	1.322079E-17	3.459334E-18
7.070000E+03	1.338190E-17	3.500265E-18
7.080000E+03	1.354481E-17	3.541637E-18
7.090000E+03	1.371007E-17	3.583587E-18
7.100000E+03	1.387739E-17	3.626043E-18
7.110000E+03	1.404648E-17	3.668925E-18
7.120000E+03	1.421761E-17	3.712303E-18
7.130000E+03	1.439045E-17	3.756095E-18
7.140000E+03	1.456528E-17	3.800370E-18
7.150000E+03	1.474179E-17	3.845046E-18
7.160000E+03	1.492024E-17	3.890191E-18
7.170000E+03	1.510000E-17	3.935639E-18
7.180000E+03	1.528132E-17	3.981457E-18
7.190000E+03	1.546449E-17	4.027720E-18
7.200000E+03	1.564884E-17	4.074249E-18
7.210000E+03	1.583430E-17	4.121032E-18
7.220000E+03	1.602115E-17	4.168134E-18
7.230000E+03	1.620936E-17	4.215551E-18
7.240000E+03	1.639849E-17	4.263170E-18
7.250000E+03	1.658886E-17	4.311071E-18
7.260000E+03	1.678007E-17	4.359147E-18
7.270000E+03	1.697201E-17	4.407375E-18
7.280000E+03	1.716500E-17	4.455834E-18
7.290000E+03	1.735859E-17	4.504408E-18
7.300000E+03	1.755309E-17	4.553177E-18
7.310000E+03	1.774805E-17	4.602023E-18
7.320000E+03	1.794337E-17	4.650922E-18
7.330000E+03	1.813978E-17	4.700064E-18
7.340000E+03	1.833642E-17	4.749222E-18
7.350000E+03	1.853400E-17	4.798581E-18
7.360000E+03	1.873209E-17	4.848030E-18
7.370000E+03	1.893100E-17	4.897651E-18
7.380000E+03	1.913115E-17	4.947549E-18
7.390000E+03	1.933207E-17	4.997604E-18
7.400000E+03	1.953458E-17	5.048027E-18
7.410000E+03	1.973868E-17	5.098817E-18
7.420000E+03	1.994482E-17	5.150092E-18
7.430000E+03	2.015303E-17	5.201857E-18
7.440000E+03	2.036332E-17	5.254116E-18
7.450000E+03	2.057621E-17	5.306999E-18
7.460000E+03	2.079076E-17	5.360267E-18
7.470000E+03	2.100701E-17	5.413926E-18
7.480000E+03	2.122445E-17	5.467848E-18
7.490000E+03	2.144359E-17	5.522161E-18
7.500000E+03	2.166394E-17	5.576740E-18
7.510000E+03	2.188499E-17	5.631454E-18
7.520000E+03	2.210673E-17	5.686299E-18
7.530000E+03	2.232911E-17	5.741262E-18
7.540000E+03	2.255162E-17	5.796213E-18
7.550000E+03	2.277473E-17	5.851271E-18
7.560000E+03	2.299734E-17	5.906155E-18
7.570000E+03	2.322048E-17	5.961130E-18
7.580000E+03	2.344359E-17	6.016051E-18
7.590000E+03	2.366659E-17	6.070897E-18
7.600000E+03	2.388885E-17	6.125507E-18
7.610000E+03	2.411086E-17	6.180009E-18
7.620000E+03	2.433255E-17	6.234383E-18
7.630000E+03	2.455382E-17	6.288607E-18
7.640000E+03	2.477399E-17	6.342502E-18
7.650000E+03	2.499352E-17	6.396190E-18
7.660000E+03	2.521167E-17	6.449480E-18
7.670000E+03	2.542956E-17	6.502662E-18
7.680000E+03	2.564511E-17	6.555201E-18
7.690000E+03	2.586010E-17	6.607555E-18
7.700000E+03	2.607370E-17	6.659513E-18
7.710000E+03	2.628506E-17	6.710858E-18
7.720000E+03	2.649467E-17	6.761712E-18
7.730000E+03	2.670229E-17	6.812020E-18
7.740000E+03	2.690773E-17	6.861732E-18
7.750000E+03	2.711075E-17	6.910788E-18
7.760000E+03	2.731185E-17	6.959318E-18
