#wls	flux	fluxerr
1.600000E+03	3.738073E-16	1.269522E-16
1.640000E+03	3.850092E-16	1.307544E-16
1.680000E+03	3.955298E-16	1.343251E-16
1.720000E+03	4.052516E-16	1.376243E-16
1.760000E+03	4.140067E-16	1.405950E-16
1.800000E+03	4.216599E-16	1.431914E-16
1.840000E+03	4.280312E-16	1.453523E-16
1.880000E+03	4.330160E-16	1.470422E-16
1.920000E+03	4.364703E-16	1.482122E-16
1.960000E+03	4.382187E-16	1.488029E-16
2.000000E+03	4.381684E-16	1.487827E-16
2.040000E+03	4.361714E-16	1.481014E-16
2.080000E+03	4.321072E-16	1.467182E-16
2.120000E+03	4.259470E-16	1.446233E-16
2.160000E+03	4.175517E-16	1.417695E-16
2.200000E+03	4.068487E-16	1.381323E-16
2.240000E+03	3.937675E-16	1.336877E-16
2.280000E+03	3.781818E-16	1.283930E-16
2.320000E+03	3.605737E-16	1.224119E-16
2.360000E+03	3.414324E-16	1.159105E-16
2.400000E+03	3.211498E-16	1.090219E-16
2.440000E+03	3.000605E-16	1.018598E-16
2.480000E+03	2.784828E-16	9.453224E-17
2.520000E+03	2.567055E-16	8.713729E-17
2.560000E+03	2.349835E-16	7.976146E-17
2.600000E+03	2.135726E-16	7.249163E-17
2.640000E+03	1.927047E-16	6.540648E-17
2.680000E+03	1.725873E-16	5.857647E-17
2.720000E+03	1.534033E-16	5.206363E-17
2.760000E+03	1.353176E-16	4.592393E-17
2.800000E+03	1.184453E-16	4.019641E-17
2.840000E+03	1.028792E-16	3.491251E-17
2.880000E+03	8.869055E-17	3.009642E-17
2.920000E+03	7.591844E-17	2.576133E-17
2.960000E+03	6.457328E-17	2.191073E-17
3.000000E+03	5.462570E-17	1.853462E-17
3.010000E+03	5.234952E-17	1.776212E-17
3.020000E+03	5.015506E-17	1.701737E-17
3.030000E+03	4.804164E-17	1.630013E-17
3.040000E+03	4.600724E-17	1.560971E-17
3.050000E+03	4.404992E-17	1.494546E-17
3.060000E+03	4.216859E-17	1.430700E-17
3.070000E+03	4.036028E-17	1.369333E-17
3.080000E+03	3.862468E-17	1.310434E-17
3.090000E+03	3.695881E-17	1.253902E-17
3.100000E+03	3.536132E-17	1.199691E-17
3.110000E+03	3.383010E-17	1.147730E-17
3.120000E+03	3.236372E-17	1.097969E-17
3.130000E+03	3.095998E-17	1.050334E-17
3.140000E+03	2.961683E-17	1.004756E-17
3.150000E+03	2.833274E-17	9.611820E-18
3.160000E+03	2.710513E-17	9.195252E-18
3.170000E+03	2.593301E-17	8.797518E-18
3.180000E+03	2.481389E-17	8.417772E-18
3.190000E+03	2.374624E-17	8.055494E-18
3.200000E+03	2.272811E-17	7.710024E-18
3.210000E+03	2.175760E-17	7.380715E-18
3.220000E+03	2.083320E-17	7.067053E-18
3.230000E+03	1.995303E-17	6.768402E-18
3.240000E+03	1.911496E-17	6.484036E-18
3.250000E+03	1.831816E-17	6.213678E-18
3.260000E+03	1.755996E-17	5.956421E-18
3.270000E+03	1.683956E-17	5.711988E-18
3.280000E+03	1.615473E-17	5.479628E-18
3.290000E+03	1.550415E-17	5.258889E-18
3.300000E+03	1.488649E-17	5.049322E-18
3.310000E+03	1.429978E-17	4.850257E-18
3.320000E+03	1.374302E-17	4.661354E-18
3.330000E+03	1.321477E-17	4.482127E-18
3.340000E+03	1.271349E-17	4.312051E-18
3.350000E+03	1.223790E-17	4.150690E-18
3.360000E+03	1.178675E-17	3.997627E-18
3.370000E+03	1.135904E-17	3.852512E-18
3.380000E+03	1.095330E-17	3.714856E-18
3.390000E+03	1.056877E-17	3.584394E-18
3.400000E+03	1.020412E-17	3.460678E-18
3.410000E+03	9.858396E-18	3.343383E-18
3.420000E+03	9.530784E-18	3.232233E-18
3.430000E+03	9.220051E-18	3.126811E-18
3.440000E+03	8.925604E-18	3.026914E-18
3.450000E+03	8.646545E-18	2.932238E-18
3.460000E+03	8.381829E-18	2.842429E-18
3.470000E+03	8.130976E-18	2.757322E-18
3.480000E+03	7.893048E-18	2.676601E-18
3.490000E+03	7.667448E-18	2.600062E-18
3.500000E+03	7.453528E-18	2.527486E-18
3.510000E+03	7.250432E-18	2.458582E-18
3.520000E+03	7.057696E-18	2.393192E-18
3.530000E+03	6.874646E-18	2.331089E-18
3.540000E+03	6.700673E-18	2.272065E-18
3.550000E+03	6.535273E-18	2.215949E-18
3.560000E+03	6.377852E-18	2.162541E-18
3.570000E+03	6.227923E-18	2.111674E-18
3.580000E+03	6.084980E-18	2.063176E-18
3.590000E+03	5.948668E-18	2.016928E-18
3.600000E+03	5.818597E-18	1.972798E-18
3.610000E+03	5.694349E-18	1.930643E-18
3.620000E+03	5.575645E-18	1.890369E-18
3.630000E+03	5.462215E-18	1.851883E-18
3.640000E+03	5.353706E-18	1.815068E-18
3.650000E+03	5.250027E-18	1.779890E-18
3.660000E+03	5.150849E-18	1.746240E-18
3.670000E+03	5.056044E-18	1.714072E-18
3.680000E+03	4.965440E-18	1.683330E-18
3.690000E+03	4.878866E-18	1.653955E-18
3.700000E+03	4.796201E-18	1.625905E-18
3.710000E+03	4.717363E-18	1.599154E-18
3.720000E+03	4.642105E-18	1.573617E-18
3.730000E+03	4.570427E-18	1.549294E-18
3.740000E+03	4.502130E-18	1.526118E-18
3.750000E+03	4.437128E-18	1.504060E-18
3.760000E+03	4.375343E-18	1.483092E-18
3.770000E+03	4.316584E-18	1.463151E-18
3.780000E+03	4.260843E-18	1.444233E-18
3.790000E+03	4.207970E-18	1.426288E-18
3.800000E+03	4.157890E-18	1.409290E-18
3.810000E+03	4.110495E-18	1.393202E-18
3.820000E+03	4.065714E-18	1.378001E-18
3.830000E+03	4.023448E-18	1.363652E-18
3.840000E+03	3.983627E-18	1.350133E-18
3.850000E+03	3.946162E-18	1.337412E-18
3.860000E+03	3.911024E-18	1.325480E-18
3.870000E+03	3.878121E-18	1.314306E-18
3.880000E+03	3.847369E-18	1.303861E-18
3.890000E+03	3.818717E-18	1.294128E-18
3.900000E+03	3.792082E-18	1.285079E-18
3.910000E+03	3.767446E-18	1.276707E-18
3.920000E+03	3.744732E-18	1.268987E-18
3.930000E+03	3.723892E-18	1.261902E-18
3.940000E+03	3.704855E-18	1.255428E-18
3.950000E+03	3.687548E-18	1.249541E-18
3.960000E+03	3.671988E-18	1.244245E-18
3.970000E+03	3.658046E-18	1.239498E-18
3.980000E+03	3.645715E-18	1.235297E-18
3.990000E+03	3.634929E-18	1.231619E-18
4.000000E+03	3.625650E-18	1.228452E-18
4.010000E+03	3.617846E-18	1.225784E-18
4.020000E+03	3.611427E-18	1.223586E-18
4.030000E+03	3.606388E-18	1.221855E-18
4.040000E+03	3.602676E-18	1.220574E-18
4.050000E+03	3.600254E-18	1.219730E-18
4.060000E+03	3.599072E-18	1.219306E-18
4.070000E+03	3.599077E-18	1.219283E-18
4.080000E+03	3.600269E-18	1.219663E-18
4.090000E+03	3.602573E-18	1.220419E-18
4.100000E+03	3.605966E-18	1.221544E-18
4.110000E+03	3.610428E-18	1.223031E-18
4.120000E+03	3.615891E-18	1.224856E-18
4.130000E+03	3.622362E-18	1.227023E-18
4.140000E+03	3.629771E-18	1.229508E-18
4.150000E+03	3.638108E-18	1.232306E-18
4.160000E+03	3.647355E-18	1.235413E-18
4.170000E+03	3.657446E-18	1.238805E-18
4.180000E+03	3.668397E-18	1.242488E-18
4.190000E+03	3.680113E-18	1.246430E-18
4.200000E+03	3.692640E-18	1.250646E-18
4.210000E+03	3.705883E-18	1.255104E-18
4.220000E+03	3.719832E-18	1.259801E-18
4.230000E+03	3.734456E-18	1.264727E-18
4.240000E+03	3.749743E-18	1.269876E-18
4.250000E+03	3.765605E-18	1.275220E-18
4.260000E+03	3.782068E-18	1.280767E-18
4.270000E+03	3.799067E-18	1.286495E-18
4.280000E+03	3.816542E-18	1.292384E-18
4.290000E+03	3.834491E-18	1.298433E-18
4.300000E+03	3.852881E-18	1.304630E-18
4.310000E+03	3.871625E-18	1.310948E-18
4.320000E+03	3.890690E-18	1.317373E-18
4.330000E+03	3.910040E-18	1.323894E-18
4.340000E+03	3.929643E-18	1.330501E-18
4.350000E+03	3.949464E-18	1.337181E-18
4.360000E+03	3.969500E-18	1.343933E-18
4.370000E+03	3.989715E-18	1.350745E-18
4.380000E+03	4.010068E-18	1.357604E-18
4.390000E+03	4.030622E-18	1.364530E-18
4.400000E+03	4.051336E-18	1.371509E-18
4.410000E+03	4.072204E-18	1.378541E-18
4.420000E+03	4.093251E-18	1.385632E-18
4.430000E+03	4.114476E-18	1.392783E-18
4.440000E+03	4.135836E-18	1.399979E-18
4.450000E+03	4.157361E-18	1.407231E-18
4.460000E+03	4.179013E-18	1.414525E-18
4.470000E+03	4.200792E-18	1.421861E-18
4.480000E+03	4.222696E-18	1.429239E-18
4.490000E+03	4.244658E-18	1.436636E-18
4.500000E+03	4.266715E-18	1.444065E-18
4.510000E+03	4.288838E-18	1.451515E-18
4.520000E+03	4.311004E-18	1.458980E-18
4.530000E+03	4.333219E-18	1.466460E-18
4.540000E+03	4.355426E-18	1.473937E-18
4.550000E+03	4.377638E-18	1.481415E-18
4.560000E+03	4.399873E-18	1.488901E-18
4.570000E+03	4.422115E-18	1.496388E-18
4.580000E+03	4.444310E-18	1.503858E-18
4.590000E+03	4.466481E-18	1.511320E-18
4.600000E+03	4.488616E-18	1.518769E-18
4.610000E+03	4.510703E-18	1.526201E-18
4.620000E+03	4.532774E-18	1.533627E-18
4.630000E+03	4.554780E-18	1.541030E-18
4.640000E+03	4.576755E-18	1.548422E-18
4.650000E+03	4.598697E-18	1.555802E-18
4.660000E+03	4.620602E-18	1.563170E-18
4.670000E+03	4.642466E-18	1.570522E-18
4.680000E+03	4.664291E-18	1.577861E-18
4.690000E+03	4.686078E-18	1.585186E-18
4.700000E+03	4.707905E-18	1.592524E-18
4.710000E+03	4.729779E-18	1.599878E-18
4.720000E+03	4.751705E-18	1.607247E-18
4.730000E+03	4.773769E-18	1.614664E-18
4.740000E+03	4.795935E-18	1.622114E-18
4.750000E+03	4.818212E-18	1.629600E-18
4.760000E+03	4.840649E-18	1.637140E-18
4.770000E+03	4.863261E-18	1.644739E-18
4.780000E+03	4.886010E-18	1.652383E-18
4.790000E+03	4.908955E-18	1.660092E-18
4.800000E+03	4.932107E-18	1.667871E-18
4.810000E+03	4.955435E-18	1.675709E-18
4.820000E+03	4.978999E-18	1.683626E-18
4.830000E+03	5.002812E-18	1.691626E-18
4.840000E+03	5.026896E-18	1.699716E-18
4.850000E+03	5.051264E-18	1.707902E-18
4.860000E+03	5.075889E-18	1.716175E-18
4.870000E+03	5.100884E-18	1.724571E-18
4.880000E+03	5.126176E-18	1.733067E-18
4.890000E+03	5.151786E-18	1.741669E-18
4.900000E+03	5.177782E-18	1.750401E-18
4.910000E+03	5.204186E-18	1.759270E-18
4.920000E+03	5.231022E-18	1.768285E-18
4.930000E+03	5.258218E-18	1.777420E-18
4.940000E+03	5.285893E-18	1.786716E-18
4.950000E+03	5.314021E-18	1.796164E-18
4.960000E+03	5.342624E-18	1.805772E-18
4.970000E+03	5.371727E-18	1.815547E-18
4.980000E+03	5.401351E-18	1.825498E-18
4.990000E+03	5.431466E-18	1.835613E-18
5.000000E+03	5.462086E-18	1.845899E-18
5.010000E+03	5.493285E-18	1.856378E-18
5.020000E+03	5.525021E-18	1.867039E-18
5.030000E+03	5.557254E-18	1.877865E-18
5.040000E+03	5.590101E-18	1.888899E-18
5.050000E+03	5.623407E-18	1.900086E-18
5.060000E+03	5.657286E-18	1.911466E-18
5.070000E+03	5.691741E-18	1.923039E-18
5.080000E+03	5.726620E-18	1.934754E-18
5.090000E+03	5.762081E-18	1.946664E-18
5.100000E+03	5.798020E-18	1.958735E-18
5.110000E+03	5.834434E-18	1.970965E-18
5.120000E+03	5.871386E-18	1.983375E-18
5.130000E+03	5.908756E-18	1.995925E-18
5.140000E+03	5.946543E-18	2.008614E-18
5.150000E+03	5.984801E-18	2.021461E-18
5.160000E+03	6.023469E-18	2.034446E-18
5.170000E+03	6.062540E-18	2.047565E-18
5.180000E+03	6.101954E-18	2.060798E-18
5.190000E+03	6.141761E-18	2.074163E-18
5.200000E+03	6.181832E-18	2.087615E-18
5.210000E+03	6.222282E-18	2.101194E-18
5.220000E+03	6.263041E-18	2.114875E-18
5.230000E+03	6.304033E-18	2.128634E-18
5.240000E+03	6.345246E-18	2.142465E-18
5.250000E+03	6.386726E-18	2.156385E-18
5.260000E+03	6.428329E-18	2.170346E-18
5.270000E+03	6.470093E-18	2.184359E-18
5.280000E+03	6.512064E-18	2.198440E-18
5.290000E+03	6.554019E-18	2.212514E-18
5.300000E+03	6.596121E-18	2.226636E-18
5.310000E+03	6.638143E-18	2.240729E-18
5.320000E+03	6.680242E-18	2.254847E-18
5.330000E+03	6.722183E-18	2.268909E-18
5.340000E+03	6.764055E-18	2.282947E-18
5.350000E+03	6.805815E-18	2.296945E-18
5.360000E+03	6.847355E-18	2.310867E-18
5.370000E+03	6.888765E-18	2.324744E-18
5.380000E+03	6.929801E-18	2.338492E-18
5.390000E+03	6.970628E-18	2.352169E-18
5.400000E+03	7.011139E-18	2.365736E-18
5.410000E+03	7.051294E-18	2.379182E-18
5.420000E+03	7.091062E-18	2.392496E-18
5.430000E+03	7.130405E-18	2.405664E-18
5.440000E+03	7.169224E-18	2.418654E-18
5.450000E+03	7.207480E-18	2.431452E-18
5.460000E+03	7.245144E-18	2.444049E-18
5.470000E+03	7.282180E-18	2.456432E-18
5.480000E+03	7.318480E-18	2.468565E-18
5.490000E+03	7.353929E-18	2.480410E-18
5.500000E+03	7.388559E-18	2.491976E-18
5.510000E+03	7.422254E-18	2.503226E-18
5.520000E+03	7.454891E-18	2.514116E-18
5.530000E+03	7.486345E-18	2.524607E-18
5.540000E+03	7.516642E-18	2.534705E-18
5.550000E+03	7.545580E-18	2.544344E-18
5.560000E+03	7.573181E-18	2.553530E-18
5.570000E+03	7.599242E-18	2.562195E-18
5.580000E+03	7.623704E-18	2.570320E-18
5.590000E+03	7.646593E-18	2.577913E-18
5.600000E+03	7.667701E-18	2.584905E-18
5.610000E+03	7.687047E-18	2.591300E-18
5.620000E+03	7.704581E-18	2.597084E-18
5.630000E+03	7.720169E-18	2.602211E-18
5.640000E+03	7.733759E-18	2.606663E-18
5.650000E+03	7.745384E-18	2.610451E-18
5.660000E+03	7.754999E-18	2.613561E-18
5.670000E+03	7.762482E-18	2.615952E-18
5.680000E+03	7.767882E-18	2.617639E-18
5.690000E+03	7.771246E-18	2.618640E-18
5.700000E+03	7.772395E-18	2.618893E-18
5.710000E+03	7.771390E-18	2.618420E-18
5.720000E+03	7.768299E-18	2.617244E-18
5.730000E+03	7.763121E-18	2.615363E-18
5.740000E+03	7.755855E-18	2.612779E-18
5.750000E+03	7.746507E-18	2.609493E-18
5.760000E+03	7.735083E-18	2.605507E-18
5.770000E+03	7.721680E-18	2.600855E-18
5.780000E+03	7.706233E-18	2.595513E-18
5.790000E+03	7.688923E-18	2.589545E-18
5.800000E+03	7.669700E-18	2.582931E-18
5.810000E+03	7.648583E-18	2.575680E-18
5.820000E+03	7.625779E-18	2.567861E-18
5.830000E+03	7.601153E-18	2.559429E-18
5.840000E+03	7.574835E-18	2.550427E-18
5.850000E+03	7.546960E-18	2.540901E-18
5.860000E+03	7.517497E-18	2.530840E-18
5.870000E+03	7.486598E-18	2.520297E-18
5.880000E+03	7.454249E-18	2.509266E-18
5.890000E+03	7.420699E-18	2.497831E-18
5.900000E+03	7.385957E-18	2.485996E-18
5.910000E+03	7.350110E-18	2.473789E-18
5.920000E+03	7.313343E-18	2.461274E-18
5.930000E+03	7.275674E-18	2.448455E-18
5.940000E+03	7.237285E-18	2.435395E-18
5.950000E+03	7.198190E-18	2.422098E-18
5.960000E+03	7.158572E-18	2.408626E-18
5.970000E+03	7.118523E-18	2.395010E-18
5.980000E+03	7.078139E-18	2.381282E-18
5.990000E+03	7.037424E-18	2.367444E-18
6.000000E+03	6.996549E-18	2.353553E-18
6.010000E+03	6.955596E-18	2.339636E-18
6.020000E+03	6.914562E-18	2.325693E-18
6.030000E+03	6.873608E-18	2.311778E-18
6.040000E+03	6.832723E-18	2.297888E-18
6.050000E+03	6.791899E-18	2.284018E-18
6.060000E+03	6.751363E-18	2.270247E-18
6.070000E+03	6.711015E-18	2.256540E-18
6.080000E+03	6.670996E-18	2.242944E-18
6.090000E+03	6.631202E-18	2.229425E-18
6.100000E+03	6.591767E-18	2.216028E-18
6.110000E+03	6.552656E-18	2.202741E-18
6.120000E+03	6.513920E-18	2.189581E-18
6.130000E+03	6.475598E-18	2.176561E-18
6.140000E+03	6.437652E-18	2.163668E-18
6.150000E+03	6.400117E-18	2.150914E-18
6.160000E+03	6.363030E-18	2.138312E-18
6.170000E+03	6.326416E-18	2.125870E-18
6.180000E+03	6.290306E-18	2.113598E-18
6.190000E+03	6.254642E-18	2.101477E-18
6.200000E+03	6.219530E-18	2.089542E-18
6.210000E+03	6.184988E-18	2.077800E-18
6.220000E+03	6.151028E-18	2.066254E-18
6.230000E+03	6.117751E-18	2.054938E-18
6.240000E+03	6.085247E-18	2.043883E-18
6.250000E+03	6.053605E-18	2.033118E-18
6.260000E+03	6.022914E-18	2.022674E-18
6.270000E+03	5.993260E-18	2.012579E-18
6.280000E+03	5.964814E-18	2.002889E-18
6.290000E+03	5.937495E-18	1.993579E-18
6.300000E+03	5.911634E-18	1.984759E-18
6.310000E+03	5.887150E-18	1.976402E-18
6.320000E+03	5.864210E-18	1.968564E-18
6.330000E+03	5.842895E-18	1.961272E-18
6.340000E+03	5.823294E-18	1.954555E-18
6.350000E+03	5.805406E-18	1.948414E-18
6.360000E+03	5.789318E-18	1.942877E-18
6.370000E+03	5.775118E-18	1.937974E-18
6.380000E+03	5.762808E-18	1.933705E-18
6.390000E+03	5.752397E-18	1.930073E-18
6.400000E+03	5.743972E-18	1.927107E-18
6.410000E+03	5.737375E-18	1.924754E-18
6.420000E+03	5.732607E-18	1.923015E-18
6.430000E+03	5.729594E-18	1.921864E-18
6.440000E+03	5.728168E-18	1.921245E-18
6.450000E+03	5.728419E-18	1.921188E-18
6.460000E+03	5.730181E-18	1.921637E-18
6.470000E+03	5.733542E-18	1.922621E-18
6.480000E+03	5.738507E-18	1.924143E-18
6.490000E+03	5.744993E-18	1.926173E-18
6.500000E+03	5.753004E-18	1.928715E-18
6.510000E+03	5.762545E-18	1.931767E-18
6.520000E+03	5.773618E-18	1.935333E-18
6.530000E+03	5.786232E-18	1.939413E-18
6.540000E+03	5.800478E-18	1.944040E-18
6.550000E+03	5.816274E-18	1.949185E-18
6.560000E+03	5.833535E-18	1.954818E-18
6.570000E+03	5.852450E-18	1.961005E-18
6.580000E+03	5.872837E-18	1.967684E-18
6.590000E+03	5.894798E-18	1.974888E-18
6.600000E+03	5.918339E-18	1.982620E-18
6.610000E+03	5.943467E-18	1.990881E-18
6.620000E+03	5.970192E-18	1.999676E-18
6.630000E+03	5.998420E-18	2.008972E-18
6.640000E+03	6.028258E-18	2.018804E-18
6.650000E+03	6.059610E-18	2.029142E-18
6.660000E+03	6.092590E-18	2.040023E-18
6.670000E+03	6.127101E-18	2.051414E-18
6.680000E+03	6.163149E-18	2.063317E-18
6.690000E+03	6.200849E-18	2.075770E-18
6.700000E+03	6.240210E-18	2.088777E-18
6.710000E+03	6.281030E-18	2.102269E-18
6.720000E+03	6.323530E-18	2.116321E-18
6.730000E+03	6.367505E-18	2.130863E-18
6.740000E+03	6.413181E-18	2.145972E-18
6.750000E+03	6.460461E-18	2.161614E-18
6.760000E+03	6.509242E-18	2.177755E-18
6.770000E+03	6.559763E-18	2.194475E-18
6.780000E+03	6.611802E-18	2.211699E-18
6.790000E+03	6.665490E-18	2.229471E-18
6.800000E+03	6.720837E-18	2.247794E-18
6.810000E+03	6.777856E-18	2.266674E-18
6.820000E+03	6.836438E-18	2.286071E-18
6.830000E+03	6.896712E-18	2.306031E-18
6.840000E+03	6.958571E-18	2.326516E-18
6.850000E+03	7.022148E-18	2.347571E-18
6.860000E+03	7.087326E-18	2.369158E-18
6.870000E+03	7.154115E-18	2.391279E-18
6.880000E+03	7.222653E-18	2.413979E-18
6.890000E+03	7.292688E-18	2.437176E-18
6.900000E+03	7.364494E-18	2.460959E-18
6.910000E+03	7.437943E-18	2.485287E-18
6.920000E+03	7.513044E-18	2.510162E-18
6.930000E+03	7.589804E-18	2.535585E-18
6.940000E+03	7.668228E-18	2.561560E-18
6.950000E+03	7.748177E-18	2.588039E-18
6.960000E+03	7.829801E-18	2.615071E-18
6.970000E+03	7.913104E-18	2.642660E-18
6.980000E+03	7.998093E-18	2.670805E-18
6.990000E+03	8.084460E-18	2.699405E-18
7.000000E+03	8.172672E-18	2.728615E-18
7.010000E+03	8.262258E-18	2.758278E-18
7.020000E+03	8.353536E-18	2.788500E-18
7.030000E+03	8.446341E-18	2.819225E-18
7.040000E+03	8.540673E-18	2.850454E-18
7.050000E+03	8.636524E-18	2.882183E-18
7.060000E+03	8.733891E-18	2.914411E-18
7.070000E+03	8.832592E-18	2.947079E-18
7.080000E+03	8.932792E-18	2.980239E-18
7.090000E+03	9.034482E-18	3.013890E-18
7.100000E+03	9.137474E-18	3.047968E-18
7.110000E+03	9.241934E-18	3.082530E-18
7.120000E+03	9.347666E-18	3.117508E-18
7.130000E+03	9.454651E-18	3.152897E-18
7.140000E+03	9.562870E-18	3.188690E-18
7.150000E+03	9.672500E-18	3.224946E-18
7.160000E+03	9.783125E-18	3.261527E-18
7.170000E+03	9.894713E-18	3.298421E-18
7.180000E+03	1.000764E-17	3.335756E-18
7.190000E+03	1.012149E-17	3.373386E-18
7.200000E+03	1.023620E-17	3.411298E-18
7.210000E+03	1.035196E-17	3.449553E-18
7.220000E+03	1.046852E-17	3.488067E-18
7.230000E+03	1.058585E-17	3.526827E-18
7.240000E+03	1.070390E-17	3.565818E-18
7.250000E+03	1.082262E-17	3.605027E-18
7.260000E+03	1.094220E-17	3.644516E-18
7.270000E+03	1.106214E-17	3.684115E-18
7.280000E+03	1.118286E-17	3.723964E-18
7.290000E+03	1.130407E-17	3.763969E-18
7.300000E+03	1.142572E-17	3.804113E-18
7.310000E+03	1.154802E-17	3.844462E-18
7.320000E+03	1.167065E-17	3.884916E-18
7.330000E+03	1.179383E-17	3.925543E-18
7.340000E+03	1.191750E-17	3.966327E-18
7.350000E+03	1.204190E-17	4.007342E-18
7.360000E+03	1.216697E-17	4.048576E-18
7.370000E+03	1.229297E-17	4.090107E-18
7.380000E+03	1.241958E-17	4.131833E-18
7.390000E+03	1.254762E-17	4.174027E-18
7.400000E+03	1.267709E-17	4.216688E-18
7.410000E+03	1.280769E-17	4.259715E-18
7.420000E+03	1.294029E-17	4.303402E-18
7.430000E+03	1.307463E-17	4.347654E-18
7.440000E+03	1.321101E-17	4.392577E-18
7.450000E+03	1.334914E-17	4.438072E-18
7.460000E+03	1.348934E-17	4.484249E-18
7.470000E+03	1.363067E-17	4.530791E-18
7.480000E+03	1.377377E-17	4.577911E-18
7.490000E+03	1.391765E-17	4.625279E-18
7.500000E+03	1.406259E-17	4.672994E-18
7.510000E+03	1.420825E-17	4.720935E-18
7.520000E+03	1.435424E-17	4.768975E-18
7.530000E+03	1.450084E-17	4.817213E-18
7.540000E+03	1.464697E-17	4.865281E-18
7.550000E+03	1.479325E-17	4.913390E-18
7.560000E+03	1.493925E-17	4.961400E-18
7.570000E+03	1.508492E-17	5.009285E-18
7.580000E+03	1.522979E-17	5.056898E-18
7.590000E+03	1.537415E-17	5.104334E-18
7.600000E+03	1.551755E-17	5.151440E-18
7.610000E+03	1.565989E-17	5.198184E-18
7.620000E+03	1.580146E-17	5.244667E-18
7.630000E+03	1.594180E-17	5.290729E-18
7.640000E+03	1.608120E-17	5.336473E-18
7.650000E+03	1.621877E-17	5.381600E-18
7.660000E+03	1.635523E-17	5.426348E-18
7.670000E+03	1.649006E-17	5.470550E-18
7.680000E+03	1.662360E-17	5.514314E-18
7.690000E+03	1.675533E-17	5.557469E-18
7.700000E+03	1.688515E-17	5.599983E-18
7.710000E+03	1.701295E-17	5.641822E-18
7.720000E+03	1.713954E-17	5.683248E-18
7.730000E+03	1.726348E-17	5.723790E-18
7.740000E+03	1.738603E-17	5.763864E-18
7.750000E+03	1.750620E-17	5.803140E-18
7.760000E+03	1.762435E-17	5.841741E-18
