#wls	flux	fluxerr
1.600000E+03	2.365621E-16	4.181928E-17
1.640000E+03	2.435018E-16	4.304464E-17
1.680000E+03	2.500210E-16	4.419550E-17
1.720000E+03	2.560735E-16	4.526371E-17
1.760000E+03	2.615090E-16	4.622267E-17
1.800000E+03	2.663211E-16	4.707125E-17
1.840000E+03	2.703529E-16	4.778176E-17
1.880000E+03	2.735680E-16	4.834776E-17
1.920000E+03	2.758813E-16	4.875420E-17
1.960000E+03	2.771668E-16	4.897886E-17
2.000000E+03	2.773951E-16	4.901656E-17
2.040000E+03	2.764794E-16	4.885198E-17
2.080000E+03	2.743488E-16	4.847263E-17
2.120000E+03	2.709528E-16	4.786963E-17
2.160000E+03	2.662301E-16	4.703217E-17
2.200000E+03	2.600913E-16	4.594452E-17
2.240000E+03	2.524573E-16	4.459277E-17
2.280000E+03	2.433598E-16	4.298259E-17
2.320000E+03	2.329845E-16	4.114684E-17
2.360000E+03	2.216570E-16	3.914307E-17
2.400000E+03	2.096344E-16	3.701676E-17
2.440000E+03	1.971482E-16	3.480882E-17
2.480000E+03	1.843623E-16	3.254825E-17
2.520000E+03	1.714489E-16	3.026546E-17
2.560000E+03	1.585452E-16	2.798472E-17
2.600000E+03	1.457937E-16	2.573121E-17
2.640000E+03	1.333083E-16	2.352500E-17
2.680000E+03	1.211953E-16	2.138493E-17
2.720000E+03	1.095520E-16	1.932811E-17
2.760000E+03	9.845388E-17	1.736787E-17
2.800000E+03	8.796804E-17	1.551606E-17
2.840000E+03	7.814799E-17	1.378207E-17
2.880000E+03	6.903852E-17	1.217379E-17
2.920000E+03	6.067399E-17	1.069725E-17
2.960000E+03	5.307311E-17	9.355710E-18
3.000000E+03	4.623916E-17	8.149709E-18
3.010000E+03	4.464907E-17	7.869129E-18
3.020000E+03	4.310478E-17	7.596640E-18
3.030000E+03	4.160751E-17	7.332456E-18
3.040000E+03	4.015450E-17	7.076094E-18
3.050000E+03	3.874680E-17	6.827732E-18
3.060000E+03	3.738346E-17	6.587208E-18
3.070000E+03	3.606430E-17	6.354485E-18
3.080000E+03	3.478689E-17	6.129135E-18
3.090000E+03	3.355246E-17	5.911375E-18
3.100000E+03	3.235862E-17	5.700785E-18
3.110000E+03	3.120574E-17	5.497425E-18
3.120000E+03	3.009280E-17	5.301118E-18
3.130000E+03	2.901820E-17	5.111581E-18
3.140000E+03	2.798212E-17	4.928843E-18
3.150000E+03	2.698299E-17	4.752629E-18
3.160000E+03	2.602034E-17	4.582855E-18
3.170000E+03	2.509319E-17	4.419348E-18
3.180000E+03	2.420055E-17	4.261931E-18
3.190000E+03	2.334191E-17	4.110514E-18
3.200000E+03	2.251624E-17	3.964916E-18
3.210000E+03	2.172224E-17	3.824910E-18
3.220000E+03	2.095979E-17	3.690468E-18
3.230000E+03	2.022761E-17	3.561370E-18
3.240000E+03	1.952523E-17	3.437528E-18
3.250000E+03	1.885175E-17	3.318785E-18
3.260000E+03	1.820608E-17	3.204949E-18
3.270000E+03	1.758794E-17	3.095971E-18
3.280000E+03	1.699597E-17	2.991608E-18
3.290000E+03	1.642987E-17	2.891806E-18
3.300000E+03	1.588874E-17	2.796411E-18
3.310000E+03	1.537129E-17	2.705192E-18
3.320000E+03	1.487717E-17	2.618087E-18
3.330000E+03	1.440555E-17	2.534948E-18
3.340000E+03	1.395540E-17	2.455597E-18
3.350000E+03	1.352594E-17	2.379893E-18
3.360000E+03	1.311641E-17	2.307703E-18
3.370000E+03	1.272606E-17	2.238896E-18
3.380000E+03	1.235417E-17	2.173342E-18
3.390000E+03	1.200003E-17	2.110916E-18
3.400000E+03	1.166278E-17	2.051469E-18
3.410000E+03	1.134164E-17	1.994860E-18
3.420000E+03	1.103625E-17	1.941029E-18
3.430000E+03	1.074559E-17	1.889792E-18
3.440000E+03	1.046920E-17	1.841071E-18
3.450000E+03	1.020641E-17	1.794745E-18
3.460000E+03	9.956673E-18	1.750720E-18
3.470000E+03	9.719245E-18	1.708864E-18
3.480000E+03	9.493546E-18	1.669074E-18
3.490000E+03	9.279131E-18	1.631271E-18
3.500000E+03	9.075367E-18	1.595345E-18
3.510000E+03	8.881862E-18	1.561227E-18
3.520000E+03	8.697859E-18	1.528781E-18
3.530000E+03	8.523033E-18	1.497953E-18
3.540000E+03	8.356806E-18	1.468638E-18
3.550000E+03	8.198725E-18	1.440759E-18
3.560000E+03	8.048370E-18	1.414239E-18
3.570000E+03	7.905185E-18	1.388983E-18
3.580000E+03	7.768972E-18	1.364954E-18
3.590000E+03	7.639308E-18	1.342078E-18
3.600000E+03	7.515795E-18	1.320285E-18
3.610000E+03	7.398283E-18	1.299548E-18
3.620000E+03	7.286341E-18	1.279792E-18
3.630000E+03	7.179701E-18	1.260969E-18
3.640000E+03	7.078119E-18	1.243036E-18
3.650000E+03	6.981357E-18	1.225952E-18
3.660000E+03	6.889191E-18	1.209676E-18
3.670000E+03	6.801413E-18	1.194172E-18
3.680000E+03	6.717881E-18	1.179416E-18
3.690000E+03	6.638458E-18	1.165382E-18
3.700000E+03	6.562956E-18	1.152038E-18
3.710000E+03	6.491420E-18	1.139391E-18
3.720000E+03	6.423604E-18	1.127398E-18
3.730000E+03	6.359496E-18	1.116057E-18
3.740000E+03	6.298965E-18	1.105345E-18
3.750000E+03	6.241942E-18	1.095250E-18
3.760000E+03	6.188454E-18	1.085775E-18
3.770000E+03	6.138267E-18	1.076881E-18
3.780000E+03	6.091406E-18	1.068570E-18
3.790000E+03	6.047844E-18	1.060839E-18
3.800000E+03	6.007399E-18	1.053655E-18
3.810000E+03	5.970090E-18	1.047022E-18
3.820000E+03	5.935887E-18	1.040933E-18
3.830000E+03	5.904659E-18	1.035367E-18
3.840000E+03	5.876328E-18	1.030308E-18
3.850000E+03	5.850954E-18	1.025769E-18
3.860000E+03	5.828365E-18	1.021717E-18
3.870000E+03	5.808574E-18	1.018156E-18
3.880000E+03	5.791505E-18	1.015071E-18
3.890000E+03	5.777125E-18	1.012458E-18
3.900000E+03	5.765404E-18	1.010310E-18
3.910000E+03	5.756220E-18	1.008607E-18
3.920000E+03	5.749544E-18	1.007342E-18
3.930000E+03	5.745393E-18	1.006519E-18
3.940000E+03	5.743694E-18	1.006125E-18
3.950000E+03	5.744376E-18	1.006148E-18
3.960000E+03	5.747411E-18	1.006581E-18
3.970000E+03	5.752730E-18	1.007414E-18
3.980000E+03	5.760308E-18	1.008641E-18
3.990000E+03	5.770122E-18	1.010259E-18
4.000000E+03	5.782148E-18	1.012262E-18
4.010000E+03	5.796277E-18	1.014633E-18
4.020000E+03	5.812489E-18	1.017367E-18
4.030000E+03	5.830767E-18	1.020460E-18
4.040000E+03	5.851095E-18	1.023911E-18
4.050000E+03	5.873413E-18	1.027709E-18
4.060000E+03	5.897666E-18	1.031844E-18
4.070000E+03	5.923841E-18	1.036312E-18
4.080000E+03	5.951883E-18	1.041106E-18
4.090000E+03	5.981784E-18	1.046223E-18
4.100000E+03	6.013488E-18	1.051653E-18
4.110000E+03	6.046988E-18	1.057395E-18
4.120000E+03	6.082231E-18	1.063439E-18
4.130000E+03	6.119162E-18	1.069776E-18
4.140000E+03	6.157776E-18	1.076405E-18
4.150000E+03	6.198020E-18	1.083316E-18
4.160000E+03	6.239891E-18	1.090509E-18
4.170000E+03	6.283288E-18	1.097966E-18
4.180000E+03	6.328210E-18	1.105687E-18
4.190000E+03	6.374559E-18	1.113654E-18
4.200000E+03	6.422382E-18	1.121876E-18
4.210000E+03	6.471583E-18	1.130335E-18
4.220000E+03	6.522163E-18	1.139031E-18
4.230000E+03	6.573968E-18	1.147939E-18
4.240000E+03	6.627048E-18	1.157066E-18
4.250000E+03	6.681253E-18	1.166385E-18
4.260000E+03	6.736628E-18	1.175906E-18
4.270000E+03	6.793016E-18	1.185599E-18
4.280000E+03	6.850308E-18	1.195447E-18
4.290000E+03	6.908554E-18	1.205458E-18
4.300000E+03	6.967536E-18	1.215593E-18
4.310000E+03	7.027304E-18	1.225861E-18
4.320000E+03	7.087637E-18	1.236223E-18
4.330000E+03	7.148587E-18	1.246690E-18
4.340000E+03	7.210040E-18	1.257240E-18
4.350000E+03	7.271881E-18	1.267853E-18
4.360000E+03	7.334105E-18	1.278529E-18
4.370000E+03	7.396653E-18	1.289257E-18
4.380000E+03	7.459583E-18	1.300047E-18
4.390000E+03	7.522774E-18	1.310879E-18
4.400000E+03	7.586346E-18	1.321772E-18
4.410000E+03	7.650300E-18	1.332727E-18
4.420000E+03	7.714644E-18	1.343746E-18
4.430000E+03	7.779381E-18	1.354828E-18
4.440000E+03	7.844586E-18	1.365987E-18
4.450000E+03	7.910202E-18	1.377213E-18
4.460000E+03	7.976310E-18	1.388519E-18
4.470000E+03	8.042923E-18	1.399909E-18
4.480000E+03	8.110062E-18	1.411384E-18
4.490000E+03	8.177676E-18	1.422938E-18
4.500000E+03	8.245782E-18	1.434572E-18
4.510000E+03	8.314328E-18	1.446277E-18
4.520000E+03	8.383402E-18	1.458069E-18
4.530000E+03	8.452876E-18	1.469924E-18
4.540000E+03	8.522766E-18	1.481847E-18
4.550000E+03	8.593086E-18	1.493839E-18
4.560000E+03	8.663704E-18	1.505877E-18
4.570000E+03	8.734711E-18	1.517976E-18
4.580000E+03	8.805971E-18	1.530114E-18
4.590000E+03	8.877505E-18	1.542294E-18
4.600000E+03	8.949181E-18	1.554492E-18
4.610000E+03	9.021096E-18	1.566726E-18
4.620000E+03	9.093205E-18	1.578987E-18
4.630000E+03	9.165379E-18	1.591254E-18
4.640000E+03	9.237651E-18	1.603531E-18
4.650000E+03	9.310058E-18	1.615825E-18
4.660000E+03	9.382563E-18	1.628130E-18
4.670000E+03	9.455044E-18	1.640425E-18
4.680000E+03	9.527716E-18	1.652746E-18
4.690000E+03	9.600636E-18	1.665103E-18
4.700000E+03	9.673695E-18	1.677478E-18
4.710000E+03	9.746956E-18	1.689881E-18
4.720000E+03	9.820490E-18	1.702325E-18
4.730000E+03	9.894106E-18	1.714776E-18
4.740000E+03	9.967874E-18	1.727247E-18
4.750000E+03	1.004169E-17	1.739719E-18
4.760000E+03	1.011565E-17	1.752207E-18
4.770000E+03	1.018972E-17	1.764709E-18
4.780000E+03	1.026382E-17	1.777208E-18
4.790000E+03	1.033803E-17	1.789720E-18
4.800000E+03	1.041226E-17	1.802227E-18
4.810000E+03	1.048660E-17	1.814746E-18
4.820000E+03	1.056096E-17	1.827260E-18
4.830000E+03	1.063534E-17	1.839769E-18
4.840000E+03	1.070973E-17	1.852274E-18
4.850000E+03	1.078424E-17	1.864791E-18
4.860000E+03	1.085877E-17	1.877305E-18
4.870000E+03	1.093332E-17	1.889813E-18
4.880000E+03	1.100779E-17	1.902299E-18
4.890000E+03	1.108237E-17	1.914797E-18
4.900000E+03	1.115695E-17	1.927287E-18
4.910000E+03	1.123153E-17	1.939768E-18
4.920000E+03	1.130598E-17	1.952218E-18
4.930000E+03	1.138038E-17	1.964651E-18
4.940000E+03	1.145461E-17	1.977046E-18
4.950000E+03	1.152863E-17	1.989398E-18
4.960000E+03	1.160253E-17	2.001720E-18
4.970000E+03	1.167617E-17	2.013987E-18
4.980000E+03	1.174951E-17	2.026195E-18
4.990000E+03	1.182240E-17	2.038317E-18
5.000000E+03	1.189492E-17	2.050365E-18
5.010000E+03	1.196703E-17	2.062333E-18
5.020000E+03	1.203855E-17	2.074191E-18
5.030000E+03	1.210943E-17	2.085932E-18
5.040000E+03	1.217963E-17	2.097544E-18
5.050000E+03	1.224896E-17	2.108999E-18
5.060000E+03	1.231747E-17	2.120303E-18
5.070000E+03	1.238511E-17	2.131449E-18
5.080000E+03	1.245157E-17	2.142382E-18
5.090000E+03	1.251691E-17	2.153113E-18
5.100000E+03	1.258107E-17	2.163633E-18
5.110000E+03	1.264387E-17	2.173910E-18
5.120000E+03	1.270526E-17	2.183936E-18
5.130000E+03	1.276519E-17	2.193702E-18
5.140000E+03	1.282362E-17	2.203201E-18
5.150000E+03	1.288038E-17	2.212405E-18
5.160000E+03	1.293555E-17	2.221327E-18
5.170000E+03	1.298884E-17	2.229917E-18
5.180000E+03	1.304033E-17	2.238189E-18
5.190000E+03	1.308982E-17	2.246111E-18
5.200000E+03	1.313727E-17	2.253674E-18
5.210000E+03	1.318259E-17	2.260863E-18
5.220000E+03	1.322572E-17	2.267669E-18
5.230000E+03	1.326632E-17	2.274032E-18
5.240000E+03	1.330454E-17	2.279980E-18
5.250000E+03	1.334014E-17	2.285472E-18
5.260000E+03	1.337302E-17	2.290490E-18
5.270000E+03	1.340291E-17	2.294989E-18
5.280000E+03	1.342969E-17	2.298948E-18
5.290000E+03	1.345324E-17	2.302348E-18
5.300000E+03	1.347342E-17	2.305164E-18
5.310000E+03	1.349012E-17	2.307379E-18
5.320000E+03	1.350310E-17	2.308954E-18
5.330000E+03	1.351256E-17	2.309919E-18
5.340000E+03	1.351815E-17	2.310218E-18
5.350000E+03	1.351981E-17	2.309840E-18
5.360000E+03	1.351779E-17	2.308828E-18
5.370000E+03	1.351177E-17	2.307129E-18
5.380000E+03	1.350204E-17	2.304795E-18
5.390000E+03	1.348848E-17	2.301802E-18
5.400000E+03	1.347125E-17	2.298179E-18
5.410000E+03	1.345024E-17	2.293910E-18
5.420000E+03	1.342580E-17	2.289051E-18
5.430000E+03	1.339785E-17	2.283594E-18
5.440000E+03	1.336662E-17	2.277577E-18
5.450000E+03	1.333195E-17	2.270970E-18
5.460000E+03	1.329406E-17	2.263816E-18
5.470000E+03	1.325300E-17	2.256120E-18
5.480000E+03	1.320876E-17	2.247883E-18
5.490000E+03	1.316162E-17	2.239153E-18
5.500000E+03	1.311152E-17	2.229919E-18
5.510000E+03	1.305847E-17	2.220185E-18
5.520000E+03	1.300271E-17	2.209992E-18
5.530000E+03	1.294415E-17	2.199324E-18
5.540000E+03	1.288313E-17	2.188239E-18
5.550000E+03	1.281949E-17	2.176712E-18
5.560000E+03	1.275367E-17	2.164818E-18
5.570000E+03	1.268577E-17	2.152573E-18
5.580000E+03	1.261587E-17	2.139992E-18
5.590000E+03	1.254417E-17	2.127109E-18
5.600000E+03	1.247087E-17	2.113957E-18
5.610000E+03	1.239603E-17	2.100550E-18
5.620000E+03	1.232009E-17	2.086960E-18
5.630000E+03	1.224298E-17	2.073175E-18
5.640000E+03	1.216510E-17	2.059265E-18
5.650000E+03	1.208636E-17	2.045214E-18
5.660000E+03	1.200716E-17	2.031089E-18
5.670000E+03	1.192762E-17	2.016914E-18
5.680000E+03	1.184776E-17	2.002687E-18
5.690000E+03	1.176781E-17	1.988451E-18
5.700000E+03	1.168788E-17	1.974224E-18
5.710000E+03	1.160820E-17	1.960044E-18
5.720000E+03	1.152885E-17	1.945926E-18
5.730000E+03	1.144982E-17	1.931865E-18
5.740000E+03	1.137141E-17	1.917916E-18
5.750000E+03	1.129371E-17	1.904091E-18
5.760000E+03	1.121667E-17	1.890385E-18
5.770000E+03	1.114050E-17	1.876827E-18
5.780000E+03	1.106537E-17	1.863452E-18
5.790000E+03	1.099135E-17	1.850269E-18
5.800000E+03	1.091839E-17	1.837270E-18
5.810000E+03	1.084669E-17	1.824486E-18
5.820000E+03	1.077642E-17	1.811949E-18
5.830000E+03	1.070765E-17	1.799669E-18
5.840000E+03	1.064034E-17	1.787638E-18
5.850000E+03	1.057467E-17	1.775888E-18
5.860000E+03	1.051071E-17	1.764430E-18
5.870000E+03	1.044866E-17	1.753296E-18
5.880000E+03	1.038858E-17	1.742496E-18
5.890000E+03	1.033043E-17	1.732025E-18
5.900000E+03	1.027439E-17	1.721911E-18
5.910000E+03	1.022043E-17	1.712149E-18
5.920000E+03	1.016894E-17	1.702803E-18
5.930000E+03	1.011964E-17	1.693826E-18
5.940000E+03	1.007268E-17	1.685244E-18
5.950000E+03	1.002822E-17	1.677083E-18
5.960000E+03	9.986187E-18	1.669329E-18
5.970000E+03	9.946597E-18	1.661985E-18
5.980000E+03	9.909586E-18	1.655074E-18
5.990000E+03	9.875053E-18	1.648577E-18
6.000000E+03	9.843118E-18	1.642514E-18
6.010000E+03	9.813556E-18	1.636848E-18
6.020000E+03	9.786590E-18	1.631614E-18
6.030000E+03	9.761985E-18	1.626774E-18
6.040000E+03	9.739956E-18	1.622362E-18
6.050000E+03	9.720145E-18	1.618318E-18
6.060000E+03	9.702760E-18	1.614677E-18
6.070000E+03	9.687664E-18	1.611415E-18
6.080000E+03	9.674829E-18	1.608526E-18
6.090000E+03	9.663996E-18	1.605968E-18
6.100000E+03	9.655360E-18	1.603772E-18
6.110000E+03	9.648541E-18	1.601875E-18
6.120000E+03	9.643732E-18	1.600308E-18
6.130000E+03	9.640539E-18	1.599005E-18
6.140000E+03	9.638918E-18	1.597959E-18
6.150000E+03	9.638701E-18	1.597142E-18
6.160000E+03	9.639839E-18	1.596544E-18
6.170000E+03	9.641915E-18	1.596097E-18
6.180000E+03	9.644869E-18	1.595791E-18
6.190000E+03	9.648516E-18	1.595594E-18
6.200000E+03	9.652787E-18	1.595495E-18
6.210000E+03	9.657616E-18	1.595483E-18
6.220000E+03	9.663176E-18	1.595586E-18
6.230000E+03	9.669775E-18	1.595855E-18
6.240000E+03	9.677478E-18	1.596301E-18
6.250000E+03	9.686477E-18	1.596955E-18
6.260000E+03	9.696976E-18	1.597849E-18
6.270000E+03	9.709053E-18	1.598997E-18
6.280000E+03	9.722927E-18	1.600434E-18
6.290000E+03	9.738691E-18	1.602175E-18
6.300000E+03	9.756444E-18	1.604236E-18
6.310000E+03	9.776425E-18	1.606655E-18
6.320000E+03	9.798617E-18	1.609428E-18
6.330000E+03	9.823272E-18	1.612598E-18
6.340000E+03	9.850248E-18	1.616139E-18
6.350000E+03	9.879673E-18	1.620072E-18
6.360000E+03	9.911543E-18	1.624395E-18
6.370000E+03	9.946002E-18	1.629132E-18
6.380000E+03	9.982910E-18	1.634259E-18
6.390000E+03	1.002227E-17	1.639776E-18
6.400000E+03	1.006395E-17	1.645659E-18
6.410000E+03	1.010766E-17	1.651861E-18
6.420000E+03	1.015324E-17	1.658357E-18
6.430000E+03	1.020069E-17	1.665143E-18
6.440000E+03	1.025001E-17	1.672220E-18
6.450000E+03	1.030118E-17	1.679585E-18
6.460000E+03	1.035436E-17	1.687263E-18
6.470000E+03	1.040971E-17	1.695279E-18
6.480000E+03	1.046724E-17	1.703634E-18
6.490000E+03	1.052680E-17	1.712302E-18
6.500000E+03	1.058872E-17	1.721337E-18
6.510000E+03	1.065302E-17	1.730742E-18
6.520000E+03	1.071955E-17	1.740491E-18
6.530000E+03	1.078850E-17	1.750614E-18
6.540000E+03	1.085989E-17	1.761114E-18
6.550000E+03	1.093357E-17	1.771965E-18
6.560000E+03	1.100956E-17	1.783170E-18
6.570000E+03	1.108824E-17	1.794789E-18
6.580000E+03	1.116909E-17	1.806738E-18
6.590000E+03	1.125250E-17	1.819080E-18
6.600000E+03	1.133850E-17	1.831816E-18
6.610000E+03	1.142674E-17	1.844891E-18
6.620000E+03	1.151762E-17	1.858368E-18
6.630000E+03	1.161078E-17	1.872189E-18
6.640000E+03	1.170664E-17	1.886419E-18
6.650000E+03	1.180483E-17	1.900998E-18
6.660000E+03	1.190556E-17	1.915959E-18
6.670000E+03	1.200887E-17	1.931308E-18
6.680000E+03	1.211456E-17	1.947013E-18
6.690000E+03	1.222268E-17	1.963078E-18
6.700000E+03	1.233344E-17	1.979538E-18
6.710000E+03	1.244665E-17	1.996362E-18
6.720000E+03	1.256234E-17	2.013551E-18
6.730000E+03	1.268053E-17	2.031111E-18
6.740000E+03	1.280125E-17	2.049043E-18
6.750000E+03	1.292452E-17	2.067349E-18
6.760000E+03	1.305035E-17	2.086032E-18
6.770000E+03	1.317855E-17	2.105058E-18
6.780000E+03	1.330937E-17	2.124469E-18
6.790000E+03	1.344282E-17	2.144263E-18
6.800000E+03	1.357871E-17	2.164408E-18
6.810000E+03	1.371728E-17	2.184945E-18
6.820000E+03	1.385831E-17	2.205835E-18
6.830000E+03	1.400183E-17	2.227081E-18
6.840000E+03	1.414785E-17	2.248685E-18
6.850000E+03	1.429637E-17	2.270647E-18
6.860000E+03	1.444769E-17	2.293012E-18
6.870000E+03	1.460130E-17	2.315698E-18
6.880000E+03	1.475748E-17	2.338748E-18
6.890000E+03	1.491623E-17	2.362164E-18
6.900000E+03	1.507731E-17	2.385902E-18
6.910000E+03	1.524101E-17	2.410010E-18
6.920000E+03	1.540733E-17	2.434486E-18
6.930000E+03	1.557600E-17	2.459287E-18
6.940000E+03	1.574703E-17	2.484413E-18
6.950000E+03	1.592072E-17	2.509910E-18
6.960000E+03	1.609678E-17	2.535731E-18
6.970000E+03	1.627521E-17	2.561875E-18
6.980000E+03	1.645601E-17	2.588343E-18
6.990000E+03	1.663918E-17	2.615131E-18
7.000000E+03	1.682438E-17	2.642185E-18
7.010000E+03	1.701228E-17	2.669611E-18
7.020000E+03	1.720219E-17	2.697298E-18
7.030000E+03	1.739444E-17	2.725297E-18
7.040000E+03	1.758868E-17	2.753553E-18
7.050000E+03	1.778490E-17	2.782063E-18
7.060000E+03	1.798342E-17	2.810876E-18
7.070000E+03	1.818388E-17	2.839934E-18
7.080000E+03	1.838587E-17	2.869174E-18
7.090000E+03	1.859013E-17	2.898707E-18
7.100000E+03	1.879623E-17	2.928470E-18
7.110000E+03	1.900379E-17	2.958398E-18
7.120000E+03	1.921314E-17	2.988546E-18
7.130000E+03	1.942386E-17	3.018844E-18
7.140000E+03	1.963629E-17	3.049346E-18
7.150000E+03	1.985000E-17	3.079986E-18
7.160000E+03	2.006536E-17	3.110817E-18
7.170000E+03	2.028150E-17	3.141705E-18
7.180000E+03	2.049876E-17	3.172703E-18
7.190000E+03	2.071752E-17	3.203870E-18
7.200000E+03	2.093688E-17	3.235064E-18
7.210000E+03	2.115677E-17	3.266274E-18
7.220000E+03	2.137755E-17	3.297556E-18
7.230000E+03	2.159918E-17	3.328903E-18
7.240000E+03	2.182112E-17	3.360232E-18
7.250000E+03	2.204377E-17	3.391603E-18
7.260000E+03	2.226657E-17	3.422932E-18
7.270000E+03	2.248945E-17	3.454205E-18
7.280000E+03	2.271279E-17	3.485482E-18
7.290000E+03	2.293602E-17	3.516674E-18
7.300000E+03	2.315953E-17	3.547841E-18
7.310000E+03	2.338271E-17	3.578892E-18
7.320000E+03	2.360545E-17	3.609808E-18
7.330000E+03	2.382868E-17	3.640730E-18
7.340000E+03	2.405126E-17	3.671484E-18
7.350000E+03	2.427413E-17	3.702217E-18
7.360000E+03	2.449668E-17	3.732832E-18
7.370000E+03	2.471937E-17	3.763401E-18
7.380000E+03	2.494270E-17	3.794000E-18
7.390000E+03	2.516606E-17	3.824536E-18
7.400000E+03	2.539056E-17	3.855176E-18
7.410000E+03	2.561620E-17	3.885920E-18
7.420000E+03	2.584358E-17	3.916860E-18
7.430000E+03	2.607274E-17	3.948001E-18
7.440000E+03	2.630373E-17	3.979349E-18
7.450000E+03	2.653722E-17	4.011004E-18
7.460000E+03	2.677206E-17	4.042792E-18
7.470000E+03	2.700828E-17	4.074719E-18
7.480000E+03	2.724531E-17	4.106694E-18
7.490000E+03	2.748382E-17	4.138823E-18
7.500000E+03	2.772324E-17	4.171014E-18
7.510000E+03	2.796294E-17	4.203178E-18
7.520000E+03	2.820297E-17	4.235318E-18
7.530000E+03	2.844337E-17	4.267441E-18
7.540000E+03	2.868349E-17	4.299451E-18
7.550000E+03	2.892405E-17	4.331455E-18
7.560000E+03	2.916372E-17	4.363254E-18
7.570000E+03	2.940394E-17	4.395064E-18
7.580000E+03	2.964405E-17	4.426786E-18
7.590000E+03	2.988410E-17	4.458429E-18
7.600000E+03	3.012339E-17	4.489886E-18
7.610000E+03	3.036263E-17	4.521265E-18
7.620000E+03	3.060180E-17	4.552565E-18
7.630000E+03	3.084087E-17	4.583780E-18
7.640000E+03	3.107901E-17	4.614786E-18
7.650000E+03	3.131683E-17	4.645676E-18
7.660000E+03	3.155343E-17	4.676317E-18
7.670000E+03	3.179020E-17	4.706913E-18
7.680000E+03	3.202453E-17	4.737081E-18
7.690000E+03	3.225860E-17	4.767143E-18
7.700000E+03	3.249136E-17	4.796946E-18
7.710000E+03	3.272171E-17	4.826328E-18
7.720000E+03	3.295018E-17	4.855366E-18
7.730000E+03	3.317646E-17	4.884017E-18
7.740000E+03	3.340022E-17	4.912236E-18
7.750000E+03	3.362113E-17	4.939973E-18
7.760000E+03	3.383970E-17	4.967307E-18
