#wls	flux	fluxerr
1.600000E+03	1.573752E-16	1.903047E-17
1.640000E+03	1.628912E-16	1.969598E-17
1.680000E+03	1.682718E-16	2.034499E-17
1.720000E+03	1.734631E-16	2.097096E-17
1.760000E+03	1.784228E-16	2.156880E-17
1.800000E+03	1.830864E-16	2.213070E-17
1.840000E+03	1.874020E-16	2.265038E-17
1.880000E+03	1.913133E-16	2.312105E-17
1.920000E+03	1.947436E-16	2.353346E-17
1.960000E+03	1.976310E-16	2.388014E-17
2.000000E+03	1.999127E-16	2.415351E-17
2.040000E+03	2.015258E-16	2.434599E-17
2.080000E+03	2.023948E-16	2.444848E-17
2.120000E+03	2.024653E-16	2.445444E-17
2.160000E+03	2.016617E-16	2.435475E-17
2.200000E+03	1.999231E-16	2.414212E-17
2.240000E+03	1.971566E-16	2.380534E-17
2.280000E+03	1.933010E-16	2.333710E-17
2.320000E+03	1.884491E-16	2.274860E-17
2.360000E+03	1.827352E-16	2.205614E-17
2.400000E+03	1.762642E-16	2.127241E-17
2.440000E+03	1.691190E-16	2.040744E-17
2.480000E+03	1.613763E-16	1.947055E-17
2.520000E+03	1.531249E-16	1.847247E-17
2.560000E+03	1.444432E-16	1.742268E-17
2.600000E+03	1.354283E-16	1.633295E-17
2.640000E+03	1.261694E-16	1.521406E-17
2.680000E+03	1.167527E-16	1.407642E-17
2.720000E+03	1.072803E-16	1.293234E-17
2.760000E+03	9.784565E-17	1.179313E-17
2.800000E+03	8.854326E-17	1.067018E-17
2.840000E+03	7.946436E-17	9.574477E-18
2.880000E+03	7.070002E-17	8.517002E-18
2.920000E+03	6.234609E-17	7.509291E-18
2.960000E+03	5.449716E-17	6.562722E-18
3.000000E+03	4.722446E-17	5.685850E-18
3.010000E+03	4.550179E-17	5.478179E-18
3.020000E+03	4.382022E-17	5.275472E-18
3.030000E+03	4.217768E-17	5.077483E-18
3.040000E+03	4.057533E-17	4.884348E-18
3.050000E+03	3.901500E-17	4.696289E-18
3.060000E+03	3.749483E-17	4.513081E-18
3.070000E+03	3.601651E-17	4.334927E-18
3.080000E+03	3.457990E-17	4.161809E-18
3.090000E+03	3.318494E-17	3.993720E-18
3.100000E+03	3.183162E-17	3.830656E-18
3.110000E+03	3.052118E-17	3.672769E-18
3.120000E+03	2.925285E-17	3.519963E-18
3.130000E+03	2.802710E-17	3.372295E-18
3.140000E+03	2.684372E-17	3.229740E-18
3.150000E+03	2.570242E-17	3.092260E-18
3.160000E+03	2.460333E-17	2.959872E-18
3.170000E+03	2.354635E-17	2.832564E-18
3.180000E+03	2.252999E-17	2.710154E-18
3.190000E+03	2.155481E-17	2.592708E-18
3.200000E+03	2.061955E-17	2.480076E-18
3.210000E+03	1.972367E-17	2.372192E-18
3.220000E+03	1.886619E-17	2.268937E-18
3.230000E+03	1.804578E-17	2.170151E-18
3.240000E+03	1.726230E-17	2.075815E-18
3.250000E+03	1.651372E-17	1.985687E-18
3.260000E+03	1.579981E-17	1.899735E-18
3.270000E+03	1.511930E-17	1.817810E-18
3.280000E+03	1.447057E-17	1.739713E-18
3.290000E+03	1.385313E-17	1.665385E-18
3.300000E+03	1.326531E-17	1.594627E-18
3.310000E+03	1.270616E-17	1.527323E-18
3.320000E+03	1.217452E-17	1.463332E-18
3.330000E+03	1.166938E-17	1.402533E-18
3.340000E+03	1.118943E-17	1.344768E-18
3.350000E+03	1.073356E-17	1.289903E-18
3.360000E+03	1.030069E-17	1.237808E-18
3.370000E+03	9.889910E-18	1.188374E-18
3.380000E+03	9.500067E-18	1.141461E-18
3.390000E+03	9.130178E-18	1.096950E-18
3.400000E+03	8.779303E-18	1.054729E-18
3.410000E+03	8.446427E-18	1.014675E-18
3.420000E+03	8.130699E-18	9.766851E-19
3.430000E+03	7.831299E-18	9.406609E-19
3.440000E+03	7.547350E-18	9.064966E-19
3.450000E+03	7.278115E-18	8.741035E-19
3.460000E+03	7.022806E-18	8.433865E-19
3.470000E+03	6.780682E-18	8.142566E-19
3.480000E+03	6.551049E-18	7.866298E-19
3.490000E+03	6.333180E-18	7.604189E-19
3.500000E+03	6.126542E-18	7.355595E-19
3.510000E+03	5.930489E-18	7.119739E-19
3.520000E+03	5.744364E-18	6.895828E-19
3.530000E+03	5.567500E-18	6.683062E-19
3.540000E+03	5.399461E-18	6.480914E-19
3.550000E+03	5.239667E-18	6.288686E-19
3.560000E+03	5.087484E-18	6.105615E-19
3.570000E+03	4.942487E-18	5.931191E-19
3.580000E+03	4.804230E-18	5.764875E-19
3.590000E+03	4.672255E-18	5.606117E-19
3.600000E+03	4.546094E-18	5.454356E-19
3.610000E+03	4.425490E-18	5.309280E-19
3.620000E+03	4.310110E-18	5.170489E-19
3.630000E+03	4.199646E-18	5.037612E-19
3.640000E+03	4.093988E-18	4.910517E-19
3.650000E+03	3.992916E-18	4.788938E-19
3.660000E+03	3.896247E-18	4.672654E-19
3.670000E+03	3.803834E-18	4.561489E-19
3.680000E+03	3.715529E-18	4.455265E-19
3.690000E+03	3.631153E-18	4.353765E-19
3.700000E+03	3.550622E-18	4.256887E-19
3.710000E+03	3.473724E-18	4.164378E-19
3.720000E+03	3.400347E-18	4.076101E-19
3.730000E+03	3.330402E-18	3.991950E-19
3.740000E+03	3.263663E-18	3.911652E-19
3.750000E+03	3.200102E-18	3.835173E-19
3.760000E+03	3.139501E-18	3.762252E-19
3.770000E+03	3.081808E-18	3.692823E-19
3.780000E+03	3.026893E-18	3.626734E-19
3.790000E+03	2.974634E-18	3.563834E-19
3.800000E+03	2.924934E-18	3.504008E-19
3.810000E+03	2.877678E-18	3.447118E-19
3.820000E+03	2.832780E-18	3.393060E-19
3.830000E+03	2.790158E-18	3.341735E-19
3.840000E+03	2.749710E-18	3.293020E-19
3.850000E+03	2.711362E-18	3.246824E-19
3.860000E+03	2.675041E-18	3.203064E-19
3.870000E+03	2.640663E-18	3.161634E-19
3.880000E+03	2.608161E-18	3.122456E-19
3.890000E+03	2.577476E-18	3.085458E-19
3.900000E+03	2.548531E-18	3.050547E-19
3.910000E+03	2.521272E-18	3.017658E-19
3.920000E+03	2.495626E-18	2.986705E-19
3.930000E+03	2.471562E-18	2.957647E-19
3.940000E+03	2.449014E-18	2.930407E-19
3.950000E+03	2.427933E-18	2.904926E-19
3.960000E+03	2.408239E-18	2.881106E-19
3.970000E+03	2.389924E-18	2.858938E-19
3.980000E+03	2.372909E-18	2.838328E-19
3.990000E+03	2.357155E-18	2.819229E-19
4.000000E+03	2.342605E-18	2.801570E-19
4.010000E+03	2.329238E-18	2.785329E-19
4.020000E+03	2.316985E-18	2.770420E-19
4.030000E+03	2.305826E-18	2.756820E-19
4.040000E+03	2.295696E-18	2.744451E-19
4.050000E+03	2.286579E-18	2.733295E-19
4.060000E+03	2.278413E-18	2.723276E-19
4.070000E+03	2.271169E-18	2.714357E-19
4.080000E+03	2.264820E-18	2.706509E-19
4.090000E+03	2.259340E-18	2.699699E-19
4.100000E+03	2.254670E-18	2.693857E-19
4.110000E+03	2.250791E-18	2.688959E-19
4.120000E+03	2.247660E-18	2.684954E-19
4.130000E+03	2.245261E-18	2.681822E-19
4.140000E+03	2.243573E-18	2.679538E-19
4.150000E+03	2.242544E-18	2.678040E-19
4.160000E+03	2.242176E-18	2.677330E-19
4.170000E+03	2.242421E-18	2.677350E-19
4.180000E+03	2.243263E-18	2.678081E-19
4.190000E+03	2.244690E-18	2.679508E-19
4.200000E+03	2.246657E-18	2.681577E-19
4.210000E+03	2.249152E-18	2.684276E-19
4.220000E+03	2.252150E-18	2.687571E-19
4.230000E+03	2.255659E-18	2.691474E-19
4.240000E+03	2.259622E-18	2.695916E-19
4.250000E+03	2.264047E-18	2.700906E-19
4.260000E+03	2.268897E-18	2.706400E-19
4.270000E+03	2.274183E-18	2.712410E-19
4.280000E+03	2.279849E-18	2.718871E-19
4.290000E+03	2.285892E-18	2.725779E-19
4.300000E+03	2.292309E-18	2.733129E-19
4.310000E+03	2.299045E-18	2.740855E-19
4.320000E+03	2.306115E-18	2.748977E-19
4.330000E+03	2.313447E-18	2.757405E-19
4.340000E+03	2.321054E-18	2.766158E-19
4.350000E+03	2.328844E-18	2.775125E-19
4.360000E+03	2.336813E-18	2.784302E-19
4.370000E+03	2.345014E-18	2.793751E-19
4.380000E+03	2.353445E-18	2.803469E-19
4.390000E+03	2.362122E-18	2.813476E-19
4.400000E+03	2.371047E-18	2.823774E-19
4.410000E+03	2.380182E-18	2.834317E-19
4.420000E+03	2.389563E-18	2.845149E-19
4.430000E+03	2.399155E-18	2.856227E-19
4.440000E+03	2.408959E-18	2.867553E-19
4.450000E+03	2.418960E-18	2.879108E-19
4.460000E+03	2.429157E-18	2.890891E-19
4.470000E+03	2.439515E-18	2.902862E-19
4.480000E+03	2.450062E-18	2.915050E-19
4.490000E+03	2.460759E-18	2.927413E-19
4.500000E+03	2.471595E-18	2.939935E-19
4.510000E+03	2.482596E-18	2.952649E-19
4.520000E+03	2.493714E-18	2.965495E-19
4.530000E+03	2.504959E-18	2.978486E-19
4.540000E+03	2.516344E-18	2.991639E-19
4.550000E+03	2.527845E-18	3.004923E-19
4.560000E+03	2.539479E-18	3.018361E-19
4.570000E+03	2.551227E-18	3.031927E-19
4.580000E+03	2.563110E-18	3.045647E-19
4.590000E+03	2.575130E-18	3.059524E-19
4.600000E+03	2.587289E-18	3.073561E-19
4.610000E+03	2.599572E-18	3.087737E-19
4.620000E+03	2.612024E-18	3.102108E-19
4.630000E+03	2.624607E-18	3.116628E-19
4.640000E+03	2.637346E-18	3.131327E-19
4.650000E+03	2.650248E-18	3.146212E-19
4.660000E+03	2.663291E-18	3.161258E-19
4.670000E+03	2.676528E-18	3.176527E-19
4.680000E+03	2.689915E-18	3.191967E-19
4.690000E+03	2.703481E-18	3.207611E-19
4.700000E+03	2.717276E-18	3.223521E-19
4.710000E+03	2.731284E-18	3.239675E-19
4.720000E+03	2.745534E-18	3.256109E-19
4.730000E+03	2.760056E-18	3.272858E-19
4.740000E+03	2.774856E-18	3.289929E-19
4.750000E+03	2.789944E-18	3.307332E-19
4.760000E+03	2.805373E-18	3.325133E-19
4.770000E+03	2.821105E-18	3.343283E-19
4.780000E+03	2.837196E-18	3.361850E-19
4.790000E+03	2.853654E-18	3.380843E-19
4.800000E+03	2.870464E-18	3.400244E-19
4.810000E+03	2.887684E-18	3.420123E-19
4.820000E+03	2.905301E-18	3.440461E-19
4.830000E+03	2.923326E-18	3.461273E-19
4.840000E+03	2.941768E-18	3.482569E-19
4.850000E+03	2.960644E-18	3.504368E-19
4.860000E+03	2.980018E-18	3.526746E-19
4.870000E+03	2.999825E-18	3.549626E-19
4.880000E+03	3.020135E-18	3.573091E-19
4.890000E+03	3.040936E-18	3.597125E-19
4.900000E+03	3.062271E-18	3.621780E-19
4.910000E+03	3.084130E-18	3.647042E-19
4.920000E+03	3.106529E-18	3.672930E-19
4.930000E+03	3.129512E-18	3.699498E-19
4.940000E+03	3.153038E-18	3.726693E-19
4.950000E+03	3.177152E-18	3.754571E-19
4.960000E+03	3.201868E-18	3.783149E-19
4.970000E+03	3.227204E-18	3.812443E-19
4.980000E+03	3.253141E-18	3.842434E-19
4.990000E+03	3.279694E-18	3.873138E-19
5.000000E+03	3.306907E-18	3.904607E-19
5.010000E+03	3.334728E-18	3.936778E-19
5.020000E+03	3.363231E-18	3.969739E-19
5.030000E+03	3.392365E-18	4.003429E-19
5.040000E+03	3.422137E-18	4.037857E-19
5.050000E+03	3.452590E-18	4.073069E-19
5.060000E+03	3.483698E-18	4.109038E-19
5.070000E+03	3.515467E-18	4.145770E-19
5.080000E+03	3.547871E-18	4.183232E-19
5.090000E+03	3.580948E-18	4.221469E-19
5.100000E+03	3.614701E-18	4.260483E-19
5.110000E+03	3.649066E-18	4.300201E-19
5.120000E+03	3.684078E-18	4.340660E-19
5.130000E+03	3.719740E-18	4.381866E-19
5.140000E+03	3.756052E-18	4.423817E-19
5.150000E+03	3.792982E-18	4.466475E-19
5.160000E+03	3.830531E-18	4.509840E-19
5.170000E+03	3.868664E-18	4.553871E-19
5.180000E+03	3.907458E-18	4.598657E-19
5.190000E+03	3.946843E-18	4.644117E-19
5.200000E+03	3.986823E-18	4.690253E-19
5.210000E+03	4.027401E-18	4.737068E-19
5.220000E+03	4.068620E-18	4.784615E-19
5.230000E+03	4.110406E-18	4.832803E-19
5.240000E+03	4.152761E-18	4.881635E-19
5.250000E+03	4.195769E-18	4.931208E-19
5.260000E+03	4.239305E-18	4.981377E-19
5.270000E+03	4.283452E-18	5.032237E-19
5.280000E+03	4.328167E-18	5.083736E-19
5.290000E+03	4.373443E-18	5.135868E-19
5.300000E+03	4.419319E-18	5.188676E-19
5.310000E+03	4.465700E-18	5.242048E-19
5.320000E+03	4.512621E-18	5.296026E-19
5.330000E+03	4.560072E-18	5.350596E-19
5.340000E+03	4.608037E-18	5.405740E-19
5.350000E+03	4.656550E-18	5.461495E-19
5.360000E+03	4.705498E-18	5.517730E-19
5.370000E+03	4.754905E-18	5.574472E-19
5.380000E+03	4.804746E-18	5.631690E-19
5.390000E+03	4.854940E-18	5.689291E-19
5.400000E+03	4.905548E-18	5.747344E-19
5.410000E+03	4.956485E-18	5.805748E-19
5.420000E+03	5.007654E-18	5.864391E-19
5.430000E+03	5.059007E-18	5.923217E-19
5.440000E+03	5.110542E-18	5.982220E-19
5.450000E+03	5.162100E-18	6.041216E-19
5.460000E+03	5.213673E-18	6.100194E-19
5.470000E+03	5.265197E-18	6.159080E-19
5.480000E+03	5.316498E-18	6.217670E-19
5.490000E+03	5.367500E-18	6.275875E-19
5.500000E+03	5.418181E-18	6.333668E-19
5.510000E+03	5.468400E-18	6.390887E-19
5.520000E+03	5.518014E-18	6.447363E-19
5.530000E+03	5.566870E-18	6.502918E-19
5.540000E+03	5.614977E-18	6.557563E-19
5.550000E+03	5.662061E-18	6.610976E-19
5.560000E+03	5.708064E-18	6.663095E-19
5.570000E+03	5.752811E-18	6.713712E-19
5.580000E+03	5.796183E-18	6.762691E-19
5.590000E+03	5.838053E-18	6.809884E-19
5.600000E+03	5.878235E-18	6.855076E-19
5.610000E+03	5.916660E-18	6.898186E-19
5.620000E+03	5.953135E-18	6.938993E-19
5.630000E+03	5.987472E-18	6.977276E-19
5.640000E+03	6.019664E-18	7.013032E-19
5.650000E+03	6.049528E-18	7.046048E-19
5.660000E+03	6.076884E-18	7.076116E-19
5.670000E+03	6.101687E-18	7.103186E-19
5.680000E+03	6.123903E-18	7.127221E-19
5.690000E+03	6.143318E-18	7.147972E-19
5.700000E+03	6.159916E-18	7.165427E-19
5.710000E+03	6.173700E-18	7.179588E-19
5.720000E+03	6.184554E-18	7.190323E-19
5.730000E+03	6.192497E-18	7.197660E-19
5.740000E+03	6.197439E-18	7.201493E-19
5.750000E+03	6.199421E-18	7.201874E-19
5.760000E+03	6.198434E-18	7.198796E-19
5.770000E+03	6.194544E-18	7.192337E-19
5.780000E+03	6.187624E-18	7.182352E-19
5.790000E+03	6.177888E-18	7.169095E-19
5.800000E+03	6.165227E-18	7.152440E-19
5.810000E+03	6.149739E-18	7.132504E-19
5.820000E+03	6.131466E-18	7.109337E-19
5.830000E+03	6.110456E-18	7.083001E-19
5.840000E+03	6.086840E-18	7.053646E-19
5.850000E+03	6.060687E-18	7.021359E-19
5.860000E+03	6.032082E-18	6.986237E-19
5.870000E+03	6.001052E-18	6.948316E-19
5.880000E+03	5.967837E-18	6.907876E-19
5.890000E+03	5.932487E-18	6.864978E-19
5.900000E+03	5.895196E-18	6.819848E-19
5.910000E+03	5.856029E-18	6.772562E-19
5.920000E+03	5.815189E-18	6.723359E-19
5.930000E+03	5.772813E-18	6.672397E-19
5.940000E+03	5.729038E-18	6.619838E-19
5.950000E+03	5.683999E-18	6.565839E-19
5.960000E+03	5.637830E-18	6.510556E-19
5.970000E+03	5.590723E-18	6.454213E-19
5.980000E+03	5.542673E-18	6.396803E-19
5.990000E+03	5.493931E-18	6.338619E-19
6.000000E+03	5.444547E-18	6.279720E-19
6.010000E+03	5.394632E-18	6.220233E-19
6.020000E+03	5.344355E-18	6.160356E-19
6.030000E+03	5.293693E-18	6.100060E-19
6.040000E+03	5.242866E-18	6.039601E-19
6.050000E+03	5.191839E-18	5.978940E-19
6.060000E+03	5.140764E-18	5.918250E-19
6.070000E+03	5.089721E-18	5.857626E-19
6.080000E+03	5.038725E-18	5.797084E-19
6.090000E+03	4.987852E-18	5.736711E-19
6.100000E+03	4.937167E-18	5.676583E-19
6.110000E+03	4.886734E-18	5.616774E-19
6.120000E+03	4.836616E-18	5.557356E-19
6.130000E+03	4.786867E-18	5.498389E-19
6.140000E+03	4.737537E-18	5.439933E-19
6.150000E+03	4.688673E-18	5.382041E-19
6.160000E+03	4.640379E-18	5.324831E-19
6.170000E+03	4.592752E-18	5.268415E-19
6.180000E+03	4.545887E-18	5.212901E-19
6.190000E+03	4.499812E-18	5.158320E-19
6.200000E+03	4.454556E-18	5.104705E-19
6.210000E+03	4.410084E-18	5.052016E-19
6.220000E+03	4.366421E-18	5.000278E-19
6.230000E+03	4.323585E-18	4.949515E-19
6.240000E+03	4.281536E-18	4.899678E-19
6.250000E+03	4.240345E-18	4.850848E-19
6.260000E+03	4.200142E-18	4.803173E-19
6.270000E+03	4.160877E-18	4.756595E-19
6.280000E+03	4.122615E-18	4.711186E-19
6.290000E+03	4.085474E-18	4.667081E-19
6.300000E+03	4.049400E-18	4.624218E-19
6.310000E+03	4.014565E-18	4.582791E-19
6.320000E+03	3.981025E-18	4.542862E-19
6.330000E+03	3.948719E-18	4.504362E-19
6.340000E+03	3.917818E-18	4.467482E-19
6.350000E+03	3.888369E-18	4.432277E-19
6.360000E+03	3.860371E-18	4.398742E-19
6.370000E+03	3.833873E-18	4.366932E-19
6.380000E+03	3.809040E-18	4.337032E-19
6.390000E+03	3.785809E-18	4.308970E-19
6.400000E+03	3.764232E-18	4.282803E-19
6.410000E+03	3.744417E-18	4.258650E-19
6.420000E+03	3.726193E-18	4.236318E-19
6.430000E+03	3.709446E-18	4.215672E-19
6.440000E+03	3.694120E-18	4.196647E-19
6.450000E+03	3.680155E-18	4.179174E-19
6.460000E+03	3.667438E-18	4.163123E-19
6.470000E+03	3.655966E-18	4.148490E-19
6.480000E+03	3.645684E-18	4.135209E-19
6.490000E+03	3.636587E-18	4.123275E-19
6.500000E+03	3.628619E-18	4.112620E-19
6.510000E+03	3.621779E-18	4.103244E-19
6.520000E+03	3.616063E-18	4.095140E-19
6.530000E+03	3.611416E-18	4.088245E-19
6.540000E+03	3.607890E-18	4.082616E-19
6.550000E+03	3.605488E-18	4.078254E-19
6.560000E+03	3.604149E-18	4.075090E-19
6.570000E+03	3.603931E-18	4.073187E-19
6.580000E+03	3.604777E-18	4.072479E-19
6.590000E+03	3.606684E-18	4.072962E-19
6.600000E+03	3.609713E-18	4.074703E-19
6.610000E+03	3.613744E-18	4.077565E-19
6.620000E+03	3.618956E-18	4.081748E-19
6.630000E+03	3.625172E-18	4.087052E-19
6.640000E+03	3.632510E-18	4.093608E-19
6.650000E+03	3.640915E-18	4.101351E-19
6.660000E+03	3.650385E-18	4.110279E-19
6.670000E+03	3.660984E-18	4.120462E-19
6.680000E+03	3.672654E-18	4.131832E-19
6.690000E+03	3.685395E-18	4.144389E-19
6.700000E+03	3.699210E-18	4.158135E-19
6.710000E+03	3.714166E-18	4.173142E-19
6.720000E+03	3.730138E-18	4.189267E-19
6.730000E+03	3.747256E-18	4.206659E-19
6.740000E+03	3.765462E-18	4.225246E-19
6.750000E+03	3.784758E-18	4.245032E-19
6.760000E+03	3.805148E-18	4.266018E-19
6.770000E+03	3.826636E-18	4.288207E-19
6.780000E+03	3.849295E-18	4.311679E-19
6.790000E+03	3.872994E-18	4.336287E-19
6.800000E+03	3.897805E-18	4.362107E-19
6.810000E+03	3.923732E-18	4.389146E-19
6.820000E+03	3.950783E-18	4.417406E-19
6.830000E+03	3.978960E-18	4.446891E-19
6.840000E+03	4.008269E-18	4.477605E-19
6.850000E+03	4.038717E-18	4.509554E-19
6.860000E+03	4.070234E-18	4.542657E-19
6.870000E+03	4.102896E-18	4.576998E-19
6.880000E+03	4.136711E-18	4.612584E-19
6.890000E+03	4.171606E-18	4.649331E-19
6.900000E+03	4.207658E-18	4.687324E-19
6.910000E+03	4.244876E-18	4.726570E-19
6.920000E+03	4.283182E-18	4.766981E-19
6.930000E+03	4.322576E-18	4.808556E-19
6.940000E+03	4.363144E-18	4.851386E-19
6.950000E+03	4.404806E-18	4.895383E-19
6.960000E+03	4.447563E-18	4.940544E-19
6.970000E+03	4.491501E-18	4.986964E-19
6.980000E+03	4.536538E-18	5.034549E-19
6.990000E+03	4.582675E-18	5.083299E-19
7.000000E+03	4.629824E-18	5.133114E-19
7.010000E+03	4.678163E-18	5.184190E-19
7.020000E+03	4.727607E-18	5.236429E-19
7.030000E+03	4.778155E-18	5.289830E-19
7.040000E+03	4.829716E-18	5.344290E-19
7.050000E+03	4.882382E-18	5.399908E-19
7.060000E+03	4.936057E-18	5.456576E-19
7.070000E+03	4.990937E-18	5.514509E-19
7.080000E+03	5.046724E-18	5.573377E-19
7.090000E+03	5.103617E-18	5.633395E-19
7.100000E+03	5.161510E-18	5.694447E-19
7.110000E+03	5.220508E-18	5.756646E-19
7.120000E+03	5.280395E-18	5.819752E-19
7.130000E+03	5.341382E-18	5.883995E-19
7.140000E+03	5.403248E-18	5.949130E-19
7.150000E+03	5.466096E-18	6.015269E-19
7.160000E+03	5.529920E-18	6.082404E-19
7.170000E+03	5.594718E-18	6.150529E-19
7.180000E+03	5.660364E-18	6.219506E-19
7.190000E+03	5.726848E-18	6.289322E-19
7.200000E+03	5.794280E-18	6.360096E-19
7.210000E+03	5.862532E-18	6.431685E-19
7.220000E+03	5.931716E-18	6.504210E-19
7.230000E+03	6.001570E-18	6.577384E-19
7.240000E+03	6.072335E-18	6.651468E-19
7.250000E+03	6.143869E-18	6.726305E-19
7.260000E+03	6.216160E-18	6.801882E-19
7.270000E+03	6.289192E-18	6.878178E-19
7.280000E+03	6.362947E-18	6.955174E-19
7.290000E+03	6.437412E-18	7.032852E-19
7.300000E+03	6.512709E-18	7.111346E-19
7.310000E+03	6.588536E-18	7.190324E-19
7.320000E+03	6.665310E-18	7.270239E-19
7.330000E+03	6.742874E-18	7.350920E-19
7.340000E+03	6.821057E-18	7.432178E-19
7.350000E+03	6.900305E-18	7.514497E-19
7.360000E+03	6.980297E-18	7.597526E-19
7.370000E+03	7.061498E-18	7.681771E-19
7.380000E+03	7.143746E-18	7.767052E-19
7.390000E+03	7.227204E-18	7.853546E-19
7.400000E+03	7.312042E-18	7.941433E-19
7.410000E+03	7.398272E-18	8.030725E-19
7.420000E+03	7.486253E-18	8.121809E-19
7.430000E+03	7.576192E-18	8.214906E-19
7.440000E+03	7.667943E-18	8.309855E-19
7.450000E+03	7.761537E-18	8.406685E-19
7.460000E+03	7.857003E-18	8.505427E-19
7.470000E+03	7.954183E-18	8.605903E-19
7.480000E+03	8.052906E-18	8.707927E-19
7.490000E+03	8.152987E-18	8.811296E-19
7.500000E+03	8.254429E-18	8.916012E-19
7.510000E+03	8.357035E-18	9.021859E-19
7.520000E+03	8.460589E-18	9.128602E-19
7.530000E+03	8.565284E-18	9.236448E-19
7.540000E+03	8.670687E-18	9.344928E-19
7.550000E+03	8.776771E-18	9.454011E-19
7.560000E+03	8.883509E-18	9.563669E-19
7.570000E+03	8.990874E-18	9.673870E-19
7.580000E+03	9.098838E-18	9.784584E-19
7.590000E+03	9.207142E-18	9.895532E-19
7.600000E+03	9.315743E-18	1.000667E-18
7.610000E+03	9.424836E-18	1.011820E-18
7.620000E+03	9.534143E-18	1.022983E-18
7.630000E+03	9.643858E-18	1.034176E-18
7.640000E+03	9.753439E-18	1.045342E-18
7.650000E+03	9.863321E-18	1.056526E-18
7.660000E+03	9.973196E-18	1.067697E-18
7.670000E+03	1.008299E-17	1.078847E-18
7.680000E+03	1.019264E-17	1.089967E-18
7.690000E+03	1.030233E-17	1.101078E-18
7.700000E+03	1.041171E-17	1.112144E-18
7.710000E+03	1.052070E-17	1.123155E-18
7.720000E+03	1.062948E-17	1.134132E-18
7.730000E+03	1.073798E-17	1.145064E-18
7.740000E+03	1.084580E-17	1.155914E-18
7.750000E+03	1.095315E-17	1.166699E-18
7.760000E+03	1.105992E-17	1.177411E-18
