#wls	flux	fluxerr
1.600000E+03	1.022239E-16	2.858312E-17
1.640000E+03	1.056786E-16	2.951150E-17
1.680000E+03	1.090417E-16	3.041188E-17
1.720000E+03	1.122675E-16	3.126872E-17
1.760000E+03	1.153445E-16	3.208170E-17
1.800000E+03	1.182210E-16	3.283338E-17
1.840000E+03	1.208577E-16	3.351622E-17
1.880000E+03	1.232405E-16	3.412298E-17
1.920000E+03	1.253043E-16	3.463949E-17
1.960000E+03	1.270225E-16	3.505486E-17
2.000000E+03	1.283398E-16	3.535819E-17
2.040000E+03	1.292310E-16	3.553890E-17
2.080000E+03	1.296277E-16	3.558294E-17
2.120000E+03	1.294885E-16	3.547533E-17
2.160000E+03	1.287626E-16	3.520746E-17
2.200000E+03	1.273852E-16	3.475795E-17
2.240000E+03	1.252954E-16	3.411607E-17
2.280000E+03	1.224978E-16	3.327960E-17
2.320000E+03	1.190287E-16	3.226451E-17
2.360000E+03	1.150122E-16	3.110107E-17
2.400000E+03	1.105398E-16	2.981982E-17
2.440000E+03	1.057039E-16	2.844221E-17
2.480000E+03	1.005879E-16	2.699607E-17
2.520000E+03	9.525487E-17	2.549480E-17
2.560000E+03	8.976313E-17	2.395900E-17
2.600000E+03	8.417484E-17	2.240176E-17
2.640000E+03	7.854184E-17	2.084138E-17
2.680000E+03	7.291838E-17	1.928888E-17
2.720000E+03	6.734709E-17	1.775945E-17
2.760000E+03	6.187957E-17	1.626349E-17
2.800000E+03	5.655282E-17	1.481398E-17
2.840000E+03	5.141278E-17	1.341996E-17
2.880000E+03	4.649363E-17	1.209292E-17
2.920000E+03	4.183505E-17	1.084035E-17
2.960000E+03	3.746255E-17	9.670734E-18
2.989568E+03	2.390046E-16	6.151862E-17
2.989768E+03	2.394277E-16	6.162629E-17
2.991769E+03	2.398611E-16	6.172557E-17
2.991969E+03	2.402459E-16	6.182335E-17
2.993369E+03	2.405865E-16	6.190237E-17
2.993569E+03	2.409584E-16	6.199683E-17
2.994969E+03	2.412607E-16	6.206594E-17
2.995769E+03	2.415723E-16	6.214114E-17
2.996569E+03	2.418838E-16	6.221631E-17
2.996769E+03	2.421791E-16	6.229102E-17
2.997170E+03	2.424373E-16	6.235492E-17
2.997370E+03	2.427197E-16	6.242632E-17
2.998769E+03	2.429839E-16	6.248548E-17
3.012770E+03	2.433107E-16	6.248152E-17
3.013170E+03	2.435306E-16	6.253546E-17
3.013970E+03	2.437401E-16	6.258419E-17
3.014770E+03	2.439368E-16	6.262964E-17
3.015771E+03	2.441349E-16	6.267413E-17
3.016371E+03	2.443432E-16	6.272379E-17
3.016971E+03	2.445388E-16	6.277018E-17
3.017771E+03	2.447484E-16	6.281890E-17
3.019171E+03	2.449234E-16	6.285487E-17
3.019371E+03	2.450781E-16	6.289330E-17
3.019571E+03	2.452073E-16	6.292517E-17
3.020371E+03	2.453274E-16	6.295087E-17
3.021372E+03	2.454359E-16	6.297231E-17
3.022171E+03	2.455432E-16	6.299471E-17
3.022972E+03	2.456122E-16	6.300727E-17
3.023371E+03	2.456914E-16	6.302503E-17
3.023571E+03	2.457438E-16	6.303719E-17
3.023771E+03	2.457835E-16	6.304608E-17
3.024971E+03	2.458293E-16	6.305012E-17
3.025171E+03	2.458561E-16	6.305571E-17
3.025771E+03	2.458855E-16	6.305937E-17
3.025971E+03	2.458867E-16	6.305841E-17
3.027772E+03	2.458852E-16	6.304642E-17
3.027972E+03	2.458609E-16	6.303889E-17
3.028972E+03	2.458415E-16	6.302748E-17
3.031972E+03	2.458219E-16	6.300309E-17
3.032172E+03	2.457720E-16	6.298901E-17
3.032372E+03	2.457221E-16	6.297492E-17
3.033773E+03	2.456541E-16	6.294845E-17
3.033973E+03	2.455786E-16	6.292780E-17
3.034372E+03	2.454915E-16	6.290291E-17
3.034573E+03	2.454031E-16	6.287897E-17
3.034773E+03	2.452892E-16	6.284850E-17
3.035372E+03	2.451778E-16	6.281608E-17
3.036172E+03	2.450805E-16	6.278597E-17
3.036772E+03	2.449307E-16	6.274372E-17
3.036972E+03	2.447655E-16	6.270012E-17
3.037372E+03	2.445888E-16	6.265227E-17
3.038172E+03	2.444146E-16	6.260251E-17
3.038372E+03	2.442623E-16	6.256221E-17
3.038572E+03	2.440587E-16	6.250877E-17
3.038772E+03	2.438808E-16	6.246191E-17
3.038972E+03	2.436773E-16	6.240850E-17
3.040373E+03	2.434685E-16	6.234601E-17
3.040973E+03	2.432418E-16	6.228411E-17
3.041173E+03	2.429998E-16	6.222087E-17
3.042573E+03	2.427398E-16	6.214530E-17
3.042773E+03	2.424851E-16	6.207880E-17
3.043173E+03	2.421931E-16	6.200150E-17
3.044173E+03	2.419434E-16	6.193114E-17
3.044373E+03	2.416502E-16	6.185481E-17
3.044773E+03	2.413199E-16	6.176771E-17
3.045173E+03	2.409767E-16	6.167732E-17
3.045373E+03	2.406322E-16	6.158787E-17
3.045574E+03	2.402622E-16	6.149189E-17
3.046174E+03	2.399203E-16	6.140057E-17
3.047573E+03	2.395578E-16	6.129890E-17
3.048573E+03	2.392183E-16	6.120569E-17
3.048973E+03	2.388367E-16	6.110551E-17
3.049173E+03	2.384154E-16	6.099647E-17
3.050373E+03	2.380132E-16	6.088596E-17
3.050573E+03	2.376047E-16	6.078019E-17
3.052574E+03	2.371690E-16	6.065612E-17
3.052774E+03	2.367093E-16	6.053728E-17
3.052974E+03	2.362239E-16	6.041189E-17
3.055574E+03	2.357920E-16	6.028507E-17
3.058575E+03	2.353496E-16	6.015313E-17
3.059974E+03	2.348461E-16	6.001563E-17
3.061174E+03	2.343668E-16	5.988564E-17
3.061374E+03	2.338430E-16	5.975053E-17
3.061774E+03	2.333075E-16	5.961122E-17
3.062174E+03	2.327848E-16	5.947517E-17
3.065175E+03	2.322528E-16	5.932054E-17
3.066775E+03	2.317119E-16	5.917242E-17
3.069375E+03	2.311773E-16	5.901974E-17
3.071376E+03	2.306388E-16	5.886985E-17
3.071575E+03	2.300635E-16	5.872176E-17
3.072975E+03	2.294445E-16	5.855510E-17
3.073575E+03	2.288332E-16	5.839540E-17
3.075175E+03	2.282153E-16	5.822786E-17
3.075775E+03	2.275911E-16	5.806492E-17
3.076576E+03	2.269427E-16	5.789457E-17
3.077776E+03	2.262966E-16	5.772240E-17
3.079976E+03	2.256439E-16	5.754246E-17
3.081576E+03	2.249873E-16	5.736527E-17
3.081776E+03	2.242965E-16	5.718793E-17
3.081977E+03	2.236057E-16	5.701058E-17
3.082177E+03	2.229021E-16	5.682997E-17
3.084176E+03	2.222094E-16	5.664132E-17
3.084776E+03	2.214954E-16	5.645570E-17
3.085776E+03	2.207710E-16	5.626505E-17
3.086376E+03	2.200184E-16	5.606967E-17
3.087176E+03	2.192799E-16	5.587669E-17
3.088577E+03	2.185065E-16	5.567128E-17
3.089577E+03	2.177691E-16	5.547747E-17
3.089777E+03	2.169884E-16	5.527739E-17
3.092977E+03	2.162129E-16	5.506097E-17
3.094178E+03	2.154126E-16	5.485008E-17
3.094778E+03	2.145829E-16	5.463529E-17
3.096377E+03	2.137848E-16	5.442274E-17
3.096577E+03	2.129398E-16	5.420646E-17
3.097177E+03	2.120844E-16	5.398522E-17
3.098577E+03	2.112465E-16	5.376384E-17
3.098777E+03	2.103758E-16	5.354110E-17
3.098977E+03	2.095180E-16	5.332163E-17
3.099177E+03	2.086216E-16	5.309236E-17
3.099977E+03	2.077416E-16	5.286385E-17
3.100178E+03	2.068452E-16	5.263461E-17
3.100378E+03	2.059360E-16	5.240212E-17
3.100778E+03	2.050151E-16	5.216554E-17
3.102178E+03	2.040872E-16	5.192159E-17
3.102578E+03	2.031406E-16	5.167853E-17
3.102778E+03	2.022313E-16	5.144610E-17
3.103378E+03	2.012730E-16	5.119898E-17
3.103578E+03	2.003380E-16	5.096006E-17
3.104978E+03	1.993842E-16	5.070976E-17
3.105578E+03	1.984130E-16	5.045946E-17
3.106179E+03	1.974290E-16	5.020594E-17
3.107178E+03	1.964342E-16	4.994758E-17
3.107579E+03	1.954361E-16	4.969163E-17
3.108978E+03	1.944307E-16	4.942849E-17
3.109178E+03	1.934186E-16	4.917013E-17
3.109978E+03	1.923842E-16	4.890292E-17
3.110178E+03	1.913464E-16	4.863805E-17
3.110578E+03	1.902969E-16	4.836917E-17
3.110778E+03	1.892462E-16	4.810108E-17
3.111178E+03	1.881839E-16	4.782898E-17
3.111378E+03	1.871076E-16	4.755439E-17
3.111978E+03	1.860076E-16	4.727175E-17
3.112379E+03	1.849324E-16	4.699643E-17
3.113379E+03	1.838218E-16	4.670912E-17
3.114179E+03	1.827229E-16	4.642585E-17
3.114779E+03	1.815972E-16	4.613683E-17
3.115379E+03	1.805100E-16	4.585760E-17
3.115579E+03	1.793693E-16	4.556683E-17
3.115979E+03	1.782426E-16	4.527861E-17
3.116779E+03	1.770922E-16	4.498245E-17
3.118180E+03	1.759576E-16	4.468742E-17
3.118380E+03	1.748040E-16	4.439348E-17
3.119380E+03	1.736288E-16	4.409021E-17
3.119780E+03	1.724633E-16	4.379234E-17
3.119979E+03	1.712713E-16	4.348870E-17
3.120179E+03	1.700791E-16	4.318505E-17
3.120379E+03	1.688741E-16	4.287816E-17
3.120979E+03	1.676967E-16	4.257640E-17
3.121179E+03	1.664917E-16	4.226954E-17
3.121379E+03	1.652995E-16	4.196593E-17
3.121579E+03	1.640688E-16	4.165257E-17
3.121779E+03	1.628509E-16	4.134247E-17
3.121979E+03	1.616202E-16	4.102914E-17
3.122579E+03	1.603656E-16	4.070797E-17
3.122779E+03	1.591477E-16	4.039793E-17
3.122979E+03	1.578912E-16	4.007810E-17
3.123379E+03	1.566357E-16	3.975766E-17
3.123779E+03	1.553929E-16	3.944049E-17
3.123979E+03	1.541492E-16	3.912397E-17
3.124380E+03	1.528679E-16	3.879707E-17
3.124980E+03	1.515874E-16	3.846955E-17
3.125780E+03	1.503207E-16	3.814472E-17
3.125980E+03	1.490256E-16	3.781525E-17
3.126180E+03	1.477304E-16	3.748579E-17
3.126780E+03	1.464370E-16	3.715514E-17
3.127180E+03	1.451555E-16	3.682838E-17
3.127380E+03	1.438347E-16	3.649245E-17
3.127780E+03	1.425275E-16	3.615922E-17
3.127980E+03	1.412066E-16	3.582332E-17
3.129180E+03	1.398642E-16	3.547806E-17
3.129380E+03	1.385303E-16	3.513895E-17
3.129580E+03	1.372094E-16	3.480311E-17
3.130181E+03	1.358900E-16	3.446616E-17
3.130381E+03	1.345690E-16	3.413036E-17
3.130581E+03	1.332223E-16	3.378805E-17
3.130981E+03	1.318763E-16	3.344522E-17
3.131180E+03	1.305039E-16	3.309644E-17
3.132180E+03	1.291346E-16	3.274554E-17
3.132380E+03	1.277890E-16	3.240362E-17
3.132580E+03	1.264563E-16	3.206498E-17
3.132780E+03	1.250863E-16	3.171691E-17
3.133380E+03	1.237037E-16	3.136426E-17
3.133580E+03	1.223120E-16	3.101070E-17
3.133780E+03	1.209189E-16	3.065682E-17
3.133980E+03	1.195244E-16	3.030261E-17
3.134380E+03	1.181435E-16	2.995120E-17
3.134580E+03	1.167466E-16	2.959639E-17
3.134780E+03	1.153444E-16	2.924028E-17
3.135180E+03	1.139442E-16	2.888405E-17
3.135580E+03	1.125452E-16	2.852815E-17
3.135780E+03	1.111353E-16	2.817014E-17
3.136381E+03	1.097279E-16	2.781155E-17
3.136581E+03	1.083282E-16	2.745619E-17
3.137181E+03	1.069323E-16	2.710058E-17
3.137581E+03	1.055229E-16	2.674221E-17
3.137781E+03	1.041552E-16	2.639501E-17
3.137981E+03	1.027632E-16	2.604166E-17
3.138781E+03	1.013510E-16	2.568152E-17
3.138981E+03	9.994215E-17	2.532396E-17
3.139581E+03	9.855119E-17	2.496985E-17
3.140981E+03	9.715605E-17	2.461254E-17
3.141181E+03	9.574838E-17	2.425540E-17
3.141581E+03	9.433482E-17	2.389625E-17
3.141781E+03	9.292834E-17	2.353944E-17
3.141981E+03	9.149626E-17	2.317617E-17
3.142582E+03	9.008960E-17	2.281834E-17
3.142782E+03	8.868182E-17	2.246127E-17
3.143182E+03	8.724243E-17	2.209572E-17
3.143381E+03	8.581026E-17	2.173251E-17
3.144581E+03	8.437284E-17	2.136561E-17
3.144781E+03	8.294182E-17	2.100277E-17
3.144981E+03	8.152490E-17	2.064352E-17
3.145181E+03	8.011313E-17	2.028558E-17
3.145381E+03	7.870517E-17	1.992862E-17
3.145581E+03	7.726383E-17	1.956323E-17
3.145981E+03	7.584859E-17	1.920404E-17
3.146181E+03	7.445471E-17	1.885070E-17
3.146381E+03	7.302486E-17	1.848828E-17
3.146581E+03	7.160141E-17	1.812748E-17
3.146781E+03	7.017024E-17	1.776476E-17
3.147181E+03	6.873819E-17	1.740143E-17
3.147381E+03	6.732751E-17	1.704393E-17
3.147981E+03	6.591249E-17	1.668460E-17
3.148182E+03	6.452617E-17	1.633331E-17
3.148382E+03	6.311029E-17	1.597456E-17
3.148782E+03	6.170762E-17	1.561881E-17
3.148982E+03	6.032252E-17	1.526789E-17
3.149382E+03	5.890566E-17	1.490861E-17
3.149582E+03	5.749356E-17	1.455089E-17
3.149982E+03	5.607664E-17	1.419165E-17
3.150982E+03	5.469150E-17	1.383956E-17
3.151182E+03	5.329856E-17	1.348678E-17
3.151382E+03	5.190817E-17	1.313466E-17
3.151582E+03	5.051007E-17	1.278060E-17
3.151982E+03	4.915334E-17	1.243675E-17
3.152182E+03	4.779243E-17	1.209214E-17
3.152582E+03	4.639326E-17	1.173761E-17
3.152782E+03	4.501305E-17	1.138816E-17
3.152982E+03	4.365208E-17	1.104359E-17
3.153382E+03	4.229650E-17	1.070016E-17
3.153582E+03	4.091751E-17	1.035107E-17
3.154183E+03	3.954669E-17	1.000362E-17
3.154383E+03	3.822417E-17	9.668856E-18
3.154783E+03	3.690057E-17	9.333631E-18
3.155182E+03	3.555124E-17	8.991931E-18
3.155383E+03	3.419526E-17	8.648768E-18
3.155582E+03	3.287651E-17	8.315040E-18
3.155782E+03	3.154489E-17	7.978071E-18
3.156182E+03	3.021858E-17	7.642288E-18
3.157182E+03	2.891459E-17	7.311689E-18
3.157382E+03	2.760730E-17	6.980954E-18
3.157782E+03	2.631941E-17	6.654991E-18
3.158182E+03	2.500708E-17	6.322879E-18
3.158382E+03	2.369072E-17	5.989911E-18
3.158782E+03	2.240660E-17	5.664981E-18
3.158982E+03	2.110819E-17	5.336588E-18
3.159182E+03	1.983801E-17	5.015349E-18
3.159382E+03	1.859223E-17	4.700292E-18
3.159582E+03	1.732460E-17	4.379722E-18
3.159782E+03	1.606466E-17	4.061113E-18
3.159982E+03	1.483552E-17	3.750307E-18
3.160183E+03	1.357684E-17	3.432042E-18
3.160383E+03	1.233046E-17	3.116905E-18
3.160983E+03	1.114022E-17	2.815845E-18
3.161583E+03	9.935284E-18	2.511111E-18
3.161783E+03	8.748566E-18	2.211122E-18
3.162183E+03	7.547618E-18	1.907507E-18
3.162383E+03	6.341209E-18	1.602575E-18
3.162783E+03	5.170144E-18	1.306560E-18
3.162983E+03	3.978471E-18	1.005387E-18
3.163183E+03	2.814146E-18	7.111378E-19
3.163383E+03	1.634776E-18	4.131004E-19
3.163783E+03	4.712339E-19	1.190733E-19
3.163983E+03	-6.819014E-19	-1.723017E-19
3.164383E+03	-1.793478E-18	-4.531526E-19
3.164583E+03	-2.915497E-18	-7.366329E-19
3.164783E+03	-4.039584E-18	-1.020623E-18
3.164983E+03	-5.129642E-18	-1.296003E-18
3.165183E+03	-6.237442E-18	-1.575853E-18
3.165383E+03	-7.296694E-18	-1.843425E-18
3.165583E+03	-8.365723E-18	-2.113455E-18
3.166184E+03	-9.435652E-18	-2.383592E-18
3.166384E+03	-1.046965E-17	-2.644736E-18
3.166584E+03	-1.151188E-17	-2.907947E-18
3.166784E+03	-1.253319E-17	-3.165862E-18
3.167184E+03	-1.350525E-17	-3.411249E-18
3.167383E+03	-1.447403E-17	-3.655869E-18
3.167584E+03	-1.543256E-17	-3.897885E-18
3.167784E+03	-1.638338E-17	-4.137946E-18
3.168383E+03	-1.732287E-17	-4.374937E-18
3.168983E+03	-1.825469E-17	-4.609956E-18
3.169183E+03	-1.917730E-17	-4.842839E-18
3.169583E+03	-2.008849E-17	-5.072712E-18
3.169783E+03	-2.099572E-17	-5.301683E-18
3.169983E+03	-2.189140E-17	-5.527729E-18
3.170183E+03	-2.277424E-17	-5.750520E-18
3.170383E+03	-2.365067E-17	-5.971684E-18
3.170583E+03	-2.451168E-17	-6.188946E-18
3.170783E+03	-2.535729E-17	-6.402308E-18
3.170983E+03	-2.618493E-17	-6.611123E-18
3.171383E+03	-2.699731E-17	-6.815923E-18
3.171583E+03	-2.779285E-17	-7.016611E-18
3.171783E+03	-2.857168E-17	-7.213072E-18
3.171983E+03	-2.933255E-17	-7.404989E-18
3.172184E+03	-3.007800E-17	-7.593004E-18
3.172384E+03	-3.080547E-17	-7.776474E-18
3.172584E+03	-3.151625E-17	-7.955720E-18
3.173184E+03	-3.220944E-17	-8.130149E-18
3.173384E+03	-3.286627E-17	-8.295755E-18
3.173584E+03	-3.349485E-17	-8.454222E-18
3.173784E+03	-3.414399E-17	-8.617871E-18
3.173984E+03	-3.480084E-17	-8.783459E-18
3.174184E+03	-3.542430E-17	-8.940612E-18
3.174384E+03	-3.604648E-17	-9.097434E-18
3.174584E+03	-3.659284E-17	-9.235115E-18
3.174784E+03	-3.717006E-17	-9.380578E-18
3.174984E+03	-3.772286E-17	-9.519872E-18
3.175184E+03	-3.827054E-17	-9.657866E-18
3.175384E+03	-3.877453E-17	-9.784827E-18
3.175584E+03	-3.923355E-17	-9.900438E-18
3.175784E+03	-3.969899E-17	-1.001766E-17
3.175984E+03	-4.015160E-17	-1.013164E-17
3.176184E+03	-4.057208E-17	-1.023751E-17
3.176384E+03	-4.100414E-17	-1.034630E-17
3.176584E+03	-4.139893E-17	-1.044567E-17
3.176784E+03	-4.175387E-17	-1.053499E-17
3.176984E+03	-4.211912E-17	-1.062690E-17
3.177384E+03	-4.246407E-17	-1.071345E-17
3.177584E+03	-4.273807E-17	-1.078233E-17
3.177784E+03	-4.304935E-17	-1.086062E-17
3.177984E+03	-4.331309E-17	-1.092690E-17
3.178185E+03	-4.357554E-17	-1.099286E-17
3.178385E+03	-4.376216E-17	-1.103969E-17
3.178585E+03	-4.398478E-17	-1.109560E-17
3.178785E+03	-4.414185E-17	-1.113497E-17
3.179185E+03	-4.429149E-17	-1.117220E-17
3.179385E+03	-4.444986E-17	-1.121189E-17
3.179785E+03	-4.458537E-17	-1.124556E-17
3.180184E+03	-4.470032E-17	-1.127404E-17
3.180385E+03	-4.477257E-17	-1.129200E-17
3.180584E+03	-4.481398E-17	-1.130219E-17
3.180784E+03	-4.483997E-17	-1.130849E-17
3.180984E+03	-4.485439E-17	-1.131187E-17
3.181184E+03	-4.480583E-17	-1.129936E-17
3.181584E+03	-4.477169E-17	-1.129024E-17
3.181784E+03	-4.471156E-17	-1.127481E-17
3.181984E+03	-4.459746E-17	-1.124578E-17
3.182184E+03	-4.445635E-17	-1.120994E-17
3.182384E+03	-4.431395E-17	-1.117378E-17
3.182584E+03	-4.413814E-17	-1.112920E-17
3.182784E+03	-4.394176E-17	-1.107943E-17
3.182984E+03	-4.370038E-17	-1.101831E-17
3.183184E+03	-4.344615E-17	-1.095396E-17
3.183384E+03	-4.315978E-17	-1.088151E-17
3.183584E+03	-4.284899E-17	-1.080291E-17
3.183784E+03	-4.253047E-17	-1.072236E-17
3.183984E+03	-4.217854E-17	-1.063339E-17
3.184185E+03	-4.176361E-17	-1.052854E-17
3.184385E+03	-4.131140E-17	-1.041430E-17
3.184585E+03	-4.087076E-17	-1.030298E-17
3.184785E+03	-4.040697E-17	-1.018584E-17
3.185185E+03	-3.990614E-17	-1.005913E-17
3.185385E+03	-3.936136E-17	-9.921574E-18
3.185585E+03	-3.877800E-17	-9.774306E-18
3.185785E+03	-3.818949E-17	-9.625746E-18
3.185985E+03	-3.756625E-17	-9.468442E-18
3.186385E+03	-3.692654E-17	-9.306778E-18
3.186585E+03	-3.625702E-17	-9.137825E-18
3.186785E+03	-3.554250E-17	-8.957539E-18
3.186985E+03	-3.479967E-17	-8.770128E-18
3.187185E+03	-3.400799E-17	-8.570414E-18
3.187385E+03	-3.319574E-17	-8.365525E-18
3.187585E+03	-3.232305E-17	-8.145415E-18
3.187785E+03	-3.147220E-17	-7.930819E-18
3.187985E+03	-3.054935E-17	-7.698089E-18
3.188385E+03	-2.960869E-17	-7.460709E-18
3.188585E+03	-2.863952E-17	-7.216336E-18
3.188785E+03	-2.761635E-17	-6.958367E-18
3.189185E+03	-2.658177E-17	-6.697380E-18
3.189385E+03	-2.550843E-17	-6.426800E-18
3.189585E+03	-2.440421E-17	-6.148453E-18
3.189785E+03	-2.326913E-17	-5.862344E-18
3.190386E+03	-2.210218E-17	-5.567961E-18
3.190586E+03	-2.090277E-17	-5.265686E-18
3.190786E+03	-1.967249E-17	-4.955647E-18
3.191186E+03	-1.840759E-17	-4.636798E-18
3.191385E+03	-1.711042E-17	-4.309945E-18
3.191586E+03	-1.577851E-17	-3.974359E-18
3.191785E+03	-1.441315E-17	-3.630364E-18
3.191985E+03	-1.301178E-17	-3.277313E-18
3.192385E+03	-1.158552E-17	-2.917942E-18
3.192585E+03	-1.012226E-17	-2.549344E-18
3.192785E+03	-8.609082E-18	-2.168193E-18
3.192985E+03	-7.067217E-18	-1.779834E-18
3.193185E+03	-5.492159E-18	-1.383134E-18
3.193585E+03	-3.865931E-18	-9.735431E-19
3.193785E+03	-2.197471E-18	-5.533683E-19
3.193985E+03	-4.975010E-19	-1.252780E-19
3.194185E+03	1.231603E-18	3.101284E-19
3.194385E+03	3.000398E-18	7.555093E-19
3.194585E+03	4.809488E-18	1.211016E-18
3.194785E+03	6.658849E-18	1.676641E-18
3.194985E+03	8.548738E-18	2.152449E-18
3.195185E+03	1.047941E-17	2.638504E-18
3.195385E+03	1.245101E-17	3.134839E-18
3.195585E+03	1.446377E-17	3.641518E-18
3.195785E+03	1.651746E-17	4.158476E-18
3.196186E+03	1.861372E-17	4.686018E-18
3.196386E+03	2.075106E-17	5.223974E-18
3.196586E+03	2.292958E-17	5.772270E-18
3.196786E+03	2.515313E-17	6.331879E-18
3.197186E+03	2.741803E-17	6.901711E-18
3.197386E+03	2.972653E-17	7.482636E-18
3.198186E+03	3.207812E-17	8.073821E-18
3.198786E+03	3.447332E-17	8.676074E-18
3.198986E+03	3.691059E-17	9.289259E-18
3.199186E+03	3.939290E-17	9.913750E-18
3.199586E+03	4.191924E-17	1.054905E-17
3.199786E+03	4.449036E-17	1.119582E-17
3.199986E+03	4.710525E-17	1.185357E-17
3.200186E+03	4.976905E-17	1.252360E-17
3.200386E+03	5.149531E-17	1.295768E-17
3.200786E+03	5.342772E-17	1.344331E-17
3.200986E+03	5.583183E-17	1.404790E-17
3.201186E+03	5.822696E-17	1.465020E-17
3.201786E+03	6.082613E-17	1.530310E-17
3.201987E+03	6.350046E-17	1.597555E-17
3.202387E+03	6.568393E-17	1.652411E-17
3.202587E+03	6.746058E-17	1.697067E-17
3.203187E+03	7.034816E-17	1.769585E-17
3.203387E+03	7.250433E-17	1.823780E-17
3.203787E+03	7.522823E-17	1.892209E-17
3.204387E+03	7.437433E-17	1.870601E-17
3.204786E+03	7.513549E-17	1.889657E-17
3.205386E+03	7.802215E-17	1.962120E-17
3.205586E+03	6.823510E-17	1.715953E-17
3.205786E+03	6.822010E-17	1.715536E-17
3.206186E+03	6.240031E-17	1.569112E-17
3.207186E+03	6.374276E-17	1.602683E-17
3.207786E+03	6.534815E-17	1.642932E-17
3.208587E+03	6.447895E-17	1.620928E-17
3.208787E+03	6.646693E-17	1.670865E-17
3.208987E+03	6.807158E-17	1.711163E-17
3.209387E+03	6.895370E-17	1.733257E-17
3.209787E+03	6.892759E-17	1.732520E-17
3.209987E+03	6.815100E-17	1.712960E-17
3.210387E+03	6.659263E-17	1.673712E-17
3.210987E+03	6.458694E-17	1.623188E-17
3.211987E+03	6.233883E-17	1.566506E-17
3.212587E+03	5.980287E-17	1.502675E-17
3.212787E+03	5.602575E-17	1.407734E-17
3.213187E+03	5.191312E-17	1.304337E-17
3.213387E+03	4.709885E-17	1.183349E-17
3.213787E+03	4.193353E-17	1.053522E-17
3.214388E+03	4.190219E-17	1.052661E-17
3.214988E+03	3.782929E-17	9.502751E-18
3.215988E+03	3.374381E-17	8.475482E-18
3.216188E+03	3.267602E-17	8.207092E-18
3.216588E+03	3.051596E-17	7.664199E-18
3.216787E+03	3.011854E-17	7.564210E-18
