#wls	flux	fluxerr
1.600000E+03	1.329244E-16	1.692173E-17
1.640000E+03	1.376634E-16	1.752180E-17
1.680000E+03	1.423012E-16	1.810868E-17
1.720000E+03	1.467929E-16	1.867665E-17
1.760000E+03	1.511040E-16	1.922131E-17
1.800000E+03	1.551805E-16	1.973579E-17
1.840000E+03	1.589790E-16	2.021460E-17
1.880000E+03	1.624524E-16	2.065173E-17
1.920000E+03	1.655358E-16	2.103898E-17
1.960000E+03	1.681766E-16	2.136967E-17
2.000000E+03	1.703209E-16	2.163699E-17
2.040000E+03	1.719148E-16	2.183410E-17
2.080000E+03	1.728923E-16	2.195271E-17
2.120000E+03	1.732054E-16	2.198675E-17
2.160000E+03	1.727872E-16	2.192780E-17
2.200000E+03	1.715824E-16	2.176890E-17
2.240000E+03	1.695074E-16	2.149954E-17
2.280000E+03	1.665049E-16	2.111256E-17
2.320000E+03	1.626492E-16	2.061746E-17
2.360000E+03	1.580505E-16	2.002834E-17
2.400000E+03	1.527942E-16	1.935609E-17
2.440000E+03	1.469461E-16	1.860915E-17
2.480000E+03	1.405673E-16	1.779533E-17
2.520000E+03	1.337289E-16	1.692374E-17
2.560000E+03	1.264937E-16	1.600239E-17
2.600000E+03	1.189412E-16	1.504140E-17
2.640000E+03	1.111440E-16	1.405005E-17
2.680000E+03	1.031731E-16	1.303734E-17
2.720000E+03	9.511406E-17	1.201415E-17
2.760000E+03	8.704582E-17	1.099049E-17
2.800000E+03	7.904929E-17	9.976606E-18
2.840000E+03	7.120367E-17	8.982505E-18
2.880000E+03	6.358934E-17	8.018333E-18
2.920000E+03	5.629244E-17	7.094942E-18
2.960000E+03	4.939952E-17	6.223213E-18
3.000000E+03	4.297704E-17	5.411474E-18
3.010000E+03	4.145012E-17	5.218561E-18
3.020000E+03	3.995741E-17	5.029997E-18
3.030000E+03	3.849712E-17	4.845557E-18
3.040000E+03	3.707035E-17	4.665378E-18
3.050000E+03	3.567886E-17	4.489679E-18
3.060000E+03	3.432098E-17	4.318252E-18
3.070000E+03	3.299830E-17	4.151291E-18
3.080000E+03	3.171070E-17	3.988784E-18
3.090000E+03	3.045810E-17	3.830718E-18
3.100000E+03	2.924057E-17	3.677100E-18
3.110000E+03	2.805951E-17	3.528106E-18
3.120000E+03	2.691453E-17	3.383682E-18
3.130000E+03	2.580633E-17	3.243920E-18
3.140000E+03	2.473499E-17	3.108824E-18
3.150000E+03	2.370049E-17	2.978393E-18
3.160000E+03	2.270314E-17	2.852662E-18
3.170000E+03	2.174302E-17	2.731640E-18
3.180000E+03	2.081887E-17	2.615168E-18
3.190000E+03	1.993133E-17	2.503324E-18
3.200000E+03	1.907931E-17	2.395970E-18
3.210000E+03	1.826244E-17	2.293058E-18
3.220000E+03	1.747987E-17	2.194479E-18
3.230000E+03	1.673046E-17	2.100090E-18
3.240000E+03	1.601420E-17	2.009886E-18
3.250000E+03	1.532929E-17	1.923641E-18
3.260000E+03	1.467557E-17	1.841333E-18
3.270000E+03	1.405201E-17	1.762830E-18
3.280000E+03	1.345712E-17	1.687946E-18
3.290000E+03	1.289052E-17	1.616631E-18
3.300000E+03	1.235076E-17	1.548700E-18
3.310000E+03	1.183698E-17	1.484047E-18
3.320000E+03	1.134815E-17	1.422539E-18
3.330000E+03	1.088339E-17	1.364066E-18
3.340000E+03	1.044153E-17	1.308479E-18
3.350000E+03	1.002157E-17	1.255652E-18
3.360000E+03	9.622549E-18	1.205464E-18
3.370000E+03	9.243652E-18	1.157811E-18
3.380000E+03	8.883834E-18	1.112561E-18
3.390000E+03	8.542217E-18	1.069604E-18
3.400000E+03	8.217956E-18	1.028833E-18
3.410000E+03	7.910135E-18	9.901318E-19
3.420000E+03	7.617988E-18	9.534038E-19
3.430000E+03	7.340777E-18	9.185559E-19
3.440000E+03	7.077706E-18	8.854878E-19
3.450000E+03	6.828111E-18	8.541154E-19
3.460000E+03	6.591277E-18	8.243486E-19
3.470000E+03	6.366533E-18	7.961030E-19
3.480000E+03	6.153249E-18	7.692989E-19
3.490000E+03	5.950766E-18	7.438533E-19
3.500000E+03	5.758603E-18	7.197055E-19
3.510000E+03	5.576174E-18	6.967817E-19
3.520000E+03	5.402882E-18	6.750067E-19
3.530000E+03	5.238117E-18	6.543038E-19
3.540000E+03	5.081487E-18	6.346235E-19
3.550000E+03	4.932462E-18	6.158991E-19
3.560000E+03	4.790460E-18	5.980576E-19
3.570000E+03	4.655095E-18	5.810503E-19
3.580000E+03	4.525957E-18	5.648256E-19
3.590000E+03	4.402625E-18	5.493308E-19
3.600000E+03	4.284669E-18	5.345115E-19
3.610000E+03	4.171852E-18	5.203383E-19
3.620000E+03	4.063869E-18	5.067726E-19
3.630000E+03	3.960438E-18	4.937789E-19
3.640000E+03	3.861464E-18	4.813451E-19
3.650000E+03	3.766743E-18	4.694457E-19
3.660000E+03	3.676110E-18	4.580596E-19
3.670000E+03	3.589433E-18	4.471701E-19
3.680000E+03	3.506576E-18	4.367603E-19
3.690000E+03	3.427375E-18	4.268091E-19
3.700000E+03	3.351754E-18	4.173072E-19
3.710000E+03	3.279519E-18	4.082300E-19
3.720000E+03	3.210564E-18	3.995642E-19
3.730000E+03	3.144807E-18	3.912992E-19
3.740000E+03	3.082038E-18	3.834088E-19
3.750000E+03	3.022229E-18	3.758893E-19
3.760000E+03	2.965179E-18	3.687154E-19
3.770000E+03	2.910839E-18	3.618810E-19
3.780000E+03	2.859087E-18	3.553706E-19
3.790000E+03	2.809809E-18	3.491700E-19
3.800000E+03	2.762916E-18	3.432677E-19
3.810000E+03	2.718301E-18	3.376505E-19
3.820000E+03	2.675884E-18	3.323082E-19
3.830000E+03	2.635589E-18	3.272311E-19
3.840000E+03	2.597321E-18	3.224075E-19
3.850000E+03	2.561012E-18	3.178286E-19
3.860000E+03	2.526599E-18	3.134865E-19
3.870000E+03	2.494000E-18	3.093708E-19
3.880000E+03	2.463157E-18	3.054744E-19
3.890000E+03	2.434018E-18	3.017905E-19
3.900000E+03	2.406510E-18	2.983100E-19
3.910000E+03	2.380587E-18	2.950270E-19
3.920000E+03	2.356181E-18	2.919331E-19
3.930000E+03	2.333264E-18	2.890246E-19
3.940000E+03	2.311776E-18	2.862939E-19
3.950000E+03	2.291672E-18	2.837354E-19
3.960000E+03	2.272876E-18	2.813395E-19
3.970000E+03	2.255381E-18	2.791054E-19
3.980000E+03	2.239116E-18	2.770240E-19
3.990000E+03	2.224039E-18	2.750900E-19
4.000000E+03	2.210097E-18	2.732970E-19
4.010000E+03	2.197272E-18	2.716424E-19
4.020000E+03	2.185496E-18	2.701178E-19
4.030000E+03	2.174754E-18	2.687212E-19
4.040000E+03	2.164982E-18	2.674447E-19
4.050000E+03	2.156166E-18	2.662865E-19
4.060000E+03	2.148247E-18	2.652391E-19
4.070000E+03	2.141199E-18	2.642991E-19
4.080000E+03	2.134994E-18	2.634633E-19
4.090000E+03	2.129610E-18	2.627287E-19
4.100000E+03	2.124992E-18	2.620884E-19
4.110000E+03	2.121118E-18	2.615397E-19
4.120000E+03	2.117952E-18	2.610781E-19
4.130000E+03	2.115477E-18	2.607013E-19
4.140000E+03	2.113675E-18	2.604072E-19
4.150000E+03	2.112495E-18	2.601893E-19
4.160000E+03	2.111941E-18	2.600481E-19
4.170000E+03	2.111966E-18	2.599777E-19
4.180000E+03	2.112557E-18	2.599765E-19
4.190000E+03	2.113703E-18	2.600429E-19
4.200000E+03	2.115360E-18	2.601718E-19
4.210000E+03	2.117518E-18	2.603616E-19
4.220000E+03	2.120155E-18	2.606095E-19
4.230000E+03	2.123278E-18	2.609165E-19
4.240000E+03	2.126833E-18	2.612758E-19
4.250000E+03	2.130831E-18	2.616887E-19
4.260000E+03	2.135234E-18	2.621507E-19
4.270000E+03	2.140056E-18	2.626631E-19
4.280000E+03	2.145245E-18	2.632197E-19
4.290000E+03	2.150799E-18	2.638201E-19
4.300000E+03	2.156715E-18	2.644641E-19
4.310000E+03	2.162945E-18	2.651454E-19
4.320000E+03	2.169502E-18	2.658658E-19
4.330000E+03	2.176318E-18	2.666169E-19
4.340000E+03	2.183410E-18	2.674006E-19
4.350000E+03	2.190688E-18	2.682061E-19
4.360000E+03	2.198150E-18	2.690330E-19
4.370000E+03	2.205847E-18	2.698873E-19
4.380000E+03	2.213776E-18	2.707690E-19
4.390000E+03	2.221953E-18	2.716797E-19
4.400000E+03	2.230380E-18	2.726196E-19
4.410000E+03	2.239019E-18	2.735843E-19
4.420000E+03	2.247908E-18	2.745782E-19
4.430000E+03	2.257013E-18	2.755970E-19
4.440000E+03	2.266332E-18	2.766408E-19
4.450000E+03	2.275853E-18	2.777076E-19
4.460000E+03	2.285576E-18	2.787977E-19
4.470000E+03	2.295468E-18	2.799070E-19
4.480000E+03	2.305551E-18	2.810380E-19
4.490000E+03	2.315793E-18	2.821869E-19
4.500000E+03	2.326177E-18	2.833516E-19
4.510000E+03	2.336730E-18	2.845353E-19
4.520000E+03	2.347403E-18	2.857320E-19
4.530000E+03	2.358205E-18	2.869428E-19
4.540000E+03	2.369149E-18	2.881692E-19
4.550000E+03	2.380212E-18	2.894084E-19
4.560000E+03	2.391414E-18	2.906628E-19
4.570000E+03	2.402737E-18	2.919302E-19
4.580000E+03	2.414203E-18	2.932132E-19
4.590000E+03	2.425817E-18	2.945124E-19
4.600000E+03	2.437584E-18	2.958284E-19
4.610000E+03	2.449490E-18	2.971593E-19
4.620000E+03	2.461579E-18	2.985107E-19
4.630000E+03	2.473817E-18	2.998782E-19
4.640000E+03	2.486228E-18	3.012647E-19
4.650000E+03	2.498816E-18	3.026707E-19
4.660000E+03	2.511564E-18	3.040941E-19
4.670000E+03	2.524519E-18	3.055405E-19
4.680000E+03	2.537642E-18	3.070052E-19
4.690000E+03	2.550956E-18	3.084909E-19
4.700000E+03	2.564512E-18	3.100038E-19
4.710000E+03	2.578294E-18	3.115416E-19
4.720000E+03	2.592326E-18	3.131076E-19
4.730000E+03	2.606641E-18	3.147055E-19
4.740000E+03	2.621244E-18	3.163357E-19
4.750000E+03	2.636142E-18	3.179993E-19
4.760000E+03	2.651390E-18	3.197026E-19
4.770000E+03	2.666948E-18	3.214407E-19
4.780000E+03	2.682869E-18	3.232202E-19
4.790000E+03	2.699161E-18	3.250417E-19
4.800000E+03	2.715807E-18	3.269032E-19
4.810000E+03	2.732863E-18	3.288114E-19
4.820000E+03	2.750313E-18	3.307641E-19
4.830000E+03	2.768167E-18	3.327626E-19
4.840000E+03	2.786438E-18	3.348083E-19
4.850000E+03	2.805136E-18	3.369024E-19
4.860000E+03	2.824327E-18	3.390524E-19
4.870000E+03	2.843949E-18	3.412512E-19
4.880000E+03	2.864066E-18	3.435062E-19
4.890000E+03	2.884672E-18	3.458164E-19
4.900000E+03	2.905808E-18	3.481868E-19
4.910000E+03	2.927461E-18	3.506158E-19
4.920000E+03	2.949649E-18	3.531052E-19
4.930000E+03	2.972417E-18	3.556603E-19
4.940000E+03	2.995724E-18	3.582761E-19
4.950000E+03	3.019614E-18	3.609579E-19
4.960000E+03	3.044102E-18	3.637072E-19
4.970000E+03	3.069204E-18	3.665257E-19
4.980000E+03	3.094903E-18	3.694115E-19
4.990000E+03	3.121214E-18	3.723660E-19
5.000000E+03	3.148177E-18	3.753938E-19
5.010000E+03	3.175742E-18	3.784889E-19
5.020000E+03	3.203982E-18	3.816599E-19
5.030000E+03	3.232846E-18	3.849005E-19
5.040000E+03	3.262342E-18	3.882114E-19
5.050000E+03	3.292510E-18	3.915972E-19
5.060000E+03	3.323325E-18	3.950550E-19
5.070000E+03	3.354796E-18	3.985855E-19
5.080000E+03	3.386893E-18	4.021850E-19
5.090000E+03	3.419655E-18	4.058580E-19
5.100000E+03	3.453084E-18	4.096045E-19
5.110000E+03	3.487117E-18	4.134168E-19
5.120000E+03	3.521786E-18	4.172988E-19
5.130000E+03	3.557091E-18	4.212501E-19
5.140000E+03	3.593034E-18	4.252708E-19
5.150000E+03	3.629578E-18	4.293562E-19
5.160000E+03	3.666725E-18	4.335066E-19
5.170000E+03	3.704438E-18	4.377175E-19
5.180000E+03	3.742794E-18	4.419975E-19
5.190000E+03	3.781726E-18	4.463387E-19
5.200000E+03	3.821239E-18	4.507416E-19
5.210000E+03	3.861339E-18	4.552065E-19
5.220000E+03	3.902070E-18	4.597386E-19
5.230000E+03	3.943364E-18	4.643296E-19
5.240000E+03	3.985222E-18	4.689794E-19
5.250000E+03	4.027726E-18	4.736976E-19
5.260000E+03	4.070759E-18	4.784701E-19
5.270000E+03	4.114400E-18	4.833062E-19
5.280000E+03	4.158607E-18	4.882005E-19
5.290000E+03	4.203374E-18	4.931522E-19
5.300000E+03	4.248739E-18	4.981658E-19
5.310000E+03	4.294613E-18	5.032303E-19
5.320000E+03	4.341029E-18	5.083496E-19
5.330000E+03	4.387981E-18	5.135226E-19
5.340000E+03	4.435454E-18	5.187477E-19
5.350000E+03	4.483484E-18	5.240286E-19
5.360000E+03	4.531967E-18	5.293532E-19
5.370000E+03	4.580928E-18	5.347240E-19
5.380000E+03	4.630348E-18	5.401386E-19
5.390000E+03	4.680146E-18	5.455875E-19
5.400000E+03	4.730384E-18	5.510777E-19
5.410000E+03	4.780973E-18	5.565988E-19
5.420000E+03	4.831824E-18	5.621400E-19
5.430000E+03	4.882884E-18	5.676951E-19
5.440000E+03	4.934151E-18	5.732638E-19
5.450000E+03	4.985474E-18	5.788284E-19
5.460000E+03	5.036841E-18	5.843874E-19
5.470000E+03	5.088197E-18	5.899342E-19
5.480000E+03	5.139374E-18	5.954494E-19
5.490000E+03	5.190306E-18	6.009253E-19
5.500000E+03	5.240970E-18	6.063593E-19
5.510000E+03	5.291235E-18	6.117359E-19
5.520000E+03	5.340961E-18	6.170392E-19
5.530000E+03	5.389999E-18	6.222520E-19
5.540000E+03	5.438358E-18	6.273754E-19
5.550000E+03	5.485768E-18	6.323785E-19
5.560000E+03	5.532176E-18	6.372551E-19
5.570000E+03	5.577408E-18	6.419853E-19
5.580000E+03	5.621344E-18	6.465558E-19
5.590000E+03	5.663863E-18	6.509528E-19
5.600000E+03	5.704779E-18	6.551553E-19
5.610000E+03	5.744021E-18	6.591554E-19
5.620000E+03	5.781399E-18	6.629315E-19
5.630000E+03	5.816713E-18	6.664616E-19
5.640000E+03	5.849948E-18	6.697440E-19
5.650000E+03	5.880912E-18	6.727575E-19
5.660000E+03	5.909425E-18	6.754818E-19
5.670000E+03	5.935433E-18	6.779116E-19
5.680000E+03	5.958900E-18	6.800433E-19
5.690000E+03	5.979614E-18	6.818535E-19
5.700000E+03	5.997560E-18	6.833411E-19
5.710000E+03	6.012738E-18	6.845067E-19
5.720000E+03	6.025034E-18	6.853383E-19
5.730000E+03	6.034475E-18	6.858395E-19
5.740000E+03	6.040968E-18	6.860009E-19
5.750000E+03	6.044563E-18	6.858286E-19
5.760000E+03	6.045252E-18	6.853227E-19
5.770000E+03	6.043100E-18	6.844913E-19
5.780000E+03	6.037982E-18	6.833212E-19
5.790000E+03	6.030103E-18	6.818363E-19
5.800000E+03	6.019351E-18	6.800248E-19
5.810000E+03	6.005814E-18	6.778975E-19
5.820000E+03	5.989529E-18	6.754594E-19
5.830000E+03	5.970536E-18	6.727160E-19
5.840000E+03	5.948951E-18	6.696810E-19
5.850000E+03	5.924836E-18	6.663622E-19
5.860000E+03	5.898261E-18	6.627683E-19
5.870000E+03	5.869254E-18	6.589032E-19
5.880000E+03	5.838047E-18	6.547939E-19
5.890000E+03	5.804697E-18	6.504472E-19
5.900000E+03	5.769399E-18	6.458859E-19
5.910000E+03	5.732236E-18	6.411198E-19
5.920000E+03	5.693415E-18	6.361728E-19
5.930000E+03	5.653078E-18	6.310613E-19
5.940000E+03	5.611365E-18	6.258013E-19
5.950000E+03	5.568408E-18	6.204083E-19
5.960000E+03	5.524339E-18	6.148972E-19
5.970000E+03	5.479347E-18	6.092896E-19
5.980000E+03	5.433426E-18	6.035851E-19
5.990000E+03	5.386819E-18	5.978112E-19
6.000000E+03	5.339576E-18	5.919736E-19
6.010000E+03	5.291805E-18	5.860846E-19
6.020000E+03	5.243668E-18	5.801625E-19
6.030000E+03	5.195142E-18	5.742047E-19
6.040000E+03	5.146441E-18	5.682353E-19
6.050000E+03	5.097531E-18	5.622505E-19
6.060000E+03	5.048558E-18	5.562667E-19
6.070000E+03	4.999599E-18	5.502924E-19
6.080000E+03	4.950669E-18	5.443293E-19
6.090000E+03	4.901838E-18	5.383853E-19
6.100000E+03	4.853173E-18	5.324675E-19
6.110000E+03	4.804735E-18	5.265829E-19
6.120000E+03	4.756582E-18	5.207378E-19
6.130000E+03	4.708768E-18	5.149380E-19
6.140000E+03	4.661341E-18	5.091889E-19
6.150000E+03	4.614350E-18	5.034955E-19
6.160000E+03	4.567891E-18	4.978684E-19
6.170000E+03	4.522064E-18	4.923183E-19
6.180000E+03	4.476958E-18	4.868547E-19
6.190000E+03	4.432603E-18	4.814809E-19
6.200000E+03	4.389027E-18	4.761994E-19
6.210000E+03	4.346195E-18	4.710064E-19
6.220000E+03	4.304131E-18	4.659042E-19
6.230000E+03	4.262854E-18	4.608947E-19
6.240000E+03	4.222324E-18	4.559734E-19
6.250000E+03	4.182613E-18	4.511478E-19
6.260000E+03	4.143846E-18	4.464311E-19
6.270000E+03	4.105976E-18	4.418180E-19
6.280000E+03	4.069068E-18	4.373152E-19
6.290000E+03	4.033238E-18	4.329349E-19
6.300000E+03	3.998435E-18	4.286712E-19
6.310000E+03	3.964828E-18	4.245417E-19
6.320000E+03	3.932471E-18	4.205521E-19
6.330000E+03	3.901311E-18	4.166960E-19
6.340000E+03	3.871510E-18	4.129904E-19
6.350000E+03	3.843120E-18	4.094404E-19
6.360000E+03	3.816138E-18	4.060450E-19
6.370000E+03	3.790616E-18	4.028093E-19
6.380000E+03	3.766716E-18	3.997500E-19
6.390000E+03	3.744377E-18	3.968600E-19
6.400000E+03	3.723654E-18	3.941443E-19
6.410000E+03	3.704651E-18	3.916135E-19
6.420000E+03	3.687202E-18	3.892492E-19
6.430000E+03	3.671197E-18	3.870393E-19
6.440000E+03	3.656577E-18	3.849770E-19
6.450000E+03	3.643285E-18	3.830557E-19
6.460000E+03	3.631212E-18	3.812635E-19
6.470000E+03	3.620355E-18	3.795994E-19
6.480000E+03	3.610659E-18	3.780573E-19
6.490000E+03	3.602122E-18	3.766364E-19
6.500000E+03	3.594688E-18	3.753303E-19
6.510000E+03	3.588356E-18	3.741386E-19
6.520000E+03	3.583126E-18	3.730606E-19
6.530000E+03	3.578940E-18	3.720900E-19
6.540000E+03	3.575855E-18	3.712322E-19
6.550000E+03	3.573872E-18	3.704866E-19
6.560000E+03	3.572931E-18	3.698468E-19
6.570000E+03	3.573092E-18	3.693183E-19
6.580000E+03	3.574297E-18	3.688946E-19
6.590000E+03	3.576545E-18	3.685753E-19
6.600000E+03	3.579897E-18	3.683660E-19
6.610000E+03	3.584236E-18	3.682543E-19
6.620000E+03	3.589737E-18	3.682575E-19
6.630000E+03	3.596229E-18	3.683576E-19
6.640000E+03	3.603827E-18	3.685660E-19
6.650000E+03	3.612476E-18	3.688763E-19
6.660000E+03	3.622179E-18	3.692883E-19
6.670000E+03	3.632995E-18	3.698077E-19
6.680000E+03	3.644869E-18	3.704282E-19
6.690000E+03	3.657803E-18	3.711495E-19
6.700000E+03	3.671799E-18	3.719711E-19
6.710000E+03	3.686923E-18	3.728993E-19
6.720000E+03	3.703054E-18	3.739211E-19
6.730000E+03	3.720320E-18	3.750491E-19
6.740000E+03	3.738663E-18	3.762767E-19
6.750000E+03	3.758087E-18	3.776037E-19
6.760000E+03	3.778596E-18	3.790299E-19
6.770000E+03	3.800195E-18	3.805553E-19
6.780000E+03	3.822956E-18	3.821865E-19
6.790000E+03	3.846750E-18	3.839098E-19
6.800000E+03	3.871648E-18	3.857318E-19
6.810000E+03	3.897657E-18	3.876526E-19
6.820000E+03	3.924782E-18	3.896720E-19
6.830000E+03	3.953028E-18	3.917898E-19
6.840000E+03	3.982402E-18	3.940062E-19
6.850000E+03	4.012911E-18	3.963210E-19
6.860000E+03	4.044485E-18	3.987268E-19
6.870000E+03	4.077202E-18	4.012305E-19
6.880000E+03	4.111068E-18	4.038321E-19
6.890000E+03	4.146011E-18	4.065238E-19
6.900000E+03	4.182111E-18	4.093127E-19
6.910000E+03	4.219373E-18	4.121988E-19
6.920000E+03	4.257722E-18	4.151738E-19
6.930000E+03	4.297158E-18	4.182372E-19
6.940000E+03	4.337767E-18	4.213964E-19
6.950000E+03	4.379468E-18	4.246431E-19
6.960000E+03	4.422261E-18	4.279765E-19
6.970000E+03	4.466235E-18	4.314044E-19
6.980000E+03	4.511307E-18	4.349181E-19
6.990000E+03	4.557477E-18	4.385168E-19
7.000000E+03	4.604659E-18	4.421917E-19
7.010000E+03	4.653032E-18	4.459590E-19
7.020000E+03	4.702509E-18	4.498099E-19
7.030000E+03	4.753093E-18	4.537437E-19
7.040000E+03	4.804692E-18	4.577508E-19
7.050000E+03	4.857400E-18	4.618397E-19
7.060000E+03	4.911121E-18	4.660004E-19
7.070000E+03	4.966052E-18	4.702508E-19
7.080000E+03	5.021895E-18	4.745619E-19
7.090000E+03	5.078850E-18	4.789520E-19
7.100000E+03	5.136813E-18	4.834104E-19
7.110000E+03	5.195887E-18	4.879462E-19
7.120000E+03	5.255861E-18	4.925386E-19
7.130000E+03	5.316944E-18	4.972066E-19
7.140000E+03	5.378917E-18	5.019291E-19
7.150000E+03	5.441883E-18	5.067148E-19
7.160000E+03	5.505840E-18	5.115628E-19
7.170000E+03	5.570784E-18	5.164721E-19
7.180000E+03	5.636593E-18	5.214305E-19
7.190000E+03	5.703258E-18	5.264367E-19
7.200000E+03	5.770890E-18	5.315001E-19
7.210000E+03	5.839359E-18	5.366081E-19
7.220000E+03	5.908781E-18	5.417706E-19
7.230000E+03	5.978897E-18	5.469631E-19
7.240000E+03	6.049947E-18	5.522070E-19
7.250000E+03	6.121793E-18	5.574892E-19
7.260000E+03	6.194424E-18	5.628077E-19
7.270000E+03	6.267825E-18	5.681607E-19
7.280000E+03	6.341982E-18	5.735463E-19
7.290000E+03	6.416882E-18	5.789625E-19
7.300000E+03	6.492650E-18	5.844201E-19
7.310000E+03	6.568985E-18	5.898915E-19
7.320000E+03	6.646306E-18	5.954134E-19
7.330000E+03	6.724459E-18	6.009714E-19
7.340000E+03	6.803275E-18	6.065498E-19
7.350000E+03	6.883199E-18	6.121876E-19
7.360000E+03	6.963915E-18	6.178559E-19
7.370000E+03	7.045887E-18	6.235950E-19
7.380000E+03	7.128955E-18	6.293898E-19
7.390000E+03	7.213282E-18	6.352538E-19
7.400000E+03	7.299038E-18	6.412011E-19
7.410000E+03	7.386235E-18	6.472316E-19
7.420000E+03	7.475234E-18	6.533756E-19
7.430000E+03	7.566242E-18	6.596499E-19
7.440000E+03	7.659116E-18	6.660407E-19
7.450000E+03	7.753887E-18	6.725492E-19
7.460000E+03	7.850588E-18	6.791767E-19
7.470000E+03	7.949062E-18	6.859084E-19
7.480000E+03	8.049142E-18	6.927284E-19
7.490000E+03	8.150645E-18	6.996199E-19
7.500000E+03	8.253576E-18	7.065822E-19
7.510000E+03	8.357736E-18	7.135973E-19
7.520000E+03	8.462913E-18	7.206459E-19
7.530000E+03	8.569296E-18	7.277434E-19
7.540000E+03	8.676449E-18	7.348518E-19
7.550000E+03	8.784348E-18	7.419685E-19
7.560000E+03	8.892967E-18	7.490907E-19
7.570000E+03	9.002282E-18	7.562157E-19
7.580000E+03	9.112272E-18	7.633412E-19
7.590000E+03	9.222680E-18	7.704451E-19
7.600000E+03	9.333470E-18	7.775239E-19
7.610000E+03	9.444840E-18	7.845939E-19
7.620000E+03	9.556513E-18	7.916316E-19
7.630000E+03	9.668687E-18	7.986529E-19
7.640000E+03	9.780821E-18	8.056129E-19
7.650000E+03	9.893349E-18	8.125473E-19
7.660000E+03	1.000596E-17	8.194304E-19
7.670000E+03	1.011859E-17	8.262565E-19
7.680000E+03	1.023116E-17	8.330194E-19
7.690000E+03	1.034387E-17	8.397346E-19
7.700000E+03	1.045636E-17	8.463738E-19
7.710000E+03	1.056854E-17	8.529299E-19
7.720000E+03	1.068060E-17	8.594179E-19
7.730000E+03	1.079246E-17	8.658308E-19
7.740000E+03	1.090372E-17	8.721382E-19
7.750000E+03	1.101457E-17	8.783549E-19
7.760000E+03	1.112492E-17	8.844737E-19
