#wls	flux	fluxerr
1.600000E+03	2.864902E-16	6.985889E-17
1.640000E+03	2.948148E-16	7.188754E-17
1.680000E+03	3.025969E-16	7.378370E-17
1.720000E+03	3.097768E-16	7.553288E-17
1.760000E+03	3.161673E-16	7.708938E-17
1.800000E+03	3.217564E-16	7.845031E-17
1.840000E+03	3.263505E-16	7.956844E-17
1.880000E+03	3.299016E-16	8.043210E-17
1.920000E+03	3.323036E-16	8.101542E-17
1.960000E+03	3.334027E-16	8.128094E-17
2.000000E+03	3.331624E-16	8.121977E-17
2.040000E+03	3.314784E-16	8.080650E-17
2.080000E+03	3.282681E-16	8.002106E-17
2.120000E+03	3.234754E-16	7.884978E-17
2.160000E+03	3.170347E-16	7.727673E-17
2.200000E+03	3.088497E-16	7.527848E-17
2.240000E+03	2.988415E-16	7.283587E-17
2.280000E+03	2.870671E-16	6.996284E-17
2.320000E+03	2.737676E-16	6.671827E-17
2.360000E+03	2.593493E-16	6.320122E-17
2.400000E+03	2.441369E-16	5.949086E-17
2.440000E+03	2.284229E-16	5.565853E-17
2.480000E+03	2.124198E-16	5.175606E-17
2.520000E+03	1.963477E-16	4.783708E-17
2.560000E+03	1.803841E-16	4.394492E-17
2.600000E+03	1.647102E-16	4.012370E-17
2.640000E+03	1.494705E-16	3.640866E-17
2.680000E+03	1.347979E-16	3.283217E-17
2.720000E+03	1.208101E-16	2.942292E-17
2.760000E+03	1.075963E-16	2.620258E-17
2.800000E+03	9.523149E-17	2.318943E-17
2.840000E+03	8.377070E-17	2.039683E-17
2.880000E+03	7.325464E-17	1.783466E-17
2.920000E+03	6.370812E-17	1.550894E-17
2.960000E+03	5.513516E-17	1.342060E-17
3.000000E+03	4.752048E-17	1.156586E-17
3.010000E+03	4.576263E-17	1.113772E-17
3.020000E+03	4.406082E-17	1.072323E-17
3.030000E+03	4.241595E-17	1.032263E-17
3.040000E+03	4.082486E-17	9.935135E-18
3.050000E+03	3.928826E-17	9.560915E-18
3.060000E+03	3.780482E-17	9.199653E-18
3.070000E+03	3.637402E-17	8.851217E-18
3.080000E+03	3.499301E-17	8.514914E-18
3.090000E+03	3.366274E-17	8.190975E-18
3.100000E+03	3.238042E-17	7.878720E-18
3.110000E+03	3.114609E-17	7.578158E-18
3.120000E+03	2.995835E-17	7.288946E-18
3.130000E+03	2.881527E-17	7.010618E-18
3.140000E+03	2.771669E-17	6.743129E-18
3.150000E+03	2.666070E-17	6.486014E-18
3.160000E+03	2.564652E-17	6.239089E-18
3.170000E+03	2.467285E-17	6.002030E-18
3.180000E+03	2.373840E-17	5.774523E-18
3.190000E+03	2.284232E-17	5.556366E-18
3.200000E+03	2.198339E-17	5.347254E-18
3.210000E+03	2.115997E-17	5.146795E-18
3.220000E+03	2.037164E-17	4.954879E-18
3.230000E+03	1.961683E-17	4.771131E-18
3.240000E+03	1.889477E-17	4.595355E-18
3.250000E+03	1.820427E-17	4.427267E-18
3.260000E+03	1.754395E-17	4.266529E-18
3.270000E+03	1.691329E-17	4.113014E-18
3.280000E+03	1.631070E-17	3.966332E-18
3.290000E+03	1.573564E-17	3.826355E-18
3.300000E+03	1.518707E-17	3.692828E-18
3.310000E+03	1.466352E-17	3.565393E-18
3.320000E+03	1.416448E-17	3.443925E-18
3.330000E+03	1.368897E-17	3.328187E-18
3.340000E+03	1.323587E-17	3.217902E-18
3.350000E+03	1.280426E-17	3.112853E-18
3.360000E+03	1.239330E-17	3.012827E-18
3.370000E+03	1.200213E-17	2.917619E-18
3.380000E+03	1.162994E-17	2.827032E-18
3.390000E+03	1.127593E-17	2.740870E-18
3.400000E+03	1.093920E-17	2.658915E-18
3.410000E+03	1.061889E-17	2.580955E-18
3.420000E+03	1.031459E-17	2.506891E-18
3.430000E+03	1.002522E-17	2.436462E-18
3.440000E+03	9.750293E-18	2.369547E-18
3.450000E+03	9.489083E-18	2.305970E-18
3.460000E+03	9.241015E-18	2.245591E-18
3.470000E+03	9.005328E-18	2.188225E-18
3.480000E+03	8.781415E-18	2.133724E-18
3.490000E+03	8.568799E-18	2.081972E-18
3.500000E+03	8.366837E-18	2.032812E-18
3.510000E+03	8.175110E-18	1.986142E-18
3.520000E+03	7.992867E-18	1.941779E-18
3.530000E+03	7.819755E-18	1.899637E-18
3.540000E+03	7.655196E-18	1.859576E-18
3.550000E+03	7.498726E-18	1.821484E-18
3.560000E+03	7.349918E-18	1.785254E-18
3.570000E+03	7.208224E-18	1.750756E-18
3.580000E+03	7.073426E-18	1.717934E-18
3.590000E+03	6.945100E-18	1.686687E-18
3.600000E+03	6.822851E-18	1.656918E-18
3.610000E+03	6.706513E-18	1.628586E-18
3.620000E+03	6.595662E-18	1.601589E-18
3.630000E+03	6.490032E-18	1.575862E-18
3.640000E+03	6.389368E-18	1.551342E-18
3.650000E+03	6.293433E-18	1.527972E-18
3.660000E+03	6.201998E-18	1.505696E-18
3.670000E+03	6.114849E-18	1.484462E-18
3.680000E+03	6.031831E-18	1.464232E-18
3.690000E+03	5.952798E-18	1.444971E-18
3.700000E+03	5.877556E-18	1.426632E-18
3.710000E+03	5.806121E-18	1.409218E-18
3.720000E+03	5.738251E-18	1.392670E-18
3.730000E+03	5.673911E-18	1.376981E-18
3.740000E+03	5.612967E-18	1.362116E-18
3.750000E+03	5.555335E-18	1.348056E-18
3.760000E+03	5.501023E-18	1.334802E-18
3.770000E+03	5.449805E-18	1.322300E-18
3.780000E+03	5.401691E-18	1.310552E-18
3.790000E+03	5.356639E-18	1.299547E-18
3.800000E+03	5.314473E-18	1.289243E-18
3.810000E+03	5.275200E-18	1.279642E-18
3.820000E+03	5.238779E-18	1.270733E-18
3.830000E+03	5.205081E-18	1.262484E-18
3.840000E+03	5.174026E-18	1.254877E-18
3.850000E+03	5.145658E-18	1.247921E-18
3.860000E+03	5.119812E-18	1.241578E-18
3.870000E+03	5.096491E-18	1.235846E-18
3.880000E+03	5.075614E-18	1.230708E-18
3.890000E+03	5.057147E-18	1.226154E-18
3.900000E+03	5.041053E-18	1.222175E-18
3.910000E+03	5.027213E-18	1.218742E-18
3.920000E+03	5.015598E-18	1.215848E-18
3.930000E+03	5.006210E-18	1.213494E-18
3.940000E+03	4.998980E-18	1.211663E-18
3.950000E+03	4.993835E-18	1.210337E-18
3.960000E+03	4.990750E-18	1.209509E-18
3.970000E+03	4.989651E-18	1.209161E-18
3.980000E+03	4.990514E-18	1.209289E-18
3.990000E+03	4.993313E-18	1.209885E-18
4.000000E+03	4.998021E-18	1.210943E-18
4.010000E+03	5.004540E-18	1.212439E-18
4.020000E+03	5.012844E-18	1.214366E-18
4.030000E+03	5.022915E-18	1.216720E-18
4.040000E+03	5.034733E-18	1.219496E-18
4.050000E+03	5.048240E-18	1.222680E-18
4.060000E+03	5.063381E-18	1.226259E-18
4.070000E+03	5.080140E-18	1.230228E-18
4.080000E+03	5.098464E-18	1.234575E-18
4.090000E+03	5.118339E-18	1.239296E-18
4.100000E+03	5.139713E-18	1.244379E-18
4.110000E+03	5.162577E-18	1.249820E-18
4.120000E+03	5.186879E-18	1.255608E-18
4.130000E+03	5.212568E-18	1.261730E-18
4.140000E+03	5.239640E-18	1.268185E-18
4.150000E+03	5.268043E-18	1.274961E-18
4.160000E+03	5.297773E-18	1.282055E-18
4.170000E+03	5.328741E-18	1.289448E-18
4.180000E+03	5.360943E-18	1.297136E-18
4.190000E+03	5.394290E-18	1.305100E-18
4.200000E+03	5.428820E-18	1.313348E-18
4.210000E+03	5.464448E-18	1.321859E-18
4.220000E+03	5.501170E-18	1.330632E-18
4.230000E+03	5.538856E-18	1.339636E-18
4.240000E+03	5.577546E-18	1.348881E-18
4.250000E+03	5.617109E-18	1.358334E-18
4.260000E+03	5.657585E-18	1.368005E-18
4.270000E+03	5.698842E-18	1.377863E-18
4.280000E+03	5.740788E-18	1.387884E-18
4.290000E+03	5.783464E-18	1.398080E-18
4.300000E+03	5.826688E-18	1.408404E-18
4.310000E+03	5.870503E-18	1.418869E-18
4.320000E+03	5.914719E-18	1.429428E-18
4.330000E+03	5.959382E-18	1.440092E-18
4.340000E+03	6.004395E-18	1.450838E-18
4.350000E+03	6.049655E-18	1.461640E-18
4.360000E+03	6.095161E-18	1.472498E-18
4.370000E+03	6.140860E-18	1.483400E-18
4.380000E+03	6.186797E-18	1.494356E-18
4.390000E+03	6.232872E-18	1.505343E-18
4.400000E+03	6.279184E-18	1.516383E-18
4.410000E+03	6.325735E-18	1.527478E-18
4.420000E+03	6.372528E-18	1.538628E-18
4.430000E+03	6.419569E-18	1.549834E-18
4.440000E+03	6.466917E-18	1.561111E-18
4.450000E+03	6.514526E-18	1.572447E-18
4.460000E+03	6.562462E-18	1.583859E-18
4.470000E+03	6.610735E-18	1.595349E-18
4.480000E+03	6.659359E-18	1.606920E-18
4.490000E+03	6.708295E-18	1.618562E-18
4.500000E+03	6.757556E-18	1.630279E-18
4.510000E+03	6.807100E-18	1.642061E-18
4.520000E+03	6.857002E-18	1.653924E-18
4.530000E+03	6.907162E-18	1.665847E-18
4.540000E+03	6.957600E-18	1.677832E-18
4.550000E+03	7.008330E-18	1.689884E-18
4.560000E+03	7.059256E-18	1.701979E-18
4.570000E+03	7.110457E-18	1.714136E-18
4.580000E+03	7.161833E-18	1.726331E-18
4.590000E+03	7.213407E-18	1.738570E-18
4.600000E+03	7.265078E-18	1.750828E-18
4.610000E+03	7.316938E-18	1.763127E-18
4.620000E+03	7.368950E-18	1.775458E-18
4.630000E+03	7.421020E-18	1.787799E-18
4.640000E+03	7.473179E-18	1.800157E-18
4.650000E+03	7.525465E-18	1.812541E-18
4.660000E+03	7.577851E-18	1.824944E-18
4.670000E+03	7.630248E-18	1.837345E-18
4.680000E+03	7.682832E-18	1.849787E-18
4.690000E+03	7.735657E-18	1.862282E-18
4.700000E+03	7.788644E-18	1.874811E-18
4.710000E+03	7.841845E-18	1.887387E-18
4.720000E+03	7.895326E-18	1.900025E-18
4.730000E+03	7.948937E-18	1.912690E-18
4.740000E+03	8.002744E-18	1.925397E-18
4.750000E+03	8.056671E-18	1.938128E-18
4.760000E+03	8.110785E-18	1.950898E-18
4.770000E+03	8.165091E-18	1.963710E-18
4.780000E+03	8.219513E-18	1.976544E-18
4.790000E+03	8.274127E-18	1.989419E-18
4.800000E+03	8.328863E-18	2.002318E-18
4.810000E+03	8.383801E-18	2.015260E-18
4.820000E+03	8.438872E-18	2.028229E-18
4.830000E+03	8.494080E-18	2.041224E-18
4.840000E+03	8.549429E-18	2.054249E-18
4.850000E+03	8.605010E-18	2.067323E-18
4.860000E+03	8.660749E-18	2.080429E-18
4.870000E+03	8.716649E-18	2.093569E-18
4.880000E+03	8.772637E-18	2.106723E-18
4.890000E+03	8.828881E-18	2.119933E-18
4.900000E+03	8.885299E-18	2.133179E-18
4.910000E+03	8.941899E-18	2.146463E-18
4.920000E+03	8.998594E-18	2.159763E-18
4.930000E+03	9.055466E-18	2.173099E-18
4.940000E+03	9.112430E-18	2.186451E-18
4.950000E+03	9.169476E-18	2.199817E-18
4.960000E+03	9.226686E-18	2.213215E-18
4.970000E+03	9.283967E-18	2.226624E-18
4.980000E+03	9.341306E-18	2.240040E-18
4.990000E+03	9.398602E-18	2.253440E-18
5.000000E+03	9.455929E-18	2.266840E-18
5.010000E+03	9.513272E-18	2.280237E-18
5.020000E+03	9.570522E-18	2.293606E-18
5.030000E+03	9.627659E-18	2.306940E-18
5.040000E+03	9.684660E-18	2.320235E-18
5.050000E+03	9.741407E-18	2.333462E-18
5.060000E+03	9.797973E-18	2.346639E-18
5.070000E+03	9.854328E-18	2.359758E-18
5.080000E+03	9.910259E-18	2.372768E-18
5.090000E+03	9.965832E-18	2.385686E-18
5.100000E+03	1.002102E-17	2.398505E-18
5.110000E+03	1.007570E-17	2.411194E-18
5.120000E+03	1.012984E-17	2.423748E-18
5.130000E+03	1.018342E-17	2.436159E-18
5.140000E+03	1.023639E-17	2.448420E-18
5.150000E+03	1.028865E-17	2.460500E-18
5.160000E+03	1.034024E-17	2.472415E-18
5.170000E+03	1.039093E-17	2.484108E-18
5.180000E+03	1.044079E-17	2.495595E-18
5.190000E+03	1.048967E-17	2.506839E-18
5.200000E+03	1.053752E-17	2.517831E-18
5.210000E+03	1.058429E-17	2.528556E-18
5.220000E+03	1.062991E-17	2.539002E-18
5.230000E+03	1.067412E-17	2.549102E-18
5.240000E+03	1.071705E-17	2.558890E-18
5.250000E+03	1.075852E-17	2.568324E-18
5.260000E+03	1.079846E-17	2.577384E-18
5.270000E+03	1.083668E-17	2.586026E-18
5.280000E+03	1.087308E-17	2.594229E-18
5.290000E+03	1.090758E-17	2.601973E-18
5.300000E+03	1.094010E-17	2.609236E-18
5.310000E+03	1.097055E-17	2.615999E-18
5.320000E+03	1.099874E-17	2.622217E-18
5.330000E+03	1.102481E-17	2.627923E-18
5.340000E+03	1.104846E-17	2.633050E-18
5.350000E+03	1.106964E-17	2.637580E-18
5.360000E+03	1.108851E-17	2.641554E-18
5.370000E+03	1.110479E-17	2.644906E-18
5.380000E+03	1.111867E-17	2.647681E-18
5.390000E+03	1.113000E-17	2.649845E-18
5.400000E+03	1.113887E-17	2.651417E-18
5.410000E+03	1.114515E-17	2.652371E-18
5.420000E+03	1.114907E-17	2.652755E-18
5.430000E+03	1.115050E-17	2.652546E-18
5.440000E+03	1.114959E-17	2.651775E-18
5.450000E+03	1.114612E-17	2.650392E-18
5.460000E+03	1.114024E-17	2.648433E-18
5.470000E+03	1.113188E-17	2.645881E-18
5.480000E+03	1.112098E-17	2.642722E-18
5.490000E+03	1.110770E-17	2.638995E-18
5.500000E+03	1.109188E-17	2.634664E-18
5.510000E+03	1.107349E-17	2.629718E-18
5.520000E+03	1.105260E-17	2.624178E-18
5.530000E+03	1.102908E-17	2.618010E-18
5.540000E+03	1.100312E-17	2.611263E-18
5.550000E+03	1.097448E-17	2.603880E-18
5.560000E+03	1.094348E-17	2.595936E-18
5.570000E+03	1.091011E-17	2.587429E-18
5.580000E+03	1.087436E-17	2.578357E-18
5.590000E+03	1.083633E-17	2.568744E-18
5.600000E+03	1.079611E-17	2.558615E-18
5.610000E+03	1.075371E-17	2.547967E-18
5.620000E+03	1.070943E-17	2.536876E-18
5.630000E+03	1.066315E-17	2.525314E-18
5.640000E+03	1.061520E-17	2.513354E-18
5.650000E+03	1.056543E-17	2.500967E-18
5.660000E+03	1.051416E-17	2.488227E-18
5.670000E+03	1.046148E-17	2.475154E-18
5.680000E+03	1.040735E-17	2.461742E-18
5.690000E+03	1.035198E-17	2.448038E-18
5.700000E+03	1.029543E-17	2.434060E-18
5.710000E+03	1.023791E-17	2.419852E-18
5.720000E+03	1.017948E-17	2.405433E-18
5.730000E+03	1.012011E-17	2.390796E-18
5.740000E+03	1.006009E-17	2.376009E-18
5.750000E+03	9.999501E-18	2.361090E-18
5.760000E+03	9.938306E-18	2.346033E-18
5.770000E+03	9.876691E-18	2.330879E-18
5.780000E+03	9.814833E-18	2.315672E-18
5.790000E+03	9.752813E-18	2.300431E-18
5.800000E+03	9.690602E-18	2.285148E-18
5.810000E+03	9.628384E-18	2.269869E-18
5.820000E+03	9.566348E-18	2.254635E-18
5.830000E+03	9.504570E-18	2.239467E-18
5.840000E+03	9.443035E-18	2.224361E-18
5.850000E+03	9.381929E-18	2.209359E-18
5.860000E+03	9.321336E-18	2.194483E-18
5.870000E+03	9.261444E-18	2.179776E-18
5.880000E+03	9.202338E-18	2.165258E-18
5.890000E+03	9.143999E-18	2.150924E-18
5.900000E+03	9.086611E-18	2.136818E-18
5.910000E+03	9.030154E-18	2.122935E-18
5.920000E+03	8.975006E-18	2.109363E-18
5.930000E+03	8.920938E-18	2.096050E-18
5.940000E+03	8.868123E-18	2.083034E-18
5.950000E+03	8.816724E-18	2.070354E-18
5.960000E+03	8.766704E-18	2.058002E-18
5.970000E+03	8.718118E-18	2.045989E-18
5.980000E+03	8.671117E-18	2.034351E-18
5.990000E+03	8.625649E-18	2.023076E-18
6.000000E+03	8.581855E-18	2.012197E-18
6.010000E+03	8.539574E-18	2.001674E-18
6.020000E+03	8.499040E-18	1.991563E-18
6.030000E+03	8.460080E-18	1.981824E-18
6.040000E+03	8.422921E-18	1.972508E-18
6.050000E+03	8.387286E-18	1.963551E-18
6.060000E+03	8.353391E-18	1.955003E-18
6.070000E+03	8.321151E-18	1.946843E-18
6.080000E+03	8.290577E-18	1.939074E-18
6.090000E+03	8.261478E-18	1.931651E-18
6.100000E+03	8.234057E-18	1.924622E-18
6.110000E+03	8.208017E-18	1.917915E-18
6.120000E+03	8.183558E-18	1.911578E-18
6.130000E+03	8.160375E-18	1.905540E-18
6.140000E+03	8.138460E-18	1.899797E-18
6.150000E+03	8.117704E-18	1.894325E-18
6.160000E+03	8.098091E-18	1.889119E-18
6.170000E+03	8.079304E-18	1.884105E-18
6.180000E+03	8.061320E-18	1.879278E-18
6.190000E+03	8.044014E-18	1.874608E-18
6.200000E+03	8.027358E-18	1.870089E-18
6.210000E+03	8.011320E-18	1.865713E-18
6.220000E+03	7.996071E-18	1.861519E-18
6.230000E+03	7.981888E-18	1.857573E-18
6.240000E+03	7.968844E-18	1.853890E-18
6.250000E+03	7.957112E-18	1.850511E-18
6.260000E+03	7.946877E-18	1.847479E-18
6.270000E+03	7.938213E-18	1.844810E-18
6.280000E+03	7.931307E-18	1.842547E-18
6.290000E+03	7.926245E-18	1.840710E-18
6.300000E+03	7.923113E-18	1.839318E-18
6.310000E+03	7.922109E-18	1.838417E-18
6.320000E+03	7.923218E-18	1.838003E-18
6.330000E+03	7.926651E-18	1.838124E-18
6.340000E+03	7.932288E-18	1.838752E-18
6.350000E+03	7.940232E-18	1.839910E-18
6.360000E+03	7.950482E-18	1.841597E-18
6.370000E+03	7.963147E-18	1.843838E-18
6.380000E+03	7.978115E-18	1.846606E-18
6.390000E+03	7.995385E-18	1.849901E-18
6.400000E+03	8.014845E-18	1.853695E-18
6.410000E+03	8.036261E-18	1.857935E-18
6.420000E+03	8.059511E-18	1.862591E-18
6.430000E+03	8.084588E-18	1.867661E-18
6.440000E+03	8.111484E-18	1.873144E-18
6.450000E+03	8.140195E-18	1.879036E-18
6.460000E+03	8.170835E-18	1.885365E-18
6.470000E+03	8.203530E-18	1.892159E-18
6.480000E+03	8.238282E-18	1.899417E-18
6.490000E+03	8.274967E-18	1.907110E-18
6.500000E+03	8.313845E-18	1.915298E-18
6.510000E+03	8.354925E-18	1.923983E-18
6.520000E+03	8.398089E-18	1.933135E-18
6.530000E+03	8.443478E-18	1.942788E-18
6.540000E+03	8.491104E-18	1.952942E-18
6.550000E+03	8.540850E-18	1.963572E-18
6.560000E+03	8.592725E-18	1.974677E-18
6.570000E+03	8.647018E-18	1.986324E-18
6.580000E+03	8.703335E-18	1.998421E-18
6.590000E+03	8.761968E-18	2.011035E-18
6.600000E+03	8.822936E-18	2.024169E-18
6.610000E+03	8.885971E-18	2.037761E-18
6.620000E+03	8.951380E-18	2.051882E-18
6.630000E+03	9.018887E-18	2.066466E-18
6.640000E+03	9.088809E-18	2.081585E-18
6.650000E+03	9.160863E-18	2.097175E-18
6.660000E+03	9.235221E-18	2.113274E-18
6.670000E+03	9.311903E-18	2.129885E-18
6.680000E+03	9.390772E-18	2.146976E-18
6.690000E+03	9.471846E-18	2.164552E-18
6.700000E+03	9.555305E-18	2.182651E-18
6.710000E+03	9.641010E-18	2.201242E-18
6.720000E+03	9.728979E-18	2.220328E-18
6.730000E+03	9.819234E-18	2.239913E-18
6.740000E+03	9.911794E-18	2.260000E-18
6.750000E+03	1.000668E-17	2.280594E-18
6.760000E+03	1.010392E-17	2.301700E-18
6.770000E+03	1.020335E-17	2.323280E-18
6.780000E+03	1.030518E-17	2.345380E-18
6.790000E+03	1.040942E-17	2.368003E-18
6.800000E+03	1.051592E-17	2.391114E-18
6.810000E+03	1.062488E-17	2.414757E-18
6.820000E+03	1.073614E-17	2.438894E-18
6.830000E+03	1.084972E-17	2.463529E-18
6.840000E+03	1.096564E-17	2.488666E-18
6.850000E+03	1.108392E-17	2.514307E-18
6.860000E+03	1.120478E-17	2.540505E-18
6.870000E+03	1.132783E-17	2.567169E-18
6.880000E+03	1.145331E-17	2.594349E-18
6.890000E+03	1.158123E-17	2.622050E-18
6.900000E+03	1.171139E-17	2.650226E-18
6.910000E+03	1.184403E-17	2.678929E-18
6.920000E+03	1.197918E-17	2.708163E-18
6.930000E+03	1.211661E-17	2.737880E-18
6.940000E+03	1.225636E-17	2.768083E-18
6.950000E+03	1.239865E-17	2.798825E-18
6.960000E+03	1.254328E-17	2.830057E-18
6.970000E+03	1.269026E-17	2.861780E-18
6.980000E+03	1.283959E-17	2.893995E-18
6.990000E+03	1.299128E-17	2.926704E-18
7.000000E+03	1.314509E-17	2.959849E-18
7.010000E+03	1.330153E-17	2.993546E-18
7.020000E+03	1.346010E-17	3.027680E-18
7.030000E+03	1.362105E-17	3.062309E-18
7.040000E+03	1.378412E-17	3.097371E-18
7.050000E+03	1.394930E-17	3.132864E-18
7.060000E+03	1.411687E-17	3.168849E-18
7.070000E+03	1.428653E-17	3.205261E-18
7.080000E+03	1.445801E-17	3.242033E-18
7.090000E+03	1.463184E-17	3.279288E-18
7.100000E+03	1.480775E-17	3.316960E-18
7.110000E+03	1.498540E-17	3.354978E-18
7.120000E+03	1.516510E-17	3.393405E-18
7.130000E+03	1.534649E-17	3.432161E-18
7.140000E+03	1.552986E-17	3.471314E-18
7.150000E+03	1.571487E-17	3.510782E-18
7.160000E+03	1.590182E-17	3.550634E-18
7.170000E+03	1.609004E-17	3.590718E-18
7.180000E+03	1.627977E-17	3.631090E-18
7.190000E+03	1.647133E-17	3.671818E-18
7.200000E+03	1.666402E-17	3.712745E-18
7.210000E+03	1.685775E-17	3.753852E-18
7.220000E+03	1.705283E-17	3.795206E-18
7.230000E+03	1.724921E-17	3.836796E-18
7.240000E+03	1.744646E-17	3.878528E-18
7.250000E+03	1.764490E-17	3.920469E-18
7.260000E+03	1.784407E-17	3.962517E-18
7.270000E+03	1.804391E-17	4.004661E-18
7.280000E+03	1.824471E-17	4.046964E-18
7.290000E+03	1.844602E-17	4.089325E-18
7.300000E+03	1.864817E-17	4.131815E-18
7.310000E+03	1.885064E-17	4.174321E-18
7.320000E+03	1.905335E-17	4.216826E-18
7.330000E+03	1.925707E-17	4.259499E-18
7.340000E+03	1.946086E-17	4.302129E-18
7.350000E+03	1.966551E-17	4.344895E-18
7.360000E+03	1.987050E-17	4.387678E-18
7.370000E+03	2.007622E-17	4.430568E-18
7.380000E+03	2.028305E-17	4.473646E-18
7.390000E+03	2.049052E-17	4.516807E-18
7.400000E+03	2.069949E-17	4.560244E-18
7.410000E+03	2.090998E-17	4.603955E-18
7.420000E+03	2.112246E-17	4.648047E-18
7.430000E+03	2.133694E-17	4.692522E-18
7.440000E+03	2.155345E-17	4.737384E-18
7.450000E+03	2.177254E-17	4.782753E-18
7.460000E+03	2.199324E-17	4.828417E-18
7.470000E+03	2.221556E-17	4.874375E-18
7.480000E+03	2.243903E-17	4.920524E-18
7.490000E+03	2.266416E-17	4.966978E-18
7.500000E+03	2.289046E-17	5.013625E-18
7.510000E+03	2.311738E-17	5.060349E-18
7.520000E+03	2.334496E-17	5.107153E-18
7.530000E+03	2.357318E-17	5.154038E-18
7.540000E+03	2.380148E-17	5.200879E-18
7.550000E+03	2.403043E-17	5.247800E-18
7.560000E+03	2.425887E-17	5.294548E-18
7.570000E+03	2.448793E-17	5.341371E-18
7.580000E+03	2.471705E-17	5.388146E-18
7.590000E+03	2.494618E-17	5.434860E-18
7.600000E+03	2.517467E-17	5.481376E-18
7.610000E+03	2.540309E-17	5.527815E-18
7.620000E+03	2.563137E-17	5.574165E-18
7.630000E+03	2.585946E-17	5.620414E-18
7.640000E+03	2.608661E-17	5.666398E-18
7.650000E+03	2.631335E-17	5.712235E-18
7.660000E+03	2.653891E-17	5.757755E-18
7.670000E+03	2.676444E-17	5.803213E-18
7.680000E+03	2.698778E-17	5.848137E-18
7.690000E+03	2.721078E-17	5.892929E-18
7.700000E+03	2.743257E-17	5.937405E-18
7.710000E+03	2.765223E-17	5.981362E-18
7.720000E+03	2.787024E-17	6.024907E-18
7.730000E+03	2.808635E-17	6.067988E-18
7.740000E+03	2.830032E-17	6.110552E-18
7.750000E+03	2.851188E-17	6.152543E-18
7.760000E+03	2.872153E-17	6.194071E-18
