#wls	flux	fluxerr
1.600000E+03	1.641955E-16	7.643917E-17
1.640000E+03	1.696206E-16	7.895091E-17
1.680000E+03	1.749413E-16	8.141222E-17
1.720000E+03	1.801374E-16	8.381366E-17
1.760000E+03	1.851319E-16	8.611932E-17
1.800000E+03	1.898928E-16	8.831427E-17
1.840000E+03	1.943489E-16	9.036531E-17
1.880000E+03	1.984569E-16	9.225235E-17
1.920000E+03	2.021522E-16	9.394541E-17
1.960000E+03	2.053667E-16	9.541289E-17
2.000000E+03	2.080002E-16	9.660827E-17
2.040000E+03	2.099849E-16	9.750024E-17
2.080000E+03	2.112408E-16	9.805196E-17
2.120000E+03	2.116544E-16	9.821096E-17
2.160000E+03	2.111285E-16	9.793249E-17
2.200000E+03	2.095495E-16	9.716434E-17
2.240000E+03	2.068233E-16	9.586344E-17
2.280000E+03	2.029362E-16	9.402403E-17
2.320000E+03	1.979222E-16	9.166268E-17
2.360000E+03	1.919319E-16	8.884971E-17
2.400000E+03	1.851003E-16	8.564837E-17
2.440000E+03	1.775494E-16	8.211575E-17
2.480000E+03	1.694134E-16	7.831451E-17
2.520000E+03	1.607981E-16	7.429411E-17
2.560000E+03	1.517969E-16	7.009821E-17
2.600000E+03	1.425235E-16	6.577980E-17
2.640000E+03	1.330636E-16	6.137886E-17
2.680000E+03	1.235180E-16	5.694223E-17
2.720000E+03	1.139725E-16	5.250973E-17
2.760000E+03	1.045282E-16	4.812819E-17
2.800000E+03	9.527119E-17	4.383743E-17
2.840000E+03	8.629285E-17	3.967950E-17
2.880000E+03	7.767973E-17	3.569419E-17
2.920000E+03	6.951117E-17	3.191781E-17
2.960000E+03	6.185592E-17	2.838172E-17
3.000000E+03	5.476817E-17	2.511047E-17
3.010000E+03	5.308909E-17	2.433591E-17
3.020000E+03	5.144875E-17	2.357937E-17
3.030000E+03	4.984605E-17	2.284034E-17
3.040000E+03	4.828323E-17	2.211984E-17
3.050000E+03	4.675910E-17	2.141732E-17
3.060000E+03	4.527357E-17	2.073272E-17
3.070000E+03	4.382656E-17	2.006600E-17
3.080000E+03	4.241968E-17	1.941790E-17
3.090000E+03	4.105087E-17	1.878745E-17
3.100000E+03	3.972154E-17	1.817530E-17
3.110000E+03	3.843049E-17	1.758089E-17
3.120000E+03	3.717812E-17	1.700439E-17
3.130000E+03	3.596395E-17	1.644558E-17
3.140000E+03	3.478750E-17	1.590422E-17
3.150000E+03	3.364828E-17	1.538009E-17
3.160000E+03	3.254635E-17	1.487320E-17
3.170000E+03	3.148051E-17	1.438300E-17
3.180000E+03	3.045077E-17	1.390948E-17
3.190000E+03	2.945647E-17	1.345234E-17
3.200000E+03	2.849693E-17	1.301124E-17
3.210000E+03	2.757195E-17	1.258610E-17
3.220000E+03	2.667986E-17	1.217613E-17
3.230000E+03	2.582133E-17	1.178165E-17
3.240000E+03	2.499425E-17	1.140167E-17
3.250000E+03	2.419917E-17	1.103645E-17
3.260000E+03	2.343446E-17	1.068522E-17
3.270000E+03	2.269976E-17	1.034782E-17
3.280000E+03	2.199426E-17	1.002387E-17
3.290000E+03	2.131684E-17	9.712844E-18
3.300000E+03	2.066739E-17	9.414692E-18
3.310000E+03	2.004444E-17	9.128741E-18
3.320000E+03	1.944726E-17	8.854643E-18
3.330000E+03	1.887565E-17	8.592306E-18
3.340000E+03	1.832826E-17	8.341102E-18
3.350000E+03	1.780436E-17	8.100697E-18
3.360000E+03	1.730323E-17	7.870752E-18
3.370000E+03	1.682436E-17	7.651032E-18
3.380000E+03	1.636657E-17	7.440995E-18
3.390000E+03	1.592920E-17	7.240331E-18
3.400000E+03	1.551179E-17	7.048823E-18
3.410000E+03	1.511345E-17	6.866071E-18
3.420000E+03	1.473356E-17	6.691778E-18
3.430000E+03	1.437113E-17	6.525489E-18
3.440000E+03	1.402577E-17	6.367024E-18
3.450000E+03	1.369689E-17	6.216117E-18
3.460000E+03	1.338362E-17	6.072354E-18
3.470000E+03	1.308544E-17	5.935502E-18
3.480000E+03	1.280170E-17	5.805265E-18
3.490000E+03	1.253209E-17	5.681491E-18
3.500000E+03	1.227569E-17	5.563765E-18
3.510000E+03	1.203226E-17	5.451965E-18
3.520000E+03	1.180109E-17	5.345773E-18
3.530000E+03	1.158168E-17	5.244957E-18
3.540000E+03	1.137357E-17	5.149298E-18
3.550000E+03	1.117615E-17	5.058527E-18
3.560000E+03	1.098914E-17	4.972506E-18
3.570000E+03	1.081190E-17	4.890945E-18
3.580000E+03	1.064405E-17	4.813668E-18
3.590000E+03	1.048536E-17	4.740571E-18
3.600000E+03	1.033537E-17	4.671438E-18
3.610000E+03	1.019378E-17	4.606131E-18
3.620000E+03	1.006017E-17	4.544460E-18
3.630000E+03	9.934165E-18	4.486252E-18
3.640000E+03	9.815510E-18	4.431387E-18
3.650000E+03	9.703753E-18	4.379661E-18
3.660000E+03	9.598771E-18	4.331015E-18
3.670000E+03	9.500154E-18	4.285262E-18
3.680000E+03	9.407699E-18	4.242308E-18
3.690000E+03	9.321291E-18	4.202098E-18
3.700000E+03	9.240567E-18	4.164467E-18
3.710000E+03	9.165345E-18	4.129331E-18
3.720000E+03	9.095621E-18	4.096686E-18
3.730000E+03	9.031130E-18	4.066410E-18
3.740000E+03	8.971702E-18	4.038426E-18
3.750000E+03	8.917342E-18	4.012733E-18
3.760000E+03	8.867793E-18	3.989213E-18
3.770000E+03	8.822982E-18	3.967832E-18
3.780000E+03	8.782896E-18	3.948583E-18
3.790000E+03	8.747373E-18	3.931390E-18
3.800000E+03	8.716343E-18	3.916221E-18
3.810000E+03	8.689716E-18	3.903033E-18
3.820000E+03	8.667415E-18	3.891789E-18
3.830000E+03	8.649426E-18	3.882483E-18
3.840000E+03	8.635604E-18	3.875046E-18
3.850000E+03	8.625937E-18	3.869471E-18
3.860000E+03	8.620417E-18	3.865754E-18
3.870000E+03	8.618899E-18	3.863828E-18
3.880000E+03	8.621289E-18	3.863649E-18
3.890000E+03	8.627665E-18	3.865249E-18
3.900000E+03	8.637937E-18	3.868589E-18
3.910000E+03	8.651956E-18	3.873597E-18
3.920000E+03	8.669786E-18	3.880302E-18
3.930000E+03	8.691410E-18	3.888695E-18
3.940000E+03	8.716609E-18	3.898675E-18
3.950000E+03	8.745446E-18	3.910269E-18
3.960000E+03	8.777894E-18	3.923464E-18
3.970000E+03	8.813885E-18	3.938228E-18
3.980000E+03	8.853244E-18	3.954480E-18
3.990000E+03	8.896113E-18	3.972283E-18
4.000000E+03	8.942325E-18	3.991561E-18
4.010000E+03	8.991795E-18	4.012273E-18
4.020000E+03	9.044576E-18	4.034443E-18
4.030000E+03	9.100501E-18	4.057994E-18
4.040000E+03	9.159632E-18	4.082951E-18
4.050000E+03	9.221733E-18	4.109209E-18
4.060000E+03	9.286927E-18	4.136822E-18
4.070000E+03	9.355049E-18	4.165713E-18
4.080000E+03	9.426015E-18	4.195844E-18
4.090000E+03	9.499880E-18	4.227239E-18
4.100000E+03	9.576405E-18	4.259788E-18
4.110000E+03	9.655726E-18	4.293553E-18
4.120000E+03	9.737604E-18	4.328424E-18
4.130000E+03	9.822025E-18	4.364395E-18
4.140000E+03	9.908982E-18	4.401461E-18
4.150000E+03	9.998319E-18	4.439552E-18
4.160000E+03	1.009002E-17	4.478657E-18
4.170000E+03	1.018400E-17	4.518742E-18
4.180000E+03	1.028010E-17	4.559734E-18
4.190000E+03	1.037841E-17	4.601665E-18
4.200000E+03	1.047867E-17	4.644429E-18
4.210000E+03	1.058097E-17	4.688059E-18
4.220000E+03	1.068507E-17	4.732446E-18
4.230000E+03	1.079097E-17	4.777592E-18
4.240000E+03	1.089858E-17	4.823458E-18
4.250000E+03	1.100767E-17	4.869937E-18
4.260000E+03	1.111832E-17	4.917066E-18
4.270000E+03	1.123036E-17	4.964772E-18
4.280000E+03	1.134364E-17	5.012980E-18
4.290000E+03	1.145797E-17	5.061614E-18
4.300000E+03	1.157337E-17	5.110677E-18
4.310000E+03	1.168976E-17	5.160135E-18
4.320000E+03	1.180677E-17	5.209824E-18
4.330000E+03	1.192452E-17	5.259794E-18
4.340000E+03	1.204263E-17	5.309878E-18
4.350000E+03	1.216120E-17	5.360124E-18
4.360000E+03	1.227995E-17	5.410405E-18
4.370000E+03	1.239889E-17	5.460725E-18
4.380000E+03	1.251803E-17	5.511087E-18
4.390000E+03	1.263738E-17	5.561501E-18
4.400000E+03	1.275696E-17	5.611969E-18
4.410000E+03	1.287687E-17	5.662539E-18
4.420000E+03	1.299724E-17	5.713267E-18
4.430000E+03	1.311809E-17	5.764158E-18
4.440000E+03	1.323954E-17	5.815271E-18
4.450000E+03	1.336151E-17	5.866569E-18
4.460000E+03	1.348426E-17	5.918160E-18
4.470000E+03	1.360772E-17	5.970016E-18
4.480000E+03	1.373191E-17	6.022147E-18
4.490000E+03	1.385688E-17	6.074575E-18
4.500000E+03	1.398268E-17	6.127322E-18
4.510000E+03	1.410936E-17	6.180405E-18
4.520000E+03	1.423697E-17	6.233849E-18
4.530000E+03	1.436532E-17	6.287568E-18
4.540000E+03	1.449472E-17	6.341696E-18
4.550000E+03	1.462497E-17	6.396149E-18
4.560000E+03	1.475613E-17	6.450949E-18
4.570000E+03	1.488814E-17	6.506073E-18
4.580000E+03	1.502120E-17	6.561602E-18
4.590000E+03	1.515524E-17	6.617513E-18
4.600000E+03	1.529008E-17	6.673714E-18
4.610000E+03	1.542606E-17	6.730362E-18
4.620000E+03	1.556298E-17	6.787370E-18
4.630000E+03	1.570079E-17	6.844712E-18
4.640000E+03	1.583973E-17	6.902490E-18
4.650000E+03	1.597989E-17	6.960742E-18
4.660000E+03	1.612092E-17	7.019323E-18
4.670000E+03	1.626325E-17	7.078407E-18
4.680000E+03	1.640682E-17	7.137978E-18
4.690000E+03	1.655161E-17	7.198022E-18
4.700000E+03	1.669777E-17	7.258598E-18
4.710000E+03	1.684526E-17	7.319696E-18
4.720000E+03	1.699424E-17	7.381380E-18
4.730000E+03	1.714439E-17	7.443512E-18
4.740000E+03	1.729587E-17	7.506155E-18
4.750000E+03	1.744883E-17	7.569383E-18
4.760000E+03	1.760281E-17	7.632983E-18
4.770000E+03	1.775813E-17	7.697105E-18
4.780000E+03	1.791464E-17	7.761673E-18
4.790000E+03	1.807217E-17	7.826622E-18
4.800000E+03	1.823109E-17	7.892102E-18
4.810000E+03	1.839088E-17	7.957889E-18
4.820000E+03	1.855206E-17	8.024215E-18
4.830000E+03	1.871414E-17	8.090853E-18
4.840000E+03	1.887745E-17	8.157957E-18
4.850000E+03	1.904164E-17	8.225370E-18
4.860000E+03	1.920708E-17	8.293246E-18
4.870000E+03	1.937339E-17	8.361429E-18
4.880000E+03	1.954074E-17	8.429989E-18
4.890000E+03	1.970914E-17	8.498922E-18
4.900000E+03	1.987836E-17	8.568137E-18
4.910000E+03	2.004838E-17	8.637619E-18
4.920000E+03	2.021917E-17	8.707358E-18
4.930000E+03	2.039090E-17	8.777420E-18
4.940000E+03	2.056311E-17	8.847613E-18
4.950000E+03	2.073616E-17	8.918089E-18
4.960000E+03	2.090959E-17	8.988644E-18
4.970000E+03	2.108352E-17	9.059337E-18
4.980000E+03	2.125766E-17	9.130034E-18
4.990000E+03	2.143191E-17	9.200699E-18
5.000000E+03	2.160615E-17	9.271279E-18
5.010000E+03	2.178046E-17	9.341807E-18
5.020000E+03	2.195429E-17	9.412039E-18
5.030000E+03	2.212767E-17	9.482001E-18
5.040000E+03	2.230021E-17	9.551515E-18
5.050000E+03	2.247193E-17	9.620594E-18
5.060000E+03	2.264238E-17	9.689046E-18
5.070000E+03	2.281111E-17	9.756676E-18
5.080000E+03	2.297806E-17	9.823464E-18
5.090000E+03	2.314297E-17	9.889293E-18
5.100000E+03	2.330531E-17	9.953939E-18
5.110000E+03	2.346453E-17	1.001717E-17
5.120000E+03	2.362075E-17	1.007904E-17
5.130000E+03	2.377315E-17	1.013920E-17
5.140000E+03	2.392137E-17	1.019749E-17
5.150000E+03	2.406500E-17	1.025375E-17
5.160000E+03	2.420367E-17	1.030782E-17
5.170000E+03	2.433672E-17	1.035941E-17
5.180000E+03	2.446396E-17	1.040847E-17
5.190000E+03	2.458449E-17	1.045459E-17
5.200000E+03	2.469811E-17	1.049771E-17
5.210000E+03	2.480388E-17	1.053742E-17
5.220000E+03	2.490186E-17	1.057377E-17
5.230000E+03	2.499111E-17	1.060634E-17
5.240000E+03	2.507145E-17	1.063508E-17
5.250000E+03	2.514194E-17	1.065958E-17
5.260000E+03	2.520241E-17	1.067979E-17
5.270000E+03	2.525247E-17	1.069554E-17
5.280000E+03	2.529122E-17	1.070646E-17
5.290000E+03	2.531833E-17	1.071242E-17
5.300000E+03	2.533371E-17	1.071338E-17
5.310000E+03	2.533684E-17	1.070914E-17
5.320000E+03	2.532725E-17	1.069950E-17
5.330000E+03	2.530476E-17	1.068439E-17
5.340000E+03	2.526926E-17	1.066379E-17
5.350000E+03	2.522072E-17	1.063767E-17
5.360000E+03	2.515893E-17	1.060597E-17
5.370000E+03	2.508427E-17	1.056886E-17
5.380000E+03	2.499670E-17	1.052632E-17
5.390000E+03	2.489680E-17	1.047860E-17
5.400000E+03	2.478470E-17	1.042578E-17
5.410000E+03	2.466144E-17	1.036830E-17
5.420000E+03	2.452785E-17	1.030651E-17
5.430000E+03	2.438438E-17	1.024061E-17
5.440000E+03	2.423257E-17	1.017125E-17
5.450000E+03	2.407327E-17	1.009880E-17
5.460000E+03	2.390648E-17	1.002327E-17
5.470000E+03	2.373396E-17	9.945384E-18
5.480000E+03	2.355632E-17	9.865420E-18
5.490000E+03	2.337424E-17	9.783658E-18
5.500000E+03	2.318869E-17	9.700511E-18
5.510000E+03	2.300044E-17	9.616302E-18
5.520000E+03	2.281029E-17	9.531365E-18
5.530000E+03	2.261949E-17	9.446232E-18
5.540000E+03	2.242888E-17	9.361245E-18
5.550000E+03	2.223992E-17	9.277020E-18
5.560000E+03	2.205382E-17	9.194061E-18
5.570000E+03	2.187154E-17	9.112759E-18
5.580000E+03	2.169442E-17	9.033677E-18
5.590000E+03	2.152351E-17	8.957247E-18
5.600000E+03	2.135980E-17	8.883874E-18
5.610000E+03	2.120441E-17	8.814022E-18
5.620000E+03	2.105816E-17	8.748024E-18
5.630000E+03	2.092179E-17	8.686180E-18
5.640000E+03	2.079616E-17	8.628841E-18
5.650000E+03	2.068182E-17	8.576226E-18
5.660000E+03	2.057943E-17	8.528607E-18
5.670000E+03	2.048941E-17	8.486139E-18
5.680000E+03	2.041202E-17	8.448928E-18
5.690000E+03	2.034771E-17	8.417150E-18
5.700000E+03	2.029665E-17	8.390859E-18
5.710000E+03	2.025891E-17	8.370081E-18
5.720000E+03	2.023475E-17	8.354912E-18
5.730000E+03	2.022418E-17	8.345342E-18
5.740000E+03	2.022735E-17	8.341429E-18
5.750000E+03	2.024399E-17	8.343046E-18
5.760000E+03	2.027445E-17	8.350327E-18
5.770000E+03	2.031842E-17	8.363133E-18
5.780000E+03	2.037578E-17	8.381410E-18
5.790000E+03	2.044688E-17	8.405284E-18
5.800000E+03	2.053118E-17	8.434526E-18
5.810000E+03	2.062903E-17	8.469268E-18
5.820000E+03	2.074035E-17	8.509465E-18
5.830000E+03	2.086507E-17	8.555080E-18
5.840000E+03	2.100291E-17	8.605983E-18
5.850000E+03	2.115425E-17	8.662323E-18
5.860000E+03	2.131882E-17	8.723980E-18
5.870000E+03	2.149682E-17	8.791019E-18
5.880000E+03	2.168820E-17	8.863412E-18
5.890000E+03	2.189268E-17	8.941032E-18
5.900000E+03	2.211044E-17	9.023945E-18
5.910000E+03	2.234169E-17	9.112217E-18
5.920000E+03	2.258584E-17	9.205606E-18
5.930000E+03	2.284307E-17	9.304166E-18
5.940000E+03	2.311326E-17	9.407843E-18
5.950000E+03	2.339655E-17	9.516679E-18
5.960000E+03	2.369226E-17	9.630386E-18
5.970000E+03	2.400074E-17	9.749098E-18
5.980000E+03	2.432124E-17	9.872498E-18
5.990000E+03	2.465377E-17	1.000058E-17
6.000000E+03	2.499807E-17	1.013322E-17
6.010000E+03	2.535352E-17	1.027017E-17
6.020000E+03	2.572005E-17	1.041139E-17
6.030000E+03	2.609666E-17	1.055645E-17
6.040000E+03	2.648351E-17	1.070542E-17
6.050000E+03	2.687918E-17	1.085772E-17
6.060000E+03	2.728376E-17	1.101336E-17
6.070000E+03	2.769604E-17	1.117186E-17
6.080000E+03	2.811570E-17	1.133308E-17
6.090000E+03	2.854143E-17	1.149648E-17
6.100000E+03	2.897251E-17	1.166177E-17
6.110000E+03	2.940783E-17	1.182850E-17
6.120000E+03	2.984662E-17	1.199634E-17
6.130000E+03	3.028731E-17	1.216468E-17
6.140000E+03	3.072869E-17	1.233302E-17
6.150000E+03	3.116986E-17	1.250100E-17
6.160000E+03	3.160954E-17	1.266810E-17
6.170000E+03	3.204566E-17	1.283350E-17
6.180000E+03	3.247725E-17	1.299681E-17
6.190000E+03	3.290297E-17	1.315751E-17
6.200000E+03	3.332191E-17	1.331522E-17
6.210000E+03	3.373355E-17	1.346975E-17
6.220000E+03	3.413750E-17	1.362095E-17
6.230000E+03	3.453383E-17	1.376886E-17
6.240000E+03	3.492364E-17	1.391391E-17
6.250000E+03	3.530685E-17	1.405609E-17
6.260000E+03	3.568296E-17	1.419519E-17
6.270000E+03	3.605341E-17	1.433181E-17
6.280000E+03	3.641839E-17	1.446601E-17
6.290000E+03	3.677719E-17	1.459753E-17
6.300000E+03	3.713158E-17	1.472706E-17
6.310000E+03	3.748046E-17	1.485419E-17
6.320000E+03	3.782530E-17	1.497948E-17
6.330000E+03	3.816558E-17	1.510275E-17
6.340000E+03	3.850185E-17	1.522421E-17
6.350000E+03	3.883420E-17	1.534391E-17
6.360000E+03	3.916271E-17	1.546186E-17
6.370000E+03	3.948750E-17	1.557814E-17
6.380000E+03	3.980815E-17	1.569257E-17
6.390000E+03	4.012422E-17	1.580498E-17
6.400000E+03	4.043640E-17	1.591566E-17
6.410000E+03	4.074367E-17	1.602419E-17
6.420000E+03	4.104674E-17	1.613087E-17
6.430000E+03	4.134515E-17	1.623552E-17
6.440000E+03	4.163903E-17	1.633819E-17
6.450000E+03	4.192914E-17	1.643919E-17
6.460000E+03	4.221687E-17	1.653906E-17
6.470000E+03	4.250245E-17	1.663789E-17
6.480000E+03	4.278674E-17	1.673603E-17
6.490000E+03	4.307063E-17	1.683382E-17
6.500000E+03	4.335373E-17	1.693111E-17
6.510000E+03	4.363761E-17	1.702851E-17
6.520000E+03	4.392258E-17	1.712615E-17
6.530000E+03	4.420823E-17	1.722386E-17
6.540000E+03	4.449619E-17	1.732228E-17
6.550000E+03	4.478608E-17	1.742125E-17
6.560000E+03	4.507743E-17	1.752060E-17
6.570000E+03	4.537193E-17	1.762098E-17
6.580000E+03	4.566912E-17	1.772220E-17
6.590000E+03	4.596923E-17	1.782436E-17
6.600000E+03	4.627323E-17	1.792782E-17
6.610000E+03	4.657983E-17	1.803208E-17
6.620000E+03	4.688919E-17	1.813721E-17
6.630000E+03	4.720303E-17	1.824387E-17
6.640000E+03	4.751993E-17	1.835150E-17
6.650000E+03	4.784002E-17	1.846015E-17
6.660000E+03	4.816418E-17	1.857016E-17
6.670000E+03	4.849171E-17	1.868125E-17
6.680000E+03	4.882264E-17	1.879344E-17
6.690000E+03	4.915785E-17	1.890706E-17
6.700000E+03	4.949568E-17	1.902147E-17
6.710000E+03	4.983609E-17	1.913665E-17
6.720000E+03	5.018075E-17	1.925324E-17
6.730000E+03	5.052788E-17	1.937055E-17
6.740000E+03	5.087741E-17	1.948856E-17
6.750000E+03	5.123010E-17	1.960755E-17
6.760000E+03	5.158494E-17	1.972715E-17
6.770000E+03	5.194180E-17	1.984728E-17
6.780000E+03	5.230051E-17	1.996790E-17
6.790000E+03	5.266089E-17	2.008893E-17
6.800000E+03	5.302180E-17	2.020994E-17
6.810000E+03	5.338399E-17	2.033120E-17
6.820000E+03	5.374724E-17	2.045265E-17
6.830000E+03	5.411035E-17	2.057382E-17
6.840000E+03	5.447408E-17	2.069500E-17
6.850000E+03	5.483719E-17	2.081572E-17
6.860000E+03	5.519942E-17	2.093589E-17
6.870000E+03	5.556051E-17	2.105540E-17
6.880000E+03	5.591917E-17	2.117378E-17
6.890000E+03	5.627720E-17	2.129171E-17
6.900000E+03	5.663332E-17	2.140871E-17
6.910000E+03	5.698621E-17	2.152428E-17
6.920000E+03	5.733668E-17	2.163872E-17
6.930000E+03	5.768339E-17	2.175155E-17
6.940000E+03	5.802609E-17	2.186268E-17
6.950000E+03	5.836565E-17	2.197242E-17
6.960000E+03	5.870074E-17	2.208030E-17
6.970000E+03	5.903114E-17	2.218623E-17
6.980000E+03	5.935664E-17	2.229014E-17
6.990000E+03	5.967708E-17	2.239198E-17
7.000000E+03	5.999110E-17	2.249125E-17
7.010000E+03	6.030090E-17	2.258877E-17
7.020000E+03	6.060402E-17	2.268363E-17
7.030000E+03	6.090035E-17	2.277581E-17
7.040000E+03	6.119099E-17	2.286571E-17
7.050000E+03	6.147471E-17	2.295289E-17
7.060000E+03	6.175149E-17	2.303736E-17
7.070000E+03	6.202132E-17	2.311911E-17
7.080000E+03	6.228427E-17	2.319817E-17
7.090000E+03	6.254165E-17	2.327506E-17
7.100000E+03	6.279109E-17	2.334889E-17
7.110000E+03	6.303272E-17	2.341972E-17
7.120000E+03	6.326795E-17	2.348809E-17
7.130000E+03	6.349701E-17	2.355408E-17
7.140000E+03	6.371885E-17	2.361733E-17
7.150000E+03	6.393502E-17	2.367841E-17
7.160000E+03	6.414318E-17	2.373646E-17
7.170000E+03	6.434623E-17	2.379257E-17
7.180000E+03	6.454319E-17	2.384638E-17
7.190000E+03	6.473434E-17	2.389801E-17
7.200000E+03	6.491867E-17	2.394708E-17
7.210000E+03	6.509916E-17	2.399472E-17
7.220000E+03	6.527342E-17	2.404004E-17
7.230000E+03	6.544308E-17	2.408365E-17
7.240000E+03	6.560705E-17	2.412517E-17
7.250000E+03	6.576691E-17	2.416517E-17
7.260000E+03	6.592149E-17	2.420324E-17
7.270000E+03	6.607096E-17	2.423944E-17
7.280000E+03	6.621685E-17	2.427436E-17
7.290000E+03	6.635786E-17	2.430750E-17
7.300000E+03	6.649548E-17	2.433944E-17
7.310000E+03	6.662691E-17	2.436915E-17
7.320000E+03	6.675358E-17	2.439716E-17
7.330000E+03	6.687690E-17	2.442399E-17
7.340000E+03	6.699400E-17	2.444862E-17
7.350000E+03	6.710628E-17	2.447154E-17
7.360000E+03	6.721224E-17	2.449223E-17
7.370000E+03	6.731333E-17	2.451122E-17
7.380000E+03	6.740808E-17	2.452799E-17
7.390000E+03	6.749650E-17	2.454255E-17
7.400000E+03	6.757864E-17	2.455491E-17
7.410000E+03	6.765310E-17	2.456460E-17
7.420000E+03	6.771999E-17	2.457165E-17
7.430000E+03	6.777945E-17	2.457612E-17
7.440000E+03	6.783169E-17	2.457810E-17
7.450000E+03	6.787847E-17	2.457824E-17
7.460000E+03	6.791855E-17	2.457610E-17
7.470000E+03	6.795529E-17	2.457289E-17
7.480000E+03	6.798905E-17	2.456877E-17
7.490000E+03	6.802017E-17	2.456384E-17
7.500000E+03	6.804902E-17	2.455826E-17
7.510000E+03	6.807590E-17	2.455214E-17
7.520000E+03	6.810409E-17	2.454666E-17
7.530000E+03	6.813050E-17	2.454072E-17
7.540000E+03	6.815663E-17	2.453485E-17
7.550000E+03	6.818241E-17	2.452902E-17
7.560000E+03	6.820931E-17	2.452377E-17
7.570000E+03	6.823407E-17	2.451793E-17
7.580000E+03	6.825817E-17	2.451201E-17
7.590000E+03	6.828149E-17	2.450599E-17
7.600000E+03	6.830556E-17	2.450040E-17
7.610000E+03	6.832708E-17	2.449406E-17
7.620000E+03	6.834920E-17	2.448811E-17
7.630000E+03	6.837026E-17	2.448194E-17
7.640000E+03	6.838859E-17	2.447496E-17
7.650000E+03	6.840741E-17	2.446832E-17
7.660000E+03	6.842507E-17	2.446142E-17
7.670000E+03	6.844154E-17	2.445427E-17
7.680000E+03	6.845682E-17	2.444684E-17
7.690000E+03	6.847086E-17	2.443914E-17
7.700000E+03	6.848366E-17	2.443116E-17
7.710000E+03	6.849684E-17	2.442346E-17
7.720000E+03	6.850700E-17	2.441485E-17
7.730000E+03	6.851742E-17	2.440650E-17
7.740000E+03	6.852634E-17	2.439776E-17
7.750000E+03	6.853366E-17	2.438861E-17
7.760000E+03	6.853923E-17	2.437900E-17
