#wls	flux	fluxerr
1.600000E+03	2.892576E-16	5.082930E-17
1.640000E+03	2.971759E-16	5.211255E-17
1.680000E+03	3.050129E-16	5.337315E-17
1.720000E+03	3.128289E-16	5.462150E-17
1.760000E+03	3.205316E-16	5.584128E-17
1.800000E+03	3.280795E-16	5.702512E-17
1.840000E+03	3.354504E-16	5.816912E-17
1.880000E+03	3.425582E-16	5.925835E-17
1.920000E+03	3.493379E-16	6.028166E-17
1.960000E+03	3.557179E-16	6.122687E-17
2.000000E+03	3.615692E-16	6.207216E-17
2.040000E+03	3.668388E-16	6.280890E-17
2.080000E+03	3.713476E-16	6.340710E-17
2.120000E+03	3.749283E-16	6.383916E-17
2.160000E+03	3.774509E-16	6.408414E-17
2.200000E+03	3.787363E-16	6.411316E-17
2.240000E+03	3.785726E-16	6.389220E-17
2.280000E+03	3.769486E-16	6.342156E-17
2.320000E+03	3.738319E-16	6.269808E-17
2.360000E+03	3.693565E-16	6.174661E-17
2.400000E+03	3.636668E-16	6.059350E-17
2.440000E+03	3.568953E-16	5.926295E-17
2.480000E+03	3.491793E-16	5.777970E-17
2.520000E+03	3.405856E-16	5.615665E-17
2.560000E+03	3.312357E-16	5.441555E-17
2.600000E+03	3.211786E-16	5.256608E-17
2.640000E+03	3.104822E-16	5.062098E-17
2.680000E+03	2.991986E-16	4.859025E-17
2.720000E+03	2.874007E-16	4.648720E-17
2.760000E+03	2.751516E-16	4.432342E-17
2.800000E+03	2.625191E-16	4.211110E-17
2.840000E+03	2.495984E-16	3.986669E-17
2.880000E+03	2.364828E-16	3.760612E-17
2.920000E+03	2.232874E-16	3.534846E-17
2.960000E+03	2.101318E-16	3.311327E-17
3.000000E+03	1.971347E-16	3.091954E-17
3.010000E+03	1.939223E-16	3.037949E-17
3.020000E+03	1.907291E-16	2.984351E-17
3.030000E+03	1.875559E-16	2.931170E-17
3.040000E+03	1.844079E-16	2.878488E-17
3.050000E+03	1.812819E-16	2.826253E-17
3.060000E+03	1.781792E-16	2.774484E-17
3.070000E+03	1.751084E-16	2.723317E-17
3.080000E+03	1.720630E-16	2.672649E-17
3.090000E+03	1.690512E-16	2.622606E-17
3.100000E+03	1.660707E-16	2.573150E-17
3.110000E+03	1.631222E-16	2.524293E-17
3.120000E+03	1.602134E-16	2.476151E-17
3.130000E+03	1.573388E-16	2.428638E-17
3.140000E+03	1.545027E-16	2.381820E-17
3.150000E+03	1.517062E-16	2.335712E-17
3.160000E+03	1.489536E-16	2.290376E-17
3.170000E+03	1.462433E-16	2.245789E-17
3.180000E+03	1.435797E-16	2.202015E-17
3.190000E+03	1.409645E-16	2.159078E-17
3.200000E+03	1.383971E-16	2.116966E-17
3.210000E+03	1.358820E-16	2.075745E-17
3.220000E+03	1.334234E-16	2.035480E-17
3.230000E+03	1.310190E-16	1.996128E-17
3.240000E+03	1.286751E-16	1.957786E-17
3.250000E+03	1.263894E-16	1.920415E-17
3.260000E+03	1.241701E-16	1.884134E-17
3.270000E+03	1.220125E-16	1.848871E-17
3.280000E+03	1.199201E-16	1.814676E-17
3.290000E+03	1.178962E-16	1.781593E-17
3.300000E+03	1.159398E-16	1.749605E-17
3.310000E+03	1.140536E-16	1.718747E-17
3.320000E+03	1.122347E-16	1.688974E-17
3.330000E+03	1.104855E-16	1.660315E-17
3.340000E+03	1.088062E-16	1.632773E-17
3.350000E+03	1.071973E-16	1.606347E-17
3.360000E+03	1.056588E-16	1.581037E-17
3.370000E+03	1.041892E-16	1.556814E-17
3.380000E+03	1.027887E-16	1.533678E-17
3.390000E+03	1.014572E-16	1.511621E-17
3.400000E+03	1.001945E-16	1.490640E-17
3.410000E+03	9.899924E-17	1.470707E-17
3.420000E+03	9.787113E-17	1.451816E-17
3.430000E+03	9.681000E-17	1.433959E-17
3.440000E+03	9.581434E-17	1.417110E-17
3.450000E+03	9.488389E-17	1.401261E-17
3.460000E+03	9.401840E-17	1.386405E-17
3.470000E+03	9.321521E-17	1.372497E-17
3.480000E+03	9.247527E-17	1.359548E-17
3.490000E+03	9.179715E-17	1.347534E-17
3.500000E+03	9.117948E-17	1.336430E-17
3.510000E+03	9.062203E-17	1.326228E-17
3.520000E+03	9.012243E-17	1.316891E-17
3.530000E+03	8.968046E-17	1.308411E-17
3.540000E+03	8.929494E-17	1.300767E-17
3.550000E+03	8.896461E-17	1.293938E-17
3.560000E+03	8.868835E-17	1.287903E-17
3.570000E+03	8.846499E-17	1.282642E-17
3.580000E+03	8.829247E-17	1.278121E-17
3.590000E+03	8.817067E-17	1.274336E-17
3.600000E+03	8.809759E-17	1.271254E-17
3.610000E+03	8.807312E-17	1.268871E-17
3.620000E+03	8.809439E-17	1.267141E-17
3.630000E+03	8.816223E-17	1.266073E-17
3.640000E+03	8.827290E-17	1.265611E-17
3.650000E+03	8.842632E-17	1.265751E-17
3.660000E+03	8.862062E-17	1.266463E-17
3.670000E+03	8.885571E-17	1.267742E-17
3.680000E+03	8.912881E-17	1.269547E-17
3.690000E+03	8.943982E-17	1.271873E-17
3.700000E+03	8.978682E-17	1.274690E-17
3.710000E+03	9.016964E-17	1.277994E-17
3.720000E+03	9.058633E-17	1.281754E-17
3.730000E+03	9.103749E-17	1.285976E-17
3.740000E+03	9.152022E-17	1.290618E-17
3.750000E+03	9.203504E-17	1.295683E-17
3.760000E+03	9.258062E-17	1.301152E-17
3.770000E+03	9.315650E-17	1.307015E-17
3.780000E+03	9.376130E-17	1.313251E-17
3.790000E+03	9.439523E-17	1.319860E-17
3.800000E+03	9.505594E-17	1.326809E-17
3.810000E+03	9.574357E-17	1.334096E-17
3.820000E+03	9.645736E-17	1.341710E-17
3.830000E+03	9.719649E-17	1.349637E-17
3.840000E+03	9.796009E-17	1.357864E-17
3.850000E+03	9.874643E-17	1.366363E-17
3.860000E+03	9.955626E-17	1.375145E-17
3.870000E+03	1.003886E-16	1.384195E-17
3.880000E+03	1.012416E-16	1.393483E-17
3.890000E+03	1.021150E-16	1.403007E-17
3.900000E+03	1.030077E-16	1.412749E-17
3.910000E+03	1.039194E-16	1.422704E-17
3.920000E+03	1.048481E-16	1.432843E-17
3.930000E+03	1.057943E-16	1.443171E-17
3.940000E+03	1.067558E-16	1.453658E-17
3.950000E+03	1.077331E-16	1.464309E-17
3.960000E+03	1.087240E-16	1.475092E-17
3.970000E+03	1.097270E-16	1.485989E-17
3.980000E+03	1.107425E-16	1.497002E-17
3.990000E+03	1.117681E-16	1.508098E-17
4.000000E+03	1.128032E-16	1.519269E-17
4.010000E+03	1.138463E-16	1.530494E-17
4.020000E+03	1.148968E-16	1.541762E-17
4.030000E+03	1.159529E-16	1.553052E-17
4.040000E+03	1.170131E-16	1.564342E-17
4.050000E+03	1.180766E-16	1.575623E-17
4.060000E+03	1.191429E-16	1.586885E-17
4.070000E+03	1.202082E-16	1.598080E-17
4.080000E+03	1.212739E-16	1.609225E-17
4.090000E+03	1.223362E-16	1.620271E-17
4.100000E+03	1.233954E-16	1.631222E-17
4.110000E+03	1.244487E-16	1.642042E-17
4.120000E+03	1.254953E-16	1.652720E-17
4.130000E+03	1.265333E-16	1.663232E-17
4.140000E+03	1.275607E-16	1.673553E-17
4.150000E+03	1.285755E-16	1.683658E-17
4.160000E+03	1.295756E-16	1.693520E-17
4.170000E+03	1.305597E-16	1.703125E-17
4.180000E+03	1.315256E-16	1.712443E-17
4.190000E+03	1.324696E-16	1.721431E-17
4.200000E+03	1.333891E-16	1.730055E-17
4.210000E+03	1.342814E-16	1.738282E-17
4.220000E+03	1.351446E-16	1.746090E-17
4.230000E+03	1.359744E-16	1.753427E-17
4.240000E+03	1.367676E-16	1.760253E-17
4.250000E+03	1.375195E-16	1.766513E-17
4.260000E+03	1.382276E-16	1.772176E-17
4.270000E+03	1.388870E-16	1.777183E-17
4.280000E+03	1.394936E-16	1.781488E-17
4.290000E+03	1.400433E-16	1.785041E-17
4.300000E+03	1.405296E-16	1.787763E-17
4.310000E+03	1.409505E-16	1.789636E-17
4.320000E+03	1.412993E-16	1.790580E-17
4.330000E+03	1.415718E-16	1.790546E-17
4.340000E+03	1.417629E-16	1.789475E-17
4.350000E+03	1.418709E-16	1.787356E-17
4.360000E+03	1.418890E-16	1.784105E-17
4.370000E+03	1.418165E-16	1.779724E-17
4.380000E+03	1.416513E-16	1.774192E-17
4.390000E+03	1.413933E-16	1.767514E-17
4.400000E+03	1.410461E-16	1.759743E-17
4.410000E+03	1.406148E-16	1.750949E-17
4.420000E+03	1.401077E-16	1.741240E-17
4.430000E+03	1.395287E-16	1.730674E-17
4.440000E+03	1.388873E-16	1.719368E-17
4.450000E+03	1.381893E-16	1.707401E-17
4.460000E+03	1.374420E-16	1.694867E-17
4.470000E+03	1.366550E-16	1.681887E-17
4.480000E+03	1.358318E-16	1.668507E-17
4.490000E+03	1.349829E-16	1.654860E-17
4.500000E+03	1.341115E-16	1.640983E-17
4.510000E+03	1.332263E-16	1.626986E-17
4.520000E+03	1.323321E-16	1.612928E-17
4.530000E+03	1.314345E-16	1.598880E-17
4.540000E+03	1.305390E-16	1.584905E-17
4.550000E+03	1.296482E-16	1.571035E-17
4.560000E+03	1.287688E-16	1.557353E-17
4.570000E+03	1.279028E-16	1.543881E-17
4.580000E+03	1.270541E-16	1.530665E-17
4.590000E+03	1.262262E-16	1.517744E-17
4.600000E+03	1.254222E-16	1.505156E-17
4.610000E+03	1.246438E-16	1.492920E-17
4.620000E+03	1.238926E-16	1.481050E-17
4.630000E+03	1.231707E-16	1.469574E-17
4.640000E+03	1.224804E-16	1.458512E-17
4.650000E+03	1.218234E-16	1.447885E-17
4.660000E+03	1.211990E-16	1.437683E-17
4.670000E+03	1.206100E-16	1.427935E-17
4.680000E+03	1.200565E-16	1.418640E-17
4.690000E+03	1.195386E-16	1.409797E-17
4.700000E+03	1.190573E-16	1.401416E-17
4.710000E+03	1.186125E-16	1.393493E-17
4.720000E+03	1.182040E-16	1.386023E-17
4.730000E+03	1.178316E-16	1.379001E-17
4.740000E+03	1.174950E-16	1.372421E-17
4.750000E+03	1.171940E-16	1.366278E-17
4.760000E+03	1.169282E-16	1.360566E-17
4.770000E+03	1.166974E-16	1.355278E-17
4.780000E+03	1.164999E-16	1.350393E-17
4.790000E+03	1.163361E-16	1.345914E-17
4.800000E+03	1.162033E-16	1.341807E-17
4.810000E+03	1.161027E-16	1.338084E-17
4.820000E+03	1.160313E-16	1.334707E-17
4.830000E+03	1.159892E-16	1.331676E-17
4.840000E+03	1.159751E-16	1.328975E-17
4.850000E+03	1.159857E-16	1.326562E-17
4.860000E+03	1.160218E-16	1.324449E-17
4.870000E+03	1.160811E-16	1.322603E-17
4.880000E+03	1.161633E-16	1.321023E-17
4.890000E+03	1.162637E-16	1.319651E-17
4.900000E+03	1.163844E-16	1.318511E-17
4.910000E+03	1.165217E-16	1.317561E-17
4.920000E+03	1.166754E-16	1.316797E-17
4.930000E+03	1.168431E-16	1.316191E-17
4.940000E+03	1.170248E-16	1.315741E-17
4.950000E+03	1.172168E-16	1.315406E-17
4.960000E+03	1.174191E-16	1.315185E-17
4.970000E+03	1.176318E-16	1.315078E-17
4.980000E+03	1.178514E-16	1.315046E-17
4.990000E+03	1.180769E-16	1.315077E-17
5.000000E+03	1.183085E-16	1.315175E-17
5.010000E+03	1.185454E-16	1.315327E-17
5.020000E+03	1.187844E-16	1.315501E-17
5.030000E+03	1.190259E-16	1.315699E-17
5.040000E+03	1.192692E-16	1.315915E-17
5.050000E+03	1.195136E-16	1.316140E-17
5.060000E+03	1.197572E-16	1.316354E-17
5.070000E+03	1.199993E-16	1.316548E-17
5.080000E+03	1.202403E-16	1.316730E-17
5.090000E+03	1.204772E-16	1.316863E-17
5.100000E+03	1.207103E-16	1.316954E-17
5.110000E+03	1.209375E-16	1.316979E-17
5.120000E+03	1.211580E-16	1.316930E-17
5.130000E+03	1.213708E-16	1.316797E-17
5.140000E+03	1.215747E-16	1.316569E-17
5.150000E+03	1.217676E-16	1.316221E-17
5.160000E+03	1.219492E-16	1.315754E-17
5.170000E+03	1.221159E-16	1.315126E-17
5.180000E+03	1.222672E-16	1.314337E-17
5.190000E+03	1.224002E-16	1.313355E-17
5.200000E+03	1.225133E-16	1.312164E-17
5.210000E+03	1.226044E-16	1.310742E-17
5.220000E+03	1.226713E-16	1.309070E-17
5.230000E+03	1.227094E-16	1.307098E-17
5.240000E+03	1.227187E-16	1.304829E-17
5.250000E+03	1.226930E-16	1.302199E-17
5.260000E+03	1.226320E-16	1.299206E-17
5.270000E+03	1.225306E-16	1.295799E-17
5.280000E+03	1.223870E-16	1.291962E-17
5.290000E+03	1.221972E-16	1.287655E-17
5.300000E+03	1.219570E-16	1.282837E-17
5.310000E+03	1.216648E-16	1.277494E-17
5.320000E+03	1.213154E-16	1.271574E-17
5.330000E+03	1.209073E-16	1.265066E-17
5.340000E+03	1.204371E-16	1.257936E-17
5.350000E+03	1.199013E-16	1.250152E-17
5.360000E+03	1.192982E-16	1.241700E-17
5.370000E+03	1.186264E-16	1.232570E-17
5.380000E+03	1.178851E-16	1.222755E-17
5.390000E+03	1.170715E-16	1.212232E-17
5.400000E+03	1.161870E-16	1.201019E-17
5.410000E+03	1.152316E-16	1.189119E-17
5.420000E+03	1.142079E-16	1.176563E-17
5.430000E+03	1.131163E-16	1.163358E-17
5.440000E+03	1.119633E-16	1.149575E-17
5.450000E+03	1.107538E-16	1.135267E-17
5.460000E+03	1.094990E-16	1.120551E-17
5.470000E+03	1.082018E-16	1.105457E-17
5.480000E+03	1.068602E-16	1.089969E-17
5.490000E+03	1.054754E-16	1.074099E-17
5.500000E+03	1.040527E-16	1.057903E-17
5.510000E+03	1.026033E-16	1.041495E-17
5.520000E+03	1.011333E-16	1.024937E-17
5.530000E+03	9.965510E-17	1.008356E-17
5.540000E+03	9.817612E-17	9.918252E-18
5.550000E+03	9.670646E-17	9.754469E-18
5.560000E+03	9.525599E-17	9.593188E-18
5.570000E+03	9.383421E-17	9.435350E-18
5.580000E+03	9.244827E-17	9.281653E-18
5.590000E+03	9.110673E-17	9.132932E-18
5.600000E+03	8.981755E-17	8.989955E-18
5.610000E+03	8.858710E-17	8.853332E-18
5.620000E+03	8.742099E-17	8.723587E-18
5.630000E+03	8.632575E-17	8.601339E-18
5.640000E+03	8.530426E-17	8.486838E-18
5.650000E+03	8.436023E-17	8.380414E-18
5.660000E+03	8.349540E-17	8.282201E-18
5.670000E+03	8.271133E-17	8.192316E-18
5.680000E+03	8.200772E-17	8.110688E-18
5.690000E+03	8.138335E-17	8.037161E-18
5.700000E+03	8.083699E-17	7.971574E-18
5.710000E+03	8.036675E-17	7.913707E-18
5.720000E+03	7.996855E-17	7.863121E-18
5.730000E+03	7.963958E-17	7.819509E-18
5.740000E+03	7.937604E-17	7.782468E-18
5.750000E+03	7.917410E-17	7.751592E-18
5.760000E+03	7.903172E-17	7.726655E-18
5.770000E+03	7.894370E-17	7.707123E-18
5.780000E+03	7.890853E-17	7.692825E-18
5.790000E+03	7.892252E-17	7.683380E-18
5.800000E+03	7.898400E-17	7.678604E-18
5.810000E+03	7.909086E-17	7.678273E-18
5.820000E+03	7.924134E-17	7.682195E-18
5.830000E+03	7.943477E-17	7.690290E-18
5.840000E+03	7.966910E-17	7.702341E-18
5.850000E+03	7.994414E-17	7.718314E-18
5.860000E+03	8.025911E-17	7.738116E-18
5.870000E+03	8.061244E-17	7.761582E-18
5.880000E+03	8.100540E-17	7.788819E-18
5.890000E+03	8.143581E-17	7.819601E-18
5.900000E+03	8.190516E-17	7.854059E-18
5.910000E+03	8.241229E-17	7.892066E-18
5.920000E+03	8.295693E-17	7.933583E-18
5.930000E+03	8.353970E-17	7.978656E-18
5.940000E+03	8.415828E-17	8.027050E-18
5.950000E+03	8.481309E-17	8.078792E-18
5.960000E+03	8.550437E-17	8.133894E-18
5.970000E+03	8.622942E-17	8.192085E-18
5.980000E+03	8.698822E-17	8.253354E-18
5.990000E+03	8.777969E-17	8.317587E-18
6.000000E+03	8.860159E-17	8.384562E-18
6.010000E+03	8.945259E-17	8.454143E-18
6.020000E+03	9.033120E-17	8.526183E-18
6.030000E+03	9.123479E-17	8.600423E-18
6.040000E+03	9.216163E-17	8.676697E-18
6.050000E+03	9.311097E-17	8.754927E-18
6.060000E+03	9.407756E-17	8.834615E-18
6.070000E+03	9.506147E-17	8.915763E-18
6.080000E+03	9.605696E-17	8.997831E-18
6.090000E+03	9.706373E-17	9.080791E-18
6.100000E+03	9.807555E-17	9.164058E-18
6.110000E+03	9.909046E-17	9.247452E-18
6.120000E+03	1.001028E-16	9.330447E-18
6.130000E+03	1.011102E-16	9.412823E-18
6.140000E+03	1.021063E-16	9.494008E-18
6.150000E+03	1.030860E-16	9.573521E-18
6.160000E+03	1.040465E-16	9.651116E-18
6.170000E+03	1.049814E-16	9.726206E-18
6.180000E+03	1.058882E-16	9.798583E-18
6.190000E+03	1.067639E-16	9.867977E-18
6.200000E+03	1.076062E-16	9.934191E-18
6.210000E+03	1.084139E-16	9.997123E-18
6.220000E+03	1.091892E-16	1.005699E-17
6.230000E+03	1.099322E-16	1.011383E-17
6.240000E+03	1.106449E-16	1.016783E-17
6.250000E+03	1.113298E-16	1.021923E-17
6.260000E+03	1.119924E-16	1.026855E-17
6.270000E+03	1.126325E-16	1.031579E-17
6.280000E+03	1.132532E-16	1.036121E-17
6.290000E+03	1.138588E-16	1.040522E-17
6.300000E+03	1.144520E-16	1.044807E-17
6.310000E+03	1.150345E-16	1.048991E-17
6.320000E+03	1.156072E-16	1.053082E-17
6.330000E+03	1.161742E-16	1.057118E-17
6.340000E+03	1.167348E-16	1.061094E-17
6.350000E+03	1.172914E-16	1.065029E-17
6.360000E+03	1.178444E-16	1.068928E-17
6.370000E+03	1.183941E-16	1.072792E-17
6.380000E+03	1.189404E-16	1.076623E-17
6.390000E+03	1.194834E-16	1.080417E-17
6.400000E+03	1.200224E-16	1.084172E-17
6.410000E+03	1.205551E-16	1.087865E-17
6.420000E+03	1.210824E-16	1.091504E-17
6.430000E+03	1.216030E-16	1.095078E-17
6.440000E+03	1.221177E-16	1.098593E-17
6.450000E+03	1.226269E-16	1.102053E-17
6.460000E+03	1.231276E-16	1.105431E-17
6.470000E+03	1.236221E-16	1.108747E-17
6.480000E+03	1.241091E-16	1.111990E-17
6.490000E+03	1.245894E-16	1.115167E-17
6.500000E+03	1.250601E-16	1.118252E-17
6.510000E+03	1.255240E-16	1.121270E-17
6.520000E+03	1.259786E-16	1.124198E-17
6.530000E+03	1.264249E-16	1.127046E-17
6.540000E+03	1.268605E-16	1.129793E-17
6.550000E+03	1.272870E-16	1.132451E-17
6.560000E+03	1.277061E-16	1.135036E-17
6.570000E+03	1.281137E-16	1.137513E-17
6.580000E+03	1.285116E-16	1.139898E-17
6.590000E+03	1.289023E-16	1.142211E-17
6.600000E+03	1.292814E-16	1.144416E-17
6.610000E+03	1.296537E-16	1.146552E-17
6.620000E+03	1.300150E-16	1.148586E-17
6.630000E+03	1.303697E-16	1.150554E-17
6.640000E+03	1.307138E-16	1.152423E-17
6.650000E+03	1.310493E-16	1.154209E-17
6.660000E+03	1.313762E-16	1.155913E-17
6.670000E+03	1.316921E-16	1.157513E-17
6.680000E+03	1.319988E-16	1.159027E-17
6.690000E+03	1.322937E-16	1.160431E-17
6.700000E+03	1.325765E-16	1.161722E-17
6.710000E+03	1.328490E-16	1.162918E-17
6.720000E+03	1.331084E-16	1.163994E-17
6.730000E+03	1.333521E-16	1.164927E-17
6.740000E+03	1.335845E-16	1.165757E-17
6.750000E+03	1.338008E-16	1.166440E-17
6.760000E+03	1.340029E-16	1.166996E-17
6.770000E+03	1.341908E-16	1.167424E-17
6.780000E+03	1.343619E-16	1.167703E-17
6.790000E+03	1.345160E-16	1.167830E-17
6.800000E+03	1.346530E-16	1.167806E-17
6.810000E+03	1.347751E-16	1.167651E-17
6.820000E+03	1.348798E-16	1.167343E-17
6.830000E+03	1.349644E-16	1.166859E-17
6.840000E+03	1.350312E-16	1.166220E-17
6.850000E+03	1.350801E-16	1.165427E-17
6.860000E+03	1.351111E-16	1.164480E-17
6.870000E+03	1.351215E-16	1.163355E-17
6.880000E+03	1.351115E-16	1.162057E-17
6.890000E+03	1.350836E-16	1.160606E-17
6.900000E+03	1.350353E-16	1.158983E-17
6.910000E+03	1.349669E-16	1.157191E-17
6.920000E+03	1.348784E-16	1.155230E-17
6.930000E+03	1.347700E-16	1.153104E-17
6.940000E+03	1.346420E-16	1.150815E-17
6.950000E+03	1.344946E-16	1.148367E-17
6.960000E+03	1.343253E-16	1.145738E-17
6.970000E+03	1.341344E-16	1.142933E-17
6.980000E+03	1.339249E-16	1.139978E-17
6.990000E+03	1.336972E-16	1.136876E-17
7.000000E+03	1.334463E-16	1.133588E-17
7.010000E+03	1.331782E-16	1.130165E-17
7.020000E+03	1.328910E-16	1.126590E-17
7.030000E+03	1.325852E-16	1.122870E-17
7.040000E+03	1.322591E-16	1.118991E-17
7.050000E+03	1.319163E-16	1.114984E-17
7.060000E+03	1.315576E-16	1.110858E-17
7.070000E+03	1.311839E-16	1.106620E-17
7.080000E+03	1.307938E-16	1.102260E-17
7.090000E+03	1.303881E-16	1.097785E-17
7.100000E+03	1.299707E-16	1.093229E-17
7.110000E+03	1.295399E-16	1.088579E-17
7.120000E+03	1.290944E-16	1.083824E-17
7.130000E+03	1.286405E-16	1.079018E-17
7.140000E+03	1.281771E-16	1.074152E-17
7.150000E+03	1.277053E-16	1.069238E-17
7.160000E+03	1.272244E-16	1.064267E-17
7.170000E+03	1.267382E-16	1.059275E-17
7.180000E+03	1.262486E-16	1.054278E-17
7.190000E+03	1.257549E-16	1.049269E-17
7.200000E+03	1.252591E-16	1.044266E-17
7.210000E+03	1.247656E-16	1.039307E-17
7.220000E+03	1.242742E-16	1.034390E-17
7.230000E+03	1.237868E-16	1.029532E-17
7.240000E+03	1.233057E-16	1.024751E-17
7.250000E+03	1.228325E-16	1.020063E-17
7.260000E+03	1.223669E-16	1.015464E-17
7.270000E+03	1.219153E-16	1.011007E-17
7.280000E+03	1.214764E-16	1.006684E-17
7.290000E+03	1.210460E-16	1.002459E-17
7.300000E+03	1.206325E-16	9.984011E-18
7.310000E+03	1.202286E-16	9.944514E-18
7.320000E+03	1.198390E-16	9.906491E-18
7.330000E+03	1.194612E-16	9.869728E-18
7.340000E+03	1.190940E-16	9.834139E-18
7.350000E+03	1.187340E-16	9.799450E-18
7.360000E+03	1.183799E-16	9.765549E-18
7.370000E+03	1.180301E-16	9.732311E-18
7.380000E+03	1.176830E-16	9.699617E-18
7.390000E+03	1.173315E-16	9.666878E-18
7.400000E+03	1.169763E-16	9.634160E-18
7.410000E+03	1.166105E-16	9.600901E-18
7.420000E+03	1.162295E-16	9.566721E-18
7.430000E+03	1.158287E-16	9.531267E-18
7.440000E+03	1.154091E-16	9.494604E-18
7.450000E+03	1.149689E-16	9.456602E-18
7.460000E+03	1.145116E-16	9.417544E-18
7.470000E+03	1.140408E-16	9.377743E-18
7.480000E+03	1.135528E-16	9.336884E-18
7.490000E+03	1.130493E-16	9.295101E-18
7.500000E+03	1.125347E-16	9.252748E-18
7.510000E+03	1.120038E-16	9.209374E-18
7.520000E+03	1.114626E-16	9.165472E-18
7.530000E+03	1.109140E-16	9.121263E-18
7.540000E+03	1.103612E-16	9.076996E-18
7.550000E+03	1.098075E-16	9.032937E-18
7.560000E+03	1.092564E-16	8.989362E-18
7.570000E+03	1.087139E-16	8.946758E-18
7.580000E+03	1.081811E-16	8.905191E-18
7.590000E+03	1.076633E-16	8.865098E-18
7.600000E+03	1.071608E-16	8.826497E-18
7.610000E+03	1.066788E-16	8.789807E-18
7.620000E+03	1.062192E-16	8.755166E-18
7.630000E+03	1.057813E-16	8.722517E-18
7.640000E+03	1.053688E-16	8.692159E-18
7.650000E+03	1.049827E-16	8.664164E-18
7.660000E+03	1.046211E-16	8.638376E-18
7.670000E+03	1.042868E-16	8.615021E-18
7.680000E+03	1.039776E-16	8.593898E-18
7.690000E+03	1.036981E-16	8.575400E-18
7.700000E+03	1.034431E-16	8.559092E-18
7.710000E+03	1.032148E-16	8.545136E-18
7.720000E+03	1.030098E-16	8.533273E-18
7.730000E+03	1.028301E-16	8.523643E-18
7.740000E+03	1.026747E-16	8.516170E-18
7.750000E+03	1.025426E-16	8.510770E-18
7.760000E+03	1.024302E-16	8.507149E-18
