#wls	flux	fluxerr
1.600000E+03	1.640936E-16	7.638187E-17
1.640000E+03	1.695153E-16	7.889171E-17
1.680000E+03	1.748329E-16	8.135128E-17
1.720000E+03	1.800262E-16	8.375110E-17
1.760000E+03	1.850182E-16	8.605531E-17
1.800000E+03	1.897770E-16	8.824899E-17
1.840000E+03	1.942314E-16	9.029898E-17
1.880000E+03	1.983381E-16	9.218521E-17
1.920000E+03	2.020326E-16	9.387769E-17
1.960000E+03	2.052470E-16	9.534491E-17
2.000000E+03	2.078809E-16	9.654034E-17
2.040000E+03	2.098666E-16	9.743272E-17
2.080000E+03	2.111243E-16	9.798515E-17
2.120000E+03	2.115403E-16	9.814524E-17
2.160000E+03	2.110175E-16	9.786829E-17
2.200000E+03	2.094424E-16	9.710202E-17
2.240000E+03	2.067207E-16	9.580342E-17
2.280000E+03	2.028387E-16	9.396666E-17
2.320000E+03	1.978305E-16	9.160824E-17
2.360000E+03	1.918463E-16	8.879851E-17
2.400000E+03	1.850210E-16	8.560051E-17
2.440000E+03	1.774766E-16	8.207136E-17
2.480000E+03	1.693471E-16	7.827363E-17
2.520000E+03	1.607381E-16	7.425669E-17
2.560000E+03	1.517430E-16	7.006419E-17
2.600000E+03	1.424755E-16	6.574907E-17
2.640000E+03	1.330212E-16	6.135128E-17
2.680000E+03	1.234808E-16	5.691761E-17
2.720000E+03	1.139401E-16	5.248791E-17
2.760000E+03	1.045000E-16	4.810894E-17
2.800000E+03	9.524694E-17	4.382053E-17
2.840000E+03	8.627209E-17	3.966475E-17
2.880000E+03	7.766210E-17	3.568140E-17
2.920000E+03	6.949618E-17	3.190673E-17
2.960000E+03	6.184323E-17	2.837217E-17
3.000000E+03	5.475747E-17	2.510226E-17
3.010000E+03	5.307884E-17	2.432801E-17
3.020000E+03	5.143893E-17	2.357177E-17
3.030000E+03	4.983664E-17	2.283303E-17
3.040000E+03	4.827421E-17	2.211280E-17
3.050000E+03	4.675045E-17	2.141054E-17
3.060000E+03	4.526529E-17	2.072620E-17
3.070000E+03	4.381861E-17	2.005972E-17
3.080000E+03	4.241206E-17	1.941185E-17
3.090000E+03	4.104356E-17	1.878163E-17
3.100000E+03	3.971453E-17	1.816970E-17
3.110000E+03	3.842377E-17	1.757550E-17
3.120000E+03	3.717167E-17	1.699920E-17
3.130000E+03	3.595776E-17	1.644058E-17
3.140000E+03	3.478155E-17	1.589941E-17
3.150000E+03	3.364256E-17	1.537545E-17
3.160000E+03	3.254085E-17	1.486873E-17
3.170000E+03	3.147523E-17	1.437870E-17
3.180000E+03	3.044570E-17	1.390533E-17
3.190000E+03	2.945159E-17	1.344833E-17
3.200000E+03	2.849224E-17	1.300738E-17
3.210000E+03	2.756744E-17	1.258238E-17
3.220000E+03	2.667553E-17	1.217255E-17
3.230000E+03	2.581716E-17	1.177819E-17
3.240000E+03	2.499025E-17	1.139834E-17
3.250000E+03	2.419532E-17	1.103323E-17
3.260000E+03	2.343077E-17	1.068213E-17
3.270000E+03	2.269622E-17	1.034484E-17
3.280000E+03	2.199086E-17	1.002099E-17
3.290000E+03	2.131358E-17	9.710076E-18
3.300000E+03	2.066426E-17	9.412025E-18
3.310000E+03	2.004144E-17	9.126171E-18
3.320000E+03	1.944439E-17	8.852169E-18
3.330000E+03	1.887291E-17	8.589923E-18
3.340000E+03	1.832564E-17	8.338809E-18
3.350000E+03	1.780187E-17	8.098490E-18
3.360000E+03	1.730085E-17	7.868628E-18
3.370000E+03	1.682209E-17	7.648988E-18
3.380000E+03	1.636442E-17	7.439031E-18
3.390000E+03	1.592715E-17	7.238440E-18
3.400000E+03	1.550984E-17	7.047006E-18
3.410000E+03	1.511161E-17	6.864326E-18
3.420000E+03	1.473182E-17	6.690101E-18
3.430000E+03	1.436948E-17	6.523878E-18
3.440000E+03	1.402422E-17	6.365478E-18
3.450000E+03	1.369543E-17	6.214631E-18
3.460000E+03	1.338225E-17	6.070928E-18
3.470000E+03	1.308416E-17	5.934138E-18
3.480000E+03	1.280051E-17	5.803956E-18
3.490000E+03	1.253098E-17	5.680235E-18
3.500000E+03	1.227466E-17	5.562561E-18
3.510000E+03	1.203131E-17	5.450812E-18
3.520000E+03	1.180022E-17	5.344670E-18
3.530000E+03	1.158089E-17	5.243903E-18
3.540000E+03	1.137284E-17	5.148288E-18
3.550000E+03	1.117549E-17	5.057560E-18
3.560000E+03	1.098855E-17	4.971583E-18
3.570000E+03	1.081138E-17	4.890064E-18
3.580000E+03	1.064360E-17	4.812827E-18
3.590000E+03	1.048497E-17	4.739766E-18
3.600000E+03	1.033505E-17	4.670673E-18
3.610000E+03	1.019352E-17	4.605401E-18
3.620000E+03	1.005997E-17	4.543767E-18
3.630000E+03	9.934025E-18	4.485593E-18
3.640000E+03	9.815426E-18	4.430761E-18
3.650000E+03	9.703734E-18	4.379072E-18
3.660000E+03	9.598808E-18	4.330457E-18
3.670000E+03	9.500243E-18	4.284734E-18
3.680000E+03	9.407842E-18	4.241809E-18
3.690000E+03	9.321492E-18	4.201631E-18
3.700000E+03	9.240822E-18	4.164029E-18
3.710000E+03	9.165656E-18	4.128923E-18
3.720000E+03	9.095984E-18	4.096305E-18
3.730000E+03	9.031547E-18	4.066058E-18
3.740000E+03	8.972169E-18	4.038100E-18
3.750000E+03	8.917862E-18	4.012433E-18
3.760000E+03	8.868367E-18	3.988941E-18
3.770000E+03	8.823601E-18	3.967583E-18
3.780000E+03	8.783567E-18	3.948360E-18
3.790000E+03	8.748099E-18	3.931194E-18
3.800000E+03	8.717119E-18	3.916049E-18
3.810000E+03	8.690544E-18	3.902886E-18
3.820000E+03	8.668291E-18	3.891665E-18
3.830000E+03	8.650359E-18	3.882385E-18
3.840000E+03	8.636589E-18	3.874972E-18
3.850000E+03	8.626975E-18	3.869422E-18
3.860000E+03	8.621511E-18	3.865731E-18
3.870000E+03	8.620038E-18	3.863825E-18
3.880000E+03	8.622488E-18	3.863672E-18
3.890000E+03	8.628919E-18	3.865297E-18
3.900000E+03	8.639242E-18	3.868658E-18
3.910000E+03	8.653320E-18	3.873692E-18
3.920000E+03	8.671205E-18	3.880421E-18
3.930000E+03	8.692886E-18	3.888837E-18
3.940000E+03	8.718148E-18	3.898844E-18
3.950000E+03	8.747040E-18	3.910461E-18
3.960000E+03	8.779549E-18	3.923682E-18
3.970000E+03	8.815597E-18	3.938469E-18
3.980000E+03	8.855015E-18	3.954745E-18
3.990000E+03	8.897945E-18	3.972573E-18
4.000000E+03	8.944220E-18	3.991875E-18
4.010000E+03	8.993748E-18	4.012610E-18
4.020000E+03	9.046588E-18	4.034803E-18
4.030000E+03	9.102582E-18	4.058381E-18
4.040000E+03	9.161775E-18	4.083363E-18
4.050000E+03	9.223934E-18	4.109643E-18
4.060000E+03	9.289188E-18	4.137278E-18
4.070000E+03	9.357378E-18	4.166195E-18
4.080000E+03	9.428401E-18	4.196347E-18
4.090000E+03	9.502325E-18	4.227763E-18
4.100000E+03	9.578910E-18	4.260335E-18
4.110000E+03	9.658286E-18	4.294119E-18
4.120000E+03	9.740220E-18	4.329010E-18
4.130000E+03	9.824699E-18	4.365002E-18
4.140000E+03	9.911717E-18	4.402089E-18
4.150000E+03	1.000110E-17	4.440195E-18
4.160000E+03	1.009285E-17	4.479317E-18
4.170000E+03	1.018688E-17	4.519419E-18
4.180000E+03	1.028303E-17	4.560426E-18
4.190000E+03	1.038139E-17	4.602372E-18
4.200000E+03	1.048169E-17	4.645146E-18
4.210000E+03	1.058403E-17	4.688786E-18
4.220000E+03	1.068816E-17	4.733184E-18
4.230000E+03	1.079409E-17	4.778338E-18
4.240000E+03	1.090174E-17	4.824213E-18
4.250000E+03	1.101086E-17	4.870698E-18
4.260000E+03	1.112153E-17	4.917832E-18
4.270000E+03	1.123360E-17	4.965542E-18
4.280000E+03	1.134690E-17	5.013752E-18
4.290000E+03	1.146124E-17	5.062385E-18
4.300000E+03	1.157666E-17	5.111447E-18
4.310000E+03	1.169306E-17	5.160901E-18
4.320000E+03	1.181008E-17	5.210587E-18
4.330000E+03	1.192783E-17	5.260553E-18
4.340000E+03	1.204594E-17	5.310629E-18
4.350000E+03	1.216450E-17	5.360864E-18
4.360000E+03	1.228324E-17	5.411134E-18
4.370000E+03	1.240217E-17	5.461441E-18
4.380000E+03	1.252130E-17	5.511793E-18
4.390000E+03	1.264063E-17	5.562190E-18
4.400000E+03	1.276019E-17	5.612643E-18
4.410000E+03	1.288008E-17	5.663196E-18
4.420000E+03	1.300042E-17	5.713905E-18
4.430000E+03	1.312125E-17	5.764780E-18
4.440000E+03	1.324267E-17	5.815871E-18
4.450000E+03	1.336461E-17	5.867148E-18
4.460000E+03	1.348733E-17	5.918718E-18
4.470000E+03	1.361075E-17	5.970550E-18
4.480000E+03	1.373490E-17	6.022660E-18
4.490000E+03	1.385984E-17	6.075065E-18
4.500000E+03	1.398560E-17	6.127784E-18
4.510000E+03	1.411224E-17	6.180844E-18
4.520000E+03	1.423981E-17	6.234261E-18
4.530000E+03	1.436813E-17	6.287958E-18
4.540000E+03	1.449748E-17	6.342060E-18
4.550000E+03	1.462769E-17	6.396486E-18
4.560000E+03	1.475881E-17	6.451263E-18
4.570000E+03	1.489078E-17	6.506361E-18
4.580000E+03	1.502380E-17	6.561865E-18
4.590000E+03	1.515780E-17	6.617747E-18
4.600000E+03	1.529260E-17	6.673927E-18
4.610000E+03	1.542854E-17	6.730548E-18
4.620000E+03	1.556542E-17	6.787532E-18
4.630000E+03	1.570320E-17	6.844850E-18
4.640000E+03	1.584209E-17	6.902600E-18
4.650000E+03	1.598221E-17	6.960828E-18
4.660000E+03	1.612321E-17	7.019384E-18
4.670000E+03	1.626549E-17	7.078443E-18
4.680000E+03	1.640902E-17	7.137987E-18
4.690000E+03	1.655379E-17	7.198010E-18
4.700000E+03	1.669990E-17	7.258560E-18
4.710000E+03	1.684735E-17	7.319632E-18
4.720000E+03	1.699630E-17	7.381291E-18
4.730000E+03	1.714641E-17	7.443395E-18
4.740000E+03	1.729784E-17	7.506014E-18
4.750000E+03	1.745077E-17	7.569218E-18
4.760000E+03	1.760470E-17	7.632792E-18
4.770000E+03	1.775999E-17	7.696887E-18
4.780000E+03	1.791646E-17	7.761431E-18
4.790000E+03	1.807396E-17	7.826354E-18
4.800000E+03	1.823283E-17	7.891807E-18
4.810000E+03	1.839259E-17	7.957572E-18
4.820000E+03	1.855374E-17	8.023872E-18
4.830000E+03	1.871577E-17	8.090487E-18
4.840000E+03	1.887905E-17	8.157565E-18
4.850000E+03	1.904321E-17	8.224956E-18
4.860000E+03	1.920862E-17	8.292812E-18
4.870000E+03	1.937490E-17	8.360971E-18
4.880000E+03	1.954222E-17	8.429509E-18
4.890000E+03	1.971059E-17	8.498421E-18
4.900000E+03	1.987978E-17	8.567614E-18
4.910000E+03	2.004978E-17	8.637078E-18
4.920000E+03	2.022055E-17	8.706797E-18
4.930000E+03	2.039225E-17	8.776840E-18
4.940000E+03	2.056445E-17	8.847017E-18
4.950000E+03	2.073749E-17	8.917476E-18
4.960000E+03	2.091090E-17	8.988016E-18
4.970000E+03	2.108482E-17	9.058693E-18
4.980000E+03	2.125895E-17	9.129381E-18
4.990000E+03	2.143319E-17	9.200034E-18
5.000000E+03	2.160743E-17	9.270603E-18
5.010000E+03	2.178175E-17	9.341125E-18
5.020000E+03	2.195560E-17	9.411357E-18
5.030000E+03	2.212899E-17	9.481312E-18
5.040000E+03	2.230155E-17	9.550828E-18
5.050000E+03	2.247330E-17	9.619909E-18
5.060000E+03	2.264378E-17	9.688366E-18
5.070000E+03	2.281254E-17	9.756002E-18
5.080000E+03	2.297954E-17	9.822800E-18
5.090000E+03	2.314451E-17	9.888644E-18
5.100000E+03	2.330691E-17	9.953307E-18
5.110000E+03	2.346618E-17	1.001656E-17
5.120000E+03	2.362247E-17	1.007844E-17
5.130000E+03	2.377495E-17	1.013863E-17
5.140000E+03	2.392325E-17	1.019695E-17
5.150000E+03	2.406698E-17	1.025324E-17
5.160000E+03	2.420573E-17	1.030734E-17
5.170000E+03	2.433888E-17	1.035897E-17
5.180000E+03	2.446623E-17	1.040806E-17
5.190000E+03	2.458687E-17	1.045423E-17
5.200000E+03	2.470061E-17	1.049739E-17
5.210000E+03	2.480650E-17	1.053715E-17
5.220000E+03	2.490461E-17	1.057355E-17
5.230000E+03	2.499399E-17	1.060617E-17
5.240000E+03	2.507447E-17	1.063496E-17
5.250000E+03	2.514509E-17	1.065952E-17
5.260000E+03	2.520571E-17	1.067979E-17
5.270000E+03	2.525590E-17	1.069559E-17
5.280000E+03	2.529479E-17	1.070657E-17
5.290000E+03	2.532203E-17	1.071258E-17
5.300000E+03	2.533754E-17	1.071360E-17
5.310000E+03	2.534080E-17	1.070941E-17
5.320000E+03	2.533132E-17	1.069982E-17
5.330000E+03	2.530893E-17	1.068475E-17
5.340000E+03	2.527352E-17	1.066419E-17
5.350000E+03	2.522505E-17	1.063811E-17
5.360000E+03	2.516332E-17	1.060644E-17
5.370000E+03	2.508870E-17	1.056934E-17
5.380000E+03	2.500114E-17	1.052681E-17
5.390000E+03	2.490123E-17	1.047910E-17
5.400000E+03	2.478910E-17	1.042628E-17
5.410000E+03	2.466578E-17	1.036877E-17
5.420000E+03	2.453211E-17	1.030695E-17
5.430000E+03	2.438853E-17	1.024102E-17
5.440000E+03	2.423658E-17	1.017161E-17
5.450000E+03	2.407713E-17	1.009911E-17
5.460000E+03	2.391016E-17	1.002351E-17
5.470000E+03	2.373744E-17	9.945553E-18
5.480000E+03	2.355959E-17	9.865509E-18
5.490000E+03	2.337728E-17	9.783660E-18
5.500000E+03	2.319149E-17	9.700422E-18
5.510000E+03	2.300298E-17	9.616116E-18
5.520000E+03	2.281256E-17	9.531080E-18
5.530000E+03	2.262151E-17	9.445853E-18
5.540000E+03	2.243063E-17	9.360766E-18
5.550000E+03	2.224141E-17	9.276443E-18
5.560000E+03	2.205506E-17	9.193389E-18
5.570000E+03	2.187254E-17	9.111999E-18
5.580000E+03	2.169519E-17	9.032833E-18
5.590000E+03	2.152407E-17	8.956325E-18
5.600000E+03	2.136017E-17	8.882883E-18
5.610000E+03	2.120461E-17	8.812970E-18
5.620000E+03	2.105822E-17	8.746923E-18
5.630000E+03	2.092173E-17	8.685039E-18
5.640000E+03	2.079601E-17	8.627669E-18
5.650000E+03	2.068159E-17	8.575031E-18
5.660000E+03	2.057917E-17	8.527405E-18
5.670000E+03	2.048912E-17	8.484932E-18
5.680000E+03	2.041175E-17	8.447732E-18
5.690000E+03	2.034747E-17	8.415971E-18
5.700000E+03	2.029645E-17	8.389704E-18
5.710000E+03	2.025878E-17	8.368959E-18
5.720000E+03	2.023471E-17	8.353828E-18
5.730000E+03	2.022423E-17	8.344298E-18
5.740000E+03	2.022750E-17	8.340427E-18
5.750000E+03	2.024426E-17	8.342095E-18
5.760000E+03	2.027484E-17	8.349425E-18
5.770000E+03	2.031893E-17	8.362281E-18
5.780000E+03	2.037641E-17	8.380604E-18
5.790000E+03	2.044764E-17	8.404527E-18
5.800000E+03	2.053206E-17	8.433815E-18
5.810000E+03	2.063003E-17	8.468601E-18
5.820000E+03	2.074145E-17	8.508838E-18
5.830000E+03	2.086628E-17	8.554490E-18
5.840000E+03	2.100421E-17	8.605427E-18
5.850000E+03	2.115564E-17	8.661798E-18
5.860000E+03	2.132029E-17	8.723480E-18
5.870000E+03	2.149837E-17	8.790544E-18
5.880000E+03	2.168981E-17	8.862955E-18
5.890000E+03	2.189435E-17	8.940591E-18
5.900000E+03	2.211218E-17	9.023518E-18
5.910000E+03	2.234347E-17	9.111801E-18
5.920000E+03	2.258767E-17	9.205196E-18
5.930000E+03	2.284494E-17	9.303763E-18
5.940000E+03	2.311517E-17	9.407442E-18
5.950000E+03	2.339849E-17	9.516276E-18
5.960000E+03	2.369423E-17	9.629982E-18
5.970000E+03	2.400273E-17	9.748689E-18
5.980000E+03	2.432325E-17	9.872081E-18
5.990000E+03	2.465580E-17	1.000016E-17
6.000000E+03	2.500011E-17	1.013279E-17
6.010000E+03	2.535557E-17	1.026972E-17
6.020000E+03	2.572209E-17	1.041092E-17
6.030000E+03	2.609871E-17	1.055597E-17
6.040000E+03	2.648555E-17	1.070492E-17
6.050000E+03	2.688122E-17	1.085720E-17
6.060000E+03	2.728580E-17	1.101282E-17
6.070000E+03	2.769806E-17	1.117129E-17
6.080000E+03	2.811771E-17	1.133249E-17
6.090000E+03	2.854342E-17	1.149587E-17
6.100000E+03	2.897447E-17	1.166112E-17
6.110000E+03	2.940978E-17	1.182782E-17
6.120000E+03	2.984852E-17	1.199564E-17
6.130000E+03	3.028918E-17	1.216394E-17
6.140000E+03	3.073051E-17	1.233224E-17
6.150000E+03	3.117163E-17	1.250018E-17
6.160000E+03	3.161126E-17	1.266725E-17
6.170000E+03	3.204732E-17	1.283260E-17
6.180000E+03	3.247884E-17	1.299587E-17
6.190000E+03	3.290450E-17	1.315652E-17
6.200000E+03	3.332335E-17	1.331418E-17
6.210000E+03	3.373492E-17	1.346866E-17
6.220000E+03	3.413877E-17	1.361981E-17
6.230000E+03	3.453501E-17	1.376766E-17
6.240000E+03	3.492473E-17	1.391267E-17
6.250000E+03	3.530784E-17	1.405479E-17
6.260000E+03	3.568385E-17	1.419384E-17
6.270000E+03	3.605421E-17	1.433040E-17
6.280000E+03	3.641910E-17	1.446456E-17
6.290000E+03	3.677781E-17	1.459602E-17
6.300000E+03	3.713211E-17	1.472551E-17
6.310000E+03	3.748092E-17	1.485259E-17
6.320000E+03	3.782568E-17	1.497784E-17
6.330000E+03	3.816589E-17	1.510108E-17
6.340000E+03	3.850211E-17	1.522250E-17
6.350000E+03	3.883440E-17	1.534216E-17
6.360000E+03	3.916287E-17	1.546009E-17
6.370000E+03	3.948763E-17	1.557634E-17
6.380000E+03	3.980825E-17	1.569075E-17
6.390000E+03	4.012430E-17	1.580315E-17
6.400000E+03	4.043647E-17	1.591381E-17
6.410000E+03	4.074375E-17	1.602233E-17
6.420000E+03	4.104682E-17	1.612901E-17
6.430000E+03	4.134525E-17	1.623365E-17
6.440000E+03	4.163916E-17	1.633633E-17
6.450000E+03	4.192929E-17	1.643732E-17
6.460000E+03	4.221706E-17	1.653720E-17
6.470000E+03	4.250269E-17	1.663605E-17
6.480000E+03	4.278703E-17	1.673419E-17
6.490000E+03	4.307098E-17	1.683200E-17
6.500000E+03	4.335414E-17	1.692931E-17
6.510000E+03	4.363810E-17	1.702673E-17
6.520000E+03	4.392314E-17	1.712439E-17
6.530000E+03	4.420886E-17	1.722212E-17
6.540000E+03	4.449692E-17	1.732057E-17
6.550000E+03	4.478689E-17	1.741957E-17
6.560000E+03	4.507835E-17	1.751895E-17
6.570000E+03	4.537295E-17	1.761935E-17
6.580000E+03	4.567024E-17	1.772061E-17
6.590000E+03	4.597046E-17	1.782280E-17
6.600000E+03	4.627457E-17	1.792629E-17
6.610000E+03	4.658129E-17	1.803060E-17
6.620000E+03	4.689077E-17	1.813577E-17
6.630000E+03	4.720473E-17	1.824246E-17
6.640000E+03	4.752176E-17	1.835013E-17
6.650000E+03	4.784198E-17	1.845883E-17
6.660000E+03	4.816628E-17	1.856888E-17
6.670000E+03	4.849394E-17	1.868002E-17
6.680000E+03	4.882501E-17	1.879225E-17
6.690000E+03	4.916036E-17	1.890591E-17
6.700000E+03	4.949833E-17	1.902037E-17
6.710000E+03	4.983887E-17	1.913559E-17
6.720000E+03	5.018368E-17	1.925222E-17
6.730000E+03	5.053095E-17	1.936958E-17
6.740000E+03	5.088062E-17	1.948763E-17
6.750000E+03	5.123344E-17	1.960667E-17
6.760000E+03	5.158842E-17	1.972631E-17
6.770000E+03	5.194541E-17	1.984648E-17
6.780000E+03	5.230423E-17	1.996713E-17
6.790000E+03	5.266473E-17	2.008820E-17
6.800000E+03	5.302576E-17	2.020924E-17
6.810000E+03	5.338805E-17	2.033053E-17
6.820000E+03	5.375139E-17	2.045200E-17
6.830000E+03	5.411459E-17	2.057320E-17
6.840000E+03	5.447839E-17	2.069440E-17
6.850000E+03	5.484157E-17	2.081513E-17
6.860000E+03	5.520385E-17	2.093531E-17
6.870000E+03	5.556498E-17	2.105484E-17
6.880000E+03	5.592367E-17	2.117322E-17
6.890000E+03	5.628171E-17	2.129114E-17
6.900000E+03	5.663784E-17	2.140813E-17
6.910000E+03	5.699072E-17	2.152369E-17
6.920000E+03	5.734116E-17	2.163812E-17
6.930000E+03	5.768783E-17	2.175093E-17
6.940000E+03	5.803048E-17	2.186202E-17
6.950000E+03	5.836997E-17	2.197173E-17
6.960000E+03	5.870496E-17	2.207957E-17
6.970000E+03	5.903526E-17	2.218545E-17
6.980000E+03	5.936064E-17	2.228932E-17
6.990000E+03	5.968094E-17	2.239110E-17
7.000000E+03	5.999480E-17	2.249030E-17
7.010000E+03	6.030443E-17	2.258775E-17
7.020000E+03	6.060736E-17	2.268254E-17
7.030000E+03	6.090348E-17	2.277463E-17
7.040000E+03	6.119390E-17	2.286445E-17
7.050000E+03	6.147738E-17	2.295154E-17
7.060000E+03	6.175390E-17	2.303590E-17
7.070000E+03	6.202346E-17	2.311754E-17
7.080000E+03	6.228612E-17	2.319650E-17
7.090000E+03	6.254320E-17	2.327327E-17
7.100000E+03	6.279232E-17	2.334698E-17
7.110000E+03	6.303361E-17	2.341769E-17
7.120000E+03	6.326851E-17	2.348593E-17
7.130000E+03	6.349722E-17	2.355180E-17
7.140000E+03	6.371871E-17	2.361491E-17
7.150000E+03	6.393451E-17	2.367585E-17
7.160000E+03	6.414230E-17	2.373377E-17
7.170000E+03	6.434499E-17	2.378975E-17
7.180000E+03	6.454158E-17	2.384342E-17
7.190000E+03	6.473237E-17	2.389492E-17
7.200000E+03	6.491634E-17	2.394386E-17
7.210000E+03	6.509648E-17	2.399137E-17
7.220000E+03	6.527040E-17	2.403657E-17
7.230000E+03	6.543973E-17	2.408007E-17
7.240000E+03	6.560338E-17	2.412147E-17
7.250000E+03	6.576295E-17	2.416137E-17
7.260000E+03	6.591725E-17	2.419934E-17
7.270000E+03	6.606646E-17	2.423545E-17
7.280000E+03	6.621209E-17	2.427027E-17
7.290000E+03	6.635287E-17	2.430334E-17
7.300000E+03	6.649028E-17	2.433521E-17
7.310000E+03	6.662151E-17	2.436485E-17
7.320000E+03	6.674799E-17	2.439279E-17
7.330000E+03	6.687115E-17	2.441958E-17
7.340000E+03	6.698808E-17	2.444414E-17
7.350000E+03	6.710021E-17	2.446702E-17
7.360000E+03	6.720602E-17	2.448766E-17
7.370000E+03	6.730697E-17	2.450661E-17
7.380000E+03	6.740157E-17	2.452333E-17
7.390000E+03	6.748986E-17	2.453784E-17
7.400000E+03	6.757185E-17	2.455016E-17
7.410000E+03	6.764616E-17	2.455980E-17
7.420000E+03	6.771290E-17	2.456680E-17
7.430000E+03	6.777221E-17	2.457123E-17
7.440000E+03	6.782429E-17	2.457316E-17
7.450000E+03	6.787090E-17	2.457325E-17
7.460000E+03	6.791080E-17	2.457105E-17
7.470000E+03	6.794737E-17	2.456779E-17
7.480000E+03	6.798095E-17	2.456361E-17
7.490000E+03	6.801190E-17	2.455863E-17
7.500000E+03	6.804056E-17	2.455299E-17
7.510000E+03	6.806727E-17	2.454681E-17
7.520000E+03	6.809529E-17	2.454128E-17
7.530000E+03	6.812153E-17	2.453528E-17
7.540000E+03	6.814749E-17	2.452936E-17
7.550000E+03	6.817310E-17	2.452349E-17
7.560000E+03	6.819983E-17	2.451818E-17
7.570000E+03	6.822444E-17	2.451229E-17
7.580000E+03	6.824837E-17	2.450632E-17
7.590000E+03	6.827153E-17	2.450025E-17
7.600000E+03	6.829543E-17	2.449461E-17
7.610000E+03	6.831679E-17	2.448822E-17
7.620000E+03	6.833874E-17	2.448222E-17
7.630000E+03	6.835965E-17	2.447600E-17
7.640000E+03	6.837782E-17	2.446897E-17
7.650000E+03	6.839648E-17	2.446228E-17
7.660000E+03	6.841399E-17	2.445534E-17
7.670000E+03	6.843032E-17	2.444814E-17
7.680000E+03	6.844546E-17	2.444068E-17
7.690000E+03	6.845938E-17	2.443294E-17
7.700000E+03	6.847206E-17	2.442492E-17
7.710000E+03	6.848512E-17	2.441719E-17
7.720000E+03	6.849519E-17	2.440856E-17
7.730000E+03	6.850553E-17	2.440018E-17
7.740000E+03	6.851438E-17	2.439142E-17
7.750000E+03	6.852164E-17	2.438226E-17
7.760000E+03	6.852718E-17	2.437264E-17
