#wls	flux	fluxerr
1.600000E+03	1.594958E-19	1.445255E-16
1.640000E+03	-1.118993E-18	1.454651E-16
1.680000E+03	-2.548308E-18	1.457263E-16
1.720000E+03	-4.134059E-18	1.452591E-16
1.760000E+03	-5.879470E-18	1.439717E-16
1.800000E+03	-6.982278E-18	1.407188E-16
1.840000E+03	-8.157375E-18	1.365473E-16
1.880000E+03	-9.401760E-18	1.314290E-16
1.920000E+03	-1.071015E-17	1.253313E-16
1.960000E+03	-1.098474E-17	1.171895E-16
2.000000E+03	-1.123336E-17	1.081179E-16
2.040000E+03	-1.145157E-17	9.815094E-17
2.080000E+03	-1.163409E-17	8.733665E-17
2.120000E+03	-1.043465E-17	7.493964E-17
2.160000E+03	-9.170743E-18	6.201955E-17
2.200000E+03	-7.853826E-18	4.871179E-17
2.240000E+03	-6.499241E-18	3.518886E-17
2.280000E+03	-3.683126E-18	3.042374E-17
2.320000E+03	-9.593687E-19	2.566531E-17
2.360000E+03	1.629131E-18	2.099673E-17
2.400000E+03	4.046716E-18	1.648814E-17
2.440000E+03	7.480379E-18	2.608947E-17
2.480000E+03	1.052143E-17	3.455418E-17
2.520000E+03	1.315103E-17	4.183118E-17
2.560000E+03	1.535792E-17	4.789084E-17
2.600000E+03	1.786230E-17	5.107801E-17
2.640000E+03	1.976665E-17	5.316301E-17
2.680000E+03	2.110119E-17	5.421524E-17
2.720000E+03	2.190285E-17	5.431406E-17
2.760000E+03	2.249102E-17	5.212744E-17
2.800000E+03	2.251223E-17	4.939552E-17
2.840000E+03	2.205381E-17	4.624416E-17
2.880000E+03	2.120588E-17	4.279942E-17
2.920000E+03	2.003781E-17	3.823300E-17
2.960000E+03	1.860174E-17	3.381353E-17
3.000000E+03	1.700041E-17	2.962267E-17
3.010000E+03	1.658483E-17	2.861808E-17
3.020000E+03	1.614918E-17	2.752653E-17
3.030000E+03	1.571009E-17	2.646133E-17
3.040000E+03	1.526946E-17	2.542388E-17
3.050000E+03	1.482808E-17	2.441373E-17
3.060000E+03	1.437716E-17	2.338624E-17
3.070000E+03	1.392738E-17	2.238943E-17
3.080000E+03	1.348032E-17	2.142405E-17
3.090000E+03	1.303631E-17	2.048893E-17
3.100000E+03	1.258599E-17	1.954547E-17
3.110000E+03	1.214061E-17	1.863504E-17
3.120000E+03	1.170115E-17	1.775746E-17
3.130000E+03	1.126828E-17	1.691215E-17
3.140000E+03	1.083143E-17	1.606449E-17
3.150000E+03	1.040256E-17	1.525066E-17
3.160000E+03	9.982413E-18	1.447017E-17
3.170000E+03	9.571252E-18	1.372190E-17
3.180000E+03	9.158291E-18	1.297587E-17
3.190000E+03	8.755479E-18	1.226302E-17
3.200000E+03	8.363092E-18	1.158228E-17
3.210000E+03	7.981490E-18	1.093279E-17
3.220000E+03	7.599270E-18	1.028783E-17
3.230000E+03	7.228541E-18	9.674264E-18
3.240000E+03	6.868976E-18	9.090377E-18
3.250000E+03	6.520939E-18	8.535443E-18
3.260000E+03	6.173154E-18	7.986333E-18
3.270000E+03	5.837024E-18	7.465520E-18
3.280000E+03	5.512419E-18	6.971714E-18
3.290000E+03	5.199087E-18	6.503548E-18
3.300000E+03	4.886394E-18	6.041545E-18
3.310000E+03	4.584959E-18	5.604396E-18
3.320000E+03	4.294535E-18	5.190841E-18
3.330000E+03	4.014969E-18	4.799803E-18
3.340000E+03	3.735707E-18	4.414228E-18
3.350000E+03	3.466977E-18	4.050095E-18
3.360000E+03	3.208447E-18	3.706213E-18
3.370000E+03	2.959815E-18	3.381484E-18
3.380000E+03	2.711014E-18	3.061345E-18
3.390000E+03	2.471712E-18	2.759322E-18
3.400000E+03	2.241565E-18	2.474364E-18
3.410000E+03	2.020149E-18	2.205387E-18
3.420000E+03	1.797988E-18	1.940062E-18
3.430000E+03	1.584138E-18	1.689783E-18
3.440000E+03	1.378234E-18	1.453612E-18
3.450000E+03	1.179885E-18	1.230637E-18
3.460000E+03	9.801220E-19	1.010371E-18
3.470000E+03	7.875183E-19	8.025066E-19
3.480000E+03	6.016917E-19	6.062107E-19
3.490000E+03	4.222849E-19	4.207163E-19
3.500000E+03	2.408972E-19	2.371930E-19
3.510000E+03	6.558289E-20	6.382921E-20
3.520000E+03	-1.040088E-19	-1.000755E-19
3.530000E+03	-2.682107E-19	-2.551710E-19
3.540000E+03	-4.345357E-19	-4.085416E-19
3.550000E+03	-5.957459E-19	-5.535992E-19
3.560000E+03	-7.521510E-19	-6.909225E-19
3.570000E+03	-9.040252E-19	-8.210307E-19
3.580000E+03	-1.057659E-18	-9.491658E-19
3.590000E+03	-1.206982E-18	-1.070481E-18
3.600000E+03	-1.352244E-18	-1.185434E-18
3.610000E+03	-1.493687E-18	-1.294456E-18
3.620000E+03	-1.636402E-18	-1.401168E-18
3.630000E+03	-1.775402E-18	-1.502207E-18
3.640000E+03	-1.910895E-18	-1.597945E-18
3.650000E+03	-2.043040E-18	-1.688695E-18
3.660000E+03	-2.175796E-18	-1.776696E-18
3.670000E+03	-2.305225E-18	-1.859882E-18
3.680000E+03	-2.431486E-18	-1.938548E-18
3.690000E+03	-2.554754E-18	-2.012985E-18
3.700000E+03	-2.677783E-18	-2.084146E-18
3.710000E+03	-2.797725E-18	-2.151157E-18
3.720000E+03	-2.914749E-18	-2.214290E-18
3.730000E+03	-3.028941E-18	-2.273744E-18
3.740000E+03	-3.141941E-18	-2.329395E-18
3.750000E+03	-3.252013E-18	-2.381450E-18
3.760000E+03	-3.359192E-18	-2.430059E-18
3.770000E+03	-3.463558E-18	-2.475397E-18
3.780000E+03	-3.565621E-18	-2.516388E-18
3.790000E+03	-3.664650E-18	-2.554120E-18
3.800000E+03	-3.760681E-18	-2.588731E-18
3.810000E+03	-3.853744E-18	-2.620349E-18
3.820000E+03	-3.943076E-18	-2.646970E-18
3.830000E+03	-4.029106E-18	-2.670565E-18
3.840000E+03	-4.111792E-18	-2.691214E-18
3.850000E+03	-4.191131E-18	-2.709018E-18
3.860000E+03	-4.265099E-18	-2.721178E-18
3.870000E+03	-4.335205E-18	-2.730386E-18
3.880000E+03	-4.401373E-18	-2.736704E-18
3.890000E+03	-4.463579E-18	-2.740222E-18
3.900000E+03	-4.518349E-18	-2.737351E-18
3.910000E+03	-4.568418E-18	-2.731496E-18
3.920000E+03	-4.613699E-18	-2.722722E-18
3.930000E+03	-4.654051E-18	-2.711058E-18
3.940000E+03	-4.684412E-18	-2.692172E-18
3.950000E+03	-4.708910E-18	-2.670180E-18
3.960000E+03	-4.727332E-18	-2.645091E-18
3.970000E+03	-4.739410E-18	-2.616881E-18
3.980000E+03	-4.738456E-18	-2.580591E-18
3.990000E+03	-4.730039E-18	-2.540965E-18
4.000000E+03	-4.713769E-18	-2.497940E-18
4.010000E+03	-4.689266E-18	-2.451464E-18
4.020000E+03	-4.648193E-18	-2.396076E-18
4.030000E+03	-4.597483E-18	-2.336992E-18
4.040000E+03	-4.536763E-18	-2.274198E-18
4.050000E+03	-4.465497E-18	-2.207601E-18
4.060000E+03	-4.373486E-18	-2.131263E-18
4.070000E+03	-4.269342E-18	-2.050926E-18
4.080000E+03	-4.152547E-18	-1.966544E-18
4.090000E+03	-4.022645E-18	-1.878107E-18
4.100000E+03	-3.867269E-18	-1.779196E-18
4.110000E+03	-3.696988E-18	-1.676081E-18
4.120000E+03	-3.511181E-18	-1.568716E-18
4.130000E+03	-3.309317E-18	-1.457098E-18
4.140000E+03	-3.077030E-18	-1.334547E-18
4.150000E+03	-2.826749E-18	-1.207686E-18
4.160000E+03	-2.557927E-18	-1.076543E-18
4.170000E+03	-2.269997E-18	-9.411434E-19
4.180000E+03	-1.946405E-18	-7.945944E-19
4.190000E+03	-1.601766E-18	-6.438743E-19
4.200000E+03	-1.235501E-18	-4.890374E-19
4.210000E+03	-8.471015E-19	-3.301698E-19
4.220000E+03	-4.178596E-19	-1.602996E-19
4.230000E+03	3.539694E-20	1.336507E-20
4.240000E+03	5.131464E-19	1.907004E-19
4.250000E+03	1.015822E-18	3.715646E-19
4.260000E+03	1.564211E-18	5.628842E-19
4.270000E+03	2.139155E-18	7.573046E-19
4.280000E+03	2.740959E-18	9.546232E-19
4.290000E+03	3.369863E-18	1.154618E-18
4.300000E+03	4.048589E-18	1.364058E-18
4.310000E+03	4.755612E-18	1.575542E-18
4.320000E+03	5.490892E-18	1.788757E-18
4.330000E+03	6.254522E-18	2.003444E-18
4.340000E+03	7.070724E-18	2.226052E-18
4.350000E+03	7.915717E-18	2.449262E-18
4.360000E+03	8.789143E-18	2.672694E-18
4.370000E+03	9.690741E-18	2.896012E-18
4.380000E+03	1.064632E-17	3.125414E-18
4.390000E+03	1.162996E-17	3.353742E-18
4.400000E+03	1.264126E-17	3.580655E-18
4.410000E+03	1.367994E-17	3.805862E-18
4.420000E+03	1.477322E-17	4.035329E-18
4.430000E+03	1.589364E-17	4.262200E-18
4.440000E+03	1.704096E-17	4.486225E-18
4.450000E+03	1.821463E-17	4.707089E-18
4.460000E+03	1.944192E-17	4.930315E-18
4.470000E+03	2.069500E-17	5.149540E-18
4.480000E+03	2.197342E-17	5.364518E-18
4.490000E+03	2.327669E-17	5.574997E-18
4.500000E+03	2.462700E-17	5.785108E-18
4.510000E+03	2.600084E-17	5.989909E-18
4.520000E+03	2.739760E-17	6.189178E-18
4.530000E+03	2.881618E-17	6.382590E-18
4.540000E+03	3.027254E-17	6.573151E-18
4.550000E+03	3.174865E-17	6.757144E-18
4.560000E+03	3.324376E-17	6.934385E-18
4.570000E+03	3.475680E-17	7.104640E-18
4.580000E+03	3.629545E-17	7.270020E-18
4.590000E+03	3.784918E-17	7.427850E-18
4.600000E+03	3.941636E-17	7.577848E-18
4.610000E+03	4.099664E-17	7.720005E-18
4.620000E+03	4.258767E-17	7.855998E-18
4.630000E+03	4.418689E-17	7.983541E-18
4.640000E+03	4.579343E-17	8.102585E-18
4.650000E+03	4.740602E-17	8.213025E-18
4.660000E+03	4.901401E-17	8.317341E-18
4.670000E+03	5.062311E-17	8.412798E-18
4.680000E+03	5.223135E-17	8.499248E-18
4.690000E+03	5.383669E-17	8.576547E-18
4.700000E+03	5.542307E-17	8.649354E-18
4.710000E+03	5.700093E-17	8.712983E-18
4.720000E+03	5.856847E-17	8.767397E-18
4.730000E+03	6.012221E-17	8.812334E-18
4.740000E+03	6.164059E-17	8.855498E-18
4.750000E+03	6.314088E-17	8.889647E-18
4.760000E+03	6.461914E-17	8.914517E-18
4.770000E+03	6.607439E-17	8.930280E-18
4.780000E+03	6.747929E-17	8.948410E-18
4.790000E+03	6.885409E-17	8.957701E-18
4.800000E+03	7.019760E-17	8.958320E-18
4.810000E+03	7.150520E-17	8.950004E-18
4.820000E+03	7.274900E-17	8.949201E-18
4.830000E+03	7.395049E-17	8.939928E-18
4.840000E+03	7.510811E-17	8.922325E-18
4.850000E+03	7.621727E-17	8.896189E-18
4.860000E+03	7.724793E-17	8.881758E-18
4.870000E+03	7.822372E-17	8.859201E-18
4.880000E+03	7.914211E-17	8.828552E-18
4.890000E+03	7.999981E-17	8.789770E-18
4.900000E+03	8.076418E-17	8.764057E-18
4.910000E+03	8.146132E-17	8.730401E-18
4.920000E+03	8.208776E-17	8.688714E-18
4.930000E+03	8.264092E-17	8.639014E-18
4.940000E+03	8.309069E-17	8.602721E-18
4.950000E+03	8.346259E-17	8.558525E-18
4.960000E+03	8.375175E-17	8.506161E-18
4.970000E+03	8.395570E-17	8.445615E-18
4.980000E+03	8.405327E-17	8.398241E-18
4.990000E+03	8.406195E-17	8.342565E-18
5.000000E+03	8.397841E-17	8.278427E-18
5.010000E+03	8.380009E-17	8.205748E-18
5.020000E+03	8.351725E-17	8.145408E-18
5.030000E+03	8.313696E-17	8.076180E-18
5.040000E+03	8.265506E-17	7.997762E-18
5.050000E+03	8.206890E-17	7.910006E-18
5.060000E+03	8.138750E-17	7.833625E-18
5.070000E+03	8.060039E-17	7.747373E-18
5.080000E+03	7.970528E-17	7.651067E-18
5.090000E+03	7.869908E-17	7.544449E-18
5.100000E+03	7.761463E-17	7.448361E-18
5.110000E+03	7.642037E-17	7.341426E-18
5.120000E+03	7.511515E-17	7.223507E-18
5.130000E+03	7.369503E-17	7.094194E-18
5.140000E+03	7.222312E-17	6.975075E-18
5.150000E+03	7.064223E-17	6.844268E-18
5.160000E+03	6.895090E-17	6.701548E-18
5.170000E+03	6.714723E-17	6.546643E-18
5.180000E+03	6.533054E-17	6.402595E-18
5.190000E+03	6.341108E-17	6.246299E-18
5.200000E+03	6.138959E-17	6.077702E-18
5.210000E+03	5.926524E-17	5.896602E-18
5.220000E+03	5.717932E-17	5.728226E-18
5.230000E+03	5.500427E-17	5.547691E-18
5.240000E+03	5.274187E-17	5.355036E-18
5.250000E+03	5.039259E-17	5.150177E-18
5.260000E+03	4.814213E-17	4.960231E-18
5.270000E+03	4.582068E-17	4.758875E-18
5.280000E+03	4.342970E-17	4.546134E-18
5.290000E+03	4.097199E-17	4.322180E-18
5.300000E+03	3.867807E-17	4.116487E-18
5.310000E+03	3.633385E-17	3.900848E-18
5.320000E+03	3.394256E-17	3.675519E-18
5.330000E+03	3.150814E-17	3.440851E-18
5.337215E+03	-6.289140E-18	-6.912380E-19
5.337415E+03	-6.048500E-18	-6.649072E-19
5.337615E+03	-5.809129E-18	-6.387064E-19
5.337815E+03	-5.571054E-18	-6.126388E-19
5.338015E+03	-5.334405E-18	-5.867200E-19
5.338215E+03	-5.099168E-18	-5.609471E-19
5.338415E+03	-4.865376E-18	-5.353239E-19
5.338615E+03	-4.632837E-18	-5.098294E-19
5.339016E+03	-4.180729E-18	-4.602417E-19
5.339216E+03	-3.952071E-18	-4.351475E-19
5.339616E+03	-3.506991E-18	-3.862798E-19
5.340616E+03	-2.421121E-18	-2.669145E-19
5.340816E+03	-2.202641E-18	-2.428719E-19
5.341016E+03	-1.985161E-18	-2.189309E-19
5.341416E+03	-1.558280E-18	-1.719145E-19
5.341616E+03	-1.345119E-18	-1.484245E-19
5.341816E+03	-1.133344E-18	-1.250791E-19
5.342816E+03	-9.698467E-20	-1.071311E-20
5.343016E+03	1.076379E-19	1.189202E-20
5.343416E+03	5.132108E-19	5.672074E-20
5.344016E+03	1.114767E-18	1.232720E-19
5.344417E+03	1.512361E-18	1.672988E-19
5.345417E+03	2.493304E-18	2.760594E-19
5.346217E+03	3.261789E-18	3.614054E-19
5.346417E+03	3.445316E-18	3.818088E-19
5.346617E+03	3.627924E-18	4.021177E-19
5.346817E+03	3.808908E-18	4.222538E-19
5.347017E+03	3.987909E-18	4.421773E-19
5.347417E+03	4.352441E-18	4.827702E-19
5.347817E+03	4.713297E-18	5.229843E-19
5.348017E+03	4.885828E-18	5.422259E-19
5.348217E+03	5.056693E-18	5.612892E-19
5.348816E+03	5.588985E-18	6.207084E-19
5.349217E+03	5.935008E-18	6.593757E-19
5.349617E+03	6.277255E-18	6.976504E-19
5.350417E+03	6.965987E-18	7.747530E-19
5.350817E+03	7.294981E-18	8.116366E-19
5.351417E+03	7.793233E-18	8.675414E-19
5.352217E+03	8.452111E-18	9.415661E-19
5.352617E+03	8.764495E-18	9.767174E-19
5.352817E+03	8.906584E-18	9.927311E-19
5.353217E+03	9.212279E-18	1.027175E-18
5.353417E+03	9.350050E-18	1.042724E-18
5.353617E+03	9.486757E-18	1.058161E-18
5.353817E+03	9.621350E-18	1.073367E-18
5.354217E+03	9.915128E-18	1.106541E-18
5.354617E+03	1.020505E-17	1.139308E-18
5.354818E+03	1.033420E-17	1.153936E-18
5.355018E+03	1.046040E-17	1.168239E-18
5.355218E+03	1.058544E-17	1.182417E-18
5.355418E+03	1.070785E-17	1.196306E-18
5.356018E+03	1.113602E-17	1.244817E-18
5.356418E+03	1.140573E-17	1.275427E-18
5.356618E+03	1.152013E-17	1.288452E-18
5.356818E+03	1.163330E-17	1.301345E-18
5.357018E+03	1.174585E-17	1.314173E-18
5.357218E+03	1.185594E-17	1.326730E-18
5.357818E+03	1.225644E-17	1.372292E-18
5.358018E+03	1.236140E-17	1.384293E-18
5.358218E+03	1.246449E-17	1.396090E-18
5.358618E+03	1.270783E-17	1.423861E-18
5.358818E+03	1.280723E-17	1.435258E-18
5.359018E+03	1.290444E-17	1.446413E-18
5.359218E+03	1.299936E-17	1.457316E-18
5.359418E+03	1.309297E-17	1.468077E-18
5.360419E+03	1.373325E-17	1.541265E-18
5.360819E+03	1.395450E-17	1.566662E-18
5.361418E+03	1.430372E-17	1.606739E-18
5.361618E+03	1.438427E-17	1.616080E-18
5.363418E+03	1.549103E-17	1.743264E-18
5.363618E+03	1.556093E-17	1.751447E-18
5.363818E+03	1.562882E-17	1.759406E-18
5.364018E+03	1.569541E-17	1.767223E-18
5.364218E+03	1.576032E-17	1.774853E-18
5.364418E+03	1.582356E-17	1.782298E-18
5.364618E+03	1.588536E-17	1.789583E-18
5.365018E+03	1.606502E-17	1.810480E-18
5.365819E+03	1.647753E-17	1.858316E-18
5.366419E+03	1.676222E-17	1.891451E-18
5.366619E+03	1.681193E-17	1.897404E-18
5.366819E+03	1.686020E-17	1.903197E-18
5.367219E+03	1.702033E-17	1.921970E-18
5.367619E+03	1.717629E-17	1.940285E-18
5.368619E+03	1.765487E-17	1.996154E-18
5.369019E+03	1.779904E-17	2.013185E-18
5.370219E+03	1.835992E-17	2.078886E-18
5.370619E+03	1.849143E-17	2.094535E-18
5.370819E+03	1.851803E-17	2.097929E-18
5.371020E+03	1.854379E-17	2.101231E-18
5.372020E+03	1.896829E-17	2.151286E-18
5.373819E+03	1.975545E-17	2.244218E-18
5.374019E+03	1.976576E-17	2.245795E-18
5.374219E+03	1.977525E-17	2.247282E-18
5.374819E+03	1.996954E-17	2.270598E-18
5.376420E+03	2.059607E-17	2.345240E-18
5.376620E+03	2.059464E-17	2.345502E-18
5.376820E+03	2.059399E-17	2.345855E-18
5.377220E+03	2.067673E-17	2.356135E-18
5.378220E+03	2.100123E-17	2.395284E-18
5.378420E+03	2.099070E-17	2.394517E-18
5.378620E+03	2.098135E-17	2.393886E-18
5.378820E+03	2.096811E-17	2.392809E-18
5.379020E+03	2.095406E-17	2.391639E-18
5.379220E+03	2.093890E-17	2.390343E-18
5.380220E+03	2.122971E-17	2.425745E-18
5.380420E+03	2.121136E-17	2.424088E-18
5.381020E+03	2.134002E-17	2.440119E-18
5.381821E+03	2.153207E-17	2.463867E-18
5.382021E+03	2.150376E-17	2.461075E-18
5.384421E+03	2.222899E-17	2.549628E-18
5.384621E+03	2.219002E-17	2.545619E-18
5.385620E+03	2.240499E-17	2.572607E-18
5.385820E+03	2.236232E-17	2.568173E-18
5.386020E+03	2.231606E-17	2.563326E-18
5.386221E+03	2.226853E-17	2.558333E-18
5.386420E+03	2.222086E-17	2.553317E-18
5.387221E+03	2.235054E-17	2.570086E-18
5.387821E+03	2.241597E-17	2.579012E-18
5.388021E+03	2.236190E-17	2.573258E-18
5.388221E+03	2.230533E-17	2.567214E-18
5.388421E+03	2.224710E-17	2.560977E-18
5.388621E+03	2.218908E-17	2.554761E-18
5.389821E+03	2.239813E-17	2.581638E-18
5.390021E+03	2.233724E-17	2.575087E-18
5.390221E+03	2.227331E-17	2.568183E-18
5.390421E+03	2.220869E-17	2.561198E-18
5.392422E+03	2.258170E-17	2.608943E-18
5.392622E+03	2.250772E-17	2.600866E-18
5.392822E+03	2.243273E-17	2.592671E-18
5.393022E+03	2.235710E-17	2.584399E-18
5.393422E+03	2.232544E-17	2.581675E-18
5.394222E+03	2.237666E-17	2.589473E-18
5.395022E+03	2.242225E-17	2.596632E-18
5.395222E+03	2.234253E-17	2.587869E-18
5.395822E+03	2.233986E-17	2.588965E-18
5.396022E+03	2.225292E-17	2.579357E-18
5.396222E+03	2.216708E-17	2.569872E-18
5.396822E+03	2.215582E-17	2.569964E-18
5.397022E+03	2.206734E-17	2.560164E-18
5.397222E+03	2.197641E-17	2.550076E-18
5.397422E+03	2.188766E-17	2.540239E-18
5.398023E+03	2.186667E-17	2.539184E-18
5.398222E+03	2.177284E-17	2.528744E-18
5.398422E+03	2.167690E-17	2.518056E-18
5.398622E+03	2.158208E-17	2.507495E-18
5.398822E+03	2.148777E-17	2.496991E-18
5.399222E+03	2.142500E-17	2.490598E-18
5.399622E+03	2.136119E-17	2.484078E-18
5.400422E+03	2.135418E-17	2.485063E-18
5.400622E+03	2.125472E-17	2.473937E-18
5.400822E+03	2.115173E-17	2.462394E-18
5.401422E+03	2.110660E-17	2.458473E-18
5.401622E+03	2.100431E-17	2.447001E-18
5.401822E+03	2.090084E-17	2.435388E-18
5.402022E+03	2.079556E-17	2.423558E-18
5.402222E+03	2.068903E-17	2.411579E-18
5.402422E+03	2.058205E-17	2.399543E-18
5.403223E+03	2.054913E-17	2.397442E-18
5.403423E+03	2.043835E-17	2.384948E-18
5.403823E+03	2.035379E-17	2.375939E-18
5.404023E+03	2.024330E-17	2.363469E-18
5.404623E+03	2.017532E-17	2.356809E-18
5.404823E+03	2.006214E-17	2.344012E-18
5.405023E+03	1.994782E-17	2.331075E-18
5.405223E+03	1.983559E-17	2.318379E-18
5.405423E+03	1.972169E-17	2.305484E-18
5.407023E+03	1.974191E-17	2.311184E-18
5.407223E+03	1.962558E-17	2.297980E-18
5.407823E+03	1.954162E-17	2.289388E-18
5.408023E+03	1.942269E-17	2.275866E-18
5.408223E+03	1.930501E-17	2.262485E-18
5.408424E+03	1.918390E-17	2.248699E-18
5.409224E+03	1.911007E-17	2.241663E-18
5.409424E+03	1.898821E-17	2.227770E-18
5.409623E+03	1.886487E-17	2.213696E-18
5.409824E+03	1.873942E-17	2.199374E-18
5.410024E+03	1.861523E-17	2.185192E-18
5.410224E+03	1.849239E-17	2.171164E-18
5.411223E+03	1.842036E-17	2.164656E-18
5.411423E+03	1.829514E-17	2.150328E-18
5.411623E+03	1.816675E-17	2.135623E-18
5.411823E+03	1.803916E-17	2.121006E-18
5.412223E+03	1.792677E-17	2.108551E-18
5.412423E+03	1.780158E-17	2.094204E-18
5.412623E+03	1.767318E-17	2.079473E-18
5.413023E+03	1.755366E-17	2.066154E-18
5.413223E+03	1.742595E-17	2.051491E-18
5.413423E+03	1.729721E-17	2.036702E-18
5.414824E+03	1.722070E-17	2.030253E-18
5.415424E+03	1.710530E-17	2.017736E-18
5.415624E+03	1.697219E-17	2.002395E-18
5.416024E+03	1.684735E-17	1.988380E-18
5.416224E+03	1.671434E-17	1.973037E-18
5.417424E+03	1.661071E-17	1.962921E-18
5.417624E+03	1.647873E-17	1.947675E-18
5.418024E+03	1.635249E-17	1.933448E-18
5.418224E+03	1.622064E-17	1.918204E-18
5.418424E+03	1.608729E-17	1.902776E-18
5.419025E+03	1.596139E-17	1.888904E-18
5.419825E+03	1.583644E-17	1.875463E-18
5.420025E+03	1.569948E-17	1.859577E-18
5.420225E+03	1.556350E-17	1.843802E-18
5.420425E+03	1.543093E-17	1.828424E-18
5.420625E+03	1.529689E-17	1.812867E-18
5.420825E+03	1.516094E-17	1.797078E-18
5.421025E+03	1.502478E-17	1.781258E-18
5.421425E+03	1.489205E-17	1.766156E-18
5.421625E+03	1.475949E-17	1.750749E-18
5.421825E+03	1.462272E-17	1.734837E-18
5.422425E+03	1.448995E-17	1.720010E-18
5.422824E+03	1.435509E-17	1.704611E-18
5.423424E+03	1.421755E-17	1.689187E-18
5.423624E+03	1.408055E-17	1.673210E-18
5.424425E+03	1.394554E-17	1.658356E-18
5.424625E+03	1.381194E-17	1.642763E-18
5.424825E+03	1.367879E-17	1.627217E-18
5.425025E+03	1.354574E-17	1.611678E-18
5.425225E+03	1.341254E-17	1.596116E-18
5.425825E+03	1.327653E-17	1.580778E-18
5.426025E+03	1.314334E-17	1.565200E-18
5.426425E+03	1.300919E-17	1.549779E-18
5.426625E+03	1.287705E-17	1.534311E-18
5.426825E+03	1.274539E-17	1.518896E-18
5.427225E+03	1.261074E-17	1.503387E-18
5.428025E+03	1.247036E-17	1.487716E-18
5.428225E+03	1.233871E-17	1.472272E-18
5.428425E+03	1.220819E-17	1.456959E-18
5.428825E+03	1.207200E-17	1.441220E-18
5.429025E+03	1.194020E-17	1.425739E-18
5.429225E+03	1.180832E-17	1.410245E-18
5.429425E+03	1.167698E-17	1.394807E-18
5.429625E+03	1.154497E-17	1.379285E-18
5.429826E+03	1.141303E-17	1.363767E-18
5.430226E+03	1.127747E-17	1.348049E-18
5.430426E+03	1.114595E-17	1.332567E-18
5.430626E+03	1.101378E-17	1.316999E-18
5.430826E+03	1.088244E-17	1.301527E-18
5.431026E+03	1.075107E-17	1.286045E-18
