#wls	flux	fluxerr
1.600000E+03	-4.005331E-16	-1.451956E-16
1.640000E+03	-4.061812E-16	-1.468873E-16
1.680000E+03	-4.112086E-16	-1.483310E-16
1.720000E+03	-4.155504E-16	-1.495042E-16
1.760000E+03	-4.191760E-16	-1.503969E-16
1.800000E+03	-4.220882E-16	-1.510115E-16
1.840000E+03	-4.241438E-16	-1.512982E-16
1.880000E+03	-4.253786E-16	-1.512717E-16
1.920000E+03	-4.257221E-16	-1.509093E-16
1.960000E+03	-4.251110E-16	-1.501910E-16
2.000000E+03	-4.234596E-16	-1.490895E-16
2.040000E+03	-4.207277E-16	-1.475944E-16
2.080000E+03	-4.168330E-16	-1.456808E-16
2.120000E+03	-4.116686E-16	-1.433162E-16
2.160000E+03	-4.052356E-16	-1.405062E-16
2.200000E+03	-3.974674E-16	-1.372336E-16
2.240000E+03	-3.883609E-16	-1.335040E-16
2.280000E+03	-3.779873E-16	-1.293485E-16
2.320000E+03	-3.664759E-16	-1.248183E-16
2.360000E+03	-3.540154E-16	-1.199841E-16
2.400000E+03	-3.408015E-16	-1.149183E-16
2.440000E+03	-3.270156E-16	-1.096874E-16
2.480000E+03	-3.128644E-16	-1.043653E-16
2.520000E+03	-2.984915E-16	-9.900364E-17
2.560000E+03	-2.840493E-16	-9.365626E-17
2.600000E+03	-2.696407E-16	-8.835949E-17
2.640000E+03	-2.553704E-16	-8.314959E-17
2.680000E+03	-2.413160E-16	-7.805320E-17
2.720000E+03	-2.275517E-16	-7.309518E-17
2.760000E+03	-2.141467E-16	-6.829815E-17
2.800000E+03	-2.011594E-16	-6.368061E-17
2.840000E+03	-1.886444E-16	-5.925922E-17
2.880000E+03	-1.766611E-16	-5.505148E-17
2.920000E+03	-1.652508E-16	-5.106853E-17
2.960000E+03	-1.544673E-16	-4.732477E-17
3.000000E+03	-1.443396E-16	-4.382625E-17
3.010000E+03	-1.419174E-16	-4.299179E-17
3.020000E+03	-1.395361E-16	-4.217235E-17
3.030000E+03	-1.371958E-16	-4.136792E-17
3.040000E+03	-1.349025E-16	-4.058028E-17
3.050000E+03	-1.326530E-16	-3.980836E-17
3.060000E+03	-1.304471E-16	-3.905205E-17
3.070000E+03	-1.282874E-16	-3.831207E-17
3.080000E+03	-1.261708E-16	-3.758743E-17
3.090000E+03	-1.240971E-16	-3.687800E-17
3.100000E+03	-1.220713E-16	-3.618518E-17
3.110000E+03	-1.200877E-16	-3.550723E-17
3.120000E+03	-1.181486E-16	-3.484475E-17
3.130000E+03	-1.162512E-16	-3.419687E-17
3.140000E+03	-1.144022E-16	-3.356543E-17
3.150000E+03	-1.125941E-16	-3.294820E-17
3.160000E+03	-1.108288E-16	-3.234566E-17
3.170000E+03	-1.091081E-16	-3.175825E-17
3.180000E+03	-1.074312E-16	-3.118567E-17
3.190000E+03	-1.057938E-16	-3.062656E-17
3.200000E+03	-1.042012E-16	-3.008245E-17
3.210000E+03	-1.026491E-16	-2.955195E-17
3.220000E+03	-1.011388E-16	-2.903539E-17
3.230000E+03	-9.966790E-17	-2.853200E-17
3.240000E+03	-9.823780E-17	-2.804211E-17
3.250000E+03	-9.684786E-17	-2.756546E-17
3.260000E+03	-9.549752E-17	-2.710180E-17
3.270000E+03	-9.418452E-17	-2.665042E-17
3.280000E+03	-9.291004E-17	-2.621159E-17
3.290000E+03	-9.167346E-17	-2.578504E-17
3.300000E+03	-9.047273E-17	-2.537012E-17
3.310000E+03	-8.930879E-17	-2.496704E-17
3.320000E+03	-8.817964E-17	-2.457514E-17
3.330000E+03	-8.708611E-17	-2.419459E-17
3.340000E+03	-8.602629E-17	-2.382479E-17
3.350000E+03	-8.499968E-17	-2.346552E-17
3.360000E+03	-8.400572E-17	-2.311655E-17
3.370000E+03	-8.304387E-17	-2.277768E-17
3.380000E+03	-8.211363E-17	-2.244869E-17
3.390000E+03	-8.121321E-17	-2.212902E-17
3.400000E+03	-8.034331E-17	-2.181879E-17
3.410000E+03	-7.950110E-17	-2.151718E-17
3.420000E+03	-7.868831E-17	-2.122458E-17
3.430000E+03	-7.790225E-17	-2.094020E-17
3.440000E+03	-7.714233E-17	-2.066383E-17
3.450000E+03	-7.640823E-17	-2.039531E-17
3.460000E+03	-7.569831E-17	-2.013415E-17
3.470000E+03	-7.501315E-17	-1.988044E-17
3.480000E+03	-7.435126E-17	-1.963374E-17
3.490000E+03	-7.371123E-17	-1.939362E-17
3.500000E+03	-7.309256E-17	-1.915988E-17
3.510000E+03	-7.249387E-17	-1.893212E-17
3.520000E+03	-7.191571E-17	-1.871044E-17
3.530000E+03	-7.135485E-17	-1.849393E-17
3.540000E+03	-7.081180E-17	-1.828271E-17
3.550000E+03	-7.028532E-17	-1.807639E-17
3.560000E+03	-6.977499E-17	-1.787484E-17
3.570000E+03	-6.927881E-17	-1.767749E-17
3.580000E+03	-6.879553E-17	-1.748401E-17
3.590000E+03	-6.832564E-17	-1.729447E-17
3.600000E+03	-6.786643E-17	-1.710817E-17
3.610000E+03	-6.741839E-17	-1.692520E-17
3.620000E+03	-6.698052E-17	-1.674529E-17
3.630000E+03	-6.655088E-17	-1.656792E-17
3.640000E+03	-6.612854E-17	-1.639285E-17
3.650000E+03	-6.571340E-17	-1.622004E-17
3.660000E+03	-6.530362E-17	-1.604902E-17
3.670000E+03	-6.489988E-17	-1.587994E-17
3.680000E+03	-6.449983E-17	-1.571223E-17
3.690000E+03	-6.410337E-17	-1.554584E-17
3.700000E+03	-6.370978E-17	-1.538060E-17
3.710000E+03	-6.331883E-17	-1.521647E-17
3.720000E+03	-6.292929E-17	-1.505312E-17
3.730000E+03	-6.254106E-17	-1.489056E-17
3.740000E+03	-6.215360E-17	-1.472865E-17
3.750000E+03	-6.176683E-17	-1.456737E-17
3.760000E+03	-6.138022E-17	-1.440661E-17
3.770000E+03	-6.099395E-17	-1.424642E-17
3.780000E+03	-6.060750E-17	-1.408667E-17
3.790000E+03	-6.022044E-17	-1.392729E-17
3.800000E+03	-5.983419E-17	-1.376859E-17
3.810000E+03	-5.944726E-17	-1.361026E-17
3.820000E+03	-5.906049E-17	-1.345249E-17
3.830000E+03	-5.867482E-17	-1.329549E-17
3.840000E+03	-5.828951E-17	-1.313911E-17
3.850000E+03	-5.790493E-17	-1.298344E-17
3.860000E+03	-5.752223E-17	-1.282872E-17
3.870000E+03	-5.714183E-17	-1.267507E-17
3.880000E+03	-5.676435E-17	-1.252261E-17
3.890000E+03	-5.638983E-17	-1.237136E-17
3.900000E+03	-5.601958E-17	-1.222158E-17
3.910000E+03	-5.565422E-17	-1.207342E-17
3.920000E+03	-5.529456E-17	-1.192702E-17
3.930000E+03	-5.494151E-17	-1.178258E-17
3.940000E+03	-5.459587E-17	-1.164025E-17
3.950000E+03	-5.425913E-17	-1.150032E-17
3.960000E+03	-5.393232E-17	-1.136298E-17
3.970000E+03	-5.361605E-17	-1.122833E-17
3.980000E+03	-5.331238E-17	-1.109676E-17
3.990000E+03	-5.302205E-17	-1.096838E-17
4.000000E+03	-5.274680E-17	-1.084352E-17
4.010000E+03	-5.248798E-17	-1.072238E-17
4.020000E+03	-5.224651E-17	-1.060510E-17
4.030000E+03	-5.202491E-17	-1.049213E-17
4.040000E+03	-5.182418E-17	-1.038359E-17
4.050000E+03	-5.164659E-17	-1.027986E-17
4.060000E+03	-5.149379E-17	-1.018117E-17
4.070000E+03	-5.136768E-17	-1.008780E-17
4.080000E+03	-5.127030E-17	-1.000005E-17
4.090000E+03	-5.120417E-17	-9.918292E-18
4.100000E+03	-5.117112E-17	-9.842755E-18
4.110000E+03	-5.117350E-17	-9.773757E-18
4.120000E+03	-5.121480E-17	-9.711813E-18
4.130000E+03	-5.129683E-17	-9.657107E-18
4.140000E+03	-5.142302E-17	-9.610111E-18
4.150000E+03	-5.159642E-17	-9.571210E-18
4.160000E+03	-5.182052E-17	-9.540845E-18
4.170000E+03	-5.209889E-17	-9.519456E-18
4.180000E+03	-5.243543E-17	-9.507521E-18
4.190000E+03	-5.283445E-17	-9.505564E-18
4.200000E+03	-5.330053E-17	-9.514135E-18
4.210000E+03	-5.383861E-17	-9.533817E-18
4.220000E+03	-5.445407E-17	-9.565242E-18
4.230000E+03	-5.515232E-17	-9.609010E-18
4.240000E+03	-5.593970E-17	-9.665853E-18
4.250000E+03	-5.682357E-17	-9.736635E-18
4.260000E+03	-5.781148E-17	-9.822207E-18
4.270000E+03	-5.891052E-17	-9.923301E-18
4.280000E+03	-6.013006E-17	-1.004097E-17
4.290000E+03	-6.147962E-17	-1.017626E-17
4.300000E+03	-6.296966E-17	-1.033028E-17
4.310000E+03	-6.461140E-17	-1.050422E-17
4.320000E+03	-6.641636E-17	-1.069924E-17
4.330000E+03	-6.839876E-17	-1.091685E-17
4.340000E+03	-7.057130E-17	-1.115824E-17
4.350000E+03	-7.295001E-17	-1.142504E-17
4.360000E+03	-7.555052E-17	-1.171871E-17
4.370000E+03	-7.838957E-17	-1.204079E-17
4.380000E+03	-8.148366E-17	-1.239266E-17
4.390000E+03	-8.484973E-17	-1.277566E-17
4.400000E+03	-8.850361E-17	-1.319089E-17
4.410000E+03	-9.246161E-17	-1.363936E-17
4.420000E+03	-9.673740E-17	-1.412163E-17
4.430000E+03	-1.013429E-16	-1.463790E-17
4.440000E+03	-1.062900E-16	-1.518828E-17
4.450000E+03	-1.115863E-16	-1.577222E-17
4.460000E+03	-1.172377E-16	-1.638881E-17
4.470000E+03	-1.232475E-16	-1.703681E-17
4.480000E+03	-1.296113E-16	-1.771387E-17
4.490000E+03	-1.363229E-16	-1.841741E-17
4.500000E+03	-1.433687E-16	-1.914390E-17
4.510000E+03	-1.507266E-16	-1.988874E-17
4.520000E+03	-1.583666E-16	-2.064652E-17
4.530000E+03	-1.662496E-16	-2.141072E-17
4.540000E+03	-1.743248E-16	-2.217368E-17
4.550000E+03	-1.825294E-16	-2.292651E-17
4.560000E+03	-1.907847E-16	-2.365875E-17
4.570000E+03	-1.989973E-16	-2.435865E-17
4.580000E+03	-2.070631E-16	-2.501376E-17
4.590000E+03	-2.148537E-16	-2.560942E-17
4.600000E+03	-2.222251E-16	-2.612998E-17
4.610000E+03	-2.290197E-16	-2.655912E-17
4.620000E+03	-2.350607E-16	-2.687941E-17
4.630000E+03	-2.401485E-16	-2.707195E-17
4.640000E+03	-2.440818E-16	-2.711900E-17
4.650000E+03	-2.466306E-16	-2.700101E-17
4.660000E+03	-2.475695E-16	-2.670044E-17
4.670000E+03	-2.466602E-16	-2.619987E-17
4.680000E+03	-2.436633E-16	-2.548334E-17
4.690000E+03	-2.383436E-16	-2.453696E-17
4.700000E+03	-2.304763E-16	-2.334941E-17
4.710000E+03	-2.198575E-16	-2.191298E-17
4.720000E+03	-2.062991E-16	-2.022287E-17
4.730000E+03	-1.896431E-16	-1.827844E-17
4.740000E+03	-1.697656E-16	-1.608332E-17
4.750000E+03	-1.465720E-16	-1.364472E-17
4.760000E+03	-1.200127E-16	-1.097459E-17
4.770000E+03	-9.006629E-17	-8.087722E-18
4.780000E+03	-5.675567E-17	-5.002963E-18
4.790000E+03	-2.013769E-17	-1.741921E-18
4.800000E+03	1.969424E-17	1.671094E-18
4.810000E+03	6.261050E-17	5.209414E-18
4.820000E+03	1.084501E-16	8.844713E-18
4.830000E+03	1.570187E-16	1.254712E-17
4.840000E+03	2.080963E-16	1.628611E-17
4.850000E+03	2.614378E-16	2.003075E-17
4.860000E+03	3.167730E-16	2.374995E-17
4.870000E+03	3.738157E-16	2.741330E-17
4.880000E+03	4.322489E-16	3.099017E-17
4.890000E+03	4.916999E-16	3.444826E-17
4.900000E+03	5.517923E-16	3.775754E-17
4.910000E+03	6.121298E-16	4.088924E-17
4.920000E+03	6.723320E-16	4.381839E-17
4.930000E+03	7.320196E-16	4.652266E-17
4.940000E+03	7.908147E-16	4.898241E-17
4.950000E+03	8.483678E-16	5.118231E-17
4.960000E+03	9.043307E-16	5.310949E-17
4.970000E+03	9.583935E-16	5.475564E-17
4.980000E+03	1.010249E-15	5.611470E-17
4.990000E+03	1.059625E-15	5.718459E-17
5.000000E+03	1.106265E-15	5.796590E-17
5.010000E+03	1.149974E-15	5.846408E-17
5.020000E+03	1.190549E-15	5.868543E-17
5.030000E+03	1.227844E-15	5.864048E-17
5.040000E+03	1.261757E-15	5.834254E-17
5.050000E+03	1.292188E-15	5.780597E-17
5.060000E+03	1.319075E-15	5.704729E-17
5.070000E+03	1.342384E-15	5.608462E-17
5.080000E+03	1.362106E-15	5.493738E-17
5.090000E+03	1.378238E-15	5.362530E-17
5.100000E+03	1.390818E-15	5.216966E-17
5.110000E+03	1.399915E-15	5.059268E-17
5.120000E+03	1.405574E-15	4.891537E-17
5.130000E+03	1.407916E-15	4.716092E-17
5.140000E+03	1.407002E-15	4.535002E-17
5.150000E+03	1.402983E-15	4.350556E-17
5.160000E+03	1.395973E-15	4.164859E-17
5.170000E+03	1.386115E-15	3.980001E-17
5.180000E+03	1.373558E-15	3.797997E-17
5.190000E+03	1.358443E-15	3.620721E-17
5.200000E+03	1.340933E-15	3.449966E-17
5.210000E+03	1.321181E-15	3.287348E-17
5.220000E+03	1.299393E-15	3.134413E-17
5.230000E+03	1.275710E-15	2.992320E-17
5.240000E+03	1.250331E-15	2.862097E-17
5.250000E+03	1.223440E-15	2.744435E-17
5.260000E+03	1.195216E-15	2.639696E-17
5.270000E+03	1.165811E-15	2.547837E-17
5.280000E+03	1.135407E-15	2.468454E-17
5.290000E+03	1.104151E-15	2.400424E-17
5.300000E+03	1.072193E-15	2.342358E-17
5.310000E+03	1.039667E-15	2.292718E-17
5.320000E+03	1.006723E-15	2.249969E-17
5.330000E+03	9.734698E-16	2.212534E-17
5.340000E+03	9.400377E-16	2.178977E-17
5.350000E+03	9.065551E-16	2.148011E-17
5.360000E+03	8.731713E-16	2.118577E-17
5.370000E+03	8.399885E-16	2.089699E-17
5.380000E+03	8.071331E-16	2.060655E-17
5.390000E+03	7.747025E-16	2.030844E-17
5.400000E+03	7.427836E-16	1.999815E-17
5.410000E+03	7.114434E-16	1.967223E-17
5.420000E+03	6.807835E-16	1.932966E-17
5.430000E+03	6.509046E-16	1.897070E-17
5.440000E+03	6.218684E-16	1.859571E-17
5.450000E+03	5.937519E-16	1.820645E-17
5.460000E+03	5.666020E-16	1.780462E-17
5.470000E+03	5.404603E-16	1.739242E-17
5.480000E+03	5.153558E-16	1.697218E-17
5.490000E+03	4.912799E-16	1.654540E-17
5.500000E+03	4.682378E-16	1.611429E-17
5.510000E+03	4.462185E-16	1.568073E-17
5.520000E+03	4.252188E-16	1.524696E-17
5.530000E+03	4.052092E-16	1.481438E-17
5.540000E+03	3.861701E-16	1.438476E-17
5.550000E+03	3.680718E-16	1.395944E-17
5.560000E+03	3.508942E-16	1.354010E-17
5.570000E+03	3.346008E-16	1.312771E-17
5.580000E+03	3.191623E-16	1.272341E-17
5.590000E+03	3.045452E-16	1.232809E-17
5.600000E+03	2.907223E-16	1.194274E-17
5.610000E+03	2.776573E-16	1.156790E-17
5.620000E+03	2.653198E-16	1.120421E-17
5.630000E+03	2.536802E-16	1.085223E-17
5.640000E+03	2.427061E-16	1.051227E-17
5.650000E+03	2.323690E-16	1.018468E-17
5.660000E+03	2.226357E-16	9.869523E-18
5.670000E+03	2.134793E-16	9.566978E-18
5.680000E+03	2.048732E-16	9.277158E-18
5.690000E+03	1.967897E-16	9.000018E-18
5.700000E+03	1.891994E-16	8.735328E-18
5.710000E+03	1.820702E-16	8.482643E-18
5.720000E+03	1.753757E-16	8.241668E-18
5.730000E+03	1.690832E-16	8.011744E-18
5.740000E+03	1.631697E-16	7.792566E-18
5.750000E+03	1.576099E-16	7.583654E-18
5.760000E+03	1.523786E-16	7.384461E-18
5.770000E+03	1.474554E-16	7.194603E-18
5.780000E+03	1.428212E-16	7.013709E-18
5.790000E+03	1.384553E-16	6.841259E-18
5.800000E+03	1.343397E-16	6.676835E-18
5.810000E+03	1.304603E-16	6.520164E-18
5.820000E+03	1.267988E-16	6.370712E-18
5.830000E+03	1.233419E-16	6.228166E-18
5.840000E+03	1.200759E-16	6.092163E-18
5.850000E+03	1.169881E-16	5.962357E-18
5.860000E+03	1.140678E-16	5.838479E-18
5.870000E+03	1.113017E-16	5.720090E-18
5.880000E+03	1.086819E-16	5.607019E-18
5.890000E+03	1.061975E-16	5.498919E-18
5.900000E+03	1.038397E-16	5.395527E-18
5.910000E+03	1.016003E-16	5.296595E-18
5.920000E+03	9.947144E-17	5.201886E-18
5.930000E+03	9.744725E-17	5.111241E-18
5.940000E+03	9.551882E-17	5.024340E-18
5.950000E+03	9.367999E-17	4.940990E-18
5.960000E+03	9.192623E-17	4.861077E-18
5.970000E+03	9.025219E-17	4.784434E-18
5.980000E+03	8.865086E-17	4.710798E-18
5.990000E+03	8.711982E-17	4.640143E-18
6.000000E+03	8.565181E-17	4.572178E-18
6.010000E+03	8.424598E-17	4.506948E-18
6.020000E+03	8.289578E-17	4.444190E-18
6.030000E+03	8.159798E-17	4.383810E-18
6.040000E+03	8.035047E-17	4.325774E-18
6.050000E+03	7.914955E-17	4.269956E-18
6.060000E+03	7.799266E-17	4.216289E-18
6.070000E+03	7.687561E-17	4.164615E-18
6.080000E+03	7.579822E-17	4.114984E-18
6.090000E+03	7.475631E-17	4.067173E-18
6.100000E+03	7.375072E-17	4.021199E-18
6.110000E+03	7.277978E-17	3.976945E-18
6.120000E+03	7.184213E-17	3.934309E-18
6.130000E+03	7.093764E-17	3.893262E-18
6.140000E+03	7.006765E-17	3.853851E-18
6.150000E+03	6.923206E-17	3.816052E-18
6.160000E+03	6.843192E-17	3.779901E-18
6.170000E+03	6.767046E-17	3.745559E-18
6.180000E+03	6.694667E-17	3.712952E-18
6.190000E+03	6.626121E-17	3.682101E-18
6.200000E+03	6.561401E-17	3.652986E-18
6.210000E+03	6.500455E-17	3.625563E-18
6.220000E+03	6.443022E-17	3.599673E-18
6.230000E+03	6.388898E-17	3.575186E-18
6.240000E+03	6.337970E-17	3.552023E-18
6.250000E+03	6.289959E-17	3.530013E-18
6.260000E+03	6.244778E-17	3.509091E-18
6.270000E+03	6.202269E-17	3.489153E-18
6.280000E+03	6.162376E-17	3.470152E-18
6.290000E+03	6.124988E-17	3.452011E-18
6.300000E+03	6.090003E-17	3.434657E-18
6.310000E+03	6.057411E-17	3.418071E-18
6.320000E+03	6.027218E-17	3.402242E-18
6.330000E+03	5.999282E-17	3.387077E-18
6.340000E+03	5.973628E-17	3.372578E-18
6.350000E+03	5.950295E-17	3.358756E-18
6.360000E+03	5.929163E-17	3.345531E-18
6.370000E+03	5.910367E-17	3.332973E-18
6.380000E+03	5.893891E-17	3.321062E-18
6.390000E+03	5.879719E-17	3.309784E-18
6.400000E+03	5.867851E-17	3.299134E-18
6.410000E+03	5.858453E-17	3.289203E-18
6.420000E+03	5.851459E-17	3.279951E-18
6.430000E+03	5.847056E-17	3.271485E-18
6.440000E+03	5.845273E-17	3.263825E-18
6.450000E+03	5.846144E-17	3.256996E-18
6.460000E+03	5.849808E-17	3.251083E-18
6.470000E+03	5.856310E-17	3.246125E-18
6.480000E+03	5.865814E-17	3.242227E-18
6.490000E+03	5.878200E-17	3.239344E-18
6.500000E+03	5.893738E-17	3.237648E-18
6.510000E+03	5.912514E-17	3.237215E-18
6.520000E+03	5.934539E-17	3.238084E-18
6.530000E+03	5.960015E-17	3.240405E-18
6.540000E+03	5.989058E-17	3.244286E-18
6.550000E+03	6.021806E-17	3.249850E-18
6.560000E+03	6.058397E-17	3.257231E-18
6.570000E+03	6.099087E-17	3.266628E-18
6.580000E+03	6.143945E-17	3.278149E-18
6.590000E+03	6.193147E-17	3.291964E-18
6.600000E+03	6.246996E-17	3.308319E-18
6.610000E+03	6.305698E-17	3.327413E-18
6.620000E+03	6.369375E-17	3.349408E-18
6.630000E+03	6.438378E-17	3.374592E-18
6.640000E+03	6.512848E-17	3.403151E-18
6.650000E+03	6.593290E-17	3.435463E-18
6.660000E+03	6.679781E-17	3.471689E-18
6.670000E+03	6.772626E-17	3.512112E-18
6.680000E+03	6.872283E-17	3.557096E-18
6.690000E+03	6.979110E-17	3.606957E-18
6.700000E+03	7.093338E-17	3.661886E-18
6.710000E+03	7.215243E-17	3.721982E-18
6.720000E+03	7.345240E-17	3.787389E-18
6.730000E+03	7.483503E-17	3.858109E-18
6.740000E+03	7.630416E-17	3.934246E-18
6.750000E+03	7.785923E-17	4.015660E-18
6.760000E+03	7.950523E-17	4.102490E-18
6.770000E+03	8.124161E-17	4.194573E-18
6.780000E+03	8.307375E-17	4.292044E-18
6.790000E+03	8.500104E-17	4.394715E-18
6.800000E+03	8.702756E-17	4.502631E-18
6.810000E+03	8.915586E-17	4.615745E-18
6.820000E+03	9.138700E-17	4.733924E-18
6.830000E+03	9.372517E-17	4.857187E-18
6.840000E+03	9.617144E-17	4.985377E-18
6.850000E+03	9.873018E-17	5.118502E-18
6.860000E+03	1.014005E-16	5.256284E-18
6.870000E+03	1.041887E-16	5.398811E-18
6.880000E+03	1.070957E-16	5.545875E-18
6.890000E+03	1.101240E-16	5.697353E-18
6.900000E+03	1.132742E-16	5.852995E-18
6.910000E+03	1.165529E-16	6.012874E-18
6.920000E+03	1.199562E-16	6.176488E-18
6.930000E+03	1.234930E-16	6.344008E-18
6.940000E+03	1.271610E-16	6.515010E-18
6.950000E+03	1.309623E-16	6.689287E-18
6.960000E+03	1.349013E-16	6.866742E-18
6.970000E+03	1.389774E-16	7.047022E-18
6.980000E+03	1.431921E-16	7.229871E-18
6.990000E+03	1.475467E-16	7.415026E-18
7.000000E+03	1.520425E-16	7.602207E-18
7.010000E+03	1.566802E-16	7.791125E-18
7.020000E+03	1.614576E-16	7.981314E-18
7.030000E+03	1.663810E-16	8.172765E-18
7.040000E+03	1.714409E-16	8.364665E-18
7.050000E+03	1.766468E-16	8.557156E-18
7.060000E+03	1.819875E-16	8.749379E-18
7.070000E+03	1.874689E-16	8.941297E-18
7.080000E+03	1.930857E-16	9.132361E-18
7.090000E+03	1.988357E-16	9.322187E-18
7.100000E+03	2.047203E-16	9.510567E-18
7.110000E+03	2.107281E-16	9.696729E-18
7.120000E+03	2.168596E-16	9.880469E-18
7.130000E+03	2.231059E-16	1.006119E-17
7.140000E+03	2.294664E-16	1.023871E-17
7.150000E+03	2.359357E-16	1.041264E-17
7.160000E+03	2.425027E-16	1.058239E-17
7.170000E+03	2.491655E-16	1.074785E-17
7.180000E+03	2.559060E-16	1.090822E-17
7.190000E+03	2.627262E-16	1.106362E-17
7.200000E+03	2.696119E-16	1.121357E-17
7.210000E+03	2.765472E-16	1.135756E-17
7.220000E+03	2.835270E-16	1.149560E-17
7.230000E+03	2.905399E-16	1.162751E-17
7.240000E+03	2.975677E-16	1.175293E-17
7.250000E+03	3.045968E-16	1.187175E-17
7.260000E+03	3.116136E-16	1.198396E-17
7.270000E+03	3.186031E-16	1.208958E-17
7.280000E+03	3.255500E-16	1.218871E-17
7.290000E+03	3.324242E-16	1.228098E-17
7.300000E+03	3.392225E-16	1.236714E-17
7.310000E+03	3.459203E-16	1.244723E-17
7.320000E+03	3.524920E-16	1.252136E-17
7.330000E+03	3.589256E-16	1.259023E-17
7.340000E+03	3.651870E-16	1.265382E-17
7.350000E+03	3.712557E-16	1.271271E-17
7.360000E+03	3.771111E-16	1.276755E-17
7.370000E+03	3.827241E-16	1.281875E-17
7.380000E+03	3.880818E-16	1.286733E-17
7.390000E+03	3.931385E-16	1.291325E-17
7.400000E+03	3.978892E-16	1.295785E-17
7.410000E+03	4.022960E-16	1.300138E-17
7.420000E+03	4.063468E-16	1.304493E-17
7.430000E+03	4.100139E-16	1.308902E-17
7.440000E+03	4.132811E-16	1.313447E-17
7.450000E+03	4.161427E-16	1.318235E-17
7.460000E+03	4.185783E-16	1.323312E-17
7.470000E+03	4.206052E-16	1.328831E-17
7.480000E+03	4.221972E-16	1.334775E-17
7.490000E+03	4.233682E-16	1.341155E-17
7.500000E+03	4.241074E-16	1.347857E-17
7.510000E+03	4.244424E-16	1.354876E-17
7.520000E+03	4.243669E-16	1.362087E-17
7.530000E+03	4.238850E-16	1.369389E-17
7.540000E+03	4.230128E-16	1.376710E-17
7.550000E+03	4.217583E-16	1.383950E-17
7.560000E+03	4.201496E-16	1.391067E-17
7.570000E+03	4.181789E-16	1.397905E-17
7.580000E+03	4.158668E-16	1.404398E-17
7.590000E+03	4.132351E-16	1.410487E-17
7.600000E+03	4.102873E-16	1.416055E-17
7.610000E+03	4.070460E-16	1.421054E-17
7.620000E+03	4.035154E-16	1.425376E-17
7.630000E+03	3.997281E-16	1.429021E-17
7.640000E+03	3.956798E-16	1.431861E-17
7.650000E+03	3.914030E-16	1.433910E-17
