#wls	flux	fluxerr
1.600000E+03	2.483797E-16	2.709515E-17
1.640000E+03	2.569299E-16	2.801486E-17
1.680000E+03	2.654123E-16	2.892595E-17
1.720000E+03	2.738050E-16	2.982601E-17
1.760000E+03	2.819996E-16	3.070322E-17
1.800000E+03	2.899547E-16	3.155305E-17
1.840000E+03	2.975686E-16	3.236445E-17
1.880000E+03	3.047807E-16	3.313085E-17
1.920000E+03	3.114963E-16	3.384199E-17
1.960000E+03	3.176123E-16	3.448673E-17
2.000000E+03	3.229733E-16	3.504828E-17
2.040000E+03	3.274701E-16	3.551490E-17
2.080000E+03	3.309706E-16	3.587243E-17
2.120000E+03	3.332850E-16	3.610046E-17
2.160000E+03	3.342426E-16	3.618077E-17
2.200000E+03	3.336393E-16	3.609153E-17
2.240000E+03	3.312948E-16	3.581358E-17
2.280000E+03	3.271496E-16	3.534090E-17
2.320000E+03	3.212164E-16	3.467526E-17
2.360000E+03	3.136951E-16	3.383867E-17
2.400000E+03	3.047623E-16	3.285058E-17
2.440000E+03	2.945765E-16	3.172843E-17
2.480000E+03	2.833185E-16	3.049204E-17
2.520000E+03	2.711266E-16	2.915662E-17
2.560000E+03	2.581219E-16	2.773546E-17
2.600000E+03	2.444642E-16	2.624603E-17
2.640000E+03	2.302715E-16	2.470122E-17
2.680000E+03	2.156932E-16	2.311727E-17
2.720000E+03	2.008595E-16	2.150831E-17
2.760000E+03	1.859344E-16	1.989203E-17
2.800000E+03	1.710635E-16	1.828413E-17
2.840000E+03	1.564091E-16	1.670199E-17
2.880000E+03	1.421334E-16	1.516292E-17
2.920000E+03	1.283922E-16	1.368352E-17
2.960000E+03	1.153290E-16	1.227897E-17
3.000000E+03	1.030656E-16	1.096207E-17
3.010000E+03	1.001354E-16	1.064766E-17
3.020000E+03	9.726316E-17	1.033956E-17
3.030000E+03	9.444739E-17	1.003761E-17
3.040000E+03	9.169270E-17	9.742287E-18
3.050000E+03	8.899731E-17	9.453410E-18
3.060000E+03	8.636151E-17	9.171002E-18
3.070000E+03	8.378558E-17	8.895089E-18
3.080000E+03	8.127310E-17	8.626044E-18
3.090000E+03	7.882060E-17	8.363499E-18
3.100000E+03	7.643127E-17	8.107784E-18
3.110000E+03	7.410337E-17	7.858711E-18
3.120000E+03	7.183816E-17	7.616411E-18
3.130000E+03	6.963537E-17	7.380848E-18
3.140000E+03	6.749463E-17	7.151980E-18
3.150000E+03	6.541562E-17	6.929769E-18
3.160000E+03	6.339916E-17	6.714296E-18
3.170000E+03	6.144353E-17	6.505374E-18
3.180000E+03	5.954933E-17	6.303062E-18
3.190000E+03	5.771588E-17	6.107284E-18
3.200000E+03	5.594245E-17	5.917957E-18
3.210000E+03	5.422919E-17	5.735093E-18
3.220000E+03	5.257334E-17	5.558395E-18
3.230000E+03	5.097668E-17	5.388047E-18
3.240000E+03	4.943560E-17	5.223662E-18
3.250000E+03	4.795158E-17	5.065393E-18
3.260000E+03	4.652187E-17	4.912944E-18
3.270000E+03	4.514614E-17	4.766276E-18
3.280000E+03	4.382321E-17	4.625259E-18
3.290000E+03	4.255119E-17	4.489692E-18
3.300000E+03	4.133020E-17	4.359579E-18
3.310000E+03	4.015768E-17	4.234651E-18
3.320000E+03	3.903247E-17	4.114776E-18
3.330000E+03	3.795448E-17	3.999945E-18
3.340000E+03	3.692128E-17	3.889897E-18
3.350000E+03	3.593171E-17	3.784504E-18
3.360000E+03	3.498454E-17	3.683634E-18
3.370000E+03	3.407903E-17	3.587206E-18
3.380000E+03	3.321305E-17	3.494991E-18
3.390000E+03	3.238544E-17	3.406864E-18
3.400000E+03	3.159550E-17	3.322748E-18
3.410000E+03	3.084162E-17	3.242471E-18
3.420000E+03	3.012271E-17	3.165914E-18
3.430000E+03	2.943691E-17	3.092880E-18
3.440000E+03	2.878355E-17	3.023294E-18
3.450000E+03	2.816162E-17	2.957049E-18
3.460000E+03	2.756944E-17	2.893963E-18
3.470000E+03	2.700612E-17	2.833941E-18
3.480000E+03	2.647040E-17	2.776850E-18
3.490000E+03	2.596182E-17	2.722638E-18
3.500000E+03	2.547863E-17	2.671118E-18
3.510000E+03	2.502040E-17	2.622243E-18
3.520000E+03	2.458588E-17	2.575880E-18
3.530000E+03	2.417409E-17	2.531926E-18
3.540000E+03	2.378421E-17	2.490290E-18
3.550000E+03	2.341515E-17	2.450857E-18
3.560000E+03	2.306640E-17	2.413572E-18
3.570000E+03	2.273671E-17	2.378302E-18
3.580000E+03	2.242541E-17	2.344975E-18
3.590000E+03	2.213212E-17	2.313550E-18
3.600000E+03	2.185596E-17	2.283932E-18
3.610000E+03	2.159636E-17	2.256061E-18
3.620000E+03	2.135253E-17	2.229854E-18
3.630000E+03	2.112378E-17	2.205235E-18
3.640000E+03	2.090961E-17	2.182151E-18
3.650000E+03	2.070919E-17	2.160514E-18
3.660000E+03	2.052227E-17	2.140298E-18
3.670000E+03	2.034808E-17	2.121421E-18
3.680000E+03	2.018630E-17	2.103846E-18
3.690000E+03	2.003672E-17	2.087552E-18
3.700000E+03	1.989868E-17	2.072469E-18
3.710000E+03	1.977184E-17	2.058560E-18
3.720000E+03	1.965626E-17	2.045830E-18
3.730000E+03	1.955147E-17	2.034230E-18
3.740000E+03	1.945717E-17	2.023726E-18
3.750000E+03	1.937339E-17	2.014320E-18
3.760000E+03	1.929966E-17	2.005964E-18
3.770000E+03	1.923585E-17	1.998643E-18
3.780000E+03	1.918201E-17	1.992359E-18
3.790000E+03	1.913779E-17	1.987078E-18
3.800000E+03	1.910310E-17	1.982785E-18
3.810000E+03	1.907776E-17	1.979466E-18
3.820000E+03	1.906167E-17	1.977106E-18
3.830000E+03	1.905484E-17	1.975705E-18
3.840000E+03	1.905698E-17	1.975233E-18
3.850000E+03	1.906814E-17	1.975694E-18
3.860000E+03	1.908833E-17	1.977089E-18
3.870000E+03	1.911728E-17	1.979387E-18
3.880000E+03	1.915487E-17	1.982576E-18
3.890000E+03	1.920127E-17	1.986673E-18
3.900000E+03	1.925638E-17	1.991665E-18
3.910000E+03	1.931991E-17	1.997524E-18
3.920000E+03	1.939201E-17	2.004262E-18
3.930000E+03	1.947273E-17	2.011884E-18
3.940000E+03	1.956159E-17	2.020339E-18
3.950000E+03	1.965876E-17	2.029645E-18
3.960000E+03	1.976421E-17	2.039797E-18
3.970000E+03	1.987777E-17	2.050777E-18
3.980000E+03	1.999909E-17	2.062547E-18
3.990000E+03	2.012846E-17	2.075137E-18
4.000000E+03	2.026549E-17	2.088505E-18
4.010000E+03	2.040996E-17	2.102629E-18
4.020000E+03	2.056197E-17	2.117517E-18
4.030000E+03	2.072110E-17	2.133126E-18
4.040000E+03	2.088743E-17	2.149463E-18
4.050000E+03	2.106038E-17	2.166469E-18
4.060000E+03	2.124019E-17	2.184165E-18
4.070000E+03	2.142644E-17	2.202508E-18
4.080000E+03	2.161883E-17	2.221468E-18
4.090000E+03	2.181747E-17	2.241054E-18
4.100000E+03	2.202172E-17	2.261201E-18
4.110000E+03	2.223184E-17	2.281933E-18
4.120000E+03	2.244719E-17	2.303187E-18
4.130000E+03	2.266769E-17	2.324951E-18
4.140000E+03	2.289323E-17	2.347214E-18
4.150000E+03	2.312335E-17	2.369929E-18
4.160000E+03	2.335796E-17	2.393086E-18
4.170000E+03	2.359677E-17	2.416654E-18
4.180000E+03	2.383930E-17	2.440585E-18
4.190000E+03	2.408564E-17	2.464888E-18
4.200000E+03	2.433515E-17	2.489494E-18
4.210000E+03	2.458788E-17	2.514411E-18
4.220000E+03	2.484312E-17	2.539565E-18
4.230000E+03	2.510079E-17	2.564947E-18
4.240000E+03	2.536053E-17	2.590521E-18
4.250000E+03	2.562160E-17	2.616211E-18
4.260000E+03	2.588404E-17	2.642021E-18
4.270000E+03	2.614729E-17	2.667893E-18
4.280000E+03	2.641074E-17	2.693766E-18
4.290000E+03	2.667380E-17	2.719578E-18
4.300000E+03	2.693627E-17	2.745311E-18
4.310000E+03	2.719772E-17	2.770920E-18
4.320000E+03	2.745709E-17	2.796297E-18
4.330000E+03	2.771440E-17	2.821445E-18
4.340000E+03	2.796852E-17	2.846249E-18
4.350000E+03	2.821947E-17	2.870712E-18
4.360000E+03	2.846638E-17	2.894745E-18
4.370000E+03	2.870903E-17	2.918327E-18
4.380000E+03	2.894727E-17	2.941443E-18
4.390000E+03	2.918095E-17	2.964078E-18
4.400000E+03	2.941009E-17	2.986237E-18
4.410000E+03	2.963507E-17	3.007955E-18
4.420000E+03	2.985631E-17	3.029278E-18
4.430000E+03	3.007406E-17	3.050232E-18
4.440000E+03	3.028882E-17	3.070866E-18
4.450000E+03	3.050060E-17	3.091184E-18
4.460000E+03	3.071020E-17	3.111267E-18
4.470000E+03	3.091766E-17	3.131118E-18
4.480000E+03	3.112329E-17	3.150770E-18
4.490000E+03	3.132739E-17	3.170253E-18
4.500000E+03	3.153026E-17	3.189597E-18
4.510000E+03	3.173221E-17	3.208835E-18
4.520000E+03	3.193353E-17	3.227995E-18
4.530000E+03	3.213399E-17	3.247054E-18
4.540000E+03	3.233444E-17	3.266100E-18
4.550000E+03	3.253462E-17	3.285104E-18
4.560000E+03	3.273482E-17	3.304096E-18
4.570000E+03	3.293507E-17	3.323078E-18
4.580000E+03	3.313593E-17	3.342109E-18
4.590000E+03	3.333740E-17	3.361188E-18
4.600000E+03	3.353916E-17	3.380282E-18
4.610000E+03	3.374210E-17	3.399480E-18
4.620000E+03	3.394587E-17	3.418748E-18
4.630000E+03	3.415041E-17	3.438078E-18
4.640000E+03	3.435629E-17	3.457530E-18
4.650000E+03	3.456375E-17	3.477125E-18
4.660000E+03	3.477209E-17	3.496794E-18
4.670000E+03	3.498220E-17	3.516627E-18
4.680000E+03	3.519400E-17	3.536614E-18
4.690000E+03	3.540743E-17	3.556750E-18
4.700000E+03	3.562274E-17	3.577058E-18
4.710000E+03	3.583991E-17	3.597539E-18
4.720000E+03	3.605922E-17	3.618218E-18
4.730000E+03	3.628008E-17	3.639037E-18
4.740000E+03	3.650284E-17	3.660030E-18
4.750000E+03	3.672794E-17	3.681241E-18
4.760000E+03	3.695449E-17	3.702581E-18
4.770000E+03	3.718330E-17	3.724130E-18
4.780000E+03	3.741409E-17	3.745861E-18
4.790000E+03	3.764664E-17	3.767752E-18
4.800000E+03	3.788173E-17	3.789878E-18
4.810000E+03	3.811833E-17	3.812138E-18
4.820000E+03	3.835757E-17	3.834645E-18
4.830000E+03	3.859837E-17	3.857290E-18
4.840000E+03	3.884144E-17	3.880143E-18
4.850000E+03	3.908603E-17	3.903129E-18
4.860000E+03	3.933284E-17	3.926319E-18
4.870000E+03	3.958107E-17	3.949632E-18
4.880000E+03	3.983105E-17	3.973101E-18
4.890000E+03	4.008272E-17	3.996718E-18
4.900000E+03	4.033565E-17	4.020442E-18
4.910000E+03	4.058978E-17	4.044267E-18
4.920000E+03	4.084505E-17	4.068186E-18
4.930000E+03	4.110179E-17	4.092231E-18
4.940000E+03	4.135918E-17	4.116321E-18
4.950000E+03	4.161796E-17	4.140529E-18
4.960000E+03	4.187728E-17	4.164772E-18
4.970000E+03	4.213750E-17	4.189084E-18
4.980000E+03	4.239814E-17	4.213416E-18
4.990000E+03	4.265910E-17	4.237761E-18
5.000000E+03	4.292024E-17	4.262103E-18
5.010000E+03	4.318183E-17	4.286469E-18
5.020000E+03	4.344281E-17	4.310754E-18
5.030000E+03	4.370335E-17	4.334975E-18
5.040000E+03	4.396273E-17	4.359060E-18
5.050000E+03	4.422102E-17	4.383018E-18
5.060000E+03	4.447741E-17	4.406766E-18
5.070000E+03	4.473104E-17	4.430220E-18
5.080000E+03	4.498185E-17	4.453375E-18
5.090000E+03	4.522933E-17	4.476181E-18
5.100000E+03	4.547247E-17	4.498538E-18
5.110000E+03	4.571021E-17	4.520340E-18
5.120000E+03	4.594278E-17	4.541614E-18
5.130000E+03	4.616862E-17	4.562203E-18
5.140000E+03	4.638701E-17	4.582037E-18
5.150000E+03	4.659719E-17	4.601044E-18
5.160000E+03	4.679844E-17	4.619152E-18
5.170000E+03	4.698959E-17	4.636247E-18
5.180000E+03	4.717036E-17	4.652303E-18
5.190000E+03	4.733910E-17	4.667157E-18
5.200000E+03	4.749557E-17	4.680789E-18
5.210000E+03	4.763812E-17	4.693036E-18
5.220000E+03	4.776697E-17	4.703922E-18
5.230000E+03	4.788042E-17	4.713281E-18
5.240000E+03	4.797816E-17	4.721084E-18
5.250000E+03	4.805842E-17	4.727159E-18
5.260000E+03	4.812080E-17	4.731469E-18
5.270000E+03	4.816443E-17	4.733930E-18
5.280000E+03	4.818742E-17	4.734359E-18
5.290000E+03	4.818884E-17	4.732666E-18
5.300000E+03	4.816822E-17	4.728808E-18
5.310000E+03	4.812417E-17	4.722652E-18
5.320000E+03	4.805530E-17	4.714063E-18
5.330000E+03	4.796080E-17	4.702966E-18
5.340000E+03	4.783989E-17	4.689286E-18
5.350000E+03	4.769191E-17	4.672962E-18
5.360000E+03	4.751587E-17	4.653900E-18
5.370000E+03	4.731184E-17	4.632110E-18
5.380000E+03	4.707916E-17	4.607531E-18
5.390000E+03	4.681831E-17	4.580214E-18
5.400000E+03	4.652911E-17	4.550143E-18
5.410000E+03	4.621301E-17	4.517464E-18
5.420000E+03	4.587133E-17	4.482310E-18
5.430000E+03	4.550478E-17	4.444751E-18
5.440000E+03	4.511618E-17	4.405068E-18
5.450000E+03	4.470734E-17	4.363438E-18
5.460000E+03	4.427854E-17	4.319892E-18
5.470000E+03	4.383351E-17	4.274796E-18
5.480000E+03	4.337396E-17	4.228319E-18
5.490000E+03	4.290185E-17	4.180652E-18
5.500000E+03	4.241979E-17	4.132052E-18
5.510000E+03	4.193013E-17	4.082750E-18
5.520000E+03	4.143538E-17	4.032989E-18
5.530000E+03	4.093891E-17	3.983099E-18
5.540000E+03	4.044326E-17	3.933325E-18
5.550000E+03	3.995219E-17	3.884035E-18
5.560000E+03	3.946893E-17	3.835542E-18
5.570000E+03	3.899627E-17	3.788115E-18
5.580000E+03	3.853761E-17	3.742082E-18
5.590000E+03	3.809578E-17	3.697719E-18
5.600000E+03	3.767341E-17	3.655278E-18
5.610000E+03	3.727324E-17	3.615020E-18
5.620000E+03	3.689734E-17	3.577146E-18
5.630000E+03	3.654741E-17	3.541818E-18
5.640000E+03	3.622522E-17	3.509203E-18
5.650000E+03	3.593177E-17	3.479395E-18
5.660000E+03	3.566806E-17	3.452487E-18
5.670000E+03	3.543434E-17	3.428502E-18
5.680000E+03	3.523057E-17	3.407431E-18
5.690000E+03	3.505670E-17	3.389265E-18
5.700000E+03	3.491209E-17	3.373939E-18
5.710000E+03	3.479583E-17	3.361364E-18
5.720000E+03	3.470722E-17	3.351465E-18
5.730000E+03	3.464503E-17	3.344124E-18
5.740000E+03	3.460836E-17	3.339250E-18
5.750000E+03	3.459558E-17	3.336681E-18
5.760000E+03	3.460618E-17	3.336367E-18
5.770000E+03	3.463869E-17	3.338163E-18
5.780000E+03	3.469215E-17	3.341974E-18
5.790000E+03	3.476648E-17	3.347791E-18
5.800000E+03	3.486032E-17	3.355478E-18
5.810000E+03	3.497394E-17	3.365062E-18
5.820000E+03	3.510700E-17	3.376505E-18
5.830000E+03	3.525927E-17	3.389784E-18
5.840000E+03	3.543023E-17	3.404848E-18
5.850000E+03	3.562054E-17	3.421756E-18
5.860000E+03	3.582979E-17	3.440467E-18
5.870000E+03	3.605831E-17	3.461012E-18
5.880000E+03	3.630608E-17	3.483385E-18
5.890000E+03	3.657271E-17	3.507548E-18
5.900000E+03	3.685853E-17	3.533529E-18
5.910000E+03	3.716394E-17	3.561365E-18
5.920000E+03	3.748800E-17	3.590964E-18
5.930000E+03	3.783104E-17	3.622354E-18
5.940000E+03	3.819288E-17	3.655517E-18
5.950000E+03	3.857372E-17	3.690470E-18
5.960000E+03	3.897244E-17	3.727102E-18
5.970000E+03	3.938961E-17	3.765467E-18
5.980000E+03	3.982396E-17	3.805442E-18
5.990000E+03	4.027553E-17	3.847028E-18
6.000000E+03	4.074385E-17	3.890177E-18
6.010000E+03	4.122795E-17	3.934797E-18
6.020000E+03	4.172775E-17	3.980878E-18
6.030000E+03	4.224166E-17	4.028265E-18
6.040000E+03	4.276998E-17	4.076987E-18
6.050000E+03	4.331053E-17	4.126833E-18
6.060000E+03	4.386348E-17	4.177820E-18
6.070000E+03	4.442698E-17	4.229768E-18
6.080000E+03	4.500060E-17	4.282637E-18
6.090000E+03	4.558228E-17	4.336229E-18
6.100000E+03	4.617092E-17	4.390439E-18
6.110000E+03	4.676478E-17	4.445101E-18
6.120000E+03	4.736256E-17	4.500091E-18
6.130000E+03	4.796177E-17	4.555171E-18
6.140000E+03	4.856033E-17	4.610145E-18
6.150000E+03	4.915669E-17	4.664866E-18
6.160000E+03	4.974867E-17	4.719128E-18
6.170000E+03	5.033280E-17	4.772602E-18
6.180000E+03	5.090748E-17	4.825137E-18
6.190000E+03	5.147052E-17	4.876528E-18
6.200000E+03	5.202056E-17	4.926647E-18
6.210000E+03	5.255724E-17	4.975463E-18
6.220000E+03	5.308035E-17	5.022956E-18
6.230000E+03	5.359059E-17	5.069195E-18
6.240000E+03	5.409022E-17	5.114395E-18
6.250000E+03	5.457965E-17	5.158596E-18
6.260000E+03	5.505866E-17	5.201780E-18
6.270000E+03	5.553000E-17	5.244209E-18
6.280000E+03	5.599439E-17	5.285948E-18
6.290000E+03	5.645112E-17	5.326935E-18
6.300000E+03	5.690321E-17	5.367455E-18
6.310000E+03	5.734929E-17	5.407378E-18
6.320000E+03	5.779174E-17	5.446930E-18
6.330000E+03	5.822992E-17	5.486053E-18
6.340000E+03	5.866477E-17	5.524833E-18
6.350000E+03	5.909638E-17	5.563281E-18
6.360000E+03	5.952490E-17	5.601412E-18
6.370000E+03	5.995041E-17	5.639233E-18
6.380000E+03	6.037217E-17	5.676675E-18
6.390000E+03	6.078934E-17	5.713660E-18
6.400000E+03	6.120277E-17	5.750270E-18
6.410000E+03	6.161073E-17	5.786340E-18
6.420000E+03	6.201402E-17	5.821948E-18
6.430000E+03	6.241168E-17	5.857005E-18
6.440000E+03	6.280365E-17	5.891505E-18
6.450000E+03	6.319078E-17	5.925530E-18
6.460000E+03	6.357494E-17	5.959254E-18
6.470000E+03	6.395622E-17	5.992687E-18
6.480000E+03	6.433568E-17	6.025930E-18
6.490000E+03	6.471443E-17	6.059087E-18
6.500000E+03	6.509174E-17	6.092087E-18
6.510000E+03	6.546974E-17	6.125135E-18
6.520000E+03	6.584873E-17	6.158255E-18
6.530000E+03	6.622792E-17	6.191375E-18
6.540000E+03	6.660960E-17	6.224710E-18
6.550000E+03	6.699300E-17	6.258186E-18
6.560000E+03	6.737728E-17	6.291727E-18
6.570000E+03	6.776479E-17	6.325551E-18
6.580000E+03	6.815470E-17	6.359581E-18
6.590000E+03	6.854721E-17	6.393837E-18
6.600000E+03	6.894364E-17	6.428441E-18
6.610000E+03	6.934196E-17	6.463204E-18
6.620000E+03	6.974228E-17	6.498136E-18
6.630000E+03	7.014700E-17	6.533462E-18
6.640000E+03	7.055391E-17	6.568974E-18
6.650000E+03	7.096303E-17	6.604677E-18
6.660000E+03	7.137551E-17	6.640678E-18
6.670000E+03	7.179013E-17	6.676861E-18
6.680000E+03	7.220676E-17	6.713216E-18
6.690000E+03	7.262648E-17	6.749842E-18
6.700000E+03	7.304665E-17	6.786498E-18
6.710000E+03	7.346700E-17	6.823156E-18
6.720000E+03	7.388983E-17	6.860030E-18
6.730000E+03	7.431228E-17	6.896857E-18
6.740000E+03	7.473402E-17	6.933605E-18
6.750000E+03	7.515601E-17	6.970365E-18
6.760000E+03	7.557654E-17	7.006978E-18
6.770000E+03	7.599520E-17	7.043409E-18
6.780000E+03	7.641154E-17	7.079614E-18
6.790000E+03	7.682510E-17	7.115554E-18
6.800000E+03	7.723403E-17	7.151057E-18
6.810000E+03	7.763921E-17	7.186207E-18
6.820000E+03	7.804017E-17	7.220960E-18
6.830000E+03	7.843500E-17	7.255141E-18
6.840000E+03	7.882461E-17	7.288836E-18
6.850000E+03	7.920706E-17	7.321866E-18
6.860000E+03	7.958188E-17	7.354190E-18
6.870000E+03	7.994856E-17	7.385762E-18
6.880000E+03	8.030518E-17	7.416405E-18
6.890000E+03	8.065428E-17	7.446356E-18
6.900000E+03	8.099397E-17	7.475444E-18
6.910000E+03	8.132238E-17	7.503494E-18
6.920000E+03	8.164065E-17	7.530617E-18
6.930000E+03	8.194691E-17	7.556640E-18
6.940000E+03	8.224082E-17	7.581533E-18
6.950000E+03	8.252362E-17	7.605413E-18
6.960000E+03	8.279347E-17	7.628113E-18
6.970000E+03	8.305007E-17	7.649606E-18
6.980000E+03	8.329319E-17	7.669873E-18
6.990000E+03	8.352261E-17	7.688895E-18
7.000000E+03	8.373651E-17	7.706509E-18
7.010000E+03	8.393806E-17	7.723005E-18
7.020000E+03	8.412392E-17	7.738081E-18
7.030000E+03	8.429406E-17	7.751733E-18
7.040000E+03	8.445019E-17	7.764122E-18
7.050000E+03	8.459075E-17	7.775106E-18
7.060000E+03	8.471592E-17	7.784704E-18
7.070000E+03	8.482595E-17	7.792941E-18
7.080000E+03	8.492118E-17	7.799849E-18
7.090000E+03	8.500372E-17	7.805624E-18
7.100000E+03	8.507071E-17	7.810006E-18
7.110000E+03	8.512276E-17	7.813050E-18
7.120000E+03	8.516227E-17	7.814981E-18
7.130000E+03	8.519005E-17	7.815873E-18
7.140000E+03	8.520528E-17	7.815653E-18
7.150000E+03	8.521067E-17	7.814571E-18
7.160000E+03	8.520379E-17	7.812405E-18
7.170000E+03	8.518923E-17	7.809578E-18
7.180000E+03	8.516645E-17	7.806041E-18
7.190000E+03	8.513667E-17	7.801907E-18
7.200000E+03	8.509939E-17	7.797130E-18
7.210000E+03	8.505942E-17	7.792155E-18
7.220000E+03	8.501454E-17	7.786776E-18
7.230000E+03	8.496773E-17	7.781269E-18
7.240000E+03	8.491844E-17	7.775585E-18
7.250000E+03	8.486953E-17	7.769984E-18
7.260000E+03	8.482019E-17	7.764394E-18
7.270000E+03	8.477123E-17	7.758891E-18
7.280000E+03	8.472507E-17	7.753695E-18
7.290000E+03	8.468037E-17	7.748686E-18
7.300000E+03	8.463919E-17	7.744051E-18
7.310000E+03	8.459796E-17	7.739466E-18
7.320000E+03	8.455839E-17	7.735087E-18
7.330000E+03	8.452199E-17	7.731053E-18
7.340000E+03	8.448476E-17	7.727000E-18
7.350000E+03	8.444800E-17	7.723046E-18
7.360000E+03	8.440932E-17	7.718975E-18
7.370000E+03	8.436994E-17	7.714897E-18
7.380000E+03	8.432741E-17	7.710591E-18
7.390000E+03	8.428112E-17	7.706001E-18
7.400000E+03	8.423049E-17	7.701075E-18
7.410000E+03	8.417316E-17	7.695597E-18
7.420000E+03	8.410864E-17	7.689524E-18
7.430000E+03	8.403655E-17	7.682822E-18
7.440000E+03	8.395657E-17	7.675463E-18
7.450000E+03	8.387034E-17	7.667596E-18
7.460000E+03	8.377583E-17	7.659037E-18
7.470000E+03	8.367672E-17	7.650124E-18
7.480000E+03	8.357301E-17	7.640856E-18
7.490000E+03	8.346474E-17	7.631238E-18
7.500000E+03	8.335199E-17	7.621278E-18
7.510000E+03	8.323480E-17	7.610979E-18
7.520000E+03	8.311732E-17	7.600720E-18
7.530000E+03	8.299653E-17	7.590224E-18
7.540000E+03	8.287502E-17	7.579726E-18
7.550000E+03	8.275345E-17	7.569287E-18
7.560000E+03	8.263431E-17	7.559131E-18
7.570000E+03	8.251434E-17	7.548961E-18
7.580000E+03	8.239601E-17	7.539001E-18
7.590000E+03	8.227982E-17	7.529297E-18
7.600000E+03	8.216827E-17	7.520074E-18
7.610000E+03	8.205799E-17	7.511026E-18
7.620000E+03	8.195332E-17	7.502548E-18
7.630000E+03	8.185279E-17	7.494503E-18
7.640000E+03	8.175487E-17	7.486752E-18
7.650000E+03	8.166384E-17	7.479687E-18
7.660000E+03	8.157812E-17	7.473160E-18
7.670000E+03	8.149803E-17	7.467202E-18
7.680000E+03	8.142380E-17	7.461833E-18
7.690000E+03	8.135568E-17	7.457074E-18
7.700000E+03	8.129375E-17	7.452932E-18
7.710000E+03	8.124003E-17	7.449593E-18
7.720000E+03	8.119051E-17	7.446689E-18
7.730000E+03	8.114899E-17	7.444567E-18
7.740000E+03	8.111325E-17	7.443024E-18
7.750000E+03	8.108296E-17	7.442027E-18
7.760000E+03	8.105770E-17	7.441539E-18
