#wls	flux	fluxerr
1.600000E+03	2.367556E-16	7.701489E-17
1.640000E+03	2.437252E-16	7.915316E-17
1.680000E+03	2.505160E-16	8.122145E-17
1.720000E+03	2.571040E-16	8.321176E-17
1.760000E+03	2.633848E-16	8.509024E-17
1.800000E+03	2.693190E-16	8.684421E-17
1.840000E+03	2.748120E-16	8.844339E-17
1.880000E+03	2.798096E-16	8.987074E-17
1.920000E+03	2.842281E-16	9.109994E-17
1.960000E+03	2.879792E-16	9.210350E-17
2.000000E+03	2.909301E-16	9.284002E-17
2.040000E+03	2.929937E-16	9.328318E-17
2.080000E+03	2.940665E-16	9.340177E-17
2.120000E+03	2.939982E-16	9.315021E-17
2.160000E+03	2.926612E-16	9.249071E-17
2.200000E+03	2.899051E-16	9.137895E-17
2.240000E+03	2.856069E-16	8.977981E-17
2.280000E+03	2.797532E-16	8.769328E-17
2.320000E+03	2.723958E-16	8.513996E-17
2.360000E+03	2.637447E-16	8.218988E-17
2.400000E+03	2.539867E-16	7.890523E-17
2.440000E+03	2.432889E-16	7.534166E-17
2.480000E+03	2.318339E-16	7.155907E-17
2.520000E+03	2.197641E-16	6.760444E-17
2.560000E+03	2.072050E-16	6.351912E-17
2.600000E+03	1.943092E-16	5.935225E-17
2.640000E+03	1.811913E-16	5.514090E-17
2.680000E+03	1.679865E-16	5.092787E-17
2.720000E+03	1.548100E-16	4.674941E-17
2.760000E+03	1.417981E-16	4.264750E-17
2.800000E+03	1.290672E-16	3.865755E-17
2.840000E+03	1.167406E-16	3.481641E-17
2.880000E+03	1.049350E-16	3.115832E-17
2.920000E+03	9.375695E-17	2.771373E-17
2.960000E+03	8.329747E-17	2.450796E-17
3.000000E+03	7.362695E-17	2.155962E-17
3.010000E+03	7.133782E-17	2.086401E-17
3.020000E+03	6.910210E-17	2.018549E-17
3.030000E+03	6.691828E-17	1.952358E-17
3.040000E+03	6.478928E-17	1.887909E-17
3.050000E+03	6.271345E-17	1.825148E-17
3.060000E+03	6.069062E-17	1.764067E-17
3.070000E+03	5.872059E-17	1.704655E-17
3.080000E+03	5.680550E-17	1.646969E-17
3.090000E+03	5.494249E-17	1.590921E-17
3.100000E+03	5.313342E-17	1.536562E-17
3.110000E+03	5.137667E-17	1.483838E-17
3.120000E+03	4.967273E-17	1.432759E-17
3.130000E+03	4.802096E-17	1.383303E-17
3.140000E+03	4.642077E-17	1.335446E-17
3.150000E+03	4.487152E-17	1.289165E-17
3.160000E+03	4.337336E-17	1.244461E-17
3.170000E+03	4.192475E-17	1.201283E-17
3.180000E+03	4.052571E-17	1.159628E-17
3.190000E+03	3.917538E-17	1.119465E-17
3.200000E+03	3.787289E-17	1.080766E-17
3.210000E+03	3.661796E-17	1.043517E-17
3.220000E+03	3.540836E-17	1.007650E-17
3.230000E+03	3.424496E-17	9.731851E-18
3.240000E+03	3.312495E-17	9.400374E-18
3.250000E+03	3.204899E-17	9.082215E-18
3.260000E+03	3.101490E-17	8.776709E-18
3.270000E+03	3.002212E-17	8.483656E-18
3.280000E+03	2.906956E-17	8.202698E-18
3.290000E+03	2.815565E-17	7.933352E-18
3.300000E+03	2.728018E-17	7.675516E-18
3.310000E+03	2.644116E-17	7.428589E-18
3.320000E+03	2.563752E-17	7.192232E-18
3.330000E+03	2.486895E-17	6.966320E-18
3.340000E+03	2.413361E-17	6.750296E-18
3.350000E+03	2.343045E-17	6.543830E-18
3.360000E+03	2.275844E-17	6.346599E-18
3.370000E+03	2.211688E-17	6.158371E-18
3.380000E+03	2.150413E-17	5.978658E-18
3.390000E+03	2.091924E-17	5.807162E-18
3.400000E+03	2.036154E-17	5.643664E-18
3.410000E+03	1.982980E-17	5.487796E-18
3.420000E+03	1.932312E-17	5.339273E-18
3.430000E+03	1.884012E-17	5.197687E-18
3.440000E+03	1.838022E-17	5.062849E-18
3.450000E+03	1.794258E-17	4.934506E-18
3.460000E+03	1.752599E-17	4.812292E-18
3.470000E+03	1.712970E-17	4.695980E-18
3.480000E+03	1.675282E-17	4.585301E-18
3.490000E+03	1.639486E-17	4.480099E-18
3.500000E+03	1.605463E-17	4.380024E-18
3.510000E+03	1.573171E-17	4.284941E-18
3.520000E+03	1.542519E-17	4.194580E-18
3.530000E+03	1.513437E-17	4.108734E-18
3.540000E+03	1.485860E-17	4.027205E-18
3.550000E+03	1.459709E-17	3.949761E-18
3.560000E+03	1.434945E-17	3.876278E-18
3.570000E+03	1.411480E-17	3.806501E-18
3.580000E+03	1.389265E-17	3.740281E-18
3.590000E+03	1.368265E-17	3.677512E-18
3.600000E+03	1.348420E-17	3.618014E-18
3.610000E+03	1.329686E-17	3.561656E-18
3.620000E+03	1.312009E-17	3.508280E-18
3.630000E+03	1.295337E-17	3.457732E-18
3.640000E+03	1.279635E-17	3.409906E-18
3.650000E+03	1.264843E-17	3.364632E-18
3.660000E+03	1.250945E-17	3.321851E-18
3.670000E+03	1.237886E-17	3.281411E-18
3.680000E+03	1.225639E-17	3.243225E-18
3.690000E+03	1.214190E-17	3.207249E-18
3.700000E+03	1.203491E-17	3.173344E-18
3.710000E+03	1.193518E-17	3.141438E-18
3.720000E+03	1.184272E-17	3.111523E-18
3.730000E+03	1.175718E-17	3.083496E-18
3.740000E+03	1.167834E-17	3.057293E-18
3.750000E+03	1.160618E-17	3.032903E-18
3.760000E+03	1.154039E-17	3.010228E-18
3.770000E+03	1.148085E-17	2.989234E-18
3.780000E+03	1.142753E-17	2.969904E-18
3.790000E+03	1.138023E-17	2.952177E-18
3.800000E+03	1.133883E-17	2.936013E-18
3.810000E+03	1.130321E-17	2.921375E-18
3.820000E+03	1.127327E-17	2.908225E-18
3.830000E+03	1.124898E-17	2.896554E-18
3.840000E+03	1.123014E-17	2.886299E-18
3.850000E+03	1.121675E-17	2.877455E-18
3.860000E+03	1.120880E-17	2.870008E-18
3.870000E+03	1.120610E-17	2.863905E-18
3.880000E+03	1.120854E-17	2.859110E-18
3.890000E+03	1.121621E-17	2.855639E-18
3.900000E+03	1.122902E-17	2.853461E-18
3.910000E+03	1.124677E-17	2.852520E-18
3.920000E+03	1.126954E-17	2.852830E-18
3.930000E+03	1.129733E-17	2.854382E-18
3.940000E+03	1.132984E-17	2.857093E-18
3.950000E+03	1.136713E-17	2.860976E-18
3.960000E+03	1.140921E-17	2.866021E-18
3.970000E+03	1.145592E-17	2.872186E-18
3.980000E+03	1.150706E-17	2.879414E-18
3.990000E+03	1.156279E-17	2.887736E-18
4.000000E+03	1.162285E-17	2.897086E-18
4.010000E+03	1.168713E-17	2.907426E-18
4.020000E+03	1.175565E-17	2.918759E-18
4.030000E+03	1.182819E-17	2.931022E-18
4.040000E+03	1.190477E-17	2.944218E-18
4.050000E+03	1.198506E-17	2.958259E-18
4.060000E+03	1.206919E-17	2.973172E-18
4.070000E+03	1.215692E-17	2.988891E-18
4.080000E+03	1.224810E-17	3.005378E-18
4.090000E+03	1.234278E-17	3.022637E-18
4.100000E+03	1.244061E-17	3.040584E-18
4.110000E+03	1.254174E-17	3.059249E-18
4.120000E+03	1.264584E-17	3.078547E-18
4.130000E+03	1.275287E-17	3.098464E-18
4.140000E+03	1.286277E-17	3.118987E-18
4.150000E+03	1.297534E-17	3.140057E-18
4.160000E+03	1.309052E-17	3.161664E-18
4.170000E+03	1.320820E-17	3.183774E-18
4.180000E+03	1.332814E-17	3.206329E-18
4.190000E+03	1.345043E-17	3.229349E-18
4.200000E+03	1.357473E-17	3.252748E-18
4.210000E+03	1.370114E-17	3.276550E-18
4.220000E+03	1.382931E-17	3.300672E-18
4.230000E+03	1.395924E-17	3.325108E-18
4.240000E+03	1.409080E-17	3.349828E-18
4.250000E+03	1.422363E-17	3.374748E-18
4.260000E+03	1.435784E-17	3.399892E-18
4.270000E+03	1.449318E-17	3.425199E-18
4.280000E+03	1.462940E-17	3.450613E-18
4.290000E+03	1.476626E-17	3.476075E-18
4.300000E+03	1.490373E-17	3.501582E-18
4.310000E+03	1.504168E-17	3.527102E-18
4.320000E+03	1.517963E-17	3.552524E-18
4.330000E+03	1.531767E-17	3.577872E-18
4.340000E+03	1.545532E-17	3.603037E-18
4.350000E+03	1.559269E-17	3.628045E-18
4.360000E+03	1.572943E-17	3.652815E-18
4.370000E+03	1.586553E-17	3.677353E-18
4.380000E+03	1.600105E-17	3.701670E-18
4.390000E+03	1.613602E-17	3.725781E-18
4.400000E+03	1.627048E-17	3.749694E-18
4.410000E+03	1.640459E-17	3.773452E-18
4.420000E+03	1.653854E-17	3.797098E-18
4.430000E+03	1.667238E-17	3.820649E-18
4.440000E+03	1.680634E-17	3.844157E-18
4.450000E+03	1.694035E-17	3.867612E-18
4.460000E+03	1.707480E-17	3.891102E-18
4.470000E+03	1.720965E-17	3.914619E-18
4.480000E+03	1.734500E-17	3.938192E-18
4.490000E+03	1.748094E-17	3.961842E-18
4.500000E+03	1.761760E-17	3.985595E-18
4.510000E+03	1.775507E-17	4.009477E-18
4.520000E+03	1.789347E-17	4.033512E-18
4.530000E+03	1.803258E-17	4.057649E-18
4.540000E+03	1.817281E-17	4.081985E-18
4.550000E+03	1.831398E-17	4.106473E-18
4.560000E+03	1.845618E-17	4.131136E-18
4.570000E+03	1.859937E-17	4.155964E-18
4.580000E+03	1.874382E-17	4.181014E-18
4.590000E+03	1.888948E-17	4.206277E-18
4.600000E+03	1.903611E-17	4.231701E-18
4.610000E+03	1.918418E-17	4.257384E-18
4.620000E+03	1.933345E-17	4.283275E-18
4.630000E+03	1.948384E-17	4.309355E-18
4.640000E+03	1.963564E-17	4.335687E-18
4.650000E+03	1.978895E-17	4.362295E-18
4.660000E+03	1.994335E-17	4.389081E-18
4.670000E+03	2.009931E-17	4.416150E-18
4.680000E+03	2.025676E-17	4.443482E-18
4.690000E+03	2.041563E-17	4.471066E-18
4.700000E+03	2.057605E-17	4.498928E-18
4.710000E+03	2.073798E-17	4.527057E-18
4.720000E+03	2.090159E-17	4.555488E-18
4.730000E+03	2.106649E-17	4.584136E-18
4.740000E+03	2.123290E-17	4.613048E-18
4.750000E+03	2.140106E-17	4.642276E-18
4.760000E+03	2.157045E-17	4.671704E-18
4.770000E+03	2.174152E-17	4.701431E-18
4.780000E+03	2.191415E-17	4.731428E-18
4.790000E+03	2.208818E-17	4.761659E-18
4.800000E+03	2.226409E-17	4.792228E-18
4.810000E+03	2.244126E-17	4.823001E-18
4.820000E+03	2.262039E-17	4.854126E-18
4.830000E+03	2.280082E-17	4.885461E-18
4.840000E+03	2.298299E-17	4.917100E-18
4.850000E+03	2.316647E-17	4.948949E-18
4.860000E+03	2.335170E-17	4.981099E-18
4.870000E+03	2.353820E-17	5.013450E-18
4.880000E+03	2.372618E-17	5.046046E-18
4.890000E+03	2.391563E-17	5.078881E-18
4.900000E+03	2.410630E-17	5.111903E-18
4.910000E+03	2.429816E-17	5.145106E-18
4.920000E+03	2.449120E-17	5.178486E-18
4.930000E+03	2.468564E-17	5.212089E-18
4.940000E+03	2.488099E-17	5.245809E-18
4.950000E+03	2.507772E-17	5.279749E-18
4.960000E+03	2.527532E-17	5.313798E-18
4.970000E+03	2.547403E-17	5.348009E-18
4.980000E+03	2.567357E-17	5.382319E-18
4.990000E+03	2.587390E-17	5.416722E-18
5.000000E+03	2.607495E-17	5.451202E-18
5.010000E+03	2.627689E-17	5.485796E-18
5.020000E+03	2.647908E-17	5.520370E-18
5.030000E+03	2.668164E-17	5.554949E-18
5.040000E+03	2.688413E-17	5.589444E-18
5.050000E+03	2.708662E-17	5.623867E-18
5.060000E+03	2.728860E-17	5.658114E-18
5.070000E+03	2.748954E-17	5.692080E-18
5.080000E+03	2.768942E-17	5.725755E-18
5.090000E+03	2.788792E-17	5.759082E-18
5.100000E+03	2.808439E-17	5.791927E-18
5.110000E+03	2.827820E-17	5.824161E-18
5.120000E+03	2.846946E-17	5.855810E-18
5.130000E+03	2.865719E-17	5.886677E-18
5.140000E+03	2.884092E-17	5.916669E-18
5.150000E+03	2.902018E-17	5.945693E-18
5.160000E+03	2.919448E-17	5.973654E-18
5.170000E+03	2.936306E-17	6.000400E-18
5.180000E+03	2.952570E-17	6.025896E-18
5.190000E+03	2.968137E-17	6.049933E-18
5.200000E+03	2.982986E-17	6.072475E-18
5.210000E+03	2.997008E-17	6.093309E-18
5.220000E+03	3.010213E-17	6.112462E-18
5.230000E+03	3.022490E-17	6.129715E-18
5.240000E+03	3.033812E-17	6.145024E-18
5.250000E+03	3.044064E-17	6.158160E-18
5.260000E+03	3.053214E-17	6.169072E-18
5.270000E+03	3.061200E-17	6.177640E-18
5.280000E+03	3.067895E-17	6.183621E-18
5.290000E+03	3.073233E-17	6.186891E-18
5.300000E+03	3.077179E-17	6.187390E-18
5.310000E+03	3.079635E-17	6.184931E-18
5.320000E+03	3.080505E-17	6.179336E-18
5.330000E+03	3.079729E-17	6.170494E-18
5.340000E+03	3.077250E-17	6.158303E-18
5.350000E+03	3.073019E-17	6.142681E-18
5.360000E+03	3.066963E-17	6.123490E-18
5.370000E+03	3.059081E-17	6.100743E-18
5.380000E+03	3.049322E-17	6.074353E-18
5.390000E+03	3.037711E-17	6.044383E-18
5.400000E+03	3.024232E-17	6.010811E-18
5.410000E+03	3.008973E-17	5.973825E-18
5.420000E+03	2.992016E-17	5.933600E-18
5.430000E+03	2.973404E-17	5.890232E-18
5.440000E+03	2.953319E-17	5.844092E-18
5.450000E+03	2.931877E-17	5.795416E-18
5.460000E+03	2.909096E-17	5.744251E-18
5.470000E+03	2.885219E-17	5.691084E-18
5.480000E+03	2.860361E-17	5.636144E-18
5.490000E+03	2.834650E-17	5.579693E-18
5.500000E+03	2.808255E-17	5.522065E-18
5.510000E+03	2.781320E-17	5.463547E-18
5.520000E+03	2.753995E-17	5.404434E-18
5.530000E+03	2.726491E-17	5.345140E-18
5.540000E+03	2.698964E-17	5.285970E-18
5.550000E+03	2.671657E-17	5.227393E-18
5.560000E+03	2.644779E-17	5.169814E-18
5.570000E+03	2.618510E-17	5.113579E-18
5.580000E+03	2.593077E-17	5.059122E-18
5.590000E+03	2.568670E-17	5.006807E-18
5.600000E+03	2.545468E-17	4.956974E-18
5.610000E+03	2.523660E-17	4.909982E-18
5.620000E+03	2.503393E-17	4.866103E-18
5.630000E+03	2.484791E-17	4.825570E-18
5.640000E+03	2.467982E-17	4.788617E-18
5.650000E+03	2.453046E-17	4.755391E-18
5.660000E+03	2.440062E-17	4.726032E-18
5.670000E+03	2.429062E-17	4.700587E-18
5.680000E+03	2.420054E-17	4.679062E-18
5.690000E+03	2.413049E-17	4.661468E-18
5.700000E+03	2.408017E-17	4.647732E-18
5.710000E+03	2.404910E-17	4.637750E-18
5.720000E+03	2.403691E-17	4.631440E-18
5.730000E+03	2.404290E-17	4.628660E-18
5.740000E+03	2.406658E-17	4.629301E-18
5.750000E+03	2.410694E-17	4.633161E-18
5.760000E+03	2.416376E-17	4.640187E-18
5.770000E+03	2.423613E-17	4.650197E-18
5.780000E+03	2.432350E-17	4.663075E-18
5.790000E+03	2.442593E-17	4.678826E-18
5.800000E+03	2.454257E-17	4.697280E-18
5.810000E+03	2.467373E-17	4.718487E-18
5.820000E+03	2.481928E-17	4.742414E-18
5.830000E+03	2.497918E-17	4.769044E-18
5.840000E+03	2.515313E-17	4.798316E-18
5.850000E+03	2.534174E-17	4.830336E-18
5.860000E+03	2.554477E-17	4.865054E-18
5.870000E+03	2.576260E-17	4.902529E-18
5.880000E+03	2.599528E-17	4.942769E-18
5.890000E+03	2.624263E-17	4.985727E-18
5.900000E+03	2.650498E-17	5.031459E-18
5.910000E+03	2.678266E-17	5.080024E-18
5.920000E+03	2.707512E-17	5.131304E-18
5.930000E+03	2.738262E-17	5.185344E-18
5.940000E+03	2.770511E-17	5.242125E-18
5.950000E+03	2.804279E-17	5.301678E-18
5.960000E+03	2.839488E-17	5.363849E-18
5.970000E+03	2.876182E-17	5.428713E-18
5.980000E+03	2.914274E-17	5.496097E-18
5.990000E+03	2.953765E-17	5.565994E-18
6.000000E+03	2.994623E-17	5.638340E-18
6.010000E+03	3.036775E-17	5.712990E-18
6.020000E+03	3.080213E-17	5.789922E-18
6.030000E+03	3.124818E-17	5.868903E-18
6.040000E+03	3.170608E-17	5.949964E-18
6.050000E+03	3.217416E-17	6.032784E-18
6.060000E+03	3.265249E-17	6.117371E-18
6.070000E+03	3.313963E-17	6.203449E-18
6.080000E+03	3.363520E-17	6.290942E-18
6.090000E+03	3.413757E-17	6.379543E-18
6.100000E+03	3.464583E-17	6.469077E-18
6.110000E+03	3.515861E-17	6.559283E-18
6.120000E+03	3.567485E-17	6.649963E-18
6.130000E+03	3.619256E-17	6.740745E-18
6.140000E+03	3.671011E-17	6.831322E-18
6.150000E+03	3.722623E-17	6.921459E-18
6.160000E+03	3.773919E-17	7.010835E-18
6.170000E+03	3.824628E-17	7.098948E-18
6.180000E+03	3.874617E-17	7.185553E-18
6.190000E+03	3.923713E-17	7.270334E-18
6.200000E+03	3.971801E-17	7.353079E-18
6.210000E+03	4.018831E-17	7.433707E-18
6.220000E+03	4.064773E-17	7.512162E-18
6.230000E+03	4.109662E-17	7.588516E-18
6.240000E+03	4.153655E-17	7.663062E-18
6.250000E+03	4.196769E-17	7.735840E-18
6.260000E+03	4.238978E-17	7.806802E-18
6.270000E+03	4.280478E-17	7.876318E-18
6.280000E+03	4.321319E-17	7.944481E-18
6.290000E+03	4.361438E-17	8.011182E-18
6.300000E+03	4.401067E-17	8.076847E-18
6.310000E+03	4.440096E-17	8.141276E-18
6.320000E+03	4.478711E-17	8.204812E-18
6.330000E+03	4.516867E-17	8.267372E-18
6.340000E+03	4.554638E-17	8.329090E-18
6.350000E+03	4.592039E-17	8.389996E-18
6.360000E+03	4.629087E-17	8.450118E-18
6.370000E+03	4.665797E-17	8.509485E-18
6.380000E+03	4.702119E-17	8.568004E-18
6.390000E+03	4.737998E-17	8.625576E-18
6.400000E+03	4.773510E-17	8.682338E-18
6.410000E+03	4.808528E-17	8.738063E-18
6.420000E+03	4.843126E-17	8.792881E-18
6.430000E+03	4.877241E-17	8.846681E-18
6.440000E+03	4.910877E-17	8.899471E-18
6.450000E+03	4.944113E-17	8.951393E-18
6.460000E+03	4.977104E-17	9.002730E-18
6.470000E+03	5.009868E-17	9.053513E-18
6.480000E+03	5.042500E-17	9.103913E-18
6.490000E+03	5.075099E-17	9.154109E-18
6.500000E+03	5.107614E-17	9.204006E-18
6.510000E+03	5.140228E-17	9.253934E-18
6.520000E+03	5.172969E-17	9.303943E-18
6.530000E+03	5.205788E-17	9.353943E-18
6.540000E+03	5.238874E-17	9.404270E-18
6.550000E+03	5.272176E-17	9.454830E-18
6.560000E+03	5.305636E-17	9.505522E-18
6.570000E+03	5.339449E-17	9.556687E-18
6.580000E+03	5.373556E-17	9.608222E-18
6.590000E+03	5.407983E-17	9.660170E-18
6.600000E+03	5.442842E-17	9.712728E-18
6.610000E+03	5.477979E-17	9.765621E-18
6.620000E+03	5.513413E-17	9.818879E-18
6.630000E+03	5.549338E-17	9.872847E-18
6.640000E+03	5.585587E-17	9.927226E-18
6.650000E+03	5.622170E-17	9.982032E-18
6.660000E+03	5.659184E-17	1.003744E-17
6.670000E+03	5.696536E-17	1.009327E-17
6.680000E+03	5.734226E-17	1.014954E-17
6.690000E+03	5.772344E-17	1.020639E-17
6.700000E+03	5.810686E-17	1.026348E-17
6.710000E+03	5.849238E-17	1.032076E-17
6.720000E+03	5.888185E-17	1.037857E-17
6.730000E+03	5.927308E-17	1.043653E-17
6.740000E+03	5.966585E-17	1.049459E-17
6.750000E+03	6.006096E-17	1.055291E-17
6.760000E+03	6.045711E-17	1.061124E-17
6.770000E+03	6.085399E-17	1.066954E-17
6.780000E+03	6.125131E-17	1.072775E-17
6.790000E+03	6.164873E-17	1.078584E-17
6.800000E+03	6.204480E-17	1.084353E-17
6.810000E+03	6.244027E-17	1.090098E-17
6.820000E+03	6.283479E-17	1.095811E-17
6.830000E+03	6.322682E-17	1.101467E-17
6.840000E+03	6.361716E-17	1.107081E-17
6.850000E+03	6.400425E-17	1.112625E-17
6.860000E+03	6.438771E-17	1.118094E-17
6.870000E+03	6.476718E-17	1.123482E-17
6.880000E+03	6.514107E-17	1.128763E-17
6.890000E+03	6.551145E-17	1.133973E-17
6.900000E+03	6.587682E-17	1.139087E-17
6.910000E+03	6.623561E-17	1.144078E-17
6.920000E+03	6.658875E-17	1.148965E-17
6.930000E+03	6.693472E-17	1.153721E-17
6.940000E+03	6.727318E-17	1.158342E-17
6.950000E+03	6.760516E-17	1.162847E-17
6.960000E+03	6.792908E-17	1.167210E-17
6.970000E+03	6.824467E-17	1.171427E-17
6.980000E+03	6.855167E-17	1.175495E-17
6.990000E+03	6.884987E-17	1.179412E-17
7.000000E+03	6.913773E-17	1.183153E-17
7.010000E+03	6.941773E-17	1.186761E-17
7.020000E+03	6.968706E-17	1.190191E-17
7.030000E+03	6.994562E-17	1.193441E-17
7.040000E+03	7.019470E-17	1.196536E-17
7.050000E+03	7.043294E-17	1.199453E-17
7.060000E+03	7.066035E-17	1.202194E-17
7.070000E+03	7.087701E-17	1.204763E-17
7.080000E+03	7.108308E-17	1.207163E-17
7.090000E+03	7.128019E-17	1.209424E-17
7.100000E+03	7.146580E-17	1.211504E-17
7.110000E+03	7.164023E-17	1.213411E-17
7.120000E+03	7.180537E-17	1.215177E-17
7.130000E+03	7.196170E-17	1.216813E-17
7.140000E+03	7.210836E-17	1.218305E-17
7.150000E+03	7.224745E-17	1.219691E-17
7.160000E+03	7.237670E-17	1.220934E-17
7.170000E+03	7.249982E-17	1.222098E-17
7.180000E+03	7.261612E-17	1.223173E-17
7.190000E+03	7.272642E-17	1.224174E-17
7.200000E+03	7.283008E-17	1.225091E-17
7.210000E+03	7.293099E-17	1.225992E-17
7.220000E+03	7.302698E-17	1.226842E-17
7.230000E+03	7.312040E-17	1.227681E-17
7.240000E+03	7.321053E-17	1.228499E-17
7.250000E+03	7.329959E-17	1.229335E-17
7.260000E+03	7.338664E-17	1.230173E-17
7.270000E+03	7.347213E-17	1.231023E-17
7.280000E+03	7.355793E-17	1.231919E-17
7.290000E+03	7.364262E-17	1.232836E-17
7.300000E+03	7.372778E-17	1.233804E-17
7.310000E+03	7.381009E-17	1.234767E-17
7.320000E+03	7.389083E-17	1.235750E-17
7.330000E+03	7.397114E-17	1.236772E-17
7.340000E+03	7.404736E-17	1.237773E-17
7.350000E+03	7.412050E-17	1.238773E-17
7.360000E+03	7.418839E-17	1.239735E-17
7.370000E+03	7.425203E-17	1.240679E-17
7.380000E+03	7.430930E-17	1.241570E-17
7.390000E+03	7.435971E-17	1.242402E-17
7.400000E+03	7.440288E-17	1.243170E-17
7.410000E+03	7.443694E-17	1.243843E-17
7.420000E+03	7.446174E-17	1.244421E-17
7.430000E+03	7.447728E-17	1.244904E-17
7.440000E+03	7.448373E-17	1.245298E-17
7.450000E+03	7.448305E-17	1.245635E-17
7.460000E+03	7.447401E-17	1.245897E-17
7.470000E+03	7.446054E-17	1.246150E-17
7.480000E+03	7.444331E-17	1.246407E-17
7.490000E+03	7.442308E-17	1.246681E-17
7.500000E+03	7.440062E-17	1.246987E-17
7.510000E+03	7.437669E-17	1.247338E-17
7.520000E+03	7.435511E-17	1.247799E-17
7.530000E+03	7.433248E-17	1.248313E-17
7.540000E+03	7.431034E-17	1.248905E-17
7.550000E+03	7.428853E-17	1.249571E-17
7.560000E+03	7.426855E-17	1.250335E-17
7.570000E+03	7.424677E-17	1.251135E-17
7.580000E+03	7.422476E-17	1.251996E-17
7.590000E+03	7.420243E-17	1.252916E-17
7.600000E+03	7.418151E-17	1.253922E-17
7.610000E+03	7.415854E-17	1.254956E-17
7.620000E+03	7.413713E-17	1.256076E-17
7.630000E+03	7.411566E-17	1.257254E-17
7.640000E+03	7.409258E-17	1.258464E-17
7.650000E+03	7.407165E-17	1.259767E-17
7.660000E+03	7.405137E-17	1.261138E-17
7.670000E+03	7.403204E-17	1.262579E-17
7.680000E+03	7.401395E-17	1.264095E-17
7.690000E+03	7.399737E-17	1.265690E-17
7.700000E+03	7.398254E-17	1.267366E-17
7.710000E+03	7.397145E-17	1.269157E-17
7.720000E+03	7.396062E-17	1.271002E-17
7.730000E+03	7.395370E-17	1.272963E-17
7.740000E+03	7.394889E-17	1.275008E-17
7.750000E+03	7.394609E-17	1.277134E-17
7.760000E+03	7.394515E-17	1.279339E-17
