#wls	flux	fluxerr
1.600000E+03	2.996939E-16	8.265633E-17
1.640000E+03	3.084422E-16	8.506807E-17
1.680000E+03	3.166193E-16	8.732215E-17
1.720000E+03	3.241610E-16	8.940084E-17
1.760000E+03	3.308698E-16	9.124966E-17
1.800000E+03	3.367315E-16	9.286471E-17
1.840000E+03	3.415412E-16	9.418949E-17
1.880000E+03	3.452469E-16	9.520968E-17
1.920000E+03	3.477357E-16	9.589411E-17
1.960000E+03	3.488450E-16	9.619800E-17
2.000000E+03	3.485345E-16	9.611024E-17
2.040000E+03	3.466940E-16	9.560044E-17
2.080000E+03	3.432362E-16	9.464460E-17
2.120000E+03	3.381021E-16	9.322644E-17
2.160000E+03	3.312232E-16	9.132714E-17
2.200000E+03	3.225003E-16	8.891939E-17
2.240000E+03	3.118535E-16	8.598120E-17
2.280000E+03	2.993457E-16	8.252999E-17
2.320000E+03	2.852340E-16	7.863666E-17
2.360000E+03	2.699472E-16	7.441953E-17
2.400000E+03	2.538294E-16	6.997349E-17
2.440000E+03	2.371911E-16	6.538418E-17
2.480000E+03	2.202596E-16	6.071431E-17
2.520000E+03	2.032701E-16	5.602873E-17
2.560000E+03	1.864132E-16	5.137997E-17
2.600000E+03	1.698823E-16	4.682140E-17
2.640000E+03	1.538323E-16	4.239572E-17
2.680000E+03	1.384052E-16	3.814205E-17
2.720000E+03	1.237259E-16	3.409483E-17
2.760000E+03	1.098888E-16	3.028003E-17
2.800000E+03	9.697201E-17	2.671919E-17
2.840000E+03	8.503185E-17	2.342779E-17
2.880000E+03	7.410841E-17	2.041685E-17
2.920000E+03	6.422400E-17	1.769249E-17
2.960000E+03	5.537863E-17	1.525468E-17
3.000000E+03	4.755154E-17	1.309765E-17
3.010000E+03	4.574923E-17	1.260098E-17
3.020000E+03	4.400621E-17	1.212065E-17
3.030000E+03	4.232325E-17	1.165689E-17
3.040000E+03	4.069712E-17	1.120879E-17
3.050000E+03	3.912835E-17	1.077651E-17
3.060000E+03	3.761556E-17	1.035966E-17
3.070000E+03	3.615807E-17	9.958051E-18
3.080000E+03	3.475295E-17	9.570882E-18
3.090000E+03	3.340098E-17	9.198362E-18
3.100000E+03	3.209931E-17	8.839708E-18
3.110000E+03	3.084781E-17	8.494886E-18
3.120000E+03	2.964500E-17	8.163481E-18
3.130000E+03	2.848883E-17	7.844932E-18
3.140000E+03	2.737897E-17	7.539148E-18
3.150000E+03	2.631347E-17	7.245591E-18
3.160000E+03	2.529137E-17	6.963997E-18
3.170000E+03	2.431128E-17	6.693978E-18
3.180000E+03	2.337180E-17	6.435154E-18
3.190000E+03	2.247196E-17	6.187253E-18
3.200000E+03	2.161042E-17	5.949906E-18
3.210000E+03	2.078544E-17	5.722634E-18
3.220000E+03	1.999646E-17	5.505284E-18
3.230000E+03	1.924184E-17	5.297401E-18
3.240000E+03	1.852064E-17	5.098729E-18
3.250000E+03	1.783161E-17	4.908922E-18
3.260000E+03	1.717329E-17	4.727575E-18
3.270000E+03	1.654504E-17	4.554514E-18
3.280000E+03	1.594519E-17	4.389278E-18
3.290000E+03	1.537313E-17	4.231701E-18
3.300000E+03	1.482776E-17	4.081475E-18
3.310000E+03	1.430755E-17	3.938183E-18
3.320000E+03	1.381195E-17	3.801668E-18
3.330000E+03	1.333992E-17	3.671650E-18
3.340000E+03	1.289031E-17	3.547807E-18
3.350000E+03	1.246219E-17	3.429884E-18
3.360000E+03	1.205466E-17	3.317635E-18
3.370000E+03	1.166687E-17	3.210822E-18
3.380000E+03	1.129798E-17	3.109214E-18
3.390000E+03	1.094718E-17	3.012590E-18
3.400000E+03	1.061355E-17	2.920698E-18
3.410000E+03	1.029624E-17	2.833299E-18
3.420000E+03	9.994816E-18	2.750275E-18
3.430000E+03	9.708211E-18	2.671333E-18
3.440000E+03	9.435925E-18	2.596336E-18
3.450000E+03	9.177237E-18	2.525083E-18
3.460000E+03	8.931569E-18	2.457416E-18
3.470000E+03	8.698166E-18	2.393127E-18
3.480000E+03	8.476422E-18	2.332048E-18
3.490000E+03	8.265865E-18	2.274051E-18
3.500000E+03	8.065853E-18	2.218957E-18
3.510000E+03	7.875971E-18	2.166653E-18
3.520000E+03	7.695477E-18	2.116933E-18
3.530000E+03	7.524018E-18	2.069702E-18
3.540000E+03	7.361025E-18	2.024802E-18
3.550000E+03	7.206037E-18	1.982106E-18
3.560000E+03	7.058635E-18	1.941499E-18
3.570000E+03	6.918277E-18	1.902831E-18
3.580000E+03	6.784741E-18	1.866041E-18
3.590000E+03	6.657610E-18	1.831015E-18
3.600000E+03	6.536499E-18	1.797646E-18
3.610000E+03	6.421231E-18	1.765886E-18
3.620000E+03	6.311394E-18	1.735621E-18
3.630000E+03	6.206722E-18	1.706778E-18
3.640000E+03	6.106962E-18	1.679287E-18
3.650000E+03	6.011878E-18	1.653083E-18
3.660000E+03	5.921238E-18	1.628102E-18
3.670000E+03	5.834829E-18	1.604286E-18
3.680000E+03	5.752495E-18	1.581591E-18
3.690000E+03	5.674084E-18	1.559976E-18
3.700000E+03	5.599404E-18	1.539388E-18
3.710000E+03	5.528458E-18	1.519828E-18
3.720000E+03	5.461008E-18	1.501229E-18
3.730000E+03	5.397013E-18	1.483581E-18
3.740000E+03	5.336334E-18	1.466845E-18
3.750000E+03	5.278885E-18	1.450998E-18
3.760000E+03	5.224665E-18	1.436040E-18
3.770000E+03	5.173454E-18	1.421909E-18
3.780000E+03	5.125253E-18	1.408605E-18
3.790000E+03	5.080015E-18	1.396117E-18
3.800000E+03	5.037573E-18	1.384397E-18
3.810000E+03	4.997923E-18	1.373446E-18
3.820000E+03	4.961021E-18	1.363249E-18
3.830000E+03	4.926742E-18	1.353774E-18
3.840000E+03	4.895006E-18	1.344998E-18
3.850000E+03	4.865849E-18	1.336931E-18
3.860000E+03	4.839113E-18	1.329529E-18
3.870000E+03	4.814796E-18	1.322792E-18
3.880000E+03	4.792819E-18	1.316698E-18
3.890000E+03	4.773145E-18	1.311236E-18
3.900000E+03	4.755736E-18	1.306397E-18
3.910000E+03	4.740481E-18	1.302149E-18
3.920000E+03	4.727343E-18	1.298482E-18
3.930000E+03	4.716328E-18	1.295399E-18
3.940000E+03	4.707365E-18	1.292879E-18
3.950000E+03	4.700384E-18	1.290903E-18
3.960000E+03	4.695357E-18	1.289463E-18
3.970000E+03	4.692219E-18	1.288541E-18
3.980000E+03	4.690938E-18	1.288130E-18
3.990000E+03	4.691492E-18	1.288221E-18
4.000000E+03	4.693854E-18	1.288808E-18
4.010000E+03	4.697929E-18	1.289866E-18
4.020000E+03	4.703692E-18	1.291385E-18
4.030000E+03	4.711123E-18	1.293363E-18
4.040000E+03	4.720203E-18	1.295792E-18
4.050000E+03	4.730878E-18	1.298658E-18
4.060000E+03	4.743089E-18	1.301945E-18
4.070000E+03	4.756825E-18	1.305650E-18
4.080000E+03	4.772032E-18	1.309757E-18
4.090000E+03	4.788694E-18	1.314263E-18
4.100000E+03	4.806764E-18	1.319155E-18
4.110000E+03	4.826229E-18	1.324427E-18
4.120000E+03	4.847041E-18	1.330069E-18
4.130000E+03	4.869154E-18	1.336066E-18
4.140000E+03	4.892556E-18	1.342416E-18
4.150000E+03	4.917204E-18	1.349106E-18
4.160000E+03	4.943088E-18	1.356134E-18
4.170000E+03	4.970129E-18	1.363478E-18
4.180000E+03	4.998316E-18	1.371136E-18
4.190000E+03	5.027571E-18	1.379084E-18
4.200000E+03	5.057926E-18	1.387333E-18
4.210000E+03	5.089300E-18	1.395859E-18
4.220000E+03	5.121687E-18	1.404662E-18
4.230000E+03	5.154968E-18	1.413708E-18
4.240000E+03	5.189178E-18	1.423008E-18
4.250000E+03	5.224194E-18	1.432527E-18
4.260000E+03	5.260054E-18	1.442275E-18
4.270000E+03	5.296633E-18	1.452218E-18
4.280000E+03	5.333845E-18	1.462333E-18
4.290000E+03	5.371727E-18	1.472630E-18
4.300000E+03	5.410110E-18	1.483063E-18
4.310000E+03	5.449030E-18	1.493640E-18
4.320000E+03	5.488313E-18	1.504315E-18
4.330000E+03	5.527997E-18	1.515098E-18
4.340000E+03	5.567989E-18	1.525963E-18
4.350000E+03	5.608197E-18	1.536885E-18
4.360000E+03	5.648613E-18	1.547862E-18
4.370000E+03	5.689184E-18	1.558879E-18
4.380000E+03	5.729956E-18	1.569949E-18
4.390000E+03	5.770829E-18	1.581045E-18
4.400000E+03	5.811893E-18	1.592190E-18
4.410000E+03	5.853148E-18	1.603386E-18
4.420000E+03	5.894596E-18	1.614632E-18
4.430000E+03	5.936240E-18	1.625929E-18
4.440000E+03	5.978131E-18	1.637292E-18
4.450000E+03	6.020230E-18	1.648709E-18
4.460000E+03	6.062590E-18	1.660195E-18
4.470000E+03	6.105223E-18	1.671753E-18
4.480000E+03	6.148139E-18	1.683386E-18
4.490000E+03	6.191302E-18	1.695085E-18
4.500000E+03	6.234725E-18	1.706852E-18
4.510000E+03	6.278371E-18	1.718677E-18
4.520000E+03	6.322304E-18	1.730578E-18
4.530000E+03	6.366442E-18	1.742533E-18
4.540000E+03	6.410801E-18	1.754545E-18
4.550000E+03	6.455398E-18	1.766620E-18
4.560000E+03	6.500147E-18	1.778733E-18
4.570000E+03	6.545124E-18	1.790906E-18
4.580000E+03	6.590242E-18	1.803115E-18
4.590000E+03	6.635526E-18	1.815366E-18
4.600000E+03	6.680888E-18	1.827635E-18
4.610000E+03	6.726415E-18	1.839947E-18
4.620000E+03	6.772079E-18	1.852293E-18
4.630000E+03	6.817798E-18	1.864651E-18
4.640000E+03	6.863602E-18	1.877029E-18
4.650000E+03	6.909530E-18	1.889437E-18
4.660000E+03	6.955562E-18	1.901872E-18
4.670000E+03	7.001618E-18	1.914309E-18
4.680000E+03	7.047866E-18	1.926796E-18
4.690000E+03	7.094357E-18	1.939346E-18
4.700000E+03	7.141020E-18	1.951939E-18
4.710000E+03	7.187909E-18	1.964591E-18
4.720000E+03	7.235084E-18	1.977318E-18
4.730000E+03	7.282411E-18	1.990082E-18
4.740000E+03	7.329952E-18	2.002902E-18
4.750000E+03	7.377643E-18	2.015759E-18
4.760000E+03	7.425544E-18	2.028670E-18
4.770000E+03	7.473662E-18	2.041637E-18
4.780000E+03	7.521929E-18	2.054641E-18
4.790000E+03	7.570418E-18	2.067701E-18
4.800000E+03	7.619064E-18	2.080801E-18
4.810000E+03	7.667942E-18	2.093960E-18
4.820000E+03	7.716990E-18	2.107161E-18
4.830000E+03	7.766213E-18	2.120407E-18
4.840000E+03	7.815617E-18	2.133698E-18
4.850000E+03	7.865283E-18	2.147057E-18
4.860000E+03	7.915146E-18	2.160465E-18
4.870000E+03	7.965213E-18	2.173925E-18
4.880000E+03	8.015417E-18	2.187419E-18
4.890000E+03	8.065914E-18	2.200988E-18
4.900000E+03	8.116635E-18	2.214613E-18
4.910000E+03	8.167587E-18	2.228298E-18
4.920000E+03	8.218698E-18	2.242022E-18
4.930000E+03	8.270046E-18	2.255806E-18
4.940000E+03	8.321556E-18	2.269629E-18
4.950000E+03	8.373231E-18	2.283493E-18
4.960000E+03	8.425149E-18	2.297419E-18
4.970000E+03	8.477229E-18	2.311385E-18
4.980000E+03	8.529467E-18	2.325389E-18
4.990000E+03	8.581778E-18	2.339408E-18
5.000000E+03	8.634237E-18	2.353462E-18
5.010000E+03	8.686840E-18	2.367551E-18
5.020000E+03	8.739491E-18	2.381649E-18
5.030000E+03	8.792180E-18	2.395752E-18
5.040000E+03	8.844896E-18	2.409857E-18
5.050000E+03	8.897540E-18	2.423937E-18
5.060000E+03	8.950182E-18	2.438013E-18
5.070000E+03	9.002807E-18	2.452078E-18
5.080000E+03	9.055221E-18	2.466081E-18
5.090000E+03	9.107492E-18	2.480040E-18
5.100000E+03	9.159602E-18	2.493949E-18
5.110000E+03	9.211437E-18	2.507779E-18
5.120000E+03	9.262973E-18	2.521522E-18
5.130000E+03	9.314184E-18	2.535171E-18
5.140000E+03	9.365041E-18	2.548719E-18
5.150000E+03	9.415423E-18	2.562131E-18
5.160000E+03	9.465389E-18	2.575426E-18
5.170000E+03	9.514719E-18	2.588542E-18
5.180000E+03	9.563467E-18	2.601494E-18
5.190000E+03	9.611497E-18	2.614246E-18
5.200000E+03	9.658766E-18	2.626786E-18
5.210000E+03	9.705221E-18	2.639099E-18
5.220000E+03	9.750815E-18	2.651172E-18
5.230000E+03	9.795300E-18	2.662938E-18
5.240000E+03	9.838808E-18	2.674434E-18
5.250000E+03	9.881181E-18	2.685616E-18
5.260000E+03	9.922360E-18	2.696467E-18
5.270000E+03	9.962178E-18	2.706945E-18
5.280000E+03	1.000057E-17	2.717029E-18
5.290000E+03	1.003747E-17	2.726702E-18
5.300000E+03	1.007280E-17	2.735946E-18
5.310000E+03	1.010651E-17	2.744742E-18
5.320000E+03	1.013842E-17	2.753046E-18
5.330000E+03	1.016867E-17	2.760895E-18
5.340000E+03	1.019700E-17	2.768219E-18
5.350000E+03	1.022336E-17	2.775001E-18
5.360000E+03	1.024789E-17	2.781284E-18
5.370000E+03	1.027035E-17	2.786999E-18
5.380000E+03	1.029089E-17	2.792189E-18
5.390000E+03	1.030938E-17	2.796819E-18
5.400000E+03	1.032588E-17	2.800907E-18
5.410000E+03	1.034028E-17	2.804420E-18
5.420000E+03	1.035275E-17	2.807407E-18
5.430000E+03	1.036319E-17	2.809839E-18
5.440000E+03	1.037170E-17	2.811743E-18
5.450000E+03	1.037806E-17	2.813063E-18
5.460000E+03	1.038239E-17	2.813829E-18
5.470000E+03	1.038460E-17	2.814016E-18
5.480000E+03	1.038460E-17	2.813603E-18
5.490000E+03	1.038253E-17	2.812625E-18
5.500000E+03	1.037820E-17	2.811033E-18
5.510000E+03	1.037154E-17	2.808810E-18
5.520000E+03	1.036261E-17	2.805966E-18
5.530000E+03	1.035123E-17	2.802458E-18
5.540000E+03	1.033755E-17	2.798328E-18
5.550000E+03	1.032133E-17	2.793505E-18
5.560000E+03	1.030282E-17	2.788063E-18
5.570000E+03	1.028198E-17	2.781988E-18
5.580000E+03	1.025877E-17	2.775271E-18
5.590000E+03	1.023325E-17	2.767929E-18
5.600000E+03	1.020549E-17	2.759981E-18
5.610000E+03	1.017545E-17	2.751416E-18
5.620000E+03	1.014341E-17	2.742311E-18
5.630000E+03	1.010924E-17	2.732627E-18
5.640000E+03	1.007320E-17	2.722441E-18
5.650000E+03	1.003517E-17	2.711715E-18
5.660000E+03	9.995416E-18	2.700525E-18
5.670000E+03	9.954013E-18	2.688890E-18
5.680000E+03	9.910926E-18	2.676801E-18
5.690000E+03	9.866329E-18	2.664306E-18
5.700000E+03	9.820294E-18	2.651423E-18
5.710000E+03	9.772993E-18	2.638200E-18
5.720000E+03	9.724498E-18	2.624656E-18
5.730000E+03	9.674775E-18	2.610783E-18
5.740000E+03	9.624105E-18	2.596655E-18
5.750000E+03	9.572557E-18	2.582293E-18
5.760000E+03	9.520103E-18	2.567689E-18
5.770000E+03	9.466920E-18	2.552890E-18
5.780000E+03	9.413184E-18	2.537944E-18
5.790000E+03	9.358970E-18	2.522872E-18
5.800000E+03	9.304254E-18	2.507667E-18
5.810000E+03	9.249216E-18	2.492378E-18
5.820000E+03	9.194036E-18	2.477053E-18
5.830000E+03	9.138791E-18	2.461714E-18
5.840000E+03	9.083464E-18	2.446355E-18
5.850000E+03	9.028234E-18	2.431025E-18
5.860000E+03	8.973183E-18	2.415746E-18
5.870000E+03	8.918488E-18	2.400565E-18
5.880000E+03	8.864230E-18	2.385505E-18
5.890000E+03	8.810392E-18	2.370561E-18
5.900000E+03	8.757146E-18	2.355779E-18
5.910000E+03	8.704474E-18	2.341154E-18
5.920000E+03	8.652740E-18	2.326784E-18
5.930000E+03	8.601725E-18	2.312611E-18
5.940000E+03	8.551597E-18	2.298678E-18
5.950000E+03	8.502517E-18	2.285030E-18
5.960000E+03	8.454453E-18	2.271657E-18
5.970000E+03	8.407463E-18	2.258575E-18
5.980000E+03	8.361702E-18	2.245826E-18
5.990000E+03	8.317127E-18	2.233397E-18
6.000000E+03	8.273881E-18	2.221328E-18
6.010000E+03	8.231821E-18	2.209579E-18
6.020000E+03	8.191180E-18	2.198213E-18
6.030000E+03	8.151806E-18	2.187188E-18
6.040000E+03	8.113923E-18	2.176566E-18
6.050000E+03	8.077279E-18	2.166277E-18
6.060000E+03	8.042094E-18	2.156381E-18
6.070000E+03	8.008296E-18	2.146859E-18
6.080000E+03	7.975909E-18	2.137716E-18
6.090000E+03	7.944760E-18	2.128905E-18
6.100000E+03	7.915056E-18	2.120483E-18
6.110000E+03	7.886525E-18	2.112376E-18
6.120000E+03	7.859366E-18	2.104637E-18
6.130000E+03	7.833299E-18	2.097191E-18
6.140000E+03	7.808330E-18	2.090039E-18
6.150000E+03	7.784362E-18	2.083156E-18
6.160000E+03	7.761392E-18	2.076540E-18
6.170000E+03	7.739127E-18	2.070113E-18
6.180000E+03	7.717556E-18	2.063871E-18
6.190000E+03	7.696568E-18	2.057785E-18
6.200000E+03	7.676146E-18	2.051851E-18
6.210000E+03	7.656271E-18	2.046063E-18
6.220000E+03	7.637114E-18	2.040466E-18
6.230000E+03	7.618950E-18	2.035135E-18
6.240000E+03	7.601855E-18	2.030089E-18
6.250000E+03	7.586003E-18	2.025374E-18
6.260000E+03	7.571572E-18	2.021038E-18
6.270000E+03	7.558644E-18	2.017102E-18
6.280000E+03	7.547399E-18	2.013614E-18
6.290000E+03	7.537924E-18	2.010598E-18
6.300000E+03	7.530304E-18	2.008074E-18
6.310000E+03	7.524730E-18	2.006095E-18
6.320000E+03	7.521194E-18	2.004657E-18
6.330000E+03	7.519894E-18	2.003813E-18
6.340000E+03	7.520722E-18	2.003533E-18
6.350000E+03	7.523776E-18	2.003843E-18
6.360000E+03	7.529053E-18	2.004742E-18
6.370000E+03	7.536661E-18	2.006259E-18
6.380000E+03	7.546496E-18	2.008364E-18
6.390000E+03	7.558555E-18	2.011058E-18
6.400000E+03	7.572734E-18	2.014311E-18
6.410000E+03	7.588812E-18	2.018064E-18
6.420000E+03	7.606675E-18	2.022287E-18
6.430000E+03	7.626318E-18	2.026978E-18
6.440000E+03	7.647734E-18	2.032135E-18
6.450000E+03	7.670917E-18	2.037756E-18
6.460000E+03	7.695979E-18	2.043869E-18
6.470000E+03	7.723036E-18	2.050506E-18
6.480000E+03	7.752091E-18	2.057667E-18
6.490000E+03	7.783029E-18	2.065321E-18
6.500000E+03	7.816090E-18	2.073531E-18
6.510000E+03	7.851285E-18	2.082299E-18
6.520000E+03	7.888503E-18	2.091596E-18
6.530000E+03	7.927875E-18	2.101456E-18
6.540000E+03	7.969413E-18	2.111882E-18
6.550000E+03	8.013005E-18	2.122842E-18
6.560000E+03	8.058663E-18	2.134341E-18
6.570000E+03	8.106656E-18	2.146448E-18
6.580000E+03	8.156613E-18	2.159065E-18
6.590000E+03	8.208808E-18	2.172264E-18
6.600000E+03	8.263261E-18	2.186050E-18
6.610000E+03	8.319720E-18	2.200355E-18
6.620000E+03	8.378470E-18	2.215255E-18
6.630000E+03	8.439258E-18	2.230681E-18
6.640000E+03	8.502376E-18	2.246711E-18
6.650000E+03	8.567566E-18	2.263276E-18
6.660000E+03	8.634984E-18	2.280416E-18
6.670000E+03	8.704651E-18	2.298136E-18
6.680000E+03	8.776443E-18	2.316404E-18
6.690000E+03	8.850373E-18	2.335221E-18
6.700000E+03	8.926616E-18	2.354634E-18
6.710000E+03	9.005038E-18	2.374607E-18
6.720000E+03	9.085659E-18	2.395143E-18
6.730000E+03	9.168501E-18	2.416249E-18
6.740000E+03	9.253581E-18	2.437928E-18
6.750000E+03	9.340925E-18	2.460187E-18
6.760000E+03	9.430552E-18	2.483030E-18
6.770000E+03	9.522317E-18	2.506418E-18
6.780000E+03	9.616410E-18	2.530400E-18
6.790000E+03	9.712851E-18	2.554982E-18
6.800000E+03	9.811494E-18	2.580123E-18
6.810000E+03	9.912533E-18	2.605875E-18
6.820000E+03	1.001581E-17	2.632196E-18
6.830000E+03	1.012136E-17	2.659092E-18
6.840000E+03	1.022918E-17	2.686565E-18
6.850000E+03	1.033930E-17	2.714621E-18
6.860000E+03	1.045194E-17	2.743315E-18
6.870000E+03	1.056673E-17	2.772551E-18
6.880000E+03	1.068389E-17	2.802385E-18
6.890000E+03	1.080343E-17	2.832820E-18
6.900000E+03	1.092517E-17	2.863809E-18
6.910000E+03	1.104933E-17	2.895408E-18
6.920000E+03	1.117593E-17	2.927623E-18
6.930000E+03	1.130479E-17	2.960401E-18
6.940000E+03	1.143591E-17	2.993747E-18
6.950000E+03	1.156952E-17	3.027719E-18
6.960000E+03	1.170543E-17	3.062264E-18
6.970000E+03	1.184364E-17	3.097385E-18
6.980000E+03	1.198417E-17	3.133083E-18
6.990000E+03	1.212702E-17	3.169360E-18
7.000000E+03	1.227196E-17	3.206156E-18
7.010000E+03	1.241949E-17	3.243596E-18
7.020000E+03	1.256912E-17	3.281557E-18
7.030000E+03	1.272110E-17	3.320101E-18
7.040000E+03	1.287520E-17	3.359164E-18
7.050000E+03	1.303139E-17	3.398744E-18
7.060000E+03	1.318994E-17	3.438906E-18
7.070000E+03	1.335059E-17	3.479583E-18
7.080000E+03	1.351305E-17	3.520700E-18
7.090000E+03	1.367786E-17	3.562395E-18
7.100000E+03	1.384473E-17	3.604594E-18
7.110000E+03	1.401338E-17	3.647221E-18
7.120000E+03	1.418407E-17	3.690342E-18
7.130000E+03	1.435647E-17	3.733878E-18
7.140000E+03	1.453088E-17	3.777897E-18
7.150000E+03	1.470696E-17	3.822316E-18
7.160000E+03	1.488500E-17	3.867204E-18
7.170000E+03	1.506434E-17	3.912396E-18
7.180000E+03	1.524525E-17	3.957959E-18
7.190000E+03	1.542802E-17	4.003967E-18
7.200000E+03	1.561196E-17	4.050241E-18
7.210000E+03	1.579703E-17	4.096768E-18
7.220000E+03	1.598349E-17	4.143619E-18
7.230000E+03	1.617130E-17	4.190780E-18
7.240000E+03	1.636008E-17	4.238152E-18
7.250000E+03	1.655009E-17	4.285804E-18
7.260000E+03	1.674091E-17	4.333627E-18
7.270000E+03	1.693251E-17	4.381610E-18
7.280000E+03	1.712514E-17	4.429822E-18
7.290000E+03	1.731839E-17	4.478152E-18
7.300000E+03	1.751256E-17	4.526682E-18
7.310000E+03	1.770719E-17	4.575287E-18
7.320000E+03	1.790219E-17	4.623948E-18
7.330000E+03	1.809830E-17	4.672854E-18
7.340000E+03	1.829463E-17	4.721777E-18
7.350000E+03	1.849194E-17	4.770911E-18
7.360000E+03	1.868974E-17	4.820129E-18
7.370000E+03	1.888842E-17	4.869532E-18
7.380000E+03	1.908831E-17	4.919206E-18
7.390000E+03	1.928898E-17	4.969041E-18
7.400000E+03	1.949126E-17	5.019247E-18
7.410000E+03	1.969514E-17	5.069820E-18
7.420000E+03	1.990108E-17	5.120882E-18
7.430000E+03	2.010909E-17	5.172436E-18
7.440000E+03	2.031919E-17	5.224481E-18
7.450000E+03	2.053190E-17	5.277154E-18
7.460000E+03	2.074627E-17	5.330210E-18
7.470000E+03	2.096233E-17	5.383654E-18
7.480000E+03	2.117961E-17	5.437366E-18
7.490000E+03	2.139859E-17	5.491469E-18
7.500000E+03	2.161877E-17	5.545836E-18
7.510000E+03	2.183965E-17	5.600338E-18
7.520000E+03	2.206121E-17	5.654966E-18
7.530000E+03	2.228344E-17	5.709720E-18
7.540000E+03	2.250574E-17	5.764448E-18
7.550000E+03	2.272866E-17	5.819290E-18
7.560000E+03	2.295105E-17	5.873948E-18
7.570000E+03	2.317397E-17	5.928698E-18
7.580000E+03	2.339683E-17	5.983385E-18
7.590000E+03	2.361954E-17	6.037991E-18
7.600000E+03	2.384150E-17	6.092359E-18
7.610000E+03	2.406316E-17	6.146607E-18
7.620000E+03	2.428448E-17	6.200723E-18
7.630000E+03	2.450533E-17	6.254675E-18
7.640000E+03	2.472504E-17	6.308292E-18
7.650000E+03	2.494409E-17	6.361696E-18
7.660000E+03	2.516170E-17	6.414690E-18
7.670000E+03	2.537900E-17	6.467564E-18
7.680000E+03	2.559393E-17	6.519790E-18
7.690000E+03	2.580827E-17	6.571822E-18
7.700000E+03	2.602117E-17	6.623450E-18
7.710000E+03	2.623182E-17	6.674462E-18
7.720000E+03	2.644067E-17	6.724975E-18
7.730000E+03	2.664750E-17	6.774937E-18
7.740000E+03	2.685213E-17	6.824299E-18
7.750000E+03	2.705433E-17	6.873004E-18
7.760000E+03	2.725458E-17	6.921177E-18
