#wls	flux	fluxerr
1.600000E+03	1.217889E-16	4.452409E-18
1.640000E+03	1.258677E-16	4.601415E-18
1.680000E+03	1.298280E-16	4.746078E-18
1.720000E+03	1.336112E-16	4.884253E-18
1.760000E+03	1.372058E-16	5.015530E-18
1.800000E+03	1.405463E-16	5.137507E-18
1.840000E+03	1.435893E-16	5.248600E-18
1.880000E+03	1.463133E-16	5.348020E-18
1.920000E+03	1.486457E-16	5.433124E-18
1.960000E+03	1.505502E-16	5.502577E-18
2.000000E+03	1.519671E-16	5.554203E-18
2.040000E+03	1.528622E-16	5.586755E-18
2.080000E+03	1.531619E-16	5.597536E-18
2.120000E+03	1.528132E-16	5.584622E-18
2.160000E+03	1.517652E-16	5.546148E-18
2.200000E+03	1.499380E-16	5.479199E-18
2.240000E+03	1.472712E-16	5.381569E-18
2.280000E+03	1.437671E-16	5.253350E-18
2.320000E+03	1.394808E-16	5.096552E-18
2.360000E+03	1.345552E-16	4.916403E-18
2.400000E+03	1.291090E-16	4.717244E-18
2.440000E+03	1.232468E-16	4.502899E-18
2.480000E+03	1.170768E-16	4.277318E-18
2.520000E+03	1.106679E-16	4.043027E-18
2.560000E+03	1.040982E-16	3.802872E-18
2.600000E+03	9.743397E-17	3.559283E-18
2.640000E+03	9.074428E-17	3.314779E-18
2.680000E+03	8.408561E-17	3.071426E-18
2.720000E+03	7.751447E-17	2.831287E-18
2.760000E+03	7.108342E-17	2.596283E-18
2.800000E+03	6.484087E-17	2.368181E-18
2.840000E+03	5.883235E-17	2.148643E-18
2.880000E+03	5.310144E-17	1.939261E-18
2.920000E+03	4.768631E-17	1.741427E-18
2.960000E+03	4.261937E-17	1.556323E-18
3.000000E+03	3.792363E-17	1.384790E-18
3.010000E+03	3.681040E-17	1.344126E-18
3.020000E+03	3.572045E-17	1.304312E-18
3.030000E+03	3.465529E-17	1.265404E-18
3.040000E+03	3.361397E-17	1.227368E-18
3.050000E+03	3.259708E-17	1.190225E-18
3.060000E+03	3.160505E-17	1.153990E-18
3.070000E+03	3.063631E-17	1.118606E-18
3.080000E+03	2.969257E-17	1.084136E-18
3.090000E+03	2.877229E-17	1.050523E-18
3.100000E+03	2.787641E-17	1.017801E-18
3.110000E+03	2.700405E-17	9.859392E-19
3.120000E+03	2.615499E-17	9.549288E-19
3.130000E+03	2.533003E-17	9.247989E-19
3.140000E+03	2.452791E-17	8.955035E-19
3.150000E+03	2.374985E-17	8.670869E-19
3.160000E+03	2.299422E-17	8.394899E-19
3.170000E+03	2.226209E-17	8.127517E-19
3.180000E+03	2.155239E-17	7.868326E-19
3.190000E+03	2.086561E-17	7.617512E-19
3.200000E+03	2.020109E-17	7.374829E-19
3.210000E+03	1.955888E-17	7.140295E-19
3.220000E+03	1.893865E-17	6.913789E-19
3.230000E+03	1.834004E-17	6.695184E-19
3.240000E+03	1.776246E-17	6.484258E-19
3.250000E+03	1.720613E-17	6.281094E-19
3.260000E+03	1.667038E-17	6.085449E-19
3.270000E+03	1.615508E-17	5.897274E-19
3.280000E+03	1.565955E-17	5.716318E-19
3.290000E+03	1.518337E-17	5.542430E-19
3.300000E+03	1.472630E-17	5.375523E-19
3.310000E+03	1.428765E-17	5.215344E-19
3.320000E+03	1.386715E-17	5.061790E-19
3.330000E+03	1.346427E-17	4.914676E-19
3.340000E+03	1.307815E-17	4.773678E-19
3.350000E+03	1.270865E-17	4.638753E-19
3.360000E+03	1.235511E-17	4.509656E-19
3.370000E+03	1.201701E-17	4.386198E-19
3.380000E+03	1.169389E-17	4.268209E-19
3.390000E+03	1.138494E-17	4.155393E-19
3.400000E+03	1.108999E-17	4.047693E-19
3.410000E+03	1.080846E-17	3.944893E-19
3.420000E+03	1.053974E-17	3.846768E-19
3.430000E+03	1.028341E-17	3.753168E-19
3.440000E+03	1.003903E-17	3.663935E-19
3.450000E+03	9.805980E-18	3.578835E-19
3.460000E+03	9.583973E-18	3.497769E-19
3.470000E+03	9.372430E-18	3.420524E-19
3.480000E+03	9.170987E-18	3.346966E-19
3.490000E+03	8.979224E-18	3.276943E-19
3.500000E+03	8.796727E-18	3.210304E-19
3.510000E+03	8.623110E-18	3.146906E-19
3.520000E+03	8.458007E-18	3.086617E-19
3.530000E+03	8.300983E-18	3.029277E-19
3.540000E+03	8.151634E-18	2.974740E-19
3.550000E+03	8.009664E-18	2.922897E-19
3.560000E+03	7.874714E-18	2.873616E-19
3.570000E+03	7.746525E-18	2.826805E-19
3.580000E+03	7.624695E-18	2.782314E-19
3.590000E+03	7.509001E-18	2.740064E-19
3.600000E+03	7.399156E-18	2.699949E-19
3.610000E+03	7.295035E-18	2.661923E-19
3.620000E+03	7.196301E-18	2.625864E-19
3.630000E+03	7.102777E-18	2.591708E-19
3.640000E+03	7.014094E-18	2.559318E-19
3.650000E+03	6.930101E-18	2.528641E-19
3.660000E+03	6.850592E-18	2.499600E-19
3.670000E+03	6.775369E-18	2.472123E-19
3.680000E+03	6.704307E-18	2.446166E-19
3.690000E+03	6.637282E-18	2.421682E-19
3.700000E+03	6.574114E-18	2.398606E-19
3.710000E+03	6.514749E-18	2.376918E-19
3.720000E+03	6.459011E-18	2.356554E-19
3.730000E+03	6.406905E-18	2.337516E-19
3.740000E+03	6.358316E-18	2.319761E-19
3.750000E+03	6.313130E-18	2.303248E-19
3.760000E+03	6.271292E-18	2.287957E-19
3.770000E+03	6.232797E-18	2.273886E-19
3.780000E+03	6.197534E-18	2.260994E-19
3.790000E+03	6.165499E-18	2.249281E-19
3.800000E+03	6.136582E-18	2.238705E-19
3.810000E+03	6.110730E-18	2.229248E-19
3.820000E+03	6.087939E-18	2.220908E-19
3.830000E+03	6.068209E-18	2.213684E-19
3.840000E+03	6.051435E-18	2.207539E-19
3.850000E+03	6.037667E-18	2.202491E-19
3.860000E+03	6.026755E-18	2.198484E-19
3.870000E+03	6.018796E-18	2.195556E-19
3.880000E+03	6.013642E-18	2.193650E-19
3.890000E+03	6.011388E-18	2.192803E-19
3.900000E+03	6.011934E-18	2.192976E-19
3.910000E+03	6.015277E-18	2.194171E-19
3.920000E+03	6.021364E-18	2.196365E-19
3.930000E+03	6.030189E-18	2.199559E-19
3.940000E+03	6.041701E-18	2.203733E-19
3.950000E+03	6.055942E-18	2.208903E-19
3.960000E+03	6.072810E-18	2.215030E-19
3.970000E+03	6.092299E-18	2.222113E-19
3.980000E+03	6.114355E-18	2.230133E-19
3.990000E+03	6.139021E-18	2.239104E-19
4.000000E+03	6.166243E-18	2.249007E-19
4.010000E+03	6.195965E-18	2.259822E-19
4.020000E+03	6.228135E-18	2.271530E-19
4.030000E+03	6.262795E-18	2.284146E-19
4.040000E+03	6.299845E-18	2.297633E-19
4.050000E+03	6.339329E-18	2.312008E-19
4.060000E+03	6.381149E-18	2.327234E-19
4.070000E+03	6.425304E-18	2.343312E-19
4.080000E+03	6.471797E-18	2.360242E-19
4.090000E+03	6.520578E-18	2.378007E-19
4.100000E+03	6.571604E-18	2.396589E-19
4.110000E+03	6.624827E-18	2.415973E-19
4.120000E+03	6.680305E-18	2.436179E-19
4.130000E+03	6.737944E-18	2.457172E-19
4.140000E+03	6.797750E-18	2.478956E-19
4.150000E+03	6.859626E-18	2.501494E-19
4.160000E+03	6.923579E-18	2.524789E-19
4.170000E+03	6.989623E-18	2.548846E-19
4.180000E+03	7.057657E-18	2.573629E-19
4.190000E+03	7.127693E-18	2.599141E-19
4.200000E+03	7.199632E-18	2.625346E-19
4.210000E+03	7.273486E-18	2.652250E-19
4.220000E+03	7.349152E-18	2.679814E-19
4.230000E+03	7.426647E-18	2.708044E-19
4.240000E+03	7.505864E-18	2.736903E-19
4.250000E+03	7.586757E-18	2.766371E-19
4.260000E+03	7.669219E-18	2.796412E-19
4.270000E+03	7.753258E-18	2.827027E-19
4.280000E+03	7.838762E-18	2.858176E-19
4.290000E+03	7.925674E-18	2.889837E-19
4.300000E+03	8.013873E-18	2.921968E-19
4.310000E+03	8.103228E-18	2.954520E-19
4.320000E+03	8.193670E-18	2.987467E-19
4.330000E+03	8.285122E-18	3.020783E-19
4.340000E+03	8.377438E-18	3.054413E-19
4.350000E+03	8.470528E-18	3.088324E-19
4.360000E+03	8.564231E-18	3.122459E-19
4.370000E+03	8.658515E-18	3.156806E-19
4.380000E+03	8.753279E-18	3.191327E-19
4.390000E+03	8.848630E-18	3.226062E-19
4.400000E+03	8.944462E-18	3.260971E-19
4.410000E+03	9.040818E-18	3.296072E-19
4.420000E+03	9.137667E-18	3.331352E-19
4.430000E+03	9.235132E-18	3.366856E-19
4.440000E+03	9.333119E-18	3.402550E-19
4.450000E+03	9.431602E-18	3.438424E-19
4.460000E+03	9.530642E-18	3.474502E-19
4.470000E+03	9.630231E-18	3.510779E-19
4.480000E+03	9.730358E-18	3.547252E-19
4.490000E+03	9.830932E-18	3.583888E-19
4.500000E+03	9.932026E-18	3.620713E-19
4.510000E+03	1.003356E-17	3.657698E-19
4.520000E+03	1.013552E-17	3.694837E-19
4.530000E+03	1.023789E-17	3.732130E-19
4.540000E+03	1.034052E-17	3.769513E-19
4.550000E+03	1.044347E-17	3.807015E-19
4.560000E+03	1.054669E-17	3.844612E-19
4.570000E+03	1.065015E-17	3.882300E-19
4.580000E+03	1.075369E-17	3.920015E-19
4.590000E+03	1.085743E-17	3.957801E-19
4.600000E+03	1.096118E-17	3.995594E-19
4.610000E+03	1.106508E-17	4.033437E-19
4.620000E+03	1.116895E-17	4.071274E-19
4.630000E+03	1.127285E-17	4.109118E-19
4.640000E+03	1.137671E-17	4.146948E-19
4.650000E+03	1.148068E-17	4.184822E-19
4.660000E+03	1.158464E-17	4.222685E-19
4.670000E+03	1.168875E-17	4.260607E-19
4.680000E+03	1.179298E-17	4.298572E-19
4.690000E+03	1.189731E-17	4.336575E-19
4.700000E+03	1.200194E-17	4.374686E-19
4.710000E+03	1.210677E-17	4.412868E-19
4.720000E+03	1.221189E-17	4.451155E-19
4.730000E+03	1.231720E-17	4.489513E-19
4.740000E+03	1.242281E-17	4.527979E-19
4.750000E+03	1.252851E-17	4.566480E-19
4.760000E+03	1.263442E-17	4.605058E-19
4.770000E+03	1.274045E-17	4.643676E-19
4.780000E+03	1.284674E-17	4.682390E-19
4.790000E+03	1.295316E-17	4.721151E-19
4.800000E+03	1.305975E-17	4.759973E-19
4.810000E+03	1.316649E-17	4.798853E-19
4.820000E+03	1.327342E-17	4.837800E-19
4.830000E+03	1.338054E-17	4.876815E-19
4.840000E+03	1.348772E-17	4.915854E-19
4.850000E+03	1.359511E-17	4.954967E-19
4.860000E+03	1.370271E-17	4.994158E-19
4.870000E+03	1.381042E-17	5.033386E-19
4.880000E+03	1.391823E-17	5.072652E-19
4.890000E+03	1.402627E-17	5.112006E-19
4.900000E+03	1.413432E-17	5.151356E-19
4.910000E+03	1.424263E-17	5.190805E-19
4.920000E+03	1.435108E-17	5.230304E-19
4.930000E+03	1.445951E-17	5.269797E-19
4.940000E+03	1.456806E-17	5.309333E-19
4.950000E+03	1.467672E-17	5.348907E-19
4.960000E+03	1.478530E-17	5.388454E-19
4.970000E+03	1.489391E-17	5.428011E-19
4.980000E+03	1.500221E-17	5.467453E-19
4.990000E+03	1.511043E-17	5.506868E-19
5.000000E+03	1.521835E-17	5.546175E-19
5.010000E+03	1.532574E-17	5.585285E-19
5.020000E+03	1.543265E-17	5.624223E-19
5.030000E+03	1.553883E-17	5.662891E-19
5.040000E+03	1.564414E-17	5.701247E-19
5.050000E+03	1.574847E-17	5.739240E-19
5.060000E+03	1.585167E-17	5.776825E-19
5.070000E+03	1.595341E-17	5.813878E-19
5.080000E+03	1.605369E-17	5.850396E-19
5.090000E+03	1.615218E-17	5.886261E-19
5.100000E+03	1.624868E-17	5.921402E-19
5.110000E+03	1.634283E-17	5.955690E-19
5.120000E+03	1.643462E-17	5.989112E-19
5.130000E+03	1.652350E-17	6.021478E-19
5.140000E+03	1.660963E-17	6.052839E-19
5.150000E+03	1.669249E-17	6.083008E-19
5.160000E+03	1.677204E-17	6.111973E-19
5.170000E+03	1.684796E-17	6.139615E-19
5.180000E+03	1.691987E-17	6.165794E-19
5.190000E+03	1.698778E-17	6.190515E-19
5.200000E+03	1.705130E-17	6.213639E-19
5.210000E+03	1.711027E-17	6.235101E-19
5.220000E+03	1.716447E-17	6.254827E-19
5.230000E+03	1.721354E-17	6.272685E-19
5.240000E+03	1.725727E-17	6.288593E-19
5.250000E+03	1.729528E-17	6.302421E-19
5.260000E+03	1.732753E-17	6.314146E-19
5.270000E+03	1.735361E-17	6.323625E-19
5.280000E+03	1.737330E-17	6.330775E-19
5.290000E+03	1.738639E-17	6.335520E-19
5.300000E+03	1.739247E-17	6.337709E-19
5.310000E+03	1.739131E-17	6.337262E-19
5.320000E+03	1.738271E-17	6.334104E-19
5.330000E+03	1.736647E-17	6.328161E-19
5.340000E+03	1.734224E-17	6.319308E-19
5.350000E+03	1.731002E-17	6.307545E-19
5.360000E+03	1.726970E-17	6.292827E-19
5.370000E+03	1.722119E-17	6.275124E-19
5.380000E+03	1.716425E-17	6.254352E-19
5.390000E+03	1.709924E-17	6.230643E-19
5.400000E+03	1.702606E-17	6.203953E-19
5.410000E+03	1.694517E-17	6.174453E-19
5.420000E+03	1.685659E-17	6.142155E-19
5.430000E+03	1.676076E-17	6.107211E-19
5.440000E+03	1.665799E-17	6.069742E-19
5.450000E+03	1.654904E-17	6.030020E-19
5.460000E+03	1.643418E-17	5.988145E-19
5.470000E+03	1.631379E-17	5.944257E-19
5.480000E+03	1.618815E-17	5.898454E-19
5.490000E+03	1.605791E-17	5.850976E-19
5.500000E+03	1.592345E-17	5.801961E-19
5.510000E+03	1.578537E-17	5.751631E-19
5.520000E+03	1.564434E-17	5.700221E-19
5.530000E+03	1.550099E-17	5.647968E-19
5.540000E+03	1.535602E-17	5.595127E-19
5.550000E+03	1.521028E-17	5.542002E-19
5.560000E+03	1.506446E-17	5.488853E-19
5.570000E+03	1.491955E-17	5.436032E-19
5.580000E+03	1.477607E-17	5.383734E-19
5.590000E+03	1.463511E-17	5.332352E-19
5.600000E+03	1.449709E-17	5.282046E-19
5.610000E+03	1.436289E-17	5.233129E-19
5.620000E+03	1.423327E-17	5.185883E-19
5.630000E+03	1.410850E-17	5.140404E-19
5.640000E+03	1.398951E-17	5.097030E-19
5.650000E+03	1.387658E-17	5.055866E-19
5.660000E+03	1.376992E-17	5.016986E-19
5.670000E+03	1.367023E-17	4.980645E-19
5.680000E+03	1.357742E-17	4.946811E-19
5.690000E+03	1.349180E-17	4.915597E-19
5.700000E+03	1.341359E-17	4.887083E-19
5.710000E+03	1.334282E-17	4.861284E-19
5.720000E+03	1.327951E-17	4.838198E-19
5.730000E+03	1.322362E-17	4.817817E-19
5.740000E+03	1.317523E-17	4.800170E-19
5.750000E+03	1.313442E-17	4.785281E-19
5.760000E+03	1.310085E-17	4.773032E-19
5.770000E+03	1.307487E-17	4.763551E-19
5.780000E+03	1.305618E-17	4.756723E-19
5.790000E+03	1.304504E-17	4.752647E-19
5.800000E+03	1.304132E-17	4.751274E-19
5.810000E+03	1.304518E-17	4.752659E-19
5.820000E+03	1.305666E-17	4.756823E-19
5.830000E+03	1.307596E-17	4.763836E-19
5.840000E+03	1.310298E-17	4.773665E-19
5.850000E+03	1.313780E-17	4.786333E-19
5.860000E+03	1.318064E-17	4.801921E-19
5.870000E+03	1.323168E-17	4.820498E-19
5.880000E+03	1.329071E-17	4.841985E-19
5.890000E+03	1.335807E-17	4.866507E-19
5.900000E+03	1.343369E-17	4.894037E-19
5.910000E+03	1.351774E-17	4.924637E-19
5.920000E+03	1.361027E-17	4.958330E-19
5.930000E+03	1.371117E-17	4.995069E-19
5.940000E+03	1.382058E-17	5.034907E-19
5.950000E+03	1.393849E-17	5.077845E-19
5.960000E+03	1.406472E-17	5.123811E-19
5.970000E+03	1.419953E-17	5.172901E-19
5.980000E+03	1.434251E-17	5.224969E-19
5.990000E+03	1.449370E-17	5.280028E-19
6.000000E+03	1.465299E-17	5.338038E-19
6.010000E+03	1.482002E-17	5.398867E-19
6.020000E+03	1.499477E-17	5.462508E-19
6.030000E+03	1.517665E-17	5.528744E-19
6.040000E+03	1.536573E-17	5.597603E-19
6.050000E+03	1.556133E-17	5.668838E-19
6.060000E+03	1.576329E-17	5.742387E-19
6.070000E+03	1.597099E-17	5.818030E-19
6.080000E+03	1.618402E-17	5.895610E-19
6.090000E+03	1.640166E-17	5.974871E-19
6.100000E+03	1.662316E-17	6.055539E-19
6.110000E+03	1.684814E-17	6.137474E-19
6.120000E+03	1.707536E-17	6.220220E-19
6.130000E+03	1.730430E-17	6.303596E-19
6.140000E+03	1.753383E-17	6.387185E-19
6.150000E+03	1.776318E-17	6.470710E-19
6.160000E+03	1.799071E-17	6.553571E-19
6.170000E+03	1.821585E-17	6.635560E-19
6.180000E+03	1.843715E-17	6.716147E-19
6.190000E+03	1.865368E-17	6.794999E-19
6.200000E+03	1.886433E-17	6.871709E-19
6.210000E+03	1.906904E-17	6.946253E-19
6.220000E+03	1.926813E-17	7.018750E-19
6.230000E+03	1.946202E-17	7.089355E-19
6.240000E+03	1.965131E-17	7.158282E-19
6.250000E+03	1.983588E-17	7.225487E-19
6.260000E+03	2.001696E-17	7.291423E-19
6.270000E+03	2.019429E-17	7.355992E-19
6.280000E+03	2.036869E-17	7.419495E-19
6.290000E+03	2.054077E-17	7.482152E-19
6.300000E+03	2.071035E-17	7.543896E-19
6.310000E+03	2.087807E-17	7.604963E-19
6.320000E+03	2.104430E-17	7.665489E-19
6.330000E+03	2.120948E-17	7.725630E-19
6.340000E+03	2.137342E-17	7.785321E-19
6.350000E+03	2.153654E-17	7.844714E-19
6.360000E+03	2.169900E-17	7.903863E-19
6.370000E+03	2.186093E-17	7.962820E-19
6.380000E+03	2.202215E-17	8.021520E-19
6.390000E+03	2.218251E-17	8.079902E-19
6.400000E+03	2.234179E-17	8.137895E-19
6.410000E+03	2.250012E-17	8.195540E-19
6.420000E+03	2.265730E-17	8.252765E-19
6.430000E+03	2.281243E-17	8.309246E-19
6.440000E+03	2.296659E-17	8.365372E-19
6.450000E+03	2.311988E-17	8.421180E-19
6.460000E+03	2.327276E-17	8.476840E-19
6.470000E+03	2.342602E-17	8.532638E-19
6.480000E+03	2.357946E-17	8.588501E-19
6.490000E+03	2.373392E-17	8.644734E-19
6.500000E+03	2.388952E-17	8.701385E-19
6.510000E+03	2.404677E-17	8.758637E-19
6.520000E+03	2.420509E-17	8.816274E-19
6.530000E+03	2.436569E-17	8.874747E-19
6.540000E+03	2.452797E-17	8.933826E-19
6.550000E+03	2.469242E-17	8.993701E-19
6.560000E+03	2.485918E-17	9.054415E-19
6.570000E+03	2.502796E-17	9.115864E-19
6.580000E+03	2.519927E-17	9.178233E-19
6.590000E+03	2.537322E-17	9.241564E-19
6.600000E+03	2.554953E-17	9.305758E-19
6.610000E+03	2.572829E-17	9.370842E-19
6.620000E+03	2.590961E-17	9.436857E-19
6.630000E+03	2.609400E-17	9.503993E-19
6.640000E+03	2.628070E-17	9.571968E-19
6.650000E+03	2.647023E-17	9.640972E-19
6.660000E+03	2.666264E-17	9.711029E-19
6.670000E+03	2.685756E-17	9.782000E-19
6.680000E+03	2.705548E-17	9.854061E-19
6.690000E+03	2.725600E-17	9.927069E-19
6.700000E+03	2.745961E-17	1.000120E-18
6.710000E+03	2.766540E-17	1.007613E-18
6.720000E+03	2.787386E-17	1.015203E-18
6.730000E+03	2.808553E-17	1.022910E-18
6.740000E+03	2.829945E-17	1.030699E-18
6.750000E+03	2.851614E-17	1.038589E-18
6.760000E+03	2.873515E-17	1.046563E-18
6.770000E+03	2.895701E-17	1.054641E-18
6.780000E+03	2.918125E-17	1.062806E-18
6.790000E+03	2.940792E-17	1.071059E-18
6.800000E+03	2.963759E-17	1.079422E-18
6.810000E+03	2.986924E-17	1.087857E-18
6.820000E+03	3.010398E-17	1.096404E-18
6.830000E+03	3.034079E-17	1.105027E-18
6.840000E+03	3.058078E-17	1.113765E-18
6.850000E+03	3.082286E-17	1.122580E-18
6.860000E+03	3.106702E-17	1.131470E-18
6.870000E+03	3.131382E-17	1.140457E-18
6.880000E+03	3.156323E-17	1.149539E-18
6.890000E+03	3.181402E-17	1.158670E-18
6.900000E+03	3.206730E-17	1.167893E-18
6.910000E+03	3.232239E-17	1.177181E-18
6.920000E+03	3.257978E-17	1.186554E-18
6.930000E+03	3.283811E-17	1.195961E-18
6.940000E+03	3.309788E-17	1.205420E-18
6.950000E+03	3.335894E-17	1.214926E-18
6.960000E+03	3.362047E-17	1.224449E-18
6.970000E+03	3.388294E-17	1.234007E-18
6.980000E+03	3.414621E-17	1.243594E-18
6.990000E+03	3.440943E-17	1.253178E-18
7.000000E+03	3.467243E-17	1.262755E-18
7.010000E+03	3.493504E-17	1.272318E-18
7.020000E+03	3.519777E-17	1.281886E-18
7.030000E+03	3.545913E-17	1.291403E-18
7.040000E+03	3.572034E-17	1.300915E-18
7.050000E+03	3.597988E-17	1.310367E-18
7.060000E+03	3.623834E-17	1.319779E-18
7.070000E+03	3.649490E-17	1.329122E-18
7.080000E+03	3.675019E-17	1.338418E-18
7.090000E+03	3.700415E-17	1.347667E-18
7.100000E+03	3.725598E-17	1.356838E-18
7.110000E+03	3.750488E-17	1.365902E-18
7.120000E+03	3.775234E-17	1.374914E-18
7.130000E+03	3.799756E-17	1.383844E-18
7.140000E+03	3.824057E-17	1.392694E-18
7.150000E+03	3.848136E-17	1.401464E-18
7.160000E+03	3.871917E-17	1.410125E-18
7.170000E+03	3.895483E-17	1.418707E-18
7.180000E+03	3.918755E-17	1.427183E-18
7.190000E+03	3.941740E-17	1.435554E-18
7.200000E+03	3.964525E-17	1.443853E-18
7.210000E+03	3.987033E-17	1.452051E-18
7.220000E+03	4.009356E-17	1.460181E-18
7.230000E+03	4.031331E-17	1.468185E-18
7.240000E+03	4.053044E-17	1.476094E-18
7.250000E+03	4.074500E-17	1.483909E-18
7.260000E+03	4.095695E-17	1.491629E-18
7.270000E+03	4.116629E-17	1.499255E-18
7.280000E+03	4.137294E-17	1.506783E-18
7.290000E+03	4.157593E-17	1.514177E-18
7.300000E+03	4.177600E-17	1.521465E-18
7.310000E+03	4.197302E-17	1.528643E-18
7.320000E+03	4.216684E-17	1.535704E-18
7.330000E+03	4.235635E-17	1.542608E-18
7.340000E+03	4.254232E-17	1.549383E-18
7.350000E+03	4.272551E-17	1.556058E-18
7.360000E+03	4.290388E-17	1.562557E-18
7.370000E+03	4.307823E-17	1.568910E-18
7.380000E+03	4.324844E-17	1.575112E-18
7.390000E+03	4.341533E-17	1.581193E-18
7.400000E+03	4.357789E-17	1.587118E-18
7.410000E+03	4.373706E-17	1.592918E-18
7.420000E+03	4.389379E-17	1.598630E-18
7.430000E+03	4.404718E-17	1.604221E-18
7.440000E+03	4.419930E-17	1.609765E-18
7.450000E+03	4.434831E-17	1.615197E-18
7.460000E+03	4.449537E-17	1.620558E-18
7.470000E+03	4.463970E-17	1.625820E-18
7.480000E+03	4.478254E-17	1.631027E-18
7.490000E+03	4.492211E-17	1.636116E-18
7.500000E+03	4.505965E-17	1.641131E-18
7.510000E+03	4.519538E-17	1.646080E-18
7.520000E+03	4.532843E-17	1.650932E-18
7.530000E+03	4.546103E-17	1.655768E-18
7.540000E+03	4.559116E-17	1.660514E-18
7.550000E+03	4.571993E-17	1.665211E-18
7.560000E+03	4.584638E-17	1.669824E-18
7.570000E+03	4.597164E-17	1.674393E-18
7.580000E+03	4.609470E-17	1.678883E-18
7.590000E+03	4.621677E-17	1.683337E-18
7.600000E+03	4.633680E-17	1.687717E-18
7.610000E+03	4.645485E-17	1.692025E-18
7.620000E+03	4.657210E-17	1.696304E-18
7.630000E+03	4.668745E-17	1.700514E-18
7.640000E+03	4.680088E-17	1.704654E-18
7.650000E+03	4.691349E-17	1.708765E-18
7.660000E+03	4.702407E-17	1.712803E-18
7.670000E+03	4.713370E-17	1.716805E-18
7.680000E+03	4.723993E-17	1.720684E-18
7.690000E+03	4.734492E-17	1.724519E-18
7.700000E+03	4.744856E-17	1.728304E-18
7.710000E+03	4.754948E-17	1.731991E-18
7.720000E+03	4.764868E-17	1.735615E-18
7.730000E+03	4.774483E-17	1.739128E-18
7.740000E+03	4.783768E-17	1.742522E-18
7.750000E+03	4.792825E-17	1.745832E-18
7.760000E+03	4.801633E-17	1.749052E-18
