#wls	flux	fluxerr
1.600000E+03	1.296827E-16	6.573483E-17
1.640000E+03	1.341386E-16	6.798337E-17
1.680000E+03	1.385089E-16	7.018738E-17
1.720000E+03	1.427756E-16	7.233767E-17
1.760000E+03	1.468758E-16	7.440224E-17
1.800000E+03	1.507816E-16	7.636706E-17
1.840000E+03	1.544346E-16	7.820247E-17
1.880000E+03	1.577984E-16	7.989007E-17
1.920000E+03	1.608200E-16	8.140305E-17
1.960000E+03	1.634437E-16	8.271327E-17
2.000000E+03	1.655886E-16	8.377991E-17
2.040000E+03	1.672000E-16	8.457537E-17
2.080000E+03	1.682142E-16	8.506758E-17
2.120000E+03	1.685411E-16	8.521119E-17
2.160000E+03	1.681044E-16	8.496791E-17
2.200000E+03	1.668153E-16	8.429313E-17
2.240000E+03	1.646017E-16	8.315071E-17
2.280000E+03	1.614554E-16	8.153707E-17
2.320000E+03	1.574075E-16	7.946823E-17
2.360000E+03	1.525814E-16	7.700706E-17
2.400000E+03	1.470886E-16	7.421014E-17
2.440000E+03	1.410298E-16	7.112881E-17
2.480000E+03	1.345152E-16	6.781889E-17
2.520000E+03	1.276316E-16	6.432456E-17
2.560000E+03	1.204555E-16	6.068466E-17
2.600000E+03	1.130786E-16	5.694568E-17
2.640000E+03	1.055695E-16	5.314237E-17
2.680000E+03	9.800767E-17	4.931495E-17
2.720000E+03	9.045983E-17	4.549717E-17
2.760000E+03	8.300384E-17	4.172829E-17
2.800000E+03	7.570501E-17	3.804124E-17
2.840000E+03	6.863225E-17	3.447064E-17
2.880000E+03	6.185041E-17	3.104906E-17
2.920000E+03	5.541876E-17	2.780614E-17
2.960000E+03	4.938885E-17	2.476761E-17
3.000000E+03	4.380134E-17	2.195367E-17
3.010000E+03	4.247671E-17	2.128681E-17
3.020000E+03	4.118224E-17	2.063523E-17
3.030000E+03	3.991701E-17	1.999846E-17
3.040000E+03	3.868283E-17	1.937740E-17
3.050000E+03	3.747872E-17	1.877155E-17
3.060000E+03	3.630462E-17	1.818090E-17
3.070000E+03	3.516047E-17	1.760538E-17
3.080000E+03	3.404756E-17	1.704566E-17
3.090000E+03	3.296425E-17	1.650089E-17
3.100000E+03	3.191167E-17	1.597166E-17
3.110000E+03	3.088889E-17	1.545747E-17
3.120000E+03	2.989623E-17	1.495848E-17
3.130000E+03	2.893332E-17	1.447452E-17
3.140000E+03	2.799981E-17	1.400539E-17
3.150000E+03	2.709529E-17	1.355089E-17
3.160000E+03	2.621987E-17	1.311106E-17
3.170000E+03	2.537260E-17	1.268543E-17
3.180000E+03	2.455351E-17	1.227400E-17
3.190000E+03	2.376208E-17	1.187652E-17
3.200000E+03	2.299782E-17	1.149272E-17
3.210000E+03	2.226059E-17	1.112254E-17
3.220000E+03	2.154908E-17	1.076531E-17
3.230000E+03	2.086386E-17	1.042132E-17
3.240000E+03	2.020327E-17	1.008973E-17
3.250000E+03	1.956779E-17	9.770767E-18
3.260000E+03	1.895615E-17	9.463805E-18
3.270000E+03	1.836808E-17	9.168698E-18
3.280000E+03	1.780299E-17	8.885146E-18
3.290000E+03	1.725999E-17	8.612703E-18
3.300000E+03	1.673902E-17	8.351336E-18
3.310000E+03	1.623897E-17	8.100478E-18
3.320000E+03	1.575925E-17	7.859838E-18
3.330000E+03	1.529975E-17	7.629354E-18
3.340000E+03	1.485940E-17	7.408491E-18
3.350000E+03	1.443765E-17	7.196964E-18
3.360000E+03	1.403394E-17	6.994495E-18
3.370000E+03	1.364790E-17	6.800895E-18
3.380000E+03	1.327859E-17	6.615691E-18
3.390000E+03	1.292551E-17	6.438629E-18
3.400000E+03	1.258830E-17	6.269530E-18
3.410000E+03	1.226629E-17	6.108051E-18
3.420000E+03	1.195899E-17	5.953945E-18
3.430000E+03	1.166561E-17	5.806820E-18
3.440000E+03	1.138585E-17	5.666521E-18
3.450000E+03	1.111928E-17	5.532829E-18
3.460000E+03	1.086519E-17	5.405388E-18
3.470000E+03	1.062317E-17	5.283996E-18
3.480000E+03	1.039273E-17	5.168401E-18
3.490000E+03	1.017362E-17	5.058473E-18
3.500000E+03	9.965117E-18	4.953858E-18
3.510000E+03	9.767015E-18	4.854445E-18
3.520000E+03	9.578776E-18	4.759966E-18
3.530000E+03	9.399989E-18	4.670214E-18
3.540000E+03	9.230281E-18	4.585002E-18
3.550000E+03	9.069189E-18	4.504096E-18
3.560000E+03	8.916476E-18	4.427378E-18
3.570000E+03	8.771631E-18	4.354590E-18
3.580000E+03	8.634361E-18	4.285586E-18
3.590000E+03	8.504471E-18	4.220267E-18
3.600000E+03	8.381610E-18	4.158457E-18
3.610000E+03	8.265516E-18	4.100023E-18
3.620000E+03	8.155872E-18	4.044807E-18
3.630000E+03	8.052368E-18	3.992653E-18
3.640000E+03	7.954796E-18	3.943457E-18
3.650000E+03	7.862806E-18	3.897043E-18
3.660000E+03	7.776284E-18	3.853353E-18
3.670000E+03	7.694909E-18	3.812227E-18
3.680000E+03	7.618509E-18	3.773577E-18
3.690000E+03	7.547003E-18	3.737363E-18
3.700000E+03	7.480087E-18	3.703433E-18
3.710000E+03	7.417622E-18	3.671715E-18
3.720000E+03	7.359601E-18	3.642206E-18
3.730000E+03	7.305812E-18	3.614800E-18
3.740000E+03	7.256117E-18	3.589426E-18
3.750000E+03	7.210518E-18	3.566085E-18
3.760000E+03	7.168811E-18	3.544674E-18
3.770000E+03	7.130934E-18	3.525161E-18
3.780000E+03	7.096881E-18	3.507543E-18
3.790000E+03	7.066523E-18	3.491754E-18
3.800000E+03	7.039797E-18	3.477762E-18
3.810000E+03	7.016637E-18	3.465534E-18
3.820000E+03	6.996974E-18	3.455033E-18
3.830000E+03	6.980811E-18	3.446261E-18
3.840000E+03	6.968020E-18	3.439153E-18
3.850000E+03	6.958592E-18	3.433704E-18
3.860000E+03	6.952534E-18	3.429915E-18
3.870000E+03	6.949709E-18	3.427718E-18
3.880000E+03	6.950063E-18	3.427086E-18
3.890000E+03	6.953648E-18	3.428043E-18
3.900000E+03	6.960396E-18	3.430554E-18
3.910000E+03	6.970189E-18	3.434560E-18
3.920000E+03	6.983085E-18	3.440088E-18
3.930000E+03	6.999073E-18	3.447132E-18
3.940000E+03	7.017974E-18	3.455603E-18
3.950000E+03	7.039840E-18	3.465525E-18
3.960000E+03	7.064676E-18	3.476900E-18
3.970000E+03	7.092408E-18	3.489689E-18
3.980000E+03	7.122926E-18	3.503838E-18
3.990000E+03	7.156334E-18	3.519397E-18
4.000000E+03	7.192512E-18	3.536307E-18
4.010000E+03	7.231407E-18	3.554538E-18
4.020000E+03	7.273067E-18	3.574115E-18
4.030000E+03	7.317371E-18	3.594976E-18
4.040000E+03	7.364386E-18	3.617155E-18
4.050000E+03	7.413921E-18	3.640554E-18
4.060000E+03	7.466099E-18	3.665235E-18
4.070000E+03	7.520802E-18	3.691137E-18
4.080000E+03	7.577967E-18	3.718230E-18
4.090000E+03	7.637661E-18	3.746544E-18
4.100000E+03	7.699697E-18	3.775988E-18
4.110000E+03	7.764206E-18	3.806624E-18
4.120000E+03	7.831000E-18	3.838359E-18
4.130000E+03	7.900094E-18	3.871200E-18
4.140000E+03	7.971480E-18	3.905141E-18
4.150000E+03	8.045052E-18	3.940130E-18
4.160000E+03	8.120811E-18	3.976166E-18
4.170000E+03	8.198700E-18	4.013220E-18
4.180000E+03	8.278601E-18	4.051234E-18
4.190000E+03	8.360590E-18	4.090244E-18
4.200000E+03	8.444476E-18	4.130155E-18
4.210000E+03	8.530338E-18	4.171006E-18
4.220000E+03	8.617989E-18	4.212704E-18
4.230000E+03	8.707440E-18	4.255253E-18
4.240000E+03	8.798634E-18	4.298625E-18
4.250000E+03	8.891371E-18	4.342721E-18
4.260000E+03	8.985734E-18	4.387580E-18
4.270000E+03	9.081594E-18	4.433141E-18
4.280000E+03	9.178818E-18	4.479336E-18
4.290000E+03	9.277268E-18	4.526097E-18
4.300000E+03	9.376946E-18	4.573425E-18
4.310000E+03	9.477795E-18	4.621292E-18
4.320000E+03	9.579509E-18	4.669547E-18
4.330000E+03	9.682162E-18	4.718226E-18
4.340000E+03	9.785451E-18	4.767181E-18
4.350000E+03	9.889447E-18	4.816447E-18
4.360000E+03	9.993900E-18	4.865900E-18
4.370000E+03	1.009880E-17	4.915536E-18
4.380000E+03	1.020414E-17	4.965354E-18
4.390000E+03	1.030992E-17	5.015346E-18
4.400000E+03	1.041612E-17	5.065510E-18
4.410000E+03	1.052283E-17	5.115882E-18
4.420000E+03	1.063012E-17	5.166504E-18
4.430000E+03	1.073799E-17	5.217373E-18
4.440000E+03	1.084655E-17	5.268538E-18
4.450000E+03	1.095571E-17	5.319956E-18
4.460000E+03	1.106566E-17	5.371719E-18
4.470000E+03	1.117632E-17	5.423791E-18
4.480000E+03	1.128769E-17	5.476173E-18
4.490000E+03	1.139982E-17	5.528881E-18
4.500000E+03	1.151272E-17	5.581920E-18
4.510000E+03	1.162640E-17	5.635305E-18
4.520000E+03	1.174090E-17	5.689045E-18
4.530000E+03	1.185605E-17	5.743057E-18
4.540000E+03	1.197208E-17	5.797458E-18
4.550000E+03	1.208883E-17	5.852164E-18
4.560000E+03	1.220632E-17	5.907191E-18
4.570000E+03	1.232450E-17	5.962507E-18
4.580000E+03	1.244353E-17	6.018189E-18
4.590000E+03	1.256334E-17	6.074210E-18
4.600000E+03	1.268377E-17	6.130485E-18
4.610000E+03	1.280510E-17	6.187150E-18
4.620000E+03	1.292717E-17	6.244130E-18
4.630000E+03	1.304993E-17	6.301399E-18
4.640000E+03	1.317357E-17	6.359048E-18
4.650000E+03	1.329818E-17	6.417116E-18
4.660000E+03	1.342348E-17	6.475475E-18
4.670000E+03	1.354981E-17	6.534281E-18
4.680000E+03	1.367714E-17	6.593525E-18
4.690000E+03	1.380547E-17	6.653198E-18
4.700000E+03	1.393489E-17	6.713352E-18
4.710000E+03	1.406540E-17	6.773981E-18
4.720000E+03	1.419713E-17	6.835147E-18
4.730000E+03	1.432982E-17	6.896721E-18
4.740000E+03	1.446358E-17	6.958764E-18
4.750000E+03	1.459856E-17	7.021342E-18
4.760000E+03	1.473436E-17	7.084260E-18
4.770000E+03	1.487125E-17	7.147650E-18
4.780000E+03	1.500910E-17	7.211444E-18
4.790000E+03	1.514776E-17	7.275576E-18
4.800000E+03	1.528752E-17	7.340185E-18
4.810000E+03	1.542796E-17	7.405062E-18
4.820000E+03	1.556952E-17	7.470418E-18
4.830000E+03	1.571174E-17	7.536038E-18
4.840000E+03	1.585494E-17	7.602070E-18
4.850000E+03	1.599880E-17	7.668358E-18
4.860000E+03	1.614362E-17	7.735048E-18
4.870000E+03	1.628909E-17	7.801991E-18
4.880000E+03	1.643534E-17	7.869248E-18
4.890000E+03	1.658235E-17	7.936810E-18
4.900000E+03	1.672995E-17	8.004591E-18
4.910000E+03	1.687809E-17	8.072572E-18
4.920000E+03	1.702675E-17	8.140737E-18
4.930000E+03	1.717603E-17	8.209140E-18
4.940000E+03	1.732556E-17	8.277597E-18
4.950000E+03	1.747561E-17	8.346237E-18
4.960000E+03	1.762576E-17	8.414866E-18
4.970000E+03	1.777611E-17	8.483523E-18
4.980000E+03	1.792639E-17	8.552081E-18
4.990000E+03	1.807649E-17	8.620489E-18
5.000000E+03	1.822629E-17	8.688688E-18
5.010000E+03	1.837584E-17	8.756702E-18
5.020000E+03	1.852463E-17	8.824289E-18
5.030000E+03	1.867269E-17	8.891463E-18
5.040000E+03	1.881966E-17	8.958053E-18
5.050000E+03	1.896554E-17	9.024057E-18
5.060000E+03	1.910994E-17	9.089293E-18
5.070000E+03	1.925246E-17	9.153567E-18
5.080000E+03	1.939306E-17	9.216861E-18
5.090000E+03	1.953148E-17	9.279058E-18
5.100000E+03	1.966728E-17	9.339947E-18
5.110000E+03	1.980000E-17	9.399305E-18
5.120000E+03	1.992973E-17	9.457187E-18
5.130000E+03	2.005580E-17	9.513265E-18
5.140000E+03	2.017789E-17	9.567397E-18
5.150000E+03	2.029569E-17	9.619434E-18
5.160000E+03	2.040887E-17	9.669226E-18
5.170000E+03	2.051690E-17	9.716523E-18
5.180000E+03	2.061966E-17	9.761266E-18
5.190000E+03	2.071640E-17	9.803107E-18
5.200000E+03	2.080699E-17	9.841988E-18
5.210000E+03	2.089068E-17	9.877557E-18
5.220000E+03	2.096756E-17	9.909859E-18
5.230000E+03	2.103690E-17	9.938554E-18
5.240000E+03	2.109860E-17	9.963599E-18
5.250000E+03	2.115195E-17	9.984665E-18
5.260000E+03	2.119690E-17	1.000173E-17
5.270000E+03	2.123319E-17	1.001467E-17
5.280000E+03	2.126018E-17	1.002321E-17
5.290000E+03	2.127769E-17	1.002725E-17
5.300000E+03	2.128577E-17	1.002682E-17
5.310000E+03	2.128412E-17	1.002179E-17
5.320000E+03	2.127243E-17	1.001203E-17
5.330000E+03	2.125070E-17	9.997529E-18
5.340000E+03	2.121896E-17	9.978315E-18
5.350000E+03	2.117730E-17	9.954434E-18
5.360000E+03	2.112564E-17	9.925859E-18
5.370000E+03	2.106442E-17	9.892796E-18
5.380000E+03	2.099367E-17	9.855271E-18
5.390000E+03	2.091393E-17	9.813543E-18
5.400000E+03	2.082538E-17	9.767701E-18
5.410000E+03	2.072889E-17	9.718155E-18
5.420000E+03	2.062516E-17	9.665239E-18
5.430000E+03	2.051453E-17	9.609124E-18
5.440000E+03	2.039822E-17	9.550379E-18
5.450000E+03	2.027688E-17	9.489312E-18
5.460000E+03	2.015038E-17	9.425870E-18
5.470000E+03	2.002007E-17	9.360683E-18
5.480000E+03	1.988629E-17	9.293919E-18
5.490000E+03	1.974945E-17	9.225765E-18
5.500000E+03	1.961017E-17	9.156518E-18
5.510000E+03	1.946889E-17	9.086380E-18
5.520000E+03	1.932606E-17	9.015569E-18
5.530000E+03	1.918255E-17	8.944488E-18
5.540000E+03	1.903883E-17	8.873353E-18
5.550000E+03	1.889591E-17	8.802643E-18
5.560000E+03	1.875463E-17	8.732745E-18
5.570000E+03	1.861558E-17	8.663934E-18
5.580000E+03	1.847973E-17	8.596658E-18
5.590000E+03	1.834780E-17	8.531252E-18
5.600000E+03	1.822048E-17	8.468035E-18
5.610000E+03	1.809861E-17	8.407394E-18
5.620000E+03	1.798280E-17	8.349604E-18
5.630000E+03	1.787360E-17	8.294926E-18
5.640000E+03	1.777172E-17	8.243675E-18
5.650000E+03	1.767762E-17	8.196066E-18
5.660000E+03	1.759191E-17	8.152372E-18
5.670000E+03	1.751496E-17	8.112768E-18
5.680000E+03	1.744712E-17	8.077402E-18
5.690000E+03	1.738886E-17	8.046487E-18
5.700000E+03	1.734045E-17	8.020143E-18
5.710000E+03	1.730211E-17	7.998465E-18
5.720000E+03	1.727422E-17	7.981621E-18
5.730000E+03	1.725695E-17	7.969683E-18
5.740000E+03	1.725062E-17	7.962789E-18
5.750000E+03	1.725517E-17	7.960907E-18
5.760000E+03	1.727106E-17	7.964243E-18
5.770000E+03	1.729820E-17	7.972746E-18
5.780000E+03	1.733666E-17	7.986437E-18
5.790000E+03	1.738687E-17	8.005510E-18
5.800000E+03	1.744850E-17	8.029807E-18
5.810000E+03	1.752198E-17	8.059511E-18
5.820000E+03	1.760733E-17	8.094630E-18
5.830000E+03	1.770459E-17	8.135167E-18
5.840000E+03	1.781359E-17	8.181041E-18
5.850000E+03	1.793473E-17	8.232425E-18
5.860000E+03	1.806783E-17	8.289227E-18
5.870000E+03	1.821309E-17	8.351532E-18
5.880000E+03	1.837052E-17	8.419333E-18
5.890000E+03	1.853990E-17	8.492522E-18
5.900000E+03	1.872141E-17	8.571173E-18
5.910000E+03	1.891524E-17	8.655360E-18
5.920000E+03	1.912091E-17	8.744862E-18
5.930000E+03	1.933858E-17	8.839738E-18
5.940000E+03	1.956816E-17	8.939943E-18
5.950000E+03	1.980979E-17	9.045523E-18
5.960000E+03	2.006290E-17	9.156213E-18
5.970000E+03	2.032778E-17	9.272140E-18
5.980000E+03	2.060381E-17	9.393011E-18
5.990000E+03	2.089101E-17	9.518828E-18
6.000000E+03	2.118914E-17	9.649470E-18
6.010000E+03	2.149770E-17	9.784699E-18
6.020000E+03	2.181662E-17	9.924479E-18
6.030000E+03	2.214504E-17	1.006841E-17
6.040000E+03	2.248308E-17	1.021654E-17
6.050000E+03	2.282954E-17	1.036832E-17
6.060000E+03	2.318447E-17	1.052376E-17
6.070000E+03	2.354680E-17	1.068237E-17
6.080000E+03	2.391625E-17	1.084402E-17
6.090000E+03	2.429166E-17	1.100817E-17
6.100000E+03	2.467238E-17	1.117453E-17
6.110000E+03	2.505743E-17	1.134265E-17
6.120000E+03	2.544607E-17	1.151220E-17
6.130000E+03	2.583694E-17	1.168254E-17
6.140000E+03	2.622893E-17	1.185319E-17
6.150000E+03	2.662122E-17	1.202376E-17
6.160000E+03	2.701263E-17	1.219373E-17
6.170000E+03	2.740132E-17	1.236226E-17
6.180000E+03	2.778640E-17	1.252897E-17
6.190000E+03	2.816664E-17	1.269328E-17
6.200000E+03	2.854116E-17	1.285482E-17
6.210000E+03	2.890947E-17	1.301336E-17
6.220000E+03	2.927116E-17	1.316873E-17
6.230000E+03	2.962622E-17	1.332093E-17
6.240000E+03	2.997555E-17	1.347036E-17
6.250000E+03	3.031898E-17	1.361696E-17
6.260000E+03	3.065606E-17	1.376053E-17
6.270000E+03	3.098796E-17	1.390159E-17
6.280000E+03	3.131480E-17	1.404021E-17
6.290000E+03	3.163592E-17	1.417609E-17
6.300000E+03	3.195280E-17	1.430990E-17
6.310000E+03	3.226447E-17	1.444121E-17
6.320000E+03	3.257215E-17	1.457058E-17
6.330000E+03	3.287538E-17	1.469778E-17
6.340000E+03	3.317461E-17	1.482304E-17
6.350000E+03	3.346991E-17	1.494638E-17
6.360000E+03	3.376132E-17	1.506784E-17
6.370000E+03	3.404897E-17	1.518745E-17
6.380000E+03	3.433249E-17	1.530507E-17
6.390000E+03	3.461150E-17	1.542053E-17
6.400000E+03	3.488661E-17	1.553410E-17
6.410000E+03	3.515696E-17	1.564540E-17
6.420000E+03	3.542317E-17	1.575472E-17
6.430000E+03	3.568488E-17	1.586189E-17
6.440000E+03	3.594221E-17	1.596697E-17
6.450000E+03	3.619582E-17	1.607027E-17
6.460000E+03	3.644698E-17	1.617233E-17
6.470000E+03	3.669586E-17	1.627325E-17
6.480000E+03	3.694325E-17	1.637338E-17
6.490000E+03	3.718992E-17	1.647305E-17
6.500000E+03	3.743557E-17	1.657213E-17
6.510000E+03	3.768157E-17	1.667123E-17
6.520000E+03	3.792818E-17	1.677047E-17
6.530000E+03	3.817507E-17	1.686970E-17
6.540000E+03	3.842368E-17	1.696956E-17
6.550000E+03	3.867366E-17	1.706988E-17
6.560000E+03	3.892465E-17	1.717051E-17
6.570000E+03	3.917809E-17	1.727209E-17
6.580000E+03	3.943361E-17	1.737444E-17
6.590000E+03	3.969140E-17	1.747766E-17
6.600000E+03	3.995234E-17	1.758212E-17
6.610000E+03	4.021531E-17	1.768733E-17
6.620000E+03	4.048048E-17	1.779337E-17
6.630000E+03	4.074934E-17	1.790088E-17
6.640000E+03	4.102071E-17	1.800935E-17
6.650000E+03	4.129470E-17	1.811882E-17
6.660000E+03	4.157213E-17	1.822966E-17
6.670000E+03	4.185242E-17	1.834159E-17
6.680000E+03	4.213563E-17	1.845467E-17
6.690000E+03	4.242257E-17	1.856921E-17
6.700000E+03	4.271186E-17	1.868464E-17
6.710000E+03	4.300352E-17	1.880094E-17
6.720000E+03	4.329906E-17	1.891878E-17
6.730000E+03	4.359700E-17	1.903752E-17
6.740000E+03	4.389732E-17	1.915714E-17
6.750000E+03	4.420078E-17	1.927796E-17
6.760000E+03	4.450657E-17	1.939965E-17
6.770000E+03	4.481466E-17	1.952217E-17
6.780000E+03	4.512496E-17	1.964550E-17
6.790000E+03	4.543742E-17	1.976960E-17
6.800000E+03	4.575111E-17	1.989408E-17
6.810000E+03	4.606678E-17	2.001925E-17
6.820000E+03	4.638430E-17	2.014506E-17
6.830000E+03	4.670273E-17	2.027110E-17
6.840000E+03	4.702277E-17	2.039769E-17
6.850000E+03	4.734345E-17	2.052438E-17
6.860000E+03	4.766461E-17	2.065111E-17
6.870000E+03	4.798608E-17	2.077783E-17
6.880000E+03	4.830680E-17	2.090405E-17
6.890000E+03	4.862841E-17	2.103049E-17
6.900000E+03	4.894983E-17	2.115670E-17
6.910000E+03	4.926996E-17	2.128219E-17
6.920000E+03	4.958957E-17	2.140729E-17
6.930000E+03	4.990752E-17	2.153153E-17
6.940000E+03	5.022363E-17	2.165481E-17
6.950000E+03	5.053868E-17	2.177748E-17
6.960000E+03	5.085152E-17	2.189905E-17
6.970000E+03	5.116200E-17	2.201946E-17
6.980000E+03	5.146994E-17	2.213863E-17
6.990000E+03	5.177520E-17	2.225650E-17
7.000000E+03	5.207661E-17	2.237257E-17
7.010000E+03	5.237605E-17	2.248767E-17
7.020000E+03	5.267140E-17	2.260086E-17
7.030000E+03	5.296250E-17	2.271211E-17
7.040000E+03	5.325030E-17	2.282181E-17
7.050000E+03	5.353369E-17	2.292950E-17
7.060000E+03	5.381257E-17	2.303513E-17
7.070000E+03	5.408690E-17	2.313870E-17
7.080000E+03	5.435663E-17	2.324019E-17
7.090000E+03	5.462285E-17	2.334006E-17
7.100000E+03	5.488340E-17	2.343741E-17
7.110000E+03	5.513818E-17	2.353219E-17
7.120000E+03	5.538848E-17	2.362497E-17
7.130000E+03	5.563420E-17	2.371569E-17
7.140000E+03	5.587433E-17	2.380395E-17
7.150000E+03	5.611012E-17	2.389027E-17
7.160000E+03	5.633928E-17	2.397369E-17
7.170000E+03	5.656426E-17	2.405525E-17
7.180000E+03	5.678394E-17	2.413449E-17
7.190000E+03	5.699850E-17	2.421148E-17
7.200000E+03	5.720676E-17	2.428574E-17
7.210000E+03	5.741130E-17	2.435835E-17
7.220000E+03	5.760975E-17	2.442834E-17
7.230000E+03	5.780347E-17	2.449626E-17
7.240000E+03	5.799136E-17	2.456168E-17
7.250000E+03	5.817473E-17	2.462513E-17
7.260000E+03	5.835247E-17	2.468617E-17
7.270000E+03	5.852458E-17	2.474479E-17
7.280000E+03	5.869252E-17	2.480163E-17
7.290000E+03	5.885497E-17	2.485613E-17
7.300000E+03	5.901341E-17	2.490891E-17
7.310000E+03	5.916535E-17	2.495894E-17
7.320000E+03	5.931211E-17	2.500678E-17
7.330000E+03	5.945512E-17	2.505303E-17
7.340000E+03	5.959176E-17	2.509660E-17
7.350000E+03	5.972353E-17	2.513813E-17
7.360000E+03	5.984915E-17	2.517707E-17
7.370000E+03	5.996998E-17	2.521402E-17
7.380000E+03	6.008492E-17	2.524851E-17
7.390000E+03	6.019395E-17	2.528055E-17
7.400000E+03	6.029729E-17	2.531023E-17
7.410000E+03	6.039366E-17	2.533701E-17
7.420000E+03	6.048315E-17	2.536095E-17
7.430000E+03	6.056598E-17	2.538215E-17
7.440000E+03	6.064220E-17	2.540062E-17
7.450000E+03	6.071339E-17	2.541705E-17
7.460000E+03	6.077834E-17	2.543093E-17
7.470000E+03	6.083986E-17	2.544343E-17
7.480000E+03	6.089829E-17	2.545472E-17
7.490000E+03	6.095373E-17	2.546483E-17
7.500000E+03	6.100634E-17	2.547383E-17
7.510000E+03	6.105629E-17	2.548181E-17
7.520000E+03	6.110659E-17	2.549001E-17
7.530000E+03	6.115437E-17	2.549725E-17
7.540000E+03	6.120116E-17	2.550416E-17
7.550000E+03	6.124700E-17	2.551077E-17
7.560000E+03	6.129329E-17	2.551764E-17
7.570000E+03	6.133717E-17	2.552361E-17
7.580000E+03	6.138010E-17	2.552927E-17
7.590000E+03	6.142201E-17	2.553459E-17
7.600000E+03	6.146436E-17	2.554018E-17
7.610000E+03	6.150419E-17	2.554481E-17
7.620000E+03	6.154427E-17	2.554964E-17
7.630000E+03	6.158328E-17	2.555411E-17
7.640000E+03	6.161953E-17	2.555752E-17
7.650000E+03	6.165598E-17	2.556110E-17
7.660000E+03	6.169101E-17	2.556418E-17
7.670000E+03	6.172455E-17	2.556674E-17
7.680000E+03	6.175656E-17	2.556875E-17
7.690000E+03	6.178684E-17	2.557014E-17
7.700000E+03	6.181536E-17	2.557088E-17
7.710000E+03	6.184350E-17	2.557156E-17
7.720000E+03	6.186806E-17	2.557085E-17
7.730000E+03	6.189191E-17	2.556994E-17
7.740000E+03	6.191346E-17	2.556817E-17
7.750000E+03	6.193254E-17	2.556548E-17
7.760000E+03	6.194892E-17	2.556176E-17
