#wls	flux	fluxerr
1.600000E+03	3.585996E-16	1.176508E-16
1.640000E+03	3.690615E-16	1.210812E-16
1.680000E+03	3.788343E-16	1.242854E-16
1.720000E+03	3.878056E-16	1.272265E-16
1.760000E+03	3.958150E-16	1.298519E-16
1.800000E+03	4.027346E-16	1.321195E-16
1.840000E+03	4.083946E-16	1.339738E-16
1.880000E+03	4.126988E-16	1.353832E-16
1.920000E+03	4.155138E-16	1.363039E-16
1.960000E+03	4.166785E-16	1.366832E-16
2.000000E+03	4.161116E-16	1.364944E-16
2.040000E+03	4.136807E-16	1.356940E-16
2.080000E+03	4.092809E-16	1.342478E-16
2.120000E+03	4.028959E-16	1.321505E-16
2.160000E+03	3.944058E-16	1.293626E-16
2.200000E+03	3.837550E-16	1.258661E-16
2.240000E+03	3.708908E-16	1.216438E-16
2.280000E+03	3.557089E-16	1.166614E-16
2.320000E+03	3.386765E-16	1.110723E-16
2.360000E+03	3.202647E-16	1.050311E-16
2.400000E+03	3.008509E-16	9.866151E-17
2.440000E+03	2.807548E-16	9.206843E-17
2.480000E+03	2.602786E-16	8.535108E-17
2.520000E+03	2.396940E-16	7.859846E-17
2.560000E+03	2.192370E-16	7.188809E-17
2.600000E+03	1.991438E-16	6.529733E-17
2.640000E+03	1.796238E-16	5.889489E-17
2.680000E+03	1.608620E-16	5.274147E-17
2.720000E+03	1.430190E-16	4.688963E-17
2.760000E+03	1.262371E-16	4.138603E-17
2.800000E+03	1.106117E-16	3.626194E-17
2.840000E+03	9.621757E-17	3.154186E-17
2.880000E+03	8.311064E-17	2.724407E-17
2.920000E+03	7.131835E-17	2.337752E-17
2.960000E+03	6.084379E-17	1.994320E-17
3.000000E+03	5.165561E-17	1.693077E-17
3.010000E+03	4.955216E-17	1.624115E-17
3.020000E+03	4.752375E-17	1.557615E-17
3.030000E+03	4.556972E-17	1.493553E-17
3.040000E+03	4.368827E-17	1.431872E-17
3.050000E+03	4.187752E-17	1.372509E-17
3.060000E+03	4.013652E-17	1.315434E-17
3.070000E+03	3.846249E-17	1.260555E-17
3.080000E+03	3.685522E-17	1.207864E-17
3.090000E+03	3.531191E-17	1.157271E-17
3.100000E+03	3.383136E-17	1.108736E-17
3.110000E+03	3.241164E-17	1.062195E-17
3.120000E+03	3.105139E-17	1.017605E-17
3.130000E+03	2.974865E-17	9.748999E-18
3.140000E+03	2.850148E-17	9.340170E-18
3.150000E+03	2.730845E-17	8.949093E-18
3.160000E+03	2.616715E-17	8.574977E-18
3.170000E+03	2.507668E-17	8.217525E-18
3.180000E+03	2.403470E-17	7.875972E-18
3.190000E+03	2.303982E-17	7.549863E-18
3.200000E+03	2.209021E-17	7.238593E-18
3.210000E+03	2.118411E-17	6.941589E-18
3.220000E+03	2.032015E-17	6.658399E-18
3.230000E+03	1.949662E-17	6.388466E-18
3.240000E+03	1.871154E-17	6.131138E-18
3.250000E+03	1.796424E-17	5.886194E-18
3.260000E+03	1.725222E-17	5.652817E-18
3.270000E+03	1.657482E-17	5.430786E-18
3.280000E+03	1.592999E-17	5.219434E-18
3.290000E+03	1.531656E-17	5.018378E-18
3.300000E+03	1.473338E-17	4.827234E-18
3.310000E+03	1.417863E-17	4.645412E-18
3.320000E+03	1.365147E-17	4.472633E-18
3.330000E+03	1.315062E-17	4.308479E-18
3.340000E+03	1.267469E-17	4.152491E-18
3.350000E+03	1.222252E-17	4.004294E-18
3.360000E+03	1.179302E-17	3.863529E-18
3.370000E+03	1.138531E-17	3.729903E-18
3.380000E+03	1.099805E-17	3.602980E-18
3.390000E+03	1.063057E-17	3.482544E-18
3.400000E+03	1.028168E-17	3.368198E-18
3.410000E+03	9.950509E-18	3.259659E-18
3.420000E+03	9.636351E-18	3.156698E-18
3.430000E+03	9.338057E-18	3.058935E-18
3.440000E+03	9.055126E-18	2.966208E-18
3.450000E+03	8.786732E-18	2.878246E-18
3.460000E+03	8.531904E-18	2.794729E-18
3.470000E+03	8.290231E-18	2.715523E-18
3.480000E+03	8.060836E-18	2.640342E-18
3.490000E+03	7.843178E-18	2.569007E-18
3.500000E+03	7.636658E-18	2.501322E-18
3.510000E+03	7.440468E-18	2.437023E-18
3.520000E+03	7.254186E-18	2.375971E-18
3.530000E+03	7.077178E-18	2.317957E-18
3.540000E+03	6.908861E-18	2.262792E-18
3.550000E+03	6.748766E-18	2.210321E-18
3.560000E+03	6.596325E-18	2.160358E-18
3.570000E+03	6.451074E-18	2.112752E-18
3.580000E+03	6.312524E-18	2.067342E-18
3.590000E+03	6.180350E-18	2.024020E-18
3.600000E+03	6.054173E-18	1.982665E-18
3.610000E+03	5.933594E-18	1.943143E-18
3.620000E+03	5.818350E-18	1.905370E-18
3.630000E+03	5.708183E-18	1.869260E-18
3.640000E+03	5.602754E-18	1.834703E-18
3.650000E+03	5.501988E-18	1.801674E-18
3.660000E+03	5.405561E-18	1.770067E-18
3.670000E+03	5.313365E-18	1.739846E-18
3.680000E+03	5.225235E-18	1.710957E-18
3.690000E+03	5.141013E-18	1.683348E-18
3.700000E+03	5.060589E-18	1.656985E-18
3.710000E+03	4.983895E-18	1.631843E-18
3.720000E+03	4.910692E-18	1.607845E-18
3.730000E+03	4.840997E-18	1.584995E-18
3.740000E+03	4.774617E-18	1.563233E-18
3.750000E+03	4.711487E-18	1.542534E-18
3.760000E+03	4.651537E-18	1.522878E-18
3.770000E+03	4.594583E-18	1.504203E-18
3.780000E+03	4.540638E-18	1.486513E-18
3.790000E+03	4.489557E-18	1.469762E-18
3.800000E+03	4.441277E-18	1.453928E-18
3.810000E+03	4.395697E-18	1.438978E-18
3.820000E+03	4.352759E-18	1.424893E-18
3.830000E+03	4.312361E-18	1.411641E-18
3.840000E+03	4.274447E-18	1.399202E-18
3.850000E+03	4.238929E-18	1.387547E-18
3.860000E+03	4.205780E-18	1.376668E-18
3.870000E+03	4.174912E-18	1.366536E-18
3.880000E+03	4.146243E-18	1.357124E-18
3.890000E+03	4.119721E-18	1.348415E-18
3.900000E+03	4.095266E-18	1.340383E-18
3.910000E+03	4.072864E-18	1.333022E-18
3.920000E+03	4.052435E-18	1.326308E-18
3.930000E+03	4.033940E-18	1.320227E-18
3.940000E+03	4.017301E-18	1.314753E-18
3.950000E+03	4.002451E-18	1.309864E-18
3.960000E+03	3.989410E-18	1.305568E-18
3.970000E+03	3.978051E-18	1.301822E-18
3.980000E+03	3.968369E-18	1.298625E-18
3.990000E+03	3.960299E-18	1.295956E-18
4.000000E+03	3.953810E-18	1.293803E-18
4.010000E+03	3.948869E-18	1.292157E-18
4.020000E+03	3.945388E-18	1.290989E-18
4.030000E+03	3.943366E-18	1.290298E-18
4.040000E+03	3.942751E-18	1.290067E-18
4.050000E+03	3.943512E-18	1.290286E-18
4.060000E+03	3.945601E-18	1.290939E-18
4.070000E+03	3.948961E-18	1.292008E-18
4.080000E+03	3.953601E-18	1.293496E-18
4.090000E+03	3.959442E-18	1.295376E-18
4.100000E+03	3.966465E-18	1.297643E-18
4.110000E+03	3.974653E-18	1.300290E-18
4.120000E+03	3.983928E-18	1.303293E-18
4.130000E+03	3.994305E-18	1.306656E-18
4.140000E+03	4.005710E-18	1.310355E-18
4.150000E+03	4.018126E-18	1.314384E-18
4.160000E+03	4.031546E-18	1.318741E-18
4.170000E+03	4.045895E-18	1.323401E-18
4.180000E+03	4.061193E-18	1.328372E-18
4.190000E+03	4.077339E-18	1.333619E-18
4.200000E+03	4.094384E-18	1.339160E-18
4.210000E+03	4.112232E-18	1.344963E-18
4.220000E+03	4.130870E-18	1.351024E-18
4.230000E+03	4.150264E-18	1.357332E-18
4.240000E+03	4.170404E-18	1.363883E-18
4.250000E+03	4.191193E-18	1.370645E-18
4.260000E+03	4.212658E-18	1.377628E-18
4.270000E+03	4.234728E-18	1.384809E-18
4.280000E+03	4.257333E-18	1.392164E-18
4.290000E+03	4.280469E-18	1.399691E-18
4.300000E+03	4.304100E-18	1.407380E-18
4.310000E+03	4.328119E-18	1.415195E-18
4.320000E+03	4.352490E-18	1.423125E-18
4.330000E+03	4.377171E-18	1.431155E-18
4.340000E+03	4.402123E-18	1.439273E-18
4.350000E+03	4.427305E-18	1.447465E-18
4.360000E+03	4.452709E-18	1.455730E-18
4.370000E+03	4.478297E-18	1.464054E-18
4.380000E+03	4.504025E-18	1.472423E-18
4.390000E+03	4.529961E-18	1.480859E-18
4.400000E+03	4.556062E-18	1.489348E-18
4.410000E+03	4.582326E-18	1.497890E-18
4.420000E+03	4.608789E-18	1.506496E-18
4.430000E+03	4.635447E-18	1.515164E-18
4.440000E+03	4.662266E-18	1.523885E-18
4.450000E+03	4.689283E-18	1.532670E-18
4.460000E+03	4.716466E-18	1.541508E-18
4.470000E+03	4.743815E-18	1.550400E-18
4.480000E+03	4.771336E-18	1.559347E-18
4.490000E+03	4.798961E-18	1.568327E-18
4.500000E+03	4.826735E-18	1.577355E-18
4.510000E+03	4.854627E-18	1.586420E-18
4.520000E+03	4.882613E-18	1.595515E-18
4.530000E+03	4.910701E-18	1.604643E-18
4.540000E+03	4.938826E-18	1.613782E-18
4.550000E+03	4.967005E-18	1.622938E-18
4.560000E+03	4.995257E-18	1.632117E-18
4.570000E+03	5.023559E-18	1.641311E-18
4.580000E+03	5.051849E-18	1.650500E-18
4.590000E+03	5.080150E-18	1.659692E-18
4.600000E+03	5.108446E-18	1.668881E-18
4.610000E+03	5.136718E-18	1.678062E-18
4.620000E+03	5.165001E-18	1.687245E-18
4.630000E+03	5.193230E-18	1.696409E-18
4.640000E+03	5.221444E-18	1.705568E-18
4.650000E+03	5.249630E-18	1.714716E-18
4.660000E+03	5.277782E-18	1.723852E-18
4.670000E+03	5.305889E-18	1.732973E-18
4.680000E+03	5.333947E-18	1.742077E-18
4.690000E+03	5.361951E-18	1.751162E-18
4.700000E+03	5.389991E-18	1.760257E-18
4.710000E+03	5.418067E-18	1.769364E-18
4.720000E+03	5.446180E-18	1.778481E-18
4.730000E+03	5.474428E-18	1.787642E-18
4.740000E+03	5.502767E-18	1.796831E-18
4.750000E+03	5.531203E-18	1.806050E-18
4.760000E+03	5.559794E-18	1.815319E-18
4.770000E+03	5.588544E-18	1.824639E-18
4.780000E+03	5.617413E-18	1.833997E-18
4.790000E+03	5.646462E-18	1.843412E-18
4.800000E+03	5.675701E-18	1.852889E-18
4.810000E+03	5.705093E-18	1.862413E-18
4.820000E+03	5.734700E-18	1.872008E-18
4.830000E+03	5.764533E-18	1.881674E-18
4.840000E+03	5.794611E-18	1.891420E-18
4.850000E+03	5.824949E-18	1.901248E-18
4.860000E+03	5.855507E-18	1.911148E-18
4.870000E+03	5.886410E-18	1.921159E-18
4.880000E+03	5.917566E-18	1.931251E-18
4.890000E+03	5.948992E-18	1.941430E-18
4.900000E+03	5.980760E-18	1.951719E-18
4.910000E+03	6.012888E-18	1.962124E-18
4.920000E+03	6.045393E-18	1.972652E-18
4.930000E+03	6.078180E-18	1.983269E-18
4.940000E+03	6.111380E-18	1.994021E-18
4.950000E+03	6.144953E-18	2.004892E-18
4.960000E+03	6.178914E-18	2.015888E-18
4.970000E+03	6.213278E-18	2.027015E-18
4.980000E+03	6.248062E-18	2.038277E-18
4.990000E+03	6.283216E-18	2.049658E-18
5.000000E+03	6.318755E-18	2.061164E-18
5.010000E+03	6.354752E-18	2.072817E-18
5.020000E+03	6.391152E-18	2.084600E-18
5.030000E+03	6.427906E-18	2.096497E-18
5.040000E+03	6.465142E-18	2.108549E-18
5.050000E+03	6.502682E-18	2.120699E-18
5.060000E+03	6.540653E-18	2.132988E-18
5.070000E+03	6.579055E-18	2.145416E-18
5.080000E+03	6.617704E-18	2.157923E-18
5.090000E+03	6.656787E-18	2.170569E-18
5.100000E+03	6.696175E-18	2.183313E-18
5.110000E+03	6.735864E-18	2.196153E-18
5.120000E+03	6.775912E-18	2.209109E-18
5.130000E+03	6.816185E-18	2.222136E-18
5.140000E+03	6.856671E-18	2.235231E-18
5.150000E+03	6.897427E-18	2.248411E-18
5.160000E+03	6.938376E-18	2.261653E-18
5.170000E+03	6.979502E-18	2.274951E-18
5.180000E+03	7.020723E-18	2.288277E-18
5.190000E+03	7.062093E-18	2.301650E-18
5.200000E+03	7.103452E-18	2.315018E-18
5.210000E+03	7.144921E-18	2.328419E-18
5.220000E+03	7.186403E-18	2.341823E-18
5.230000E+03	7.227812E-18	2.355201E-18
5.240000E+03	7.269119E-18	2.368543E-18
5.250000E+03	7.310364E-18	2.381864E-18
5.260000E+03	7.351378E-18	2.395107E-18
5.270000E+03	7.392203E-18	2.408286E-18
5.280000E+03	7.432875E-18	2.421413E-18
5.290000E+03	7.473145E-18	2.434407E-18
5.300000E+03	7.513193E-18	2.447327E-18
5.310000E+03	7.552766E-18	2.460090E-18
5.320000E+03	7.592045E-18	2.472756E-18
5.330000E+03	7.630772E-18	2.485239E-18
5.340000E+03	7.669051E-18	2.497574E-18
5.350000E+03	7.706847E-18	2.509750E-18
5.360000E+03	7.744046E-18	2.521729E-18
5.370000E+03	7.780759E-18	2.533548E-18
5.380000E+03	7.816718E-18	2.545119E-18
5.390000E+03	7.852114E-18	2.556505E-18
5.400000E+03	7.886834E-18	2.567669E-18
5.410000E+03	7.920842E-18	2.578599E-18
5.420000E+03	7.954099E-18	2.589282E-18
5.430000E+03	7.986573E-18	2.599709E-18
5.440000E+03	8.018147E-18	2.609840E-18
5.450000E+03	8.048787E-18	2.619666E-18
5.460000E+03	8.078458E-18	2.629174E-18
5.470000E+03	8.107127E-18	2.638354E-18
5.480000E+03	8.134681E-18	2.647169E-18
5.490000E+03	8.161005E-18	2.655582E-18
5.500000E+03	8.186146E-18	2.663608E-18
5.510000E+03	8.209990E-18	2.671210E-18
5.520000E+03	8.232427E-18	2.678353E-18
5.530000E+03	8.253337E-18	2.684997E-18
5.540000E+03	8.272772E-18	2.691159E-18
5.550000E+03	8.290537E-18	2.696777E-18
5.560000E+03	8.306686E-18	2.701867E-18
5.570000E+03	8.321018E-18	2.706365E-18
5.580000E+03	8.333509E-18	2.710263E-18
5.590000E+03	8.344213E-18	2.713578E-18
5.600000E+03	8.352942E-18	2.716249E-18
5.610000E+03	8.359752E-18	2.718295E-18
5.620000E+03	8.364626E-18	2.719711E-18
5.630000E+03	8.367460E-18	2.720462E-18
5.640000E+03	8.368237E-18	2.720543E-18
5.650000E+03	8.367035E-18	2.719979E-18
5.660000E+03	8.363841E-18	2.718767E-18
5.670000E+03	8.358567E-18	2.716879E-18
5.680000E+03	8.351296E-18	2.714340E-18
5.690000E+03	8.342118E-18	2.711181E-18
5.700000E+03	8.330865E-18	2.707347E-18
5.710000E+03	8.317634E-18	2.702870E-18
5.720000E+03	8.302527E-18	2.697783E-18
5.730000E+03	8.285563E-18	2.692092E-18
5.740000E+03	8.266765E-18	2.685804E-18
5.750000E+03	8.246159E-18	2.678930E-18
5.760000E+03	8.223776E-18	2.671478E-18
5.770000E+03	8.199738E-18	2.663488E-18
5.780000E+03	8.173999E-18	2.654946E-18
5.790000E+03	8.146772E-18	2.645921E-18
5.800000E+03	8.118022E-18	2.636401E-18
5.810000E+03	8.087796E-18	2.626403E-18
5.820000E+03	8.056324E-18	2.616000E-18
5.830000E+03	8.023489E-18	2.605155E-18
5.840000E+03	7.989441E-18	2.593917E-18
5.850000E+03	7.954331E-18	2.582334E-18
5.860000E+03	7.918140E-18	2.570401E-18
5.870000E+03	7.881027E-18	2.558170E-18
5.880000E+03	7.842978E-18	2.545636E-18
5.890000E+03	7.804242E-18	2.532879E-18
5.900000E+03	7.764812E-18	2.519898E-18
5.910000E+03	7.724768E-18	2.506718E-18
5.920000E+03	7.684273E-18	2.493394E-18
5.930000E+03	7.643324E-18	2.479923E-18
5.940000E+03	7.602089E-18	2.466360E-18
5.950000E+03	7.560563E-18	2.452703E-18
5.960000E+03	7.518912E-18	2.439007E-18
5.970000E+03	7.477213E-18	2.425297E-18
5.980000E+03	7.435545E-18	2.411598E-18
5.990000E+03	7.393899E-18	2.397907E-18
6.000000E+03	7.352431E-18	2.384275E-18
6.010000E+03	7.311216E-18	2.370726E-18
6.020000E+03	7.270235E-18	2.357254E-18
6.030000E+03	7.229638E-18	2.343908E-18
6.040000E+03	7.189404E-18	2.330680E-18
6.050000E+03	7.149506E-18	2.317563E-18
6.060000E+03	7.110173E-18	2.304630E-18
6.070000E+03	7.071290E-18	2.291843E-18
6.080000E+03	7.032990E-18	2.279247E-18
6.090000E+03	6.995149E-18	2.266801E-18
6.100000E+03	6.957901E-18	2.254547E-18
6.110000E+03	6.921198E-18	2.242472E-18
6.120000E+03	6.885081E-18	2.230587E-18
6.130000E+03	6.849583E-18	2.218904E-18
6.140000E+03	6.814651E-18	2.207405E-18
6.150000E+03	6.780315E-18	2.196100E-18
6.160000E+03	6.746599E-18	2.184997E-18
6.170000E+03	6.713528E-18	2.174104E-18
6.180000E+03	6.681119E-18	2.163425E-18
6.190000E+03	6.649305E-18	2.152941E-18
6.200000E+03	6.618184E-18	2.142682E-18
6.210000E+03	6.587772E-18	2.132653E-18
6.220000E+03	6.558073E-18	2.122855E-18
6.230000E+03	6.529181E-18	2.113320E-18
6.240000E+03	6.501185E-18	2.104075E-18
6.250000E+03	6.474177E-18	2.095151E-18
6.260000E+03	6.448242E-18	2.086575E-18
6.270000E+03	6.423469E-18	2.078375E-18
6.280000E+03	6.400030E-18	2.070607E-18
6.290000E+03	6.377836E-18	2.063243E-18
6.300000E+03	6.357235E-18	2.056394E-18
6.310000E+03	6.338141E-18	2.050034E-18
6.320000E+03	6.320727E-18	2.044216E-18
6.330000E+03	6.305079E-18	2.038970E-18
6.340000E+03	6.291291E-18	2.034326E-18
6.350000E+03	6.279364E-18	2.030283E-18
6.360000E+03	6.269391E-18	2.026871E-18
6.370000E+03	6.261461E-18	2.024120E-18
6.380000E+03	6.255585E-18	2.022033E-18
6.390000E+03	6.251767E-18	2.020610E-18
6.400000E+03	6.250106E-18	2.019884E-18
6.410000E+03	6.250428E-18	2.019797E-18
6.420000E+03	6.252742E-18	2.020354E-18
6.430000E+03	6.256961E-18	2.021525E-18
6.440000E+03	6.262906E-18	2.023252E-18
6.450000E+03	6.270675E-18	2.025568E-18
6.460000E+03	6.280086E-18	2.028412E-18
6.470000E+03	6.291237E-18	2.031817E-18
6.480000E+03	6.304133E-18	2.035784E-18
6.490000E+03	6.318681E-18	2.040283E-18
6.500000E+03	6.334890E-18	2.045316E-18
6.510000E+03	6.352759E-18	2.050883E-18
6.520000E+03	6.372299E-18	2.056988E-18
6.530000E+03	6.393511E-18	2.063630E-18
6.540000E+03	6.416506E-18	2.070845E-18
6.550000E+03	6.441188E-18	2.078603E-18
6.560000E+03	6.467462E-18	2.086872E-18
6.570000E+03	6.495541E-18	2.095720E-18
6.580000E+03	6.525226E-18	2.105084E-18
6.590000E+03	6.556627E-18	2.114998E-18
6.600000E+03	6.589757E-18	2.125468E-18
6.610000E+03	6.624619E-18	2.136493E-18
6.620000E+03	6.661229E-18	2.148078E-18
6.630000E+03	6.699485E-18	2.160191E-18
6.640000E+03	6.739503E-18	2.172869E-18
6.650000E+03	6.781187E-18	2.186079E-18
6.660000E+03	6.824655E-18	2.199862E-18
6.670000E+03	6.869808E-18	2.214184E-18
6.680000E+03	6.916652E-18	2.229046E-18
6.690000E+03	6.965316E-18	2.244491E-18
6.700000E+03	7.015813E-18	2.260523E-18
6.710000E+03	7.067917E-18	2.277067E-18
6.720000E+03	7.121881E-18	2.294207E-18
6.730000E+03	7.177471E-18	2.311865E-18
6.740000E+03	7.234943E-18	2.330125E-18
6.750000E+03	7.294193E-18	2.348952E-18
6.760000E+03	7.355099E-18	2.368308E-18
6.770000E+03	7.417934E-18	2.388280E-18
6.780000E+03	7.482450E-18	2.408787E-18
6.790000E+03	7.548788E-18	2.429875E-18
6.800000E+03	7.616967E-18	2.451551E-18
6.810000E+03	7.686996E-18	2.473815E-18
6.820000E+03	7.758752E-18	2.496630E-18
6.830000E+03	7.832388E-18	2.520043E-18
6.840000E+03	7.907775E-18	2.544014E-18
6.850000E+03	7.985064E-18	2.568590E-18
6.860000E+03	8.064127E-18	2.593730E-18
6.870000E+03	8.144971E-18	2.619435E-18
6.880000E+03	8.227759E-18	2.645760E-18
6.890000E+03	8.312197E-18	2.672607E-18
6.900000E+03	8.398599E-18	2.700080E-18
6.910000E+03	8.486825E-18	2.728130E-18
6.920000E+03	8.576881E-18	2.756762E-18
6.930000E+03	8.668776E-18	2.785977E-18
6.940000E+03	8.762520E-18	2.815779E-18
6.950000E+03	8.857951E-18	2.846114E-18
6.960000E+03	8.955240E-18	2.877038E-18
6.970000E+03	9.054395E-18	2.908554E-18
6.980000E+03	9.155423E-18	2.940662E-18
6.990000E+03	9.257972E-18	2.973251E-18
7.000000E+03	9.362578E-18	3.006491E-18
7.010000E+03	9.468702E-18	3.040210E-18
7.020000E+03	9.576705E-18	3.074523E-18
7.030000E+03	9.686403E-18	3.109370E-18
7.040000E+03	9.797794E-18	3.144752E-18
7.050000E+03	9.910869E-18	3.180665E-18
7.060000E+03	1.002562E-17	3.217107E-18
7.070000E+03	1.014185E-17	3.254011E-18
7.080000E+03	1.025973E-17	3.291437E-18
7.090000E+03	1.037927E-17	3.329383E-18
7.100000E+03	1.050023E-17	3.367776E-18
7.110000E+03	1.062282E-17	3.406681E-18
7.120000E+03	1.074681E-17	3.446022E-18
7.130000E+03	1.087217E-17	3.485794E-18
7.140000E+03	1.099888E-17	3.525987E-18
7.150000E+03	1.112714E-17	3.566667E-18
7.160000E+03	1.125648E-17	3.607680E-18
7.170000E+03	1.138685E-17	3.649014E-18
7.180000E+03	1.151869E-17	3.690809E-18
7.190000E+03	1.165151E-17	3.732903E-18
7.200000E+03	1.178525E-17	3.775282E-18
7.210000E+03	1.192012E-17	3.818013E-18
7.220000E+03	1.205584E-17	3.861001E-18
7.230000E+03	1.219235E-17	3.904233E-18
7.240000E+03	1.232961E-17	3.947691E-18
7.250000E+03	1.246756E-17	3.991360E-18
7.260000E+03	1.260643E-17	4.035309E-18
7.270000E+03	1.274561E-17	4.079348E-18
7.280000E+03	1.288561E-17	4.123634E-18
7.290000E+03	1.302608E-17	4.168061E-18
7.300000E+03	1.316697E-17	4.212611E-18
7.310000E+03	1.330852E-17	4.257357E-18
7.320000E+03	1.345037E-17	4.302187E-18
7.330000E+03	1.359276E-17	4.347179E-18
7.340000E+03	1.373564E-17	4.392313E-18
7.350000E+03	1.387926E-17	4.437675E-18
7.360000E+03	1.402359E-17	4.483248E-18
7.370000E+03	1.416890E-17	4.529124E-18
7.380000E+03	1.431484E-17	4.575188E-18
7.390000E+03	1.446236E-17	4.621743E-18
7.400000E+03	1.461145E-17	4.668788E-18
7.410000E+03	1.476178E-17	4.716214E-18
7.420000E+03	1.491435E-17	4.764347E-18
7.430000E+03	1.506886E-17	4.813084E-18
7.440000E+03	1.522568E-17	4.862543E-18
7.450000E+03	1.538446E-17	4.912617E-18
7.460000E+03	1.554558E-17	4.963427E-18
7.470000E+03	1.570798E-17	5.014627E-18
7.480000E+03	1.587237E-17	5.066450E-18
7.490000E+03	1.603762E-17	5.118536E-18
7.500000E+03	1.620409E-17	5.170996E-18
7.510000E+03	1.637137E-17	5.223699E-18
7.520000E+03	1.653901E-17	5.276504E-18
7.530000E+03	1.670737E-17	5.329523E-18
7.540000E+03	1.687518E-17	5.382352E-18
7.550000E+03	1.704317E-17	5.435226E-18
7.560000E+03	1.721087E-17	5.487992E-18
7.570000E+03	1.737819E-17	5.540625E-18
7.580000E+03	1.754463E-17	5.592960E-18
7.590000E+03	1.771051E-17	5.645107E-18
7.600000E+03	1.787532E-17	5.696897E-18
7.610000E+03	1.803895E-17	5.748296E-18
7.620000E+03	1.820174E-17	5.799416E-18
7.630000E+03	1.836315E-17	5.850082E-18
7.640000E+03	1.852352E-17	5.900406E-18
7.650000E+03	1.868183E-17	5.950059E-18
7.660000E+03	1.883889E-17	5.999302E-18
7.670000E+03	1.899413E-17	6.047950E-18
7.680000E+03	1.914790E-17	6.096121E-18
7.690000E+03	1.929963E-17	6.143627E-18
7.700000E+03	1.944917E-17	6.190428E-18
7.710000E+03	1.959642E-17	6.236486E-18
7.720000E+03	1.974227E-17	6.282088E-18
7.730000E+03	1.988509E-17	6.326713E-18
7.740000E+03	2.002629E-17	6.370816E-18
7.750000E+03	2.016475E-17	6.414031E-18
7.760000E+03	2.030086E-17	6.456491E-18
