#wls	flux	fluxerr
1.600000E+03	1.431306E-16	7.182302E-17
1.640000E+03	1.479757E-16	7.424424E-17
1.680000E+03	1.527297E-16	7.661840E-17
1.720000E+03	1.573735E-16	7.893589E-17
1.760000E+03	1.618387E-16	8.116238E-17
1.800000E+03	1.660961E-16	8.328316E-17
1.840000E+03	1.700821E-16	8.526627E-17
1.880000E+03	1.737574E-16	8.709212E-17
1.920000E+03	1.770647E-16	8.873187E-17
1.960000E+03	1.799431E-16	9.015515E-17
2.000000E+03	1.823038E-16	9.131753E-17
2.040000E+03	1.840868E-16	9.218901E-17
2.080000E+03	1.852216E-16	9.273452E-17
2.120000E+03	1.856085E-16	9.290431E-17
2.160000E+03	1.851625E-16	9.265607E-17
2.200000E+03	1.837843E-16	9.194052E-17
2.240000E+03	1.813924E-16	9.071727E-17
2.280000E+03	1.779761E-16	8.898136E-17
2.320000E+03	1.735667E-16	8.674904E-17
2.360000E+03	1.682980E-16	8.408770E-17
2.400000E+03	1.622904E-16	8.105791E-17
2.440000E+03	1.556527E-16	7.771458E-17
2.480000E+03	1.485043E-16	7.411769E-17
2.520000E+03	1.409396E-16	7.031473E-17
2.560000E+03	1.330416E-16	6.634754E-17
2.600000E+03	1.249109E-16	6.226659E-17
2.640000E+03	1.166230E-16	5.810986E-17
2.680000E+03	1.082662E-16	5.392158E-17
2.720000E+03	9.991519E-17	4.973912E-17
2.760000E+03	9.165752E-17	4.560627E-17
2.800000E+03	8.356739E-17	4.156004E-17
2.840000E+03	7.572329E-17	3.763950E-17
2.880000E+03	6.819937E-17	3.388150E-17
2.920000E+03	6.106362E-17	3.031971E-17
2.960000E+03	5.437515E-17	2.698333E-17
3.000000E+03	4.818061E-17	2.389529E-17
3.010000E+03	4.671277E-17	2.316384E-17
3.020000E+03	4.527864E-17	2.244929E-17
3.030000E+03	4.387724E-17	2.175117E-17
3.040000E+03	4.251056E-17	2.107044E-17
3.050000E+03	4.117753E-17	2.040657E-17
3.060000E+03	3.987809E-17	1.975953E-17
3.070000E+03	3.861216E-17	1.912927E-17
3.080000E+03	3.738118E-17	1.851649E-17
3.090000E+03	3.618330E-17	1.792028E-17
3.100000E+03	3.501979E-17	1.734126E-17
3.110000E+03	3.388960E-17	1.677890E-17
3.120000E+03	3.279306E-17	1.623336E-17
3.130000E+03	3.172977E-17	1.570443E-17
3.140000E+03	3.069931E-17	1.519190E-17
3.150000E+03	2.970122E-17	1.469555E-17
3.160000E+03	2.873559E-17	1.421540E-17
3.170000E+03	2.780136E-17	1.375092E-17
3.180000E+03	2.689854E-17	1.330211E-17
3.190000E+03	2.602654E-17	1.286869E-17
3.200000E+03	2.518479E-17	1.245035E-17
3.210000E+03	2.437313E-17	1.204700E-17
3.220000E+03	2.359007E-17	1.165792E-17
3.230000E+03	2.283622E-17	1.128339E-17
3.240000E+03	2.210974E-17	1.092251E-17
3.250000E+03	2.141113E-17	1.057550E-17
3.260000E+03	2.073896E-17	1.024166E-17
3.270000E+03	2.009293E-17	9.920836E-18
3.280000E+03	1.947235E-17	9.612680E-18
3.290000E+03	1.887624E-17	9.316699E-18
3.300000E+03	1.830451E-17	9.032847E-18
3.310000E+03	1.775591E-17	8.760500E-18
3.320000E+03	1.722979E-17	8.499330E-18
3.330000E+03	1.672600E-17	8.249261E-18
3.340000E+03	1.624336E-17	8.009710E-18
3.350000E+03	1.578125E-17	7.780354E-18
3.360000E+03	1.533903E-17	7.560885E-18
3.370000E+03	1.491629E-17	7.351092E-18
3.380000E+03	1.451200E-17	7.150458E-18
3.390000E+03	1.412558E-17	6.958697E-18
3.400000E+03	1.375665E-17	6.775614E-18
3.410000E+03	1.340444E-17	6.600833E-18
3.420000E+03	1.306841E-17	6.434076E-18
3.430000E+03	1.274769E-17	6.274917E-18
3.440000E+03	1.244196E-17	6.123187E-18
3.450000E+03	1.215072E-17	5.978639E-18
3.460000E+03	1.187319E-17	5.840888E-18
3.470000E+03	1.160893E-17	5.709714E-18
3.480000E+03	1.135738E-17	5.584836E-18
3.490000E+03	1.111827E-17	5.466117E-18
3.500000E+03	1.089080E-17	5.353164E-18
3.510000E+03	1.067475E-17	5.245863E-18
3.520000E+03	1.046952E-17	5.143914E-18
3.530000E+03	1.027466E-17	5.047097E-18
3.540000E+03	1.008975E-17	4.955204E-18
3.550000E+03	9.914292E-18	4.867982E-18
3.560000E+03	9.748025E-18	4.785304E-18
3.570000E+03	9.590380E-18	4.706887E-18
3.580000E+03	9.441037E-18	4.632572E-18
3.590000E+03	9.299782E-18	4.562251E-18
3.600000E+03	9.166230E-18	4.495733E-18
3.610000E+03	9.040095E-18	4.432876E-18
3.620000E+03	8.921022E-18	4.373503E-18
3.630000E+03	8.808676E-18	4.317448E-18
3.640000E+03	8.702829E-18	4.264598E-18
3.650000E+03	8.603094E-18	4.214760E-18
3.660000E+03	8.509348E-18	4.167873E-18
3.670000E+03	8.421237E-18	4.123761E-18
3.680000E+03	8.338578E-18	4.082333E-18
3.690000E+03	8.261279E-18	4.043542E-18
3.700000E+03	8.189001E-18	4.007222E-18
3.710000E+03	8.121598E-18	3.973298E-18
3.720000E+03	8.059064E-18	3.941766E-18
3.730000E+03	8.001158E-18	3.912507E-18
3.740000E+03	7.947737E-18	3.885449E-18
3.750000E+03	7.898797E-18	3.860589E-18
3.760000E+03	7.854119E-18	3.837819E-18
3.770000E+03	7.813628E-18	3.817099E-18
3.780000E+03	7.777330E-18	3.798433E-18
3.790000E+03	7.745069E-18	3.781742E-18
3.800000E+03	7.716785E-18	3.766995E-18
3.810000E+03	7.692403E-18	3.754155E-18
3.820000E+03	7.671843E-18	3.743181E-18
3.830000E+03	7.655114E-18	3.734076E-18
3.840000E+03	7.642068E-18	3.726767E-18
3.850000E+03	7.632704E-18	3.721251E-18
3.860000E+03	7.627013E-18	3.717524E-18
3.870000E+03	7.624865E-18	3.715519E-18
3.880000E+03	7.626182E-18	3.715199E-18
3.890000E+03	7.631026E-18	3.716592E-18
3.900000E+03	7.639330E-18	3.719664E-18
3.910000E+03	7.650949E-18	3.724343E-18
3.920000E+03	7.665947E-18	3.730658E-18
3.930000E+03	7.684320E-18	3.738607E-18
3.940000E+03	7.705860E-18	3.748088E-18
3.950000E+03	7.730631E-18	3.759129E-18
3.960000E+03	7.758618E-18	3.771723E-18
3.970000E+03	7.789751E-18	3.785833E-18
3.980000E+03	7.823901E-18	3.801397E-18
3.990000E+03	7.861182E-18	3.818468E-18
4.000000E+03	7.901462E-18	3.836981E-18
4.010000E+03	7.944663E-18	3.856897E-18
4.020000E+03	7.990838E-18	3.878240E-18
4.030000E+03	8.039861E-18	3.900947E-18
4.040000E+03	8.091786E-18	3.925045E-18
4.050000E+03	8.146400E-18	3.950427E-18
4.060000E+03	8.203843E-18	3.977162E-18
4.070000E+03	8.263962E-18	4.005173E-18
4.080000E+03	8.326698E-18	4.034431E-18
4.090000E+03	8.392104E-18	4.064960E-18
4.100000E+03	8.459979E-18	4.096662E-18
4.110000E+03	8.530454E-18	4.129598E-18
4.120000E+03	8.603326E-18	4.163671E-18
4.130000E+03	8.678586E-18	4.198873E-18
4.140000E+03	8.756245E-18	4.235210E-18
4.150000E+03	8.836156E-18	4.272609E-18
4.160000E+03	8.918331E-18	4.311074E-18
4.170000E+03	9.002694E-18	4.350569E-18
4.180000E+03	9.089110E-18	4.391027E-18
4.190000E+03	9.177662E-18	4.432486E-18
4.200000E+03	9.268134E-18	4.474841E-18
4.210000E+03	9.360612E-18	4.518135E-18
4.220000E+03	9.454877E-18	4.562258E-18
4.230000E+03	9.550945E-18	4.607218E-18
4.240000E+03	9.648743E-18	4.652979E-18
4.250000E+03	9.748059E-18	4.699439E-18
4.260000E+03	9.848983E-18	4.746639E-18
4.270000E+03	9.951365E-18	4.794505E-18
4.280000E+03	1.005506E-17	4.842972E-18
4.290000E+03	1.015992E-17	4.891959E-18
4.300000E+03	1.026595E-17	4.941475E-18
4.310000E+03	1.037309E-17	4.991488E-18
4.320000E+03	1.048101E-17	5.041835E-18
4.330000E+03	1.058979E-17	5.092561E-18
4.340000E+03	1.069911E-17	5.143508E-18
4.350000E+03	1.080904E-17	5.194711E-18
4.360000E+03	1.091934E-17	5.246051E-18
4.370000E+03	1.103000E-17	5.297521E-18
4.380000E+03	1.114101E-17	5.349125E-18
4.390000E+03	1.125238E-17	5.400861E-18
4.400000E+03	1.136411E-17	5.452727E-18
4.410000E+03	1.147628E-17	5.504770E-18
4.420000E+03	1.158902E-17	5.557039E-18
4.430000E+03	1.170231E-17	5.609533E-18
4.440000E+03	1.181627E-17	5.662308E-18
4.450000E+03	1.193081E-17	5.715321E-18
4.460000E+03	1.204617E-17	5.768679E-18
4.470000E+03	1.216224E-17	5.822342E-18
4.480000E+03	1.227907E-17	5.876321E-18
4.490000E+03	1.239668E-17	5.930631E-18
4.500000E+03	1.251510E-17	5.985286E-18
4.510000E+03	1.263437E-17	6.040303E-18
4.520000E+03	1.275452E-17	6.095700E-18
4.530000E+03	1.287538E-17	6.151388E-18
4.540000E+03	1.299722E-17	6.207497E-18
4.550000E+03	1.311984E-17	6.263936E-18
4.560000E+03	1.324330E-17	6.320731E-18
4.570000E+03	1.336754E-17	6.377850E-18
4.580000E+03	1.349273E-17	6.435373E-18
4.590000E+03	1.361882E-17	6.493275E-18
4.600000E+03	1.374561E-17	6.551467E-18
4.610000E+03	1.387343E-17	6.610099E-18
4.620000E+03	1.400210E-17	6.669086E-18
4.630000E+03	1.413157E-17	6.728407E-18
4.640000E+03	1.426205E-17	6.788153E-18
4.650000E+03	1.439363E-17	6.848372E-18
4.660000E+03	1.452601E-17	6.908921E-18
4.670000E+03	1.465955E-17	6.969972E-18
4.680000E+03	1.479424E-17	7.031509E-18
4.690000E+03	1.493004E-17	7.093526E-18
4.700000E+03	1.506708E-17	7.156073E-18
4.710000E+03	1.520535E-17	7.219150E-18
4.720000E+03	1.534498E-17	7.282817E-18
4.730000E+03	1.548569E-17	7.346938E-18
4.740000E+03	1.562761E-17	7.411576E-18
4.750000E+03	1.577089E-17	7.476804E-18
4.760000E+03	1.591510E-17	7.542409E-18
4.770000E+03	1.606053E-17	7.608534E-18
4.780000E+03	1.620705E-17	7.675111E-18
4.790000E+03	1.635449E-17	7.742063E-18
4.800000E+03	1.650317E-17	7.809540E-18
4.810000E+03	1.665262E-17	7.877323E-18
4.820000E+03	1.680333E-17	7.945633E-18
4.830000E+03	1.695481E-17	8.014246E-18
4.840000E+03	1.710740E-17	8.083314E-18
4.850000E+03	1.726075E-17	8.152677E-18
4.860000E+03	1.741519E-17	8.222491E-18
4.870000E+03	1.757038E-17	8.292589E-18
4.880000E+03	1.772648E-17	8.363047E-18
4.890000E+03	1.788347E-17	8.433855E-18
4.900000E+03	1.804115E-17	8.504923E-18
4.910000E+03	1.819949E-17	8.576229E-18
4.920000E+03	1.835845E-17	8.647758E-18
4.930000E+03	1.851818E-17	8.719575E-18
4.940000E+03	1.867825E-17	8.791482E-18
4.950000E+03	1.883897E-17	8.863622E-18
4.960000E+03	1.899991E-17	8.935790E-18
4.970000E+03	1.916116E-17	9.008029E-18
4.980000E+03	1.932245E-17	9.080214E-18
4.990000E+03	1.948366E-17	9.152287E-18
5.000000E+03	1.964468E-17	9.224195E-18
5.010000E+03	1.980557E-17	9.295964E-18
5.020000E+03	1.996579E-17	9.367343E-18
5.030000E+03	2.012537E-17	9.438345E-18
5.040000E+03	2.028394E-17	9.508796E-18
5.050000E+03	2.044149E-17	9.578696E-18
5.060000E+03	2.059763E-17	9.647854E-18
5.070000E+03	2.075191E-17	9.716067E-18
5.080000E+03	2.090429E-17	9.783314E-18
5.090000E+03	2.105452E-17	9.849474E-18
5.100000E+03	2.120210E-17	9.914325E-18
5.110000E+03	2.134653E-17	9.977625E-18
5.120000E+03	2.148792E-17	1.003943E-17
5.130000E+03	2.162554E-17	1.009940E-17
5.140000E+03	2.175903E-17	1.015738E-17
5.150000E+03	2.188805E-17	1.021319E-17
5.160000E+03	2.201225E-17	1.026669E-17
5.170000E+03	2.213104E-17	1.031759E-17
5.180000E+03	2.224426E-17	1.036584E-17
5.190000E+03	2.235110E-17	1.041104E-17
5.200000E+03	2.245139E-17	1.045313E-17
5.210000E+03	2.254432E-17	1.049174E-17
5.220000E+03	2.262994E-17	1.052689E-17
5.230000E+03	2.270744E-17	1.055821E-17
5.240000E+03	2.277668E-17	1.058565E-17
5.250000E+03	2.283688E-17	1.060883E-17
5.260000E+03	2.288792E-17	1.062772E-17
5.270000E+03	2.292950E-17	1.064217E-17
5.280000E+03	2.296091E-17	1.065186E-17
5.290000E+03	2.298187E-17	1.065668E-17
5.300000E+03	2.299242E-17	1.065665E-17
5.310000E+03	2.299217E-17	1.065159E-17
5.320000E+03	2.298078E-17	1.064135E-17
5.330000E+03	2.295818E-17	1.062590E-17
5.340000E+03	2.292437E-17	1.060526E-17
5.350000E+03	2.287941E-17	1.057946E-17
5.360000E+03	2.282320E-17	1.054846E-17
5.370000E+03	2.275617E-17	1.051247E-17
5.380000E+03	2.267835E-17	1.047150E-17
5.390000E+03	2.259031E-17	1.042583E-17
5.400000E+03	2.249224E-17	1.037556E-17
5.410000E+03	2.238509E-17	1.032112E-17
5.420000E+03	2.226961E-17	1.026287E-17
5.430000E+03	2.214623E-17	1.020102E-17
5.440000E+03	2.201628E-17	1.013618E-17
5.450000E+03	2.188051E-17	1.006870E-17
5.460000E+03	2.173883E-17	9.998540E-18
5.470000E+03	2.159276E-17	9.926406E-18
5.480000E+03	2.144273E-17	9.852509E-18
5.490000E+03	2.128926E-17	9.777077E-18
5.500000E+03	2.113308E-17	9.700455E-18
5.510000E+03	2.097475E-17	9.622903E-18
5.520000E+03	2.081485E-17	9.544684E-18
5.530000E+03	2.065439E-17	9.466264E-18
5.540000E+03	2.049393E-17	9.387903E-18
5.550000E+03	2.033468E-17	9.310153E-18
5.560000E+03	2.017759E-17	9.233447E-18
5.570000E+03	2.002338E-17	9.158117E-18
5.580000E+03	1.987313E-17	9.084656E-18
5.590000E+03	1.972769E-17	9.013446E-18
5.600000E+03	1.958786E-17	8.944850E-18
5.610000E+03	1.945457E-17	8.879285E-18
5.620000E+03	1.932849E-17	8.817059E-18
5.630000E+03	1.921024E-17	8.758447E-18
5.640000E+03	1.910059E-17	8.703796E-18
5.650000E+03	1.900002E-17	8.653321E-18
5.660000E+03	1.890920E-17	8.607309E-18
5.670000E+03	1.882849E-17	8.565929E-18
5.680000E+03	1.875822E-17	8.529320E-18
5.690000E+03	1.869888E-17	8.497694E-18
5.700000E+03	1.865069E-17	8.471149E-18
5.710000E+03	1.861385E-17	8.449763E-18
5.720000E+03	1.858870E-17	8.433685E-18
5.730000E+03	1.857537E-17	8.422958E-18
5.740000E+03	1.857413E-17	8.417705E-18
5.750000E+03	1.858485E-17	8.417853E-18
5.760000E+03	1.860798E-17	8.423596E-18
5.770000E+03	1.864333E-17	8.434843E-18
5.780000E+03	1.869093E-17	8.451596E-18
5.790000E+03	1.875118E-17	8.474023E-18
5.800000E+03	1.882367E-17	8.501935E-18
5.810000E+03	1.890881E-17	8.535498E-18
5.820000E+03	1.900657E-17	8.574701E-18
5.830000E+03	1.911695E-17	8.619525E-18
5.840000E+03	1.923973E-17	8.669861E-18
5.850000E+03	1.937530E-17	8.725881E-18
5.860000E+03	1.952343E-17	8.787466E-18
5.870000E+03	1.968432E-17	8.854696E-18
5.880000E+03	1.985793E-17	8.927544E-18
5.890000E+03	2.004401E-17	9.005890E-18
5.900000E+03	2.024274E-17	9.089798E-18
5.910000E+03	2.045429E-17	9.179340E-18
5.920000E+03	2.067814E-17	9.274270E-18
5.930000E+03	2.091444E-17	9.374640E-18
5.940000E+03	2.116308E-17	9.480399E-18
5.950000E+03	2.142419E-17	9.591588E-18
5.960000E+03	2.169713E-17	9.707916E-18
5.970000E+03	2.198223E-17	9.829515E-18
5.980000E+03	2.227879E-17	9.956068E-18
5.990000E+03	2.258685E-17	1.008757E-17
6.000000E+03	2.290612E-17	1.022390E-17
6.010000E+03	2.323607E-17	1.036480E-17
6.020000E+03	2.357661E-17	1.051022E-17
6.030000E+03	2.392685E-17	1.065976E-17
6.040000E+03	2.428691E-17	1.081346E-17
6.050000E+03	2.465549E-17	1.097074E-17
6.060000E+03	2.503268E-17	1.113163E-17
6.070000E+03	2.541735E-17	1.129561E-17
6.080000E+03	2.580923E-17	1.146256E-17
6.090000E+03	2.620709E-17	1.163193E-17
6.100000E+03	2.661026E-17	1.180342E-17
6.110000E+03	2.701773E-17	1.197657E-17
6.120000E+03	2.742878E-17	1.215106E-17
6.130000E+03	2.784198E-17	1.232625E-17
6.140000E+03	2.825618E-17	1.250164E-17
6.150000E+03	2.867057E-17	1.267685E-17
6.160000E+03	2.908394E-17	1.285137E-17
6.170000E+03	2.949438E-17	1.302434E-17
6.180000E+03	2.990098E-17	1.319536E-17
6.190000E+03	3.030246E-17	1.336388E-17
6.200000E+03	3.069796E-17	1.352951E-17
6.210000E+03	3.108697E-17	1.369205E-17
6.220000E+03	3.146908E-17	1.385131E-17
6.230000E+03	3.184432E-17	1.400731E-17
6.240000E+03	3.221366E-17	1.416048E-17
6.250000E+03	3.257696E-17	1.431078E-17
6.260000E+03	3.293372E-17	1.445797E-17
6.270000E+03	3.328522E-17	1.460264E-17
6.280000E+03	3.363158E-17	1.474484E-17
6.290000E+03	3.397209E-17	1.488426E-17
6.300000E+03	3.430836E-17	1.502160E-17
6.310000E+03	3.463933E-17	1.515642E-17
6.320000E+03	3.496630E-17	1.528928E-17
6.330000E+03	3.528878E-17	1.541998E-17
6.340000E+03	3.560726E-17	1.554873E-17
6.350000E+03	3.592177E-17	1.567554E-17
6.360000E+03	3.623239E-17	1.580046E-17
6.370000E+03	3.653923E-17	1.592353E-17
6.380000E+03	3.684188E-17	1.604458E-17
6.390000E+03	3.713992E-17	1.616344E-17
6.400000E+03	3.743401E-17	1.628038E-17
6.410000E+03	3.772321E-17	1.639501E-17
6.420000E+03	3.800819E-17	1.650762E-17
6.430000E+03	3.828852E-17	1.661803E-17
6.440000E+03	3.856434E-17	1.672630E-17
6.450000E+03	3.883635E-17	1.683275E-17
6.460000E+03	3.910588E-17	1.693794E-17
6.470000E+03	3.937314E-17	1.704198E-17
6.480000E+03	3.963895E-17	1.714521E-17
6.490000E+03	3.990414E-17	1.724800E-17
6.500000E+03	4.016836E-17	1.735020E-17
6.510000E+03	4.043309E-17	1.745244E-17
6.520000E+03	4.069860E-17	1.755486E-17
6.530000E+03	4.096454E-17	1.765728E-17
6.540000E+03	4.123244E-17	1.776037E-17
6.550000E+03	4.150193E-17	1.786397E-17
6.560000E+03	4.177261E-17	1.796791E-17
6.570000E+03	4.204602E-17	1.807284E-17
6.580000E+03	4.232177E-17	1.817860E-17
6.590000E+03	4.260006E-17	1.828527E-17
6.600000E+03	4.288181E-17	1.839325E-17
6.610000E+03	4.316584E-17	1.850202E-17
6.620000E+03	4.345231E-17	1.861165E-17
6.630000E+03	4.374280E-17	1.872281E-17
6.640000E+03	4.403604E-17	1.883497E-17
6.650000E+03	4.433215E-17	1.894816E-17
6.660000E+03	4.463199E-17	1.906275E-17
6.670000E+03	4.493490E-17	1.917846E-17
6.680000E+03	4.524095E-17	1.929532E-17
6.690000E+03	4.555099E-17	1.941368E-17
6.700000E+03	4.586350E-17	1.953289E-17
6.710000E+03	4.617847E-17	1.965295E-17
6.720000E+03	4.649751E-17	1.977454E-17
6.730000E+03	4.681899E-17	1.989697E-17
6.740000E+03	4.714287E-17	2.002021E-17
6.750000E+03	4.746993E-17	2.014460E-17
6.760000E+03	4.779925E-17	2.026974E-17
6.770000E+03	4.813076E-17	2.039559E-17
6.780000E+03	4.846435E-17	2.052213E-17
6.790000E+03	4.879990E-17	2.064928E-17
6.800000E+03	4.913640E-17	2.077663E-17
6.810000E+03	4.947458E-17	2.090448E-17
6.820000E+03	4.981428E-17	2.103276E-17
6.830000E+03	5.015445E-17	2.116103E-17
6.840000E+03	5.049583E-17	2.128960E-17
6.850000E+03	5.083729E-17	2.141800E-17
6.860000E+03	5.117865E-17	2.154615E-17
6.870000E+03	5.151971E-17	2.167396E-17
6.880000E+03	5.185928E-17	2.180095E-17
6.890000E+03	5.219909E-17	2.192783E-17
6.900000E+03	5.253796E-17	2.205411E-17
6.910000E+03	5.287471E-17	2.217931E-17
6.920000E+03	5.321009E-17	2.230373E-17
6.930000E+03	5.354290E-17	2.242688E-17
6.940000E+03	5.387293E-17	2.254867E-17
6.950000E+03	5.420099E-17	2.266945E-17
6.960000E+03	5.452585E-17	2.278870E-17
6.970000E+03	5.484735E-17	2.290637E-17
6.980000E+03	5.516528E-17	2.302236E-17
6.990000E+03	5.547949E-17	2.313663E-17
7.000000E+03	5.578874E-17	2.324865E-17
7.010000E+03	5.609506E-17	2.335929E-17
7.020000E+03	5.639616E-17	2.346759E-17
7.030000E+03	5.669192E-17	2.357351E-17
7.040000E+03	5.698336E-17	2.367748E-17
7.050000E+03	5.726931E-17	2.377902E-17
7.060000E+03	5.754971E-17	2.387811E-17
7.070000E+03	5.782452E-17	2.397475E-17
7.080000E+03	5.809377E-17	2.406894E-17
7.090000E+03	5.835863E-17	2.416118E-17
7.100000E+03	5.861681E-17	2.425055E-17
7.110000E+03	5.886837E-17	2.433705E-17
7.120000E+03	5.911456E-17	2.442122E-17
7.130000E+03	5.935551E-17	2.450312E-17
7.140000E+03	5.959013E-17	2.458231E-17
7.150000E+03	5.981976E-17	2.465934E-17
7.160000E+03	6.004212E-17	2.473329E-17
7.170000E+03	6.025982E-17	2.480524E-17
7.180000E+03	6.047181E-17	2.487475E-17
7.190000E+03	6.067824E-17	2.494191E-17
7.200000E+03	6.087805E-17	2.500629E-17
7.210000E+03	6.107391E-17	2.506898E-17
7.220000E+03	6.126350E-17	2.512904E-17
7.230000E+03	6.144823E-17	2.518706E-17
7.240000E+03	6.162697E-17	2.524258E-17
7.250000E+03	6.180119E-17	2.529622E-17
7.260000E+03	6.196971E-17	2.534749E-17
7.270000E+03	6.213266E-17	2.539645E-17
7.280000E+03	6.229144E-17	2.544369E-17
7.290000E+03	6.244481E-17	2.548870E-17
7.300000E+03	6.259424E-17	2.553210E-17
7.310000E+03	6.273713E-17	2.557282E-17
7.320000E+03	6.287490E-17	2.561146E-17
7.330000E+03	6.300890E-17	2.564858E-17
7.340000E+03	6.313652E-17	2.568311E-17
7.350000E+03	6.325918E-17	2.571563E-17
7.360000E+03	6.337557E-17	2.574564E-17
7.370000E+03	6.348716E-17	2.577373E-17
7.380000E+03	6.359258E-17	2.579935E-17
7.390000E+03	6.369196E-17	2.582257E-17
7.400000E+03	6.378546E-17	2.584345E-17
7.410000E+03	6.387172E-17	2.586145E-17
7.420000E+03	6.395096E-17	2.587667E-17
7.430000E+03	6.402324E-17	2.588915E-17
7.440000E+03	6.408880E-17	2.589898E-17
7.450000E+03	6.414925E-17	2.590684E-17
7.460000E+03	6.420333E-17	2.591220E-17
7.470000E+03	6.425427E-17	2.591640E-17
7.480000E+03	6.430226E-17	2.591950E-17
7.490000E+03	6.434754E-17	2.592162E-17
7.500000E+03	6.439036E-17	2.592285E-17
7.510000E+03	6.443096E-17	2.592330E-17
7.520000E+03	6.447235E-17	2.592417E-17
7.530000E+03	6.451170E-17	2.592435E-17
7.540000E+03	6.455045E-17	2.592441E-17
7.550000E+03	6.458855E-17	2.592431E-17
7.560000E+03	6.462754E-17	2.592470E-17
7.570000E+03	6.466424E-17	2.592429E-17
7.580000E+03	6.470014E-17	2.592367E-17
7.590000E+03	6.473519E-17	2.592282E-17
7.600000E+03	6.477081E-17	2.592233E-17
7.610000E+03	6.480388E-17	2.592092E-17
7.620000E+03	6.483739E-17	2.591982E-17
7.630000E+03	6.486972E-17	2.591835E-17
7.640000E+03	6.489929E-17	2.591590E-17
7.650000E+03	6.492905E-17	2.591364E-17
7.660000E+03	6.495749E-17	2.591097E-17
7.670000E+03	6.498441E-17	2.590782E-17
7.680000E+03	6.500982E-17	2.590418E-17
7.690000E+03	6.503365E-17	2.590002E-17
7.700000E+03	6.505576E-17	2.589530E-17
7.710000E+03	6.507766E-17	2.589061E-17
7.720000E+03	6.509608E-17	2.588466E-17
7.730000E+03	6.511410E-17	2.587866E-17
7.740000E+03	6.512995E-17	2.587192E-17
7.750000E+03	6.514350E-17	2.586438E-17
7.760000E+03	6.515467E-17	2.585603E-17
