#wls	flux	fluxerr
1.600000E+03	-1.036979E-16	-3.970924E-17
1.640000E+03	-1.065662E-16	-4.050801E-17
1.680000E+03	-1.094749E-16	-4.130604E-17
1.720000E+03	-1.124588E-16	-4.211599E-17
1.760000E+03	-1.154983E-16	-4.293002E-17
1.800000E+03	-1.181534E-16	-4.356330E-17
1.840000E+03	-1.208557E-16	-4.419813E-17
1.880000E+03	-1.235908E-16	-4.482883E-17
1.920000E+03	-1.263526E-16	-4.545296E-17
1.960000E+03	-1.285981E-16	-4.585170E-17
2.000000E+03	-1.308174E-16	-4.622708E-17
2.040000E+03	-1.330102E-16	-4.657920E-17
2.080000E+03	-1.351299E-16	-4.689223E-17
2.120000E+03	-1.364938E-16	-4.690485E-17
2.160000E+03	-1.376962E-16	-4.685354E-17
2.200000E+03	-1.386873E-16	-4.672307E-17
2.240000E+03	-1.394011E-16	-4.649363E-17
2.280000E+03	-1.391008E-16	-4.589631E-17
2.320000E+03	-1.385162E-16	-4.520854E-17
2.360000E+03	-1.376993E-16	-4.445016E-17
2.400000E+03	-1.367023E-16	-4.364025E-17
2.440000E+03	-1.347449E-16	-4.250652E-17
2.480000E+03	-1.327049E-16	-4.136196E-17
2.520000E+03	-1.305979E-16	-4.021236E-17
2.560000E+03	-1.284570E-16	-3.906851E-17
2.600000E+03	-1.253886E-16	-3.763619E-17
2.640000E+03	-1.223136E-16	-3.622648E-17
2.680000E+03	-1.192303E-16	-3.483894E-17
2.720000E+03	-1.161421E-16	-3.347469E-17
2.760000E+03	-1.120894E-16	-3.183775E-17
2.800000E+03	-1.080519E-16	-3.023906E-17
2.840000E+03	-1.040356E-16	-2.868014E-17
2.880000E+03	-1.000449E-16	-2.716186E-17
2.920000E+03	-9.519315E-17	-2.542943E-17
2.960000E+03	-9.042960E-17	-2.376260E-17
3.000000E+03	-8.577099E-17	-2.216452E-17
3.010000E+03	-8.462400E-17	-2.177591E-17
3.020000E+03	-8.334982E-17	-2.135504E-17
3.030000E+03	-8.208481E-17	-2.093937E-17
3.040000E+03	-8.083062E-17	-2.052927E-17
3.050000E+03	-7.958535E-17	-2.012422E-17
3.060000E+03	-7.828371E-17	-1.970684E-17
3.070000E+03	-7.699484E-17	-1.929560E-17
3.080000E+03	-7.571532E-17	-1.888961E-17
3.090000E+03	-7.444819E-17	-1.848958E-17
3.100000E+03	-7.312615E-17	-1.807798E-17
3.110000E+03	-7.181542E-17	-1.767219E-17
3.120000E+03	-7.051863E-17	-1.727280E-17
3.130000E+03	-6.923277E-17	-1.687903E-17
3.140000E+03	-6.789324E-17	-1.647440E-17
3.150000E+03	-6.656643E-17	-1.607592E-17
3.160000E+03	-6.525336E-17	-1.568381E-17
3.170000E+03	-6.395266E-17	-1.529767E-17
3.180000E+03	-6.259932E-17	-1.490131E-17
3.190000E+03	-6.126001E-17	-1.451142E-17
3.200000E+03	-5.993357E-17	-1.412767E-17
3.210000E+03	-5.862098E-17	-1.375025E-17
3.220000E+03	-5.725679E-17	-1.336323E-17
3.230000E+03	-5.590603E-17	-1.298253E-17
3.240000E+03	-5.457058E-17	-1.260853E-17
3.250000E+03	-5.324844E-17	-1.224072E-17
3.260000E+03	-5.187552E-17	-1.186386E-17
3.270000E+03	-5.051643E-17	-1.149340E-17
3.280000E+03	-4.917185E-17	-1.112943E-17
3.290000E+03	-4.784233E-17	-1.077203E-17
3.300000E+03	-4.645979E-17	-1.040545E-17
3.310000E+03	-4.509238E-17	-1.004553E-17
3.320000E+03	-4.373834E-17	-9.691829E-18
3.330000E+03	-4.239806E-17	-9.344385E-18
3.340000E+03	-4.100372E-17	-8.987908E-18
3.350000E+03	-3.962304E-17	-8.637754E-18
3.360000E+03	-3.825555E-17	-8.293772E-18
3.370000E+03	-3.690026E-17	-7.955703E-18
3.380000E+03	-3.548882E-17	-7.608543E-18
3.390000E+03	-3.408935E-17	-7.267344E-18
3.400000E+03	-3.270133E-17	-6.931953E-18
3.410000E+03	-3.132380E-17	-6.602127E-18
3.420000E+03	-2.988772E-17	-6.263123E-18
3.430000E+03	-2.846168E-17	-5.929702E-18
3.440000E+03	-2.704472E-17	-5.601629E-18
3.450000E+03	-2.563629E-17	-5.278754E-18
3.460000E+03	-2.416651E-17	-4.946576E-18
3.470000E+03	-2.270398E-17	-4.619465E-18
3.480000E+03	-2.124835E-17	-4.297327E-18
3.490000E+03	-1.979872E-17	-3.979953E-18
3.500000E+03	-1.828414E-17	-3.653029E-18
3.510000E+03	-1.677450E-17	-3.330810E-18
3.520000E+03	-1.526875E-17	-3.013067E-18
3.530000E+03	-1.376625E-17	-2.699661E-18
3.540000E+03	-1.219520E-17	-2.376521E-18
3.550000E+03	-1.062624E-17	-2.057665E-18
3.560000E+03	-9.058608E-18	-1.742933E-18
3.570000E+03	-7.491548E-18	-1.432179E-18
3.580000E+03	-5.852293E-18	-1.111554E-18
3.590000E+03	-4.212677E-18	-7.949194E-19
3.600000E+03	-2.571992E-18	-4.821435E-19
3.610000E+03	-9.296506E-19	-1.731208E-19
3.620000E+03	7.869943E-19	1.455786E-19
3.630000E+03	2.506016E-18	4.604544E-19
3.640000E+03	4.227866E-18	7.715803E-19
3.650000E+03	5.953002E-18	1.079029E-18
3.660000E+03	7.747753E-18	1.394714E-18
3.670000E+03	9.546105E-18	1.706583E-18
3.680000E+03	1.134820E-17	2.014647E-18
3.690000E+03	1.315441E-17	2.318957E-18
3.700000E+03	1.502236E-17	2.629582E-18
3.710000E+03	1.689432E-17	2.936262E-18
3.720000E+03	1.877029E-17	3.238979E-18
3.730000E+03	2.065074E-17	3.537801E-18
3.740000E+03	2.258431E-17	3.841014E-18
3.750000E+03	2.452191E-17	4.140106E-18
3.760000E+03	2.646356E-17	4.435066E-18
3.770000E+03	2.840947E-17	4.725914E-18
3.780000E+03	3.039979E-17	5.019359E-18
3.790000E+03	3.239411E-17	5.308532E-18
3.800000E+03	3.439201E-17	5.593348E-18
3.810000E+03	3.639391E-17	5.873862E-18
3.820000E+03	3.843120E-17	6.155291E-18
3.830000E+03	4.047196E-17	6.432248E-18
3.840000E+03	4.251627E-17	6.704731E-18
3.850000E+03	4.456376E-17	6.972670E-18
3.860000E+03	4.663739E-17	7.239977E-18
3.870000E+03	4.871417E-17	7.502688E-18
3.880000E+03	5.079361E-17	7.760716E-18
3.890000E+03	5.287604E-17	8.014099E-18
3.900000E+03	5.497421E-17	8.265318E-18
3.910000E+03	5.707464E-17	8.511773E-18
3.920000E+03	5.917659E-17	8.753348E-18
3.930000E+03	6.128078E-17	8.990141E-18
3.940000E+03	6.338985E-17	9.223382E-18
3.950000E+03	6.550005E-17	9.451716E-18
3.960000E+03	6.761043E-17	9.675001E-18
3.970000E+03	6.972046E-17	9.893163E-18
3.980000E+03	7.182464E-17	1.010664E-17
3.990000E+03	7.392686E-17	1.031485E-17
4.000000E+03	7.602704E-17	1.051779E-17
4.010000E+03	7.812441E-17	1.071537E-17
4.020000E+03	8.020297E-17	1.090707E-17
4.030000E+03	8.227662E-17	1.109327E-17
4.040000E+03	8.434439E-17	1.127385E-17
4.050000E+03	8.640591E-17	1.144878E-17
4.060000E+03	8.843522E-17	1.161688E-17
4.070000E+03	9.045426E-17	1.177902E-17
4.080000E+03	9.246400E-17	1.193534E-17
4.090000E+03	9.446164E-17	1.208554E-17
4.100000E+03	9.641186E-17	1.222803E-17
4.110000E+03	9.834689E-17	1.236428E-17
4.120000E+03	1.002660E-16	1.249425E-17
4.130000E+03	1.021677E-16	1.261779E-17
4.140000E+03	1.040049E-16	1.273288E-17
4.150000E+03	1.058204E-16	1.284137E-17
4.160000E+03	1.076123E-16	1.294312E-17
4.170000E+03	1.093797E-16	1.303809E-17
4.180000E+03	1.110658E-16	1.312421E-17
4.190000E+03	1.127218E-16	1.320332E-17
4.200000E+03	1.143458E-16	1.327528E-17
4.210000E+03	1.159358E-16	1.333995E-17
4.220000E+03	1.174261E-16	1.339559E-17
4.230000E+03	1.188774E-16	1.344387E-17
4.240000E+03	1.202878E-16	1.348468E-17
4.250000E+03	1.216541E-16	1.351781E-17
4.260000E+03	1.229015E-16	1.354190E-17
4.270000E+03	1.241000E-16	1.355831E-17
4.280000E+03	1.252473E-16	1.356695E-17
4.290000E+03	1.263415E-16	1.356773E-17
4.300000E+03	1.272960E-16	1.355961E-17
4.310000E+03	1.281928E-16	1.354372E-17
4.320000E+03	1.290278E-16	1.351978E-17
4.330000E+03	1.297988E-16	1.348773E-17
4.340000E+03	1.304128E-16	1.344746E-17
4.350000E+03	1.309600E-16	1.339936E-17
4.360000E+03	1.314354E-16	1.334308E-17
4.370000E+03	1.318391E-16	1.327882E-17
4.380000E+03	1.320740E-16	1.320757E-17
4.390000E+03	1.322356E-16	1.312869E-17
4.400000E+03	1.323247E-16	1.304243E-17
4.410000E+03	1.323415E-16	1.294896E-17
4.420000E+03	1.321970E-16	1.285133E-17
4.430000E+03	1.319817E-16	1.274703E-17
4.440000E+03	1.316982E-16	1.263647E-17
4.450000E+03	1.313462E-16	1.251972E-17
4.460000E+03	1.308449E-16	1.240166E-17
4.470000E+03	1.302803E-16	1.227815E-17
4.480000E+03	1.296499E-16	1.214908E-17
4.490000E+03	1.289581E-16	1.201496E-17
4.500000E+03	1.281327E-16	1.188219E-17
4.510000E+03	1.272490E-16	1.174476E-17
4.520000E+03	1.263073E-16	1.160275E-17
4.530000E+03	1.253090E-16	1.145640E-17
4.540000E+03	1.241979E-16	1.131394E-17
4.550000E+03	1.230331E-16	1.116735E-17
4.560000E+03	1.218186E-16	1.101703E-17
4.570000E+03	1.205542E-16	1.086301E-17
4.580000E+03	1.191960E-16	1.071438E-17
4.590000E+03	1.177934E-16	1.056238E-17
4.600000E+03	1.163488E-16	1.040724E-17
4.610000E+03	1.148632E-16	1.024907E-17
4.620000E+03	1.133040E-16	1.009669E-17
4.630000E+03	1.117088E-16	9.941458E-18
4.640000E+03	1.100799E-16	9.783605E-18
4.650000E+03	1.084196E-16	9.623355E-18
4.660000E+03	1.067101E-16	9.469249E-18
4.670000E+03	1.049740E-16	9.312867E-18
4.680000E+03	1.032131E-16	9.154348E-18
4.690000E+03	1.014287E-16	8.993836E-18
4.700000E+03	9.962041E-17	8.839821E-18
4.710000E+03	9.779321E-17	8.683897E-18
4.720000E+03	9.594883E-17	8.526212E-18
4.730000E+03	9.408903E-17	8.366922E-18
4.740000E+03	9.222724E-17	8.214226E-18
4.750000E+03	9.035266E-17	8.059870E-18
4.760000E+03	8.846710E-17	7.904009E-18
4.770000E+03	8.657240E-17	7.746802E-18
4.780000E+03	8.469590E-17	7.596294E-18
4.790000E+03	8.281245E-17	7.444386E-18
4.800000E+03	8.092235E-17	7.291105E-18
4.810000E+03	7.902913E-17	7.136762E-18
4.820000E+03	7.717128E-17	6.989187E-18
4.830000E+03	7.531102E-17	6.840417E-18
4.840000E+03	7.345029E-17	6.690626E-18
4.850000E+03	7.158964E-17	6.539866E-18
4.860000E+03	6.977949E-17	6.396033E-18
4.870000E+03	6.797097E-17	6.251228E-18
4.880000E+03	6.616678E-17	6.105702E-18
4.890000E+03	6.436702E-17	5.959468E-18
4.900000E+03	6.262890E-17	5.820241E-18
4.910000E+03	6.089618E-17	5.680307E-18
4.920000E+03	5.917154E-17	5.539922E-18
4.930000E+03	5.745636E-17	5.399225E-18
4.940000E+03	5.581047E-17	5.265560E-18
4.950000E+03	5.417325E-17	5.131468E-18
4.960000E+03	5.254722E-17	4.997200E-18
4.970000E+03	5.093480E-17	4.863002E-18
4.980000E+03	4.939606E-17	4.735786E-18
4.990000E+03	4.786904E-17	4.608463E-18
5.000000E+03	4.635610E-17	4.481274E-18
5.010000E+03	4.485899E-17	4.354407E-18
5.020000E+03	4.343800E-17	4.234486E-18
5.030000E+03	4.203097E-17	4.114743E-18
5.040000E+03	4.063956E-17	3.995358E-18
5.050000E+03	3.926528E-17	3.876503E-18
5.060000E+03	3.796783E-17	3.764541E-18
5.070000E+03	3.668521E-17	3.652944E-18
5.080000E+03	3.541920E-17	3.541907E-18
5.090000E+03	3.417038E-17	3.431513E-18
5.100000E+03	3.299717E-17	3.327885E-18
5.110000E+03	3.183886E-17	3.224746E-18
5.120000E+03	3.069666E-17	3.122241E-18
5.130000E+03	2.957168E-17	3.020503E-18
5.140000E+03	2.851934E-17	2.925305E-18
5.150000E+03	2.748135E-17	2.830669E-18
5.160000E+03	2.645901E-17	2.736745E-18
5.170000E+03	2.545266E-17	2.643594E-18
5.180000E+03	2.451370E-17	2.556568E-18
5.190000E+03	2.358823E-17	2.470138E-18
5.200000E+03	2.267704E-17	2.384410E-18
5.210000E+03	2.178087E-17	2.299478E-18
5.220000E+03	2.094506E-17	2.220085E-18
5.230000E+03	2.012158E-17	2.141289E-18
5.240000E+03	1.931146E-17	2.063215E-18
5.250000E+03	1.851467E-17	1.985878E-18
5.260000E+03	1.777220E-17	1.913595E-18
5.270000E+03	1.704107E-17	1.841913E-18
5.280000E+03	1.632190E-17	1.770917E-18
5.290000E+03	1.561492E-17	1.700646E-18
5.300000E+03	1.495686E-17	1.634989E-18
5.310000E+03	1.430919E-17	1.569933E-18
5.320000E+03	1.367192E-17	1.505495E-18
5.330000E+03	1.304543E-17	1.441730E-18
5.337210E+03	4.966989E-17	5.503382E-18
5.338211E+03	4.956807E-17	5.494048E-18
5.338411E+03	4.964834E-17	5.503334E-18
5.338811E+03	4.967732E-17	5.507326E-18
5.339811E+03	4.956467E-17	5.496772E-18
5.341011E+03	4.940607E-17	5.481497E-18
5.341211E+03	4.947592E-17	5.489633E-18
5.341411E+03	4.954320E-17	5.497485E-18
5.342011E+03	4.952393E-17	5.496503E-18
5.342211E+03	4.959143E-17	5.504382E-18
5.342411E+03	4.965482E-17	5.511804E-18
5.342611E+03	4.972267E-17	5.519723E-18
5.343012E+03	4.973507E-17	5.521875E-18
5.344812E+03	4.941353E-17	5.489631E-18
5.345212E+03	4.942148E-17	5.491282E-18
5.347012E+03	4.909333E-17	5.458253E-18
5.347212E+03	4.914488E-17	5.464364E-18
5.348413E+03	4.895579E-17	5.445614E-18
5.349812E+03	4.871592E-17	5.421568E-18
5.350412E+03	4.866549E-17	5.417086E-18
5.350612E+03	4.870840E-17	5.422239E-18
5.350812E+03	4.875033E-17	5.427283E-18
5.351012E+03	4.878985E-17	5.432059E-18
5.351212E+03	4.882770E-17	5.436650E-18
5.351412E+03	4.886171E-17	5.440814E-18
5.351612E+03	4.889331E-17	5.444709E-18
5.351812E+03	4.892401E-17	5.448505E-18
5.352212E+03	4.890395E-17	5.447026E-18
5.352612E+03	4.888301E-17	5.445446E-18
5.353012E+03	4.886024E-17	5.443663E-18
5.353412E+03	4.883500E-17	5.441603E-18
5.353612E+03	4.885732E-17	5.444466E-18
5.353813E+03	4.887716E-17	5.447055E-18
5.354013E+03	4.889560E-17	5.449486E-18
5.354213E+03	4.891244E-17	5.451739E-18
5.355413E+03	4.868384E-17	5.428505E-18
5.356013E+03	4.860281E-17	5.420590E-18
5.356213E+03	4.861381E-17	5.422189E-18
5.356413E+03	4.862104E-17	5.423370E-18
5.356813E+03	4.858146E-17	5.419700E-18
5.357213E+03	4.854334E-17	5.416191E-18
5.357613E+03	4.850130E-17	5.412244E-18
5.358813E+03	4.825815E-17	5.387329E-18
5.359013E+03	4.825732E-17	5.387606E-18
5.359614E+03	4.816359E-17	5.378247E-18
5.360014E+03	4.811790E-17	5.373881E-18
5.360214E+03	4.811819E-17	5.374281E-18
5.361614E+03	4.781833E-17	5.343347E-18
5.362213E+03	4.771423E-17	5.332804E-18
5.362413E+03	4.769986E-17	5.331562E-18
5.363013E+03	4.758809E-17	5.320157E-18
5.363613E+03	4.747332E-17	5.308411E-18
5.363813E+03	4.745386E-17	5.306596E-18
5.364413E+03	4.734123E-17	5.295081E-18
5.364614E+03	4.732690E-17	5.293839E-18
5.365814E+03	4.705781E-17	5.265886E-18
5.366414E+03	4.693536E-17	5.253253E-18
5.366614E+03	4.690785E-17	5.250529E-18
5.366814E+03	4.688510E-17	5.248339E-18
5.367614E+03	4.671667E-17	5.230901E-18
5.368414E+03	4.654727E-17	5.213343E-18
5.368614E+03	4.652228E-17	5.210896E-18
5.369614E+03	4.630013E-17	5.187765E-18
5.369814E+03	4.627157E-17	5.184916E-18
5.370015E+03	4.624083E-17	5.181822E-18
5.370415E+03	4.616003E-17	5.173464E-18
5.371015E+03	4.602757E-17	5.159662E-18
5.371215E+03	4.599217E-17	5.156041E-18
5.371815E+03	4.585658E-17	5.141878E-18
5.372015E+03	4.581716E-17	5.137803E-18
5.372215E+03	4.577638E-17	5.133575E-18
5.372815E+03	4.563391E-17	5.118630E-18
5.373815E+03	4.539110E-17	5.093102E-18
5.374214E+03	4.529315E-17	5.082791E-18
5.374414E+03	4.524444E-17	5.077666E-18
5.374614E+03	4.518383E-17	5.071204E-18
5.374814E+03	4.512666E-17	5.065126E-18
5.375014E+03	4.506287E-17	5.058305E-18
5.375615E+03	4.490314E-17	5.041388E-18
5.375815E+03	4.483881E-17	5.034503E-18
5.376415E+03	4.467978E-17	5.017652E-18
5.376615E+03	4.462022E-17	5.011298E-18
5.376815E+03	4.454761E-17	5.003477E-18
5.377015E+03	4.448355E-17	4.996615E-18
5.377215E+03	4.441053E-17	4.988746E-18
5.377615E+03	4.429065E-17	4.975943E-18
5.378615E+03	4.402519E-17	4.947766E-18
5.379815E+03	4.371333E-17	4.914680E-18
5.380415E+03	4.353829E-17	4.895974E-18
5.380816E+03	4.341415E-17	4.882663E-18
5.382016E+03	4.309609E-17	4.848820E-18
5.382616E+03	4.292367E-17	4.830380E-18
5.382816E+03	4.284129E-17	4.821428E-18
5.383416E+03	4.266774E-17	4.802849E-18
5.384016E+03	4.249760E-17	4.784646E-18
5.384216E+03	4.241686E-17	4.775871E-18
5.384416E+03	4.232816E-17	4.766197E-18
5.385016E+03	4.214388E-17	4.746385E-18
5.385216E+03	4.204984E-17	4.736107E-18
5.386016E+03	4.182091E-17	4.711563E-18
5.386616E+03	4.164473E-17	4.692639E-18
5.387816E+03	4.131673E-17	4.657515E-18
5.388216E+03	4.117462E-17	4.642105E-18
5.388416E+03	4.107759E-17	4.631469E-18
5.388616E+03	4.097897E-17	4.620652E-18
5.388816E+03	4.088170E-17	4.609986E-18
5.389816E+03	4.060528E-17	4.580315E-18
5.390016E+03	4.050242E-17	4.569011E-18
5.390216E+03	4.039980E-17	4.557732E-18
5.390616E+03	4.025432E-17	4.541913E-18
5.390816E+03	4.014779E-17	4.530189E-18
5.391617E+03	3.990905E-17	4.504427E-18
5.391817E+03	3.980494E-17	4.492970E-18
5.392617E+03	3.955703E-17	4.466150E-18
5.392817E+03	3.944745E-17	4.454068E-18
5.393217E+03	3.929321E-17	4.437230E-18
5.393417E+03	3.918411E-17	4.425198E-18
5.393617E+03	3.906743E-17	4.412308E-18
5.394417E+03	3.882530E-17	4.386101E-18
5.394617E+03	3.871574E-17	4.374007E-18
5.394817E+03	3.860464E-17	4.361738E-18
5.395017E+03	3.848899E-17	4.348953E-18
5.395217E+03	3.836936E-17	4.335718E-18
5.395817E+03	3.816210E-17	4.313136E-18
5.396017E+03	3.804016E-17	4.299632E-18
5.396417E+03	3.787537E-17	4.281561E-18
5.396617E+03	3.775040E-17	4.267710E-18
5.396817E+03	3.762737E-17	4.254077E-18
5.397218E+03	3.746461E-17	4.236224E-18
5.397417E+03	3.734052E-17	4.222464E-18
5.397618E+03	3.721404E-17	4.208435E-18
5.397818E+03	3.708963E-17	4.194636E-18
5.398017E+03	3.695806E-17	4.180025E-18
5.398417E+03	3.679031E-17	4.161589E-18
5.398817E+03	3.662183E-17	4.143065E-18
5.399217E+03	3.645259E-17	4.124451E-18
5.399817E+03	3.623485E-17	4.100606E-18
5.400017E+03	3.610259E-17	4.085901E-18
5.400617E+03	3.588487E-17	4.062045E-18
5.400817E+03	3.575213E-17	4.047279E-18
5.401417E+03	3.553420E-17	4.023383E-18
5.401617E+03	3.539999E-17	4.008444E-18
5.401817E+03	3.526543E-17	3.993463E-18
5.402818E+03	3.496255E-17	3.960436E-18
5.403018E+03	3.482733E-17	3.945371E-18
5.403218E+03	3.469125E-17	3.930206E-18
5.403818E+03	3.447169E-17	3.906082E-18
5.404418E+03	3.425231E-17	3.881968E-18
5.404618E+03	3.410691E-17	3.865735E-18
5.406018E+03	3.371799E-17	3.823360E-18
5.406218E+03	3.357778E-17	3.807704E-18
5.406418E+03	3.343561E-17	3.791824E-18
5.406618E+03	3.328720E-17	3.775233E-18
5.406818E+03	3.314403E-17	3.759235E-18
5.407819E+03	3.283806E-17	3.725716E-18
5.408019E+03	3.269047E-17	3.709206E-18
5.408419E+03	3.250318E-17	3.688424E-18
5.408619E+03	3.235693E-17	3.672060E-18
5.409219E+03	3.212712E-17	3.646673E-18
5.409419E+03	3.197571E-17	3.629717E-18
5.409619E+03	3.182681E-17	3.613044E-18
5.409819E+03	3.167282E-17	3.595789E-18
5.410019E+03	3.152126E-17	3.578809E-18
5.410218E+03	3.136901E-17	3.561747E-18
5.410418E+03	3.121322E-17	3.544283E-18
5.410618E+03	3.105937E-17	3.527036E-18
5.411218E+03	3.083334E-17	3.502032E-18
5.411418E+03	3.067983E-17	3.484816E-18
5.411818E+03	3.048816E-17	3.463482E-18
5.412018E+03	3.033603E-17	3.446417E-18
5.412618E+03	3.010413E-17	3.420718E-18
5.413219E+03	2.987139E-17	3.394914E-18
5.413819E+03	2.964218E-17	3.369500E-18
5.414019E+03	2.948486E-17	3.351827E-18
5.414219E+03	2.932679E-17	3.334067E-18
5.414619E+03	2.912919E-17	3.312019E-18
5.414819E+03	2.896677E-17	3.293758E-18
5.415019E+03	2.880784E-17	3.275892E-18
5.416019E+03	2.850721E-17	3.242721E-18
5.417219E+03	2.817090E-17	3.205669E-18
5.417419E+03	2.801136E-17	3.187714E-18
5.417819E+03	2.781945E-17	3.166269E-18
5.418620E+03	2.755670E-17	3.137148E-18
5.418820E+03	2.739830E-17	3.119310E-18
5.419020E+03	2.723620E-17	3.101048E-18
5.419620E+03	2.700647E-17	3.075465E-18
5.419820E+03	2.684794E-17	3.057602E-18
5.420020E+03	2.668922E-17	3.039716E-18
5.420220E+03	2.652484E-17	3.021182E-18
5.420620E+03	2.632616E-17	2.998924E-18
5.421820E+03	2.599928E-17	2.962789E-18
5.422619E+03	2.573671E-17	2.933595E-18
5.422819E+03	2.557285E-17	2.915098E-18
5.423020E+03	2.540731E-17	2.896408E-18
5.423219E+03	2.524129E-17	2.877659E-18
5.423419E+03	2.507851E-17	2.859278E-18
5.423619E+03	2.491512E-17	2.840825E-18
5.423820E+03	2.474946E-17	2.822111E-18
5.424220E+03	2.455742E-17	2.800559E-18
5.424420E+03	2.439082E-17	2.781731E-18
5.424620E+03	2.422264E-17	2.762721E-18
5.424820E+03	2.405436E-17	2.743697E-18
5.425220E+03	2.385640E-17	2.721452E-18
5.425620E+03	2.365965E-17	2.699341E-18
5.425820E+03	2.349286E-17	2.680476E-18
5.426020E+03	2.332694E-17	2.661709E-18
5.426220E+03	2.316089E-17	2.642924E-18
5.426620E+03	2.296614E-17	2.621024E-18
5.426820E+03	2.280056E-17	2.602286E-18
5.427020E+03	2.263585E-17	2.583647E-18
5.427620E+03	2.241325E-17	2.558710E-18
5.428220E+03	2.219175E-17	2.533890E-18
5.428420E+03	2.202312E-17	2.514790E-18
5.428820E+03	2.182673E-17	2.492669E-18
5.429421E+03	2.160391E-17	2.467677E-18
5.429821E+03	2.141349E-17	2.446225E-18
5.430221E+03	2.122158E-17	2.424597E-18
5.430421E+03	2.105779E-17	2.406031E-18
5.431421E+03	2.078317E-17	2.375378E-18
5.432021E+03	2.056190E-17	2.350517E-18
5.432221E+03	2.039286E-17	2.331335E-18
5.433021E+03	2.014659E-17	2.303742E-18
5.433221E+03	1.997845E-17	2.284655E-18
5.433421E+03	1.981070E-17	2.265609E-18
5.433621E+03	1.964338E-17	2.246610E-18
5.434421E+03	1.940056E-17	2.219376E-18
5.434622E+03	1.923494E-17	2.200564E-18
5.434822E+03	1.906983E-17	2.181807E-18
5.435422E+03	1.885549E-17	2.157676E-18
5.435621E+03	1.869169E-17	2.139060E-18
5.436021E+03	1.850424E-17	2.117865E-18
5.436421E+03	1.831709E-17	2.096698E-18
5.436621E+03	1.815521E-17	2.078294E-18
5.436821E+03	1.799374E-17	2.059934E-18
5.437021E+03	1.783264E-17	2.041614E-18
5.437821E+03	1.760005E-17	2.015472E-18
5.438021E+03	1.743715E-17	1.996937E-18
5.438421E+03	1.724864E-17	1.975586E-18
