#wls	flux	fluxerr
1.600000E+03	3.443340E-16	1.144808E-16
1.640000E+03	3.552090E-16	1.180946E-16
1.680000E+03	3.655395E-16	1.215272E-16
1.720000E+03	3.752194E-16	1.247435E-16
1.760000E+03	3.840963E-16	1.276925E-16
1.800000E+03	3.920455E-16	1.303331E-16
1.840000E+03	3.988993E-16	1.326093E-16
1.880000E+03	4.045574E-16	1.344879E-16
1.920000E+03	4.088804E-16	1.359225E-16
1.960000E+03	4.116966E-16	1.368562E-16
2.000000E+03	4.129081E-16	1.372563E-16
2.040000E+03	4.123622E-16	1.370722E-16
2.080000E+03	4.099268E-16	1.362599E-16
2.120000E+03	4.055538E-16	1.348036E-16
2.160000E+03	3.990854E-16	1.326508E-16
2.200000E+03	3.904230E-16	1.297687E-16
2.240000E+03	3.794643E-16	1.261235E-16
2.280000E+03	3.660489E-16	1.216618E-16
2.320000E+03	3.506021E-16	1.165252E-16
2.360000E+03	3.335609E-16	1.108588E-16
2.400000E+03	3.152737E-16	1.047785E-16
2.440000E+03	2.960382E-16	9.838329E-17
2.480000E+03	2.761415E-16	9.176861E-17
2.520000E+03	2.558477E-16	8.502229E-17
2.560000E+03	2.353935E-16	7.822294E-17
2.600000E+03	2.150245E-16	7.145222E-17
2.640000E+03	1.949689E-16	6.478593E-17
2.680000E+03	1.754380E-16	5.829437E-17
2.720000E+03	1.566263E-16	5.204210E-17
2.760000E+03	1.387171E-16	4.609002E-17
2.800000E+03	1.218493E-16	4.048429E-17
2.840000E+03	1.061443E-16	3.526522E-17
2.880000E+03	9.170547E-17	3.046708E-17
2.920000E+03	7.860491E-17	2.611384E-17
2.960000E+03	6.688561E-17	2.221974E-17
3.000000E+03	5.654751E-17	1.878471E-17
3.010000E+03	5.417410E-17	1.799612E-17
3.020000E+03	5.188326E-17	1.723497E-17
3.030000E+03	4.967462E-17	1.650114E-17
3.040000E+03	4.754648E-17	1.579406E-17
3.050000E+03	4.549706E-17	1.511314E-17
3.060000E+03	4.352560E-17	1.445813E-17
3.070000E+03	4.162925E-17	1.382809E-17
3.080000E+03	3.980794E-17	1.322297E-17
3.090000E+03	3.805880E-17	1.264184E-17
3.100000E+03	3.638065E-17	1.208431E-17
3.110000E+03	3.477149E-17	1.154970E-17
3.120000E+03	3.322997E-17	1.103756E-17
3.130000E+03	3.175396E-17	1.054719E-17
3.140000E+03	3.034141E-17	1.007791E-17
3.150000E+03	2.899083E-17	9.629223E-18
3.160000E+03	2.769960E-17	9.200254E-18
3.170000E+03	2.646671E-17	8.790672E-18
3.180000E+03	2.528960E-17	8.399622E-18
3.190000E+03	2.416671E-17	8.026589E-18
3.200000E+03	2.309601E-17	7.670895E-18
3.210000E+03	2.207555E-17	7.331896E-18
3.220000E+03	2.110370E-17	7.009048E-18
3.230000E+03	2.017855E-17	6.701716E-18
3.240000E+03	1.929786E-17	6.409154E-18
3.250000E+03	1.846074E-17	6.131068E-18
3.260000E+03	1.766441E-17	5.866536E-18
3.270000E+03	1.690799E-17	5.615262E-18
3.280000E+03	1.618916E-17	5.376478E-18
3.290000E+03	1.550653E-17	5.149719E-18
3.300000E+03	1.485866E-17	4.934511E-18
3.310000E+03	1.424353E-17	4.730176E-18
3.320000E+03	1.366003E-17	4.536352E-18
3.330000E+03	1.310666E-17	4.352537E-18
3.340000E+03	1.258179E-17	4.178191E-18
3.350000E+03	1.208407E-17	4.012862E-18
3.360000E+03	1.161218E-17	3.856115E-18
3.370000E+03	1.116502E-17	3.707584E-18
3.380000E+03	1.074108E-17	3.566766E-18
3.390000E+03	1.033950E-17	3.433376E-18
3.400000E+03	9.958902E-18	3.306955E-18
3.410000E+03	9.598251E-18	3.187161E-18
3.420000E+03	9.256681E-18	3.073706E-18
3.430000E+03	8.932899E-18	2.966159E-18
3.440000E+03	8.626253E-18	2.864305E-18
3.450000E+03	8.335785E-18	2.767824E-18
3.460000E+03	8.060409E-18	2.676357E-18
3.470000E+03	7.799583E-18	2.589723E-18
3.480000E+03	7.552332E-18	2.507597E-18
3.490000E+03	7.318013E-18	2.429768E-18
3.500000E+03	7.095924E-18	2.356000E-18
3.510000E+03	6.885192E-18	2.286005E-18
3.520000E+03	6.685302E-18	2.219612E-18
3.530000E+03	6.495556E-18	2.156587E-18
3.540000E+03	6.315312E-18	2.096719E-18
3.550000E+03	6.144042E-18	2.039831E-18
3.560000E+03	5.981128E-18	1.985719E-18
3.570000E+03	5.826065E-18	1.934214E-18
3.580000E+03	5.678322E-18	1.885141E-18
3.590000E+03	5.537528E-18	1.838376E-18
3.600000E+03	5.403272E-18	1.793782E-18
3.610000E+03	5.275125E-18	1.751217E-18
3.620000E+03	5.152783E-18	1.710581E-18
3.630000E+03	5.035961E-18	1.671778E-18
3.640000E+03	4.924293E-18	1.634686E-18
3.650000E+03	4.817661E-18	1.599267E-18
3.660000E+03	4.715727E-18	1.565409E-18
3.670000E+03	4.618339E-18	1.533060E-18
3.680000E+03	4.525308E-18	1.502159E-18
3.690000E+03	4.436449E-18	1.472643E-18
3.700000E+03	4.351619E-18	1.444465E-18
3.710000E+03	4.270715E-18	1.417590E-18
3.720000E+03	4.193485E-18	1.391936E-18
3.730000E+03	4.119908E-18	1.367495E-18
3.740000E+03	4.049774E-18	1.344198E-18
3.750000E+03	3.982991E-18	1.322013E-18
3.760000E+03	3.919459E-18	1.300907E-18
3.770000E+03	3.858991E-18	1.280820E-18
3.780000E+03	3.801559E-18	1.261740E-18
3.790000E+03	3.747011E-18	1.243618E-18
3.800000E+03	3.695261E-18	1.226425E-18
3.810000E+03	3.646196E-18	1.210123E-18
3.820000E+03	3.599735E-18	1.194686E-18
3.830000E+03	3.555774E-18	1.180079E-18
3.840000E+03	3.514234E-18	1.166276E-18
3.850000E+03	3.475018E-18	1.153244E-18
3.860000E+03	3.438084E-18	1.140971E-18
3.870000E+03	3.403338E-18	1.129423E-18
3.880000E+03	3.370689E-18	1.118572E-18
3.890000E+03	3.340076E-18	1.108396E-18
3.900000E+03	3.311418E-18	1.098869E-18
3.910000E+03	3.284680E-18	1.089980E-18
3.920000E+03	3.259785E-18	1.081702E-18
3.930000E+03	3.236678E-18	1.074018E-18
3.940000E+03	3.215289E-18	1.066904E-18
3.950000E+03	3.195543E-18	1.060336E-18
3.960000E+03	3.177444E-18	1.054313E-18
3.970000E+03	3.160876E-18	1.048799E-18
3.980000E+03	3.145819E-18	1.043787E-18
3.990000E+03	3.132210E-18	1.039255E-18
4.000000E+03	3.120011E-18	1.035191E-18
4.010000E+03	3.109185E-18	1.031582E-18
4.020000E+03	3.099650E-18	1.028402E-18
4.030000E+03	3.091397E-18	1.025647E-18
4.040000E+03	3.084366E-18	1.023298E-18
4.050000E+03	3.078533E-18	1.021346E-18
4.060000E+03	3.073843E-18	1.019773E-18
4.070000E+03	3.070243E-18	1.018562E-18
4.080000E+03	3.067736E-18	1.017713E-18
4.090000E+03	3.066248E-18	1.017202E-18
4.100000E+03	3.065756E-18	1.017022E-18
4.110000E+03	3.066240E-18	1.017165E-18
4.120000E+03	3.067634E-18	1.017610E-18
4.130000E+03	3.069941E-18	1.018358E-18
4.140000E+03	3.073098E-18	1.019387E-18
4.150000E+03	3.077087E-18	1.020693E-18
4.160000E+03	3.081896E-18	1.022270E-18
4.170000E+03	3.087461E-18	1.024098E-18
4.180000E+03	3.093794E-18	1.026180E-18
4.190000E+03	3.100809E-18	1.028489E-18
4.200000E+03	3.108547E-18	1.031037E-18
4.210000E+03	3.116922E-18	1.033796E-18
4.220000E+03	3.125925E-18	1.036763E-18
4.230000E+03	3.135524E-18	1.039928E-18
4.240000E+03	3.145713E-18	1.043288E-18
4.250000E+03	3.156408E-18	1.046816E-18
4.260000E+03	3.167629E-18	1.050518E-18
4.270000E+03	3.179324E-18	1.054377E-18
4.280000E+03	3.191433E-18	1.058373E-18
4.290000E+03	3.203955E-18	1.062505E-18
4.300000E+03	3.216862E-18	1.066765E-18
4.310000E+03	3.230069E-18	1.071125E-18
4.320000E+03	3.243550E-18	1.075574E-18
4.330000E+03	3.257272E-18	1.080104E-18
4.340000E+03	3.271208E-18	1.084704E-18
4.350000E+03	3.285323E-18	1.089363E-18
4.360000E+03	3.299615E-18	1.094081E-18
4.370000E+03	3.314053E-18	1.098846E-18
4.380000E+03	3.328602E-18	1.103648E-18
4.390000E+03	3.343311E-18	1.108503E-18
4.400000E+03	3.358150E-18	1.113401E-18
4.410000E+03	3.373115E-18	1.118340E-18
4.420000E+03	3.388227E-18	1.123328E-18
4.430000E+03	3.403488E-18	1.128364E-18
4.440000E+03	3.418865E-18	1.133439E-18
4.450000E+03	3.434385E-18	1.138561E-18
4.460000E+03	3.450023E-18	1.143721E-18
4.470000E+03	3.465778E-18	1.148920E-18
4.480000E+03	3.481657E-18	1.154160E-18
4.490000E+03	3.497602E-18	1.159421E-18
4.500000E+03	3.513651E-18	1.164716E-18
4.510000E+03	3.529780E-18	1.170038E-18
4.520000E+03	3.545971E-18	1.175380E-18
4.530000E+03	3.562235E-18	1.180745E-18
4.540000E+03	3.578524E-18	1.186119E-18
4.550000E+03	3.594853E-18	1.191505E-18
4.560000E+03	3.611236E-18	1.196909E-18
4.570000E+03	3.627665E-18	1.202328E-18
4.580000E+03	3.644093E-18	1.207746E-18
4.590000E+03	3.660544E-18	1.213171E-18
4.600000E+03	3.677010E-18	1.218601E-18
4.610000E+03	3.693481E-18	1.224032E-18
4.620000E+03	3.709988E-18	1.229474E-18
4.630000E+03	3.726492E-18	1.234915E-18
4.640000E+03	3.743023E-18	1.240365E-18
4.650000E+03	3.759580E-18	1.245823E-18
4.660000E+03	3.776162E-18	1.251289E-18
4.670000E+03	3.792770E-18	1.256763E-18
4.680000E+03	3.809403E-18	1.262244E-18
4.690000E+03	3.826068E-18	1.267736E-18
4.700000E+03	3.842832E-18	1.273261E-18
4.710000E+03	3.859701E-18	1.278819E-18
4.720000E+03	3.876684E-18	1.284415E-18
4.730000E+03	3.893854E-18	1.290073E-18
4.740000E+03	3.911189E-18	1.295785E-18
4.750000E+03	3.928695E-18	1.301553E-18
4.760000E+03	3.946421E-18	1.307393E-18
4.770000E+03	3.964376E-18	1.313309E-18
4.780000E+03	3.982538E-18	1.319293E-18
4.790000E+03	4.000956E-18	1.325361E-18
4.800000E+03	4.019643E-18	1.331517E-18
4.810000E+03	4.038576E-18	1.337755E-18
4.820000E+03	4.057810E-18	1.344092E-18
4.830000E+03	4.077361E-18	1.350534E-18
4.840000E+03	4.097244E-18	1.357085E-18
4.850000E+03	4.117477E-18	1.363751E-18
4.860000E+03	4.138043E-18	1.370527E-18
4.870000E+03	4.159035E-18	1.377443E-18
4.880000E+03	4.180396E-18	1.384481E-18
4.890000E+03	4.202146E-18	1.391647E-18
4.900000E+03	4.224343E-18	1.398961E-18
4.910000E+03	4.247012E-18	1.406431E-18
4.920000E+03	4.270171E-18	1.414062E-18
4.930000E+03	4.293764E-18	1.421836E-18
4.940000E+03	4.317889E-18	1.429786E-18
4.950000E+03	4.342527E-18	1.437905E-18
4.960000E+03	4.367704E-18	1.446202E-18
4.970000E+03	4.393436E-18	1.454681E-18
4.980000E+03	4.419745E-18	1.463352E-18
4.990000E+03	4.446607E-18	1.472204E-18
5.000000E+03	4.474040E-18	1.481245E-18
5.010000E+03	4.502106E-18	1.490495E-18
5.020000E+03	4.530776E-18	1.499943E-18
5.030000E+03	4.560024E-18	1.509583E-18
5.040000E+03	4.589950E-18	1.519446E-18
5.050000E+03	4.620437E-18	1.529494E-18
5.060000E+03	4.651584E-18	1.539759E-18
5.070000E+03	4.683403E-18	1.550246E-18
5.080000E+03	4.715769E-18	1.560913E-18
5.090000E+03	4.748825E-18	1.571808E-18
5.100000E+03	4.782489E-18	1.582903E-18
5.110000E+03	4.816769E-18	1.594201E-18
5.120000E+03	4.851717E-18	1.605719E-18
5.130000E+03	4.887245E-18	1.617429E-18
5.140000E+03	4.923356E-18	1.629329E-18
5.150000E+03	4.960102E-18	1.641440E-18
5.160000E+03	4.997439E-18	1.653744E-18
5.170000E+03	5.035365E-18	1.666243E-18
5.180000E+03	5.073833E-18	1.678920E-18
5.190000E+03	5.112891E-18	1.691790E-18
5.200000E+03	5.152436E-18	1.704822E-18
5.210000E+03	5.192567E-18	1.718045E-18
5.220000E+03	5.233226E-18	1.731442E-18
5.230000E+03	5.274354E-18	1.744994E-18
5.240000E+03	5.315943E-18	1.758696E-18
5.250000E+03	5.358035E-18	1.772564E-18
5.260000E+03	5.400506E-18	1.786556E-18
5.270000E+03	5.443399E-18	1.800686E-18
5.280000E+03	5.486747E-18	1.814966E-18
5.290000E+03	5.530366E-18	1.829333E-18
5.300000E+03	5.574397E-18	1.843836E-18
5.310000E+03	5.618651E-18	1.858411E-18
5.320000E+03	5.663262E-18	1.873103E-18
5.330000E+03	5.708035E-18	1.887847E-18
5.340000E+03	5.753047E-18	1.902669E-18
5.350000E+03	5.798268E-18	1.917559E-18
5.360000E+03	5.843600E-18	1.932484E-18
5.370000E+03	5.889125E-18	1.947471E-18
5.380000E+03	5.934629E-18	1.962450E-18
5.390000E+03	5.980248E-18	1.977466E-18
5.400000E+03	6.025882E-18	1.992485E-18
5.410000E+03	6.071492E-18	2.007494E-18
5.420000E+03	6.117035E-18	2.022480E-18
5.430000E+03	6.162469E-18	2.037429E-18
5.440000E+03	6.207685E-18	2.052304E-18
5.450000E+03	6.252639E-18	2.067091E-18
5.460000E+03	6.297280E-18	2.081772E-18
5.470000E+03	6.341561E-18	2.096334E-18
5.480000E+03	6.385362E-18	2.110735E-18
5.490000E+03	6.428565E-18	2.124937E-18
5.500000E+03	6.471178E-18	2.138942E-18
5.510000E+03	6.513072E-18	2.152709E-18
5.520000E+03	6.554122E-18	2.166195E-18
5.530000E+03	6.594192E-18	2.179355E-18
5.540000E+03	6.633280E-18	2.192190E-18
5.550000E+03	6.671186E-18	2.204632E-18
5.560000E+03	6.707901E-18	2.216680E-18
5.570000E+03	6.743219E-18	2.228264E-18
5.580000E+03	6.777061E-18	2.239360E-18
5.590000E+03	6.809422E-18	2.249964E-18
5.600000E+03	6.840089E-18	2.260008E-18
5.610000E+03	6.869055E-18	2.269488E-18
5.620000E+03	6.896249E-18	2.278382E-18
5.630000E+03	6.921524E-18	2.286640E-18
5.640000E+03	6.944813E-18	2.294242E-18
5.650000E+03	6.966117E-18	2.301186E-18
5.660000E+03	6.985374E-18	2.307453E-18
5.670000E+03	7.002452E-18	2.313000E-18
5.680000E+03	7.017367E-18	2.317831E-18
5.690000E+03	7.030142E-18	2.321954E-18
5.700000E+03	7.040586E-18	2.325307E-18
5.710000E+03	7.048734E-18	2.327900E-18
5.720000E+03	7.054626E-18	2.329748E-18
5.730000E+03	7.058233E-18	2.330840E-18
5.740000E+03	7.059535E-18	2.331171E-18
5.750000E+03	7.058517E-18	2.330735E-18
5.760000E+03	7.055170E-18	2.329530E-18
5.770000E+03	7.049567E-18	2.327580E-18
5.780000E+03	7.041638E-18	2.324860E-18
5.790000E+03	7.031542E-18	2.321426E-18
5.800000E+03	7.019219E-18	2.317256E-18
5.810000E+03	7.004695E-18	2.312359E-18
5.820000E+03	6.988147E-18	2.306794E-18
5.830000E+03	6.969464E-18	2.300524E-18
5.840000E+03	6.948762E-18	2.293588E-18
5.850000E+03	6.926170E-18	2.286028E-18
5.860000E+03	6.901666E-18	2.277837E-18
5.870000E+03	6.875391E-18	2.269062E-18
5.880000E+03	6.847337E-18	2.259700E-18
5.890000E+03	6.817736E-18	2.249828E-18
5.900000E+03	6.786588E-18	2.239446E-18
5.910000E+03	6.753983E-18	2.228583E-18
5.920000E+03	6.720086E-18	2.217295E-18
5.930000E+03	6.684911E-18	2.205586E-18
5.940000E+03	6.648632E-18	2.193512E-18
5.950000E+03	6.611268E-18	2.181082E-18
5.960000E+03	6.572990E-18	2.168351E-18
5.970000E+03	6.533897E-18	2.155351E-18
5.980000E+03	6.494083E-18	2.142115E-18
5.990000E+03	6.453568E-18	2.128648E-18
6.000000E+03	6.412520E-18	2.115006E-18
6.010000E+03	6.371029E-18	2.101219E-18
6.020000E+03	6.329109E-18	2.087291E-18
6.030000E+03	6.286921E-18	2.073276E-18
6.040000E+03	6.244475E-18	2.059176E-18
6.050000E+03	6.201777E-18	2.044994E-18
6.060000E+03	6.159051E-18	2.030804E-18
6.070000E+03	6.116224E-18	2.016582E-18
6.080000E+03	6.073442E-18	2.002375E-18
6.090000E+03	6.030625E-18	1.988158E-18
6.100000E+03	5.987913E-18	1.973976E-18
6.110000E+03	5.945291E-18	1.959825E-18
6.120000E+03	5.902820E-18	1.945725E-18
6.130000E+03	5.860556E-18	1.931693E-18
6.140000E+03	5.818476E-18	1.917724E-18
6.150000E+03	5.776629E-18	1.903832E-18
6.160000E+03	5.735061E-18	1.890033E-18
6.170000E+03	5.693811E-18	1.876341E-18
6.180000E+03	5.652924E-18	1.862768E-18
6.190000E+03	5.612357E-18	1.849302E-18
6.200000E+03	5.572219E-18	1.835979E-18
6.210000E+03	5.532541E-18	1.822807E-18
6.220000E+03	5.493345E-18	1.809796E-18
6.230000E+03	5.454729E-18	1.796977E-18
6.240000E+03	5.416786E-18	1.784380E-18
6.250000E+03	5.379604E-18	1.772035E-18
6.260000E+03	5.343271E-18	1.759970E-18
6.270000E+03	5.307872E-18	1.748214E-18
6.280000E+03	5.273561E-18	1.736818E-18
6.290000E+03	5.240275E-18	1.725759E-18
6.300000E+03	5.208310E-18	1.715137E-18
6.310000E+03	5.177598E-18	1.704927E-18
6.320000E+03	5.148289E-18	1.695181E-18
6.330000E+03	5.120459E-18	1.685922E-18
6.340000E+03	5.094184E-18	1.677175E-18
6.350000E+03	5.069468E-18	1.668943E-18
6.360000E+03	5.046383E-18	1.661248E-18
6.370000E+03	5.025008E-18	1.654116E-18
6.380000E+03	5.005342E-18	1.647548E-18
6.390000E+03	4.987393E-18	1.641544E-18
6.400000E+03	4.971235E-18	1.636131E-18
6.410000E+03	4.956727E-18	1.631261E-18
6.420000E+03	4.943873E-18	1.626935E-18
6.430000E+03	4.932602E-18	1.623130E-18
6.440000E+03	4.922772E-18	1.619799E-18
6.450000E+03	4.914458E-18	1.616967E-18
6.460000E+03	4.907514E-18	1.614586E-18
6.470000E+03	4.902017E-18	1.612681E-18
6.480000E+03	4.897969E-18	1.611252E-18
6.490000E+03	4.895296E-18	1.610276E-18
6.500000E+03	4.894002E-18	1.609752E-18
6.510000E+03	4.894087E-18	1.609682E-18
6.520000E+03	4.895554E-18	1.610066E-18
6.530000E+03	4.898405E-18	1.610905E-18
6.540000E+03	4.902717E-18	1.612224E-18
6.550000E+03	4.908422E-18	1.614000E-18
6.560000E+03	4.915443E-18	1.616208E-18
6.570000E+03	4.923936E-18	1.618900E-18
6.580000E+03	4.933753E-18	1.622026E-18
6.590000E+03	4.944970E-18	1.625611E-18
6.600000E+03	4.957597E-18	1.629659E-18
6.610000E+03	4.971637E-18	1.634171E-18
6.620000E+03	4.987092E-18	1.639147E-18
6.630000E+03	5.003890E-18	1.644563E-18
6.640000E+03	5.022112E-18	1.650446E-18
6.650000E+03	5.041685E-18	1.656772E-18
6.660000E+03	5.062695E-18	1.663569E-18
6.670000E+03	5.085066E-18	1.670812E-18
6.680000E+03	5.108800E-18	1.678501E-18
6.690000E+03	5.133992E-18	1.686668E-18
6.700000E+03	5.160651E-18	1.695315E-18
6.710000E+03	5.188605E-18	1.704387E-18
6.720000E+03	5.218038E-18	1.713942E-18
6.730000E+03	5.248782E-18	1.723926E-18
6.740000E+03	5.281022E-18	1.734400E-18
6.750000E+03	5.314675E-18	1.745336E-18
6.760000E+03	5.349660E-18	1.756708E-18
6.770000E+03	5.386167E-18	1.768578E-18
6.780000E+03	5.424021E-18	1.780888E-18
6.790000E+03	5.463323E-18	1.793670E-18
6.800000E+03	5.504082E-18	1.806930E-18
6.810000E+03	5.546307E-18	1.820668E-18
6.820000E+03	5.589911E-18	1.834857E-18
6.830000E+03	5.635001E-18	1.849531E-18
6.840000E+03	5.681485E-18	1.864660E-18
6.850000E+03	5.729475E-18	1.880281E-18
6.860000E+03	5.778874E-18	1.896362E-18
6.870000E+03	5.829691E-18	1.912905E-18
6.880000E+03	5.882038E-18	1.929948E-18
6.890000E+03	5.935713E-18	1.947424E-18
6.900000E+03	5.990936E-18	1.965404E-18
6.910000E+03	6.047608E-18	1.983857E-18
6.920000E+03	6.105734E-18	2.002784E-18
6.930000E+03	6.165323E-18	2.022188E-18
6.940000E+03	6.226381E-18	2.042070E-18
6.950000E+03	6.288791E-18	2.062393E-18
6.960000E+03	6.352682E-18	2.083198E-18
6.970000E+03	6.418057E-18	2.104485E-18
6.980000E+03	6.484921E-18	2.126258E-18
6.990000E+03	6.553029E-18	2.148435E-18
7.000000E+03	6.622759E-18	2.171141E-18
7.010000E+03	6.693733E-18	2.194250E-18
7.020000E+03	6.766210E-18	2.217848E-18
7.030000E+03	6.840057E-18	2.241892E-18
7.040000E+03	6.915278E-18	2.266381E-18
7.050000E+03	6.991867E-18	2.291316E-18
7.060000E+03	7.069825E-18	2.316695E-18
7.070000E+03	7.149004E-18	2.342469E-18
7.080000E+03	7.229544E-18	2.368686E-18
7.090000E+03	7.311440E-18	2.395342E-18
7.100000E+03	7.394535E-18	2.422387E-18
7.110000E+03	7.478974E-18	2.449867E-18
7.120000E+03	7.564599E-18	2.477732E-18
7.130000E+03	7.651395E-18	2.505975E-18
7.140000E+03	7.739348E-18	2.534593E-18
7.150000E+03	7.828605E-18	2.563633E-18
7.160000E+03	7.918835E-18	2.592987E-18
7.170000E+03	8.010010E-18	2.622646E-18
7.180000E+03	8.102445E-18	2.652713E-18
7.190000E+03	8.195786E-18	2.683071E-18
7.200000E+03	8.290010E-18	2.713713E-18
7.210000E+03	8.385264E-18	2.744687E-18
7.220000E+03	8.481345E-18	2.775927E-18
7.230000E+03	8.578226E-18	2.807423E-18
7.240000E+03	8.675875E-18	2.839166E-18
7.250000E+03	8.774257E-18	2.871143E-18
7.260000E+03	8.873531E-18	2.903407E-18
7.270000E+03	8.973280E-18	2.935821E-18
7.280000E+03	9.073853E-18	2.968500E-18
7.290000E+03	9.175021E-18	3.001367E-18
7.300000E+03	9.276745E-18	3.034411E-18
7.310000E+03	9.379185E-18	3.067684E-18
7.320000E+03	9.482104E-18	3.101108E-18
7.330000E+03	9.585667E-18	3.134737E-18
7.340000E+03	9.689836E-18	3.168559E-18
7.350000E+03	9.794798E-18	3.202634E-18
7.360000E+03	9.900521E-18	3.236953E-18
7.370000E+03	1.000720E-17	3.271580E-18
7.380000E+03	1.011459E-17	3.306432E-18
7.390000E+03	1.022336E-17	3.341729E-18
7.400000E+03	1.033351E-17	3.377471E-18
7.410000E+03	1.044479E-17	3.413578E-18
7.420000E+03	1.055793E-17	3.450286E-18
7.430000E+03	1.067269E-17	3.487520E-18
7.440000E+03	1.078935E-17	3.525365E-18
7.450000E+03	1.090766E-17	3.563744E-18
7.460000E+03	1.102788E-17	3.602744E-18
7.470000E+03	1.114927E-17	3.642114E-18
7.480000E+03	1.127231E-17	3.682023E-18
7.490000E+03	1.139622E-17	3.722207E-18
7.500000E+03	1.152124E-17	3.762746E-18
7.510000E+03	1.164707E-17	3.803544E-18
7.520000E+03	1.177340E-17	3.844498E-18
7.530000E+03	1.190047E-17	3.885687E-18
7.540000E+03	1.202737E-17	3.926814E-18
7.550000E+03	1.215462E-17	3.968051E-18
7.560000E+03	1.228188E-17	4.009281E-18
7.570000E+03	1.240908E-17	4.050487E-18
7.580000E+03	1.253585E-17	4.091545E-18
7.590000E+03	1.266242E-17	4.132535E-18
7.600000E+03	1.278842E-17	4.173329E-18
7.610000E+03	1.291376E-17	4.213904E-18
7.620000E+03	1.303869E-17	4.254337E-18
7.630000E+03	1.316281E-17	4.294499E-18
7.640000E+03	1.328637E-17	4.334472E-18
7.650000E+03	1.340862E-17	4.374012E-18
7.660000E+03	1.353014E-17	4.413310E-18
7.670000E+03	1.365053E-17	4.452229E-18
7.680000E+03	1.377003E-17	4.490856E-18
7.690000E+03	1.388822E-17	4.529049E-18
7.700000E+03	1.400502E-17	4.566781E-18
7.710000E+03	1.412032E-17	4.604022E-18
7.720000E+03	1.423479E-17	4.640984E-18
7.730000E+03	1.434724E-17	4.677283E-18
7.740000E+03	1.445870E-17	4.713252E-18
7.750000E+03	1.456834E-17	4.748624E-18
7.760000E+03	1.467646E-17	4.783496E-18
