#wls	flux	fluxerr
1.600000E+03	3.691629E-16	1.236794E-16
1.640000E+03	3.800671E-16	1.273305E-16
1.680000E+03	3.902781E-16	1.307492E-16
1.720000E+03	3.996795E-16	1.338964E-16
1.760000E+03	4.081054E-16	1.367167E-16
1.800000E+03	4.154234E-16	1.391658E-16
1.840000E+03	4.214570E-16	1.411843E-16
1.880000E+03	4.261052E-16	1.427386E-16
1.920000E+03	4.292278E-16	1.437818E-16
1.960000E+03	4.306552E-16	1.442570E-16
2.000000E+03	4.303007E-16	1.441352E-16
2.040000E+03	4.280228E-16	1.433691E-16
2.080000E+03	4.237087E-16	1.419208E-16
2.120000E+03	4.173362E-16	1.397832E-16
2.160000E+03	4.087755E-16	1.369126E-16
2.200000E+03	3.979634E-16	1.332880E-16
2.240000E+03	3.848391E-16	1.288891E-16
2.280000E+03	3.692876E-16	1.236775E-16
2.320000E+03	3.517887E-16	1.178139E-16
2.360000E+03	3.328273E-16	1.114607E-16
2.400000E+03	3.127916E-16	1.047480E-16
2.440000E+03	2.920118E-16	9.778642E-17
2.480000E+03	2.708021E-16	9.068119E-17
2.520000E+03	2.494444E-16	8.352681E-17
2.560000E+03	2.281874E-16	7.640646E-17
2.600000E+03	2.072785E-16	6.940311E-17
2.640000E+03	1.869402E-16	6.259116E-17
2.680000E+03	1.673699E-16	5.603676E-17
2.720000E+03	1.487400E-16	4.979758E-17
2.760000E+03	1.312044E-16	4.392514E-17
2.800000E+03	1.148680E-16	3.845457E-17
2.840000E+03	9.981412E-17	3.341370E-17
2.880000E+03	8.610538E-17	2.882345E-17
2.920000E+03	7.377378E-17	2.469451E-17
2.960000E+03	6.282471E-17	2.102864E-17
3.000000E+03	5.322625E-17	1.781510E-17
3.010000E+03	5.102997E-17	1.707981E-17
3.020000E+03	4.891250E-17	1.637091E-17
3.030000E+03	4.687316E-17	1.568818E-17
3.040000E+03	4.490998E-17	1.503095E-17
3.050000E+03	4.302106E-17	1.439859E-17
3.060000E+03	4.120538E-17	1.379075E-17
3.070000E+03	3.946003E-17	1.320647E-17
3.080000E+03	3.778472E-17	1.264563E-17
3.090000E+03	3.617654E-17	1.210728E-17
3.100000E+03	3.463424E-17	1.159098E-17
3.110000E+03	3.315576E-17	1.109605E-17
3.120000E+03	3.173972E-17	1.062203E-17
3.130000E+03	3.038400E-17	1.016821E-17
3.140000E+03	2.908657E-17	9.733902E-18
3.150000E+03	2.784597E-17	9.318622E-18
3.160000E+03	2.665967E-17	8.921520E-18
3.170000E+03	2.552673E-17	8.542287E-18
3.180000E+03	2.444466E-17	8.180084E-18
3.190000E+03	2.341200E-17	7.834425E-18
3.200000E+03	2.242689E-17	7.504682E-18
3.210000E+03	2.148745E-17	7.190230E-18
3.220000E+03	2.059222E-17	6.890581E-18
3.230000E+03	1.973942E-17	6.605134E-18
3.240000E+03	1.892697E-17	6.333195E-18
3.250000E+03	1.815411E-17	6.074511E-18
3.260000E+03	1.741826E-17	5.828216E-18
3.270000E+03	1.671866E-17	5.594057E-18
3.280000E+03	1.605319E-17	5.371322E-18
3.290000E+03	1.542059E-17	5.159592E-18
3.300000E+03	1.481962E-17	4.958445E-18
3.310000E+03	1.424837E-17	4.767253E-18
3.320000E+03	1.370593E-17	4.585701E-18
3.330000E+03	1.319094E-17	4.413338E-18
3.340000E+03	1.270192E-17	4.249668E-18
3.350000E+03	1.223766E-17	4.094286E-18
3.360000E+03	1.179699E-17	3.946800E-18
3.370000E+03	1.137895E-17	3.806888E-18
3.380000E+03	1.098214E-17	3.674086E-18
3.390000E+03	1.060586E-17	3.548151E-18
3.400000E+03	1.024883E-17	3.428660E-18
3.410000E+03	9.910136E-18	3.315306E-18
3.420000E+03	9.589026E-18	3.207838E-18
3.430000E+03	9.284304E-18	3.105855E-18
3.440000E+03	8.995420E-18	3.009172E-18
3.450000E+03	8.721515E-18	2.917503E-18
3.460000E+03	8.461576E-18	2.830508E-18
3.470000E+03	8.215155E-18	2.748037E-18
3.480000E+03	7.981349E-18	2.669788E-18
3.490000E+03	7.759586E-18	2.595570E-18
3.500000E+03	7.549240E-18	2.525172E-18
3.510000E+03	7.349482E-18	2.458317E-18
3.520000E+03	7.159862E-18	2.394856E-18
3.530000E+03	6.979730E-18	2.334570E-18
3.540000E+03	6.808486E-18	2.277257E-18
3.550000E+03	6.645645E-18	2.222758E-18
3.560000E+03	6.490625E-18	2.170875E-18
3.570000E+03	6.342952E-18	2.121451E-18
3.580000E+03	6.202125E-18	2.074318E-18
3.590000E+03	6.067803E-18	2.029362E-18
3.600000E+03	5.939606E-18	1.986455E-18
3.610000E+03	5.817122E-18	1.945460E-18
3.620000E+03	5.700079E-18	1.906286E-18
3.630000E+03	5.588214E-18	1.868845E-18
3.640000E+03	5.481179E-18	1.833020E-18
3.650000E+03	5.378893E-18	1.798784E-18
3.660000E+03	5.281029E-18	1.766028E-18
3.670000E+03	5.187465E-18	1.734710E-18
3.680000E+03	5.098035E-18	1.704776E-18
3.690000E+03	5.012574E-18	1.676170E-18
3.700000E+03	4.930966E-18	1.648853E-18
3.710000E+03	4.853136E-18	1.622800E-18
3.720000E+03	4.778838E-18	1.597929E-18
3.730000E+03	4.708082E-18	1.574243E-18
3.740000E+03	4.640672E-18	1.551676E-18
3.750000E+03	4.576536E-18	1.530205E-18
3.760000E+03	4.515595E-18	1.509802E-18
3.770000E+03	4.457666E-18	1.490407E-18
3.780000E+03	4.402749E-18	1.472020E-18
3.790000E+03	4.350700E-18	1.454592E-18
3.800000E+03	4.301448E-18	1.438099E-18
3.810000E+03	4.254891E-18	1.422508E-18
3.820000E+03	4.210961E-18	1.407796E-18
3.830000E+03	4.169561E-18	1.393930E-18
3.840000E+03	4.130627E-18	1.380888E-18
3.850000E+03	4.094068E-18	1.368641E-18
3.860000E+03	4.059857E-18	1.357179E-18
3.870000E+03	4.027905E-18	1.346472E-18
3.880000E+03	3.998129E-18	1.336493E-18
3.890000E+03	3.970472E-18	1.327223E-18
3.900000E+03	3.944856E-18	1.318635E-18
3.910000E+03	3.921264E-18	1.310724E-18
3.920000E+03	3.899620E-18	1.303463E-18
3.930000E+03	3.879875E-18	1.296838E-18
3.940000E+03	3.861958E-18	1.290824E-18
3.950000E+03	3.845798E-18	1.285398E-18
3.960000E+03	3.831413E-18	1.280564E-18
3.970000E+03	3.818679E-18	1.276282E-18
3.980000E+03	3.807585E-18	1.272549E-18
3.990000E+03	3.798067E-18	1.269342E-18
4.000000E+03	3.790090E-18	1.266650E-18
4.010000E+03	3.783623E-18	1.264463E-18
4.020000E+03	3.778579E-18	1.262751E-18
4.030000E+03	3.774950E-18	1.261513E-18
4.040000E+03	3.772686E-18	1.260730E-18
4.050000E+03	3.771757E-18	1.260393E-18
4.060000E+03	3.772108E-18	1.260483E-18
4.070000E+03	3.773686E-18	1.260984E-18
4.080000E+03	3.776499E-18	1.261897E-18
4.090000E+03	3.780464E-18	1.263194E-18
4.100000E+03	3.785566E-18	1.264872E-18
4.110000E+03	3.791784E-18	1.266922E-18
4.120000E+03	3.799042E-18	1.269318E-18
4.130000E+03	3.807354E-18	1.272068E-18
4.140000E+03	3.816646E-18	1.275144E-18
4.150000E+03	3.826906E-18	1.278543E-18
4.160000E+03	3.838118E-18	1.282260E-18
4.170000E+03	3.850216E-18	1.286273E-18
4.180000E+03	3.863216E-18	1.290586E-18
4.190000E+03	3.877017E-18	1.295167E-18
4.200000E+03	3.891673E-18	1.300033E-18
4.210000E+03	3.907086E-18	1.305151E-18
4.220000E+03	3.923247E-18	1.310519E-18
4.230000E+03	3.940120E-18	1.316124E-18
4.240000E+03	3.957699E-18	1.321965E-18
4.250000E+03	3.975889E-18	1.328009E-18
4.260000E+03	3.994714E-18	1.334265E-18
4.270000E+03	4.014110E-18	1.340711E-18
4.280000E+03	4.034010E-18	1.347325E-18
4.290000E+03	4.054412E-18	1.354106E-18
4.300000E+03	4.075282E-18	1.361043E-18
4.310000E+03	4.096519E-18	1.368102E-18
4.320000E+03	4.118089E-18	1.375271E-18
4.330000E+03	4.139956E-18	1.382539E-18
4.340000E+03	4.162080E-18	1.389893E-18
4.350000E+03	4.184427E-18	1.397320E-18
4.360000E+03	4.206987E-18	1.404818E-18
4.370000E+03	4.229726E-18	1.412375E-18
4.380000E+03	4.252600E-18	1.419976E-18
4.390000E+03	4.275673E-18	1.427643E-18
4.400000E+03	4.298904E-18	1.435362E-18
4.410000E+03	4.322288E-18	1.443132E-18
4.420000E+03	4.345859E-18	1.450964E-18
4.430000E+03	4.369610E-18	1.458855E-18
4.440000E+03	4.393508E-18	1.466794E-18
4.450000E+03	4.417582E-18	1.474792E-18
4.460000E+03	4.441798E-18	1.482836E-18
4.470000E+03	4.466160E-18	1.490928E-18
4.480000E+03	4.490667E-18	1.499069E-18
4.490000E+03	4.515252E-18	1.507234E-18
4.500000E+03	4.539957E-18	1.515438E-18
4.510000E+03	4.564750E-18	1.523672E-18
4.520000E+03	4.589608E-18	1.531926E-18
4.530000E+03	4.614539E-18	1.540204E-18
4.540000E+03	4.639480E-18	1.548485E-18
4.550000E+03	4.664448E-18	1.556774E-18
4.560000E+03	4.689459E-18	1.565076E-18
4.570000E+03	4.714492E-18	1.573385E-18
4.580000E+03	4.739494E-18	1.581683E-18
4.590000E+03	4.764482E-18	1.589976E-18
4.600000E+03	4.789447E-18	1.598260E-18
4.610000E+03	4.814372E-18	1.606530E-18
4.620000E+03	4.839286E-18	1.614795E-18
4.630000E+03	4.864140E-18	1.623040E-18
4.640000E+03	4.888964E-18	1.631273E-18
4.650000E+03	4.913753E-18	1.639495E-18
4.660000E+03	4.938502E-18	1.647702E-18
4.670000E+03	4.963204E-18	1.655893E-18
4.680000E+03	4.987857E-18	1.664066E-18
4.690000E+03	5.012457E-18	1.672221E-18
4.700000E+03	5.037093E-18	1.680388E-18
4.710000E+03	5.061766E-18	1.688565E-18
4.720000E+03	5.086479E-18	1.696755E-18
4.730000E+03	5.111323E-18	1.704988E-18
4.740000E+03	5.136264E-18	1.713253E-18
4.750000E+03	5.161304E-18	1.721549E-18
4.760000E+03	5.186500E-18	1.729897E-18
4.770000E+03	5.211858E-18	1.738298E-18
4.780000E+03	5.237345E-18	1.746741E-18
4.790000E+03	5.263018E-18	1.755246E-18
4.800000E+03	5.288889E-18	1.763815E-18
4.810000E+03	5.314920E-18	1.772436E-18
4.820000E+03	5.341178E-18	1.781133E-18
4.830000E+03	5.367675E-18	1.789908E-18
4.840000E+03	5.394427E-18	1.798767E-18
4.850000E+03	5.421450E-18	1.807716E-18
4.860000E+03	5.448716E-18	1.816744E-18
4.870000E+03	5.476339E-18	1.825891E-18
4.880000E+03	5.504239E-18	1.835129E-18
4.890000E+03	5.532434E-18	1.844464E-18
4.900000E+03	5.560995E-18	1.853920E-18
4.910000E+03	5.589946E-18	1.863506E-18
4.920000E+03	5.619301E-18	1.873224E-18
4.930000E+03	5.648982E-18	1.883051E-18
4.940000E+03	5.679113E-18	1.893026E-18
4.950000E+03	5.709660E-18	1.903138E-18
4.960000E+03	5.740642E-18	1.913395E-18
4.970000E+03	5.772079E-18	1.923802E-18
4.980000E+03	5.803988E-18	1.934365E-18
4.990000E+03	5.836332E-18	1.945071E-18
5.000000E+03	5.869124E-18	1.955926E-18
5.010000E+03	5.902436E-18	1.966953E-18
5.020000E+03	5.936225E-18	1.978137E-18
5.030000E+03	5.970445E-18	1.989464E-18
5.040000E+03	6.005216E-18	2.000973E-18
5.050000E+03	6.040376E-18	2.012610E-18
5.060000E+03	6.076045E-18	2.024416E-18
5.070000E+03	6.112229E-18	2.036391E-18
5.080000E+03	6.148753E-18	2.048479E-18
5.090000E+03	6.185799E-18	2.060739E-18
5.100000E+03	6.223244E-18	2.073130E-18
5.110000E+03	6.261092E-18	2.085654E-18
5.120000E+03	6.299397E-18	2.098329E-18
5.130000E+03	6.338034E-18	2.111112E-18
5.140000E+03	6.377000E-18	2.124004E-18
5.150000E+03	6.416350E-18	2.137022E-18
5.160000E+03	6.456014E-18	2.150143E-18
5.170000E+03	6.495984E-18	2.163365E-18
5.180000E+03	6.536187E-18	2.176662E-18
5.190000E+03	6.576675E-18	2.190052E-18
5.200000E+03	6.617305E-18	2.203488E-18
5.210000E+03	6.658194E-18	2.217009E-18
5.220000E+03	6.699260E-18	2.230587E-18
5.230000E+03	6.740420E-18	2.244194E-18
5.240000E+03	6.781655E-18	2.257824E-18
5.250000E+03	6.823009E-18	2.271493E-18
5.260000E+03	6.864321E-18	2.285145E-18
5.270000E+03	6.905636E-18	2.298797E-18
5.280000E+03	6.946993E-18	2.312461E-18
5.290000E+03	6.988156E-18	2.326058E-18
5.300000E+03	7.029297E-18	2.339646E-18
5.310000E+03	7.070176E-18	2.353146E-18
5.320000E+03	7.110963E-18	2.366612E-18
5.330000E+03	7.151413E-18	2.379965E-18
5.340000E+03	7.191625E-18	2.393236E-18
5.350000E+03	7.231562E-18	2.406415E-18
5.360000E+03	7.271110E-18	2.419462E-18
5.370000E+03	7.310377E-18	2.432413E-18
5.380000E+03	7.349103E-18	2.445182E-18
5.390000E+03	7.387466E-18	2.457829E-18
5.400000E+03	7.425361E-18	2.470318E-18
5.410000E+03	7.462744E-18	2.482635E-18
5.420000E+03	7.499583E-18	2.494769E-18
5.430000E+03	7.535842E-18	2.506709E-18
5.440000E+03	7.571408E-18	2.518416E-18
5.450000E+03	7.606248E-18	2.529879E-18
5.460000E+03	7.640323E-18	2.541086E-18
5.470000E+03	7.673600E-18	2.552026E-18
5.480000E+03	7.705967E-18	2.562662E-18
5.490000E+03	7.737307E-18	2.572954E-18
5.500000E+03	7.767659E-18	2.582916E-18
5.510000E+03	7.796908E-18	2.592509E-18
5.520000E+03	7.824936E-18	2.601695E-18
5.530000E+03	7.851623E-18	2.610433E-18
5.540000E+03	7.877003E-18	2.618735E-18
5.550000E+03	7.900881E-18	2.626535E-18
5.560000E+03	7.923290E-18	2.633846E-18
5.570000E+03	7.944027E-18	2.640600E-18
5.580000E+03	7.963053E-18	2.646783E-18
5.590000E+03	7.980402E-18	2.652407E-18
5.600000E+03	7.995874E-18	2.657407E-18
5.610000E+03	8.009509E-18	2.661794E-18
5.620000E+03	8.021273E-18	2.665558E-18
5.630000E+03	8.031042E-18	2.668659E-18
5.640000E+03	8.038786E-18	2.671085E-18
5.650000E+03	8.044557E-18	2.672854E-18
5.660000E+03	8.048329E-18	2.673959E-18
5.670000E+03	8.049992E-18	2.674361E-18
5.680000E+03	8.049614E-18	2.674085E-18
5.690000E+03	8.047262E-18	2.673152E-18
5.700000E+03	8.042760E-18	2.671504E-18
5.710000E+03	8.036185E-18	2.669167E-18
5.720000E+03	8.027623E-18	2.666170E-18
5.730000E+03	8.017079E-18	2.662514E-18
5.740000E+03	8.004559E-18	2.658201E-18
5.750000E+03	7.990080E-18	2.653238E-18
5.760000E+03	7.973659E-18	2.647629E-18
5.770000E+03	7.955404E-18	2.641411E-18
5.780000E+03	7.935257E-18	2.634565E-18
5.790000E+03	7.913418E-18	2.627157E-18
5.800000E+03	7.889841E-18	2.619172E-18
5.810000E+03	7.864565E-18	2.610623E-18
5.820000E+03	7.837803E-18	2.601581E-18
5.830000E+03	7.809436E-18	2.592007E-18
5.840000E+03	7.779603E-18	2.581946E-18
5.850000E+03	7.748450E-18	2.571448E-18
5.860000E+03	7.715956E-18	2.560505E-18
5.870000E+03	7.682272E-18	2.549168E-18
5.880000E+03	7.647388E-18	2.537433E-18
5.890000E+03	7.611554E-18	2.525384E-18
5.900000E+03	7.574764E-18	2.513018E-18
5.910000E+03	7.537104E-18	2.500365E-18
5.920000E+03	7.498745E-18	2.487480E-18
5.930000E+03	7.459692E-18	2.474365E-18
5.940000E+03	7.420115E-18	2.461078E-18
5.950000E+03	7.380025E-18	2.447622E-18
5.960000E+03	7.339590E-18	2.434052E-18
5.970000E+03	7.298897E-18	2.420397E-18
5.980000E+03	7.258034E-18	2.406687E-18
5.990000E+03	7.216998E-18	2.392921E-18
6.000000E+03	7.175957E-18	2.379154E-18
6.010000E+03	7.134984E-18	2.365411E-18
6.020000E+03	7.094076E-18	2.351690E-18
6.030000E+03	7.053384E-18	2.338042E-18
6.040000E+03	7.012895E-18	2.324462E-18
6.050000E+03	6.972592E-18	2.310944E-18
6.060000E+03	6.932704E-18	2.297566E-18
6.070000E+03	6.893122E-18	2.284290E-18
6.080000E+03	6.853988E-18	2.271163E-18
6.090000E+03	6.815185E-18	2.258147E-18
6.100000E+03	6.776845E-18	2.245285E-18
6.110000E+03	6.738935E-18	2.232567E-18
6.120000E+03	6.701495E-18	2.220006E-18
6.130000E+03	6.664562E-18	2.207614E-18
6.140000E+03	6.628093E-18	2.195376E-18
6.150000E+03	6.592119E-18	2.183303E-18
6.160000E+03	6.556670E-18	2.171405E-18
6.170000E+03	6.521775E-18	2.159691E-18
6.180000E+03	6.487456E-18	2.148169E-18
6.190000E+03	6.453652E-18	2.136819E-18
6.200000E+03	6.420464E-18	2.125673E-18
6.210000E+03	6.387908E-18	2.114738E-18
6.220000E+03	6.355997E-18	2.104016E-18
6.230000E+03	6.324824E-18	2.093540E-18
6.240000E+03	6.294480E-18	2.083339E-18
6.250000E+03	6.265056E-18	2.073444E-18
6.260000E+03	6.236638E-18	2.063882E-18
6.270000E+03	6.209316E-18	2.054683E-18
6.280000E+03	6.183260E-18	2.045904E-18
6.290000E+03	6.158387E-18	2.037517E-18
6.300000E+03	6.135031E-18	2.029633E-18
6.310000E+03	6.113114E-18	2.022225E-18
6.320000E+03	6.092805E-18	2.015349E-18
6.330000E+03	6.074191E-18	2.009034E-18
6.340000E+03	6.057357E-18	2.003308E-18
6.350000E+03	6.042305E-18	1.998172E-18
6.360000E+03	6.029127E-18	1.993655E-18
6.370000E+03	6.017913E-18	1.989788E-18
6.380000E+03	6.008665E-18	1.986571E-18
6.390000E+03	6.001393E-18	1.984006E-18
6.400000E+03	5.996189E-18	1.982125E-18
6.410000E+03	5.992887E-18	1.980873E-18
6.420000E+03	5.991491E-18	1.980249E-18
6.430000E+03	5.991923E-18	1.980230E-18
6.440000E+03	5.994009E-18	1.980756E-18
6.450000E+03	5.997843E-18	1.981858E-18
6.460000E+03	6.003247E-18	1.983479E-18
6.470000E+03	6.010320E-18	1.985650E-18
6.480000E+03	6.019063E-18	1.988372E-18
6.490000E+03	6.029390E-18	1.991616E-18
6.500000E+03	6.041308E-18	1.995384E-18
6.510000E+03	6.054817E-18	1.999675E-18
6.520000E+03	6.069924E-18	2.004494E-18
6.530000E+03	6.086634E-18	2.009840E-18
6.540000E+03	6.105046E-18	2.015746E-18
6.550000E+03	6.125078E-18	2.022186E-18
6.560000E+03	6.146632E-18	2.029126E-18
6.570000E+03	6.169910E-18	2.036633E-18
6.580000E+03	6.194726E-18	2.044646E-18
6.590000E+03	6.221185E-18	2.053198E-18
6.600000E+03	6.249291E-18	2.062293E-18
6.610000E+03	6.279056E-18	2.071932E-18
6.620000E+03	6.310488E-18	2.082119E-18
6.630000E+03	6.343492E-18	2.092822E-18
6.640000E+03	6.378178E-18	2.104077E-18
6.650000E+03	6.414450E-18	2.115852E-18
6.660000E+03	6.452426E-18	2.128187E-18
6.670000E+03	6.492005E-18	2.141047E-18
6.680000E+03	6.533195E-18	2.154436E-18
6.690000E+03	6.576115E-18	2.168392E-18
6.700000E+03	6.620781E-18	2.182920E-18
6.710000E+03	6.666977E-18	2.197949E-18
6.720000E+03	6.714940E-18	2.213557E-18
6.730000E+03	6.764448E-18	2.229671E-18
6.740000E+03	6.815746E-18	2.246370E-18
6.750000E+03	6.868729E-18	2.263622E-18
6.760000E+03	6.923287E-18	2.281388E-18
6.770000E+03	6.979676E-18	2.299753E-18
6.780000E+03	7.037662E-18	2.318641E-18
6.790000E+03	7.097378E-18	2.338094E-18
6.800000E+03	7.158840E-18	2.358117E-18
6.810000E+03	7.222057E-18	2.378715E-18
6.820000E+03	7.286918E-18	2.399848E-18
6.830000E+03	7.353558E-18	2.421563E-18
6.840000E+03	7.421861E-18	2.443820E-18
6.850000E+03	7.491971E-18	2.466668E-18
6.860000E+03	7.563762E-18	2.490063E-18
6.870000E+03	7.637246E-18	2.514010E-18
6.880000E+03	7.712570E-18	2.538558E-18
6.890000E+03	7.789462E-18	2.563616E-18
6.900000E+03	7.868217E-18	2.589281E-18
6.910000E+03	7.948700E-18	2.615509E-18
6.920000E+03	8.030920E-18	2.642302E-18
6.930000E+03	8.114884E-18	2.669664E-18
6.940000E+03	8.200598E-18	2.697594E-18
6.950000E+03	8.287913E-18	2.726045E-18
6.960000E+03	8.376989E-18	2.755068E-18
6.970000E+03	8.467831E-18	2.784666E-18
6.980000E+03	8.560448E-18	2.814840E-18
6.990000E+03	8.654509E-18	2.845482E-18
7.000000E+03	8.750515E-18	2.876757E-18
7.010000E+03	8.847961E-18	2.908498E-18
7.020000E+03	8.947187E-18	2.940816E-18
7.030000E+03	9.048019E-18	2.973655E-18
7.040000E+03	9.150453E-18	3.007013E-18
7.050000E+03	9.254481E-18	3.040887E-18
7.060000E+03	9.360104E-18	3.075277E-18
7.070000E+03	9.467122E-18	3.110117E-18
7.080000E+03	9.575714E-18	3.145467E-18
7.090000E+03	9.685870E-18	3.181322E-18
7.100000E+03	9.797383E-18	3.217614E-18
7.110000E+03	9.910440E-18	3.254405E-18
7.120000E+03	1.002482E-17	3.291623E-18
7.130000E+03	1.014051E-17	3.329261E-18
7.140000E+03	1.025749E-17	3.367312E-18
7.150000E+03	1.037594E-17	3.405839E-18
7.160000E+03	1.049541E-17	3.444694E-18
7.170000E+03	1.061589E-17	3.483866E-18
7.180000E+03	1.073776E-17	3.523490E-18
7.190000E+03	1.086057E-17	3.563411E-18
7.200000E+03	1.098427E-17	3.603615E-18
7.210000E+03	1.110906E-17	3.644166E-18
7.220000E+03	1.123466E-17	3.684976E-18
7.230000E+03	1.136104E-17	3.726029E-18
7.240000E+03	1.148814E-17	3.767311E-18
7.250000E+03	1.161592E-17	3.808806E-18
7.260000E+03	1.174459E-17	3.850582E-18
7.270000E+03	1.187359E-17	3.892456E-18
7.280000E+03	1.200337E-17	3.934578E-18
7.290000E+03	1.213364E-17	3.976849E-18
7.300000E+03	1.226433E-17	4.019249E-18
7.310000E+03	1.239566E-17	4.061848E-18
7.320000E+03	1.252731E-17	4.104542E-18
7.330000E+03	1.265950E-17	4.147401E-18
7.340000E+03	1.279217E-17	4.190410E-18
7.350000E+03	1.292557E-17	4.233647E-18
7.360000E+03	1.305965E-17	4.277099E-18
7.370000E+03	1.319468E-17	4.320849E-18
7.380000E+03	1.333032E-17	4.364789E-18
7.390000E+03	1.346746E-17	4.409209E-18
7.400000E+03	1.360609E-17	4.454106E-18
7.410000E+03	1.374588E-17	4.499376E-18
7.420000E+03	1.388780E-17	4.545329E-18
7.430000E+03	1.403153E-17	4.591865E-18
7.440000E+03	1.417742E-17	4.639097E-18
7.450000E+03	1.432515E-17	4.686921E-18
7.460000E+03	1.447508E-17	4.735452E-18
7.470000E+03	1.462619E-17	4.784359E-18
7.480000E+03	1.477917E-17	4.833865E-18
7.490000E+03	1.493295E-17	4.883622E-18
7.500000E+03	1.508786E-17	4.933736E-18
7.510000E+03	1.524350E-17	4.984081E-18
7.520000E+03	1.539948E-17	5.034523E-18
7.530000E+03	1.555612E-17	5.085166E-18
7.540000E+03	1.571221E-17	5.135623E-18
7.550000E+03	1.586846E-17	5.186118E-18
7.560000E+03	1.602441E-17	5.236503E-18
7.570000E+03	1.617997E-17	5.286754E-18
7.580000E+03	1.633469E-17	5.336713E-18
7.590000E+03	1.648885E-17	5.386483E-18
7.600000E+03	1.664198E-17	5.435902E-18
7.610000E+03	1.679396E-17	5.484938E-18
7.620000E+03	1.694514E-17	5.533696E-18
7.630000E+03	1.709498E-17	5.582010E-18
7.640000E+03	1.724382E-17	5.629986E-18
7.650000E+03	1.739069E-17	5.677310E-18
7.660000E+03	1.753637E-17	5.724233E-18
7.670000E+03	1.768030E-17	5.770577E-18
7.680000E+03	1.782284E-17	5.816456E-18
7.690000E+03	1.796344E-17	5.861691E-18
7.700000E+03	1.810198E-17	5.906246E-18
7.710000E+03	1.823836E-17	5.950084E-18
7.720000E+03	1.837341E-17	5.993483E-18
7.730000E+03	1.850562E-17	6.035943E-18
7.740000E+03	1.863632E-17	6.077903E-18
7.750000E+03	1.876444E-17	6.119015E-18
7.760000E+03	1.889038E-17	6.159407E-18
