#wls	flux	fluxerr
1.600000E+03	2.326255E-16	4.143536E-17
1.640000E+03	2.394579E-16	4.265090E-17
1.680000E+03	2.458782E-16	4.379285E-17
1.720000E+03	2.518416E-16	4.485328E-17
1.760000E+03	2.572000E-16	4.580576E-17
1.800000E+03	2.619472E-16	4.664921E-17
1.840000E+03	2.659292E-16	4.735622E-17
1.880000E+03	2.691101E-16	4.792039E-17
1.920000E+03	2.714063E-16	4.832686E-17
1.960000E+03	2.726937E-16	4.855355E-17
2.000000E+03	2.729437E-16	4.859537E-17
2.040000E+03	2.720701E-16	4.843702E-17
2.080000E+03	2.700037E-16	4.806621E-17
2.120000E+03	2.666939E-16	4.747397E-17
2.160000E+03	2.620804E-16	4.664958E-17
2.200000E+03	2.560744E-16	4.557733E-17
2.240000E+03	2.485974E-16	4.424329E-17
2.280000E+03	2.396802E-16	4.265300E-17
2.320000E+03	2.295045E-16	4.083885E-17
2.360000E+03	2.183900E-16	3.885782E-17
2.400000E+03	2.065893E-16	3.675490E-17
2.440000E+03	1.943297E-16	3.457058E-17
2.480000E+03	1.817719E-16	3.233348E-17
2.520000E+03	1.690850E-16	3.007371E-17
2.560000E+03	1.564036E-16	2.781527E-17
2.600000E+03	1.438677E-16	2.558306E-17
2.640000E+03	1.315891E-16	2.339696E-17
2.680000E+03	1.196724E-16	2.127560E-17
2.720000E+03	1.082132E-16	1.923598E-17
2.760000E+03	9.728597E-17	1.729133E-17
2.800000E+03	8.695712E-17	1.545343E-17
2.840000E+03	7.727960E-17	1.373169E-17
2.880000E+03	6.829804E-17	1.213400E-17
2.920000E+03	6.004690E-17	1.066647E-17
2.960000E+03	5.254530E-17	9.332445E-18
3.000000E+03	4.579728E-17	8.132612E-18
3.010000E+03	4.422669E-17	7.853381E-18
3.020000E+03	4.270117E-17	7.582172E-18
3.030000E+03	4.122193E-17	7.319198E-18
3.040000E+03	3.978624E-17	7.063978E-18
3.050000E+03	3.839515E-17	6.816695E-18
3.060000E+03	3.704774E-17	6.577186E-18
3.070000E+03	3.574387E-17	6.345424E-18
3.080000E+03	3.448110E-17	6.120976E-18
3.090000E+03	3.326070E-17	5.904067E-18
3.100000E+03	3.208031E-17	5.694277E-18
3.110000E+03	3.094031E-17	5.491673E-18
3.120000E+03	2.983967E-17	5.296070E-18
3.130000E+03	2.877686E-17	5.107198E-18
3.140000E+03	2.775204E-17	4.925083E-18
3.150000E+03	2.676366E-17	4.749451E-18
3.160000E+03	2.581131E-17	4.580226E-18
3.170000E+03	2.489399E-17	4.417231E-18
3.180000E+03	2.401074E-17	4.260295E-18
3.190000E+03	2.316103E-17	4.109324E-18
3.200000E+03	2.234393E-17	3.964151E-18
3.210000E+03	2.155811E-17	3.824541E-18
3.220000E+03	2.080346E-17	3.690472E-18
3.230000E+03	2.007873E-17	3.561724E-18
3.240000E+03	1.938344E-17	3.438207E-18
3.250000E+03	1.871672E-17	3.319770E-18
3.260000E+03	1.807743E-17	3.206210E-18
3.270000E+03	1.746537E-17	3.097489E-18
3.280000E+03	1.687915E-17	2.993361E-18
3.290000E+03	1.631847E-17	2.893771E-18
3.300000E+03	1.578248E-17	2.798568E-18
3.310000E+03	1.526988E-17	2.707524E-18
3.320000E+03	1.478033E-17	2.620574E-18
3.330000E+03	1.431304E-17	2.537578E-18
3.340000E+03	1.386695E-17	2.458350E-18
3.350000E+03	1.344133E-17	2.382758E-18
3.360000E+03	1.303543E-17	2.310668E-18
3.370000E+03	1.264850E-17	2.241949E-18
3.380000E+03	1.227983E-17	2.176472E-18
3.390000E+03	1.192871E-17	2.114114E-18
3.400000E+03	1.159432E-17	2.054726E-18
3.410000E+03	1.127587E-17	1.998168E-18
3.420000E+03	1.097301E-17	1.944380E-18
3.430000E+03	1.068473E-17	1.893180E-18
3.440000E+03	1.041059E-17	1.844491E-18
3.450000E+03	1.014992E-17	1.798192E-18
3.460000E+03	9.902172E-18	1.754189E-18
3.470000E+03	9.666625E-18	1.712351E-18
3.480000E+03	9.442702E-18	1.672577E-18
3.490000E+03	9.229962E-18	1.634787E-18
3.500000E+03	9.027782E-18	1.598872E-18
3.510000E+03	8.835773E-18	1.564761E-18
3.520000E+03	8.653189E-18	1.532324E-18
3.530000E+03	8.479705E-18	1.501501E-18
3.540000E+03	8.314750E-18	1.472191E-18
3.550000E+03	8.157876E-18	1.444315E-18
3.560000E+03	8.008668E-18	1.417800E-18
3.570000E+03	7.866573E-18	1.392546E-18
3.580000E+03	7.731395E-18	1.368520E-18
3.590000E+03	7.602718E-18	1.345646E-18
3.600000E+03	7.480145E-18	1.323856E-18
3.610000E+03	7.363530E-18	1.303122E-18
3.620000E+03	7.252444E-18	1.283368E-18
3.630000E+03	7.146625E-18	1.264549E-18
3.640000E+03	7.045828E-18	1.246620E-18
3.650000E+03	6.949820E-18	1.229541E-18
3.660000E+03	6.858378E-18	1.213271E-18
3.670000E+03	6.771293E-18	1.197773E-18
3.680000E+03	6.688428E-18	1.183023E-18
3.690000E+03	6.609647E-18	1.168997E-18
3.700000E+03	6.534759E-18	1.155661E-18
3.710000E+03	6.463813E-18	1.143023E-18
3.720000E+03	6.396564E-18	1.131041E-18
3.730000E+03	6.332998E-18	1.119710E-18
3.740000E+03	6.272987E-18	1.109009E-18
3.750000E+03	6.216460E-18	1.098925E-18
3.760000E+03	6.163449E-18	1.089463E-18
3.770000E+03	6.113717E-18	1.080582E-18
3.780000E+03	6.067293E-18	1.072286E-18
3.790000E+03	6.024149E-18	1.064570E-18
3.800000E+03	5.984103E-18	1.057402E-18
3.810000E+03	5.947179E-18	1.050787E-18
3.820000E+03	5.913342E-18	1.044717E-18
3.830000E+03	5.882467E-18	1.039170E-18
3.840000E+03	5.854473E-18	1.034133E-18
3.850000E+03	5.829423E-18	1.029616E-18
3.860000E+03	5.807146E-18	1.025588E-18
3.870000E+03	5.787655E-18	1.022052E-18
3.880000E+03	5.770873E-18	1.018995E-18
3.890000E+03	5.756769E-18	1.016410E-18
3.900000E+03	5.745315E-18	1.014292E-18
3.910000E+03	5.736387E-18	1.012621E-18
3.920000E+03	5.729958E-18	1.011389E-18
3.930000E+03	5.726047E-18	1.010602E-18
3.940000E+03	5.724579E-18	1.010245E-18
3.950000E+03	5.725484E-18	1.010306E-18
3.960000E+03	5.728737E-18	1.010780E-18
3.970000E+03	5.734266E-18	1.011655E-18
3.980000E+03	5.742050E-18	1.012927E-18
3.990000E+03	5.752063E-18	1.014591E-18
4.000000E+03	5.764286E-18	1.016643E-18
4.010000E+03	5.778607E-18	1.019064E-18
4.020000E+03	5.795009E-18	1.021851E-18
4.030000E+03	5.813474E-18	1.024999E-18
4.040000E+03	5.833988E-18	1.028508E-18
4.050000E+03	5.856490E-18	1.032365E-18
4.060000E+03	5.880924E-18	1.036561E-18
4.070000E+03	5.907280E-18	1.041094E-18
4.080000E+03	5.935502E-18	1.045954E-18
4.090000E+03	5.965581E-18	1.051139E-18
4.100000E+03	5.997463E-18	1.056640E-18
4.110000E+03	6.031141E-18	1.062454E-18
4.120000E+03	6.066563E-18	1.068574E-18
4.130000E+03	6.103672E-18	1.074988E-18
4.140000E+03	6.142465E-18	1.081697E-18
4.150000E+03	6.182890E-18	1.088690E-18
4.160000E+03	6.224943E-18	1.095967E-18
4.170000E+03	6.268526E-18	1.103511E-18
4.180000E+03	6.313637E-18	1.111321E-18
4.190000E+03	6.360176E-18	1.119379E-18
4.200000E+03	6.408192E-18	1.127694E-18
4.210000E+03	6.457590E-18	1.136250E-18
4.220000E+03	6.508367E-18	1.145044E-18
4.230000E+03	6.560374E-18	1.154052E-18
4.240000E+03	6.613660E-18	1.163281E-18
4.250000E+03	6.668072E-18	1.172705E-18
4.260000E+03	6.723659E-18	1.182331E-18
4.270000E+03	6.780263E-18	1.192133E-18
4.280000E+03	6.837778E-18	1.202092E-18
4.290000E+03	6.896250E-18	1.212214E-18
4.300000E+03	6.955464E-18	1.222463E-18
4.310000E+03	7.015471E-18	1.232848E-18
4.320000E+03	7.076047E-18	1.243328E-18
4.330000E+03	7.137247E-18	1.253914E-18
4.340000E+03	7.198954E-18	1.264585E-18
4.350000E+03	7.261055E-18	1.275321E-18
4.360000E+03	7.323543E-18	1.286120E-18
4.370000E+03	7.386359E-18	1.296973E-18
4.380000E+03	7.449559E-18	1.307888E-18
4.390000E+03	7.513023E-18	1.318846E-18
4.400000E+03	7.576871E-18	1.329866E-18
4.410000E+03	7.641104E-18	1.340949E-18
4.420000E+03	7.705728E-18	1.352096E-18
4.430000E+03	7.770748E-18	1.363308E-18
4.440000E+03	7.836235E-18	1.374596E-18
4.450000E+03	7.902138E-18	1.385953E-18
4.460000E+03	7.968533E-18	1.397391E-18
4.470000E+03	8.035435E-18	1.408913E-18
4.480000E+03	8.102859E-18	1.420521E-18
4.490000E+03	8.170760E-18	1.432208E-18
4.500000E+03	8.239153E-18	1.443975E-18
4.510000E+03	8.307983E-18	1.455814E-18
4.520000E+03	8.377338E-18	1.467739E-18
4.530000E+03	8.447094E-18	1.479729E-18
4.540000E+03	8.517265E-18	1.491786E-18
4.550000E+03	8.587865E-18	1.503913E-18
4.560000E+03	8.658764E-18	1.516086E-18
4.570000E+03	8.730050E-18	1.528320E-18
4.580000E+03	8.801594E-18	1.540594E-18
4.590000E+03	8.873411E-18	1.552910E-18
4.600000E+03	8.945372E-18	1.565245E-18
4.610000E+03	9.017577E-18	1.577617E-18
4.620000E+03	9.089976E-18	1.590016E-18
4.630000E+03	9.162443E-18	1.602421E-18
4.640000E+03	9.235010E-18	1.614837E-18
4.650000E+03	9.307716E-18	1.627271E-18
4.660000E+03	9.380520E-18	1.639715E-18
4.670000E+03	9.453303E-18	1.652149E-18
4.680000E+03	9.526279E-18	1.664611E-18
4.690000E+03	9.599504E-18	1.677109E-18
4.700000E+03	9.672871E-18	1.689625E-18
4.710000E+03	9.746442E-18	1.702170E-18
4.720000E+03	9.820288E-18	1.714755E-18
4.730000E+03	9.894215E-18	1.727348E-18
4.740000E+03	9.968298E-18	1.739962E-18
4.750000E+03	1.004243E-17	1.752577E-18
4.760000E+03	1.011670E-17	1.765207E-18
4.770000E+03	1.019109E-17	1.777853E-18
4.780000E+03	1.026551E-17	1.790495E-18
4.790000E+03	1.034004E-17	1.803149E-18
4.800000E+03	1.041459E-17	1.815799E-18
4.810000E+03	1.048924E-17	1.828460E-18
4.820000E+03	1.056392E-17	1.841117E-18
4.830000E+03	1.063860E-17	1.853767E-18
4.840000E+03	1.071330E-17	1.866413E-18
4.850000E+03	1.078812E-17	1.879070E-18
4.860000E+03	1.086295E-17	1.891723E-18
4.870000E+03	1.093779E-17	1.904369E-18
4.880000E+03	1.101254E-17	1.916991E-18
4.890000E+03	1.108740E-17	1.929624E-18
4.900000E+03	1.116226E-17	1.942247E-18
4.910000E+03	1.123709E-17	1.954859E-18
4.920000E+03	1.131179E-17	1.967439E-18
4.930000E+03	1.138643E-17	1.980000E-18
4.940000E+03	1.146089E-17	1.992520E-18
4.950000E+03	1.153514E-17	2.004995E-18
4.960000E+03	1.160925E-17	2.017438E-18
4.970000E+03	1.168309E-17	2.029824E-18
4.980000E+03	1.175662E-17	2.042148E-18
4.990000E+03	1.182968E-17	2.054383E-18
5.000000E+03	1.190236E-17	2.066541E-18
5.010000E+03	1.197461E-17	2.078616E-18
5.020000E+03	1.204627E-17	2.090578E-18
5.030000E+03	1.211727E-17	2.102418E-18
5.040000E+03	1.218756E-17	2.114126E-18
5.050000E+03	1.225698E-17	2.125673E-18
5.060000E+03	1.232556E-17	2.137065E-18
5.070000E+03	1.239325E-17	2.148294E-18
5.080000E+03	1.245974E-17	2.159307E-18
5.090000E+03	1.252510E-17	2.170113E-18
5.100000E+03	1.258926E-17	2.180704E-18
5.110000E+03	1.265205E-17	2.191046E-18
5.120000E+03	1.271340E-17	2.201133E-18
5.130000E+03	1.277328E-17	2.210954E-18
5.140000E+03	1.283163E-17	2.220502E-18
5.150000E+03	1.288829E-17	2.229747E-18
5.160000E+03	1.294332E-17	2.238703E-18
5.170000E+03	1.299644E-17	2.247319E-18
5.180000E+03	1.304772E-17	2.255609E-18
5.190000E+03	1.309696E-17	2.263538E-18
5.200000E+03	1.314411E-17	2.271097E-18
5.210000E+03	1.318910E-17	2.278274E-18
5.220000E+03	1.323186E-17	2.285057E-18
5.230000E+03	1.327203E-17	2.291387E-18
5.240000E+03	1.330977E-17	2.297288E-18
5.250000E+03	1.334485E-17	2.302722E-18
5.260000E+03	1.337716E-17	2.307671E-18
5.270000E+03	1.340644E-17	2.312090E-18
5.280000E+03	1.343257E-17	2.315959E-18
5.290000E+03	1.345543E-17	2.319257E-18
5.300000E+03	1.347490E-17	2.321964E-18
5.310000E+03	1.349086E-17	2.324060E-18
5.320000E+03	1.350308E-17	2.325507E-18
5.330000E+03	1.351175E-17	2.326337E-18
5.340000E+03	1.351655E-17	2.326494E-18
5.350000E+03	1.351739E-17	2.325966E-18
5.360000E+03	1.351453E-17	2.324795E-18
5.370000E+03	1.350767E-17	2.322933E-18
5.380000E+03	1.349709E-17	2.320427E-18
5.390000E+03	1.348267E-17	2.317259E-18
5.400000E+03	1.346457E-17	2.313453E-18
5.410000E+03	1.344269E-17	2.308997E-18
5.420000E+03	1.341737E-17	2.303947E-18
5.430000E+03	1.338856E-17	2.298295E-18
5.440000E+03	1.335646E-17	2.292078E-18
5.450000E+03	1.332092E-17	2.285269E-18
5.460000E+03	1.328220E-17	2.277914E-18
5.470000E+03	1.324030E-17	2.270012E-18
5.480000E+03	1.319524E-17	2.261568E-18
5.490000E+03	1.314730E-17	2.252633E-18
5.500000E+03	1.309641E-17	2.243192E-18
5.510000E+03	1.304262E-17	2.233255E-18
5.520000E+03	1.298612E-17	2.222855E-18
5.530000E+03	1.292686E-17	2.211983E-18
5.540000E+03	1.286516E-17	2.200698E-18
5.550000E+03	1.280087E-17	2.188971E-18
5.560000E+03	1.273443E-17	2.176880E-18
5.570000E+03	1.266595E-17	2.164442E-18
5.580000E+03	1.259550E-17	2.151671E-18
5.590000E+03	1.252328E-17	2.138601E-18
5.600000E+03	1.244949E-17	2.125268E-18
5.610000E+03	1.237421E-17	2.111683E-18
5.620000E+03	1.229787E-17	2.097922E-18
5.630000E+03	1.222039E-17	2.083971E-18
5.640000E+03	1.214220E-17	2.069902E-18
5.650000E+03	1.206319E-17	2.055699E-18
5.660000E+03	1.198376E-17	2.041430E-18
5.670000E+03	1.190405E-17	2.027118E-18
5.680000E+03	1.182406E-17	2.012764E-18
5.690000E+03	1.174404E-17	1.998410E-18
5.700000E+03	1.166410E-17	1.984073E-18
5.710000E+03	1.158445E-17	1.969793E-18
5.720000E+03	1.150520E-17	1.955586E-18
5.730000E+03	1.142632E-17	1.941447E-18
5.740000E+03	1.134813E-17	1.927430E-18
5.750000E+03	1.127070E-17	1.913549E-18
5.760000E+03	1.119400E-17	1.899796E-18
5.770000E+03	1.111822E-17	1.886205E-18
5.780000E+03	1.104355E-17	1.872807E-18
5.790000E+03	1.097004E-17	1.859612E-18
5.800000E+03	1.089767E-17	1.846614E-18
5.810000E+03	1.082660E-17	1.833843E-18
5.820000E+03	1.075702E-17	1.821329E-18
5.830000E+03	1.068901E-17	1.809084E-18
5.840000E+03	1.062250E-17	1.797099E-18
5.850000E+03	1.055769E-17	1.785405E-18
5.860000E+03	1.049464E-17	1.774015E-18
5.870000E+03	1.043354E-17	1.762958E-18
5.880000E+03	1.037446E-17	1.752245E-18
5.890000E+03	1.031736E-17	1.741870E-18
5.900000E+03	1.026240E-17	1.731862E-18
5.910000E+03	1.020955E-17	1.722212E-18
5.920000E+03	1.015921E-17	1.712987E-18
5.930000E+03	1.011107E-17	1.704138E-18
5.940000E+03	1.006531E-17	1.695691E-18
5.950000E+03	1.002207E-17	1.687671E-18
5.960000E+03	9.981268E-18	1.680064E-18
5.970000E+03	9.942931E-18	1.672872E-18
5.980000E+03	9.907191E-18	1.666119E-18
5.990000E+03	9.873942E-18	1.659785E-18
6.000000E+03	9.843304E-18	1.653891E-18
6.010000E+03	9.815052E-18	1.648398E-18
6.020000E+03	9.789407E-18	1.643342E-18
6.030000E+03	9.766131E-18	1.638683E-18
6.040000E+03	9.745439E-18	1.634456E-18
6.050000E+03	9.726971E-18	1.630601E-18
6.060000E+03	9.710935E-18	1.627152E-18
6.070000E+03	9.697189E-18	1.624085E-18
6.080000E+03	9.685709E-18	1.621395E-18
6.090000E+03	9.676229E-18	1.619037E-18
6.100000E+03	9.668949E-18	1.617043E-18
6.110000E+03	9.663484E-18	1.615350E-18
6.120000E+03	9.660025E-18	1.613988E-18
6.130000E+03	9.658178E-18	1.612892E-18
6.140000E+03	9.657896E-18	1.612052E-18
6.150000E+03	9.659010E-18	1.611441E-18
6.160000E+03	9.661471E-18	1.611050E-18
6.170000E+03	9.664858E-18	1.610808E-18
6.180000E+03	9.669113E-18	1.610706E-18
6.190000E+03	9.674045E-18	1.610711E-18
6.200000E+03	9.679587E-18	1.610812E-18
6.210000E+03	9.685670E-18	1.610997E-18
6.220000E+03	9.692466E-18	1.611296E-18
6.230000E+03	9.700285E-18	1.611758E-18
6.240000E+03	9.709188E-18	1.612395E-18
6.250000E+03	9.719372E-18	1.613238E-18
6.260000E+03	9.731037E-18	1.614320E-18
6.270000E+03	9.744264E-18	1.615654E-18
6.280000E+03	9.759270E-18	1.617276E-18
6.290000E+03	9.776149E-18	1.619201E-18
6.300000E+03	9.795001E-18	1.621445E-18
6.310000E+03	9.816067E-18	1.624047E-18
6.320000E+03	9.839327E-18	1.627003E-18
6.330000E+03	9.865037E-18	1.630355E-18
6.340000E+03	9.893054E-18	1.634078E-18
6.350000E+03	9.923507E-18	1.638194E-18
6.360000E+03	9.956392E-18	1.642700E-18
6.370000E+03	9.991854E-18	1.647620E-18
6.380000E+03	1.002975E-17	1.652931E-18
6.390000E+03	1.007010E-17	1.658632E-18
6.400000E+03	1.011275E-17	1.664699E-18
6.410000E+03	1.015741E-17	1.671085E-18
6.420000E+03	1.020393E-17	1.677764E-18
6.430000E+03	1.025232E-17	1.684733E-18
6.440000E+03	1.030255E-17	1.691992E-18
6.450000E+03	1.035463E-17	1.699540E-18
6.460000E+03	1.040870E-17	1.707400E-18
6.470000E+03	1.046494E-17	1.715598E-18
6.480000E+03	1.052335E-17	1.724136E-18
6.490000E+03	1.058378E-17	1.732987E-18
6.500000E+03	1.064656E-17	1.742206E-18
6.510000E+03	1.071171E-17	1.751796E-18
6.520000E+03	1.077909E-17	1.761731E-18
6.530000E+03	1.084888E-17	1.772040E-18
6.540000E+03	1.092111E-17	1.782728E-18
6.550000E+03	1.099562E-17	1.793768E-18
6.560000E+03	1.107244E-17	1.805163E-18
6.570000E+03	1.115194E-17	1.816974E-18
6.580000E+03	1.123361E-17	1.829117E-18
6.590000E+03	1.131783E-17	1.841652E-18
6.600000E+03	1.140464E-17	1.854584E-18
6.610000E+03	1.149369E-17	1.867857E-18
6.620000E+03	1.158538E-17	1.881533E-18
6.630000E+03	1.167934E-17	1.895555E-18
6.640000E+03	1.177601E-17	1.909987E-18
6.650000E+03	1.187499E-17	1.924769E-18
6.660000E+03	1.197652E-17	1.939937E-18
6.670000E+03	1.208062E-17	1.955492E-18
6.680000E+03	1.218712E-17	1.971408E-18
6.690000E+03	1.229602E-17	1.987682E-18
6.700000E+03	1.240758E-17	2.004354E-18
6.710000E+03	1.252157E-17	2.021390E-18
6.720000E+03	1.263806E-17	2.038797E-18
6.730000E+03	1.275705E-17	2.056575E-18
6.740000E+03	1.287856E-17	2.074725E-18
6.750000E+03	1.300261E-17	2.093253E-18
6.760000E+03	1.312923E-17	2.112158E-18
6.770000E+03	1.325823E-17	2.131410E-18
6.780000E+03	1.338983E-17	2.151045E-18
6.790000E+03	1.352407E-17	2.171067E-18
6.800000E+03	1.366074E-17	2.191442E-18
6.810000E+03	1.380009E-17	2.212209E-18
6.820000E+03	1.394190E-17	2.233330E-18
6.830000E+03	1.408620E-17	2.254810E-18
6.840000E+03	1.423298E-17	2.276646E-18
6.850000E+03	1.438228E-17	2.298844E-18
6.860000E+03	1.453437E-17	2.321446E-18
6.870000E+03	1.468874E-17	2.344369E-18
6.880000E+03	1.484568E-17	2.367657E-18
6.890000E+03	1.500519E-17	2.391312E-18
6.900000E+03	1.516702E-17	2.415290E-18
6.910000E+03	1.533145E-17	2.439636E-18
6.920000E+03	1.549850E-17	2.464352E-18
6.930000E+03	1.566791E-17	2.489395E-18
6.940000E+03	1.583965E-17	2.514760E-18
6.950000E+03	1.601406E-17	2.540498E-18
6.960000E+03	1.619081E-17	2.566559E-18
6.970000E+03	1.636993E-17	2.592944E-18
6.980000E+03	1.655140E-17	2.619649E-18
6.990000E+03	1.673524E-17	2.646676E-18
7.000000E+03	1.692109E-17	2.673968E-18
7.010000E+03	1.710962E-17	2.701629E-18
7.020000E+03	1.730016E-17	2.729552E-18
7.030000E+03	1.749302E-17	2.757787E-18
7.040000E+03	1.768786E-17	2.786275E-18
7.050000E+03	1.788466E-17	2.815016E-18
7.060000E+03	1.808374E-17	2.844057E-18
7.070000E+03	1.828474E-17	2.873342E-18
7.080000E+03	1.848726E-17	2.902807E-18
7.090000E+03	1.869202E-17	2.932563E-18
7.100000E+03	1.889861E-17	2.962545E-18
7.110000E+03	1.910663E-17	2.992690E-18
7.120000E+03	1.931643E-17	3.023051E-18
7.130000E+03	1.952755E-17	3.053557E-18
7.140000E+03	1.974039E-17	3.084268E-18
7.150000E+03	1.995447E-17	3.115110E-18
7.160000E+03	2.017018E-17	3.146142E-18
7.170000E+03	2.038664E-17	3.177225E-18
7.180000E+03	2.060420E-17	3.208415E-18
7.190000E+03	2.082324E-17	3.239769E-18
7.200000E+03	2.104285E-17	3.271147E-18
7.210000E+03	2.126295E-17	3.302532E-18
7.220000E+03	2.148392E-17	3.333987E-18
7.230000E+03	2.170570E-17	3.365501E-18
7.240000E+03	2.192778E-17	3.396993E-18
7.250000E+03	2.215052E-17	3.428520E-18
7.260000E+03	2.237338E-17	3.459998E-18
7.270000E+03	2.259630E-17	3.491416E-18
7.280000E+03	2.281963E-17	3.522830E-18
7.290000E+03	2.304283E-17	3.554154E-18
7.300000E+03	2.326627E-17	3.585448E-18
7.310000E+03	2.348936E-17	3.616617E-18
7.320000E+03	2.371198E-17	3.647647E-18
7.330000E+03	2.393506E-17	3.678678E-18
7.340000E+03	2.415745E-17	3.709535E-18
7.350000E+03	2.438013E-17	3.740367E-18
7.360000E+03	2.460245E-17	3.771077E-18
7.370000E+03	2.482492E-17	3.801738E-18
7.380000E+03	2.504801E-17	3.832426E-18
7.390000E+03	2.527111E-17	3.863048E-18
7.400000E+03	2.549535E-17	3.893773E-18
7.410000E+03	2.572072E-17	3.924601E-18
7.420000E+03	2.594782E-17	3.955624E-18
7.430000E+03	2.617671E-17	3.986849E-18
7.440000E+03	2.640743E-17	4.018280E-18
7.450000E+03	2.664065E-17	4.050021E-18
7.460000E+03	2.687521E-17	4.081895E-18
7.470000E+03	2.711115E-17	4.113905E-18
7.480000E+03	2.734790E-17	4.145965E-18
7.490000E+03	2.758614E-17	4.178178E-18
7.500000E+03	2.782527E-17	4.210452E-18
7.510000E+03	2.806470E-17	4.242700E-18
7.520000E+03	2.830445E-17	4.274921E-18
7.530000E+03	2.854456E-17	4.307124E-18
7.540000E+03	2.878440E-17	4.339213E-18
7.550000E+03	2.902468E-17	4.371295E-18
7.560000E+03	2.926405E-17	4.403167E-18
7.570000E+03	2.950396E-17	4.435049E-18
7.580000E+03	2.974375E-17	4.466840E-18
7.590000E+03	2.998347E-17	4.498546E-18
7.600000E+03	3.022237E-17	4.530059E-18
7.610000E+03	3.046119E-17	4.561489E-18
7.620000E+03	3.069992E-17	4.592833E-18
7.630000E+03	3.093850E-17	4.624084E-18
7.640000E+03	3.117609E-17	4.655116E-18
7.650000E+03	3.141334E-17	4.686028E-18
7.660000E+03	3.164931E-17	4.716678E-18
7.670000E+03	3.188540E-17	4.747278E-18
7.680000E+03	3.211903E-17	4.777442E-18
7.690000E+03	3.235237E-17	4.807493E-18
7.700000E+03	3.258436E-17	4.837278E-18
7.710000E+03	3.281389E-17	4.866632E-18
7.720000E+03	3.304153E-17	4.895638E-18
7.730000E+03	3.326693E-17	4.924248E-18
7.740000E+03	3.348979E-17	4.952419E-18
7.750000E+03	3.370978E-17	4.980103E-18
7.760000E+03	3.392743E-17	5.007379E-18
