#wls	flux	fluxerr
1.600000E+03	3.435979E-16	1.095792E-16
1.640000E+03	3.535189E-16	1.127414E-16
1.680000E+03	3.627695E-16	1.156898E-16
1.720000E+03	3.712419E-16	1.183898E-16
1.760000E+03	3.787840E-16	1.207929E-16
1.800000E+03	3.852742E-16	1.228605E-16
1.840000E+03	3.905517E-16	1.245412E-16
1.880000E+03	3.945262E-16	1.258063E-16
1.920000E+03	3.970721E-16	1.266157E-16
1.960000E+03	3.980383E-16	1.269213E-16
2.000000E+03	3.973499E-16	1.266991E-16
2.040000E+03	3.948839E-16	1.259101E-16
2.080000E+03	3.905433E-16	1.245234E-16
2.120000E+03	3.843170E-16	1.225353E-16
2.160000E+03	3.760938E-16	1.199106E-16
2.200000E+03	3.658251E-16	1.166338E-16
2.240000E+03	3.534640E-16	1.126899E-16
2.280000E+03	3.389145E-16	1.080484E-16
2.320000E+03	3.226248E-16	1.028524E-16
2.360000E+03	3.050453E-16	9.724534E-17
2.400000E+03	2.865357E-16	9.134200E-17
2.440000E+03	2.674008E-16	8.523961E-17
2.480000E+03	2.479266E-16	7.902937E-17
2.520000E+03	2.283695E-16	7.279297E-17
2.560000E+03	2.089518E-16	6.660138E-17
2.600000E+03	1.898938E-16	6.052474E-17
2.640000E+03	1.713909E-16	5.462540E-17
2.680000E+03	1.536148E-16	4.895804E-17
2.720000E+03	1.367132E-16	4.356976E-17
2.760000E+03	1.208174E-16	3.850234E-17
2.800000E+03	1.060139E-16	3.378338E-17
2.840000E+03	9.237067E-17	2.943448E-17
2.880000E+03	7.993852E-17	2.547181E-17
2.920000E+03	6.874239E-17	2.190328E-17
2.960000E+03	5.878527E-17	1.872980E-17
3.000000E+03	5.003845E-17	1.594219E-17
3.010000E+03	4.803403E-17	1.530340E-17
3.020000E+03	4.610028E-17	1.468714E-17
3.030000E+03	4.423668E-17	1.409324E-17
3.040000E+03	4.244144E-17	1.352114E-17
3.050000E+03	4.071290E-17	1.297029E-17
3.060000E+03	3.905018E-17	1.244043E-17
3.070000E+03	3.745066E-17	1.193071E-17
3.080000E+03	3.591415E-17	1.144108E-17
3.090000E+03	3.443804E-17	1.097070E-17
3.100000E+03	3.302122E-17	1.051921E-17
3.110000E+03	3.166188E-17	1.008605E-17
3.120000E+03	3.035880E-17	9.670824E-18
3.130000E+03	2.911008E-17	9.272923E-18
3.140000E+03	2.791394E-17	8.891779E-18
3.150000E+03	2.676907E-17	8.526973E-18
3.160000E+03	2.567314E-17	8.177767E-18
3.170000E+03	2.462540E-17	7.843920E-18
3.180000E+03	2.362358E-17	7.524707E-18
3.190000E+03	2.266642E-17	7.219727E-18
3.200000E+03	2.175218E-17	6.928428E-18
3.210000E+03	2.087924E-17	6.650289E-18
3.220000E+03	2.004631E-17	6.384900E-18
3.230000E+03	1.925179E-17	6.131751E-18
3.240000E+03	1.849380E-17	5.890245E-18
3.250000E+03	1.777176E-17	5.660195E-18
3.260000E+03	1.708328E-17	5.440841E-18
3.270000E+03	1.642779E-17	5.231997E-18
3.280000E+03	1.580335E-17	5.033046E-18
3.290000E+03	1.520886E-17	4.843643E-18
3.300000E+03	1.464326E-17	4.663443E-18
3.310000E+03	1.410483E-17	4.491901E-18
3.320000E+03	1.359280E-17	4.328770E-18
3.330000E+03	1.310597E-17	4.173670E-18
3.340000E+03	1.264302E-17	4.026179E-18
3.350000E+03	1.220288E-17	3.885955E-18
3.360000E+03	1.178452E-17	3.752671E-18
3.370000E+03	1.138710E-17	3.626061E-18
3.380000E+03	1.100938E-17	3.505724E-18
3.390000E+03	1.065074E-17	3.391466E-18
3.400000E+03	1.031002E-17	3.282920E-18
3.410000E+03	9.986417E-18	3.179827E-18
3.420000E+03	9.679274E-18	3.081977E-18
3.430000E+03	9.387486E-18	2.989020E-18
3.440000E+03	9.110591E-18	2.900807E-18
3.450000E+03	8.847806E-18	2.817089E-18
3.460000E+03	8.598190E-18	2.737566E-18
3.470000E+03	8.361368E-18	2.662119E-18
3.480000E+03	8.136493E-18	2.590478E-18
3.490000E+03	7.923054E-18	2.522480E-18
3.500000E+03	7.720477E-18	2.457943E-18
3.510000E+03	7.527973E-18	2.396614E-18
3.520000E+03	7.345147E-18	2.338367E-18
3.530000E+03	7.171378E-18	2.283006E-18
3.540000E+03	7.006105E-18	2.230352E-18
3.550000E+03	6.848877E-18	2.180259E-18
3.560000E+03	6.699129E-18	2.132550E-18
3.570000E+03	6.556420E-18	2.087083E-18
3.580000E+03	6.420268E-18	2.043704E-18
3.590000E+03	6.290354E-18	2.002313E-18
3.600000E+03	6.166317E-18	1.962793E-18
3.610000E+03	6.047761E-18	1.925019E-18
3.620000E+03	5.934430E-18	1.888909E-18
3.630000E+03	5.826078E-18	1.854386E-18
3.640000E+03	5.722370E-18	1.821341E-18
3.650000E+03	5.623238E-18	1.789754E-18
3.660000E+03	5.528371E-18	1.759525E-18
3.670000E+03	5.437660E-18	1.730620E-18
3.680000E+03	5.350950E-18	1.702989E-18
3.690000E+03	5.268090E-18	1.676585E-18
3.700000E+03	5.188976E-18	1.651373E-18
3.710000E+03	5.113552E-18	1.627337E-18
3.720000E+03	5.041575E-18	1.604398E-18
3.730000E+03	4.973077E-18	1.582567E-18
3.740000E+03	4.907866E-18	1.561782E-18
3.750000E+03	4.845884E-18	1.542026E-18
3.760000E+03	4.787065E-18	1.523277E-18
3.770000E+03	4.731233E-18	1.505479E-18
3.780000E+03	4.678403E-18	1.488636E-18
3.790000E+03	4.628438E-18	1.472706E-18
3.800000E+03	4.581275E-18	1.457668E-18
3.810000E+03	4.536821E-18	1.443492E-18
3.820000E+03	4.495018E-18	1.430159E-18
3.830000E+03	4.455771E-18	1.417641E-18
3.840000E+03	4.419025E-18	1.405918E-18
3.850000E+03	4.384691E-18	1.394964E-18
3.860000E+03	4.352753E-18	1.384771E-18
3.870000E+03	4.323120E-18	1.375312E-18
3.880000E+03	4.295712E-18	1.366561E-18
3.890000E+03	4.270478E-18	1.358503E-18
3.900000E+03	4.247343E-18	1.351111E-18
3.910000E+03	4.226290E-18	1.344383E-18
3.920000E+03	4.207245E-18	1.338293E-18
3.930000E+03	4.190167E-18	1.332828E-18
3.940000E+03	4.174981E-18	1.327966E-18
3.950000E+03	4.161620E-18	1.323684E-18
3.960000E+03	4.150108E-18	1.319990E-18
3.970000E+03	4.140314E-18	1.316843E-18
3.980000E+03	4.132239E-18	1.314242E-18
3.990000E+03	4.125816E-18	1.312167E-18
4.000000E+03	4.121014E-18	1.310606E-18
4.010000E+03	4.117807E-18	1.309553E-18
4.020000E+03	4.116102E-18	1.308978E-18
4.030000E+03	4.115902E-18	1.308881E-18
4.040000E+03	4.117152E-18	1.309244E-18
4.050000E+03	4.119831E-18	1.310062E-18
4.060000E+03	4.123880E-18	1.311315E-18
4.070000E+03	4.129251E-18	1.312988E-18
4.080000E+03	4.135951E-18	1.315084E-18
4.090000E+03	4.143900E-18	1.317576E-18
4.100000E+03	4.153081E-18	1.320460E-18
4.110000E+03	4.163478E-18	1.323730E-18
4.120000E+03	4.175010E-18	1.327360E-18
4.130000E+03	4.187697E-18	1.331357E-18
4.140000E+03	4.201461E-18	1.335696E-18
4.150000E+03	4.216286E-18	1.340371E-18
4.160000E+03	4.232166E-18	1.345382E-18
4.170000E+03	4.249023E-18	1.350703E-18
4.180000E+03	4.266883E-18	1.356341E-18
4.190000E+03	4.285635E-18	1.362263E-18
4.200000E+03	4.305339E-18	1.368487E-18
4.210000E+03	4.325888E-18	1.374979E-18
4.220000E+03	4.347278E-18	1.381737E-18
4.230000E+03	4.369466E-18	1.388748E-18
4.240000E+03	4.392447E-18	1.396011E-18
4.250000E+03	4.416117E-18	1.403492E-18
4.260000E+03	4.440505E-18	1.411200E-18
4.270000E+03	4.465537E-18	1.419112E-18
4.280000E+03	4.491139E-18	1.427205E-18
4.290000E+03	4.517307E-18	1.435476E-18
4.300000E+03	4.544001E-18	1.443914E-18
4.310000E+03	4.571112E-18	1.452484E-18
4.320000E+03	4.598597E-18	1.461172E-18
4.330000E+03	4.626417E-18	1.469965E-18
4.340000E+03	4.654524E-18	1.478848E-18
4.350000E+03	4.682880E-18	1.487810E-18
4.360000E+03	4.711478E-18	1.496848E-18
4.370000E+03	4.740275E-18	1.505948E-18
4.380000E+03	4.769227E-18	1.515096E-18
4.390000E+03	4.798404E-18	1.524315E-18
4.400000E+03	4.827766E-18	1.533592E-18
4.410000E+03	4.857311E-18	1.542925E-18
4.420000E+03	4.887077E-18	1.552329E-18
4.430000E+03	4.917065E-18	1.561801E-18
4.440000E+03	4.947237E-18	1.571331E-18
4.450000E+03	4.977638E-18	1.580933E-18
4.460000E+03	5.008232E-18	1.590595E-18
4.470000E+03	5.039025E-18	1.600319E-18
4.480000E+03	5.070027E-18	1.610108E-18
4.490000E+03	5.101159E-18	1.619938E-18
4.500000E+03	5.132479E-18	1.629826E-18
4.510000E+03	5.163952E-18	1.639762E-18
4.520000E+03	5.195552E-18	1.649737E-18
4.530000E+03	5.227293E-18	1.659756E-18
4.540000E+03	5.259103E-18	1.669796E-18
4.550000E+03	5.291000E-18	1.679861E-18
4.560000E+03	5.323003E-18	1.689960E-18
4.570000E+03	5.355090E-18	1.700084E-18
4.580000E+03	5.387191E-18	1.710211E-18
4.590000E+03	5.419333E-18	1.720350E-18
4.600000E+03	5.451496E-18	1.730494E-18
4.610000E+03	5.483658E-18	1.740637E-18
4.620000E+03	5.515852E-18	1.750789E-18
4.630000E+03	5.548011E-18	1.760929E-18
4.640000E+03	5.580174E-18	1.771068E-18
4.650000E+03	5.612322E-18	1.781202E-18
4.660000E+03	5.644446E-18	1.791326E-18
4.670000E+03	5.676538E-18	1.801439E-18
4.680000E+03	5.708583E-18	1.811536E-18
4.690000E+03	5.740579E-18	1.821616E-18
4.700000E+03	5.772617E-18	1.831708E-18
4.710000E+03	5.804695E-18	1.841812E-18
4.720000E+03	5.836812E-18	1.851926E-18
4.730000E+03	5.869070E-18	1.862084E-18
4.740000E+03	5.901421E-18	1.872270E-18
4.750000E+03	5.933869E-18	1.882486E-18
4.760000E+03	5.966469E-18	1.892748E-18
4.770000E+03	5.999231E-18	1.903060E-18
4.780000E+03	6.032103E-18	1.913406E-18
4.790000E+03	6.065151E-18	1.923806E-18
4.800000E+03	6.098383E-18	1.934263E-18
4.810000E+03	6.131756E-18	1.944763E-18
4.820000E+03	6.165332E-18	1.955326E-18
4.830000E+03	6.199125E-18	1.965957E-18
4.840000E+03	6.233147E-18	1.976658E-18
4.850000E+03	6.267412E-18	1.987435E-18
4.860000E+03	6.301874E-18	1.998273E-18
4.870000E+03	6.336664E-18	2.009213E-18
4.880000E+03	6.371681E-18	2.020224E-18
4.890000E+03	6.406936E-18	2.031308E-18
4.900000E+03	6.442505E-18	2.042490E-18
4.910000E+03	6.478401E-18	2.053775E-18
4.920000E+03	6.514639E-18	2.065166E-18
4.930000E+03	6.551114E-18	2.076630E-18
4.940000E+03	6.587958E-18	2.088210E-18
4.950000E+03	6.625126E-18	2.099890E-18
4.960000E+03	6.662627E-18	2.111675E-18
4.970000E+03	6.700477E-18	2.123568E-18
4.980000E+03	6.738683E-18	2.135572E-18
4.990000E+03	6.777196E-18	2.147671E-18
5.000000E+03	6.816020E-18	2.159867E-18
5.010000E+03	6.855229E-18	2.172183E-18
5.020000E+03	6.894764E-18	2.184601E-18
5.030000E+03	6.934564E-18	2.197101E-18
5.040000E+03	6.974767E-18	2.209726E-18
5.050000E+03	7.015174E-18	2.222413E-18
5.060000E+03	7.055918E-18	2.235206E-18
5.070000E+03	7.097000E-18	2.248103E-18
5.080000E+03	7.138214E-18	2.261040E-18
5.090000E+03	7.179759E-18	2.274080E-18
5.100000E+03	7.221494E-18	2.287178E-18
5.110000E+03	7.263408E-18	2.300330E-18
5.120000E+03	7.305563E-18	2.313556E-18
5.130000E+03	7.347807E-18	2.326809E-18
5.140000E+03	7.390126E-18	2.340082E-18
5.150000E+03	7.432576E-18	2.353395E-18
5.160000E+03	7.475069E-18	2.366720E-18
5.170000E+03	7.517586E-18	2.380049E-18
5.180000E+03	7.560034E-18	2.393355E-18
5.190000E+03	7.602462E-18	2.406651E-18
5.200000E+03	7.644699E-18	2.419885E-18
5.210000E+03	7.686863E-18	2.433093E-18
5.220000E+03	7.728858E-18	2.446246E-18
5.230000E+03	7.770572E-18	2.459307E-18
5.240000E+03	7.811979E-18	2.472268E-18
5.250000E+03	7.853115E-18	2.485141E-18
5.260000E+03	7.893796E-18	2.497868E-18
5.270000E+03	7.934063E-18	2.510462E-18
5.280000E+03	7.973951E-18	2.522933E-18
5.290000E+03	8.013193E-18	2.535197E-18
5.300000E+03	8.051980E-18	2.547315E-18
5.310000E+03	8.090038E-18	2.559199E-18
5.320000E+03	8.127561E-18	2.570912E-18
5.330000E+03	8.164271E-18	2.582366E-18
5.340000E+03	8.200284E-18	2.593596E-18
5.350000E+03	8.235562E-18	2.604592E-18
5.360000E+03	8.269981E-18	2.615314E-18
5.370000E+03	8.303668E-18	2.625801E-18
5.380000E+03	8.336333E-18	2.635963E-18
5.390000E+03	8.368187E-18	2.645867E-18
5.400000E+03	8.399112E-18	2.655474E-18
5.410000E+03	8.429073E-18	2.664774E-18
5.420000E+03	8.458032E-18	2.673756E-18
5.430000E+03	8.485959E-18	2.682408E-18
5.440000E+03	8.512735E-18	2.690695E-18
5.450000E+03	8.538331E-18	2.698606E-18
5.460000E+03	8.562719E-18	2.706134E-18
5.470000E+03	8.585870E-18	2.713268E-18
5.480000E+03	8.607670E-18	2.719974E-18
5.490000E+03	8.628009E-18	2.726216E-18
5.500000E+03	8.646950E-18	2.732013E-18
5.510000E+03	8.664382E-18	2.737333E-18
5.520000E+03	8.680198E-18	2.742140E-18
5.530000E+03	8.694290E-18	2.746400E-18
5.540000E+03	8.706732E-18	2.750138E-18
5.550000E+03	8.717325E-18	2.753290E-18
5.560000E+03	8.726147E-18	2.755881E-18
5.570000E+03	8.733007E-18	2.757850E-18
5.580000E+03	8.737895E-18	2.759196E-18
5.590000E+03	8.740891E-18	2.759942E-18
5.600000E+03	8.741811E-18	2.760032E-18
5.610000E+03	8.740739E-18	2.759492E-18
5.620000E+03	8.737674E-18	2.758321E-18
5.630000E+03	8.732531E-18	2.756494E-18
5.640000E+03	8.725312E-18	2.754010E-18
5.650000E+03	8.716115E-18	2.750901E-18
5.660000E+03	8.704951E-18	2.747171E-18
5.670000E+03	8.691742E-18	2.742794E-18
5.680000E+03	8.676596E-18	2.737806E-18
5.690000E+03	8.659626E-18	2.732242E-18
5.700000E+03	8.640671E-18	2.726051E-18
5.710000E+03	8.619854E-18	2.719272E-18
5.720000E+03	8.597289E-18	2.711942E-18
5.730000E+03	8.573016E-18	2.704073E-18
5.740000E+03	8.547069E-18	2.695676E-18
5.750000E+03	8.519491E-18	2.686764E-18
5.760000E+03	8.490324E-18	2.677352E-18
5.770000E+03	8.459706E-18	2.667483E-18
5.780000E+03	8.427600E-18	2.657144E-18
5.790000E+03	8.394238E-18	2.646410E-18
5.800000E+03	8.359585E-18	2.635270E-18
5.810000E+03	8.323704E-18	2.623742E-18
5.820000E+03	8.286836E-18	2.611905E-18
5.830000E+03	8.248863E-18	2.599720E-18
5.840000E+03	8.209947E-18	2.587239E-18
5.850000E+03	8.170242E-18	2.574509E-18
5.860000E+03	8.129734E-18	2.561528E-18
5.870000E+03	8.088580E-18	2.548344E-18
5.880000E+03	8.046770E-18	2.534955E-18
5.890000E+03	8.004555E-18	2.521439E-18
5.900000E+03	7.961920E-18	2.507792E-18
5.910000E+03	7.918947E-18	2.494039E-18
5.920000E+03	7.875794E-18	2.480231E-18
5.930000E+03	7.832454E-18	2.466365E-18
5.940000E+03	7.789089E-18	2.452493E-18
5.950000E+03	7.745685E-18	2.438609E-18
5.960000E+03	7.702404E-18	2.424766E-18
5.970000E+03	7.659320E-18	2.410985E-18
5.980000E+03	7.616502E-18	2.397290E-18
5.990000E+03	7.573928E-18	2.383673E-18
6.000000E+03	7.531757E-18	2.370184E-18
6.010000E+03	7.490049E-18	2.356842E-18
6.020000E+03	7.448780E-18	2.343639E-18
6.030000E+03	7.408096E-18	2.330622E-18
6.040000E+03	7.367967E-18	2.317780E-18
6.050000E+03	7.328354E-18	2.305102E-18
6.060000E+03	7.289487E-18	2.292659E-18
6.070000E+03	7.251238E-18	2.280413E-18
6.080000E+03	7.213737E-18	2.268402E-18
6.090000E+03	7.176851E-18	2.256586E-18
6.100000E+03	7.140705E-18	2.245004E-18
6.110000E+03	7.105252E-18	2.233641E-18
6.120000E+03	7.070517E-18	2.222505E-18
6.130000E+03	7.036536E-18	2.211606E-18
6.140000E+03	7.003243E-18	2.200925E-18
6.150000E+03	6.970665E-18	2.190469E-18
6.160000E+03	6.938818E-18	2.180244E-18
6.170000E+03	6.907723E-18	2.170256E-18
6.180000E+03	6.877394E-18	2.160510E-18
6.190000E+03	6.847753E-18	2.150981E-18
6.200000E+03	6.818899E-18	2.141699E-18
6.210000E+03	6.790839E-18	2.132668E-18
6.220000E+03	6.763574E-18	2.123887E-18
6.230000E+03	6.737196E-18	2.115385E-18
6.240000E+03	6.711794E-18	2.107190E-18
6.250000E+03	6.687456E-18	2.099330E-18
6.260000E+03	6.664268E-18	2.091831E-18
6.270000E+03	6.642313E-18	2.084720E-18
6.280000E+03	6.621773E-18	2.078054E-18
6.290000E+03	6.602549E-18	2.071800E-18
6.300000E+03	6.584999E-18	2.066072E-18
6.310000E+03	6.569030E-18	2.060840E-18
6.320000E+03	6.554822E-18	2.056160E-18
6.330000E+03	6.542463E-18	2.052061E-18
6.340000E+03	6.532049E-18	2.048571E-18
6.350000E+03	6.523576E-18	2.045689E-18
6.360000E+03	6.517144E-18	2.043447E-18
6.370000E+03	6.512847E-18	2.041874E-18
6.380000E+03	6.510694E-18	2.040972E-18
6.390000E+03	6.510687E-18	2.040741E-18
6.400000E+03	6.512934E-18	2.041216E-18
6.410000E+03	6.517250E-18	2.042339E-18
6.420000E+03	6.523648E-18	2.044112E-18
6.430000E+03	6.532035E-18	2.046507E-18
6.440000E+03	6.542225E-18	2.049465E-18
6.450000E+03	6.554321E-18	2.053018E-18
6.460000E+03	6.568133E-18	2.057107E-18
6.470000E+03	6.583763E-18	2.061763E-18
6.480000E+03	6.601217E-18	2.066988E-18
6.490000E+03	6.620400E-18	2.072752E-18
6.500000E+03	6.641316E-18	2.079056E-18
6.510000E+03	6.663969E-18	2.085901E-18
6.520000E+03	6.688368E-18	2.093290E-18
6.530000E+03	6.714517E-18	2.101223E-18
6.540000E+03	6.742528E-18	2.109737E-18
6.550000E+03	6.772307E-18	2.118800E-18
6.560000E+03	6.803751E-18	2.128381E-18
6.570000E+03	6.837085E-18	2.138549E-18
6.580000E+03	6.872098E-18	2.149239E-18
6.590000E+03	6.908913E-18	2.160488E-18
6.600000E+03	6.947533E-18	2.172298E-18
6.610000E+03	6.987976E-18	2.184674E-18
6.620000E+03	7.030245E-18	2.197617E-18
6.630000E+03	7.074244E-18	2.211095E-18
6.640000E+03	7.120092E-18	2.225148E-18
6.650000E+03	7.167688E-18	2.239741E-18
6.660000E+03	7.217157E-18	2.254915E-18
6.670000E+03	7.268393E-18	2.270636E-18
6.680000E+03	7.321410E-18	2.286908E-18
6.690000E+03	7.376340E-18	2.303772E-18
6.700000E+03	7.433199E-18	2.321233E-18
6.710000E+03	7.491745E-18	2.339215E-18
6.720000E+03	7.552249E-18	2.357803E-18
6.730000E+03	7.614464E-18	2.376918E-18
6.740000E+03	7.678664E-18	2.396647E-18
6.750000E+03	7.744733E-18	2.416953E-18
6.760000E+03	7.812547E-18	2.437797E-18
6.770000E+03	7.882394E-18	2.459268E-18
6.780000E+03	7.954013E-18	2.481285E-18
6.790000E+03	8.027553E-18	2.503894E-18
6.800000E+03	8.103030E-18	2.527100E-18
6.810000E+03	8.180462E-18	2.550908E-18
6.820000E+03	8.259714E-18	2.575276E-18
6.830000E+03	8.340949E-18	2.600254E-18
6.840000E+03	8.424026E-18	2.625799E-18
6.850000E+03	8.509115E-18	2.651962E-18
6.860000E+03	8.596074E-18	2.678700E-18
6.870000E+03	8.684913E-18	2.706014E-18
6.880000E+03	8.775802E-18	2.733959E-18
6.890000E+03	8.868430E-18	2.762436E-18
6.900000E+03	8.963136E-18	2.791552E-18
6.910000E+03	9.059767E-18	2.821257E-18
6.920000E+03	9.158331E-18	2.851554E-18
6.930000E+03	9.258838E-18	2.882447E-18
6.940000E+03	9.361296E-18	2.913937E-18
6.950000E+03	9.465536E-18	2.945971E-18
6.960000E+03	9.571741E-18	2.978607E-18
6.970000E+03	9.679918E-18	3.011845E-18
6.980000E+03	9.790076E-18	3.045689E-18
6.990000E+03	9.901839E-18	3.080021E-18
7.000000E+03	1.001578E-17	3.115020E-18
7.010000E+03	1.013132E-17	3.150505E-18
7.020000E+03	1.024885E-17	3.186596E-18
7.030000E+03	1.036818E-17	3.223234E-18
7.040000E+03	1.048929E-17	3.260415E-18
7.050000E+03	1.061218E-17	3.298138E-18
7.060000E+03	1.073685E-17	3.336400E-18
7.070000E+03	1.086308E-17	3.375132E-18
7.080000E+03	1.099105E-17	3.414396E-18
7.090000E+03	1.112078E-17	3.454190E-18
7.100000E+03	1.125200E-17	3.494438E-18
7.110000E+03	1.138495E-17	3.535208E-18
7.120000E+03	1.151937E-17	3.576420E-18
7.130000E+03	1.165524E-17	3.618067E-18
7.140000E+03	1.179253E-17	3.660143E-18
7.150000E+03	1.193146E-17	3.702714E-18
7.160000E+03	1.207151E-17	3.745619E-18
7.170000E+03	1.221265E-17	3.788847E-18
7.180000E+03	1.235534E-17	3.832542E-18
7.190000E+03	1.249905E-17	3.876537E-18
7.200000E+03	1.264372E-17	3.920816E-18
7.210000E+03	1.278957E-17	3.965448E-18
7.220000E+03	1.293630E-17	4.010338E-18
7.230000E+03	1.308386E-17	4.055466E-18
7.240000E+03	1.323218E-17	4.100819E-18
7.250000E+03	1.338122E-17	4.146378E-18
7.260000E+03	1.353120E-17	4.192214E-18
7.270000E+03	1.368150E-17	4.238132E-18
7.280000E+03	1.383263E-17	4.284294E-18
7.290000E+03	1.398425E-17	4.330589E-18
7.300000E+03	1.413628E-17	4.376998E-18
7.310000E+03	1.428898E-17	4.423599E-18
7.320000E+03	1.444198E-17	4.470275E-18
7.330000E+03	1.459552E-17	4.517106E-18
7.340000E+03	1.474956E-17	4.564073E-18
7.350000E+03	1.490437E-17	4.611264E-18
7.360000E+03	1.505991E-17	4.658664E-18
7.370000E+03	1.521648E-17	4.706366E-18
7.380000E+03	1.537370E-17	4.754253E-18
7.390000E+03	1.553259E-17	4.802641E-18
7.400000E+03	1.569315E-17	4.851530E-18
7.410000E+03	1.585502E-17	4.900806E-18
7.420000E+03	1.601930E-17	4.950810E-18
7.430000E+03	1.618564E-17	5.001436E-18
7.440000E+03	1.635445E-17	5.052806E-18
7.450000E+03	1.652537E-17	5.104812E-18
7.460000E+03	1.669882E-17	5.157582E-18
7.470000E+03	1.687363E-17	5.210756E-18
7.480000E+03	1.705061E-17	5.264579E-18
7.490000E+03	1.722853E-17	5.318678E-18
7.500000E+03	1.740779E-17	5.373170E-18
7.510000E+03	1.758795E-17	5.427921E-18
7.520000E+03	1.776853E-17	5.482787E-18
7.530000E+03	1.794993E-17	5.537886E-18
7.540000E+03	1.813079E-17	5.592799E-18
7.550000E+03	1.831190E-17	5.647773E-18
7.560000E+03	1.849275E-17	5.702650E-18
7.570000E+03	1.867328E-17	5.757407E-18
7.580000E+03	1.885292E-17	5.811875E-18
7.590000E+03	1.903205E-17	5.866167E-18
7.600000E+03	1.921011E-17	5.920111E-18
7.610000E+03	1.938698E-17	5.973672E-18
7.620000E+03	1.956304E-17	6.026968E-18
7.630000E+03	1.973771E-17	6.079815E-18
7.640000E+03	1.991136E-17	6.132336E-18
7.650000E+03	2.008288E-17	6.184181E-18
7.660000E+03	2.025314E-17	6.235623E-18
7.670000E+03	2.042153E-17	6.286472E-18
7.680000E+03	2.058845E-17	6.336852E-18
7.690000E+03	2.075325E-17	6.386566E-18
7.700000E+03	2.091577E-17	6.435561E-18
7.710000E+03	2.107592E-17	6.483812E-18
7.720000E+03	2.123461E-17	6.531601E-18
7.730000E+03	2.139010E-17	6.578391E-18
7.740000E+03	2.154390E-17	6.624646E-18
7.750000E+03	2.169479E-17	6.669995E-18
7.760000E+03	2.184320E-17	6.714566E-18
