#wls	flux	fluxerr
1.600000E+03	2.998073E-16	9.016063E-17
1.640000E+03	3.096150E-16	9.310879E-17
1.680000E+03	3.190041E-16	9.593096E-17
1.720000E+03	3.278859E-16	9.860046E-17
1.760000E+03	3.361298E-16	1.010780E-16
1.800000E+03	3.436293E-16	1.033316E-16
1.840000E+03	3.502386E-16	1.053174E-16
1.880000E+03	3.558697E-16	1.070090E-16
1.920000E+03	3.603989E-16	1.083691E-16
1.960000E+03	3.636724E-16	1.093516E-16
2.000000E+03	3.655991E-16	1.099290E-16
2.040000E+03	3.660368E-16	1.100587E-16
2.080000E+03	3.648591E-16	1.097026E-16
2.120000E+03	3.620114E-16	1.088443E-16
2.160000E+03	3.573376E-16	1.074370E-16
2.200000E+03	3.507311E-16	1.054486E-16
2.240000E+03	3.420779E-16	1.028449E-16
2.280000E+03	3.312067E-16	9.957444E-17
2.320000E+03	3.184725E-16	9.574398E-17
2.360000E+03	3.042438E-16	9.146436E-17
2.400000E+03	2.888116E-16	8.682307E-17
2.440000E+03	2.724227E-16	8.189433E-17
2.480000E+03	2.553178E-16	7.675054E-17
2.520000E+03	2.377187E-16	7.145840E-17
2.560000E+03	2.198263E-16	6.607831E-17
2.600000E+03	2.018527E-16	6.067403E-17
2.640000E+03	1.839994E-16	5.530614E-17
2.680000E+03	1.664573E-16	5.003206E-17
2.720000E+03	1.494068E-16	4.490595E-17
2.760000E+03	1.330238E-16	3.998075E-17
2.800000E+03	1.174485E-16	3.529853E-17
2.840000E+03	1.028099E-16	3.089807E-17
2.880000E+03	8.922550E-17	2.681466E-17
2.920000E+03	7.678779E-17	2.307609E-17
2.960000E+03	6.556465E-17	1.970271E-17
3.000000E+03	5.558413E-17	1.670294E-17
3.010000E+03	5.328189E-17	1.601099E-17
3.020000E+03	5.105582E-17	1.534194E-17
3.030000E+03	4.890596E-17	1.469580E-17
3.040000E+03	4.683106E-17	1.407219E-17
3.050000E+03	4.482979E-17	1.347072E-17
3.060000E+03	4.290170E-17	1.289125E-17
3.070000E+03	4.104439E-17	1.233305E-17
3.080000E+03	3.925812E-17	1.179621E-17
3.090000E+03	3.754039E-17	1.127997E-17
3.100000E+03	3.589034E-17	1.078408E-17
3.110000E+03	3.430624E-17	1.030801E-17
3.120000E+03	3.278703E-17	9.851447E-18
3.130000E+03	3.133084E-17	9.413825E-18
3.140000E+03	2.993586E-17	8.994604E-18
3.150000E+03	2.860082E-17	8.593396E-18
3.160000E+03	2.732326E-17	8.209468E-18
3.170000E+03	2.610239E-17	7.842577E-18
3.180000E+03	2.493579E-17	7.492000E-18
3.190000E+03	2.382207E-17	7.157312E-18
3.200000E+03	2.275929E-17	6.837940E-18
3.210000E+03	2.174564E-17	6.533333E-18
3.220000E+03	2.077966E-17	6.243052E-18
3.230000E+03	1.985945E-17	5.966526E-18
3.240000E+03	1.898292E-17	5.703131E-18
3.250000E+03	1.814924E-17	5.452612E-18
3.260000E+03	1.735575E-17	5.214174E-18
3.270000E+03	1.660161E-17	4.987557E-18
3.280000E+03	1.588458E-17	4.772097E-18
3.290000E+03	1.520332E-17	4.567387E-18
3.300000E+03	1.455647E-17	4.373016E-18
3.310000E+03	1.394204E-17	4.188390E-18
3.320000E+03	1.335899E-17	4.013193E-18
3.330000E+03	1.280584E-17	3.846984E-18
3.340000E+03	1.228103E-17	3.689287E-18
3.350000E+03	1.178321E-17	3.539704E-18
3.360000E+03	1.131111E-17	3.397851E-18
3.370000E+03	1.086366E-17	3.263403E-18
3.380000E+03	1.043936E-17	3.135913E-18
3.390000E+03	1.003738E-17	3.015130E-18
3.400000E+03	9.656360E-18	2.900645E-18
3.410000E+03	9.295280E-18	2.792152E-18
3.420000E+03	8.953277E-18	2.689391E-18
3.430000E+03	8.629083E-18	2.591982E-18
3.440000E+03	8.322041E-18	2.499727E-18
3.450000E+03	8.031202E-18	2.412341E-18
3.460000E+03	7.755494E-18	2.329501E-18
3.470000E+03	7.494369E-18	2.251043E-18
3.480000E+03	7.246859E-18	2.176676E-18
3.490000E+03	7.012316E-18	2.106205E-18
3.500000E+03	6.790048E-18	2.039422E-18
3.510000E+03	6.579182E-18	1.976066E-18
3.520000E+03	6.379200E-18	1.915980E-18
3.530000E+03	6.189407E-18	1.858954E-18
3.540000E+03	6.009164E-18	1.804799E-18
3.550000E+03	5.837940E-18	1.753354E-18
3.560000E+03	5.675123E-18	1.704434E-18
3.570000E+03	5.520205E-18	1.657887E-18
3.580000E+03	5.372662E-18	1.613557E-18
3.590000E+03	5.232115E-18	1.571329E-18
3.600000E+03	5.098154E-18	1.531079E-18
3.610000E+03	4.970350E-18	1.492679E-18
3.620000E+03	4.848396E-18	1.456037E-18
3.630000E+03	4.732002E-18	1.421065E-18
3.640000E+03	4.620801E-18	1.387654E-18
3.650000E+03	4.514666E-18	1.355765E-18
3.660000E+03	4.413256E-18	1.325295E-18
3.670000E+03	4.316412E-18	1.296197E-18
3.680000E+03	4.223942E-18	1.268413E-18
3.690000E+03	4.135650E-18	1.241884E-18
3.700000E+03	4.051390E-18	1.216567E-18
3.710000E+03	3.971050E-18	1.192427E-18
3.720000E+03	3.894380E-18	1.169390E-18
3.730000E+03	3.821343E-18	1.147444E-18
3.740000E+03	3.751734E-18	1.126528E-18
3.750000E+03	3.685453E-18	1.106612E-18
3.760000E+03	3.622395E-18	1.087664E-18
3.770000E+03	3.562376E-18	1.069628E-18
3.780000E+03	3.505360E-18	1.052495E-18
3.790000E+03	3.451193E-18	1.036218E-18
3.800000E+03	3.399787E-18	1.020769E-18
3.810000E+03	3.351025E-18	1.006116E-18
3.820000E+03	3.304826E-18	9.922316E-19
3.830000E+03	3.261083E-18	9.790850E-19
3.840000E+03	3.219713E-18	9.666513E-19
3.850000E+03	3.180619E-18	9.549012E-19
3.860000E+03	3.143752E-18	9.438199E-19
3.870000E+03	3.109018E-18	9.333792E-19
3.880000E+03	3.076324E-18	9.235510E-19
3.890000E+03	3.045609E-18	9.143172E-19
3.900000E+03	3.016784E-18	9.056512E-19
3.910000E+03	2.989817E-18	8.975427E-19
3.920000E+03	2.964628E-18	8.899683E-19
3.930000E+03	2.941160E-18	8.829107E-19
3.940000E+03	2.919344E-18	8.763492E-19
3.950000E+03	2.899104E-18	8.702609E-19
3.960000E+03	2.880439E-18	8.646454E-19
3.970000E+03	2.863240E-18	8.594701E-19
3.980000E+03	2.847485E-18	8.547283E-19
3.990000E+03	2.833111E-18	8.504011E-19
4.000000E+03	2.820080E-18	8.464771E-19
4.010000E+03	2.808357E-18	8.429455E-19
4.020000E+03	2.797860E-18	8.397822E-19
4.030000E+03	2.788582E-18	8.369846E-19
4.040000E+03	2.780467E-18	8.345364E-19
4.050000E+03	2.773486E-18	8.324284E-19
4.060000E+03	2.767590E-18	8.306458E-19
4.070000E+03	2.762731E-18	8.291746E-19
4.080000E+03	2.758904E-18	8.280131E-19
4.090000E+03	2.756043E-18	8.271418E-19
4.100000E+03	2.754125E-18	8.265529E-19
4.110000E+03	2.753130E-18	8.262413E-19
4.120000E+03	2.752994E-18	8.261871E-19
4.130000E+03	2.753719E-18	8.263916E-19
4.140000E+03	2.755247E-18	8.268368E-19
4.150000E+03	2.757561E-18	8.275178E-19
4.160000E+03	2.760643E-18	8.284291E-19
4.170000E+03	2.764437E-18	8.295540E-19
4.180000E+03	2.768952E-18	8.308952E-19
4.190000E+03	2.774110E-18	8.324292E-19
4.200000E+03	2.779942E-18	8.341653E-19
4.210000E+03	2.786372E-18	8.360807E-19
4.220000E+03	2.793390E-18	8.381722E-19
4.230000E+03	2.800965E-18	8.404310E-19
4.240000E+03	2.809090E-18	8.428543E-19
4.250000E+03	2.817687E-18	8.454195E-19
4.260000E+03	2.826773E-18	8.481308E-19
4.270000E+03	2.836297E-18	8.509736E-19
4.280000E+03	2.846205E-18	8.539315E-19
4.290000E+03	2.856495E-18	8.570035E-19
4.300000E+03	2.867134E-18	8.601803E-19
4.310000E+03	2.878051E-18	8.634402E-19
4.320000E+03	2.889217E-18	8.667745E-19
4.330000E+03	2.900602E-18	8.701744E-19
4.340000E+03	2.912178E-18	8.736314E-19
4.350000E+03	2.923918E-18	8.771373E-19
4.360000E+03	2.935814E-18	8.806898E-19
4.370000E+03	2.947837E-18	8.842802E-19
4.380000E+03	2.959960E-18	8.879005E-19
4.390000E+03	2.972227E-18	8.915637E-19
4.400000E+03	2.984611E-18	8.952616E-19
4.410000E+03	2.997109E-18	8.989936E-19
4.420000E+03	3.009746E-18	9.027669E-19
4.430000E+03	3.022518E-18	9.065809E-19
4.440000E+03	3.035406E-18	9.104290E-19
4.450000E+03	3.048434E-18	9.143189E-19
4.460000E+03	3.061584E-18	9.182451E-19
4.470000E+03	3.074855E-18	9.222076E-19
4.480000E+03	3.088260E-18	9.262098E-19
4.490000E+03	3.101750E-18	9.302374E-19
4.500000E+03	3.115362E-18	9.343013E-19
4.510000E+03	3.129077E-18	9.383956E-19
4.520000E+03	3.142882E-18	9.425169E-19
4.530000E+03	3.156788E-18	9.466681E-19
4.540000E+03	3.170758E-18	9.508382E-19
4.550000E+03	3.184803E-18	9.550305E-19
4.560000E+03	3.198941E-18	9.592504E-19
4.570000E+03	3.213163E-18	9.634952E-19
4.580000E+03	3.227435E-18	9.677546E-19
4.590000E+03	3.241774E-18	9.720340E-19
4.600000E+03	3.256176E-18	9.763318E-19
4.610000E+03	3.270634E-18	9.806463E-19
4.620000E+03	3.285175E-18	9.849851E-19
4.630000E+03	3.299765E-18	9.893386E-19
4.640000E+03	3.314434E-18	9.937153E-19
4.650000E+03	3.329180E-18	9.981147E-19
4.660000E+03	3.344002E-18	1.002537E-18
4.670000E+03	3.358903E-18	1.006982E-18
4.680000E+03	3.373885E-18	1.011451E-18
4.690000E+03	3.388951E-18	1.015946E-18
4.700000E+03	3.404164E-18	1.020483E-18
4.710000E+03	3.419530E-18	1.025067E-18
4.720000E+03	3.435058E-18	1.029699E-18
4.730000E+03	3.450816E-18	1.034399E-18
4.740000E+03	3.466781E-18	1.039161E-18
4.750000E+03	3.482966E-18	1.043988E-18
4.760000E+03	3.499409E-18	1.048893E-18
4.770000E+03	3.516125E-18	1.053879E-18
4.780000E+03	3.533093E-18	1.058940E-18
4.790000E+03	3.550357E-18	1.064089E-18
4.800000E+03	3.567932E-18	1.069332E-18
4.810000E+03	3.585801E-18	1.074662E-18
4.820000E+03	3.604008E-18	1.080093E-18
4.830000E+03	3.622569E-18	1.085629E-18
4.840000E+03	3.641501E-18	1.091277E-18
4.850000E+03	3.660820E-18	1.097039E-18
4.860000E+03	3.680510E-18	1.102913E-18
4.870000E+03	3.700654E-18	1.108922E-18
4.880000E+03	3.721202E-18	1.115052E-18
4.890000E+03	3.742173E-18	1.121308E-18
4.900000E+03	3.763616E-18	1.127705E-18
4.910000E+03	3.785553E-18	1.134250E-18
4.920000E+03	3.807999E-18	1.140947E-18
4.930000E+03	3.830904E-18	1.147780E-18
4.940000E+03	3.854356E-18	1.154777E-18
4.950000E+03	3.878338E-18	1.161932E-18
4.960000E+03	3.902870E-18	1.169252E-18
4.970000E+03	3.927964E-18	1.176739E-18
4.980000E+03	3.953644E-18	1.184401E-18
4.990000E+03	3.979886E-18	1.192231E-18
5.000000E+03	4.006707E-18	1.200234E-18
5.010000E+03	4.034163E-18	1.208427E-18
5.020000E+03	4.062229E-18	1.216801E-18
5.030000E+03	4.090883E-18	1.225351E-18
5.040000E+03	4.120216E-18	1.234104E-18
5.050000E+03	4.150126E-18	1.243029E-18
5.060000E+03	4.180705E-18	1.252154E-18
5.070000E+03	4.211964E-18	1.261481E-18
5.080000E+03	4.243795E-18	1.270979E-18
5.090000E+03	4.276330E-18	1.280688E-18
5.100000E+03	4.309498E-18	1.290585E-18
5.110000E+03	4.343308E-18	1.300673E-18
5.120000E+03	4.377810E-18	1.310968E-18
5.130000E+03	4.412926E-18	1.321446E-18
5.140000E+03	4.448662E-18	1.332109E-18
5.150000E+03	4.485068E-18	1.342972E-18
5.160000E+03	4.522101E-18	1.354022E-18
5.170000E+03	4.559768E-18	1.365260E-18
5.180000E+03	4.598024E-18	1.376674E-18
5.190000E+03	4.636915E-18	1.388278E-18
5.200000E+03	4.676349E-18	1.400042E-18
5.210000E+03	4.716415E-18	1.411996E-18
5.220000E+03	4.757061E-18	1.424121E-18
5.230000E+03	4.798236E-18	1.436405E-18
5.240000E+03	4.839934E-18	1.448843E-18
5.250000E+03	4.882190E-18	1.461448E-18
5.260000E+03	4.924899E-18	1.474188E-18
5.270000E+03	4.968095E-18	1.487071E-18
5.280000E+03	5.011811E-18	1.500110E-18
5.290000E+03	5.055882E-18	1.513254E-18
5.300000E+03	5.100440E-18	1.526543E-18
5.310000E+03	5.145310E-18	1.539924E-18
5.320000E+03	5.190620E-18	1.553435E-18
5.330000E+03	5.236193E-18	1.567024E-18
5.340000E+03	5.282101E-18	1.580712E-18
5.350000E+03	5.328315E-18	1.594490E-18
5.360000E+03	5.374752E-18	1.608334E-18
5.370000E+03	5.421480E-18	1.622264E-18
5.380000E+03	5.468305E-18	1.636222E-18
5.390000E+03	5.515347E-18	1.650243E-18
5.400000E+03	5.562513E-18	1.664300E-18
5.410000E+03	5.609759E-18	1.678380E-18
5.420000E+03	5.657038E-18	1.692469E-18
5.430000E+03	5.704306E-18	1.706553E-18
5.440000E+03	5.751450E-18	1.720599E-18
5.450000E+03	5.798420E-18	1.734591E-18
5.460000E+03	5.845157E-18	1.748512E-18
5.470000E+03	5.891603E-18	1.762345E-18
5.480000E+03	5.937637E-18	1.776053E-18
5.490000E+03	5.983133E-18	1.789600E-18
5.500000E+03	6.028083E-18	1.802981E-18
5.510000E+03	6.072358E-18	1.816160E-18
5.520000E+03	6.115822E-18	1.829094E-18
5.530000E+03	6.158339E-18	1.841744E-18
5.540000E+03	6.199890E-18	1.854104E-18
5.550000E+03	6.240272E-18	1.866113E-18
5.560000E+03	6.279467E-18	1.877766E-18
5.570000E+03	6.317265E-18	1.889000E-18
5.580000E+03	6.353582E-18	1.899790E-18
5.590000E+03	6.388398E-18	1.910130E-18
5.600000E+03	6.421503E-18	1.919957E-18
5.610000E+03	6.452876E-18	1.929266E-18
5.620000E+03	6.482442E-18	1.938033E-18
5.630000E+03	6.510050E-18	1.946213E-18
5.640000E+03	6.535630E-18	1.953786E-18
5.650000E+03	6.559169E-18	1.960748E-18
5.660000E+03	6.580604E-18	1.967081E-18
5.670000E+03	6.599800E-18	1.972743E-18
5.680000E+03	6.616766E-18	1.977738E-18
5.690000E+03	6.631514E-18	1.982069E-18
5.700000E+03	6.643860E-18	1.985681E-18
5.710000E+03	6.653825E-18	1.988582E-18
5.720000E+03	6.661444E-18	1.990780E-18
5.730000E+03	6.666686E-18	1.992267E-18
5.740000E+03	6.669527E-18	1.993037E-18
5.750000E+03	6.669948E-18	1.993083E-18
5.760000E+03	6.667945E-18	1.992404E-18
5.770000E+03	6.663580E-18	1.991019E-18
5.780000E+03	6.656791E-18	1.988909E-18
5.790000E+03	6.647729E-18	1.986120E-18
5.800000E+03	6.636344E-18	1.982637E-18
5.810000E+03	6.622663E-18	1.978468E-18
5.820000E+03	6.606864E-18	1.973666E-18
5.830000E+03	6.588840E-18	1.968199E-18
5.840000E+03	6.568715E-18	1.962105E-18
5.850000E+03	6.546610E-18	1.955420E-18
5.860000E+03	6.522515E-18	1.948140E-18
5.870000E+03	6.496567E-18	1.940307E-18
5.880000E+03	6.468765E-18	1.931920E-18
5.890000E+03	6.439325E-18	1.923045E-18
5.900000E+03	6.408259E-18	1.913684E-18
5.910000E+03	6.375648E-18	1.903863E-18
5.920000E+03	6.341650E-18	1.893628E-18
5.930000E+03	6.306285E-18	1.882985E-18
5.940000E+03	6.269713E-18	1.871982E-18
5.950000E+03	6.231956E-18	1.860626E-18
5.960000E+03	6.193180E-18	1.848967E-18
5.970000E+03	6.153481E-18	1.837032E-18
5.980000E+03	6.112949E-18	1.824849E-18
5.990000E+03	6.071612E-18	1.812427E-18
6.000000E+03	6.029631E-18	1.799814E-18
6.010000E+03	5.987100E-18	1.787036E-18
6.020000E+03	5.944037E-18	1.774101E-18
6.030000E+03	5.900602E-18	1.761056E-18
6.040000E+03	5.856812E-18	1.747906E-18
6.050000E+03	5.812681E-18	1.734654E-18
6.060000E+03	5.768427E-18	1.721367E-18
6.070000E+03	5.723993E-18	1.708027E-18
6.080000E+03	5.679525E-18	1.694677E-18
6.090000E+03	5.634954E-18	1.681298E-18
6.100000E+03	5.590421E-18	1.667931E-18
6.110000E+03	5.545923E-18	1.654575E-18
6.120000E+03	5.501525E-18	1.641250E-18
6.130000E+03	5.457286E-18	1.627974E-18
6.140000E+03	5.413194E-18	1.614742E-18
6.150000E+03	5.369302E-18	1.601571E-18
6.160000E+03	5.325665E-18	1.588476E-18
6.170000E+03	5.282324E-18	1.575471E-18
6.180000E+03	5.239324E-18	1.562569E-18
6.190000E+03	5.196639E-18	1.549761E-18
6.200000E+03	5.154370E-18	1.537079E-18
6.210000E+03	5.112554E-18	1.524532E-18
6.220000E+03	5.071220E-18	1.512130E-18
6.230000E+03	5.030460E-18	1.499900E-18
6.240000E+03	4.990363E-18	1.487869E-18
6.250000E+03	4.951018E-18	1.476062E-18
6.260000E+03	4.912507E-18	1.464505E-18
6.270000E+03	4.874911E-18	1.453222E-18
6.280000E+03	4.838373E-18	1.442255E-18
6.290000E+03	4.802840E-18	1.431589E-18
6.300000E+03	4.768580E-18	1.421302E-18
6.310000E+03	4.735536E-18	1.411379E-18
6.320000E+03	4.703843E-18	1.401859E-18
6.330000E+03	4.673570E-18	1.392763E-18
6.340000E+03	4.644787E-18	1.384112E-18
6.350000E+03	4.617496E-18	1.375905E-18
6.360000E+03	4.591765E-18	1.368165E-18
6.370000E+03	4.567658E-18	1.360908E-18
6.380000E+03	4.545180E-18	1.354138E-18
6.390000E+03	4.524332E-18	1.347853E-18
6.400000E+03	4.505178E-18	1.342073E-18
6.410000E+03	4.487592E-18	1.336761E-18
6.420000E+03	4.471573E-18	1.331916E-18
6.430000E+03	4.457056E-18	1.327518E-18
6.440000E+03	4.443912E-18	1.323530E-18
6.450000E+03	4.432205E-18	1.319969E-18
6.460000E+03	4.421804E-18	1.316798E-18
6.470000E+03	4.412774E-18	1.314035E-18
6.480000E+03	4.405118E-18	1.311681E-18
6.490000E+03	4.398767E-18	1.309715E-18
6.500000E+03	4.393720E-18	1.308138E-18
6.510000E+03	4.389981E-18	1.306950E-18
6.520000E+03	4.387546E-18	1.306150E-18
6.530000E+03	4.386419E-18	1.305739E-18
6.540000E+03	4.386667E-18	1.305737E-18
6.550000E+03	4.388225E-18	1.306125E-18
6.560000E+03	4.391024E-18	1.306882E-18
6.570000E+03	4.395204E-18	1.308049E-18
6.580000E+03	4.400628E-18	1.309586E-18
6.590000E+03	4.407367E-18	1.311514E-18
6.600000E+03	4.415426E-18	1.313834E-18
6.610000E+03	4.424807E-18	1.316547E-18
6.620000E+03	4.435512E-18	1.319654E-18
6.630000E+03	4.447474E-18	1.323133E-18
6.640000E+03	4.460769E-18	1.327009E-18
6.650000E+03	4.475327E-18	1.331259E-18
6.660000E+03	4.491227E-18	1.335908E-18
6.670000E+03	4.508398E-18	1.340934E-18
6.680000E+03	4.526844E-18	1.346338E-18
6.690000E+03	4.546649E-18	1.352145E-18
6.700000E+03	4.567818E-18	1.358357E-18
6.710000E+03	4.590202E-18	1.364929E-18
6.720000E+03	4.613964E-18	1.371910E-18
6.730000E+03	4.638950E-18	1.379254E-18
6.740000E+03	4.665326E-18	1.387009E-18
6.750000E+03	4.693023E-18	1.395156E-18
6.760000E+03	4.721960E-18	1.403671E-18
6.770000E+03	4.752313E-18	1.412605E-18
6.780000E+03	4.783924E-18	1.421911E-18
6.790000E+03	4.816881E-18	1.431616E-18
6.800000E+03	4.851192E-18	1.441722E-18
6.810000E+03	4.886871E-18	1.452232E-18
6.820000E+03	4.923833E-18	1.463122E-18
6.830000E+03	4.962174E-18	1.474421E-18
6.840000E+03	5.001816E-18	1.486104E-18
6.850000E+03	5.042855E-18	1.498200E-18
6.860000E+03	5.085210E-18	1.510686E-18
6.870000E+03	5.128884E-18	1.523561E-18
6.880000E+03	5.173982E-18	1.536857E-18
6.890000E+03	5.220320E-18	1.550520E-18
6.900000E+03	5.268098E-18	1.564608E-18
6.910000E+03	5.317226E-18	1.579094E-18
6.920000E+03	5.367713E-18	1.593983E-18
6.930000E+03	5.419564E-18	1.609273E-18
6.940000E+03	5.472787E-18	1.624969E-18
6.950000E+03	5.527282E-18	1.641040E-18
6.960000E+03	5.583160E-18	1.657520E-18
6.970000E+03	5.640428E-18	1.674409E-18
6.980000E+03	5.699090E-18	1.691710E-18
6.990000E+03	5.758932E-18	1.709358E-18
7.000000E+03	5.820291E-18	1.727454E-18
7.010000E+03	5.882833E-18	1.745898E-18
7.020000E+03	5.946785E-18	1.764757E-18
7.030000E+03	6.012039E-18	1.784000E-18
7.040000E+03	6.078593E-18	1.803626E-18
7.050000E+03	6.146449E-18	1.823636E-18
7.060000E+03	6.215607E-18	1.844028E-18
7.070000E+03	6.285940E-18	1.864766E-18
7.080000E+03	6.357570E-18	1.885885E-18
7.090000E+03	6.430497E-18	1.907386E-18
7.100000E+03	6.504586E-18	1.929228E-18
7.110000E+03	6.579964E-18	1.951449E-18
7.120000E+03	6.656496E-18	1.974009E-18
7.130000E+03	6.734167E-18	1.996904E-18
7.140000E+03	6.812974E-18	2.020131E-18
7.150000E+03	6.893044E-18	2.043730E-18
7.160000E+03	6.974087E-18	2.067613E-18
7.170000E+03	7.056082E-18	2.091775E-18
7.180000E+03	7.139310E-18	2.116299E-18
7.190000E+03	7.223461E-18	2.141092E-18
7.200000E+03	7.308515E-18	2.166150E-18
7.210000E+03	7.394604E-18	2.191510E-18
7.220000E+03	7.481554E-18	2.217121E-18
7.230000E+03	7.569342E-18	2.242977E-18
7.240000E+03	7.657942E-18	2.269069E-18
7.250000E+03	7.747325E-18	2.295389E-18
7.260000E+03	7.837635E-18	2.321980E-18
7.270000E+03	7.928506E-18	2.348733E-18
7.280000E+03	8.020249E-18	2.375741E-18
7.290000E+03	8.112663E-18	2.402942E-18
7.300000E+03	8.205716E-18	2.430329E-18
7.310000E+03	8.299554E-18	2.457944E-18
7.320000E+03	8.393970E-18	2.485726E-18
7.330000E+03	8.489109E-18	2.513718E-18
7.340000E+03	8.584948E-18	2.541913E-18
7.350000E+03	8.681647E-18	2.570358E-18
7.360000E+03	8.779185E-18	2.599046E-18
7.370000E+03	8.877742E-18	2.628033E-18
7.380000E+03	8.977096E-18	2.657250E-18
7.390000E+03	9.077849E-18	2.686878E-18
7.400000E+03	9.180000E-18	2.716914E-18
7.410000E+03	9.283340E-18	2.747298E-18
7.420000E+03	9.388515E-18	2.778220E-18
7.430000E+03	9.495326E-18	2.809621E-18
7.440000E+03	9.604011E-18	2.841572E-18
7.450000E+03	9.714363E-18	2.874012E-18
7.460000E+03	9.826627E-18	2.907012E-18
7.470000E+03	9.940122E-18	2.940371E-18
7.480000E+03	1.005531E-17	2.974227E-18
7.490000E+03	1.017149E-17	3.008368E-18
7.500000E+03	1.028887E-17	3.042861E-18
7.510000E+03	1.040719E-17	3.077627E-18
7.520000E+03	1.052618E-17	3.112585E-18
7.530000E+03	1.064605E-17	3.147801E-18
7.540000E+03	1.076601E-17	3.183034E-18
7.550000E+03	1.088650E-17	3.218422E-18
7.560000E+03	1.100724E-17	3.253876E-18
7.570000E+03	1.112816E-17	3.289378E-18
7.580000E+03	1.124892E-17	3.324829E-18
7.590000E+03	1.136975E-17	3.360294E-18
7.600000E+03	1.149029E-17	3.395670E-18
7.610000E+03	1.161048E-17	3.430936E-18
7.620000E+03	1.173053E-17	3.466156E-18
7.630000E+03	1.185009E-17	3.501224E-18
7.640000E+03	1.196937E-17	3.536206E-18
7.650000E+03	1.208770E-17	3.570901E-18
7.660000E+03	1.220560E-17	3.605466E-18
7.670000E+03	1.232269E-17	3.639786E-18
7.680000E+03	1.243920E-17	3.673932E-18
7.690000E+03	1.255475E-17	3.707785E-18
7.700000E+03	1.266923E-17	3.741321E-18
7.710000E+03	1.278258E-17	3.774515E-18
7.720000E+03	1.289536E-17	3.807538E-18
7.730000E+03	1.300649E-17	3.840070E-18
7.740000E+03	1.311690E-17	3.872386E-18
7.750000E+03	1.322584E-17	3.904262E-18
7.760000E+03	1.333356E-17	3.935774E-18
