#wls	flux	fluxerr
1.600000E+03	1.850224E-16	2.701024E-17
1.640000E+03	1.913812E-16	2.793795E-17
1.680000E+03	1.975582E-16	2.883905E-17
1.720000E+03	2.034877E-16	2.970397E-17
1.760000E+03	2.091185E-16	3.052524E-17
1.800000E+03	2.143735E-16	3.129159E-17
1.840000E+03	2.191904E-16	3.199393E-17
1.880000E+03	2.235021E-16	3.262250E-17
1.920000E+03	2.272186E-16	3.316413E-17
1.960000E+03	2.302676E-16	3.360829E-17
2.000000E+03	2.325761E-16	3.394432E-17
2.040000E+03	2.340722E-16	3.416176E-17
2.080000E+03	2.346706E-16	3.424813E-17
2.120000E+03	2.343105E-16	3.419461E-17
2.160000E+03	2.329090E-16	3.398907E-17
2.200000E+03	2.304012E-16	3.362209E-17
2.240000E+03	2.266868E-16	3.307903E-17
2.280000E+03	2.217043E-16	3.235094E-17
2.320000E+03	2.155698E-16	3.145476E-17
2.360000E+03	2.084473E-16	3.041447E-17
2.400000E+03	2.004667E-16	2.924902E-17
2.440000E+03	1.917327E-16	2.797371E-17
2.480000E+03	1.823428E-16	2.660277E-17
2.520000E+03	1.724079E-16	2.515239E-17
2.560000E+03	1.620268E-16	2.363699E-17
2.600000E+03	1.513184E-16	2.207396E-17
2.640000E+03	1.403923E-16	2.047925E-17
2.680000E+03	1.293530E-16	1.886816E-17
2.720000E+03	1.183219E-16	1.725837E-17
2.760000E+03	1.074085E-16	1.566587E-17
2.800000E+03	9.672201E-17	1.410658E-17
2.840000E+03	8.636586E-17	1.259560E-17
2.880000E+03	7.644103E-17	1.114764E-17
2.920000E+03	6.705152E-17	9.777862E-18
2.960000E+03	5.829772E-17	8.500910E-18
3.000000E+03	5.025317E-17	7.327490E-18
3.010000E+03	4.835825E-17	7.051098E-18
3.020000E+03	4.651270E-17	6.781911E-18
3.030000E+03	4.471425E-17	6.519599E-18
3.040000E+03	4.296400E-17	6.264319E-18
3.050000E+03	4.126374E-17	6.016334E-18
3.060000E+03	3.961136E-17	5.775338E-18
3.070000E+03	3.800850E-17	5.541566E-18
3.080000E+03	3.645480E-17	5.314968E-18
3.090000E+03	3.494994E-17	5.095497E-18
3.100000E+03	3.349359E-17	4.883103E-18
3.110000E+03	3.208672E-17	4.677927E-18
3.120000E+03	3.072813E-17	4.479796E-18
3.130000E+03	2.941787E-17	4.288716E-18
3.140000E+03	2.815533E-17	4.104597E-18
3.150000E+03	2.693983E-17	3.927342E-18
3.160000E+03	2.577112E-17	3.756911E-18
3.170000E+03	2.464882E-17	3.593251E-18
3.180000E+03	2.357108E-17	3.436091E-18
3.190000E+03	2.253824E-17	3.285481E-18
3.200000E+03	2.154879E-17	3.141200E-18
3.210000E+03	2.060199E-17	3.003139E-18
3.220000E+03	1.969664E-17	2.871125E-18
3.230000E+03	1.883120E-17	2.744931E-18
3.240000E+03	1.800540E-17	2.624519E-18
3.250000E+03	1.721701E-17	2.509563E-18
3.260000E+03	1.646564E-17	2.400007E-18
3.270000E+03	1.574992E-17	2.295649E-18
3.280000E+03	1.506804E-17	2.196228E-18
3.290000E+03	1.441941E-17	2.101654E-18
3.300000E+03	1.380224E-17	2.011670E-18
3.310000E+03	1.321549E-17	1.926121E-18
3.320000E+03	1.265786E-17	1.844819E-18
3.330000E+03	1.212830E-17	1.767610E-18
3.340000E+03	1.162538E-17	1.694286E-18
3.350000E+03	1.114791E-17	1.624674E-18
3.360000E+03	1.069476E-17	1.558607E-18
3.370000E+03	1.026493E-17	1.495942E-18
3.380000E+03	9.857205E-18	1.436499E-18
3.390000E+03	9.470533E-18	1.380126E-18
3.400000E+03	9.103918E-18	1.326678E-18
3.410000E+03	8.756282E-18	1.275997E-18
3.420000E+03	8.426721E-18	1.227952E-18
3.430000E+03	8.114361E-18	1.182414E-18
3.440000E+03	7.818276E-18	1.139250E-18
3.450000E+03	7.537679E-18	1.098344E-18
3.460000E+03	7.271737E-18	1.059574E-18
3.470000E+03	7.019663E-18	1.022826E-18
3.480000E+03	6.780720E-18	9.879930E-19
3.490000E+03	6.554139E-18	9.549620E-19
3.500000E+03	6.339347E-18	9.236497E-19
3.510000E+03	6.135660E-18	8.939565E-19
3.520000E+03	5.942381E-18	8.657806E-19
3.530000E+03	5.758808E-18	8.390196E-19
3.540000E+03	5.584470E-18	8.136050E-19
3.550000E+03	5.418756E-18	7.894476E-19
3.560000E+03	5.260998E-18	7.664502E-19
3.570000E+03	5.110746E-18	7.445469E-19
3.580000E+03	4.967526E-18	7.236688E-19
3.590000E+03	4.830858E-18	7.037460E-19
3.600000E+03	4.700254E-18	6.847070E-19
3.610000E+03	4.575437E-18	6.665118E-19
3.620000E+03	4.456061E-18	6.491097E-19
3.630000E+03	4.341798E-18	6.324530E-19
3.640000E+03	4.232534E-18	6.165251E-19
3.650000E+03	4.128034E-18	6.012917E-19
3.660000E+03	4.028107E-18	5.867247E-19
3.670000E+03	3.932600E-18	5.728022E-19
3.680000E+03	3.841358E-18	5.595013E-19
3.690000E+03	3.754193E-18	5.467947E-19
3.700000E+03	3.671017E-18	5.346695E-19
3.710000E+03	3.591615E-18	5.230943E-19
3.720000E+03	3.515868E-18	5.120519E-19
3.730000E+03	3.443687E-18	5.015292E-19
3.740000E+03	3.374839E-18	4.914924E-19
3.750000E+03	3.309294E-18	4.819368E-19
3.760000E+03	3.246833E-18	4.728307E-19
3.770000E+03	3.187399E-18	4.641657E-19
3.780000E+03	3.130862E-18	4.559229E-19
3.790000E+03	3.077092E-18	4.480833E-19
3.800000E+03	3.025993E-18	4.406329E-19
3.810000E+03	2.977446E-18	4.335544E-19
3.820000E+03	2.931361E-18	4.268346E-19
3.830000E+03	2.887650E-18	4.204608E-19
3.840000E+03	2.846209E-18	4.144177E-19
3.850000E+03	2.806958E-18	4.086936E-19
3.860000E+03	2.769823E-18	4.032778E-19
3.870000E+03	2.734708E-18	3.981563E-19
3.880000E+03	2.701548E-18	3.933196E-19
3.890000E+03	2.670274E-18	3.887577E-19
3.900000E+03	2.640808E-18	3.844591E-19
3.910000E+03	2.613087E-18	3.804146E-19
3.920000E+03	2.587036E-18	3.766134E-19
3.930000E+03	2.562621E-18	3.730506E-19
3.940000E+03	2.539772E-18	3.697158E-19
3.950000E+03	2.518436E-18	3.666014E-19
3.960000E+03	2.498531E-18	3.636953E-19
3.970000E+03	2.480048E-18	3.609963E-19
3.980000E+03	2.462907E-18	3.584927E-19
3.990000E+03	2.447063E-18	3.561780E-19
4.000000E+03	2.432463E-18	3.540443E-19
4.010000E+03	2.419084E-18	3.520884E-19
4.020000E+03	2.406853E-18	3.502997E-19
4.030000E+03	2.395755E-18	3.486760E-19
4.040000E+03	2.385718E-18	3.472066E-19
4.050000E+03	2.376731E-18	3.458901E-19
4.060000E+03	2.368727E-18	3.447166E-19
4.070000E+03	2.361677E-18	3.436820E-19
4.080000E+03	2.355555E-18	3.427824E-19
4.090000E+03	2.350333E-18	3.420138E-19
4.100000E+03	2.345953E-18	3.413677E-19
4.110000E+03	2.342391E-18	3.408406E-19
4.120000E+03	2.339608E-18	3.404268E-19
4.130000E+03	2.337584E-18	3.401235E-19
4.140000E+03	2.336300E-18	3.399276E-19
4.150000E+03	2.335700E-18	3.398314E-19
4.160000E+03	2.335788E-18	3.398352E-19
4.170000E+03	2.336512E-18	3.399314E-19
4.180000E+03	2.337857E-18	3.401179E-19
4.190000E+03	2.339811E-18	3.403929E-19
4.200000E+03	2.342323E-18	3.407491E-19
4.210000E+03	2.345385E-18	3.411852E-19
4.220000E+03	2.348967E-18	3.416968E-19
4.230000E+03	2.353079E-18	3.422856E-19
4.240000E+03	2.357659E-18	3.429421E-19
4.250000E+03	2.362715E-18	3.436679E-19
4.260000E+03	2.368206E-18	3.444569E-19
4.270000E+03	2.374143E-18	3.453106E-19
4.280000E+03	2.380467E-18	3.462205E-19
4.290000E+03	2.387173E-18	3.471859E-19
4.300000E+03	2.394257E-18	3.482061E-19
4.310000E+03	2.401659E-18	3.492724E-19
4.320000E+03	2.409393E-18	3.503869E-19
4.330000E+03	2.417383E-18	3.515384E-19
4.340000E+03	2.425642E-18	3.527290E-19
4.350000E+03	2.434073E-18	3.539444E-19
4.360000E+03	2.442672E-18	3.551841E-19
4.370000E+03	2.451491E-18	3.564558E-19
4.380000E+03	2.460533E-18	3.577596E-19
4.390000E+03	2.469811E-18	3.590976E-19
4.400000E+03	2.479327E-18	3.604702E-19
4.410000E+03	2.489043E-18	3.618716E-19
4.420000E+03	2.498998E-18	3.633076E-19
4.430000E+03	2.509154E-18	3.647726E-19
4.440000E+03	2.519512E-18	3.662670E-19
4.450000E+03	2.530058E-18	3.677883E-19
4.460000E+03	2.540794E-18	3.693372E-19
4.470000E+03	2.551685E-18	3.709085E-19
4.480000E+03	2.562756E-18	3.725058E-19
4.490000E+03	2.573975E-18	3.741243E-19
4.500000E+03	2.585326E-18	3.757620E-19
4.510000E+03	2.596843E-18	3.774235E-19
4.520000E+03	2.608472E-18	3.791012E-19
4.530000E+03	2.620226E-18	3.807967E-19
4.540000E+03	2.632119E-18	3.825124E-19
4.550000E+03	2.644123E-18	3.842439E-19
4.560000E+03	2.656257E-18	3.859942E-19
4.570000E+03	2.668496E-18	3.877594E-19
4.580000E+03	2.680858E-18	3.895424E-19
4.590000E+03	2.693344E-18	3.913432E-19
4.600000E+03	2.705953E-18	3.931617E-19
4.610000E+03	2.718665E-18	3.949949E-19
4.620000E+03	2.731527E-18	3.968497E-19
4.630000E+03	2.744494E-18	3.987196E-19
4.640000E+03	2.757595E-18	4.006086E-19
4.650000E+03	2.770830E-18	4.025170E-19
4.660000E+03	2.784182E-18	4.044420E-19
4.670000E+03	2.797698E-18	4.063908E-19
4.680000E+03	2.811340E-18	4.083575E-19
4.690000E+03	2.825132E-18	4.103458E-19
4.700000E+03	2.839129E-18	4.123637E-19
4.710000E+03	2.853313E-18	4.144085E-19
4.720000E+03	2.867715E-18	4.164847E-19
4.730000E+03	2.882367E-18	4.185969E-19
4.740000E+03	2.897276E-18	4.207463E-19
4.750000E+03	2.912449E-18	4.229337E-19
4.760000E+03	2.927948E-18	4.251681E-19
4.770000E+03	2.943727E-18	4.274430E-19
4.780000E+03	2.959850E-18	4.297675E-19
4.790000E+03	2.976326E-18	4.321430E-19
4.800000E+03	2.993139E-18	4.345672E-19
4.810000E+03	3.010355E-18	4.370495E-19
4.820000E+03	3.027955E-18	4.395874E-19
4.830000E+03	3.045956E-18	4.421830E-19
4.840000E+03	3.064367E-18	4.448380E-19
4.850000E+03	3.083203E-18	4.475543E-19
4.860000E+03	3.102533E-18	4.503420E-19
4.870000E+03	3.122288E-18	4.531910E-19
4.880000E+03	3.142540E-18	4.561118E-19
4.890000E+03	3.163275E-18	4.591025E-19
4.900000E+03	3.184537E-18	4.621692E-19
4.910000E+03	3.206315E-18	4.653103E-19
4.920000E+03	3.228623E-18	4.685280E-19
4.930000E+03	3.251507E-18	4.718289E-19
4.940000E+03	3.274923E-18	4.752067E-19
4.950000E+03	3.298917E-18	4.786678E-19
4.960000E+03	3.323504E-18	4.822146E-19
4.970000E+03	3.348698E-18	4.858492E-19
4.980000E+03	3.374485E-18	4.895692E-19
4.990000E+03	3.400875E-18	4.933762E-19
5.000000E+03	3.427916E-18	4.972772E-19
5.010000E+03	3.455556E-18	5.012648E-19
5.020000E+03	3.483871E-18	5.053496E-19
5.030000E+03	3.512807E-18	5.095240E-19
5.040000E+03	3.542375E-18	5.137897E-19
5.050000E+03	3.572617E-18	5.181525E-19
5.060000E+03	3.603511E-18	5.226093E-19
5.070000E+03	3.635062E-18	5.271609E-19
5.080000E+03	3.667245E-18	5.318035E-19
5.090000E+03	3.700100E-18	5.365431E-19
5.100000E+03	3.733634E-18	5.413806E-19
5.110000E+03	3.767784E-18	5.463066E-19
5.120000E+03	3.802586E-18	5.513267E-19
5.130000E+03	3.838047E-18	5.564417E-19
5.140000E+03	3.874172E-18	5.616522E-19
5.150000E+03	3.910927E-18	5.669534E-19
5.160000E+03	3.948315E-18	5.723458E-19
5.170000E+03	3.986303E-18	5.778244E-19
5.180000E+03	4.024969E-18	5.834006E-19
5.190000E+03	4.064238E-18	5.890635E-19
5.200000E+03	4.104115E-18	5.948138E-19
5.210000E+03	4.144601E-18	6.006515E-19
5.220000E+03	4.185737E-18	6.065827E-19
5.230000E+03	4.227446E-18	6.125961E-19
5.240000E+03	4.269723E-18	6.186912E-19
5.250000E+03	4.312655E-18	6.248803E-19
5.260000E+03	4.356111E-18	6.311445E-19
5.270000E+03	4.400174E-18	6.374958E-19
5.280000E+03	4.444795E-18	6.439270E-19
5.290000E+03	4.489969E-18	6.504376E-19
5.300000E+03	4.535730E-18	6.570322E-19
5.310000E+03	4.581980E-18	6.636970E-19
5.320000E+03	4.628753E-18	6.704364E-19
5.330000E+03	4.676030E-18	6.772480E-19
5.340000E+03	4.723798E-18	6.841296E-19
5.350000E+03	4.772080E-18	6.910848E-19
5.360000E+03	4.820763E-18	6.980973E-19
5.370000E+03	4.869866E-18	7.051694E-19
5.380000E+03	4.919359E-18	7.122970E-19
5.390000E+03	4.969161E-18	7.194684E-19
5.400000E+03	5.019332E-18	7.266921E-19
5.410000E+03	5.069784E-18	7.339555E-19
5.420000E+03	5.120420E-18	7.412444E-19
5.430000E+03	5.171190E-18	7.485519E-19
5.440000E+03	5.222094E-18	7.558775E-19
5.450000E+03	5.272968E-18	7.631977E-19
5.460000E+03	5.323803E-18	7.705112E-19
5.470000E+03	5.374531E-18	7.778081E-19
5.480000E+03	5.424975E-18	7.850629E-19
5.490000E+03	5.475055E-18	7.922639E-19
5.500000E+03	5.524746E-18	7.994075E-19
5.510000E+03	5.573908E-18	8.064733E-19
5.520000E+03	5.622391E-18	8.134400E-19
5.530000E+03	5.670043E-18	8.202851E-19
5.540000E+03	5.716878E-18	8.270111E-19
5.550000E+03	5.762616E-18	8.335774E-19
5.560000E+03	5.807208E-18	8.399767E-19
5.570000E+03	5.850482E-18	8.461844E-19
5.580000E+03	5.892322E-18	8.521836E-19
5.590000E+03	5.932611E-18	8.579575E-19
5.600000E+03	5.971170E-18	8.634803E-19
5.610000E+03	6.007941E-18	8.687434E-19
5.620000E+03	6.042743E-18	8.737211E-19
5.630000E+03	6.075401E-18	8.783876E-19
5.640000E+03	6.105922E-18	8.827445E-19
5.650000E+03	6.134137E-18	8.867670E-19
5.660000E+03	6.159879E-18	8.904313E-19
5.670000E+03	6.183114E-18	8.937324E-19
5.680000E+03	6.203815E-18	8.966665E-19
5.690000E+03	6.221775E-18	8.992037E-19
5.700000E+03	6.236983E-18	9.013426E-19
5.710000E+03	6.249443E-18	9.030839E-19
5.720000E+03	6.259038E-18	9.044106E-19
5.730000E+03	6.265790E-18	9.053259E-19
5.740000E+03	6.269599E-18	9.058157E-19
5.750000E+03	6.270509E-18	9.058862E-19
5.760000E+03	6.268510E-18	9.055362E-19
5.770000E+03	6.263663E-18	9.047746E-19
5.780000E+03	6.255845E-18	9.035835E-19
5.790000E+03	6.245270E-18	9.019942E-19
5.800000E+03	6.231835E-18	8.999916E-19
5.810000E+03	6.215641E-18	8.975906E-19
5.820000E+03	6.196735E-18	8.947979E-19
5.830000E+03	6.175173E-18	8.916219E-19
5.840000E+03	6.151087E-18	8.880816E-19
5.850000E+03	6.124552E-18	8.841878E-19
5.860000E+03	6.095652E-18	8.799530E-19
5.870000E+03	6.064413E-18	8.753806E-19
5.880000E+03	6.031067E-18	8.705046E-19
5.890000E+03	5.995656E-18	8.653308E-19
5.900000E+03	5.958359E-18	8.598853E-19
5.910000E+03	5.919226E-18	8.541755E-19
5.920000E+03	5.878449E-18	8.482288E-19
5.930000E+03	5.836149E-18	8.420629E-19
5.940000E+03	5.792451E-18	8.356960E-19
5.950000E+03	5.747482E-18	8.291463E-19
5.960000E+03	5.701366E-18	8.224319E-19
5.970000E+03	5.654290E-18	8.155797E-19
5.980000E+03	5.606246E-18	8.085885E-19
5.990000E+03	5.557481E-18	8.014941E-19
6.000000E+03	5.508042E-18	7.943033E-19
6.010000E+03	5.458041E-18	7.870322E-19
6.020000E+03	5.407649E-18	7.797057E-19
6.030000E+03	5.356838E-18	7.723195E-19
6.040000E+03	5.305835E-18	7.649065E-19
6.050000E+03	5.254605E-18	7.574617E-19
6.060000E+03	5.203299E-18	7.500067E-19
6.070000E+03	5.152003E-18	7.425540E-19
6.080000E+03	5.100732E-18	7.351060E-19
6.090000E+03	5.049562E-18	7.276732E-19
6.100000E+03	4.998564E-18	7.202662E-19
6.110000E+03	4.947804E-18	7.128944E-19
6.120000E+03	4.897344E-18	7.055668E-19
6.130000E+03	4.847243E-18	6.982917E-19
6.140000E+03	4.797552E-18	6.910767E-19
6.150000E+03	4.748322E-18	6.839290E-19
6.160000E+03	4.699658E-18	6.768636E-19
6.170000E+03	4.651661E-18	6.698954E-19
6.180000E+03	4.604427E-18	6.630377E-19
6.190000E+03	4.557987E-18	6.562954E-19
6.200000E+03	4.512371E-18	6.496725E-19
6.210000E+03	4.467546E-18	6.431642E-19
6.220000E+03	4.423536E-18	6.367743E-19
6.230000E+03	4.380363E-18	6.305056E-19
6.240000E+03	4.337985E-18	6.243522E-19
6.250000E+03	4.296478E-18	6.183249E-19
6.260000E+03	4.255972E-18	6.124424E-19
6.270000E+03	4.216415E-18	6.066973E-19
6.280000E+03	4.177877E-18	6.010996E-19
6.290000E+03	4.140477E-18	5.956663E-19
6.300000E+03	4.104162E-18	5.903898E-19
6.310000E+03	4.069105E-18	5.852950E-19
6.320000E+03	4.035364E-18	5.803900E-19
6.330000E+03	4.002880E-18	5.756665E-19
6.340000E+03	3.971821E-18	5.711486E-19
6.350000E+03	3.942242E-18	5.668439E-19
6.360000E+03	3.914137E-18	5.627519E-19
6.370000E+03	3.887560E-18	5.588799E-19
6.380000E+03	3.862674E-18	5.552515E-19
6.390000E+03	3.839420E-18	5.518582E-19
6.400000E+03	3.817850E-18	5.487072E-19
6.410000E+03	3.798073E-18	5.458142E-19
6.420000E+03	3.779917E-18	5.431547E-19
6.430000E+03	3.763265E-18	5.407114E-19
6.440000E+03	3.748061E-18	5.384763E-19
6.450000E+03	3.734243E-18	5.364406E-19
6.460000E+03	3.721699E-18	5.345880E-19
6.470000E+03	3.710426E-18	5.329181E-19
6.480000E+03	3.700365E-18	5.314224E-19
6.490000E+03	3.691514E-18	5.301005E-19
6.500000E+03	3.683813E-18	5.289439E-19
6.510000E+03	3.677264E-18	5.279525E-19
6.520000E+03	3.671861E-18	5.271258E-19
6.530000E+03	3.667549E-18	5.264554E-19
6.540000E+03	3.664380E-18	5.259491E-19
6.550000E+03	3.662356E-18	5.256071E-19
6.560000E+03	3.661418E-18	5.254206E-19
6.570000E+03	3.661621E-18	5.253978E-19
6.580000E+03	3.662908E-18	5.255303E-19
6.590000E+03	3.665280E-18	5.258181E-19
6.600000E+03	3.668792E-18	5.262694E-19
6.610000E+03	3.673327E-18	5.268670E-19
6.620000E+03	3.679065E-18	5.276368E-19
6.630000E+03	3.685826E-18	5.285529E-19
6.640000E+03	3.693733E-18	5.296328E-19
6.650000E+03	3.702724E-18	5.308679E-19
6.660000E+03	3.712803E-18	5.322585E-19
6.670000E+03	3.724033E-18	5.338135E-19
6.680000E+03	3.736352E-18	5.355240E-19
6.690000E+03	3.749765E-18	5.373908E-19
6.700000E+03	3.764272E-18	5.394138E-19
6.710000E+03	3.779941E-18	5.416026E-19
6.720000E+03	3.796647E-18	5.439394E-19
6.730000E+03	3.814521E-18	5.464427E-19
6.740000E+03	3.833503E-18	5.491041E-19
6.750000E+03	3.853598E-18	5.519240E-19
6.760000E+03	3.874807E-18	5.549026E-19
6.770000E+03	3.897135E-18	5.580408E-19
6.780000E+03	3.920657E-18	5.613488E-19
6.790000E+03	3.945240E-18	5.648079E-19
6.800000E+03	3.970954E-18	5.684280E-19
6.810000E+03	3.997806E-18	5.722100E-19
6.820000E+03	4.025802E-18	5.761545E-19
6.830000E+03	4.054946E-18	5.802624E-19
6.840000E+03	4.085243E-18	5.845341E-19
6.850000E+03	4.116698E-18	5.889703E-19
6.860000E+03	4.149242E-18	5.935611E-19
6.870000E+03	4.182953E-18	5.983175E-19
6.880000E+03	4.217837E-18	6.032405E-19
6.890000E+03	4.253820E-18	6.083194E-19
6.900000E+03	4.290984E-18	6.135657E-19
6.910000E+03	4.329334E-18	6.189803E-19
6.920000E+03	4.368794E-18	6.245521E-19
6.930000E+03	4.409365E-18	6.302813E-19
6.940000E+03	4.451133E-18	6.361800E-19
6.950000E+03	4.494019E-18	6.422369E-19
6.960000E+03	4.538024E-18	6.484522E-19
6.970000E+03	4.583237E-18	6.548382E-19
6.980000E+03	4.629572E-18	6.613831E-19
6.990000E+03	4.677035E-18	6.680872E-19
7.000000E+03	4.725532E-18	6.749374E-19
7.010000E+03	4.775248E-18	6.819598E-19
7.020000E+03	4.826094E-18	6.891417E-19
7.030000E+03	4.878071E-18	6.964833E-19
7.040000E+03	4.931083E-18	7.039707E-19
7.050000E+03	4.985226E-18	7.116175E-19
7.060000E+03	5.040401E-18	7.194095E-19
7.070000E+03	5.096807E-18	7.273754E-19
7.080000E+03	5.154142E-18	7.354715E-19
7.090000E+03	5.212605E-18	7.437266E-19
7.100000E+03	5.272092E-18	7.521255E-19
7.110000E+03	5.332705E-18	7.606828E-19
7.120000E+03	5.394226E-18	7.693675E-19
7.130000E+03	5.456868E-18	7.782098E-19
7.140000E+03	5.520406E-18	7.871773E-19
7.150000E+03	5.584943E-18	7.962850E-19
7.160000E+03	5.650474E-18	8.055321E-19
7.170000E+03	5.716993E-18	8.149175E-19
7.180000E+03	5.784373E-18	8.244231E-19
7.190000E+03	5.852601E-18	8.340471E-19
7.200000E+03	5.921789E-18	8.438053E-19
7.210000E+03	5.991804E-18	8.536788E-19
7.220000E+03	6.062760E-18	8.636837E-19
7.230000E+03	6.134385E-18	8.737812E-19
7.240000E+03	6.206926E-18	8.840065E-19
7.250000E+03	6.280235E-18	8.943386E-19
7.260000E+03	6.354299E-18	9.047753E-19
7.270000E+03	6.429096E-18	9.153137E-19
7.280000E+03	6.504611E-18	9.259515E-19
7.290000E+03	6.580822E-18	9.366856E-19
7.300000E+03	6.657855E-18	9.475338E-19
7.310000E+03	6.735399E-18	9.584517E-19
7.320000E+03	6.813877E-18	9.694998E-19
7.330000E+03	6.893126E-18	9.806546E-19
7.340000E+03	6.972972E-18	9.918912E-19
7.350000E+03	7.053866E-18	1.003274E-18
7.360000E+03	7.135480E-18	1.014756E-18
7.370000E+03	7.218287E-18	1.026405E-18
7.380000E+03	7.302124E-18	1.038197E-18
7.390000E+03	7.387152E-18	1.050156E-18
7.400000E+03	7.473548E-18	1.062305E-18
7.410000E+03	7.561320E-18	1.074647E-18
7.420000E+03	7.650837E-18	1.087234E-18
7.430000E+03	7.742308E-18	1.100095E-18
7.440000E+03	7.835586E-18	1.113209E-18
7.450000E+03	7.930699E-18	1.126581E-18
7.460000E+03	8.027675E-18	1.140214E-18
7.470000E+03	8.126351E-18	1.154084E-18
7.480000E+03	8.226549E-18	1.168167E-18
7.490000E+03	8.328082E-18	1.182437E-18
7.500000E+03	8.430951E-18	1.196891E-18
7.510000E+03	8.534952E-18	1.211503E-18
7.520000E+03	8.639864E-18	1.226241E-18
7.530000E+03	8.745884E-18	1.241131E-18
7.540000E+03	8.852569E-18	1.256113E-18
7.550000E+03	8.959888E-18	1.271180E-18
7.560000E+03	9.067808E-18	1.286329E-18
7.570000E+03	9.176299E-18	1.301555E-18
7.580000E+03	9.285325E-18	1.316852E-18
7.590000E+03	9.394616E-18	1.332184E-18
7.600000E+03	9.504125E-18	1.347542E-18
7.610000E+03	9.614043E-18	1.362955E-18
7.620000E+03	9.724080E-18	1.378380E-18
7.630000E+03	9.834431E-18	1.393846E-18
7.640000E+03	9.944538E-18	1.409274E-18
7.650000E+03	1.005484E-17	1.424726E-18
7.660000E+03	1.016503E-17	1.440157E-18
7.670000E+03	1.027502E-17	1.455557E-18
7.680000E+03	1.038476E-17	1.470916E-18
7.690000E+03	1.049442E-17	1.486261E-18
7.700000E+03	1.060366E-17	1.501543E-18
7.710000E+03	1.071240E-17	1.516750E-18
7.720000E+03	1.082082E-17	1.531909E-18
7.730000E+03	1.092886E-17	1.547009E-18
7.740000E+03	1.103612E-17	1.561996E-18
7.750000E+03	1.114281E-17	1.576899E-18
7.760000E+03	1.124883E-17	1.591703E-18
