#wls	flux	fluxerr
1.600000E+03	3.445491E-16	1.144514E-16
1.640000E+03	3.553926E-16	1.180516E-16
1.680000E+03	3.656848E-16	1.214685E-16
1.720000E+03	3.753198E-16	1.246669E-16
1.760000E+03	3.841443E-16	1.275960E-16
1.800000E+03	3.920342E-16	1.302145E-16
1.840000E+03	3.988210E-16	1.324664E-16
1.880000E+03	4.044049E-16	1.343187E-16
1.920000E+03	4.086466E-16	1.357251E-16
1.960000E+03	4.113747E-16	1.366286E-16
2.000000E+03	4.124924E-16	1.369972E-16
2.040000E+03	4.118479E-16	1.367805E-16
2.080000E+03	4.093100E-16	1.359349E-16
2.120000E+03	4.048327E-16	1.344452E-16
2.160000E+03	3.982597E-16	1.322595E-16
2.200000E+03	3.894946E-16	1.293459E-16
2.240000E+03	3.784384E-16	1.256715E-16
2.280000E+03	3.649335E-16	1.211841E-16
2.320000E+03	3.494070E-16	1.160255E-16
2.360000E+03	3.322977E-16	1.103414E-16
2.400000E+03	3.139553E-16	1.042482E-16
2.440000E+03	2.946787E-16	9.784502E-17
2.480000E+03	2.747563E-16	9.122765E-17
2.520000E+03	2.544527E-16	8.448399E-17
2.560000E+03	2.340053E-16	7.769290E-17
2.600000E+03	2.136593E-16	7.093581E-17
2.640000E+03	1.936424E-16	6.428830E-17
2.680000E+03	1.741653E-16	5.782034E-17
2.720000E+03	1.554209E-16	5.159593E-17
2.760000E+03	1.375905E-16	4.567528E-17
2.800000E+03	1.208108E-16	4.010376E-17
2.840000E+03	1.052006E-16	3.492077E-17
2.880000E+03	9.086033E-17	3.015960E-17
2.920000E+03	7.785909E-17	2.584318E-17
2.960000E+03	6.623680E-17	2.198473E-17
3.000000E+03	5.599080E-17	1.858331E-17
3.010000E+03	5.363938E-17	1.780272E-17
3.020000E+03	5.137009E-17	1.704940E-17
3.030000E+03	4.918248E-17	1.632320E-17
3.040000E+03	4.707484E-17	1.562355E-17
3.050000E+03	4.504541E-17	1.494987E-17
3.060000E+03	4.309337E-17	1.430189E-17
3.070000E+03	4.121590E-17	1.367866E-17
3.080000E+03	3.941286E-17	1.308015E-17
3.090000E+03	3.768143E-17	1.250542E-17
3.100000E+03	3.602040E-17	1.195405E-17
3.110000E+03	3.442777E-17	1.142540E-17
3.120000E+03	3.290214E-17	1.091899E-17
3.130000E+03	3.144147E-17	1.043415E-17
3.140000E+03	3.004367E-17	9.970180E-18
3.150000E+03	2.870723E-17	9.526583E-18
3.160000E+03	2.742961E-17	9.102512E-18
3.170000E+03	2.620975E-17	8.697614E-18
3.180000E+03	2.504515E-17	8.311065E-18
3.190000E+03	2.393423E-17	7.942334E-18
3.200000E+03	2.287499E-17	7.590760E-18
3.210000E+03	2.186549E-17	7.255699E-18
3.220000E+03	2.090412E-17	6.936615E-18
3.230000E+03	1.998900E-17	6.632882E-18
3.240000E+03	1.911789E-17	6.343758E-18
3.250000E+03	1.828990E-17	6.068949E-18
3.260000E+03	1.750229E-17	5.807546E-18
3.270000E+03	1.675418E-17	5.559254E-18
3.280000E+03	1.604329E-17	5.323314E-18
3.290000E+03	1.536821E-17	5.099262E-18
3.300000E+03	1.472754E-17	4.886633E-18
3.310000E+03	1.411926E-17	4.684753E-18
3.320000E+03	1.354228E-17	4.493263E-18
3.330000E+03	1.299511E-17	4.311668E-18
3.340000E+03	1.247613E-17	4.139431E-18
3.350000E+03	1.198400E-17	3.976106E-18
3.360000E+03	1.151743E-17	3.821262E-18
3.370000E+03	1.107532E-17	3.674536E-18
3.380000E+03	1.065616E-17	3.535431E-18
3.390000E+03	1.025912E-17	3.403666E-18
3.400000E+03	9.882830E-18	3.278786E-18
3.410000E+03	9.526260E-18	3.160453E-18
3.420000E+03	9.188558E-18	3.048381E-18
3.430000E+03	8.868440E-18	2.942146E-18
3.440000E+03	8.565266E-18	2.841533E-18
3.450000E+03	8.278084E-18	2.746229E-18
3.460000E+03	8.005820E-18	2.655875E-18
3.470000E+03	7.747940E-18	2.570295E-18
3.480000E+03	7.503481E-18	2.489169E-18
3.490000E+03	7.271800E-18	2.412283E-18
3.500000E+03	7.052211E-18	2.339411E-18
3.510000E+03	6.843846E-18	2.270263E-18
3.520000E+03	6.646197E-18	2.204672E-18
3.530000E+03	6.458576E-18	2.142408E-18
3.540000E+03	6.280345E-18	2.083261E-18
3.550000E+03	6.110982E-18	2.027056E-18
3.560000E+03	5.949878E-18	1.973592E-18
3.570000E+03	5.796529E-18	1.922702E-18
3.580000E+03	5.650416E-18	1.874213E-18
3.590000E+03	5.511169E-18	1.828002E-18
3.600000E+03	5.378381E-18	1.783935E-18
3.610000E+03	5.251631E-18	1.741872E-18
3.620000E+03	5.130615E-18	1.701711E-18
3.630000E+03	5.015054E-18	1.663361E-18
3.640000E+03	4.904585E-18	1.626700E-18
3.650000E+03	4.799095E-18	1.591691E-18
3.660000E+03	4.698247E-18	1.558223E-18
3.670000E+03	4.601892E-18	1.526246E-18
3.680000E+03	4.509846E-18	1.495698E-18
3.690000E+03	4.421923E-18	1.466519E-18
3.700000E+03	4.337988E-18	1.438663E-18
3.710000E+03	4.257934E-18	1.412094E-18
3.720000E+03	4.181519E-18	1.386733E-18
3.730000E+03	4.108714E-18	1.362570E-18
3.740000E+03	4.039318E-18	1.339538E-18
3.750000E+03	3.973239E-18	1.317606E-18
3.760000E+03	3.910380E-18	1.296742E-18
3.770000E+03	3.850551E-18	1.276884E-18
3.780000E+03	3.793730E-18	1.258024E-18
3.790000E+03	3.739764E-18	1.240111E-18
3.800000E+03	3.688569E-18	1.223118E-18
3.810000E+03	3.640034E-18	1.207006E-18
3.820000E+03	3.594079E-18	1.191751E-18
3.830000E+03	3.550599E-18	1.177316E-18
3.840000E+03	3.509518E-18	1.163677E-18
3.850000E+03	3.470741E-18	1.150803E-18
3.860000E+03	3.434227E-18	1.138679E-18
3.870000E+03	3.399882E-18	1.127275E-18
3.880000E+03	3.367619E-18	1.116561E-18
3.890000E+03	3.337374E-18	1.106516E-18
3.900000E+03	3.309070E-18	1.097115E-18
3.910000E+03	3.282672E-18	1.088347E-18
3.920000E+03	3.258105E-18	1.080185E-18
3.930000E+03	3.235317E-18	1.072613E-18
3.940000E+03	3.214230E-18	1.065606E-18
3.950000E+03	3.194779E-18	1.059141E-18
3.960000E+03	3.176966E-18	1.053219E-18
3.970000E+03	3.160674E-18	1.047801E-18
3.980000E+03	3.145884E-18	1.042882E-18
3.990000E+03	3.132536E-18	1.038440E-18
4.000000E+03	3.120588E-18	1.034463E-18
4.010000E+03	3.110008E-18	1.030939E-18
4.020000E+03	3.100709E-18	1.027840E-18
4.030000E+03	3.092686E-18	1.025164E-18
4.040000E+03	3.085882E-18	1.022892E-18
4.050000E+03	3.080267E-18	1.021014E-18
4.060000E+03	3.075788E-18	1.019512E-18
4.070000E+03	3.072397E-18	1.018371E-18
4.080000E+03	3.070091E-18	1.017590E-18
4.090000E+03	3.068800E-18	1.017145E-18
4.100000E+03	3.068500E-18	1.017028E-18
4.110000E+03	3.069172E-18	1.017233E-18
4.120000E+03	3.070748E-18	1.017738E-18
4.130000E+03	3.073233E-18	1.018544E-18
4.140000E+03	3.076566E-18	1.019631E-18
4.150000E+03	3.080727E-18	1.020992E-18
4.160000E+03	3.085702E-18	1.022623E-18
4.170000E+03	3.091434E-18	1.024505E-18
4.180000E+03	3.097927E-18	1.026638E-18
4.190000E+03	3.105103E-18	1.028998E-18
4.200000E+03	3.112996E-18	1.031595E-18
4.210000E+03	3.121525E-18	1.034403E-18
4.220000E+03	3.130682E-18	1.037419E-18
4.230000E+03	3.140431E-18	1.040630E-18
4.240000E+03	3.150765E-18	1.044035E-18
4.250000E+03	3.161607E-18	1.047609E-18
4.260000E+03	3.172973E-18	1.051355E-18
4.270000E+03	3.184811E-18	1.055258E-18
4.280000E+03	3.197064E-18	1.059298E-18
4.290000E+03	3.209726E-18	1.063474E-18
4.300000E+03	3.222774E-18	1.067776E-18
4.310000E+03	3.236124E-18	1.072179E-18
4.320000E+03	3.249746E-18	1.076671E-18
4.330000E+03	3.263612E-18	1.081245E-18
4.340000E+03	3.277689E-18	1.085887E-18
4.350000E+03	3.291950E-18	1.090590E-18
4.360000E+03	3.306389E-18	1.095352E-18
4.370000E+03	3.320971E-18	1.100162E-18
4.380000E+03	3.335670E-18	1.105009E-18
4.390000E+03	3.350528E-18	1.109909E-18
4.400000E+03	3.365518E-18	1.114853E-18
4.410000E+03	3.380634E-18	1.119837E-18
4.420000E+03	3.395900E-18	1.124871E-18
4.430000E+03	3.411312E-18	1.129953E-18
4.440000E+03	3.426842E-18	1.135074E-18
4.450000E+03	3.442515E-18	1.140242E-18
4.460000E+03	3.458304E-18	1.145448E-18
4.470000E+03	3.474208E-18	1.150691E-18
4.480000E+03	3.490232E-18	1.155974E-18
4.490000E+03	3.506322E-18	1.161279E-18
4.500000E+03	3.522511E-18	1.166616E-18
4.510000E+03	3.538776E-18	1.171978E-18
4.520000E+03	3.555100E-18	1.177359E-18
4.530000E+03	3.571492E-18	1.182762E-18
4.540000E+03	3.587906E-18	1.188172E-18
4.550000E+03	3.604353E-18	1.193592E-18
4.560000E+03	3.620852E-18	1.199030E-18
4.570000E+03	3.637387E-18	1.204479E-18
4.580000E+03	3.653921E-18	1.209927E-18
4.590000E+03	3.670469E-18	1.215379E-18
4.600000E+03	3.687027E-18	1.220835E-18
4.610000E+03	3.703588E-18	1.226291E-18
4.620000E+03	3.720177E-18	1.231755E-18
4.630000E+03	3.736758E-18	1.237217E-18
4.640000E+03	3.753358E-18	1.242685E-18
4.650000E+03	3.769980E-18	1.248159E-18
4.660000E+03	3.786621E-18	1.253640E-18
4.670000E+03	3.803284E-18	1.259127E-18
4.680000E+03	3.819966E-18	1.264620E-18
4.690000E+03	3.836673E-18	1.270121E-18
4.700000E+03	3.853474E-18	1.275652E-18
4.710000E+03	3.870376E-18	1.281217E-18
4.720000E+03	3.887383E-18	1.286816E-18
4.730000E+03	3.904573E-18	1.292475E-18
4.740000E+03	3.921922E-18	1.298186E-18
4.750000E+03	3.939436E-18	1.303951E-18
4.760000E+03	3.957161E-18	1.309786E-18
4.770000E+03	3.975109E-18	1.315694E-18
4.780000E+03	3.993259E-18	1.321669E-18
4.790000E+03	4.011655E-18	1.327724E-18
4.800000E+03	4.030314E-18	1.333866E-18
4.810000E+03	4.049214E-18	1.340087E-18
4.820000E+03	4.068406E-18	1.346404E-18
4.830000E+03	4.087906E-18	1.352823E-18
4.840000E+03	4.107730E-18	1.359349E-18
4.850000E+03	4.127898E-18	1.365988E-18
4.860000E+03	4.148389E-18	1.372732E-18
4.870000E+03	4.169298E-18	1.379615E-18
4.880000E+03	4.190571E-18	1.386618E-18
4.890000E+03	4.212223E-18	1.393745E-18
4.900000E+03	4.234315E-18	1.401018E-18
4.910000E+03	4.256870E-18	1.408443E-18
4.920000E+03	4.279908E-18	1.416027E-18
4.930000E+03	4.303370E-18	1.423751E-18
4.940000E+03	4.327361E-18	1.431649E-18
4.950000E+03	4.351859E-18	1.439715E-18
4.960000E+03	4.376884E-18	1.447954E-18
4.970000E+03	4.402458E-18	1.456374E-18
4.980000E+03	4.428603E-18	1.464982E-18
4.990000E+03	4.455297E-18	1.473771E-18
5.000000E+03	4.482555E-18	1.482746E-18
5.010000E+03	4.510437E-18	1.491926E-18
5.020000E+03	4.538918E-18	1.501304E-18
5.030000E+03	4.567969E-18	1.510870E-18
5.040000E+03	4.597692E-18	1.520657E-18
5.050000E+03	4.627968E-18	1.530626E-18
5.060000E+03	4.658893E-18	1.540809E-18
5.070000E+03	4.690482E-18	1.551210E-18
5.080000E+03	4.722609E-18	1.561789E-18
5.090000E+03	4.755416E-18	1.572592E-18
5.100000E+03	4.788822E-18	1.583592E-18
5.110000E+03	4.822834E-18	1.594791E-18
5.120000E+03	4.857499E-18	1.606205E-18
5.130000E+03	4.892734E-18	1.617807E-18
5.140000E+03	4.928541E-18	1.629597E-18
5.150000E+03	4.964971E-18	1.641592E-18
5.160000E+03	5.001977E-18	1.653776E-18
5.170000E+03	5.039560E-18	1.666150E-18
5.180000E+03	5.077673E-18	1.678699E-18
5.190000E+03	5.116364E-18	1.691437E-18
5.200000E+03	5.155528E-18	1.704330E-18
5.210000E+03	5.195263E-18	1.717411E-18
5.220000E+03	5.235514E-18	1.730662E-18
5.230000E+03	5.276223E-18	1.744062E-18
5.240000E+03	5.317379E-18	1.757610E-18
5.250000E+03	5.359023E-18	1.771317E-18
5.260000E+03	5.401036E-18	1.785145E-18
5.270000E+03	5.443456E-18	1.799107E-18
5.280000E+03	5.486319E-18	1.813213E-18
5.290000E+03	5.529441E-18	1.827404E-18
5.300000E+03	5.572962E-18	1.841725E-18
5.310000E+03	5.616689E-18	1.856114E-18
5.320000E+03	5.660764E-18	1.870616E-18
5.330000E+03	5.704983E-18	1.885164E-18
5.340000E+03	5.749428E-18	1.899785E-18
5.350000E+03	5.794065E-18	1.914469E-18
5.360000E+03	5.838800E-18	1.929183E-18
5.370000E+03	5.883711E-18	1.943955E-18
5.380000E+03	5.928583E-18	1.958712E-18
5.390000E+03	5.973557E-18	1.973501E-18
5.400000E+03	6.018531E-18	1.988289E-18
5.410000E+03	6.063465E-18	2.003062E-18
5.420000E+03	6.108320E-18	2.017807E-18
5.430000E+03	6.153055E-18	2.032512E-18
5.440000E+03	6.197560E-18	2.047139E-18
5.450000E+03	6.241796E-18	2.061676E-18
5.460000E+03	6.285711E-18	2.076105E-18
5.470000E+03	6.329261E-18	2.090412E-18
5.480000E+03	6.372328E-18	2.104558E-18
5.490000E+03	6.414794E-18	2.118505E-18
5.500000E+03	6.456671E-18	2.132255E-18
5.510000E+03	6.497833E-18	2.145768E-18
5.520000E+03	6.538154E-18	2.159001E-18
5.530000E+03	6.577501E-18	2.171912E-18
5.540000E+03	6.615875E-18	2.184500E-18
5.550000E+03	6.653074E-18	2.196698E-18
5.560000E+03	6.689095E-18	2.208506E-18
5.570000E+03	6.723731E-18	2.219856E-18
5.580000E+03	6.756906E-18	2.230721E-18
5.590000E+03	6.788618E-18	2.241103E-18
5.600000E+03	6.818653E-18	2.250929E-18
5.610000E+03	6.847005E-18	2.260199E-18
5.620000E+03	6.873605E-18	2.268889E-18
5.630000E+03	6.898309E-18	2.276952E-18
5.640000E+03	6.921049E-18	2.284366E-18
5.650000E+03	6.941828E-18	2.291132E-18
5.660000E+03	6.960584E-18	2.297229E-18
5.670000E+03	6.977188E-18	2.302614E-18
5.680000E+03	6.991653E-18	2.307293E-18
5.690000E+03	7.004007E-18	2.311274E-18
5.700000E+03	7.014060E-18	2.314495E-18
5.710000E+03	7.021845E-18	2.316967E-18
5.720000E+03	7.027403E-18	2.318704E-18
5.730000E+03	7.030709E-18	2.319696E-18
5.740000E+03	7.031743E-18	2.319939E-18
5.750000E+03	7.030490E-18	2.319426E-18
5.760000E+03	7.026942E-18	2.318156E-18
5.770000E+03	7.021171E-18	2.316153E-18
5.780000E+03	7.013108E-18	2.313392E-18
5.790000E+03	7.002909E-18	2.309928E-18
5.800000E+03	6.990521E-18	2.305740E-18
5.810000E+03	6.975958E-18	2.300836E-18
5.820000E+03	6.959405E-18	2.295275E-18
5.830000E+03	6.940748E-18	2.289019E-18
5.840000E+03	6.920099E-18	2.282107E-18
5.850000E+03	6.897586E-18	2.274581E-18
5.860000E+03	6.873188E-18	2.266433E-18
5.870000E+03	6.847046E-18	2.257710E-18
5.880000E+03	6.819152E-18	2.248410E-18
5.890000E+03	6.789732E-18	2.238607E-18
5.900000E+03	6.758792E-18	2.228303E-18
5.910000E+03	6.726419E-18	2.217527E-18
5.920000E+03	6.692780E-18	2.206334E-18
5.930000E+03	6.657888E-18	2.194729E-18
5.940000E+03	6.621917E-18	2.182769E-18
5.950000E+03	6.584888E-18	2.170461E-18
5.960000E+03	6.546971E-18	2.157860E-18
5.970000E+03	6.508261E-18	2.144999E-18
5.980000E+03	6.468856E-18	2.131910E-18
5.990000E+03	6.428774E-18	2.118598E-18
6.000000E+03	6.388181E-18	2.105119E-18
6.010000E+03	6.347166E-18	2.091501E-18
6.020000E+03	6.305745E-18	2.077751E-18
6.030000E+03	6.264075E-18	2.063919E-18
6.040000E+03	6.222165E-18	2.050009E-18
6.050000E+03	6.180020E-18	2.036022E-18
6.060000E+03	6.137863E-18	2.022033E-18
6.070000E+03	6.095620E-18	2.008016E-18
6.080000E+03	6.053436E-18	1.994019E-18
6.090000E+03	6.011227E-18	1.980015E-18
6.100000E+03	5.969135E-18	1.966051E-18
6.110000E+03	5.927142E-18	1.952120E-18
6.120000E+03	5.885310E-18	1.938243E-18
6.130000E+03	5.843690E-18	1.924437E-18
6.140000E+03	5.802259E-18	1.910694E-18
6.150000E+03	5.761069E-18	1.897031E-18
6.160000E+03	5.720160E-18	1.883462E-18
6.170000E+03	5.679573E-18	1.870000E-18
6.180000E+03	5.639348E-18	1.856658E-18
6.190000E+03	5.599447E-18	1.843424E-18
6.200000E+03	5.559974E-18	1.830331E-18
6.210000E+03	5.520957E-18	1.817390E-18
6.220000E+03	5.482423E-18	1.804608E-18
6.230000E+03	5.444464E-18	1.792017E-18
6.240000E+03	5.407176E-18	1.779647E-18
6.250000E+03	5.370644E-18	1.767528E-18
6.260000E+03	5.334955E-18	1.755686E-18
6.270000E+03	5.300196E-18	1.744151E-18
6.280000E+03	5.266518E-18	1.732973E-18
6.290000E+03	5.233861E-18	1.722132E-18
6.300000E+03	5.202515E-18	1.711723E-18
6.310000E+03	5.172418E-18	1.701725E-18
6.320000E+03	5.143715E-18	1.692186E-18
6.330000E+03	5.116484E-18	1.683133E-18
6.340000E+03	5.090799E-18	1.674589E-18
6.350000E+03	5.066666E-18	1.666556E-18
6.360000E+03	5.044157E-18	1.659057E-18
6.370000E+03	5.023350E-18	1.652119E-18
6.380000E+03	5.004247E-18	1.645741E-18
6.390000E+03	4.986852E-18	1.639926E-18
6.400000E+03	4.971241E-18	1.634697E-18
6.410000E+03	4.957272E-18	1.630009E-18
6.420000E+03	4.944949E-18	1.625861E-18
6.430000E+03	4.934205E-18	1.622233E-18
6.440000E+03	4.924896E-18	1.619077E-18
6.450000E+03	4.917095E-18	1.616417E-18
6.460000E+03	4.910658E-18	1.614204E-18
6.470000E+03	4.905662E-18	1.612466E-18
6.480000E+03	4.902107E-18	1.611201E-18
6.490000E+03	4.899924E-18	1.610386E-18
6.500000E+03	4.899113E-18	1.610022E-18
6.510000E+03	4.899675E-18	1.610109E-18
6.520000E+03	4.901614E-18	1.610648E-18
6.530000E+03	4.904930E-18	1.611639E-18
6.540000E+03	4.909708E-18	1.613109E-18
6.550000E+03	4.915869E-18	1.615034E-18
6.560000E+03	4.923341E-18	1.617389E-18
6.570000E+03	4.932284E-18	1.620226E-18
6.580000E+03	4.942543E-18	1.623494E-18
6.590000E+03	4.954200E-18	1.627222E-18
6.600000E+03	4.967262E-18	1.631409E-18
6.610000E+03	4.981731E-18	1.636058E-18
6.620000E+03	4.997615E-18	1.641171E-18
6.630000E+03	5.014835E-18	1.646721E-18
6.640000E+03	5.033476E-18	1.652736E-18
6.650000E+03	5.053464E-18	1.659193E-18
6.660000E+03	5.074885E-18	1.666119E-18
6.670000E+03	5.097662E-18	1.673489E-18
6.680000E+03	5.121801E-18	1.681304E-18
6.690000E+03	5.147393E-18	1.689595E-18
6.700000E+03	5.174447E-18	1.698365E-18
6.710000E+03	5.202793E-18	1.707557E-18
6.720000E+03	5.232617E-18	1.717232E-18
6.730000E+03	5.263745E-18	1.727334E-18
6.740000E+03	5.296366E-18	1.737924E-18
6.750000E+03	5.330396E-18	1.748974E-18
6.760000E+03	5.365754E-18	1.760458E-18
6.770000E+03	5.402634E-18	1.772440E-18
6.780000E+03	5.440853E-18	1.784859E-18
6.790000E+03	5.480518E-18	1.797749E-18
6.800000E+03	5.521637E-18	1.811115E-18
6.810000E+03	5.564220E-18	1.824959E-18
6.820000E+03	5.608179E-18	1.839252E-18
6.830000E+03	5.653619E-18	1.854028E-18
6.840000E+03	5.700450E-18	1.869258E-18
6.850000E+03	5.748782E-18	1.884978E-18
6.860000E+03	5.798523E-18	1.901156E-18
6.870000E+03	5.849677E-18	1.917796E-18
6.880000E+03	5.902362E-18	1.934934E-18
6.890000E+03	5.956366E-18	1.952503E-18
6.900000E+03	6.011916E-18	1.970575E-18
6.910000E+03	6.068912E-18	1.989118E-18
6.920000E+03	6.127359E-18	2.008133E-18
6.930000E+03	6.187265E-18	2.027624E-18
6.940000E+03	6.248634E-18	2.047591E-18
6.950000E+03	6.311354E-18	2.067998E-18
6.960000E+03	6.375549E-18	2.088884E-18
6.970000E+03	6.441224E-18	2.110252E-18
6.980000E+03	6.508385E-18	2.132103E-18
6.990000E+03	6.576785E-18	2.154356E-18
7.000000E+03	6.646802E-18	2.177136E-18
7.010000E+03	6.718055E-18	2.200317E-18
7.020000E+03	6.790807E-18	2.223985E-18
7.030000E+03	6.864927E-18	2.248096E-18
7.040000E+03	6.940409E-18	2.272651E-18
7.050000E+03	7.017257E-18	2.297648E-18
7.060000E+03	7.095467E-18	2.323087E-18
7.070000E+03	7.174892E-18	2.348920E-18
7.080000E+03	7.255670E-18	2.375192E-18
7.090000E+03	7.337795E-18	2.401900E-18
7.100000E+03	7.421116E-18	2.428995E-18
7.110000E+03	7.505772E-18	2.456523E-18
7.120000E+03	7.591603E-18	2.484431E-18
7.130000E+03	7.678598E-18	2.512715E-18
7.140000E+03	7.766743E-18	2.541371E-18
7.150000E+03	7.856183E-18	2.570446E-18
7.160000E+03	7.946583E-18	2.599831E-18
7.170000E+03	8.037921E-18	2.629517E-18
7.180000E+03	8.130512E-18	2.659608E-18
7.190000E+03	8.223997E-18	2.689987E-18
7.200000E+03	8.318351E-18	2.720646E-18
7.210000E+03	8.413726E-18	2.751633E-18
7.220000E+03	8.509917E-18	2.782882E-18
7.230000E+03	8.606895E-18	2.814383E-18
7.240000E+03	8.704628E-18	2.846126E-18
7.250000E+03	8.803085E-18	2.878100E-18
7.260000E+03	8.902418E-18	2.910356E-18
7.270000E+03	9.002215E-18	2.942758E-18
7.280000E+03	9.102822E-18	2.975419E-18
7.290000E+03	9.204011E-18	3.008265E-18
7.300000E+03	9.305740E-18	3.041283E-18
7.310000E+03	9.408173E-18	3.074525E-18
7.320000E+03	9.511070E-18	3.107913E-18
7.330000E+03	9.614595E-18	3.141501E-18
7.340000E+03	9.718713E-18	3.175277E-18
7.350000E+03	9.823608E-18	3.209302E-18
7.360000E+03	9.929248E-18	3.243564E-18
7.370000E+03	1.003583E-17	3.278130E-18
7.380000E+03	1.014311E-17	3.312916E-18
7.390000E+03	1.025175E-17	3.348142E-18
7.400000E+03	1.036176E-17	3.383807E-18
7.410000E+03	1.047288E-17	3.419832E-18
7.420000E+03	1.058585E-17	3.456453E-18
7.430000E+03	1.070043E-17	3.493594E-18
7.440000E+03	1.081688E-17	3.531341E-18
7.450000E+03	1.093497E-17	3.569617E-18
7.460000E+03	1.105497E-17	3.608509E-18
7.470000E+03	1.117610E-17	3.647763E-18
7.480000E+03	1.129888E-17	3.687552E-18
7.490000E+03	1.142250E-17	3.727608E-18
7.500000E+03	1.154722E-17	3.768014E-18
7.510000E+03	1.167272E-17	3.808671E-18
7.520000E+03	1.179870E-17	3.849477E-18
7.530000E+03	1.192540E-17	3.890511E-18
7.540000E+03	1.205191E-17	3.931477E-18
7.550000E+03	1.217875E-17	3.972544E-18
7.560000E+03	1.230557E-17	4.013599E-18
7.570000E+03	1.243232E-17	4.054621E-18
7.580000E+03	1.255861E-17	4.095489E-18
7.590000E+03	1.268468E-17	4.136280E-18
7.600000E+03	1.281015E-17	4.176869E-18
7.610000E+03	1.293494E-17	4.217229E-18
7.620000E+03	1.305930E-17	4.257442E-18
7.630000E+03	1.318282E-17	4.297376E-18
7.640000E+03	1.330576E-17	4.337114E-18
7.650000E+03	1.342736E-17	4.376412E-18
7.660000E+03	1.354822E-17	4.415460E-18
7.670000E+03	1.366792E-17	4.454124E-18
7.680000E+03	1.378672E-17	4.492488E-18
7.690000E+03	1.390418E-17	4.530413E-18
7.700000E+03	1.402023E-17	4.567870E-18
7.710000E+03	1.413477E-17	4.604830E-18
7.720000E+03	1.424845E-17	4.641506E-18
7.730000E+03	1.436009E-17	4.677511E-18
7.740000E+03	1.447072E-17	4.713184E-18
7.750000E+03	1.457952E-17	4.748253E-18
7.760000E+03	1.468678E-17	4.782818E-18
