#wls	flux	fluxerr
1.600000E+03	1.431185E-16	7.181583E-17
1.640000E+03	1.479633E-16	7.423682E-17
1.680000E+03	1.527169E-16	7.661074E-17
1.720000E+03	1.573604E-16	7.892806E-17
1.760000E+03	1.618254E-16	8.115441E-17
1.800000E+03	1.660826E-16	8.327503E-17
1.840000E+03	1.700683E-16	8.525801E-17
1.880000E+03	1.737437E-16	8.708382E-17
1.920000E+03	1.770509E-16	8.872354E-17
1.960000E+03	1.799293E-16	9.014680E-17
2.000000E+03	1.822902E-16	9.130921E-17
2.040000E+03	1.840734E-16	9.218079E-17
2.080000E+03	1.852085E-16	9.272646E-17
2.120000E+03	1.855958E-16	9.289643E-17
2.160000E+03	1.851502E-16	9.264842E-17
2.200000E+03	1.837725E-16	9.193315E-17
2.240000E+03	1.813813E-16	9.071024E-17
2.280000E+03	1.779656E-16	8.897469E-17
2.320000E+03	1.735570E-16	8.674278E-17
2.360000E+03	1.682891E-16	8.408188E-17
2.400000E+03	1.622822E-16	8.105253E-17
2.440000E+03	1.556453E-16	7.770961E-17
2.480000E+03	1.484977E-16	7.411317E-17
2.520000E+03	1.409337E-16	7.031064E-17
2.560000E+03	1.330364E-16	6.634384E-17
2.600000E+03	1.249063E-16	6.226329E-17
2.640000E+03	1.166190E-16	5.810693E-17
2.680000E+03	1.082627E-16	5.391895E-17
2.720000E+03	9.991220E-17	4.973682E-17
2.760000E+03	9.165488E-17	4.560421E-17
2.800000E+03	8.356517E-17	4.155825E-17
2.840000E+03	7.572132E-17	3.763791E-17
2.880000E+03	6.819769E-17	3.388011E-17
2.920000E+03	6.106213E-17	3.031847E-17
2.960000E+03	5.437386E-17	2.698225E-17
3.000000E+03	4.817948E-17	2.389433E-17
3.010000E+03	4.671168E-17	2.316291E-17
3.020000E+03	4.527758E-17	2.244840E-17
3.030000E+03	4.387622E-17	2.175030E-17
3.040000E+03	4.250956E-17	2.106960E-17
3.050000E+03	4.117657E-17	2.040576E-17
3.060000E+03	3.987716E-17	1.975874E-17
3.070000E+03	3.861126E-17	1.912850E-17
3.080000E+03	3.738030E-17	1.851575E-17
3.090000E+03	3.618245E-17	1.791956E-17
3.100000E+03	3.501897E-17	1.734056E-17
3.110000E+03	3.388881E-17	1.677822E-17
3.120000E+03	3.279229E-17	1.623271E-17
3.130000E+03	3.172903E-17	1.570380E-17
3.140000E+03	3.069858E-17	1.519129E-17
3.150000E+03	2.970052E-17	1.469496E-17
3.160000E+03	2.873492E-17	1.421483E-17
3.170000E+03	2.780071E-17	1.375037E-17
3.180000E+03	2.689791E-17	1.330158E-17
3.190000E+03	2.602593E-17	1.286817E-17
3.200000E+03	2.518421E-17	1.244985E-17
3.210000E+03	2.437256E-17	1.204652E-17
3.220000E+03	2.358951E-17	1.165745E-17
3.230000E+03	2.283568E-17	1.128294E-17
3.240000E+03	2.210923E-17	1.092207E-17
3.250000E+03	2.141063E-17	1.057508E-17
3.260000E+03	2.073849E-17	1.024126E-17
3.270000E+03	2.009247E-17	9.920446E-18
3.280000E+03	1.947191E-17	9.612301E-18
3.290000E+03	1.887582E-17	9.316335E-18
3.300000E+03	1.830411E-17	9.032496E-18
3.310000E+03	1.775552E-17	8.760161E-18
3.320000E+03	1.722942E-17	8.499006E-18
3.330000E+03	1.672564E-17	8.248950E-18
3.340000E+03	1.624302E-17	8.009407E-18
3.350000E+03	1.578092E-17	7.780065E-18
3.360000E+03	1.533872E-17	7.560605E-18
3.370000E+03	1.491600E-17	7.350822E-18
3.380000E+03	1.451172E-17	7.150199E-18
3.390000E+03	1.412531E-17	6.958447E-18
3.400000E+03	1.375639E-17	6.775376E-18
3.410000E+03	1.340420E-17	6.600602E-18
3.420000E+03	1.306818E-17	6.433855E-18
3.430000E+03	1.274748E-17	6.274704E-18
3.440000E+03	1.244176E-17	6.122983E-18
3.450000E+03	1.215053E-17	5.978444E-18
3.460000E+03	1.187300E-17	5.840699E-18
3.470000E+03	1.160876E-17	5.709533E-18
3.480000E+03	1.135722E-17	5.584663E-18
3.490000E+03	1.111812E-17	5.465952E-18
3.500000E+03	1.089066E-17	5.353008E-18
3.510000E+03	1.067462E-17	5.245711E-18
3.520000E+03	1.046939E-17	5.143768E-18
3.530000E+03	1.027454E-17	5.046958E-18
3.540000E+03	1.008965E-17	4.955072E-18
3.550000E+03	9.914200E-18	4.867855E-18
3.560000E+03	9.747941E-18	4.785182E-18
3.570000E+03	9.590305E-18	4.706771E-18
3.580000E+03	9.440971E-18	4.632462E-18
3.590000E+03	9.299732E-18	4.562150E-18
3.600000E+03	9.166185E-18	4.495635E-18
3.610000E+03	9.040056E-18	4.432782E-18
3.620000E+03	8.920989E-18	4.373413E-18
3.630000E+03	8.808656E-18	4.317366E-18
3.640000E+03	8.702817E-18	4.264520E-18
3.650000E+03	8.603084E-18	4.214684E-18
3.660000E+03	8.509352E-18	4.167805E-18
3.670000E+03	8.421245E-18	4.123695E-18
3.680000E+03	8.338596E-18	4.082273E-18
3.690000E+03	8.261296E-18	4.043483E-18
3.700000E+03	8.189035E-18	4.007171E-18
3.710000E+03	8.121637E-18	3.973250E-18
3.720000E+03	8.059104E-18	3.941719E-18
3.730000E+03	8.001210E-18	3.912466E-18
3.740000E+03	7.947796E-18	3.885412E-18
3.750000E+03	7.898857E-18	3.860554E-18
3.760000E+03	7.854187E-18	3.837787E-18
3.770000E+03	7.813710E-18	3.817075E-18
3.780000E+03	7.777415E-18	3.798410E-18
3.790000E+03	7.745162E-18	3.781723E-18
3.800000E+03	7.716882E-18	3.766979E-18
3.810000E+03	7.692504E-18	3.754141E-18
3.820000E+03	7.671954E-18	3.743172E-18
3.830000E+03	7.655230E-18	3.734069E-18
3.840000E+03	7.642195E-18	3.726766E-18
3.850000E+03	7.632836E-18	3.721253E-18
3.860000E+03	7.627156E-18	3.717530E-18
3.870000E+03	7.625009E-18	3.715527E-18
3.880000E+03	7.626337E-18	3.715212E-18
3.890000E+03	7.631189E-18	3.716609E-18
3.900000E+03	7.639494E-18	3.719681E-18
3.910000E+03	7.651126E-18	3.724366E-18
3.920000E+03	7.666131E-18	3.730685E-18
3.930000E+03	7.684508E-18	3.738635E-18
3.940000E+03	7.706056E-18	3.748120E-18
3.950000E+03	7.730830E-18	3.759162E-18
3.960000E+03	7.758826E-18	3.771760E-18
3.970000E+03	7.789968E-18	3.785875E-18
3.980000E+03	7.824128E-18	3.801443E-18
3.990000E+03	7.861414E-18	3.818516E-18
4.000000E+03	7.901698E-18	3.837031E-18
4.010000E+03	7.944909E-18	3.856951E-18
4.020000E+03	7.991095E-18	3.878299E-18
4.030000E+03	8.040124E-18	3.901009E-18
4.040000E+03	8.092050E-18	3.925106E-18
4.050000E+03	8.146675E-18	3.950494E-18
4.060000E+03	8.204125E-18	3.977231E-18
4.070000E+03	8.264251E-18	4.005245E-18
4.080000E+03	8.326994E-18	4.034506E-18
4.090000E+03	8.392407E-18	4.065038E-18
4.100000E+03	8.460290E-18	4.096743E-18
4.110000E+03	8.530772E-18	4.129682E-18
4.120000E+03	8.603647E-18	4.163755E-18
4.130000E+03	8.678916E-18	4.198961E-18
4.140000E+03	8.756577E-18	4.235299E-18
4.150000E+03	8.836497E-18	4.272701E-18
4.160000E+03	8.918670E-18	4.311165E-18
4.170000E+03	9.003043E-18	4.350664E-18
4.180000E+03	9.089463E-18	4.391123E-18
4.190000E+03	9.178019E-18	4.432583E-18
4.200000E+03	9.268495E-18	4.474940E-18
4.210000E+03	9.360973E-18	4.518232E-18
4.220000E+03	9.455243E-18	4.562357E-18
4.230000E+03	9.551311E-18	4.607316E-18
4.240000E+03	9.649114E-18	4.653079E-18
4.250000E+03	9.748431E-18	4.699538E-18
4.260000E+03	9.849355E-18	4.746737E-18
4.270000E+03	9.951742E-18	4.794606E-18
4.280000E+03	1.005544E-17	4.843069E-18
4.290000E+03	1.016030E-17	4.892058E-18
4.300000E+03	1.026633E-17	4.941571E-18
4.310000E+03	1.037347E-17	4.991583E-18
4.320000E+03	1.048138E-17	5.041927E-18
4.330000E+03	1.059016E-17	5.092653E-18
4.340000E+03	1.069948E-17	5.143598E-18
4.350000E+03	1.080941E-17	5.194801E-18
4.360000E+03	1.091971E-17	5.246138E-18
4.370000E+03	1.103036E-17	5.297608E-18
4.380000E+03	1.114137E-17	5.349208E-18
4.390000E+03	1.125273E-17	5.400939E-18
4.400000E+03	1.136446E-17	5.452803E-18
4.410000E+03	1.147663E-17	5.504842E-18
4.420000E+03	1.158936E-17	5.557109E-18
4.430000E+03	1.170265E-17	5.609600E-18
4.440000E+03	1.181660E-17	5.662370E-18
4.450000E+03	1.193114E-17	5.715380E-18
4.460000E+03	1.204649E-17	5.768736E-18
4.470000E+03	1.216256E-17	5.822394E-18
4.480000E+03	1.227939E-17	5.876371E-18
4.490000E+03	1.239699E-17	5.930677E-18
4.500000E+03	1.251540E-17	5.985329E-18
4.510000E+03	1.263467E-17	6.040344E-18
4.520000E+03	1.275482E-17	6.095736E-18
4.530000E+03	1.287567E-17	6.151422E-18
4.540000E+03	1.299750E-17	6.207526E-18
4.550000E+03	1.312012E-17	6.263963E-18
4.560000E+03	1.324358E-17	6.320754E-18
4.570000E+03	1.336781E-17	6.377868E-18
4.580000E+03	1.349300E-17	6.435389E-18
4.590000E+03	1.361907E-17	6.493287E-18
4.600000E+03	1.374587E-17	6.551478E-18
4.610000E+03	1.387368E-17	6.610105E-18
4.620000E+03	1.400235E-17	6.669091E-18
4.630000E+03	1.413181E-17	6.728404E-18
4.640000E+03	1.426228E-17	6.788149E-18
4.650000E+03	1.439386E-17	6.848366E-18
4.660000E+03	1.452624E-17	6.908912E-18
4.670000E+03	1.465978E-17	6.969959E-18
4.680000E+03	1.479446E-17	7.031494E-18
4.690000E+03	1.493026E-17	7.093507E-18
4.700000E+03	1.506730E-17	7.156054E-18
4.710000E+03	1.520556E-17	7.219127E-18
4.720000E+03	1.534519E-17	7.282792E-18
4.730000E+03	1.548589E-17	7.346910E-18
4.740000E+03	1.562781E-17	7.411545E-18
4.750000E+03	1.577109E-17	7.476769E-18
4.760000E+03	1.591530E-17	7.542373E-18
4.770000E+03	1.606073E-17	7.608495E-18
4.780000E+03	1.620724E-17	7.675069E-18
4.790000E+03	1.635467E-17	7.742018E-18
4.800000E+03	1.650335E-17	7.809495E-18
4.810000E+03	1.665281E-17	7.877274E-18
4.820000E+03	1.680351E-17	7.945584E-18
4.830000E+03	1.695499E-17	8.014194E-18
4.840000E+03	1.710758E-17	8.083259E-18
4.850000E+03	1.726092E-17	8.152620E-18
4.860000E+03	1.741536E-17	8.222431E-18
4.870000E+03	1.757056E-17	8.292529E-18
4.880000E+03	1.772665E-17	8.362985E-18
4.890000E+03	1.788364E-17	8.433793E-18
4.900000E+03	1.804132E-17	8.504857E-18
4.910000E+03	1.819966E-17	8.576163E-18
4.920000E+03	1.835862E-17	8.647690E-18
4.930000E+03	1.851835E-17	8.719505E-18
4.940000E+03	1.867842E-17	8.791412E-18
4.950000E+03	1.883915E-17	8.863553E-18
4.960000E+03	1.900008E-17	8.935718E-18
4.970000E+03	1.916133E-17	9.007958E-18
4.980000E+03	1.932263E-17	9.080143E-18
4.990000E+03	1.948384E-17	9.152217E-18
5.000000E+03	1.964486E-17	9.224123E-18
5.010000E+03	1.980575E-17	9.295892E-18
5.020000E+03	1.996598E-17	9.367274E-18
5.030000E+03	2.012557E-17	9.438277E-18
5.040000E+03	2.028414E-17	9.508728E-18
5.050000E+03	2.044170E-17	9.578631E-18
5.060000E+03	2.059785E-17	9.647792E-18
5.070000E+03	2.075213E-17	9.716005E-18
5.080000E+03	2.090452E-17	9.783255E-18
5.090000E+03	2.105476E-17	9.849418E-18
5.100000E+03	2.120235E-17	9.914271E-18
5.110000E+03	2.134679E-17	9.977577E-18
5.120000E+03	2.148819E-17	1.003939E-17
5.130000E+03	2.162582E-17	1.009936E-17
5.140000E+03	2.175932E-17	1.015734E-17
5.150000E+03	2.188836E-17	1.021316E-17
5.160000E+03	2.201257E-17	1.026666E-17
5.170000E+03	2.213138E-17	1.031757E-17
5.180000E+03	2.224461E-17	1.036582E-17
5.190000E+03	2.235146E-17	1.041103E-17
5.200000E+03	2.245177E-17	1.045313E-17
5.210000E+03	2.254471E-17	1.049174E-17
5.220000E+03	2.263035E-17	1.052690E-17
5.230000E+03	2.270786E-17	1.055823E-17
5.240000E+03	2.277713E-17	1.058567E-17
5.250000E+03	2.283734E-17	1.060886E-17
5.260000E+03	2.288840E-17	1.062775E-17
5.270000E+03	2.293000E-17	1.064222E-17
5.280000E+03	2.296141E-17	1.065191E-17
5.290000E+03	2.298238E-17	1.065674E-17
5.300000E+03	2.299295E-17	1.065671E-17
5.310000E+03	2.299271E-17	1.065166E-17
5.320000E+03	2.298133E-17	1.064142E-17
5.330000E+03	2.295874E-17	1.062598E-17
5.340000E+03	2.292494E-17	1.060534E-17
5.350000E+03	2.287998E-17	1.057955E-17
5.360000E+03	2.282378E-17	1.054855E-17
5.370000E+03	2.275675E-17	1.051256E-17
5.380000E+03	2.267892E-17	1.047159E-17
5.390000E+03	2.259088E-17	1.042592E-17
5.400000E+03	2.249281E-17	1.037565E-17
5.410000E+03	2.238565E-17	1.032120E-17
5.420000E+03	2.227017E-17	1.026296E-17
5.430000E+03	2.214677E-17	1.020110E-17
5.440000E+03	2.201681E-17	1.013625E-17
5.450000E+03	2.188102E-17	1.006876E-17
5.460000E+03	2.173932E-17	9.998595E-18
5.470000E+03	2.159323E-17	9.926454E-18
5.480000E+03	2.144318E-17	9.852546E-18
5.490000E+03	2.128968E-17	9.777105E-18
5.500000E+03	2.113348E-17	9.700475E-18
5.510000E+03	2.097513E-17	9.622912E-18
5.520000E+03	2.081521E-17	9.544684E-18
5.530000E+03	2.065471E-17	9.466251E-18
5.540000E+03	2.049424E-17	9.387883E-18
5.550000E+03	2.033496E-17	9.310122E-18
5.560000E+03	2.017784E-17	9.233408E-18
5.570000E+03	2.002361E-17	9.158069E-18
5.580000E+03	1.987334E-17	9.084600E-18
5.590000E+03	1.972789E-17	9.013385E-18
5.600000E+03	1.958804E-17	8.944780E-18
5.610000E+03	1.945474E-17	8.879213E-18
5.620000E+03	1.932864E-17	8.816982E-18
5.630000E+03	1.921039E-17	8.758369E-18
5.640000E+03	1.910073E-17	8.703717E-18
5.650000E+03	1.900017E-17	8.653243E-18
5.660000E+03	1.890934E-17	8.607230E-18
5.670000E+03	1.882863E-17	8.565851E-18
5.680000E+03	1.875837E-17	8.529247E-18
5.690000E+03	1.869904E-17	8.497625E-18
5.700000E+03	1.865086E-17	8.471086E-18
5.710000E+03	1.861403E-17	8.449705E-18
5.720000E+03	1.858890E-17	8.433632E-18
5.730000E+03	1.857558E-17	8.422913E-18
5.740000E+03	1.857435E-17	8.417666E-18
5.750000E+03	1.858510E-17	8.417824E-18
5.760000E+03	1.860824E-17	8.423575E-18
5.770000E+03	1.864362E-17	8.434832E-18
5.780000E+03	1.869123E-17	8.451592E-18
5.790000E+03	1.875150E-17	8.474028E-18
5.800000E+03	1.882402E-17	8.501947E-18
5.810000E+03	1.890917E-17	8.535520E-18
5.820000E+03	1.900695E-17	8.574729E-18
5.830000E+03	1.911735E-17	8.619562E-18
5.840000E+03	1.924015E-17	8.669906E-18
5.850000E+03	1.937574E-17	8.725931E-18
5.860000E+03	1.952389E-17	8.787524E-18
5.870000E+03	1.968479E-17	8.854758E-18
5.880000E+03	1.985841E-17	8.927614E-18
5.890000E+03	2.004451E-17	9.005965E-18
5.900000E+03	2.024325E-17	9.089877E-18
5.910000E+03	2.045481E-17	9.179423E-18
5.920000E+03	2.067868E-17	9.274357E-18
5.930000E+03	2.091499E-17	9.374731E-18
5.940000E+03	2.116364E-17	9.480493E-18
5.950000E+03	2.142475E-17	9.591683E-18
5.960000E+03	2.169770E-17	9.708011E-18
5.970000E+03	2.198281E-17	9.829612E-18
5.980000E+03	2.227938E-17	9.956166E-18
5.990000E+03	2.258743E-17	1.008767E-17
6.000000E+03	2.290671E-17	1.022400E-17
6.010000E+03	2.323666E-17	1.036489E-17
6.020000E+03	2.357721E-17	1.051032E-17
6.030000E+03	2.392745E-17	1.065985E-17
6.040000E+03	2.428750E-17	1.081355E-17
6.050000E+03	2.465609E-17	1.097083E-17
6.060000E+03	2.503328E-17	1.113171E-17
6.070000E+03	2.541794E-17	1.129569E-17
6.080000E+03	2.580982E-17	1.146264E-17
6.090000E+03	2.620767E-17	1.163200E-17
6.100000E+03	2.661084E-17	1.180348E-17
6.110000E+03	2.701830E-17	1.197663E-17
6.120000E+03	2.742935E-17	1.215111E-17
6.130000E+03	2.784254E-17	1.232630E-17
6.140000E+03	2.825673E-17	1.250168E-17
6.150000E+03	2.867111E-17	1.267689E-17
6.160000E+03	2.908448E-17	1.285140E-17
6.170000E+03	2.949490E-17	1.302436E-17
6.180000E+03	2.990149E-17	1.319537E-17
6.190000E+03	3.030297E-17	1.336389E-17
6.200000E+03	3.069845E-17	1.352951E-17
6.210000E+03	3.108745E-17	1.369204E-17
6.220000E+03	3.146955E-17	1.385129E-17
6.230000E+03	3.184478E-17	1.400728E-17
6.240000E+03	3.221412E-17	1.416045E-17
6.250000E+03	3.257740E-17	1.431074E-17
6.260000E+03	3.293415E-17	1.445793E-17
6.270000E+03	3.328564E-17	1.460259E-17
6.280000E+03	3.363200E-17	1.474478E-17
6.290000E+03	3.397251E-17	1.488420E-17
6.300000E+03	3.430876E-17	1.502154E-17
6.310000E+03	3.463972E-17	1.515635E-17
6.320000E+03	3.496669E-17	1.528921E-17
6.330000E+03	3.528918E-17	1.541991E-17
6.340000E+03	3.560764E-17	1.554865E-17
6.350000E+03	3.592215E-17	1.567546E-17
6.360000E+03	3.623278E-17	1.580038E-17
6.370000E+03	3.653961E-17	1.592345E-17
6.380000E+03	3.684226E-17	1.604449E-17
6.390000E+03	3.714031E-17	1.616335E-17
6.400000E+03	3.743440E-17	1.628030E-17
6.410000E+03	3.772361E-17	1.639493E-17
6.420000E+03	3.800859E-17	1.650754E-17
6.430000E+03	3.828892E-17	1.661795E-17
6.440000E+03	3.856475E-17	1.672622E-17
6.450000E+03	3.883676E-17	1.683266E-17
6.460000E+03	3.910631E-17	1.693786E-17
6.470000E+03	3.937358E-17	1.704190E-17
6.480000E+03	3.963939E-17	1.714513E-17
6.490000E+03	3.990459E-17	1.724792E-17
6.500000E+03	4.016883E-17	1.735013E-17
6.510000E+03	4.043356E-17	1.745238E-17
6.520000E+03	4.069909E-17	1.755479E-17
6.530000E+03	4.096504E-17	1.765722E-17
6.540000E+03	4.123295E-17	1.776031E-17
6.550000E+03	4.150246E-17	1.786392E-17
6.560000E+03	4.177315E-17	1.796786E-17
6.570000E+03	4.204658E-17	1.807280E-17
6.580000E+03	4.232233E-17	1.817857E-17
6.590000E+03	4.260064E-17	1.828524E-17
6.600000E+03	4.288241E-17	1.839323E-17
6.610000E+03	4.316645E-17	1.850200E-17
6.620000E+03	4.345294E-17	1.861163E-17
6.630000E+03	4.374345E-17	1.872281E-17
6.640000E+03	4.403671E-17	1.883497E-17
6.650000E+03	4.433284E-17	1.894817E-17
6.660000E+03	4.463269E-17	1.906276E-17
6.670000E+03	4.493562E-17	1.917848E-17
6.680000E+03	4.524170E-17	1.929534E-17
6.690000E+03	4.555175E-17	1.941371E-17
6.700000E+03	4.586428E-17	1.953293E-17
6.710000E+03	4.617927E-17	1.965300E-17
6.720000E+03	4.649833E-17	1.977459E-17
6.730000E+03	4.681983E-17	1.989703E-17
6.740000E+03	4.714373E-17	2.002028E-17
6.750000E+03	4.747080E-17	2.014467E-17
6.760000E+03	4.780015E-17	2.026982E-17
6.770000E+03	4.813168E-17	2.039568E-17
6.780000E+03	4.846528E-17	2.052222E-17
6.790000E+03	4.880085E-17	2.064938E-17
6.800000E+03	4.913736E-17	2.077673E-17
6.810000E+03	4.947555E-17	2.090458E-17
6.820000E+03	4.981527E-17	2.103287E-17
6.830000E+03	5.015546E-17	2.116115E-17
6.840000E+03	5.049684E-17	2.128972E-17
6.850000E+03	5.083831E-17	2.141812E-17
6.860000E+03	5.117968E-17	2.154627E-17
6.870000E+03	5.152074E-17	2.167408E-17
6.880000E+03	5.186031E-17	2.180107E-17
6.890000E+03	5.220012E-17	2.192795E-17
6.900000E+03	5.253900E-17	2.205423E-17
6.910000E+03	5.287574E-17	2.217942E-17
6.920000E+03	5.321112E-17	2.230384E-17
6.930000E+03	5.354393E-17	2.242699E-17
6.940000E+03	5.387394E-17	2.254877E-17
6.950000E+03	5.420199E-17	2.266955E-17
6.960000E+03	5.452685E-17	2.278879E-17
6.970000E+03	5.484832E-17	2.290645E-17
6.980000E+03	5.516623E-17	2.302243E-17
6.990000E+03	5.548042E-17	2.313669E-17
7.000000E+03	5.578965E-17	2.324871E-17
7.010000E+03	5.609594E-17	2.335933E-17
7.020000E+03	5.639701E-17	2.346762E-17
7.030000E+03	5.669274E-17	2.357352E-17
7.040000E+03	5.698415E-17	2.367748E-17
7.050000E+03	5.727006E-17	2.377900E-17
7.060000E+03	5.755042E-17	2.387808E-17
7.070000E+03	5.782520E-17	2.397470E-17
7.080000E+03	5.809440E-17	2.406887E-17
7.090000E+03	5.835922E-17	2.416110E-17
7.100000E+03	5.861735E-17	2.425044E-17
7.110000E+03	5.886887E-17	2.433692E-17
7.120000E+03	5.911501E-17	2.442107E-17
7.130000E+03	5.935590E-17	2.450295E-17
7.140000E+03	5.959047E-17	2.458211E-17
7.150000E+03	5.982005E-17	2.465913E-17
7.160000E+03	6.004236E-17	2.473306E-17
7.170000E+03	6.026001E-17	2.480498E-17
7.180000E+03	6.047194E-17	2.487447E-17
7.190000E+03	6.067832E-17	2.494161E-17
7.200000E+03	6.087807E-17	2.500596E-17
7.210000E+03	6.107389E-17	2.506864E-17
7.220000E+03	6.126342E-17	2.512867E-17
7.230000E+03	6.144810E-17	2.518667E-17
7.240000E+03	6.162678E-17	2.524217E-17
7.250000E+03	6.180098E-17	2.529580E-17
7.260000E+03	6.196941E-17	2.534703E-17
7.270000E+03	6.213233E-17	2.539598E-17
7.280000E+03	6.229107E-17	2.544320E-17
7.290000E+03	6.244441E-17	2.548821E-17
7.300000E+03	6.259381E-17	2.553159E-17
7.310000E+03	6.273667E-17	2.557230E-17
7.320000E+03	6.287434E-17	2.561091E-17
7.330000E+03	6.300830E-17	2.564800E-17
7.340000E+03	6.313589E-17	2.568252E-17
7.350000E+03	6.325851E-17	2.571503E-17
7.360000E+03	6.337486E-17	2.574502E-17
7.370000E+03	6.348641E-17	2.577310E-17
7.380000E+03	6.359180E-17	2.579871E-17
7.390000E+03	6.369119E-17	2.582193E-17
7.400000E+03	6.378465E-17	2.584279E-17
7.410000E+03	6.387087E-17	2.586078E-17
7.420000E+03	6.395006E-17	2.587598E-17
7.430000E+03	6.402230E-17	2.588844E-17
7.440000E+03	6.408781E-17	2.589826E-17
7.450000E+03	6.414821E-17	2.590609E-17
7.460000E+03	6.420230E-17	2.591147E-17
7.470000E+03	6.425320E-17	2.591565E-17
7.480000E+03	6.430113E-17	2.591873E-17
7.490000E+03	6.434643E-17	2.592085E-17
7.500000E+03	6.438920E-17	2.592206E-17
7.510000E+03	6.442975E-17	2.592249E-17
7.520000E+03	6.447114E-17	2.592337E-17
7.530000E+03	6.451044E-17	2.592353E-17
7.540000E+03	6.454921E-17	2.592359E-17
7.550000E+03	6.458725E-17	2.592348E-17
7.560000E+03	6.462619E-17	2.592385E-17
7.570000E+03	6.466290E-17	2.592344E-17
7.580000E+03	6.469881E-17	2.592282E-17
7.590000E+03	6.473380E-17	2.592196E-17
7.600000E+03	6.476937E-17	2.592144E-17
7.610000E+03	6.480244E-17	2.592004E-17
7.620000E+03	6.483590E-17	2.591891E-17
7.630000E+03	6.486824E-17	2.591745E-17
7.640000E+03	6.489775E-17	2.591498E-17
7.650000E+03	6.492752E-17	2.591273E-17
7.660000E+03	6.495590E-17	2.591004E-17
7.670000E+03	6.498284E-17	2.590689E-17
7.680000E+03	6.500825E-17	2.590325E-17
7.690000E+03	6.503202E-17	2.589907E-17
7.700000E+03	6.505414E-17	2.589435E-17
7.710000E+03	6.507605E-17	2.588967E-17
7.720000E+03	6.509441E-17	2.588369E-17
7.730000E+03	6.511237E-17	2.587768E-17
7.740000E+03	6.512823E-17	2.587094E-17
7.750000E+03	6.514178E-17	2.586341E-17
7.760000E+03	6.515296E-17	2.585505E-17
