#wls	flux	fluxerr
1.600000E+03	5.090293E-17	6.326205E-18
1.640000E+03	5.106741E-17	6.321016E-18
1.680000E+03	5.118603E-17	6.309341E-18
1.720000E+03	5.124826E-17	6.289940E-18
1.760000E+03	5.126284E-17	6.263954E-18
1.800000E+03	5.121827E-17	6.230048E-18
1.840000E+03	5.111248E-17	6.188056E-18
1.880000E+03	5.095132E-17	6.138780E-18
1.920000E+03	5.072263E-17	6.080852E-18
1.960000E+03	5.042701E-17	6.014460E-18
2.000000E+03	5.005683E-17	5.938823E-18
2.040000E+03	4.961231E-17	5.854109E-18
2.080000E+03	4.907986E-17	5.758875E-18
2.120000E+03	4.845167E-17	5.652397E-18
2.160000E+03	4.771897E-17	5.533868E-18
2.200000E+03	4.686195E-17	5.401246E-18
2.240000E+03	4.586450E-17	5.252980E-18
2.280000E+03	4.472705E-17	5.089462E-18
2.320000E+03	4.346282E-17	4.912548E-18
2.360000E+03	4.210900E-17	4.726755E-18
2.400000E+03	4.069265E-17	4.535370E-18
2.440000E+03	3.923445E-17	4.340897E-18
2.480000E+03	3.775488E-17	4.145755E-18
2.520000E+03	3.626101E-17	3.950844E-18
2.560000E+03	3.476216E-17	3.757282E-18
2.600000E+03	3.326368E-17	3.565733E-18
2.640000E+03	3.177185E-17	3.376942E-18
2.680000E+03	3.028923E-17	3.191240E-18
2.720000E+03	2.881909E-17	3.009028E-18
2.760000E+03	2.736452E-17	2.830669E-18
2.800000E+03	2.592861E-17	2.656517E-18
2.840000E+03	2.451542E-17	2.487012E-18
2.880000E+03	2.313083E-17	2.322759E-18
2.920000E+03	2.178167E-17	2.164432E-18
2.960000E+03	2.047597E-17	2.012785E-18
3.000000E+03	1.922134E-17	1.868503E-18
3.010000E+03	1.891697E-17	1.833699E-18
3.020000E+03	1.861585E-17	1.799353E-18
3.030000E+03	1.831881E-17	1.765543E-18
3.040000E+03	1.802541E-17	1.732226E-18
3.050000E+03	1.773603E-17	1.699434E-18
3.060000E+03	1.745099E-17	1.667198E-18
3.070000E+03	1.716953E-17	1.635441E-18
3.080000E+03	1.689268E-17	1.604260E-18
3.090000E+03	1.661968E-17	1.573580E-18
3.100000E+03	1.635118E-17	1.543459E-18
3.110000E+03	1.608676E-17	1.513857E-18
3.120000E+03	1.582641E-17	1.484768E-18
3.130000E+03	1.557069E-17	1.456243E-18
3.140000E+03	1.531897E-17	1.428220E-18
3.150000E+03	1.507213E-17	1.400779E-18
3.160000E+03	1.482928E-17	1.373834E-18
3.170000E+03	1.459126E-17	1.347460E-18
3.180000E+03	1.435750E-17	1.321600E-18
3.190000E+03	1.412850E-17	1.296298E-18
3.200000E+03	1.390398E-17	1.271525E-18
3.210000E+03	1.368416E-17	1.247298E-18
3.220000E+03	1.346898E-17	1.223608E-18
3.230000E+03	1.325845E-17	1.200453E-18
3.240000E+03	1.305236E-17	1.177808E-18
3.250000E+03	1.285112E-17	1.155711E-18
3.260000E+03	1.265451E-17	1.134136E-18
3.270000E+03	1.246273E-17	1.113098E-18
3.280000E+03	1.227555E-17	1.092572E-18
3.290000E+03	1.209296E-17	1.072555E-18
3.300000E+03	1.191512E-17	1.053056E-18
3.310000E+03	1.174183E-17	1.034055E-18
3.320000E+03	1.157324E-17	1.015561E-18
3.330000E+03	1.140931E-17	9.975668E-19
3.340000E+03	1.124969E-17	9.800377E-19
3.350000E+03	1.109468E-17	9.629970E-19
3.360000E+03	1.094409E-17	9.464242E-19
3.370000E+03	1.079790E-17	9.303139E-19
3.380000E+03	1.065608E-17	9.146601E-19
3.390000E+03	1.051834E-17	8.994339E-19
3.400000E+03	1.038493E-17	8.846533E-19
3.410000E+03	1.025569E-17	8.703016E-19
3.420000E+03	1.013048E-17	8.563627E-19
3.430000E+03	1.000929E-17	8.428325E-19
3.440000E+03	9.892100E-18	8.297065E-19
3.450000E+03	9.778645E-18	8.169584E-19
3.460000E+03	9.669065E-18	8.045968E-19
3.470000E+03	9.563116E-18	7.925980E-19
3.480000E+03	9.460795E-18	7.809589E-19
3.490000E+03	9.362013E-18	7.696686E-19
3.500000E+03	9.266671E-18	7.587159E-19
3.510000E+03	9.174685E-18	7.480912E-19
3.520000E+03	9.085973E-18	7.377846E-19
3.530000E+03	9.000364E-18	7.277794E-19
3.540000E+03	8.917710E-18	7.180608E-19
3.550000E+03	8.837960E-18	7.086223E-19
3.560000E+03	8.760965E-18	6.994492E-19
3.570000E+03	8.686700E-18	6.905369E-19
3.580000E+03	8.614949E-18	6.818662E-19
3.590000E+03	8.545695E-18	6.734333E-19
3.600000E+03	8.478829E-18	6.652272E-19
3.610000E+03	8.414411E-18	6.572508E-19
3.620000E+03	8.352277E-18	6.494888E-19
3.630000E+03	8.292399E-18	6.419371E-19
3.640000E+03	8.234538E-18	6.345751E-19
3.650000E+03	8.178690E-18	6.274008E-19
3.660000E+03	8.124778E-18	6.204065E-19
3.670000E+03	8.072739E-18	6.135856E-19
3.680000E+03	8.022571E-18	6.069362E-19
3.690000E+03	7.974279E-18	6.004570E-19
3.700000E+03	7.927789E-18	5.941408E-19
3.710000E+03	7.883174E-18	5.879913E-19
3.720000E+03	7.840358E-18	5.820011E-19
3.730000E+03	7.799473E-18	5.761785E-19
3.740000E+03	7.760507E-18	5.705206E-19
3.750000E+03	7.723443E-18	5.650243E-19
3.760000E+03	7.688329E-18	5.596916E-19
3.770000E+03	7.655275E-18	5.545283E-19
3.780000E+03	7.624250E-18	5.495304E-19
3.790000E+03	7.595356E-18	5.447031E-19
3.800000E+03	7.568557E-18	5.400419E-19
3.810000E+03	7.543882E-18	5.355469E-19
3.820000E+03	7.521420E-18	5.312221E-19
3.830000E+03	7.501255E-18	5.270715E-19
3.840000E+03	7.483345E-18	5.230896E-19
3.850000E+03	7.467828E-18	5.192841E-19
3.860000E+03	7.454598E-18	5.156451E-19
3.870000E+03	7.443849E-18	5.121838E-19
3.880000E+03	7.435471E-18	5.088901E-19
3.890000E+03	7.429653E-18	5.057747E-19
3.900000E+03	7.426339E-18	5.028311E-19
3.910000E+03	7.425596E-18	5.000613E-19
3.920000E+03	7.427424E-18	4.974630E-19
3.930000E+03	7.431886E-18	4.950375E-19
3.940000E+03	7.438982E-18	4.927825E-19
3.950000E+03	7.448832E-18	4.907032E-19
3.960000E+03	7.461377E-18	4.887929E-19
3.970000E+03	7.476676E-18	4.870529E-19
3.980000E+03	7.494729E-18	4.854804E-19
3.990000E+03	7.515655E-18	4.840806E-19
4.000000E+03	7.539454E-18	4.828504E-19
4.010000E+03	7.566126E-18	4.817871E-19
4.020000E+03	7.595672E-18	4.808881E-19
4.030000E+03	7.628212E-18	4.801581E-19
4.040000E+03	7.663691E-18	4.795908E-19
4.050000E+03	7.702230E-18	4.791909E-19
4.060000E+03	7.743775E-18	4.789523E-19
4.070000E+03	7.788393E-18	4.788762E-19
4.080000E+03	7.836156E-18	4.789640E-19
4.090000E+03	7.887069E-18	4.792135E-19
4.100000E+03	7.941148E-18	4.796225E-19
4.110000E+03	7.998404E-18	4.801888E-19
4.120000E+03	8.058974E-18	4.809179E-19
4.130000E+03	8.122812E-18	4.818041E-19
4.140000E+03	8.189997E-18	4.828493E-19
4.150000E+03	8.260481E-18	4.840477E-19
4.160000E+03	8.334346E-18	4.854013E-19
4.170000E+03	8.411673E-18	4.869121E-19
4.180000E+03	8.492419E-18	4.885747E-19
4.190000E+03	8.576668E-18	4.903913E-19
4.200000E+03	8.664372E-18	4.923563E-19
4.210000E+03	8.755624E-18	4.944725E-19
4.220000E+03	8.850363E-18	4.967337E-19
4.230000E+03	8.948691E-18	4.991431E-19
4.240000E+03	9.050544E-18	5.016948E-19
4.250000E+03	9.155954E-18	5.043880E-19
4.260000E+03	9.264849E-18	5.072165E-19
4.270000E+03	9.377324E-18	5.101833E-19
4.280000E+03	9.493315E-18	5.132829E-19
4.290000E+03	9.612821E-18	5.165132E-19
4.300000E+03	9.735788E-18	5.198694E-19
4.310000E+03	9.862116E-18	5.233446E-19
4.320000E+03	9.991814E-18	5.269378E-19
4.330000E+03	1.012485E-17	5.306460E-19
4.340000E+03	1.026114E-17	5.344629E-19
4.350000E+03	1.040064E-17	5.383865E-19
4.360000E+03	1.054324E-17	5.424094E-19
4.370000E+03	1.068899E-17	5.465334E-19
4.380000E+03	1.083783E-17	5.507555E-19
4.390000E+03	1.098998E-17	5.550864E-19
4.400000E+03	1.114535E-17	5.595212E-19
4.410000E+03	1.130401E-17	5.640634E-19
4.420000E+03	1.146593E-17	5.687113E-19
4.430000E+03	1.163129E-17	5.734736E-19
4.440000E+03	1.179996E-17	5.783444E-19
4.450000E+03	1.197190E-17	5.833226E-19
4.460000E+03	1.214719E-17	5.884119E-19
4.470000E+03	1.232579E-17	5.936121E-19
4.480000E+03	1.250767E-17	5.989221E-19
4.490000E+03	1.269269E-17	6.043368E-19
4.500000E+03	1.288089E-17	6.098600E-19
4.510000E+03	1.307214E-17	6.154864E-19
4.520000E+03	1.326636E-17	6.212147E-19
4.530000E+03	1.346346E-17	6.270432E-19
4.540000E+03	1.366311E-17	6.329587E-19
4.550000E+03	1.386535E-17	6.389649E-19
4.560000E+03	1.406991E-17	6.450532E-19
4.570000E+03	1.427670E-17	6.512222E-19
4.580000E+03	1.448533E-17	6.574572E-19
4.590000E+03	1.469579E-17	6.637623E-19
4.600000E+03	1.490768E-17	6.701226E-19
4.610000E+03	1.512096E-17	6.765414E-19
4.620000E+03	1.533522E-17	6.830044E-19
4.630000E+03	1.555028E-17	6.895084E-19
4.640000E+03	1.576580E-17	6.960441E-19
4.650000E+03	1.598175E-17	7.026148E-19
4.660000E+03	1.619765E-17	7.092053E-19
4.670000E+03	1.641341E-17	7.158179E-19
4.680000E+03	1.662869E-17	7.224432E-19
4.690000E+03	1.684312E-17	7.290717E-19
4.700000E+03	1.705660E-17	7.357055E-19
4.710000E+03	1.726861E-17	7.423283E-19
4.720000E+03	1.747887E-17	7.489353E-19
4.730000E+03	1.768693E-17	7.555136E-19
4.740000E+03	1.789279E-17	7.620707E-19
4.750000E+03	1.809607E-17	7.685965E-19
4.760000E+03	1.829680E-17	7.750998E-19
4.770000E+03	1.849473E-17	7.815768E-19
4.780000E+03	1.868992E-17	7.880365E-19
4.790000E+03	1.888208E-17	7.944737E-19
4.800000E+03	1.907113E-17	8.008915E-19
4.810000E+03	1.925696E-17	8.072912E-19
4.820000E+03	1.943944E-17	8.136745E-19
4.830000E+03	1.961849E-17	8.200435E-19
4.840000E+03	1.979382E-17	8.263925E-19
4.850000E+03	1.996554E-17	8.327309E-19
4.860000E+03	2.013360E-17	8.390580E-19
4.870000E+03	2.029775E-17	8.453647E-19
4.880000E+03	2.045792E-17	8.516492E-19
4.890000E+03	2.061426E-17	8.579179E-19
4.900000E+03	2.076634E-17	8.641531E-19
4.910000E+03	2.091450E-17	8.703685E-19
4.920000E+03	2.105849E-17	8.765535E-19
4.930000E+03	2.119805E-17	8.826965E-19
4.940000E+03	2.133333E-17	8.888020E-19
4.950000E+03	2.146425E-17	8.948661E-19
4.960000E+03	2.159055E-17	9.008750E-19
4.970000E+03	2.171234E-17	9.068325E-19
4.980000E+03	2.182914E-17	9.127152E-19
4.990000E+03	2.194127E-17	9.185349E-19
5.000000E+03	2.204845E-17	9.242758E-19
5.010000E+03	2.215037E-17	9.299230E-19
5.020000E+03	2.224715E-17	9.354774E-19
5.030000E+03	2.233847E-17	9.409226E-19
5.040000E+03	2.242427E-17	9.462513E-19
5.050000E+03	2.250444E-17	9.514558E-19
5.060000E+03	2.257891E-17	9.565280E-19
5.070000E+03	2.264734E-17	9.614494E-19
5.080000E+03	2.270987E-17	9.662218E-19
5.090000E+03	2.276619E-17	9.708263E-19
5.100000E+03	2.281620E-17	9.752542E-19
5.110000E+03	2.285960E-17	9.794869E-19
5.120000E+03	2.289654E-17	9.835261E-19
5.130000E+03	2.292649E-17	9.873431E-19
5.140000E+03	2.294986E-17	9.909501E-19
5.150000E+03	2.296614E-17	9.943194E-19
5.160000E+03	2.297555E-17	9.974542E-19
5.170000E+03	2.297784E-17	1.000338E-18
5.180000E+03	2.297277E-17	1.002955E-18
5.190000E+03	2.296056E-17	1.005307E-18
5.200000E+03	2.294101E-17	1.007381E-18
5.210000E+03	2.291412E-17	1.009170E-18
5.220000E+03	2.287995E-17	1.010669E-18
5.230000E+03	2.283830E-17	1.011865E-18
5.240000E+03	2.278924E-17	1.012755E-18
5.250000E+03	2.273261E-17	1.013324E-18
5.260000E+03	2.266873E-17	1.013582E-18
5.270000E+03	2.259745E-17	1.013514E-18
5.280000E+03	2.251891E-17	1.013122E-18
5.290000E+03	2.243322E-17	1.012404E-18
5.300000E+03	2.234030E-17	1.011352E-18
5.310000E+03	2.224032E-17	1.009966E-18
5.320000E+03	2.213344E-17	1.008249E-18
5.330000E+03	2.201987E-17	1.006204E-18
5.340000E+03	2.189960E-17	1.003826E-18
5.350000E+03	2.177307E-17	1.001131E-18
5.360000E+03	2.164052E-17	9.981229E-19
5.370000E+03	2.150225E-17	9.948120E-19
5.380000E+03	2.135831E-17	9.911962E-19
5.390000E+03	2.120944E-17	9.873056E-19
5.400000E+03	2.105580E-17	9.831432E-19
5.410000E+03	2.089813E-17	9.787405E-19
5.420000E+03	2.073662E-17	9.741031E-19
5.430000E+03	2.057188E-17	9.692561E-19
5.440000E+03	2.040432E-17	9.642168E-19
5.450000E+03	2.023480E-17	9.590228E-19
5.460000E+03	2.006353E-17	9.536824E-19
5.470000E+03	1.989077E-17	9.482066E-19
5.480000E+03	1.971662E-17	9.425975E-19
5.490000E+03	1.954156E-17	9.368777E-19
5.500000E+03	1.936571E-17	9.310514E-19
5.510000E+03	1.918939E-17	9.251333E-19
5.520000E+03	1.901298E-17	9.191401E-19
5.530000E+03	1.883678E-17	9.130867E-19
5.540000E+03	1.866115E-17	9.069895E-19
5.550000E+03	1.848660E-17	9.008740E-19
5.560000E+03	1.831345E-17	8.947554E-19
5.570000E+03	1.814240E-17	8.886677E-19
5.580000E+03	1.797355E-17	8.826175E-19
5.590000E+03	1.780774E-17	8.766464E-19
5.600000E+03	1.764504E-17	8.707588E-19
5.610000E+03	1.748606E-17	8.649859E-19
5.620000E+03	1.733136E-17	8.593568E-19
5.630000E+03	1.718091E-17	8.538715E-19
5.640000E+03	1.703555E-17	8.485735E-19
5.650000E+03	1.689538E-17	8.434698E-19
5.660000E+03	1.676045E-17	8.385640E-19
5.670000E+03	1.663146E-17	8.338938E-19
5.680000E+03	1.650825E-17	8.294529E-19
5.690000E+03	1.639110E-17	8.252574E-19
5.700000E+03	1.628030E-17	8.213239E-19
5.710000E+03	1.617591E-17	8.176573E-19
5.720000E+03	1.607799E-17	8.142626E-19
5.730000E+03	1.598655E-17	8.111430E-19
5.740000E+03	1.590179E-17	8.083099E-19
5.750000E+03	1.582387E-17	8.057736E-19
5.760000E+03	1.575246E-17	8.035192E-19
5.770000E+03	1.568805E-17	8.015732E-19
5.780000E+03	1.563031E-17	7.999214E-19
5.790000E+03	1.557961E-17	7.985830E-19
5.800000E+03	1.553578E-17	7.975525E-19
5.810000E+03	1.549904E-17	7.968416E-19
5.820000E+03	1.546939E-17	7.964522E-19
5.830000E+03	1.544703E-17	7.963961E-19
5.840000E+03	1.543181E-17	7.966671E-19
5.850000E+03	1.542375E-17	7.972672E-19
5.860000E+03	1.542304E-17	7.982076E-19
5.870000E+03	1.542984E-17	7.994974E-19
5.880000E+03	1.544383E-17	8.011213E-19
5.890000E+03	1.546533E-17	8.030968E-19
5.900000E+03	1.549419E-17	8.054168E-19
5.910000E+03	1.553058E-17	8.080912E-19
5.920000E+03	1.557452E-17	8.111212E-19
5.930000E+03	1.562582E-17	8.144974E-19
5.940000E+03	1.568463E-17	8.182283E-19
5.950000E+03	1.575093E-17	8.223134E-19
5.960000E+03	1.582454E-17	8.267429E-19
5.970000E+03	1.590575E-17	8.315323E-19
5.980000E+03	1.599418E-17	8.366615E-19
5.990000E+03	1.608995E-17	8.421366E-19
6.000000E+03	1.619301E-17	8.479547E-19
6.010000E+03	1.630309E-17	8.541016E-19
6.020000E+03	1.642032E-17	8.605829E-19
6.030000E+03	1.654420E-17	8.673725E-19
6.040000E+03	1.667504E-17	8.744856E-19
6.050000E+03	1.681233E-17	8.818941E-19
6.060000E+03	1.695612E-17	8.896007E-19
6.070000E+03	1.710609E-17	8.975864E-19
6.080000E+03	1.726207E-17	9.058419E-19
6.090000E+03	1.742369E-17	9.143456E-19
6.100000E+03	1.759052E-17	9.230749E-19
6.110000E+03	1.776257E-17	9.320276E-19
6.120000E+03	1.793897E-17	9.411571E-19
6.130000E+03	1.811965E-17	9.504582E-19
6.140000E+03	1.830390E-17	9.598918E-19
6.150000E+03	1.849141E-17	9.694398E-19
6.160000E+03	1.868091E-17	9.790347E-19
6.170000E+03	1.887225E-17	9.886663E-19
6.180000E+03	1.906434E-17	9.982756E-19
6.190000E+03	1.925645E-17	1.007824E-18
6.200000E+03	1.944770E-17	1.017262E-18
6.210000E+03	1.963824E-17	1.026598E-18
6.220000E+03	1.982853E-17	1.035853E-18
6.230000E+03	2.001903E-17	1.045051E-18
6.240000E+03	2.021027E-17	1.054217E-18
6.250000E+03	2.040200E-17	1.063337E-18
6.260000E+03	2.059536E-17	1.072468E-18
6.270000E+03	2.078986E-17	1.081584E-18
6.280000E+03	2.098616E-17	1.090717E-18
6.290000E+03	2.118464E-17	1.099884E-18
6.300000E+03	2.138490E-17	1.109063E-18
6.310000E+03	2.158736E-17	1.118274E-18
6.320000E+03	2.179217E-17	1.127522E-18
6.330000E+03	2.199952E-17	1.136815E-18
6.340000E+03	2.220902E-17	1.146129E-18
6.350000E+03	2.242083E-17	1.155472E-18
6.360000E+03	2.263488E-17	1.164837E-18
6.370000E+03	2.285106E-17	1.174217E-18
6.380000E+03	2.306895E-17	1.183587E-18
6.390000E+03	2.328814E-17	1.192924E-18
6.400000E+03	2.350817E-17	1.202203E-18
6.410000E+03	2.372892E-17	1.211415E-18
6.420000E+03	2.394993E-17	1.220535E-18
6.430000E+03	2.416999E-17	1.229500E-18
6.440000E+03	2.439002E-17	1.238355E-18
6.450000E+03	2.460988E-17	1.247090E-18
6.460000E+03	2.482982E-17	1.255717E-18
6.470000E+03	2.505045E-17	1.264266E-18
6.480000E+03	2.527137E-17	1.272713E-18
6.490000E+03	2.549325E-17	1.281091E-18
6.500000E+03	2.571606E-17	1.289396E-18
6.510000E+03	2.594014E-17	1.297644E-18
6.520000E+03	2.616469E-17	1.305792E-18
6.530000E+03	2.639088E-17	1.313897E-18
6.540000E+03	2.661788E-17	1.321915E-18
6.550000E+03	2.684611E-17	1.329866E-18
6.560000E+03	2.707556E-17	1.337747E-18
6.570000E+03	2.730578E-17	1.345535E-18
6.580000E+03	2.753724E-17	1.353248E-18
6.590000E+03	2.776992E-17	1.360887E-18
6.600000E+03	2.800342E-17	1.368428E-18
6.610000E+03	2.823774E-17	1.375871E-18
6.620000E+03	2.847290E-17	1.383214E-18
6.630000E+03	2.870940E-17	1.390480E-18
6.640000E+03	2.894633E-17	1.397623E-18
6.650000E+03	2.918417E-17	1.404665E-18
6.660000E+03	2.942294E-17	1.411606E-18
6.670000E+03	2.966221E-17	1.418422E-18
6.680000E+03	2.990245E-17	1.425137E-18
6.690000E+03	3.014321E-17	1.431726E-18
6.700000E+03	3.038502E-17	1.438213E-18
6.710000E+03	3.062685E-17	1.444549E-18
6.720000E+03	3.086925E-17	1.450758E-18
6.730000E+03	3.111280E-17	1.456867E-18
6.740000E+03	3.135644E-17	1.462825E-18
6.750000E+03	3.160074E-17	1.468658E-18
6.760000E+03	3.184520E-17	1.474343E-18
6.770000E+03	3.209041E-17	1.479904E-18
6.780000E+03	3.233586E-17	1.485319E-18
6.790000E+03	3.258158E-17	1.490588E-18
6.800000E+03	3.282819E-17	1.495740E-18
6.810000E+03	3.307458E-17	1.500724E-18
6.820000E+03	3.332200E-17	1.505595E-18
6.830000E+03	3.356930E-17	1.510302E-18
6.840000E+03	3.381773E-17	1.514902E-18
6.850000E+03	3.406611E-17	1.519341E-18
6.860000E+03	3.431448E-17	1.523622E-18
6.870000E+03	3.456349E-17	1.527774E-18
6.880000E+03	3.481317E-17	1.531798E-18
6.890000E+03	3.506226E-17	1.535641E-18
6.900000E+03	3.531205E-17	1.539359E-18
6.910000E+03	3.556192E-17	1.542927E-18
6.920000E+03	3.581254E-17	1.546375E-18
6.930000E+03	3.606255E-17	1.549645E-18
6.940000E+03	3.631263E-17	1.552768E-18
6.950000E+03	3.656277E-17	1.555747E-18
6.960000E+03	3.681225E-17	1.558551E-18
6.970000E+03	3.706176E-17	1.561214E-18
6.980000E+03	3.731128E-17	1.563736E-18
6.990000E+03	3.756009E-17	1.566090E-18
7.000000E+03	3.780817E-17	1.568278E-18
7.010000E+03	3.805547E-17	1.570302E-18
7.020000E+03	3.830274E-17	1.572197E-18
7.030000E+03	3.854846E-17	1.573904E-18
7.040000E+03	3.879415E-17	1.575488E-18
7.050000E+03	3.903827E-17	1.576892E-18
7.060000E+03	3.928159E-17	1.578152E-18
7.070000E+03	3.952331E-17	1.579241E-18
7.080000E+03	3.976422E-17	1.580196E-18
7.090000E+03	4.000434E-17	1.581023E-18
7.100000E+03	4.024288E-17	1.581698E-18
7.110000E+03	4.047904E-17	1.582193E-18
7.120000E+03	4.071444E-17	1.582582E-18
7.130000E+03	4.094832E-17	1.582839E-18
7.140000E+03	4.118067E-17	1.582973E-18
7.150000E+03	4.141152E-17	1.582993E-18
7.160000E+03	4.164007E-17	1.582875E-18
7.170000E+03	4.186715E-17	1.582660E-18
7.180000E+03	4.209195E-17	1.582325E-18
7.190000E+03	4.231447E-17	1.581881E-18
7.200000E+03	4.253563E-17	1.581371E-18
7.210000E+03	4.275462E-17	1.580774E-18
7.220000E+03	4.297234E-17	1.580134E-18
7.230000E+03	4.318703E-17	1.579397E-18
7.240000E+03	4.339964E-17	1.578608E-18
7.250000E+03	4.361016E-17	1.577778E-18
7.260000E+03	4.381861E-17	1.576919E-18
7.270000E+03	4.402498E-17	1.576042E-18
7.280000E+03	4.422922E-17	1.575159E-18
7.290000E+03	4.443034E-17	1.574245E-18
7.300000E+03	4.462921E-17	1.573346E-18
7.310000E+03	4.482575E-17	1.572470E-18
7.320000E+03	4.501988E-17	1.571630E-18
7.330000E+03	4.521052E-17	1.570800E-18
7.340000E+03	4.539856E-17	1.570026E-18
7.350000E+03	4.558492E-17	1.569355E-18
7.360000E+03	4.576756E-17	1.568729E-18
7.370000E+03	4.594739E-17	1.568195E-18
7.380000E+03	4.612437E-17	1.567766E-18
7.390000E+03	4.629946E-17	1.567491E-18
7.400000E+03	4.647164E-17	1.567349E-18
7.410000E+03	4.664194E-17	1.567390E-18
7.420000E+03	4.681144E-17	1.567665E-18
7.430000E+03	4.697919E-17	1.568157E-18
7.440000E+03	4.714745E-17	1.568956E-18
7.450000E+03	4.731422E-17	1.570011E-18
7.460000E+03	4.748081E-17	1.571380E-18
7.470000E+03	4.764636E-17	1.573048E-18
7.480000E+03	4.781221E-17	1.575075E-18
7.490000E+03	4.797651E-17	1.577415E-18
7.500000E+03	4.814066E-17	1.580127E-18
7.510000E+03	4.830502E-17	1.583239E-18
7.520000E+03	4.846862E-17	1.586731E-18
7.530000E+03	4.863351E-17	1.590686E-18
7.540000E+03	4.879723E-17	1.595037E-18
7.550000E+03	4.896078E-17	1.599829E-18
7.560000E+03	4.912294E-17	1.605035E-18
7.570000E+03	4.928477E-17	1.610697E-18
7.580000E+03	4.944509E-17	1.616772E-18
7.590000E+03	4.960507E-17	1.623297E-18
7.600000E+03	4.976349E-17	1.630229E-18
7.610000E+03	4.992031E-17	1.637562E-18
7.620000E+03	5.007668E-17	1.645330E-18
7.630000E+03	5.023132E-17	1.653486E-18
7.640000E+03	5.038413E-17	1.662022E-18
7.650000E+03	5.053625E-17	1.670970E-18
7.660000E+03	5.068633E-17	1.680277E-18
7.670000E+03	5.083545E-17	1.689975E-18
7.680000E+03	5.098097E-17	1.699968E-18
7.690000E+03	5.112521E-17	1.710325E-18
7.700000E+03	5.126803E-17	1.721035E-18
7.710000E+03	5.140795E-17	1.732039E-18
7.720000E+03	5.154610E-17	1.743367E-18
7.730000E+03	5.168103E-17	1.754961E-18
7.740000E+03	5.181260E-17	1.766808E-18
7.750000E+03	5.194192E-17	1.778935E-18
7.760000E+03	5.206884E-17	1.791328E-18
