#wls	flux	fluxerr
1.600000E+03	2.826372E-16	6.913936E-17
1.640000E+03	2.908521E-16	7.114762E-17
1.680000E+03	2.985323E-16	7.302493E-17
1.720000E+03	3.056193E-16	7.475695E-17
1.760000E+03	3.119288E-16	7.629861E-17
1.800000E+03	3.174486E-16	7.764692E-17
1.840000E+03	3.219880E-16	7.875525E-17
1.880000E+03	3.254998E-16	7.961207E-17
1.920000E+03	3.278794E-16	8.019180E-17
1.960000E+03	3.289754E-16	8.045740E-17
2.000000E+03	3.287512E-16	8.039997E-17
2.040000E+03	3.271043E-16	7.999449E-17
2.080000E+03	3.239533E-16	7.922103E-17
2.120000E+03	3.192426E-16	7.806609E-17
2.160000E+03	3.129072E-16	7.651376E-17
2.200000E+03	3.048518E-16	7.454086E-17
2.240000E+03	2.949983E-16	7.212831E-17
2.280000E+03	2.834021E-16	6.928972E-17
2.320000E+03	2.703010E-16	6.608333E-17
2.360000E+03	2.560958E-16	6.260717E-17
2.400000E+03	2.411058E-16	5.893937E-17
2.440000E+03	2.256196E-16	5.515054E-17
2.480000E+03	2.098462E-16	5.129180E-17
2.520000E+03	1.940026E-16	4.741622E-17
2.560000E+03	1.782637E-16	4.356658E-17
2.600000E+03	1.628077E-16	3.978648E-17
2.640000E+03	1.477772E-16	3.611075E-17
2.680000E+03	1.333031E-16	3.257140E-17
2.720000E+03	1.195015E-16	2.919679E-17
2.760000E+03	1.064604E-16	2.600841E-17
2.800000E+03	9.425392E-17	2.302436E-17
2.840000E+03	8.293662E-17	2.025793E-17
2.880000E+03	7.254901E-17	1.771901E-17
2.920000E+03	6.311597E-17	1.541361E-17
2.960000E+03	5.464195E-17	1.334280E-17
3.000000E+03	4.711233E-17	1.150294E-17
3.010000E+03	4.537368E-17	1.107813E-17
3.020000E+03	4.369030E-17	1.066683E-17
3.030000E+03	4.206307E-17	1.026926E-17
3.040000E+03	4.048889E-17	9.884660E-18
3.050000E+03	3.896845E-17	9.513199E-18
3.060000E+03	3.750044E-17	9.154556E-18
3.070000E+03	3.608440E-17	8.808617E-18
3.080000E+03	3.471746E-17	8.474684E-18
3.090000E+03	3.340061E-17	8.152991E-18
3.100000E+03	3.213108E-17	7.842868E-18
3.110000E+03	3.090892E-17	7.544322E-18
3.120000E+03	2.973277E-17	7.257021E-18
3.130000E+03	2.860069E-17	6.980495E-18
3.140000E+03	2.751257E-17	6.714709E-18
3.150000E+03	2.646652E-17	6.459206E-18
3.160000E+03	2.546176E-17	6.213794E-18
3.170000E+03	2.449702E-17	5.978162E-18
3.180000E+03	2.357102E-17	5.751998E-18
3.190000E+03	2.268297E-17	5.535106E-18
3.200000E+03	2.183160E-17	5.327179E-18
3.210000E+03	2.101538E-17	5.127839E-18
3.220000E+03	2.023383E-17	4.936970E-18
3.230000E+03	1.948545E-17	4.754207E-18
3.240000E+03	1.876947E-17	4.579358E-18
3.250000E+03	1.808471E-17	4.412138E-18
3.260000E+03	1.742983E-17	4.252216E-18
3.270000E+03	1.680433E-17	4.099472E-18
3.280000E+03	1.620662E-17	3.953518E-18
3.290000E+03	1.563619E-17	3.814225E-18
3.300000E+03	1.509200E-17	3.681343E-18
3.310000E+03	1.457261E-17	3.554519E-18
3.320000E+03	1.407751E-17	3.433627E-18
3.330000E+03	1.360574E-17	3.318434E-18
3.340000E+03	1.315617E-17	3.208663E-18
3.350000E+03	1.272794E-17	3.104101E-18
3.360000E+03	1.232016E-17	3.004536E-18
3.370000E+03	1.193202E-17	2.909766E-18
3.380000E+03	1.156271E-17	2.819593E-18
3.390000E+03	1.121143E-17	2.733824E-18
3.400000E+03	1.087729E-17	2.652240E-18
3.410000E+03	1.055944E-17	2.574634E-18
3.420000E+03	1.025747E-17	2.500904E-18
3.430000E+03	9.970325E-18	2.430793E-18
3.440000E+03	9.697507E-18	2.364181E-18
3.450000E+03	9.438299E-18	2.300891E-18
3.460000E+03	9.192135E-18	2.240785E-18
3.470000E+03	8.958255E-18	2.183678E-18
3.480000E+03	8.736057E-18	2.129422E-18
3.490000E+03	8.525075E-18	2.077904E-18
3.500000E+03	8.324663E-18	2.028966E-18
3.510000E+03	8.134409E-18	1.982507E-18
3.520000E+03	7.953567E-18	1.938345E-18
3.530000E+03	7.781787E-18	1.896395E-18
3.540000E+03	7.618494E-18	1.856516E-18
3.550000E+03	7.463231E-18	1.818596E-18
3.560000E+03	7.315573E-18	1.782533E-18
3.570000E+03	7.174973E-18	1.748191E-18
3.580000E+03	7.041217E-18	1.715520E-18
3.590000E+03	6.913885E-18	1.684416E-18
3.600000E+03	6.792583E-18	1.654783E-18
3.610000E+03	6.677148E-18	1.626582E-18
3.620000E+03	6.567160E-18	1.599709E-18
3.630000E+03	6.462353E-18	1.574101E-18
3.640000E+03	6.362476E-18	1.549695E-18
3.650000E+03	6.267291E-18	1.526433E-18
3.660000E+03	6.176572E-18	1.504261E-18
3.670000E+03	6.090108E-18	1.483127E-18
3.680000E+03	6.007746E-18	1.462993E-18
3.690000E+03	5.929342E-18	1.443825E-18
3.700000E+03	5.854702E-18	1.425574E-18
3.710000E+03	5.783844E-18	1.408245E-18
3.720000E+03	5.716527E-18	1.391780E-18
3.730000E+03	5.652718E-18	1.376169E-18
3.740000E+03	5.592284E-18	1.361382E-18
3.750000E+03	5.535142E-18	1.347396E-18
3.760000E+03	5.481302E-18	1.334216E-18
3.770000E+03	5.430539E-18	1.321785E-18
3.780000E+03	5.382861E-18	1.310105E-18
3.790000E+03	5.338229E-18	1.299168E-18
3.800000E+03	5.296470E-18	1.288931E-18
3.810000E+03	5.257588E-18	1.279393E-18
3.820000E+03	5.221544E-18	1.270548E-18
3.830000E+03	5.188211E-18	1.262362E-18
3.840000E+03	5.157508E-18	1.254816E-18
3.850000E+03	5.129481E-18	1.247921E-18
3.860000E+03	5.103963E-18	1.241637E-18
3.870000E+03	5.080959E-18	1.235965E-18
3.880000E+03	5.060391E-18	1.230885E-18
3.890000E+03	5.042222E-18	1.226389E-18
3.900000E+03	5.026415E-18	1.222467E-18
3.910000E+03	5.012858E-18	1.219092E-18
3.920000E+03	5.001514E-18	1.216255E-18
3.930000E+03	4.992391E-18	1.213958E-18
3.940000E+03	4.985419E-18	1.212183E-18
3.950000E+03	4.980525E-18	1.210913E-18
3.960000E+03	4.977680E-18	1.210141E-18
3.970000E+03	4.976819E-18	1.209850E-18
3.980000E+03	4.977913E-18	1.210034E-18
3.990000E+03	4.980938E-18	1.210686E-18
4.000000E+03	4.985866E-18	1.211801E-18
4.010000E+03	4.992598E-18	1.213353E-18
4.020000E+03	5.001112E-18	1.215337E-18
4.030000E+03	5.011388E-18	1.217748E-18
4.040000E+03	5.023405E-18	1.220581E-18
4.050000E+03	5.037109E-18	1.223822E-18
4.060000E+03	5.052442E-18	1.227459E-18
4.070000E+03	5.069390E-18	1.231486E-18
4.080000E+03	5.087900E-18	1.235891E-18
4.090000E+03	5.107957E-18	1.240671E-18
4.100000E+03	5.129512E-18	1.245813E-18
4.110000E+03	5.152552E-18	1.251314E-18
4.120000E+03	5.177030E-18	1.257163E-18
4.130000E+03	5.202894E-18	1.263346E-18
4.140000E+03	5.230137E-18	1.269863E-18
4.150000E+03	5.258711E-18	1.276701E-18
4.160000E+03	5.288609E-18	1.283858E-18
4.170000E+03	5.319745E-18	1.291314E-18
4.180000E+03	5.352113E-18	1.299067E-18
4.190000E+03	5.385626E-18	1.307095E-18
4.200000E+03	5.420322E-18	1.315408E-18
4.210000E+03	5.456115E-18	1.323986E-18
4.220000E+03	5.493001E-18	1.332826E-18
4.230000E+03	5.530851E-18	1.341898E-18
4.240000E+03	5.569706E-18	1.351211E-18
4.250000E+03	5.609435E-18	1.360734E-18
4.260000E+03	5.650076E-18	1.370475E-18
4.270000E+03	5.691500E-18	1.380403E-18
4.280000E+03	5.733613E-18	1.390496E-18
4.290000E+03	5.776456E-18	1.400763E-18
4.300000E+03	5.819850E-18	1.411161E-18
4.310000E+03	5.863834E-18	1.421699E-18
4.320000E+03	5.908223E-18	1.432333E-18
4.330000E+03	5.953059E-18	1.443071E-18
4.340000E+03	5.998247E-18	1.453892E-18
4.350000E+03	6.043685E-18	1.464771E-18
4.360000E+03	6.089372E-18	1.475706E-18
4.370000E+03	6.135253E-18	1.486686E-18
4.380000E+03	6.181377E-18	1.497721E-18
4.390000E+03	6.227642E-18	1.508787E-18
4.400000E+03	6.274147E-18	1.519908E-18
4.410000E+03	6.320896E-18	1.531085E-18
4.420000E+03	6.367890E-18	1.542318E-18
4.430000E+03	6.415135E-18	1.553608E-18
4.440000E+03	6.462693E-18	1.564970E-18
4.450000E+03	6.510515E-18	1.576393E-18
4.460000E+03	6.558669E-18	1.587893E-18
4.470000E+03	6.607167E-18	1.599472E-18
4.480000E+03	6.656019E-18	1.611133E-18
4.490000E+03	6.705188E-18	1.622867E-18
4.500000E+03	6.754686E-18	1.634677E-18
4.510000E+03	6.804475E-18	1.646554E-18
4.520000E+03	6.854624E-18	1.658514E-18
4.530000E+03	6.905038E-18	1.670534E-18
4.540000E+03	6.955731E-18	1.682618E-18
4.550000E+03	7.006725E-18	1.694770E-18
4.560000E+03	7.057916E-18	1.706966E-18
4.570000E+03	7.109384E-18	1.719225E-18
4.580000E+03	7.161032E-18	1.731522E-18
4.590000E+03	7.212879E-18	1.743864E-18
4.600000E+03	7.264827E-18	1.756226E-18
4.610000E+03	7.316964E-18	1.768629E-18
4.620000E+03	7.369254E-18	1.781065E-18
4.630000E+03	7.421604E-18	1.793511E-18
4.640000E+03	7.474043E-18	1.805974E-18
4.650000E+03	7.526608E-18	1.818463E-18
4.660000E+03	7.579275E-18	1.830971E-18
4.670000E+03	7.631948E-18	1.843477E-18
4.680000E+03	7.684813E-18	1.856024E-18
4.690000E+03	7.737915E-18	1.868623E-18
4.700000E+03	7.791177E-18	1.881257E-18
4.710000E+03	7.844653E-18	1.893937E-18
4.720000E+03	7.898408E-18	1.906679E-18
4.730000E+03	7.952288E-18	1.919447E-18
4.740000E+03	8.006365E-18	1.932257E-18
4.750000E+03	8.060557E-18	1.945090E-18
4.760000E+03	8.114935E-18	1.957962E-18
4.770000E+03	8.169501E-18	1.970875E-18
4.780000E+03	8.224179E-18	1.983809E-18
4.790000E+03	8.279049E-18	1.996784E-18
4.800000E+03	8.334037E-18	2.009783E-18
4.810000E+03	8.389223E-18	2.022823E-18
4.820000E+03	8.444539E-18	2.035889E-18
4.830000E+03	8.499988E-18	2.048982E-18
4.840000E+03	8.555577E-18	2.062103E-18
4.850000E+03	8.611394E-18	2.075273E-18
4.860000E+03	8.667363E-18	2.088474E-18
4.870000E+03	8.723494E-18	2.101707E-18
4.880000E+03	8.779708E-18	2.114955E-18
4.890000E+03	8.836172E-18	2.128258E-18
4.900000E+03	8.892810E-18	2.141596E-18
4.910000E+03	8.949623E-18	2.154970E-18
4.920000E+03	9.006526E-18	2.168359E-18
4.930000E+03	9.063603E-18	2.181784E-18
4.940000E+03	9.120762E-18	2.195223E-18
4.950000E+03	9.178000E-18	2.208674E-18
4.960000E+03	9.235397E-18	2.222156E-18
4.970000E+03	9.292854E-18	2.235647E-18
4.980000E+03	9.350362E-18	2.249144E-18
4.990000E+03	9.407818E-18	2.262621E-18
5.000000E+03	9.465296E-18	2.276097E-18
5.010000E+03	9.522779E-18	2.289567E-18
5.020000E+03	9.580159E-18	2.303005E-18
5.030000E+03	9.637412E-18	2.316406E-18
5.040000E+03	9.694516E-18	2.329765E-18
5.050000E+03	9.751355E-18	2.343053E-18
5.060000E+03	9.807995E-18	2.356285E-18
5.070000E+03	9.864411E-18	2.369457E-18
5.080000E+03	9.920384E-18	2.382516E-18
5.090000E+03	9.975983E-18	2.395477E-18
5.100000E+03	1.003118E-17	2.408334E-18
5.110000E+03	1.008585E-17	2.421058E-18
5.120000E+03	1.013996E-17	2.433641E-18
5.130000E+03	1.019349E-17	2.446077E-18
5.140000E+03	1.024640E-17	2.458358E-18
5.150000E+03	1.029858E-17	2.470453E-18
5.160000E+03	1.035007E-17	2.482378E-18
5.170000E+03	1.040065E-17	2.494077E-18
5.180000E+03	1.045038E-17	2.505565E-18
5.190000E+03	1.049911E-17	2.516806E-18
5.200000E+03	1.054680E-17	2.527790E-18
5.210000E+03	1.059338E-17	2.538503E-18
5.220000E+03	1.063882E-17	2.548932E-18
5.230000E+03	1.068282E-17	2.559011E-18
5.240000E+03	1.072552E-17	2.568773E-18
5.250000E+03	1.076676E-17	2.578175E-18
5.260000E+03	1.080644E-17	2.587198E-18
5.270000E+03	1.084438E-17	2.595797E-18
5.280000E+03	1.088048E-17	2.603951E-18
5.290000E+03	1.091466E-17	2.611637E-18
5.300000E+03	1.094683E-17	2.618837E-18
5.310000E+03	1.097691E-17	2.625528E-18
5.320000E+03	1.100469E-17	2.631667E-18
5.330000E+03	1.103033E-17	2.637285E-18
5.340000E+03	1.105353E-17	2.642314E-18
5.350000E+03	1.107422E-17	2.646739E-18
5.360000E+03	1.109257E-17	2.650597E-18
5.370000E+03	1.110830E-17	2.653827E-18
5.380000E+03	1.112160E-17	2.656469E-18
5.390000E+03	1.113233E-17	2.658492E-18
5.400000E+03	1.114057E-17	2.659916E-18
5.410000E+03	1.114619E-17	2.660711E-18
5.420000E+03	1.114942E-17	2.660931E-18
5.430000E+03	1.115015E-17	2.660551E-18
5.440000E+03	1.114851E-17	2.659600E-18
5.450000E+03	1.114429E-17	2.658032E-18
5.460000E+03	1.113765E-17	2.655881E-18
5.470000E+03	1.112850E-17	2.653132E-18
5.480000E+03	1.111680E-17	2.649771E-18
5.490000E+03	1.110272E-17	2.645838E-18
5.500000E+03	1.108609E-17	2.641297E-18
5.510000E+03	1.106688E-17	2.636139E-18
5.520000E+03	1.104517E-17	2.630384E-18
5.530000E+03	1.102083E-17	2.624000E-18
5.540000E+03	1.099405E-17	2.617036E-18
5.550000E+03	1.096461E-17	2.609436E-18
5.560000E+03	1.093282E-17	2.601277E-18
5.570000E+03	1.089867E-17	2.592557E-18
5.580000E+03	1.086216E-17	2.583274E-18
5.590000E+03	1.082338E-17	2.573453E-18
5.600000E+03	1.078245E-17	2.563120E-18
5.610000E+03	1.073935E-17	2.552272E-18
5.620000E+03	1.069441E-17	2.540987E-18
5.630000E+03	1.064749E-17	2.529235E-18
5.640000E+03	1.059893E-17	2.517092E-18
5.650000E+03	1.054858E-17	2.504529E-18
5.660000E+03	1.049676E-17	2.491618E-18
5.670000E+03	1.044356E-17	2.478381E-18
5.680000E+03	1.038896E-17	2.464813E-18
5.690000E+03	1.033314E-17	2.450959E-18
5.700000E+03	1.027618E-17	2.436838E-18
5.710000E+03	1.021827E-17	2.422495E-18
5.720000E+03	1.015949E-17	2.407949E-18
5.730000E+03	1.009981E-17	2.393191E-18
5.740000E+03	1.003951E-17	2.378290E-18
5.750000E+03	9.978665E-18	2.363265E-18
5.760000E+03	9.917249E-18	2.348107E-18
5.770000E+03	9.855441E-18	2.332860E-18
5.780000E+03	9.793421E-18	2.317567E-18
5.790000E+03	9.731264E-18	2.302246E-18
5.800000E+03	9.668946E-18	2.286891E-18
5.810000E+03	9.606650E-18	2.271545E-18
5.820000E+03	9.544558E-18	2.256251E-18
5.830000E+03	9.482754E-18	2.241030E-18
5.840000E+03	9.421218E-18	2.225876E-18
5.850000E+03	9.360136E-18	2.210833E-18
5.860000E+03	9.299593E-18	2.195922E-18
5.870000E+03	9.239775E-18	2.181187E-18
5.880000E+03	9.180768E-18	2.166647E-18
5.890000E+03	9.122555E-18	2.152298E-18
5.900000E+03	9.065317E-18	2.138184E-18
5.910000E+03	9.009036E-18	2.124299E-18
5.920000E+03	8.954089E-18	2.110733E-18
5.930000E+03	8.900247E-18	2.097431E-18
5.940000E+03	8.847683E-18	2.084434E-18
5.950000E+03	8.796561E-18	2.071780E-18
5.960000E+03	8.746840E-18	2.059459E-18
5.970000E+03	8.698577E-18	2.047485E-18
5.980000E+03	8.651921E-18	2.035892E-18
5.990000E+03	8.606819E-18	2.024668E-18
6.000000E+03	8.563412E-18	2.013845E-18
6.010000E+03	8.521539E-18	2.003385E-18
6.020000E+03	8.481429E-18	1.993342E-18
6.030000E+03	8.442913E-18	1.983676E-18
6.040000E+03	8.406213E-18	1.974439E-18
6.050000E+03	8.371052E-18	1.965564E-18
6.060000E+03	8.337646E-18	1.957104E-18
6.070000E+03	8.305909E-18	1.949036E-18
6.080000E+03	8.275850E-18	1.941363E-18
6.090000E+03	8.247278E-18	1.934040E-18
6.100000E+03	8.220394E-18	1.927113E-18
6.110000E+03	8.194902E-18	1.920512E-18
6.120000E+03	8.170997E-18	1.914285E-18
6.130000E+03	8.148376E-18	1.908357E-18
6.140000E+03	8.127031E-18	1.902729E-18
6.150000E+03	8.106850E-18	1.897373E-18
6.160000E+03	8.087819E-18	1.892286E-18
6.170000E+03	8.069617E-18	1.887391E-18
6.180000E+03	8.052222E-18	1.882685E-18
6.190000E+03	8.035509E-18	1.878137E-18
6.200000E+03	8.019446E-18	1.873741E-18
6.210000E+03	8.004004E-18	1.869488E-18
6.220000E+03	7.989351E-18	1.865419E-18
6.230000E+03	7.975764E-18	1.861598E-18
6.240000E+03	7.963313E-18	1.858040E-18
6.250000E+03	7.952174E-18	1.854786E-18
6.260000E+03	7.942526E-18	1.851879E-18
6.270000E+03	7.934449E-18	1.849335E-18
6.280000E+03	7.928125E-18	1.847198E-18
6.290000E+03	7.923641E-18	1.845487E-18
6.300000E+03	7.921083E-18	1.844222E-18
6.310000E+03	7.920647E-18	1.843447E-18
6.320000E+03	7.922323E-18	1.843161E-18
6.330000E+03	7.926315E-18	1.843409E-18
6.340000E+03	7.932507E-18	1.844164E-18
6.350000E+03	7.941003E-18	1.845450E-18
6.360000E+03	7.951798E-18	1.847265E-18
6.370000E+03	7.965003E-18	1.849634E-18
6.380000E+03	7.980506E-18	1.852531E-18
6.390000E+03	7.998308E-18	1.855955E-18
6.400000E+03	8.018296E-18	1.859879E-18
6.410000E+03	8.040233E-18	1.864248E-18
6.420000E+03	8.064001E-18	1.869033E-18
6.430000E+03	8.089591E-18	1.874233E-18
6.440000E+03	8.116995E-18	1.879844E-18
6.450000E+03	8.146209E-18	1.885866E-18
6.460000E+03	8.177349E-18	1.892325E-18
6.470000E+03	8.210539E-18	1.899248E-18
6.480000E+03	8.245781E-18	1.906636E-18
6.490000E+03	8.282955E-18	1.914460E-18
6.500000E+03	8.322315E-18	1.922778E-18
6.510000E+03	8.363875E-18	1.931594E-18
6.520000E+03	8.407516E-18	1.940878E-18
6.530000E+03	8.453376E-18	1.950662E-18
6.540000E+03	8.501472E-18	1.960949E-18
6.550000E+03	8.551684E-18	1.971711E-18
6.560000E+03	8.604022E-18	1.982949E-18
6.570000E+03	8.658777E-18	1.994731E-18
6.580000E+03	8.715553E-18	2.006963E-18
6.590000E+03	8.774641E-18	2.019712E-18
6.600000E+03	8.836064E-18	2.032983E-18
6.610000E+03	8.899550E-18	2.046712E-18
6.620000E+03	8.965409E-18	2.060970E-18
6.630000E+03	9.033364E-18	2.075693E-18
6.640000E+03	9.103731E-18	2.090952E-18
6.650000E+03	9.176229E-18	2.106682E-18
6.660000E+03	9.251026E-18	2.122921E-18
6.670000E+03	9.328148E-18	2.139674E-18
6.680000E+03	9.407455E-18	2.156908E-18
6.690000E+03	9.488966E-18	2.174626E-18
6.700000E+03	9.572859E-18	2.192870E-18
6.710000E+03	9.658994E-18	2.211605E-18
6.720000E+03	9.747394E-18	2.230837E-18
6.730000E+03	9.838075E-18	2.250567E-18
6.740000E+03	9.931061E-18	2.270802E-18
6.750000E+03	1.002637E-17	2.291544E-18
6.760000E+03	1.012403E-17	2.312798E-18
6.770000E+03	1.022388E-17	2.334527E-18
6.780000E+03	1.032613E-17	2.356777E-18
6.790000E+03	1.043079E-17	2.379551E-18
6.800000E+03	1.053770E-17	2.402813E-18
6.810000E+03	1.064708E-17	2.426608E-18
6.820000E+03	1.075875E-17	2.450899E-18
6.830000E+03	1.087274E-17	2.475688E-18
6.840000E+03	1.098906E-17	2.500978E-18
6.850000E+03	1.110774E-17	2.526775E-18
6.860000E+03	1.122900E-17	2.553128E-18
6.870000E+03	1.135246E-17	2.579949E-18
6.880000E+03	1.147833E-17	2.607286E-18
6.890000E+03	1.160665E-17	2.635145E-18
6.900000E+03	1.173720E-17	2.663479E-18
6.910000E+03	1.187024E-17	2.692342E-18
6.920000E+03	1.200577E-17	2.721736E-18
6.930000E+03	1.214360E-17	2.751614E-18
6.940000E+03	1.228372E-17	2.781977E-18
6.950000E+03	1.242640E-17	2.812881E-18
6.960000E+03	1.257141E-17	2.844275E-18
6.970000E+03	1.271877E-17	2.876161E-18
6.980000E+03	1.286847E-17	2.908540E-18
6.990000E+03	1.302054E-17	2.941412E-18
7.000000E+03	1.317472E-17	2.974721E-18
7.010000E+03	1.333153E-17	3.008583E-18
7.020000E+03	1.349045E-17	3.042881E-18
7.030000E+03	1.365176E-17	3.077674E-18
7.040000E+03	1.381519E-17	3.112901E-18
7.050000E+03	1.398072E-17	3.148560E-18
7.060000E+03	1.414864E-17	3.184709E-18
7.070000E+03	1.431865E-17	3.221286E-18
7.080000E+03	1.449047E-17	3.258224E-18
7.090000E+03	1.466463E-17	3.295643E-18
7.100000E+03	1.484088E-17	3.333481E-18
7.110000E+03	1.501886E-17	3.371663E-18
7.120000E+03	1.519887E-17	3.410251E-18
7.130000E+03	1.538056E-17	3.449169E-18
7.140000E+03	1.556425E-17	3.488484E-18
7.150000E+03	1.574957E-17	3.528116E-18
7.160000E+03	1.593683E-17	3.568130E-18
7.170000E+03	1.612531E-17	3.608369E-18
7.180000E+03	1.631535E-17	3.648903E-18
7.190000E+03	1.650719E-17	3.689790E-18
7.200000E+03	1.670015E-17	3.730873E-18
7.210000E+03	1.689415E-17	3.772137E-18
7.220000E+03	1.708950E-17	3.813646E-18
7.230000E+03	1.728612E-17	3.855388E-18
7.240000E+03	1.748363E-17	3.897273E-18
7.250000E+03	1.768231E-17	3.939366E-18
7.260000E+03	1.788173E-17	3.981567E-18
7.270000E+03	1.808178E-17	4.023855E-18
7.280000E+03	1.828281E-17	4.066306E-18
7.290000E+03	1.848436E-17	4.108815E-18
7.300000E+03	1.868670E-17	4.151445E-18
7.310000E+03	1.888939E-17	4.194096E-18
7.320000E+03	1.909230E-17	4.236741E-18
7.330000E+03	1.929619E-17	4.279548E-18
7.340000E+03	1.950016E-17	4.322315E-18
7.350000E+03	1.970497E-17	4.365211E-18
7.360000E+03	1.991012E-17	4.408126E-18
7.370000E+03	2.011596E-17	4.451139E-18
7.380000E+03	2.032293E-17	4.494343E-18
7.390000E+03	2.053052E-17	4.537626E-18
7.400000E+03	2.073960E-17	4.581183E-18
7.410000E+03	2.095018E-17	4.625010E-18
7.420000E+03	2.116273E-17	4.669217E-18
7.430000E+03	2.137730E-17	4.713807E-18
7.440000E+03	2.159388E-17	4.758784E-18
7.450000E+03	2.181303E-17	4.804266E-18
7.460000E+03	2.203378E-17	4.850040E-18
7.470000E+03	2.225615E-17	4.896109E-18
7.480000E+03	2.247964E-17	4.942363E-18
7.490000E+03	2.270480E-17	4.988925E-18
7.500000E+03	2.293111E-17	5.035675E-18
7.510000E+03	2.315807E-17	5.082507E-18
7.520000E+03	2.338565E-17	5.129414E-18
7.530000E+03	2.361388E-17	5.176403E-18
7.540000E+03	2.384220E-17	5.223346E-18
7.550000E+03	2.407115E-17	5.270368E-18
7.560000E+03	2.429961E-17	5.317221E-18
7.570000E+03	2.452870E-17	5.364149E-18
7.580000E+03	2.475786E-17	5.411031E-18
7.590000E+03	2.498704E-17	5.457856E-18
7.600000E+03	2.521562E-17	5.504488E-18
7.610000E+03	2.544414E-17	5.551046E-18
7.620000E+03	2.567257E-17	5.597524E-18
7.630000E+03	2.590081E-17	5.643901E-18
7.640000E+03	2.612814E-17	5.690020E-18
7.650000E+03	2.635511E-17	5.736001E-18
7.660000E+03	2.658091E-17	5.781667E-18
7.670000E+03	2.680673E-17	5.827279E-18
7.680000E+03	2.703039E-17	5.872365E-18
7.690000E+03	2.725373E-17	5.917322E-18
7.700000E+03	2.747589E-17	5.961964E-18
7.710000E+03	2.769594E-17	6.006093E-18
7.720000E+03	2.791436E-17	6.049814E-18
7.730000E+03	2.813091E-17	6.093074E-18
7.740000E+03	2.834533E-17	6.135818E-18
7.750000E+03	2.855735E-17	6.177990E-18
7.760000E+03	2.876747E-17	6.219698E-18
