#wls	flux	fluxerr
1.600000E+03	1.250585E-16	9.201935E-18
1.640000E+03	1.292050E-16	9.506894E-18
1.680000E+03	1.332200E-16	9.802161E-18
1.720000E+03	1.370427E-16	1.008327E-17
1.760000E+03	1.406611E-16	1.034932E-17
1.800000E+03	1.440070E-16	1.059532E-17
1.840000E+03	1.470357E-16	1.081797E-17
1.880000E+03	1.497252E-16	1.101565E-17
1.920000E+03	1.520013E-16	1.118291E-17
1.960000E+03	1.538273E-16	1.131704E-17
2.000000E+03	1.551427E-16	1.141360E-17
2.040000E+03	1.559139E-16	1.147011E-17
2.080000E+03	1.560671E-16	1.148115E-17
2.120000E+03	1.555501E-16	1.144289E-17
2.160000E+03	1.543137E-16	1.135170E-17
2.200000E+03	1.522796E-16	1.120183E-17
2.240000E+03	1.493896E-16	1.098901E-17
2.280000E+03	1.456504E-16	1.071372E-17
2.320000E+03	1.411215E-16	1.038035E-17
2.360000E+03	1.359520E-16	9.999873E-18
2.400000E+03	1.302652E-16	9.581362E-18
2.440000E+03	1.241700E-16	9.132832E-18
2.480000E+03	1.177785E-16	8.662521E-18
2.520000E+03	1.111623E-16	8.175702E-18
2.560000E+03	1.044016E-16	7.678280E-18
2.600000E+03	9.756493E-17	7.175289E-18
2.640000E+03	9.072215E-17	6.671873E-18
2.680000E+03	8.393050E-17	6.172240E-18
2.720000E+03	7.724658E-17	5.680553E-18
2.760000E+03	7.072257E-17	5.200649E-18
2.800000E+03	6.440607E-17	4.736028E-18
2.840000E+03	5.834142E-17	4.289950E-18
2.880000E+03	5.257080E-17	3.865515E-18
2.920000E+03	4.713079E-17	3.465412E-18
2.960000E+03	4.205229E-17	3.091911E-18
3.000000E+03	3.735712E-17	2.746614E-18
3.010000E+03	3.624580E-17	2.664886E-18
3.020000E+03	3.515847E-17	2.584923E-18
3.030000E+03	3.409660E-17	2.506833E-18
3.040000E+03	3.305926E-17	2.430547E-18
3.050000E+03	3.204701E-17	2.356108E-18
3.060000E+03	3.106028E-17	2.283546E-18
3.070000E+03	3.009753E-17	2.212748E-18
3.080000E+03	2.916044E-17	2.143836E-18
3.090000E+03	2.824748E-17	2.076701E-18
3.100000E+03	2.735957E-17	2.011408E-18
3.110000E+03	2.649586E-17	1.947894E-18
3.120000E+03	2.565608E-17	1.886142E-18
3.130000E+03	2.484096E-17	1.826203E-18
3.140000E+03	2.404922E-17	1.767983E-18
3.150000E+03	2.328194E-17	1.711563E-18
3.160000E+03	2.253747E-17	1.656820E-18
3.170000E+03	2.181676E-17	1.603825E-18
3.180000E+03	2.111868E-17	1.552494E-18
3.190000E+03	2.044365E-17	1.502859E-18
3.200000E+03	1.979095E-17	1.454866E-18
3.210000E+03	1.916056E-17	1.408513E-18
3.220000E+03	1.855209E-17	1.363773E-18
3.230000E+03	1.796513E-17	1.320614E-18
3.240000E+03	1.739900E-17	1.278987E-18
3.250000E+03	1.685386E-17	1.238904E-18
3.260000E+03	1.632899E-17	1.200312E-18
3.270000E+03	1.582421E-17	1.163197E-18
3.280000E+03	1.533881E-17	1.127507E-18
3.290000E+03	1.487235E-17	1.093210E-18
3.300000E+03	1.442456E-17	1.060286E-18
3.310000E+03	1.399475E-17	1.028684E-18
3.320000E+03	1.358266E-17	9.983847E-19
3.330000E+03	1.318776E-17	9.693497E-19
3.340000E+03	1.280920E-17	9.415164E-19
3.350000E+03	1.244686E-17	9.148753E-19
3.360000E+03	1.210008E-17	8.893784E-19
3.370000E+03	1.176836E-17	8.649893E-19
3.380000E+03	1.145125E-17	8.416740E-19
3.390000E+03	1.114796E-17	8.193751E-19
3.400000E+03	1.085836E-17	7.980825E-19
3.410000E+03	1.058184E-17	7.777517E-19
3.420000E+03	1.031784E-17	7.583419E-19
3.430000E+03	1.006596E-17	7.398228E-19
3.440000E+03	9.825776E-18	7.221634E-19
3.450000E+03	9.596673E-18	7.053189E-19
3.460000E+03	9.378407E-18	6.892712E-19
3.470000E+03	9.170381E-18	6.739763E-19
3.480000E+03	8.972278E-18	6.594109E-19
3.490000E+03	8.783671E-18	6.455438E-19
3.500000E+03	8.604163E-18	6.323455E-19
3.510000E+03	8.433375E-18	6.197883E-19
3.520000E+03	8.270947E-18	6.078457E-19
3.530000E+03	8.116452E-18	5.964863E-19
3.540000E+03	7.969493E-18	5.856810E-19
3.550000E+03	7.829779E-18	5.754082E-19
3.560000E+03	7.696956E-18	5.656420E-19
3.570000E+03	7.570770E-18	5.563637E-19
3.580000E+03	7.450823E-18	5.475441E-19
3.590000E+03	7.336900E-18	5.391673E-19
3.600000E+03	7.228718E-18	5.312125E-19
3.610000E+03	7.126154E-18	5.236707E-19
3.620000E+03	7.028878E-18	5.165177E-19
3.630000E+03	6.936719E-18	5.097407E-19
3.640000E+03	6.849308E-18	5.033128E-19
3.650000E+03	6.766502E-18	4.972234E-19
3.660000E+03	6.688095E-18	4.914574E-19
3.670000E+03	6.613893E-18	4.860003E-19
3.680000E+03	6.543768E-18	4.808430E-19
3.690000E+03	6.477597E-18	4.759763E-19
3.700000E+03	6.415202E-18	4.713872E-19
3.710000E+03	6.356529E-18	4.670716E-19
3.720000E+03	6.301405E-18	4.630169E-19
3.730000E+03	6.249831E-18	4.592231E-19
3.740000E+03	6.201696E-18	4.556820E-19
3.750000E+03	6.156888E-18	4.523855E-19
3.760000E+03	6.115353E-18	4.493295E-19
3.770000E+03	6.077090E-18	4.465139E-19
3.780000E+03	6.041988E-18	4.439307E-19
3.790000E+03	6.010044E-18	4.415795E-19
3.800000E+03	5.981151E-18	4.394525E-19
3.810000E+03	5.955253E-18	4.375456E-19
3.820000E+03	5.932348E-18	4.358587E-19
3.830000E+03	5.912429E-18	4.343911E-19
3.840000E+03	5.895393E-18	4.331354E-19
3.850000E+03	5.881286E-18	4.320949E-19
3.860000E+03	5.869955E-18	4.312583E-19
3.870000E+03	5.861491E-18	4.306325E-19
3.880000E+03	5.855749E-18	4.302065E-19
3.890000E+03	5.852818E-18	4.299872E-19
3.900000E+03	5.852597E-18	4.299669E-19
3.910000E+03	5.855082E-18	4.301453E-19
3.920000E+03	5.860219E-18	4.305187E-19
3.930000E+03	5.868005E-18	4.310866E-19
3.940000E+03	5.878387E-18	4.318452E-19
3.950000E+03	5.891407E-18	4.327976E-19
3.960000E+03	5.906966E-18	4.339365E-19
3.970000E+03	5.925059E-18	4.352615E-19
3.980000E+03	5.945634E-18	4.367688E-19
3.990000E+03	5.968735E-18	4.384616E-19
4.000000E+03	5.994310E-18	4.403362E-19
4.010000E+03	6.022308E-18	4.423887E-19
4.020000E+03	6.052680E-18	4.446155E-19
4.030000E+03	6.085471E-18	4.470200E-19
4.040000E+03	6.120583E-18	4.495949E-19
4.050000E+03	6.158065E-18	4.523439E-19
4.060000E+03	6.197819E-18	4.552597E-19
4.070000E+03	6.239848E-18	4.583426E-19
4.080000E+03	6.284154E-18	4.615926E-19
4.090000E+03	6.330691E-18	4.650065E-19
4.100000E+03	6.379415E-18	4.685809E-19
4.110000E+03	6.430281E-18	4.723126E-19
4.120000E+03	6.483344E-18	4.762056E-19
4.130000E+03	6.538512E-18	4.802532E-19
4.140000E+03	6.595792E-18	4.844557E-19
4.150000E+03	6.655090E-18	4.888065E-19
4.160000E+03	6.716415E-18	4.933060E-19
4.170000E+03	6.779775E-18	4.979549E-19
4.180000E+03	6.845077E-18	5.027464E-19
4.190000E+03	6.912330E-18	5.076811E-19
4.200000E+03	6.981438E-18	5.127518E-19
4.210000E+03	7.052412E-18	5.179596E-19
4.220000E+03	7.125151E-18	5.232968E-19
4.230000E+03	7.199665E-18	5.287644E-19
4.240000E+03	7.275852E-18	5.343547E-19
4.250000E+03	7.353663E-18	5.400642E-19
4.260000E+03	7.432989E-18	5.458849E-19
4.270000E+03	7.513837E-18	5.518172E-19
4.280000E+03	7.596089E-18	5.578525E-19
4.290000E+03	7.679690E-18	5.639868E-19
4.300000E+03	7.764515E-18	5.702108E-19
4.310000E+03	7.850434E-18	5.765152E-19
4.320000E+03	7.937377E-18	5.828945E-19
4.330000E+03	8.025266E-18	5.893432E-19
4.340000E+03	8.113955E-18	5.958506E-19
4.350000E+03	8.203359E-18	6.024103E-19
4.360000E+03	8.293319E-18	6.090108E-19
4.370000E+03	8.383806E-18	6.156499E-19
4.380000E+03	8.474721E-18	6.223202E-19
4.390000E+03	8.566167E-18	6.290295E-19
4.400000E+03	8.658048E-18	6.357706E-19
4.410000E+03	8.750407E-18	6.425466E-19
4.420000E+03	8.843217E-18	6.493556E-19
4.430000E+03	8.936601E-18	6.562068E-19
4.440000E+03	9.030467E-18	6.630932E-19
4.450000E+03	9.124799E-18	6.700136E-19
4.460000E+03	9.219655E-18	6.769724E-19
4.470000E+03	9.315025E-18	6.839689E-19
4.480000E+03	9.410892E-18	6.910017E-19
4.490000E+03	9.507189E-18	6.980661E-19
4.500000E+03	9.603964E-18	7.051653E-19
4.510000E+03	9.701161E-18	7.122955E-19
4.520000E+03	9.798752E-18	7.194544E-19
4.530000E+03	9.896765E-18	7.266443E-19
4.540000E+03	9.995016E-18	7.338515E-19
4.550000E+03	1.009360E-17	7.410829E-19
4.560000E+03	1.019244E-17	7.483336E-19
4.570000E+03	1.029157E-17	7.556044E-19
4.580000E+03	1.039080E-17	7.628831E-19
4.590000E+03	1.049024E-17	7.701772E-19
4.600000E+03	1.058975E-17	7.774765E-19
4.610000E+03	1.068945E-17	7.847890E-19
4.620000E+03	1.078919E-17	7.921042E-19
4.630000E+03	1.088899E-17	7.994245E-19
4.640000E+03	1.098882E-17	8.067460E-19
4.650000E+03	1.108882E-17	8.140808E-19
4.660000E+03	1.118886E-17	8.214174E-19
4.670000E+03	1.128910E-17	8.287694E-19
4.680000E+03	1.138952E-17	8.361340E-19
4.690000E+03	1.149009E-17	8.435098E-19
4.700000E+03	1.159102E-17	8.509118E-19
4.710000E+03	1.169217E-17	8.583298E-19
4.720000E+03	1.179367E-17	8.657733E-19
4.730000E+03	1.189539E-17	8.732328E-19
4.740000E+03	1.199744E-17	8.807170E-19
4.750000E+03	1.209962E-17	8.882098E-19
4.760000E+03	1.220203E-17	8.957199E-19
4.770000E+03	1.230456E-17	9.032386E-19
4.780000E+03	1.240735E-17	9.107760E-19
4.790000E+03	1.251028E-17	9.183233E-19
4.800000E+03	1.261335E-17	9.258812E-19
4.810000E+03	1.271658E-17	9.334504E-19
4.820000E+03	1.281997E-17	9.410315E-19
4.830000E+03	1.292353E-17	9.486252E-19
4.840000E+03	1.302715E-17	9.562228E-19
4.850000E+03	1.313095E-17	9.638337E-19
4.860000E+03	1.323495E-17	9.714585E-19
4.870000E+03	1.333901E-17	9.790885E-19
4.880000E+03	1.344315E-17	9.867236E-19
4.890000E+03	1.354749E-17	9.943734E-19
4.900000E+03	1.365177E-17	1.002018E-18
4.910000E+03	1.375624E-17	1.009678E-18
4.920000E+03	1.386077E-17	1.017341E-18
4.930000E+03	1.396520E-17	1.024997E-18
4.940000E+03	1.406966E-17	1.032654E-18
4.950000E+03	1.417409E-17	1.040310E-18
4.960000E+03	1.427835E-17	1.047953E-18
4.970000E+03	1.438252E-17	1.055589E-18
4.980000E+03	1.448627E-17	1.063194E-18
4.990000E+03	1.458982E-17	1.070785E-18
5.000000E+03	1.469296E-17	1.078345E-18
5.010000E+03	1.479547E-17	1.085859E-18
5.020000E+03	1.489740E-17	1.093330E-18
5.030000E+03	1.499850E-17	1.100740E-18
5.040000E+03	1.509866E-17	1.108081E-18
5.050000E+03	1.519777E-17	1.115345E-18
5.060000E+03	1.529569E-17	1.122521E-18
5.070000E+03	1.539214E-17	1.129589E-18
5.080000E+03	1.548711E-17	1.136548E-18
5.090000E+03	1.558030E-17	1.143377E-18
5.100000E+03	1.567156E-17	1.150064E-18
5.110000E+03	1.576056E-17	1.156585E-18
5.120000E+03	1.584728E-17	1.162938E-18
5.130000E+03	1.593123E-17	1.169088E-18
5.140000E+03	1.601256E-17	1.175045E-18
5.150000E+03	1.609075E-17	1.180773E-18
5.160000E+03	1.616580E-17	1.186269E-18
5.170000E+03	1.623734E-17	1.191508E-18
5.180000E+03	1.630504E-17	1.196465E-18
5.190000E+03	1.636887E-17	1.201137E-18
5.200000E+03	1.642846E-17	1.205499E-18
5.210000E+03	1.648362E-17	1.209536E-18
5.220000E+03	1.653418E-17	1.213234E-18
5.230000E+03	1.657975E-17	1.216567E-18
5.240000E+03	1.662013E-17	1.219519E-18
5.250000E+03	1.665497E-17	1.222064E-18
5.260000E+03	1.668422E-17	1.224199E-18
5.270000E+03	1.670754E-17	1.225898E-18
5.280000E+03	1.672471E-17	1.227147E-18
5.290000E+03	1.673555E-17	1.227931E-18
5.300000E+03	1.673972E-17	1.228225E-18
5.310000E+03	1.673705E-17	1.228017E-18
5.320000E+03	1.672738E-17	1.227296E-18
5.330000E+03	1.671058E-17	1.226052E-18
5.340000E+03	1.668636E-17	1.224264E-18
5.350000E+03	1.665482E-17	1.221938E-18
5.360000E+03	1.661590E-17	1.219071E-18
5.370000E+03	1.656958E-17	1.215660E-18
5.380000E+03	1.651570E-17	1.211696E-18
5.390000E+03	1.645469E-17	1.207208E-18
5.400000E+03	1.638646E-17	1.202191E-18
5.410000E+03	1.631152E-17	1.196682E-18
5.420000E+03	1.622992E-17	1.190683E-18
5.430000E+03	1.614208E-17	1.184227E-18
5.440000E+03	1.604831E-17	1.177337E-18
5.450000E+03	1.594931E-17	1.170063E-18
5.460000E+03	1.584532E-17	1.162422E-18
5.470000E+03	1.573665E-17	1.154439E-18
5.480000E+03	1.562350E-17	1.146127E-18
5.490000E+03	1.550642E-17	1.137527E-18
5.500000E+03	1.538570E-17	1.128660E-18
5.510000E+03	1.526182E-17	1.119561E-18
5.520000E+03	1.513525E-17	1.110266E-18
5.530000E+03	1.500655E-17	1.100813E-18
5.540000E+03	1.487623E-17	1.091243E-18
5.550000E+03	1.474499E-17	1.081605E-18
5.560000E+03	1.461337E-17	1.071940E-18
5.570000E+03	1.448220E-17	1.062307E-18
5.580000E+03	1.435183E-17	1.052733E-18
5.590000E+03	1.422320E-17	1.043287E-18
5.600000E+03	1.409661E-17	1.033992E-18
5.610000E+03	1.397277E-17	1.024897E-18
5.620000E+03	1.385234E-17	1.016053E-18
5.630000E+03	1.373552E-17	1.007474E-18
5.640000E+03	1.362313E-17	9.992207E-19
5.650000E+03	1.351543E-17	9.913111E-19
5.660000E+03	1.341261E-17	9.837589E-19
5.670000E+03	1.331535E-17	9.766152E-19
5.680000E+03	1.322359E-17	9.698754E-19
5.690000E+03	1.313767E-17	9.635636E-19
5.700000E+03	1.305786E-17	9.577001E-19
5.710000E+03	1.298429E-17	9.522943E-19
5.720000E+03	1.291701E-17	9.473501E-19
5.730000E+03	1.285611E-17	9.428731E-19
5.740000E+03	1.280172E-17	9.388745E-19
5.750000E+03	1.275402E-17	9.353666E-19
5.760000E+03	1.271274E-17	9.323291E-19
5.770000E+03	1.267830E-17	9.297935E-19
5.780000E+03	1.265042E-17	9.277391E-19
5.790000E+03	1.262940E-17	9.261874E-19
5.800000E+03	1.261508E-17	9.251276E-19
5.810000E+03	1.260763E-17	9.245717E-19
5.820000E+03	1.260707E-17	9.245204E-19
5.830000E+03	1.261353E-17	9.249845E-19
5.840000E+03	1.262693E-17	9.259572E-19
5.850000E+03	1.264728E-17	9.274392E-19
5.860000E+03	1.267474E-17	9.294425E-19
5.870000E+03	1.270948E-17	9.319800E-19
5.880000E+03	1.275124E-17	9.350321E-19
5.890000E+03	1.280032E-17	9.386211E-19
5.900000E+03	1.285660E-17	9.427380E-19
5.910000E+03	1.292023E-17	9.473930E-19
5.920000E+03	1.299120E-17	9.525868E-19
5.930000E+03	1.306936E-17	9.583072E-19
5.940000E+03	1.315482E-17	9.645636E-19
5.950000E+03	1.324756E-17	9.713526E-19
5.960000E+03	1.334736E-17	9.786594E-19
5.970000E+03	1.345446E-17	9.865015E-19
5.980000E+03	1.356846E-17	9.948491E-19
5.990000E+03	1.368939E-17	1.003705E-18
6.000000E+03	1.381714E-17	1.013061E-18
6.010000E+03	1.395138E-17	1.022891E-18
6.020000E+03	1.409207E-17	1.033195E-18
6.030000E+03	1.423871E-17	1.043935E-18
6.040000E+03	1.439135E-17	1.055114E-18
6.050000E+03	1.454941E-17	1.066691E-18
6.060000E+03	1.471275E-17	1.078654E-18
6.070000E+03	1.488089E-17	1.090969E-18
6.080000E+03	1.505345E-17	1.103608E-18
6.090000E+03	1.522988E-17	1.116530E-18
6.100000E+03	1.540958E-17	1.129691E-18
6.110000E+03	1.559227E-17	1.143072E-18
6.120000E+03	1.577695E-17	1.156597E-18
6.130000E+03	1.596330E-17	1.170245E-18
6.140000E+03	1.615041E-17	1.183949E-18
6.150000E+03	1.633780E-17	1.197672E-18
6.160000E+03	1.652412E-17	1.211318E-18
6.170000E+03	1.670905E-17	1.224860E-18
6.180000E+03	1.689146E-17	1.238218E-18
6.190000E+03	1.707063E-17	1.251338E-18
6.200000E+03	1.724564E-17	1.264153E-18
6.210000E+03	1.741649E-17	1.276662E-18
6.220000E+03	1.758345E-17	1.288886E-18
6.230000E+03	1.774687E-17	1.300850E-18
6.240000E+03	1.790719E-17	1.312587E-18
6.250000E+03	1.806423E-17	1.324084E-18
6.260000E+03	1.821904E-17	1.335416E-18
6.270000E+03	1.837130E-17	1.346561E-18
6.280000E+03	1.852167E-17	1.357568E-18
6.290000E+03	1.867068E-17	1.368474E-18
6.300000E+03	1.881806E-17	1.379261E-18
6.310000E+03	1.896439E-17	1.389971E-18
6.320000E+03	1.910999E-17	1.400626E-18
6.330000E+03	1.925519E-17	1.411252E-18
6.340000E+03	1.939982E-17	1.421837E-18
6.350000E+03	1.954428E-17	1.432408E-18
6.360000E+03	1.968864E-17	1.442973E-18
6.370000E+03	1.983304E-17	1.453540E-18
6.380000E+03	1.997731E-17	1.464097E-18
6.390000E+03	2.012129E-17	1.474632E-18
6.400000E+03	2.026477E-17	1.485130E-18
6.410000E+03	2.040785E-17	1.495600E-18
6.420000E+03	2.055033E-17	1.506025E-18
6.430000E+03	2.069138E-17	1.516345E-18
6.440000E+03	2.083197E-17	1.526631E-18
6.450000E+03	2.097216E-17	1.536887E-18
6.460000E+03	2.111237E-17	1.547145E-18
6.470000E+03	2.125330E-17	1.557455E-18
6.480000E+03	2.139475E-17	1.567803E-18
6.490000E+03	2.153747E-17	1.578244E-18
6.500000E+03	2.168156E-17	1.588785E-18
6.510000E+03	2.182749E-17	1.599461E-18
6.520000E+03	2.197470E-17	1.610230E-18
6.530000E+03	2.212432E-17	1.621176E-18
6.540000E+03	2.227577E-17	1.632256E-18
6.550000E+03	2.242953E-17	1.643504E-18
6.560000E+03	2.258571E-17	1.654929E-18
6.570000E+03	2.274404E-17	1.666512E-18
6.580000E+03	2.290500E-17	1.678288E-18
6.590000E+03	2.306868E-17	1.690263E-18
6.600000E+03	2.323483E-17	1.702418E-18
6.610000E+03	2.340352E-17	1.714759E-18
6.620000E+03	2.357484E-17	1.727292E-18
6.630000E+03	2.374927E-17	1.740053E-18
6.640000E+03	2.392610E-17	1.752990E-18
6.650000E+03	2.410579E-17	1.766136E-18
6.660000E+03	2.428843E-17	1.779498E-18
6.670000E+03	2.447366E-17	1.793049E-18
6.680000E+03	2.466195E-17	1.806824E-18
6.690000E+03	2.485295E-17	1.820797E-18
6.700000E+03	2.504711E-17	1.835002E-18
6.710000E+03	2.524363E-17	1.849380E-18
6.720000E+03	2.544299E-17	1.863965E-18
6.730000E+03	2.564567E-17	1.878793E-18
6.740000E+03	2.585083E-17	1.893802E-18
6.750000E+03	2.605893E-17	1.909027E-18
6.760000E+03	2.626958E-17	1.924437E-18
6.770000E+03	2.648325E-17	1.940070E-18
6.780000E+03	2.669953E-17	1.955892E-18
6.790000E+03	2.691845E-17	1.971908E-18
6.800000E+03	2.714050E-17	1.988153E-18
6.810000E+03	2.736476E-17	2.004560E-18
6.820000E+03	2.759223E-17	2.021201E-18
6.830000E+03	2.782193E-17	2.038006E-18
6.840000E+03	2.805488E-17	2.055048E-18
6.850000E+03	2.829007E-17	2.072254E-18
6.860000E+03	2.852749E-17	2.089623E-18
6.870000E+03	2.876762E-17	2.107190E-18
6.880000E+03	2.901047E-17	2.124956E-18
6.890000E+03	2.925490E-17	2.142837E-18
6.900000E+03	2.950194E-17	2.160910E-18
6.910000E+03	2.975099E-17	2.179129E-18
6.920000E+03	3.000253E-17	2.197530E-18
6.930000E+03	3.025536E-17	2.216026E-18
6.940000E+03	3.050993E-17	2.234648E-18
6.950000E+03	3.076615E-17	2.253392E-18
6.960000E+03	3.102331E-17	2.272203E-18
6.970000E+03	3.128189E-17	2.291119E-18
6.980000E+03	3.154177E-17	2.310129E-18
6.990000E+03	3.180223E-17	2.329182E-18
7.000000E+03	3.206313E-17	2.348266E-18
7.010000E+03	3.232436E-17	2.367374E-18
7.020000E+03	3.258640E-17	2.386542E-18
7.030000E+03	3.284790E-17	2.405669E-18
7.040000E+03	3.311000E-17	2.424840E-18
7.050000E+03	3.337133E-17	2.443955E-18
7.060000E+03	3.363242E-17	2.463052E-18
7.070000E+03	3.389252E-17	2.482076E-18
7.080000E+03	3.415222E-17	2.501070E-18
7.090000E+03	3.441147E-17	2.520031E-18
7.100000E+03	3.466951E-17	2.538903E-18
7.110000E+03	3.492558E-17	2.557631E-18
7.120000E+03	3.518104E-17	2.576314E-18
7.130000E+03	3.543514E-17	2.594898E-18
7.140000E+03	3.568787E-17	2.613380E-18
7.150000E+03	3.593921E-17	2.631761E-18
7.160000E+03	3.618841E-17	2.649984E-18
7.170000E+03	3.643621E-17	2.668105E-18
7.180000E+03	3.668184E-17	2.686067E-18
7.190000E+03	3.692529E-17	2.703869E-18
7.200000E+03	3.716733E-17	2.721568E-18
7.210000E+03	3.740721E-17	2.739108E-18
7.220000E+03	3.764569E-17	2.756547E-18
7.230000E+03	3.788121E-17	2.773767E-18
7.240000E+03	3.811451E-17	2.790826E-18
7.250000E+03	3.834557E-17	2.807720E-18
7.260000E+03	3.857435E-17	2.824447E-18
7.270000E+03	3.880080E-17	2.841004E-18
7.280000E+03	3.902487E-17	2.857386E-18
7.290000E+03	3.924561E-17	2.873524E-18
7.300000E+03	3.946379E-17	2.889475E-18
7.310000E+03	3.967930E-17	2.905230E-18
7.320000E+03	3.989203E-17	2.920782E-18
7.330000E+03	4.010100E-17	2.936059E-18
7.340000E+03	4.030697E-17	2.951115E-18
7.350000E+03	4.051071E-17	2.966008E-18
7.360000E+03	4.071034E-17	2.980601E-18
7.370000E+03	4.090667E-17	2.994952E-18
7.380000E+03	4.109960E-17	3.009055E-18
7.390000E+03	4.128998E-17	3.022971E-18
7.400000E+03	4.147687E-17	3.036630E-18
7.410000E+03	4.166117E-17	3.050101E-18
7.420000E+03	4.184383E-17	3.063452E-18
7.430000E+03	4.202395E-17	3.076617E-18
7.440000E+03	4.220352E-17	3.089741E-18
7.450000E+03	4.238073E-17	3.102694E-18
7.460000E+03	4.255665E-17	3.115551E-18
7.470000E+03	4.273044E-17	3.128254E-18
7.480000E+03	4.290322E-17	3.140882E-18
7.490000E+03	4.307316E-17	3.153303E-18
7.500000E+03	4.324137E-17	3.165597E-18
7.510000E+03	4.340798E-17	3.177774E-18
7.520000E+03	4.357212E-17	3.189771E-18
7.530000E+03	4.373588E-17	3.201740E-18
7.540000E+03	4.389734E-17	3.213541E-18
7.550000E+03	4.405759E-17	3.225254E-18
7.560000E+03	4.421565E-17	3.236806E-18
7.570000E+03	4.437261E-17	3.248279E-18
7.580000E+03	4.452746E-17	3.259597E-18
7.590000E+03	4.468129E-17	3.270841E-18
7.600000E+03	4.483307E-17	3.281935E-18
7.610000E+03	4.498278E-17	3.292878E-18
7.620000E+03	4.513150E-17	3.303748E-18
7.630000E+03	4.527813E-17	3.314466E-18
7.640000E+03	4.542260E-17	3.325027E-18
7.650000E+03	4.556597E-17	3.335506E-18
7.660000E+03	4.570704E-17	3.345818E-18
7.670000E+03	4.584683E-17	3.356037E-18
7.680000E+03	4.598298E-17	3.365989E-18
7.690000E+03	4.611759E-17	3.375829E-18
7.700000E+03	4.625053E-17	3.385548E-18
7.710000E+03	4.638048E-17	3.395048E-18
7.720000E+03	4.650843E-17	3.404401E-18
7.730000E+03	4.663299E-17	3.413507E-18
7.740000E+03	4.675396E-17	3.422350E-18
7.750000E+03	4.687229E-17	3.431000E-18
7.760000E+03	4.698772E-17	3.439439E-18
