#wls	flux	fluxerr
1.600000E+03	1.946653E-16	7.889203E-17
1.640000E+03	2.008377E-16	8.136155E-17
1.680000E+03	2.068803E-16	8.377484E-17
1.720000E+03	2.127707E-16	8.612279E-17
1.760000E+03	2.184201E-16	8.836935E-17
1.800000E+03	2.237929E-16	9.050001E-17
1.840000E+03	2.288071E-16	9.248167E-17
1.880000E+03	2.334145E-16	9.429483E-17
1.920000E+03	2.375411E-16	9.590979E-17
1.960000E+03	2.411095E-16	9.729535E-17
2.000000E+03	2.440042E-16	9.840522E-17
2.040000E+03	2.461477E-16	9.920854E-17
2.080000E+03	2.474485E-16	9.966886E-17
2.120000E+03	2.477755E-16	9.973399E-17
2.160000E+03	2.470166E-16	9.935951E-17
2.200000E+03	2.450399E-16	9.849336E-17
2.240000E+03	2.417367E-16	9.709292E-17
2.280000E+03	2.370913E-16	9.515316E-17
2.320000E+03	2.311438E-16	9.269148E-17
2.360000E+03	2.240693E-16	8.977955E-17
2.400000E+03	2.160246E-16	8.648139E-17
2.440000E+03	2.071511E-16	8.285483E-17
2.480000E+03	1.976037E-16	7.896294E-17
2.520000E+03	1.875042E-16	7.485544E-17
2.560000E+03	1.769604E-16	7.057624E-17
2.600000E+03	1.661034E-16	6.617853E-17
2.640000E+03	1.550325E-16	6.170255E-17
2.680000E+03	1.438645E-16	5.719539E-17
2.720000E+03	1.326992E-16	5.269729E-17
2.760000E+03	1.216546E-16	4.825540E-17
2.800000E+03	1.108316E-16	4.390998E-17
2.840000E+03	1.003371E-16	3.970347E-17
2.880000E+03	9.027281E-17	3.567596E-17
2.920000E+03	8.073136E-17	3.186378E-17
2.960000E+03	7.179304E-17	2.829814E-17
3.000000E+03	6.352049E-17	2.500311E-17
3.010000E+03	6.156117E-17	2.422344E-17
3.020000E+03	5.964720E-17	2.346209E-17
3.030000E+03	5.777729E-17	2.271854E-17
3.040000E+03	5.595403E-17	2.199381E-17
3.050000E+03	5.417601E-17	2.128731E-17
3.060000E+03	5.244314E-17	2.059900E-17
3.070000E+03	5.075529E-17	1.992882E-17
3.080000E+03	4.911434E-17	1.927747E-17
3.090000E+03	4.751787E-17	1.864402E-17
3.100000E+03	4.596752E-17	1.802907E-17
3.110000E+03	4.446192E-17	1.743208E-17
3.120000E+03	4.300150E-17	1.685319E-17
3.130000E+03	4.158573E-17	1.629220E-17
3.140000E+03	4.021408E-17	1.574886E-17
3.150000E+03	3.888596E-17	1.522294E-17
3.160000E+03	3.760149E-17	1.471446E-17
3.170000E+03	3.635928E-17	1.422287E-17
3.180000E+03	3.515935E-17	1.374816E-17
3.190000E+03	3.400095E-17	1.329001E-17
3.200000E+03	3.288330E-17	1.284811E-17
3.210000E+03	3.180618E-17	1.242236E-17
3.220000E+03	3.076764E-17	1.201197E-17
3.230000E+03	2.976846E-17	1.161725E-17
3.240000E+03	2.880619E-17	1.123721E-17
3.250000E+03	2.788146E-17	1.087208E-17
3.260000E+03	2.699238E-17	1.052112E-17
3.270000E+03	2.613850E-17	1.018413E-17
3.280000E+03	2.531888E-17	9.860737E-18
3.290000E+03	2.453219E-17	9.550407E-18
3.300000E+03	2.377828E-17	9.253065E-18
3.310000E+03	2.305545E-17	8.968039E-18
3.320000E+03	2.236283E-17	8.694970E-18
3.330000E+03	2.170014E-17	8.433748E-18
3.340000E+03	2.106583E-17	8.183749E-18
3.350000E+03	2.045901E-17	7.944617E-18
3.360000E+03	1.987883E-17	7.716008E-18
3.370000E+03	1.932467E-17	7.497677E-18
3.380000E+03	1.879516E-17	7.289072E-18
3.390000E+03	1.828948E-17	7.089873E-18
3.400000E+03	1.780711E-17	6.899856E-18
3.410000E+03	1.734698E-17	6.718610E-18
3.420000E+03	1.690837E-17	6.545833E-18
3.430000E+03	1.649008E-17	6.381059E-18
3.440000E+03	1.609165E-17	6.224097E-18
3.450000E+03	1.571239E-17	6.074674E-18
3.460000E+03	1.535127E-17	5.932377E-18
3.470000E+03	1.500765E-17	5.796960E-18
3.480000E+03	1.468080E-17	5.668122E-18
3.490000E+03	1.437032E-17	5.545708E-18
3.500000E+03	1.407516E-17	5.429300E-18
3.510000E+03	1.379499E-17	5.318767E-18
3.520000E+03	1.352901E-17	5.213794E-18
3.530000E+03	1.327664E-17	5.114146E-18
3.540000E+03	1.303730E-17	5.019600E-18
3.550000E+03	1.281034E-17	4.929891E-18
3.560000E+03	1.259539E-17	4.844878E-18
3.570000E+03	1.239171E-17	4.764267E-18
3.580000E+03	1.219888E-17	4.687888E-18
3.590000E+03	1.201661E-17	4.615629E-18
3.600000E+03	1.184436E-17	4.547278E-18
3.610000E+03	1.168179E-17	4.482694E-18
3.620000E+03	1.152841E-17	4.421688E-18
3.630000E+03	1.138379E-17	4.364090E-18
3.640000E+03	1.124761E-17	4.309775E-18
3.650000E+03	1.111939E-17	4.258547E-18
3.660000E+03	1.099896E-17	4.210344E-18
3.670000E+03	1.088584E-17	4.164977E-18
3.680000E+03	1.077981E-17	4.122355E-18
3.690000E+03	1.068073E-17	4.082428E-18
3.700000E+03	1.058820E-17	4.045030E-18
3.710000E+03	1.050200E-17	4.010078E-18
3.720000E+03	1.042211E-17	3.977563E-18
3.730000E+03	1.034826E-17	3.947372E-18
3.740000E+03	1.028022E-17	3.919425E-18
3.750000E+03	1.021802E-17	3.893719E-18
3.760000E+03	1.016136E-17	3.870139E-18
3.770000E+03	1.011013E-17	3.848649E-18
3.780000E+03	1.006435E-17	3.829240E-18
3.790000E+03	1.002381E-17	3.811840E-18
3.800000E+03	9.988431E-18	3.796411E-18
3.810000E+03	9.958109E-18	3.782912E-18
3.820000E+03	9.932748E-18	3.771303E-18
3.830000E+03	9.912352E-18	3.761582E-18
3.840000E+03	9.896737E-18	3.753678E-18
3.850000E+03	9.885883E-18	3.747580E-18
3.860000E+03	9.879802E-18	3.743290E-18
3.870000E+03	9.878311E-18	3.740735E-18
3.880000E+03	9.881317E-18	3.739878E-18
3.890000E+03	9.888893E-18	3.740744E-18
3.900000E+03	9.900952E-18	3.743297E-18
3.910000E+03	9.917324E-18	3.747471E-18
3.920000E+03	9.938072E-18	3.753286E-18
3.930000E+03	9.963186E-18	3.760736E-18
3.940000E+03	9.992407E-18	3.769721E-18
3.950000E+03	1.002580E-17	3.780263E-18
3.960000E+03	1.006335E-17	3.792354E-18
3.970000E+03	1.010495E-17	3.805951E-18
3.980000E+03	1.015040E-17	3.820978E-18
3.990000E+03	1.019987E-17	3.837491E-18
4.000000E+03	1.025314E-17	3.855411E-18
4.010000E+03	1.031010E-17	3.874694E-18
4.020000E+03	1.037082E-17	3.895360E-18
4.030000E+03	1.043509E-17	3.917329E-18
4.040000E+03	1.050295E-17	3.940619E-18
4.050000E+03	1.057413E-17	3.965120E-18
4.060000E+03	1.064876E-17	3.990879E-18
4.070000E+03	1.072663E-17	4.017822E-18
4.080000E+03	1.080764E-17	4.045901E-18
4.090000E+03	1.089182E-17	4.075136E-18
4.100000E+03	1.097890E-17	4.105410E-18
4.110000E+03	1.106902E-17	4.136784E-18
4.120000E+03	1.116189E-17	4.169147E-18
4.130000E+03	1.125748E-17	4.202484E-18
4.140000E+03	1.135578E-17	4.236789E-18
4.150000E+03	1.145658E-17	4.271983E-18
4.160000E+03	1.155987E-17	4.308061E-18
4.170000E+03	1.166556E-17	4.344985E-18
4.180000E+03	1.177341E-17	4.382672E-18
4.190000E+03	1.188355E-17	4.421160E-18
4.200000E+03	1.199566E-17	4.460336E-18
4.210000E+03	1.210984E-17	4.500231E-18
4.220000E+03	1.222580E-17	4.540740E-18
4.230000E+03	1.234353E-17	4.581856E-18
4.240000E+03	1.246294E-17	4.623543E-18
4.250000E+03	1.258372E-17	4.665690E-18
4.260000E+03	1.270599E-17	4.708334E-18
4.270000E+03	1.282952E-17	4.751400E-18
4.280000E+03	1.295414E-17	4.794813E-18
4.290000E+03	1.307962E-17	4.838493E-18
4.300000E+03	1.320598E-17	4.882445E-18
4.310000E+03	1.333312E-17	4.926633E-18
4.320000E+03	1.346061E-17	4.970902E-18
4.330000E+03	1.358858E-17	5.015293E-18
4.340000E+03	1.371661E-17	5.059652E-18
4.350000E+03	1.384480E-17	5.104022E-18
4.360000E+03	1.397286E-17	5.148287E-18
4.370000E+03	1.410079E-17	5.192458E-18
4.380000E+03	1.422863E-17	5.236542E-18
4.390000E+03	1.435639E-17	5.280548E-18
4.400000E+03	1.448411E-17	5.324487E-18
4.410000E+03	1.461192E-17	5.368410E-18
4.420000E+03	1.473997E-17	5.412369E-18
4.430000E+03	1.486828E-17	5.456378E-18
4.440000E+03	1.499703E-17	5.500497E-18
4.450000E+03	1.512613E-17	5.544696E-18
4.460000E+03	1.525588E-17	5.589086E-18
4.470000E+03	1.538622E-17	5.633641E-18
4.480000E+03	1.551721E-17	5.678386E-18
4.490000E+03	1.564891E-17	5.723342E-18
4.500000E+03	1.578140E-17	5.768538E-18
4.510000E+03	1.591474E-17	5.813998E-18
4.520000E+03	1.604902E-17	5.859748E-18
4.530000E+03	1.618402E-17	5.905715E-18
4.540000E+03	1.632011E-17	5.952029E-18
4.550000E+03	1.645708E-17	5.998613E-18
4.560000E+03	1.659501E-17	6.045499E-18
4.570000E+03	1.673385E-17	6.092661E-18
4.580000E+03	1.687382E-17	6.140184E-18
4.590000E+03	1.701486E-17	6.188042E-18
4.600000E+03	1.715675E-17	6.236158E-18
4.610000E+03	1.729990E-17	6.284676E-18
4.620000E+03	1.744407E-17	6.333512E-18
4.630000E+03	1.758922E-17	6.382646E-18
4.640000E+03	1.773559E-17	6.432167E-18
4.650000E+03	1.788328E-17	6.482110E-18
4.660000E+03	1.803191E-17	6.532340E-18
4.670000E+03	1.818193E-17	6.583012E-18
4.680000E+03	1.833328E-17	6.634109E-18
4.690000E+03	1.848593E-17	6.685617E-18
4.700000E+03	1.864001E-17	6.737580E-18
4.710000E+03	1.879550E-17	6.789995E-18
4.720000E+03	1.895257E-17	6.842916E-18
4.730000E+03	1.911085E-17	6.896213E-18
4.740000E+03	1.927053E-17	6.949951E-18
4.750000E+03	1.943181E-17	7.004201E-18
4.760000E+03	1.959417E-17	7.058773E-18
4.770000E+03	1.975798E-17	7.113803E-18
4.780000E+03	1.992308E-17	7.169234E-18
4.790000E+03	2.008933E-17	7.225007E-18
4.800000E+03	2.025711E-17	7.281264E-18
4.810000E+03	2.042588E-17	7.337807E-18
4.820000E+03	2.059624E-17	7.394848E-18
4.830000E+03	2.076761E-17	7.452182E-18
4.840000E+03	2.094039E-17	7.509951E-18
4.850000E+03	2.111420E-17	7.568015E-18
4.860000E+03	2.128943E-17	7.626515E-18
4.870000E+03	2.146567E-17	7.685301E-18
4.880000E+03	2.164312E-17	7.744448E-18
4.890000E+03	2.182178E-17	7.803949E-18
4.900000E+03	2.200141E-17	7.863720E-18
4.910000E+03	2.218200E-17	7.923754E-18
4.920000E+03	2.236353E-17	7.984046E-18
4.930000E+03	2.254618E-17	8.044658E-18
4.940000E+03	2.272949E-17	8.105426E-18
4.950000E+03	2.291386E-17	8.166491E-18
4.960000E+03	2.309881E-17	8.227678E-18
4.970000E+03	2.328450E-17	8.289046E-18
4.980000E+03	2.347065E-17	8.350492E-18
4.990000E+03	2.365716E-17	8.411982E-18
5.000000E+03	2.384394E-17	8.473485E-18
5.010000E+03	2.403111E-17	8.535039E-18
5.020000E+03	2.421807E-17	8.596433E-18
5.030000E+03	2.440489E-17	8.657691E-18
5.040000E+03	2.459117E-17	8.718669E-18
5.050000E+03	2.477694E-17	8.779376E-18
5.060000E+03	2.496172E-17	8.839649E-18
5.070000E+03	2.514503E-17	8.899311E-18
5.080000E+03	2.532683E-17	8.958350E-18
5.090000E+03	2.550682E-17	9.016662E-18
5.100000E+03	2.568443E-17	9.074047E-18
5.110000E+03	2.585905E-17	9.130290E-18
5.120000E+03	2.603084E-17	9.185445E-18
5.130000E+03	2.619888E-17	9.239193E-18
5.140000E+03	2.636278E-17	9.291395E-18
5.150000E+03	2.652209E-17	9.341900E-18
5.160000E+03	2.667640E-17	9.390561E-18
5.170000E+03	2.682499E-17	9.437129E-18
5.180000E+03	2.696766E-17	9.481537E-18
5.190000E+03	2.710341E-17	9.523439E-18
5.200000E+03	2.723202E-17	9.562760E-18
5.210000E+03	2.735248E-17	9.599148E-18
5.220000E+03	2.746483E-17	9.632623E-18
5.230000E+03	2.756801E-17	9.662818E-18
5.240000E+03	2.766178E-17	9.689656E-18
5.250000E+03	2.774508E-17	9.712772E-18
5.260000E+03	2.781765E-17	9.732082E-18
5.270000E+03	2.787899E-17	9.747416E-18
5.280000E+03	2.792802E-17	9.758401E-18
5.290000E+03	2.796424E-17	9.764875E-18
5.300000E+03	2.798745E-17	9.766775E-18
5.310000E+03	2.799690E-17	9.763851E-18
5.320000E+03	2.799192E-17	9.755874E-18
5.330000E+03	2.797214E-17	9.742724E-18
5.340000E+03	2.793727E-17	9.724312E-18
5.350000E+03	2.788706E-17	9.700562E-18
5.360000E+03	2.782112E-17	9.671349E-18
5.370000E+03	2.773967E-17	9.636759E-18
5.380000E+03	2.764253E-17	9.596739E-18
5.390000E+03	2.753015E-17	9.551457E-18
5.400000E+03	2.740260E-17	9.500948E-18
5.410000E+03	2.726088E-17	9.445571E-18
5.420000E+03	2.710588E-17	9.385638E-18
5.430000E+03	2.693806E-17	9.321327E-18
5.440000E+03	2.675915E-17	9.253234E-18
5.450000E+03	2.657014E-17	9.181721E-18
5.460000E+03	2.637114E-17	9.106823E-18
5.470000E+03	2.616420E-17	9.029264E-18
5.480000E+03	2.595019E-17	8.949343E-18
5.490000E+03	2.573005E-17	8.867391E-18
5.500000E+03	2.550507E-17	8.783858E-18
5.510000E+03	2.527632E-17	8.699116E-18
5.520000E+03	2.504494E-17	8.613560E-18
5.530000E+03	2.481258E-17	8.527762E-18
5.540000E+03	2.458041E-17	8.442119E-18
5.550000E+03	2.435031E-17	8.357284E-18
5.560000E+03	2.412391E-17	8.273806E-18
5.570000E+03	2.390251E-17	8.192135E-18
5.580000E+03	2.368784E-17	8.112857E-18
5.590000E+03	2.348131E-17	8.036453E-18
5.600000E+03	2.328423E-17	7.963359E-18
5.610000E+03	2.309800E-17	7.894057E-18
5.620000E+03	2.292371E-17	7.828901E-18
5.630000E+03	2.276224E-17	7.768192E-18
5.640000E+03	2.261465E-17	7.712274E-18
5.650000E+03	2.248154E-17	7.661350E-18
5.660000E+03	2.236366E-17	7.615657E-18
5.670000E+03	2.226133E-17	7.575298E-18
5.680000E+03	2.217479E-17	7.540340E-18
5.690000E+03	2.210435E-17	7.510879E-18
5.700000E+03	2.204998E-17	7.486892E-18
5.710000E+03	2.201158E-17	7.468335E-18
5.720000E+03	2.198918E-17	7.455200E-18
5.730000E+03	2.198251E-17	7.447392E-18
5.740000E+03	2.199152E-17	7.444877E-18
5.750000E+03	2.201566E-17	7.447456E-18
5.760000E+03	2.205506E-17	7.455166E-18
5.770000E+03	2.210917E-17	7.467805E-18
5.780000E+03	2.217770E-17	7.485266E-18
5.790000E+03	2.226086E-17	7.507607E-18
5.800000E+03	2.235793E-17	7.534577E-18
5.810000E+03	2.246922E-17	7.566265E-18
5.820000E+03	2.259457E-17	7.602607E-18
5.830000E+03	2.273386E-17	7.643554E-18
5.840000E+03	2.288677E-17	7.688988E-18
5.850000E+03	2.305373E-17	7.739038E-18
5.860000E+03	2.323447E-17	7.793605E-18
5.870000E+03	2.342922E-17	7.852753E-18
5.880000E+03	2.363796E-17	7.916466E-18
5.890000E+03	2.386042E-17	7.984639E-18
5.900000E+03	2.409684E-17	8.057346E-18
5.910000E+03	2.434748E-17	8.134656E-18
5.920000E+03	2.461175E-17	8.216365E-18
5.930000E+03	2.488984E-17	8.302523E-18
5.940000E+03	2.518167E-17	8.393096E-18
5.950000E+03	2.548742E-17	8.488124E-18
5.960000E+03	2.580636E-17	8.587356E-18
5.970000E+03	2.613888E-17	8.690913E-18
5.980000E+03	2.648418E-17	8.798517E-18
5.990000E+03	2.684228E-17	8.910161E-18
6.000000E+03	2.721289E-17	9.025741E-18
6.010000E+03	2.759535E-17	9.145024E-18
6.020000E+03	2.798959E-17	9.267976E-18
6.030000E+03	2.839451E-17	9.394229E-18
6.040000E+03	2.881028E-17	9.523824E-18
6.050000E+03	2.923538E-17	9.656250E-18
6.060000E+03	2.966987E-17	9.791522E-18
6.070000E+03	3.011243E-17	9.929193E-18
6.080000E+03	3.056273E-17	1.006915E-17
6.090000E+03	3.101929E-17	1.021089E-17
6.100000E+03	3.148132E-17	1.035416E-17
6.110000E+03	3.194757E-17	1.049854E-17
6.120000E+03	3.241717E-17	1.064374E-17
6.130000E+03	3.288840E-17	1.078919E-17
6.140000E+03	3.335985E-17	1.093442E-17
6.150000E+03	3.383051E-17	1.107912E-17
6.160000E+03	3.429897E-17	1.122281E-17
6.170000E+03	3.476288E-17	1.136472E-17
6.180000E+03	3.522121E-17	1.150454E-17
6.190000E+03	3.567247E-17	1.164177E-17
6.200000E+03	3.611566E-17	1.177609E-17
6.210000E+03	3.655030E-17	1.190736E-17
6.220000E+03	3.697600E-17	1.203545E-17
6.230000E+03	3.739293E-17	1.216043E-17
6.240000E+03	3.780239E-17	1.228273E-17
6.250000E+03	3.820435E-17	1.240235E-17
6.260000E+03	3.859842E-17	1.251917E-17
6.270000E+03	3.898626E-17	1.263372E-17
6.280000E+03	3.936820E-17	1.274613E-17
6.290000E+03	3.974353E-17	1.285617E-17
6.300000E+03	4.011430E-17	1.296450E-17
6.310000E+03	4.047940E-17	1.307078E-17
6.320000E+03	4.084048E-17	1.317555E-17
6.330000E+03	4.119706E-17	1.327863E-17
6.340000E+03	4.154977E-17	1.338026E-17
6.350000E+03	4.189875E-17	1.348047E-17
6.360000E+03	4.224411E-17	1.357930E-17
6.370000E+03	4.258602E-17	1.367681E-17
6.380000E+03	4.292401E-17	1.377285E-17
6.390000E+03	4.325762E-17	1.386728E-17
6.400000E+03	4.358757E-17	1.396033E-17
6.410000E+03	4.391276E-17	1.405165E-17
6.420000E+03	4.423391E-17	1.414148E-17
6.430000E+03	4.455052E-17	1.422966E-17
6.440000E+03	4.486269E-17	1.431623E-17
6.450000E+03	4.517119E-17	1.440143E-17
6.460000E+03	4.547752E-17	1.448575E-17
6.470000E+03	4.578188E-17	1.456925E-17
6.480000E+03	4.608516E-17	1.465222E-17
6.490000E+03	4.638830E-17	1.473495E-17
6.500000E+03	4.669088E-17	1.481732E-17
6.510000E+03	4.699455E-17	1.489985E-17
6.520000E+03	4.729962E-17	1.498263E-17
6.530000E+03	4.760565E-17	1.506553E-17
6.540000E+03	4.791438E-17	1.514909E-17
6.550000E+03	4.822537E-17	1.523317E-17
6.560000E+03	4.853813E-17	1.531763E-17
6.570000E+03	4.885444E-17	1.540301E-17
6.580000E+03	4.917380E-17	1.548915E-17
6.590000E+03	4.949646E-17	1.557614E-17
6.600000E+03	4.982344E-17	1.566430E-17
6.610000E+03	5.015335E-17	1.575317E-17
6.620000E+03	5.048635E-17	1.584282E-17
6.630000E+03	5.082426E-17	1.593381E-17
6.640000E+03	5.116555E-17	1.602565E-17
6.650000E+03	5.151033E-17	1.611838E-17
6.660000E+03	5.185953E-17	1.621229E-17
6.670000E+03	5.221234E-17	1.630712E-17
6.680000E+03	5.256878E-17	1.640287E-17
6.690000E+03	5.292976E-17	1.649984E-17
6.700000E+03	5.329344E-17	1.659743E-17
6.710000E+03	5.365973E-17	1.669563E-17
6.720000E+03	5.403040E-17	1.679497E-17
6.730000E+03	5.440347E-17	1.689485E-17
6.740000E+03	5.477880E-17	1.699523E-17
6.750000E+03	5.515718E-17	1.709633E-17
6.760000E+03	5.553746E-17	1.719781E-17
6.770000E+03	5.591941E-17	1.729960E-17
6.780000E+03	5.630283E-17	1.740164E-17
6.790000E+03	5.668746E-17	1.750383E-17
6.800000E+03	5.707201E-17	1.760580E-17
6.810000E+03	5.745722E-17	1.770776E-17
6.820000E+03	5.784282E-17	1.780964E-17
6.830000E+03	5.822746E-17	1.791103E-17
6.840000E+03	5.861189E-17	1.801215E-17
6.850000E+03	5.899474E-17	1.811259E-17
6.860000E+03	5.937569E-17	1.821225E-17
6.870000E+03	5.975443E-17	1.831105E-17
6.880000E+03	6.012952E-17	1.840854E-17
6.890000E+03	6.050287E-17	1.850532E-17
6.900000E+03	6.087308E-17	1.860097E-17
6.910000E+03	6.123871E-17	1.869505E-17
6.920000E+03	6.160061E-17	1.878782E-17
6.930000E+03	6.195732E-17	1.887885E-17
6.940000E+03	6.230856E-17	1.896806E-17
6.950000E+03	6.265524E-17	1.905574E-17
6.960000E+03	6.299591E-17	1.914145E-17
6.970000E+03	6.333033E-17	1.922513E-17
6.980000E+03	6.365828E-17	1.930671E-17
6.990000E+03	6.397953E-17	1.938615E-17
7.000000E+03	6.429266E-17	1.946302E-17
7.010000E+03	6.459999E-17	1.953802E-17
7.020000E+03	6.489889E-17	1.961039E-17
7.030000E+03	6.518924E-17	1.968008E-17
7.040000E+03	6.547224E-17	1.974748E-17
7.050000E+03	6.574659E-17	1.981220E-17
7.060000E+03	6.601228E-17	1.987425E-17
7.070000E+03	6.626936E-17	1.993365E-17
7.080000E+03	6.651792E-17	1.999045E-17
7.090000E+03	6.675944E-17	2.004511E-17
7.100000E+03	6.699146E-17	2.009688E-17
7.110000E+03	6.721418E-17	2.014586E-17
7.120000E+03	6.742927E-17	2.019253E-17
7.130000E+03	6.763704E-17	2.023702E-17
7.140000E+03	6.783653E-17	2.027905E-17
7.150000E+03	6.802953E-17	2.031915E-17
7.160000E+03	6.821374E-17	2.035666E-17
7.170000E+03	6.839241E-17	2.039255E-17
7.180000E+03	6.856467E-17	2.042658E-17
7.190000E+03	6.873107E-17	2.045891E-17
7.200000E+03	6.889068E-17	2.048929E-17
7.210000E+03	6.904692E-17	2.051873E-17
7.220000E+03	6.919742E-17	2.054654E-17
7.230000E+03	6.934412E-17	2.057331E-17
7.240000E+03	6.948601E-17	2.059874E-17
7.250000E+03	6.962493E-17	2.062340E-17
7.260000E+03	6.975977E-17	2.064694E-17
7.270000E+03	6.989077E-17	2.066947E-17
7.280000E+03	7.001958E-17	2.069147E-17
7.290000E+03	7.014485E-17	2.071255E-17
7.300000E+03	7.026809E-17	2.073316E-17
7.310000E+03	7.038626E-17	2.075241E-17
7.320000E+03	7.050074E-17	2.077073E-17
7.330000E+03	7.061286E-17	2.078851E-17
7.340000E+03	7.071940E-17	2.080480E-17
7.350000E+03	7.082164E-17	2.082000E-17
7.360000E+03	7.091779E-17	2.083359E-17
7.370000E+03	7.100917E-17	2.084596E-17
7.380000E+03	7.109401E-17	2.085660E-17
7.390000E+03	7.117214E-17	2.086549E-17
7.400000E+03	7.124346E-17	2.087258E-17
7.410000E+03	7.130635E-17	2.087742E-17
7.420000E+03	7.136084E-17	2.088003E-17
7.430000E+03	7.140703E-17	2.088045E-17
7.440000E+03	7.144512E-17	2.087874E-17
7.450000E+03	7.147699E-17	2.087547E-17
7.460000E+03	7.150140E-17	2.087028E-17
7.470000E+03	7.152200E-17	2.086425E-17
7.480000E+03	7.153926E-17	2.085752E-17
7.490000E+03	7.155371E-17	2.085024E-17
7.500000E+03	7.156579E-17	2.084257E-17
7.510000E+03	7.157596E-17	2.083463E-17
7.520000E+03	7.158771E-17	2.082745E-17
7.530000E+03	7.159784E-17	2.082010E-17
7.540000E+03	7.160793E-17	2.081303E-17
7.550000E+03	7.161787E-17	2.080621E-17
7.560000E+03	7.162920E-17	2.080009E-17
7.570000E+03	7.163844E-17	2.079364E-17
7.580000E+03	7.164712E-17	2.078732E-17
7.590000E+03	7.165512E-17	2.078109E-17
7.600000E+03	7.166404E-17	2.077539E-17
7.610000E+03	7.167045E-17	2.076925E-17
7.620000E+03	7.167772E-17	2.076363E-17
7.630000E+03	7.168417E-17	2.075804E-17
7.640000E+03	7.168815E-17	2.075200E-17
7.650000E+03	7.169311E-17	2.074651E-17
7.660000E+03	7.169745E-17	2.074109E-17
7.670000E+03	7.170127E-17	2.073579E-17
7.680000E+03	7.170467E-17	2.073061E-17
7.690000E+03	7.170772E-17	2.072559E-17
7.700000E+03	7.171054E-17	2.072075E-17
7.710000E+03	7.171490E-17	2.071660E-17
7.720000E+03	7.171736E-17	2.071213E-17
7.730000E+03	7.172141E-17	2.070837E-17
7.740000E+03	7.172526E-17	2.070479E-17
7.750000E+03	7.172884E-17	2.070136E-17
7.760000E+03	7.173202E-17	2.069805E-17
