#wls	flux	fluxerr
1.600000E+03	1.661001E-17	1.680364E-17
1.640000E+03	1.390203E-17	1.407324E-17
1.680000E+03	1.139820E-17	1.154517E-17
1.720000E+03	9.092907E-18	9.214648E-18
1.760000E+03	6.981294E-18	7.077595E-18
1.800000E+03	5.058220E-18	5.129569E-18
1.840000E+03	3.316336E-18	3.363818E-18
1.880000E+03	1.750312E-18	1.775560E-18
1.920000E+03	3.532778E-19	3.583724E-19
1.960000E+03	-8.815246E-19	-8.941302E-19
2.000000E+03	-1.960760E-18	-1.988319E-18
2.040000E+03	-2.891236E-18	-2.930793E-18
2.080000E+03	-3.679653E-18	-3.728117E-18
2.120000E+03	-4.332371E-18	-4.386595E-18
2.160000E+03	-4.856847E-18	-4.913723E-18
2.200000E+03	-5.260068E-18	-5.316591E-18
2.240000E+03	-5.549910E-18	-5.603269E-18
2.280000E+03	-5.735565E-18	-5.783217E-18
2.320000E+03	-5.827452E-18	-5.867184E-18
2.360000E+03	-5.837179E-18	-5.867157E-18
2.400000E+03	-5.776569E-18	-5.795353E-18
2.440000E+03	-5.657055E-18	-5.663600E-18
2.480000E+03	-5.490116E-18	-5.483755E-18
2.520000E+03	-5.285607E-18	-5.266023E-18
2.560000E+03	-5.052879E-18	-5.020070E-18
2.600000E+03	-4.799684E-18	-4.753931E-18
2.640000E+03	-4.533075E-18	-4.474892E-18
2.680000E+03	-4.258906E-18	-4.189010E-18
2.720000E+03	-3.982283E-18	-3.901545E-18
2.760000E+03	-3.707591E-18	-3.616998E-18
2.800000E+03	-3.438427E-18	-3.339042E-18
2.840000E+03	-3.177798E-18	-3.070718E-18
2.880000E+03	-2.928302E-18	-2.814616E-18
2.920000E+03	-2.691800E-18	-2.572560E-18
2.960000E+03	-2.469985E-18	-2.346159E-18
3.000000E+03	-2.263817E-18	-2.136272E-18
3.010000E+03	-2.214867E-18	-2.086509E-18
3.020000E+03	-2.166910E-18	-2.037785E-18
3.030000E+03	-2.119947E-18	-1.990100E-18
3.040000E+03	-2.074075E-18	-1.943541E-18
3.050000E+03	-2.029240E-18	-1.898055E-18
3.060000E+03	-1.985438E-18	-1.853638E-18
3.070000E+03	-1.942706E-18	-1.810320E-18
3.080000E+03	-1.900993E-18	-1.768053E-18
3.090000E+03	-1.860296E-18	-1.726829E-18
3.100000E+03	-1.820682E-18	-1.686708E-18
3.110000E+03	-1.782064E-18	-1.647608E-18
3.120000E+03	-1.744471E-18	-1.609551E-18
3.130000E+03	-1.707856E-18	-1.572491E-18
3.140000E+03	-1.672312E-18	-1.536510E-18
3.150000E+03	-1.637723E-18	-1.501500E-18
3.160000E+03	-1.604112E-18	-1.467476E-18
3.170000E+03	-1.571496E-18	-1.434452E-18
3.180000E+03	-1.539860E-18	-1.402410E-18
3.190000E+03	-1.509132E-18	-1.371282E-18
3.200000E+03	-1.479385E-18	-1.341128E-18
3.210000E+03	-1.450546E-18	-1.311881E-18
3.220000E+03	-1.422629E-18	-1.283548E-18
3.230000E+03	-1.395593E-18	-1.256090E-18
3.240000E+03	-1.369450E-18	-1.229511E-18
3.250000E+03	-1.344182E-18	-1.203794E-18
3.260000E+03	-1.319776E-18	-1.178922E-18
3.270000E+03	-1.296193E-18	-1.154857E-18
3.280000E+03	-1.273441E-18	-1.131601E-18
3.290000E+03	-1.251505E-18	-1.109138E-18
3.300000E+03	-1.230350E-18	-1.087431E-18
3.310000E+03	-1.209981E-18	-1.066483E-18
3.320000E+03	-1.190364E-18	-1.046259E-18
3.330000E+03	-1.171504E-18	-1.026758E-18
3.340000E+03	-1.153369E-18	-1.007950E-18
3.350000E+03	-1.135943E-18	-9.898161E-19
3.360000E+03	-1.119215E-18	-9.723423E-19
3.370000E+03	-1.103170E-18	-9.555124E-19
3.380000E+03	-1.087795E-18	-9.393108E-19
3.390000E+03	-1.073061E-18	-9.237079E-19
3.400000E+03	-1.058970E-18	-9.087025E-19
3.410000E+03	-1.045481E-18	-8.942541E-19
3.420000E+03	-1.032609E-18	-8.803730E-19
3.430000E+03	-1.020313E-18	-8.670202E-19
3.440000E+03	-1.008583E-18	-8.541822E-19
3.450000E+03	-9.974060E-19	-8.418455E-19
3.460000E+03	-9.867576E-19	-8.299850E-19
3.470000E+03	-9.766396E-19	-8.185986E-19
3.480000E+03	-9.670277E-19	-8.076624E-19
3.490000E+03	-9.578981E-19	-7.971526E-19
3.500000E+03	-9.492404E-19	-7.870573E-19
3.510000E+03	-9.410318E-19	-7.773538E-19
3.520000E+03	-9.332738E-19	-7.680401E-19
3.530000E+03	-9.259206E-19	-7.590751E-19
3.540000E+03	-9.189747E-19	-7.504575E-19
3.550000E+03	-9.124139E-19	-7.421660E-19
3.560000E+03	-9.062291E-19	-7.341902E-19
3.570000E+03	-9.003877E-19	-7.265005E-19
3.580000E+03	-8.948708E-19	-7.190789E-19
3.590000E+03	-8.896787E-19	-7.119229E-19
3.600000E+03	-8.847710E-19	-7.049975E-19
3.610000E+03	-8.801489E-19	-6.983012E-19
3.620000E+03	-8.757926E-19	-6.918157E-19
3.630000E+03	-8.716733E-19	-6.855161E-19
3.640000E+03	-8.677720E-19	-6.793853E-19
3.650000E+03	-8.640798E-19	-6.734145E-19
3.660000E+03	-8.605689E-19	-6.675801E-19
3.670000E+03	-8.572394E-19	-6.618807E-19
3.680000E+03	-8.540551E-19	-6.562866E-19
3.690000E+03	-8.510073E-19	-6.507901E-19
3.700000E+03	-8.480783E-19	-6.453762E-19
3.710000E+03	-8.452595E-19	-6.400375E-19
3.720000E+03	-8.425254E-19	-6.347538E-19
3.730000E+03	-8.398674E-19	-6.295180E-19
3.740000E+03	-8.372692E-19	-6.243171E-19
3.750000E+03	-8.347235E-19	-6.191456E-19
3.760000E+03	-8.322147E-19	-6.139913E-19
3.770000E+03	-8.297352E-19	-6.088487E-19
3.780000E+03	-8.272708E-19	-6.037071E-19
3.790000E+03	-8.248071E-19	-5.985564E-19
3.800000E+03	-8.223551E-19	-5.934047E-19
3.810000E+03	-8.198853E-19	-5.882310E-19
3.820000E+03	-8.174020E-19	-5.830389E-19
3.830000E+03	-8.149094E-19	-5.778317E-19
3.840000E+03	-8.123885E-19	-5.725966E-19
3.850000E+03	-8.098382E-19	-5.673334E-19
3.860000E+03	-8.072644E-19	-5.620471E-19
3.870000E+03	-8.046670E-19	-5.567380E-19
3.880000E+03	-8.020466E-19	-5.514073E-19
3.890000E+03	-7.993975E-19	-5.460519E-19
3.900000E+03	-7.967297E-19	-5.406790E-19
3.910000E+03	-7.940471E-19	-5.352922E-19
3.920000E+03	-7.913544E-19	-5.298950E-19
3.930000E+03	-7.886574E-19	-5.244919E-19
3.940000E+03	-7.859630E-19	-5.190878E-19
3.950000E+03	-7.832870E-19	-5.136936E-19
3.960000E+03	-7.806382E-19	-5.083150E-19
3.970000E+03	-7.780197E-19	-5.029541E-19
3.980000E+03	-7.754579E-19	-4.976279E-19
3.990000E+03	-7.729578E-19	-4.923391E-19
4.000000E+03	-7.705402E-19	-4.871004E-19
4.010000E+03	-7.682202E-19	-4.819205E-19
4.020000E+03	-7.660071E-19	-4.768042E-19
4.030000E+03	-7.639318E-19	-4.717694E-19
4.040000E+03	-7.620058E-19	-4.668216E-19
4.050000E+03	-7.602557E-19	-4.619750E-19
4.060000E+03	-7.587023E-19	-4.572401E-19
4.070000E+03	-7.573678E-19	-4.526274E-19
4.080000E+03	-7.562754E-19	-4.481478E-19
4.090000E+03	-7.554561E-19	-4.438160E-19
4.100000E+03	-7.549298E-19	-4.396401E-19
4.110000E+03	-7.547238E-19	-4.356314E-19
4.120000E+03	-7.548799E-19	-4.318091E-19
4.130000E+03	-7.554158E-19	-4.281781E-19
4.140000E+03	-7.563699E-19	-4.247541E-19
4.150000E+03	-7.577766E-19	-4.215499E-19
4.160000E+03	-7.596713E-19	-4.185780E-19
4.170000E+03	-7.620919E-19	-4.158516E-19
4.180000E+03	-7.650784E-19	-4.133840E-19
4.190000E+03	-7.686732E-19	-4.111888E-19
4.200000E+03	-7.729202E-19	-4.092796E-19
4.210000E+03	-7.778667E-19	-4.076705E-19
4.220000E+03	-7.835624E-19	-4.063760E-19
4.230000E+03	-7.900520E-19	-4.054066E-19
4.240000E+03	-7.973896E-19	-4.047767E-19
4.250000E+03	-8.056392E-19	-4.045044E-19
4.260000E+03	-8.148594E-19	-4.046033E-19
4.270000E+03	-8.250954E-19	-4.050793E-19
4.280000E+03	-8.364149E-19	-4.059481E-19
4.290000E+03	-8.488778E-19	-4.072198E-19
4.300000E+03	-8.625413E-19	-4.089020E-19
4.310000E+03	-8.774579E-19	-4.109987E-19
4.320000E+03	-8.936645E-19	-4.135052E-19
4.330000E+03	-9.112092E-19	-4.164211E-19
4.340000E+03	-9.300901E-19	-4.197223E-19
4.350000E+03	-9.503130E-19	-4.233880E-19
4.360000E+03	-9.718341E-19	-4.273753E-19
4.370000E+03	-9.945734E-19	-4.316269E-19
4.380000E+03	-1.018385E-18	-4.360587E-19
4.390000E+03	-1.043060E-18	-4.405632E-19
4.400000E+03	-1.068271E-18	-4.449892E-19
4.410000E+03	-1.093584E-18	-4.491485E-19
4.420000E+03	-1.118409E-18	-4.528002E-19
4.430000E+03	-1.141989E-18	-4.556515E-19
4.440000E+03	-1.163397E-18	-4.573594E-19
4.450000E+03	-1.181456E-18	-4.575068E-19
4.460000E+03	-1.194733E-18	-4.556071E-19
4.470000E+03	-1.201496E-18	-4.510949E-19
4.480000E+03	-1.199618E-18	-4.433011E-19
4.490000E+03	-1.186591E-18	-4.314674E-19
4.500000E+03	-1.159418E-18	-4.147216E-19
4.510000E+03	-1.114548E-18	-3.920668E-19
4.520000E+03	-1.047823E-18	-3.623819E-19
4.530000E+03	-9.543935E-19	-3.244086E-19
4.540000E+03	-8.286354E-19	-2.767454E-19
4.550000E+03	-6.640663E-19	-2.178425E-19
4.560000E+03	-4.532589E-19	-1.459992E-19
4.570000E+03	-1.877727E-19	-5.936971E-20
4.580000E+03	1.419203E-19	4.403078E-20
4.590000E+03	5.465169E-19	1.663190E-19
4.600000E+03	1.037908E-18	3.097179E-19
4.610000E+03	1.629241E-18	4.765418E-19
4.620000E+03	2.334924E-18	6.691608E-19
4.630000E+03	3.170517E-18	8.899371E-19
4.640000E+03	4.152908E-18	1.141241E-18
4.650000E+03	5.299837E-18	1.425289E-18
4.660000E+03	6.630211E-18	1.744203E-18
4.670000E+03	8.163569E-18	2.099845E-18
4.680000E+03	9.919950E-18	2.493773E-18
4.690000E+03	1.191957E-17	2.927148E-18
4.700000E+03	1.418249E-17	3.400664E-18
4.710000E+03	1.672855E-17	3.914535E-18
4.720000E+03	1.957624E-17	4.468262E-18
4.730000E+03	2.274353E-17	5.060858E-18
4.740000E+03	2.624906E-17	5.691142E-18
4.750000E+03	3.011024E-17	6.357313E-18
4.760000E+03	3.434509E-17	7.057393E-18
4.770000E+03	3.896898E-17	7.788557E-18
4.780000E+03	4.399797E-17	8.547879E-18
4.790000E+03	4.944655E-17	9.331899E-18
4.800000E+03	5.532708E-17	1.013658E-17
4.810000E+03	6.165226E-17	1.095782E-17
4.820000E+03	6.843400E-17	1.179127E-17
4.830000E+03	7.568121E-17	1.263202E-17
4.840000E+03	8.340355E-17	1.347527E-17
4.850000E+03	9.160722E-17	1.431572E-17
4.860000E+03	1.002944E-16	1.514757E-17
4.870000E+03	1.094665E-16	1.596517E-17
4.880000E+03	1.191245E-16	1.676305E-17
4.890000E+03	1.292659E-16	1.753562E-17
4.900000E+03	1.398896E-16	1.827786E-17
4.910000E+03	1.509888E-16	1.898450E-17
4.920000E+03	1.625600E-16	1.965130E-17
4.930000E+03	1.745972E-16	2.027425E-17
4.940000E+03	1.870920E-16	2.084982E-17
4.950000E+03	2.000387E-16	2.137556E-17
4.960000E+03	2.134272E-16	2.184941E-17
4.970000E+03	2.272513E-16	2.227070E-17
4.980000E+03	2.414998E-16	2.263935E-17
4.990000E+03	2.561637E-16	2.295670E-17
5.000000E+03	2.712321E-16	2.322530E-17
5.010000E+03	2.867048E-16	2.345010E-17
5.020000E+03	3.025715E-16	2.363675E-17
5.030000E+03	3.188275E-16	2.379318E-17
5.040000E+03	3.354725E-16	2.392952E-17
5.050000E+03	3.524999E-16	2.405749E-17
5.060000E+03	3.699073E-16	2.419120E-17
5.070000E+03	3.876931E-16	2.434698E-17
5.080000E+03	4.058564E-16	2.454312E-17
5.090000E+03	4.243881E-16	2.479918E-17
5.100000E+03	4.432688E-16	2.513537E-17
5.110000E+03	4.624722E-16	2.557218E-17
5.120000E+03	4.819455E-16	2.612809E-17
5.130000E+03	5.016470E-16	2.681622E-17
5.140000E+03	5.215026E-16	2.764151E-17
5.150000E+03	5.414646E-16	2.860674E-17
5.160000E+03	5.614704E-16	2.971040E-17
5.170000E+03	5.814696E-16	3.094835E-17
5.180000E+03	6.014158E-16	3.231354E-17
5.190000E+03	6.212571E-16	3.379625E-17
5.200000E+03	6.409480E-16	3.538540E-17
5.210000E+03	6.604331E-16	3.706821E-17
5.220000E+03	6.796785E-16	3.883239E-17
5.230000E+03	6.986136E-16	4.066324E-17
5.240000E+03	7.171959E-16	4.254754E-17
5.250000E+03	7.353754E-16	4.447179E-17
5.260000E+03	7.531024E-16	4.642281E-17
5.270000E+03	7.703115E-16	4.838676E-17
5.280000E+03	7.869615E-16	5.035178E-17
5.290000E+03	8.029955E-16	5.230546E-17
5.300000E+03	8.183656E-16	5.423652E-17
5.310000E+03	8.330168E-16	5.613369E-17
5.320000E+03	8.469129E-16	5.798750E-17
5.330000E+03	8.599935E-16	5.978743E-17
5.340000E+03	8.722173E-16	6.152472E-17
5.350000E+03	8.835368E-16	6.319075E-17
5.360000E+03	8.939245E-16	6.477887E-17
5.370000E+03	9.033231E-16	6.628075E-17
5.380000E+03	9.117153E-16	6.769153E-17
5.390000E+03	9.190690E-16	6.900572E-17
5.400000E+03	9.253551E-16	7.021859E-17
5.410000E+03	9.305287E-16	7.132460E-17
5.420000E+03	9.345670E-16	7.232028E-17
5.430000E+03	9.374500E-16	7.320278E-17
5.440000E+03	9.391233E-16	7.396689E-17
5.450000E+03	9.395733E-16	7.461087E-17
5.460000E+03	9.387615E-16	7.513124E-17
5.470000E+03	9.366762E-16	7.552688E-17
5.480000E+03	9.333631E-16	7.580146E-17
5.490000E+03	9.288425E-16	7.595539E-17
5.500000E+03	9.232039E-16	7.599214E-17
5.510000E+03	9.165369E-16	7.591532E-17
5.520000E+03	9.089602E-16	7.573137E-17
5.530000E+03	9.005447E-16	7.544321E-17
5.540000E+03	8.913864E-16	7.505627E-17
5.550000E+03	8.815600E-16	7.457463E-17
5.560000E+03	8.711641E-16	7.400475E-17
5.570000E+03	8.602573E-16	7.335013E-17
5.580000E+03	8.489129E-16	7.261584E-17
5.590000E+03	8.371912E-16	7.180620E-17
5.600000E+03	8.251660E-16	7.092698E-17
5.610000E+03	8.128812E-16	6.998168E-17
5.620000E+03	8.003936E-16	6.897517E-17
5.630000E+03	7.877563E-16	6.791223E-17
5.640000E+03	7.750096E-16	6.679675E-17
5.650000E+03	7.621987E-16	6.563322E-17
5.660000E+03	7.493485E-16	6.442457E-17
5.670000E+03	7.364972E-16	6.317499E-17
5.680000E+03	7.236788E-16	6.188844E-17
5.690000E+03	7.109168E-16	6.056809E-17
5.700000E+03	6.982317E-16	5.921696E-17
5.710000E+03	6.856414E-16	5.783790E-17
5.720000E+03	6.731761E-16	5.643487E-17
5.730000E+03	6.608344E-16	5.500925E-17
5.740000E+03	6.486418E-16	5.356470E-17
5.750000E+03	6.366078E-16	5.210359E-17
5.760000E+03	6.247333E-16	5.062763E-17
5.770000E+03	6.130317E-16	4.913960E-17
5.780000E+03	6.015149E-16	4.764216E-17
5.790000E+03	5.901808E-16	4.613691E-17
5.800000E+03	5.790327E-16	4.462592E-17
5.810000E+03	5.680864E-16	4.311224E-17
5.820000E+03	5.573312E-16	4.159697E-17
5.830000E+03	5.467753E-16	4.008267E-17
5.840000E+03	5.364200E-16	3.857148E-17
5.850000E+03	5.262666E-16	3.706560E-17
5.860000E+03	5.163217E-16	3.556770E-17
5.870000E+03	5.065748E-16	3.407937E-17
5.880000E+03	4.970378E-16	3.260392E-17
5.890000E+03	4.877060E-16	3.114367E-17
5.900000E+03	4.785800E-16	2.970156E-17
5.910000E+03	4.696607E-16	2.828080E-17
5.920000E+03	4.609489E-16	2.688494E-17
5.930000E+03	4.524503E-16	2.551823E-17
5.940000E+03	4.441558E-16	2.418457E-17
5.950000E+03	4.360662E-16	2.288910E-17
5.960000E+03	4.281878E-16	2.163797E-17
5.970000E+03	4.205212E-16	2.043797E-17
5.980000E+03	4.130579E-16	1.929648E-17
5.990000E+03	4.058085E-16	1.822307E-17
6.000000E+03	3.987603E-16	1.722751E-17
6.010000E+03	3.919281E-16	1.632216E-17
6.020000E+03	3.852991E-16	1.551933E-17
6.030000E+03	3.788744E-16	1.483267E-17
6.040000E+03	3.726598E-16	1.427588E-17
6.050000E+03	3.666510E-16	1.386105E-17
6.060000E+03	3.608489E-16	1.359775E-17
6.070000E+03	3.552450E-16	1.349101E-17
6.080000E+03	3.498469E-16	1.353713E-17
6.090000E+03	3.446395E-16	1.372159E-17
6.100000E+03	3.396281E-16	1.402755E-17
6.110000E+03	3.348027E-16	1.443649E-17
6.120000E+03	3.301527E-16	1.493017E-17
6.130000E+03	3.256698E-16	1.549178E-17
6.140000E+03	3.213466E-16	1.610644E-17
6.150000E+03	3.171660E-16	1.676078E-17
6.160000E+03	3.131130E-16	1.744346E-17
6.170000E+03	3.091767E-16	1.814511E-17
6.180000E+03	3.053270E-16	1.885667E-17
6.190000E+03	3.015421E-16	1.957063E-17
6.200000E+03	2.978164E-16	2.028152E-17
6.210000E+03	2.941716E-16	2.098665E-17
6.220000E+03	2.906204E-16	2.168379E-17
6.230000E+03	2.871757E-16	2.237150E-17
6.240000E+03	2.838502E-16	2.304909E-17
6.250000E+03	2.806467E-16	2.371564E-17
6.260000E+03	2.775732E-16	2.437106E-17
6.270000E+03	2.746316E-16	2.501516E-17
6.280000E+03	2.718263E-16	2.564824E-17
6.290000E+03	2.691568E-16	2.627038E-17
6.300000E+03	2.666215E-16	2.688173E-17
6.310000E+03	2.642220E-16	2.748287E-17
6.320000E+03	2.619596E-16	2.807448E-17
6.330000E+03	2.598275E-16	2.865647E-17
6.340000E+03	2.578265E-16	2.922957E-17
6.350000E+03	2.559569E-16	2.979457E-17
6.360000E+03	2.542120E-16	3.035140E-17
6.370000E+03	2.525959E-16	3.090131E-17
6.380000E+03	2.511051E-16	3.144469E-17
6.390000E+03	2.497368E-16	3.198196E-17
6.400000E+03	2.484880E-16	3.251348E-17
6.410000E+03	2.473629E-16	3.304058E-17
6.420000E+03	2.463552E-16	3.356318E-17
6.430000E+03	2.454693E-16	3.408263E-17
6.440000E+03	2.447030E-16	3.459936E-17
6.450000E+03	2.440537E-16	3.511371E-17
6.460000E+03	2.435226E-16	3.562658E-17
6.470000E+03	2.431079E-16	3.613833E-17
6.480000E+03	2.428111E-16	3.664984E-17
6.490000E+03	2.426230E-16	3.716031E-17
6.500000E+03	2.425491E-16	3.767115E-17
6.510000E+03	2.425877E-16	3.818262E-17
6.520000E+03	2.427335E-16	3.869441E-17
6.530000E+03	2.429887E-16	3.920727E-17
6.540000E+03	2.433519E-16	3.972144E-17
6.550000E+03	2.438218E-16	4.023706E-17
6.560000E+03	2.443971E-16	4.075428E-17
6.570000E+03	2.450806E-16	4.127388E-17
6.580000E+03	2.458674E-16	4.179527E-17
6.590000E+03	2.467563E-16	4.231853E-17
6.600000E+03	2.477503E-16	4.284436E-17
6.610000E+03	2.488488E-16	4.337281E-17
6.620000E+03	2.500467E-16	4.390312E-17
6.630000E+03	2.513474E-16	4.443597E-17
6.640000E+03	2.527460E-16	4.497057E-17
6.650000E+03	2.542503E-16	4.550832E-17
6.660000E+03	2.558510E-16	4.604756E-17
6.670000E+03	2.575476E-16	4.658809E-17
6.680000E+03	2.593438E-16	4.713055E-17
6.690000E+03	2.612390E-16	4.767469E-17
6.700000E+03	2.632282E-16	4.821947E-17
6.710000E+03	2.653107E-16	4.876455E-17
6.720000E+03	2.674905E-16	4.931047E-17
6.730000E+03	2.697624E-16	4.985604E-17
6.740000E+03	2.721305E-16	5.040173E-17
6.750000E+03	2.745846E-16	5.094537E-17
6.760000E+03	2.771339E-16	5.148832E-17
6.770000E+03	2.797674E-16	5.202824E-17
6.780000E+03	2.824947E-16	5.256650E-17
6.790000E+03	2.853049E-16	5.310071E-17
6.800000E+03	2.882021E-16	5.363121E-17
6.810000E+03	2.911855E-16	5.415744E-17
6.820000E+03	2.942489E-16	5.467781E-17
6.830000E+03	2.973966E-16	5.519266E-17
6.840000E+03	3.006222E-16	5.570032E-17
6.850000E+03	3.039299E-16	5.620115E-17
6.860000E+03	3.073074E-16	5.669235E-17
6.870000E+03	3.107646E-16	5.717530E-17
6.880000E+03	3.142943E-16	5.764820E-17
6.890000E+03	3.178953E-16	5.811031E-17
6.900000E+03	3.215597E-16	5.855977E-17
6.910000E+03	3.252981E-16	5.899804E-17
6.920000E+03	3.290901E-16	5.942097E-17
6.930000E+03	3.329525E-16	5.983117E-17
6.940000E+03	3.368708E-16	6.022563E-17
6.950000E+03	3.408425E-16	6.060353E-17
6.960000E+03	3.448719E-16	6.096528E-17
6.970000E+03	3.489502E-16	6.130901E-17
6.980000E+03	3.530746E-16	6.163393E-17
6.990000E+03	3.572423E-16	6.193938E-17
7.000000E+03	3.614504E-16	6.222464E-17
7.010000E+03	3.656960E-16	6.248910E-17
7.020000E+03	3.699686E-16	6.273088E-17
7.030000E+03	3.742791E-16	6.295187E-17
7.040000E+03	3.786022E-16	6.314787E-17
7.050000E+03	3.829561E-16	6.332210E-17
7.060000E+03	3.873143E-16	6.347041E-17
7.070000E+03	3.916877E-16	6.359496E-17
7.080000E+03	3.960642E-16	6.369423E-17
7.090000E+03	4.004392E-16	6.376801E-17
7.100000E+03	4.048157E-16	6.381749E-17
7.110000E+03	4.091724E-16	6.384010E-17
7.120000E+03	4.135123E-16	6.383724E-17
7.130000E+03	4.178209E-16	6.380781E-17
7.140000E+03	4.221009E-16	6.375345E-17
7.150000E+03	4.263462E-16	6.367462E-17
7.160000E+03	4.305417E-16	6.357064E-17
7.170000E+03	4.346895E-16	6.344359E-17
7.180000E+03	4.387648E-16	6.329174E-17
7.190000E+03	4.427782E-16	6.311882E-17
7.200000E+03	4.467132E-16	6.292475E-17
7.210000E+03	4.505527E-16	6.270967E-17
7.220000E+03	4.542980E-16	6.247653E-17
7.230000E+03	4.579405E-16	6.222709E-17
7.240000E+03	4.614624E-16	6.196210E-17
7.250000E+03	4.648550E-16	6.168376E-17
7.260000E+03	4.681091E-16	6.139446E-17
7.270000E+03	4.712155E-16	6.109678E-17
7.280000E+03	4.741649E-16	6.079348E-17
7.290000E+03	4.769283E-16	6.048498E-17
7.300000E+03	4.795157E-16	6.017688E-17
7.310000E+03	4.819080E-16	5.987115E-17
7.320000E+03	4.840854E-16	5.956987E-17
7.330000E+03	4.860485E-16	5.927766E-17
7.340000E+03	4.877678E-16	5.899550E-17
7.350000E+03	4.892342E-16	5.872683E-17
7.360000E+03	4.904385E-16	5.847500E-17
7.370000E+03	4.913624E-16	5.824210E-17
7.380000E+03	4.920080E-16	5.803244E-17
7.390000E+03	4.923367E-16	5.784523E-17
7.400000E+03	4.923622E-16	5.768549E-17
7.410000E+03	4.920582E-16	5.755312E-17
7.420000E+03	4.914314E-16	5.745137E-17
7.430000E+03	4.904701E-16	5.738036E-17
7.440000E+03	4.891744E-16	5.733840E-17
7.450000E+03	4.875561E-16	5.732361E-17
7.460000E+03	4.856071E-16	5.733134E-17
7.470000E+03	4.833614E-16	5.736149E-17
7.480000E+03	4.808018E-16	5.740758E-17
7.490000E+03	4.779529E-16	5.746788E-17
7.500000E+03	4.748092E-16	5.753682E-17
7.510000E+03	4.714063E-16	5.761374E-17
7.520000E+03	4.677414E-16	5.769324E-17
7.530000E+03	4.638246E-16	5.777153E-17
7.540000E+03	4.596764E-16	5.784618E-17
7.550000E+03	4.553074E-16	5.791363E-17
7.560000E+03	4.507484E-16	5.797307E-17
7.570000E+03	4.459898E-16	5.801874E-17
7.580000E+03	4.410527E-16	5.804897E-17
7.590000E+03	4.359575E-16	5.806235E-17
7.600000E+03	4.307051E-16	5.805507E-17
7.610000E+03	4.253164E-16	5.802629E-17
7.620000E+03	4.197925E-16	5.797273E-17
7.630000E+03	4.141632E-16	5.789533E-17
7.640000E+03	4.084203E-16	5.779007E-17
7.650000E+03	4.025928E-16	5.765835E-17
7.660000E+03	3.966729E-16	5.749667E-17
