#wls	flux	fluxerr
1.600000E+03	-2.851064E-17	-7.348791E-17
1.640000E+03	-1.070718E-16	-2.757120E-16
1.680000E+03	-1.921107E-16	-4.941913E-16
1.720000E+03	-2.837121E-16	-7.290812E-16
1.760000E+03	-3.818325E-16	-9.802037E-16
1.800000E+03	-4.836430E-16	-1.239591E-15
1.840000E+03	-5.906769E-16	-1.511466E-15
1.880000E+03	-7.025892E-16	-1.794856E-15
1.920000E+03	-8.189688E-16	-2.088620E-15
1.960000E+03	-9.331649E-16	-2.374325E-15
2.000000E+03	-1.049204E-15	-2.663224E-15
2.040000E+03	-1.166374E-15	-2.953434E-15
2.080000E+03	-1.283461E-15	-3.241815E-15
2.120000E+03	-1.388794E-15	-3.496544E-15
2.160000E+03	-1.489984E-15	-3.738889E-15
2.200000E+03	-1.585410E-15	-3.964834E-15
2.240000E+03	-1.673162E-15	-4.169705E-15
2.280000E+03	-1.737566E-15	-4.311380E-15
2.320000E+03	-1.791191E-15	-4.424578E-15
2.360000E+03	-1.833955E-15	-4.509394E-15
2.400000E+03	-1.865987E-15	-4.566464E-15
2.440000E+03	-1.869715E-15	-4.549305E-15
2.480000E+03	-1.863388E-15	-4.507070E-15
2.520000E+03	-1.847394E-15	-4.441104E-15
2.560000E+03	-1.822489E-15	-4.353633E-15
2.600000E+03	-1.769679E-15	-4.195760E-15
2.640000E+03	-1.709973E-15	-4.022746E-15
2.680000E+03	-1.644122E-15	-3.836781E-15
2.720000E+03	-1.573009E-15	-3.640325E-15
2.760000E+03	-1.478380E-15	-3.387972E-15
2.800000E+03	-1.382053E-15	-3.135172E-15
2.840000E+03	-1.285117E-15	-2.884636E-15
2.880000E+03	-1.188584E-15	-2.638809E-15
2.920000E+03	-1.078323E-15	-2.363992E-15
2.960000E+03	-9.726730E-16	-2.104504E-15
3.000000E+03	-8.724153E-16	-1.861842E-15
3.010000E+03	-8.482628E-16	-1.803924E-15
3.020000E+03	-8.225304E-16	-1.742643E-15
3.030000E+03	-7.972750E-16	-1.682732E-15
3.040000E+03	-7.725152E-16	-1.624223E-15
3.050000E+03	-7.482358E-16	-1.567074E-15
3.060000E+03	-7.235536E-16	-1.509297E-15
3.070000E+03	-6.994283E-16	-1.453047E-15
3.080000E+03	-6.758301E-16	-1.398253E-15
3.090000E+03	-6.527870E-16	-1.344964E-15
3.100000E+03	-6.294543E-16	-1.291311E-15
3.110000E+03	-6.067000E-16	-1.239213E-15
3.120000E+03	-5.845439E-16	-1.188697E-15
3.130000E+03	-5.629578E-16	-1.139695E-15
3.140000E+03	-5.411787E-16	-1.090549E-15
3.150000E+03	-5.200102E-16	-1.042998E-15
3.160000E+03	-4.994540E-16	-9.970310E-16
3.170000E+03	-4.794956E-16	-9.526060E-16
3.180000E+03	-4.594293E-16	-9.082221E-16
3.190000E+03	-4.399967E-16	-8.654456E-16
3.200000E+03	-4.211836E-16	-8.242336E-16
3.210000E+03	-4.029905E-16	-7.845730E-16
3.220000E+03	-3.847633E-16	-7.451035E-16
3.230000E+03	-3.671701E-16	-7.072027E-16
3.240000E+03	-3.502143E-16	-6.708607E-16
3.250000E+03	-3.338726E-16	-6.360173E-16
3.260000E+03	-3.175506E-16	-6.014657E-16
3.270000E+03	-3.018508E-16	-5.684148E-16
3.280000E+03	-2.867624E-16	-5.368281E-16
3.290000E+03	-2.722727E-16	-5.066649E-16
3.300000E+03	-2.578100E-16	-4.767986E-16
3.310000E+03	-2.439392E-16	-4.483289E-16
3.320000E+03	-2.306319E-16	-4.211870E-16
3.330000E+03	-2.178712E-16	-3.953259E-16
3.340000E+03	-2.051326E-16	-3.697421E-16
3.350000E+03	-1.929264E-16	-3.453991E-16
3.360000E+03	-1.812299E-16	-3.222409E-16
3.370000E+03	-1.700185E-16	-3.002080E-16
3.380000E+03	-1.588076E-16	-2.784039E-16
3.390000E+03	-1.480637E-16	-2.576807E-16
3.400000E+03	-1.377643E-16	-2.379847E-16
3.410000E+03	-1.278853E-16	-2.192608E-16
3.420000E+03	-1.179788E-16	-2.007091E-16
3.430000E+03	-1.084727E-16	-1.830845E-16
3.440000E+03	-9.934413E-17	-1.663353E-16
3.450000E+03	-9.057207E-17	-1.504144E-16
3.460000E+03	-8.174104E-17	-1.346094E-16
3.470000E+03	-7.324430E-17	-1.195878E-16
3.480000E+03	-6.506282E-17	-1.053075E-16
3.490000E+03	-5.717634E-17	-9.172550E-17
3.500000E+03	-4.919816E-17	-7.820737E-17
3.510000E+03	-4.149541E-17	-6.535108E-17
3.520000E+03	-3.404888E-17	-5.311733E-17
3.530000E+03	-2.684134E-17	-4.147084E-17
3.540000E+03	-1.951284E-17	-2.984913E-17
3.550000E+03	-1.240608E-17	-1.878611E-17
3.560000E+03	-5.504911E-18	-8.250109E-18
3.570000E+03	1.205924E-18	1.788338E-18
3.580000E+03	8.056830E-18	1.181870E-17
3.590000E+03	1.473126E-17	2.137114E-17
3.600000E+03	2.124265E-17	3.047065E-17
3.610000E+03	2.760396E-17	3.914079E-17
3.620000E+03	3.410044E-17	4.777988E-17
3.630000E+03	4.045771E-17	5.600213E-17
3.640000E+03	4.668567E-17	6.382527E-17
3.650000E+03	5.279492E-17	7.126734E-17
3.660000E+03	5.902582E-17	7.864217E-17
3.670000E+03	6.514531E-17	8.564166E-17
3.680000E+03	7.116080E-17	9.227833E-17
3.690000E+03	7.708088E-17	9.856574E-17
3.700000E+03	8.310385E-17	1.047437E-16
3.710000E+03	8.903532E-17	1.105727E-16
3.720000E+03	9.488100E-17	1.160616E-16
3.730000E+03	1.006486E-16	1.212214E-16
3.740000E+03	1.064958E-16	1.262267E-16
3.750000E+03	1.122656E-16	1.308989E-16
3.760000E+03	1.179626E-16	1.352445E-16
3.770000E+03	1.235919E-16	1.392701E-16
3.780000E+03	1.292749E-16	1.430984E-16
3.790000E+03	1.348898E-16	1.466020E-16
3.800000E+03	1.404381E-16	1.497833E-16
3.810000E+03	1.459245E-16	1.526478E-16
3.820000E+03	1.514343E-16	1.552748E-16
3.830000E+03	1.568790E-16	1.575786E-16
3.840000E+03	1.622607E-16	1.595621E-16
3.850000E+03	1.675803E-16	1.612264E-16
3.860000E+03	1.728895E-16	1.626206E-16
3.870000E+03	1.781334E-16	1.636918E-16
3.880000E+03	1.833115E-16	1.644403E-16
3.890000E+03	1.884259E-16	1.648688E-16
3.900000E+03	1.934901E-16	1.650047E-16
3.910000E+03	1.984837E-16	1.648169E-16
3.920000E+03	2.034047E-16	1.643049E-16
3.930000E+03	2.082557E-16	1.634721E-16
3.940000E+03	2.130138E-16	1.623458E-16
3.950000E+03	2.176927E-16	1.608983E-16
3.960000E+03	2.222893E-16	1.591293E-16
3.970000E+03	2.268014E-16	1.570395E-16
3.980000E+03	2.311774E-16	1.546913E-16
3.990000E+03	2.354573E-16	1.520274E-16
4.000000E+03	2.396404E-16	1.490505E-16
4.010000E+03	2.437235E-16	1.457622E-16
4.020000E+03	2.476193E-16	1.423082E-16
4.030000E+03	2.514018E-16	1.385559E-16
4.040000E+03	2.550670E-16	1.345082E-16
4.050000E+03	2.586132E-16	1.301693E-16
4.060000E+03	2.619212E-16	1.258786E-16
4.070000E+03	2.650919E-16	1.213195E-16
4.080000E+03	2.681275E-16	1.164996E-16
4.090000E+03	2.710196E-16	1.114222E-16
4.100000E+03	2.736198E-16	1.068670E-16
4.110000E+03	2.760620E-16	1.020947E-16
4.120000E+03	2.783444E-16	9.711235E-17
4.130000E+03	2.804620E-16	9.192638E-17
4.140000E+03	2.822330E-16	8.829417E-17
4.150000E+03	2.838232E-16	8.451670E-17
4.160000E+03	2.852275E-16	8.059958E-17
4.170000E+03	2.864436E-16	7.654952E-17
4.180000E+03	2.872755E-16	7.572422E-17
4.190000E+03	2.879015E-16	7.482988E-17
4.200000E+03	2.883166E-16	7.386740E-17
4.210000E+03	2.885166E-16	7.283781E-17
4.220000E+03	2.883312E-16	7.573388E-17
4.230000E+03	2.879170E-16	7.858870E-17
4.240000E+03	2.872699E-16	8.139427E-17
4.250000E+03	2.863836E-16	8.414159E-17
4.260000E+03	2.850799E-16	8.935342E-17
4.270000E+03	2.835269E-16	9.447516E-17
4.280000E+03	2.817216E-16	9.949080E-17
4.290000E+03	2.796621E-16	1.043841E-16
4.300000E+03	2.771447E-16	1.101394E-16
4.310000E+03	2.743686E-16	1.157127E-16
4.320000E+03	2.713298E-16	1.210825E-16
4.330000E+03	2.680299E-16	1.262292E-16
4.340000E+03	2.642532E-16	1.313467E-16
4.350000E+03	2.602228E-16	1.361804E-16
4.360000E+03	2.559378E-16	1.407083E-16
4.370000E+03	2.514090E-16	1.449144E-16
4.380000E+03	2.464157E-16	1.486356E-16
4.390000E+03	2.412010E-16	1.519900E-16
4.400000E+03	2.357831E-16	1.549695E-16
4.410000E+03	2.301814E-16	1.575687E-16
4.420000E+03	2.241831E-16	1.594689E-16
4.430000E+03	2.180454E-16	1.609781E-16
4.440000E+03	2.117929E-16	1.621011E-16
4.450000E+03	2.054444E-16	1.628409E-16
4.460000E+03	1.987794E-16	1.628037E-16
4.470000E+03	1.920651E-16	1.623991E-16
4.480000E+03	1.853146E-16	1.616319E-16
4.490000E+03	1.785495E-16	1.605160E-16
4.500000E+03	1.715460E-16	1.586288E-16
4.510000E+03	1.645620E-16	1.564193E-16
4.520000E+03	1.576086E-16	1.538979E-16
4.530000E+03	1.506976E-16	1.510761E-16
4.540000E+03	1.436674E-16	1.475906E-16
4.550000E+03	1.367022E-16	1.438386E-16
4.560000E+03	1.298122E-16	1.398338E-16
4.570000E+03	1.230018E-16	1.355848E-16
4.580000E+03	1.162008E-16	1.308443E-16
4.590000E+03	1.094943E-16	1.258989E-16
4.600000E+03	1.028856E-16	1.207577E-16
4.610000E+03	9.637618E-17	1.154279E-16
4.620000E+03	8.998180E-17	1.097942E-16
4.630000E+03	8.369257E-17	1.040092E-16
4.640000E+03	7.750890E-17	9.807907E-17
4.650000E+03	7.143058E-17	9.200959E-17
4.660000E+03	6.555606E-17	8.583029E-17
4.670000E+03	5.978721E-17	7.954609E-17
4.680000E+03	5.412206E-17	7.316012E-17
4.690000E+03	4.855847E-17	6.667519E-17
4.700000E+03	4.327662E-17	6.027684E-17
4.710000E+03	3.809349E-17	5.381100E-17
4.720000E+03	3.300662E-17	4.727938E-17
4.730000E+03	2.801357E-17	4.068355E-17
4.740000E+03	2.337285E-17	3.436989E-17
4.750000E+03	1.882117E-17	2.802019E-17
4.760000E+03	1.435623E-17	2.163547E-17
4.770000E+03	9.975809E-18	1.521667E-17
4.780000E+03	6.054312E-18	9.335799E-18
4.790000E+03	2.210853E-18	3.446011E-18
4.800000E+03	-1.556417E-18	-2.451932E-18
4.810000E+03	-5.249143E-18	-8.357056E-18
4.820000E+03	-8.419073E-18	-1.353037E-17
4.830000E+03	-1.152151E-17	-1.868961E-17
4.840000E+03	-1.455751E-17	-2.383357E-17
4.850000E+03	-1.752761E-17	-2.896026E-17
4.860000E+03	-2.002272E-17	-3.335059E-17
4.870000E+03	-2.245745E-17	-3.770639E-17
4.880000E+03	-2.483234E-17	-4.202619E-17
4.890000E+03	-2.714680E-17	-4.630662E-17
4.900000E+03	-2.903612E-17	-4.986896E-17
4.910000E+03	-3.086937E-17	-5.337853E-17
4.920000E+03	-3.264668E-17	-5.683361E-17
4.930000E+03	-3.436752E-17	-6.023130E-17
4.940000E+03	-3.570662E-17	-6.293546E-17
4.950000E+03	-3.699227E-17	-6.557159E-17
4.960000E+03	-3.822445E-17	-6.813799E-17
4.970000E+03	-3.940323E-17	-7.063318E-17
4.980000E+03	-4.023895E-17	-7.246611E-17
4.990000E+03	-4.102375E-17	-7.422060E-17
5.000000E+03	-4.175784E-17	-7.589576E-17
5.010000E+03	-4.244106E-17	-7.749002E-17
5.020000E+03	-4.281756E-17	-7.846203E-17
5.030000E+03	-4.314650E-17	-7.935133E-17
5.040000E+03	-4.342794E-17	-8.015707E-17
5.050000E+03	-4.366195E-17	-8.087840E-17
5.060000E+03	-4.362372E-17	-8.102542E-17
5.070000E+03	-4.354170E-17	-8.109023E-17
5.080000E+03	-4.341657E-17	-8.107346E-17
5.090000E+03	-4.324775E-17	-8.097338E-17
5.100000E+03	-4.283835E-17	-8.035114E-17
5.110000E+03	-4.238951E-17	-7.965182E-17
5.120000E+03	-4.190173E-17	-7.887596E-17
5.130000E+03	-4.137553E-17	-7.802418E-17
5.140000E+03	-4.063675E-17	-7.670328E-17
5.150000E+03	-3.986344E-17	-7.531438E-17
5.160000E+03	-3.905674E-17	-7.385949E-17
5.170000E+03	-3.821668E-17	-7.233847E-17
5.180000E+03	-3.718823E-17	-7.040030E-17
5.190000E+03	-3.613064E-17	-6.840647E-17
5.200000E+03	-3.504501E-17	-6.635903E-17
5.210000E+03	-3.393243E-17	-6.426006E-17
5.220000E+03	-3.265158E-17	-6.179288E-17
5.230000E+03	-3.134735E-17	-5.928480E-17
5.240000E+03	-3.002192E-17	-5.674005E-17
5.250000E+03	-2.867606E-17	-5.416015E-17
5.260000E+03	-2.717824E-17	-5.125717E-17
5.270000E+03	-2.566457E-17	-4.833267E-17
5.280000E+03	-2.413763E-17	-4.539158E-17
5.290000E+03	-2.259965E-17	-4.243818E-17
5.300000E+03	-2.092231E-17	-3.920216E-17
5.310000E+03	-1.923928E-17	-3.596953E-17
5.320000E+03	-1.755353E-17	-3.274582E-17
5.330000E+03	-1.586878E-17	-2.953798E-17
5.337210E+03	-1.996912E-17	-3.709928E-17
5.338211E+03	-1.995652E-17	-3.706602E-17
5.338411E+03	-1.999405E-17	-3.713374E-17
5.338811E+03	-2.001572E-17	-3.717005E-17
5.339811E+03	-1.998914E-17	-3.711045E-17
5.341011E+03	-1.994347E-17	-3.701340E-17
5.341211E+03	-1.997417E-17	-3.706832E-17
5.341411E+03	-2.000368E-17	-3.712104E-17
5.342011E+03	-2.000125E-17	-3.711032E-17
5.342211E+03	-2.003009E-17	-3.716174E-17
5.342411E+03	-2.005710E-17	-3.720978E-17
5.342611E+03	-2.008575E-17	-3.726084E-17
5.343012E+03	-2.009206E-17	-3.726831E-17
5.344812E+03	-1.996111E-17	-3.700644E-17
5.345212E+03	-1.996223E-17	-3.700431E-17
5.347012E+03	-1.981186E-17	-3.670674E-17
5.347212E+03	-1.982930E-17	-3.673692E-17
5.348413E+03	-1.973054E-17	-3.654113E-17
5.349812E+03	-1.959989E-17	-3.628434E-17
5.350412E+03	-1.956223E-17	-3.620829E-17
5.350612E+03	-1.957302E-17	-3.622611E-17
5.350812E+03	-1.958335E-17	-3.624309E-17
5.351012E+03	-1.959252E-17	-3.625791E-17
5.351212E+03	-1.960081E-17	-3.627112E-17
5.351412E+03	-1.960725E-17	-3.628087E-17
5.351612E+03	-1.961258E-17	-3.628857E-17
5.351812E+03	-1.961734E-17	-3.629523E-17
5.352212E+03	-1.959362E-17	-3.624703E-17
5.352612E+03	-1.956847E-17	-3.619616E-17
5.353012E+03	-1.954198E-17	-3.614282E-17
5.353412E+03	-1.951369E-17	-3.608618E-17
5.353612E+03	-1.951323E-17	-3.608317E-17
5.353813E+03	-1.951131E-17	-3.607742E-17
5.354013E+03	-1.950876E-17	-3.607052E-17
5.354213E+03	-1.950536E-17	-3.606206E-17
5.355413E+03	-1.934960E-17	-3.576108E-17
5.356013E+03	-1.928172E-17	-3.562910E-17
5.356213E+03	-1.927389E-17	-3.561245E-17
5.356413E+03	-1.926435E-17	-3.559265E-17
5.356813E+03	-1.922323E-17	-3.551234E-17
5.357213E+03	-1.918139E-17	-3.543067E-17
5.357613E+03	-1.913742E-17	-3.534508E-17
5.358813E+03	-1.895473E-17	-3.499469E-17
5.359013E+03	-1.893920E-17	-3.496386E-17
5.359614E+03	-1.885445E-17	-3.480085E-17
5.360014E+03	-1.880387E-17	-3.470314E-17
5.360214E+03	-1.878731E-17	-3.467040E-17
5.361614E+03	-1.854808E-17	-3.421391E-17
5.362213E+03	-1.845136E-17	-3.402902E-17
5.362413E+03	-1.842660E-17	-3.398120E-17
5.363013E+03	-1.832458E-17	-3.378663E-17
5.363613E+03	-1.821967E-17	-3.358678E-17
5.363813E+03	-1.819118E-17	-3.353212E-17
5.364413E+03	-1.808404E-17	-3.332819E-17
5.364614E+03	-1.805667E-17	-3.327560E-17
5.365814E+03	-1.781915E-17	-3.282523E-17
5.366414E+03	-1.770142E-17	-3.260199E-17
5.366614E+03	-1.766689E-17	-3.253627E-17
5.366814E+03	-1.763396E-17	-3.247351E-17
5.367614E+03	-1.747109E-17	-3.216521E-17
5.368414E+03	-1.730341E-17	-3.184812E-17
5.368614E+03	-1.726753E-17	-3.177999E-17
5.369614E+03	-1.704903E-17	-3.136753E-17
5.369814E+03	-1.701058E-17	-3.129474E-17
5.370015E+03	-1.697067E-17	-3.121923E-17
5.370415E+03	-1.688358E-17	-3.105491E-17
5.371015E+03	-1.674736E-17	-3.079820E-17
5.371215E+03	-1.670474E-17	-3.071778E-17
5.371815E+03	-1.656424E-17	-3.045330E-17
5.372015E+03	-1.651918E-17	-3.036842E-17
5.372215E+03	-1.647342E-17	-3.028227E-17
5.372815E+03	-1.632773E-17	-3.000842E-17
5.373815E+03	-1.607771E-17	-2.953893E-17
5.374214E+03	-1.597650E-17	-2.934901E-17
5.374414E+03	-1.592554E-17	-2.925342E-17
5.374614E+03	-1.587020E-17	-2.914981E-17
5.374814E+03	-1.581565E-17	-2.904762E-17
5.375014E+03	-1.575865E-17	-2.894096E-17
5.375615E+03	-1.559743E-17	-2.863901E-17
5.375815E+03	-1.553954E-17	-2.853077E-17
5.376415E+03	-1.537592E-17	-2.822455E-17
5.376615E+03	-1.531881E-17	-2.811779E-17
5.376815E+03	-1.525704E-17	-2.800250E-17
5.377015E+03	-1.519806E-17	-2.789232E-17
5.377215E+03	-1.513550E-17	-2.777558E-17
5.377615E+03	-1.501896E-17	-2.755790E-17
5.378615E+03	-1.473598E-17	-2.702930E-17
5.379815E+03	-1.439246E-17	-2.638821E-17
5.380415E+03	-1.421049E-17	-2.604907E-17
5.380816E+03	-1.408586E-17	-2.581696E-17
5.382016E+03	-1.372587E-17	-2.514654E-17
5.382616E+03	-1.353914E-17	-2.479920E-17
5.382816E+03	-1.346833E-17	-2.466775E-17
5.383416E+03	-1.327827E-17	-2.431446E-17
5.384016E+03	-1.308768E-17	-2.396033E-17
5.384216E+03	-1.301642E-17	-2.382818E-17
5.384416E+03	-1.294232E-17	-2.369083E-17
5.385016E+03	-1.274427E-17	-2.332327E-17
5.385216E+03	-1.266809E-17	-2.318219E-17
5.386016E+03	-1.240620E-17	-2.269642E-17
5.386616E+03	-1.220565E-17	-2.232466E-17
5.387816E+03	-1.180707E-17	-2.158623E-17
5.388216E+03	-1.166351E-17	-2.132067E-17
5.388416E+03	-1.158420E-17	-2.117416E-17
5.388616E+03	-1.150402E-17	-2.102607E-17
5.388816E+03	-1.142419E-17	-2.087862E-17
5.389816E+03	-1.108140E-17	-2.024473E-17
5.390016E+03	-1.099940E-17	-2.009343E-17
5.390216E+03	-1.091714E-17	-1.994169E-17
5.390616E+03	-1.076854E-17	-1.966734E-17
5.390816E+03	-1.068506E-17	-1.951344E-17
5.391617E+03	-1.039940E-17	-1.898614E-17
5.391817E+03	-1.031587E-17	-1.883223E-17
5.392617E+03	-1.002427E-17	-1.829444E-17
5.392817E+03	-9.939008E-18	-1.813749E-17
5.393217E+03	-9.784628E-18	-1.785310E-17
5.393417E+03	-9.699105E-18	-1.769572E-17
5.393617E+03	-9.611731E-18	-1.753500E-17
5.394417E+03	-9.316348E-18	-1.699102E-17
5.394617E+03	-9.230447E-18	-1.683309E-17
5.394817E+03	-9.143955E-18	-1.667410E-17
5.395017E+03	-9.056416E-18	-1.651322E-17
5.395217E+03	-8.967982E-18	-1.635074E-17
5.395817E+03	-8.737664E-18	-1.592720E-17
5.396017E+03	-8.648452E-18	-1.576339E-17
5.396417E+03	-8.487948E-18	-1.546849E-17
5.396617E+03	-8.398120E-18	-1.530362E-17
5.396817E+03	-8.308801E-18	-1.513971E-17
5.397218E+03	-8.147818E-18	-1.484411E-17
5.397417E+03	-8.058553E-18	-1.468036E-17
5.397618E+03	-7.968093E-18	-1.451446E-17
5.397818E+03	-7.878549E-18	-1.435025E-17
5.398017E+03	-7.787755E-18	-1.418379E-17
5.398417E+03	-7.625527E-18	-1.388619E-17
5.398817E+03	-7.462948E-18	-1.358805E-17
5.399217E+03	-7.300040E-18	-1.328940E-17
5.399817E+03	-7.061613E-18	-1.285237E-17
5.400017E+03	-6.970466E-18	-1.268550E-17
5.400617E+03	-6.731448E-18	-1.224767E-17
5.400817E+03	-6.640445E-18	-1.208116E-17
5.401417E+03	-6.399848E-18	-1.164071E-17
5.401617E+03	-6.308542E-18	-1.147374E-17
5.401817E+03	-6.217340E-18	-1.130698E-17
5.402818E+03	-5.825183E-18	-1.058966E-17
5.403018E+03	-5.733875E-18	-1.042285E-17
5.403218E+03	-5.642619E-18	-1.025616E-17
5.403818E+03	-5.399565E-18	-9.812065E-18
5.404418E+03	-5.156033E-18	-9.367309E-18
5.404618E+03	-5.063703E-18	-9.198838E-18
5.406018E+03	-4.508667E-18	-8.185999E-18
5.406218E+03	-4.417756E-18	-8.020305E-18
5.406418E+03	-4.326836E-18	-7.854620E-18
5.406618E+03	-4.235067E-18	-7.687414E-18
5.406818E+03	-4.144252E-18	-7.521966E-18
5.407819E+03	-3.740615E-18	-6.786633E-18
5.408019E+03	-3.650056E-18	-6.621801E-18
5.408419E+03	-3.480898E-18	-6.313904E-18
5.408619E+03	-3.390911E-18	-6.150183E-18
5.409219E+03	-3.143279E-18	-5.699669E-18
5.409419E+03	-3.053581E-18	-5.536575E-18
5.409619E+03	-2.964278E-18	-5.374220E-18
5.409819E+03	-2.874852E-18	-5.211671E-18
5.410019E+03	-2.786015E-18	-5.050213E-18
5.410218E+03	-2.697880E-18	-4.890058E-18
5.410418E+03	-2.609251E-18	-4.729028E-18
5.410618E+03	-2.521172E-18	-4.569021E-18
5.411218E+03	-2.276663E-18	-4.124901E-18
5.411418E+03	-2.189600E-18	-3.966835E-18
5.411818E+03	-2.023832E-18	-3.665918E-18
5.412018E+03	-1.937531E-18	-3.509307E-18
5.412618E+03	-1.693704E-18	-3.066928E-18
5.413219E+03	-1.449750E-18	-2.624535E-18
5.413819E+03	-1.205876E-18	-2.182502E-18
5.414019E+03	-1.121582E-18	-2.029771E-18
5.414219E+03	-1.037732E-18	-1.877869E-18
5.414619E+03	-8.750299E-19	-1.583184E-18
5.414819E+03	-7.918598E-19	-1.432586E-18
5.415019E+03	-7.092932E-19	-1.283105E-18
5.416019E+03	-3.094557E-19	-5.595696E-19
5.417219E+03	1.714710E-19	3.099057E-19
5.417419E+03	2.512095E-19	4.539819E-19
5.417819E+03	4.109001E-19	7.424473E-19
5.418620E+03	7.315874E-19	1.321447E-18
5.418820E+03	8.088741E-19	1.460925E-18
5.419020E+03	8.856836E-19	1.599517E-18
5.419620E+03	1.123130E-18	2.027823E-18
5.419820E+03	1.198429E-18	2.163594E-18
5.420020E+03	1.273119E-18	2.298241E-18
5.420220E+03	1.347197E-18	2.431760E-18
5.420620E+03	1.500809E-18	2.708577E-18
5.421820E+03	1.975923E-18	3.564215E-18
5.422619E+03	2.288715E-18	4.127031E-18
5.422819E+03	2.358062E-18	4.251713E-18
5.423020E+03	2.426938E-18	4.375522E-18
5.423219E+03	2.494242E-18	4.496481E-18
5.423419E+03	2.561546E-18	4.617416E-18
5.423619E+03	2.628189E-18	4.737139E-18
5.423820E+03	2.694275E-18	4.855833E-18
5.424220E+03	2.839455E-18	5.116606E-18
5.424420E+03	2.903212E-18	5.231044E-18
5.424620E+03	2.966150E-18	5.343984E-18
5.424820E+03	3.028282E-18	5.455452E-18
5.425220E+03	3.168554E-18	5.707163E-18
5.425620E+03	3.307683E-18	5.956729E-18
5.425820E+03	3.367088E-18	6.063184E-18
5.426020E+03	3.425803E-18	6.168377E-18
5.426220E+03	3.483680E-18	6.272043E-18
5.426620E+03	3.618595E-18	6.513810E-18
5.426820E+03	3.674702E-18	6.614230E-18
5.427020E+03	3.730107E-18	6.713369E-18
5.427620E+03	3.938977E-18	7.087429E-18
5.428220E+03	4.146327E-18	7.458559E-18
5.428420E+03	4.197175E-18	7.549362E-18
5.428820E+03	4.324027E-18	7.776157E-18
5.429421E+03	4.526821E-18	8.138701E-18
5.429821E+03	4.651571E-18	8.361514E-18
5.430221E+03	4.774859E-18	8.581609E-18
5.430421E+03	4.820375E-18	8.662645E-18
5.431421E+03	5.169180E-18	9.285358E-18
5.432021E+03	5.362674E-18	9.630365E-18
5.432221E+03	5.401629E-18	9.699453E-18
5.433021E+03	5.667980E-18	1.017409E-17
5.433221E+03	5.703749E-18	1.023738E-17
5.433421E+03	5.738577E-18	1.029897E-17
5.433621E+03	5.772603E-18	1.035910E-17
5.434421E+03	6.030532E-18	1.081807E-17
