#wls	flux	fluxerr
1.600000E+03	1.299774E-16	0.000000E+00
1.640000E+03	1.347057E-16	0.000000E+00
1.680000E+03	1.393680E-16	0.000000E+00
1.720000E+03	1.439244E-16	0.000000E+00
1.760000E+03	1.483448E-16	0.000000E+00
1.800000E+03	1.525799E-16	0.000000E+00
1.840000E+03	1.565910E-16	0.000000E+00
1.880000E+03	1.603347E-16	0.000000E+00
1.920000E+03	1.637499E-16	0.000000E+00
1.960000E+03	1.667867E-16	0.000000E+00
2.000000E+03	1.693930E-16	0.000000E+00
2.040000E+03	1.715149E-16	0.000000E+00
2.080000E+03	1.730859E-16	0.000000E+00
2.120000E+03	1.740547E-16	0.000000E+00
2.160000E+03	1.743497E-16	0.000000E+00
2.200000E+03	1.739082E-16	0.000000E+00
2.240000E+03	1.726359E-16	0.000000E+00
2.280000E+03	1.704617E-16	0.000000E+00
2.320000E+03	1.674466E-16	0.000000E+00
2.360000E+03	1.636878E-16	0.000000E+00
2.400000E+03	1.592568E-16	0.000000E+00
2.440000E+03	1.542048E-16	0.000000E+00
2.480000E+03	1.485774E-16	0.000000E+00
2.520000E+03	1.424311E-16	0.000000E+00
2.560000E+03	1.358131E-16	0.000000E+00
2.600000E+03	1.287894E-16	0.000000E+00
2.640000E+03	1.214195E-16	0.000000E+00
2.680000E+03	1.137628E-16	0.000000E+00
2.720000E+03	1.058966E-16	0.000000E+00
2.760000E+03	9.789383E-17	0.000000E+00
2.800000E+03	8.983299E-17	0.000000E+00
2.840000E+03	8.179476E-17	0.000000E+00
2.880000E+03	7.386607E-17	0.000000E+00
2.920000E+03	6.614649E-17	0.000000E+00
2.960000E+03	5.874344E-17	0.000000E+00
3.000000E+03	5.174898E-17	0.000000E+00
3.010000E+03	5.007263E-17	0.000000E+00
3.020000E+03	4.842911E-17	0.000000E+00
3.030000E+03	4.681653E-17	0.000000E+00
3.040000E+03	4.523657E-17	0.000000E+00
3.050000E+03	4.369162E-17	0.000000E+00
3.060000E+03	4.218002E-17	0.000000E+00
3.070000E+03	4.070401E-17	0.000000E+00
3.080000E+03	3.926377E-17	0.000000E+00
3.090000E+03	3.785952E-17	0.000000E+00
3.100000E+03	3.649143E-17	0.000000E+00
3.110000E+03	3.516112E-17	0.000000E+00
3.120000E+03	3.386784E-17	0.000000E+00
3.130000E+03	3.261226E-17	0.000000E+00
3.140000E+03	3.139424E-17	0.000000E+00
3.150000E+03	3.021365E-17	0.000000E+00
3.160000E+03	2.907085E-17	0.000000E+00
3.170000E+03	2.796602E-17	0.000000E+00
3.180000E+03	2.689772E-17	0.000000E+00
3.190000E+03	2.586704E-17	0.000000E+00
3.200000E+03	2.487291E-17	0.000000E+00
3.210000E+03	2.391517E-17	0.000000E+00
3.220000E+03	2.299313E-17	0.000000E+00
3.230000E+03	2.210572E-17	0.000000E+00
3.240000E+03	2.125328E-17	0.000000E+00
3.250000E+03	2.043393E-17	0.000000E+00
3.260000E+03	1.964785E-17	0.000000E+00
3.270000E+03	1.889411E-17	0.000000E+00
3.280000E+03	1.817122E-17	0.000000E+00
3.290000E+03	1.747909E-17	0.000000E+00
3.300000E+03	1.681623E-17	0.000000E+00
3.310000E+03	1.618196E-17	0.000000E+00
3.320000E+03	1.557533E-17	0.000000E+00
3.330000E+03	1.499558E-17	0.000000E+00
3.340000E+03	1.444154E-17	0.000000E+00
3.350000E+03	1.391229E-17	0.000000E+00
3.360000E+03	1.340690E-17	0.000000E+00
3.370000E+03	1.292463E-17	0.000000E+00
3.380000E+03	1.246441E-17	0.000000E+00
3.390000E+03	1.202539E-17	0.000000E+00
3.400000E+03	1.160671E-17	0.000000E+00
3.410000E+03	1.120742E-17	0.000000E+00
3.420000E+03	1.082672E-17	0.000000E+00
3.430000E+03	1.046387E-17	0.000000E+00
3.440000E+03	1.011801E-17	0.000000E+00
3.450000E+03	9.788435E-18	0.000000E+00
3.460000E+03	9.474381E-18	0.000000E+00
3.470000E+03	9.175099E-18	0.000000E+00
3.480000E+03	8.889889E-18	0.000000E+00
3.490000E+03	8.617991E-18	0.000000E+00
3.500000E+03	8.358884E-18	0.000000E+00
3.510000E+03	8.111882E-18	0.000000E+00
3.520000E+03	7.876266E-18	0.000000E+00
3.530000E+03	7.651288E-18	0.000000E+00
3.540000E+03	7.436499E-18	0.000000E+00
3.550000E+03	7.231246E-18	0.000000E+00
3.560000E+03	7.034788E-18	0.000000E+00
3.570000E+03	6.846659E-18	0.000000E+00
3.580000E+03	6.666359E-18	0.000000E+00
3.590000E+03	6.493360E-18	0.000000E+00
3.600000E+03	6.327118E-18	0.000000E+00
3.610000E+03	6.167367E-18	0.000000E+00
3.620000E+03	6.013735E-18	0.000000E+00
3.630000E+03	5.865875E-18	0.000000E+00
3.640000E+03	5.723719E-18	0.000000E+00
3.650000E+03	5.587029E-18	0.000000E+00
3.660000E+03	5.455622E-18	0.000000E+00
3.670000E+03	5.329363E-18	0.000000E+00
3.680000E+03	5.208109E-18	0.000000E+00
3.690000E+03	5.091669E-18	0.000000E+00
3.700000E+03	4.979982E-18	0.000000E+00
3.710000E+03	4.872809E-18	0.000000E+00
3.720000E+03	4.770041E-18	0.000000E+00
3.730000E+03	4.671605E-18	0.000000E+00
3.740000E+03	4.577229E-18	0.000000E+00
3.750000E+03	4.486913E-18	0.000000E+00
3.760000E+03	4.400395E-18	0.000000E+00
3.770000E+03	4.317635E-18	0.000000E+00
3.780000E+03	4.238485E-18	0.000000E+00
3.790000E+03	4.162800E-18	0.000000E+00
3.800000E+03	4.090474E-18	0.000000E+00
3.810000E+03	4.021370E-18	0.000000E+00
3.820000E+03	3.955384E-18	0.000000E+00
3.830000E+03	3.892421E-18	0.000000E+00
3.840000E+03	3.832352E-18	0.000000E+00
3.850000E+03	3.775086E-18	0.000000E+00
3.860000E+03	3.720534E-18	0.000000E+00
3.870000E+03	3.668581E-18	0.000000E+00
3.880000E+03	3.619145E-18	0.000000E+00
3.890000E+03	3.572147E-18	0.000000E+00
3.900000E+03	3.527483E-18	0.000000E+00
3.910000E+03	3.485080E-18	0.000000E+00
3.920000E+03	3.444842E-18	0.000000E+00
3.930000E+03	3.406728E-18	0.000000E+00
3.940000E+03	3.370646E-18	0.000000E+00
3.950000E+03	3.336535E-18	0.000000E+00
3.960000E+03	3.304284E-18	0.000000E+00
3.970000E+03	3.273889E-18	0.000000E+00
3.980000E+03	3.245241E-18	0.000000E+00
3.990000E+03	3.218290E-18	0.000000E+00
4.000000E+03	3.192962E-18	0.000000E+00
4.010000E+03	3.169232E-18	0.000000E+00
4.020000E+03	3.147007E-18	0.000000E+00
4.030000E+03	3.126267E-18	0.000000E+00
4.040000E+03	3.106921E-18	0.000000E+00
4.050000E+03	3.088955E-18	0.000000E+00
4.060000E+03	3.072283E-18	0.000000E+00
4.070000E+03	3.056869E-18	0.000000E+00
4.080000E+03	3.042681E-18	0.000000E+00
4.090000E+03	3.029684E-18	0.000000E+00
4.100000E+03	3.017804E-18	0.000000E+00
4.110000E+03	3.007010E-18	0.000000E+00
4.120000E+03	2.997254E-18	0.000000E+00
4.130000E+03	2.988511E-18	0.000000E+00
4.140000E+03	2.980755E-18	0.000000E+00
4.150000E+03	2.973922E-18	0.000000E+00
4.160000E+03	2.968012E-18	0.000000E+00
4.170000E+03	2.962960E-18	0.000000E+00
4.180000E+03	2.958751E-18	0.000000E+00
4.190000E+03	2.955368E-18	0.000000E+00
4.200000E+03	2.952752E-18	0.000000E+00
4.210000E+03	2.950888E-18	0.000000E+00
4.220000E+03	2.949742E-18	0.000000E+00
4.230000E+03	2.949327E-18	0.000000E+00
4.240000E+03	2.949563E-18	0.000000E+00
4.250000E+03	2.950467E-18	0.000000E+00
4.260000E+03	2.951986E-18	0.000000E+00
4.270000E+03	2.954134E-18	0.000000E+00
4.280000E+03	2.956839E-18	0.000000E+00
4.290000E+03	2.960096E-18	0.000000E+00
4.300000E+03	2.963901E-18	0.000000E+00
4.310000E+03	2.968181E-18	0.000000E+00
4.320000E+03	2.972959E-18	0.000000E+00
4.330000E+03	2.978137E-18	0.000000E+00
4.340000E+03	2.983738E-18	0.000000E+00
4.350000E+03	2.989643E-18	0.000000E+00
4.360000E+03	2.995850E-18	0.000000E+00
4.370000E+03	3.002429E-18	0.000000E+00
4.380000E+03	3.009380E-18	0.000000E+00
4.390000E+03	3.016729E-18	0.000000E+00
4.400000E+03	3.024479E-18	0.000000E+00
4.410000E+03	3.032583E-18	0.000000E+00
4.420000E+03	3.041095E-18	0.000000E+00
4.430000E+03	3.049971E-18	0.000000E+00
4.440000E+03	3.059217E-18	0.000000E+00
4.450000E+03	3.068816E-18	0.000000E+00
4.460000E+03	3.078776E-18	0.000000E+00
4.470000E+03	3.089055E-18	0.000000E+00
4.480000E+03	3.099690E-18	0.000000E+00
4.490000E+03	3.110641E-18	0.000000E+00
4.500000E+03	3.121897E-18	0.000000E+00
4.510000E+03	3.133496E-18	0.000000E+00
4.520000E+03	3.145378E-18	0.000000E+00
4.530000E+03	3.157559E-18	0.000000E+00
4.540000E+03	3.170058E-18	0.000000E+00
4.550000E+03	3.182843E-18	0.000000E+00
4.560000E+03	3.195934E-18	0.000000E+00
4.570000E+03	3.209303E-18	0.000000E+00
4.580000E+03	3.222971E-18	0.000000E+00
4.590000E+03	3.236940E-18	0.000000E+00
4.600000E+03	3.251207E-18	0.000000E+00
4.610000E+03	3.265746E-18	0.000000E+00
4.620000E+03	3.280611E-18	0.000000E+00
4.630000E+03	3.295750E-18	0.000000E+00
4.640000E+03	3.311192E-18	0.000000E+00
4.650000E+03	3.326940E-18	0.000000E+00
4.660000E+03	3.342968E-18	0.000000E+00
4.670000E+03	3.359337E-18	0.000000E+00
4.680000E+03	3.375993E-18	0.000000E+00
4.690000E+03	3.392968E-18	0.000000E+00
4.700000E+03	3.410325E-18	0.000000E+00
4.710000E+03	3.428041E-18	0.000000E+00
4.720000E+03	3.446151E-18	0.000000E+00
4.730000E+03	3.464693E-18	0.000000E+00
4.740000E+03	3.483672E-18	0.000000E+00
4.750000E+03	3.503097E-18	0.000000E+00
4.760000E+03	3.523038E-18	0.000000E+00
4.770000E+03	3.543440E-18	0.000000E+00
4.780000E+03	3.564378E-18	0.000000E+00
4.790000E+03	3.585860E-18	0.000000E+00
4.800000E+03	3.607866E-18	0.000000E+00
4.810000E+03	3.630470E-18	0.000000E+00
4.820000E+03	3.653652E-18	0.000000E+00
4.830000E+03	3.677424E-18	0.000000E+00
4.840000E+03	3.701799E-18	0.000000E+00
4.850000E+03	3.726789E-18	0.000000E+00
4.860000E+03	3.752476E-18	0.000000E+00
4.870000E+03	3.778773E-18	0.000000E+00
4.880000E+03	3.805761E-18	0.000000E+00
4.890000E+03	3.833421E-18	0.000000E+00
4.900000E+03	3.861804E-18	0.000000E+00
4.910000E+03	3.890889E-18	0.000000E+00
4.920000E+03	3.920690E-18	0.000000E+00
4.930000E+03	3.951261E-18	0.000000E+00
4.940000E+03	3.982542E-18	0.000000E+00
4.950000E+03	4.014584E-18	0.000000E+00
4.960000E+03	4.047404E-18	0.000000E+00
4.970000E+03	4.081014E-18	0.000000E+00
4.980000E+03	4.115391E-18	0.000000E+00
4.990000E+03	4.150547E-18	0.000000E+00
5.000000E+03	4.186534E-18	0.000000E+00
5.010000E+03	4.223286E-18	0.000000E+00
5.020000E+03	4.260894E-18	0.000000E+00
5.030000E+03	4.299286E-18	0.000000E+00
5.040000E+03	4.338472E-18	0.000000E+00
5.050000E+03	4.378505E-18	0.000000E+00
5.060000E+03	4.419348E-18	0.000000E+00
5.070000E+03	4.461012E-18	0.000000E+00
5.080000E+03	4.503460E-18	0.000000E+00
5.090000E+03	4.546739E-18	0.000000E+00
5.100000E+03	4.590856E-18	0.000000E+00
5.110000E+03	4.635727E-18	0.000000E+00
5.120000E+03	4.681401E-18	0.000000E+00
5.130000E+03	4.727879E-18	0.000000E+00
5.140000E+03	4.775168E-18	0.000000E+00
5.150000E+03	4.823220E-18	0.000000E+00
5.160000E+03	4.872039E-18	0.000000E+00
5.170000E+03	4.921578E-18	0.000000E+00
5.180000E+03	4.971931E-18	0.000000E+00
5.190000E+03	5.023005E-18	0.000000E+00
5.200000E+03	5.074797E-18	0.000000E+00
5.210000E+03	5.127305E-18	0.000000E+00
5.220000E+03	5.180577E-18	0.000000E+00
5.230000E+03	5.234511E-18	0.000000E+00
5.240000E+03	5.289099E-18	0.000000E+00
5.250000E+03	5.344439E-18	0.000000E+00
5.260000E+03	5.400370E-18	0.000000E+00
5.270000E+03	5.456984E-18	0.000000E+00
5.280000E+03	5.514222E-18	0.000000E+00
5.290000E+03	5.572068E-18	0.000000E+00
5.300000E+03	5.630564E-18	0.000000E+00
5.310000E+03	5.689584E-18	0.000000E+00
5.320000E+03	5.749162E-18	0.000000E+00
5.330000E+03	5.809275E-18	0.000000E+00
5.340000E+03	5.869902E-18	0.000000E+00
5.350000E+03	5.931070E-18	0.000000E+00
5.360000E+03	5.992635E-18	0.000000E+00
5.370000E+03	6.054619E-18	0.000000E+00
5.380000E+03	6.116984E-18	0.000000E+00
5.390000E+03	6.179626E-18	0.000000E+00
5.400000E+03	6.242623E-18	0.000000E+00
5.410000E+03	6.305865E-18	0.000000E+00
5.420000E+03	6.369233E-18	0.000000E+00
5.430000E+03	6.432666E-18	0.000000E+00
5.440000E+03	6.496167E-18	0.000000E+00
5.450000E+03	6.559535E-18	0.000000E+00
5.460000E+03	6.622763E-18	0.000000E+00
5.470000E+03	6.685772E-18	0.000000E+00
5.480000E+03	6.748344E-18	0.000000E+00
5.490000E+03	6.810387E-18	0.000000E+00
5.500000E+03	6.871877E-18	0.000000E+00
5.510000E+03	6.932645E-18	0.000000E+00
5.520000E+03	6.992515E-18	0.000000E+00
5.530000E+03	7.051309E-18	0.000000E+00
5.540000E+03	7.109053E-18	0.000000E+00
5.550000E+03	7.165414E-18	0.000000E+00
5.560000E+03	7.220342E-18	0.000000E+00
5.570000E+03	7.273640E-18	0.000000E+00
5.580000E+03	7.325179E-18	0.000000E+00
5.590000E+03	7.374831E-18	0.000000E+00
5.600000E+03	7.422391E-18	0.000000E+00
5.610000E+03	7.467805E-18	0.000000E+00
5.620000E+03	7.510872E-18	0.000000E+00
5.630000E+03	7.551386E-18	0.000000E+00
5.640000E+03	7.589382E-18	0.000000E+00
5.650000E+03	7.624666E-18	0.000000E+00
5.660000E+03	7.657048E-18	0.000000E+00
5.670000E+03	7.686500E-18	0.000000E+00
5.680000E+03	7.713006E-18	0.000000E+00
5.690000E+03	7.736320E-18	0.000000E+00
5.700000E+03	7.756440E-18	0.000000E+00
5.710000E+03	7.773379E-18	0.000000E+00
5.720000E+03	7.786997E-18	0.000000E+00
5.730000E+03	7.797328E-18	0.000000E+00
5.740000E+03	7.804250E-18	0.000000E+00
5.750000E+03	7.807821E-18	0.000000E+00
5.760000E+03	7.808024E-18	0.000000E+00
5.770000E+03	7.804939E-18	0.000000E+00
5.780000E+03	7.798404E-18	0.000000E+00
5.790000E+03	7.788690E-18	0.000000E+00
5.800000E+03	7.775658E-18	0.000000E+00
5.810000E+03	7.759429E-18	0.000000E+00
5.820000E+03	7.740055E-18	0.000000E+00
5.830000E+03	7.717596E-18	0.000000E+00
5.840000E+03	7.692205E-18	0.000000E+00
5.850000E+03	7.663966E-18	0.000000E+00
5.860000E+03	7.632963E-18	0.000000E+00
5.870000E+03	7.599213E-18	0.000000E+00
5.880000E+03	7.562989E-18	0.000000E+00
5.890000E+03	7.524320E-18	0.000000E+00
5.900000E+03	7.483407E-18	0.000000E+00
5.910000E+03	7.440289E-18	0.000000E+00
5.920000E+03	7.395178E-18	0.000000E+00
5.930000E+03	7.348205E-18	0.000000E+00
5.940000E+03	7.299502E-18	0.000000E+00
5.950000E+03	7.249200E-18	0.000000E+00
5.960000E+03	7.197435E-18	0.000000E+00
5.970000E+03	7.144420E-18	0.000000E+00
5.980000E+03	7.090119E-18	0.000000E+00
5.990000E+03	7.034827E-18	0.000000E+00
6.000000E+03	6.978585E-18	0.000000E+00
6.010000E+03	6.921516E-18	0.000000E+00
6.020000E+03	6.863820E-18	0.000000E+00
6.030000E+03	6.805445E-18	0.000000E+00
6.040000E+03	6.746665E-18	0.000000E+00
6.050000E+03	6.687424E-18	0.000000E+00
6.060000E+03	6.627903E-18	0.000000E+00
6.070000E+03	6.568196E-18	0.000000E+00
6.080000E+03	6.508316E-18	0.000000E+00
6.090000E+03	6.448349E-18	0.000000E+00
6.100000E+03	6.388378E-18	0.000000E+00
6.110000E+03	6.328479E-18	0.000000E+00
6.120000E+03	6.268725E-18	0.000000E+00
6.130000E+03	6.209184E-18	0.000000E+00
6.140000E+03	6.149919E-18	0.000000E+00
6.150000E+03	6.090989E-18	0.000000E+00
6.160000E+03	6.032527E-18	0.000000E+00
6.170000E+03	5.974656E-18	0.000000E+00
6.180000E+03	5.917501E-18	0.000000E+00
6.190000E+03	5.861098E-18	0.000000E+00
6.200000E+03	5.805486E-18	0.000000E+00
6.210000E+03	5.750622E-18	0.000000E+00
6.220000E+03	5.696537E-18	0.000000E+00
6.230000E+03	5.643257E-18	0.000000E+00
6.240000E+03	5.590732E-18	0.000000E+00
6.250000E+03	5.539061E-18	0.000000E+00
6.260000E+03	5.488408E-18	0.000000E+00
6.270000E+03	5.438716E-18	0.000000E+00
6.280000E+03	5.390073E-18	0.000000E+00
6.290000E+03	5.342635E-18	0.000000E+00
6.300000E+03	5.296337E-18	0.000000E+00
6.310000E+03	5.251406E-18	0.000000E+00
6.320000E+03	5.207920E-18	0.000000E+00
6.330000E+03	5.165806E-18	0.000000E+00
6.340000E+03	5.125285E-18	0.000000E+00
6.350000E+03	5.086429E-18	0.000000E+00
6.360000E+03	5.049236E-18	0.000000E+00
6.370000E+03	5.013778E-18	0.000000E+00
6.380000E+03	4.980269E-18	0.000000E+00
6.390000E+03	4.948635E-18	0.000000E+00
6.400000E+03	4.918944E-18	0.000000E+00
6.410000E+03	4.891340E-18	0.000000E+00
6.420000E+03	4.865603E-18	0.000000E+00
6.430000E+03	4.841587E-18	0.000000E+00
6.440000E+03	4.819216E-18	0.000000E+00
6.450000E+03	4.798417E-18	0.000000E+00
6.460000E+03	4.779046E-18	0.000000E+00
6.470000E+03	4.761098E-18	0.000000E+00
6.480000E+03	4.744502E-18	0.000000E+00
6.490000E+03	4.729256E-18	0.000000E+00
6.500000E+03	4.715285E-18	0.000000E+00
6.510000E+03	4.702589E-18	0.000000E+00
6.520000E+03	4.691168E-18	0.000000E+00
6.530000E+03	4.680943E-18	0.000000E+00
6.540000E+03	4.671991E-18	0.000000E+00
6.550000E+03	4.664307E-18	0.000000E+00
6.560000E+03	4.657819E-18	0.000000E+00
6.570000E+03	4.652598E-18	0.000000E+00
6.580000E+03	4.648570E-18	0.000000E+00
6.590000E+03	4.645733E-18	0.000000E+00
6.600000E+03	4.644161E-18	0.000000E+00
6.610000E+03	4.643703E-18	0.000000E+00
6.620000E+03	4.644583E-18	0.000000E+00
6.630000E+03	4.646575E-18	0.000000E+00
6.640000E+03	4.649830E-18	0.000000E+00
6.650000E+03	4.654271E-18	0.000000E+00
6.660000E+03	4.659896E-18	0.000000E+00
6.670000E+03	4.666784E-18	0.000000E+00
6.680000E+03	4.674856E-18	0.000000E+00
6.690000E+03	4.684112E-18	0.000000E+00
6.700000E+03	4.694551E-18	0.000000E+00
6.710000E+03	4.706253E-18	0.000000E+00
6.720000E+03	4.719058E-18	0.000000E+00
6.730000E+03	4.733125E-18	0.000000E+00
6.740000E+03	4.748376E-18	0.000000E+00
6.750000E+03	4.764810E-18	0.000000E+00
6.760000E+03	4.782424E-18	0.000000E+00
6.770000E+03	4.801223E-18	0.000000E+00
6.780000E+03	4.821288E-18	0.000000E+00
6.790000E+03	4.842450E-18	0.000000E+00
6.800000E+03	4.864793E-18	0.000000E+00
6.810000E+03	4.888318E-18	0.000000E+00
6.820000E+03	4.913026E-18	0.000000E+00
6.830000E+03	4.938913E-18	0.000000E+00
6.840000E+03	4.965981E-18	0.000000E+00
6.850000E+03	4.994230E-18	0.000000E+00
6.860000E+03	5.023567E-18	0.000000E+00
6.870000E+03	5.054082E-18	0.000000E+00
6.880000E+03	5.085775E-18	0.000000E+00
6.890000E+03	5.118550E-18	0.000000E+00
6.900000E+03	5.152498E-18	0.000000E+00
6.910000E+03	5.187622E-18	0.000000E+00
6.920000E+03	5.223819E-18	0.000000E+00
6.930000E+03	5.261088E-18	0.000000E+00
6.940000E+03	5.299524E-18	0.000000E+00
6.950000E+03	5.339026E-18	0.000000E+00
6.960000E+03	5.379591E-18	0.000000E+00
6.970000E+03	5.421317E-18	0.000000E+00
6.980000E+03	5.464100E-18	0.000000E+00
6.990000E+03	5.507937E-18	0.000000E+00
7.000000E+03	5.552715E-18	0.000000E+00
7.010000E+03	5.598647E-18	0.000000E+00
7.020000E+03	5.645622E-18	0.000000E+00
7.030000E+03	5.693638E-18	0.000000E+00
7.040000E+03	5.742578E-18	0.000000E+00
7.050000E+03	5.792551E-18	0.000000E+00
7.060000E+03	5.843438E-18	0.000000E+00
7.070000E+03	5.895468E-18	0.000000E+00
7.080000E+03	5.948287E-18	0.000000E+00
7.090000E+03	6.002125E-18	0.000000E+00
7.100000E+03	6.056857E-18	0.000000E+00
7.110000E+03	6.112604E-18	0.000000E+00
7.120000E+03	6.169110E-18	0.000000E+00
7.130000E+03	6.226622E-18	0.000000E+00
7.140000E+03	6.284880E-18	0.000000E+00
7.150000E+03	6.344005E-18	0.000000E+00
7.160000E+03	6.403991E-18	0.000000E+00
7.170000E+03	6.464830E-18	0.000000E+00
7.180000E+03	6.526384E-18	0.000000E+00
7.190000E+03	6.588639E-18	0.000000E+00
7.200000E+03	6.651726E-18	0.000000E+00
7.210000E+03	6.715493E-18	0.000000E+00
7.220000E+03	6.780074E-18	0.000000E+00
7.230000E+03	6.845171E-18	0.000000E+00
7.240000E+03	6.911061E-18	0.000000E+00
7.250000E+03	6.977584E-18	0.000000E+00
7.260000E+03	7.044729E-18	0.000000E+00
7.270000E+03	7.112479E-18	0.000000E+00
7.280000E+03	7.180819E-18	0.000000E+00
7.290000E+03	7.249733E-18	0.000000E+00
7.300000E+03	7.319364E-18	0.000000E+00
7.310000E+03	7.389375E-18	0.000000E+00
7.320000E+03	7.460236E-18	0.000000E+00
7.330000E+03	7.531773E-18	0.000000E+00
7.340000E+03	7.603801E-18	0.000000E+00
7.350000E+03	7.676818E-18	0.000000E+00
7.360000E+03	7.750471E-18	0.000000E+00
7.370000E+03	7.825277E-18	0.000000E+00
7.380000E+03	7.901062E-18	0.000000E+00
7.390000E+03	7.978005E-18	0.000000E+00
7.400000E+03	8.056297E-18	0.000000E+00
7.410000E+03	8.135950E-18	0.000000E+00
7.420000E+03	8.217358E-18	0.000000E+00
7.430000E+03	8.300746E-18	0.000000E+00
7.440000E+03	8.385951E-18	0.000000E+00
7.450000E+03	8.473001E-18	0.000000E+00
7.460000E+03	8.561924E-18	0.000000E+00
7.470000E+03	8.652543E-18	0.000000E+00
7.480000E+03	8.744666E-18	0.000000E+00
7.490000E+03	8.838092E-18	0.000000E+00
7.500000E+03	8.932819E-18	0.000000E+00
7.510000E+03	9.028630E-18	0.000000E+00
7.520000E+03	9.125290E-18	0.000000E+00
7.530000E+03	9.223004E-18	0.000000E+00
7.540000E+03	9.321300E-18	0.000000E+00
7.550000E+03	9.420146E-18	0.000000E+00
7.560000E+03	9.519505E-18	0.000000E+00
7.570000E+03	9.619339E-18	0.000000E+00
7.580000E+03	9.719608E-18	0.000000E+00
7.590000E+03	9.820025E-18	0.000000E+00
7.600000E+03	9.920532E-18	0.000000E+00
7.610000E+03	1.002133E-17	0.000000E+00
7.620000E+03	1.012211E-17	0.000000E+00
7.630000E+03	1.022305E-17	0.000000E+00
7.640000E+03	1.032359E-17	0.000000E+00
7.650000E+03	1.042418E-17	0.000000E+00
7.660000E+03	1.052447E-17	0.000000E+00
7.670000E+03	1.062439E-17	0.000000E+00
7.680000E+03	1.072386E-17	0.000000E+00
7.690000E+03	1.082308E-17	0.000000E+00
7.700000E+03	1.092167E-17	0.000000E+00
7.710000E+03	1.101955E-17	0.000000E+00
7.720000E+03	1.111690E-17	0.000000E+00
7.730000E+03	1.121364E-17	0.000000E+00
7.740000E+03	1.130938E-17	0.000000E+00
7.750000E+03	1.140431E-17	0.000000E+00
7.760000E+03	1.149835E-17	0.000000E+00
