#wls	flux	fluxerr
1.600000E+03	1.130783E-16	0.000000E+00
1.640000E+03	1.172389E-16	0.000000E+00
1.680000E+03	1.213609E-16	0.000000E+00
1.720000E+03	1.254119E-16	0.000000E+00
1.760000E+03	1.293681E-16	0.000000E+00
1.800000E+03	1.331888E-16	0.000000E+00
1.840000E+03	1.368424E-16	0.000000E+00
1.880000E+03	1.402932E-16	0.000000E+00
1.920000E+03	1.434895E-16	0.000000E+00
1.960000E+03	1.463888E-16	0.000000E+00
2.000000E+03	1.489465E-16	0.000000E+00
2.040000E+03	1.511157E-16	0.000000E+00
2.080000E+03	1.528373E-16	0.000000E+00
2.120000E+03	1.540649E-16	0.000000E+00
2.160000E+03	1.547328E-16	0.000000E+00
2.200000E+03	1.547822E-16	0.000000E+00
2.240000E+03	1.541241E-16	0.000000E+00
2.280000E+03	1.526887E-16	0.000000E+00
2.320000E+03	1.505220E-16	0.000000E+00
2.360000E+03	1.477035E-16	0.000000E+00
2.400000E+03	1.442883E-16	0.000000E+00
2.440000E+03	1.403139E-16	0.000000E+00
2.480000E+03	1.358121E-16	0.000000E+00
2.520000E+03	1.308243E-16	0.000000E+00
2.560000E+03	1.253837E-16	0.000000E+00
2.600000E+03	1.195407E-16	0.000000E+00
2.640000E+03	1.133411E-16	0.000000E+00
2.680000E+03	1.068304E-16	0.000000E+00
2.720000E+03	1.000725E-16	0.000000E+00
2.760000E+03	9.312868E-17	0.000000E+00
2.800000E+03	8.606727E-17	0.000000E+00
2.840000E+03	7.896104E-17	0.000000E+00
2.880000E+03	7.189112E-17	0.000000E+00
2.920000E+03	6.495352E-17	0.000000E+00
2.960000E+03	5.825456E-17	0.000000E+00
3.000000E+03	5.188720E-17	0.000000E+00
3.010000E+03	5.035574E-17	0.000000E+00
3.020000E+03	4.885234E-17	0.000000E+00
3.030000E+03	4.737513E-17	0.000000E+00
3.040000E+03	4.592573E-17	0.000000E+00
3.050000E+03	4.450654E-17	0.000000E+00
3.060000E+03	4.311581E-17	0.000000E+00
3.070000E+03	4.175573E-17	0.000000E+00
3.080000E+03	4.042644E-17	0.000000E+00
3.090000E+03	3.912802E-17	0.000000E+00
3.100000E+03	3.786058E-17	0.000000E+00
3.110000E+03	3.662570E-17	0.000000E+00
3.120000E+03	3.542248E-17	0.000000E+00
3.130000E+03	3.425155E-17	0.000000E+00
3.140000E+03	3.311273E-17	0.000000E+00
3.150000E+03	3.200579E-17	0.000000E+00
3.160000E+03	3.093111E-17	0.000000E+00
3.170000E+03	2.988889E-17	0.000000E+00
3.180000E+03	2.887764E-17	0.000000E+00
3.190000E+03	2.789861E-17	0.000000E+00
3.200000E+03	2.695073E-17	0.000000E+00
3.210000E+03	2.603401E-17	0.000000E+00
3.220000E+03	2.514787E-17	0.000000E+00
3.230000E+03	2.429132E-17	0.000000E+00
3.240000E+03	2.346501E-17	0.000000E+00
3.250000E+03	2.266711E-17	0.000000E+00
3.260000E+03	2.189811E-17	0.000000E+00
3.270000E+03	2.115730E-17	0.000000E+00
3.280000E+03	2.044331E-17	0.000000E+00
3.290000E+03	1.975640E-17	0.000000E+00
3.300000E+03	1.909525E-17	0.000000E+00
3.310000E+03	1.845944E-17	0.000000E+00
3.320000E+03	1.784824E-17	0.000000E+00
3.330000E+03	1.726119E-17	0.000000E+00
3.340000E+03	1.669728E-17	0.000000E+00
3.350000E+03	1.615582E-17	0.000000E+00
3.360000E+03	1.563612E-17	0.000000E+00
3.370000E+03	1.513766E-17	0.000000E+00
3.380000E+03	1.465958E-17	0.000000E+00
3.390000E+03	1.420117E-17	0.000000E+00
3.400000E+03	1.376178E-17	0.000000E+00
3.410000E+03	1.334061E-17	0.000000E+00
3.420000E+03	1.293703E-17	0.000000E+00
3.430000E+03	1.255045E-17	0.000000E+00
3.440000E+03	1.218014E-17	0.000000E+00
3.450000E+03	1.182553E-17	0.000000E+00
3.460000E+03	1.148594E-17	0.000000E+00
3.470000E+03	1.116073E-17	0.000000E+00
3.480000E+03	1.084929E-17	0.000000E+00
3.490000E+03	1.055093E-17	0.000000E+00
3.500000E+03	1.026521E-17	0.000000E+00
3.510000E+03	9.991508E-18	0.000000E+00
3.520000E+03	9.729112E-18	0.000000E+00
3.530000E+03	9.477293E-18	0.000000E+00
3.540000E+03	9.235664E-18	0.000000E+00
3.550000E+03	9.003569E-18	0.000000E+00
3.560000E+03	8.780238E-18	0.000000E+00
3.570000E+03	8.565231E-18	0.000000E+00
3.580000E+03	8.358053E-18	0.000000E+00
3.590000E+03	8.158169E-18	0.000000E+00
3.600000E+03	7.965014E-18	0.000000E+00
3.610000E+03	7.778363E-18	0.000000E+00
3.620000E+03	7.597857E-18	0.000000E+00
3.630000E+03	7.423156E-18	0.000000E+00
3.640000E+03	7.254273E-18	0.000000E+00
3.650000E+03	7.091000E-18	0.000000E+00
3.660000E+03	6.933195E-18	0.000000E+00
3.670000E+03	6.780772E-18	0.000000E+00
3.680000E+03	6.633632E-18	0.000000E+00
3.690000E+03	6.491610E-18	0.000000E+00
3.700000E+03	6.354704E-18	0.000000E+00
3.710000E+03	6.222680E-18	0.000000E+00
3.720000E+03	6.095469E-18	0.000000E+00
3.730000E+03	5.973038E-18	0.000000E+00
3.740000E+03	5.855099E-18	0.000000E+00
3.750000E+03	5.741714E-18	0.000000E+00
3.760000E+03	5.632595E-18	0.000000E+00
3.770000E+03	5.527743E-18	0.000000E+00
3.780000E+03	5.427013E-18	0.000000E+00
3.790000E+03	5.330263E-18	0.000000E+00
3.800000E+03	5.237395E-18	0.000000E+00
3.810000E+03	5.148267E-18	0.000000E+00
3.820000E+03	5.062784E-18	0.000000E+00
3.830000E+03	4.980848E-18	0.000000E+00
3.840000E+03	4.902323E-18	0.000000E+00
3.850000E+03	4.827115E-18	0.000000E+00
3.860000E+03	4.755134E-18	0.000000E+00
3.870000E+03	4.686251E-18	0.000000E+00
3.880000E+03	4.620377E-18	0.000000E+00
3.890000E+03	4.557428E-18	0.000000E+00
3.900000E+03	4.497286E-18	0.000000E+00
3.910000E+03	4.439870E-18	0.000000E+00
3.920000E+03	4.385067E-18	0.000000E+00
3.930000E+03	4.332838E-18	0.000000E+00
3.940000E+03	4.283074E-18	0.000000E+00
3.950000E+03	4.235706E-18	0.000000E+00
3.960000E+03	4.190603E-18	0.000000E+00
3.970000E+03	4.147763E-18	0.000000E+00
3.980000E+03	4.107061E-18	0.000000E+00
3.990000E+03	4.068438E-18	0.000000E+00
4.000000E+03	4.031804E-18	0.000000E+00
4.010000E+03	3.997139E-18	0.000000E+00
4.020000E+03	3.964327E-18	0.000000E+00
4.030000E+03	3.933350E-18	0.000000E+00
4.040000E+03	3.904101E-18	0.000000E+00
4.050000E+03	3.876563E-18	0.000000E+00
4.060000E+03	3.850637E-18	0.000000E+00
4.070000E+03	3.826280E-18	0.000000E+00
4.080000E+03	3.803456E-18	0.000000E+00
4.090000E+03	3.782128E-18	0.000000E+00
4.100000E+03	3.762203E-18	0.000000E+00
4.110000E+03	3.743649E-18	0.000000E+00
4.120000E+03	3.726408E-18	0.000000E+00
4.130000E+03	3.710452E-18	0.000000E+00
4.140000E+03	3.695754E-18	0.000000E+00
4.150000E+03	3.682231E-18	0.000000E+00
4.160000E+03	3.669888E-18	0.000000E+00
4.170000E+03	3.658650E-18	0.000000E+00
4.180000E+03	3.648495E-18	0.000000E+00
4.190000E+03	3.639404E-18	0.000000E+00
4.200000E+03	3.631305E-18	0.000000E+00
4.210000E+03	3.624183E-18	0.000000E+00
4.220000E+03	3.617996E-18	0.000000E+00
4.230000E+03	3.612758E-18	0.000000E+00
4.240000E+03	3.608376E-18	0.000000E+00
4.250000E+03	3.604865E-18	0.000000E+00
4.260000E+03	3.602162E-18	0.000000E+00
4.270000E+03	3.600288E-18	0.000000E+00
4.280000E+03	3.599152E-18	0.000000E+00
4.290000E+03	3.598749E-18	0.000000E+00
4.300000E+03	3.599072E-18	0.000000E+00
4.310000E+03	3.600037E-18	0.000000E+00
4.320000E+03	3.601667E-18	0.000000E+00
4.330000E+03	3.603849E-18	0.000000E+00
4.340000E+03	3.606609E-18	0.000000E+00
4.350000E+03	3.609807E-18	0.000000E+00
4.360000E+03	3.613440E-18	0.000000E+00
4.370000E+03	3.617596E-18	0.000000E+00
4.380000E+03	3.622278E-18	0.000000E+00
4.390000E+03	3.627516E-18	0.000000E+00
4.400000E+03	3.633318E-18	0.000000E+00
4.410000E+03	3.639631E-18	0.000000E+00
4.420000E+03	3.646521E-18	0.000000E+00
4.430000E+03	3.653938E-18	0.000000E+00
4.440000E+03	3.661891E-18	0.000000E+00
4.450000E+03	3.670364E-18	0.000000E+00
4.460000E+03	3.679368E-18	0.000000E+00
4.470000E+03	3.688857E-18	0.000000E+00
4.480000E+03	3.698874E-18	0.000000E+00
4.490000E+03	3.709377E-18	0.000000E+00
4.500000E+03	3.720352E-18	0.000000E+00
4.510000E+03	3.731847E-18	0.000000E+00
4.520000E+03	3.743789E-18	0.000000E+00
4.530000E+03	3.756197E-18	0.000000E+00
4.540000E+03	3.769096E-18	0.000000E+00
4.550000E+03	3.782444E-18	0.000000E+00
4.560000E+03	3.796265E-18	0.000000E+00
4.570000E+03	3.810521E-18	0.000000E+00
4.580000E+03	3.825238E-18	0.000000E+00
4.590000E+03	3.840411E-18	0.000000E+00
4.600000E+03	3.856035E-18	0.000000E+00
4.610000E+03	3.872075E-18	0.000000E+00
4.620000E+03	3.888593E-18	0.000000E+00
4.630000E+03	3.905522E-18	0.000000E+00
4.640000E+03	3.922891E-18	0.000000E+00
4.650000E+03	3.940702E-18	0.000000E+00
4.660000E+03	3.958920E-18	0.000000E+00
4.670000E+03	3.977611E-18	0.000000E+00
4.680000E+03	3.996709E-18	0.000000E+00
4.690000E+03	4.016250E-18	0.000000E+00
4.700000E+03	4.036304E-18	0.000000E+00
4.710000E+03	4.056839E-18	0.000000E+00
4.720000E+03	4.077897E-18	0.000000E+00
4.730000E+03	4.099516E-18	0.000000E+00
4.740000E+03	4.121703E-18	0.000000E+00
4.750000E+03	4.144463E-18	0.000000E+00
4.760000E+03	4.167878E-18	0.000000E+00
4.770000E+03	4.191882E-18	0.000000E+00
4.780000E+03	4.216557E-18	0.000000E+00
4.790000E+03	4.241913E-18	0.000000E+00
4.800000E+03	4.267922E-18	0.000000E+00
4.810000E+03	4.294670E-18	0.000000E+00
4.820000E+03	4.322131E-18	0.000000E+00
4.830000E+03	4.350316E-18	0.000000E+00
4.840000E+03	4.379235E-18	0.000000E+00
4.850000E+03	4.408900E-18	0.000000E+00
4.860000E+03	4.439406E-18	0.000000E+00
4.870000E+03	4.470642E-18	0.000000E+00
4.880000E+03	4.502704E-18	0.000000E+00
4.890000E+03	4.535564E-18	0.000000E+00
4.900000E+03	4.569275E-18	0.000000E+00
4.910000E+03	4.603810E-18	0.000000E+00
4.920000E+03	4.639184E-18	0.000000E+00
4.930000E+03	4.675450E-18	0.000000E+00
4.940000E+03	4.712536E-18	0.000000E+00
4.950000E+03	4.750500E-18	0.000000E+00
4.960000E+03	4.789352E-18	0.000000E+00
4.970000E+03	4.829107E-18	0.000000E+00
4.980000E+03	4.869732E-18	0.000000E+00
4.990000E+03	4.911239E-18	0.000000E+00
5.000000E+03	4.953685E-18	0.000000E+00
5.010000E+03	4.996988E-18	0.000000E+00
5.020000E+03	5.041253E-18	0.000000E+00
5.030000E+03	5.086395E-18	0.000000E+00
5.040000E+03	5.132424E-18	0.000000E+00
5.050000E+03	5.179396E-18	0.000000E+00
5.060000E+03	5.227270E-18	0.000000E+00
5.070000E+03	5.276055E-18	0.000000E+00
5.080000E+03	5.325706E-18	0.000000E+00
5.090000E+03	5.376279E-18	0.000000E+00
5.100000E+03	5.427781E-18	0.000000E+00
5.110000E+03	5.480113E-18	0.000000E+00
5.120000E+03	5.533326E-18	0.000000E+00
5.130000E+03	5.587424E-18	0.000000E+00
5.140000E+03	5.642410E-18	0.000000E+00
5.150000E+03	5.698229E-18	0.000000E+00
5.160000E+03	5.754879E-18	0.000000E+00
5.170000E+03	5.812302E-18	0.000000E+00
5.180000E+03	5.870607E-18	0.000000E+00
5.190000E+03	5.929675E-18	0.000000E+00
5.200000E+03	5.989500E-18	0.000000E+00
5.210000E+03	6.050072E-18	0.000000E+00
5.220000E+03	6.111443E-18	0.000000E+00
5.230000E+03	6.173482E-18	0.000000E+00
5.240000E+03	6.236175E-18	0.000000E+00
5.250000E+03	6.299628E-18	0.000000E+00
5.260000E+03	6.363642E-18	0.000000E+00
5.270000E+03	6.428321E-18	0.000000E+00
5.280000E+03	6.493581E-18	0.000000E+00
5.290000E+03	6.559399E-18	0.000000E+00
5.300000E+03	6.625814E-18	0.000000E+00
5.310000E+03	6.692670E-18	0.000000E+00
5.320000E+03	6.759998E-18	0.000000E+00
5.330000E+03	6.827768E-18	0.000000E+00
5.340000E+03	6.895943E-18	0.000000E+00
5.350000E+03	6.964552E-18	0.000000E+00
5.360000E+03	7.033418E-18	0.000000E+00
5.370000E+03	7.102566E-18	0.000000E+00
5.380000E+03	7.171947E-18	0.000000E+00
5.390000E+03	7.241439E-18	0.000000E+00
5.400000E+03	7.311131E-18	0.000000E+00
5.410000E+03	7.380894E-18	0.000000E+00
5.420000E+03	7.450596E-18	0.000000E+00
5.430000E+03	7.520168E-18	0.000000E+00
5.440000E+03	7.589618E-18	0.000000E+00
5.450000E+03	7.658721E-18	0.000000E+00
5.460000E+03	7.727477E-18	0.000000E+00
5.470000E+03	7.795808E-18	0.000000E+00
5.480000E+03	7.863474E-18	0.000000E+00
5.490000E+03	7.930383E-18	0.000000E+00
5.500000E+03	7.996523E-18	0.000000E+00
5.510000E+03	8.061723E-18	0.000000E+00
5.520000E+03	8.125801E-18	0.000000E+00
5.530000E+03	8.188576E-18	0.000000E+00
5.540000E+03	8.250106E-18	0.000000E+00
5.550000E+03	8.310040E-18	0.000000E+00
5.560000E+03	8.368352E-18	0.000000E+00
5.570000E+03	8.424848E-18	0.000000E+00
5.580000E+03	8.479421E-18	0.000000E+00
5.590000E+03	8.531962E-18	0.000000E+00
5.600000E+03	8.582275E-18	0.000000E+00
5.610000E+03	8.630343E-18	0.000000E+00
5.620000E+03	8.675973E-18	0.000000E+00
5.630000E+03	8.718973E-18	0.000000E+00
5.640000E+03	8.759426E-18	0.000000E+00
5.650000E+03	8.797148E-18	0.000000E+00
5.660000E+03	8.831960E-18	0.000000E+00
5.670000E+03	8.863869E-18	0.000000E+00
5.680000E+03	8.892891E-18	0.000000E+00
5.690000E+03	8.918770E-18	0.000000E+00
5.700000E+03	8.941536E-18	0.000000E+00
5.710000E+03	8.961225E-18	0.000000E+00
5.720000E+03	8.977698E-18	0.000000E+00
5.730000E+03	8.991010E-18	0.000000E+00
5.740000E+03	9.001033E-18	0.000000E+00
5.750000E+03	9.007841E-18	0.000000E+00
5.760000E+03	9.011422E-18	0.000000E+00
5.770000E+03	9.011866E-18	0.000000E+00
5.780000E+03	9.008986E-18	0.000000E+00
5.790000E+03	9.003085E-18	0.000000E+00
5.800000E+03	8.993993E-18	0.000000E+00
5.810000E+03	8.981837E-18	0.000000E+00
5.820000E+03	8.966656E-18	0.000000E+00
5.830000E+03	8.948499E-18	0.000000E+00
5.840000E+03	8.927518E-18	0.000000E+00
5.850000E+03	8.903777E-18	0.000000E+00
5.860000E+03	8.877344E-18	0.000000E+00
5.870000E+03	8.848198E-18	0.000000E+00
5.880000E+03	8.816618E-18	0.000000E+00
5.890000E+03	8.782590E-18	0.000000E+00
5.900000E+03	8.746309E-18	0.000000E+00
5.910000E+03	8.707770E-18	0.000000E+00
5.920000E+03	8.667172E-18	0.000000E+00
5.930000E+03	8.624618E-18	0.000000E+00
5.940000E+03	8.580213E-18	0.000000E+00
5.950000E+03	8.534065E-18	0.000000E+00
5.960000E+03	8.486280E-18	0.000000E+00
5.970000E+03	8.437068E-18	0.000000E+00
5.980000E+03	8.386339E-18	0.000000E+00
5.990000E+03	8.334399E-18	0.000000E+00
6.000000E+03	8.281258E-18	0.000000E+00
6.010000E+03	8.227022E-18	0.000000E+00
6.020000E+03	8.171892E-18	0.000000E+00
6.030000E+03	8.115777E-18	0.000000E+00
6.040000E+03	8.058972E-18	0.000000E+00
6.050000E+03	8.001379E-18	0.000000E+00
6.060000E+03	7.943191E-18	0.000000E+00
6.070000E+03	7.884499E-18	0.000000E+00
6.080000E+03	7.825294E-18	0.000000E+00
6.090000E+03	7.765662E-18	0.000000E+00
6.100000E+03	7.705685E-18	0.000000E+00
6.110000E+03	7.645440E-18	0.000000E+00
6.120000E+03	7.585000E-18	0.000000E+00
6.130000E+03	7.524438E-18	0.000000E+00
6.140000E+03	7.463816E-18	0.000000E+00
6.150000E+03	7.403200E-18	0.000000E+00
6.160000E+03	7.342740E-18	0.000000E+00
6.170000E+03	7.282586E-18	0.000000E+00
6.180000E+03	7.222878E-18	0.000000E+00
6.190000E+03	7.163665E-18	0.000000E+00
6.200000E+03	7.104987E-18	0.000000E+00
6.210000E+03	7.046792E-18	0.000000E+00
6.220000E+03	6.989116E-18	0.000000E+00
6.230000E+03	6.931995E-18	0.000000E+00
6.240000E+03	6.875365E-18	0.000000E+00
6.250000E+03	6.819349E-18	0.000000E+00
6.260000E+03	6.764153E-18	0.000000E+00
6.270000E+03	6.709711E-18	0.000000E+00
6.280000E+03	6.656132E-18	0.000000E+00
6.290000E+03	6.603618E-18	0.000000E+00
6.300000E+03	6.552092E-18	0.000000E+00
6.310000E+03	6.501841E-18	0.000000E+00
6.320000E+03	6.452967E-18	0.000000E+00
6.330000E+03	6.405389E-18	0.000000E+00
6.340000E+03	6.359387E-18	0.000000E+00
6.350000E+03	6.315059E-18	0.000000E+00
6.360000E+03	6.272411E-18	0.000000E+00
6.370000E+03	6.231539E-18	0.000000E+00
6.380000E+03	6.192719E-18	0.000000E+00
6.390000E+03	6.155866E-18	0.000000E+00
6.400000E+03	6.121075E-18	0.000000E+00
6.410000E+03	6.088530E-18	0.000000E+00
6.420000E+03	6.057966E-18	0.000000E+00
6.430000E+03	6.029208E-18	0.000000E+00
6.440000E+03	6.002171E-18	0.000000E+00
6.450000E+03	5.976769E-18	0.000000E+00
6.460000E+03	5.952828E-18	0.000000E+00
6.470000E+03	5.930349E-18	0.000000E+00
6.480000E+03	5.909250E-18	0.000000E+00
6.490000E+03	5.889533E-18	0.000000E+00
6.500000E+03	5.871112E-18	0.000000E+00
6.510000E+03	5.853991E-18	0.000000E+00
6.520000E+03	5.838172E-18	0.000000E+00
6.530000E+03	5.823569E-18	0.000000E+00
6.540000E+03	5.810276E-18	0.000000E+00
6.550000E+03	5.798295E-18	0.000000E+00
6.560000E+03	5.787537E-18	0.000000E+00
6.570000E+03	5.778096E-18	0.000000E+00
6.580000E+03	5.769884E-18	0.000000E+00
6.590000E+03	5.762900E-18	0.000000E+00
6.600000E+03	5.757240E-18	0.000000E+00
6.610000E+03	5.752717E-18	0.000000E+00
6.620000E+03	5.749615E-18	0.000000E+00
6.630000E+03	5.747651E-18	0.000000E+00
6.640000E+03	5.747016E-18	0.000000E+00
6.650000E+03	5.747613E-18	0.000000E+00
6.660000E+03	5.749443E-18	0.000000E+00
6.670000E+03	5.752602E-18	0.000000E+00
6.680000E+03	5.756993E-18	0.000000E+00
6.690000E+03	5.762614E-18	0.000000E+00
6.700000E+03	5.769465E-18	0.000000E+00
6.710000E+03	5.777641E-18	0.000000E+00
6.720000E+03	5.786944E-18	0.000000E+00
6.730000E+03	5.797568E-18	0.000000E+00
6.740000E+03	5.809413E-18	0.000000E+00
6.750000E+03	5.822475E-18	0.000000E+00
6.760000E+03	5.836750E-18	0.000000E+00
6.770000E+03	5.852235E-18	0.000000E+00
6.780000E+03	5.869029E-18	0.000000E+00
6.790000E+03	5.886921E-18	0.000000E+00
6.800000E+03	5.906010E-18	0.000000E+00
6.810000E+03	5.926289E-18	0.000000E+00
6.820000E+03	5.947753E-18	0.000000E+00
6.830000E+03	5.970396E-18	0.000000E+00
6.840000E+03	5.994213E-18	0.000000E+00
6.850000E+03	6.019198E-18	0.000000E+00
6.860000E+03	6.045231E-18	0.000000E+00
6.870000E+03	6.072417E-18	0.000000E+00
6.880000E+03	6.100749E-18	0.000000E+00
6.890000E+03	6.130104E-18	0.000000E+00
6.900000E+03	6.160589E-18	0.000000E+00
6.910000E+03	6.192196E-18	0.000000E+00
6.920000E+03	6.224800E-18	0.000000E+00
6.930000E+03	6.258393E-18	0.000000E+00
6.940000E+03	6.293082E-18	0.000000E+00
6.950000E+03	6.328742E-18	0.000000E+00
6.960000E+03	6.365361E-18	0.000000E+00
6.970000E+03	6.403054E-18	0.000000E+00
6.980000E+03	6.441690E-18	0.000000E+00
6.990000E+03	6.481262E-18	0.000000E+00
7.000000E+03	6.521633E-18	0.000000E+00
7.010000E+03	6.563047E-18	0.000000E+00
7.020000E+03	6.605372E-18	0.000000E+00
7.030000E+03	6.648602E-18	0.000000E+00
7.040000E+03	6.692596E-18	0.000000E+00
7.050000E+03	6.737478E-18	0.000000E+00
7.060000E+03	6.783109E-18	0.000000E+00
7.070000E+03	6.829752E-18	0.000000E+00
7.080000E+03	6.876993E-18	0.000000E+00
7.090000E+03	6.925099E-18	0.000000E+00
7.100000E+03	6.973926E-18	0.000000E+00
7.110000E+03	7.023609E-18	0.000000E+00
7.120000E+03	7.073858E-18	0.000000E+00
7.130000E+03	7.124951E-18	0.000000E+00
7.140000E+03	7.176597E-18	0.000000E+00
7.150000E+03	7.228930E-18	0.000000E+00
7.160000E+03	7.281946E-18	0.000000E+00
7.170000E+03	7.335640E-18	0.000000E+00
7.180000E+03	7.389853E-18	0.000000E+00
7.190000E+03	7.444573E-18	0.000000E+00
7.200000E+03	7.499949E-18	0.000000E+00
7.210000E+03	7.555815E-18	0.000000E+00
7.220000E+03	7.612323E-18	0.000000E+00
7.230000E+03	7.669138E-18	0.000000E+00
7.240000E+03	7.726576E-18	0.000000E+00
7.250000E+03	7.784462E-18	0.000000E+00
7.260000E+03	7.842785E-18	0.000000E+00
7.270000E+03	7.901530E-18	0.000000E+00
7.280000E+03	7.960684E-18	0.000000E+00
7.290000E+03	8.020232E-18	0.000000E+00
7.300000E+03	8.080337E-18	0.000000E+00
7.310000E+03	8.140629E-18	0.000000E+00
7.320000E+03	8.201631E-18	0.000000E+00
7.330000E+03	8.263154E-18	0.000000E+00
7.340000E+03	8.324996E-18	0.000000E+00
7.350000E+03	8.387708E-18	0.000000E+00
7.360000E+03	8.450901E-18	0.000000E+00
7.370000E+03	8.515147E-18	0.000000E+00
7.380000E+03	8.580250E-18	0.000000E+00
7.390000E+03	8.646407E-18	0.000000E+00
7.400000E+03	8.713823E-18	0.000000E+00
7.410000E+03	8.782505E-18	0.000000E+00
7.420000E+03	8.852878E-18	0.000000E+00
7.430000E+03	8.925175E-18	0.000000E+00
7.440000E+03	8.999213E-18	0.000000E+00
7.450000E+03	9.075015E-18	0.000000E+00
7.460000E+03	9.152601E-18	0.000000E+00
7.470000E+03	9.231774E-18	0.000000E+00
7.480000E+03	9.312320E-18	0.000000E+00
7.490000E+03	9.394015E-18	0.000000E+00
7.500000E+03	9.476854E-18	0.000000E+00
7.510000E+03	9.560590E-18	0.000000E+00
7.520000E+03	9.644973E-18	0.000000E+00
7.530000E+03	9.730217E-18	0.000000E+00
7.540000E+03	9.815807E-18	0.000000E+00
7.550000E+03	9.901697E-18	0.000000E+00
7.560000E+03	9.987858E-18	0.000000E+00
7.570000E+03	1.007422E-17	0.000000E+00
7.580000E+03	1.016075E-17	0.000000E+00
7.590000E+03	1.024714E-17	0.000000E+00
7.600000E+03	1.033331E-17	0.000000E+00
7.610000E+03	1.041946E-17	0.000000E+00
7.620000E+03	1.050527E-17	0.000000E+00
7.630000E+03	1.059094E-17	0.000000E+00
7.640000E+03	1.067586E-17	0.000000E+00
7.650000E+03	1.076048E-17	0.000000E+00
7.660000E+03	1.084447E-17	0.000000E+00
7.670000E+03	1.092773E-17	0.000000E+00
7.680000E+03	1.101019E-17	0.000000E+00
7.690000E+03	1.109205E-17	0.000000E+00
7.700000E+03	1.117293E-17	0.000000E+00
7.710000E+03	1.125276E-17	0.000000E+00
7.720000E+03	1.133171E-17	0.000000E+00
7.730000E+03	1.140972E-17	0.000000E+00
7.740000E+03	1.148640E-17	0.000000E+00
7.750000E+03	1.156194E-17	0.000000E+00
7.760000E+03	1.163627E-17	0.000000E+00
