#wls	flux	fluxerr
1.600000E+03	1.651086E-17	6.495324E-18
1.640000E+03	1.720204E-17	6.759456E-18
1.680000E+03	1.789579E-17	7.023988E-18
1.720000E+03	1.859000E-17	7.288082E-18
1.760000E+03	1.927808E-17	7.549167E-18
1.800000E+03	1.996580E-17	7.808956E-18
1.840000E+03	2.063849E-17	8.062238E-18
1.880000E+03	2.129342E-17	8.307965E-18
1.920000E+03	2.192336E-17	8.543345E-18
1.960000E+03	2.252843E-17	8.767817E-18
2.000000E+03	2.309444E-17	8.976521E-18
2.040000E+03	2.361440E-17	9.166796E-18
2.080000E+03	2.407901E-17	9.335112E-18
2.120000E+03	2.448741E-17	9.480478E-18
2.160000E+03	2.482186E-17	9.596842E-18
2.200000E+03	2.507498E-17	9.681472E-18
2.240000E+03	2.523816E-17	9.731177E-18
2.280000E+03	2.531540E-17	9.746835E-18
2.320000E+03	2.529837E-17	9.726186E-18
2.360000E+03	2.518448E-17	9.668398E-18
2.400000E+03	2.497593E-17	9.574470E-18
2.440000E+03	2.468052E-17	9.446717E-18
2.480000E+03	2.429211E-17	9.283794E-18
2.520000E+03	2.381236E-17	9.086500E-18
2.560000E+03	2.324267E-17	8.855522E-18
2.600000E+03	2.259433E-17	8.594516E-18
2.640000E+03	2.186408E-17	8.303229E-18
2.680000E+03	2.105654E-17	7.983563E-18
2.720000E+03	2.017899E-17	7.638418E-18
2.760000E+03	1.924416E-17	7.272008E-18
2.800000E+03	1.825455E-17	6.886176E-18
2.840000E+03	1.722015E-17	6.484784E-18
2.880000E+03	1.615273E-17	6.072345E-18
2.920000E+03	1.507370E-17	5.656415E-18
2.960000E+03	1.399777E-17	5.243139E-18
3.000000E+03	1.294424E-17	4.839723E-18
3.010000E+03	1.268621E-17	4.741093E-18
3.020000E+03	1.243159E-17	4.643760E-18
3.030000E+03	1.217935E-17	4.547406E-18
3.040000E+03	1.193042E-17	4.452379E-18
3.050000E+03	1.168458E-17	4.358588E-18
3.060000E+03	1.144208E-17	4.266106E-18
3.070000E+03	1.120303E-17	4.174991E-18
3.080000E+03	1.096768E-17	4.085342E-18
3.090000E+03	1.073582E-17	3.997076E-18
3.100000E+03	1.050812E-17	3.910415E-18
3.110000E+03	1.028415E-17	3.825225E-18
3.120000E+03	1.006415E-17	3.741588E-18
3.130000E+03	9.848283E-18	3.659570E-18
3.140000E+03	9.636725E-18	3.579204E-18
3.150000E+03	9.429069E-18	3.500365E-18
3.160000E+03	9.225851E-18	3.423249E-18
3.170000E+03	9.026663E-18	3.347702E-18
3.180000E+03	8.831990E-18	3.273878E-18
3.190000E+03	8.641602E-18	3.201714E-18
3.200000E+03	8.455447E-18	3.131188E-18
3.210000E+03	8.273475E-18	3.062280E-18
3.220000E+03	8.096080E-18	2.995111E-18
3.230000E+03	7.922885E-18	2.929562E-18
3.240000E+03	7.753835E-18	2.865610E-18
3.250000E+03	7.588998E-18	2.803278E-18
3.260000E+03	7.428573E-18	2.742617E-18
3.270000E+03	7.272212E-18	2.683516E-18
3.280000E+03	7.119964E-18	2.625992E-18
3.290000E+03	6.971758E-18	2.570016E-18
3.300000E+03	6.827759E-18	2.515628E-18
3.310000E+03	6.687642E-18	2.462725E-18
3.320000E+03	6.551345E-18	2.411283E-18
3.330000E+03	6.418988E-18	2.361342E-18
3.340000E+03	6.290429E-18	2.312832E-18
3.350000E+03	6.165562E-18	2.265728E-18
3.360000E+03	6.044405E-18	2.220036E-18
3.370000E+03	5.926714E-18	2.175664E-18
3.380000E+03	5.812702E-18	2.132672E-18
3.390000E+03	5.702026E-18	2.090948E-18
3.400000E+03	5.594631E-18	2.050470E-18
3.410000E+03	5.490531E-18	2.011242E-18
3.420000E+03	5.389697E-18	1.973236E-18
3.430000E+03	5.291969E-18	1.936406E-18
3.440000E+03	5.197163E-18	1.900685E-18
3.450000E+03	5.105302E-18	1.866078E-18
3.460000E+03	5.016377E-18	1.832566E-18
3.470000E+03	4.930127E-18	1.800067E-18
3.480000E+03	4.846525E-18	1.768570E-18
3.490000E+03	4.765430E-18	1.738021E-18
3.500000E+03	4.686860E-18	1.708411E-18
3.510000E+03	4.610646E-18	1.679693E-18
3.520000E+03	4.536629E-18	1.651806E-18
3.530000E+03	4.464662E-18	1.624695E-18
3.540000E+03	4.394651E-18	1.598313E-18
3.550000E+03	4.326302E-18	1.572564E-18
3.560000E+03	4.259434E-18	1.547381E-18
3.570000E+03	4.193884E-18	1.522705E-18
3.580000E+03	4.129543E-18	1.498483E-18
3.590000E+03	4.066161E-18	1.474636E-18
3.600000E+03	4.003668E-18	1.451138E-18
3.610000E+03	3.941884E-18	1.427923E-18
3.620000E+03	3.880827E-18	1.404986E-18
3.630000E+03	3.820519E-18	1.382346E-18
3.640000E+03	3.760962E-18	1.360004E-18
3.650000E+03	3.702238E-18	1.337988E-18
3.660000E+03	3.644477E-18	1.316334E-18
3.670000E+03	3.587692E-18	1.295058E-18
3.680000E+03	3.531928E-18	1.274174E-18
3.690000E+03	3.477191E-18	1.253685E-18
3.700000E+03	3.423663E-18	1.233645E-18
3.710000E+03	3.371241E-18	1.214026E-18
3.720000E+03	3.319994E-18	1.194854E-18
3.730000E+03	3.269929E-18	1.176129E-18
3.740000E+03	3.221142E-18	1.157875E-18
3.750000E+03	3.173567E-18	1.140079E-18
3.760000E+03	3.127192E-18	1.122735E-18
3.770000E+03	3.082066E-18	1.105859E-18
3.780000E+03	3.038231E-18	1.089458E-18
3.790000E+03	2.995633E-18	1.073518E-18
3.800000E+03	2.954228E-18	1.058026E-18
3.810000E+03	2.914070E-18	1.042998E-18
3.820000E+03	2.875163E-18	1.028427E-18
3.830000E+03	2.837474E-18	1.014310E-18
3.840000E+03	2.800949E-18	1.000625E-18
3.850000E+03	2.765628E-18	9.873868E-19
3.860000E+03	2.731491E-18	9.745784E-19
3.870000E+03	2.698517E-18	9.622007E-19
3.880000E+03	2.666676E-18	9.502418E-19
3.890000E+03	2.635935E-18	9.386897E-19
3.900000E+03	2.606333E-18	9.275486E-19
3.910000E+03	2.577807E-18	9.168042E-19
3.920000E+03	2.550345E-18	9.064513E-19
3.930000E+03	2.523914E-18	8.964774E-19
3.940000E+03	2.498529E-18	8.868792E-19
3.950000E+03	2.474149E-18	8.776494E-19
3.960000E+03	2.450759E-18	8.687826E-19
3.970000E+03	2.428292E-18	8.602537E-19
3.980000E+03	2.406817E-18	8.520789E-19
3.990000E+03	2.386258E-18	8.442383E-19
4.000000E+03	2.366601E-18	8.367268E-19
4.010000E+03	2.347799E-18	8.295270E-19
4.020000E+03	2.329885E-18	8.226421E-19
4.030000E+03	2.312821E-18	8.160660E-19
4.040000E+03	2.296561E-18	8.097817E-19
4.050000E+03	2.281095E-18	8.037853E-19
4.060000E+03	2.266440E-18	7.980742E-19
4.070000E+03	2.252542E-18	7.926371E-19
4.080000E+03	2.239376E-18	7.874642E-19
4.090000E+03	2.226934E-18	7.825525E-19
4.100000E+03	2.215232E-18	7.778996E-19
4.110000E+03	2.204206E-18	7.734897E-19
4.120000E+03	2.193849E-18	7.693198E-19
4.130000E+03	2.184154E-18	7.653876E-19
4.140000E+03	2.175123E-18	7.616855E-19
4.150000E+03	2.166728E-18	7.582103E-19
4.160000E+03	2.158930E-18	7.549486E-19
4.170000E+03	2.151725E-18	7.518983E-19
4.180000E+03	2.145151E-18	7.490646E-19
4.190000E+03	2.139147E-18	7.464335E-19
4.200000E+03	2.133695E-18	7.439979E-19
4.210000E+03	2.128792E-18	7.417570E-19
4.220000E+03	2.124462E-18	7.397104E-19
4.230000E+03	2.120662E-18	7.378509E-19
4.240000E+03	2.117391E-18	7.361779E-19
4.250000E+03	2.114636E-18	7.346855E-19
4.260000E+03	2.112401E-18	7.333683E-19
4.270000E+03	2.110682E-18	7.322314E-19
4.280000E+03	2.109448E-18	7.312637E-19
4.290000E+03	2.108700E-18	7.304654E-19
4.300000E+03	2.108447E-18	7.298317E-19
4.310000E+03	2.108670E-18	7.293630E-19
4.320000E+03	2.109357E-18	7.290547E-19
4.330000E+03	2.110494E-18	7.289018E-19
4.340000E+03	2.112125E-18	7.289117E-19
4.350000E+03	2.114200E-18	7.290739E-19
4.360000E+03	2.116759E-18	7.294020E-19
4.370000E+03	2.119772E-18	7.298859E-19
4.380000E+03	2.123288E-18	7.305335E-19
4.390000E+03	2.127275E-18	7.313414E-19
4.400000E+03	2.131707E-18	7.323006E-19
4.410000E+03	2.136593E-18	7.334134E-19
4.420000E+03	2.141964E-18	7.346825E-19
4.430000E+03	2.147757E-18	7.360934E-19
4.440000E+03	2.153998E-18	7.376554E-19
4.450000E+03	2.160664E-18	7.393597E-19
4.460000E+03	2.167788E-18	7.412091E-19
4.470000E+03	2.175307E-18	7.431900E-19
4.480000E+03	2.183251E-18	7.453122E-19
4.490000E+03	2.191614E-18	7.475736E-19
4.500000E+03	2.200395E-18	7.499648E-19
4.510000E+03	2.209587E-18	7.524914E-19
4.520000E+03	2.219165E-18	7.551451E-19
4.530000E+03	2.229127E-18	7.579243E-19
4.540000E+03	2.239528E-18	7.608385E-19
4.550000E+03	2.250322E-18	7.638814E-19
4.560000E+03	2.261490E-18	7.670452E-19
4.570000E+03	2.273027E-18	7.703284E-19
4.580000E+03	2.284991E-18	7.737410E-19
4.590000E+03	2.297338E-18	7.772772E-19
4.600000E+03	2.310028E-18	7.809228E-19
4.610000E+03	2.323097E-18	7.846896E-19
4.620000E+03	2.336584E-18	7.885815E-19
4.630000E+03	2.350407E-18	7.925797E-19
4.640000E+03	2.364585E-18	7.966896E-19
4.650000E+03	2.379115E-18	8.009106E-19
4.660000E+03	2.394017E-18	8.052395E-19
4.670000E+03	2.409289E-18	8.096848E-19
4.680000E+03	2.424910E-18	8.142387E-19
4.690000E+03	2.440900E-18	8.189078E-19
4.700000E+03	2.457300E-18	8.236961E-19
4.710000E+03	2.474090E-18	8.286058E-19
4.720000E+03	2.491249E-18	8.336298E-19
4.730000E+03	2.508820E-18	8.387822E-19
4.740000E+03	2.526827E-18	8.440601E-19
4.750000E+03	2.545295E-18	8.494816E-19
4.760000E+03	2.564180E-18	8.550323E-19
4.770000E+03	2.583510E-18	8.607202E-19
4.780000E+03	2.603375E-18	8.665651E-19
4.790000E+03	2.623714E-18	8.725563E-19
4.800000E+03	2.644578E-18	8.787103E-19
4.810000E+03	2.665925E-18	8.850127E-19
4.820000E+03	2.687851E-18	8.914843E-19
4.830000E+03	2.710320E-18	8.981229E-19
4.840000E+03	2.733311E-18	9.049215E-19
4.850000E+03	2.756855E-18	9.118899E-19
4.860000E+03	2.781030E-18	9.190418E-19
4.870000E+03	2.805748E-18	9.263585E-19
4.880000E+03	2.831039E-18	9.338501E-19
4.890000E+03	2.856937E-18	9.415270E-19
4.900000E+03	2.883444E-18	9.493771E-19
4.910000E+03	2.910546E-18	9.574073E-19
4.920000E+03	2.938250E-18	9.656195E-19
4.930000E+03	2.966564E-18	9.740155E-19
4.940000E+03	2.995544E-18	9.826006E-19
4.950000E+03	3.025121E-18	9.913641E-19
4.960000E+03	3.055331E-18	1.000317E-18
4.970000E+03	3.086151E-18	1.009451E-18
4.980000E+03	3.117637E-18	1.018772E-18
4.990000E+03	3.149749E-18	1.028278E-18
5.000000E+03	3.182492E-18	1.037970E-18
5.010000E+03	3.215872E-18	1.047850E-18
5.020000E+03	3.249946E-18	1.057921E-18
5.030000E+03	3.284640E-18	1.068174E-18
5.040000E+03	3.319959E-18	1.078608E-18
5.050000E+03	3.355907E-18	1.089225E-18
5.060000E+03	3.392541E-18	1.100027E-18
5.070000E+03	3.429813E-18	1.111014E-18
5.080000E+03	3.467729E-18	1.122186E-18
5.090000E+03	3.506224E-18	1.133521E-18
5.100000E+03	3.545422E-18	1.145045E-18
5.110000E+03	3.585272E-18	1.156754E-18
5.120000E+03	3.625709E-18	1.168627E-18
5.130000E+03	3.666731E-18	1.180663E-18
5.140000E+03	3.708429E-18	1.192876E-18
5.150000E+03	3.750749E-18	1.205261E-18
5.160000E+03	3.793618E-18	1.217796E-18
5.170000E+03	3.837069E-18	1.230490E-18
5.180000E+03	3.881193E-18	1.243356E-18
5.190000E+03	3.925858E-18	1.256366E-18
5.200000E+03	3.971058E-18	1.269519E-18
5.210000E+03	4.016787E-18	1.282812E-18
5.220000E+03	4.063132E-18	1.296254E-18
5.230000E+03	4.109996E-18	1.309832E-18
5.240000E+03	4.157367E-18	1.323540E-18
5.250000E+03	4.205198E-18	1.337364E-18
5.260000E+03	4.253573E-18	1.351312E-18
5.270000E+03	4.302432E-18	1.365381E-18
5.280000E+03	4.351708E-18	1.379551E-18
5.290000E+03	4.401442E-18	1.393833E-18
5.300000E+03	4.451634E-18	1.408208E-18
5.310000E+03	4.502204E-18	1.422669E-18
5.320000E+03	4.553185E-18	1.437227E-18
5.330000E+03	4.604511E-18	1.451859E-18
5.340000E+03	4.656231E-18	1.466562E-18
5.350000E+03	4.708259E-18	1.481326E-18
5.360000E+03	4.760578E-18	1.496148E-18
5.370000E+03	4.813160E-18	1.511017E-18
5.380000E+03	4.866054E-18	1.525927E-18
5.390000E+03	4.919168E-18	1.540870E-18
5.400000E+03	4.972431E-18	1.555824E-18
5.410000E+03	5.025809E-18	1.570779E-18
5.420000E+03	5.079396E-18	1.585740E-18
5.430000E+03	5.133049E-18	1.600685E-18
5.440000E+03	5.186736E-18	1.615604E-18
5.450000E+03	5.240370E-18	1.630470E-18
5.460000E+03	5.294038E-18	1.645287E-18
5.470000E+03	5.347538E-18	1.660015E-18
5.480000E+03	5.400943E-18	1.674677E-18
5.490000E+03	5.454047E-18	1.689208E-18
5.500000E+03	5.506937E-18	1.703613E-18
5.510000E+03	5.559506E-18	1.717881E-18
5.520000E+03	5.611663E-18	1.731987E-18
5.530000E+03	5.663363E-18	1.745915E-18
5.540000E+03	5.714570E-18	1.759630E-18
5.550000E+03	5.765178E-18	1.773125E-18
5.560000E+03	5.815142E-18	1.786387E-18
5.570000E+03	5.864422E-18	1.799405E-18
5.580000E+03	5.912975E-18	1.812139E-18
5.590000E+03	5.960694E-18	1.824584E-18
5.600000E+03	6.007537E-18	1.836727E-18
5.610000E+03	6.053457E-18	1.848556E-18
5.620000E+03	6.098414E-18	1.860031E-18
5.630000E+03	6.142299E-18	1.871148E-18
5.640000E+03	6.185131E-18	1.881915E-18
5.650000E+03	6.226815E-18	1.892302E-18
5.660000E+03	6.267296E-18	1.902266E-18
5.670000E+03	6.306612E-18	1.911849E-18
5.680000E+03	6.344727E-18	1.921040E-18
5.690000E+03	6.381461E-18	1.929787E-18
5.700000E+03	6.416925E-18	1.938095E-18
5.710000E+03	6.451080E-18	1.945984E-18
5.720000E+03	6.483839E-18	1.953428E-18
5.730000E+03	6.515162E-18	1.960417E-18
5.740000E+03	6.545167E-18	1.966958E-18
5.750000E+03	6.573692E-18	1.973034E-18
5.760000E+03	6.600862E-18	1.978684E-18
5.770000E+03	6.626515E-18	1.983861E-18
5.780000E+03	6.650768E-18	1.988571E-18
5.790000E+03	6.673553E-18	1.992826E-18
5.800000E+03	6.694923E-18	1.996644E-18
5.810000E+03	6.714807E-18	2.000004E-18
5.820000E+03	6.733326E-18	2.002914E-18
5.830000E+03	6.750425E-18	2.005390E-18
5.840000E+03	6.766028E-18	2.007410E-18
5.850000E+03	6.780289E-18	2.009022E-18
5.860000E+03	6.793189E-18	2.010192E-18
5.870000E+03	6.804768E-18	2.010963E-18
5.880000E+03	6.814949E-18	2.011315E-18
5.890000E+03	6.823829E-18	2.011276E-18
5.900000E+03	6.831471E-18	2.010837E-18
5.910000E+03	6.837841E-18	2.010020E-18
5.920000E+03	6.843037E-18	2.008856E-18
5.930000E+03	6.846931E-18	2.007307E-18
5.940000E+03	6.849740E-18	2.005409E-18
5.950000E+03	6.851443E-18	2.003186E-18
5.960000E+03	6.852074E-18	2.000651E-18
5.970000E+03	6.851574E-18	1.997788E-18
5.980000E+03	6.850088E-18	1.994613E-18
5.990000E+03	6.847698E-18	1.991178E-18
6.000000E+03	6.844265E-18	1.987444E-18
6.000168E+03	4.716615E-18	1.369584E-18
6.000368E+03	4.738064E-18	1.375774E-18
6.000568E+03	4.747261E-18	1.378406E-18
6.000768E+03	4.755710E-18	1.380821E-18
6.000968E+03	4.772619E-18	1.385692E-18
6.001168E+03	4.798276E-18	1.393103E-18
6.001369E+03	4.820946E-18	1.399646E-18
6.001569E+03	4.840336E-18	1.405237E-18
6.001769E+03	4.856275E-18	1.409825E-18
6.001968E+03	4.861049E-18	1.411172E-18
6.002168E+03	4.870199E-18	1.413789E-18
6.002368E+03	4.888963E-18	1.419197E-18
6.002569E+03	4.890116E-18	1.419492E-18
6.002769E+03	4.900881E-18	1.422578E-18
6.002968E+03	4.918670E-18	1.427702E-18
6.003168E+03	4.924602E-18	1.429385E-18
6.003368E+03	4.944066E-18	1.434994E-18
6.003568E+03	4.963590E-18	1.440621E-18
6.003768E+03	4.980295E-18	1.445430E-18
6.003968E+03	4.988650E-18	1.447814E-18
6.004168E+03	4.999887E-18	1.451035E-18
6.004368E+03	5.012680E-18	1.454708E-18
6.004568E+03	5.028413E-18	1.459233E-18
6.004768E+03	5.041552E-18	1.463006E-18
6.004968E+03	5.050548E-18	1.465576E-18
6.005168E+03	5.056145E-18	1.467159E-18
6.005368E+03	5.063992E-18	1.469395E-18
6.005568E+03	5.069475E-18	1.470946E-18
6.005768E+03	5.083022E-18	1.474836E-18
6.005968E+03	5.102225E-18	1.480366E-18
6.006168E+03	5.126611E-18	1.487401E-18
6.006369E+03	5.143340E-18	1.492213E-18
6.006569E+03	5.149871E-18	1.494066E-18
6.006969E+03	5.156524E-18	1.495914E-18
6.007169E+03	5.168587E-18	1.499371E-18
6.007369E+03	5.185553E-18	1.504251E-18
6.007569E+03	5.204424E-18	1.509684E-18
6.007769E+03	5.208937E-18	1.510951E-18
6.007969E+03	5.223830E-18	1.515229E-18
6.008169E+03	5.238382E-18	1.519408E-18
6.008369E+03	5.260833E-18	1.525878E-18
6.008769E+03	5.281001E-18	1.531642E-18
6.008969E+03	5.297749E-18	1.536457E-18
6.009169E+03	5.304752E-18	1.538446E-18
6.009369E+03	5.310084E-18	1.539949E-18
6.009569E+03	5.315125E-18	1.541368E-18
6.009769E+03	5.326224E-18	1.544544E-18
6.009969E+03	5.343268E-18	1.549444E-18
6.010169E+03	5.362277E-18	1.554913E-18
6.010369E+03	5.376731E-18	1.559061E-18
6.010569E+03	5.381948E-18	1.560530E-18
6.010769E+03	5.385901E-18	1.561633E-18
6.010969E+03	5.404223E-18	1.566902E-18
6.011169E+03	5.416778E-18	1.570499E-18
6.011370E+03	5.424081E-18	1.572572E-18
6.011570E+03	5.435656E-18	1.575884E-18
6.011770E+03	5.457562E-18	1.582191E-18
6.011970E+03	5.481899E-18	1.589203E-18
6.012170E+03	5.492784E-18	1.592314E-18
6.012370E+03	5.508640E-18	1.596866E-18
6.012570E+03	5.519008E-18	1.599828E-18
6.012770E+03	5.527417E-18	1.602221E-18
6.012970E+03	5.549165E-18	1.608480E-18
6.013170E+03	5.574323E-18	1.615727E-18
6.013370E+03	5.590243E-18	1.620297E-18
6.013570E+03	5.604028E-18	1.624247E-18
6.013770E+03	5.614753E-18	1.627311E-18
6.013970E+03	5.630911E-18	1.631948E-18
6.014170E+03	5.633551E-18	1.632668E-18
6.014369E+03	5.647345E-18	1.636620E-18
6.014569E+03	5.662407E-18	1.640940E-18
6.014770E+03	5.678396E-18	1.645528E-18
6.014970E+03	5.705022E-18	1.653198E-18
6.015169E+03	5.723207E-18	1.658421E-18
6.015369E+03	5.735911E-18	1.662056E-18
6.015569E+03	5.750176E-18	1.666144E-18
6.015769E+03	5.750918E-18	1.666312E-18
6.015969E+03	5.767900E-18	1.671186E-18
6.016169E+03	5.774021E-18	1.672913E-18
6.016370E+03	5.785402E-18	1.676164E-18
6.016570E+03	5.795567E-18	1.679062E-18
6.016770E+03	5.798223E-18	1.679785E-18
6.016970E+03	5.806654E-18	1.682181E-18
6.017170E+03	5.812779E-18	1.683908E-18
6.017370E+03	5.829307E-18	1.688649E-18
6.017570E+03	5.837746E-18	1.691047E-18
6.017770E+03	5.846186E-18	1.693445E-18
6.017970E+03	5.858094E-18	1.696847E-18
6.018170E+03	5.859595E-18	1.697234E-18
6.018370E+03	5.879604E-18	1.702983E-18
6.018570E+03	5.907713E-18	1.711077E-18
6.018770E+03	5.921941E-18	1.715150E-18
6.018970E+03	5.937332E-18	1.719560E-18
6.019170E+03	5.951563E-18	1.723633E-18
6.019370E+03	5.957700E-18	1.725363E-18
6.019570E+03	5.969621E-18	1.728767E-18
6.019770E+03	5.986175E-18	1.733512E-18
6.019970E+03	6.005619E-18	1.739095E-18
6.020170E+03	6.014651E-18	1.741662E-18
6.020370E+03	6.024264E-18	1.744397E-18
6.020570E+03	6.033302E-18	1.746965E-18
6.020770E+03	6.035971E-18	1.747689E-18
6.020970E+03	6.047320E-18	1.750927E-18
6.021170E+03	6.063304E-18	1.755506E-18
6.021371E+03	6.065400E-18	1.756064E-18
6.021571E+03	6.081968E-18	1.760811E-18
6.021771E+03	6.097375E-18	1.765223E-18
6.021971E+03	6.100630E-18	1.766116E-18
6.022171E+03	6.112568E-18	1.769523E-18
6.022371E+03	6.130876E-18	1.774773E-18
6.022571E+03	6.142817E-18	1.778180E-18
6.022771E+03	6.146656E-18	1.779242E-18
6.022971E+03	6.159176E-18	1.782816E-18
6.023171E+03	6.168805E-18	1.785554E-18
6.023371E+03	6.168010E-18	1.785274E-18
6.023571E+03	6.173009E-18	1.786671E-18
6.023771E+03	6.176269E-18	1.787565E-18
6.023971E+03	6.183004E-18	1.789464E-18
6.024171E+03	6.196689E-18	1.793375E-18
6.024371E+03	6.198216E-18	1.793767E-18
6.024571E+03	6.199157E-18	1.793989E-18
6.024771E+03	6.209375E-18	1.796896E-18
6.024971E+03	6.216113E-18	1.798796E-18
6.025171E+03	6.215897E-18	1.798683E-18
6.025371E+03	6.224377E-18	1.801087E-18
6.025571E+03	6.232276E-18	1.803322E-18
6.025771E+03	6.236700E-18	1.804552E-18
6.025971E+03	6.251559E-18	1.808801E-18
6.026172E+03	6.264680E-18	1.812546E-18
6.026372E+03	6.266207E-18	1.812938E-18
6.026572E+03	6.282229E-18	1.817522E-18
6.026771E+03	6.305791E-18	1.824289E-18
6.026971E+03	6.327035E-18	1.830384E-18
6.027172E+03	6.338423E-18	1.833627E-18
6.027372E+03	6.340537E-18	1.834187E-18
6.027572E+03	6.343811E-18	1.835083E-18
6.027771E+03	6.355780E-18	1.838494E-18
6.027971E+03	6.370654E-18	1.842745E-18
6.028171E+03	6.380309E-18	1.845487E-18
6.028371E+03	6.387642E-18	1.847556E-18
6.028571E+03	6.396722E-18	1.850131E-18
6.028771E+03	6.402896E-18	1.851865E-18
6.028971E+03	6.407917E-18	1.853265E-18
6.029371E+03	6.420856E-18	1.856904E-18
6.029571E+03	6.440381E-18	1.862498E-18
6.029771E+03	6.453524E-18	1.866247E-18
6.029971E+03	6.459709E-18	1.867983E-18
6.030171E+03	6.468793E-18	1.870558E-18
6.030371E+03	6.483101E-18	1.874643E-18
6.030571E+03	6.502639E-18	1.880240E-18
6.030771E+03	6.513470E-18	1.883319E-18
6.030971E+03	6.518495E-18	1.884719E-18
6.031172E+03	6.537458E-18	1.890149E-18
6.031372E+03	6.551196E-18	1.894068E-18
6.031572E+03	6.557390E-18	1.895806E-18
6.031772E+03	6.567061E-18	1.898549E-18
6.031972E+03	6.572673E-18	1.900118E-18
6.032172E+03	6.573642E-18	1.900345E-18
6.032372E+03	6.572867E-18	1.900068E-18
6.032572E+03	6.593001E-18	1.905835E-18
6.032772E+03	6.607909E-18	1.910091E-18
6.032972E+03	6.625141E-18	1.915019E-18
6.033172E+03	6.629014E-18	1.916085E-18
6.033372E+03	6.636954E-18	1.918326E-18
6.033572E+03	6.640250E-18	1.919225E-18
6.033772E+03	6.640062E-18	1.919117E-18
6.033972E+03	6.642776E-18	1.919848E-18
6.034172E+03	6.653041E-18	1.922761E-18
6.034372E+03	6.652271E-18	1.922484E-18
6.034572E+03	6.665450E-18	1.926239E-18
6.034772E+03	6.665842E-18	1.926299E-18
6.034972E+03	6.665650E-18	1.926189E-18
6.035172E+03	6.671857E-18	1.927929E-18
6.035372E+03	6.679804E-18	1.930171E-18
6.035572E+03	6.677289E-18	1.929391E-18
6.035772E+03	6.675936E-18	1.928946E-18
