#wls	flux	fluxerr
1.600000E+03	9.788602E-17	0.000000E+00
1.640000E+03	1.013794E-16	0.000000E+00
1.680000E+03	1.048346E-16	0.000000E+00
1.720000E+03	1.082380E-16	0.000000E+00
1.760000E+03	1.115503E-16	0.000000E+00
1.800000E+03	1.147743E-16	0.000000E+00
1.840000E+03	1.178534E-16	0.000000E+00
1.880000E+03	1.207727E-16	0.000000E+00
1.920000E+03	1.234922E-16	0.000000E+00
1.960000E+03	1.259803E-16	0.000000E+00
2.000000E+03	1.281926E-16	0.000000E+00
2.040000E+03	1.300937E-16	0.000000E+00
2.080000E+03	1.316375E-16	0.000000E+00
2.120000E+03	1.327882E-16	0.000000E+00
2.160000E+03	1.334920E-16	0.000000E+00
2.200000E+03	1.337183E-16	0.000000E+00
2.240000E+03	1.334306E-16	0.000000E+00
2.280000E+03	1.326242E-16	0.000000E+00
2.320000E+03	1.313039E-16	0.000000E+00
2.360000E+03	1.294687E-16	0.000000E+00
2.400000E+03	1.271425E-16	0.000000E+00
2.440000E+03	1.243420E-16	0.000000E+00
2.480000E+03	1.210857E-16	0.000000E+00
2.520000E+03	1.173954E-16	0.000000E+00
2.560000E+03	1.132916E-16	0.000000E+00
2.600000E+03	1.088107E-16	0.000000E+00
2.640000E+03	1.039845E-16	0.000000E+00
2.680000E+03	9.884860E-17	0.000000E+00
2.720000E+03	9.345141E-17	0.000000E+00
2.760000E+03	8.783923E-17	0.000000E+00
2.800000E+03	8.206600E-17	0.000000E+00
2.840000E+03	7.619045E-17	0.000000E+00
2.880000E+03	7.027820E-17	0.000000E+00
2.920000E+03	6.441709E-17	0.000000E+00
2.960000E+03	5.870029E-17	0.000000E+00
3.000000E+03	5.321579E-17	0.000000E+00
3.010000E+03	5.188908E-17	0.000000E+00
3.020000E+03	5.058336E-17	0.000000E+00
3.030000E+03	4.929653E-17	0.000000E+00
3.040000E+03	4.803239E-17	0.000000E+00
3.050000E+03	4.678993E-17	0.000000E+00
3.060000E+03	4.556935E-17	0.000000E+00
3.070000E+03	4.437183E-17	0.000000E+00
3.080000E+03	4.319838E-17	0.000000E+00
3.090000E+03	4.204805E-17	0.000000E+00
3.100000E+03	4.092262E-17	0.000000E+00
3.110000E+03	3.982113E-17	0.000000E+00
3.120000E+03	3.874431E-17	0.000000E+00
3.130000E+03	3.769278E-17	0.000000E+00
3.140000E+03	3.666628E-17	0.000000E+00
3.150000E+03	3.566389E-17	0.000000E+00
3.160000E+03	3.468746E-17	0.000000E+00
3.170000E+03	3.373530E-17	0.000000E+00
3.180000E+03	3.280839E-17	0.000000E+00
3.190000E+03	3.190634E-17	0.000000E+00
3.200000E+03	3.102877E-17	0.000000E+00
3.210000E+03	3.017528E-17	0.000000E+00
3.220000E+03	2.934652E-17	0.000000E+00
3.230000E+03	2.854151E-17	0.000000E+00
3.240000E+03	2.775980E-17	0.000000E+00
3.250000E+03	2.700141E-17	0.000000E+00
3.260000E+03	2.626630E-17	0.000000E+00
3.270000E+03	2.555351E-17	0.000000E+00
3.280000E+03	2.486298E-17	0.000000E+00
3.290000E+03	2.419420E-17	0.000000E+00
3.300000E+03	2.354701E-17	0.000000E+00
3.310000E+03	2.292054E-17	0.000000E+00
3.320000E+03	2.231432E-17	0.000000E+00
3.330000E+03	2.172848E-17	0.000000E+00
3.340000E+03	2.116188E-17	0.000000E+00
3.350000E+03	2.061433E-17	0.000000E+00
3.360000E+03	2.008564E-17	0.000000E+00
3.370000E+03	1.957476E-17	0.000000E+00
3.380000E+03	1.908174E-17	0.000000E+00
3.390000E+03	1.860561E-17	0.000000E+00
3.400000E+03	1.814595E-17	0.000000E+00
3.410000E+03	1.770255E-17	0.000000E+00
3.420000E+03	1.727476E-17	0.000000E+00
3.430000E+03	1.686217E-17	0.000000E+00
3.440000E+03	1.646399E-17	0.000000E+00
3.450000E+03	1.608005E-17	0.000000E+00
3.460000E+03	1.570981E-17	0.000000E+00
3.470000E+03	1.535255E-17	0.000000E+00
3.480000E+03	1.500800E-17	0.000000E+00
3.490000E+03	1.467551E-17	0.000000E+00
3.500000E+03	1.435467E-17	0.000000E+00
3.510000E+03	1.404508E-17	0.000000E+00
3.520000E+03	1.374607E-17	0.000000E+00
3.530000E+03	1.345701E-17	0.000000E+00
3.540000E+03	1.317721E-17	0.000000E+00
3.550000E+03	1.290592E-17	0.000000E+00
3.560000E+03	1.264246E-17	0.000000E+00
3.570000E+03	1.238620E-17	0.000000E+00
3.580000E+03	1.213648E-17	0.000000E+00
3.590000E+03	1.189269E-17	0.000000E+00
3.600000E+03	1.165451E-17	0.000000E+00
3.610000E+03	1.142133E-17	0.000000E+00
3.620000E+03	1.119290E-17	0.000000E+00
3.630000E+03	1.096940E-17	0.000000E+00
3.640000E+03	1.075074E-17	0.000000E+00
3.650000E+03	1.053708E-17	0.000000E+00
3.660000E+03	1.032848E-17	0.000000E+00
3.670000E+03	1.012508E-17	0.000000E+00
3.680000E+03	9.926921E-18	0.000000E+00
3.690000E+03	9.733910E-18	0.000000E+00
3.700000E+03	9.546296E-18	0.000000E+00
3.710000E+03	9.363870E-18	0.000000E+00
3.720000E+03	9.186734E-18	0.000000E+00
3.730000E+03	9.014818E-18	0.000000E+00
3.740000E+03	8.848114E-18	0.000000E+00
3.750000E+03	8.686525E-18	0.000000E+00
3.760000E+03	8.529951E-18	0.000000E+00
3.770000E+03	8.378416E-18	0.000000E+00
3.780000E+03	8.231800E-18	0.000000E+00
3.790000E+03	8.090042E-18	0.000000E+00
3.800000E+03	7.952948E-18	0.000000E+00
3.810000E+03	7.820575E-18	0.000000E+00
3.820000E+03	7.692723E-18	0.000000E+00
3.830000E+03	7.569373E-18	0.000000E+00
3.840000E+03	7.450325E-18	0.000000E+00
3.850000E+03	7.335613E-18	0.000000E+00
3.860000E+03	7.224980E-18	0.000000E+00
3.870000E+03	7.118455E-18	0.000000E+00
3.880000E+03	7.015895E-18	0.000000E+00
3.890000E+03	6.917161E-18	0.000000E+00
3.900000E+03	6.822168E-18	0.000000E+00
3.910000E+03	6.730834E-18	0.000000E+00
3.920000E+03	6.643075E-18	0.000000E+00
3.930000E+03	6.558759E-18	0.000000E+00
3.940000E+03	6.477756E-18	0.000000E+00
3.950000E+03	6.400039E-18	0.000000E+00
3.960000E+03	6.325533E-18	0.000000E+00
3.970000E+03	6.254016E-18	0.000000E+00
3.980000E+03	6.185517E-18	0.000000E+00
3.990000E+03	6.119918E-18	0.000000E+00
4.000000E+03	6.057152E-18	0.000000E+00
4.010000E+03	5.997062E-18	0.000000E+00
4.020000E+03	5.939590E-18	0.000000E+00
4.030000E+03	5.884720E-18	0.000000E+00
4.040000E+03	5.832306E-18	0.000000E+00
4.050000E+03	5.782295E-18	0.000000E+00
4.060000E+03	5.734592E-18	0.000000E+00
4.070000E+03	5.689146E-18	0.000000E+00
4.080000E+03	5.645870E-18	0.000000E+00
4.090000E+03	5.604717E-18	0.000000E+00
4.100000E+03	5.565604E-18	0.000000E+00
4.110000E+03	5.528450E-18	0.000000E+00
4.120000E+03	5.493215E-18	0.000000E+00
4.130000E+03	5.459867E-18	0.000000E+00
4.140000E+03	5.428287E-18	0.000000E+00
4.150000E+03	5.398488E-18	0.000000E+00
4.160000E+03	5.370356E-18	0.000000E+00
4.170000E+03	5.343865E-18	0.000000E+00
4.180000E+03	5.318991E-18	0.000000E+00
4.190000E+03	5.295669E-18	0.000000E+00
4.200000E+03	5.273837E-18	0.000000E+00
4.210000E+03	5.253476E-18	0.000000E+00
4.220000E+03	5.234527E-18	0.000000E+00
4.230000E+03	5.216974E-18	0.000000E+00
4.240000E+03	5.200803E-18	0.000000E+00
4.250000E+03	5.185961E-18	0.000000E+00
4.260000E+03	5.172357E-18	0.000000E+00
4.270000E+03	5.160063E-18	0.000000E+00
4.280000E+03	5.148988E-18	0.000000E+00
4.290000E+03	5.139128E-18	0.000000E+00
4.300000E+03	5.130398E-18	0.000000E+00
4.310000E+03	5.122835E-18	0.000000E+00
4.320000E+03	5.116397E-18	0.000000E+00
4.330000E+03	5.111044E-18	0.000000E+00
4.340000E+03	5.106778E-18	0.000000E+00
4.350000E+03	5.103560E-18	0.000000E+00
4.360000E+03	5.101478E-18	0.000000E+00
4.370000E+03	5.100455E-18	0.000000E+00
4.380000E+03	5.100499E-18	0.000000E+00
4.390000E+03	5.101621E-18	0.000000E+00
4.400000E+03	5.103750E-18	0.000000E+00
4.410000E+03	5.106898E-18	0.000000E+00
4.420000E+03	5.111038E-18	0.000000E+00
4.430000E+03	5.116104E-18	0.000000E+00
4.440000E+03	5.122151E-18	0.000000E+00
4.450000E+03	5.129118E-18	0.000000E+00
4.460000E+03	5.136981E-18	0.000000E+00
4.470000E+03	5.145676E-18	0.000000E+00
4.480000E+03	5.155266E-18	0.000000E+00
4.490000E+03	5.165734E-18	0.000000E+00
4.500000E+03	5.176976E-18	0.000000E+00
4.510000E+03	5.189058E-18	0.000000E+00
4.520000E+03	5.201923E-18	0.000000E+00
4.530000E+03	5.215555E-18	0.000000E+00
4.540000E+03	5.229982E-18	0.000000E+00
4.550000E+03	5.245190E-18	0.000000E+00
4.560000E+03	5.261123E-18	0.000000E+00
4.570000E+03	5.277770E-18	0.000000E+00
4.580000E+03	5.295162E-18	0.000000E+00
4.590000E+03	5.313288E-18	0.000000E+00
4.600000E+03	5.332050E-18	0.000000E+00
4.610000E+03	5.351528E-18	0.000000E+00
4.620000E+03	5.371713E-18	0.000000E+00
4.630000E+03	5.392506E-18	0.000000E+00
4.640000E+03	5.413944E-18	0.000000E+00
4.650000E+03	5.436020E-18	0.000000E+00
4.660000E+03	5.458681E-18	0.000000E+00
4.670000E+03	5.482013E-18	0.000000E+00
4.680000E+03	5.505963E-18	0.000000E+00
4.690000E+03	5.530574E-18	0.000000E+00
4.700000E+03	5.555842E-18	0.000000E+00
4.710000E+03	5.581813E-18	0.000000E+00
4.720000E+03	5.608433E-18	0.000000E+00
4.730000E+03	5.635800E-18	0.000000E+00
4.740000E+03	5.663865E-18	0.000000E+00
4.750000E+03	5.692775E-18	0.000000E+00
4.760000E+03	5.722432E-18	0.000000E+00
4.770000E+03	5.752890E-18	0.000000E+00
4.780000E+03	5.784252E-18	0.000000E+00
4.790000E+03	5.816474E-18	0.000000E+00
4.800000E+03	5.849663E-18	0.000000E+00
4.810000E+03	5.883722E-18	0.000000E+00
4.820000E+03	5.918763E-18	0.000000E+00
4.830000E+03	5.954793E-18	0.000000E+00
4.840000E+03	5.991768E-18	0.000000E+00
4.850000E+03	6.029750E-18	0.000000E+00
4.860000E+03	6.068802E-18	0.000000E+00
4.870000E+03	6.108824E-18	0.000000E+00
4.880000E+03	6.149882E-18	0.000000E+00
4.890000E+03	6.192042E-18	0.000000E+00
4.900000E+03	6.235200E-18	0.000000E+00
4.910000E+03	6.279423E-18	0.000000E+00
4.920000E+03	6.324723E-18	0.000000E+00
4.930000E+03	6.371107E-18	0.000000E+00
4.940000E+03	6.418589E-18	0.000000E+00
4.950000E+03	6.467116E-18	0.000000E+00
4.960000E+03	6.516761E-18	0.000000E+00
4.970000E+03	6.567471E-18	0.000000E+00
4.980000E+03	6.619254E-18	0.000000E+00
4.990000E+03	6.672120E-18	0.000000E+00
5.000000E+03	6.726075E-18	0.000000E+00
5.010000E+03	6.781129E-18	0.000000E+00
5.020000E+03	6.837287E-18	0.000000E+00
5.030000E+03	6.894494E-18	0.000000E+00
5.040000E+03	6.952752E-18	0.000000E+00
5.050000E+03	7.012068E-18	0.000000E+00
5.060000E+03	7.072443E-18	0.000000E+00
5.070000E+03	7.133881E-18	0.000000E+00
5.080000E+03	7.196386E-18	0.000000E+00
5.090000E+03	7.259820E-18	0.000000E+00
5.100000E+03	7.324320E-18	0.000000E+00
5.110000E+03	7.389888E-18	0.000000E+00
5.120000E+03	7.456378E-18	0.000000E+00
5.130000E+03	7.523785E-18	0.000000E+00
5.140000E+03	7.592177E-18	0.000000E+00
5.150000E+03	7.661547E-18	0.000000E+00
5.160000E+03	7.731738E-18	0.000000E+00
5.170000E+03	7.802814E-18	0.000000E+00
5.180000E+03	7.874840E-18	0.000000E+00
5.190000E+03	7.947651E-18	0.000000E+00
5.200000E+03	8.021230E-18	0.000000E+00
5.210000E+03	8.095560E-18	0.000000E+00
5.220000E+03	8.170700E-18	0.000000E+00
5.230000E+03	8.246550E-18	0.000000E+00
5.240000E+03	8.323087E-18	0.000000E+00
5.250000E+03	8.400206E-18	0.000000E+00
5.260000E+03	8.477959E-18	0.000000E+00
5.270000E+03	8.556317E-18	0.000000E+00
5.280000E+03	8.635167E-18	0.000000E+00
5.290000E+03	8.714557E-18	0.000000E+00
5.300000E+03	8.794368E-18	0.000000E+00
5.310000E+03	8.874559E-18	0.000000E+00
5.320000E+03	8.955178E-18	0.000000E+00
5.330000E+03	9.036094E-18	0.000000E+00
5.340000E+03	9.117262E-18	0.000000E+00
5.350000E+03	9.198633E-18	0.000000E+00
5.360000E+03	9.280158E-18	0.000000E+00
5.370000E+03	9.361783E-18	0.000000E+00
5.380000E+03	9.443452E-18	0.000000E+00
5.390000E+03	9.525109E-18	0.000000E+00
5.400000E+03	9.606604E-18	0.000000E+00
5.410000E+03	9.687861E-18	0.000000E+00
5.420000E+03	9.768928E-18	0.000000E+00
5.430000E+03	9.849624E-18	0.000000E+00
5.440000E+03	9.929881E-18	0.000000E+00
5.450000E+03	1.000954E-17	0.000000E+00
5.460000E+03	1.008862E-17	0.000000E+00
5.470000E+03	1.016683E-17	0.000000E+00
5.480000E+03	1.024431E-17	0.000000E+00
5.490000E+03	1.032065E-17	0.000000E+00
5.500000E+03	1.039588E-17	0.000000E+00
5.510000E+03	1.046992E-17	0.000000E+00
5.520000E+03	1.054257E-17	0.000000E+00
5.530000E+03	1.061374E-17	0.000000E+00
5.540000E+03	1.068323E-17	0.000000E+00
5.550000E+03	1.075096E-17	0.000000E+00
5.560000E+03	1.081683E-17	0.000000E+00
5.570000E+03	1.088075E-17	0.000000E+00
5.580000E+03	1.094252E-17	0.000000E+00
5.590000E+03	1.100205E-17	0.000000E+00
5.600000E+03	1.105927E-17	0.000000E+00
5.610000E+03	1.111406E-17	0.000000E+00
5.620000E+03	1.116625E-17	0.000000E+00
5.630000E+03	1.121576E-17	0.000000E+00
5.640000E+03	1.126261E-17	0.000000E+00
5.650000E+03	1.130662E-17	0.000000E+00
5.660000E+03	1.134760E-17	0.000000E+00
5.670000E+03	1.138573E-17	0.000000E+00
5.680000E+03	1.142094E-17	0.000000E+00
5.690000E+03	1.145295E-17	0.000000E+00
5.700000E+03	1.148181E-17	0.000000E+00
5.710000E+03	1.150761E-17	0.000000E+00
5.720000E+03	1.153020E-17	0.000000E+00
5.730000E+03	1.154952E-17	0.000000E+00
5.740000E+03	1.156569E-17	0.000000E+00
5.750000E+03	1.157857E-17	0.000000E+00
5.760000E+03	1.158839E-17	0.000000E+00
5.770000E+03	1.159488E-17	0.000000E+00
5.780000E+03	1.159818E-17	0.000000E+00
5.790000E+03	1.159830E-17	0.000000E+00
5.800000E+03	1.159537E-17	0.000000E+00
5.810000E+03	1.158930E-17	0.000000E+00
5.820000E+03	1.158023E-17	0.000000E+00
5.830000E+03	1.156820E-17	0.000000E+00
5.840000E+03	1.155311E-17	0.000000E+00
5.850000E+03	1.153527E-17	0.000000E+00
5.860000E+03	1.151459E-17	0.000000E+00
5.870000E+03	1.149128E-17	0.000000E+00
5.880000E+03	1.146524E-17	0.000000E+00
5.890000E+03	1.143668E-17	0.000000E+00
5.900000E+03	1.140566E-17	0.000000E+00
5.910000E+03	1.137227E-17	0.000000E+00
5.920000E+03	1.133670E-17	0.000000E+00
5.930000E+03	1.129877E-17	0.000000E+00
5.940000E+03	1.125882E-17	0.000000E+00
5.950000E+03	1.121693E-17	0.000000E+00
5.960000E+03	1.117319E-17	0.000000E+00
5.970000E+03	1.112756E-17	0.000000E+00
5.980000E+03	1.108026E-17	0.000000E+00
5.990000E+03	1.103150E-17	0.000000E+00
6.000000E+03	1.098111E-17	0.000000E+00
6.010000E+03	1.092944E-17	0.000000E+00
6.020000E+03	1.087644E-17	0.000000E+00
6.030000E+03	1.082234E-17	0.000000E+00
6.040000E+03	1.076694E-17	0.000000E+00
6.050000E+03	1.071061E-17	0.000000E+00
6.060000E+03	1.065342E-17	0.000000E+00
6.070000E+03	1.059531E-17	0.000000E+00
6.080000E+03	1.053635E-17	0.000000E+00
6.090000E+03	1.047677E-17	0.000000E+00
6.100000E+03	1.041648E-17	0.000000E+00
6.110000E+03	1.035569E-17	0.000000E+00
6.120000E+03	1.029433E-17	0.000000E+00
6.130000E+03	1.023258E-17	0.000000E+00
6.140000E+03	1.017064E-17	0.000000E+00
6.150000E+03	1.010841E-17	0.000000E+00
6.160000E+03	1.004608E-17	0.000000E+00
6.170000E+03	9.983954E-18	0.000000E+00
6.180000E+03	9.922057E-18	0.000000E+00
6.190000E+03	9.860570E-18	0.000000E+00
6.200000E+03	9.799396E-18	0.000000E+00
6.210000E+03	9.738555E-18	0.000000E+00
6.220000E+03	9.677962E-18	0.000000E+00
6.230000E+03	9.617626E-18	0.000000E+00
6.240000E+03	9.557718E-18	0.000000E+00
6.250000E+03	9.498120E-18	0.000000E+00
6.260000E+03	9.438867E-18	0.000000E+00
6.270000E+03	9.380107E-18	0.000000E+00
6.280000E+03	9.321992E-18	0.000000E+00
6.290000E+03	9.264543E-18	0.000000E+00
6.300000E+03	9.207783E-18	0.000000E+00
6.310000E+03	9.152118E-18	0.000000E+00
6.320000E+03	9.097310E-18	0.000000E+00
6.330000E+03	9.043896E-18	0.000000E+00
6.340000E+03	8.991766E-18	0.000000E+00
6.350000E+03	8.941068E-18	0.000000E+00
6.360000E+03	8.892210E-18	0.000000E+00
6.370000E+03	8.845211E-18	0.000000E+00
6.380000E+03	8.800218E-18	0.000000E+00
6.390000E+03	8.757381E-18	0.000000E+00
6.400000E+03	8.716980E-18	0.000000E+00
6.410000E+03	8.678904E-18	0.000000E+00
6.420000E+03	8.642916E-18	0.000000E+00
6.430000E+03	8.608904E-18	0.000000E+00
6.440000E+03	8.576762E-18	0.000000E+00
6.450000E+03	8.546380E-18	0.000000E+00
6.460000E+03	8.517519E-18	0.000000E+00
6.470000E+03	8.490071E-18	0.000000E+00
6.480000E+03	8.463927E-18	0.000000E+00
6.490000E+03	8.439111E-18	0.000000E+00
6.500000E+03	8.415515E-18	0.000000E+00
6.510000E+03	8.393027E-18	0.000000E+00
6.520000E+03	8.371803E-18	0.000000E+00
6.530000E+03	8.351602E-18	0.000000E+00
6.540000E+03	8.332573E-18	0.000000E+00
6.550000E+03	8.314606E-18	0.000000E+00
6.560000E+03	8.297852E-18	0.000000E+00
6.570000E+03	8.282195E-18	0.000000E+00
6.580000E+03	8.267649E-18	0.000000E+00
6.590000E+03	8.254229E-18	0.000000E+00
6.600000E+03	8.242082E-18	0.000000E+00
6.610000E+03	8.230948E-18	0.000000E+00
6.620000E+03	8.221106E-18	0.000000E+00
6.630000E+03	8.212426E-18	0.000000E+00
6.640000E+03	8.204914E-18	0.000000E+00
6.650000E+03	8.198710E-18	0.000000E+00
6.660000E+03	8.193543E-18	0.000000E+00
6.670000E+03	8.189687E-18	0.000000E+00
6.680000E+03	8.187004E-18	0.000000E+00
6.690000E+03	8.185494E-18	0.000000E+00
6.700000E+03	8.185293E-18	0.000000E+00
6.710000E+03	8.186261E-18	0.000000E+00
6.720000E+03	8.188393E-18	0.000000E+00
6.730000E+03	8.191686E-18	0.000000E+00
6.740000E+03	8.196274E-18	0.000000E+00
6.750000E+03	8.202013E-18	0.000000E+00
6.760000E+03	8.208894E-18	0.000000E+00
6.770000E+03	8.217051E-18	0.000000E+00
6.780000E+03	8.226334E-18	0.000000E+00
6.790000E+03	8.236729E-18	0.000000E+00
6.800000E+03	8.248370E-18	0.000000E+00
6.810000E+03	8.260948E-18	0.000000E+00
6.820000E+03	8.274743E-18	0.000000E+00
6.830000E+03	8.289736E-18	0.000000E+00
6.840000E+03	8.305609E-18	0.000000E+00
6.850000E+03	8.322640E-18	0.000000E+00
6.860000E+03	8.340655E-18	0.000000E+00
6.870000E+03	8.359627E-18	0.000000E+00
6.880000E+03	8.379531E-18	0.000000E+00
6.890000E+03	8.400337E-18	0.000000E+00
6.900000E+03	8.422174E-18	0.000000E+00
6.910000E+03	8.444699E-18	0.000000E+00
6.920000E+03	8.468198E-18	0.000000E+00
6.930000E+03	8.492325E-18	0.000000E+00
6.940000E+03	8.517368E-18	0.000000E+00
6.950000E+03	8.542980E-18	0.000000E+00
6.960000E+03	8.569456E-18	0.000000E+00
6.970000E+03	8.596444E-18	0.000000E+00
6.980000E+03	8.624082E-18	0.000000E+00
6.990000E+03	8.652348E-18	0.000000E+00
7.000000E+03	8.681053E-18	0.000000E+00
7.010000E+03	8.710513E-18	0.000000E+00
7.020000E+03	8.740376E-18	0.000000E+00
7.030000E+03	8.770623E-18	0.000000E+00
7.040000E+03	8.801413E-18	0.000000E+00
7.050000E+03	8.832737E-18	0.000000E+00
7.060000E+03	8.864413E-18	0.000000E+00
7.070000E+03	8.896431E-18	0.000000E+00
7.080000E+03	8.928965E-18	0.000000E+00
7.090000E+03	8.961835E-18	0.000000E+00
7.100000E+03	8.995036E-18	0.000000E+00
7.110000E+03	9.028568E-18	0.000000E+00
7.120000E+03	9.062614E-18	0.000000E+00
7.130000E+03	9.096806E-18	0.000000E+00
7.140000E+03	9.131516E-18	0.000000E+00
7.150000E+03	9.166374E-18	0.000000E+00
7.160000E+03	9.201564E-18	0.000000E+00
7.170000E+03	9.237091E-18	0.000000E+00
7.180000E+03	9.272954E-18	0.000000E+00
7.190000E+03	9.308961E-18	0.000000E+00
7.200000E+03	9.345305E-18	0.000000E+00
7.210000E+03	9.381986E-18	0.000000E+00
7.220000E+03	9.418805E-18	0.000000E+00
7.230000E+03	9.455757E-18	0.000000E+00
7.240000E+03	9.493041E-18	0.000000E+00
7.250000E+03	9.530449E-18	0.000000E+00
7.260000E+03	9.567979E-18	0.000000E+00
7.270000E+03	9.605833E-18	0.000000E+00
7.280000E+03	9.643792E-18	0.000000E+00
7.290000E+03	9.681855E-18	0.000000E+00
7.300000E+03	9.720442E-18	0.000000E+00
7.310000E+03	9.758905E-18	0.000000E+00
7.320000E+03	9.797892E-18	0.000000E+00
7.330000E+03	9.836945E-18	0.000000E+00
7.340000E+03	9.876522E-18	0.000000E+00
7.350000E+03	9.916375E-18	0.000000E+00
7.360000E+03	9.956732E-18	0.000000E+00
7.370000E+03	9.997822E-18	0.000000E+00
7.380000E+03	1.003940E-17	0.000000E+00
7.390000E+03	1.008215E-17	0.000000E+00
7.400000E+03	1.012587E-17	0.000000E+00
7.410000E+03	1.017054E-17	0.000000E+00
7.420000E+03	1.021711E-17	0.000000E+00
7.430000E+03	1.026489E-17	0.000000E+00
7.440000E+03	1.031462E-17	0.000000E+00
7.450000E+03	1.036629E-17	0.000000E+00
7.460000E+03	1.041943E-17	0.000000E+00
7.470000E+03	1.047380E-17	0.000000E+00
7.480000E+03	1.052937E-17	0.000000E+00
7.490000E+03	1.058588E-17	0.000000E+00
7.500000E+03	1.064331E-17	0.000000E+00
7.510000E+03	1.070137E-17	0.000000E+00
7.520000E+03	1.075977E-17	0.000000E+00
7.530000E+03	1.081846E-17	0.000000E+00
7.540000E+03	1.087737E-17	0.000000E+00
7.550000E+03	1.093622E-17	0.000000E+00
7.560000E+03	1.099519E-17	0.000000E+00
7.570000E+03	1.105369E-17	0.000000E+00
7.580000E+03	1.111221E-17	0.000000E+00
7.590000E+03	1.117039E-17	0.000000E+00
7.600000E+03	1.122790E-17	0.000000E+00
7.610000E+03	1.128495E-17	0.000000E+00
7.620000E+03	1.134119E-17	0.000000E+00
7.630000E+03	1.139682E-17	0.000000E+00
7.640000E+03	1.145179E-17	0.000000E+00
7.650000E+03	1.150574E-17	0.000000E+00
7.660000E+03	1.155888E-17	0.000000E+00
7.670000E+03	1.161087E-17	0.000000E+00
7.680000E+03	1.166192E-17	0.000000E+00
7.690000E+03	1.171198E-17	0.000000E+00
7.700000E+03	1.176067E-17	0.000000E+00
7.710000E+03	1.180823E-17	0.000000E+00
7.720000E+03	1.185459E-17	0.000000E+00
7.730000E+03	1.189970E-17	0.000000E+00
7.740000E+03	1.194348E-17	0.000000E+00
7.750000E+03	1.198587E-17	0.000000E+00
7.760000E+03	1.202679E-17	0.000000E+00
