#wls	flux	fluxerr
1.600000E+03	1.059920E-16	0.000000E+00
1.640000E+03	1.097858E-16	0.000000E+00
1.680000E+03	1.135283E-16	0.000000E+00
1.720000E+03	1.172027E-16	0.000000E+00
1.760000E+03	1.207653E-16	0.000000E+00
1.800000E+03	1.242169E-16	0.000000E+00
1.840000E+03	1.274946E-16	0.000000E+00
1.880000E+03	1.305808E-16	0.000000E+00
1.920000E+03	1.334305E-16	0.000000E+00
1.960000E+03	1.360082E-16	0.000000E+00
2.000000E+03	1.382646E-16	0.000000E+00
2.040000E+03	1.401606E-16	0.000000E+00
2.080000E+03	1.416460E-16	0.000000E+00
2.120000E+03	1.426821E-16	0.000000E+00
2.160000E+03	1.432115E-16	0.000000E+00
2.200000E+03	1.432021E-16	0.000000E+00
2.240000E+03	1.426169E-16	0.000000E+00
2.280000E+03	1.414524E-16	0.000000E+00
2.320000E+03	1.397171E-16	0.000000E+00
2.360000E+03	1.374130E-16	0.000000E+00
2.400000E+03	1.345693E-16	0.000000E+00
2.440000E+03	1.312079E-16	0.000000E+00
2.480000E+03	1.273527E-16	0.000000E+00
2.520000E+03	1.230316E-16	0.000000E+00
2.560000E+03	1.182712E-16	0.000000E+00
2.600000E+03	1.131151E-16	0.000000E+00
2.640000E+03	1.076019E-16	0.000000E+00
2.680000E+03	1.017745E-16	0.000000E+00
2.720000E+03	9.568864E-17	0.000000E+00
2.760000E+03	8.939823E-17	0.000000E+00
2.800000E+03	8.296494E-17	0.000000E+00
2.840000E+03	7.645538E-17	0.000000E+00
2.880000E+03	6.994331E-17	0.000000E+00
2.920000E+03	6.352450E-17	0.000000E+00
2.960000E+03	5.729928E-17	0.000000E+00
3.000000E+03	5.136155E-17	0.000000E+00
3.010000E+03	4.993073E-17	0.000000E+00
3.020000E+03	4.852467E-17	0.000000E+00
3.030000E+03	4.714143E-17	0.000000E+00
3.040000E+03	4.578474E-17	0.000000E+00
3.050000E+03	4.445369E-17	0.000000E+00
3.060000E+03	4.314857E-17	0.000000E+00
3.070000E+03	4.187053E-17	0.000000E+00
3.080000E+03	4.062060E-17	0.000000E+00
3.090000E+03	3.939788E-17	0.000000E+00
3.100000E+03	3.820414E-17	0.000000E+00
3.110000E+03	3.703844E-17	0.000000E+00
3.120000E+03	3.590150E-17	0.000000E+00
3.130000E+03	3.479388E-17	0.000000E+00
3.140000E+03	3.371532E-17	0.000000E+00
3.150000E+03	3.266495E-17	0.000000E+00
3.160000E+03	3.164442E-17	0.000000E+00
3.170000E+03	3.065211E-17	0.000000E+00
3.180000E+03	2.968888E-17	0.000000E+00
3.190000E+03	2.875426E-17	0.000000E+00
3.200000E+03	2.784782E-17	0.000000E+00
3.210000E+03	2.696910E-17	0.000000E+00
3.220000E+03	2.611856E-17	0.000000E+00
3.230000E+03	2.529517E-17	0.000000E+00
3.240000E+03	2.449841E-17	0.000000E+00
3.250000E+03	2.372814E-17	0.000000E+00
3.260000E+03	2.298415E-17	0.000000E+00
3.270000E+03	2.226546E-17	0.000000E+00
3.280000E+03	2.157180E-17	0.000000E+00
3.290000E+03	2.090255E-17	0.000000E+00
3.300000E+03	2.025740E-17	0.000000E+00
3.310000E+03	1.963539E-17	0.000000E+00
3.320000E+03	1.903591E-17	0.000000E+00
3.330000E+03	1.845889E-17	0.000000E+00
3.340000E+03	1.790314E-17	0.000000E+00
3.350000E+03	1.736831E-17	0.000000E+00
3.360000E+03	1.685402E-17	0.000000E+00
3.370000E+03	1.635918E-17	0.000000E+00
3.380000E+03	1.588365E-17	0.000000E+00
3.390000E+03	1.542641E-17	0.000000E+00
3.400000E+03	1.498690E-17	0.000000E+00
3.410000E+03	1.456477E-17	0.000000E+00
3.420000E+03	1.415929E-17	0.000000E+00
3.430000E+03	1.376993E-17	0.000000E+00
3.440000E+03	1.339586E-17	0.000000E+00
3.450000E+03	1.303678E-17	0.000000E+00
3.460000E+03	1.269205E-17	0.000000E+00
3.470000E+03	1.236095E-17	0.000000E+00
3.480000E+03	1.204309E-17	0.000000E+00
3.490000E+03	1.173778E-17	0.000000E+00
3.500000E+03	1.144456E-17	0.000000E+00
3.510000E+03	1.116296E-17	0.000000E+00
3.520000E+03	1.089229E-17	0.000000E+00
3.530000E+03	1.063195E-17	0.000000E+00
3.540000E+03	1.038126E-17	0.000000E+00
3.550000E+03	1.013949E-17	0.000000E+00
3.560000E+03	9.906009E-18	0.000000E+00
3.570000E+03	9.680220E-18	0.000000E+00
3.580000E+03	9.461501E-18	0.000000E+00
3.590000E+03	9.249290E-18	0.000000E+00
3.600000E+03	9.043246E-18	0.000000E+00
3.610000E+03	8.842804E-18	0.000000E+00
3.620000E+03	8.647691E-18	0.000000E+00
3.630000E+03	8.457960E-18	0.000000E+00
3.640000E+03	8.273486E-18	0.000000E+00
3.650000E+03	8.094283E-18	0.000000E+00
3.660000E+03	7.920338E-18	0.000000E+00
3.670000E+03	7.751692E-18	0.000000E+00
3.680000E+03	7.588291E-18	0.000000E+00
3.690000E+03	7.430002E-18	0.000000E+00
3.700000E+03	7.276938E-18	0.000000E+00
3.710000E+03	7.128877E-18	0.000000E+00
3.720000E+03	6.985835E-18	0.000000E+00
3.730000E+03	6.847698E-18	0.000000E+00
3.740000E+03	6.714400E-18	0.000000E+00
3.750000E+03	6.585813E-18	0.000000E+00
3.760000E+03	6.461805E-18	0.000000E+00
3.770000E+03	6.342348E-18	0.000000E+00
3.780000E+03	6.227300E-18	0.000000E+00
3.790000E+03	6.116568E-18	0.000000E+00
3.800000E+03	6.009966E-18	0.000000E+00
3.810000E+03	5.907493E-18	0.000000E+00
3.820000E+03	5.808960E-18	0.000000E+00
3.830000E+03	5.714318E-18	0.000000E+00
3.840000E+03	5.623380E-18	0.000000E+00
3.850000E+03	5.536141E-18	0.000000E+00
3.860000E+03	5.452378E-18	0.000000E+00
3.870000E+03	5.372082E-18	0.000000E+00
3.880000E+03	5.295121E-18	0.000000E+00
3.890000E+03	5.221364E-18	0.000000E+00
3.900000E+03	5.150726E-18	0.000000E+00
3.910000E+03	5.083123E-18	0.000000E+00
3.920000E+03	5.018471E-18	0.000000E+00
3.930000E+03	4.956651E-18	0.000000E+00
3.940000E+03	4.897550E-18	0.000000E+00
3.950000E+03	4.841129E-18	0.000000E+00
3.960000E+03	4.787318E-18	0.000000E+00
3.970000E+03	4.735935E-18	0.000000E+00
3.980000E+03	4.686988E-18	0.000000E+00
3.990000E+03	4.640377E-18	0.000000E+00
4.000000E+03	4.596038E-18	0.000000E+00
4.010000E+03	4.553845E-18	0.000000E+00
4.020000E+03	4.513740E-18	0.000000E+00
4.030000E+03	4.475705E-18	0.000000E+00
4.040000E+03	4.439620E-18	0.000000E+00
4.050000E+03	4.405436E-18	0.000000E+00
4.060000E+03	4.373075E-18	0.000000E+00
4.070000E+03	4.342491E-18	0.000000E+00
4.080000E+03	4.313609E-18	0.000000E+00
4.090000E+03	4.286392E-18	0.000000E+00
4.100000E+03	4.260768E-18	0.000000E+00
4.110000E+03	4.236669E-18	0.000000E+00
4.120000E+03	4.214064E-18	0.000000E+00
4.130000E+03	4.192920E-18	0.000000E+00
4.140000E+03	4.173145E-18	0.000000E+00
4.150000E+03	4.154741E-18	0.000000E+00
4.160000E+03	4.137621E-18	0.000000E+00
4.170000E+03	4.121762E-18	0.000000E+00
4.180000E+03	4.107140E-18	0.000000E+00
4.190000E+03	4.093703E-18	0.000000E+00
4.200000E+03	4.081401E-18	0.000000E+00
4.210000E+03	4.070216E-18	0.000000E+00
4.220000E+03	4.060102E-18	0.000000E+00
4.230000E+03	4.051045E-18	0.000000E+00
4.240000E+03	4.043030E-18	0.000000E+00
4.250000E+03	4.036016E-18	0.000000E+00
4.260000E+03	4.029929E-18	0.000000E+00
4.270000E+03	4.024825E-18	0.000000E+00
4.280000E+03	4.020631E-18	0.000000E+00
4.290000E+03	4.017345E-18	0.000000E+00
4.300000E+03	4.014896E-18	0.000000E+00
4.310000E+03	4.013313E-18	0.000000E+00
4.320000E+03	4.012564E-18	0.000000E+00
4.330000E+03	4.012615E-18	0.000000E+00
4.340000E+03	4.013466E-18	0.000000E+00
4.350000E+03	4.015087E-18	0.000000E+00
4.360000E+03	4.017546E-18	0.000000E+00
4.370000E+03	4.020782E-18	0.000000E+00
4.380000E+03	4.024800E-18	0.000000E+00
4.390000E+03	4.029609E-18	0.000000E+00
4.400000E+03	4.035153E-18	0.000000E+00
4.410000E+03	4.041441E-18	0.000000E+00
4.420000E+03	4.048450E-18	0.000000E+00
4.430000E+03	4.056129E-18	0.000000E+00
4.440000E+03	4.064522E-18	0.000000E+00
4.450000E+03	4.073578E-18	0.000000E+00
4.460000E+03	4.083279E-18	0.000000E+00
4.470000E+03	4.093574E-18	0.000000E+00
4.480000E+03	4.104516E-18	0.000000E+00
4.490000E+03	4.116087E-18	0.000000E+00
4.500000E+03	4.128207E-18	0.000000E+00
4.510000E+03	4.140931E-18	0.000000E+00
4.520000E+03	4.154212E-18	0.000000E+00
4.530000E+03	4.168037E-18	0.000000E+00
4.540000E+03	4.182432E-18	0.000000E+00
4.550000E+03	4.197385E-18	0.000000E+00
4.560000E+03	4.212854E-18	0.000000E+00
4.570000E+03	4.228828E-18	0.000000E+00
4.580000E+03	4.245337E-18	0.000000E+00
4.590000E+03	4.262374E-18	0.000000E+00
4.600000E+03	4.279859E-18	0.000000E+00
4.610000E+03	4.297860E-18	0.000000E+00
4.620000E+03	4.316373E-18	0.000000E+00
4.630000E+03	4.335318E-18	0.000000E+00
4.640000E+03	4.354729E-18	0.000000E+00
4.650000E+03	4.374601E-18	0.000000E+00
4.660000E+03	4.394896E-18	0.000000E+00
4.670000E+03	4.415683E-18	0.000000E+00
4.680000E+03	4.436923E-18	0.000000E+00
4.690000E+03	4.458656E-18	0.000000E+00
4.700000E+03	4.480878E-18	0.000000E+00
4.710000E+03	4.503629E-18	0.000000E+00
4.720000E+03	4.526871E-18	0.000000E+00
4.730000E+03	4.550684E-18	0.000000E+00
4.740000E+03	4.575031E-18	0.000000E+00
4.750000E+03	4.600036E-18	0.000000E+00
4.760000E+03	4.625624E-18	0.000000E+00
4.770000E+03	4.651838E-18	0.000000E+00
4.780000E+03	4.678768E-18	0.000000E+00
4.790000E+03	4.706380E-18	0.000000E+00
4.800000E+03	4.734764E-18	0.000000E+00
4.810000E+03	4.763846E-18	0.000000E+00
4.820000E+03	4.793720E-18	0.000000E+00
4.830000E+03	4.824395E-18	0.000000E+00
4.840000E+03	4.855838E-18	0.000000E+00
4.850000E+03	4.888104E-18	0.000000E+00
4.860000E+03	4.921249E-18	0.000000E+00
4.870000E+03	4.955194E-18	0.000000E+00
4.880000E+03	4.989995E-18	0.000000E+00
4.890000E+03	5.025712E-18	0.000000E+00
4.900000E+03	5.062264E-18	0.000000E+00
4.910000E+03	5.099708E-18	0.000000E+00
4.920000E+03	5.138057E-18	0.000000E+00
4.930000E+03	5.177323E-18	0.000000E+00
4.940000E+03	5.217519E-18	0.000000E+00
4.950000E+03	5.258607E-18	0.000000E+00
4.960000E+03	5.300649E-18	0.000000E+00
4.970000E+03	5.343606E-18	0.000000E+00
4.980000E+03	5.387489E-18	0.000000E+00
4.990000E+03	5.432309E-18	0.000000E+00
5.000000E+03	5.478075E-18	0.000000E+00
5.010000E+03	5.524799E-18	0.000000E+00
5.020000E+03	5.572488E-18	0.000000E+00
5.030000E+03	5.621101E-18	0.000000E+00
5.040000E+03	5.670644E-18	0.000000E+00
5.050000E+03	5.721124E-18	0.000000E+00
5.060000E+03	5.772548E-18	0.000000E+00
5.070000E+03	5.824922E-18	0.000000E+00
5.080000E+03	5.878252E-18	0.000000E+00
5.090000E+03	5.932429E-18	0.000000E+00
5.100000E+03	5.987569E-18	0.000000E+00
5.110000E+03	6.043675E-18	0.000000E+00
5.120000E+03	6.100633E-18	0.000000E+00
5.130000E+03	6.158444E-18	0.000000E+00
5.140000E+03	6.217162E-18	0.000000E+00
5.150000E+03	6.276788E-18	0.000000E+00
5.160000E+03	6.337197E-18	0.000000E+00
5.170000E+03	6.398444E-18	0.000000E+00
5.180000E+03	6.460584E-18	0.000000E+00
5.190000E+03	6.523487E-18	0.000000E+00
5.200000E+03	6.587141E-18	0.000000E+00
5.210000E+03	6.651536E-18	0.000000E+00
5.220000E+03	6.716720E-18	0.000000E+00
5.230000E+03	6.782618E-18	0.000000E+00
5.240000E+03	6.849212E-18	0.000000E+00
5.250000E+03	6.916416E-18	0.000000E+00
5.260000E+03	6.984277E-18	0.000000E+00
5.270000E+03	7.052772E-18	0.000000E+00
5.280000E+03	7.121808E-18	0.000000E+00
5.290000E+03	7.191428E-18	0.000000E+00
5.300000E+03	7.261531E-18	0.000000E+00
5.310000E+03	7.332086E-18	0.000000E+00
5.320000E+03	7.403131E-18	0.000000E+00
5.330000E+03	7.474555E-18	0.000000E+00
5.340000E+03	7.546320E-18	0.000000E+00
5.350000E+03	7.618383E-18	0.000000E+00
5.360000E+03	7.690698E-18	0.000000E+00
5.370000E+03	7.763217E-18	0.000000E+00
5.380000E+03	7.835890E-18	0.000000E+00
5.390000E+03	7.908663E-18	0.000000E+00
5.400000E+03	7.981399E-18	0.000000E+00
5.410000E+03	8.054038E-18	0.000000E+00
5.420000E+03	8.126595E-18	0.000000E+00
5.430000E+03	8.198921E-18	0.000000E+00
5.440000E+03	8.270950E-18	0.000000E+00
5.450000E+03	8.342521E-18	0.000000E+00
5.460000E+03	8.413642E-18	0.000000E+00
5.470000E+03	8.484064E-18	0.000000E+00
5.480000E+03	8.553873E-18	0.000000E+00
5.490000E+03	8.622726E-18	0.000000E+00
5.500000E+03	8.690617E-18	0.000000E+00
5.510000E+03	8.757455E-18	0.000000E+00
5.520000E+03	8.823058E-18	0.000000E+00
5.530000E+03	8.887328E-18	0.000000E+00
5.540000E+03	8.950076E-18	0.000000E+00
5.550000E+03	9.011204E-18	0.000000E+00
5.560000E+03	9.070609E-18	0.000000E+00
5.570000E+03	9.128191E-18	0.000000E+00
5.580000E+03	9.183756E-18	0.000000E+00
5.590000E+03	9.237204E-18	0.000000E+00
5.600000E+03	9.288437E-18	0.000000E+00
5.610000E+03	9.337357E-18	0.000000E+00
5.620000E+03	9.383775E-18	0.000000E+00
5.630000E+03	9.427590E-18	0.000000E+00
5.640000E+03	9.468824E-18	0.000000E+00
5.650000E+03	9.507289E-18	0.000000E+00
5.660000E+03	9.542799E-18	0.000000E+00
5.670000E+03	9.575485E-18	0.000000E+00
5.680000E+03	9.605272E-18	0.000000E+00
5.690000E+03	9.631907E-18	0.000000E+00
5.700000E+03	9.655428E-18	0.000000E+00
5.710000E+03	9.675881E-18	0.000000E+00
5.720000E+03	9.693135E-18	0.000000E+00
5.730000E+03	9.707136E-18	0.000000E+00
5.740000E+03	9.717975E-18	0.000000E+00
5.750000E+03	9.725513E-18	0.000000E+00
5.760000E+03	9.729964E-18	0.000000E+00
5.770000E+03	9.731096E-18	0.000000E+00
5.780000E+03	9.729038E-18	0.000000E+00
5.790000E+03	9.723792E-18	0.000000E+00
5.800000E+03	9.715487E-18	0.000000E+00
5.810000E+03	9.704031E-18	0.000000E+00
5.820000E+03	9.689582E-18	0.000000E+00
5.830000E+03	9.672177E-18	0.000000E+00
5.840000E+03	9.651771E-18	0.000000E+00
5.850000E+03	9.628606E-18	0.000000E+00
5.860000E+03	9.602663E-18	0.000000E+00
5.870000E+03	9.574110E-18	0.000000E+00
5.880000E+03	9.542912E-18	0.000000E+00
5.890000E+03	9.509253E-18	0.000000E+00
5.900000E+03	9.473229E-18	0.000000E+00
5.910000E+03	9.434913E-18	0.000000E+00
5.920000E+03	9.394511E-18	0.000000E+00
5.930000E+03	9.351903E-18	0.000000E+00
5.940000E+03	9.307398E-18	0.000000E+00
5.950000E+03	9.261095E-18	0.000000E+00
5.960000E+03	9.213095E-18	0.000000E+00
5.970000E+03	9.163390E-18	0.000000E+00
5.980000E+03	9.112189E-18	0.000000E+00
5.990000E+03	9.059700E-18	0.000000E+00
6.000000E+03	9.005810E-18	0.000000E+00
6.010000E+03	8.950833E-18	0.000000E+00
6.020000E+03	8.894758E-18	0.000000E+00
6.030000E+03	8.837790E-18	0.000000E+00
6.040000E+03	8.779810E-18	0.000000E+00
6.050000E+03	8.721123E-18	0.000000E+00
6.060000E+03	8.661817E-18	0.000000E+00
6.070000E+03	8.601875E-18	0.000000E+00
6.080000E+03	8.541380E-18	0.000000E+00
6.090000E+03	8.480516E-18	0.000000E+00
6.100000E+03	8.419257E-18	0.000000E+00
6.110000E+03	8.357781E-18	0.000000E+00
6.120000E+03	8.296053E-18	0.000000E+00
6.130000E+03	8.234245E-18	0.000000E+00
6.140000E+03	8.172522E-18	0.000000E+00
6.150000E+03	8.110841E-18	0.000000E+00
6.160000E+03	8.049360E-18	0.000000E+00
6.170000E+03	7.988340E-18	0.000000E+00
6.180000E+03	7.927826E-18	0.000000E+00
6.190000E+03	7.867968E-18	0.000000E+00
6.200000E+03	7.808702E-18	0.000000E+00
6.210000E+03	7.750066E-18	0.000000E+00
6.220000E+03	7.691994E-18	0.000000E+00
6.230000E+03	7.634516E-18	0.000000E+00
6.240000E+03	7.577769E-18	0.000000E+00
6.250000E+03	7.521676E-18	0.000000E+00
6.260000E+03	7.466264E-18	0.000000E+00
6.270000E+03	7.411659E-18	0.000000E+00
6.280000E+03	7.357986E-18	0.000000E+00
6.290000E+03	7.305264E-18	0.000000E+00
6.300000E+03	7.253511E-18	0.000000E+00
6.310000E+03	7.203050E-18	0.000000E+00
6.320000E+03	7.153692E-18	0.000000E+00
6.330000E+03	7.105857E-18	0.000000E+00
6.340000E+03	7.059456E-18	0.000000E+00
6.350000E+03	7.014604E-18	0.000000E+00
6.360000E+03	6.971614E-18	0.000000E+00
6.370000E+03	6.930499E-18	0.000000E+00
6.380000E+03	6.891369E-18	0.000000E+00
6.390000E+03	6.854335E-18	0.000000E+00
6.400000E+03	6.819612E-18	0.000000E+00
6.410000E+03	6.787106E-18	0.000000E+00
6.420000E+03	6.756629E-18	0.000000E+00
6.430000E+03	6.728085E-18	0.000000E+00
6.440000E+03	6.701387E-18	0.000000E+00
6.450000E+03	6.676442E-18	0.000000E+00
6.460000E+03	6.653059E-18	0.000000E+00
6.470000E+03	6.631145E-18	0.000000E+00
6.480000E+03	6.610609E-18	0.000000E+00
6.490000E+03	6.591460E-18	0.000000E+00
6.500000E+03	6.573607E-18	0.000000E+00
6.510000E+03	6.556954E-18	0.000000E+00
6.520000E+03	6.541617E-18	0.000000E+00
6.530000E+03	6.527394E-18	0.000000E+00
6.540000E+03	6.514397E-18	0.000000E+00
6.550000E+03	6.502530E-18	0.000000E+00
6.560000E+03	6.491904E-18	0.000000E+00
6.570000E+03	6.482421E-18	0.000000E+00
6.580000E+03	6.474086E-18	0.000000E+00
6.590000E+03	6.466902E-18	0.000000E+00
6.600000E+03	6.460981E-18	0.000000E+00
6.610000E+03	6.456114E-18	0.000000E+00
6.620000E+03	6.452515E-18	0.000000E+00
6.630000E+03	6.450082E-18	0.000000E+00
6.640000E+03	6.448814E-18	0.000000E+00
6.650000E+03	6.448822E-18	0.000000E+00
6.660000E+03	6.449890E-18	0.000000E+00
6.670000E+03	6.452233E-18	0.000000E+00
6.680000E+03	6.455741E-18	0.000000E+00
6.690000E+03	6.460416E-18	0.000000E+00
6.700000E+03	6.466361E-18	0.000000E+00
6.710000E+03	6.473467E-18	0.000000E+00
6.720000E+03	6.481728E-18	0.000000E+00
6.730000E+03	6.491140E-18	0.000000E+00
6.740000E+03	6.501812E-18	0.000000E+00
6.750000E+03	6.513625E-18	0.000000E+00
6.760000E+03	6.526573E-18	0.000000E+00
6.770000E+03	6.540764E-18	0.000000E+00
6.780000E+03	6.556075E-18	0.000000E+00
6.790000E+03	6.572499E-18	0.000000E+00
6.800000E+03	6.590143E-18	0.000000E+00
6.810000E+03	6.608764E-18	0.000000E+00
6.820000E+03	6.628585E-18	0.000000E+00
6.830000E+03	6.649600E-18	0.000000E+00
6.840000E+03	6.671555E-18	0.000000E+00
6.850000E+03	6.694678E-18	0.000000E+00
6.860000E+03	6.718838E-18	0.000000E+00
6.870000E+03	6.744020E-18	0.000000E+00
6.880000E+03	6.770210E-18	0.000000E+00
6.890000E+03	6.797393E-18	0.000000E+00
6.900000E+03	6.825681E-18	0.000000E+00
6.910000E+03	6.854808E-18	0.000000E+00
6.920000E+03	6.885010E-18	0.000000E+00
6.930000E+03	6.916019E-18	0.000000E+00
6.940000E+03	6.948077E-18	0.000000E+00
6.950000E+03	6.980909E-18	0.000000E+00
6.960000E+03	7.014761E-18	0.000000E+00
6.970000E+03	7.049358E-18	0.000000E+00
6.980000E+03	7.084816E-18	0.000000E+00
6.990000E+03	7.121121E-18	0.000000E+00
7.000000E+03	7.158125E-18	0.000000E+00
7.010000E+03	7.196090E-18	0.000000E+00
7.020000E+03	7.234728E-18	0.000000E+00
7.030000E+03	7.274026E-18	0.000000E+00
7.040000E+03	7.314113E-18	0.000000E+00
7.050000E+03	7.354982E-18	0.000000E+00
7.060000E+03	7.396479E-18	0.000000E+00
7.070000E+03	7.438594E-18	0.000000E+00
7.080000E+03	7.481465E-18	0.000000E+00
7.090000E+03	7.524939E-18	0.000000E+00
7.100000E+03	7.569006E-18	0.000000E+00
7.110000E+03	7.613659E-18	0.000000E+00
7.120000E+03	7.659047E-18	0.000000E+00
7.130000E+03	7.704854E-18	0.000000E+00
7.140000E+03	7.751387E-18	0.000000E+00
7.150000E+03	7.798324E-18	0.000000E+00
7.160000E+03	7.845818E-18	0.000000E+00
7.170000E+03	7.893865E-18	0.000000E+00
7.180000E+03	7.942460E-18	0.000000E+00
7.190000E+03	7.991431E-18	0.000000E+00
7.200000E+03	8.040937E-18	0.000000E+00
7.210000E+03	8.090976E-18	0.000000E+00
7.220000E+03	8.141369E-18	0.000000E+00
7.230000E+03	8.192107E-18	0.000000E+00
7.240000E+03	8.243357E-18	0.000000E+00
7.250000E+03	8.294934E-18	0.000000E+00
7.260000E+03	8.346827E-18	0.000000E+00
7.270000E+03	8.399206E-18	0.000000E+00
7.280000E+03	8.451882E-18	0.000000E+00
7.290000E+03	8.504842E-18	0.000000E+00
7.300000E+03	8.558448E-18	0.000000E+00
7.310000E+03	8.612123E-18	0.000000E+00
7.320000E+03	8.666429E-18	0.000000E+00
7.330000E+03	8.720966E-18	0.000000E+00
7.340000E+03	8.776114E-18	0.000000E+00
7.350000E+03	8.831665E-18	0.000000E+00
7.360000E+03	8.887808E-18	0.000000E+00
7.370000E+03	8.944740E-18	0.000000E+00
7.380000E+03	9.002249E-18	0.000000E+00
7.390000E+03	9.060952E-18	0.000000E+00
7.400000E+03	9.120647E-18	0.000000E+00
7.410000E+03	9.181334E-18	0.000000E+00
7.420000E+03	9.243879E-18	0.000000E+00
7.430000E+03	9.307650E-18	0.000000E+00
7.440000E+03	9.373319E-18	0.000000E+00
7.450000E+03	9.440917E-18	0.000000E+00
7.460000E+03	9.510001E-18	0.000000E+00
7.470000E+03	9.580358E-18	0.000000E+00
7.480000E+03	9.651986E-18	0.000000E+00
7.490000E+03	9.724652E-18	0.000000E+00
7.500000E+03	9.798329E-18	0.000000E+00
7.510000E+03	9.872772E-18	0.000000E+00
7.520000E+03	9.947711E-18	0.000000E+00
7.530000E+03	1.002311E-17	0.000000E+00
7.540000E+03	1.009893E-17	0.000000E+00
7.550000E+03	1.017488E-17	0.000000E+00
7.560000E+03	1.025117E-17	0.000000E+00
7.570000E+03	1.032723E-17	0.000000E+00
7.580000E+03	1.040354E-17	0.000000E+00
7.590000E+03	1.047976E-17	0.000000E+00
7.600000E+03	1.055557E-17	0.000000E+00
7.610000E+03	1.063119E-17	0.000000E+00
7.620000E+03	1.070626E-17	0.000000E+00
7.630000E+03	1.078101E-17	0.000000E+00
7.640000E+03	1.085535E-17	0.000000E+00
7.650000E+03	1.092894E-17	0.000000E+00
7.660000E+03	1.100198E-17	0.000000E+00
7.670000E+03	1.107411E-17	0.000000E+00
7.680000E+03	1.114555E-17	0.000000E+00
7.690000E+03	1.121622E-17	0.000000E+00
7.700000E+03	1.128573E-17	0.000000E+00
7.710000E+03	1.135432E-17	0.000000E+00
7.720000E+03	1.142189E-17	0.000000E+00
7.730000E+03	1.148837E-17	0.000000E+00
7.740000E+03	1.155367E-17	0.000000E+00
7.750000E+03	1.161772E-17	0.000000E+00
7.760000E+03	1.168041E-17	0.000000E+00
