#wls	flux	fluxerr
1.600000E+03	4.553812E-19	9.231557E-19
1.640000E+03	5.303388E-19	1.075393E-18
1.680000E+03	6.084491E-19	1.234168E-18
1.720000E+03	6.894226E-19	1.398925E-18
1.760000E+03	7.730274E-19	1.569231E-18
1.800000E+03	8.589668E-19	1.744521E-18
1.840000E+03	9.470337E-19	1.924417E-18
1.880000E+03	1.037058E-18	2.108619E-18
1.920000E+03	1.128819E-18	2.296726E-18
1.960000E+03	1.222230E-18	2.488614E-18
2.000000E+03	1.317262E-18	2.684280E-18
2.040000E+03	1.413945E-18	2.883844E-18
2.080000E+03	1.512243E-18	3.087302E-18
2.120000E+03	1.612258E-18	3.294932E-18
2.160000E+03	1.713872E-18	3.506568E-18
2.200000E+03	1.816923E-18	3.721964E-18
2.240000E+03	1.920697E-18	3.939744E-18
2.280000E+03	2.024337E-18	4.158236E-18
2.320000E+03	2.128146E-18	4.378153E-18
2.360000E+03	2.232727E-18	4.600836E-18
2.400000E+03	2.338167E-18	4.826575E-18
2.440000E+03	2.443970E-18	5.054467E-18
2.480000E+03	2.549114E-18	5.282519E-18
2.520000E+03	2.652278E-18	5.508107E-18
2.560000E+03	2.751459E-18	5.727173E-18
2.600000E+03	2.844483E-18	5.935267E-18
2.640000E+03	2.928588E-18	6.126667E-18
2.680000E+03	3.000524E-18	6.294559E-18
2.720000E+03	3.057175E-18	6.432321E-18
2.760000E+03	3.095149E-18	6.532654E-18
2.800000E+03	3.111234E-18	6.588510E-18
2.840000E+03	3.102540E-18	6.593396E-18
2.880000E+03	3.066926E-18	6.542266E-18
2.920000E+03	3.003661E-18	6.432951E-18
2.960000E+03	2.913720E-18	6.266841E-18
2.994228E+03	4.708674E-17	1.016635E-16
2.998829E+03	4.761125E-17	1.028505E-16
2.999028E+03	4.762165E-17	1.028753E-16
2.999428E+03	4.765118E-17	1.029439E-16
3.002429E+03	4.798461E-17	1.037003E-16
3.006830E+03	4.848086E-17	1.048266E-16
3.007030E+03	4.847846E-17	1.048239E-16
3.007230E+03	4.847169E-17	1.048117E-16
3.009430E+03	4.870161E-17	1.053361E-16
3.009830E+03	4.870973E-17	1.053586E-16
3.010229E+03	4.871770E-17	1.053808E-16
3.011229E+03	4.878818E-17	1.055457E-16
3.012029E+03	4.883491E-17	1.056567E-16
3.012230E+03	4.880604E-17	1.055968E-16
3.012630E+03	4.879193E-17	1.055712E-16
3.012830E+03	4.875844E-17	1.055013E-16
3.015030E+03	4.895352E-17	1.059510E-16
3.015630E+03	4.895845E-17	1.059692E-16
3.016030E+03	4.893062E-17	1.059139E-16
3.016230E+03	4.887892E-17	1.058045E-16
3.017230E+03	4.891767E-17	1.059010E-16
3.017831E+03	4.890442E-17	1.058799E-16
3.018431E+03	4.888643E-17	1.058485E-16
3.019031E+03	4.886826E-17	1.058167E-16
3.019231E+03	4.879807E-17	1.056673E-16
3.020031E+03	4.879430E-17	1.056692E-16
3.020231E+03	4.871935E-17	1.055094E-16
3.020631E+03	4.865894E-17	1.053836E-16
3.022231E+03	4.873542E-17	1.055695E-16
3.024231E+03	4.885896E-17	1.058625E-16
3.024431E+03	4.876488E-17	1.056612E-16
3.024631E+03	4.866616E-17	1.054498E-16
3.025231E+03	4.861439E-17	1.053452E-16
3.025431E+03	4.850628E-17	1.051135E-16
3.025631E+03	4.839351E-17	1.048717E-16
3.025831E+03	4.828516E-17	1.046394E-16
3.026231E+03	4.819092E-17	1.044402E-16
3.026431E+03	4.806862E-17	1.041776E-16
3.027031E+03	4.799262E-17	1.040204E-16
3.027831E+03	4.793488E-17	1.039053E-16
3.028031E+03	4.780274E-17	1.036214E-16
3.028632E+03	4.771213E-17	1.034325E-16
3.028832E+03	4.757042E-17	1.031278E-16
3.029032E+03	4.742399E-17	1.028128E-16
3.029432E+03	4.730484E-17	1.025595E-16
3.029632E+03	4.715343E-17	1.022337E-16
3.031032E+03	4.713371E-17	1.022083E-16
3.031632E+03	4.702233E-17	1.019742E-16
3.031832E+03	4.686062E-17	1.016260E-16
3.033832E+03	4.689740E-17	1.017305E-16
3.034233E+03	4.674802E-17	1.014114E-16
3.034832E+03	4.662055E-17	1.011423E-16
3.035032E+03	4.644696E-17	1.007682E-16
3.035432E+03	4.628761E-17	1.004274E-16
3.035632E+03	4.610195E-17	1.000270E-16
3.035832E+03	4.591283E-17	9.961911E-17
3.036032E+03	4.572399E-17	9.921179E-17
3.036232E+03	4.553029E-17	9.879393E-17
3.036832E+03	4.537871E-17	9.847225E-17
3.037632E+03	4.524277E-17	9.818687E-17
3.038032E+03	4.506032E-17	9.779573E-17
3.039032E+03	4.493626E-17	9.753844E-17
3.039833E+03	4.478702E-17	9.722407E-17
3.040433E+03	4.461401E-17	9.685566E-17
3.041033E+03	4.443851E-17	9.648178E-17
3.041233E+03	4.421654E-17	9.600222E-17
3.041433E+03	4.398916E-17	9.551089E-17
3.041833E+03	4.378117E-17	9.506398E-17
3.042433E+03	4.358897E-17	9.465365E-17
3.043633E+03	4.345585E-17	9.437858E-17
3.043833E+03	4.321525E-17	9.385836E-17
3.044633E+03	4.303305E-17	9.347190E-17
3.044834E+03	4.278552E-17	9.293656E-17
3.045034E+03	4.253432E-17	9.239320E-17
3.045634E+03	4.232014E-17	9.193480E-17
3.046034E+03	4.208218E-17	9.142240E-17
3.047233E+03	4.192065E-17	9.108504E-17
3.048233E+03	4.173497E-17	9.069290E-17
3.049033E+03	4.152486E-17	9.024529E-17
3.049433E+03	4.127177E-17	8.969973E-17
3.049633E+03	4.099561E-17	8.910175E-17
3.050033E+03	4.073579E-17	8.854149E-17
3.050434E+03	4.047264E-17	8.797391E-17
3.050634E+03	4.018766E-17	8.735665E-17
3.051234E+03	3.993774E-17	8.681989E-17
3.051634E+03	3.966558E-17	8.623258E-17
3.052034E+03	3.939044E-17	8.563870E-17
3.052634E+03	3.913103E-17	8.508113E-17
3.052834E+03	3.883117E-17	8.443127E-17
3.053234E+03	3.854606E-17	8.381555E-17
3.053434E+03	3.824303E-17	8.315873E-17
3.054834E+03	3.804484E-17	8.274231E-17
3.055635E+03	3.778921E-17	8.219464E-17
3.056435E+03	3.752696E-17	8.163246E-17
3.057835E+03	3.731600E-17	8.118788E-17
3.059834E+03	3.715321E-17	8.085416E-17
3.060034E+03	3.682759E-17	8.014755E-17
3.064035E+03	3.683624E-17	8.020717E-17
3.065635E+03	3.662681E-17	7.976745E-17
3.066035E+03	3.630888E-17	7.907908E-17
3.066235E+03	3.597068E-17	7.834450E-17
3.066436E+03	3.563323E-17	7.761154E-17
3.067236E+03	3.533874E-17	7.697799E-17
3.067836E+03	3.502530E-17	7.630110E-17
3.068436E+03	3.470989E-17	7.561980E-17
3.068636E+03	3.435729E-17	7.485356E-17
3.069436E+03	3.405134E-17	7.419460E-17
3.071035E+03	3.380812E-17	7.367982E-17
3.071235E+03	3.344722E-17	7.289517E-17
3.071436E+03	3.308605E-17	7.210989E-17
3.073236E+03	3.284733E-17	7.160623E-17
3.073636E+03	3.250040E-17	7.085362E-17
3.074836E+03	3.221021E-17	7.023188E-17
3.075836E+03	3.190038E-17	6.956534E-17
3.077036E+03	3.160484E-17	6.893160E-17
3.080037E+03	3.143935E-17	6.859745E-17
3.080837E+03	3.110025E-17	6.786468E-17
3.081437E+03	3.074417E-17	6.709293E-17
3.082237E+03	3.040241E-17	6.635404E-17
3.082838E+03	3.004249E-17	6.557368E-17
3.085037E+03	2.979250E-17	6.504680E-17
3.085237E+03	2.940224E-17	6.419644E-17
3.086237E+03	2.906320E-17	6.346454E-17
3.086437E+03	2.866724E-17	6.260154E-17
3.087237E+03	2.830878E-17	6.182528E-17
3.087837E+03	2.793779E-17	6.101988E-17
3.088038E+03	2.753771E-17	6.014764E-17
3.090838E+03	2.730097E-17	5.965267E-17
3.091638E+03	2.693287E-17	5.885462E-17
3.092038E+03	2.653672E-17	5.799202E-17
3.093639E+03	2.621414E-17	5.729929E-17
3.095039E+03	2.587380E-17	5.656592E-17
3.095238E+03	2.545962E-17	5.566190E-17
3.095838E+03	2.507076E-17	5.481614E-17
3.097838E+03	2.475860E-17	5.414810E-17
3.098438E+03	2.436178E-17	5.328454E-17
3.100039E+03	2.402542E-17	5.256014E-17
3.101039E+03	2.364741E-17	5.174014E-17
3.102639E+03	2.329958E-17	5.099010E-17
3.104640E+03	2.297078E-17	5.028412E-17
3.105640E+03	2.258549E-17	4.944741E-17
3.107439E+03	2.224128E-17	4.870572E-17
3.107640E+03	2.181346E-17	4.777014E-17
3.109039E+03	2.144332E-17	4.696851E-17
3.111240E+03	2.110817E-17	4.624831E-17
3.111440E+03	2.067363E-17	4.529745E-17
3.112840E+03	2.029744E-17	4.448172E-17
3.113440E+03	1.988324E-17	4.357759E-17
3.114840E+03	1.950178E-17	4.274977E-17
3.116241E+03	1.912157E-17	4.192440E-17
3.117241E+03	1.872009E-17	4.104979E-17
3.118441E+03	1.832340E-17	4.018659E-17
3.119240E+03	1.791054E-17	3.928544E-17
3.121041E+03	1.753668E-17	3.847501E-17
3.121241E+03	1.709818E-17	3.751400E-17
3.121441E+03	1.665700E-17	3.654706E-17
3.121841E+03	1.622690E-17	3.560535E-17
3.122441E+03	1.580272E-17	3.467749E-17
3.123241E+03	1.538558E-17	3.376588E-17
3.123441E+03	1.494609E-17	3.280227E-17
3.123641E+03	1.450734E-17	3.184024E-17
3.125842E+03	1.413505E-17	3.103267E-17
3.126642E+03	1.371587E-17	3.011575E-17
3.127842E+03	1.330908E-17	2.922749E-17
3.131443E+03	1.297256E-17	2.850289E-17
3.132043E+03	1.254487E-17	2.756550E-17
3.132242E+03	1.210655E-17	2.660310E-17
3.133242E+03	1.169049E-17	2.569248E-17
3.133642E+03	1.125986E-17	2.474746E-17
3.134242E+03	1.083514E-17	2.381602E-17
3.135842E+03	1.043492E-17	2.294152E-17
3.136042E+03	1.000236E-17	2.199116E-17
3.136242E+03	9.571181E-18	2.104375E-17
3.136443E+03	9.141979E-18	2.010066E-17
3.136643E+03	8.714718E-18	1.916178E-17
3.137043E+03	8.293812E-18	1.823733E-17
3.137843E+03	7.881719E-18	1.733315E-17
3.138243E+03	7.463606E-18	1.641459E-17
3.138443E+03	7.044456E-18	1.549320E-17
3.139043E+03	6.633364E-18	1.459031E-17
3.139443E+03	6.221843E-18	1.368593E-17
3.141443E+03	5.833494E-18	1.283536E-17
3.141844E+03	5.424679E-18	1.193654E-17
3.142044E+03	5.015372E-18	1.103621E-17
3.142244E+03	4.609695E-18	1.014382E-17
3.142444E+03	4.204603E-18	9.252661E-18
3.143044E+03	3.805909E-18	8.376013E-18
3.143443E+03	3.409102E-18	7.503154E-18
3.144044E+03	3.016560E-18	6.639773E-18
3.144243E+03	2.624188E-18	5.776286E-18
3.145243E+03	2.239336E-18	4.929869E-18
3.145843E+03	1.854876E-18	4.083838E-18
3.146243E+03	1.472609E-18	3.242397E-18
3.146443E+03	1.093131E-18	2.406928E-18
3.147444E+03	7.187829E-19	1.582893E-18
3.148844E+03	3.471995E-19	7.647521E-19
3.149444E+03	-2.239610E-20	-4.933461E-20
3.149844E+03	-3.884490E-19	-8.557332E-19
3.150444E+03	-7.510601E-19	-1.654691E-18
3.151244E+03	-1.106857E-18	-2.438843E-18
3.151844E+03	-1.461263E-18	-3.220022E-18
3.152044E+03	-1.809360E-18	-3.987199E-18
3.152645E+03	-2.152271E-18	-4.743269E-18
3.152845E+03	-2.491759E-18	-5.491609E-18
3.153045E+03	-2.827021E-18	-6.230677E-18
3.153645E+03	-3.160369E-18	-6.965975E-18
3.153845E+03	-3.483405E-18	-7.678223E-18
3.154045E+03	-3.804155E-18	-8.385473E-18
3.154445E+03	-4.124548E-18	-9.092243E-18
3.154645E+03	-4.436737E-18	-9.780725E-18
3.155445E+03	-4.749024E-18	-1.047038E-17
3.157244E+03	-5.068088E-18	-1.117677E-17
3.157444E+03	-5.366834E-18	-1.183595E-17
3.157644E+03	-5.656933E-18	-1.247610E-17
3.158245E+03	-5.943893E-18	-1.311013E-17
3.158445E+03	-6.225284E-18	-1.373118E-17
3.158645E+03	-6.498055E-18	-1.433325E-17
3.159245E+03	-6.771611E-18	-1.493797E-17
3.160445E+03	-7.048610E-18	-1.555176E-17
3.160645E+03	-7.306765E-18	-1.612182E-17
3.162445E+03	-7.586298E-18	-1.674303E-17
3.163045E+03	-7.837268E-18	-1.729845E-17
3.163246E+03	-8.077229E-18	-1.782863E-17
3.163446E+03	-8.306095E-18	-1.833434E-17
3.163646E+03	-8.532027E-18	-1.883360E-17
3.164046E+03	-8.753321E-18	-1.932323E-17
3.164246E+03	-8.964673E-18	-1.979038E-17
3.164646E+03	-9.174056E-18	-2.025381E-17
3.165246E+03	-9.381120E-18	-2.071279E-17
3.165446E+03	-9.572523E-18	-2.113602E-17
3.165646E+03	-9.750849E-18	-2.153040E-17
3.166846E+03	-9.948570E-18	-2.197089E-17
3.167046E+03	-1.011560E-17	-2.234042E-17
3.168646E+03	-1.030317E-17	-2.276010E-17
3.168846E+03	-1.045640E-17	-2.309928E-17
3.170846E+03	-1.064578E-17	-2.352466E-17
3.171446E+03	-1.079300E-17	-2.385211E-17
3.171646E+03	-1.092054E-17	-2.413470E-17
3.172246E+03	-1.105109E-17	-2.442540E-17
3.172446E+03	-1.116489E-17	-2.467767E-17
3.172846E+03	-1.127168E-17	-2.491518E-17
3.173246E+03	-1.137094E-17	-2.513610E-17
3.173446E+03	-1.145496E-17	-2.532260E-17
3.174447E+03	-1.155595E-17	-2.554968E-17
3.174647E+03	-1.162354E-17	-2.569988E-17
3.175247E+03	-1.169264E-17	-2.585501E-17
3.175447E+03	-1.174365E-17	-2.596859E-17
3.175647E+03	-1.178438E-17	-2.605942E-17
3.175847E+03	-1.181611E-17	-2.613037E-17
3.177447E+03	-1.187793E-17	-2.627343E-17
3.177647E+03	-1.189296E-17	-2.630747E-17
3.178447E+03	-1.191297E-17	-2.635491E-17
3.179047E+03	-1.191662E-17	-2.636537E-17
3.179648E+03	-1.190792E-17	-2.634851E-17
3.179847E+03	-1.188067E-17	-2.628901E-17
3.180048E+03	-1.184237E-17	-2.620507E-17
3.180647E+03	-1.180606E-17	-2.612710E-17
3.182847E+03	-1.180126E-17	-2.612519E-17
3.184247E+03	-1.176388E-17	-2.604798E-17
3.184447E+03	-1.168363E-17	-2.587108E-17
3.184648E+03	-1.159281E-17	-2.567077E-17
3.185848E+03	-1.151630E-17	-2.550601E-17
3.186048E+03	-1.140198E-17	-2.525358E-17
3.187248E+03	-1.130209E-17	-2.503695E-17
3.187448E+03	-1.116479E-17	-2.473355E-17
3.188848E+03	-1.104552E-17	-2.447458E-17
3.189048E+03	-1.088434E-17	-2.411817E-17
3.190449E+03	-1.073897E-17	-2.380117E-17
3.190849E+03	-1.055774E-17	-2.340094E-17
3.191448E+03	-1.036873E-17	-2.298413E-17
3.192048E+03	-1.016584E-17	-2.253647E-17
3.193248E+03	-9.964910E-18	-2.209512E-17
3.193448E+03	-9.728474E-18	-2.157154E-17
3.193648E+03	-9.477734E-18	-2.101621E-17
3.194848E+03	-9.237122E-18	-2.048647E-17
3.195649E+03	-8.973054E-18	-1.990328E-17
3.195849E+03	-8.682285E-18	-1.925892E-17
3.196049E+03	-8.380462E-18	-1.858999E-17
3.196249E+03	-8.065543E-18	-1.789198E-17
3.196449E+03	-7.737511E-18	-1.716483E-17
3.196649E+03	-7.392296E-18	-1.639952E-17
3.196849E+03	-7.036635E-18	-1.561098E-17
3.197249E+03	-6.669267E-18	-1.479688E-17
3.200049E+03	-6.321498E-18	-1.403141E-17
3.200249E+03	-5.918181E-18	-1.313661E-17
3.200449E+03	-5.501766E-18	-1.221267E-17
3.200650E+03	-5.072247E-18	-1.125959E-17
3.200850E+03	-4.626173E-18	-1.026969E-17
3.201250E+03	-4.167555E-18	-9.252182E-18
3.203050E+03	-3.706687E-18	-8.231350E-18
3.203250E+03	-3.215883E-18	-7.141656E-18
3.203450E+03	-2.709351E-18	-6.016966E-18
3.204050E+03	-2.189202E-18	-4.862268E-18
3.204649E+03	-1.652335E-18	-3.670219E-18
3.205449E+03	-1.099109E-18	-2.441683E-18
3.205649E+03	-5.277902E-19	-1.172529E-18
3.206050E+03	5.953512E-20	1.322705E-19
3.206250E+03	6.633178E-19	1.473754E-18
3.206850E+03	1.284990E-18	2.855248E-18
3.207450E+03	1.924073E-18	4.275696E-18
3.207650E+03	2.578716E-18	5.730634E-18
3.208250E+03	3.370685E-18	7.491319E-18
3.209250E+03	4.148240E-18	9.220886E-18
3.209450E+03	4.943418E-18	1.098879E-17
3.209650E+03	5.442625E-18	1.209887E-17
3.209850E+03	5.834038E-18	1.296938E-17
3.210050E+03	5.949464E-18	1.322640E-17
3.210250E+03	6.339212E-18	1.409330E-17
3.210850E+03	4.919491E-18	1.093803E-17
3.211050E+03	2.967828E-18	6.598895E-18
3.211250E+03	3.366606E-18	7.485806E-18
3.211651E+03	3.230946E-18	7.184617E-18
3.211851E+03	3.422873E-18	7.611644E-18
3.212051E+03	3.668434E-18	8.157972E-18
3.212451E+03	3.078299E-18	6.846048E-18
3.213251E+03	3.617806E-18	8.046917E-18
3.213451E+03	4.150023E-18	9.230996E-18
3.213851E+03	4.692470E-18	1.043824E-17
3.214051E+03	5.243050E-18	1.166336E-17
3.214251E+03	5.804435E-18	1.291259E-17
3.214451E+03	6.371016E-18	1.417346E-17
3.215051E+03	6.951186E-18	1.546563E-17
3.215851E+03	7.543620E-18	1.678588E-17
3.216050E+03	8.134204E-18	1.810060E-17
3.216851E+03	8.747354E-18	1.946750E-17
3.218051E+03	9.375712E-18	2.086994E-17
3.219651E+03	1.001955E-17	2.230881E-17
3.220451E+03	8.749981E-18	1.948459E-17
3.221251E+03	7.831786E-18	1.744219E-17
3.221451E+03	7.394313E-18	1.646842E-17
3.222252E+03	6.984412E-18	1.555751E-17
3.222652E+03	6.584359E-18	1.466735E-17
3.222852E+03	6.314802E-18	1.406734E-17
3.223052E+03	6.073501E-18	1.353023E-17
3.223252E+03	5.863788E-18	1.306347E-17
3.223452E+03	5.689717E-18	1.267608E-17
3.223852E+03	5.607741E-18	1.249425E-17
3.224052E+03	5.567631E-18	1.240528E-17
3.225452E+03	5.691632E-18	1.268444E-17
3.225852E+03	5.820447E-18	1.297236E-17
3.226052E+03	5.475376E-18	1.220368E-17
3.226452E+03	5.362137E-18	1.195206E-17
3.226652E+03	4.680780E-18	1.043368E-17
3.226852E+03	4.935797E-18	1.100248E-17
3.227052E+03	4.135669E-18	9.219196E-18
3.227653E+03	3.505997E-18	7.816299E-18
3.228452E+03	2.448207E-18	5.458763E-18
3.228852E+03	2.448295E-18	5.459315E-18
3.229652E+03	2.624274E-18	5.852481E-18
3.230252E+03	2.385472E-18	5.320441E-18
3.232252E+03	2.436318E-18	5.435623E-18
3.234253E+03	2.454326E-18	5.477595E-18
3.236053E+03	2.552202E-18	5.697719E-18
3.236253E+03	2.689347E-18	6.004089E-18
3.236653E+03	2.649713E-18	5.915994E-18
3.236853E+03	2.581819E-18	5.764597E-18
3.238254E+03	2.624442E-18	5.861117E-18
3.238454E+03	2.701427E-18	6.033246E-18
3.238654E+03	2.837190E-18	6.336663E-18
3.238854E+03	2.717820E-18	6.070260E-18
3.239054E+03	2.600126E-18	5.807581E-18
3.239454E+03	2.307917E-18	5.155249E-18
3.239654E+03	2.185070E-18	4.881005E-18
3.239854E+03	2.020399E-18	4.513314E-18
3.240454E+03	1.996168E-18	4.459626E-18
3.240854E+03	1.945956E-18	4.347737E-18
3.241053E+03	1.844605E-18	4.121430E-18
3.242453E+03	1.646139E-18	3.678849E-18
3.242653E+03	1.707556E-18	3.816232E-18
3.243254E+03	1.767328E-18	3.950211E-18
3.243454E+03	1.795762E-18	4.013900E-18
3.243854E+03	1.877708E-18	4.197344E-18
3.244054E+03	1.772601E-18	3.962524E-18
3.244854E+03	1.828005E-18	4.086920E-18
3.245654E+03	1.897720E-18	4.243350E-18
3.246054E+03	1.885576E-18	4.216476E-18
3.246254E+03	1.806160E-18	4.039025E-18
3.246654E+03	1.834441E-18	4.102541E-18
3.247054E+03	1.875582E-18	4.194829E-18
3.247254E+03	1.857830E-18	4.155266E-18
3.247454E+03	1.765823E-18	3.949613E-18
3.247654E+03	1.808392E-18	4.044963E-18
3.249255E+03	1.833051E-18	4.101220E-18
3.249455E+03	1.713360E-18	3.833554E-18
3.250055E+03	1.772828E-18	3.967010E-18
3.250255E+03	1.821777E-18	4.076679E-18
3.250855E+03	1.862481E-18	4.168185E-18
3.251455E+03	1.892252E-18	4.235239E-18
3.251655E+03	1.915209E-18	4.286765E-18
3.252454E+03	1.930130E-18	4.320744E-18
3.253254E+03	1.939294E-18	4.341844E-18
3.254255E+03	1.913871E-18	4.285650E-18
3.254455E+03	1.862610E-18	4.171004E-18
3.254855E+03	1.788851E-18	4.006104E-18
3.255855E+03	1.678283E-18	3.759124E-18
3.256255E+03	1.510128E-18	3.382709E-18
3.256455E+03	1.505000E-18	3.371337E-18
3.257055E+03	1.507992E-18	3.378383E-18
3.257255E+03	1.439376E-18	3.224771E-18
3.257855E+03	1.445293E-18	3.238358E-18
3.258655E+03	1.353867E-18	3.033919E-18
3.258855E+03	1.222961E-18	2.740662E-18
3.259256E+03	1.184853E-18	2.655443E-18
3.260056E+03	1.201814E-18	2.693821E-18
3.260256E+03	1.172009E-18	2.627105E-18
3.260856E+03	1.177376E-18	2.639405E-18
3.261056E+03	1.125456E-18	2.523099E-18
3.261256E+03	1.119406E-18	2.509620E-18
3.262256E+03	1.116475E-18	2.503477E-18
3.262456E+03	1.129953E-18	2.533785E-18
3.262856E+03	1.132933E-18	2.540641E-18
3.263056E+03	1.099565E-18	2.465898E-18
3.264256E+03	1.092731E-18	2.451076E-18
3.264456E+03	1.047358E-18	2.349382E-18
3.265256E+03	1.057584E-18	2.372646E-18
3.266056E+03	1.051517E-18	2.359359E-18
3.266456E+03	1.026561E-18	2.303522E-18
3.266656E+03	1.011277E-18	2.269304E-18
3.266856E+03	1.007772E-18	2.261516E-18
3.267256E+03	1.014992E-18	2.277875E-18
3.267456E+03	1.010932E-18	2.268842E-18
3.267656E+03	9.919860E-19	2.226398E-18
3.268656E+03	1.001961E-18	2.249174E-18
3.269456E+03	1.010915E-18	2.269587E-18
3.271057E+03	9.754525E-19	2.190578E-18
3.271857E+03	9.804240E-19	2.202048E-18
3.272457E+03	9.854733E-19	2.213619E-18
3.273057E+03	9.740482E-19	2.188183E-18
3.273257E+03	9.692770E-19	2.177541E-18
3.273857E+03	9.737639E-19	2.187849E-18
3.274457E+03	9.695539E-19	2.178617E-18
3.275057E+03	9.770870E-19	2.195774E-18
3.275258E+03	9.795771E-19	2.201447E-18
3.275458E+03	9.575754E-19	2.152077E-18
3.275858E+03	9.550906E-19	2.146642E-18
3.276057E+03	9.384177E-19	2.109242E-18
3.276258E+03	9.250217E-19	2.079205E-18
3.276457E+03	9.185079E-19	2.064635E-18
3.276657E+03	9.225820E-19	2.073866E-18
3.277257E+03	9.255844E-19	2.080833E-18
3.277457E+03	9.230767E-19	2.075268E-18
3.277657E+03	9.179939E-19	2.063913E-18
3.277857E+03	9.040581E-19	2.032652E-18
3.278057E+03	8.964680E-19	2.015658E-18
3.278457E+03	8.819929E-19	1.983250E-18
3.281058E+03	8.868576E-19	1.995099E-18
3.281658E+03	8.888554E-19	1.999805E-18
3.282058E+03	8.864292E-19	1.994486E-18
3.282458E+03	8.809121E-19	1.982212E-18
3.282658E+03	8.800590E-19	1.980363E-18
3.283058E+03	8.842861E-19	1.990015E-18
3.284658E+03	8.869789E-19	1.996639E-18
3.285458E+03	8.896754E-19	2.002992E-18
3.286059E+03	8.879190E-19	1.999251E-18
3.286459E+03	8.798920E-19	1.981318E-18
3.287059E+03	8.870517E-19	1.997652E-18
3.287259E+03	8.939804E-19	2.013327E-18
3.288059E+03	8.986638E-19	2.024162E-18
3.289059E+03	9.044732E-19	2.037610E-18
3.290258E+03	9.083640E-19	2.046812E-18
3.291059E+03	9.161480E-19	2.064646E-18
3.292259E+03	9.184980E-19	2.070386E-18
3.292459E+03	9.226901E-19	2.079910E-18
3.293059E+03	9.181023E-19	2.069790E-18
3.293259E+03	9.227985E-19	2.080452E-18
3.293659E+03	9.302901E-19	2.097492E-18
3.294059E+03	9.189941E-19	2.072172E-18
3.294859E+03	9.255052E-19	2.087153E-18
3.295059E+03	9.309700E-19	2.099552E-18
3.295659E+03	9.200166E-19	2.075073E-18
3.296460E+03	9.132545E-19	2.060118E-18
3.297260E+03	9.190245E-19	2.073433E-18
