#wls	flux	fluxerr
1.600000E+03	9.627849E-17	0.000000E+00
1.640000E+03	9.970469E-17	0.000000E+00
1.680000E+03	1.030961E-16	0.000000E+00
1.720000E+03	1.064394E-16	0.000000E+00
1.760000E+03	1.096970E-16	0.000000E+00
1.800000E+03	1.128719E-16	0.000000E+00
1.840000E+03	1.159091E-16	0.000000E+00
1.880000E+03	1.187946E-16	0.000000E+00
1.920000E+03	1.214894E-16	0.000000E+00
1.960000E+03	1.239632E-16	0.000000E+00
2.000000E+03	1.261727E-16	0.000000E+00
2.040000E+03	1.280836E-16	0.000000E+00
2.080000E+03	1.296505E-16	0.000000E+00
2.120000E+03	1.308387E-16	0.000000E+00
2.160000E+03	1.315953E-16	0.000000E+00
2.200000E+03	1.318899E-16	0.000000E+00
2.240000E+03	1.316864E-16	0.000000E+00
2.280000E+03	1.309796E-16	0.000000E+00
2.320000E+03	1.297737E-16	0.000000E+00
2.360000E+03	1.280672E-16	0.000000E+00
2.400000E+03	1.258828E-16	0.000000E+00
2.440000E+03	1.232358E-16	0.000000E+00
2.480000E+03	1.201436E-16	0.000000E+00
2.520000E+03	1.166263E-16	0.000000E+00
2.560000E+03	1.127032E-16	0.000000E+00
2.600000E+03	1.084084E-16	0.000000E+00
2.640000E+03	1.037720E-16	0.000000E+00
2.680000E+03	9.882764E-17	0.000000E+00
2.720000E+03	9.362136E-17	0.000000E+00
2.760000E+03	8.819697E-17	0.000000E+00
2.800000E+03	8.260589E-17	0.000000E+00
2.840000E+03	7.690407E-17	0.000000E+00
2.880000E+03	7.115431E-17	0.000000E+00
2.920000E+03	6.544178E-17	0.000000E+00
2.960000E+03	5.985753E-17	0.000000E+00
3.000000E+03	5.448797E-17	0.000000E+00
3.010000E+03	5.318710E-17	0.000000E+00
3.020000E+03	5.190606E-17	0.000000E+00
3.030000E+03	5.064267E-17	0.000000E+00
3.040000E+03	4.940079E-17	0.000000E+00
3.050000E+03	4.817939E-17	0.000000E+00
3.060000E+03	4.697863E-17	0.000000E+00
3.070000E+03	4.579971E-17	0.000000E+00
3.080000E+03	4.464366E-17	0.000000E+00
3.090000E+03	4.350948E-17	0.000000E+00
3.100000E+03	4.239902E-17	0.000000E+00
3.110000E+03	4.131127E-17	0.000000E+00
3.120000E+03	4.024700E-17	0.000000E+00
3.130000E+03	3.920684E-17	0.000000E+00
3.140000E+03	3.819056E-17	0.000000E+00
3.150000E+03	3.719718E-17	0.000000E+00
3.160000E+03	3.622867E-17	0.000000E+00
3.170000E+03	3.528328E-17	0.000000E+00
3.180000E+03	3.436208E-17	0.000000E+00
3.190000E+03	3.346467E-17	0.000000E+00
3.200000E+03	3.259068E-17	0.000000E+00
3.210000E+03	3.173976E-17	0.000000E+00
3.220000E+03	3.091262E-17	0.000000E+00
3.230000E+03	3.010827E-17	0.000000E+00
3.240000E+03	2.932628E-17	0.000000E+00
3.250000E+03	2.856674E-17	0.000000E+00
3.260000E+03	2.782965E-17	0.000000E+00
3.270000E+03	2.711406E-17	0.000000E+00
3.280000E+03	2.641996E-17	0.000000E+00
3.290000E+03	2.574687E-17	0.000000E+00
3.300000E+03	2.509471E-17	0.000000E+00
3.310000E+03	2.446258E-17	0.000000E+00
3.320000E+03	2.385006E-17	0.000000E+00
3.330000E+03	2.325738E-17	0.000000E+00
3.340000E+03	2.268336E-17	0.000000E+00
3.350000E+03	2.212790E-17	0.000000E+00
3.360000E+03	2.159084E-17	0.000000E+00
3.370000E+03	2.107112E-17	0.000000E+00
3.380000E+03	2.056889E-17	0.000000E+00
3.390000E+03	2.008316E-17	0.000000E+00
3.400000E+03	1.961354E-17	0.000000E+00
3.410000E+03	1.915988E-17	0.000000E+00
3.420000E+03	1.872156E-17	0.000000E+00
3.430000E+03	1.829820E-17	0.000000E+00
3.440000E+03	1.788898E-17	0.000000E+00
3.450000E+03	1.749381E-17	0.000000E+00
3.460000E+03	1.711216E-17	0.000000E+00
3.470000E+03	1.674332E-17	0.000000E+00
3.480000E+03	1.638702E-17	0.000000E+00
3.490000E+03	1.604264E-17	0.000000E+00
3.500000E+03	1.570980E-17	0.000000E+00
3.510000E+03	1.538809E-17	0.000000E+00
3.520000E+03	1.507684E-17	0.000000E+00
3.530000E+03	1.477543E-17	0.000000E+00
3.540000E+03	1.448313E-17	0.000000E+00
3.550000E+03	1.419917E-17	0.000000E+00
3.560000E+03	1.392283E-17	0.000000E+00
3.570000E+03	1.365349E-17	0.000000E+00
3.580000E+03	1.339044E-17	0.000000E+00
3.590000E+03	1.313304E-17	0.000000E+00
3.600000E+03	1.288100E-17	0.000000E+00
3.610000E+03	1.263366E-17	0.000000E+00
3.620000E+03	1.239077E-17	0.000000E+00
3.630000E+03	1.215257E-17	0.000000E+00
3.640000E+03	1.191901E-17	0.000000E+00
3.650000E+03	1.169027E-17	0.000000E+00
3.660000E+03	1.146647E-17	0.000000E+00
3.670000E+03	1.124779E-17	0.000000E+00
3.680000E+03	1.103431E-17	0.000000E+00
3.690000E+03	1.082597E-17	0.000000E+00
3.700000E+03	1.062306E-17	0.000000E+00
3.710000E+03	1.042537E-17	0.000000E+00
3.720000E+03	1.023307E-17	0.000000E+00
3.730000E+03	1.004609E-17	0.000000E+00
3.740000E+03	9.864453E-18	0.000000E+00
3.750000E+03	9.688088E-18	0.000000E+00
3.760000E+03	9.516893E-18	0.000000E+00
3.770000E+03	9.350931E-18	0.000000E+00
3.780000E+03	9.190087E-18	0.000000E+00
3.790000E+03	9.034316E-18	0.000000E+00
3.800000E+03	8.883423E-18	0.000000E+00
3.810000E+03	8.737492E-18	0.000000E+00
3.820000E+03	8.596319E-18	0.000000E+00
3.830000E+03	8.459903E-18	0.000000E+00
3.840000E+03	8.328037E-18	0.000000E+00
3.850000E+03	8.200775E-18	0.000000E+00
3.860000E+03	8.077846E-18	0.000000E+00
3.870000E+03	7.959299E-18	0.000000E+00
3.880000E+03	7.844985E-18	0.000000E+00
3.890000E+03	7.734764E-18	0.000000E+00
3.900000E+03	7.628554E-18	0.000000E+00
3.910000E+03	7.526273E-18	0.000000E+00
3.920000E+03	7.427840E-18	0.000000E+00
3.930000E+03	7.333116E-18	0.000000E+00
3.940000E+03	7.241967E-18	0.000000E+00
3.950000E+03	7.154371E-18	0.000000E+00
3.960000E+03	7.070252E-18	0.000000E+00
3.970000E+03	6.989374E-18	0.000000E+00
3.980000E+03	6.911770E-18	0.000000E+00
3.990000E+03	6.837320E-18	0.000000E+00
4.000000E+03	6.765954E-18	0.000000E+00
4.010000E+03	6.697504E-18	0.000000E+00
4.020000E+03	6.631910E-18	0.000000E+00
4.030000E+03	6.569158E-18	0.000000E+00
4.040000E+03	6.509093E-18	0.000000E+00
4.050000E+03	6.451658E-18	0.000000E+00
4.060000E+03	6.396751E-18	0.000000E+00
4.070000E+03	6.344322E-18	0.000000E+00
4.080000E+03	6.294274E-18	0.000000E+00
4.090000E+03	6.246562E-18	0.000000E+00
4.100000E+03	6.201093E-18	0.000000E+00
4.110000E+03	6.157781E-18	0.000000E+00
4.120000E+03	6.116587E-18	0.000000E+00
4.130000E+03	6.077472E-18	0.000000E+00
4.140000E+03	6.040313E-18	0.000000E+00
4.150000E+03	6.005120E-18	0.000000E+00
4.160000E+03	5.971773E-18	0.000000E+00
4.170000E+03	5.940244E-18	0.000000E+00
4.180000E+03	5.910506E-18	0.000000E+00
4.190000E+03	5.882490E-18	0.000000E+00
4.200000E+03	5.856129E-18	0.000000E+00
4.210000E+03	5.831403E-18	0.000000E+00
4.220000E+03	5.808247E-18	0.000000E+00
4.230000E+03	5.786647E-18	0.000000E+00
4.240000E+03	5.766586E-18	0.000000E+00
4.250000E+03	5.748006E-18	0.000000E+00
4.260000E+03	5.730810E-18	0.000000E+00
4.270000E+03	5.715075E-18	0.000000E+00
4.280000E+03	5.700703E-18	0.000000E+00
4.290000E+03	5.687691E-18	0.000000E+00
4.300000E+03	5.675944E-18	0.000000E+00
4.310000E+03	5.665503E-18	0.000000E+00
4.320000E+03	5.656325E-18	0.000000E+00
4.330000E+03	5.648364E-18	0.000000E+00
4.340000E+03	5.641622E-18	0.000000E+00
4.350000E+03	5.636060E-18	0.000000E+00
4.360000E+03	5.631770E-18	0.000000E+00
4.370000E+03	5.628672E-18	0.000000E+00
4.380000E+03	5.626774E-18	0.000000E+00
4.390000E+03	5.626086E-18	0.000000E+00
4.400000E+03	5.626531E-18	0.000000E+00
4.410000E+03	5.628123E-18	0.000000E+00
4.420000E+03	5.630832E-18	0.000000E+00
4.430000E+03	5.634585E-18	0.000000E+00
4.440000E+03	5.639444E-18	0.000000E+00
4.450000E+03	5.645339E-18	0.000000E+00
4.460000E+03	5.652243E-18	0.000000E+00
4.470000E+03	5.660089E-18	0.000000E+00
4.480000E+03	5.668945E-18	0.000000E+00
4.490000E+03	5.678789E-18	0.000000E+00
4.500000E+03	5.689510E-18	0.000000E+00
4.510000E+03	5.701179E-18	0.000000E+00
4.520000E+03	5.713733E-18	0.000000E+00
4.530000E+03	5.727154E-18	0.000000E+00
4.540000E+03	5.741471E-18	0.000000E+00
4.550000E+03	5.756670E-18	0.000000E+00
4.560000E+03	5.772689E-18	0.000000E+00
4.570000E+03	5.789513E-18	0.000000E+00
4.580000E+03	5.807178E-18	0.000000E+00
4.590000E+03	5.825670E-18	0.000000E+00
4.600000E+03	5.844880E-18	0.000000E+00
4.610000E+03	5.864896E-18	0.000000E+00
4.620000E+03	5.885706E-18	0.000000E+00
4.630000E+03	5.907203E-18	0.000000E+00
4.640000E+03	5.929426E-18	0.000000E+00
4.650000E+03	5.952364E-18	0.000000E+00
4.660000E+03	5.975960E-18	0.000000E+00
4.670000E+03	6.000306E-18	0.000000E+00
4.680000E+03	6.025346E-18	0.000000E+00
4.690000E+03	6.051121E-18	0.000000E+00
4.700000E+03	6.077629E-18	0.000000E+00
4.710000E+03	6.104917E-18	0.000000E+00
4.720000E+03	6.132927E-18	0.000000E+00
4.730000E+03	6.161764E-18	0.000000E+00
4.740000E+03	6.191369E-18	0.000000E+00
4.750000E+03	6.221908E-18	0.000000E+00
4.760000E+03	6.253269E-18	0.000000E+00
4.770000E+03	6.285510E-18	0.000000E+00
4.780000E+03	6.318743E-18	0.000000E+00
4.790000E+03	6.352916E-18	0.000000E+00
4.800000E+03	6.388146E-18	0.000000E+00
4.810000E+03	6.424325E-18	0.000000E+00
4.820000E+03	6.461575E-18	0.000000E+00
4.830000E+03	6.499900E-18	0.000000E+00
4.840000E+03	6.539252E-18	0.000000E+00
4.850000E+03	6.579695E-18	0.000000E+00
4.860000E+03	6.621299E-18	0.000000E+00
4.870000E+03	6.663952E-18	0.000000E+00
4.880000E+03	6.707723E-18	0.000000E+00
4.890000E+03	6.752682E-18	0.000000E+00
4.900000E+03	6.798717E-18	0.000000E+00
4.910000E+03	6.845897E-18	0.000000E+00
4.920000E+03	6.894233E-18	0.000000E+00
4.930000E+03	6.943734E-18	0.000000E+00
4.940000E+03	6.994409E-18	0.000000E+00
4.950000E+03	7.046204E-18	0.000000E+00
4.960000E+03	7.099190E-18	0.000000E+00
4.970000E+03	7.153314E-18	0.000000E+00
4.980000E+03	7.208579E-18	0.000000E+00
4.990000E+03	7.264995E-18	0.000000E+00
5.000000E+03	7.322570E-18	0.000000E+00
5.010000E+03	7.381309E-18	0.000000E+00
5.020000E+03	7.441219E-18	0.000000E+00
5.030000E+03	7.502234E-18	0.000000E+00
5.040000E+03	7.564361E-18	0.000000E+00
5.050000E+03	7.627599E-18	0.000000E+00
5.060000E+03	7.691955E-18	0.000000E+00
5.070000E+03	7.757426E-18	0.000000E+00
5.080000E+03	7.824018E-18	0.000000E+00
5.090000E+03	7.891578E-18	0.000000E+00
5.100000E+03	7.960255E-18	0.000000E+00
5.110000E+03	8.030047E-18	0.000000E+00
5.120000E+03	8.100796E-18	0.000000E+00
5.130000E+03	8.172497E-18	0.000000E+00
5.140000E+03	8.245218E-18	0.000000E+00
5.150000E+03	8.318953E-18	0.000000E+00
5.160000E+03	8.393533E-18	0.000000E+00
5.170000E+03	8.469022E-18	0.000000E+00
5.180000E+03	8.545491E-18	0.000000E+00
5.190000E+03	8.622760E-18	0.000000E+00
5.200000E+03	8.700811E-18	0.000000E+00
5.210000E+03	8.779622E-18	0.000000E+00
5.220000E+03	8.859260E-18	0.000000E+00
5.230000E+03	8.939613E-18	0.000000E+00
5.240000E+03	9.020658E-18	0.000000E+00
5.250000E+03	9.102280E-18	0.000000E+00
5.260000E+03	9.184536E-18	0.000000E+00
5.270000E+03	9.267395E-18	0.000000E+00
5.280000E+03	9.350733E-18	0.000000E+00
5.290000E+03	9.434604E-18	0.000000E+00
5.300000E+03	9.518880E-18	0.000000E+00
5.310000E+03	9.603518E-18	0.000000E+00
5.320000E+03	9.688569E-18	0.000000E+00
5.330000E+03	9.773892E-18	0.000000E+00
5.340000E+03	9.859451E-18	0.000000E+00
5.350000E+03	9.945184E-18	0.000000E+00
5.360000E+03	1.003104E-17	0.000000E+00
5.370000E+03	1.011697E-17	0.000000E+00
5.380000E+03	1.020291E-17	0.000000E+00
5.390000E+03	1.028882E-17	0.000000E+00
5.400000E+03	1.037451E-17	0.000000E+00
5.410000E+03	1.045994E-17	0.000000E+00
5.420000E+03	1.054513E-17	0.000000E+00
5.430000E+03	1.062991E-17	0.000000E+00
5.440000E+03	1.071422E-17	0.000000E+00
5.450000E+03	1.079788E-17	0.000000E+00
5.460000E+03	1.088091E-17	0.000000E+00
5.470000E+03	1.096302E-17	0.000000E+00
5.480000E+03	1.104435E-17	0.000000E+00
5.490000E+03	1.112450E-17	0.000000E+00
5.500000E+03	1.120348E-17	0.000000E+00
5.510000E+03	1.128121E-17	0.000000E+00
5.520000E+03	1.135750E-17	0.000000E+00
5.530000E+03	1.143224E-17	0.000000E+00
5.540000E+03	1.150525E-17	0.000000E+00
5.550000E+03	1.157643E-17	0.000000E+00
5.560000E+03	1.164569E-17	0.000000E+00
5.570000E+03	1.171295E-17	0.000000E+00
5.580000E+03	1.177799E-17	0.000000E+00
5.590000E+03	1.184075E-17	0.000000E+00
5.600000E+03	1.190111E-17	0.000000E+00
5.610000E+03	1.195900E-17	0.000000E+00
5.620000E+03	1.201423E-17	0.000000E+00
5.630000E+03	1.206672E-17	0.000000E+00
5.640000E+03	1.211649E-17	0.000000E+00
5.650000E+03	1.216338E-17	0.000000E+00
5.660000E+03	1.220718E-17	0.000000E+00
5.670000E+03	1.224807E-17	0.000000E+00
5.680000E+03	1.228601E-17	0.000000E+00
5.690000E+03	1.232069E-17	0.000000E+00
5.700000E+03	1.235218E-17	0.000000E+00
5.710000E+03	1.238057E-17	0.000000E+00
5.720000E+03	1.240569E-17	0.000000E+00
5.730000E+03	1.242751E-17	0.000000E+00
5.740000E+03	1.244615E-17	0.000000E+00
5.750000E+03	1.246144E-17	0.000000E+00
5.760000E+03	1.247363E-17	0.000000E+00
5.770000E+03	1.248247E-17	0.000000E+00
5.780000E+03	1.248806E-17	0.000000E+00
5.790000E+03	1.249043E-17	0.000000E+00
5.800000E+03	1.248973E-17	0.000000E+00
5.810000E+03	1.248583E-17	0.000000E+00
5.820000E+03	1.247889E-17	0.000000E+00
5.830000E+03	1.246894E-17	0.000000E+00
5.840000E+03	1.245590E-17	0.000000E+00
5.850000E+03	1.244006E-17	0.000000E+00
5.860000E+03	1.242132E-17	0.000000E+00
5.870000E+03	1.239990E-17	0.000000E+00
5.880000E+03	1.237569E-17	0.000000E+00
5.890000E+03	1.234891E-17	0.000000E+00
5.900000E+03	1.231960E-17	0.000000E+00
5.910000E+03	1.228786E-17	0.000000E+00
5.920000E+03	1.225388E-17	0.000000E+00
5.930000E+03	1.221745E-17	0.000000E+00
5.940000E+03	1.217894E-17	0.000000E+00
5.950000E+03	1.213842E-17	0.000000E+00
5.960000E+03	1.209598E-17	0.000000E+00
5.970000E+03	1.205156E-17	0.000000E+00
5.980000E+03	1.200538E-17	0.000000E+00
5.990000E+03	1.195767E-17	0.000000E+00
6.000000E+03	1.190823E-17	0.000000E+00
6.010000E+03	1.185742E-17	0.000000E+00
6.020000E+03	1.180520E-17	0.000000E+00
6.030000E+03	1.175180E-17	0.000000E+00
6.040000E+03	1.169698E-17	0.000000E+00
6.050000E+03	1.164115E-17	0.000000E+00
6.060000E+03	1.158436E-17	0.000000E+00
6.070000E+03	1.152654E-17	0.000000E+00
6.080000E+03	1.146779E-17	0.000000E+00
6.090000E+03	1.140829E-17	0.000000E+00
6.100000E+03	1.134799E-17	0.000000E+00
6.110000E+03	1.128708E-17	0.000000E+00
6.120000E+03	1.122548E-17	0.000000E+00
6.130000E+03	1.116339E-17	0.000000E+00
6.140000E+03	1.110099E-17	0.000000E+00
6.150000E+03	1.103821E-17	0.000000E+00
6.160000E+03	1.097521E-17	0.000000E+00
6.170000E+03	1.091232E-17	0.000000E+00
6.180000E+03	1.084957E-17	0.000000E+00
6.190000E+03	1.078714E-17	0.000000E+00
6.200000E+03	1.072492E-17	0.000000E+00
6.210000E+03	1.066291E-17	0.000000E+00
6.220000E+03	1.060102E-17	0.000000E+00
6.230000E+03	1.053925E-17	0.000000E+00
6.240000E+03	1.047777E-17	0.000000E+00
6.250000E+03	1.041647E-17	0.000000E+00
6.260000E+03	1.035536E-17	0.000000E+00
6.270000E+03	1.029461E-17	0.000000E+00
6.280000E+03	1.023437E-17	0.000000E+00
6.290000E+03	1.017469E-17	0.000000E+00
6.300000E+03	1.011557E-17	0.000000E+00
6.310000E+03	1.005747E-17	0.000000E+00
6.320000E+03	1.000011E-17	0.000000E+00
6.330000E+03	9.944096E-18	0.000000E+00
6.340000E+03	9.889311E-18	0.000000E+00
6.350000E+03	9.835914E-18	0.000000E+00
6.360000E+03	9.784344E-18	0.000000E+00
6.370000E+03	9.734639E-18	0.000000E+00
6.380000E+03	9.686956E-18	0.000000E+00
6.390000E+03	9.641461E-18	0.000000E+00
6.400000E+03	9.598461E-18	0.000000E+00
6.410000E+03	9.557838E-18	0.000000E+00
6.420000E+03	9.519330E-18	0.000000E+00
6.430000E+03	9.482815E-18	0.000000E+00
6.440000E+03	9.448175E-18	0.000000E+00
6.450000E+03	9.415293E-18	0.000000E+00
6.460000E+03	9.383907E-18	0.000000E+00
6.470000E+03	9.353899E-18	0.000000E+00
6.480000E+03	9.325155E-18	0.000000E+00
6.490000E+03	9.297702E-18	0.000000E+00
6.500000E+03	9.271426E-18	0.000000E+00
6.510000E+03	9.246211E-18	0.000000E+00
6.520000E+03	9.222230E-18	0.000000E+00
6.530000E+03	9.199225E-18	0.000000E+00
6.540000E+03	9.177368E-18	0.000000E+00
6.550000E+03	9.156537E-18	0.000000E+00
6.560000E+03	9.136908E-18	0.000000E+00
6.570000E+03	9.118355E-18	0.000000E+00
6.580000E+03	9.100900E-18	0.000000E+00
6.590000E+03	9.084562E-18	0.000000E+00
6.600000E+03	9.069503E-18	0.000000E+00
6.610000E+03	9.055441E-18	0.000000E+00
6.620000E+03	9.042683E-18	0.000000E+00
6.630000E+03	9.031088E-18	0.000000E+00
6.640000E+03	9.020660E-18	0.000000E+00
6.650000E+03	9.011553E-18	0.000000E+00
6.660000E+03	9.003467E-18	0.000000E+00
6.670000E+03	8.996702E-18	0.000000E+00
6.680000E+03	8.991107E-18	0.000000E+00
6.690000E+03	8.986680E-18	0.000000E+00
6.700000E+03	8.983571E-18	0.000000E+00
6.710000E+03	8.981626E-18	0.000000E+00
6.720000E+03	8.980841E-18	0.000000E+00
6.730000E+03	8.981214E-18	0.000000E+00
6.740000E+03	8.982896E-18	0.000000E+00
6.750000E+03	8.985729E-18	0.000000E+00
6.760000E+03	8.989705E-18	0.000000E+00
6.770000E+03	8.994975E-18	0.000000E+00
6.780000E+03	9.001375E-18	0.000000E+00
6.790000E+03	9.008891E-18	0.000000E+00
6.800000E+03	9.017671E-18	0.000000E+00
6.810000E+03	9.027380E-18	0.000000E+00
6.820000E+03	9.038320E-18	0.000000E+00
6.830000E+03	9.050472E-18	0.000000E+00
6.840000E+03	9.063487E-18	0.000000E+00
6.850000E+03	9.077667E-18	0.000000E+00
6.860000E+03	9.092816E-18	0.000000E+00
6.870000E+03	9.108905E-18	0.000000E+00
6.880000E+03	9.125900E-18	0.000000E+00
6.890000E+03	9.143767E-18	0.000000E+00
6.900000E+03	9.162639E-18	0.000000E+00
6.910000E+03	9.182139E-18	0.000000E+00
6.920000E+03	9.202574E-18	0.000000E+00
6.930000E+03	9.223562E-18	0.000000E+00
6.940000E+03	9.245414E-18	0.000000E+00
6.950000E+03	9.267746E-18	0.000000E+00
6.960000E+03	9.290877E-18	0.000000E+00
6.970000E+03	9.314420E-18	0.000000E+00
6.980000E+03	9.338524E-18	0.000000E+00
6.990000E+03	9.363159E-18	0.000000E+00
7.000000E+03	9.388121E-18	0.000000E+00
7.010000E+03	9.413751E-18	0.000000E+00
7.020000E+03	9.439666E-18	0.000000E+00
7.030000E+03	9.465849E-18	0.000000E+00
7.040000E+03	9.492471E-18	0.000000E+00
7.050000E+03	9.519527E-18	0.000000E+00
7.060000E+03	9.546820E-18	0.000000E+00
7.070000E+03	9.574347E-18	0.000000E+00
7.080000E+03	9.602297E-18	0.000000E+00
7.090000E+03	9.630479E-18	0.000000E+00
7.100000E+03	9.658895E-18	0.000000E+00
7.110000E+03	9.687547E-18	0.000000E+00
7.120000E+03	9.716639E-18	0.000000E+00
7.130000E+03	9.745771E-18	0.000000E+00
7.140000E+03	9.775359E-18	0.000000E+00
7.150000E+03	9.805005E-18	0.000000E+00
7.160000E+03	9.834904E-18	0.000000E+00
7.170000E+03	9.865075E-18	0.000000E+00
7.180000E+03	9.895508E-18	0.000000E+00
7.190000E+03	9.926009E-18	0.000000E+00
7.200000E+03	9.956792E-18	0.000000E+00
7.210000E+03	9.987838E-18	0.000000E+00
7.220000E+03	1.001896E-17	0.000000E+00
7.230000E+03	1.005013E-17	0.000000E+00
7.240000E+03	1.008158E-17	0.000000E+00
7.250000E+03	1.011309E-17	0.000000E+00
7.260000E+03	1.014464E-17	0.000000E+00
7.270000E+03	1.017645E-17	0.000000E+00
7.280000E+03	1.020830E-17	0.000000E+00
7.290000E+03	1.024020E-17	0.000000E+00
7.300000E+03	1.027258E-17	0.000000E+00
7.310000E+03	1.030477E-17	0.000000E+00
7.320000E+03	1.033744E-17	0.000000E+00
7.330000E+03	1.037014E-17	0.000000E+00
7.340000E+03	1.040332E-17	0.000000E+00
7.350000E+03	1.043677E-17	0.000000E+00
7.360000E+03	1.047069E-17	0.000000E+00
7.370000E+03	1.050534E-17	0.000000E+00
7.380000E+03	1.054045E-17	0.000000E+00
7.390000E+03	1.057678E-17	0.000000E+00
7.400000E+03	1.061406E-17	0.000000E+00
7.410000E+03	1.065232E-17	0.000000E+00
7.420000E+03	1.069252E-17	0.000000E+00
7.430000E+03	1.073395E-17	0.000000E+00
7.440000E+03	1.077736E-17	0.000000E+00
7.450000E+03	1.082276E-17	0.000000E+00
7.460000E+03	1.086965E-17	0.000000E+00
7.470000E+03	1.091777E-17	0.000000E+00
7.480000E+03	1.096710E-17	0.000000E+00
7.490000E+03	1.101736E-17	0.000000E+00
7.500000E+03	1.106852E-17	0.000000E+00
7.510000E+03	1.112029E-17	0.000000E+00
7.520000E+03	1.117234E-17	0.000000E+00
7.530000E+03	1.122464E-17	0.000000E+00
7.540000E+03	1.127713E-17	0.000000E+00
7.550000E+03	1.132947E-17	0.000000E+00
7.560000E+03	1.138188E-17	0.000000E+00
7.570000E+03	1.143372E-17	0.000000E+00
7.580000E+03	1.148550E-17	0.000000E+00
7.590000E+03	1.153687E-17	0.000000E+00
7.600000E+03	1.158747E-17	0.000000E+00
7.610000E+03	1.163750E-17	0.000000E+00
7.620000E+03	1.168662E-17	0.000000E+00
7.630000E+03	1.173505E-17	0.000000E+00
7.640000E+03	1.178272E-17	0.000000E+00
7.650000E+03	1.182925E-17	0.000000E+00
7.660000E+03	1.187491E-17	0.000000E+00
7.670000E+03	1.191931E-17	0.000000E+00
7.680000E+03	1.196270E-17	0.000000E+00
7.690000E+03	1.200502E-17	0.000000E+00
7.700000E+03	1.204592E-17	0.000000E+00
7.710000E+03	1.208562E-17	0.000000E+00
7.720000E+03	1.212410E-17	0.000000E+00
7.730000E+03	1.216127E-17	0.000000E+00
7.740000E+03	1.219709E-17	0.000000E+00
7.750000E+03	1.223151E-17	0.000000E+00
7.760000E+03	1.226444E-17	0.000000E+00
