#wls	flux	fluxerr
1.600000E+03	9.095548E-18	2.819169E-17
1.640000E+03	9.372352E-18	2.951200E-17
1.680000E+03	9.623312E-18	3.079920E-17
1.720000E+03	9.846187E-18	3.204534E-17
1.760000E+03	1.003976E-17	3.324533E-17
1.800000E+03	1.017024E-17	3.426749E-17
1.840000E+03	1.026681E-17	3.521940E-17
1.880000E+03	1.032868E-17	3.609535E-17
1.920000E+03	1.035418E-17	3.688615E-17
1.960000E+03	1.030243E-17	3.741510E-17
2.000000E+03	1.021342E-17	3.783969E-17
2.040000E+03	1.008735E-17	3.815493E-17
2.080000E+03	9.923884E-18	3.835322E-17
2.120000E+03	9.678620E-18	3.821913E-17
2.160000E+03	9.398526E-18	3.795423E-17
2.200000E+03	9.084609E-18	3.755370E-17
2.240000E+03	8.736386E-18	3.700558E-17
2.280000E+03	8.309771E-18	3.606537E-17
2.320000E+03	7.861155E-18	3.499813E-17
2.360000E+03	7.399073E-18	3.383162E-17
2.400000E+03	6.929856E-18	3.258593E-17
2.440000E+03	6.418361E-18	3.103403E-17
2.480000E+03	5.913638E-18	2.944534E-17
2.520000E+03	5.419363E-18	2.783271E-17
2.560000E+03	4.938266E-18	2.620541E-17
2.600000E+03	4.441772E-18	2.434973E-17
2.640000E+03	3.969340E-18	2.252354E-17
2.680000E+03	3.522393E-18	2.073415E-17
2.720000E+03	3.102490E-18	1.899081E-17
2.760000E+03	2.688673E-18	1.710922E-17
2.800000E+03	2.309005E-18	1.531715E-17
2.840000E+03	1.963445E-18	1.362025E-17
2.880000E+03	1.651756E-18	1.202423E-17
2.920000E+03	1.361807E-18	1.040445E-17
2.960000E+03	1.108627E-18	8.926612E-18
3.000000E+03	8.903988E-19	7.592217E-18
3.010000E+03	8.410227E-19	7.280766E-18
3.020000E+03	7.925181E-19	6.962971E-18
3.030000E+03	7.460577E-19	6.654675E-18
3.040000E+03	7.016061E-19	6.355888E-18
3.050000E+03	6.591385E-19	6.066722E-18
3.060000E+03	6.181120E-19	5.780091E-18
3.070000E+03	5.790003E-19	5.503141E-18
3.080000E+03	5.417432E-19	5.235662E-18
3.090000E+03	5.062817E-19	4.977447E-18
3.100000E+03	4.721839E-19	4.722380E-18
3.110000E+03	4.398279E-19	4.476802E-18
3.120000E+03	4.091449E-19	4.240403E-18
3.130000E+03	3.800848E-19	4.013054E-18
3.140000E+03	3.522864E-19	3.789301E-18
3.150000E+03	3.260297E-19	3.574549E-18
3.160000E+03	3.012621E-19	3.368629E-18
3.170000E+03	2.779295E-19	3.171352E-18
3.180000E+03	2.557184E-19	2.977731E-18
3.190000E+03	2.348589E-19	2.792650E-18
3.200000E+03	2.152871E-19	2.615779E-18
3.210000E+03	1.969494E-19	2.446889E-18
3.220000E+03	1.795939E-19	2.281672E-18
3.230000E+03	1.633815E-19	2.124178E-18
3.240000E+03	1.482657E-19	1.974234E-18
3.250000E+03	1.341853E-19	1.831460E-18
3.260000E+03	1.209405E-19	1.692169E-18
3.270000E+03	1.086543E-19	1.559880E-18
3.280000E+03	9.727319E-20	1.434261E-18
3.290000E+03	8.675413E-20	1.315113E-18
3.300000E+03	7.692460E-20	1.199088E-18
3.310000E+03	6.787937E-20	1.089239E-18
3.320000E+03	5.957446E-20	9.852945E-19
3.330000E+03	5.196859E-20	8.870103E-19
3.340000E+03	4.492252E-20	7.915138E-19
3.350000E+03	3.850730E-20	7.013940E-19
3.360000E+03	3.268532E-20	6.164036E-19
3.370000E+03	2.742107E-20	5.363111E-19
3.380000E+03	2.260085E-20	4.586534E-19
3.390000E+03	1.827983E-20	3.856324E-19
3.400000E+03	1.442631E-20	3.170219E-19
3.410000E+03	1.101002E-20	2.526009E-19
3.420000E+03	7.937423E-21	1.902799E-19
3.430000E+03	5.253001E-21	1.319206E-19
3.440000E+03	2.930494E-21	7.731953E-20
3.450000E+03	9.451559E-22	2.628424E-20
3.460000E+03	-7.819180E-22	-2.295254E-20
3.470000E+03	-2.212819E-21	-6.882704E-20
3.480000E+03	-3.368849E-21	-1.115156E-19
3.490000E+03	-4.270040E-21	-1.511842E-19
3.500000E+03	-4.984737E-21	-1.893103E-19
3.510000E+03	-5.478374E-21	-2.245887E-19
3.520000E+03	-5.768004E-21	-2.571666E-19
3.530000E+03	-5.869630E-21	-2.871784E-19
3.540000E+03	-5.844641E-21	-3.158420E-19
3.550000E+03	-5.659400E-21	-3.420733E-19
3.560000E+03	-5.327554E-21	-3.659841E-19
3.570000E+03	-4.862218E-21	-3.876892E-19
3.580000E+03	-4.320835E-21	-4.081689E-19
3.590000E+03	-3.669223E-21	-4.265379E-19
3.600000E+03	-2.918748E-21	-4.428890E-19
3.610000E+03	-2.080385E-21	-4.573271E-19
3.620000E+03	-1.210108E-21	-4.706350E-19
3.630000E+03	-2.719167E-22	-4.821175E-19
3.640000E+03	7.247029E-22	-4.918881E-19
3.650000E+03	1.770853E-21	-5.000433E-19
3.660000E+03	2.810885E-21	-5.072083E-19
3.670000E+03	3.884195E-21	-5.128726E-19
3.680000E+03	4.983502E-21	-5.171358E-19
3.690000E+03	6.102003E-21	-5.200894E-19
3.700000E+03	7.183834E-21	-5.222202E-19
3.710000E+03	8.272513E-21	-5.231505E-19
3.720000E+03	9.362797E-21	-5.229724E-19
3.730000E+03	1.045000E-20	-5.217783E-19
3.740000E+03	1.147686E-20	-5.198981E-19
3.750000E+03	1.249185E-20	-5.171007E-19
3.760000E+03	1.349103E-20	-5.134479E-19
3.770000E+03	1.447141E-20	-5.090226E-19
3.780000E+03	1.537447E-20	-5.040521E-19
3.790000E+03	1.625269E-20	-4.983881E-19
3.800000E+03	1.710382E-20	-4.920967E-19
3.810000E+03	1.792576E-20	-4.852355E-19
3.820000E+03	1.865834E-20	-4.779369E-19
3.830000E+03	1.935818E-20	-4.701400E-19
3.840000E+03	2.002387E-20	-4.618957E-19
3.850000E+03	2.065433E-20	-4.532543E-19
3.860000E+03	2.118762E-20	-4.442639E-19
3.870000E+03	2.168371E-20	-4.349305E-19
3.880000E+03	2.214203E-20	-4.252977E-19
3.890000E+03	2.256206E-20	-4.154060E-19
3.900000E+03	2.288016E-20	-4.052308E-19
3.910000E+03	2.315930E-20	-3.948391E-19
3.920000E+03	2.339911E-20	-3.842622E-19
3.930000E+03	2.359966E-20	-3.735350E-19
3.940000E+03	2.369611E-20	-3.625764E-19
3.950000E+03	2.375350E-20	-3.514998E-19
3.960000E+03	2.377150E-20	-3.403265E-19
3.970000E+03	2.375054E-20	-3.290870E-19
3.980000E+03	2.362504E-20	-3.176521E-19
3.990000E+03	2.346124E-20	-3.061729E-19
4.000000E+03	2.325910E-20	-2.946684E-19
4.010000E+03	2.301892E-20	-2.831602E-19
4.020000E+03	2.267539E-20	-2.714840E-19
4.030000E+03	2.229520E-20	-2.598237E-19
4.040000E+03	2.187815E-20	-2.481918E-19
4.050000E+03	2.142454E-20	-2.366056E-19
4.060000E+03	2.087037E-20	-2.248742E-19
4.070000E+03	2.028136E-20	-2.132036E-19
4.080000E+03	1.965766E-20	-2.016070E-19
4.090000E+03	1.899935E-20	-1.900964E-19
4.100000E+03	1.824499E-20	-1.784623E-19
4.110000E+03	1.745830E-20	-1.669283E-19
4.120000E+03	1.663929E-20	-1.555042E-19
4.130000E+03	1.578802E-20	-1.442001E-19
4.140000E+03	1.484726E-20	-1.327963E-19
4.150000E+03	1.387721E-20	-1.215267E-19
4.160000E+03	1.287807E-20	-1.104018E-19
4.170000E+03	1.184969E-20	-9.942837E-20
4.180000E+03	1.074042E-20	-8.837976E-20
4.190000E+03	9.605833E-21	-7.749944E-20
4.200000E+03	8.445873E-21	-6.679447E-20
4.210000E+03	7.260608E-21	-5.627278E-20
4.220000E+03	6.005794E-21	-4.570522E-20
4.230000E+03	4.730451E-21	-3.533861E-20
4.240000E+03	3.434586E-21	-2.517969E-20
4.250000E+03	2.118340E-21	-1.523609E-20
4.260000E+03	7.470373E-22	-5.281591E-21
4.270000E+03	-6.388603E-22	4.438468E-21
4.280000E+03	-2.039152E-21	1.391671E-20
4.290000E+03	-3.453633E-21	2.314584E-20
4.300000E+03	-4.904840E-21	3.234343E-20
4.310000E+03	-6.363019E-21	4.126940E-20
4.320000E+03	-7.827869E-21	4.991659E-20
4.330000E+03	-9.298824E-21	5.827624E-20
4.340000E+03	-1.078332E-20	6.655129E-20
4.350000E+03	-1.226485E-20	7.451169E-20
4.360000E+03	-1.374279E-20	8.214935E-20
4.370000E+03	-1.521690E-20	8.945863E-20
4.380000E+03	-1.667640E-20	9.662287E-20
4.390000E+03	-1.812215E-20	1.034339E-19
4.400000E+03	-1.955365E-20	1.098852E-19
4.410000E+03	-2.097007E-20	1.159686E-19
4.420000E+03	-2.233953E-20	1.218456E-19
4.430000E+03	-2.368254E-20	1.273287E-19
4.440000E+03	-2.499852E-20	1.324121E-19
4.450000E+03	-2.628667E-20	1.370886E-19
4.460000E+03	-2.748853E-20	1.414835E-19
4.470000E+03	-2.864944E-20	1.454438E-19
4.480000E+03	-2.976893E-20	1.489651E-19
4.490000E+03	-3.084586E-20	1.520394E-19
4.500000E+03	-3.179153E-20	1.547532E-19
4.510000E+03	-3.268075E-20	1.569960E-19
4.520000E+03	-3.351205E-20	1.587592E-19
4.530000E+03	-3.428472E-20	1.600381E-19
4.540000E+03	-3.487780E-20	1.608858E-19
4.550000E+03	-3.539698E-20	1.612254E-19
4.560000E+03	-3.584161E-20	1.610533E-19
4.570000E+03	-3.621052E-20	1.603635E-19
4.580000E+03	-3.634822E-20	1.591792E-19
4.590000E+03	-3.639482E-20	1.574588E-19
4.600000E+03	-3.634961E-20	1.551994E-19
4.610000E+03	-3.621160E-20	1.523966E-19
4.620000E+03	-3.578955E-20	1.490507E-19
4.630000E+03	-3.525920E-20	1.451476E-19
4.640000E+03	-3.462057E-20	1.406876E-19
4.650000E+03	-3.387340E-20	1.356703E-19
4.660000E+03	-3.278864E-20	1.300752E-19
4.670000E+03	-3.158114E-20	1.239176E-19
4.680000E+03	-3.025069E-20	1.171973E-19
4.690000E+03	-2.879806E-20	1.099182E-19
4.700000E+03	-2.695811E-20	1.020541E-19
4.710000E+03	-2.498366E-20	9.363488E-20
4.720000E+03	-2.287617E-20	8.466674E-20
4.730000E+03	-2.063725E-20	7.515649E-20
4.740000E+03	-1.796530E-20	6.507629E-20
4.750000E+03	-1.515215E-20	5.446682E-20
4.760000E+03	-1.220049E-20	4.333812E-20
4.770000E+03	-9.112698E-21	3.169926E-20
4.780000E+03	-5.553619E-21	2.890435E-20
4.790000E+03	-1.852798E-21	2.597188E-20
4.800000E+03	1.985804E-21	2.290473E-20
4.810000E+03	5.957913E-21	1.970671E-20
4.820000E+03	1.041601E-20	3.337074E-20
4.830000E+03	1.500756E-20	4.744244E-20
4.840000E+03	1.972653E-20	6.190331E-20
4.850000E+03	2.456647E-20	7.673357E-20
4.860000E+03	2.987121E-20	9.145766E-20
4.870000E+03	3.528892E-20	1.064879E-19
4.880000E+03	4.081161E-20	1.218023E-19
4.890000E+03	4.642999E-20	1.373750E-19
4.900000E+03	5.246849E-20	1.526770E-19
4.910000E+03	5.858598E-20	1.681635E-19
4.920000E+03	6.477097E-20	1.838051E-19
4.930000E+03	7.101201E-20	1.995730E-19
4.940000E+03	7.760384E-20	2.148796E-19
4.950000E+03	8.422443E-20	2.302258E-19
4.960000E+03	9.085889E-20	2.455766E-19
4.970000E+03	9.749166E-20	2.608955E-19
4.980000E+03	1.043816E-19	2.755445E-19
4.990000E+03	1.112316E-19	2.900641E-19
5.000000E+03	1.180238E-19	3.044165E-19
5.010000E+03	1.247366E-19	3.185534E-19
5.020000E+03	1.315887E-19	3.317987E-19
5.030000E+03	1.383129E-19	3.447256E-19
5.040000E+03	1.448863E-19	3.572875E-19
5.050000E+03	1.512867E-19	3.694404E-19
5.060000E+03	1.576803E-19	3.804621E-19
5.070000E+03	1.638406E-19	3.909633E-19
5.080000E+03	1.697391E-19	4.008900E-19
5.090000E+03	1.753499E-19	4.101937E-19
5.100000E+03	1.807928E-19	4.181372E-19
5.110000E+03	1.858765E-19	4.253420E-19
5.120000E+03	1.905721E-19	4.317583E-19
5.130000E+03	1.948487E-19	4.373315E-19
5.140000E+03	1.987896E-19	4.413315E-19
5.150000E+03	2.022342E-19	4.443818E-19
5.160000E+03	2.051493E-19	4.464279E-19
5.170000E+03	2.074991E-19	4.474104E-19
5.180000E+03	2.093403E-19	4.466430E-19
5.190000E+03	2.105368E-19	4.447218E-19
5.200000E+03	2.110539E-19	4.415944E-19
5.210000E+03	2.108566E-19	4.372081E-19
5.220000E+03	2.099741E-19	4.309364E-19
5.230000E+03	2.082953E-19	4.233300E-19
5.240000E+03	2.057852E-19	4.143406E-19
5.250000E+03	2.024130E-19	4.039281E-19
5.260000E+03	1.981829E-19	3.915469E-19
5.270000E+03	1.930128E-19	3.776919E-19
5.280000E+03	1.868670E-19	3.623174E-19
5.290000E+03	1.797128E-19	3.453829E-19
5.300000E+03	1.715564E-19	3.264884E-19
5.310000E+03	1.623228E-19	3.060146E-19
5.320000E+03	1.519837E-19	2.839326E-19
5.330000E+03	1.405101E-19	2.602116E-19
5.337418E+03	8.672684E-20	1.595139E-19
5.337619E+03	8.673580E-20	1.595012E-19
5.339219E+03	8.515198E-20	1.563614E-19
5.339619E+03	8.492275E-20	1.558841E-19
5.339819E+03	8.491985E-20	1.558500E-19
5.340019E+03	8.490682E-20	1.557974E-19
5.340819E+03	8.420767E-20	1.544010E-19
5.342019E+03	8.304035E-20	1.520933E-19
5.342419E+03	8.277776E-20	1.515567E-19
5.342619E+03	8.275722E-20	1.514913E-19
5.342820E+03	8.273428E-20	1.514214E-19
5.343220E+03	8.245807E-20	1.508606E-19
5.343620E+03	8.219500E-20	1.503240E-19
5.344020E+03	8.191986E-20	1.497658E-19
5.344220E+03	8.186006E-20	1.496290E-19
5.345220E+03	8.086567E-20	1.476761E-19
5.345620E+03	8.056862E-20	1.470796E-19
5.346620E+03	7.958500E-20	1.451509E-19
5.346820E+03	7.951389E-20	1.449947E-19
5.347020E+03	7.943851E-20	1.448308E-19
5.347220E+03	7.935715E-20	1.446559E-19
5.347420E+03	7.927264E-20	1.444754E-19
5.347820E+03	7.895458E-20	1.438430E-19
5.348020E+03	7.885949E-20	1.436435E-19
5.348421E+03	7.852381E-20	1.429794E-19
5.348620E+03	7.842702E-20	1.427771E-19
5.349020E+03	7.808353E-20	1.420997E-19
5.349820E+03	7.726472E-20	1.405068E-19
5.350420E+03	7.668592E-20	1.393774E-19
5.350620E+03	7.657527E-20	1.391508E-19
5.352020E+03	7.502851E-20	1.361657E-19
5.352220E+03	7.489952E-20	1.359068E-19
5.352620E+03	7.453219E-20	1.351906E-19
5.353420E+03	7.368507E-20	1.335562E-19
5.353821E+03	7.330381E-20	1.328164E-19
5.354821E+03	7.221019E-20	1.307157E-19
5.355621E+03	7.134237E-20	1.290501E-19
5.356421E+03	7.048027E-20	1.273974E-19
5.356821E+03	7.009477E-20	1.266544E-19
5.357421E+03	6.945614E-20	1.254319E-19
5.357621E+03	6.928943E-20	1.251079E-19
5.358021E+03	6.889737E-20	1.243545E-19
5.358221E+03	6.872887E-20	1.240277E-19
5.358822E+03	6.807976E-20	1.227890E-19
5.359222E+03	6.767477E-20	1.220139E-19
5.359622E+03	6.726406E-20	1.212291E-19
5.359822E+03	6.707818E-20	1.208720E-19
5.360622E+03	6.617803E-20	1.191631E-19
5.361422E+03	6.527016E-20	1.174424E-19
5.361821E+03	6.484651E-20	1.166377E-19
5.362221E+03	6.441265E-20	1.158151E-19
5.362421E+03	6.421499E-20	1.154387E-19
5.362621E+03	6.401180E-20	1.150524E-19
5.362821E+03	6.380537E-20	1.146604E-19
5.363221E+03	6.335993E-20	1.138184E-19
5.364021E+03	6.243342E-20	1.120723E-19
5.364422E+03	6.198239E-20	1.112219E-19
5.364622E+03	6.177321E-20	1.108263E-19
5.364822E+03	6.155268E-20	1.104105E-19
5.365822E+03	6.036291E-20	1.081778E-19
5.367422E+03	5.844447E-20	1.045867E-19
5.368022E+03	5.773497E-20	1.032606E-19
5.368222E+03	5.750597E-20	1.028324E-19
5.369222E+03	5.630007E-20	1.005847E-19
5.369823E+03	5.558706E-20	9.925627E-20
5.370023E+03	5.535515E-20	9.882413E-20
5.372023E+03	5.291850E-20	9.430236E-20
5.372223E+03	5.267361E-20	9.384896E-20
5.372423E+03	5.243171E-20	9.340095E-20
5.372623E+03	5.219267E-20	9.295820E-20
5.373023E+03	5.169964E-20	9.204658E-20
5.373222E+03	5.145507E-20	9.159459E-20
5.373623E+03	5.095486E-20	9.067098E-20
5.373823E+03	5.070064E-20	9.020216E-20
5.374022E+03	5.045249E-20	8.974441E-20
5.375623E+03	4.847894E-20	8.610858E-20
5.376223E+03	4.772996E-20	8.473193E-20
5.376423E+03	4.747123E-20	8.425730E-20
5.377023E+03	4.671865E-20	8.287636E-20
5.377223E+03	4.645586E-20	8.239525E-20
5.377423E+03	4.619123E-20	8.191099E-20
5.377623E+03	4.592527E-20	8.142455E-20
5.377823E+03	4.565661E-20	8.093352E-20
5.378023E+03	4.538618E-20	8.043953E-20
5.378223E+03	4.511492E-20	7.994423E-20
5.378423E+03	4.484155E-20	7.944536E-20
5.378623E+03	4.456649E-20	7.894369E-20
5.379223E+03	4.379674E-20	7.753794E-20
5.379423E+03	4.351840E-20	7.703112E-20
5.380424E+03	4.225304E-20	7.472330E-20
5.380624E+03	4.197223E-20	7.421325E-20
5.381224E+03	4.119571E-20	7.280065E-20
5.381424E+03	4.091123E-20	7.228474E-20
5.382424E+03	3.964170E-20	6.997798E-20
5.382624E+03	3.935642E-20	6.946178E-20
5.383824E+03	3.783305E-20	6.670059E-20
5.384624E+03	3.680051E-20	6.483309E-20
5.384824E+03	3.651260E-20	6.431421E-20
5.385024E+03	3.622282E-20	6.379220E-20
5.385224E+03	3.593265E-20	6.326973E-20
5.385624E+03	3.539396E-20	6.229857E-20
5.385824E+03	3.510292E-20	6.177507E-20
5.386225E+03	3.456247E-20	6.080187E-20
5.386824E+03	3.377592E-20	5.938595E-20
5.387024E+03	3.348288E-20	5.886001E-20
5.387224E+03	3.319039E-20	5.833522E-20
5.389024E+03	3.091616E-20	5.424940E-20
5.389824E+03	2.987630E-20	5.238687E-20
5.390224E+03	2.933339E-20	5.141622E-20
5.390424E+03	2.904057E-20	5.089373E-20
5.391425E+03	2.775007E-20	4.858805E-20
5.391825E+03	2.720616E-20	4.761850E-20
5.393025E+03	2.566378E-20	4.487003E-20
5.393225E+03	2.537164E-20	4.435123E-20
5.393825E+03	2.457925E-20	4.294279E-20
5.394025E+03	2.428600E-20	4.242280E-20
5.394425E+03	2.374251E-20	4.145837E-20
5.395625E+03	2.219791E-20	3.871916E-20
5.395825E+03	2.190432E-20	3.820017E-20
5.396226E+03	2.136089E-20	3.723897E-20
5.396426E+03	2.106673E-20	3.671950E-20
5.396626E+03	2.077452E-20	3.620362E-20
5.397026E+03	2.023191E-20	3.524525E-20
5.397226E+03	1.994137E-20	3.473284E-20
5.397626E+03	1.940154E-20	3.378031E-20
5.398825E+03	1.786130E-20	3.106481E-20
5.399025E+03	1.757031E-20	3.055319E-20
5.400625E+03	1.552293E-20	2.695407E-20
5.401025E+03	1.498369E-20	2.600830E-20
5.401225E+03	1.469757E-20	2.550705E-20
5.401626E+03	1.415910E-20	2.456367E-20
5.401826E+03	1.387293E-20	2.406286E-20
5.402226E+03	1.333677E-20	2.312451E-20
5.402826E+03	1.255074E-20	2.174980E-20
5.404026E+03	1.100950E-20	1.905827E-20
5.404226E+03	1.072922E-20	1.856974E-20
5.404426E+03	1.044997E-20	1.808315E-20
5.404626E+03	1.017039E-20	1.759616E-20
5.405226E+03	9.389819E-21	1.623687E-20
5.405626E+03	8.861063E-21	1.531702E-20
5.406226E+03	8.082703E-21	1.396399E-20
5.406426E+03	7.808205E-21	1.348732E-20
5.406626E+03	7.534520E-21	1.301223E-20
5.407227E+03	6.759787E-21	1.166793E-20
5.407427E+03	6.489181E-21	1.119882E-20
5.407827E+03	5.969267E-21	1.029784E-20
5.408227E+03	5.450781E-21	9.399984E-21
5.409027E+03	4.433633E-21	7.640382E-21
5.409227E+03	4.169511E-21	7.183927E-21
5.410026E+03	3.157798E-21	5.436856E-21
5.410627E+03	2.395308E-21	4.121826E-21
5.410827E+03	2.137146E-21	3.676921E-21
5.411026E+03	1.881693E-21	3.236837E-21
5.412026E+03	6.271704E-22	1.077868E-21
5.412227E+03	3.739682E-22	6.425931E-22
5.412827E+03	-3.759932E-22	-6.457240E-22
5.413227E+03	-8.735286E-22	-1.499641E-21
5.413427E+03	-1.119436E-21	-1.921459E-21
5.413627E+03	-1.363908E-21	-2.340662E-21
5.413827E+03	-1.606774E-21	-2.756958E-21
5.414227E+03	-2.095543E-21	-3.594304E-21
5.414827E+03	-2.830011E-21	-4.851445E-21
5.416027E+03	-4.307713E-21	-7.376671E-21
5.416627E+03	-5.036533E-21	-8.620080E-21
5.416827E+03	-5.264421E-21	-9.008488E-21
5.417027E+03	-5.490747E-21	-9.394082E-21
5.417828E+03	-6.459765E-21	-1.104400E-20
5.418028E+03	-6.680592E-21	-1.141948E-20
5.418228E+03	-6.899177E-21	-1.179100E-20
5.418628E+03	-7.362166E-21	-1.257772E-20
5.418828E+03	-7.576151E-21	-1.294097E-20
5.420028E+03	-9.019321E-21	-1.538946E-20
5.420428E+03	-9.472617E-21	-1.615708E-20
5.420628E+03	-9.675888E-21	-1.650082E-20
5.421228E+03	-1.036851E-20	-1.767244E-20
5.421628E+03	-1.081286E-20	-1.842319E-20
5.422227E+03	-1.149671E-20	-1.957775E-20
5.423029E+03	-1.242703E-20	-2.114673E-20
5.423428E+03	-1.285777E-20	-2.187188E-20
5.423628E+03	-1.304007E-20	-2.217799E-20
5.424628E+03	-1.419906E-20	-2.412743E-20
5.424828E+03	-1.437376E-20	-2.441989E-20
5.425028E+03	-1.454529E-20	-2.470687E-20
5.425228E+03	-1.471471E-20	-2.499017E-20
5.425428E+03	-1.488161E-20	-2.526907E-20
5.425628E+03	-1.504736E-20	-2.554591E-20
5.425828E+03	-1.520901E-20	-2.581570E-20
5.426028E+03	-1.536850E-20	-2.608173E-20
5.427028E+03	-1.648309E-20	-2.794810E-20
5.427428E+03	-1.687282E-20	-2.859861E-20
5.428229E+03	-1.774001E-20	-3.004685E-20
5.428629E+03	-1.812154E-20	-3.068206E-20
5.428829E+03	-1.825844E-20	-3.090829E-20
5.429029E+03	-1.839277E-20	-3.113009E-20
5.429429E+03	-1.876075E-20	-3.174149E-20
5.429629E+03	-1.888836E-20	-3.195167E-20
5.429829E+03	-1.901357E-20	-3.215768E-20
5.430029E+03	-1.913499E-20	-3.235722E-20
5.430229E+03	-1.925507E-20	-3.255442E-20
5.430429E+03	-1.937055E-20	-3.274379E-20
5.431029E+03	-1.994602E-20	-3.369836E-20
5.431429E+03	-2.028594E-20	-3.426033E-20
5.431629E+03	-2.038987E-20	-3.442967E-20
5.432229E+03	-2.094999E-20	-3.535644E-20
5.432629E+03	-2.127506E-20	-3.589212E-20
5.432829E+03	-2.136527E-20	-3.603783E-20
5.433630E+03	-2.213757E-20	-3.731366E-20
5.434230E+03	-2.267367E-20	-3.819673E-20
5.434430E+03	-2.274954E-20	-3.831766E-20
5.434829E+03	-2.304807E-20	-3.880656E-20
5.435029E+03	-2.311562E-20	-3.891333E-20
5.435230E+03	-2.318151E-20	-3.901720E-20
5.435430E+03	-2.324426E-20	-3.911578E-20
5.435829E+03	-2.352334E-20	-3.957123E-20
5.436029E+03	-2.357753E-20	-3.965526E-20
5.437229E+03	-2.473033E-20	-4.154944E-20
5.437429E+03	-2.476956E-20	-4.160788E-20
5.437629E+03	-2.480624E-20	-4.166201E-20
5.437829E+03	-2.483921E-20	-4.170991E-20
5.438029E+03	-2.486846E-20	-4.175154E-20
5.438229E+03	-2.489637E-20	-4.179088E-20
5.439030E+03	-2.556399E-20	-4.288070E-20
5.439230E+03	-2.557988E-20	-4.289968E-20
5.439430E+03	-2.559279E-20	-4.291364E-20
5.440030E+03	-2.602431E-20	-4.361371E-20
5.440230E+03	-2.602527E-20	-4.360749E-20
5.440430E+03	-2.602581E-20	-4.360057E-20
5.440630E+03	-2.601881E-20	-4.358105E-20
5.440830E+03	-2.600684E-20	-4.355318E-20
5.441630E+03	-2.661140E-20	-4.453364E-20
5.441830E+03	-2.658910E-20	-4.448835E-20
5.442230E+03	-2.676662E-20	-4.476935E-20
5.442430E+03	-2.673548E-20	-4.470922E-20
5.443030E+03	-2.710514E-20	-4.530302E-20
5.443230E+03	-2.706394E-20	-4.522605E-20
