#wls	flux	fluxerr
1.600000E+03	9.397653E-17	0.000000E+00
1.640000E+03	9.731612E-17	0.000000E+00
1.680000E+03	1.006225E-16	0.000000E+00
1.720000E+03	1.038832E-16	0.000000E+00
1.760000E+03	1.070617E-16	0.000000E+00
1.800000E+03	1.101611E-16	0.000000E+00
1.840000E+03	1.131279E-16	0.000000E+00
1.880000E+03	1.159488E-16	0.000000E+00
1.920000E+03	1.185860E-16	0.000000E+00
1.960000E+03	1.210100E-16	0.000000E+00
2.000000E+03	1.231787E-16	0.000000E+00
2.040000E+03	1.250589E-16	0.000000E+00
2.080000E+03	1.266066E-16	0.000000E+00
2.120000E+03	1.277877E-16	0.000000E+00
2.160000E+03	1.285509E-16	0.000000E+00
2.200000E+03	1.288663E-16	0.000000E+00
2.240000E+03	1.286988E-16	0.000000E+00
2.280000E+03	1.280429E-16	0.000000E+00
2.320000E+03	1.269029E-16	0.000000E+00
2.360000E+03	1.252768E-16	0.000000E+00
2.400000E+03	1.231864E-16	0.000000E+00
2.440000E+03	1.206466E-16	0.000000E+00
2.480000E+03	1.176739E-16	0.000000E+00
2.520000E+03	1.142876E-16	0.000000E+00
2.560000E+03	1.105056E-16	0.000000E+00
2.600000E+03	1.063613E-16	0.000000E+00
2.640000E+03	1.018831E-16	0.000000E+00
2.680000E+03	9.710328E-17	0.000000E+00
2.720000E+03	9.206619E-17	0.000000E+00
2.760000E+03	8.681384E-17	0.000000E+00
2.800000E+03	8.139563E-17	0.000000E+00
2.840000E+03	7.586535E-17	0.000000E+00
2.880000E+03	7.028343E-17	0.000000E+00
2.920000E+03	6.473248E-17	0.000000E+00
2.960000E+03	5.930102E-17	0.000000E+00
3.000000E+03	5.407329E-17	0.000000E+00
3.010000E+03	5.280595E-17	0.000000E+00
3.020000E+03	5.155763E-17	0.000000E+00
3.030000E+03	5.032615E-17	0.000000E+00
3.040000E+03	4.911533E-17	0.000000E+00
3.050000E+03	4.792412E-17	0.000000E+00
3.060000E+03	4.675270E-17	0.000000E+00
3.070000E+03	4.560224E-17	0.000000E+00
3.080000E+03	4.447375E-17	0.000000E+00
3.090000E+03	4.336625E-17	0.000000E+00
3.100000E+03	4.228159E-17	0.000000E+00
3.110000E+03	4.121871E-17	0.000000E+00
3.120000E+03	4.017843E-17	0.000000E+00
3.130000E+03	3.916139E-17	0.000000E+00
3.140000E+03	3.816731E-17	0.000000E+00
3.150000E+03	3.719526E-17	0.000000E+00
3.160000E+03	3.624720E-17	0.000000E+00
3.170000E+03	3.532139E-17	0.000000E+00
3.180000E+03	3.441891E-17	0.000000E+00
3.190000E+03	3.353938E-17	0.000000E+00
3.200000E+03	3.268244E-17	0.000000E+00
3.210000E+03	3.184775E-17	0.000000E+00
3.220000E+03	3.103605E-17	0.000000E+00
3.230000E+03	3.024633E-17	0.000000E+00
3.240000E+03	2.947823E-17	0.000000E+00
3.250000E+03	2.873181E-17	0.000000E+00
3.260000E+03	2.800712E-17	0.000000E+00
3.270000E+03	2.730322E-17	0.000000E+00
3.280000E+03	2.662012E-17	0.000000E+00
3.290000E+03	2.595736E-17	0.000000E+00
3.300000E+03	2.531489E-17	0.000000E+00
3.310000E+03	2.469183E-17	0.000000E+00
3.320000E+03	2.408777E-17	0.000000E+00
3.330000E+03	2.350297E-17	0.000000E+00
3.340000E+03	2.293627E-17	0.000000E+00
3.350000E+03	2.238760E-17	0.000000E+00
3.360000E+03	2.185680E-17	0.000000E+00
3.370000E+03	2.134286E-17	0.000000E+00
3.380000E+03	2.084594E-17	0.000000E+00
3.390000E+03	2.036506E-17	0.000000E+00
3.400000E+03	1.989986E-17	0.000000E+00
3.410000E+03	1.945022E-17	0.000000E+00
3.420000E+03	1.901552E-17	0.000000E+00
3.430000E+03	1.859539E-17	0.000000E+00
3.440000E+03	1.818906E-17	0.000000E+00
3.450000E+03	1.779644E-17	0.000000E+00
3.460000E+03	1.741701E-17	0.000000E+00
3.470000E+03	1.705008E-17	0.000000E+00
3.480000E+03	1.669543E-17	0.000000E+00
3.490000E+03	1.635240E-17	0.000000E+00
3.500000E+03	1.602063E-17	0.000000E+00
3.510000E+03	1.569976E-17	0.000000E+00
3.520000E+03	1.538909E-17	0.000000E+00
3.530000E+03	1.508803E-17	0.000000E+00
3.540000E+03	1.479585E-17	0.000000E+00
3.550000E+03	1.451177E-17	0.000000E+00
3.560000E+03	1.423509E-17	0.000000E+00
3.570000E+03	1.396517E-17	0.000000E+00
3.580000E+03	1.370131E-17	0.000000E+00
3.590000E+03	1.344288E-17	0.000000E+00
3.600000E+03	1.318958E-17	0.000000E+00
3.610000E+03	1.294074E-17	0.000000E+00
3.620000E+03	1.269615E-17	0.000000E+00
3.630000E+03	1.245604E-17	0.000000E+00
3.640000E+03	1.222039E-17	0.000000E+00
3.650000E+03	1.198938E-17	0.000000E+00
3.660000E+03	1.176315E-17	0.000000E+00
3.670000E+03	1.154192E-17	0.000000E+00
3.680000E+03	1.132576E-17	0.000000E+00
3.690000E+03	1.111461E-17	0.000000E+00
3.700000E+03	1.090881E-17	0.000000E+00
3.710000E+03	1.070815E-17	0.000000E+00
3.720000E+03	1.051280E-17	0.000000E+00
3.730000E+03	1.032271E-17	0.000000E+00
3.740000E+03	1.013793E-17	0.000000E+00
3.750000E+03	9.958364E-18	0.000000E+00
3.760000E+03	9.783944E-18	0.000000E+00
3.770000E+03	9.614731E-18	0.000000E+00
3.780000E+03	9.450625E-18	0.000000E+00
3.790000E+03	9.291587E-18	0.000000E+00
3.800000E+03	9.137425E-18	0.000000E+00
3.810000E+03	8.988234E-18	0.000000E+00
3.820000E+03	8.843811E-18	0.000000E+00
3.830000E+03	8.704164E-18	0.000000E+00
3.840000E+03	8.569085E-18	0.000000E+00
3.850000E+03	8.438641E-18	0.000000E+00
3.860000E+03	8.312556E-18	0.000000E+00
3.870000E+03	8.190887E-18	0.000000E+00
3.880000E+03	8.073490E-18	0.000000E+00
3.890000E+03	7.960223E-18	0.000000E+00
3.900000E+03	7.851008E-18	0.000000E+00
3.910000E+03	7.745765E-18	0.000000E+00
3.920000E+03	7.644417E-18	0.000000E+00
3.930000E+03	7.546824E-18	0.000000E+00
3.940000E+03	7.452852E-18	0.000000E+00
3.950000E+03	7.362485E-18	0.000000E+00
3.960000E+03	7.275644E-18	0.000000E+00
3.970000E+03	7.192092E-18	0.000000E+00
3.980000E+03	7.111869E-18	0.000000E+00
3.990000E+03	7.034850E-18	0.000000E+00
4.000000E+03	6.960968E-18	0.000000E+00
4.010000E+03	6.890052E-18	0.000000E+00
4.020000E+03	6.822043E-18	0.000000E+00
4.030000E+03	6.756930E-18	0.000000E+00
4.040000E+03	6.694555E-18	0.000000E+00
4.050000E+03	6.634860E-18	0.000000E+00
4.060000E+03	6.577743E-18	0.000000E+00
4.070000E+03	6.523156E-18	0.000000E+00
4.080000E+03	6.470999E-18	0.000000E+00
4.090000E+03	6.421227E-18	0.000000E+00
4.100000E+03	6.373747E-18	0.000000E+00
4.110000E+03	6.328471E-18	0.000000E+00
4.120000E+03	6.285361E-18	0.000000E+00
4.130000E+03	6.244380E-18	0.000000E+00
4.140000E+03	6.205397E-18	0.000000E+00
4.150000E+03	6.168428E-18	0.000000E+00
4.160000E+03	6.133350E-18	0.000000E+00
4.170000E+03	6.100134E-18	0.000000E+00
4.180000E+03	6.068753E-18	0.000000E+00
4.190000E+03	6.039138E-18	0.000000E+00
4.200000E+03	6.011221E-18	0.000000E+00
4.210000E+03	5.984980E-18	0.000000E+00
4.220000E+03	5.960352E-18	0.000000E+00
4.230000E+03	5.937321E-18	0.000000E+00
4.240000E+03	5.915870E-18	0.000000E+00
4.250000E+03	5.895943E-18	0.000000E+00
4.260000E+03	5.877435E-18	0.000000E+00
4.270000E+03	5.860430E-18	0.000000E+00
4.280000E+03	5.844828E-18	0.000000E+00
4.290000E+03	5.830623E-18	0.000000E+00
4.300000E+03	5.817721E-18	0.000000E+00
4.310000E+03	5.806164E-18	0.000000E+00
4.320000E+03	5.795906E-18	0.000000E+00
4.330000E+03	5.786902E-18	0.000000E+00
4.340000E+03	5.779154E-18	0.000000E+00
4.350000E+03	5.772621E-18	0.000000E+00
4.360000E+03	5.767399E-18	0.000000E+00
4.370000E+03	5.763405E-18	0.000000E+00
4.380000E+03	5.760647E-18	0.000000E+00
4.390000E+03	5.759137E-18	0.000000E+00
4.400000E+03	5.758795E-18	0.000000E+00
4.410000E+03	5.759636E-18	0.000000E+00
4.420000E+03	5.761628E-18	0.000000E+00
4.430000E+03	5.764698E-18	0.000000E+00
4.440000E+03	5.768907E-18	0.000000E+00
4.450000E+03	5.774186E-18	0.000000E+00
4.460000E+03	5.780506E-18	0.000000E+00
4.470000E+03	5.787799E-18	0.000000E+00
4.480000E+03	5.796133E-18	0.000000E+00
4.490000E+03	5.805487E-18	0.000000E+00
4.500000E+03	5.815747E-18	0.000000E+00
4.510000E+03	5.826985E-18	0.000000E+00
4.520000E+03	5.839136E-18	0.000000E+00
4.530000E+03	5.852182E-18	0.000000E+00
4.540000E+03	5.866154E-18	0.000000E+00
4.550000E+03	5.881035E-18	0.000000E+00
4.560000E+03	5.896763E-18	0.000000E+00
4.570000E+03	5.913322E-18	0.000000E+00
4.580000E+03	5.930747E-18	0.000000E+00
4.590000E+03	5.949026E-18	0.000000E+00
4.600000E+03	5.968046E-18	0.000000E+00
4.610000E+03	5.987896E-18	0.000000E+00
4.620000E+03	6.008565E-18	0.000000E+00
4.630000E+03	6.029942E-18	0.000000E+00
4.640000E+03	6.052066E-18	0.000000E+00
4.650000E+03	6.074927E-18	0.000000E+00
4.660000E+03	6.098467E-18	0.000000E+00
4.670000E+03	6.122776E-18	0.000000E+00
4.680000E+03	6.147798E-18	0.000000E+00
4.690000E+03	6.173579E-18	0.000000E+00
4.700000E+03	6.200109E-18	0.000000E+00
4.710000E+03	6.227440E-18	0.000000E+00
4.720000E+03	6.255511E-18	0.000000E+00
4.730000E+03	6.284428E-18	0.000000E+00
4.740000E+03	6.314133E-18	0.000000E+00
4.750000E+03	6.344791E-18	0.000000E+00
4.760000E+03	6.376291E-18	0.000000E+00
4.770000E+03	6.408688E-18	0.000000E+00
4.780000E+03	6.442097E-18	0.000000E+00
4.790000E+03	6.476465E-18	0.000000E+00
4.800000E+03	6.511911E-18	0.000000E+00
4.810000E+03	6.548324E-18	0.000000E+00
4.820000E+03	6.585825E-18	0.000000E+00
4.830000E+03	6.624422E-18	0.000000E+00
4.840000E+03	6.664061E-18	0.000000E+00
4.850000E+03	6.704809E-18	0.000000E+00
4.860000E+03	6.746737E-18	0.000000E+00
4.870000E+03	6.789729E-18	0.000000E+00
4.880000E+03	6.833855E-18	0.000000E+00
4.890000E+03	6.879186E-18	0.000000E+00
4.900000E+03	6.925607E-18	0.000000E+00
4.910000E+03	6.973187E-18	0.000000E+00
4.920000E+03	7.021936E-18	0.000000E+00
4.930000E+03	7.071865E-18	0.000000E+00
4.940000E+03	7.122980E-18	0.000000E+00
4.950000E+03	7.175225E-18	0.000000E+00
4.960000E+03	7.228676E-18	0.000000E+00
4.970000E+03	7.283272E-18	0.000000E+00
4.980000E+03	7.339021E-18	0.000000E+00
4.990000E+03	7.395930E-18	0.000000E+00
5.000000E+03	7.454005E-18	0.000000E+00
5.010000E+03	7.513253E-18	0.000000E+00
5.020000E+03	7.573679E-18	0.000000E+00
5.030000E+03	7.635217E-18	0.000000E+00
5.040000E+03	7.697869E-18	0.000000E+00
5.050000E+03	7.761640E-18	0.000000E+00
5.060000E+03	7.826530E-18	0.000000E+00
5.070000E+03	7.892542E-18	0.000000E+00
5.080000E+03	7.959675E-18	0.000000E+00
5.090000E+03	8.027776E-18	0.000000E+00
5.100000E+03	8.096995E-18	0.000000E+00
5.110000E+03	8.167331E-18	0.000000E+00
5.120000E+03	8.238623E-18	0.000000E+00
5.130000E+03	8.310862E-18	0.000000E+00
5.140000E+03	8.384121E-18	0.000000E+00
5.150000E+03	8.458391E-18	0.000000E+00
5.160000E+03	8.533499E-18	0.000000E+00
5.170000E+03	8.609511E-18	0.000000E+00
5.180000E+03	8.686499E-18	0.000000E+00
5.190000E+03	8.764281E-18	0.000000E+00
5.200000E+03	8.842836E-18	0.000000E+00
5.210000E+03	8.922143E-18	0.000000E+00
5.220000E+03	9.002267E-18	0.000000E+00
5.230000E+03	9.083099E-18	0.000000E+00
5.240000E+03	9.164613E-18	0.000000E+00
5.250000E+03	9.246690E-18	0.000000E+00
5.260000E+03	9.329392E-18	0.000000E+00
5.270000E+03	9.412684E-18	0.000000E+00
5.280000E+03	9.496445E-18	0.000000E+00
5.290000E+03	9.580726E-18	0.000000E+00
5.300000E+03	9.665401E-18	0.000000E+00
5.310000E+03	9.750420E-18	0.000000E+00
5.320000E+03	9.835844E-18	0.000000E+00
5.330000E+03	9.921527E-18	0.000000E+00
5.340000E+03	1.000743E-17	0.000000E+00
5.350000E+03	1.009350E-17	0.000000E+00
5.360000E+03	1.017968E-17	0.000000E+00
5.370000E+03	1.026592E-17	0.000000E+00
5.380000E+03	1.035216E-17	0.000000E+00
5.390000E+03	1.043834E-17	0.000000E+00
5.400000E+03	1.052432E-17	0.000000E+00
5.410000E+03	1.061001E-17	0.000000E+00
5.420000E+03	1.069545E-17	0.000000E+00
5.430000E+03	1.078049E-17	0.000000E+00
5.440000E+03	1.086505E-17	0.000000E+00
5.450000E+03	1.094893E-17	0.000000E+00
5.460000E+03	1.103220E-17	0.000000E+00
5.470000E+03	1.111454E-17	0.000000E+00
5.480000E+03	1.119610E-17	0.000000E+00
5.490000E+03	1.127646E-17	0.000000E+00
5.500000E+03	1.135566E-17	0.000000E+00
5.510000E+03	1.143362E-17	0.000000E+00
5.520000E+03	1.151012E-17	0.000000E+00
5.530000E+03	1.158510E-17	0.000000E+00
5.540000E+03	1.165834E-17	0.000000E+00
5.550000E+03	1.172977E-17	0.000000E+00
5.560000E+03	1.179928E-17	0.000000E+00
5.570000E+03	1.186680E-17	0.000000E+00
5.580000E+03	1.193213E-17	0.000000E+00
5.590000E+03	1.199517E-17	0.000000E+00
5.600000E+03	1.205584E-17	0.000000E+00
5.610000E+03	1.211407E-17	0.000000E+00
5.620000E+03	1.216965E-17	0.000000E+00
5.630000E+03	1.222251E-17	0.000000E+00
5.640000E+03	1.227270E-17	0.000000E+00
5.650000E+03	1.232001E-17	0.000000E+00
5.660000E+03	1.236426E-17	0.000000E+00
5.670000E+03	1.240565E-17	0.000000E+00
5.680000E+03	1.244411E-17	0.000000E+00
5.690000E+03	1.247934E-17	0.000000E+00
5.700000E+03	1.251142E-17	0.000000E+00
5.710000E+03	1.254044E-17	0.000000E+00
5.720000E+03	1.256623E-17	0.000000E+00
5.730000E+03	1.258875E-17	0.000000E+00
5.740000E+03	1.260812E-17	0.000000E+00
5.750000E+03	1.262419E-17	0.000000E+00
5.760000E+03	1.263720E-17	0.000000E+00
5.770000E+03	1.264689E-17	0.000000E+00
5.780000E+03	1.265338E-17	0.000000E+00
5.790000E+03	1.265670E-17	0.000000E+00
5.800000E+03	1.265696E-17	0.000000E+00
5.810000E+03	1.265406E-17	0.000000E+00
5.820000E+03	1.264816E-17	0.000000E+00
5.830000E+03	1.263929E-17	0.000000E+00
5.840000E+03	1.262734E-17	0.000000E+00
5.850000E+03	1.261263E-17	0.000000E+00
5.860000E+03	1.259505E-17	0.000000E+00
5.870000E+03	1.257482E-17	0.000000E+00
5.880000E+03	1.255182E-17	0.000000E+00
5.890000E+03	1.252626E-17	0.000000E+00
5.900000E+03	1.249821E-17	0.000000E+00
5.910000E+03	1.246771E-17	0.000000E+00
5.920000E+03	1.243500E-17	0.000000E+00
5.930000E+03	1.239986E-17	0.000000E+00
5.940000E+03	1.236263E-17	0.000000E+00
5.950000E+03	1.232340E-17	0.000000E+00
5.960000E+03	1.228225E-17	0.000000E+00
5.970000E+03	1.223911E-17	0.000000E+00
5.980000E+03	1.219422E-17	0.000000E+00
5.990000E+03	1.214779E-17	0.000000E+00
6.000000E+03	1.209960E-17	0.000000E+00
6.010000E+03	1.205006E-17	0.000000E+00
6.020000E+03	1.199908E-17	0.000000E+00
6.030000E+03	1.194690E-17	0.000000E+00
6.040000E+03	1.189330E-17	0.000000E+00
6.050000E+03	1.183864E-17	0.000000E+00
6.060000E+03	1.178302E-17	0.000000E+00
6.070000E+03	1.172634E-17	0.000000E+00
6.080000E+03	1.166869E-17	0.000000E+00
6.090000E+03	1.161028E-17	0.000000E+00
6.100000E+03	1.155102E-17	0.000000E+00
6.110000E+03	1.149112E-17	0.000000E+00
6.120000E+03	1.143050E-17	0.000000E+00
6.130000E+03	1.136935E-17	0.000000E+00
6.140000E+03	1.130786E-17	0.000000E+00
6.150000E+03	1.124595E-17	0.000000E+00
6.160000E+03	1.118377E-17	0.000000E+00
6.170000E+03	1.112167E-17	0.000000E+00
6.180000E+03	1.105967E-17	0.000000E+00
6.190000E+03	1.099795E-17	0.000000E+00
6.200000E+03	1.093637E-17	0.000000E+00
6.210000E+03	1.087497E-17	0.000000E+00
6.220000E+03	1.081361E-17	0.000000E+00
6.230000E+03	1.075232E-17	0.000000E+00
6.240000E+03	1.069126E-17	0.000000E+00
6.250000E+03	1.063031E-17	0.000000E+00
6.260000E+03	1.056949E-17	0.000000E+00
6.270000E+03	1.050896E-17	0.000000E+00
6.280000E+03	1.044889E-17	0.000000E+00
6.290000E+03	1.038930E-17	0.000000E+00
6.300000E+03	1.033021E-17	0.000000E+00
6.310000E+03	1.027209E-17	0.000000E+00
6.320000E+03	1.021465E-17	0.000000E+00
6.330000E+03	1.015853E-17	0.000000E+00
6.340000E+03	1.010356E-17	0.000000E+00
6.350000E+03	1.004995E-17	0.000000E+00
6.360000E+03	9.998139E-18	0.000000E+00
6.370000E+03	9.948146E-18	0.000000E+00
6.380000E+03	9.900157E-18	0.000000E+00
6.390000E+03	9.854325E-18	0.000000E+00
6.400000E+03	9.810977E-18	0.000000E+00
6.410000E+03	9.769990E-18	0.000000E+00
6.420000E+03	9.731082E-18	0.000000E+00
6.430000E+03	9.694139E-18	0.000000E+00
6.440000E+03	9.659045E-18	0.000000E+00
6.450000E+03	9.625673E-18	0.000000E+00
6.460000E+03	9.593755E-18	0.000000E+00
6.470000E+03	9.563174E-18	0.000000E+00
6.480000E+03	9.533813E-18	0.000000E+00
6.490000E+03	9.505703E-18	0.000000E+00
6.500000E+03	9.478727E-18	0.000000E+00
6.510000E+03	9.452771E-18	0.000000E+00
6.520000E+03	9.428014E-18	0.000000E+00
6.530000E+03	9.404190E-18	0.000000E+00
6.540000E+03	9.381480E-18	0.000000E+00
6.550000E+03	9.359765E-18	0.000000E+00
6.560000E+03	9.339221E-18	0.000000E+00
6.570000E+03	9.319725E-18	0.000000E+00
6.580000E+03	9.301300E-18	0.000000E+00
6.590000E+03	9.283966E-18	0.000000E+00
6.600000E+03	9.267891E-18	0.000000E+00
6.610000E+03	9.252788E-18	0.000000E+00
6.620000E+03	9.238969E-18	0.000000E+00
6.630000E+03	9.226289E-18	0.000000E+00
6.640000E+03	9.214755E-18	0.000000E+00
6.650000E+03	9.204520E-18	0.000000E+00
6.660000E+03	9.195279E-18	0.000000E+00
6.670000E+03	9.187337E-18	0.000000E+00
6.680000E+03	9.180538E-18	0.000000E+00
6.690000E+03	9.174879E-18	0.000000E+00
6.700000E+03	9.170514E-18	0.000000E+00
6.710000E+03	9.167287E-18	0.000000E+00
6.720000E+03	9.165193E-18	0.000000E+00
6.730000E+03	9.164231E-18	0.000000E+00
6.740000E+03	9.164558E-18	0.000000E+00
6.750000E+03	9.166011E-18	0.000000E+00
6.760000E+03	9.168587E-18	0.000000E+00
6.770000E+03	9.172439E-18	0.000000E+00
6.780000E+03	9.177399E-18	0.000000E+00
6.790000E+03	9.183458E-18	0.000000E+00
6.800000E+03	9.190764E-18	0.000000E+00
6.810000E+03	9.198975E-18	0.000000E+00
6.820000E+03	9.208402E-18	0.000000E+00
6.830000E+03	9.219025E-18	0.000000E+00
6.840000E+03	9.230488E-18	0.000000E+00
6.850000E+03	9.243096E-18	0.000000E+00
6.860000E+03	9.256652E-18	0.000000E+00
6.870000E+03	9.271123E-18	0.000000E+00
6.880000E+03	9.286473E-18	0.000000E+00
6.890000E+03	9.302664E-18	0.000000E+00
6.900000E+03	9.319831E-18	0.000000E+00
6.910000E+03	9.337591E-18	0.000000E+00
6.920000E+03	9.356249E-18	0.000000E+00
6.930000E+03	9.375421E-18	0.000000E+00
6.940000E+03	9.395417E-18	0.000000E+00
6.950000E+03	9.415848E-18	0.000000E+00
6.960000E+03	9.437035E-18	0.000000E+00
6.970000E+03	9.458584E-18	0.000000E+00
6.980000E+03	9.480646E-18	0.000000E+00
6.990000E+03	9.503190E-18	0.000000E+00
7.000000E+03	9.526007E-18	0.000000E+00
7.010000E+03	9.549443E-18	0.000000E+00
7.020000E+03	9.573110E-18	0.000000E+00
7.030000E+03	9.596990E-18	0.000000E+00
7.040000E+03	9.621259E-18	0.000000E+00
7.050000E+03	9.645909E-18	0.000000E+00
7.060000E+03	9.670756E-18	0.000000E+00
7.070000E+03	9.695776E-18	0.000000E+00
7.080000E+03	9.721172E-18	0.000000E+00
7.090000E+03	9.746770E-18	0.000000E+00
7.100000E+03	9.772542E-18	0.000000E+00
7.110000E+03	9.798515E-18	0.000000E+00
7.120000E+03	9.824894E-18	0.000000E+00
7.130000E+03	9.851272E-18	0.000000E+00
7.140000E+03	9.878074E-18	0.000000E+00
7.150000E+03	9.904885E-18	0.000000E+00
7.160000E+03	9.931928E-18	0.000000E+00
7.170000E+03	9.959202E-18	0.000000E+00
7.180000E+03	9.986717E-18	0.000000E+00
7.190000E+03	1.001427E-17	0.000000E+00
7.200000E+03	1.004206E-17	0.000000E+00
7.210000E+03	1.007010E-17	0.000000E+00
7.220000E+03	1.009818E-17	0.000000E+00
7.230000E+03	1.012628E-17	0.000000E+00
7.240000E+03	1.015463E-17	0.000000E+00
7.250000E+03	1.018300E-17	0.000000E+00
7.260000E+03	1.021139E-17	0.000000E+00
7.270000E+03	1.024001E-17	0.000000E+00
7.280000E+03	1.026864E-17	0.000000E+00
7.290000E+03	1.029729E-17	0.000000E+00
7.300000E+03	1.032640E-17	0.000000E+00
7.310000E+03	1.035529E-17	0.000000E+00
7.320000E+03	1.038464E-17	0.000000E+00
7.330000E+03	1.041400E-17	0.000000E+00
7.340000E+03	1.044382E-17	0.000000E+00
7.350000E+03	1.047389E-17	0.000000E+00
7.360000E+03	1.050442E-17	0.000000E+00
7.370000E+03	1.053566E-17	0.000000E+00
7.380000E+03	1.056737E-17	0.000000E+00
7.390000E+03	1.060025E-17	0.000000E+00
7.400000E+03	1.063411E-17	0.000000E+00
7.410000E+03	1.066889E-17	0.000000E+00
7.420000E+03	1.070563E-17	0.000000E+00
7.430000E+03	1.074358E-17	0.000000E+00
7.440000E+03	1.078349E-17	0.000000E+00
7.450000E+03	1.082537E-17	0.000000E+00
7.460000E+03	1.086873E-17	0.000000E+00
7.470000E+03	1.091329E-17	0.000000E+00
7.480000E+03	1.095904E-17	0.000000E+00
7.490000E+03	1.100570E-17	0.000000E+00
7.500000E+03	1.105326E-17	0.000000E+00
7.510000E+03	1.110138E-17	0.000000E+00
7.520000E+03	1.114979E-17	0.000000E+00
7.530000E+03	1.119841E-17	0.000000E+00
7.540000E+03	1.124720E-17	0.000000E+00
7.550000E+03	1.129581E-17	0.000000E+00
7.560000E+03	1.134448E-17	0.000000E+00
7.570000E+03	1.139255E-17	0.000000E+00
7.580000E+03	1.144053E-17	0.000000E+00
7.590000E+03	1.148808E-17	0.000000E+00
7.600000E+03	1.153482E-17	0.000000E+00
7.610000E+03	1.158098E-17	0.000000E+00
7.620000E+03	1.162619E-17	0.000000E+00
7.630000E+03	1.167068E-17	0.000000E+00
7.640000E+03	1.171439E-17	0.000000E+00
7.650000E+03	1.175696E-17	0.000000E+00
7.660000E+03	1.179861E-17	0.000000E+00
7.670000E+03	1.183900E-17	0.000000E+00
7.680000E+03	1.187838E-17	0.000000E+00
7.690000E+03	1.191668E-17	0.000000E+00
7.700000E+03	1.195354E-17	0.000000E+00
7.710000E+03	1.198923E-17	0.000000E+00
7.720000E+03	1.202369E-17	0.000000E+00
7.730000E+03	1.205686E-17	0.000000E+00
7.740000E+03	1.208870E-17	0.000000E+00
7.750000E+03	1.211915E-17	0.000000E+00
7.760000E+03	1.214815E-17	0.000000E+00
