#wls	flux	fluxerr
1.600000E+03	1.041228E-16	0.000000E+00
1.640000E+03	1.078492E-16	0.000000E+00
1.680000E+03	1.115289E-16	0.000000E+00
1.720000E+03	1.151466E-16	0.000000E+00
1.760000E+03	1.186593E-16	0.000000E+00
1.800000E+03	1.220688E-16	0.000000E+00
1.840000E+03	1.253138E-16	0.000000E+00
1.880000E+03	1.283776E-16	0.000000E+00
1.920000E+03	1.312166E-16	0.000000E+00
1.960000E+03	1.337961E-16	0.000000E+00
2.000000E+03	1.360681E-16	0.000000E+00
2.040000E+03	1.379948E-16	0.000000E+00
2.080000E+03	1.395263E-16	0.000000E+00
2.120000E+03	1.406248E-16	0.000000E+00
2.160000E+03	1.412332E-16	0.000000E+00
2.200000E+03	1.413198E-16	0.000000E+00
2.240000E+03	1.408468E-16	0.000000E+00
2.280000E+03	1.398105E-16	0.000000E+00
2.320000E+03	1.382174E-16	0.000000E+00
2.360000E+03	1.360685E-16	0.000000E+00
2.400000E+03	1.333911E-16	0.000000E+00
2.440000E+03	1.302050E-16	0.000000E+00
2.480000E+03	1.265325E-16	0.000000E+00
2.520000E+03	1.223991E-16	0.000000E+00
2.560000E+03	1.178293E-16	0.000000E+00
2.600000E+03	1.128644E-16	0.000000E+00
2.640000E+03	1.075407E-16	0.000000E+00
2.680000E+03	1.018990E-16	0.000000E+00
2.720000E+03	9.599312E-17	0.000000E+00
2.760000E+03	8.987467E-17	0.000000E+00
2.800000E+03	8.360355E-17	0.000000E+00
2.840000E+03	7.724457E-17	0.000000E+00
2.880000E+03	7.086977E-17	0.000000E+00
2.920000E+03	6.457355E-17	0.000000E+00
2.960000E+03	5.845521E-17	0.000000E+00
3.000000E+03	5.260788E-17	0.000000E+00
3.010000E+03	5.119699E-17	0.000000E+00
3.020000E+03	4.980981E-17	0.000000E+00
3.030000E+03	4.844431E-17	0.000000E+00
3.040000E+03	4.710428E-17	0.000000E+00
3.050000E+03	4.578879E-17	0.000000E+00
3.060000E+03	4.449807E-17	0.000000E+00
3.070000E+03	4.323331E-17	0.000000E+00
3.080000E+03	4.199552E-17	0.000000E+00
3.090000E+03	4.078380E-17	0.000000E+00
3.100000E+03	3.959992E-17	0.000000E+00
3.110000E+03	3.844292E-17	0.000000E+00
3.120000E+03	3.731354E-17	0.000000E+00
3.130000E+03	3.621236E-17	0.000000E+00
3.140000E+03	3.513911E-17	0.000000E+00
3.150000E+03	3.409289E-17	0.000000E+00
3.160000E+03	3.307544E-17	0.000000E+00
3.170000E+03	3.208510E-17	0.000000E+00
3.180000E+03	3.112278E-17	0.000000E+00
3.190000E+03	3.018803E-17	0.000000E+00
3.200000E+03	2.928043E-17	0.000000E+00
3.210000E+03	2.839955E-17	0.000000E+00
3.220000E+03	2.754592E-17	0.000000E+00
3.230000E+03	2.671850E-17	0.000000E+00
3.240000E+03	2.591681E-17	0.000000E+00
3.250000E+03	2.514076E-17	0.000000E+00
3.260000E+03	2.439020E-17	0.000000E+00
3.270000E+03	2.366415E-17	0.000000E+00
3.280000E+03	2.296242E-17	0.000000E+00
3.290000E+03	2.228443E-17	0.000000E+00
3.300000E+03	2.162991E-17	0.000000E+00
3.310000E+03	2.099793E-17	0.000000E+00
3.320000E+03	2.038792E-17	0.000000E+00
3.330000E+03	1.979990E-17	0.000000E+00
3.340000E+03	1.923268E-17	0.000000E+00
3.350000E+03	1.868598E-17	0.000000E+00
3.360000E+03	1.815945E-17	0.000000E+00
3.370000E+03	1.765204E-17	0.000000E+00
3.380000E+03	1.716367E-17	0.000000E+00
3.390000E+03	1.669333E-17	0.000000E+00
3.400000E+03	1.624049E-17	0.000000E+00
3.410000E+03	1.580488E-17	0.000000E+00
3.420000E+03	1.538575E-17	0.000000E+00
3.430000E+03	1.498266E-17	0.000000E+00
3.440000E+03	1.459474E-17	0.000000E+00
3.450000E+03	1.422176E-17	0.000000E+00
3.460000E+03	1.386310E-17	0.000000E+00
3.470000E+03	1.351804E-17	0.000000E+00
3.480000E+03	1.318622E-17	0.000000E+00
3.490000E+03	1.286696E-17	0.000000E+00
3.500000E+03	1.255982E-17	0.000000E+00
3.510000E+03	1.226434E-17	0.000000E+00
3.520000E+03	1.197985E-17	0.000000E+00
3.530000E+03	1.170570E-17	0.000000E+00
3.540000E+03	1.144124E-17	0.000000E+00
3.550000E+03	1.118570E-17	0.000000E+00
3.560000E+03	1.093842E-17	0.000000E+00
3.570000E+03	1.069880E-17	0.000000E+00
3.580000E+03	1.046620E-17	0.000000E+00
3.590000E+03	1.024003E-17	0.000000E+00
3.600000E+03	1.001996E-17	0.000000E+00
3.610000E+03	9.805392E-18	0.000000E+00
3.620000E+03	9.596062E-18	0.000000E+00
3.630000E+03	9.392065E-18	0.000000E+00
3.640000E+03	9.193297E-18	0.000000E+00
3.650000E+03	8.999802E-18	0.000000E+00
3.660000E+03	8.811604E-18	0.000000E+00
3.670000E+03	8.628778E-18	0.000000E+00
3.680000E+03	8.451293E-18	0.000000E+00
3.690000E+03	8.279033E-18	0.000000E+00
3.700000E+03	8.112151E-18	0.000000E+00
3.710000E+03	7.950427E-18	0.000000E+00
3.720000E+03	7.793908E-18	0.000000E+00
3.730000E+03	7.642490E-18	0.000000E+00
3.740000E+03	7.496124E-18	0.000000E+00
3.750000E+03	7.354692E-18	0.000000E+00
3.760000E+03	7.218066E-18	0.000000E+00
3.770000E+03	7.086236E-18	0.000000E+00
3.780000E+03	6.959064E-18	0.000000E+00
3.790000E+03	6.836466E-18	0.000000E+00
3.800000E+03	6.718248E-18	0.000000E+00
3.810000E+03	6.604429E-18	0.000000E+00
3.820000E+03	6.494812E-18	0.000000E+00
3.830000E+03	6.389356E-18	0.000000E+00
3.840000E+03	6.287867E-18	0.000000E+00
3.850000E+03	6.190351E-18	0.000000E+00
3.860000E+03	6.096570E-18	0.000000E+00
3.870000E+03	6.006527E-18	0.000000E+00
3.880000E+03	5.920082E-18	0.000000E+00
3.890000E+03	5.837102E-18	0.000000E+00
3.900000E+03	5.757497E-18	0.000000E+00
3.910000E+03	5.681181E-18	0.000000E+00
3.920000E+03	5.608072E-18	0.000000E+00
3.930000E+03	5.538042E-18	0.000000E+00
3.940000E+03	5.470970E-18	0.000000E+00
3.950000E+03	5.406821E-18	0.000000E+00
3.960000E+03	5.345518E-18	0.000000E+00
3.970000E+03	5.286868E-18	0.000000E+00
3.980000E+03	5.230884E-18	0.000000E+00
3.990000E+03	5.177456E-18	0.000000E+00
4.000000E+03	5.126520E-18	0.000000E+00
4.010000E+03	5.077936E-18	0.000000E+00
4.020000E+03	5.031646E-18	0.000000E+00
4.030000E+03	4.987633E-18	0.000000E+00
4.040000E+03	4.945764E-18	0.000000E+00
4.050000E+03	4.905989E-18	0.000000E+00
4.060000E+03	4.868222E-18	0.000000E+00
4.070000E+03	4.832417E-18	0.000000E+00
4.080000E+03	4.798492E-18	0.000000E+00
4.090000E+03	4.766406E-18	0.000000E+00
4.100000E+03	4.736083E-18	0.000000E+00
4.110000E+03	4.707449E-18	0.000000E+00
4.120000E+03	4.680469E-18	0.000000E+00
4.130000E+03	4.655111E-18	0.000000E+00
4.140000E+03	4.631272E-18	0.000000E+00
4.150000E+03	4.608959E-18	0.000000E+00
4.160000E+03	4.588072E-18	0.000000E+00
4.170000E+03	4.568588E-18	0.000000E+00
4.180000E+03	4.550483E-18	0.000000E+00
4.190000E+03	4.533700E-18	0.000000E+00
4.200000E+03	4.518184E-18	0.000000E+00
4.210000E+03	4.503916E-18	0.000000E+00
4.220000E+03	4.490845E-18	0.000000E+00
4.230000E+03	4.478956E-18	0.000000E+00
4.240000E+03	4.468235E-18	0.000000E+00
4.250000E+03	4.458636E-18	0.000000E+00
4.260000E+03	4.450078E-18	0.000000E+00
4.270000E+03	4.442624E-18	0.000000E+00
4.280000E+03	4.436193E-18	0.000000E+00
4.290000E+03	4.430782E-18	0.000000E+00
4.300000E+03	4.426316E-18	0.000000E+00
4.310000E+03	4.422825E-18	0.000000E+00
4.320000E+03	4.420274E-18	0.000000E+00
4.330000E+03	4.418628E-18	0.000000E+00
4.340000E+03	4.417886E-18	0.000000E+00
4.350000E+03	4.418016E-18	0.000000E+00
4.360000E+03	4.419092E-18	0.000000E+00
4.370000E+03	4.421048E-18	0.000000E+00
4.380000E+03	4.423891E-18	0.000000E+00
4.390000E+03	4.427628E-18	0.000000E+00
4.400000E+03	4.432200E-18	0.000000E+00
4.410000E+03	4.437615E-18	0.000000E+00
4.420000E+03	4.443851E-18	0.000000E+00
4.430000E+03	4.450849E-18	0.000000E+00
4.440000E+03	4.458659E-18	0.000000E+00
4.450000E+03	4.467227E-18	0.000000E+00
4.460000E+03	4.476530E-18	0.000000E+00
4.470000E+03	4.486515E-18	0.000000E+00
4.480000E+03	4.497236E-18	0.000000E+00
4.490000E+03	4.508679E-18	0.000000E+00
4.500000E+03	4.520753E-18	0.000000E+00
4.510000E+03	4.533517E-18	0.000000E+00
4.520000E+03	4.546921E-18	0.000000E+00
4.530000E+03	4.560950E-18	0.000000E+00
4.540000E+03	4.575632E-18	0.000000E+00
4.550000E+03	4.590954E-18	0.000000E+00
4.560000E+03	4.606869E-18	0.000000E+00
4.570000E+03	4.623366E-18	0.000000E+00
4.580000E+03	4.640476E-18	0.000000E+00
4.590000E+03	4.658188E-18	0.000000E+00
4.600000E+03	4.676420E-18	0.000000E+00
4.610000E+03	4.695239E-18	0.000000E+00
4.620000E+03	4.714643E-18	0.000000E+00
4.630000E+03	4.734545E-18	0.000000E+00
4.640000E+03	4.754978E-18	0.000000E+00
4.650000E+03	4.775940E-18	0.000000E+00
4.660000E+03	4.797382E-18	0.000000E+00
4.670000E+03	4.819384E-18	0.000000E+00
4.680000E+03	4.841901E-18	0.000000E+00
4.690000E+03	4.864972E-18	0.000000E+00
4.700000E+03	4.888596E-18	0.000000E+00
4.710000E+03	4.912814E-18	0.000000E+00
4.720000E+03	4.937583E-18	0.000000E+00
4.730000E+03	4.962989E-18	0.000000E+00
4.740000E+03	4.988992E-18	0.000000E+00
4.750000E+03	5.015723E-18	0.000000E+00
4.760000E+03	5.043100E-18	0.000000E+00
4.770000E+03	5.071169E-18	0.000000E+00
4.780000E+03	5.100027E-18	0.000000E+00
4.790000E+03	5.129635E-18	0.000000E+00
4.800000E+03	5.160090E-18	0.000000E+00
4.810000E+03	5.191311E-18	0.000000E+00
4.820000E+03	5.223397E-18	0.000000E+00
4.830000E+03	5.256357E-18	0.000000E+00
4.840000E+03	5.290155E-18	0.000000E+00
4.850000E+03	5.324849E-18	0.000000E+00
4.860000E+03	5.360496E-18	0.000000E+00
4.870000E+03	5.397011E-18	0.000000E+00
4.880000E+03	5.434455E-18	0.000000E+00
4.890000E+03	5.472887E-18	0.000000E+00
4.900000E+03	5.512220E-18	0.000000E+00
4.910000E+03	5.552516E-18	0.000000E+00
4.920000E+03	5.593785E-18	0.000000E+00
4.930000E+03	5.636041E-18	0.000000E+00
4.940000E+03	5.679294E-18	0.000000E+00
4.950000E+03	5.723504E-18	0.000000E+00
4.960000E+03	5.768734E-18	0.000000E+00
4.970000E+03	5.814942E-18	0.000000E+00
4.980000E+03	5.862139E-18	0.000000E+00
4.990000E+03	5.910333E-18	0.000000E+00
5.000000E+03	5.959535E-18	0.000000E+00
5.010000E+03	6.009754E-18	0.000000E+00
5.020000E+03	6.060999E-18	0.000000E+00
5.030000E+03	6.113221E-18	0.000000E+00
5.040000E+03	6.166429E-18	0.000000E+00
5.050000E+03	6.220626E-18	0.000000E+00
5.060000E+03	6.275819E-18	0.000000E+00
5.070000E+03	6.332014E-18	0.000000E+00
5.080000E+03	6.389215E-18	0.000000E+00
5.090000E+03	6.447302E-18	0.000000E+00
5.100000E+03	6.506402E-18	0.000000E+00
5.110000E+03	6.566515E-18	0.000000E+00
5.120000E+03	6.627516E-18	0.000000E+00
5.130000E+03	6.689403E-18	0.000000E+00
5.140000E+03	6.752237E-18	0.000000E+00
5.150000E+03	6.816015E-18	0.000000E+00
5.160000E+03	6.880600E-18	0.000000E+00
5.170000E+03	6.946051E-18	0.000000E+00
5.180000E+03	7.012426E-18	0.000000E+00
5.190000E+03	7.079583E-18	0.000000E+00
5.200000E+03	7.147507E-18	0.000000E+00
5.210000E+03	7.216184E-18	0.000000E+00
5.220000E+03	7.285669E-18	0.000000E+00
5.230000E+03	7.355875E-18	0.000000E+00
5.240000E+03	7.426782E-18	0.000000E+00
5.250000E+03	7.498298E-18	0.000000E+00
5.260000E+03	7.570470E-18	0.000000E+00
5.270000E+03	7.643273E-18	0.000000E+00
5.280000E+03	7.716605E-18	0.000000E+00
5.290000E+03	7.790513E-18	0.000000E+00
5.300000E+03	7.864885E-18	0.000000E+00
5.310000E+03	7.939689E-18	0.000000E+00
5.320000E+03	8.014963E-18	0.000000E+00
5.330000E+03	8.090590E-18	0.000000E+00
5.340000E+03	8.166528E-18	0.000000E+00
5.350000E+03	8.242730E-18	0.000000E+00
5.360000E+03	8.319149E-18	0.000000E+00
5.370000E+03	8.395734E-18	0.000000E+00
5.380000E+03	8.472432E-18	0.000000E+00
5.390000E+03	8.549185E-18	0.000000E+00
5.400000E+03	8.625852E-18	0.000000E+00
5.410000E+03	8.702367E-18	0.000000E+00
5.420000E+03	8.778751E-18	0.000000E+00
5.430000E+03	8.854848E-18	0.000000E+00
5.440000E+03	8.930589E-18	0.000000E+00
5.450000E+03	9.005808E-18	0.000000E+00
5.460000E+03	9.080518E-18	0.000000E+00
5.470000E+03	9.154455E-18	0.000000E+00
5.480000E+03	9.227720E-18	0.000000E+00
5.490000E+03	9.299950E-18	0.000000E+00
5.500000E+03	9.371147E-18	0.000000E+00
5.510000E+03	9.441221E-18	0.000000E+00
5.520000E+03	9.509979E-18	0.000000E+00
5.530000E+03	9.577333E-18	0.000000E+00
5.540000E+03	9.643090E-18	0.000000E+00
5.550000E+03	9.707146E-18	0.000000E+00
5.560000E+03	9.769406E-18	0.000000E+00
5.570000E+03	9.829775E-18	0.000000E+00
5.580000E+03	9.888044E-18	0.000000E+00
5.590000E+03	9.944128E-18	0.000000E+00
5.600000E+03	9.997931E-18	0.000000E+00
5.610000E+03	1.004935E-17	0.000000E+00
5.620000E+03	1.009820E-17	0.000000E+00
5.630000E+03	1.014439E-17	0.000000E+00
5.640000E+03	1.018793E-17	0.000000E+00
5.650000E+03	1.022865E-17	0.000000E+00
5.660000E+03	1.026636E-17	0.000000E+00
5.670000E+03	1.030120E-17	0.000000E+00
5.680000E+03	1.033310E-17	0.000000E+00
5.690000E+03	1.036179E-17	0.000000E+00
5.700000E+03	1.038732E-17	0.000000E+00
5.710000E+03	1.040977E-17	0.000000E+00
5.720000E+03	1.042895E-17	0.000000E+00
5.730000E+03	1.044486E-17	0.000000E+00
5.740000E+03	1.045757E-17	0.000000E+00
5.750000E+03	1.046696E-17	0.000000E+00
5.760000E+03	1.047323E-17	0.000000E+00
5.770000E+03	1.047615E-17	0.000000E+00
5.780000E+03	1.047584E-17	0.000000E+00
5.790000E+03	1.047231E-17	0.000000E+00
5.800000E+03	1.046570E-17	0.000000E+00
5.810000E+03	1.045591E-17	0.000000E+00
5.820000E+03	1.044309E-17	0.000000E+00
5.830000E+03	1.042729E-17	0.000000E+00
5.840000E+03	1.040843E-17	0.000000E+00
5.850000E+03	1.038678E-17	0.000000E+00
5.860000E+03	1.036231E-17	0.000000E+00
5.870000E+03	1.033519E-17	0.000000E+00
5.880000E+03	1.030536E-17	0.000000E+00
5.890000E+03	1.027304E-17	0.000000E+00
5.900000E+03	1.023828E-17	0.000000E+00
5.910000E+03	1.020117E-17	0.000000E+00
5.920000E+03	1.016192E-17	0.000000E+00
5.930000E+03	1.012039E-17	0.000000E+00
5.940000E+03	1.007689E-17	0.000000E+00
5.950000E+03	1.003152E-17	0.000000E+00
5.960000E+03	9.984371E-18	0.000000E+00
5.970000E+03	9.935443E-18	0.000000E+00
5.980000E+03	9.884918E-18	0.000000E+00
5.990000E+03	9.833035E-18	0.000000E+00
6.000000E+03	9.779650E-18	0.000000E+00
6.010000E+03	9.725087E-18	0.000000E+00
6.020000E+03	9.669326E-18	0.000000E+00
6.030000E+03	9.612587E-18	0.000000E+00
6.040000E+03	9.554708E-18	0.000000E+00
6.050000E+03	9.496036E-18	0.000000E+00
6.060000E+03	9.436642E-18	0.000000E+00
6.070000E+03	9.376499E-18	0.000000E+00
6.080000E+03	9.315689E-18	0.000000E+00
6.090000E+03	9.254405E-18	0.000000E+00
6.100000E+03	9.192607E-18	0.000000E+00
6.110000E+03	9.130482E-18	0.000000E+00
6.120000E+03	9.067986E-18	0.000000E+00
6.130000E+03	9.005295E-18	0.000000E+00
6.140000E+03	8.942586E-18	0.000000E+00
6.150000E+03	8.879803E-18	0.000000E+00
6.160000E+03	8.817113E-18	0.000000E+00
6.170000E+03	8.754794E-18	0.000000E+00
6.180000E+03	8.692894E-18	0.000000E+00
6.190000E+03	8.631570E-18	0.000000E+00
6.200000E+03	8.570746E-18	0.000000E+00
6.210000E+03	8.510462E-18	0.000000E+00
6.220000E+03	8.450638E-18	0.000000E+00
6.230000E+03	8.391310E-18	0.000000E+00
6.240000E+03	8.332618E-18	0.000000E+00
6.250000E+03	8.274478E-18	0.000000E+00
6.260000E+03	8.216918E-18	0.000000E+00
6.270000E+03	8.160076E-18	0.000000E+00
6.280000E+03	8.104085E-18	0.000000E+00
6.290000E+03	8.048968E-18	0.000000E+00
6.300000E+03	7.994744E-18	0.000000E+00
6.310000E+03	7.941770E-18	0.000000E+00
6.320000E+03	7.889835E-18	0.000000E+00
6.330000E+03	7.839407E-18	0.000000E+00
6.340000E+03	7.790389E-18	0.000000E+00
6.350000E+03	7.742906E-18	0.000000E+00
6.360000E+03	7.697309E-18	0.000000E+00
6.370000E+03	7.653612E-18	0.000000E+00
6.380000E+03	7.611940E-18	0.000000E+00
6.390000E+03	7.572420E-18	0.000000E+00
6.400000E+03	7.535288E-18	0.000000E+00
6.410000E+03	7.500448E-18	0.000000E+00
6.420000E+03	7.467689E-18	0.000000E+00
6.430000E+03	7.436914E-18	0.000000E+00
6.440000E+03	7.408023E-18	0.000000E+00
6.450000E+03	7.380921E-18	0.000000E+00
6.460000E+03	7.355397E-18	0.000000E+00
6.470000E+03	7.331352E-18	0.000000E+00
6.480000E+03	7.308687E-18	0.000000E+00
6.490000E+03	7.287418E-18	0.000000E+00
6.500000E+03	7.267444E-18	0.000000E+00
6.510000E+03	7.248664E-18	0.000000E+00
6.520000E+03	7.231206E-18	0.000000E+00
6.530000E+03	7.214854E-18	0.000000E+00
6.540000E+03	7.199733E-18	0.000000E+00
6.550000E+03	7.185741E-18	0.000000E+00
6.560000E+03	7.173000E-18	0.000000E+00
6.570000E+03	7.161406E-18	0.000000E+00
6.580000E+03	7.150967E-18	0.000000E+00
6.590000E+03	7.141691E-18	0.000000E+00
6.600000E+03	7.133700E-18	0.000000E+00
6.610000E+03	7.126768E-18	0.000000E+00
6.620000E+03	7.121132E-18	0.000000E+00
6.630000E+03	7.116679E-18	0.000000E+00
6.640000E+03	7.113412E-18	0.000000E+00
6.650000E+03	7.111450E-18	0.000000E+00
6.660000E+03	7.110560E-18	0.000000E+00
6.670000E+03	7.110979E-18	0.000000E+00
6.680000E+03	7.112586E-18	0.000000E+00
6.690000E+03	7.115380E-18	0.000000E+00
6.700000E+03	7.119480E-18	0.000000E+00
6.710000E+03	7.124762E-18	0.000000E+00
6.720000E+03	7.131224E-18	0.000000E+00
6.730000E+03	7.138858E-18	0.000000E+00
6.740000E+03	7.147785E-18	0.000000E+00
6.750000E+03	7.157873E-18	0.000000E+00
6.760000E+03	7.169116E-18	0.000000E+00
6.770000E+03	7.181632E-18	0.000000E+00
6.780000E+03	7.195286E-18	0.000000E+00
6.790000E+03	7.210068E-18	0.000000E+00
6.800000E+03	7.226095E-18	0.000000E+00
6.810000E+03	7.243099E-18	0.000000E+00
6.820000E+03	7.261324E-18	0.000000E+00
6.830000E+03	7.280759E-18	0.000000E+00
6.840000E+03	7.301125E-18	0.000000E+00
6.850000E+03	7.322673E-18	0.000000E+00
6.860000E+03	7.345252E-18	0.000000E+00
6.870000E+03	7.368845E-18	0.000000E+00
6.880000E+03	7.393433E-18	0.000000E+00
6.890000E+03	7.418999E-18	0.000000E+00
6.900000E+03	7.445659E-18	0.000000E+00
6.910000E+03	7.473121E-18	0.000000E+00
6.920000E+03	7.501641E-18	0.000000E+00
6.930000E+03	7.530920E-18	0.000000E+00
6.940000E+03	7.561222E-18	0.000000E+00
6.950000E+03	7.592242E-18	0.000000E+00
6.960000E+03	7.624248E-18	0.000000E+00
6.970000E+03	7.656934E-18	0.000000E+00
6.980000E+03	7.690426E-18	0.000000E+00
6.990000E+03	7.724709E-18	0.000000E+00
7.000000E+03	7.759616E-18	0.000000E+00
7.010000E+03	7.795434E-18	0.000000E+00
7.020000E+03	7.831847E-18	0.000000E+00
7.030000E+03	7.868840E-18	0.000000E+00
7.040000E+03	7.906554E-18	0.000000E+00
7.050000E+03	7.944980E-18	0.000000E+00
7.060000E+03	7.983952E-18	0.000000E+00
7.070000E+03	8.023459E-18	0.000000E+00
7.080000E+03	8.063653E-18	0.000000E+00
7.090000E+03	8.104368E-18	0.000000E+00
7.100000E+03	8.145595E-18	0.000000E+00
7.110000E+03	8.187329E-18	0.000000E+00
7.120000E+03	8.229731E-18	0.000000E+00
7.130000E+03	8.272461E-18	0.000000E+00
7.140000E+03	8.315855E-18	0.000000E+00
7.150000E+03	8.359568E-18	0.000000E+00
7.160000E+03	8.403765E-18	0.000000E+00
7.170000E+03	8.448444E-18	0.000000E+00
7.180000E+03	8.493602E-18	0.000000E+00
7.190000E+03	8.539057E-18	0.000000E+00
7.200000E+03	8.584982E-18	0.000000E+00
7.210000E+03	8.631376E-18	0.000000E+00
7.220000E+03	8.678051E-18	0.000000E+00
7.230000E+03	8.724998E-18	0.000000E+00
7.240000E+03	8.772397E-18	0.000000E+00
7.250000E+03	8.820056E-18	0.000000E+00
7.260000E+03	8.867964E-18	0.000000E+00
7.270000E+03	8.916304E-18	0.000000E+00
7.280000E+03	8.964877E-18	0.000000E+00
7.290000E+03	9.013671E-18	0.000000E+00
7.300000E+03	9.063074E-18	0.000000E+00
7.310000E+03	9.112478E-18	0.000000E+00
7.320000E+03	9.162475E-18	0.000000E+00
7.330000E+03	9.212651E-18	0.000000E+00
7.340000E+03	9.263405E-18	0.000000E+00
7.350000E+03	9.314519E-18	0.000000E+00
7.360000E+03	9.366198E-18	0.000000E+00
7.370000E+03	9.418645E-18	0.000000E+00
7.380000E+03	9.471641E-18	0.000000E+00
7.390000E+03	9.525839E-18	0.000000E+00
7.400000E+03	9.581010E-18	0.000000E+00
7.410000E+03	9.637179E-18	0.000000E+00
7.420000E+03	9.695230E-18	0.000000E+00
7.430000E+03	9.754516E-18	0.000000E+00
7.440000E+03	9.815721E-18	0.000000E+00
7.450000E+03	9.878884E-18	0.000000E+00
7.460000E+03	9.943539E-18	0.000000E+00
7.470000E+03	1.000946E-17	0.000000E+00
7.480000E+03	1.007664E-17	0.000000E+00
7.490000E+03	1.014482E-17	0.000000E+00
7.500000E+03	1.021399E-17	0.000000E+00
7.510000E+03	1.028388E-17	0.000000E+00
7.520000E+03	1.035421E-17	0.000000E+00
7.530000E+03	1.042493E-17	0.000000E+00
7.540000E+03	1.049601E-17	0.000000E+00
7.550000E+03	1.056715E-17	0.000000E+00
7.560000E+03	1.063855E-17	0.000000E+00
7.570000E+03	1.070962E-17	0.000000E+00
7.580000E+03	1.078085E-17	0.000000E+00
7.590000E+03	1.085192E-17	0.000000E+00
7.600000E+03	1.092246E-17	0.000000E+00
7.610000E+03	1.099272E-17	0.000000E+00
7.620000E+03	1.106232E-17	0.000000E+00
7.630000E+03	1.113149E-17	0.000000E+00
7.640000E+03	1.120014E-17	0.000000E+00
7.650000E+03	1.126794E-17	0.000000E+00
7.660000E+03	1.133509E-17	0.000000E+00
7.670000E+03	1.140122E-17	0.000000E+00
7.680000E+03	1.146655E-17	0.000000E+00
7.690000E+03	1.153100E-17	0.000000E+00
7.700000E+03	1.159421E-17	0.000000E+00
7.710000E+03	1.165639E-17	0.000000E+00
7.720000E+03	1.171745E-17	0.000000E+00
7.730000E+03	1.177734E-17	0.000000E+00
7.740000E+03	1.183596E-17	0.000000E+00
7.750000E+03	1.189324E-17	0.000000E+00
7.760000E+03	1.194910E-17	0.000000E+00
