#wls	flux	fluxerr
1.600000E+03	1.017882E-16	0.000000E+00
1.640000E+03	1.054298E-16	0.000000E+00
1.680000E+03	1.090273E-16	0.000000E+00
1.720000E+03	1.125655E-16	0.000000E+00
1.760000E+03	1.160031E-16	0.000000E+00
1.800000E+03	1.193418E-16	0.000000E+00
1.840000E+03	1.225221E-16	0.000000E+00
1.880000E+03	1.255276E-16	0.000000E+00
1.920000E+03	1.283160E-16	0.000000E+00
1.960000E+03	1.308539E-16	0.000000E+00
2.000000E+03	1.330942E-16	0.000000E+00
2.040000E+03	1.349999E-16	0.000000E+00
2.080000E+03	1.365226E-16	0.000000E+00
2.120000E+03	1.376250E-16	0.000000E+00
2.160000E+03	1.382516E-16	0.000000E+00
2.200000E+03	1.383708E-16	0.000000E+00
2.240000E+03	1.379456E-16	0.000000E+00
2.280000E+03	1.369719E-16	0.000000E+00
2.320000E+03	1.354558E-16	0.000000E+00
2.360000E+03	1.333978E-16	0.000000E+00
2.400000E+03	1.308241E-16	0.000000E+00
2.440000E+03	1.277535E-16	0.000000E+00
2.480000E+03	1.242073E-16	0.000000E+00
2.520000E+03	1.202100E-16	0.000000E+00
2.560000E+03	1.157846E-16	0.000000E+00
2.600000E+03	1.109712E-16	0.000000E+00
2.640000E+03	1.058048E-16	0.000000E+00
2.680000E+03	1.003244E-16	0.000000E+00
2.720000E+03	9.458232E-17	0.000000E+00
2.760000E+03	8.862858E-17	0.000000E+00
2.800000E+03	8.252130E-17	0.000000E+00
2.840000E+03	7.632347E-17	0.000000E+00
2.880000E+03	7.010518E-17	0.000000E+00
2.920000E+03	6.395867E-17	0.000000E+00
2.960000E+03	5.798110E-17	0.000000E+00
3.000000E+03	5.226373E-17	0.000000E+00
3.010000E+03	5.088346E-17	0.000000E+00
3.020000E+03	4.952611E-17	0.000000E+00
3.030000E+03	4.818963E-17	0.000000E+00
3.040000E+03	4.687779E-17	0.000000E+00
3.050000E+03	4.558965E-17	0.000000E+00
3.060000E+03	4.432545E-17	0.000000E+00
3.070000E+03	4.308633E-17	0.000000E+00
3.080000E+03	4.187332E-17	0.000000E+00
3.090000E+03	4.068550E-17	0.000000E+00
3.100000E+03	3.952463E-17	0.000000E+00
3.110000E+03	3.838976E-17	0.000000E+00
3.120000E+03	3.728162E-17	0.000000E+00
3.130000E+03	3.620079E-17	0.000000E+00
3.140000E+03	3.514700E-17	0.000000E+00
3.150000E+03	3.411938E-17	0.000000E+00
3.160000E+03	3.311964E-17	0.000000E+00
3.170000E+03	3.214614E-17	0.000000E+00
3.180000E+03	3.119981E-17	0.000000E+00
3.190000E+03	3.028021E-17	0.000000E+00
3.200000E+03	2.938694E-17	0.000000E+00
3.210000E+03	2.851956E-17	0.000000E+00
3.220000E+03	2.767862E-17	0.000000E+00
3.230000E+03	2.686314E-17	0.000000E+00
3.240000E+03	2.607262E-17	0.000000E+00
3.250000E+03	2.530699E-17	0.000000E+00
3.260000E+03	2.456616E-17	0.000000E+00
3.270000E+03	2.384913E-17	0.000000E+00
3.280000E+03	2.315576E-17	0.000000E+00
3.290000E+03	2.248547E-17	0.000000E+00
3.300000E+03	2.183804E-17	0.000000E+00
3.310000E+03	2.121257E-17	0.000000E+00
3.320000E+03	2.060849E-17	0.000000E+00
3.330000E+03	2.002586E-17	0.000000E+00
3.340000E+03	1.946350E-17	0.000000E+00
3.350000E+03	1.892115E-17	0.000000E+00
3.360000E+03	1.839855E-17	0.000000E+00
3.370000E+03	1.789459E-17	0.000000E+00
3.380000E+03	1.740926E-17	0.000000E+00
3.390000E+03	1.694155E-17	0.000000E+00
3.400000E+03	1.649099E-17	0.000000E+00
3.410000E+03	1.605728E-17	0.000000E+00
3.420000E+03	1.563975E-17	0.000000E+00
3.430000E+03	1.523792E-17	0.000000E+00
3.440000E+03	1.485098E-17	0.000000E+00
3.450000E+03	1.447872E-17	0.000000E+00
3.460000E+03	1.412051E-17	0.000000E+00
3.470000E+03	1.377567E-17	0.000000E+00
3.480000E+03	1.344384E-17	0.000000E+00
3.490000E+03	1.312437E-17	0.000000E+00
3.500000E+03	1.281681E-17	0.000000E+00
3.510000E+03	1.252075E-17	0.000000E+00
3.520000E+03	1.223548E-17	0.000000E+00
3.530000E+03	1.196041E-17	0.000000E+00
3.540000E+03	1.169485E-17	0.000000E+00
3.550000E+03	1.143806E-17	0.000000E+00
3.560000E+03	1.118938E-17	0.000000E+00
3.570000E+03	1.094821E-17	0.000000E+00
3.580000E+03	1.071391E-17	0.000000E+00
3.590000E+03	1.048589E-17	0.000000E+00
3.600000E+03	1.026382E-17	0.000000E+00
3.610000E+03	1.004711E-17	0.000000E+00
3.620000E+03	9.835509E-18	0.000000E+00
3.630000E+03	9.629126E-18	0.000000E+00
3.640000E+03	9.427848E-18	0.000000E+00
3.650000E+03	9.231760E-18	0.000000E+00
3.660000E+03	9.040882E-18	0.000000E+00
3.670000E+03	8.855306E-18	0.000000E+00
3.680000E+03	8.675013E-18	0.000000E+00
3.690000E+03	8.499895E-18	0.000000E+00
3.700000E+03	8.330121E-18	0.000000E+00
3.710000E+03	8.165474E-18	0.000000E+00
3.720000E+03	8.006014E-18	0.000000E+00
3.730000E+03	7.851644E-18	0.000000E+00
3.740000E+03	7.702324E-18	0.000000E+00
3.750000E+03	7.557938E-18	0.000000E+00
3.760000E+03	7.418368E-18	0.000000E+00
3.770000E+03	7.283609E-18	0.000000E+00
3.780000E+03	7.153527E-18	0.000000E+00
3.790000E+03	7.028045E-18	0.000000E+00
3.800000E+03	6.906969E-18	0.000000E+00
3.810000E+03	6.790325E-18	0.000000E+00
3.820000E+03	6.677917E-18	0.000000E+00
3.830000E+03	6.569709E-18	0.000000E+00
3.840000E+03	6.465507E-18	0.000000E+00
3.850000E+03	6.365322E-18	0.000000E+00
3.860000E+03	6.268914E-18	0.000000E+00
3.870000E+03	6.176291E-18	0.000000E+00
3.880000E+03	6.087314E-18	0.000000E+00
3.890000E+03	6.001848E-18	0.000000E+00
3.900000E+03	5.919806E-18	0.000000E+00
3.910000E+03	5.841104E-18	0.000000E+00
3.920000E+03	5.765657E-18	0.000000E+00
3.930000E+03	5.693339E-18	0.000000E+00
3.940000E+03	5.624029E-18	0.000000E+00
3.950000E+03	5.557692E-18	0.000000E+00
3.960000E+03	5.494253E-18	0.000000E+00
3.970000E+03	5.433515E-18	0.000000E+00
3.980000E+03	5.375492E-18	0.000000E+00
3.990000E+03	5.320074E-18	0.000000E+00
4.000000E+03	5.267197E-18	0.000000E+00
4.010000E+03	5.216720E-18	0.000000E+00
4.020000E+03	5.168583E-18	0.000000E+00
4.030000E+03	5.122770E-18	0.000000E+00
4.040000E+03	5.079147E-18	0.000000E+00
4.050000E+03	5.037664E-18	0.000000E+00
4.060000E+03	4.998233E-18	0.000000E+00
4.070000E+03	4.960806E-18	0.000000E+00
4.080000E+03	4.925304E-18	0.000000E+00
4.090000E+03	4.891682E-18	0.000000E+00
4.100000E+03	4.859866E-18	0.000000E+00
4.110000E+03	4.829778E-18	0.000000E+00
4.120000E+03	4.801385E-18	0.000000E+00
4.130000E+03	4.774653E-18	0.000000E+00
4.140000E+03	4.749478E-18	0.000000E+00
4.150000E+03	4.725867E-18	0.000000E+00
4.160000E+03	4.703720E-18	0.000000E+00
4.170000E+03	4.683011E-18	0.000000E+00
4.180000E+03	4.663718E-18	0.000000E+00
4.190000E+03	4.645782E-18	0.000000E+00
4.200000E+03	4.629147E-18	0.000000E+00
4.210000E+03	4.613795E-18	0.000000E+00
4.220000E+03	4.599673E-18	0.000000E+00
4.230000E+03	4.586766E-18	0.000000E+00
4.240000E+03	4.575060E-18	0.000000E+00
4.250000E+03	4.564509E-18	0.000000E+00
4.260000E+03	4.555031E-18	0.000000E+00
4.270000E+03	4.546685E-18	0.000000E+00
4.280000E+03	4.539396E-18	0.000000E+00
4.290000E+03	4.533157E-18	0.000000E+00
4.300000E+03	4.527892E-18	0.000000E+00
4.310000E+03	4.523632E-18	0.000000E+00
4.320000E+03	4.520342E-18	0.000000E+00
4.330000E+03	4.517985E-18	0.000000E+00
4.340000E+03	4.516562E-18	0.000000E+00
4.350000E+03	4.516038E-18	0.000000E+00
4.360000E+03	4.516490E-18	0.000000E+00
4.370000E+03	4.517851E-18	0.000000E+00
4.380000E+03	4.520128E-18	0.000000E+00
4.390000E+03	4.523329E-18	0.000000E+00
4.400000E+03	4.527391E-18	0.000000E+00
4.410000E+03	4.532326E-18	0.000000E+00
4.420000E+03	4.538108E-18	0.000000E+00
4.430000E+03	4.544680E-18	0.000000E+00
4.440000E+03	4.552091E-18	0.000000E+00
4.450000E+03	4.560284E-18	0.000000E+00
4.460000E+03	4.569242E-18	0.000000E+00
4.470000E+03	4.578905E-18	0.000000E+00
4.480000E+03	4.589331E-18	0.000000E+00
4.490000E+03	4.600503E-18	0.000000E+00
4.500000E+03	4.612330E-18	0.000000E+00
4.510000E+03	4.624872E-18	0.000000E+00
4.520000E+03	4.638078E-18	0.000000E+00
4.530000E+03	4.651933E-18	0.000000E+00
4.540000E+03	4.666464E-18	0.000000E+00
4.550000E+03	4.681659E-18	0.000000E+00
4.560000E+03	4.697468E-18	0.000000E+00
4.570000E+03	4.713881E-18	0.000000E+00
4.580000E+03	4.730928E-18	0.000000E+00
4.590000E+03	4.748602E-18	0.000000E+00
4.600000E+03	4.766813E-18	0.000000E+00
4.610000E+03	4.785634E-18	0.000000E+00
4.620000E+03	4.805058E-18	0.000000E+00
4.630000E+03	4.824999E-18	0.000000E+00
4.640000E+03	4.845491E-18	0.000000E+00
4.650000E+03	4.866528E-18	0.000000E+00
4.660000E+03	4.888064E-18	0.000000E+00
4.670000E+03	4.910177E-18	0.000000E+00
4.680000E+03	4.932822E-18	0.000000E+00
4.690000E+03	4.956039E-18	0.000000E+00
4.700000E+03	4.979825E-18	0.000000E+00
4.710000E+03	5.004222E-18	0.000000E+00
4.720000E+03	5.029186E-18	0.000000E+00
4.730000E+03	5.054805E-18	0.000000E+00
4.740000E+03	5.081034E-18	0.000000E+00
4.750000E+03	5.108010E-18	0.000000E+00
4.760000E+03	5.135647E-18	0.000000E+00
4.770000E+03	5.163994E-18	0.000000E+00
4.780000E+03	5.193145E-18	0.000000E+00
4.790000E+03	5.223062E-18	0.000000E+00
4.800000E+03	5.253844E-18	0.000000E+00
4.810000E+03	5.285406E-18	0.000000E+00
4.820000E+03	5.317850E-18	0.000000E+00
4.830000E+03	5.351184E-18	0.000000E+00
4.840000E+03	5.385371E-18	0.000000E+00
4.850000E+03	5.420468E-18	0.000000E+00
4.860000E+03	5.456534E-18	0.000000E+00
4.870000E+03	5.493483E-18	0.000000E+00
4.880000E+03	5.531373E-18	0.000000E+00
4.890000E+03	5.570267E-18	0.000000E+00
4.900000E+03	5.610074E-18	0.000000E+00
4.910000E+03	5.650856E-18	0.000000E+00
4.920000E+03	5.692625E-18	0.000000E+00
4.930000E+03	5.735391E-18	0.000000E+00
4.940000E+03	5.779167E-18	0.000000E+00
4.950000E+03	5.823910E-18	0.000000E+00
4.960000E+03	5.869684E-18	0.000000E+00
4.970000E+03	5.916446E-18	0.000000E+00
4.980000E+03	5.964205E-18	0.000000E+00
4.990000E+03	6.012970E-18	0.000000E+00
5.000000E+03	6.062752E-18	0.000000E+00
5.010000E+03	6.113559E-18	0.000000E+00
5.020000E+03	6.165399E-18	0.000000E+00
5.030000E+03	6.218223E-18	0.000000E+00
5.040000E+03	6.272037E-18	0.000000E+00
5.050000E+03	6.326846E-18	0.000000E+00
5.060000E+03	6.382657E-18	0.000000E+00
5.070000E+03	6.439473E-18	0.000000E+00
5.080000E+03	6.497299E-18	0.000000E+00
5.090000E+03	6.556014E-18	0.000000E+00
5.100000E+03	6.615742E-18	0.000000E+00
5.110000E+03	6.676486E-18	0.000000E+00
5.120000E+03	6.738119E-18	0.000000E+00
5.130000E+03	6.800637E-18	0.000000E+00
5.140000E+03	6.864101E-18	0.000000E+00
5.150000E+03	6.928508E-18	0.000000E+00
5.160000E+03	6.993719E-18	0.000000E+00
5.170000E+03	7.059793E-18	0.000000E+00
5.180000E+03	7.126787E-18	0.000000E+00
5.190000E+03	7.194557E-18	0.000000E+00
5.200000E+03	7.263088E-18	0.000000E+00
5.210000E+03	7.332365E-18	0.000000E+00
5.220000E+03	7.402444E-18	0.000000E+00
5.230000E+03	7.473235E-18	0.000000E+00
5.240000E+03	7.544718E-18	0.000000E+00
5.250000E+03	7.616797E-18	0.000000E+00
5.260000E+03	7.689523E-18	0.000000E+00
5.270000E+03	7.762868E-18	0.000000E+00
5.280000E+03	7.836731E-18	0.000000E+00
5.290000E+03	7.911154E-18	0.000000E+00
5.300000E+03	7.986029E-18	0.000000E+00
5.310000E+03	8.061319E-18	0.000000E+00
5.320000E+03	8.137066E-18	0.000000E+00
5.330000E+03	8.213150E-18	0.000000E+00
5.340000E+03	8.289529E-18	0.000000E+00
5.350000E+03	8.366156E-18	0.000000E+00
5.360000E+03	8.442982E-18	0.000000E+00
5.370000E+03	8.519958E-18	0.000000E+00
5.380000E+03	8.597029E-18	0.000000E+00
5.390000E+03	8.674141E-18	0.000000E+00
5.400000E+03	8.751147E-18	0.000000E+00
5.410000E+03	8.827983E-18	0.000000E+00
5.420000E+03	8.904674E-18	0.000000E+00
5.430000E+03	8.981063E-18	0.000000E+00
5.440000E+03	9.057079E-18	0.000000E+00
5.450000E+03	9.132558E-18	0.000000E+00
5.460000E+03	9.207514E-18	0.000000E+00
5.470000E+03	9.281684E-18	0.000000E+00
5.480000E+03	9.355172E-18	0.000000E+00
5.490000E+03	9.427612E-18	0.000000E+00
5.500000E+03	9.499011E-18	0.000000E+00
5.510000E+03	9.569271E-18	0.000000E+00
5.520000E+03	9.638222E-18	0.000000E+00
5.530000E+03	9.705751E-18	0.000000E+00
5.540000E+03	9.771689E-18	0.000000E+00
5.550000E+03	9.835913E-18	0.000000E+00
5.560000E+03	9.898358E-18	0.000000E+00
5.570000E+03	9.958901E-18	0.000000E+00
5.580000E+03	1.001735E-17	0.000000E+00
5.590000E+03	1.007364E-17	0.000000E+00
5.600000E+03	1.012764E-17	0.000000E+00
5.610000E+03	1.017927E-17	0.000000E+00
5.620000E+03	1.022836E-17	0.000000E+00
5.630000E+03	1.027480E-17	0.000000E+00
5.640000E+03	1.031862E-17	0.000000E+00
5.650000E+03	1.035962E-17	0.000000E+00
5.660000E+03	1.039765E-17	0.000000E+00
5.670000E+03	1.043284E-17	0.000000E+00
5.680000E+03	1.046512E-17	0.000000E+00
5.690000E+03	1.049421E-17	0.000000E+00
5.700000E+03	1.052019E-17	0.000000E+00
5.710000E+03	1.054311E-17	0.000000E+00
5.720000E+03	1.056280E-17	0.000000E+00
5.730000E+03	1.057926E-17	0.000000E+00
5.740000E+03	1.059256E-17	0.000000E+00
5.750000E+03	1.060257E-17	0.000000E+00
5.760000E+03	1.060950E-17	0.000000E+00
5.770000E+03	1.061312E-17	0.000000E+00
5.780000E+03	1.061355E-17	0.000000E+00
5.790000E+03	1.061081E-17	0.000000E+00
5.800000E+03	1.060501E-17	0.000000E+00
5.810000E+03	1.059608E-17	0.000000E+00
5.820000E+03	1.058415E-17	0.000000E+00
5.830000E+03	1.056926E-17	0.000000E+00
5.840000E+03	1.055134E-17	0.000000E+00
5.850000E+03	1.053069E-17	0.000000E+00
5.860000E+03	1.050722E-17	0.000000E+00
5.870000E+03	1.048113E-17	0.000000E+00
5.880000E+03	1.045237E-17	0.000000E+00
5.890000E+03	1.042112E-17	0.000000E+00
5.900000E+03	1.038745E-17	0.000000E+00
5.910000E+03	1.035144E-17	0.000000E+00
5.920000E+03	1.031331E-17	0.000000E+00
5.930000E+03	1.027289E-17	0.000000E+00
5.940000E+03	1.023052E-17	0.000000E+00
5.950000E+03	1.018628E-17	0.000000E+00
5.960000E+03	1.014027E-17	0.000000E+00
5.970000E+03	1.009245E-17	0.000000E+00
5.980000E+03	1.004306E-17	0.000000E+00
5.990000E+03	9.992279E-18	0.000000E+00
6.000000E+03	9.939985E-18	0.000000E+00
6.010000E+03	9.886504E-18	0.000000E+00
6.020000E+03	9.831808E-18	0.000000E+00
6.030000E+03	9.776105E-18	0.000000E+00
6.040000E+03	9.719244E-18	0.000000E+00
6.050000E+03	9.661563E-18	0.000000E+00
6.060000E+03	9.603139E-18	0.000000E+00
6.070000E+03	9.543933E-18	0.000000E+00
6.080000E+03	9.484021E-18	0.000000E+00
6.090000E+03	9.423610E-18	0.000000E+00
6.100000E+03	9.362647E-18	0.000000E+00
6.110000E+03	9.301320E-18	0.000000E+00
6.120000E+03	9.239578E-18	0.000000E+00
6.130000E+03	9.177602E-18	0.000000E+00
6.140000E+03	9.115569E-18	0.000000E+00
6.150000E+03	9.053416E-18	0.000000E+00
6.160000E+03	8.991314E-18	0.000000E+00
6.170000E+03	8.929542E-18	0.000000E+00
6.180000E+03	8.868146E-18	0.000000E+00
6.190000E+03	8.807283E-18	0.000000E+00
6.200000E+03	8.746877E-18	0.000000E+00
6.210000E+03	8.686963E-18	0.000000E+00
6.220000E+03	8.627461E-18	0.000000E+00
6.230000E+03	8.568401E-18	0.000000E+00
6.240000E+03	8.509930E-18	0.000000E+00
6.250000E+03	8.451958E-18	0.000000E+00
6.260000E+03	8.394513E-18	0.000000E+00
6.270000E+03	8.337735E-18	0.000000E+00
6.280000E+03	8.281759E-18	0.000000E+00
6.290000E+03	8.226608E-18	0.000000E+00
6.300000E+03	8.172302E-18	0.000000E+00
6.310000E+03	8.119205E-18	0.000000E+00
6.320000E+03	8.067103E-18	0.000000E+00
6.330000E+03	8.016472E-18	0.000000E+00
6.340000E+03	7.967215E-18	0.000000E+00
6.350000E+03	7.919460E-18	0.000000E+00
6.360000E+03	7.873567E-18	0.000000E+00
6.370000E+03	7.829550E-18	0.000000E+00
6.380000E+03	7.787539E-18	0.000000E+00
6.390000E+03	7.747664E-18	0.000000E+00
6.400000E+03	7.710169E-18	0.000000E+00
6.410000E+03	7.674953E-18	0.000000E+00
6.420000E+03	7.641805E-18	0.000000E+00
6.430000E+03	7.610625E-18	0.000000E+00
6.440000E+03	7.581312E-18	0.000000E+00
6.450000E+03	7.553769E-18	0.000000E+00
6.460000E+03	7.527782E-18	0.000000E+00
6.470000E+03	7.503249E-18	0.000000E+00
6.480000E+03	7.480073E-18	0.000000E+00
6.490000E+03	7.458270E-18	0.000000E+00
6.500000E+03	7.437736E-18	0.000000E+00
6.510000E+03	7.418372E-18	0.000000E+00
6.520000E+03	7.400309E-18	0.000000E+00
6.530000E+03	7.383326E-18	0.000000E+00
6.540000E+03	7.367555E-18	0.000000E+00
6.550000E+03	7.352889E-18	0.000000E+00
6.560000E+03	7.339459E-18	0.000000E+00
6.570000E+03	7.327156E-18	0.000000E+00
6.580000E+03	7.315990E-18	0.000000E+00
6.590000E+03	7.305971E-18	0.000000E+00
6.600000E+03	7.297225E-18	0.000000E+00
6.610000E+03	7.289518E-18	0.000000E+00
6.620000E+03	7.283098E-18	0.000000E+00
6.630000E+03	7.277846E-18	0.000000E+00
6.640000E+03	7.273768E-18	0.000000E+00
6.650000E+03	7.270987E-18	0.000000E+00
6.660000E+03	7.269261E-18	0.000000E+00
6.670000E+03	7.268835E-18	0.000000E+00
6.680000E+03	7.269586E-18	0.000000E+00
6.690000E+03	7.271512E-18	0.000000E+00
6.700000E+03	7.274735E-18	0.000000E+00
6.710000E+03	7.279130E-18	0.000000E+00
6.720000E+03	7.284692E-18	0.000000E+00
6.730000E+03	7.291415E-18	0.000000E+00
6.740000E+03	7.299421E-18	0.000000E+00
6.750000E+03	7.308578E-18	0.000000E+00
6.760000E+03	7.318879E-18	0.000000E+00
6.770000E+03	7.330442E-18	0.000000E+00
6.780000E+03	7.343132E-18	0.000000E+00
6.790000E+03	7.356937E-18	0.000000E+00
6.800000E+03	7.371977E-18	0.000000E+00
6.810000E+03	7.387977E-18	0.000000E+00
6.820000E+03	7.405186E-18	0.000000E+00
6.830000E+03	7.423591E-18	0.000000E+00
6.840000E+03	7.442911E-18	0.000000E+00
6.850000E+03	7.463394E-18	0.000000E+00
6.860000E+03	7.484891E-18	0.000000E+00
6.870000E+03	7.507382E-18	0.000000E+00
6.880000E+03	7.530846E-18	0.000000E+00
6.890000E+03	7.555263E-18	0.000000E+00
6.900000E+03	7.580753E-18	0.000000E+00
6.910000E+03	7.607015E-18	0.000000E+00
6.920000E+03	7.634309E-18	0.000000E+00
6.930000E+03	7.662330E-18	0.000000E+00
6.940000E+03	7.691342E-18	0.000000E+00
6.950000E+03	7.721037E-18	0.000000E+00
6.960000E+03	7.751686E-18	0.000000E+00
6.970000E+03	7.782977E-18	0.000000E+00
6.980000E+03	7.815035E-18	0.000000E+00
6.990000E+03	7.847844E-18	0.000000E+00
7.000000E+03	7.881237E-18	0.000000E+00
7.010000E+03	7.915501E-18	0.000000E+00
7.020000E+03	7.950317E-18	0.000000E+00
7.030000E+03	7.985668E-18	0.000000E+00
7.040000E+03	8.021699E-18	0.000000E+00
7.050000E+03	8.058399E-18	0.000000E+00
7.060000E+03	8.095601E-18	0.000000E+00
7.070000E+03	8.133295E-18	0.000000E+00
7.080000E+03	8.171635E-18	0.000000E+00
7.090000E+03	8.210452E-18	0.000000E+00
7.100000E+03	8.249740E-18	0.000000E+00
7.110000E+03	8.289492E-18	0.000000E+00
7.120000E+03	8.329874E-18	0.000000E+00
7.130000E+03	8.370544E-18	0.000000E+00
7.140000E+03	8.411839E-18	0.000000E+00
7.150000E+03	8.453412E-18	0.000000E+00
7.160000E+03	8.495434E-18	0.000000E+00
7.170000E+03	8.537901E-18	0.000000E+00
7.180000E+03	8.580812E-18	0.000000E+00
7.190000E+03	8.623983E-18	0.000000E+00
7.200000E+03	8.667591E-18	0.000000E+00
7.210000E+03	8.711635E-18	0.000000E+00
7.220000E+03	8.755925E-18	0.000000E+00
7.230000E+03	8.800456E-18	0.000000E+00
7.240000E+03	8.845408E-18	0.000000E+00
7.250000E+03	8.890587E-18	0.000000E+00
7.260000E+03	8.935986E-18	0.000000E+00
7.270000E+03	8.981789E-18	0.000000E+00
7.280000E+03	9.027797E-18	0.000000E+00
7.290000E+03	9.073997E-18	0.000000E+00
7.300000E+03	9.120783E-18	0.000000E+00
7.310000E+03	9.167542E-18	0.000000E+00
7.320000E+03	9.214873E-18	0.000000E+00
7.330000E+03	9.262356E-18	0.000000E+00
7.340000E+03	9.310397E-18	0.000000E+00
7.350000E+03	9.358780E-18	0.000000E+00
7.360000E+03	9.407705E-18	0.000000E+00
7.370000E+03	9.457385E-18	0.000000E+00
7.380000E+03	9.507589E-18	0.000000E+00
7.390000E+03	9.558980E-18	0.000000E+00
7.400000E+03	9.611331E-18	0.000000E+00
7.410000E+03	9.664661E-18	0.000000E+00
7.420000E+03	9.719856E-18	0.000000E+00
7.430000E+03	9.776265E-18	0.000000E+00
7.440000E+03	9.834586E-18	0.000000E+00
7.450000E+03	9.894837E-18	0.000000E+00
7.460000E+03	9.956566E-18	0.000000E+00
7.470000E+03	1.001954E-17	0.000000E+00
7.480000E+03	1.008373E-17	0.000000E+00
7.490000E+03	1.014892E-17	0.000000E+00
7.500000E+03	1.021506E-17	0.000000E+00
7.510000E+03	1.028190E-17	0.000000E+00
7.520000E+03	1.034914E-17	0.000000E+00
7.530000E+03	1.041676E-17	0.000000E+00
7.540000E+03	1.048470E-17	0.000000E+00
7.550000E+03	1.055266E-17	0.000000E+00
7.560000E+03	1.062086E-17	0.000000E+00
7.570000E+03	1.068870E-17	0.000000E+00
7.580000E+03	1.075666E-17	0.000000E+00
7.590000E+03	1.082442E-17	0.000000E+00
7.600000E+03	1.089164E-17	0.000000E+00
7.610000E+03	1.095853E-17	0.000000E+00
7.620000E+03	1.102473E-17	0.000000E+00
7.630000E+03	1.109047E-17	0.000000E+00
7.640000E+03	1.115566E-17	0.000000E+00
7.650000E+03	1.121997E-17	0.000000E+00
7.660000E+03	1.128359E-17	0.000000E+00
7.670000E+03	1.134618E-17	0.000000E+00
7.680000E+03	1.140794E-17	0.000000E+00
7.690000E+03	1.146881E-17	0.000000E+00
7.700000E+03	1.152840E-17	0.000000E+00
7.710000E+03	1.158696E-17	0.000000E+00
7.720000E+03	1.164438E-17	0.000000E+00
7.730000E+03	1.170062E-17	0.000000E+00
7.740000E+03	1.175559E-17	0.000000E+00
7.750000E+03	1.180920E-17	0.000000E+00
7.760000E+03	1.186139E-17	0.000000E+00
