#wls	flux	fluxerr
1.600000E+03	1.396874E-16	0.000000E+00
1.640000E+03	1.447260E-16	0.000000E+00
1.680000E+03	1.496813E-16	0.000000E+00
1.720000E+03	1.545091E-16	0.000000E+00
1.760000E+03	1.591758E-16	0.000000E+00
1.800000E+03	1.636273E-16	0.000000E+00
1.840000E+03	1.678206E-16	0.000000E+00
1.880000E+03	1.717083E-16	0.000000E+00
1.920000E+03	1.752241E-16	0.000000E+00
1.960000E+03	1.783137E-16	0.000000E+00
2.000000E+03	1.809212E-16	0.000000E+00
2.040000E+03	1.829891E-16	0.000000E+00
2.080000E+03	1.844468E-16	0.000000E+00
2.120000E+03	1.852408E-16	0.000000E+00
2.160000E+03	1.852965E-16	0.000000E+00
2.200000E+03	1.845496E-16	0.000000E+00
2.240000E+03	1.829035E-16	0.000000E+00
2.280000E+03	1.802874E-16	0.000000E+00
2.320000E+03	1.767707E-16	0.000000E+00
2.360000E+03	1.724619E-16	0.000000E+00
2.400000E+03	1.674417E-16	0.000000E+00
2.440000E+03	1.617701E-16	0.000000E+00
2.480000E+03	1.555010E-16	0.000000E+00
2.520000E+03	1.486998E-16	0.000000E+00
2.560000E+03	1.414222E-16	0.000000E+00
2.600000E+03	1.337430E-16	0.000000E+00
2.640000E+03	1.257307E-16	0.000000E+00
2.680000E+03	1.174524E-16	0.000000E+00
2.720000E+03	1.089933E-16	0.000000E+00
2.760000E+03	1.004333E-16	0.000000E+00
2.800000E+03	9.185665E-17	0.000000E+00
2.840000E+03	8.334851E-17	0.000000E+00
2.880000E+03	7.499875E-17	0.000000E+00
2.920000E+03	6.690787E-17	0.000000E+00
2.960000E+03	5.918187E-17	0.000000E+00
3.000000E+03	5.190869E-17	0.000000E+00
3.010000E+03	5.016894E-17	0.000000E+00
3.020000E+03	4.846436E-17	0.000000E+00
3.030000E+03	4.679298E-17	0.000000E+00
3.040000E+03	4.515640E-17	0.000000E+00
3.050000E+03	4.355695E-17	0.000000E+00
3.060000E+03	4.199295E-17	0.000000E+00
3.070000E+03	4.046658E-17	0.000000E+00
3.080000E+03	3.897808E-17	0.000000E+00
3.090000E+03	3.752762E-17	0.000000E+00
3.100000E+03	3.611547E-17	0.000000E+00
3.110000E+03	3.474330E-17	0.000000E+00
3.120000E+03	3.341041E-17	0.000000E+00
3.130000E+03	3.211757E-17	0.000000E+00
3.140000E+03	3.086474E-17	0.000000E+00
3.150000E+03	2.965184E-17	0.000000E+00
3.160000E+03	2.847925E-17	0.000000E+00
3.170000E+03	2.734721E-17	0.000000E+00
3.180000E+03	2.625429E-17	0.000000E+00
3.190000E+03	2.520152E-17	0.000000E+00
3.200000E+03	2.418782E-17	0.000000E+00
3.210000E+03	2.321297E-17	0.000000E+00
3.220000E+03	2.227618E-17	0.000000E+00
3.230000E+03	2.137630E-17	0.000000E+00
3.240000E+03	2.051357E-17	0.000000E+00
3.250000E+03	1.968602E-17	0.000000E+00
3.260000E+03	1.889369E-17	0.000000E+00
3.270000E+03	1.813553E-17	0.000000E+00
3.280000E+03	1.740993E-17	0.000000E+00
3.290000E+03	1.671668E-17	0.000000E+00
3.300000E+03	1.605417E-17	0.000000E+00
3.310000E+03	1.542159E-17	0.000000E+00
3.320000E+03	1.481787E-17	0.000000E+00
3.330000E+03	1.424214E-17	0.000000E+00
3.340000E+03	1.369312E-17	0.000000E+00
3.350000E+03	1.316975E-17	0.000000E+00
3.360000E+03	1.267101E-17	0.000000E+00
3.370000E+03	1.219609E-17	0.000000E+00
3.380000E+03	1.174381E-17	0.000000E+00
3.390000E+03	1.131321E-17	0.000000E+00
3.400000E+03	1.090338E-17	0.000000E+00
3.410000E+03	1.051329E-17	0.000000E+00
3.420000E+03	1.014208E-17	0.000000E+00
3.430000E+03	9.788934E-18	0.000000E+00
3.440000E+03	9.452954E-18	0.000000E+00
3.450000E+03	9.133389E-18	0.000000E+00
3.460000E+03	8.829418E-18	0.000000E+00
3.470000E+03	8.540264E-18	0.000000E+00
3.480000E+03	8.265197E-18	0.000000E+00
3.490000E+03	8.003434E-18	0.000000E+00
3.500000E+03	7.754422E-18	0.000000E+00
3.510000E+03	7.517464E-18	0.000000E+00
3.520000E+03	7.291830E-18	0.000000E+00
3.530000E+03	7.076775E-18	0.000000E+00
3.540000E+03	6.871831E-18	0.000000E+00
3.550000E+03	6.676349E-18	0.000000E+00
3.560000E+03	6.489599E-18	0.000000E+00
3.570000E+03	6.311111E-18	0.000000E+00
3.580000E+03	6.140383E-18	0.000000E+00
3.590000E+03	5.976895E-18	0.000000E+00
3.600000E+03	5.820109E-18	0.000000E+00
3.610000E+03	5.669750E-18	0.000000E+00
3.620000E+03	5.525445E-18	0.000000E+00
3.630000E+03	5.386845E-18	0.000000E+00
3.640000E+03	5.253857E-18	0.000000E+00
3.650000E+03	5.126241E-18	0.000000E+00
3.660000E+03	5.003800E-18	0.000000E+00
3.670000E+03	4.886385E-18	0.000000E+00
3.680000E+03	4.773843E-18	0.000000E+00
3.690000E+03	4.665975E-18	0.000000E+00
3.700000E+03	4.562704E-18	0.000000E+00
3.710000E+03	4.463790E-18	0.000000E+00
3.720000E+03	4.369115E-18	0.000000E+00
3.730000E+03	4.278591E-18	0.000000E+00
3.740000E+03	4.191951E-18	0.000000E+00
3.750000E+03	4.109181E-18	0.000000E+00
3.760000E+03	4.030024E-18	0.000000E+00
3.770000E+03	3.954430E-18	0.000000E+00
3.780000E+03	3.882251E-18	0.000000E+00
3.790000E+03	3.813343E-18	0.000000E+00
3.800000E+03	3.747597E-18	0.000000E+00
3.810000E+03	3.684878E-18	0.000000E+00
3.820000E+03	3.625086E-18	0.000000E+00
3.830000E+03	3.568124E-18	0.000000E+00
3.840000E+03	3.513870E-18	0.000000E+00
3.850000E+03	3.462236E-18	0.000000E+00
3.860000E+03	3.413134E-18	0.000000E+00
3.870000E+03	3.366458E-18	0.000000E+00
3.880000E+03	3.322129E-18	0.000000E+00
3.890000E+03	3.280075E-18	0.000000E+00
3.900000E+03	3.240196E-18	0.000000E+00
3.910000E+03	3.202426E-18	0.000000E+00
3.920000E+03	3.166674E-18	0.000000E+00
3.930000E+03	3.132903E-18	0.000000E+00
3.940000E+03	3.101027E-18	0.000000E+00
3.950000E+03	3.070988E-18	0.000000E+00
3.960000E+03	3.042685E-18	0.000000E+00
3.970000E+03	3.016109E-18	0.000000E+00
3.980000E+03	2.991161E-18	0.000000E+00
3.990000E+03	2.967794E-18	0.000000E+00
4.000000E+03	2.945935E-18	0.000000E+00
4.010000E+03	2.925563E-18	0.000000E+00
4.020000E+03	2.906588E-18	0.000000E+00
4.030000E+03	2.888990E-18	0.000000E+00
4.040000E+03	2.872685E-18	0.000000E+00
4.050000E+03	2.857658E-18	0.000000E+00
4.060000E+03	2.843826E-18	0.000000E+00
4.070000E+03	2.831157E-18	0.000000E+00
4.080000E+03	2.819618E-18	0.000000E+00
4.090000E+03	2.809177E-18	0.000000E+00
4.100000E+03	2.799763E-18	0.000000E+00
4.110000E+03	2.791346E-18	0.000000E+00
4.120000E+03	2.783881E-18	0.000000E+00
4.130000E+03	2.777345E-18	0.000000E+00
4.140000E+03	2.771712E-18	0.000000E+00
4.150000E+03	2.766921E-18	0.000000E+00
4.160000E+03	2.762973E-18	0.000000E+00
4.170000E+03	2.759807E-18	0.000000E+00
4.180000E+03	2.757407E-18	0.000000E+00
4.190000E+03	2.755757E-18	0.000000E+00
4.200000E+03	2.754803E-18	0.000000E+00
4.210000E+03	2.754530E-18	0.000000E+00
4.220000E+03	2.754908E-18	0.000000E+00
4.230000E+03	2.755947E-18	0.000000E+00
4.240000E+03	2.757576E-18	0.000000E+00
4.250000E+03	2.759808E-18	0.000000E+00
4.260000E+03	2.762595E-18	0.000000E+00
4.270000E+03	2.765951E-18	0.000000E+00
4.280000E+03	2.769809E-18	0.000000E+00
4.290000E+03	2.774165E-18	0.000000E+00
4.300000E+03	2.779015E-18	0.000000E+00
4.310000E+03	2.784293E-18	0.000000E+00
4.320000E+03	2.790017E-18	0.000000E+00
4.330000E+03	2.796100E-18	0.000000E+00
4.340000E+03	2.802560E-18	0.000000E+00
4.350000E+03	2.809286E-18	0.000000E+00
4.360000E+03	2.816277E-18	0.000000E+00
4.370000E+03	2.823595E-18	0.000000E+00
4.380000E+03	2.831242E-18	0.000000E+00
4.390000E+03	2.839240E-18	0.000000E+00
4.400000E+03	2.847590E-18	0.000000E+00
4.410000E+03	2.856247E-18	0.000000E+00
4.420000E+03	2.865261E-18	0.000000E+00
4.430000E+03	2.874589E-18	0.000000E+00
4.440000E+03	2.884235E-18	0.000000E+00
4.450000E+03	2.894179E-18	0.000000E+00
4.460000E+03	2.904428E-18	0.000000E+00
4.470000E+03	2.914942E-18	0.000000E+00
4.480000E+03	2.925751E-18	0.000000E+00
4.490000E+03	2.936819E-18	0.000000E+00
4.500000E+03	2.948129E-18	0.000000E+00
4.510000E+03	2.959721E-18	0.000000E+00
4.520000E+03	2.971533E-18	0.000000E+00
4.530000E+03	2.983582E-18	0.000000E+00
4.540000E+03	2.995885E-18	0.000000E+00
4.550000E+03	3.008412E-18	0.000000E+00
4.560000E+03	3.021185E-18	0.000000E+00
4.570000E+03	3.034176E-18	0.000000E+00
4.580000E+03	3.047409E-18	0.000000E+00
4.590000E+03	3.060887E-18	0.000000E+00
4.600000E+03	3.074609E-18	0.000000E+00
4.610000E+03	3.088554E-18	0.000000E+00
4.620000E+03	3.102776E-18	0.000000E+00
4.630000E+03	3.117226E-18	0.000000E+00
4.640000E+03	3.131934E-18	0.000000E+00
4.650000E+03	3.146906E-18	0.000000E+00
4.660000E+03	3.162116E-18	0.000000E+00
4.670000E+03	3.177625E-18	0.000000E+00
4.680000E+03	3.193383E-18	0.000000E+00
4.690000E+03	3.209420E-18	0.000000E+00
4.700000E+03	3.225798E-18	0.000000E+00
4.710000E+03	3.242495E-18	0.000000E+00
4.720000E+03	3.259546E-18	0.000000E+00
4.730000E+03	3.276984E-18	0.000000E+00
4.740000E+03	3.294817E-18	0.000000E+00
4.750000E+03	3.313053E-18	0.000000E+00
4.760000E+03	3.331759E-18	0.000000E+00
4.770000E+03	3.350883E-18	0.000000E+00
4.780000E+03	3.370496E-18	0.000000E+00
4.790000E+03	3.390604E-18	0.000000E+00
4.800000E+03	3.411189E-18	0.000000E+00
4.810000E+03	3.432323E-18	0.000000E+00
4.820000E+03	3.453984E-18	0.000000E+00
4.830000E+03	3.476187E-18	0.000000E+00
4.840000E+03	3.498943E-18	0.000000E+00
4.850000E+03	3.522265E-18	0.000000E+00
4.860000E+03	3.546232E-18	0.000000E+00
4.870000E+03	3.570763E-18	0.000000E+00
4.880000E+03	3.595936E-18	0.000000E+00
4.890000E+03	3.621735E-18	0.000000E+00
4.900000E+03	3.648209E-18	0.000000E+00
4.910000E+03	3.675343E-18	0.000000E+00
4.920000E+03	3.703151E-18	0.000000E+00
4.930000E+03	3.731686E-18	0.000000E+00
4.940000E+03	3.760893E-18	0.000000E+00
4.950000E+03	3.790825E-18	0.000000E+00
4.960000E+03	3.821494E-18	0.000000E+00
4.970000E+03	3.852918E-18	0.000000E+00
4.980000E+03	3.885076E-18	0.000000E+00
4.990000E+03	3.917978E-18	0.000000E+00
5.000000E+03	3.951676E-18	0.000000E+00
5.010000E+03	3.986109E-18	0.000000E+00
5.020000E+03	4.021362E-18	0.000000E+00
5.030000E+03	4.057369E-18	0.000000E+00
5.040000E+03	4.094140E-18	0.000000E+00
5.050000E+03	4.131723E-18	0.000000E+00
5.060000E+03	4.170085E-18	0.000000E+00
5.070000E+03	4.209234E-18	0.000000E+00
5.080000E+03	4.249135E-18	0.000000E+00
5.090000E+03	4.289833E-18	0.000000E+00
5.100000E+03	4.331332E-18	0.000000E+00
5.110000E+03	4.373553E-18	0.000000E+00
5.120000E+03	4.416540E-18	0.000000E+00
5.130000E+03	4.460295E-18	0.000000E+00
5.140000E+03	4.504820E-18	0.000000E+00
5.150000E+03	4.550074E-18	0.000000E+00
5.160000E+03	4.596057E-18	0.000000E+00
5.170000E+03	4.642726E-18	0.000000E+00
5.180000E+03	4.690172E-18	0.000000E+00
5.190000E+03	4.738307E-18	0.000000E+00
5.200000E+03	4.787133E-18	0.000000E+00
5.210000E+03	4.836649E-18	0.000000E+00
5.220000E+03	4.886903E-18	0.000000E+00
5.230000E+03	4.937802E-18	0.000000E+00
5.240000E+03	4.989345E-18	0.000000E+00
5.250000E+03	5.041625E-18	0.000000E+00
5.260000E+03	5.094494E-18	0.000000E+00
5.270000E+03	5.148047E-18	0.000000E+00
5.280000E+03	5.202225E-18	0.000000E+00
5.290000E+03	5.257021E-18	0.000000E+00
5.300000E+03	5.312478E-18	0.000000E+00
5.310000E+03	5.368481E-18	0.000000E+00
5.320000E+03	5.425066E-18	0.000000E+00
5.330000E+03	5.482217E-18	0.000000E+00
5.340000E+03	5.539914E-18	0.000000E+00
5.350000E+03	5.598190E-18	0.000000E+00
5.360000E+03	5.656912E-18	0.000000E+00
5.370000E+03	5.716100E-18	0.000000E+00
5.380000E+03	5.775725E-18	0.000000E+00
5.390000E+03	5.835689E-18	0.000000E+00
5.400000E+03	5.896066E-18	0.000000E+00
5.410000E+03	5.956752E-18	0.000000E+00
5.420000E+03	6.017636E-18	0.000000E+00
5.430000E+03	6.078661E-18	0.000000E+00
5.440000E+03	6.139826E-18	0.000000E+00
5.450000E+03	6.200943E-18	0.000000E+00
5.460000E+03	6.262002E-18	0.000000E+00
5.470000E+03	6.322928E-18	0.000000E+00
5.480000E+03	6.383511E-18	0.000000E+00
5.490000E+03	6.443666E-18	0.000000E+00
5.500000E+03	6.503362E-18	0.000000E+00
5.510000E+03	6.562438E-18	0.000000E+00
5.520000E+03	6.620721E-18	0.000000E+00
5.530000E+03	6.678035E-18	0.000000E+00
5.540000E+03	6.734398E-18	0.000000E+00
5.550000E+03	6.789486E-18	0.000000E+00
5.560000E+03	6.843240E-18	0.000000E+00
5.570000E+03	6.895459E-18	0.000000E+00
5.580000E+03	6.946010E-18	0.000000E+00
5.590000E+03	6.994754E-18	0.000000E+00
5.600000E+03	7.041482E-18	0.000000E+00
5.610000E+03	7.086124E-18	0.000000E+00
5.620000E+03	7.128468E-18	0.000000E+00
5.630000E+03	7.168305E-18	0.000000E+00
5.640000E+03	7.205646E-18	0.000000E+00
5.650000E+03	7.240288E-18	0.000000E+00
5.660000E+03	7.272034E-18	0.000000E+00
5.670000E+03	7.300843E-18	0.000000E+00
5.680000E+03	7.326687E-18	0.000000E+00
5.690000E+03	7.349318E-18	0.000000E+00
5.700000E+03	7.368726E-18	0.000000E+00
5.710000E+03	7.384916E-18	0.000000E+00
5.720000E+03	7.397751E-18	0.000000E+00
5.730000E+03	7.407260E-18	0.000000E+00
5.740000E+03	7.413325E-18	0.000000E+00
5.750000E+03	7.416001E-18	0.000000E+00
5.760000E+03	7.415273E-18	0.000000E+00
5.770000E+03	7.411217E-18	0.000000E+00
5.780000E+03	7.403682E-18	0.000000E+00
5.790000E+03	7.392924E-18	0.000000E+00
5.800000E+03	7.378814E-18	0.000000E+00
5.810000E+03	7.361470E-18	0.000000E+00
5.820000E+03	7.340942E-18	0.000000E+00
5.830000E+03	7.317293E-18	0.000000E+00
5.840000E+03	7.290674E-18	0.000000E+00
5.850000E+03	7.261172E-18	0.000000E+00
5.860000E+03	7.228878E-18	0.000000E+00
5.870000E+03	7.193818E-18	0.000000E+00
5.880000E+03	7.156270E-18	0.000000E+00
5.890000E+03	7.116276E-18	0.000000E+00
5.900000E+03	7.074046E-18	0.000000E+00
5.910000E+03	7.029642E-18	0.000000E+00
5.920000E+03	6.983283E-18	0.000000E+00
5.930000E+03	6.935114E-18	0.000000E+00
5.940000E+03	6.885282E-18	0.000000E+00
5.950000E+03	6.833931E-18	0.000000E+00
5.960000E+03	6.781205E-18	0.000000E+00
5.970000E+03	6.727324E-18	0.000000E+00
5.980000E+03	6.672270E-18	0.000000E+00
5.990000E+03	6.616333E-18	0.000000E+00
6.000000E+03	6.559564E-18	0.000000E+00
6.010000E+03	6.502090E-18	0.000000E+00
6.020000E+03	6.444106E-18	0.000000E+00
6.030000E+03	6.385575E-18	0.000000E+00
6.040000E+03	6.326758E-18	0.000000E+00
6.050000E+03	6.267609E-18	0.000000E+00
6.060000E+03	6.208303E-18	0.000000E+00
6.070000E+03	6.148933E-18	0.000000E+00
6.080000E+03	6.089514E-18	0.000000E+00
6.090000E+03	6.030129E-18	0.000000E+00
6.100000E+03	5.970859E-18	0.000000E+00
6.110000E+03	5.911777E-18	0.000000E+00
6.120000E+03	5.852953E-18	0.000000E+00
6.130000E+03	5.794452E-18	0.000000E+00
6.140000E+03	5.736332E-18	0.000000E+00
6.150000E+03	5.678650E-18	0.000000E+00
6.160000E+03	5.621527E-18	0.000000E+00
6.170000E+03	5.565083E-18	0.000000E+00
6.180000E+03	5.509427E-18	0.000000E+00
6.190000E+03	5.454597E-18	0.000000E+00
6.200000E+03	5.400626E-18	0.000000E+00
6.210000E+03	5.347474E-18	0.000000E+00
6.220000E+03	5.295168E-18	0.000000E+00
6.230000E+03	5.243730E-18	0.000000E+00
6.240000E+03	5.193114E-18	0.000000E+00
6.250000E+03	5.143407E-18	0.000000E+00
6.260000E+03	5.094764E-18	0.000000E+00
6.270000E+03	5.047128E-18	0.000000E+00
6.280000E+03	5.000577E-18	0.000000E+00
6.290000E+03	4.955257E-18	0.000000E+00
6.300000E+03	4.911105E-18	0.000000E+00
6.310000E+03	4.868327E-18	0.000000E+00
6.320000E+03	4.826994E-18	0.000000E+00
6.330000E+03	4.787037E-18	0.000000E+00
6.340000E+03	4.748657E-18	0.000000E+00
6.350000E+03	4.711920E-18	0.000000E+00
6.360000E+03	4.676820E-18	0.000000E+00
6.370000E+03	4.643422E-18	0.000000E+00
6.380000E+03	4.611923E-18	0.000000E+00
6.390000E+03	4.582250E-18	0.000000E+00
6.400000E+03	4.554466E-18	0.000000E+00
6.410000E+03	4.528700E-18	0.000000E+00
6.420000E+03	4.504749E-18	0.000000E+00
6.430000E+03	4.482473E-18	0.000000E+00
6.440000E+03	4.461803E-18	0.000000E+00
6.450000E+03	4.442669E-18	0.000000E+00
6.460000E+03	4.424935E-18	0.000000E+00
6.470000E+03	4.408596E-18	0.000000E+00
6.480000E+03	4.393585E-18	0.000000E+00
6.490000E+03	4.379899E-18	0.000000E+00
6.500000E+03	4.367469E-18	0.000000E+00
6.510000E+03	4.356291E-18	0.000000E+00
6.520000E+03	4.346365E-18	0.000000E+00
6.530000E+03	4.337619E-18	0.000000E+00
6.540000E+03	4.330120E-18	0.000000E+00
6.550000E+03	4.323866E-18	0.000000E+00
6.560000E+03	4.318788E-18	0.000000E+00
6.570000E+03	4.314953E-18	0.000000E+00
6.580000E+03	4.312289E-18	0.000000E+00
6.590000E+03	4.310795E-18	0.000000E+00
6.600000E+03	4.310541E-18	0.000000E+00
6.610000E+03	4.311384E-18	0.000000E+00
6.620000E+03	4.313535E-18	0.000000E+00
6.630000E+03	4.316781E-18	0.000000E+00
6.640000E+03	4.321263E-18	0.000000E+00
6.650000E+03	4.326911E-18	0.000000E+00
6.660000E+03	4.333723E-18	0.000000E+00
6.670000E+03	4.341771E-18	0.000000E+00
6.680000E+03	4.350984E-18	0.000000E+00
6.690000E+03	4.361362E-18	0.000000E+00
6.700000E+03	4.372904E-18	0.000000E+00
6.710000E+03	4.385686E-18	0.000000E+00
6.720000E+03	4.399559E-18	0.000000E+00
6.730000E+03	4.414674E-18	0.000000E+00
6.740000E+03	4.430957E-18	0.000000E+00
6.750000E+03	4.448410E-18	0.000000E+00
6.760000E+03	4.467031E-18	0.000000E+00
6.770000E+03	4.486824E-18	0.000000E+00
6.780000E+03	4.507870E-18	0.000000E+00
6.790000E+03	4.530010E-18	0.000000E+00
6.800000E+03	4.553326E-18	0.000000E+00
6.810000E+03	4.577820E-18	0.000000E+00
6.820000E+03	4.603492E-18	0.000000E+00
6.830000E+03	4.630345E-18	0.000000E+00
6.840000E+03	4.658380E-18	0.000000E+00
6.850000E+03	4.687600E-18	0.000000E+00
6.860000E+03	4.717918E-18	0.000000E+00
6.870000E+03	4.749423E-18	0.000000E+00
6.880000E+03	4.782113E-18	0.000000E+00
6.890000E+03	4.815902E-18	0.000000E+00
6.900000E+03	4.850879E-18	0.000000E+00
6.910000E+03	4.887044E-18	0.000000E+00
6.920000E+03	4.924306E-18	0.000000E+00
6.930000E+03	4.962663E-18	0.000000E+00
6.940000E+03	5.002206E-18	0.000000E+00
6.950000E+03	5.042842E-18	0.000000E+00
6.960000E+03	5.084567E-18	0.000000E+00
6.970000E+03	5.127479E-18	0.000000E+00
6.980000E+03	5.171478E-18	0.000000E+00
6.990000E+03	5.216562E-18	0.000000E+00
7.000000E+03	5.262628E-18	0.000000E+00
7.010000E+03	5.309876E-18	0.000000E+00
7.020000E+03	5.358204E-18	0.000000E+00
7.030000E+03	5.407610E-18	0.000000E+00
7.040000E+03	5.457985E-18	0.000000E+00
7.050000E+03	5.509433E-18	0.000000E+00
7.060000E+03	5.561843E-18	0.000000E+00
7.070000E+03	5.615432E-18	0.000000E+00
7.080000E+03	5.669863E-18	0.000000E+00
7.090000E+03	5.725357E-18	0.000000E+00
7.100000E+03	5.781798E-18	0.000000E+00
7.110000E+03	5.839297E-18	0.000000E+00
7.120000E+03	5.897615E-18	0.000000E+00
7.130000E+03	5.956984E-18	0.000000E+00
7.140000E+03	6.017158E-18	0.000000E+00
7.150000E+03	6.078251E-18	0.000000E+00
7.160000E+03	6.140259E-18	0.000000E+00
7.170000E+03	6.203175E-18	0.000000E+00
7.180000E+03	6.266864E-18	0.000000E+00
7.190000E+03	6.331313E-18	0.000000E+00
7.200000E+03	6.396647E-18	0.000000E+00
7.210000E+03	6.462722E-18	0.000000E+00
7.220000E+03	6.529666E-18	0.000000E+00
7.230000E+03	6.597189E-18	0.000000E+00
7.240000E+03	6.665561E-18	0.000000E+00
7.250000E+03	6.734626E-18	0.000000E+00
7.260000E+03	6.804371E-18	0.000000E+00
7.270000E+03	6.874783E-18	0.000000E+00
7.280000E+03	6.945845E-18	0.000000E+00
7.290000E+03	7.017539E-18	0.000000E+00
7.300000E+03	7.090007E-18	0.000000E+00
7.310000E+03	7.162918E-18	0.000000E+00
7.320000E+03	7.236730E-18	0.000000E+00
7.330000E+03	7.311273E-18	0.000000E+00
7.340000E+03	7.386365E-18	0.000000E+00
7.350000E+03	7.462491E-18	0.000000E+00
7.360000E+03	7.539304E-18	0.000000E+00
7.370000E+03	7.617311E-18	0.000000E+00
7.380000E+03	7.696338E-18	0.000000E+00
7.390000E+03	7.776561E-18	0.000000E+00
7.400000E+03	7.858165E-18	0.000000E+00
7.410000E+03	7.941163E-18	0.000000E+00
7.420000E+03	8.025939E-18	0.000000E+00
7.430000E+03	8.112715E-18	0.000000E+00
7.440000E+03	8.201332E-18	0.000000E+00
7.450000E+03	8.291821E-18	0.000000E+00
7.460000E+03	8.384210E-18	0.000000E+00
7.470000E+03	8.478328E-18	0.000000E+00
7.480000E+03	8.573991E-18	0.000000E+00
7.490000E+03	8.670999E-18	0.000000E+00
7.500000E+03	8.769356E-18	0.000000E+00
7.510000E+03	8.868850E-18	0.000000E+00
7.520000E+03	8.969252E-18	0.000000E+00
7.530000E+03	9.070766E-18	0.000000E+00
7.540000E+03	9.172931E-18	0.000000E+00
7.550000E+03	9.275720E-18	0.000000E+00
7.560000E+03	9.379099E-18	0.000000E+00
7.570000E+03	9.483035E-18	0.000000E+00
7.580000E+03	9.587496E-18	0.000000E+00
7.590000E+03	9.692201E-18	0.000000E+00
7.600000E+03	9.797103E-18	0.000000E+00
7.610000E+03	9.902398E-18	0.000000E+00
7.620000E+03	1.000779E-17	0.000000E+00
7.630000E+03	1.011348E-17	0.000000E+00
7.640000E+03	1.021889E-17	0.000000E+00
7.650000E+03	1.032447E-17	0.000000E+00
7.660000E+03	1.042989E-17	0.000000E+00
7.670000E+03	1.053508E-17	0.000000E+00
7.680000E+03	1.063997E-17	0.000000E+00
7.690000E+03	1.074474E-17	0.000000E+00
7.700000E+03	1.084903E-17	0.000000E+00
7.710000E+03	1.095275E-17	0.000000E+00
7.720000E+03	1.105609E-17	0.000000E+00
7.730000E+03	1.115897E-17	0.000000E+00
7.740000E+03	1.126099E-17	0.000000E+00
7.750000E+03	1.136233E-17	0.000000E+00
7.760000E+03	1.146291E-17	0.000000E+00
