#wls	flux	fluxerr
1.600000E+03	1.084851E-16	0.000000E+00
1.640000E+03	1.123673E-16	0.000000E+00
1.680000E+03	1.161952E-16	0.000000E+00
1.720000E+03	1.199517E-16	0.000000E+00
1.760000E+03	1.235914E-16	0.000000E+00
1.800000E+03	1.271151E-16	0.000000E+00
1.840000E+03	1.304583E-16	0.000000E+00
1.880000E+03	1.336027E-16	0.000000E+00
1.920000E+03	1.365017E-16	0.000000E+00
1.960000E+03	1.391193E-16	0.000000E+00
2.000000E+03	1.414046E-16	0.000000E+00
2.040000E+03	1.433178E-16	0.000000E+00
2.080000E+03	1.448074E-16	0.000000E+00
2.120000E+03	1.458337E-16	0.000000E+00
2.160000E+03	1.463384E-16	0.000000E+00
2.200000E+03	1.462889E-16	0.000000E+00
2.240000E+03	1.456476E-16	0.000000E+00
2.280000E+03	1.444115E-16	0.000000E+00
2.320000E+03	1.425898E-16	0.000000E+00
2.360000E+03	1.401852E-16	0.000000E+00
2.400000E+03	1.372279E-16	0.000000E+00
2.440000E+03	1.337411E-16	0.000000E+00
2.480000E+03	1.297501E-16	0.000000E+00
2.520000E+03	1.252841E-16	0.000000E+00
2.560000E+03	1.203709E-16	0.000000E+00
2.600000E+03	1.150558E-16	0.000000E+00
2.640000E+03	1.093791E-16	0.000000E+00
2.680000E+03	1.033849E-16	0.000000E+00
2.720000E+03	9.713121E-17	0.000000E+00
2.760000E+03	9.067315E-17	0.000000E+00
2.800000E+03	8.407419E-17	0.000000E+00
2.840000E+03	7.740261E-17	0.000000E+00
2.880000E+03	7.073389E-17	0.000000E+00
2.920000E+03	6.416573E-17	0.000000E+00
2.960000E+03	5.780033E-17	0.000000E+00
3.000000E+03	5.173328E-17	0.000000E+00
3.010000E+03	5.027199E-17	0.000000E+00
3.020000E+03	4.883626E-17	0.000000E+00
3.030000E+03	4.742413E-17	0.000000E+00
3.040000E+03	4.603938E-17	0.000000E+00
3.050000E+03	4.468111E-17	0.000000E+00
3.060000E+03	4.334960E-17	0.000000E+00
3.070000E+03	4.204605E-17	0.000000E+00
3.080000E+03	4.077146E-17	0.000000E+00
3.090000E+03	3.952499E-17	0.000000E+00
3.100000E+03	3.830837E-17	0.000000E+00
3.110000E+03	3.712068E-17	0.000000E+00
3.120000E+03	3.596266E-17	0.000000E+00
3.130000E+03	3.483485E-17	0.000000E+00
3.140000E+03	3.373700E-17	0.000000E+00
3.150000E+03	3.266823E-17	0.000000E+00
3.160000E+03	3.163020E-17	0.000000E+00
3.170000E+03	3.062128E-17	0.000000E+00
3.180000E+03	2.964230E-17	0.000000E+00
3.190000E+03	2.869281E-17	0.000000E+00
3.200000E+03	2.777233E-17	0.000000E+00
3.210000E+03	2.688042E-17	0.000000E+00
3.220000E+03	2.601750E-17	0.000000E+00
3.230000E+03	2.518254E-17	0.000000E+00
3.240000E+03	2.437497E-17	0.000000E+00
3.250000E+03	2.359465E-17	0.000000E+00
3.260000E+03	2.284135E-17	0.000000E+00
3.270000E+03	2.211403E-17	0.000000E+00
3.280000E+03	2.141244E-17	0.000000E+00
3.290000E+03	2.073591E-17	0.000000E+00
3.300000E+03	2.008411E-17	0.000000E+00
3.310000E+03	1.945604E-17	0.000000E+00
3.320000E+03	1.885108E-17	0.000000E+00
3.330000E+03	1.826912E-17	0.000000E+00
3.340000E+03	1.770895E-17	0.000000E+00
3.350000E+03	1.717018E-17	0.000000E+00
3.360000E+03	1.665241E-17	0.000000E+00
3.370000E+03	1.615454E-17	0.000000E+00
3.380000E+03	1.567637E-17	0.000000E+00
3.390000E+03	1.521689E-17	0.000000E+00
3.400000E+03	1.477549E-17	0.000000E+00
3.410000E+03	1.435182E-17	0.000000E+00
3.420000E+03	1.394510E-17	0.000000E+00
3.430000E+03	1.355480E-17	0.000000E+00
3.440000E+03	1.318006E-17	0.000000E+00
3.450000E+03	1.282056E-17	0.000000E+00
3.460000E+03	1.247565E-17	0.000000E+00
3.470000E+03	1.214459E-17	0.000000E+00
3.480000E+03	1.182696E-17	0.000000E+00
3.490000E+03	1.152208E-17	0.000000E+00
3.500000E+03	1.122945E-17	0.000000E+00
3.510000E+03	1.094860E-17	0.000000E+00
3.520000E+03	1.067885E-17	0.000000E+00
3.530000E+03	1.041955E-17	0.000000E+00
3.540000E+03	1.017004E-17	0.000000E+00
3.550000E+03	9.929583E-18	0.000000E+00
3.560000E+03	9.697542E-18	0.000000E+00
3.570000E+03	9.473319E-18	0.000000E+00
3.580000E+03	9.256285E-18	0.000000E+00
3.590000E+03	9.045878E-18	0.000000E+00
3.600000E+03	8.841750E-18	0.000000E+00
3.610000E+03	8.643336E-18	0.000000E+00
3.620000E+03	8.450357E-18	0.000000E+00
3.630000E+03	8.262852E-18	0.000000E+00
3.640000E+03	8.080686E-18	0.000000E+00
3.650000E+03	7.903861E-18	0.000000E+00
3.660000E+03	7.732357E-18	0.000000E+00
3.670000E+03	7.566199E-18	0.000000E+00
3.680000E+03	7.405323E-18	0.000000E+00
3.690000E+03	7.249592E-18	0.000000E+00
3.700000E+03	7.099105E-18	0.000000E+00
3.710000E+03	6.953635E-18	0.000000E+00
3.720000E+03	6.813190E-18	0.000000E+00
3.730000E+03	6.677650E-18	0.000000E+00
3.740000E+03	6.546942E-18	0.000000E+00
3.750000E+03	6.420934E-18	0.000000E+00
3.760000E+03	6.299489E-18	0.000000E+00
3.770000E+03	6.182573E-18	0.000000E+00
3.780000E+03	6.070040E-18	0.000000E+00
3.790000E+03	5.961797E-18	0.000000E+00
3.800000E+03	5.857651E-18	0.000000E+00
3.810000E+03	5.757601E-18	0.000000E+00
3.820000E+03	5.661455E-18	0.000000E+00
3.830000E+03	5.569160E-18	0.000000E+00
3.840000E+03	5.480531E-18	0.000000E+00
3.850000E+03	5.395559E-18	0.000000E+00
3.860000E+03	5.314021E-18	0.000000E+00
3.870000E+03	5.235906E-18	0.000000E+00
3.880000E+03	5.161081E-18	0.000000E+00
3.890000E+03	5.089419E-18	0.000000E+00
3.900000E+03	5.020829E-18	0.000000E+00
3.910000E+03	4.955229E-18	0.000000E+00
3.920000E+03	4.892534E-18	0.000000E+00
3.930000E+03	4.832628E-18	0.000000E+00
3.940000E+03	4.775396E-18	0.000000E+00
3.950000E+03	4.720800E-18	0.000000E+00
3.960000E+03	4.668768E-18	0.000000E+00
3.970000E+03	4.619122E-18	0.000000E+00
3.980000E+03	4.571870E-18	0.000000E+00
3.990000E+03	4.526909E-18	0.000000E+00
4.000000E+03	4.484180E-18	0.000000E+00
4.010000E+03	4.443555E-18	0.000000E+00
4.020000E+03	4.404979E-18	0.000000E+00
4.030000E+03	4.368432E-18	0.000000E+00
4.040000E+03	4.333795E-18	0.000000E+00
4.050000E+03	4.301022E-18	0.000000E+00
4.060000E+03	4.270034E-18	0.000000E+00
4.070000E+03	4.240785E-18	0.000000E+00
4.080000E+03	4.213203E-18	0.000000E+00
4.090000E+03	4.187249E-18	0.000000E+00
4.100000E+03	4.162854E-18	0.000000E+00
4.110000E+03	4.139950E-18	0.000000E+00
4.120000E+03	4.118506E-18	0.000000E+00
4.130000E+03	4.098490E-18	0.000000E+00
4.140000E+03	4.079810E-18	0.000000E+00
4.150000E+03	4.062471E-18	0.000000E+00
4.160000E+03	4.046385E-18	0.000000E+00
4.170000E+03	4.031528E-18	0.000000E+00
4.180000E+03	4.017877E-18	0.000000E+00
4.190000E+03	4.005383E-18	0.000000E+00
4.200000E+03	3.993995E-18	0.000000E+00
4.210000E+03	3.983697E-18	0.000000E+00
4.220000E+03	3.974440E-18	0.000000E+00
4.230000E+03	3.966213E-18	0.000000E+00
4.240000E+03	3.959002E-18	0.000000E+00
4.250000E+03	3.952763E-18	0.000000E+00
4.260000E+03	3.947427E-18	0.000000E+00
4.270000E+03	3.943047E-18	0.000000E+00
4.280000E+03	3.939552E-18	0.000000E+00
4.290000E+03	3.936938E-18	0.000000E+00
4.300000E+03	3.935138E-18	0.000000E+00
4.310000E+03	3.934179E-18	0.000000E+00
4.320000E+03	3.934030E-18	0.000000E+00
4.330000E+03	3.934655E-18	0.000000E+00
4.340000E+03	3.936058E-18	0.000000E+00
4.350000E+03	3.938208E-18	0.000000E+00
4.360000E+03	3.941170E-18	0.000000E+00
4.370000E+03	3.944885E-18	0.000000E+00
4.380000E+03	3.949360E-18	0.000000E+00
4.390000E+03	3.954600E-18	0.000000E+00
4.400000E+03	3.960552E-18	0.000000E+00
4.410000E+03	3.967223E-18	0.000000E+00
4.420000E+03	3.974594E-18	0.000000E+00
4.430000E+03	3.982611E-18	0.000000E+00
4.440000E+03	3.991319E-18	0.000000E+00
4.450000E+03	4.000667E-18	0.000000E+00
4.460000E+03	4.010639E-18	0.000000E+00
4.470000E+03	4.021183E-18	0.000000E+00
4.480000E+03	4.032351E-18	0.000000E+00
4.490000E+03	4.044126E-18	0.000000E+00
4.500000E+03	4.056431E-18	0.000000E+00
4.510000E+03	4.069318E-18	0.000000E+00
4.520000E+03	4.082740E-18	0.000000E+00
4.530000E+03	4.096687E-18	0.000000E+00
4.540000E+03	4.111183E-18	0.000000E+00
4.550000E+03	4.126216E-18	0.000000E+00
4.560000E+03	4.141745E-18	0.000000E+00
4.570000E+03	4.157762E-18	0.000000E+00
4.580000E+03	4.174293E-18	0.000000E+00
4.590000E+03	4.191332E-18	0.000000E+00
4.600000E+03	4.208804E-18	0.000000E+00
4.610000E+03	4.226773E-18	0.000000E+00
4.620000E+03	4.245234E-18	0.000000E+00
4.630000E+03	4.264113E-18	0.000000E+00
4.640000E+03	4.283440E-18	0.000000E+00
4.650000E+03	4.303215E-18	0.000000E+00
4.660000E+03	4.323394E-18	0.000000E+00
4.670000E+03	4.344051E-18	0.000000E+00
4.680000E+03	4.365147E-18	0.000000E+00
4.690000E+03	4.386719E-18	0.000000E+00
4.700000E+03	4.408766E-18	0.000000E+00
4.710000E+03	4.431328E-18	0.000000E+00
4.720000E+03	4.454368E-18	0.000000E+00
4.730000E+03	4.477964E-18	0.000000E+00
4.740000E+03	4.502080E-18	0.000000E+00
4.750000E+03	4.526839E-18	0.000000E+00
4.760000E+03	4.552168E-18	0.000000E+00
4.770000E+03	4.578108E-18	0.000000E+00
4.780000E+03	4.604750E-18	0.000000E+00
4.790000E+03	4.632060E-18	0.000000E+00
4.800000E+03	4.660129E-18	0.000000E+00
4.810000E+03	4.688882E-18	0.000000E+00
4.820000E+03	4.718413E-18	0.000000E+00
4.830000E+03	4.748731E-18	0.000000E+00
4.840000E+03	4.779805E-18	0.000000E+00
4.850000E+03	4.811690E-18	0.000000E+00
4.860000E+03	4.844439E-18	0.000000E+00
4.870000E+03	4.877977E-18	0.000000E+00
4.880000E+03	4.912361E-18	0.000000E+00
4.890000E+03	4.947646E-18	0.000000E+00
4.900000E+03	4.983756E-18	0.000000E+00
4.910000E+03	5.020749E-18	0.000000E+00
4.920000E+03	5.058635E-18	0.000000E+00
4.930000E+03	5.097429E-18	0.000000E+00
4.940000E+03	5.137141E-18	0.000000E+00
4.950000E+03	5.177738E-18	0.000000E+00
4.960000E+03	5.219279E-18	0.000000E+00
4.970000E+03	5.261727E-18	0.000000E+00
4.980000E+03	5.305094E-18	0.000000E+00
4.990000E+03	5.349390E-18	0.000000E+00
5.000000E+03	5.394626E-18	0.000000E+00
5.010000E+03	5.440812E-18	0.000000E+00
5.020000E+03	5.487957E-18	0.000000E+00
5.030000E+03	5.536020E-18	0.000000E+00
5.040000E+03	5.585009E-18	0.000000E+00
5.050000E+03	5.634931E-18	0.000000E+00
5.060000E+03	5.685792E-18	0.000000E+00
5.070000E+03	5.737599E-18	0.000000E+00
5.080000E+03	5.790360E-18	0.000000E+00
5.090000E+03	5.843965E-18	0.000000E+00
5.100000E+03	5.898531E-18	0.000000E+00
5.110000E+03	5.954061E-18	0.000000E+00
5.120000E+03	6.010443E-18	0.000000E+00
5.130000E+03	6.067677E-18	0.000000E+00
5.140000E+03	6.125820E-18	0.000000E+00
5.150000E+03	6.184871E-18	0.000000E+00
5.160000E+03	6.244707E-18	0.000000E+00
5.170000E+03	6.305385E-18	0.000000E+00
5.180000E+03	6.366958E-18	0.000000E+00
5.190000E+03	6.429298E-18	0.000000E+00
5.200000E+03	6.492396E-18	0.000000E+00
5.210000E+03	6.556240E-18	0.000000E+00
5.220000E+03	6.620881E-18	0.000000E+00
5.230000E+03	6.686243E-18	0.000000E+00
5.240000E+03	6.752310E-18	0.000000E+00
5.250000E+03	6.818997E-18	0.000000E+00
5.260000E+03	6.886351E-18	0.000000E+00
5.270000E+03	6.954350E-18	0.000000E+00
5.280000E+03	7.022905E-18	0.000000E+00
5.290000E+03	7.092054E-18	0.000000E+00
5.300000E+03	7.161702E-18	0.000000E+00
5.310000E+03	7.231818E-18	0.000000E+00
5.320000E+03	7.302437E-18	0.000000E+00
5.330000E+03	7.373453E-18	0.000000E+00
5.340000E+03	7.444826E-18	0.000000E+00
5.350000E+03	7.516516E-18	0.000000E+00
5.360000E+03	7.588476E-18	0.000000E+00
5.370000E+03	7.660659E-18	0.000000E+00
5.380000E+03	7.733015E-18	0.000000E+00
5.390000E+03	7.805489E-18	0.000000E+00
5.400000E+03	7.877947E-18	0.000000E+00
5.410000E+03	7.950326E-18	0.000000E+00
5.420000E+03	8.022642E-18	0.000000E+00
5.430000E+03	8.094749E-18	0.000000E+00
5.440000E+03	8.166574E-18	0.000000E+00
5.450000E+03	8.237961E-18	0.000000E+00
5.460000E+03	8.308916E-18	0.000000E+00
5.470000E+03	8.379188E-18	0.000000E+00
5.480000E+03	8.448862E-18	0.000000E+00
5.490000E+03	8.517596E-18	0.000000E+00
5.500000E+03	8.585382E-18	0.000000E+00
5.510000E+03	8.652126E-18	0.000000E+00
5.520000E+03	8.717645E-18	0.000000E+00
5.530000E+03	8.781839E-18	0.000000E+00
5.540000E+03	8.844520E-18	0.000000E+00
5.550000E+03	8.905583E-18	0.000000E+00
5.560000E+03	8.964925E-18	0.000000E+00
5.570000E+03	9.022444E-18	0.000000E+00
5.580000E+03	9.077943E-18	0.000000E+00
5.590000E+03	9.131320E-18	0.000000E+00
5.600000E+03	9.182471E-18	0.000000E+00
5.610000E+03	9.231297E-18	0.000000E+00
5.620000E+03	9.277606E-18	0.000000E+00
5.630000E+03	9.321301E-18	0.000000E+00
5.640000E+03	9.362387E-18	0.000000E+00
5.650000E+03	9.400681E-18	0.000000E+00
5.660000E+03	9.436000E-18	0.000000E+00
5.670000E+03	9.468469E-18	0.000000E+00
5.680000E+03	9.498002E-18	0.000000E+00
5.690000E+03	9.524350E-18	0.000000E+00
5.700000E+03	9.547549E-18	0.000000E+00
5.710000E+03	9.567648E-18	0.000000E+00
5.720000E+03	9.584494E-18	0.000000E+00
5.730000E+03	9.598060E-18	0.000000E+00
5.740000E+03	9.608422E-18	0.000000E+00
5.750000E+03	9.615446E-18	0.000000E+00
5.760000E+03	9.619322E-18	0.000000E+00
5.770000E+03	9.619861E-18	0.000000E+00
5.780000E+03	9.617157E-18	0.000000E+00
5.790000E+03	9.611220E-18	0.000000E+00
5.800000E+03	9.602182E-18	0.000000E+00
5.810000E+03	9.589968E-18	0.000000E+00
5.820000E+03	9.574710E-18	0.000000E+00
5.830000E+03	9.556473E-18	0.000000E+00
5.840000E+03	9.535184E-18	0.000000E+00
5.850000E+03	9.511115E-18	0.000000E+00
5.860000E+03	9.484238E-18	0.000000E+00
5.870000E+03	9.454723E-18	0.000000E+00
5.880000E+03	9.422535E-18	0.000000E+00
5.890000E+03	9.387874E-18	0.000000E+00
5.900000E+03	9.350821E-18	0.000000E+00
5.910000E+03	9.311469E-18	0.000000E+00
5.920000E+03	9.270019E-18	0.000000E+00
5.930000E+03	9.226354E-18	0.000000E+00
5.940000E+03	9.180789E-18	0.000000E+00
5.950000E+03	9.133425E-18	0.000000E+00
5.960000E+03	9.084365E-18	0.000000E+00
5.970000E+03	9.033608E-18	0.000000E+00
5.980000E+03	8.981363E-18	0.000000E+00
5.990000E+03	8.927842E-18	0.000000E+00
6.000000E+03	8.872936E-18	0.000000E+00
6.010000E+03	8.816959E-18	0.000000E+00
6.020000E+03	8.759905E-18	0.000000E+00
6.030000E+03	8.701981E-18	0.000000E+00
6.040000E+03	8.643072E-18	0.000000E+00
6.050000E+03	8.583483E-18	0.000000E+00
6.060000E+03	8.523306E-18	0.000000E+00
6.070000E+03	8.462524E-18	0.000000E+00
6.080000E+03	8.401224E-18	0.000000E+00
6.090000E+03	8.339592E-18	0.000000E+00
6.100000E+03	8.277602E-18	0.000000E+00
6.110000E+03	8.215435E-18	0.000000E+00
6.120000E+03	8.153056E-18	0.000000E+00
6.130000E+03	8.090638E-18	0.000000E+00
6.140000E+03	8.028348E-18	0.000000E+00
6.150000E+03	7.966142E-18	0.000000E+00
6.160000E+03	7.904181E-18	0.000000E+00
6.170000E+03	7.842719E-18	0.000000E+00
6.180000E+03	7.781806E-18	0.000000E+00
6.190000E+03	7.721586E-18	0.000000E+00
6.200000E+03	7.662002E-18	0.000000E+00
6.210000E+03	7.603090E-18	0.000000E+00
6.220000E+03	7.544785E-18	0.000000E+00
6.230000E+03	7.487121E-18	0.000000E+00
6.240000E+03	7.430231E-18	0.000000E+00
6.250000E+03	7.374040E-18	0.000000E+00
6.260000E+03	7.318575E-18	0.000000E+00
6.270000E+03	7.263961E-18	0.000000E+00
6.280000E+03	7.210320E-18	0.000000E+00
6.290000E+03	7.157669E-18	0.000000E+00
6.300000E+03	7.106028E-18	0.000000E+00
6.310000E+03	7.055713E-18	0.000000E+00
6.320000E+03	7.006538E-18	0.000000E+00
6.330000E+03	6.958913E-18	0.000000E+00
6.340000E+03	6.912752E-18	0.000000E+00
6.350000E+03	6.868164E-18	0.000000E+00
6.360000E+03	6.825459E-18	0.000000E+00
6.370000E+03	6.784644E-18	0.000000E+00
6.380000E+03	6.745829E-18	0.000000E+00
6.390000E+03	6.709121E-18	0.000000E+00
6.400000E+03	6.674730E-18	0.000000E+00
6.410000E+03	6.642564E-18	0.000000E+00
6.420000E+03	6.612433E-18	0.000000E+00
6.430000E+03	6.584248E-18	0.000000E+00
6.440000E+03	6.557920E-18	0.000000E+00
6.450000E+03	6.533358E-18	0.000000E+00
6.460000E+03	6.510372E-18	0.000000E+00
6.470000E+03	6.488874E-18	0.000000E+00
6.480000E+03	6.468770E-18	0.000000E+00
6.490000E+03	6.450071E-18	0.000000E+00
6.500000E+03	6.432685E-18	0.000000E+00
6.510000E+03	6.416519E-18	0.000000E+00
6.520000E+03	6.401681E-18	0.000000E+00
6.530000E+03	6.387978E-18	0.000000E+00
6.540000E+03	6.375517E-18	0.000000E+00
6.550000E+03	6.364203E-18	0.000000E+00
6.560000E+03	6.354142E-18	0.000000E+00
6.570000E+03	6.345238E-18	0.000000E+00
6.580000E+03	6.337496E-18	0.000000E+00
6.590000E+03	6.330919E-18	0.000000E+00
6.600000E+03	6.325615E-18	0.000000E+00
6.610000E+03	6.321379E-18	0.000000E+00
6.620000E+03	6.318420E-18	0.000000E+00
6.630000E+03	6.316636E-18	0.000000E+00
6.640000E+03	6.316029E-18	0.000000E+00
6.650000E+03	6.316705E-18	0.000000E+00
6.660000E+03	6.318452E-18	0.000000E+00
6.670000E+03	6.321482E-18	0.000000E+00
6.680000E+03	6.325687E-18	0.000000E+00
6.690000E+03	6.331065E-18	0.000000E+00
6.700000E+03	6.337722E-18	0.000000E+00
6.710000E+03	6.345549E-18	0.000000E+00
6.720000E+03	6.354540E-18	0.000000E+00
6.730000E+03	6.364692E-18	0.000000E+00
6.740000E+03	6.376110E-18	0.000000E+00
6.750000E+03	6.388680E-18	0.000000E+00
6.760000E+03	6.402394E-18	0.000000E+00
6.770000E+03	6.417359E-18	0.000000E+00
6.780000E+03	6.433457E-18	0.000000E+00
6.790000E+03	6.450678E-18	0.000000E+00
6.800000E+03	6.469130E-18	0.000000E+00
6.810000E+03	6.488573E-18	0.000000E+00
6.820000E+03	6.509229E-18	0.000000E+00
6.830000E+03	6.531088E-18	0.000000E+00
6.840000E+03	6.553907E-18	0.000000E+00
6.850000E+03	6.577909E-18	0.000000E+00
6.860000E+03	6.602963E-18	0.000000E+00
6.870000E+03	6.629059E-18	0.000000E+00
6.880000E+03	6.656183E-18	0.000000E+00
6.890000E+03	6.684320E-18	0.000000E+00
6.900000E+03	6.713582E-18	0.000000E+00
6.910000E+03	6.743708E-18	0.000000E+00
6.920000E+03	6.774933E-18	0.000000E+00
6.930000E+03	6.806992E-18	0.000000E+00
6.940000E+03	6.840125E-18	0.000000E+00
6.950000E+03	6.874061E-18	0.000000E+00
6.960000E+03	6.909047E-18	0.000000E+00
6.970000E+03	6.944809E-18	0.000000E+00
6.980000E+03	6.981464E-18	0.000000E+00
6.990000E+03	7.018999E-18	0.000000E+00
7.000000E+03	7.057266E-18	0.000000E+00
7.010000E+03	7.096528E-18	0.000000E+00
7.020000E+03	7.136500E-18	0.000000E+00
7.030000E+03	7.177167E-18	0.000000E+00
7.040000E+03	7.218660E-18	0.000000E+00
7.050000E+03	7.260970E-18	0.000000E+00
7.060000E+03	7.303945E-18	0.000000E+00
7.070000E+03	7.347577E-18	0.000000E+00
7.080000E+03	7.392001E-18	0.000000E+00
7.090000E+03	7.437065E-18	0.000000E+00
7.100000E+03	7.482760E-18	0.000000E+00
7.110000E+03	7.529078E-18	0.000000E+00
7.120000E+03	7.576166E-18	0.000000E+00
7.130000E+03	7.623710E-18	0.000000E+00
7.140000E+03	7.672016E-18	0.000000E+00
7.150000E+03	7.720763E-18	0.000000E+00
7.160000E+03	7.770102E-18	0.000000E+00
7.170000E+03	7.820027E-18	0.000000E+00
7.180000E+03	7.870534E-18	0.000000E+00
7.190000E+03	7.921453E-18	0.000000E+00
7.200000E+03	7.972940E-18	0.000000E+00
7.210000E+03	8.024990E-18	0.000000E+00
7.220000E+03	8.077429E-18	0.000000E+00
7.230000E+03	8.130243E-18	0.000000E+00
7.240000E+03	8.183599E-18	0.000000E+00
7.250000E+03	8.237313E-18	0.000000E+00
7.260000E+03	8.291374E-18	0.000000E+00
7.270000E+03	8.345950E-18	0.000000E+00
7.280000E+03	8.400850E-18	0.000000E+00
7.290000E+03	8.456061E-18	0.000000E+00
7.300000E+03	8.511943E-18	0.000000E+00
7.310000E+03	8.567924E-18	0.000000E+00
7.320000E+03	8.624557E-18	0.000000E+00
7.330000E+03	8.681447E-18	0.000000E+00
7.340000E+03	8.738971E-18	0.000000E+00
7.350000E+03	8.796921E-18	0.000000E+00
7.360000E+03	8.855485E-18	0.000000E+00
7.370000E+03	8.914858E-18	0.000000E+00
7.380000E+03	8.974830E-18	0.000000E+00
7.390000E+03	9.036015E-18	0.000000E+00
7.400000E+03	9.098212E-18	0.000000E+00
7.410000E+03	9.161420E-18	0.000000E+00
7.420000E+03	9.226507E-18	0.000000E+00
7.430000E+03	9.292843E-18	0.000000E+00
7.440000E+03	9.361097E-18	0.000000E+00
7.450000E+03	9.431297E-18	0.000000E+00
7.460000E+03	9.503013E-18	0.000000E+00
7.470000E+03	9.576033E-18	0.000000E+00
7.480000E+03	9.650339E-18	0.000000E+00
7.490000E+03	9.725714E-18	0.000000E+00
7.500000E+03	9.802128E-18	0.000000E+00
7.510000E+03	9.879346E-18	0.000000E+00
7.520000E+03	9.957084E-18	0.000000E+00
7.530000E+03	1.003531E-17	0.000000E+00
7.540000E+03	1.011401E-17	0.000000E+00
7.550000E+03	1.019285E-17	0.000000E+00
7.560000E+03	1.027207E-17	0.000000E+00
7.570000E+03	1.035110E-17	0.000000E+00
7.580000E+03	1.043040E-17	0.000000E+00
7.590000E+03	1.050965E-17	0.000000E+00
7.600000E+03	1.058854E-17	0.000000E+00
7.610000E+03	1.066726E-17	0.000000E+00
7.620000E+03	1.074548E-17	0.000000E+00
7.630000E+03	1.082339E-17	0.000000E+00
7.640000E+03	1.090094E-17	0.000000E+00
7.650000E+03	1.097776E-17	0.000000E+00
7.660000E+03	1.105407E-17	0.000000E+00
7.670000E+03	1.112950E-17	0.000000E+00
7.680000E+03	1.120427E-17	0.000000E+00
7.690000E+03	1.127830E-17	0.000000E+00
7.700000E+03	1.135119E-17	0.000000E+00
7.710000E+03	1.142318E-17	0.000000E+00
7.720000E+03	1.149418E-17	0.000000E+00
7.730000E+03	1.156410E-17	0.000000E+00
7.740000E+03	1.163288E-17	0.000000E+00
7.750000E+03	1.170039E-17	0.000000E+00
7.760000E+03	1.176659E-17	0.000000E+00
