#wls	flux	fluxerr
1.600000E+03	1.001567E-16	0.000000E+00
1.640000E+03	1.037344E-16	0.000000E+00
1.680000E+03	1.072717E-16	0.000000E+00
1.720000E+03	1.107547E-16	0.000000E+00
1.760000E+03	1.141428E-16	0.000000E+00
1.800000E+03	1.174387E-16	0.000000E+00
1.840000E+03	1.205841E-16	0.000000E+00
1.880000E+03	1.235638E-16	0.000000E+00
1.920000E+03	1.263364E-16	0.000000E+00
1.960000E+03	1.288696E-16	0.000000E+00
2.000000E+03	1.311174E-16	0.000000E+00
2.040000E+03	1.330439E-16	0.000000E+00
2.080000E+03	1.346015E-16	0.000000E+00
2.120000E+03	1.357536E-16	0.000000E+00
2.160000E+03	1.364453E-16	0.000000E+00
2.200000E+03	1.366451E-16	0.000000E+00
2.240000E+03	1.363163E-16	0.000000E+00
2.280000E+03	1.354538E-16	0.000000E+00
2.320000E+03	1.340632E-16	0.000000E+00
2.360000E+03	1.321437E-16	0.000000E+00
2.400000E+03	1.297201E-16	0.000000E+00
2.440000E+03	1.268098E-16	0.000000E+00
2.480000E+03	1.234324E-16	0.000000E+00
2.520000E+03	1.196106E-16	0.000000E+00
2.560000E+03	1.153658E-16	0.000000E+00
2.600000E+03	1.107360E-16	0.000000E+00
2.640000E+03	1.057541E-16	0.000000E+00
2.680000E+03	1.004574E-16	0.000000E+00
2.720000E+03	9.489573E-17	0.000000E+00
2.760000E+03	8.911719E-17	0.000000E+00
2.800000E+03	8.317757E-17	0.000000E+00
2.840000E+03	7.713762E-17	0.000000E+00
2.880000E+03	7.106509E-17	0.000000E+00
2.920000E+03	6.505023E-17	0.000000E+00
2.960000E+03	5.918853E-17	0.000000E+00
3.000000E+03	5.357002E-17	0.000000E+00
3.010000E+03	5.221169E-17	0.000000E+00
3.020000E+03	5.087516E-17	0.000000E+00
3.030000E+03	4.955833E-17	0.000000E+00
3.040000E+03	4.826503E-17	0.000000E+00
3.050000E+03	4.699426E-17	0.000000E+00
3.060000E+03	4.574621E-17	0.000000E+00
3.070000E+03	4.452210E-17	0.000000E+00
3.080000E+03	4.332293E-17	0.000000E+00
3.090000E+03	4.214776E-17	0.000000E+00
3.100000E+03	4.099839E-17	0.000000E+00
3.110000E+03	3.987383E-17	0.000000E+00
3.120000E+03	3.877484E-17	0.000000E+00
3.130000E+03	3.770201E-17	0.000000E+00
3.140000E+03	3.665511E-17	0.000000E+00
3.150000E+03	3.563320E-17	0.000000E+00
3.160000E+03	3.463810E-17	0.000000E+00
3.170000E+03	3.366813E-17	0.000000E+00
3.180000E+03	3.272427E-17	0.000000E+00
3.190000E+03	3.180612E-17	0.000000E+00
3.200000E+03	3.091325E-17	0.000000E+00
3.210000E+03	3.004529E-17	0.000000E+00
3.220000E+03	2.920284E-17	0.000000E+00
3.230000E+03	2.838492E-17	0.000000E+00
3.240000E+03	2.759105E-17	0.000000E+00
3.250000E+03	2.682124E-17	0.000000E+00
3.260000E+03	2.607542E-17	0.000000E+00
3.270000E+03	2.535262E-17	0.000000E+00
3.280000E+03	2.465275E-17	0.000000E+00
3.290000E+03	2.397527E-17	0.000000E+00
3.300000E+03	2.332002E-17	0.000000E+00
3.310000E+03	2.268610E-17	0.000000E+00
3.320000E+03	2.207299E-17	0.000000E+00
3.330000E+03	2.148082E-17	0.000000E+00
3.340000E+03	2.090842E-17	0.000000E+00
3.350000E+03	2.035560E-17	0.000000E+00
3.360000E+03	1.982210E-17	0.000000E+00
3.370000E+03	1.930688E-17	0.000000E+00
3.380000E+03	1.880998E-17	0.000000E+00
3.390000E+03	1.833037E-17	0.000000E+00
3.400000E+03	1.786763E-17	0.000000E+00
3.410000E+03	1.742153E-17	0.000000E+00
3.420000E+03	1.699140E-17	0.000000E+00
3.430000E+03	1.657680E-17	0.000000E+00
3.440000E+03	1.617694E-17	0.000000E+00
3.450000E+03	1.579161E-17	0.000000E+00
3.460000E+03	1.542026E-17	0.000000E+00
3.470000E+03	1.506218E-17	0.000000E+00
3.480000E+03	1.471704E-17	0.000000E+00
3.490000E+03	1.438421E-17	0.000000E+00
3.500000E+03	1.406325E-17	0.000000E+00
3.510000E+03	1.375375E-17	0.000000E+00
3.520000E+03	1.345504E-17	0.000000E+00
3.530000E+03	1.316648E-17	0.000000E+00
3.540000E+03	1.288738E-17	0.000000E+00
3.550000E+03	1.261698E-17	0.000000E+00
3.560000E+03	1.235458E-17	0.000000E+00
3.570000E+03	1.209958E-17	0.000000E+00
3.580000E+03	1.185130E-17	0.000000E+00
3.590000E+03	1.160913E-17	0.000000E+00
3.600000E+03	1.137277E-17	0.000000E+00
3.610000E+03	1.114158E-17	0.000000E+00
3.620000E+03	1.091531E-17	0.000000E+00
3.630000E+03	1.069412E-17	0.000000E+00
3.640000E+03	1.047793E-17	0.000000E+00
3.650000E+03	1.026686E-17	0.000000E+00
3.660000E+03	1.006096E-17	0.000000E+00
3.670000E+03	9.860377E-18	0.000000E+00
3.680000E+03	9.665109E-18	0.000000E+00
3.690000E+03	9.475077E-18	0.000000E+00
3.700000E+03	9.290493E-18	0.000000E+00
3.710000E+03	9.111148E-18	0.000000E+00
3.720000E+03	8.937135E-18	0.000000E+00
3.730000E+03	8.768374E-18	0.000000E+00
3.740000E+03	8.604845E-18	0.000000E+00
3.750000E+03	8.446447E-18	0.000000E+00
3.760000E+03	8.293068E-18	0.000000E+00
3.770000E+03	8.144728E-18	0.000000E+00
3.780000E+03	8.001301E-18	0.000000E+00
3.790000E+03	7.862716E-18	0.000000E+00
3.800000E+03	7.728779E-18	0.000000E+00
3.810000E+03	7.599539E-18	0.000000E+00
3.820000E+03	7.474791E-18	0.000000E+00
3.830000E+03	7.354515E-18	0.000000E+00
3.840000E+03	7.238506E-18	0.000000E+00
3.850000E+03	7.126794E-18	0.000000E+00
3.860000E+03	7.019122E-18	0.000000E+00
3.870000E+03	6.915514E-18	0.000000E+00
3.880000E+03	6.815826E-18	0.000000E+00
3.890000E+03	6.719918E-18	0.000000E+00
3.900000E+03	6.627703E-18	0.000000E+00
3.910000E+03	6.539097E-18	0.000000E+00
3.920000E+03	6.454014E-18	0.000000E+00
3.930000E+03	6.372324E-18	0.000000E+00
3.940000E+03	6.293896E-18	0.000000E+00
3.950000E+03	6.218702E-18	0.000000E+00
3.960000E+03	6.146663E-18	0.000000E+00
3.970000E+03	6.077565E-18	0.000000E+00
3.980000E+03	6.011430E-18	0.000000E+00
3.990000E+03	5.948142E-18	0.000000E+00
4.000000E+03	5.887636E-18	0.000000E+00
4.010000E+03	5.829754E-18	0.000000E+00
4.020000E+03	5.774439E-18	0.000000E+00
4.030000E+03	5.721674E-18	0.000000E+00
4.040000E+03	5.671314E-18	0.000000E+00
4.050000E+03	5.623308E-18	0.000000E+00
4.060000E+03	5.577560E-18	0.000000E+00
4.070000E+03	5.534022E-18	0.000000E+00
4.080000E+03	5.492604E-18	0.000000E+00
4.090000E+03	5.453263E-18	0.000000E+00
4.100000E+03	5.415916E-18	0.000000E+00
4.110000E+03	5.380481E-18	0.000000E+00
4.120000E+03	5.346923E-18	0.000000E+00
4.130000E+03	5.315204E-18	0.000000E+00
4.140000E+03	5.285212E-18	0.000000E+00
4.150000E+03	5.256956E-18	0.000000E+00
4.160000E+03	5.230326E-18	0.000000E+00
4.170000E+03	5.205297E-18	0.000000E+00
4.180000E+03	5.181841E-18	0.000000E+00
4.190000E+03	5.159897E-18	0.000000E+00
4.200000E+03	5.139404E-18	0.000000E+00
4.210000E+03	5.120343E-18	0.000000E+00
4.220000E+03	5.102656E-18	0.000000E+00
4.230000E+03	5.086327E-18	0.000000E+00
4.240000E+03	5.071342E-18	0.000000E+00
4.250000E+03	5.057649E-18	0.000000E+00
4.260000E+03	5.045159E-18	0.000000E+00
4.270000E+03	5.033940E-18	0.000000E+00
4.280000E+03	5.023905E-18	0.000000E+00
4.290000E+03	5.015051E-18	0.000000E+00
4.300000E+03	5.007293E-18	0.000000E+00
4.310000E+03	5.000666E-18	0.000000E+00
4.320000E+03	4.995131E-18	0.000000E+00
4.330000E+03	4.990648E-18	0.000000E+00
4.340000E+03	4.987218E-18	0.000000E+00
4.350000E+03	4.984804E-18	0.000000E+00
4.360000E+03	4.983490E-18	0.000000E+00
4.370000E+03	4.983203E-18	0.000000E+00
4.380000E+03	4.983951E-18	0.000000E+00
4.390000E+03	4.985741E-18	0.000000E+00
4.400000E+03	4.988507E-18	0.000000E+00
4.410000E+03	4.992259E-18	0.000000E+00
4.420000E+03	4.996972E-18	0.000000E+00
4.430000E+03	5.002580E-18	0.000000E+00
4.440000E+03	5.009139E-18	0.000000E+00
4.450000E+03	5.016587E-18	0.000000E+00
4.460000E+03	5.024901E-18	0.000000E+00
4.470000E+03	5.034019E-18	0.000000E+00
4.480000E+03	5.044004E-18	0.000000E+00
4.490000E+03	5.054836E-18	0.000000E+00
4.500000E+03	5.066416E-18	0.000000E+00
4.510000E+03	5.078810E-18	0.000000E+00
4.520000E+03	5.091959E-18	0.000000E+00
4.530000E+03	5.105848E-18	0.000000E+00
4.540000E+03	5.120506E-18	0.000000E+00
4.550000E+03	5.135920E-18	0.000000E+00
4.560000E+03	5.152033E-18	0.000000E+00
4.570000E+03	5.168836E-18	0.000000E+00
4.580000E+03	5.186360E-18	0.000000E+00
4.590000E+03	5.204595E-18	0.000000E+00
4.600000E+03	5.223443E-18	0.000000E+00
4.610000E+03	5.242983E-18	0.000000E+00
4.620000E+03	5.263209E-18	0.000000E+00
4.630000E+03	5.284022E-18	0.000000E+00
4.640000E+03	5.305460E-18	0.000000E+00
4.650000E+03	5.327516E-18	0.000000E+00
4.660000E+03	5.350137E-18	0.000000E+00
4.670000E+03	5.373409E-18	0.000000E+00
4.680000E+03	5.397282E-18	0.000000E+00
4.690000E+03	5.421796E-18	0.000000E+00
4.700000E+03	5.446950E-18	0.000000E+00
4.710000E+03	5.472785E-18	0.000000E+00
4.720000E+03	5.499254E-18	0.000000E+00
4.730000E+03	5.526452E-18	0.000000E+00
4.740000E+03	5.554328E-18	0.000000E+00
4.750000E+03	5.583030E-18	0.000000E+00
4.760000E+03	5.612463E-18	0.000000E+00
4.770000E+03	5.642679E-18	0.000000E+00
4.780000E+03	5.673780E-18	0.000000E+00
4.790000E+03	5.705723E-18	0.000000E+00
4.800000E+03	5.738614E-18	0.000000E+00
4.810000E+03	5.772359E-18	0.000000E+00
4.820000E+03	5.807066E-18	0.000000E+00
4.830000E+03	5.842746E-18	0.000000E+00
4.840000E+03	5.879354E-18	0.000000E+00
4.850000E+03	5.916952E-18	0.000000E+00
4.860000E+03	5.955602E-18	0.000000E+00
4.870000E+03	5.995209E-18	0.000000E+00
4.880000E+03	6.035835E-18	0.000000E+00
4.890000E+03	6.077546E-18	0.000000E+00
4.900000E+03	6.120242E-18	0.000000E+00
4.910000E+03	6.163990E-18	0.000000E+00
4.920000E+03	6.208799E-18	0.000000E+00
4.930000E+03	6.254681E-18	0.000000E+00
4.940000E+03	6.301647E-18	0.000000E+00
4.950000E+03	6.349648E-18	0.000000E+00
4.960000E+03	6.398753E-18	0.000000E+00
4.970000E+03	6.448913E-18	0.000000E+00
4.980000E+03	6.500137E-18	0.000000E+00
4.990000E+03	6.552435E-18	0.000000E+00
5.000000E+03	6.605812E-18	0.000000E+00
5.010000E+03	6.660279E-18	0.000000E+00
5.020000E+03	6.715844E-18	0.000000E+00
5.030000E+03	6.772449E-18	0.000000E+00
5.040000E+03	6.830102E-18	0.000000E+00
5.050000E+03	6.888805E-18	0.000000E+00
5.060000E+03	6.948564E-18	0.000000E+00
5.070000E+03	7.009382E-18	0.000000E+00
5.080000E+03	7.071261E-18	0.000000E+00
5.090000E+03	7.134071E-18	0.000000E+00
5.100000E+03	7.197943E-18	0.000000E+00
5.110000E+03	7.262880E-18	0.000000E+00
5.120000E+03	7.328741E-18	0.000000E+00
5.130000E+03	7.395522E-18	0.000000E+00
5.140000E+03	7.463287E-18	0.000000E+00
5.150000E+03	7.532031E-18	0.000000E+00
5.160000E+03	7.601602E-18	0.000000E+00
5.170000E+03	7.672062E-18	0.000000E+00
5.180000E+03	7.743474E-18	0.000000E+00
5.190000E+03	7.815679E-18	0.000000E+00
5.200000E+03	7.888659E-18	0.000000E+00
5.210000E+03	7.962398E-18	0.000000E+00
5.220000E+03	8.036952E-18	0.000000E+00
5.230000E+03	8.112226E-18	0.000000E+00
5.240000E+03	8.188199E-18	0.000000E+00
5.250000E+03	8.264763E-18	0.000000E+00
5.260000E+03	8.341973E-18	0.000000E+00
5.270000E+03	8.419799E-18	0.000000E+00
5.280000E+03	8.498129E-18	0.000000E+00
5.290000E+03	8.577013E-18	0.000000E+00
5.300000E+03	8.656330E-18	0.000000E+00
5.310000E+03	8.736043E-18	0.000000E+00
5.320000E+03	8.816196E-18	0.000000E+00
5.330000E+03	8.896661E-18	0.000000E+00
5.340000E+03	8.977392E-18	0.000000E+00
5.350000E+03	9.058343E-18	0.000000E+00
5.360000E+03	9.139460E-18	0.000000E+00
5.370000E+03	9.220693E-18	0.000000E+00
5.380000E+03	9.301985E-18	0.000000E+00
5.390000E+03	9.383279E-18	0.000000E+00
5.400000E+03	9.464421E-18	0.000000E+00
5.410000E+03	9.545347E-18	0.000000E+00
5.420000E+03	9.626082E-18	0.000000E+00
5.430000E+03	9.706468E-18	0.000000E+00
5.440000E+03	9.786431E-18	0.000000E+00
5.450000E+03	9.865800E-18	0.000000E+00
5.460000E+03	9.944602E-18	0.000000E+00
5.470000E+03	1.002254E-17	0.000000E+00
5.480000E+03	1.009976E-17	0.000000E+00
5.490000E+03	1.017584E-17	0.000000E+00
5.500000E+03	1.025084E-17	0.000000E+00
5.510000E+03	1.032463E-17	0.000000E+00
5.520000E+03	1.039703E-17	0.000000E+00
5.530000E+03	1.046796E-17	0.000000E+00
5.540000E+03	1.053721E-17	0.000000E+00
5.550000E+03	1.060470E-17	0.000000E+00
5.560000E+03	1.067031E-17	0.000000E+00
5.570000E+03	1.073398E-17	0.000000E+00
5.580000E+03	1.079548E-17	0.000000E+00
5.590000E+03	1.085473E-17	0.000000E+00
5.600000E+03	1.091166E-17	0.000000E+00
5.610000E+03	1.096615E-17	0.000000E+00
5.620000E+03	1.101802E-17	0.000000E+00
5.630000E+03	1.106717E-17	0.000000E+00
5.640000E+03	1.111366E-17	0.000000E+00
5.650000E+03	1.115728E-17	0.000000E+00
5.660000E+03	1.119786E-17	0.000000E+00
5.670000E+03	1.123555E-17	0.000000E+00
5.680000E+03	1.127028E-17	0.000000E+00
5.690000E+03	1.130179E-17	0.000000E+00
5.700000E+03	1.133011E-17	0.000000E+00
5.710000E+03	1.135534E-17	0.000000E+00
5.720000E+03	1.137732E-17	0.000000E+00
5.730000E+03	1.139600E-17	0.000000E+00
5.740000E+03	1.141149E-17	0.000000E+00
5.750000E+03	1.142366E-17	0.000000E+00
5.760000E+03	1.143271E-17	0.000000E+00
5.770000E+03	1.143841E-17	0.000000E+00
5.780000E+03	1.144088E-17	0.000000E+00
5.790000E+03	1.144015E-17	0.000000E+00
5.800000E+03	1.143632E-17	0.000000E+00
5.810000E+03	1.142931E-17	0.000000E+00
5.820000E+03	1.141927E-17	0.000000E+00
5.830000E+03	1.140623E-17	0.000000E+00
5.840000E+03	1.139011E-17	0.000000E+00
5.850000E+03	1.137121E-17	0.000000E+00
5.860000E+03	1.134946E-17	0.000000E+00
5.870000E+03	1.132503E-17	0.000000E+00
5.880000E+03	1.129786E-17	0.000000E+00
5.890000E+03	1.126815E-17	0.000000E+00
5.900000E+03	1.123598E-17	0.000000E+00
5.910000E+03	1.120141E-17	0.000000E+00
5.920000E+03	1.116464E-17	0.000000E+00
5.930000E+03	1.112550E-17	0.000000E+00
5.940000E+03	1.108435E-17	0.000000E+00
5.950000E+03	1.104126E-17	0.000000E+00
5.960000E+03	1.099632E-17	0.000000E+00
5.970000E+03	1.094949E-17	0.000000E+00
5.980000E+03	1.090099E-17	0.000000E+00
5.990000E+03	1.085104E-17	0.000000E+00
6.000000E+03	1.079948E-17	0.000000E+00
6.010000E+03	1.074664E-17	0.000000E+00
6.020000E+03	1.069248E-17	0.000000E+00
6.030000E+03	1.063725E-17	0.000000E+00
6.040000E+03	1.058075E-17	0.000000E+00
6.050000E+03	1.052332E-17	0.000000E+00
6.060000E+03	1.046506E-17	0.000000E+00
6.070000E+03	1.040592E-17	0.000000E+00
6.080000E+03	1.034596E-17	0.000000E+00
6.090000E+03	1.028539E-17	0.000000E+00
6.100000E+03	1.022415E-17	0.000000E+00
6.110000E+03	1.016246E-17	0.000000E+00
6.120000E+03	1.010022E-17	0.000000E+00
6.130000E+03	1.003764E-17	0.000000E+00
6.140000E+03	9.974894E-18	0.000000E+00
6.150000E+03	9.911910E-18	0.000000E+00
6.160000E+03	9.848868E-18	0.000000E+00
6.170000E+03	9.786067E-18	0.000000E+00
6.180000E+03	9.723543E-18	0.000000E+00
6.190000E+03	9.661471E-18	0.000000E+00
6.200000E+03	9.599763E-18	0.000000E+00
6.210000E+03	9.538432E-18	0.000000E+00
6.220000E+03	9.477399E-18	0.000000E+00
6.230000E+03	9.416689E-18	0.000000E+00
6.240000E+03	9.356456E-18	0.000000E+00
6.250000E+03	9.296600E-18	0.000000E+00
6.260000E+03	9.237146E-18	0.000000E+00
6.270000E+03	9.178245E-18	0.000000E+00
6.280000E+03	9.120045E-18	0.000000E+00
6.290000E+03	9.062568E-18	0.000000E+00
6.300000E+03	9.005836E-18	0.000000E+00
6.310000E+03	8.950247E-18	0.000000E+00
6.320000E+03	8.895570E-18	0.000000E+00
6.330000E+03	8.842327E-18	0.000000E+00
6.340000E+03	8.790411E-18	0.000000E+00
6.350000E+03	8.739968E-18	0.000000E+00
6.360000E+03	8.691395E-18	0.000000E+00
6.370000E+03	8.644709E-18	0.000000E+00
6.380000E+03	8.600056E-18	0.000000E+00
6.390000E+03	8.557579E-18	0.000000E+00
6.400000E+03	8.517552E-18	0.000000E+00
6.410000E+03	8.479867E-18	0.000000E+00
6.420000E+03	8.444289E-18	0.000000E+00
6.430000E+03	8.410712E-18	0.000000E+00
6.440000E+03	8.379029E-18	0.000000E+00
6.450000E+03	8.349131E-18	0.000000E+00
6.460000E+03	8.320787E-18	0.000000E+00
6.470000E+03	8.293887E-18	0.000000E+00
6.480000E+03	8.268327E-18	0.000000E+00
6.490000E+03	8.244125E-18	0.000000E+00
6.500000E+03	8.221174E-18	0.000000E+00
6.510000E+03	8.199367E-18	0.000000E+00
6.520000E+03	8.178851E-18	0.000000E+00
6.530000E+03	8.159390E-18	0.000000E+00
6.540000E+03	8.141129E-18	0.000000E+00
6.550000E+03	8.123958E-18	0.000000E+00
6.560000E+03	8.108021E-18	0.000000E+00
6.570000E+03	8.093205E-18	0.000000E+00
6.580000E+03	8.079523E-18	0.000000E+00
6.590000E+03	8.066988E-18	0.000000E+00
6.600000E+03	8.055740E-18	0.000000E+00
6.610000E+03	8.045529E-18	0.000000E+00
6.620000E+03	8.036621E-18	0.000000E+00
6.630000E+03	8.028896E-18	0.000000E+00
6.640000E+03	8.022354E-18	0.000000E+00
6.650000E+03	8.017134E-18	0.000000E+00
6.660000E+03	8.012970E-18	0.000000E+00
6.670000E+03	8.010131E-18	0.000000E+00
6.680000E+03	8.008483E-18	0.000000E+00
6.690000E+03	8.008024E-18	0.000000E+00
6.700000E+03	8.008889E-18	0.000000E+00
6.710000E+03	8.010938E-18	0.000000E+00
6.720000E+03	8.014169E-18	0.000000E+00
6.730000E+03	8.018577E-18	0.000000E+00
6.740000E+03	8.024293E-18	0.000000E+00
6.750000E+03	8.031175E-18	0.000000E+00
6.760000E+03	8.039215E-18	0.000000E+00
6.770000E+03	8.048543E-18	0.000000E+00
6.780000E+03	8.059010E-18	0.000000E+00
6.790000E+03	8.070606E-18	0.000000E+00
6.800000E+03	8.083459E-18	0.000000E+00
6.810000E+03	8.097268E-18	0.000000E+00
6.820000E+03	8.112306E-18	0.000000E+00
6.830000E+03	8.128556E-18	0.000000E+00
6.840000E+03	8.145707E-18	0.000000E+00
6.850000E+03	8.164032E-18	0.000000E+00
6.860000E+03	8.183361E-18	0.000000E+00
6.870000E+03	8.203670E-18	0.000000E+00
6.880000E+03	8.224934E-18	0.000000E+00
6.890000E+03	8.247127E-18	0.000000E+00
6.900000E+03	8.270376E-18	0.000000E+00
6.910000E+03	8.294348E-18	0.000000E+00
6.920000E+03	8.319323E-18	0.000000E+00
6.930000E+03	8.344964E-18	0.000000E+00
6.940000E+03	8.371557E-18	0.000000E+00
6.950000E+03	8.398759E-18	0.000000E+00
6.960000E+03	8.426864E-18	0.000000E+00
6.970000E+03	8.455528E-18	0.000000E+00
6.980000E+03	8.484886E-18	0.000000E+00
6.990000E+03	8.514917E-18	0.000000E+00
7.000000E+03	8.545438E-18	0.000000E+00
7.010000E+03	8.576758E-18	0.000000E+00
7.020000E+03	8.608533E-18	0.000000E+00
7.030000E+03	8.640742E-18	0.000000E+00
7.040000E+03	8.673543E-18	0.000000E+00
7.050000E+03	8.706925E-18	0.000000E+00
7.060000E+03	8.740709E-18	0.000000E+00
7.070000E+03	8.774885E-18	0.000000E+00
7.080000E+03	8.809622E-18	0.000000E+00
7.090000E+03	8.844741E-18	0.000000E+00
7.100000E+03	8.880235E-18	0.000000E+00
7.110000E+03	8.916105E-18	0.000000E+00
7.120000E+03	8.952528E-18	0.000000E+00
7.130000E+03	8.989142E-18	0.000000E+00
7.140000E+03	9.026310E-18	0.000000E+00
7.150000E+03	9.063665E-18	0.000000E+00
7.160000E+03	9.101390E-18	0.000000E+00
7.170000E+03	9.139486E-18	0.000000E+00
7.180000E+03	9.177954E-18	0.000000E+00
7.190000E+03	9.216601E-18	0.000000E+00
7.200000E+03	9.255617E-18	0.000000E+00
7.210000E+03	9.295003E-18	0.000000E+00
7.220000E+03	9.334560E-18	0.000000E+00
7.230000E+03	9.374280E-18	0.000000E+00
7.240000E+03	9.414364E-18	0.000000E+00
7.250000E+03	9.454604E-18	0.000000E+00
7.260000E+03	9.494993E-18	0.000000E+00
7.270000E+03	9.535733E-18	0.000000E+00
7.280000E+03	9.576611E-18	0.000000E+00
7.290000E+03	9.617616E-18	0.000000E+00
7.300000E+03	9.659177E-18	0.000000E+00
7.310000E+03	9.700632E-18	0.000000E+00
7.320000E+03	9.742634E-18	0.000000E+00
7.330000E+03	9.784732E-18	0.000000E+00
7.340000E+03	9.827368E-18	0.000000E+00
7.350000E+03	9.870301E-18	0.000000E+00
7.360000E+03	9.913753E-18	0.000000E+00
7.370000E+03	9.957944E-18	0.000000E+00
7.380000E+03	1.000264E-17	0.000000E+00
7.390000E+03	1.004854E-17	0.000000E+00
7.400000E+03	1.009540E-17	0.000000E+00
7.410000E+03	1.014324E-17	0.000000E+00
7.420000E+03	1.019299E-17	0.000000E+00
7.430000E+03	1.024396E-17	0.000000E+00
7.440000E+03	1.029689E-17	0.000000E+00
7.450000E+03	1.035178E-17	0.000000E+00
7.460000E+03	1.040816E-17	0.000000E+00
7.470000E+03	1.046578E-17	0.000000E+00
7.480000E+03	1.052463E-17	0.000000E+00
7.490000E+03	1.058445E-17	0.000000E+00
7.500000E+03	1.064519E-17	0.000000E+00
7.510000E+03	1.070660E-17	0.000000E+00
7.520000E+03	1.076837E-17	0.000000E+00
7.530000E+03	1.083045E-17	0.000000E+00
7.540000E+03	1.089279E-17	0.000000E+00
7.550000E+03	1.095508E-17	0.000000E+00
7.560000E+03	1.101754E-17	0.000000E+00
7.570000E+03	1.107955E-17	0.000000E+00
7.580000E+03	1.114160E-17	0.000000E+00
7.590000E+03	1.120336E-17	0.000000E+00
7.600000E+03	1.126447E-17	0.000000E+00
7.610000E+03	1.132515E-17	0.000000E+00
7.620000E+03	1.138504E-17	0.000000E+00
7.630000E+03	1.144437E-17	0.000000E+00
7.640000E+03	1.150306E-17	0.000000E+00
7.650000E+03	1.156075E-17	0.000000E+00
7.660000E+03	1.161767E-17	0.000000E+00
7.670000E+03	1.167344E-17	0.000000E+00
7.680000E+03	1.172830E-17	0.000000E+00
7.690000E+03	1.178218E-17	0.000000E+00
7.700000E+03	1.183469E-17	0.000000E+00
7.710000E+03	1.188609E-17	0.000000E+00
7.720000E+03	1.193630E-17	0.000000E+00
7.730000E+03	1.198525E-17	0.000000E+00
7.740000E+03	1.203287E-17	0.000000E+00
7.750000E+03	1.207909E-17	0.000000E+00
7.760000E+03	1.212382E-17	0.000000E+00
