#wls	flux	fluxerr
1.600000E+03	1.570915E-16	1.967802E-16
1.640000E+03	1.613740E-16	2.024421E-16
1.680000E+03	1.654404E-16	2.078340E-16
1.720000E+03	1.692377E-16	2.128859E-16
1.760000E+03	1.727261E-16	2.175437E-16
1.800000E+03	1.758443E-16	2.217264E-16
1.840000E+03	1.785456E-16	2.253704E-16
1.880000E+03	1.807794E-16	2.284081E-16
1.920000E+03	1.824782E-16	2.307493E-16
1.960000E+03	1.835905E-16	2.323246E-16
2.000000E+03	1.840655E-16	2.330660E-16
2.040000E+03	1.838556E-16	2.329090E-16
2.080000E+03	1.829040E-16	2.317784E-16
2.120000E+03	1.811759E-16	2.296276E-16
2.160000E+03	1.786215E-16	2.263918E-16
2.200000E+03	1.752078E-16	2.220281E-16
2.240000E+03	1.708783E-16	2.164653E-16
2.280000E+03	1.656096E-16	2.096758E-16
2.320000E+03	1.595133E-16	2.018042E-16
2.360000E+03	1.527353E-16	1.930395E-16
2.400000E+03	1.453937E-16	1.835367E-16
2.440000E+03	1.375868E-16	1.734264E-16
2.480000E+03	1.294065E-16	1.628318E-16
2.520000E+03	1.209524E-16	1.518867E-16
2.560000E+03	1.123139E-16	1.407116E-16
2.600000E+03	1.035922E-16	1.294424E-16
2.640000E+03	9.487853E-17	1.182016E-16
2.680000E+03	8.625751E-17	1.071032E-16
2.720000E+03	7.782111E-17	9.626948E-17
2.760000E+03	6.964885E-17	8.580572E-17
2.800000E+03	6.181494E-17	7.580925E-17
2.840000E+03	5.438479E-17	6.636472E-17
2.880000E+03	4.741687E-17	5.754627E-17
2.920000E+03	4.096582E-17	4.942103E-17
2.960000E+03	3.507811E-17	4.204374E-17
2.994228E+03	4.623254E-16	5.508107E-16
2.998829E+03	4.616703E-16	5.495682E-16
2.999028E+03	4.615219E-16	5.493715E-16
2.999428E+03	4.613073E-16	5.490757E-16
3.002429E+03	4.607719E-16	5.481351E-16
3.006830E+03	4.600259E-16	5.468007E-16
3.007030E+03	4.597545E-16	5.464577E-16
3.007230E+03	4.594418E-16	5.460657E-16
3.009430E+03	4.588859E-16	5.451806E-16
3.009830E+03	4.584670E-16	5.446421E-16
3.010229E+03	4.580484E-16	5.441041E-16
3.011229E+03	4.574750E-16	5.433207E-16
3.012029E+03	4.569261E-16	5.425871E-16
3.012230E+03	4.564085E-16	5.419520E-16
3.012630E+03	4.557848E-16	5.411705E-16
3.012830E+03	4.552264E-16	5.404871E-16
3.015030E+03	4.543466E-16	5.392182E-16
3.015630E+03	4.536589E-16	5.383407E-16
3.016030E+03	4.529130E-16	5.374147E-16
3.016230E+03	4.521910E-16	5.365377E-16
3.017230E+03	4.513334E-16	5.354182E-16
3.017831E+03	4.504824E-16	5.343474E-16
3.018431E+03	4.495908E-16	5.332288E-16
3.019031E+03	4.486994E-16	5.321107E-16
3.019231E+03	4.478142E-16	5.310405E-16
3.020031E+03	4.468179E-16	5.297781E-16
3.020231E+03	4.458921E-16	5.286600E-16
3.020631E+03	4.448609E-16	5.273971E-16
3.022231E+03	4.436505E-16	5.258005E-16
3.024231E+03	4.423954E-16	5.241110E-16
3.024431E+03	4.413069E-16	5.228012E-16
3.024631E+03	4.401775E-16	5.214431E-16
3.025231E+03	4.390028E-16	5.199912E-16
3.025431E+03	4.377918E-16	5.185368E-16
3.025631E+03	4.365401E-16	5.170341E-16
3.025831E+03	4.353293E-16	5.155802E-16
3.026231E+03	4.340144E-16	5.139830E-16
3.026431E+03	4.326812E-16	5.123842E-16
3.027031E+03	4.313035E-16	5.106933E-16
3.027831E+03	4.298631E-16	5.089087E-16
3.028031E+03	4.284488E-16	5.072146E-16
3.028632E+03	4.269496E-16	5.053806E-16
3.028832E+03	4.254538E-16	5.035905E-16
3.029032E+03	4.239174E-16	5.017523E-16
3.029432E+03	4.224002E-16	4.999176E-16
3.029632E+03	4.208232E-16	4.980317E-16
3.031032E+03	4.190761E-16	4.958284E-16
3.031632E+03	4.174162E-16	4.938064E-16
3.031832E+03	4.157585E-16	4.918261E-16
3.033832E+03	4.138693E-16	4.893990E-16
3.034233E+03	4.121099E-16	4.872800E-16
3.034832E+03	4.103301E-16	4.851184E-16
3.035032E+03	4.085844E-16	4.830354E-16
3.035432E+03	4.067486E-16	4.808271E-16
3.035632E+03	4.049011E-16	4.786243E-16
3.035832E+03	4.030253E-16	4.763881E-16
3.036032E+03	4.011537E-16	4.741571E-16
3.036232E+03	3.992415E-16	4.718782E-16
3.036832E+03	3.972767E-16	4.695003E-16
3.037632E+03	3.952434E-16	4.670233E-16
3.038032E+03	3.932307E-16	4.646081E-16
3.039032E+03	3.911056E-16	4.620056E-16
3.039833E+03	3.889769E-16	4.594177E-16
3.040433E+03	3.868566E-16	4.568588E-16
3.041033E+03	3.847206E-16	4.542820E-16
3.041233E+03	3.825954E-16	4.517545E-16
3.041433E+03	3.804257E-16	4.491746E-16
3.041833E+03	3.782247E-16	4.465403E-16
3.042433E+03	3.759645E-16	4.438185E-16
3.043633E+03	3.736239E-16	4.409494E-16
3.043833E+03	3.713581E-16	4.382577E-16
3.044633E+03	3.690082E-16	4.354145E-16
3.044834E+03	3.666901E-16	4.326617E-16
3.045034E+03	3.643438E-16	4.298760E-16
3.045634E+03	3.619328E-16	4.269798E-16
3.046034E+03	3.595161E-16	4.240947E-16
3.047233E+03	3.569999E-16	4.210245E-16
3.048233E+03	3.544785E-16	4.179665E-16
3.049033E+03	3.519477E-16	4.149151E-16
3.049433E+03	3.494324E-16	4.119164E-16
3.049633E+03	3.469106E-16	4.089271E-16
3.050033E+03	3.443475E-16	4.058728E-16
3.050434E+03	3.417603E-16	4.027905E-16
3.050634E+03	3.391744E-16	3.997266E-16
3.051234E+03	3.365307E-16	3.965625E-16
3.051634E+03	3.338842E-16	3.934119E-16
3.052034E+03	3.312179E-16	3.902384E-16
3.052634E+03	3.285154E-16	3.870069E-16
3.052834E+03	3.258258E-16	3.838228E-16
3.053234E+03	3.230921E-16	3.805713E-16
3.053434E+03	3.203828E-16	3.773646E-16
3.054834E+03	3.175468E-16	3.739169E-16
3.055635E+03	3.147473E-16	3.705597E-16
3.056435E+03	3.119045E-16	3.671523E-16
3.057835E+03	3.090089E-16	3.636390E-16
3.059834E+03	3.060460E-16	3.600035E-16
3.060034E+03	3.032041E-16	3.566458E-16
3.064035E+03	3.001032E-16	3.527048E-16
3.065635E+03	2.971469E-16	3.491135E-16
3.066035E+03	2.942587E-16	3.456912E-16
3.066235E+03	2.913650E-16	3.422774E-16
3.066436E+03	2.884796E-16	3.388736E-16
3.067236E+03	2.854962E-16	3.353127E-16
3.067836E+03	2.825196E-16	3.317748E-16
3.068436E+03	2.795357E-16	3.282293E-16
3.068636E+03	2.765513E-16	3.247113E-16
3.069436E+03	2.735152E-16	3.210924E-16
3.071035E+03	2.704281E-16	3.173611E-16
3.071235E+03	2.674015E-16	3.137959E-16
3.071436E+03	2.643750E-16	3.102311E-16
3.073236E+03	2.612361E-16	3.064307E-16
3.073636E+03	2.582072E-16	3.028521E-16
3.074836E+03	2.551016E-16	2.991330E-16
3.075836E+03	2.519897E-16	2.954210E-16
3.077036E+03	2.488756E-16	2.916953E-16
3.080037E+03	2.456459E-16	2.877245E-16
3.080837E+03	2.424915E-16	2.839808E-16
3.081437E+03	2.393416E-16	2.802557E-16
3.082237E+03	2.361895E-16	2.765170E-16
3.082838E+03	2.330295E-16	2.727820E-16
3.085037E+03	2.297756E-16	2.688447E-16
3.085237E+03	2.266481E-16	2.651739E-16
3.086237E+03	2.234547E-16	2.613808E-16
3.086437E+03	2.202962E-16	2.576750E-16
3.087237E+03	2.170912E-16	2.538819E-16
3.087837E+03	2.139137E-16	2.501331E-16
3.088038E+03	2.107406E-16	2.464120E-16
3.090838E+03	2.074216E-16	2.423823E-16
3.091638E+03	2.042025E-16	2.385786E-16
3.092038E+03	2.009912E-16	2.348060E-16
3.093639E+03	1.977293E-16	2.309138E-16
3.095039E+03	1.944590E-16	2.270244E-16
3.095238E+03	1.912481E-16	2.232659E-16
3.095838E+03	1.880361E-16	2.194870E-16
3.097838E+03	1.847412E-16	2.155451E-16
3.098438E+03	1.815000E-16	2.117351E-16
3.100039E+03	1.782590E-16	2.078798E-16
3.101039E+03	1.750043E-16	2.040387E-16
3.102639E+03	1.717236E-16	2.001419E-16
3.104640E+03	1.684342E-16	1.962196E-16
3.105640E+03	1.651855E-16	1.923915E-16
3.107439E+03	1.619211E-16	1.885127E-16
3.107640E+03	1.587249E-16	1.847831E-16
3.109039E+03	1.554748E-16	1.809420E-16
3.111240E+03	1.521874E-16	1.770272E-16
3.111440E+03	1.489784E-16	1.732865E-16
3.112840E+03	1.457465E-16	1.694730E-16
3.113440E+03	1.425542E-16	1.657382E-16
3.114840E+03	1.393219E-16	1.619281E-16
3.116241E+03	1.361197E-16	1.581553E-16
3.117241E+03	1.329235E-16	1.544060E-16
3.118441E+03	1.297109E-16	1.506325E-16
3.119240E+03	1.265314E-16	1.469129E-16
3.121041E+03	1.233258E-16	1.431310E-16
3.121241E+03	1.201812E-16	1.394749E-16
3.121441E+03	1.170208E-16	1.358009E-16
3.121841E+03	1.138838E-16	1.321481E-16
3.122441E+03	1.107384E-16	1.284803E-16
3.123241E+03	1.075972E-16	1.248125E-16
3.123441E+03	1.044708E-16	1.211803E-16
3.123641E+03	1.013528E-16	1.175580E-16
3.125842E+03	9.820395E-17	1.138470E-16
3.126642E+03	9.509934E-17	1.102271E-16
3.127842E+03	9.199982E-17	1.066044E-16
3.131443E+03	8.886383E-17	1.028830E-16
3.132043E+03	8.580446E-17	9.932680E-17
3.132242E+03	8.276496E-17	9.580377E-17
3.133242E+03	7.972001E-17	9.225717E-17
3.133642E+03	7.670628E-17	8.876103E-17
3.134242E+03	7.370182E-17	8.527220E-17
3.135842E+03	7.069504E-17	8.176213E-17
3.136042E+03	6.773055E-17	7.832981E-17
3.136242E+03	6.477828E-17	7.491195E-17
3.136443E+03	6.184222E-17	7.151314E-17
3.136643E+03	5.892239E-17	6.813345E-17
3.137043E+03	5.602038E-17	6.477156E-17
3.137843E+03	5.313029E-17	6.141821E-17
3.138243E+03	5.026143E-17	5.809625E-17
3.138443E+03	4.741503E-17	5.480352E-17
3.139043E+03	4.458104E-17	5.152048E-17
3.139443E+03	4.177347E-17	4.827125E-17
3.141443E+03	3.897074E-17	4.501082E-17
3.141844E+03	3.620335E-17	4.181047E-17
3.142044E+03	3.345500E-17	3.863458E-17
3.142244E+03	3.073358E-17	3.549011E-17
3.142444E+03	2.801877E-17	3.235358E-17
3.143044E+03	2.532398E-17	2.923762E-17
3.143443E+03	2.266112E-17	2.616070E-17
3.144044E+03	2.002175E-17	2.311036E-17
3.144243E+03	1.740884E-17	2.009340E-17
3.145243E+03	1.481874E-17	1.709974E-17
3.145843E+03	1.225626E-17	1.414075E-17
3.146243E+03	9.720713E-18	1.121425E-17
3.146443E+03	7.212173E-18	8.319882E-18
3.147444E+03	4.730531E-18	5.455754E-18
3.148844E+03	2.277086E-18	2.625279E-18
3.149444E+03	-1.466646E-19	-1.690665E-19
3.149844E+03	-2.541296E-18	-2.929172E-18
3.150444E+03	-4.906243E-18	-5.654245E-18
3.151244E+03	-7.216113E-18	-8.314639E-18
3.151844E+03	-9.512490E-18	-1.095898E-17
3.152044E+03	-1.177268E-17	-1.356219E-17
3.152645E+03	-1.398299E-17	-1.610610E-17
3.152845E+03	-1.618058E-17	-1.863644E-17
3.153045E+03	-1.834856E-17	-2.113242E-17
3.153645E+03	-2.048166E-17	-2.358566E-17
3.153845E+03	-2.256402E-17	-2.598231E-17
3.154045E+03	-2.462949E-17	-2.835929E-17
3.154445E+03	-2.667740E-17	-3.071429E-17
3.154645E+03	-2.868243E-17	-3.302108E-17
3.155445E+03	-3.064058E-17	-3.526844E-17
3.157244E+03	-3.255410E-17	-3.745423E-17
3.157444E+03	-3.445603E-17	-3.964046E-17
3.157644E+03	-3.630058E-17	-4.176048E-17
3.158245E+03	-3.808546E-17	-4.380726E-17
3.158445E+03	-3.986879E-17	-4.585622E-17
3.158645E+03	-4.159517E-17	-4.783948E-17
3.159245E+03	-4.328214E-17	-4.977224E-17
3.160445E+03	-4.491955E-17	-5.163968E-17
3.160645E+03	-4.654179E-17	-5.350193E-17
3.162445E+03	-4.810864E-17	-5.527814E-17
3.163045E+03	-4.962688E-17	-5.701403E-17
3.163246E+03	-5.112107E-17	-5.872767E-17
3.163446E+03	-5.254373E-17	-6.035898E-17
3.163646E+03	-5.394643E-17	-6.196720E-17
3.164046E+03	-5.529124E-17	-6.350555E-17
3.164246E+03	-5.659844E-17	-6.500367E-17
3.164646E+03	-5.786353E-17	-6.644993E-17
3.165246E+03	-5.908241E-17	-6.783941E-17
3.165446E+03	-6.025823E-17	-6.918601E-17
3.165646E+03	-6.135066E-17	-7.043673E-17
3.166846E+03	-6.241070E-17	-7.163201E-17
3.167046E+03	-6.342742E-17	-7.279527E-17
3.168646E+03	-6.435075E-17	-7.382498E-17
3.168846E+03	-6.527581E-17	-7.488243E-17
3.170846E+03	-6.613364E-17	-7.582788E-17
3.171446E+03	-6.694993E-17	-7.675207E-17
3.171646E+03	-6.770799E-17	-7.761715E-17
3.172246E+03	-6.841706E-17	-7.841796E-17
3.172446E+03	-6.908782E-17	-7.918271E-17
3.172846E+03	-6.968053E-17	-7.985385E-17
3.173246E+03	-7.022557E-17	-8.047023E-17
3.173446E+03	-7.071002E-17	-8.102119E-17
3.174447E+03	-7.115943E-17	-8.151520E-17
3.174647E+03	-7.154072E-17	-8.194776E-17
3.175247E+03	-7.186096E-17	-8.230190E-17
3.175447E+03	-7.213923E-17	-8.261635E-17
3.175647E+03	-7.235415E-17	-8.285821E-17
3.175847E+03	-7.251367E-17	-8.303662E-17
3.177447E+03	-7.260974E-17	-8.311233E-17
3.177647E+03	-7.266631E-17	-8.317279E-17
3.178447E+03	-7.264707E-17	-8.313357E-17
3.179047E+03	-7.256346E-17	-8.302500E-17
3.179648E+03	-7.240472E-17	-8.283047E-17
3.179847E+03	-7.220413E-17	-8.259673E-17
3.180048E+03	-7.193633E-17	-8.228610E-17
3.180647E+03	-7.161157E-17	-8.190188E-17
3.182847E+03	-7.120177E-17	-8.138658E-17
3.184247E+03	-7.073603E-17	-8.082465E-17
3.184447E+03	-7.021954E-17	-8.023031E-17
3.184648E+03	-6.963986E-17	-7.956381E-17
3.185848E+03	-6.897983E-17	-7.878495E-17
3.186048E+03	-6.826210E-17	-7.796111E-17
3.187248E+03	-6.746834E-17	-7.703030E-17
3.187448E+03	-6.661655E-17	-7.605378E-17
3.188848E+03	-6.568275E-17	-7.496005E-17
3.189048E+03	-6.469303E-17	-7.382666E-17
3.190449E+03	-6.361405E-17	-7.256848E-17
3.190849E+03	-6.248028E-17	-7.126758E-17
3.191448E+03	-6.127336E-17	-6.987984E-17
3.192048E+03	-5.998778E-17	-6.840281E-17
3.193248E+03	-5.863278E-17	-6.683644E-17
3.193448E+03	-5.721415E-17	-6.521585E-17
3.193648E+03	-5.571277E-17	-6.350112E-17
3.194848E+03	-5.414224E-17	-6.169132E-17
3.195649E+03	-5.249352E-17	-5.979994E-17
3.195849E+03	-5.076814E-17	-5.783132E-17
3.196049E+03	-4.897979E-17	-5.579119E-17
3.196249E+03	-4.711666E-17	-5.366610E-17
3.196449E+03	-4.517874E-17	-5.145604E-17
3.196649E+03	-4.314238E-17	-4.913412E-17
3.196849E+03	-4.104703E-17	-4.674526E-17
3.197249E+03	-3.886681E-17	-4.425764E-17
3.200049E+03	-3.659427E-17	-4.163860E-17
3.200249E+03	-3.424317E-17	-3.896131E-17
3.200449E+03	-3.181855E-17	-3.620067E-17
3.200650E+03	-2.932042E-17	-3.335669E-17
3.200850E+03	-2.672910E-17	-3.040701E-17
3.201250E+03	-2.405633E-17	-2.736351E-17
3.203050E+03	-2.130444E-17	-2.422153E-17
3.203250E+03	-1.847470E-17	-2.100320E-17
3.203450E+03	-1.555735E-17	-1.768561E-17
3.204050E+03	-1.255266E-17	-1.426755E-17
3.204649E+03	-9.460818E-18	-1.075157E-17
3.205449E+03	-6.281232E-18	-7.136641E-18
3.205649E+03	-3.014805E-18	-3.425190E-18
3.206050E+03	3.397482E-19	3.859538E-19
3.206250E+03	3.783547E-18	4.297874E-18
3.206850E+03	7.319104E-18	8.312688E-18
3.207450E+03	1.094363E-17	1.242722E-17
3.207650E+03	1.466011E-17	1.664662E-17
3.208250E+03	1.913522E-17	2.172457E-17
3.209250E+03	2.349359E-17	2.666543E-17
3.209450E+03	2.798383E-17	3.176015E-17
3.209650E+03	3.079516E-17	3.494894E-17
3.209850E+03	3.299420E-17	3.744255E-17
3.210050E+03	3.363105E-17	3.816316E-17
3.210250E+03	3.581724E-17	4.064174E-17
3.210850E+03	2.775620E-17	3.148972E-17
3.211050E+03	1.673682E-17	1.898707E-17
3.211250E+03	1.897672E-17	2.152694E-17
3.211651E+03	1.819477E-17	2.063763E-17
3.211851E+03	1.926647E-17	2.185202E-17
3.212051E+03	2.063891E-17	2.340735E-17
3.212451E+03	1.730240E-17	1.962113E-17
3.213251E+03	2.029643E-17	2.301133E-17
3.213451E+03	2.327125E-17	2.638262E-17
3.213851E+03	2.628818E-17	2.979963E-17
3.214051E+03	2.935878E-17	3.327855E-17
3.214251E+03	3.248695E-17	3.682233E-17
3.214451E+03	3.564124E-17	4.039533E-17
3.215051E+03	3.883186E-17	4.400426E-17
3.215851E+03	4.206201E-17	4.765412E-17
3.216050E+03	4.533375E-17	5.135800E-17
3.216851E+03	4.865908E-17	5.511299E-17
3.218051E+03	5.200737E-17	5.888577E-17
3.219651E+03	5.537009E-17	6.266533E-17
3.220451E+03	4.826347E-17	5.461020E-17
3.221251E+03	4.311783E-17	4.877701E-17
3.221451E+03	4.069024E-17	4.602822E-17
3.222252E+03	3.836248E-17	4.338537E-17
3.222652E+03	3.613127E-17	4.085745E-17
3.222852E+03	3.463586E-17	3.916424E-17
3.223052E+03	3.329676E-17	3.764794E-17
3.223252E+03	3.213200E-17	3.632894E-17
3.223452E+03	3.116353E-17	3.523200E-17
3.223852E+03	3.068580E-17	3.468800E-17
3.224052E+03	3.045205E-17	3.442183E-17
3.225452E+03	3.102852E-17	3.505965E-17
3.225852E+03	3.170113E-17	3.581561E-17
3.226052E+03	2.980777E-17	3.367461E-17
3.226452E+03	2.916403E-17	3.294365E-17
3.226652E+03	2.544633E-17	2.874251E-17
3.226852E+03	2.682017E-17	3.029260E-17
3.227052E+03	2.246194E-17	2.536868E-17
3.227653E+03	1.901533E-17	2.147241E-17
3.228452E+03	1.325353E-17	1.496271E-17
3.228852E+03	1.324166E-17	1.494762E-17
3.229652E+03	1.416701E-17	1.598856E-17
3.230252E+03	1.285988E-17	1.451089E-17
3.232252E+03	1.307306E-17	1.474305E-17
3.234253E+03	1.310866E-17	1.477476E-17
3.236053E+03	1.357469E-17	1.529213E-17
3.236253E+03	1.429752E-17	1.610549E-17
3.236653E+03	1.407378E-17	1.585163E-17
3.236853E+03	1.370681E-17	1.543743E-17
3.238254E+03	1.388805E-17	1.563524E-17
3.238454E+03	1.428884E-17	1.608552E-17
3.238654E+03	1.500000E-17	1.688514E-17
3.238854E+03	1.436227E-17	1.616633E-17
3.239054E+03	1.373397E-17	1.545821E-17
3.239454E+03	1.217926E-17	1.370673E-17
3.239654E+03	1.152565E-17	1.297041E-17
3.239854E+03	1.065215E-17	1.198671E-17
3.240454E+03	1.050984E-17	1.182452E-17
3.240854E+03	1.023603E-17	1.151513E-17
3.241053E+03	9.698459E-18	1.090976E-17
3.242453E+03	8.627113E-18	9.700671E-18
3.242653E+03	8.944874E-18	1.005739E-17
3.243254E+03	9.245190E-18	1.039324E-17
3.243454E+03	9.389614E-18	1.055499E-17
3.243854E+03	9.809061E-18	1.102521E-17
3.244054E+03	9.255735E-18	1.040268E-17
3.244854E+03	9.527497E-18	1.070562E-17
3.245654E+03	9.872703E-18	1.109093E-17
3.246054E+03	9.800525E-18	1.100856E-17
3.246254E+03	9.383447E-18	1.053946E-17
3.246654E+03	9.521635E-18	1.069342E-17
3.247054E+03	9.726256E-18	1.092194E-17
3.247254E+03	9.629784E-18	1.081298E-17
3.247454E+03	9.148692E-18	1.027217E-17
3.247654E+03	9.364943E-18	1.051437E-17
3.249255E+03	9.457918E-18	1.061377E-17
3.249455E+03	8.836310E-18	9.915613E-18
3.250055E+03	9.130474E-18	1.024390E-17
3.250255E+03	9.378291E-18	1.052132E-17
3.250855E+03	9.574696E-18	1.073977E-17
3.251455E+03	9.714427E-18	1.089457E-17
3.251655E+03	9.827796E-18	1.102107E-17
3.252454E+03	9.886327E-18	1.108409E-17
3.253254E+03	9.915163E-18	1.111379E-17
3.254255E+03	9.762906E-18	1.093989E-17
3.254455E+03	9.497092E-18	1.064140E-17
3.254855E+03	9.112703E-18	1.020948E-17
3.255855E+03	8.530033E-18	9.553848E-18
3.256255E+03	7.668398E-18	8.587775E-18
3.256455E+03	7.638887E-18	8.554217E-18
3.257055E+03	7.643648E-18	8.558021E-18
3.257255E+03	7.292544E-18	8.164430E-18
3.257855E+03	7.312558E-18	8.185374E-18
3.258655E+03	6.837566E-18	7.651861E-18
3.258855E+03	6.173636E-18	6.908450E-18
3.259256E+03	5.975833E-18	6.686303E-18
3.260056E+03	6.050400E-18	6.768116E-18
3.260256E+03	5.897683E-18	6.596889E-18
3.260856E+03	5.916651E-18	6.616916E-18
3.261056E+03	5.653179E-18	6.321882E-18
3.261256E+03	5.620243E-18	6.284674E-18
3.262256E+03	5.592876E-18	6.252195E-18
3.262456E+03	5.657835E-18	6.324431E-18
3.262856E+03	5.667633E-18	6.334622E-18
3.263056E+03	5.498226E-18	6.144909E-18
3.264256E+03	5.449283E-18	6.088009E-18
3.264456E+03	5.220660E-18	5.832237E-18
3.265256E+03	5.262137E-18	5.877154E-18
3.266056E+03	5.222534E-18	5.831512E-18
3.266456E+03	5.093997E-18	5.687299E-18
3.266656E+03	5.015899E-18	5.599766E-18
3.266856E+03	4.996264E-18	5.577508E-18
3.267256E+03	5.027534E-18	5.611736E-18
3.267456E+03	5.005174E-18	5.586438E-18
3.267656E+03	4.909165E-18	5.478948E-18
3.268656E+03	4.947404E-18	5.519949E-18
3.269456E+03	4.982663E-18	5.557937E-18
3.271057E+03	4.790650E-18	5.341150E-18
3.271857E+03	4.806449E-18	5.357456E-18
3.272457E+03	4.824722E-18	5.376838E-18
3.273057E+03	4.762393E-18	5.306402E-18
3.273257E+03	4.736947E-18	5.277726E-18
3.273857E+03	4.752499E-18	5.294080E-18
3.274457E+03	4.725616E-18	5.263166E-18
3.275057E+03	4.755960E-18	5.295986E-18
3.275258E+03	4.765944E-18	5.306776E-18
3.275458E+03	4.656821E-18	5.184951E-18
3.275858E+03	4.640596E-18	5.166251E-18
3.276057E+03	4.557564E-18	5.073503E-18
3.276258E+03	4.490492E-18	4.998529E-18
3.276457E+03	4.456896E-18	4.960827E-18
3.276657E+03	4.474670E-18	4.980305E-18
3.277257E+03	4.483237E-18	4.988918E-18
3.277457E+03	4.469102E-18	4.972881E-18
3.277657E+03	4.442515E-18	4.942993E-18
3.277857E+03	4.373128E-18	4.865489E-18
3.278057E+03	4.334484E-18	4.822196E-18
3.278457E+03	4.260705E-18	4.739529E-18
3.281058E+03	4.259533E-18	4.734411E-18
3.281658E+03	4.263453E-18	4.737886E-18
3.282058E+03	4.248049E-18	4.720180E-18
3.282458E+03	4.217871E-18	4.686065E-18
3.282658E+03	4.211921E-18	4.679163E-18
3.283058E+03	4.228405E-18	4.696892E-18
3.284658E+03	4.226302E-18	4.692214E-18
3.285458E+03	4.231667E-18	4.696996E-18
3.286059E+03	4.217714E-18	4.680629E-18
3.286459E+03	4.175899E-18	4.633643E-18
3.287059E+03	4.204313E-18	4.664295E-18
3.287259E+03	4.235285E-18	4.698361E-18
3.288059E+03	4.249977E-18	4.713475E-18
3.289059E+03	4.268048E-18	4.732029E-18
3.290258E+03	4.275125E-18	4.738085E-18
3.291059E+03	4.304182E-18	4.769084E-18
3.292259E+03	4.303878E-18	4.766939E-18
3.292459E+03	4.321626E-18	4.786293E-18
3.293059E+03	4.294488E-18	4.755334E-18
3.293259E+03	4.314564E-18	4.777262E-18
3.293659E+03	4.345784E-18	4.811219E-18
3.294059E+03	4.289259E-18	4.748037E-18
3.294859E+03	4.312096E-18	4.772104E-18
3.295059E+03	4.335662E-18	4.797879E-18
3.295659E+03	4.279036E-18	4.734313E-18
3.296460E+03	4.240162E-18	4.690106E-18
3.297260E+03	4.259509E-18	4.710305E-18
