#wls	flux	fluxerr
1.600000E+03	1.399569E-16	2.021134E-17
1.640000E+03	1.417807E-16	2.041525E-17
1.680000E+03	1.437785E-16	2.064115E-17
1.720000E+03	1.459492E-16	2.088853E-17
1.760000E+03	1.483039E-16	2.115869E-17
1.800000E+03	1.508650E-16	2.145446E-17
1.840000E+03	1.536032E-16	2.177130E-17
1.880000E+03	1.565519E-16	2.211355E-17
1.920000E+03	1.597055E-16	2.248001E-17
1.960000E+03	1.630588E-16	2.286951E-17
2.000000E+03	1.665953E-16	2.327930E-17
2.040000E+03	1.703108E-16	2.370838E-17
2.080000E+03	1.741798E-16	2.415279E-17
2.120000E+03	1.781575E-16	2.460591E-17
2.160000E+03	1.822350E-16	2.506618E-17
2.200000E+03	1.863635E-16	2.552661E-17
2.240000E+03	1.905096E-16	2.598236E-17
2.280000E+03	1.946638E-16	2.643195E-17
2.320000E+03	1.988385E-16	2.687691E-17
2.360000E+03	2.030760E-16	2.732267E-17
2.400000E+03	2.074264E-16	2.777570E-17
2.440000E+03	2.119382E-16	2.824208E-17
2.480000E+03	2.166857E-16	2.873116E-17
2.520000E+03	2.217133E-16	2.924815E-17
2.560000E+03	2.270822E-16	2.980034E-17
2.600000E+03	2.328259E-16	3.039121E-17
2.640000E+03	2.389866E-16	3.102526E-17
2.680000E+03	2.455892E-16	3.170459E-17
2.720000E+03	2.526588E-16	3.243124E-17
2.760000E+03	2.602190E-16	3.320700E-17
2.800000E+03	2.682835E-16	3.403225E-17
2.840000E+03	2.768611E-16	3.490671E-17
2.880000E+03	2.859679E-16	3.583097E-17
2.920000E+03	2.955907E-16	3.680191E-17
2.960000E+03	3.057337E-16	3.781857E-17
3.000000E+03	3.163470E-16	3.887332E-17
3.010000E+03	3.190748E-16	3.914293E-17
3.020000E+03	3.218213E-16	3.941348E-17
3.030000E+03	3.245836E-16	3.968465E-17
3.040000E+03	3.273736E-16	3.995783E-17
3.050000E+03	3.301807E-16	4.023173E-17
3.060000E+03	3.330010E-16	4.050588E-17
3.070000E+03	3.358381E-16	4.078068E-17
3.080000E+03	3.386804E-16	4.105471E-17
3.090000E+03	3.415231E-16	4.132740E-17
3.100000E+03	3.443756E-16	4.159987E-17
3.110000E+03	3.472179E-16	4.186971E-17
3.120000E+03	3.500512E-16	4.213706E-17
3.130000E+03	3.528620E-16	4.240029E-17
3.140000E+03	3.556644E-16	4.266113E-17
3.150000E+03	3.584297E-16	4.291612E-17
3.160000E+03	3.611567E-16	4.316517E-17
3.170000E+03	3.638440E-16	4.340809E-17
3.180000E+03	3.664820E-16	4.364381E-17
3.190000E+03	3.690471E-16	4.386953E-17
3.200000E+03	3.715493E-16	4.408649E-17
3.210000E+03	3.739639E-16	4.429180E-17
3.220000E+03	3.762860E-16	4.448493E-17
3.230000E+03	3.784964E-16	4.466369E-17
3.240000E+03	3.805890E-16	4.482743E-17
3.250000E+03	3.825503E-16	4.497464E-17
3.260000E+03	3.843662E-16	4.510376E-17
3.270000E+03	3.860161E-16	4.521245E-17
3.280000E+03	3.874916E-16	4.529987E-17
3.290000E+03	3.887779E-16	4.536438E-17
3.300000E+03	3.898535E-16	4.540363E-17
3.310000E+03	3.907099E-16	4.541675E-17
3.320000E+03	3.913258E-16	4.540145E-17
3.330000E+03	3.916931E-16	4.535693E-17
3.340000E+03	3.917919E-16	4.528106E-17
3.350000E+03	3.916092E-16	4.517254E-17
3.360000E+03	3.911333E-16	4.503021E-17
3.370000E+03	3.903537E-16	4.485306E-17
3.380000E+03	3.892617E-16	4.464029E-17
3.390000E+03	3.878448E-16	4.439072E-17
3.400000E+03	3.861045E-16	4.410471E-17
3.410000E+03	3.840280E-16	4.378105E-17
3.420000E+03	3.816279E-16	4.342140E-17
3.430000E+03	3.788981E-16	4.302528E-17
3.440000E+03	3.758471E-16	4.259391E-17
3.450000E+03	3.724873E-16	4.212889E-17
3.460000E+03	3.688294E-16	4.163167E-17
3.470000E+03	3.648973E-16	4.110513E-17
3.480000E+03	3.607087E-16	4.055147E-17
3.490000E+03	3.562853E-16	3.997330E-17
3.500000E+03	3.516571E-16	3.937414E-17
3.510000E+03	3.468533E-16	3.875741E-17
3.520000E+03	3.419160E-16	3.812794E-17
3.530000E+03	3.368733E-16	3.748892E-17
3.540000E+03	3.317739E-16	3.684588E-17
3.550000E+03	3.266612E-16	3.620366E-17
3.560000E+03	3.215847E-16	3.556773E-17
3.570000E+03	3.165877E-16	3.494288E-17
3.580000E+03	3.117185E-16	3.433437E-17
3.590000E+03	3.070311E-16	3.374804E-17
3.600000E+03	3.025632E-16	3.318794E-17
3.610000E+03	2.983650E-16	3.265937E-17
3.620000E+03	2.944755E-16	3.216645E-17
3.630000E+03	2.909303E-16	3.171284E-17
3.640000E+03	2.877666E-16	3.130234E-17
3.650000E+03	2.850198E-16	3.093854E-17
3.660000E+03	2.827177E-16	3.062418E-17
3.670000E+03	2.808978E-16	3.036299E-17
3.680000E+03	2.795824E-16	3.015706E-17
3.690000E+03	2.788024E-16	3.000938E-17
3.700000E+03	2.785856E-16	2.992256E-17
3.710000E+03	2.789604E-16	2.989928E-17
3.720000E+03	2.799488E-16	2.994146E-17
3.730000E+03	2.815767E-16	3.005148E-17
3.740000E+03	2.838641E-16	3.023101E-17
3.750000E+03	2.868314E-16	3.048180E-17
3.760000E+03	2.904918E-16	3.080476E-17
3.770000E+03	2.948511E-16	3.120005E-17
3.780000E+03	2.999051E-16	3.166676E-17
3.790000E+03	3.056415E-16	3.220312E-17
3.800000E+03	3.120444E-16	3.280700E-17
3.810000E+03	3.190708E-16	3.347345E-17
3.820000E+03	3.266774E-16	3.419752E-17
3.830000E+03	3.348043E-16	3.497256E-17
3.840000E+03	3.433671E-16	3.578943E-17
3.850000E+03	3.522711E-16	3.663800E-17
3.860000E+03	3.614067E-16	3.750668E-17
3.870000E+03	3.706453E-16	3.838200E-17
3.880000E+03	3.798465E-16	3.924940E-17
3.890000E+03	3.888562E-16	4.009303E-17
3.900000E+03	3.975219E-16	4.089734E-17
3.910000E+03	4.056883E-16	4.164664E-17
3.920000E+03	4.132064E-16	4.232600E-17
3.930000E+03	4.199386E-16	4.292184E-17
3.940000E+03	4.257646E-16	4.342240E-17
3.950000E+03	4.305902E-16	4.381872E-17
3.960000E+03	4.343439E-16	4.410423E-17
3.970000E+03	4.369780E-16	4.427482E-17
3.980000E+03	4.384863E-16	4.433061E-17
3.990000E+03	4.388802E-16	4.427352E-17
4.000000E+03	4.382059E-16	4.410894E-17
4.010000E+03	4.365283E-16	4.384410E-17
4.020000E+03	4.339285E-16	4.348781E-17
4.030000E+03	4.305142E-16	4.305143E-17
4.040000E+03	4.263885E-16	4.254581E-17
4.050000E+03	4.216677E-16	4.198297E-17
4.060000E+03	4.164654E-16	4.137460E-17
4.070000E+03	4.108889E-16	4.073165E-17
4.080000E+03	4.050405E-16	4.006449E-17
4.090000E+03	3.990182E-16	3.938294E-17
4.100000E+03	3.929001E-16	3.869481E-17
4.110000E+03	3.867576E-16	3.800720E-17
4.120000E+03	3.806591E-16	3.732680E-17
4.130000E+03	3.746459E-16	3.665763E-17
4.140000E+03	3.687603E-16	3.600375E-17
4.150000E+03	3.630330E-16	3.536808E-17
4.160000E+03	3.574850E-16	3.475255E-17
4.170000E+03	3.521319E-16	3.415856E-17
4.180000E+03	3.469856E-16	3.358713E-17
4.190000E+03	3.420547E-16	3.303896E-17
4.200000E+03	3.373471E-16	3.251465E-17
4.210000E+03	3.328706E-16	3.201485E-17
4.220000E+03	3.286338E-16	3.154022E-17
4.230000E+03	3.246445E-16	3.109134E-17
4.240000E+03	3.209162E-16	3.066936E-17
4.250000E+03	3.174668E-16	3.027584E-17
4.260000E+03	3.143151E-16	2.991238E-17
4.270000E+03	3.114773E-16	2.958034E-17
4.280000E+03	3.089793E-16	2.928199E-17
4.290000E+03	3.068475E-16	2.901963E-17
4.300000E+03	3.051108E-16	2.879577E-17
4.310000E+03	3.037972E-16	2.861282E-17
4.320000E+03	3.029346E-16	2.847316E-17
4.330000E+03	3.025583E-16	2.837984E-17
4.340000E+03	3.026868E-16	2.833432E-17
4.350000E+03	3.033485E-16	2.833899E-17
4.360000E+03	3.045660E-16	2.839565E-17
4.370000E+03	3.063584E-16	2.850580E-17
4.380000E+03	3.087426E-16	2.867067E-17
4.390000E+03	3.117364E-16	2.889163E-17
4.400000E+03	3.153467E-16	2.916897E-17
4.410000E+03	3.195836E-16	2.950333E-17
4.420000E+03	3.244459E-16	2.989429E-17
4.430000E+03	3.299135E-16	3.033967E-17
4.440000E+03	3.359581E-16	3.083660E-17
4.450000E+03	3.425276E-16	3.138005E-17
4.460000E+03	3.495409E-16	3.196234E-17
4.470000E+03	3.568957E-16	3.257396E-17
4.480000E+03	3.644560E-16	3.320239E-17
4.490000E+03	3.720583E-16	3.383271E-17
4.500000E+03	3.795134E-16	3.444775E-17
4.510000E+03	3.866128E-16	3.502875E-17
4.520000E+03	3.931328E-16	3.555571E-17
4.530000E+03	3.988490E-16	3.600867E-17
4.540000E+03	4.035481E-16	3.636886E-17
4.550000E+03	4.070312E-16	3.661888E-17
4.560000E+03	4.091299E-16	3.674422E-17
4.570000E+03	4.097224E-16	3.673462E-17
4.580000E+03	4.087472E-16	3.658530E-17
4.590000E+03	4.061900E-16	3.629566E-17
4.600000E+03	4.021046E-16	3.587124E-17
4.610000E+03	3.966079E-16	3.532309E-17
4.620000E+03	3.898677E-16	3.466675E-17
4.630000E+03	3.820826E-16	3.392034E-17
4.640000E+03	3.734934E-16	3.310561E-17
4.650000E+03	3.643301E-16	3.224322E-17
4.660000E+03	3.548433E-16	3.135550E-17
4.670000E+03	3.452488E-16	3.046157E-17
4.680000E+03	3.357414E-16	2.957859E-17
4.690000E+03	3.264867E-16	2.872103E-17
4.700000E+03	3.176060E-16	2.789941E-17
4.710000E+03	3.091932E-16	2.712176E-17
4.720000E+03	3.012976E-16	2.639219E-17
4.730000E+03	2.939267E-16	2.571111E-17
4.740000E+03	2.870655E-16	2.507699E-17
4.750000E+03	2.806716E-16	2.448590E-17
4.760000E+03	2.746973E-16	2.393348E-17
4.770000E+03	2.690808E-16	2.341419E-17
4.780000E+03	2.637884E-16	2.292494E-17
4.790000E+03	2.587937E-16	2.246329E-17
4.800000E+03	2.540910E-16	2.202860E-17
4.810000E+03	2.497041E-16	2.162281E-17
4.820000E+03	2.456613E-16	2.124824E-17
4.830000E+03	2.419894E-16	2.090706E-17
4.840000E+03	2.387236E-16	2.060217E-17
4.850000E+03	2.358860E-16	2.033534E-17
4.860000E+03	2.334916E-16	2.010771E-17
4.870000E+03	2.315524E-16	1.992017E-17
4.880000E+03	2.300704E-16	1.977277E-17
4.890000E+03	2.290385E-16	1.966475E-17
4.900000E+03	2.284521E-16	1.959559E-17
4.910000E+03	2.282915E-16	1.956349E-17
4.920000E+03	2.285439E-16	1.956725E-17
4.930000E+03	2.291953E-16	1.960555E-17
4.940000E+03	2.302247E-16	1.967653E-17
4.950000E+03	2.316191E-16	1.977899E-17
4.960000E+03	2.333658E-16	1.991176E-17
4.970000E+03	2.354575E-16	2.007415E-17
4.980000E+03	2.378877E-16	2.026556E-17
4.990000E+03	2.406568E-16	2.048596E-17
5.000000E+03	2.437604E-16	2.073490E-17
5.010000E+03	2.472037E-16	2.101280E-17
5.020000E+03	2.509834E-16	2.131931E-17
5.030000E+03	2.550949E-16	2.165402E-17
5.040000E+03	2.595368E-16	2.201675E-17
5.050000E+03	2.643029E-16	2.240696E-17
5.060000E+03	2.693832E-16	2.282376E-17
5.070000E+03	2.747682E-16	2.326632E-17
5.080000E+03	2.804485E-16	2.373381E-17
5.090000E+03	2.864040E-16	2.422455E-17
5.100000E+03	2.926170E-16	2.473699E-17
5.110000E+03	2.990719E-16	2.526984E-17
5.120000E+03	3.057363E-16	2.582033E-17
5.130000E+03	3.125876E-16	2.638659E-17
5.140000E+03	3.195851E-16	2.696516E-17
5.150000E+03	3.266925E-16	2.755302E-17
5.160000E+03	3.338600E-16	2.814597E-17
5.170000E+03	3.410357E-16	2.873967E-17
5.180000E+03	3.481552E-16	2.932874E-17
5.190000E+03	3.551460E-16	2.990708E-17
5.200000E+03	3.619366E-16	3.046874E-17
5.210000E+03	3.684440E-16	3.100676E-17
5.220000E+03	3.745979E-16	3.151529E-17
5.230000E+03	3.803137E-16	3.198727E-17
5.240000E+03	3.855233E-16	3.241701E-17
5.250000E+03	3.901653E-16	3.279941E-17
5.260000E+03	3.941906E-16	3.313042E-17
5.270000E+03	3.975506E-16	3.340597E-17
5.280000E+03	4.002246E-16	3.362439E-17
5.290000E+03	4.022012E-16	3.378475E-17
5.300000E+03	4.034819E-16	3.388723E-17
5.310000E+03	4.040801E-16	3.393299E-17
5.320000E+03	4.040312E-16	3.392500E-17
5.330000E+03	4.033614E-16	3.386550E-17
5.340000E+03	4.021153E-16	3.375822E-17
5.350000E+03	4.003404E-16	3.360719E-17
5.360000E+03	3.980900E-16	3.341684E-17
5.370000E+03	3.954055E-16	3.319068E-17
5.380000E+03	3.923483E-16	3.293383E-17
5.390000E+03	3.889650E-16	3.265019E-17
5.400000E+03	3.853041E-16	3.234382E-17
5.410000E+03	3.814070E-16	3.201818E-17
5.420000E+03	3.773140E-16	3.167662E-17
5.430000E+03	3.730651E-16	3.132250E-17
5.440000E+03	3.686859E-16	3.095793E-17
5.450000E+03	3.642093E-16	3.058565E-17
5.460000E+03	3.596589E-16	3.020762E-17
5.470000E+03	3.550680E-16	2.982663E-17
5.480000E+03	3.504834E-16	2.944659E-17
5.490000E+03	3.459425E-16	2.907060E-17
5.500000E+03	3.415004E-16	2.870329E-17
5.510000E+03	3.372004E-16	2.834827E-17
5.520000E+03	3.330989E-16	2.801027E-17
5.530000E+03	3.292371E-16	2.769273E-17
5.540000E+03	3.256570E-16	2.739917E-17
5.550000E+03	3.223925E-16	2.713245E-17
5.560000E+03	3.194856E-16	2.689611E-17
5.570000E+03	3.169541E-16	2.669164E-17
5.580000E+03	3.148201E-16	2.652093E-17
5.590000E+03	3.131007E-16	2.638543E-17
5.600000E+03	3.118106E-16	2.628641E-17
5.610000E+03	3.109532E-16	2.622417E-17
5.620000E+03	3.105364E-16	2.619942E-17
5.630000E+03	3.105596E-16	2.621214E-17
5.640000E+03	3.110167E-16	2.626185E-17
5.650000E+03	3.119029E-16	2.634820E-17
5.660000E+03	3.131981E-16	2.646951E-17
5.670000E+03	3.148861E-16	2.662448E-17
5.680000E+03	3.169493E-16	2.681165E-17
5.690000E+03	3.193589E-16	2.702864E-17
5.700000E+03	3.220844E-16	2.727290E-17
5.710000E+03	3.250941E-16	2.754179E-17
5.720000E+03	3.283566E-16	2.783268E-17
5.730000E+03	3.318260E-16	2.814173E-17
5.740000E+03	3.354703E-16	2.846625E-17
5.750000E+03	3.392454E-16	2.880251E-17
5.760000E+03	3.431037E-16	2.914651E-17
5.770000E+03	3.470040E-16	2.949476E-17
5.780000E+03	3.508983E-16	2.984318E-17
5.790000E+03	3.547298E-16	3.018695E-17
5.800000E+03	3.584447E-16	3.052148E-17
5.810000E+03	3.619891E-16	3.084217E-17
5.820000E+03	3.652943E-16	3.114312E-17
5.830000E+03	3.683055E-16	3.141964E-17
5.840000E+03	3.709606E-16	3.166638E-17
5.850000E+03	3.732037E-16	3.187851E-17
5.860000E+03	3.749908E-16	3.205220E-17
5.870000E+03	3.762688E-16	3.218282E-17
5.880000E+03	3.770116E-16	3.226807E-17
5.890000E+03	3.771924E-16	3.230555E-17
5.900000E+03	3.767930E-16	3.229360E-17
5.910000E+03	3.758073E-16	3.223158E-17
5.920000E+03	3.742401E-16	3.211980E-17
5.930000E+03	3.721042E-16	3.195925E-17
5.940000E+03	3.694101E-16	3.175072E-17
5.950000E+03	3.661871E-16	3.149662E-17
5.960000E+03	3.624710E-16	3.119992E-17
5.970000E+03	3.583031E-16	3.086408E-17
5.980000E+03	3.537260E-16	3.049266E-17
5.990000E+03	3.488002E-16	3.009080E-17
6.000000E+03	3.435748E-16	2.966267E-17
6.010000E+03	3.381306E-16	2.921517E-17
6.020000E+03	3.325243E-16	2.875314E-17
6.030000E+03	3.268298E-16	2.828294E-17
6.040000E+03	3.211277E-16	2.781152E-17
6.050000E+03	3.154861E-16	2.734477E-17
6.060000E+03	3.099765E-16	2.688890E-17
6.070000E+03	3.046611E-16	2.644930E-17
6.080000E+03	2.996069E-16	2.603185E-17
6.090000E+03	2.948582E-16	2.564044E-17
6.100000E+03	2.904707E-16	2.527998E-17
6.110000E+03	2.864763E-16	2.495330E-17
6.120000E+03	2.828987E-16	2.466257E-17
6.130000E+03	2.797566E-16	2.440949E-17
6.140000E+03	2.770563E-16	2.419470E-17
6.150000E+03	2.747870E-16	2.401736E-17
6.160000E+03	2.729305E-16	2.387598E-17
6.170000E+03	2.714573E-16	2.376805E-17
6.180000E+03	2.703142E-16	2.368902E-17
6.190000E+03	2.694494E-16	2.363439E-17
6.200000E+03	2.687970E-16	2.359847E-17
6.210000E+03	2.682896E-16	2.357536E-17
6.220000E+03	2.678567E-16	2.355890E-17
6.230000E+03	2.674336E-16	2.354341E-17
6.240000E+03	2.669749E-16	2.352489E-17
6.250000E+03	2.664489E-16	2.350053E-17
6.260000E+03	2.658453E-16	2.346940E-17
6.270000E+03	2.651701E-16	2.343201E-17
6.280000E+03	2.644484E-16	2.339056E-17
6.290000E+03	2.637053E-16	2.334725E-17
6.300000E+03	2.629708E-16	2.330475E-17
6.310000E+03	2.622803E-16	2.326618E-17
6.320000E+03	2.616623E-16	2.323408E-17
6.330000E+03	2.611350E-16	2.321010E-17
6.340000E+03	2.607205E-16	2.319621E-17
6.350000E+03	2.604320E-16	2.319363E-17
6.360000E+03	2.602722E-16	2.320261E-17
6.370000E+03	2.602525E-16	2.322422E-17
6.380000E+03	2.603707E-16	2.325830E-17
6.390000E+03	2.606235E-16	2.330457E-17
6.400000E+03	2.610056E-16	2.336259E-17
6.410000E+03	2.615136E-16	2.343210E-17
6.420000E+03	2.621310E-16	2.351163E-17
6.430000E+03	2.628507E-16	2.360058E-17
6.440000E+03	2.636519E-16	2.369709E-17
6.450000E+03	2.645113E-16	2.379911E-17
6.460000E+03	2.654080E-16	2.390474E-17
6.470000E+03	2.663113E-16	2.401123E-17
6.480000E+03	2.671940E-16	2.411612E-17
6.490000E+03	2.680172E-16	2.421588E-17
6.500000E+03	2.687565E-16	2.430829E-17
6.510000E+03	2.693833E-16	2.439073E-17
6.520000E+03	2.698712E-16	2.446076E-17
6.530000E+03	2.702056E-16	2.451704E-17
6.540000E+03	2.703769E-16	2.455860E-17
6.550000E+03	2.703836E-16	2.458530E-17
6.560000E+03	2.702292E-16	2.459738E-17
6.570000E+03	2.699284E-16	2.459612E-17
6.580000E+03	2.694914E-16	2.458242E-17
6.590000E+03	2.689313E-16	2.455744E-17
6.600000E+03	2.682661E-16	2.452276E-17
6.610000E+03	2.675080E-16	2.447948E-17
6.620000E+03	2.666586E-16	2.442771E-17
6.630000E+03	2.657262E-16	2.436817E-17
6.640000E+03	2.647079E-16	2.430059E-17
6.650000E+03	2.636095E-16	2.422544E-17
6.660000E+03	2.624186E-16	2.414157E-17
6.670000E+03	2.611326E-16	2.404872E-17
6.680000E+03	2.597519E-16	2.394688E-17
6.690000E+03	2.582756E-16	2.383595E-17
6.700000E+03	2.567013E-16	2.371565E-17
6.710000E+03	2.550316E-16	2.358622E-17
6.720000E+03	2.532771E-16	2.344860E-17
6.730000E+03	2.514427E-16	2.330321E-17
6.740000E+03	2.495422E-16	2.315131E-17
6.750000E+03	2.475784E-16	2.299313E-17
6.760000E+03	2.455735E-16	2.283073E-17
6.770000E+03	2.435319E-16	2.266450E-17
6.780000E+03	2.414761E-16	2.249651E-17
6.790000E+03	2.394106E-16	2.232720E-17
6.800000E+03	2.373505E-16	2.215794E-17
6.810000E+03	2.353049E-16	2.198962E-17
6.820000E+03	2.332781E-16	2.182262E-17
6.830000E+03	2.312796E-16	2.165785E-17
6.840000E+03	2.293093E-16	2.149529E-17
6.850000E+03	2.273746E-16	2.133565E-17
6.860000E+03	2.254675E-16	2.117820E-17
6.870000E+03	2.235966E-16	2.102374E-17
6.880000E+03	2.217577E-16	2.087190E-17
6.890000E+03	2.199504E-16	2.072263E-17
6.900000E+03	2.181704E-16	2.057556E-17
6.910000E+03	2.164261E-16	2.043147E-17
6.920000E+03	2.147030E-16	2.028901E-17
6.930000E+03	2.130114E-16	2.014916E-17
6.940000E+03	2.113420E-16	2.001105E-17
6.950000E+03	2.096929E-16	1.987450E-17
6.960000E+03	2.080675E-16	1.973984E-17
6.970000E+03	2.064618E-16	1.960670E-17
6.980000E+03	2.048753E-16	1.947505E-17
6.990000E+03	2.033088E-16	1.934495E-17
7.000000E+03	2.017633E-16	1.921652E-17
7.010000E+03	2.002376E-16	1.908964E-17
7.020000E+03	1.987271E-16	1.896390E-17
7.030000E+03	1.972402E-16	1.884008E-17
7.040000E+03	1.957647E-16	1.871703E-17
7.050000E+03	1.943129E-16	1.859594E-17
7.060000E+03	1.928744E-16	1.847581E-17
7.070000E+03	1.914556E-16	1.835727E-17
7.080000E+03	1.900524E-16	1.823992E-17
7.090000E+03	1.886647E-16	1.812378E-17
7.100000E+03	1.872946E-16	1.800903E-17
7.110000E+03	1.859334E-16	1.789486E-17
7.120000E+03	1.845852E-16	1.778165E-17
7.130000E+03	1.832448E-16	1.766891E-17
7.140000E+03	1.819153E-16	1.755696E-17
7.150000E+03	1.805974E-16	1.744585E-17
7.160000E+03	1.792858E-16	1.733509E-17
7.170000E+03	1.779837E-16	1.722498E-17
7.180000E+03	1.766842E-16	1.711487E-17
7.190000E+03	1.753930E-16	1.700529E-17
7.200000E+03	1.741061E-16	1.689588E-17
7.210000E+03	1.728210E-16	1.678640E-17
7.220000E+03	1.715416E-16	1.667720E-17
7.230000E+03	1.702695E-16	1.656848E-17
7.240000E+03	1.690053E-16	1.646029E-17
7.250000E+03	1.677521E-16	1.635293E-17
7.260000E+03	1.665149E-16	1.624688E-17
7.270000E+03	1.652999E-16	1.614278E-17
7.280000E+03	1.641115E-16	1.604105E-17
7.290000E+03	1.629481E-16	1.594154E-17
7.300000E+03	1.618220E-16	1.584548E-17
7.310000E+03	1.607334E-16	1.575288E-17
7.320000E+03	1.596820E-16	1.566373E-17
7.330000E+03	1.586745E-16	1.557872E-17
7.340000E+03	1.577058E-16	1.549733E-17
7.350000E+03	1.567769E-16	1.541970E-17
7.360000E+03	1.558897E-16	1.534600E-17
7.370000E+03	1.550405E-16	1.527590E-17
7.380000E+03	1.542327E-16	1.520974E-17
7.390000E+03	1.534574E-16	1.514665E-17
7.400000E+03	1.527203E-16	1.508722E-17
7.410000E+03	1.520153E-16	1.503083E-17
7.420000E+03	1.513468E-16	1.497796E-17
7.430000E+03	1.507115E-16	1.492826E-17
7.440000E+03	1.501101E-16	1.488184E-17
7.450000E+03	1.495478E-16	1.483921E-17
7.460000E+03	1.490213E-16	1.480006E-17
7.470000E+03	1.485406E-16	1.476540E-17
7.480000E+03	1.480998E-16	1.473465E-17
7.490000E+03	1.477031E-16	1.470824E-17
7.500000E+03	1.473449E-16	1.468563E-17
7.510000E+03	1.470313E-16	1.466743E-17
7.520000E+03	1.467523E-16	1.465268E-17
7.530000E+03	1.465002E-16	1.464059E-17
7.540000E+03	1.462696E-16	1.463063E-17
7.550000E+03	1.460483E-16	1.462161E-17
7.560000E+03	1.458305E-16	1.461294E-17
7.570000E+03	1.455973E-16	1.460271E-17
7.580000E+03	1.453380E-16	1.458986E-17
7.590000E+03	1.450433E-16	1.457345E-17
7.600000E+03	1.446998E-16	1.455213E-17
7.610000E+03	1.443018E-16	1.452529E-17
7.620000E+03	1.438402E-16	1.449202E-17
7.630000E+03	1.433198E-16	1.445278E-17
7.640000E+03	1.427336E-16	1.440685E-17
7.650000E+03	1.420911E-16	1.435517E-17
7.660000E+03	1.413917E-16	1.429766E-17
7.670000E+03	1.406475E-16	1.423555E-17
7.680000E+03	1.398590E-16	1.416886E-17
7.690000E+03	1.390398E-16	1.409896E-17
7.700000E+03	1.381917E-16	1.402602E-17
7.710000E+03	1.373195E-16	1.395054E-17
7.720000E+03	1.364272E-16	1.387290E-17
7.730000E+03	1.355161E-16	1.379324E-17
7.740000E+03	1.345870E-16	1.371162E-17
7.750000E+03	1.336370E-16	1.362775E-17
7.760000E+03	1.326708E-16	1.354212E-17
