#wls	flux	fluxerr
1.600000E+03	3.384158E-17	3.681678E-18
1.640000E+03	3.429331E-17	3.730802E-18
1.680000E+03	3.478562E-17	3.784340E-18
1.720000E+03	3.531803E-17	3.842239E-18
1.760000E+03	3.589309E-17	3.904776E-18
1.800000E+03	3.651606E-17	3.972525E-18
1.840000E+03	3.717960E-17	4.044684E-18
1.880000E+03	3.789154E-17	4.122108E-18
1.920000E+03	3.865025E-17	4.204618E-18
1.960000E+03	3.945414E-17	4.292041E-18
2.000000E+03	4.029882E-17	4.383899E-18
2.040000E+03	4.118292E-17	4.480043E-18
2.080000E+03	4.209978E-17	4.579748E-18
2.120000E+03	4.303806E-17	4.681781E-18
2.160000E+03	4.399509E-17	4.785852E-18
2.200000E+03	4.495853E-17	4.890616E-18
2.240000E+03	4.591967E-17	4.995127E-18
2.280000E+03	4.687560E-17	5.099069E-18
2.320000E+03	4.782857E-17	5.202687E-18
2.360000E+03	4.878797E-17	5.307000E-18
2.400000E+03	4.976494E-17	5.413220E-18
2.440000E+03	5.077003E-17	5.522497E-18
2.480000E+03	5.181974E-17	5.636623E-18
2.520000E+03	5.292322E-17	5.756594E-18
2.560000E+03	5.409323E-17	5.883798E-18
2.600000E+03	5.533568E-17	6.018876E-18
2.640000E+03	5.665810E-17	6.162649E-18
2.680000E+03	5.806350E-17	6.315441E-18
2.720000E+03	5.955440E-17	6.477528E-18
2.760000E+03	6.113246E-17	6.649090E-18
2.800000E+03	6.279627E-17	6.829972E-18
2.840000E+03	6.454261E-17	7.019823E-18
2.880000E+03	6.636914E-17	7.218388E-18
2.920000E+03	6.826579E-17	7.424573E-18
2.960000E+03	7.022557E-17	7.637616E-18
3.000000E+03	7.222813E-17	7.855303E-18
3.010000E+03	7.273457E-17	7.910354E-18
3.020000E+03	7.324047E-17	7.965345E-18
3.030000E+03	7.374505E-17	8.020193E-18
3.040000E+03	7.425082E-17	8.075170E-18
3.050000E+03	7.475520E-17	8.129995E-18
3.060000E+03	7.525724E-17	8.184564E-18
3.070000E+03	7.575750E-17	8.238940E-18
3.080000E+03	7.625325E-17	8.292825E-18
3.090000E+03	7.674330E-17	8.346089E-18
3.100000E+03	7.722955E-17	8.398939E-18
3.110000E+03	7.770744E-17	8.450880E-18
3.120000E+03	7.817710E-17	8.501924E-18
3.130000E+03	7.863540E-17	8.551734E-18
3.140000E+03	7.908537E-17	8.600636E-18
3.150000E+03	7.952057E-17	8.647932E-18
3.160000E+03	7.994072E-17	8.693590E-18
3.170000E+03	8.034538E-17	8.737564E-18
3.180000E+03	8.073251E-17	8.779630E-18
3.190000E+03	8.109688E-17	8.819220E-18
3.200000E+03	8.144079E-17	8.856586E-18
3.210000E+03	8.175888E-17	8.891143E-18
3.220000E+03	8.205022E-17	8.922790E-18
3.230000E+03	8.231083E-17	8.951096E-18
3.240000E+03	8.253960E-17	8.975938E-18
3.250000E+03	8.273392E-17	8.997033E-18
3.260000E+03	8.289110E-17	9.014089E-18
3.270000E+03	8.300705E-17	9.026661E-18
3.280000E+03	8.308053E-17	9.034615E-18
3.290000E+03	8.310888E-17	9.037660E-18
3.300000E+03	8.308815E-17	9.035369E-18
3.310000E+03	8.301723E-17	9.027619E-18
3.320000E+03	8.289243E-17	9.014010E-18
3.330000E+03	8.271289E-17	8.994449E-18
3.340000E+03	8.247533E-17	8.968578E-18
3.350000E+03	8.217808E-17	8.936216E-18
3.360000E+03	8.181977E-17	8.897214E-18
3.370000E+03	8.139938E-17	8.851462E-18
3.380000E+03	8.091630E-17	8.798893E-18
3.390000E+03	8.036924E-17	8.739367E-18
3.400000E+03	7.975975E-17	8.673053E-18
3.410000E+03	7.908657E-17	8.599814E-18
3.420000E+03	7.835355E-17	8.520067E-18
3.430000E+03	7.756071E-17	8.433818E-18
3.440000E+03	7.671104E-17	8.341389E-18
3.450000E+03	7.580816E-17	8.243174E-18
3.460000E+03	7.485530E-17	8.139526E-18
3.470000E+03	7.385836E-17	8.031085E-18
3.480000E+03	7.282180E-17	7.918338E-18
3.490000E+03	7.175077E-17	7.801842E-18
3.500000E+03	7.065199E-17	7.682330E-18
3.510000E+03	6.953179E-17	7.560491E-18
3.520000E+03	6.839886E-17	7.437267E-18
3.530000E+03	6.725882E-17	7.313271E-18
3.540000E+03	6.612124E-17	7.189546E-18
3.550000E+03	6.499428E-17	7.066974E-18
3.560000E+03	6.388706E-17	6.946550E-18
3.570000E+03	6.280725E-17	6.829108E-18
3.580000E+03	6.176326E-17	6.715561E-18
3.590000E+03	6.076468E-17	6.606953E-18
3.600000E+03	5.981782E-17	6.503969E-18
3.610000E+03	5.893144E-17	6.407562E-18
3.620000E+03	5.811236E-17	6.318473E-18
3.630000E+03	5.736631E-17	6.237324E-18
3.640000E+03	5.669918E-17	6.164759E-18
3.650000E+03	5.611699E-17	6.101427E-18
3.660000E+03	5.562399E-17	6.047795E-18
3.670000E+03	5.522600E-17	6.004493E-18
3.680000E+03	5.492606E-17	5.971851E-18
3.690000E+03	5.472878E-17	5.950371E-18
3.700000E+03	5.463794E-17	5.940463E-18
3.710000E+03	5.465761E-17	5.942572E-18
3.720000E+03	5.479040E-17	5.956978E-18
3.730000E+03	5.503967E-17	5.984048E-18
3.740000E+03	5.540762E-17	6.024022E-18
3.750000E+03	5.589635E-17	6.077125E-18
3.760000E+03	5.650631E-17	6.143408E-18
3.770000E+03	5.723722E-17	6.222840E-18
3.780000E+03	5.808669E-17	6.315161E-18
3.790000E+03	5.905063E-17	6.419926E-18
3.800000E+03	6.012484E-17	6.536677E-18
3.810000E+03	6.130003E-17	6.664406E-18
3.820000E+03	6.256699E-17	6.802110E-18
3.830000E+03	6.391406E-17	6.948522E-18
3.840000E+03	6.532523E-17	7.101900E-18
3.850000E+03	6.678304E-17	7.260347E-18
3.860000E+03	6.826818E-17	7.421764E-18
3.870000E+03	6.975845E-17	7.583736E-18
3.880000E+03	7.122991E-17	7.743661E-18
3.890000E+03	7.265678E-17	7.898737E-18
3.900000E+03	7.401418E-17	8.046259E-18
3.910000E+03	7.527700E-17	8.183496E-18
3.920000E+03	7.642146E-17	8.307865E-18
3.930000E+03	7.742600E-17	8.417021E-18
3.940000E+03	7.827205E-17	8.508946E-18
3.950000E+03	7.894553E-17	8.582111E-18
3.960000E+03	7.943594E-17	8.635373E-18
3.970000E+03	7.973660E-17	8.668006E-18
3.980000E+03	7.984767E-17	8.680030E-18
3.990000E+03	7.977176E-17	8.671727E-18
4.000000E+03	7.951705E-17	8.643987E-18
4.010000E+03	7.909461E-17	8.598014E-18
4.020000E+03	7.851782E-17	8.535263E-18
4.030000E+03	7.780438E-17	8.457657E-18
4.040000E+03	7.697121E-17	8.367038E-18
4.050000E+03	7.603738E-17	8.265478E-18
4.060000E+03	7.502124E-17	8.154971E-18
4.070000E+03	7.394059E-17	8.037453E-18
4.080000E+03	7.281222E-17	7.914749E-18
4.090000E+03	7.165217E-17	7.788603E-18
4.100000E+03	7.047358E-17	7.660442E-18
4.110000E+03	6.928851E-17	7.531580E-18
4.120000E+03	6.810847E-17	7.403264E-18
4.130000E+03	6.694076E-17	7.276291E-18
4.140000E+03	6.579293E-17	7.151480E-18
4.150000E+03	6.467048E-17	7.029428E-18
4.160000E+03	6.357765E-17	6.910599E-18
4.170000E+03	6.251778E-17	6.795352E-18
4.180000E+03	6.149347E-17	6.683972E-18
4.190000E+03	6.050687E-17	6.576693E-18
4.200000E+03	5.955995E-17	6.473727E-18
4.210000E+03	5.865459E-17	6.375279E-18
4.220000E+03	5.779276E-17	6.281565E-18
4.230000E+03	5.697620E-17	6.192772E-18
4.240000E+03	5.620746E-17	6.109177E-18
4.250000E+03	5.548987E-17	6.031143E-18
4.260000E+03	5.482667E-17	5.959021E-18
4.270000E+03	5.422051E-17	5.893099E-18
4.280000E+03	5.367581E-17	5.833858E-18
4.290000E+03	5.319679E-17	5.781757E-18
4.300000E+03	5.278787E-17	5.737275E-18
4.310000E+03	5.245353E-17	5.700898E-18
4.320000E+03	5.219774E-17	5.673060E-18
4.330000E+03	5.202561E-17	5.654314E-18
4.340000E+03	5.193996E-17	5.644967E-18
4.350000E+03	5.194502E-17	5.645478E-18
4.360000E+03	5.204361E-17	5.656155E-18
4.370000E+03	5.223846E-17	5.677292E-18
4.380000E+03	5.253124E-17	5.709072E-18
4.390000E+03	5.292330E-17	5.751641E-18
4.400000E+03	5.341444E-17	5.804978E-18
4.410000E+03	5.400420E-17	5.869031E-18
4.420000E+03	5.468946E-17	5.943461E-18
4.430000E+03	5.546484E-17	6.027685E-18
4.440000E+03	5.632329E-17	6.120934E-18
4.450000E+03	5.725353E-17	6.221985E-18
4.460000E+03	5.824120E-17	6.329274E-18
4.470000E+03	5.926853E-17	6.440872E-18
4.480000E+03	6.031236E-17	6.554261E-18
4.490000E+03	6.134726E-17	6.666679E-18
4.500000E+03	6.234420E-17	6.774969E-18
4.510000E+03	6.327130E-17	6.875667E-18
4.520000E+03	6.409611E-17	6.965249E-18
4.530000E+03	6.478655E-17	7.040228E-18
4.540000E+03	6.531248E-17	7.097328E-18
4.550000E+03	6.564735E-17	7.133666E-18
4.560000E+03	6.576930E-17	7.146865E-18
4.570000E+03	6.566321E-17	7.135285E-18
4.580000E+03	6.532375E-17	7.098345E-18
4.590000E+03	6.475166E-17	7.036129E-18
4.600000E+03	6.395697E-17	6.949723E-18
4.610000E+03	6.295895E-17	6.841226E-18
4.620000E+03	6.178317E-17	6.713413E-18
4.630000E+03	6.045858E-17	6.569433E-18
4.640000E+03	5.902094E-17	6.413171E-18
4.650000E+03	5.750318E-17	6.248206E-18
4.660000E+03	5.594103E-17	6.078420E-18
4.670000E+03	5.436606E-17	5.907243E-18
4.680000E+03	5.280630E-17	5.737721E-18
4.690000E+03	5.128530E-17	5.572413E-18
4.700000E+03	4.982160E-17	5.413334E-18
4.710000E+03	4.842953E-17	5.262040E-18
4.720000E+03	4.711694E-17	5.119384E-18
4.730000E+03	4.588752E-17	4.985766E-18
4.740000E+03	4.474162E-17	4.861224E-18
4.750000E+03	4.367551E-17	4.745353E-18
4.760000E+03	4.268591E-17	4.637798E-18
4.770000E+03	4.176648E-17	4.537868E-18
4.780000E+03	4.091351E-17	4.445159E-18
4.790000E+03	4.012369E-17	4.359314E-18
4.800000E+03	3.939447E-17	4.280053E-18
4.810000E+03	3.872609E-17	4.207404E-18
4.820000E+03	3.811976E-17	4.141497E-18
4.830000E+03	3.757614E-17	4.082404E-18
4.840000E+03	3.709723E-17	4.030341E-18
4.850000E+03	3.668427E-17	3.985446E-18
4.860000E+03	3.633775E-17	3.947768E-18
4.870000E+03	3.605794E-17	3.917338E-18
4.880000E+03	3.584480E-17	3.894153E-18
4.890000E+03	3.569703E-17	3.878068E-18
4.900000E+03	3.561359E-17	3.868973E-18
4.910000E+03	3.559201E-17	3.866598E-18
4.920000E+03	3.563066E-17	3.870767E-18
4.930000E+03	3.572753E-17	3.881260E-18
4.940000E+03	3.588024E-17	3.897818E-18
4.950000E+03	3.608733E-17	3.920284E-18
4.960000E+03	3.634700E-17	3.948462E-18
4.970000E+03	3.665851E-17	3.982270E-18
4.980000E+03	3.702081E-17	4.021595E-18
4.990000E+03	3.743351E-17	4.066395E-18
5.000000E+03	3.789599E-17	4.116601E-18
5.010000E+03	3.840885E-17	4.172279E-18
5.020000E+03	3.897105E-17	4.233316E-18
5.030000E+03	3.958213E-17	4.299661E-18
5.040000E+03	4.024177E-17	4.371281E-18
5.050000E+03	4.094858E-17	4.448023E-18
5.060000E+03	4.170126E-17	4.529746E-18
5.070000E+03	4.249810E-17	4.616265E-18
5.080000E+03	4.333708E-17	4.707360E-18
5.090000E+03	4.421518E-17	4.802701E-18
5.100000E+03	4.512931E-17	4.901956E-18
5.110000E+03	4.607639E-17	5.004788E-18
5.120000E+03	4.705126E-17	5.110637E-18
5.130000E+03	4.805001E-17	5.219077E-18
5.140000E+03	4.906554E-17	5.329338E-18
5.150000E+03	5.009232E-17	5.440820E-18
5.160000E+03	5.112240E-17	5.552658E-18
5.170000E+03	5.214743E-17	5.663946E-18
5.180000E+03	5.315815E-17	5.773678E-18
5.190000E+03	5.414396E-17	5.880703E-18
5.200000E+03	5.509431E-17	5.983874E-18
5.210000E+03	5.599778E-17	6.081953E-18
5.220000E+03	5.684479E-17	6.173897E-18
5.230000E+03	5.762339E-17	6.258410E-18
5.240000E+03	5.832475E-17	6.334534E-18
5.250000E+03	5.894077E-17	6.401387E-18
5.260000E+03	5.946487E-17	6.458255E-18
5.270000E+03	5.989093E-17	6.504476E-18
5.280000E+03	6.021664E-17	6.539797E-18
5.290000E+03	6.044042E-17	6.564048E-18
5.300000E+03	6.056319E-17	6.577328E-18
5.310000E+03	6.058702E-17	6.579864E-18
5.320000E+03	6.051680E-17	6.572185E-18
5.330000E+03	6.035678E-17	6.554754E-18
5.340000E+03	6.011348E-17	6.528280E-18
5.350000E+03	5.979355E-17	6.493483E-18
5.360000E+03	5.940525E-17	6.451264E-18
5.370000E+03	5.895474E-17	6.402288E-18
5.380000E+03	5.845066E-17	6.347496E-18
5.390000E+03	5.790035E-17	6.287685E-18
5.400000E+03	5.731099E-17	6.223634E-18
5.410000E+03	5.668836E-17	6.155971E-18
5.420000E+03	5.603903E-17	6.085410E-18
5.430000E+03	5.536927E-17	6.012633E-18
5.440000E+03	5.468290E-17	5.938052E-18
5.450000E+03	5.398576E-17	5.862303E-18
5.460000E+03	5.328190E-17	5.785826E-18
5.470000E+03	5.257651E-17	5.709183E-18
5.480000E+03	5.187733E-17	5.633216E-18
5.490000E+03	5.118996E-17	5.558533E-18
5.500000E+03	5.052206E-17	5.485966E-18
5.510000E+03	4.987999E-17	5.416204E-18
5.520000E+03	4.927138E-17	5.350078E-18
5.530000E+03	4.870102E-17	5.288105E-18
5.540000E+03	4.817464E-17	5.230909E-18
5.550000E+03	4.769644E-17	5.178945E-18
5.560000E+03	4.727140E-17	5.132754E-18
5.570000E+03	4.690190E-17	5.092595E-18
5.580000E+03	4.659058E-17	5.058754E-18
5.590000E+03	4.633902E-17	5.031402E-18
5.600000E+03	4.614908E-17	5.010741E-18
5.610000E+03	4.602067E-17	4.996761E-18
5.620000E+03	4.595402E-17	4.989487E-18
5.630000E+03	4.594872E-17	4.988874E-18
5.640000E+03	4.600335E-17	4.994768E-18
5.650000E+03	4.611634E-17	5.007000E-18
5.660000E+03	4.628460E-17	5.025231E-18
5.670000E+03	4.650541E-17	5.049168E-18
5.680000E+03	4.677556E-17	5.078462E-18
5.690000E+03	4.709088E-17	5.112660E-18
5.700000E+03	4.744678E-17	5.151262E-18
5.710000E+03	4.783828E-17	5.193729E-18
5.720000E+03	4.826107E-17	5.239594E-18
5.730000E+03	4.870859E-17	5.288143E-18
5.740000E+03	4.917608E-17	5.338859E-18
5.750000E+03	4.965755E-17	5.391093E-18
5.760000E+03	5.014629E-17	5.444114E-18
5.770000E+03	5.063638E-17	5.497283E-18
5.780000E+03	5.112160E-17	5.549923E-18
5.790000E+03	5.159436E-17	5.601209E-18
5.800000E+03	5.204734E-17	5.650347E-18
5.810000E+03	5.247406E-17	5.696633E-18
5.820000E+03	5.286574E-17	5.739116E-18
5.830000E+03	5.321534E-17	5.777030E-18
5.840000E+03	5.351551E-17	5.809579E-18
5.850000E+03	5.375945E-17	5.836021E-18
5.860000E+03	5.394160E-17	5.855757E-18
5.870000E+03	5.405556E-17	5.868091E-18
5.880000E+03	5.409835E-17	5.872699E-18
5.890000E+03	5.406637E-17	5.869189E-18
5.900000E+03	5.395774E-17	5.857361E-18
5.910000E+03	5.377179E-17	5.837138E-18
5.920000E+03	5.350903E-17	5.808579E-18
5.930000E+03	5.317169E-17	5.771924E-18
5.940000E+03	5.276123E-17	5.727333E-18
5.950000E+03	5.228146E-17	5.675219E-18
5.960000E+03	5.173765E-17	5.616154E-18
5.970000E+03	5.113550E-17	5.550758E-18
5.980000E+03	5.048042E-17	5.479618E-18
5.990000E+03	4.978094E-17	5.403658E-18
6.000000E+03	4.904345E-17	5.323574E-18
6.010000E+03	4.827840E-17	5.240501E-18
6.020000E+03	4.749328E-17	5.155248E-18
6.030000E+03	4.669756E-17	5.068848E-18
6.040000E+03	4.590135E-17	4.982395E-18
6.050000E+03	4.511350E-17	4.896852E-18
6.060000E+03	4.434308E-17	4.813201E-18
6.070000E+03	4.359755E-17	4.732253E-18
6.080000E+03	4.288577E-17	4.654970E-18
6.090000E+03	4.221310E-17	4.581933E-18
6.100000E+03	4.158647E-17	4.513894E-18
6.110000E+03	4.101006E-17	4.451308E-18
6.120000E+03	4.048684E-17	4.394495E-18
6.130000E+03	4.001894E-17	4.343688E-18
6.140000E+03	3.960755E-17	4.299016E-18
6.150000E+03	3.925147E-17	4.260347E-18
6.160000E+03	3.894851E-17	4.227445E-18
6.170000E+03	3.869596E-17	4.200016E-18
6.180000E+03	3.848793E-17	4.177418E-18
6.190000E+03	3.831885E-17	4.159049E-18
6.200000E+03	3.818235E-17	4.144216E-18
6.210000E+03	3.807167E-17	4.132187E-18
6.220000E+03	3.797930E-17	4.122145E-18
6.230000E+03	3.789880E-17	4.113392E-18
6.240000E+03	3.782543E-17	4.105414E-18
6.250000E+03	3.775494E-17	4.097748E-18
6.260000E+03	3.768572E-17	4.090220E-18
6.270000E+03	3.761713E-17	4.082762E-18
6.280000E+03	3.755041E-17	4.075506E-18
6.290000E+03	3.748713E-17	4.068625E-18
6.300000E+03	3.742945E-17	4.062351E-18
6.310000E+03	3.738019E-17	4.056993E-18
6.320000E+03	3.734210E-17	4.052846E-18
6.330000E+03	3.731664E-17	4.050071E-18
6.340000E+03	3.730591E-17	4.048895E-18
6.350000E+03	3.731153E-17	4.049494E-18
6.360000E+03	3.733364E-17	4.051883E-18
6.370000E+03	3.737354E-17	4.056203E-18
6.380000E+03	3.743106E-17	4.062436E-18
6.390000E+03	3.750568E-17	4.070525E-18
6.400000E+03	3.759645E-17	4.080366E-18
6.410000E+03	3.770310E-17	4.091932E-18
6.420000E+03	3.782333E-17	4.104972E-18
6.430000E+03	3.795605E-17	4.119368E-18
6.440000E+03	3.809863E-17	4.134835E-18
6.450000E+03	3.824807E-17	4.151046E-18
6.460000E+03	3.840155E-17	4.167696E-18
6.470000E+03	3.855539E-17	4.184385E-18
6.480000E+03	3.870631E-17	4.200757E-18
6.490000E+03	3.884925E-17	4.216265E-18
6.500000E+03	3.898167E-17	4.230631E-18
6.510000E+03	3.910016E-17	4.243484E-18
6.520000E+03	3.920128E-17	4.254453E-18
6.530000E+03	3.928344E-17	4.263365E-18
6.540000E+03	3.934518E-17	4.270061E-18
6.550000E+03	3.938591E-17	4.274477E-18
6.560000E+03	3.940569E-17	4.276619E-18
6.570000E+03	3.940585E-17	4.276633E-18
6.580000E+03	3.938687E-17	4.274570E-18
6.590000E+03	3.935005E-17	4.270571E-18
6.600000E+03	3.929742E-17	4.264856E-18
6.610000E+03	3.923013E-17	4.257551E-18
6.620000E+03	3.914844E-17	4.248683E-18
6.630000E+03	3.905360E-17	4.238389E-18
6.640000E+03	3.894526E-17	4.226629E-18
6.650000E+03	3.882480E-17	4.213555E-18
6.660000E+03	3.869078E-17	4.199008E-18
6.670000E+03	3.854309E-17	4.182979E-18
6.680000E+03	3.838230E-17	4.165529E-18
6.690000E+03	3.820848E-17	4.146664E-18
6.700000E+03	3.802126E-17	4.126346E-18
6.710000E+03	3.782115E-17	4.104628E-18
6.720000E+03	3.760957E-17	4.081667E-18
6.730000E+03	3.738689E-17	4.057501E-18
6.740000E+03	3.715495E-17	4.032330E-18
6.750000E+03	3.691381E-17	4.006161E-18
6.760000E+03	3.666631E-17	3.979302E-18
6.770000E+03	3.641270E-17	3.951779E-18
6.780000E+03	3.615588E-17	3.923909E-18
6.790000E+03	3.589602E-17	3.895709E-18
6.800000E+03	3.563512E-17	3.867396E-18
6.810000E+03	3.537433E-17	3.839095E-18
6.820000E+03	3.511396E-17	3.810840E-18
6.830000E+03	3.485541E-17	3.782783E-18
6.840000E+03	3.459858E-17	3.754912E-18
6.850000E+03	3.434448E-17	3.727338E-18
6.860000E+03	3.409206E-17	3.699947E-18
6.870000E+03	3.384268E-17	3.672885E-18
6.880000E+03	3.359578E-17	3.646092E-18
6.890000E+03	3.335140E-17	3.619574E-18
6.900000E+03	3.310893E-17	3.593263E-18
6.910000E+03	3.286964E-17	3.567296E-18
6.920000E+03	3.263158E-17	3.541463E-18
6.930000E+03	3.239651E-17	3.515956E-18
6.940000E+03	3.216316E-17	3.490634E-18
6.950000E+03	3.193151E-17	3.465498E-18
6.960000E+03	3.170224E-17	3.440620E-18
6.970000E+03	3.147484E-17	3.415944E-18
6.980000E+03	3.124948E-17	3.391490E-18
6.990000E+03	3.102636E-17	3.367280E-18
7.000000E+03	3.080567E-17	3.343332E-18
7.010000E+03	3.058753E-17	3.319663E-18
7.020000E+03	3.037149E-17	3.296220E-18
7.030000E+03	3.015885E-17	3.273146E-18
7.040000E+03	2.994798E-17	3.250266E-18
7.050000E+03	2.974084E-17	3.227789E-18
7.060000E+03	2.953580E-17	3.205541E-18
7.070000E+03	2.933411E-17	3.183656E-18
7.080000E+03	2.913520E-17	3.162073E-18
7.090000E+03	2.893907E-17	3.140792E-18
7.100000E+03	2.874621E-17	3.119866E-18
7.110000E+03	2.855539E-17	3.099161E-18
7.120000E+03	2.836712E-17	3.078733E-18
7.130000E+03	2.818072E-17	3.058507E-18
7.140000E+03	2.799667E-17	3.038538E-18
7.150000E+03	2.781492E-17	3.018817E-18
7.160000E+03	2.763482E-17	2.999276E-18
7.170000E+03	2.745683E-17	2.979963E-18
7.180000E+03	2.727981E-17	2.960755E-18
7.190000E+03	2.710480E-17	2.941767E-18
7.200000E+03	2.693125E-17	2.922936E-18
7.210000E+03	2.675871E-17	2.904215E-18
7.220000E+03	2.658789E-17	2.885680E-18
7.230000E+03	2.641905E-17	2.867361E-18
7.240000E+03	2.625207E-17	2.849244E-18
7.250000E+03	2.608745E-17	2.831382E-18
7.260000E+03	2.592580E-17	2.813842E-18
7.270000E+03	2.576774E-17	2.796693E-18
7.280000E+03	2.561394E-17	2.780006E-18
7.290000E+03	2.546399E-17	2.763736E-18
7.300000E+03	2.531953E-17	2.748063E-18
7.310000E+03	2.518060E-17	2.732989E-18
7.320000E+03	2.504711E-17	2.718506E-18
7.330000E+03	2.491998E-17	2.704713E-18
7.340000E+03	2.479844E-17	2.691527E-18
7.350000E+03	2.468275E-17	2.678976E-18
7.360000E+03	2.457307E-17	2.667078E-18
7.370000E+03	2.446903E-17	2.655790E-18
7.380000E+03	2.437120E-17	2.645178E-18
7.390000E+03	2.427815E-17	2.635084E-18
7.400000E+03	2.419090E-17	2.625620E-18
7.410000E+03	2.410854E-17	2.616686E-18
7.420000E+03	2.403159E-17	2.608339E-18
7.430000E+03	2.395962E-17	2.600533E-18
7.440000E+03	2.389265E-17	2.593270E-18
7.450000E+03	2.383124E-17	2.586610E-18
7.460000E+03	2.377483E-17	2.580492E-18
7.470000E+03	2.372485E-17	2.575073E-18
7.480000E+03	2.368008E-17	2.570220E-18
7.490000E+03	2.364118E-17	2.566003E-18
7.500000E+03	2.360712E-17	2.562311E-18
7.510000E+03	2.357870E-17	2.559232E-18
7.520000E+03	2.355447E-17	2.556607E-18
7.530000E+03	2.353327E-17	2.554311E-18
7.540000E+03	2.351422E-17	2.552249E-18
7.550000E+03	2.349579E-17	2.550255E-18
7.560000E+03	2.347733E-17	2.548256E-18
7.570000E+03	2.345607E-17	2.545954E-18
7.580000E+03	2.343080E-17	2.543217E-18
7.590000E+03	2.340043E-17	2.539926E-18
7.600000E+03	2.336304E-17	2.535873E-18
7.610000E+03	2.331800E-17	2.530989E-18
7.620000E+03	2.326397E-17	2.525131E-18
7.630000E+03	2.320150E-17	2.518355E-18
7.640000E+03	2.312940E-17	2.510535E-18
7.650000E+03	2.304886E-17	2.501798E-18
7.660000E+03	2.295924E-17	2.492076E-18
7.670000E+03	2.286221E-17	2.481549E-18
7.680000E+03	2.275735E-17	2.470173E-18
7.690000E+03	2.264644E-17	2.458139E-18
7.700000E+03	2.252959E-17	2.445461E-18
7.710000E+03	2.240734E-17	2.432196E-18
7.720000E+03	2.228010E-17	2.418391E-18
7.730000E+03	2.214814E-17	2.404072E-18
7.740000E+03	2.201159E-17	2.389256E-18
7.750000E+03	2.187000E-17	2.373892E-18
7.760000E+03	2.172434E-17	2.358087E-18
