#wls	flux	fluxerr
1.600000E+03	3.335365E-16	1.079294E-17
1.640000E+03	3.398009E-16	1.094913E-17
1.680000E+03	3.465824E-16	1.111906E-17
1.720000E+03	3.538888E-16	1.130266E-17
1.760000E+03	3.617584E-16	1.150085E-17
1.800000E+03	3.702587E-16	1.171539E-17
1.840000E+03	3.793311E-16	1.194407E-17
1.880000E+03	3.890720E-16	1.218950E-17
1.920000E+03	3.994832E-16	1.245130E-17
1.960000E+03	4.105680E-16	1.272912E-17
2.000000E+03	4.223012E-16	1.302170E-17
2.040000E+03	4.346900E-16	1.332878E-17
2.080000E+03	4.476864E-16	1.364838E-17
2.120000E+03	4.611929E-16	1.397706E-17
2.160000E+03	4.752030E-16	1.431417E-17
2.200000E+03	4.896067E-16	1.465593E-17
2.240000E+03	5.043318E-16	1.499978E-17
2.280000E+03	5.193692E-16	1.534507E-17
2.320000E+03	5.347703E-16	1.569291E-17
2.360000E+03	5.506699E-16	1.604678E-17
2.400000E+03	5.672323E-16	1.641092E-17
2.440000E+03	5.846251E-16	1.678949E-17
2.480000E+03	6.030971E-16	1.718879E-17
2.520000E+03	6.228277E-16	1.761295E-17
2.560000E+03	6.440558E-16	1.806754E-17
2.600000E+03	6.669593E-16	1.855620E-17
2.640000E+03	6.917573E-16	1.908349E-17
2.680000E+03	7.186409E-16	1.965297E-17
2.720000E+03	7.478251E-16	2.026858E-17
2.760000E+03	7.795521E-16	2.093475E-17
2.800000E+03	8.140689E-16	2.165572E-17
2.840000E+03	8.516532E-16	2.243623E-17
2.880000E+03	8.926597E-16	2.328265E-17
2.920000E+03	9.374212E-16	2.420035E-17
2.960000E+03	9.864064E-16	2.519772E-17
3.000000E+03	1.040013E-15	2.628074E-17
3.010000E+03	1.054216E-15	2.656635E-17
3.020000E+03	1.068726E-15	2.685741E-17
3.030000E+03	1.083546E-15	2.715394E-17
3.040000E+03	1.098728E-15	2.745712E-17
3.050000E+03	1.114250E-15	2.776632E-17
3.060000E+03	1.130113E-15	2.808152E-17
3.070000E+03	1.146342E-15	2.840323E-17
3.080000E+03	1.162916E-15	2.873083E-17
3.090000E+03	1.179831E-15	2.906414E-17
3.100000E+03	1.197136E-15	2.940430E-17
3.110000E+03	1.214780E-15	2.974993E-17
3.120000E+03	1.232779E-15	3.010139E-17
3.130000E+03	1.251108E-15	3.045791E-17
3.140000E+03	1.269830E-15	3.082098E-17
3.150000E+03	1.288862E-15	3.118848E-17
3.160000E+03	1.308217E-15	3.156063E-17
3.170000E+03	1.327905E-15	3.193761E-17
3.180000E+03	1.347909E-15	3.231892E-17
3.190000E+03	1.368159E-15	3.270278E-17
3.200000E+03	1.388706E-15	3.309037E-17
3.210000E+03	1.409472E-15	3.347974E-17
3.220000E+03	1.430451E-15	3.387067E-17
3.230000E+03	1.451582E-15	3.426169E-17
3.240000E+03	1.472848E-15	3.465234E-17
3.250000E+03	1.494204E-15	3.504150E-17
3.260000E+03	1.515599E-15	3.542797E-17
3.270000E+03	1.536948E-15	3.580972E-17
3.280000E+03	1.558213E-15	3.618592E-17
3.290000E+03	1.579324E-15	3.655490E-17
3.300000E+03	1.600178E-15	3.691432E-17
3.310000E+03	1.620715E-15	3.726286E-17
3.320000E+03	1.640819E-15	3.759793E-17
3.330000E+03	1.660417E-15	3.791795E-17
3.340000E+03	1.679379E-15	3.822005E-17
3.350000E+03	1.697592E-15	3.850181E-17
3.360000E+03	1.714939E-15	3.876078E-17
3.370000E+03	1.731299E-15	3.899441E-17
3.380000E+03	1.746546E-15	3.920009E-17
3.390000E+03	1.760525E-15	3.937464E-17
3.400000E+03	1.773133E-15	3.951603E-17
3.410000E+03	1.784193E-15	3.962066E-17
3.420000E+03	1.793630E-15	3.968725E-17
3.430000E+03	1.801278E-15	3.971252E-17
3.440000E+03	1.807027E-15	3.969449E-17
3.450000E+03	1.810781E-15	3.963150E-17
3.460000E+03	1.812432E-15	3.952170E-17
3.470000E+03	1.811942E-15	3.936476E-17
3.480000E+03	1.809241E-15	3.915969E-17
3.490000E+03	1.804284E-15	3.890608E-17
3.500000E+03	1.797079E-15	3.860463E-17
3.510000E+03	1.787640E-15	3.825622E-17
3.520000E+03	1.776061E-15	3.786344E-17
3.530000E+03	1.762383E-15	3.742764E-17
3.540000E+03	1.746777E-15	3.695298E-17
3.550000E+03	1.729406E-15	3.644342E-17
3.560000E+03	1.710502E-15	3.590423E-17
3.570000E+03	1.690291E-15	3.534057E-17
3.580000E+03	1.669067E-15	3.475890E-17
3.590000E+03	1.647200E-15	3.416712E-17
3.600000E+03	1.624995E-15	3.357176E-17
3.610000E+03	1.602813E-15	3.298033E-17
3.620000E+03	1.580973E-15	3.239936E-17
3.630000E+03	1.559796E-15	3.183534E-17
3.640000E+03	1.539636E-15	3.129534E-17
3.650000E+03	1.520873E-15	3.078678E-17
3.660000E+03	1.503852E-15	3.031628E-17
3.670000E+03	1.488964E-15	2.989125E-17
3.680000E+03	1.476523E-15	2.951747E-17
3.690000E+03	1.466879E-15	2.920129E-17
3.700000E+03	1.460354E-15	2.894837E-17
3.710000E+03	1.457264E-15	2.876420E-17
3.720000E+03	1.457881E-15	2.865326E-17
3.730000E+03	1.462490E-15	2.862017E-17
3.740000E+03	1.471337E-15	2.866874E-17
3.750000E+03	1.484666E-15	2.880261E-17
3.760000E+03	1.502677E-15	2.902452E-17
3.770000E+03	1.525556E-15	2.933685E-17
3.780000E+03	1.553433E-15	2.974084E-17
3.790000E+03	1.586387E-15	3.023674E-17
3.800000E+03	1.624480E-15	3.082442E-17
3.810000E+03	1.667621E-15	3.150085E-17
3.820000E+03	1.715683E-15	3.226234E-17
3.830000E+03	1.768432E-15	3.310325E-17
3.840000E+03	1.825456E-15	3.401471E-17
3.850000E+03	1.886232E-15	3.498593E-17
3.860000E+03	1.950100E-15	3.600376E-17
3.870000E+03	2.016226E-15	3.705207E-17
3.880000E+03	2.083631E-15	3.811238E-17
3.890000E+03	2.151193E-15	3.916397E-17
3.900000E+03	2.217729E-15	4.018533E-17
3.910000E+03	2.281968E-15	4.115385E-17
3.920000E+03	2.342633E-15	4.204719E-17
3.930000E+03	2.398477E-15	4.284400E-17
3.940000E+03	2.448343E-15	4.352499E-17
3.950000E+03	2.491270E-15	4.407469E-17
3.960000E+03	2.526465E-15	4.448098E-17
3.970000E+03	2.553341E-15	4.473554E-17
3.980000E+03	2.571652E-15	4.483627E-17
3.990000E+03	2.581344E-15	4.478444E-17
4.000000E+03	2.582666E-15	4.458659E-17
4.010000E+03	2.576107E-15	4.425329E-17
4.020000E+03	2.562331E-15	4.379793E-17
4.030000E+03	2.542214E-15	4.323725E-17
4.040000E+03	2.516679E-15	4.258856E-17
4.050000E+03	2.486745E-15	4.187038E-17
4.060000E+03	2.453404E-15	4.110048E-17
4.070000E+03	2.417610E-15	4.029564E-17
4.080000E+03	2.380250E-15	3.947121E-17
4.090000E+03	2.342142E-15	3.864108E-17
4.100000E+03	2.303954E-15	3.781643E-17
4.110000E+03	2.266265E-15	3.700675E-17
4.120000E+03	2.229588E-15	3.622022E-17
4.130000E+03	2.194247E-15	3.546186E-17
4.140000E+03	2.160531E-15	3.473598E-17
4.150000E+03	2.128626E-15	3.404513E-17
4.160000E+03	2.098640E-15	3.339061E-17
4.170000E+03	2.070625E-15	3.277275E-17
4.180000E+03	2.044587E-15	3.219117E-17
4.190000E+03	2.020499E-15	3.164495E-17
4.200000E+03	1.998318E-15	3.113298E-17
4.210000E+03	1.977996E-15	3.065401E-17
4.220000E+03	1.959494E-15	3.020701E-17
4.230000E+03	1.942771E-15	2.979093E-17
4.240000E+03	1.927825E-15	2.940528E-17
4.250000E+03	1.914702E-15	2.905038E-17
4.260000E+03	1.903457E-15	2.872661E-17
4.270000E+03	1.894127E-15	2.843410E-17
4.280000E+03	1.886815E-15	2.817394E-17
4.290000E+03	1.881614E-15	2.794705E-17
4.300000E+03	1.878614E-15	2.775429E-17
4.310000E+03	1.877901E-15	2.759642E-17
4.320000E+03	1.879522E-15	2.747363E-17
4.330000E+03	1.883541E-15	2.738633E-17
4.340000E+03	1.889907E-15	2.733326E-17
4.350000E+03	1.898596E-15	2.731358E-17
4.360000E+03	1.909510E-15	2.732542E-17
4.370000E+03	1.922549E-15	2.736688E-17
4.380000E+03	1.937603E-15	2.743597E-17
4.390000E+03	1.954649E-15	2.753197E-17
4.400000E+03	1.973844E-15	2.765670E-17
4.410000E+03	1.995567E-15	2.781502E-17
4.420000E+03	2.020200E-15	2.801178E-17
4.430000E+03	2.048089E-15	2.825115E-17
4.440000E+03	2.079513E-15	2.853637E-17
4.450000E+03	2.114568E-15	2.886808E-17
4.460000E+03	2.153179E-15	2.924460E-17
4.470000E+03	2.195080E-15	2.966173E-17
4.480000E+03	2.239726E-15	3.011155E-17
4.490000E+03	2.286399E-15	3.058406E-17
4.500000E+03	2.334143E-15	3.106626E-17
4.510000E+03	2.381783E-15	3.154251E-17
4.520000E+03	2.427995E-15	3.199555E-17
4.530000E+03	2.471340E-15	3.240696E-17
4.540000E+03	2.510333E-15	3.275804E-17
4.550000E+03	2.543517E-15	3.303088E-17
4.560000E+03	2.569524E-15	3.320901E-17
4.570000E+03	2.587194E-15	3.327898E-17
4.580000E+03	2.595747E-15	3.323240E-17
4.590000E+03	2.594658E-15	3.306434E-17
4.600000E+03	2.583836E-15	3.277541E-17
4.610000E+03	2.563694E-15	3.237253E-17
4.620000E+03	2.535016E-15	3.186716E-17
4.630000E+03	2.498836E-15	3.127367E-17
4.640000E+03	2.456605E-15	3.061130E-17
4.650000E+03	2.409748E-15	2.989867E-17
4.660000E+03	2.359875E-15	2.915630E-17
4.670000E+03	2.308464E-15	2.840272E-17
4.680000E+03	2.256842E-15	2.765432E-17
4.690000E+03	2.206109E-15	2.692443E-17
4.700000E+03	2.157084E-15	2.622273E-17
4.710000E+03	2.110300E-15	2.555531E-17
4.720000E+03	2.065875E-15	2.492317E-17
4.730000E+03	2.023580E-15	2.432310E-17
4.740000E+03	1.982849E-15	2.374792E-17
4.750000E+03	1.942717E-15	2.318579E-17
4.760000E+03	1.902030E-15	2.262273E-17
4.770000E+03	1.859344E-15	2.204152E-17
4.780000E+03	1.813388E-15	2.142716E-17
4.790000E+03	1.763839E-15	2.077604E-17
4.800000E+03	1.712328E-15	2.010748E-17
4.810000E+03	1.660861E-15	1.944500E-17
4.820000E+03	1.611141E-15	1.880823E-17
4.830000E+03	1.564411E-15	1.821129E-17
4.840000E+03	1.521583E-15	1.766427E-17
4.850000E+03	1.483209E-15	1.717303E-17
4.860000E+03	1.449559E-15	1.674013E-17
4.870000E+03	1.420703E-15	1.636580E-17
4.880000E+03	1.396562E-15	1.604863E-17
4.890000E+03	1.376911E-15	1.578552E-17
4.900000E+03	1.361486E-15	1.557301E-17
4.910000E+03	1.349936E-15	1.540667E-17
4.920000E+03	1.341934E-15	1.528244E-17
4.930000E+03	1.337144E-15	1.519619E-17
4.940000E+03	1.335232E-15	1.514384E-17
4.950000E+03	1.335920E-15	1.512202E-17
4.960000E+03	1.338944E-15	1.512754E-17
4.970000E+03	1.344113E-15	1.515809E-17
4.980000E+03	1.351250E-15	1.521150E-17
4.990000E+03	1.360229E-15	1.528622E-17
5.000000E+03	1.370956E-15	1.538110E-17
5.010000E+03	1.383403E-15	1.549568E-17
5.020000E+03	1.397491E-15	1.562901E-17
5.030000E+03	1.413174E-15	1.578047E-17
5.040000E+03	1.430416E-15	1.594958E-17
5.050000E+03	1.449138E-15	1.613536E-17
5.060000E+03	1.469270E-15	1.633700E-17
5.070000E+03	1.490724E-15	1.655343E-17
5.080000E+03	1.513404E-15	1.678354E-17
5.090000E+03	1.537270E-15	1.702683E-17
5.100000E+03	1.562297E-15	1.728298E-17
5.110000E+03	1.588446E-15	1.755153E-17
5.120000E+03	1.615627E-15	1.783143E-17
5.130000E+03	1.643788E-15	1.812208E-17
5.140000E+03	1.672765E-15	1.842164E-17
5.150000E+03	1.702450E-15	1.872890E-17
5.160000E+03	1.732653E-15	1.904175E-17
5.170000E+03	1.763168E-15	1.935792E-17
5.180000E+03	1.793760E-15	1.967481E-17
5.190000E+03	1.824141E-15	1.998928E-17
5.200000E+03	1.854005E-15	2.029800E-17
5.210000E+03	1.883002E-15	2.059712E-17
5.220000E+03	1.910809E-15	2.088318E-17
5.230000E+03	1.936987E-15	2.115138E-17
5.240000E+03	1.961171E-15	2.139781E-17
5.250000E+03	1.982978E-15	2.161832E-17
5.260000E+03	2.002057E-15	2.180916E-17
5.270000E+03	2.018091E-15	2.196695E-17
5.280000E+03	2.030884E-15	2.208960E-17
5.290000E+03	2.040264E-15	2.217535E-17
5.300000E+03	2.046183E-15	2.222371E-17
5.310000E+03	2.048636E-15	2.223471E-17
5.320000E+03	2.047705E-15	2.220932E-17
5.330000E+03	2.043477E-15	2.214852E-17
5.340000E+03	2.036101E-15	2.205401E-17
5.350000E+03	2.025740E-15	2.192759E-17
5.360000E+03	2.012669E-15	2.177229E-17
5.370000E+03	1.997097E-15	2.159042E-17
5.380000E+03	1.979352E-15	2.138556E-17
5.390000E+03	1.959797E-15	2.116165E-17
5.400000E+03	1.938806E-15	2.092275E-17
5.410000E+03	1.916693E-15	2.067227E-17
5.420000E+03	1.893791E-15	2.041380E-17
5.430000E+03	1.870384E-15	2.015041E-17
5.440000E+03	1.846613E-15	1.988362E-17
5.450000E+03	1.822638E-15	1.961515E-17
5.460000E+03	1.798479E-15	1.934520E-17
5.470000E+03	1.774100E-15	1.907339E-17
5.480000E+03	1.749474E-15	1.879942E-17
5.490000E+03	1.724431E-15	1.852144E-17
5.500000E+03	1.698975E-15	1.823948E-17
5.510000E+03	1.673457E-15	1.795728E-17
5.520000E+03	1.648294E-15	1.767928E-17
5.530000E+03	1.623732E-15	1.740809E-17
5.540000E+03	1.599995E-15	1.714610E-17
5.550000E+03	1.577225E-15	1.689478E-17
5.560000E+03	1.555578E-15	1.665577E-17
5.570000E+03	1.535154E-15	1.643012E-17
5.580000E+03	1.516094E-15	1.621929E-17
5.590000E+03	1.498534E-15	1.602471E-17
5.600000E+03	1.482666E-15	1.584841E-17
5.610000E+03	1.468645E-15	1.569199E-17
5.620000E+03	1.456658E-15	1.555744E-17
5.630000E+03	1.446891E-15	1.544670E-17
5.640000E+03	1.439501E-15	1.536139E-17
5.650000E+03	1.434637E-15	1.530309E-17
5.660000E+03	1.432396E-15	1.527279E-17
5.670000E+03	1.432871E-15	1.527142E-17
5.680000E+03	1.436114E-15	1.529950E-17
5.690000E+03	1.442127E-15	1.535703E-17
5.700000E+03	1.450865E-15	1.544347E-17
5.710000E+03	1.462235E-15	1.555780E-17
5.720000E+03	1.476126E-15	1.569880E-17
5.730000E+03	1.492315E-15	1.586406E-17
5.740000E+03	1.510592E-15	1.605132E-17
5.750000E+03	1.530691E-15	1.625773E-17
5.760000E+03	1.552290E-15	1.647983E-17
5.770000E+03	1.575053E-15	1.671405E-17
5.780000E+03	1.598621E-15	1.695657E-17
5.790000E+03	1.622569E-15	1.720286E-17
5.800000E+03	1.646452E-15	1.744821E-17
5.810000E+03	1.669853E-15	1.768822E-17
5.820000E+03	1.692260E-15	1.791746E-17
5.830000E+03	1.713212E-15	1.813111E-17
5.840000E+03	1.732283E-15	1.832466E-17
5.850000E+03	1.749072E-15	1.849393E-17
5.860000E+03	1.763223E-15	1.863519E-17
5.870000E+03	1.774395E-15	1.874490E-17
5.880000E+03	1.782372E-15	1.882082E-17
5.890000E+03	1.786932E-15	1.886068E-17
5.900000E+03	1.787986E-15	1.886359E-17
5.910000E+03	1.785496E-15	1.882925E-17
5.920000E+03	1.779477E-15	1.875784E-17
5.930000E+03	1.770047E-15	1.865068E-17
5.940000E+03	1.757309E-15	1.850893E-17
5.950000E+03	1.741439E-15	1.833449E-17
5.960000E+03	1.722709E-15	1.813028E-17
5.970000E+03	1.701394E-15	1.789924E-17
5.980000E+03	1.677758E-15	1.764419E-17
5.990000E+03	1.652197E-15	1.736932E-17
6.000000E+03	1.625022E-15	1.707795E-17
6.010000E+03	1.596685E-15	1.677483E-17
6.020000E+03	1.567569E-15	1.646402E-17
6.030000E+03	1.538127E-15	1.615029E-17
6.040000E+03	1.508820E-15	1.583847E-17
6.050000E+03	1.480097E-15	1.553327E-17
6.060000E+03	1.452402E-15	1.523937E-17
6.070000E+03	1.426117E-15	1.496076E-17
6.080000E+03	1.401677E-15	1.470199E-17
6.090000E+03	1.379394E-15	1.446632E-17
6.100000E+03	1.359619E-15	1.425744E-17
6.110000E+03	1.342613E-15	1.407806E-17
6.120000E+03	1.328579E-15	1.393033E-17
6.130000E+03	1.317673E-15	1.381587E-17
6.140000E+03	1.309986E-15	1.373564E-17
6.150000E+03	1.305479E-15	1.368928E-17
6.160000E+03	1.304014E-15	1.367533E-17
6.170000E+03	1.305346E-15	1.369125E-17
6.180000E+03	1.309003E-15	1.373215E-17
6.190000E+03	1.314396E-15	1.379187E-17
6.200000E+03	1.320745E-15	1.386223E-17
6.210000E+03	1.327103E-15	1.393332E-17
6.220000E+03	1.332353E-15	1.399338E-17
6.230000E+03	1.335329E-15	1.403013E-17
6.240000E+03	1.334970E-15	1.403239E-17
6.250000E+03	1.330882E-15	1.399595E-17
6.260000E+03	1.323707E-15	1.392748E-17
6.270000E+03	1.314309E-15	1.383600E-17
6.280000E+03	1.303582E-15	1.373087E-17
6.290000E+03	1.292315E-15	1.362036E-17
6.300000E+03	1.281160E-15	1.351130E-17
6.310000E+03	1.270638E-15	1.340916E-17
6.320000E+03	1.261115E-15	1.331780E-17
6.330000E+03	1.252781E-15	1.323922E-17
6.340000E+03	1.245746E-15	1.317459E-17
6.350000E+03	1.240028E-15	1.312411E-17
6.360000E+03	1.235540E-15	1.308687E-17
6.370000E+03	1.232209E-15	1.306211E-17
6.380000E+03	1.229935E-15	1.304877E-17
6.390000E+03	1.228609E-15	1.304573E-17
6.400000E+03	1.228124E-15	1.305180E-17
6.410000E+03	1.228436E-15	1.306653E-17
6.420000E+03	1.229452E-15	1.308894E-17
6.430000E+03	1.231135E-15	1.311862E-17
6.440000E+03	1.233409E-15	1.315474E-17
6.450000E+03	1.236191E-15	1.319642E-17
6.460000E+03	1.239398E-15	1.324275E-17
6.470000E+03	1.242903E-15	1.329238E-17
6.480000E+03	1.246571E-15	1.334383E-17
6.490000E+03	1.250171E-15	1.339461E-17
6.500000E+03	1.253520E-15	1.344274E-17
6.510000E+03	1.256365E-15	1.348546E-17
6.520000E+03	1.258413E-15	1.351959E-17
6.530000E+03	1.259433E-15	1.354260E-17
6.540000E+03	1.259346E-15	1.355358E-17
6.550000E+03	1.258306E-15	1.355415E-17
6.560000E+03	1.256525E-15	1.354653E-17
6.570000E+03	1.254226E-15	1.353310E-17
6.580000E+03	1.251553E-15	1.351538E-17
6.590000E+03	1.248633E-15	1.349470E-17
6.600000E+03	1.245561E-15	1.347208E-17
6.610000E+03	1.242365E-15	1.344779E-17
6.620000E+03	1.239008E-15	1.342142E-17
6.630000E+03	1.235456E-15	1.339258E-17
6.640000E+03	1.231599E-15	1.336006E-17
6.650000E+03	1.227380E-15	1.332321E-17
6.660000E+03	1.222644E-15	1.328033E-17
6.670000E+03	1.217274E-15	1.323015E-17
6.680000E+03	1.211204E-15	1.317189E-17
6.690000E+03	1.204358E-15	1.310474E-17
6.700000E+03	1.196667E-15	1.302791E-17
6.710000E+03	1.188156E-15	1.294165E-17
6.720000E+03	1.178900E-15	1.284676E-17
6.730000E+03	1.168948E-15	1.274378E-17
6.740000E+03	1.158433E-15	1.263413E-17
6.750000E+03	1.147437E-15	1.251871E-17
6.760000E+03	1.136133E-15	1.239941E-17
6.770000E+03	1.124620E-15	1.227730E-17
6.780000E+03	1.113074E-15	1.215431E-17
6.790000E+03	1.101581E-15	1.203140E-17
6.800000E+03	1.090282E-15	1.191010E-17
6.810000E+03	1.079277E-15	1.179152E-17
6.820000E+03	1.068629E-15	1.167636E-17
6.830000E+03	1.058429E-15	1.156561E-17
6.840000E+03	1.048707E-15	1.145963E-17
6.850000E+03	1.039514E-15	1.135897E-17
6.860000E+03	1.030830E-15	1.126344E-17
6.870000E+03	1.022701E-15	1.117353E-17
6.880000E+03	1.015100E-15	1.108895E-17
6.890000E+03	1.008021E-15	1.100966E-17
6.900000E+03	1.001431E-15	1.093530E-17
6.910000E+03	9.953486E-16	1.086606E-17
6.920000E+03	9.897050E-16	1.080122E-17
6.930000E+03	9.845381E-16	1.074118E-17
6.940000E+03	9.797775E-16	1.068518E-17
6.950000E+03	9.753840E-16	1.063280E-17
6.960000E+03	9.713244E-16	1.058368E-17
6.970000E+03	9.675208E-16	1.053696E-17
6.980000E+03	9.639258E-16	1.049215E-17
6.990000E+03	9.604890E-16	1.044870E-17
7.000000E+03	9.571592E-16	1.040605E-17
7.010000E+03	9.538963E-16	1.036379E-17
7.020000E+03	9.506434E-16	1.032129E-17
7.030000E+03	9.473975E-16	1.027854E-17
7.040000E+03	9.440649E-16	1.023453E-17
7.050000E+03	9.406641E-16	1.018947E-17
7.060000E+03	9.371047E-16	1.014240E-17
7.070000E+03	9.334026E-16	1.009351E-17
7.080000E+03	9.295214E-16	1.004243E-17
7.090000E+03	9.254485E-16	9.989026E-18
7.100000E+03	9.212033E-16	9.933537E-18
7.110000E+03	9.167524E-16	9.875621E-18
7.120000E+03	9.121214E-16	9.815577E-18
7.130000E+03	9.073112E-16	9.753434E-18
7.140000E+03	9.023589E-16	9.689614E-18
7.150000E+03	8.972804E-16	9.624308E-18
7.160000E+03	8.920774E-16	9.557556E-18
7.170000E+03	8.867819E-16	9.489721E-18
7.180000E+03	8.813634E-16	9.420500E-18
7.190000E+03	8.758659E-16	9.350384E-18
7.200000E+03	8.702690E-16	9.279177E-18
7.210000E+03	8.645479E-16	9.206636E-18
7.220000E+03	8.587274E-16	9.133048E-18
7.230000E+03	8.528069E-16	9.058431E-18
7.240000E+03	8.467724E-16	8.982656E-18
7.250000E+03	8.406855E-16	8.906404E-18
7.260000E+03	8.346081E-16	8.830346E-18
7.270000E+03	8.285898E-16	8.755026E-18
7.280000E+03	8.226856E-16	8.681043E-18
7.290000E+03	8.169040E-16	8.608497E-18
7.300000E+03	8.113082E-16	8.538069E-18
7.310000E+03	8.059142E-16	8.469936E-18
7.320000E+03	8.007266E-16	8.404159E-18
7.330000E+03	7.957715E-16	8.341019E-18
7.340000E+03	7.910253E-16	8.280279E-18
7.350000E+03	7.864883E-16	8.221952E-18
7.360000E+03	7.821514E-16	8.165953E-18
7.370000E+03	7.779869E-16	8.112003E-18
7.380000E+03	7.739928E-16	8.060093E-18
7.390000E+03	7.700962E-16	8.009478E-18
7.400000E+03	7.663113E-16	7.960320E-18
7.410000E+03	7.625848E-16	7.912080E-18
7.420000E+03	7.589189E-16	7.864798E-18
7.430000E+03	7.553186E-16	7.818542E-18
7.440000E+03	7.518112E-16	7.773611E-18
7.450000E+03	7.484410E-16	7.730477E-18
7.460000E+03	7.452309E-16	7.689391E-18
7.470000E+03	7.422645E-16	7.651230E-18
7.480000E+03	7.395383E-16	7.615968E-18
7.490000E+03	7.371133E-16	7.584243E-18
7.500000E+03	7.349907E-16	7.556076E-18
7.510000E+03	7.332220E-16	7.531989E-18
7.520000E+03	7.317859E-16	7.511761E-18
7.530000E+03	7.306609E-16	7.495166E-18
7.540000E+03	7.298213E-16	7.481941E-18
7.550000E+03	7.292092E-16	7.471492E-18
7.560000E+03	7.287770E-16	7.463334E-18
7.570000E+03	7.283895E-16	7.456088E-18
7.580000E+03	7.279402E-16	7.448670E-18
7.590000E+03	7.273006E-16	7.439774E-18
7.600000E+03	7.262896E-16	7.427555E-18
7.610000E+03	7.247500E-16	7.410418E-18
7.620000E+03	7.225364E-16	7.386884E-18
7.630000E+03	7.197384E-16	7.357875E-18
7.640000E+03	7.164428E-16	7.324283E-18
7.650000E+03	7.127967E-16	7.287615E-18
7.660000E+03	7.088700E-16	7.248586E-18
7.670000E+03	7.047846E-16	7.208442E-18
7.680000E+03	7.005811E-16	7.167598E-18
7.690000E+03	6.963519E-16	7.126999E-18
7.700000E+03	6.921359E-16	7.087044E-18
7.710000E+03	6.879765E-16	7.048177E-18
7.720000E+03	6.839041E-16	7.010711E-18
7.730000E+03	6.799437E-16	6.974906E-18
7.740000E+03	6.761067E-16	6.940879E-18
7.750000E+03	6.723760E-16	6.908461E-18
7.760000E+03	6.687758E-16	6.877904E-18
