#wls	flux	fluxerr
1.600000E+03	3.647572E-16	7.183173E-18
1.640000E+03	3.720633E-16	7.300793E-18
1.680000E+03	3.799615E-16	7.428305E-18
1.720000E+03	3.884629E-16	7.565744E-18
1.760000E+03	3.976125E-16	7.713792E-18
1.800000E+03	4.074878E-16	7.873738E-18
1.840000E+03	4.180276E-16	8.044167E-18
1.880000E+03	4.293413E-16	8.226948E-18
1.920000E+03	4.414351E-16	8.421929E-18
1.960000E+03	4.543163E-16	8.628974E-18
2.000000E+03	4.679615E-16	8.847349E-18
2.040000E+03	4.823824E-16	9.076979E-18
2.080000E+03	4.975305E-16	9.316647E-18
2.120000E+03	5.133012E-16	9.564099E-18
2.160000E+03	5.296913E-16	9.818990E-18
2.200000E+03	5.465825E-16	1.007884E-17
2.240000E+03	5.638978E-16	1.034197E-17
2.280000E+03	5.816310E-16	1.060801E-17
2.320000E+03	5.998438E-16	1.087783E-17
2.360000E+03	6.186930E-16	1.115396E-17
2.400000E+03	6.383693E-16	1.143948E-17
2.440000E+03	6.590701E-16	1.173748E-17
2.480000E+03	6.810864E-16	1.205263E-17
2.520000E+03	7.046341E-16	1.238810E-17
2.560000E+03	7.300002E-16	1.274821E-17
2.600000E+03	7.574066E-16	1.313596E-17
2.640000E+03	7.871271E-16	1.355514E-17
2.680000E+03	8.194097E-16	1.400890E-17
2.720000E+03	8.545372E-16	1.450087E-17
2.760000E+03	8.928327E-16	1.503512E-17
2.800000E+03	9.346378E-16	1.561587E-17
2.840000E+03	9.803446E-16	1.624790E-17
2.880000E+03	1.030455E-15	1.693757E-17
2.920000E+03	1.085470E-15	1.769089E-17
2.960000E+03	1.146086E-15	1.851667E-17
3.000000E+03	1.212963E-15	1.942267E-17
3.010000E+03	1.230781E-15	1.966327E-17
3.020000E+03	1.249033E-15	1.990930E-17
3.030000E+03	1.267725E-15	2.016081E-17
3.040000E+03	1.286925E-15	2.041882E-17
3.050000E+03	1.306611E-15	2.068292E-17
3.060000E+03	1.326792E-15	2.095318E-17
3.070000E+03	1.347504E-15	2.123012E-17
3.080000E+03	1.368726E-15	2.151335E-17
3.090000E+03	1.390464E-15	2.180286E-17
3.100000E+03	1.412783E-15	2.209962E-17
3.110000E+03	1.435627E-15	2.240270E-17
3.120000E+03	1.459030E-15	2.271253E-17
3.130000E+03	1.482964E-15	2.302863E-17
3.140000E+03	1.507520E-15	2.335231E-17
3.150000E+03	1.532605E-15	2.368208E-17
3.160000E+03	1.558245E-15	2.401827E-17
3.170000E+03	1.584464E-15	2.436114E-17
3.180000E+03	1.611255E-15	2.471053E-17
3.190000E+03	1.638542E-15	2.506521E-17
3.200000E+03	1.666401E-15	2.542626E-17
3.210000E+03	1.694750E-15	2.579235E-17
3.220000E+03	1.723596E-15	2.616351E-17
3.230000E+03	1.752875E-15	2.653872E-17
3.240000E+03	1.782582E-15	2.691784E-17
3.250000E+03	1.812674E-15	2.730015E-17
3.260000E+03	1.843102E-15	2.768486E-17
3.270000E+03	1.873774E-15	2.807056E-17
3.280000E+03	1.904655E-15	2.845667E-17
3.290000E+03	1.935670E-15	2.884202E-17
3.300000E+03	1.966700E-15	2.922485E-17
3.310000E+03	1.997681E-15	2.960417E-17
3.320000E+03	2.028473E-15	2.997792E-17
3.330000E+03	2.058987E-15	3.034481E-17
3.340000E+03	2.089061E-15	3.070247E-17
3.350000E+03	2.118551E-15	3.104882E-17
3.360000E+03	2.147301E-15	3.138168E-17
3.370000E+03	2.175143E-15	3.169865E-17
3.380000E+03	2.201900E-15	3.199729E-17
3.390000E+03	2.227351E-15	3.227451E-17
3.400000E+03	2.251332E-15	3.252810E-17
3.410000E+03	2.273576E-15	3.275439E-17
3.420000E+03	2.293942E-15	3.295156E-17
3.430000E+03	2.312158E-15	3.311597E-17
3.440000E+03	2.328021E-15	3.324497E-17
3.450000E+03	2.341336E-15	3.333608E-17
3.460000E+03	2.351886E-15	3.338654E-17
3.470000E+03	2.359534E-15	3.339477E-17
3.480000E+03	2.364103E-15	3.335865E-17
3.490000E+03	2.365445E-15	3.327648E-17
3.500000E+03	2.363476E-15	3.314749E-17
3.510000E+03	2.358122E-15	3.297111E-17
3.520000E+03	2.349413E-15	3.274816E-17
3.530000E+03	2.337313E-15	3.247860E-17
3.540000E+03	2.321955E-15	3.216473E-17
3.550000E+03	2.303477E-15	3.180886E-17
3.560000E+03	2.282098E-15	3.141446E-17
3.570000E+03	2.258053E-15	3.098509E-17
3.580000E+03	2.231661E-15	3.052552E-17
3.590000E+03	2.203358E-15	3.004199E-17
3.600000E+03	2.173538E-15	2.954012E-17
3.610000E+03	2.142754E-15	2.902761E-17
3.620000E+03	2.111558E-15	2.851208E-17
3.630000E+03	2.080504E-15	2.800101E-17
3.640000E+03	2.050187E-15	2.750241E-17
3.650000E+03	2.021227E-15	2.702447E-17
3.660000E+03	1.994192E-15	2.657458E-17
3.670000E+03	1.969701E-15	2.616072E-17
3.680000E+03	1.948263E-15	2.578931E-17
3.690000E+03	1.930430E-15	2.546722E-17
3.700000E+03	1.916704E-15	2.520058E-17
3.710000E+03	1.907577E-15	2.499529E-17
3.720000E+03	1.903474E-15	2.485628E-17
3.730000E+03	1.904827E-15	2.478853E-17
3.740000E+03	1.912021E-15	2.479628E-17
3.750000E+03	1.925429E-15	2.488358E-17
3.760000E+03	1.945369E-15	2.505367E-17
3.770000E+03	1.972138E-15	2.530950E-17
3.780000E+03	2.005964E-15	2.565304E-17
3.790000E+03	2.047011E-15	2.608543E-17
3.800000E+03	2.095419E-15	2.660749E-17
3.810000E+03	2.151132E-15	2.721749E-17
3.820000E+03	2.214044E-15	2.791310E-17
3.830000E+03	2.283901E-15	2.869015E-17
3.840000E+03	2.360208E-15	2.954150E-17
3.850000E+03	2.442310E-15	3.045808E-17
3.860000E+03	2.529351E-15	3.142849E-17
3.870000E+03	2.620230E-15	3.243841E-17
3.880000E+03	2.713614E-15	3.347087E-17
3.890000E+03	2.807934E-15	3.450625E-17
3.900000E+03	2.901494E-15	3.552366E-17
3.910000E+03	2.992450E-15	3.650072E-17
3.920000E+03	3.078911E-15	3.741480E-17
3.930000E+03	3.159008E-15	3.824392E-17
3.940000E+03	3.230998E-15	3.896790E-17
3.950000E+03	3.293373E-15	3.956977E-17
3.960000E+03	3.344884E-15	4.003591E-17
3.970000E+03	3.384596E-15	4.035665E-17
3.980000E+03	3.412056E-15	4.052826E-17
3.990000E+03	3.427129E-15	4.055082E-17
4.000000E+03	3.430146E-15	4.042995E-17
4.010000E+03	3.421793E-15	4.017537E-17
4.020000E+03	3.403045E-15	3.980005E-17
4.030000E+03	3.375201E-15	3.932057E-17
4.040000E+03	3.339630E-15	3.875405E-17
4.050000E+03	3.297832E-15	3.811891E-17
4.060000E+03	3.251287E-15	3.743305E-17
4.070000E+03	3.201421E-15	3.671348E-17
4.080000E+03	3.149557E-15	3.597576E-17
4.090000E+03	3.096904E-15	3.523394E-17
4.100000E+03	3.044458E-15	3.449942E-17
4.110000E+03	2.993066E-15	3.378172E-17
4.120000E+03	2.943460E-15	3.308895E-17
4.130000E+03	2.896101E-15	3.242603E-17
4.140000E+03	2.851382E-15	3.179703E-17
4.150000E+03	2.809531E-15	3.120416E-17
4.160000E+03	2.770667E-15	3.064832E-17
4.170000E+03	2.734814E-15	3.012940E-17
4.180000E+03	2.701929E-15	2.964652E-17
4.190000E+03	2.671917E-15	2.919827E-17
4.200000E+03	2.644664E-15	2.878299E-17
4.210000E+03	2.620046E-15	2.839901E-17
4.220000E+03	2.597950E-15	2.804476E-17
4.230000E+03	2.578271E-15	2.771877E-17
4.240000E+03	2.560959E-15	2.742021E-17
4.250000E+03	2.546031E-15	2.714895E-17
4.260000E+03	2.533520E-15	2.690505E-17
4.270000E+03	2.523450E-15	2.668845E-17
4.280000E+03	2.515933E-15	2.650001E-17
4.290000E+03	2.511067E-15	2.634046E-17
4.300000E+03	2.508943E-15	2.621041E-17
4.310000E+03	2.509622E-15	2.611016E-17
4.320000E+03	2.513094E-15	2.603928E-17
4.330000E+03	2.519340E-15	2.599721E-17
4.340000E+03	2.528156E-15	2.598154E-17
4.350000E+03	2.539336E-15	2.598986E-17
4.360000E+03	2.552536E-15	2.601838E-17
4.370000E+03	2.567390E-15	2.606318E-17
4.380000E+03	2.583541E-15	2.612044E-17
4.390000E+03	2.600845E-15	2.618859E-17
4.400000E+03	2.619564E-15	2.627014E-17
4.410000E+03	2.640419E-15	2.637214E-17
4.420000E+03	2.664243E-15	2.650265E-17
4.430000E+03	2.691825E-15	2.666917E-17
4.440000E+03	2.723856E-15	2.687809E-17
4.450000E+03	2.760743E-15	2.713293E-17
4.460000E+03	2.802646E-15	2.743470E-17
4.470000E+03	2.849434E-15	2.778162E-17
4.480000E+03	2.900586E-15	2.816810E-17
4.490000E+03	2.955341E-15	2.858634E-17
4.500000E+03	3.012606E-15	2.902544E-17
4.510000E+03	3.070979E-15	2.947176E-17
4.520000E+03	3.128853E-15	2.990985E-17
4.530000E+03	3.184442E-15	3.032286E-17
4.540000E+03	3.235858E-15	3.069321E-17
4.550000E+03	3.281212E-15	3.100357E-17
4.560000E+03	3.318679E-15	3.123749E-17
4.570000E+03	3.346642E-15	3.138074E-17
4.580000E+03	3.363898E-15	3.142315E-17
4.590000E+03	3.369529E-15	3.135737E-17
4.600000E+03	3.363139E-15	3.118095E-17
4.610000E+03	3.344922E-15	3.089698E-17
4.620000E+03	3.315554E-15	3.051290E-17
4.630000E+03	3.276076E-15	3.003936E-17
4.640000E+03	3.228099E-15	2.949211E-17
4.650000E+03	3.173265E-15	2.888690E-17
4.660000E+03	3.113514E-15	2.824194E-17
4.670000E+03	3.050666E-15	2.757413E-17
4.680000E+03	2.986394E-15	2.689877E-17
4.690000E+03	2.922110E-15	2.622860E-17
4.700000E+03	2.858878E-15	2.557310E-17
4.710000E+03	2.797407E-15	2.493842E-17
4.720000E+03	2.737852E-15	2.432571E-17
4.730000E+03	2.679918E-15	2.373212E-17
4.740000E+03	2.622874E-15	2.315101E-17
4.750000E+03	2.565507E-15	2.257153E-17
4.760000E+03	2.506466E-15	2.198176E-17
4.770000E+03	2.444228E-15	2.136843E-17
4.780000E+03	2.377830E-15	2.072333E-17
4.790000E+03	2.307478E-15	2.004845E-17
4.800000E+03	2.234927E-15	1.935923E-17
4.810000E+03	2.162635E-15	1.867695E-17
4.820000E+03	2.092899E-15	1.802127E-17
4.830000E+03	2.027507E-15	1.740724E-17
4.840000E+03	1.967785E-15	1.684579E-17
4.850000E+03	1.914542E-15	1.634334E-17
4.860000E+03	1.868151E-15	1.590248E-17
4.870000E+03	1.828671E-15	1.552319E-17
4.880000E+03	1.795929E-15	1.520344E-17
4.890000E+03	1.769535E-15	1.493942E-17
4.900000E+03	1.749023E-15	1.472673E-17
4.910000E+03	1.733806E-15	1.456000E-17
4.920000E+03	1.723330E-15	1.443423E-17
4.930000E+03	1.717041E-15	1.434444E-17
4.940000E+03	1.714409E-15	1.428591E-17
4.950000E+03	1.714995E-15	1.425478E-17
4.960000E+03	1.718397E-15	1.424747E-17
4.970000E+03	1.724318E-15	1.426135E-17
4.980000E+03	1.732498E-15	1.429412E-17
4.990000E+03	1.742760E-15	1.434418E-17
5.000000E+03	1.754970E-15	1.441030E-17
5.010000E+03	1.769093E-15	1.449208E-17
5.020000E+03	1.785044E-15	1.458870E-17
5.030000E+03	1.802791E-15	1.469982E-17
5.040000E+03	1.822317E-15	1.482519E-17
5.050000E+03	1.843557E-15	1.496418E-17
5.060000E+03	1.866453E-15	1.511624E-17
5.070000E+03	1.890932E-15	1.528070E-17
5.080000E+03	1.916927E-15	1.545693E-17
5.090000E+03	1.944363E-15	1.564426E-17
5.100000E+03	1.973194E-15	1.584226E-17
5.110000E+03	2.003381E-15	1.605055E-17
5.120000E+03	2.034805E-15	1.626810E-17
5.130000E+03	2.067408E-15	1.649442E-17
5.140000E+03	2.100999E-15	1.672793E-17
5.150000E+03	2.135469E-15	1.696773E-17
5.160000E+03	2.170614E-15	1.721216E-17
5.170000E+03	2.206225E-15	1.745956E-17
5.180000E+03	2.242069E-15	1.770808E-17
5.190000E+03	2.277854E-15	1.795541E-17
5.200000E+03	2.313272E-15	1.819914E-17
5.210000E+03	2.347944E-15	1.843633E-17
5.220000E+03	2.381524E-15	1.866431E-17
5.230000E+03	2.413511E-15	1.887922E-17
5.240000E+03	2.443470E-15	1.907775E-17
5.250000E+03	2.470939E-15	1.925639E-17
5.260000E+03	2.495474E-15	1.941181E-17
5.270000E+03	2.516620E-15	1.954061E-17
5.280000E+03	2.534056E-15	1.964045E-17
5.290000E+03	2.547488E-15	1.970922E-17
5.300000E+03	2.556734E-15	1.974569E-17
5.310000E+03	2.561670E-15	1.974906E-17
5.320000E+03	2.562303E-15	1.971958E-17
5.330000E+03	2.558641E-15	1.965747E-17
5.340000E+03	2.550813E-15	1.956390E-17
5.350000E+03	2.538993E-15	1.944036E-17
5.360000E+03	2.523486E-15	1.928932E-17
5.370000E+03	2.504563E-15	1.911300E-17
5.380000E+03	2.482664E-15	1.891487E-17
5.390000E+03	2.458245E-15	1.869849E-17
5.400000E+03	2.431796E-15	1.846768E-17
5.410000E+03	2.403774E-15	1.822596E-17
5.420000E+03	2.374669E-15	1.797710E-17
5.430000E+03	2.344933E-15	1.772454E-17
5.440000E+03	2.314853E-15	1.747044E-17
5.450000E+03	2.284723E-15	1.721704E-17
5.460000E+03	2.254658E-15	1.696519E-17
5.470000E+03	2.224706E-15	1.671524E-17
5.480000E+03	2.194913E-15	1.646751E-17
5.490000E+03	2.165133E-15	1.622090E-17
5.500000E+03	2.135368E-15	1.597537E-17
5.510000E+03	2.105778E-15	1.573211E-17
5.520000E+03	2.076598E-15	1.549283E-17
5.530000E+03	2.047863E-15	1.525777E-17
5.540000E+03	2.019606E-15	1.502714E-17
5.550000E+03	1.991798E-15	1.480067E-17
5.560000E+03	1.964509E-15	1.457888E-17
5.570000E+03	1.937805E-15	1.436219E-17
5.580000E+03	1.911867E-15	1.415193E-17
5.590000E+03	1.886941E-15	1.394987E-17
5.600000E+03	1.863373E-15	1.375853E-17
5.610000E+03	1.841503E-15	1.358036E-17
5.620000E+03	1.821728E-15	1.341823E-17
5.630000E+03	1.804455E-15	1.327506E-17
5.640000E+03	1.790053E-15	1.315349E-17
5.650000E+03	1.778881E-15	1.305607E-17
5.660000E+03	1.771211E-15	1.298470E-17
5.670000E+03	1.767299E-15	1.294117E-17
5.680000E+03	1.767336E-15	1.292677E-17
5.690000E+03	1.771417E-15	1.294210E-17
5.700000E+03	1.779566E-15	1.298723E-17
5.710000E+03	1.791723E-15	1.306164E-17
5.720000E+03	1.807783E-15	1.316444E-17
5.730000E+03	1.827478E-15	1.329363E-17
5.740000E+03	1.850532E-15	1.344711E-17
5.750000E+03	1.876550E-15	1.362193E-17
5.760000E+03	1.905041E-15	1.381449E-17
5.770000E+03	1.935492E-15	1.402103E-17
5.780000E+03	1.967359E-15	1.423757E-17
5.790000E+03	2.000014E-15	1.445956E-17
5.800000E+03	2.032811E-15	1.468232E-17
5.810000E+03	2.065124E-15	1.490136E-17
5.820000E+03	2.096224E-15	1.511144E-17
5.830000E+03	2.125461E-15	1.530792E-17
5.840000E+03	2.152203E-15	1.548632E-17
5.850000E+03	2.175871E-15	1.564251E-17
5.860000E+03	2.195974E-15	1.577308E-17
5.870000E+03	2.212028E-15	1.587462E-17
5.880000E+03	2.223740E-15	1.594511E-17
5.890000E+03	2.230837E-15	1.598270E-17
5.900000E+03	2.233183E-15	1.598650E-17
5.910000E+03	2.230740E-15	1.595635E-17
5.920000E+03	2.223567E-15	1.589274E-17
5.930000E+03	2.211845E-15	1.579707E-17
5.940000E+03	2.195756E-15	1.567071E-17
5.950000E+03	2.175597E-15	1.551585E-17
5.960000E+03	2.151755E-15	1.533531E-17
5.970000E+03	2.124638E-15	1.513205E-17
5.980000E+03	2.094638E-15	1.490890E-17
5.990000E+03	2.062278E-15	1.466962E-17
6.000000E+03	2.027983E-15	1.441726E-17
6.010000E+03	1.992339E-15	1.415600E-17
6.020000E+03	1.955804E-15	1.388910E-17
6.030000E+03	1.918919E-15	1.362040E-17
6.040000E+03	1.882246E-15	1.335388E-17
6.050000E+03	1.846301E-15	1.309318E-17
6.060000E+03	1.811616E-15	1.284206E-17
6.070000E+03	1.778661E-15	1.260383E-17
6.080000E+03	1.747967E-15	1.238222E-17
6.090000E+03	1.719935E-15	1.218005E-17
6.100000E+03	1.695039E-15	1.200064E-17
6.110000E+03	1.673649E-15	1.184660E-17
6.120000E+03	1.656081E-15	1.172014E-17
6.130000E+03	1.642598E-15	1.162311E-17
6.140000E+03	1.633391E-15	1.155683E-17
6.150000E+03	1.628476E-15	1.152143E-17
6.160000E+03	1.627733E-15	1.151606E-17
6.170000E+03	1.630879E-15	1.153873E-17
6.180000E+03	1.637309E-15	1.158517E-17
6.190000E+03	1.646214E-15	1.164969E-17
6.200000E+03	1.656489E-15	1.172448E-17
6.210000E+03	1.666749E-15	1.179975E-17
6.220000E+03	1.675329E-15	1.186369E-17
6.230000E+03	1.680487E-15	1.190396E-17
6.240000E+03	1.680760E-15	1.191017E-17
6.250000E+03	1.675642E-15	1.187868E-17
6.260000E+03	1.665941E-15	1.181516E-17
6.270000E+03	1.652966E-15	1.172883E-17
6.280000E+03	1.638120E-15	1.162960E-17
6.290000E+03	1.622646E-15	1.152625E-17
6.300000E+03	1.607559E-15	1.142597E-17
6.310000E+03	1.593622E-15	1.133416E-17
6.320000E+03	1.581323E-15	1.125431E-17
6.330000E+03	1.570868E-15	1.118786E-17
6.340000E+03	1.562322E-15	1.113531E-17
6.350000E+03	1.555613E-15	1.109614E-17
6.360000E+03	1.550533E-15	1.106890E-17
6.370000E+03	1.546898E-15	1.105228E-17
6.380000E+03	1.544476E-15	1.104464E-17
6.390000E+03	1.543048E-15	1.104442E-17
6.400000E+03	1.542429E-15	1.105030E-17
6.410000E+03	1.542517E-15	1.106153E-17
6.420000E+03	1.543182E-15	1.107719E-17
6.430000E+03	1.544397E-15	1.109706E-17
6.440000E+03	1.546104E-15	1.112075E-17
6.450000E+03	1.548262E-15	1.114793E-17
6.460000E+03	1.550839E-15	1.117836E-17
6.470000E+03	1.553760E-15	1.121152E-17
6.480000E+03	1.556935E-15	1.124673E-17
6.490000E+03	1.560156E-15	1.128249E-17
6.500000E+03	1.563254E-15	1.131755E-17
6.510000E+03	1.565953E-15	1.134989E-17
6.520000E+03	1.567911E-15	1.137701E-17
6.530000E+03	1.568866E-15	1.139697E-17
6.540000E+03	1.568742E-15	1.140918E-17
6.550000E+03	1.567738E-15	1.141504E-17
6.560000E+03	1.566116E-15	1.141643E-17
6.570000E+03	1.564129E-15	1.141516E-17
6.580000E+03	1.561923E-15	1.141228E-17
6.590000E+03	1.559598E-15	1.140851E-17
6.600000E+03	1.557224E-15	1.140432E-17
6.610000E+03	1.554777E-15	1.139953E-17
6.620000E+03	1.552154E-15	1.139338E-17
6.630000E+03	1.549257E-15	1.138513E-17
6.640000E+03	1.545906E-15	1.137344E-17
6.650000E+03	1.541981E-15	1.135738E-17
6.660000E+03	1.537253E-15	1.133527E-17
6.670000E+03	1.531554E-15	1.130582E-17
6.680000E+03	1.524770E-15	1.126815E-17
6.690000E+03	1.516796E-15	1.122147E-17
6.700000E+03	1.507551E-15	1.116512E-17
6.710000E+03	1.497039E-15	1.109911E-17
6.720000E+03	1.485344E-15	1.102402E-17
6.730000E+03	1.472549E-15	1.094043E-17
6.740000E+03	1.458831E-15	1.084964E-17
6.750000E+03	1.444324E-15	1.075261E-17
6.760000E+03	1.429282E-15	1.065121E-17
6.770000E+03	1.413867E-15	1.054665E-17
6.780000E+03	1.398344E-15	1.044089E-17
6.790000E+03	1.382862E-15	1.033505E-17
6.800000E+03	1.367634E-15	1.023072E-17
6.810000E+03	1.352825E-15	1.012914E-17
6.820000E+03	1.338552E-15	1.003120E-17
6.830000E+03	1.324957E-15	9.937973E-18
6.840000E+03	1.312105E-15	9.849969E-18
6.850000E+03	1.300088E-15	9.767893E-18
6.860000E+03	1.288894E-15	9.691668E-18
6.870000E+03	1.278591E-15	9.621825E-18
6.880000E+03	1.269153E-15	9.558199E-18
6.890000E+03	1.260578E-15	9.500777E-18
6.900000E+03	1.252828E-15	9.449296E-18
6.910000E+03	1.245930E-15	9.403974E-18
6.920000E+03	1.239787E-15	9.364096E-18
6.930000E+03	1.234439E-15	9.329977E-18
6.940000E+03	1.229786E-15	9.300881E-18
6.950000E+03	1.225760E-15	9.276298E-18
6.960000E+03	1.222301E-15	9.255798E-18
6.970000E+03	1.219292E-15	9.238488E-18
6.980000E+03	1.216631E-15	9.223617E-18
6.990000E+03	1.214216E-15	9.210418E-18
7.000000E+03	1.211947E-15	9.198129E-18
7.010000E+03	1.209732E-15	9.186060E-18
7.020000E+03	1.207458E-15	9.173358E-18
7.030000E+03	1.205091E-15	9.159767E-18
7.040000E+03	1.202479E-15	9.144139E-18
7.050000E+03	1.199622E-15	9.126478E-18
7.060000E+03	1.196390E-15	9.105787E-18
7.070000E+03	1.192789E-15	9.082117E-18
7.080000E+03	1.188773E-15	9.055121E-18
7.090000E+03	1.184329E-15	9.024706E-18
7.100000E+03	1.179486E-15	8.991091E-18
7.110000E+03	1.174213E-15	8.954046E-18
7.120000E+03	1.168558E-15	8.913941E-18
7.130000E+03	1.162532E-15	8.870860E-18
7.140000E+03	1.156197E-15	8.825290E-18
7.150000E+03	1.149594E-15	8.777545E-18
7.160000E+03	1.142742E-15	8.727771E-18
7.170000E+03	1.135702E-15	8.676455E-18
7.180000E+03	1.128463E-15	8.623507E-18
7.190000E+03	1.121099E-15	8.569514E-18
7.200000E+03	1.113613E-15	8.514491E-18
7.210000E+03	1.105998E-15	8.458406E-18
7.220000E+03	1.098294E-15	8.401570E-18
7.230000E+03	1.090519E-15	8.344131E-18
7.240000E+03	1.082683E-15	8.286162E-18
7.250000E+03	1.074842E-15	8.228122E-18
7.260000E+03	1.067065E-15	8.170527E-18
7.270000E+03	1.059416E-15	8.113895E-18
7.280000E+03	1.051953E-15	8.058669E-18
7.290000E+03	1.044678E-15	8.004882E-18
7.300000E+03	1.037670E-15	7.953143E-18
7.310000E+03	1.030932E-15	7.903489E-18
7.320000E+03	1.024457E-15	7.855879E-18
7.330000E+03	1.018273E-15	7.810533E-18
7.340000E+03	1.012335E-15	7.767127E-18
7.350000E+03	1.006635E-15	7.725606E-18
7.360000E+03	1.001156E-15	7.685841E-18
7.370000E+03	9.958507E-16	7.647491E-18
7.380000E+03	9.907083E-16	7.610481E-18
7.390000E+03	9.856302E-16	7.574062E-18
7.400000E+03	9.806233E-16	7.538299E-18
7.410000E+03	9.756171E-16	7.502659E-18
7.420000E+03	9.706206E-16	7.467221E-18
7.430000E+03	9.656264E-16	7.431937E-18
7.440000E+03	9.606676E-16	7.397071E-18
7.450000E+03	9.558092E-16	7.363135E-18
7.460000E+03	9.510856E-16	7.330402E-18
7.470000E+03	9.466150E-16	7.299794E-18
7.480000E+03	9.424094E-16	7.271418E-18
7.490000E+03	9.385561E-16	7.245959E-18
7.500000E+03	9.350693E-16	7.223538E-18
7.510000E+03	9.320305E-16	7.204793E-18
7.520000E+03	9.294237E-16	7.189609E-18
7.530000E+03	9.272333E-16	7.177877E-18
7.540000E+03	9.254426E-16	7.169475E-18
7.550000E+03	9.239910E-16	7.163945E-18
7.560000E+03	9.228308E-16	7.160928E-18
7.570000E+03	9.218022E-16	7.159192E-18
7.580000E+03	9.207741E-16	7.157726E-18
7.590000E+03	9.195813E-16	7.155248E-18
7.600000E+03	9.179883E-16	7.149926E-18
7.610000E+03	9.157976E-16	7.140213E-18
7.620000E+03	9.128485E-16	7.124846E-18
7.630000E+03	9.092189E-16	7.104417E-18
7.640000E+03	9.050004E-16	7.079627E-18
7.650000E+03	9.003756E-16	7.051891E-18
7.660000E+03	8.954299E-16	7.021870E-18
7.670000E+03	8.903112E-16	6.990717E-18
7.680000E+03	8.850680E-16	6.958807E-18
7.690000E+03	8.798166E-16	6.927053E-18
7.700000E+03	8.746035E-16	6.895822E-18
7.710000E+03	8.694862E-16	6.865569E-18
7.720000E+03	8.645125E-16	6.836675E-18
7.730000E+03	8.597221E-16	6.809462E-18
7.740000E+03	8.551427E-16	6.784155E-18
7.750000E+03	8.507679E-16	6.760712E-18
7.760000E+03	8.466362E-16	6.739451E-18
