#wls	flux	fluxerr
1.600000E+03	2.887363E-16	1.407269E-17
1.640000E+03	2.934618E-16	1.422800E-17
1.680000E+03	2.985945E-16	1.439867E-17
1.720000E+03	3.041367E-16	1.458435E-17
1.760000E+03	3.101168E-16	1.478592E-17
1.800000E+03	3.165879E-16	1.500539E-17
1.840000E+03	3.234949E-16	1.523958E-17
1.880000E+03	3.309140E-16	1.549150E-17
1.920000E+03	3.388412E-16	1.576031E-17
1.960000E+03	3.472726E-16	1.604518E-17
2.000000E+03	3.561806E-16	1.634415E-17
2.040000E+03	3.655645E-16	1.665650E-17
2.080000E+03	3.753771E-16	1.697938E-17
2.120000E+03	3.855298E-16	1.730812E-17
2.160000E+03	3.960105E-16	1.764157E-17
2.200000E+03	4.067209E-16	1.797474E-17
2.240000E+03	4.175945E-16	1.830420E-17
2.280000E+03	4.286173E-16	1.862884E-17
2.320000E+03	4.398245E-16	1.894971E-17
2.360000E+03	4.513183E-16	1.927063E-17
2.400000E+03	4.632224E-16	1.959618E-17
2.440000E+03	4.756604E-16	1.993071E-17
2.480000E+03	4.888176E-16	2.028089E-17
2.520000E+03	5.028184E-16	2.065056E-17
2.560000E+03	5.178304E-16	2.104506E-17
2.600000E+03	5.339654E-16	2.146716E-17
2.640000E+03	5.513619E-16	2.192039E-17
2.680000E+03	5.701275E-16	2.240681E-17
2.720000E+03	5.903790E-16	2.292852E-17
2.760000E+03	6.122426E-16	2.348771E-17
2.800000E+03	6.358338E-16	2.408583E-17
2.840000E+03	6.612733E-16	2.472422E-17
2.880000E+03	6.887187E-16	2.540521E-17
2.920000E+03	7.182816E-16	2.612908E-17
2.960000E+03	7.501420E-16	2.689818E-17
3.000000E+03	7.843801E-16	2.771086E-17
3.010000E+03	7.933407E-16	2.792133E-17
3.020000E+03	8.024420E-16	2.813387E-17
3.030000E+03	8.116812E-16	2.834831E-17
3.040000E+03	8.210917E-16	2.856573E-17
3.050000E+03	8.306517E-16	2.878530E-17
3.060000E+03	8.403563E-16	2.900677E-17
3.070000E+03	8.502187E-16	2.923052E-17
3.080000E+03	8.602146E-16	2.945563E-17
3.090000E+03	8.703366E-16	2.968178E-17
3.100000E+03	8.806131E-16	2.990987E-17
3.110000E+03	8.909985E-16	3.013827E-17
3.120000E+03	9.015002E-16	3.036716E-17
3.130000E+03	9.120882E-16	3.059547E-17
3.140000E+03	9.228031E-16	3.082451E-17
3.150000E+03	9.335767E-16	3.105193E-17
3.160000E+03	9.444093E-16	3.127771E-17
3.170000E+03	9.553002E-16	3.150177E-17
3.180000E+03	9.662284E-16	3.172338E-17
3.190000E+03	9.771362E-16	3.194063E-17
3.200000E+03	9.880513E-16	3.215440E-17
3.210000E+03	9.989112E-16	3.236265E-17
3.220000E+03	1.009703E-15	3.256498E-17
3.230000E+03	1.020377E-15	3.275977E-17
3.240000E+03	1.030914E-15	3.294649E-17
3.250000E+03	1.041277E-15	3.312400E-17
3.260000E+03	1.051425E-15	3.329100E-17
3.270000E+03	1.061295E-15	3.344568E-17
3.280000E+03	1.070859E-15	3.358719E-17
3.290000E+03	1.080067E-15	3.371414E-17
3.300000E+03	1.088848E-15	3.382447E-17
3.310000E+03	1.097167E-15	3.391724E-17
3.320000E+03	1.104949E-15	3.399038E-17
3.330000E+03	1.112153E-15	3.404285E-17
3.340000E+03	1.118703E-15	3.407258E-17
3.350000E+03	1.124536E-15	3.407797E-17
3.360000E+03	1.129595E-15	3.405763E-17
3.370000E+03	1.133820E-15	3.401008E-17
3.380000E+03	1.137153E-15	3.393400E-17
3.390000E+03	1.139524E-15	3.382773E-17
3.400000E+03	1.140900E-15	3.369070E-17
3.410000E+03	1.141205E-15	3.352119E-17
3.420000E+03	1.140434E-15	3.331952E-17
3.430000E+03	1.138527E-15	3.308448E-17
3.440000E+03	1.135466E-15	3.281612E-17
3.450000E+03	1.131245E-15	3.251476E-17
3.460000E+03	1.125854E-15	3.218073E-17
3.470000E+03	1.119325E-15	3.181549E-17
3.480000E+03	1.111671E-15	3.141997E-17
3.490000E+03	1.102925E-15	3.099563E-17
3.500000E+03	1.093143E-15	3.054461E-17
3.510000E+03	1.082388E-15	3.006916E-17
3.520000E+03	1.070765E-15	2.957270E-17
3.530000E+03	1.058345E-15	2.905760E-17
3.540000E+03	1.045273E-15	2.852820E-17
3.550000E+03	1.031680E-15	2.798847E-17
3.560000E+03	1.017734E-15	2.744316E-17
3.570000E+03	1.003590E-15	2.689664E-17
3.580000E+03	9.894313E-16	2.635391E-17
3.590000E+03	9.754632E-16	2.582045E-17
3.600000E+03	9.618437E-16	2.530034E-17
3.610000E+03	9.487544E-16	2.479817E-17
3.620000E+03	9.363455E-16	2.431760E-17
3.630000E+03	9.247537E-16	2.386183E-17
3.640000E+03	9.141322E-16	2.343440E-17
3.650000E+03	9.046401E-16	2.303888E-17
3.660000E+03	8.964177E-16	2.267826E-17
3.670000E+03	8.896347E-16	2.235619E-17
3.680000E+03	8.844146E-16	2.207502E-17
3.690000E+03	8.809100E-16	2.183776E-17
3.700000E+03	8.792616E-16	2.164698E-17
3.710000E+03	8.796048E-16	2.150506E-17
3.720000E+03	8.820539E-16	2.141376E-17
3.730000E+03	8.867374E-16	2.137508E-17
3.740000E+03	8.937585E-16	2.139034E-17
3.750000E+03	9.032199E-16	2.146076E-17
3.760000E+03	9.152038E-16	2.158701E-17
3.770000E+03	9.297775E-16	2.176934E-17
3.780000E+03	9.469782E-16	2.200725E-17
3.790000E+03	9.668145E-16	2.229955E-17
3.800000E+03	9.892745E-16	2.264456E-17
3.810000E+03	1.014256E-15	2.303856E-17
3.820000E+03	1.041649E-15	2.347771E-17
3.830000E+03	1.071275E-15	2.395674E-17
3.840000E+03	1.102862E-15	2.446837E-17
3.850000E+03	1.136087E-15	2.500444E-17
3.860000E+03	1.170562E-15	2.555559E-17
3.870000E+03	1.205815E-15	2.611087E-17
3.880000E+03	1.241312E-15	2.665836E-17
3.890000E+03	1.276458E-15	2.718526E-17
3.900000E+03	1.310644E-15	2.767886E-17
3.910000E+03	1.343234E-15	2.812629E-17
3.920000E+03	1.373608E-15	2.851557E-17
3.930000E+03	1.401178E-15	2.883572E-17
3.940000E+03	1.425407E-15	2.907732E-17
3.950000E+03	1.445874E-15	2.923364E-17
3.960000E+03	1.462240E-15	2.929991E-17
3.970000E+03	1.474264E-15	2.927361E-17
3.980000E+03	1.481884E-15	2.915585E-17
3.990000E+03	1.485121E-15	2.894947E-17
4.000000E+03	1.484135E-15	2.865996E-17
4.010000E+03	1.479190E-15	2.829468E-17
4.020000E+03	1.470622E-15	2.786221E-17
4.030000E+03	1.458872E-15	2.737285E-17
4.040000E+03	1.444383E-15	2.683657E-17
4.050000E+03	1.427643E-15	2.626393E-17
4.060000E+03	1.409130E-15	2.566487E-17
4.070000E+03	1.389297E-15	2.504857E-17
4.080000E+03	1.368564E-15	2.442332E-17
4.090000E+03	1.347331E-15	2.379670E-17
4.100000E+03	1.325915E-15	2.317454E-17
4.110000E+03	1.304597E-15	2.256188E-17
4.120000E+03	1.283638E-15	2.196314E-17
4.130000E+03	1.263196E-15	2.138082E-17
4.140000E+03	1.243422E-15	2.081723E-17
4.150000E+03	1.224417E-15	2.027370E-17
4.160000E+03	1.206249E-15	1.975092E-17
4.170000E+03	1.188952E-15	1.924906E-17
4.180000E+03	1.172548E-15	1.876799E-17
4.190000E+03	1.157042E-15	1.830734E-17
4.200000E+03	1.142435E-15	1.786668E-17
4.210000E+03	1.128725E-15	1.744549E-17
4.220000E+03	1.115917E-15	1.704342E-17
4.230000E+03	1.104015E-15	1.666005E-17
4.240000E+03	1.093037E-15	1.629519E-17
4.250000E+03	1.083034E-15	1.594913E-17
4.260000E+03	1.074053E-15	1.562208E-17
4.270000E+03	1.066134E-15	1.531407E-17
4.280000E+03	1.059354E-15	1.502567E-17
4.290000E+03	1.053788E-15	1.475738E-17
4.300000E+03	1.049514E-15	1.450966E-17
4.310000E+03	1.046617E-15	1.428306E-17
4.320000E+03	1.045176E-15	1.407792E-17
4.330000E+03	1.045290E-15	1.389489E-17
4.340000E+03	1.047000E-15	1.373377E-17
4.350000E+03	1.050389E-15	1.359485E-17
4.360000E+03	1.055508E-15	1.347801E-17
4.370000E+03	1.062387E-15	1.338285E-17
4.380000E+03	1.071059E-15	1.330894E-17
4.390000E+03	1.081589E-15	1.325632E-17
4.400000E+03	1.094031E-15	1.322481E-17
4.410000E+03	1.108492E-15	1.321492E-17
4.420000E+03	1.125075E-15	1.322698E-17
4.430000E+03	1.143805E-15	1.326048E-17
4.440000E+03	1.164689E-15	1.331465E-17
4.450000E+03	1.187645E-15	1.338779E-17
4.460000E+03	1.212479E-15	1.347705E-17
4.470000E+03	1.238903E-15	1.357868E-17
4.480000E+03	1.266484E-15	1.368764E-17
4.490000E+03	1.294707E-15	1.379828E-17
4.500000E+03	1.322915E-15	1.390384E-17
4.510000E+03	1.350343E-15	1.399682E-17
4.520000E+03	1.376195E-15	1.406990E-17
4.530000E+03	1.399605E-15	1.411546E-17
4.540000E+03	1.419685E-15	1.412620E-17
4.550000E+03	1.435669E-15	1.409639E-17
4.560000E+03	1.446826E-15	1.402103E-17
4.570000E+03	1.452537E-15	1.389646E-17
4.580000E+03	1.452524E-15	1.372245E-17
4.590000E+03	1.446622E-15	1.349982E-17
4.600000E+03	1.434876E-15	1.323127E-17
4.610000E+03	1.417736E-15	1.292298E-17
4.620000E+03	1.395807E-15	1.258219E-17
4.630000E+03	1.369764E-15	1.221636E-17
4.640000E+03	1.340572E-15	1.183508E-17
4.650000E+03	1.309136E-15	1.144693E-17
4.660000E+03	1.276387E-15	1.106030E-17
4.670000E+03	1.243197E-15	1.068268E-17
4.680000E+03	1.210341E-15	1.032042E-17
4.690000E+03	1.178445E-15	9.978380E-18
4.700000E+03	1.147950E-15	9.659694E-18
4.710000E+03	1.119189E-15	9.366512E-18
4.720000E+03	1.092288E-15	9.099238E-18
4.730000E+03	1.067144E-15	8.856393E-18
4.740000E+03	1.043552E-15	8.635710E-18
4.750000E+03	1.021161E-15	8.433784E-18
4.760000E+03	9.994707E-16	8.245964E-18
4.770000E+03	9.779369E-16	8.067155E-18
4.780000E+03	9.562178E-16	7.893896E-18
4.790000E+03	9.341608E-16	7.724278E-18
4.800000E+03	9.120352E-16	7.559871E-18
4.810000E+03	8.903881E-16	7.404571E-18
4.820000E+03	8.696865E-16	7.261686E-18
4.830000E+03	8.502996E-16	7.133803E-18
4.840000E+03	8.325561E-16	7.023284E-18
4.850000E+03	8.166645E-16	6.931599E-18
4.860000E+03	8.027422E-16	6.859560E-18
4.870000E+03	7.908486E-16	6.807579E-18
4.880000E+03	7.809843E-16	6.775653E-18
4.890000E+03	7.730817E-16	6.763252E-18
4.900000E+03	7.670611E-16	6.769791E-18
4.910000E+03	7.628197E-16	6.794515E-18
4.920000E+03	7.602613E-16	6.836748E-18
4.930000E+03	7.592689E-16	6.895642E-18
4.940000E+03	7.597276E-16	6.970372E-18
4.950000E+03	7.615337E-16	7.060208E-18
4.960000E+03	7.645770E-16	7.164351E-18
4.970000E+03	7.688136E-16	7.282618E-18
4.980000E+03	7.741988E-16	7.414819E-18
4.990000E+03	7.806976E-16	7.560865E-18
5.000000E+03	7.882858E-16	7.720773E-18
5.010000E+03	7.969639E-16	7.894811E-18
5.020000E+03	8.066948E-16	8.082887E-18
5.030000E+03	8.174590E-16	8.285081E-18
5.040000E+03	8.292370E-16	8.501474E-18
5.050000E+03	8.419837E-16	8.731885E-18
5.060000E+03	8.556652E-16	8.976235E-18
5.070000E+03	8.702417E-16	9.234371E-18
5.080000E+03	8.856682E-16	9.506073E-18
5.090000E+03	9.018990E-16	9.791093E-18
5.100000E+03	9.188908E-16	1.008919E-17
5.110000E+03	9.366005E-16	1.040011E-17
5.120000E+03	9.549572E-16	1.072326E-17
5.130000E+03	9.739094E-16	1.105824E-17
5.140000E+03	9.933361E-16	1.140383E-17
5.150000E+03	1.013159E-15	1.175922E-17
5.160000E+03	1.033245E-15	1.212294E-17
5.170000E+03	1.053436E-15	1.249316E-17
5.180000E+03	1.073562E-15	1.286781E-17
5.190000E+03	1.093410E-15	1.324421E-17
5.200000E+03	1.112747E-15	1.361936E-17
5.210000E+03	1.131338E-15	1.399006E-17
5.220000E+03	1.148960E-15	1.435320E-17
5.230000E+03	1.165319E-15	1.470463E-17
5.240000E+03	1.180206E-15	1.504113E-17
5.250000E+03	1.193404E-15	1.535931E-17
5.260000E+03	1.204712E-15	1.565583E-17
5.270000E+03	1.213979E-15	1.592797E-17
5.280000E+03	1.221128E-15	1.617389E-17
5.290000E+03	1.226089E-15	1.639180E-17
5.300000E+03	1.228890E-15	1.658123E-17
5.310000E+03	1.229580E-15	1.674202E-17
5.320000E+03	1.228252E-15	1.687460E-17
5.330000E+03	1.225007E-15	1.697964E-17
5.340000E+03	1.219982E-15	1.705830E-17
5.350000E+03	1.213307E-15	1.711178E-17
5.360000E+03	1.205155E-15	1.714190E-17
5.370000E+03	1.195654E-15	1.715000E-17
5.380000E+03	1.184993E-15	1.713829E-17
5.390000E+03	1.173346E-15	1.710892E-17
5.400000E+03	1.160887E-15	1.706411E-17
5.410000E+03	1.147759E-15	1.700568E-17
5.420000E+03	1.134110E-15	1.693566E-17
5.430000E+03	1.120069E-15	1.685579E-17
5.440000E+03	1.105693E-15	1.676685E-17
5.450000E+03	1.091067E-15	1.667003E-17
5.460000E+03	1.076220E-15	1.656571E-17
5.470000E+03	1.061181E-15	1.645431E-17
5.480000E+03	1.046021E-15	1.633691E-17
5.490000E+03	1.030785E-15	1.621418E-17
5.500000E+03	1.015602E-15	1.608817E-17
5.510000E+03	1.000622E-15	1.596130E-17
5.520000E+03	9.860574E-16	1.583707E-17
5.530000E+03	9.720719E-16	1.571830E-17
5.540000E+03	9.588289E-16	1.560784E-17
5.550000E+03	9.464518E-16	1.550798E-17
5.560000E+03	9.350743E-16	1.542122E-17
5.570000E+03	9.247671E-16	1.534908E-17
5.580000E+03	9.156087E-16	1.529321E-17
5.590000E+03	9.076614E-16	1.525506E-17
5.600000E+03	9.009936E-16	1.523616E-17
5.610000E+03	8.956391E-16	1.523749E-17
5.620000E+03	8.916447E-16	1.526028E-17
5.630000E+03	8.890459E-16	1.530554E-17
5.640000E+03	8.878558E-16	1.537394E-17
5.650000E+03	8.880859E-16	1.546610E-17
5.660000E+03	8.897195E-16	1.558213E-17
5.670000E+03	8.927393E-16	1.572216E-17
5.680000E+03	8.971105E-16	1.588595E-17
5.690000E+03	9.027846E-16	1.607302E-17
5.700000E+03	9.096900E-16	1.628245E-17
5.710000E+03	9.177325E-16	1.651288E-17
5.720000E+03	9.268377E-16	1.676326E-17
5.730000E+03	9.368705E-16	1.703142E-17
5.740000E+03	9.477144E-16	1.731545E-17
5.750000E+03	9.592409E-16	1.761319E-17
5.760000E+03	9.712940E-16	1.792192E-17
5.770000E+03	9.837168E-16	1.823886E-17
5.780000E+03	9.963502E-16	1.856109E-17
5.790000E+03	1.008996E-15	1.888495E-17
5.800000E+03	1.021445E-15	1.920648E-17
5.810000E+03	1.033505E-15	1.952195E-17
5.820000E+03	1.044927E-15	1.982651E-17
5.830000E+03	1.055490E-15	2.011580E-17
5.840000E+03	1.064980E-15	2.038543E-17
5.850000E+03	1.073187E-15	2.063113E-17
5.860000E+03	1.079934E-15	2.084912E-17
5.870000E+03	1.085046E-15	2.103565E-17
5.880000E+03	1.088425E-15	2.118841E-17
5.890000E+03	1.089962E-15	2.130486E-17
5.900000E+03	1.089609E-15	2.138358E-17
5.910000E+03	1.087346E-15	2.142379E-17
5.920000E+03	1.083179E-15	2.142517E-17
5.930000E+03	1.077163E-15	2.138835E-17
5.940000E+03	1.069336E-15	2.131372E-17
5.950000E+03	1.059784E-15	2.120262E-17
5.960000E+03	1.048636E-15	2.105725E-17
5.970000E+03	1.036022E-15	2.087997E-17
5.980000E+03	1.022074E-15	2.067309E-17
5.990000E+03	1.006998E-15	2.044060E-17
6.000000E+03	9.909599E-16	2.018565E-17
6.010000E+03	9.742107E-16	1.991321E-17
6.020000E+03	9.569637E-16	1.962755E-17
6.030000E+03	9.394744E-16	1.933387E-17
6.040000E+03	9.220083E-16	1.903765E-17
6.050000E+03	9.048162E-16	1.874413E-17
6.060000E+03	8.881481E-16	1.845860E-17
6.070000E+03	8.722143E-16	1.818560E-17
6.080000E+03	8.572545E-16	1.793033E-17
6.090000E+03	8.434316E-16	1.769643E-17
6.100000E+03	8.309291E-16	1.748803E-17
6.110000E+03	8.198719E-16	1.730806E-17
6.120000E+03	8.103516E-16	1.715875E-17
6.130000E+03	8.024303E-16	1.704174E-17
6.140000E+03	7.961347E-16	1.695794E-17
6.150000E+03	7.914292E-16	1.690691E-17
6.160000E+03	7.882337E-16	1.688725E-17
6.170000E+03	7.864121E-16	1.689632E-17
6.180000E+03	7.857344E-16	1.692943E-17
6.190000E+03	7.859405E-16	1.698120E-17
6.200000E+03	7.866903E-16	1.704440E-17
6.210000E+03	7.876090E-16	1.711100E-17
6.220000E+03	7.882940E-16	1.717226E-17
6.230000E+03	7.883555E-16	1.721961E-17
6.240000E+03	7.875176E-16	1.724692E-17
6.250000E+03	7.856582E-16	1.725134E-17
6.260000E+03	7.828344E-16	1.723395E-17
6.270000E+03	7.792289E-16	1.719865E-17
6.280000E+03	7.751048E-16	1.715111E-17
6.290000E+03	7.707086E-16	1.709673E-17
6.300000E+03	7.662705E-16	1.704058E-17
6.310000E+03	7.620023E-16	1.698740E-17
6.320000E+03	7.580644E-16	1.694080E-17
6.330000E+03	7.545531E-16	1.690300E-17
6.340000E+03	7.515500E-16	1.687590E-17
6.350000E+03	7.491008E-16	1.686063E-17
6.360000E+03	7.472038E-16	1.685724E-17
6.370000E+03	7.458716E-16	1.686610E-17
6.380000E+03	7.450877E-16	1.688693E-17
6.390000E+03	7.448282E-16	1.691927E-17
6.400000E+03	7.450633E-16	1.696252E-17
6.410000E+03	7.457803E-16	1.701645E-17
6.420000E+03	7.469287E-16	1.707997E-17
6.430000E+03	7.484826E-16	1.715256E-17
6.440000E+03	7.503840E-16	1.723292E-17
6.450000E+03	7.525627E-16	1.731949E-17
6.460000E+03	7.549475E-16	1.741066E-17
6.470000E+03	7.574414E-16	1.750421E-17
6.480000E+03	7.599456E-16	1.759786E-17
6.490000E+03	7.623162E-16	1.768825E-17
6.500000E+03	7.644499E-16	1.777297E-17
6.510000E+03	7.662216E-16	1.784906E-17
6.520000E+03	7.675069E-16	1.791355E-17
6.530000E+03	7.682355E-16	1.796474E-17
6.540000E+03	7.683735E-16	1.800174E-17
6.550000E+03	7.679405E-16	1.802493E-17
6.560000E+03	7.669952E-16	1.803563E-17
6.570000E+03	7.656291E-16	1.803591E-17
6.580000E+03	7.639114E-16	1.802735E-17
6.590000E+03	7.619124E-16	1.801158E-17
6.600000E+03	7.597012E-16	1.799019E-17
6.610000E+03	7.573163E-16	1.796407E-17
6.620000E+03	7.547590E-16	1.793323E-17
6.630000E+03	7.520382E-16	1.789786E-17
6.640000E+03	7.491233E-16	1.785723E-17
6.650000E+03	7.460059E-16	1.781110E-17
6.660000E+03	7.426218E-16	1.775793E-17
6.670000E+03	7.389334E-16	1.769679E-17
6.680000E+03	7.349224E-16	1.762720E-17
6.690000E+03	7.305678E-16	1.754864E-17
6.700000E+03	7.258511E-16	1.746064E-17
6.710000E+03	7.207807E-16	1.736335E-17
6.720000E+03	7.153933E-16	1.725764E-17
6.730000E+03	7.097119E-16	1.714405E-17
6.740000E+03	7.037935E-16	1.702393E-17
6.750000E+03	6.976644E-16	1.689790E-17
6.760000E+03	6.914063E-16	1.676794E-17
6.770000E+03	6.850521E-16	1.663485E-17
6.780000E+03	6.786845E-16	1.650063E-17
6.790000E+03	6.723337E-16	1.636604E-17
6.800000E+03	6.660592E-16	1.623253E-17
6.810000E+03	6.599018E-16	1.610112E-17
6.820000E+03	6.538829E-16	1.597237E-17
6.830000E+03	6.480393E-16	1.584718E-17
6.840000E+03	6.423765E-16	1.572571E-17
6.850000E+03	6.369172E-16	1.560856E-17
6.860000E+03	6.316417E-16	1.549527E-17
6.870000E+03	6.265735E-16	1.538643E-17
6.880000E+03	6.216985E-16	1.528173E-17
6.890000E+03	6.170117E-16	1.518106E-17
6.900000E+03	6.124965E-16	1.508405E-17
6.910000E+03	6.081697E-16	1.499113E-17
6.920000E+03	6.039888E-16	1.490126E-17
6.930000E+03	5.999789E-16	1.481510E-17
6.940000E+03	5.961061E-16	1.473182E-17
6.950000E+03	5.923564E-16	1.465110E-17
6.960000E+03	5.887270E-16	1.457288E-17
6.970000E+03	5.851926E-16	1.449655E-17
6.980000E+03	5.817409E-16	1.442183E-17
6.990000E+03	5.783617E-16	1.434846E-17
7.000000E+03	5.750458E-16	1.427625E-17
7.010000E+03	5.717842E-16	1.420496E-17
7.020000E+03	5.685576E-16	1.413415E-17
7.030000E+03	5.653804E-16	1.406417E-17
7.040000E+03	5.622111E-16	1.399401E-17
7.050000E+03	5.590752E-16	1.392431E-17
7.060000E+03	5.559318E-16	1.385406E-17
7.070000E+03	5.527957E-16	1.378363E-17
7.080000E+03	5.496492E-16	1.371260E-17
7.090000E+03	5.464866E-16	1.364084E-17
7.100000E+03	5.433153E-16	1.356853E-17
7.110000E+03	5.401112E-16	1.349509E-17
7.120000E+03	5.368850E-16	1.342078E-17
7.130000E+03	5.336279E-16	1.334541E-17
7.140000E+03	5.303542E-16	1.326933E-17
7.150000E+03	5.270660E-16	1.319260E-17
7.160000E+03	5.237543E-16	1.311502E-17
7.170000E+03	5.204300E-16	1.303685E-17
7.180000E+03	5.170699E-16	1.295754E-17
7.190000E+03	5.136915E-16	1.287753E-17
7.200000E+03	5.102803E-16	1.279646E-17
7.210000E+03	5.068234E-16	1.271402E-17
7.220000E+03	5.033316E-16	1.263049E-17
7.230000E+03	4.998104E-16	1.254601E-17
7.240000E+03	4.962615E-16	1.246064E-17
7.250000E+03	4.927018E-16	1.237482E-17
7.260000E+03	4.891539E-16	1.228911E-17
7.270000E+03	4.856425E-16	1.220416E-17
7.280000E+03	4.821920E-16	1.212057E-17
7.290000E+03	4.788054E-16	1.203845E-17
7.300000E+03	4.755238E-16	1.195883E-17
7.310000E+03	4.723533E-16	1.188188E-17
7.320000E+03	4.692974E-16	1.180770E-17
7.330000E+03	4.663759E-16	1.173680E-17
7.340000E+03	4.635753E-16	1.166885E-17
7.350000E+03	4.608984E-16	1.160392E-17
7.360000E+03	4.583456E-16	1.154205E-17
7.370000E+03	4.559049E-16	1.148294E-17
7.380000E+03	4.535818E-16	1.142674E-17
7.390000E+03	4.513428E-16	1.137261E-17
7.400000E+03	4.492024E-16	1.132094E-17
7.410000E+03	4.471387E-16	1.127117E-17
7.420000E+03	4.451617E-16	1.122357E-17
7.430000E+03	4.432669E-16	1.117804E-17
7.440000E+03	4.414624E-16	1.113479E-17
7.450000E+03	4.397686E-16	1.109434E-17
7.460000E+03	4.381874E-16	1.105676E-17
7.470000E+03	4.367578E-16	1.102304E-17
7.480000E+03	4.354699E-16	1.099293E-17
7.490000E+03	4.343472E-16	1.096705E-17
7.500000E+03	4.333804E-16	1.094516E-17
7.510000E+03	4.325923E-16	1.092785E-17
7.520000E+03	4.319593E-16	1.091454E-17
7.530000E+03	4.314596E-16	1.090467E-17
7.540000E+03	4.310733E-16	1.089776E-17
7.550000E+03	4.307612E-16	1.089282E-17
7.560000E+03	4.304953E-16	1.088915E-17
7.570000E+03	4.302027E-16	1.088491E-17
7.580000E+03	4.298322E-16	1.087882E-17
7.590000E+03	4.293312E-16	1.086954E-17
7.600000E+03	4.286311E-16	1.085533E-17
7.610000E+03	4.276927E-16	1.083522E-17
7.620000E+03	4.264785E-16	1.080824E-17
7.630000E+03	4.250059E-16	1.077484E-17
7.640000E+03	4.232750E-16	1.073501E-17
7.650000E+03	4.213388E-16	1.069010E-17
7.660000E+03	4.192184E-16	1.064064E-17
7.670000E+03	4.169720E-16	1.058811E-17
7.680000E+03	4.146170E-16	1.053295E-17
7.690000E+03	4.122058E-16	1.047649E-17
7.700000E+03	4.097556E-16	1.041917E-17
7.710000E+03	4.072879E-16	1.036154E-17
7.720000E+03	4.048186E-16	1.030401E-17
7.730000E+03	4.023556E-16	1.024678E-17
7.740000E+03	3.999007E-16	1.018990E-17
7.750000E+03	3.974414E-16	1.013306E-17
7.760000E+03	3.949890E-16	1.007654E-17
