#wls	flux	fluxerr
1.600000E+03	4.574165E-16	1.313682E-17
1.640000E+03	4.679492E-16	1.336290E-17
1.680000E+03	4.793012E-16	1.360701E-17
1.720000E+03	4.914941E-16	1.386917E-17
1.760000E+03	5.045926E-16	1.415063E-17
1.800000E+03	5.187034E-16	1.445367E-17
1.840000E+03	5.337583E-16	1.477567E-17
1.880000E+03	5.499054E-16	1.511998E-17
1.920000E+03	5.671630E-16	1.548625E-17
1.960000E+03	5.855506E-16	1.587413E-17
2.000000E+03	6.050481E-16	1.628215E-17
2.040000E+03	6.256809E-16	1.671004E-17
2.080000E+03	6.473959E-16	1.715540E-17
2.120000E+03	6.700663E-16	1.761390E-17
2.160000E+03	6.936963E-16	1.808471E-17
2.200000E+03	7.181381E-16	1.856303E-17
2.240000E+03	7.432974E-16	1.904553E-17
2.280000E+03	7.691717E-16	1.953130E-17
2.320000E+03	7.958488E-16	2.002165E-17
2.360000E+03	8.235441E-16	2.052098E-17
2.400000E+03	8.525221E-16	2.103465E-17
2.440000E+03	8.830599E-16	2.156805E-17
2.480000E+03	9.155652E-16	2.212941E-17
2.520000E+03	9.503512E-16	2.272421E-17
2.560000E+03	9.878338E-16	2.336000E-17
2.600000E+03	1.028349E-15	2.404192E-17
2.640000E+03	1.072311E-15	2.477653E-17
2.680000E+03	1.120115E-15	2.556930E-17
2.720000E+03	1.172211E-15	2.642654E-17
2.760000E+03	1.229130E-15	2.735559E-17
2.800000E+03	1.291452E-15	2.836422E-17
2.840000E+03	1.359854E-15	2.946148E-17
2.880000E+03	1.435216E-15	3.065975E-17
2.920000E+03	1.518478E-15	3.197147E-17
2.960000E+03	1.610935E-15	3.341505E-17
3.000000E+03	1.713941E-15	3.500837E-17
3.010000E+03	1.741578E-15	3.543358E-17
3.020000E+03	1.769977E-15	3.586931E-17
3.030000E+03	1.799164E-15	3.631588E-17
3.040000E+03	1.829246E-15	3.677519E-17
3.050000E+03	1.860207E-15	3.724672E-17
3.060000E+03	1.892072E-15	3.773073E-17
3.070000E+03	1.924912E-15	3.822834E-17
3.080000E+03	1.958710E-15	3.873902E-17
3.090000E+03	1.993496E-15	3.926304E-17
3.100000E+03	2.029381E-15	3.980233E-17
3.110000E+03	2.066309E-15	4.035550E-17
3.120000E+03	2.104350E-15	4.092361E-17
3.130000E+03	2.143488E-15	4.150607E-17
3.140000E+03	2.183881E-15	4.210561E-17
3.150000E+03	2.225424E-15	4.271987E-17
3.160000E+03	2.268187E-15	4.334987E-17
3.170000E+03	2.312235E-15	4.399652E-17
3.180000E+03	2.357592E-15	4.465988E-17
3.190000E+03	2.404185E-15	4.533827E-17
3.200000E+03	2.452166E-15	4.603415E-17
3.210000E+03	2.501453E-15	4.674564E-17
3.220000E+03	2.552101E-15	4.747336E-17
3.230000E+03	2.604063E-15	4.821607E-17
3.240000E+03	2.657377E-15	4.897412E-17
3.250000E+03	2.712030E-15	4.974686E-17
3.260000E+03	2.767998E-15	5.053348E-17
3.270000E+03	2.825196E-15	5.133206E-17
3.280000E+03	2.883623E-15	5.214225E-17
3.290000E+03	2.943217E-15	5.296255E-17
3.300000E+03	3.003850E-15	5.379035E-17
3.310000E+03	3.065472E-15	5.462443E-17
3.320000E+03	3.127912E-15	5.546147E-17
3.330000E+03	3.191077E-15	5.629960E-17
3.340000E+03	3.254744E-15	5.713469E-17
3.350000E+03	3.318716E-15	5.796310E-17
3.360000E+03	3.382761E-15	5.878072E-17
3.370000E+03	3.446612E-15	5.958287E-17
3.380000E+03	3.509970E-15	6.036442E-17
3.390000E+03	3.572440E-15	6.111877E-17
3.400000E+03	3.633698E-15	6.184057E-17
3.410000E+03	3.693223E-15	6.252132E-17
3.420000E+03	3.750663E-15	6.315555E-17
3.430000E+03	3.805426E-15	6.373389E-17
3.440000E+03	3.856995E-15	6.424844E-17
3.450000E+03	3.904828E-15	6.469109E-17
3.460000E+03	3.948321E-15	6.505287E-17
3.470000E+03	3.986965E-15	6.532666E-17
3.480000E+03	4.020159E-15	6.550396E-17
3.490000E+03	4.047321E-15	6.557684E-17
3.500000E+03	4.067958E-15	6.553902E-17
3.510000E+03	4.081576E-15	6.538442E-17
3.520000E+03	4.087847E-15	6.510972E-17
3.530000E+03	4.086324E-15	6.470991E-17
3.540000E+03	4.076851E-15	6.418469E-17
3.550000E+03	4.059273E-15	6.353387E-17
3.560000E+03	4.033601E-15	6.275989E-17
3.570000E+03	3.999878E-15	6.186569E-17
3.580000E+03	3.958349E-15	6.085729E-17
3.590000E+03	3.909548E-15	5.974507E-17
3.600000E+03	3.854095E-15	5.854051E-17
3.610000E+03	3.793182E-15	5.726349E-17
3.620000E+03	3.728171E-15	5.593600E-17
3.630000E+03	3.660488E-15	5.458048E-17
3.640000E+03	3.591638E-15	5.322003E-17
3.650000E+03	3.523161E-15	5.187764E-17
3.660000E+03	3.456475E-15	5.057401E-17
3.670000E+03	3.393057E-15	4.933015E-17
3.680000E+03	3.334171E-15	4.816340E-17
3.690000E+03	3.281115E-15	4.709117E-17
3.700000E+03	3.235062E-15	4.612858E-17
3.710000E+03	3.197134E-15	4.528958E-17
3.720000E+03	3.168304E-15	4.458561E-17
3.730000E+03	3.149533E-15	4.402759E-17
3.740000E+03	3.141676E-15	4.362458E-17
3.750000E+03	3.145555E-15	4.338491E-17
3.760000E+03	3.161891E-15	4.331516E-17
3.770000E+03	3.191367E-15	4.342118E-17
3.780000E+03	3.234552E-15	4.370700E-17
3.790000E+03	3.291923E-15	4.417522E-17
3.800000E+03	3.363935E-15	4.482796E-17
3.810000E+03	3.450725E-15	4.566295E-17
3.820000E+03	3.552351E-15	4.667690E-17
3.830000E+03	3.668615E-15	4.786311E-17
3.840000E+03	3.798886E-15	4.920937E-17
3.850000E+03	3.942224E-15	5.069975E-17
3.860000E+03	4.097278E-15	5.231344E-17
3.870000E+03	4.262168E-15	5.402343E-17
3.880000E+03	4.434485E-15	5.579674E-17
3.890000E+03	4.611247E-15	5.759420E-17
3.900000E+03	4.789055E-15	5.937255E-17
3.910000E+03	4.964081E-15	6.108450E-17
3.920000E+03	5.132246E-15	6.268115E-17
3.930000E+03	5.289403E-15	6.411427E-17
3.940000E+03	5.431573E-15	6.533918E-17
3.950000E+03	5.555245E-15	6.631823E-17
3.960000E+03	5.657473E-15	6.702175E-17
3.970000E+03	5.736029E-15	6.742958E-17
3.980000E+03	5.789746E-15	6.753470E-17
3.990000E+03	5.818254E-15	6.733973E-17
4.000000E+03	5.822222E-15	6.685932E-17
4.010000E+03	5.803140E-15	6.611720E-17
4.020000E+03	5.763170E-15	6.514411E-17
4.030000E+03	5.705174E-15	6.397782E-17
4.040000E+03	5.632230E-15	6.265748E-17
4.050000E+03	5.547685E-15	6.122403E-17
4.060000E+03	5.454819E-15	5.971649E-17
4.070000E+03	5.356768E-15	5.817112E-17
4.080000E+03	5.256391E-15	5.662008E-17
4.090000E+03	5.156238E-15	5.509118E-17
4.100000E+03	5.058353E-15	5.360603E-17
4.110000E+03	4.964410E-15	5.218159E-17
4.120000E+03	4.875751E-15	5.083080E-17
4.130000E+03	4.793154E-15	4.956032E-17
4.140000E+03	4.717170E-15	4.837424E-17
4.150000E+03	4.647990E-15	4.727278E-17
4.160000E+03	4.585536E-15	4.625343E-17
4.170000E+03	4.529517E-15	4.531160E-17
4.180000E+03	4.479483E-15	4.444121E-17
4.190000E+03	4.434883E-15	4.363537E-17
4.200000E+03	4.395108E-15	4.288685E-17
4.210000E+03	4.359554E-15	4.218863E-17
4.220000E+03	4.327654E-15	4.153431E-17
4.230000E+03	4.298876E-15	4.091798E-17
4.240000E+03	4.272833E-15	4.033529E-17
4.250000E+03	4.249311E-15	3.978366E-17
4.260000E+03	4.228186E-15	3.926141E-17
4.270000E+03	4.209361E-15	3.876716E-17
4.280000E+03	4.192954E-15	3.830153E-17
4.290000E+03	4.179106E-15	3.786533E-17
4.300000E+03	4.167977E-15	3.745951E-17
4.310000E+03	4.159700E-15	3.708475E-17
4.320000E+03	4.154280E-15	3.674056E-17
4.330000E+03	4.151664E-15	3.642599E-17
4.340000E+03	4.151410E-15	3.613671E-17
4.350000E+03	4.152936E-15	3.586729E-17
4.360000E+03	4.155267E-15	3.560904E-17
4.370000E+03	4.157182E-15	3.535139E-17
4.380000E+03	4.157329E-15	3.508302E-17
4.390000E+03	4.154871E-15	3.479723E-17
4.400000E+03	4.150775E-15	3.450255E-17
4.410000E+03	4.147818E-15	3.422215E-17
4.420000E+03	4.148986E-15	3.398028E-17
4.430000E+03	4.156932E-15	3.379771E-17
4.440000E+03	4.173821E-15	3.369075E-17
4.450000E+03	4.201102E-15	3.366946E-17
4.460000E+03	4.239586E-15	3.373860E-17
4.470000E+03	4.289470E-15	3.389790E-17
4.480000E+03	4.350204E-15	3.414133E-17
4.490000E+03	4.420763E-15	3.445929E-17
4.500000E+03	4.499533E-15	3.483792E-17
4.510000E+03	4.584360E-15	3.525961E-17
4.520000E+03	4.672700E-15	3.570423E-17
4.530000E+03	4.761654E-15	3.614952E-17
4.540000E+03	4.848081E-15	3.657196E-17
4.550000E+03	4.928721E-15	3.694773E-17
4.560000E+03	5.000283E-15	3.725340E-17
4.570000E+03	5.059639E-15	3.746725E-17
4.580000E+03	5.104131E-15	3.757157E-17
4.590000E+03	5.131390E-15	3.755113E-17
4.600000E+03	5.139730E-15	3.739596E-17
4.610000E+03	5.128312E-15	3.710242E-17
4.620000E+03	5.097058E-15	3.667235E-17
4.630000E+03	5.046568E-15	3.611233E-17
4.640000E+03	4.978517E-15	3.543639E-17
4.650000E+03	4.894895E-15	3.466040E-17
4.660000E+03	4.798462E-15	3.380529E-17
4.670000E+03	4.692118E-15	3.289248E-17
4.680000E+03	4.578829E-15	3.194337E-17
4.690000E+03	4.461403E-15	3.097782E-17
4.700000E+03	4.342284E-15	3.001278E-17
4.710000E+03	4.223486E-15	2.906188E-17
4.720000E+03	4.106245E-15	2.813321E-17
4.730000E+03	3.991127E-15	2.723004E-17
4.740000E+03	3.878005E-15	2.635080E-17
4.750000E+03	3.765980E-15	2.548876E-17
4.760000E+03	3.653912E-15	2.463566E-17
4.770000E+03	3.540440E-15	2.378193E-17
4.780000E+03	3.424989E-15	2.292338E-17
4.790000E+03	3.308337E-15	2.206491E-17
4.800000E+03	3.193031E-15	2.122316E-17
4.810000E+03	3.082362E-15	2.041946E-17
4.820000E+03	2.979357E-15	1.967314E-17
4.830000E+03	2.886293E-15	1.899837E-17
4.840000E+03	2.804738E-15	1.840455E-17
4.850000E+03	2.735429E-15	1.789556E-17
4.860000E+03	2.678396E-15	1.747065E-17
4.870000E+03	2.633177E-15	1.712594E-17
4.880000E+03	2.598955E-15	1.685530E-17
4.890000E+03	2.574594E-15	1.665064E-17
4.900000E+03	2.558852E-15	1.650330E-17
4.910000E+03	2.550332E-15	1.640373E-17
4.920000E+03	2.547722E-15	1.634305E-17
4.930000E+03	2.549776E-15	1.631292E-17
4.940000E+03	2.555386E-15	1.630594E-17
4.950000E+03	2.563691E-15	1.631640E-17
4.960000E+03	2.573999E-15	1.633969E-17
4.970000E+03	2.585903E-15	1.637309E-17
4.980000E+03	2.599150E-15	1.641486E-17
4.990000E+03	2.613694E-15	1.646461E-17
5.000000E+03	2.629609E-15	1.652268E-17
5.010000E+03	2.647146E-15	1.659052E-17
5.020000E+03	2.666493E-15	1.666920E-17
5.030000E+03	2.687906E-15	1.676019E-17
5.040000E+03	2.711645E-15	1.686497E-17
5.050000E+03	2.737852E-15	1.698426E-17
5.060000E+03	2.766629E-15	1.711857E-17
5.070000E+03	2.798003E-15	1.726789E-17
5.080000E+03	2.831924E-15	1.743177E-17
5.090000E+03	2.868245E-15	1.760918E-17
5.100000E+03	2.906800E-15	1.779895E-17
5.110000E+03	2.947417E-15	1.799992E-17
5.120000E+03	2.989820E-15	1.821029E-17
5.130000E+03	3.033859E-15	1.842907E-17
5.140000E+03	3.079249E-15	1.865443E-17
5.150000E+03	3.125889E-15	1.888572E-17
5.160000E+03	3.173614E-15	1.912189E-17
5.170000E+03	3.222302E-15	1.936216E-17
5.180000E+03	3.271821E-15	1.960572E-17
5.190000E+03	3.321972E-15	1.985138E-17
5.200000E+03	3.372527E-15	2.009777E-17
5.210000E+03	3.423124E-15	2.034277E-17
5.220000E+03	3.473396E-15	2.058425E-17
5.230000E+03	3.522679E-15	2.081838E-17
5.240000E+03	3.570328E-15	2.104145E-17
5.250000E+03	3.615568E-15	2.124908E-17
5.260000E+03	3.657584E-15	2.143669E-17
5.270000E+03	3.695492E-15	2.159936E-17
5.280000E+03	3.728564E-15	2.173316E-17
5.290000E+03	3.756081E-15	2.183423E-17
5.300000E+03	3.777472E-15	2.189964E-17
5.310000E+03	3.792263E-15	2.192704E-17
5.320000E+03	3.800185E-15	2.191532E-17
5.330000E+03	3.800985E-15	2.186343E-17
5.340000E+03	3.794619E-15	2.177157E-17
5.350000E+03	3.781150E-15	2.164051E-17
5.360000E+03	3.760846E-15	2.147219E-17
5.370000E+03	3.733966E-15	2.126848E-17
5.380000E+03	3.701081E-15	2.103296E-17
5.390000E+03	3.662848E-15	2.076970E-17
5.400000E+03	3.620065E-15	2.048346E-17
5.410000E+03	3.573572E-15	2.017922E-17
5.420000E+03	3.524374E-15	1.986282E-17
5.430000E+03	3.473562E-15	1.954051E-17
5.440000E+03	3.422133E-15	1.921799E-17
5.450000E+03	3.371262E-15	1.890188E-17
5.460000E+03	3.322070E-15	1.859843E-17
5.470000E+03	3.275796E-15	1.831456E-17
5.480000E+03	3.233787E-15	1.805761E-17
5.490000E+03	3.196930E-15	1.783225E-17
5.500000E+03	3.165265E-15	1.763839E-17
5.510000E+03	3.137351E-15	1.746773E-17
5.520000E+03	3.111248E-15	1.730925E-17
5.530000E+03	3.084888E-15	1.715125E-17
5.540000E+03	3.056641E-15	1.698452E-17
5.550000E+03	3.025287E-15	1.680212E-17
5.560000E+03	2.990232E-15	1.660063E-17
5.570000E+03	2.951304E-15	1.637894E-17
5.580000E+03	2.908871E-15	1.613898E-17
5.590000E+03	2.863654E-15	1.588460E-17
5.600000E+03	2.816728E-15	1.562161E-17
5.610000E+03	2.769273E-15	1.535644E-17
5.620000E+03	2.722628E-15	1.509638E-17
5.630000E+03	2.678173E-15	1.484895E-17
5.640000E+03	2.637210E-15	1.462127E-17
5.650000E+03	2.600977E-15	1.442009E-17
5.660000E+03	2.570506E-15	1.425105E-17
5.670000E+03	2.546727E-15	1.411921E-17
5.680000E+03	2.530380E-15	1.402861E-17
5.690000E+03	2.521982E-15	1.398205E-17
5.700000E+03	2.521855E-15	1.398124E-17
5.710000E+03	2.530116E-15	1.402679E-17
5.720000E+03	2.546736E-15	1.411845E-17
5.730000E+03	2.571368E-15	1.425425E-17
5.740000E+03	2.603564E-15	1.443164E-17
5.750000E+03	2.642619E-15	1.464665E-17
5.760000E+03	2.687600E-15	1.489404E-17
5.770000E+03	2.737476E-15	1.516801E-17
5.780000E+03	2.791082E-15	1.546206E-17
5.790000E+03	2.847090E-15	1.576874E-17
5.800000E+03	2.904095E-15	1.608023E-17
5.810000E+03	2.960699E-15	1.638870E-17
5.820000E+03	3.015361E-15	1.668560E-17
5.830000E+03	3.066666E-15	1.696306E-17
5.840000E+03	3.113266E-15	1.721362E-17
5.850000E+03	3.153965E-15	1.743066E-17
5.860000E+03	3.187814E-15	1.760897E-17
5.870000E+03	3.214005E-15	1.774415E-17
5.880000E+03	3.232136E-15	1.783404E-17
5.890000E+03	3.241964E-15	1.787739E-17
5.900000E+03	3.243526E-15	1.787452E-17
5.910000E+03	3.237072E-15	1.782693E-17
5.920000E+03	3.223030E-15	1.773712E-17
5.930000E+03	3.201998E-15	1.760852E-17
5.940000E+03	3.174556E-15	1.744447E-17
5.950000E+03	3.141419E-15	1.724903E-17
5.960000E+03	3.103368E-15	1.702666E-17
5.970000E+03	3.061153E-15	1.678160E-17
5.980000E+03	3.015435E-15	1.651762E-17
5.990000E+03	2.967004E-15	1.623916E-17
6.000000E+03	2.916435E-15	1.594951E-17
6.010000E+03	2.864459E-15	1.565275E-17
6.020000E+03	2.811555E-15	1.535163E-17
6.030000E+03	2.758253E-15	1.504911E-17
6.040000E+03	2.705066E-15	1.474807E-17
6.050000E+03	2.652398E-15	1.445080E-17
6.060000E+03	2.600680E-15	1.415970E-17
6.070000E+03	2.550293E-15	1.387691E-17
6.080000E+03	2.501788E-15	1.360548E-17
6.090000E+03	2.455633E-15	1.334798E-17
6.100000E+03	2.412530E-15	1.310829E-17
6.110000E+03	2.373172E-15	1.289019E-17
6.120000E+03	2.338310E-15	1.269781E-17
6.130000E+03	2.308733E-15	1.253547E-17
6.140000E+03	2.285201E-15	1.240735E-17
6.150000E+03	2.268272E-15	1.231655E-17
6.160000E+03	2.258277E-15	1.226496E-17
6.170000E+03	2.255237E-15	1.225282E-17
6.180000E+03	2.258588E-15	1.227720E-17
6.190000E+03	2.267287E-15	1.233261E-17
6.200000E+03	2.279664E-15	1.241008E-17
6.210000E+03	2.293449E-15	1.249738E-17
6.220000E+03	2.305841E-15	1.257934E-17
6.230000E+03	2.313903E-15	1.263996E-17
6.240000E+03	2.315223E-15	1.266602E-17
6.250000E+03	2.308997E-15	1.265300E-17
6.260000E+03	2.296544E-15	1.260795E-17
6.270000E+03	2.280084E-15	1.254292E-17
6.280000E+03	2.262022E-15	1.247101E-17
6.290000E+03	2.244454E-15	1.240375E-17
6.300000E+03	2.228976E-15	1.234997E-17
6.310000E+03	2.216629E-15	1.231555E-17
6.320000E+03	2.207879E-15	1.230321E-17
6.330000E+03	2.202642E-15	1.231269E-17
6.340000E+03	2.200536E-15	1.234202E-17
6.350000E+03	2.200925E-15	1.238785E-17
6.360000E+03	2.202969E-15	1.244560E-17
6.370000E+03	2.205890E-15	1.251102E-17
6.380000E+03	2.208906E-15	1.257972E-17
6.390000E+03	2.211357E-15	1.264790E-17
6.400000E+03	2.212751E-15	1.271257E-17
6.410000E+03	2.212853E-15	1.277218E-17
6.420000E+03	2.211520E-15	1.282567E-17
6.430000E+03	2.208882E-15	1.287356E-17
6.440000E+03	2.205143E-15	1.291679E-17
6.450000E+03	2.200600E-15	1.295688E-17
6.460000E+03	2.195626E-15	1.299585E-17
6.470000E+03	2.190563E-15	1.303554E-17
6.480000E+03	2.185740E-15	1.307778E-17
6.490000E+03	2.181336E-15	1.312355E-17
6.500000E+03	2.177592E-15	1.317423E-17
6.510000E+03	2.174617E-15	1.323041E-17
6.520000E+03	2.172445E-15	1.329227E-17
6.530000E+03	2.171144E-15	1.336018E-17
6.540000E+03	2.170749E-15	1.343437E-17
6.550000E+03	2.171286E-15	1.351496E-17
6.560000E+03	2.172739E-15	1.360185E-17
6.570000E+03	2.175077E-15	1.369485E-17
6.580000E+03	2.178137E-15	1.379291E-17
6.590000E+03	2.181727E-15	1.389480E-17
6.600000E+03	2.185634E-15	1.399911E-17
6.610000E+03	2.189549E-15	1.410380E-17
6.620000E+03	2.193080E-15	1.420624E-17
6.630000E+03	2.195876E-15	1.430401E-17
6.640000E+03	2.197504E-15	1.439410E-17
6.650000E+03	2.197651E-15	1.447424E-17
6.660000E+03	2.195887E-15	1.454134E-17
6.670000E+03	2.191903E-15	1.459307E-17
6.680000E+03	2.185494E-15	1.462774E-17
6.690000E+03	2.176492E-15	1.464390E-17
6.700000E+03	2.164782E-15	1.464043E-17
6.710000E+03	2.150380E-15	1.461711E-17
6.720000E+03	2.133436E-15	1.457463E-17
6.730000E+03	2.114111E-15	1.451379E-17
6.740000E+03	2.092722E-15	1.443652E-17
6.750000E+03	2.069540E-15	1.434445E-17
6.760000E+03	2.045023E-15	1.424058E-17
6.770000E+03	2.019512E-15	1.412715E-17
6.780000E+03	1.993498E-15	1.400750E-17
6.790000E+03	1.967317E-15	1.388396E-17
6.800000E+03	1.941394E-15	1.375953E-17
6.810000E+03	1.916086E-15	1.363678E-17
6.820000E+03	1.891679E-15	1.351782E-17
6.830000E+03	1.868497E-15	1.340506E-17
6.840000E+03	1.846747E-15	1.330010E-17
6.850000E+03	1.826663E-15	1.320478E-17
6.860000E+03	1.808325E-15	1.311980E-17
6.870000E+03	1.791907E-15	1.304661E-17
6.880000E+03	1.777442E-15	1.298558E-17
6.890000E+03	1.764965E-15	1.293714E-17
6.900000E+03	1.754444E-15	1.290120E-17
6.910000E+03	1.745913E-15	1.287815E-17
6.920000E+03	1.739215E-15	1.286697E-17
6.930000E+03	1.734352E-15	1.286778E-17
6.940000E+03	1.731127E-15	1.287925E-17
6.950000E+03	1.729373E-15	1.290022E-17
6.960000E+03	1.728924E-15	1.292953E-17
6.970000E+03	1.729520E-15	1.296529E-17
6.980000E+03	1.730911E-15	1.300567E-17
6.990000E+03	1.732831E-15	1.304869E-17
7.000000E+03	1.735008E-15	1.309233E-17
7.010000E+03	1.737174E-15	1.313456E-17
7.020000E+03	1.739034E-15	1.317313E-17
7.030000E+03	1.740404E-15	1.320663E-17
7.040000E+03	1.740952E-15	1.323252E-17
7.050000E+03	1.740575E-15	1.324997E-17
7.060000E+03	1.739000E-15	1.325687E-17
7.070000E+03	1.736171E-15	1.325277E-17
7.080000E+03	1.731972E-15	1.323676E-17
7.090000E+03	1.726370E-15	1.320855E-17
7.100000E+03	1.719417E-15	1.316854E-17
7.110000E+03	1.711101E-15	1.311662E-17
7.120000E+03	1.701560E-15	1.305385E-17
7.130000E+03	1.690898E-15	1.298106E-17
7.140000E+03	1.679315E-15	1.289978E-17
7.150000E+03	1.666997E-15	1.281148E-17
7.160000E+03	1.654101E-15	1.271740E-17
7.170000E+03	1.640846E-15	1.261926E-17
7.180000E+03	1.627344E-15	1.251797E-17
7.190000E+03	1.613820E-15	1.241532E-17
7.200000E+03	1.600377E-15	1.231213E-17
7.210000E+03	1.587098E-15	1.220909E-17
7.220000E+03	1.574103E-15	1.210718E-17
7.230000E+03	1.561464E-15	1.200700E-17
7.240000E+03	1.549203E-15	1.190878E-17
7.250000E+03	1.537366E-15	1.181289E-17
7.260000E+03	1.525986E-15	1.171965E-17
7.270000E+03	1.515084E-15	1.162925E-17
7.280000E+03	1.504672E-15	1.154185E-17
7.290000E+03	1.494685E-15	1.145696E-17
7.300000E+03	1.485174E-15	1.137503E-17
7.310000E+03	1.476086E-15	1.129569E-17
7.320000E+03	1.467360E-15	1.121851E-17
7.330000E+03	1.458993E-15	1.114350E-17
7.340000E+03	1.450882E-15	1.106993E-17
7.350000E+03	1.442987E-15	1.099752E-17
7.360000E+03	1.435256E-15	1.092592E-17
7.370000E+03	1.427601E-15	1.085451E-17
7.380000E+03	1.419987E-15	1.078307E-17
7.390000E+03	1.412262E-15	1.071048E-17
7.400000E+03	1.404427E-15	1.063682E-17
7.410000E+03	1.396372E-15	1.056130E-17
7.420000E+03	1.388100E-15	1.048400E-17
7.430000E+03	1.379579E-15	1.040474E-17
7.440000E+03	1.370832E-15	1.032375E-17
7.450000E+03	1.361935E-15	1.024165E-17
7.460000E+03	1.352926E-15	1.015879E-17
7.470000E+03	1.343970E-15	1.007647E-17
7.480000E+03	1.335096E-15	9.994946E-18
7.490000E+03	1.326448E-15	9.915336E-18
7.500000E+03	1.318075E-15	9.838043E-18
7.510000E+03	1.310134E-15	9.764251E-18
7.520000E+03	1.302645E-15	9.694130E-18
7.530000E+03	1.295647E-15	9.627967E-18
7.540000E+03	1.289183E-15	9.566103E-18
7.550000E+03	1.283247E-15	9.508506E-18
7.560000E+03	1.277864E-15	9.455368E-18
7.570000E+03	1.272912E-15	9.405801E-18
7.580000E+03	1.268317E-15	9.359279E-18
7.590000E+03	1.263980E-15	9.315100E-18
7.600000E+03	1.259733E-15	9.272051E-18
7.610000E+03	1.255469E-15	9.229365E-18
7.620000E+03	1.251045E-15	9.186039E-18
7.630000E+03	1.246434E-15	9.141915E-18
7.640000E+03	1.241534E-15	9.096279E-18
7.650000E+03	1.236392E-15	9.049525E-18
7.660000E+03	1.230972E-15	9.001423E-18
7.670000E+03	1.225372E-15	8.952744E-18
7.680000E+03	1.219598E-15	8.903555E-18
7.690000E+03	1.213780E-15	8.854851E-18
7.700000E+03	1.207978E-15	8.807106E-18
7.710000E+03	1.202284E-15	8.761027E-18
7.720000E+03	1.196791E-15	8.717327E-18
7.730000E+03	1.191589E-15	8.676693E-18
7.740000E+03	1.186749E-15	8.639680E-18
7.750000E+03	1.182302E-15	8.606546E-18
7.760000E+03	1.178334E-15	8.577961E-18
