#wls	flux	fluxerr
1.600000E+03	3.739495E-16	6.456352E-18
1.640000E+03	3.815476E-16	6.564089E-18
1.680000E+03	3.897596E-16	6.680834E-18
1.720000E+03	3.985976E-16	6.806629E-18
1.760000E+03	4.081084E-16	6.942098E-18
1.800000E+03	4.183722E-16	7.088413E-18
1.840000E+03	4.293272E-16	7.244317E-18
1.880000E+03	4.410865E-16	7.411503E-18
1.920000E+03	4.536576E-16	7.589856E-18
1.960000E+03	4.670488E-16	7.779265E-18
2.000000E+03	4.812373E-16	7.979086E-18
2.040000E+03	4.962361E-16	8.189269E-18
2.080000E+03	5.119962E-16	8.408731E-18
2.120000E+03	5.284114E-16	8.635456E-18
2.160000E+03	5.454794E-16	8.869147E-18
2.200000E+03	5.630790E-16	9.107576E-18
2.240000E+03	5.811322E-16	9.349244E-18
2.280000E+03	5.996335E-16	9.593829E-18
2.320000E+03	6.186477E-16	9.842124E-18
2.360000E+03	6.383374E-16	1.009645E-17
2.400000E+03	6.589014E-16	1.035960E-17
2.440000E+03	6.805454E-16	1.063443E-17
2.480000E+03	7.035725E-16	1.092518E-17
2.520000E+03	7.282090E-16	1.123479E-17
2.560000E+03	7.547555E-16	1.156722E-17
2.600000E+03	7.834463E-16	1.192530E-17
2.640000E+03	8.145709E-16	1.231253E-17
2.680000E+03	8.483933E-16	1.273190E-17
2.720000E+03	8.852157E-16	1.318683E-17
2.760000E+03	9.253843E-16	1.368121E-17
2.800000E+03	9.692676E-16	1.421907E-17
2.840000E+03	1.017290E-15	1.480504E-17
2.880000E+03	1.069996E-15	1.544523E-17
2.920000E+03	1.127939E-15	1.614556E-17
2.960000E+03	1.191878E-15	1.691459E-17
3.000000E+03	1.262552E-15	1.776012E-17
3.010000E+03	1.281406E-15	1.798499E-17
3.020000E+03	1.300730E-15	1.821508E-17
3.030000E+03	1.320533E-15	1.845047E-17
3.040000E+03	1.340886E-15	1.869211E-17
3.050000E+03	1.361769E-15	1.893965E-17
3.060000E+03	1.383192E-15	1.919318E-17
3.070000E+03	1.405195E-15	1.945317E-17
3.080000E+03	1.427756E-15	1.971929E-17
3.090000E+03	1.450886E-15	1.999161E-17
3.100000E+03	1.474652E-15	2.027098E-17
3.110000E+03	1.499001E-15	2.055660E-17
3.120000E+03	1.523969E-15	2.084892E-17
3.130000E+03	1.549530E-15	2.114751E-17
3.140000E+03	1.575780E-15	2.145360E-17
3.150000E+03	1.602626E-15	2.176585E-17
3.160000E+03	1.630101E-15	2.208463E-17
3.170000E+03	1.658229E-15	2.241022E-17
3.180000E+03	1.687006E-15	2.274247E-17
3.190000E+03	1.716360E-15	2.308034E-17
3.200000E+03	1.746372E-15	2.342484E-17
3.210000E+03	1.776959E-15	2.377481E-17
3.220000E+03	1.808131E-15	2.413030E-17
3.230000E+03	1.839829E-15	2.449044E-17
3.240000E+03	1.872050E-15	2.485515E-17
3.250000E+03	1.904753E-15	2.522382E-17
3.260000E+03	1.937890E-15	2.559574E-17
3.270000E+03	1.971369E-15	2.596966E-17
3.280000E+03	2.005158E-15	2.634511E-17
3.290000E+03	2.039180E-15	2.672104E-17
3.300000E+03	2.073316E-15	2.709585E-17
3.310000E+03	2.107500E-15	2.746866E-17
3.320000E+03	2.141586E-15	2.783757E-17
3.330000E+03	2.175484E-15	2.820142E-17
3.340000E+03	2.209023E-15	2.855798E-17
3.350000E+03	2.242052E-15	2.890536E-17
3.360000E+03	2.274403E-15	2.924145E-17
3.370000E+03	2.305898E-15	2.956400E-17
3.380000E+03	2.336343E-15	2.987065E-17
3.390000E+03	2.365501E-15	3.015845E-17
3.400000E+03	2.393187E-15	3.042521E-17
3.410000E+03	2.419109E-15	3.066737E-17
3.420000E+03	2.443103E-15	3.088304E-17
3.430000E+03	2.464865E-15	3.106861E-17
3.440000E+03	2.484163E-15	3.122138E-17
3.450000E+03	2.500766E-15	3.133873E-17
3.460000E+03	2.514423E-15	3.141783E-17
3.470000E+03	2.524963E-15	3.145685E-17
3.480000E+03	2.532171E-15	3.145349E-17
3.490000E+03	2.535861E-15	3.140579E-17
3.500000E+03	2.535915E-15	3.131271E-17
3.510000E+03	2.532224E-15	3.117329E-17
3.520000E+03	2.524792E-15	3.098802E-17
3.530000E+03	2.513548E-15	3.075645E-17
3.540000E+03	2.498610E-15	3.048044E-17
3.550000E+03	2.480094E-15	3.016183E-17
3.560000E+03	2.458212E-15	2.980360E-17
3.570000E+03	2.433186E-15	2.940883E-17
3.580000E+03	2.405338E-15	2.898174E-17
3.590000E+03	2.375114E-15	2.852805E-17
3.600000E+03	2.342930E-15	2.805299E-17
3.610000E+03	2.309408E-15	2.756422E-17
3.620000E+03	2.275175E-15	2.706939E-17
3.630000E+03	2.240869E-15	2.657613E-17
3.640000E+03	2.207169E-15	2.609249E-17
3.650000E+03	2.174777E-15	2.562670E-17
3.660000E+03	2.144338E-15	2.518617E-17
3.670000E+03	2.116546E-15	2.477884E-17
3.680000E+03	2.091981E-15	2.441115E-17
3.690000E+03	2.071260E-15	2.408994E-17
3.700000E+03	2.054946E-15	2.382129E-17
3.710000E+03	2.043589E-15	2.361104E-17
3.720000E+03	2.037665E-15	2.346413E-17
3.730000E+03	2.037656E-15	2.338546E-17
3.740000E+03	2.043992E-15	2.337926E-17
3.750000E+03	2.057089E-15	2.344955E-17
3.760000E+03	2.077304E-15	2.359959E-17
3.770000E+03	2.104970E-15	2.383234E-17
3.780000E+03	2.140349E-15	2.414988E-17
3.790000E+03	2.183635E-15	2.455351E-17
3.800000E+03	2.234999E-15	2.504420E-17
3.810000E+03	2.294397E-15	2.562053E-17
3.820000E+03	2.361736E-15	2.628054E-17
3.830000E+03	2.436762E-15	2.702047E-17
3.840000E+03	2.518958E-15	2.783369E-17
3.850000E+03	2.607630E-15	2.871176E-17
3.860000E+03	2.701873E-15	2.964397E-17
3.870000E+03	2.800499E-15	3.061668E-17
3.880000E+03	2.902067E-15	3.161368E-17
3.890000E+03	3.004868E-15	3.261609E-17
3.900000E+03	3.107039E-15	3.360361E-17
3.910000E+03	3.206549E-15	3.455444E-17
3.920000E+03	3.301305E-15	3.544641E-17
3.930000E+03	3.389234E-15	3.625792E-17
3.940000E+03	3.468388E-15	3.696901E-17
3.950000E+03	3.537082E-15	3.756285E-17
3.960000E+03	3.593910E-15	3.802578E-17
3.970000E+03	3.637814E-15	3.834806E-17
3.980000E+03	3.668274E-15	3.852576E-17
3.990000E+03	3.685125E-15	3.855873E-17
4.000000E+03	3.688719E-15	3.845227E-17
4.010000E+03	3.679814E-15	3.821581E-17
4.020000E+03	3.659492E-15	3.786201E-17
4.030000E+03	3.629192E-15	3.740706E-17
4.040000E+03	3.590430E-15	3.686770E-17
4.050000E+03	3.544869E-15	3.626195E-17
4.060000E+03	3.494149E-15	3.560732E-17
4.070000E+03	3.439852E-15	3.492048E-17
4.080000E+03	3.383447E-15	3.421669E-17
4.090000E+03	3.326272E-15	3.350970E-17
4.100000E+03	3.269425E-15	3.281063E-17
4.110000E+03	3.213843E-15	3.212879E-17
4.120000E+03	3.160323E-15	3.147199E-17
4.130000E+03	3.109370E-15	3.084500E-17
4.140000E+03	3.061402E-15	3.025165E-17
4.150000E+03	3.016659E-15	2.969398E-17
4.160000E+03	2.975254E-15	2.917272E-17
4.170000E+03	2.937196E-15	2.868757E-17
4.180000E+03	2.902416E-15	2.823749E-17
4.190000E+03	2.870794E-15	2.782095E-17
4.200000E+03	2.842182E-15	2.743617E-17
4.210000E+03	2.816423E-15	2.708129E-17
4.220000E+03	2.793380E-15	2.675469E-17
4.230000E+03	2.772915E-15	2.645474E-17
4.240000E+03	2.754960E-15	2.618054E-17
4.250000E+03	2.739520E-15	2.593184E-17
4.260000E+03	2.726617E-15	2.570859E-17
4.270000E+03	2.716270E-15	2.551068E-17
4.280000E+03	2.708593E-15	2.533892E-17
4.290000E+03	2.703688E-15	2.519397E-17
4.300000E+03	2.701648E-15	2.507640E-17
4.310000E+03	2.702530E-15	2.498645E-17
4.320000E+03	2.706312E-15	2.492360E-17
4.330000E+03	2.712952E-15	2.488718E-17
4.340000E+03	2.722200E-15	2.487462E-17
4.350000E+03	2.733787E-15	2.488322E-17
4.360000E+03	2.747291E-15	2.490890E-17
4.370000E+03	2.762248E-15	2.494730E-17
4.380000E+03	2.778203E-15	2.499421E-17
4.390000E+03	2.794936E-15	2.504756E-17
4.400000E+03	2.812755E-15	2.511003E-17
4.410000E+03	2.832552E-15	2.518948E-17
4.420000E+03	2.855336E-15	2.529467E-17
4.430000E+03	2.882070E-15	2.543380E-17
4.440000E+03	2.913590E-15	2.561387E-17
4.450000E+03	2.950421E-15	2.583902E-17
4.460000E+03	2.992797E-15	2.611080E-17
4.470000E+03	3.040637E-15	2.642799E-17
4.480000E+03	3.093429E-15	2.678568E-17
4.490000E+03	3.150395E-15	2.717671E-17
4.500000E+03	3.210399E-15	2.759098E-17
4.510000E+03	3.271969E-15	2.801564E-17
4.520000E+03	3.333403E-15	2.843611E-17
4.530000E+03	3.392804E-15	2.883632E-17
4.540000E+03	3.448157E-15	2.919949E-17
4.550000E+03	3.497432E-15	2.950890E-17
4.560000E+03	3.538652E-15	2.974858E-17
4.570000E+03	3.570050E-15	2.990451E-17
4.580000E+03	3.590280E-15	2.996639E-17
4.590000E+03	3.598281E-15	2.992644E-17
4.600000E+03	3.593537E-15	2.978149E-17
4.610000E+03	3.576155E-15	2.953357E-17
4.620000E+03	3.546756E-15	2.918890E-17
4.630000E+03	3.506352E-15	2.875678E-17
4.640000E+03	3.456593E-15	2.825164E-17
4.650000E+03	3.399176E-15	2.768805E-17
4.660000E+03	3.336134E-15	2.708311E-17
4.670000E+03	3.269394E-15	2.645282E-17
4.680000E+03	3.200740E-15	2.581184E-17
4.690000E+03	3.131695E-15	2.517249E-17
4.700000E+03	3.063418E-15	2.454403E-17
4.710000E+03	2.996692E-15	2.393260E-17
4.720000E+03	2.931717E-15	2.333963E-17
4.730000E+03	2.868214E-15	2.276268E-17
4.740000E+03	2.805446E-15	2.219578E-17
4.750000E+03	2.742185E-15	2.162911E-17
4.760000E+03	2.677097E-15	2.105210E-17
4.770000E+03	2.608707E-15	2.045325E-17
4.780000E+03	2.536135E-15	1.982582E-17
4.790000E+03	2.459635E-15	1.917197E-17
4.800000E+03	2.381116E-15	1.850672E-17
4.810000E+03	2.303127E-15	1.784987E-17
4.820000E+03	2.228072E-15	1.721986E-17
4.830000E+03	2.157837E-15	1.663096E-17
4.840000E+03	2.093834E-15	1.609363E-17
4.850000E+03	2.036925E-15	1.561400E-17
4.860000E+03	1.987497E-15	1.519453E-17
4.870000E+03	1.945594E-15	1.483504E-17
4.880000E+03	1.911003E-15	1.453340E-17
4.890000E+03	1.883274E-15	1.428573E-17
4.900000E+03	1.861874E-15	1.408756E-17
4.910000E+03	1.846139E-15	1.393346E-17
4.920000E+03	1.835438E-15	1.381837E-17
4.930000E+03	1.829143E-15	1.373725E-17
4.940000E+03	1.826666E-15	1.368544E-17
4.950000E+03	1.827519E-15	1.365907E-17
4.960000E+03	1.831258E-15	1.365464E-17
4.970000E+03	1.837562E-15	1.366961E-17
4.980000E+03	1.846150E-15	1.370175E-17
4.990000E+03	1.856840E-15	1.374959E-17
5.000000E+03	1.869494E-15	1.381200E-17
5.010000E+03	1.884085E-15	1.388869E-17
5.020000E+03	1.900533E-15	1.397897E-17
5.030000E+03	1.918820E-15	1.408261E-17
5.040000E+03	1.938943E-15	1.419952E-17
5.050000E+03	1.960850E-15	1.432922E-17
5.060000E+03	1.984494E-15	1.447131E-17
5.070000E+03	2.009813E-15	1.462524E-17
5.080000E+03	2.036741E-15	1.479048E-17
5.090000E+03	2.065202E-15	1.496640E-17
5.100000E+03	2.095140E-15	1.515254E-17
5.110000E+03	2.126503E-15	1.534848E-17
5.120000E+03	2.159165E-15	1.555323E-17
5.130000E+03	2.193060E-15	1.576630E-17
5.140000E+03	2.227989E-15	1.598621E-17
5.150000E+03	2.263841E-15	1.621213E-17
5.160000E+03	2.300411E-15	1.644257E-17
5.170000E+03	2.337494E-15	1.667604E-17
5.180000E+03	2.374858E-15	1.691090E-17
5.190000E+03	2.412219E-15	1.714512E-17
5.200000E+03	2.449267E-15	1.737652E-17
5.210000E+03	2.485623E-15	1.760243E-17
5.220000E+03	2.520937E-15	1.782043E-17
5.230000E+03	2.554687E-15	1.802687E-17
5.240000E+03	2.586420E-15	1.821865E-17
5.250000E+03	2.615648E-15	1.839240E-17
5.260000E+03	2.641892E-15	1.854488E-17
5.270000E+03	2.664655E-15	1.867272E-17
5.280000E+03	2.683573E-15	1.877351E-17
5.290000E+03	2.698309E-15	1.884503E-17
5.300000E+03	2.708638E-15	1.888587E-17
5.310000E+03	2.714400E-15	1.889507E-17
5.320000E+03	2.715574E-15	1.887264E-17
5.330000E+03	2.712144E-15	1.881864E-17
5.340000E+03	2.704228E-15	1.873402E-17
5.350000E+03	2.691998E-15	1.862012E-17
5.360000E+03	2.675762E-15	1.847922E-17
5.370000E+03	2.655804E-15	1.831338E-17
5.380000E+03	2.632589E-15	1.812593E-17
5.390000E+03	2.606598E-15	1.792027E-17
5.400000E+03	2.578365E-15	1.770012E-17
5.410000E+03	2.548383E-15	1.746894E-17
5.420000E+03	2.517199E-15	1.723052E-17
5.430000E+03	2.485327E-15	1.698837E-17
5.440000E+03	2.453111E-15	1.674489E-17
5.450000E+03	2.420911E-15	1.650250E-17
5.460000E+03	2.388898E-15	1.626237E-17
5.470000E+03	2.357179E-15	1.602521E-17
5.480000E+03	2.325880E-15	1.579184E-17
5.490000E+03	2.294885E-15	1.556146E-17
5.500000E+03	2.264158E-15	1.533378E-17
5.510000E+03	2.233805E-15	1.510950E-17
5.520000E+03	2.203950E-15	1.488940E-17
5.530000E+03	2.174493E-15	1.467280E-17
5.540000E+03	2.145359E-15	1.445914E-17
5.550000E+03	2.116431E-15	1.424762E-17
5.560000E+03	2.087730E-15	1.403835E-17
5.570000E+03	2.059304E-15	1.383163E-17
5.580000E+03	2.031355E-15	1.362880E-17
5.590000E+03	2.004162E-15	1.343169E-17
5.600000E+03	1.978135E-15	1.324301E-17
5.610000E+03	1.953686E-15	1.306549E-17
5.620000E+03	1.931291E-15	1.290225E-17
5.630000E+03	1.911440E-15	1.275652E-17
5.640000E+03	1.894585E-15	1.263123E-17
5.650000E+03	1.881159E-15	1.252921E-17
5.660000E+03	1.871503E-15	1.245265E-17
5.670000E+03	1.865931E-15	1.240355E-17
5.680000E+03	1.864683E-15	1.238343E-17
5.690000E+03	1.867893E-15	1.239309E-17
5.700000E+03	1.875607E-15	1.243274E-17
5.710000E+03	1.887779E-15	1.250201E-17
5.720000E+03	1.904310E-15	1.260016E-17
5.730000E+03	1.924922E-15	1.272527E-17
5.740000E+03	1.949317E-15	1.287532E-17
5.750000E+03	1.977060E-15	1.304737E-17
5.760000E+03	2.007604E-15	1.323777E-17
5.770000E+03	2.040372E-15	1.344268E-17
5.780000E+03	2.074764E-15	1.365812E-17
5.790000E+03	2.110089E-15	1.387953E-17
5.800000E+03	2.145629E-15	1.410220E-17
5.810000E+03	2.180688E-15	1.432156E-17
5.820000E+03	2.214467E-15	1.453239E-17
5.830000E+03	2.246246E-15	1.472999E-17
5.840000E+03	2.275326E-15	1.490984E-17
5.850000E+03	2.301070E-15	1.506781E-17
5.860000E+03	2.322939E-15	1.520044E-17
5.870000E+03	2.340410E-15	1.530437E-17
5.880000E+03	2.353167E-15	1.537761E-17
5.890000E+03	2.360928E-15	1.541839E-17
5.900000E+03	2.363553E-15	1.542586E-17
5.910000E+03	2.361009E-15	1.539988E-17
5.920000E+03	2.353373E-15	1.534103E-17
5.930000E+03	2.340855E-15	1.525073E-17
5.940000E+03	2.323670E-15	1.513045E-17
5.950000E+03	2.302151E-15	1.498240E-17
5.960000E+03	2.276728E-15	1.480942E-17
5.970000E+03	2.247851E-15	1.461449E-17
5.980000E+03	2.215944E-15	1.440037E-17
5.990000E+03	2.181574E-15	1.417078E-17
6.000000E+03	2.145193E-15	1.392868E-17
6.010000E+03	2.107417E-15	1.367806E-17
6.020000E+03	2.068727E-15	1.342205E-17
6.030000E+03	2.029681E-15	1.316426E-17
6.040000E+03	1.990853E-15	1.290842E-17
6.050000E+03	1.952778E-15	1.265797E-17
6.060000E+03	1.916000E-15	1.241642E-17
6.070000E+03	1.881002E-15	1.218691E-17
6.080000E+03	1.848342E-15	1.197300E-17
6.090000E+03	1.818440E-15	1.177742E-17
6.100000E+03	1.791803E-15	1.160342E-17
6.110000E+03	1.768837E-15	1.145362E-17
6.120000E+03	1.749896E-15	1.133030E-17
6.130000E+03	1.735285E-15	1.123543E-17
6.140000E+03	1.725230E-15	1.117047E-17
6.150000E+03	1.719783E-15	1.113576E-17
6.160000E+03	1.718836E-15	1.113062E-17
6.170000E+03	1.722108E-15	1.115324E-17
6.180000E+03	1.728965E-15	1.119955E-17
6.190000E+03	1.738546E-15	1.126398E-17
6.200000E+03	1.749656E-15	1.133882E-17
6.210000E+03	1.760800E-15	1.141438E-17
6.220000E+03	1.770182E-15	1.147901E-17
6.230000E+03	1.775914E-15	1.152047E-17
6.240000E+03	1.776378E-15	1.152822E-17
6.250000E+03	1.770999E-15	1.149847E-17
6.260000E+03	1.760704E-15	1.143718E-17
6.270000E+03	1.746910E-15	1.135351E-17
6.280000E+03	1.731145E-15	1.125733E-17
6.290000E+03	1.714764E-15	1.115742E-17
6.300000E+03	1.698881E-15	1.106102E-17
6.310000E+03	1.684328E-15	1.097351E-17
6.320000E+03	1.671614E-15	1.089824E-17
6.330000E+03	1.660935E-15	1.083648E-17
6.340000E+03	1.652332E-15	1.078851E-17
6.350000E+03	1.645694E-15	1.075364E-17
6.360000E+03	1.640767E-15	1.073022E-17
6.370000E+03	1.637321E-15	1.071676E-17
6.380000E+03	1.635078E-15	1.071146E-17
6.390000E+03	1.633783E-15	1.071266E-17
6.400000E+03	1.633219E-15	1.071892E-17
6.410000E+03	1.633269E-15	1.072949E-17
6.420000E+03	1.633793E-15	1.074343E-17
6.430000E+03	1.634765E-15	1.076057E-17
6.440000E+03	1.636145E-15	1.078065E-17
6.450000E+03	1.637912E-15	1.080350E-17
6.460000E+03	1.640060E-15	1.082910E-17
6.470000E+03	1.642540E-15	1.085710E-17
6.480000E+03	1.645291E-15	1.088711E-17
6.490000E+03	1.648126E-15	1.091786E-17
6.500000E+03	1.650897E-15	1.094837E-17
6.510000E+03	1.653345E-15	1.097692E-17
6.520000E+03	1.655138E-15	1.100126E-17
6.530000E+03	1.655999E-15	1.101952E-17
6.540000E+03	1.655854E-15	1.103118E-17
6.550000E+03	1.654926E-15	1.103770E-17
6.560000E+03	1.653478E-15	1.104080E-17
6.570000E+03	1.651751E-15	1.104206E-17
6.580000E+03	1.649872E-15	1.104232E-17
6.590000E+03	1.647929E-15	1.104214E-17
6.600000E+03	1.645970E-15	1.104184E-17
6.610000E+03	1.643948E-15	1.104110E-17
6.620000E+03	1.641737E-15	1.103905E-17
6.630000E+03	1.639218E-15	1.103487E-17
6.640000E+03	1.636183E-15	1.102715E-17
6.650000E+03	1.632494E-15	1.101494E-17
6.660000E+03	1.627897E-15	1.099649E-17
6.670000E+03	1.622209E-15	1.097053E-17
6.680000E+03	1.615305E-15	1.093619E-17
6.690000E+03	1.607072E-15	1.089268E-17
6.700000E+03	1.597424E-15	1.083935E-17
6.710000E+03	1.586362E-15	1.077619E-17
6.720000E+03	1.573976E-15	1.070378E-17
6.730000E+03	1.560351E-15	1.062264E-17
6.740000E+03	1.545682E-15	1.053408E-17
6.750000E+03	1.530120E-15	1.043911E-17
6.760000E+03	1.513939E-15	1.033957E-17
6.770000E+03	1.497326E-15	1.023673E-17
6.780000E+03	1.480572E-15	1.013258E-17
6.790000E+03	1.463847E-15	1.002826E-17
6.800000E+03	1.447389E-15	9.925416E-18
6.810000E+03	1.431384E-15	9.825324E-18
6.820000E+03	1.415964E-15	9.728915E-18
6.830000E+03	1.401295E-15	9.637325E-18
6.840000E+03	1.387453E-15	9.551106E-18
6.850000E+03	1.374542E-15	9.470984E-18
6.860000E+03	1.362557E-15	9.396952E-18
6.870000E+03	1.351571E-15	9.329528E-18
6.880000E+03	1.341563E-15	9.268586E-18
6.890000E+03	1.332533E-15	9.214148E-18
6.900000E+03	1.324439E-15	9.165947E-18
6.910000E+03	1.317311E-15	9.124202E-18
6.920000E+03	1.311049E-15	9.088239E-18
6.930000E+03	1.305688E-15	9.058314E-18
6.940000E+03	1.301121E-15	9.033713E-18
6.950000E+03	1.297270E-15	9.013900E-18
6.960000E+03	1.294067E-15	8.998417E-18
6.970000E+03	1.291377E-15	8.986338E-18
6.980000E+03	1.289084E-15	8.976861E-18
6.990000E+03	1.287066E-15	8.969152E-18
7.000000E+03	1.285204E-15	8.962380E-18
7.010000E+03	1.283389E-15	8.955796E-18
7.020000E+03	1.281493E-15	8.948499E-18
7.030000E+03	1.279464E-15	8.940141E-18
7.040000E+03	1.277134E-15	8.929538E-18
7.050000E+03	1.274495E-15	8.916637E-18
7.060000E+03	1.271400E-15	8.900412E-18
7.070000E+03	1.267853E-15	8.880891E-18
7.080000E+03	1.263804E-15	8.857715E-18
7.090000E+03	1.259241E-15	8.830802E-18
7.100000E+03	1.254195E-15	8.800373E-18
7.110000E+03	1.248637E-15	8.766221E-18
7.120000E+03	1.242622E-15	8.728732E-18
7.130000E+03	1.236167E-15	8.688027E-18
7.140000E+03	1.229344E-15	8.644616E-18
7.150000E+03	1.222204E-15	8.598859E-18
7.160000E+03	1.214774E-15	8.550946E-18
7.170000E+03	1.207128E-15	8.501406E-18
7.180000E+03	1.199259E-15	8.450198E-18
7.190000E+03	1.191260E-15	8.397979E-18
7.200000E+03	1.183140E-15	8.344815E-18
7.210000E+03	1.174902E-15	8.290734E-18
7.220000E+03	1.166594E-15	8.236088E-18
7.230000E+03	1.158243E-15	8.181064E-18
7.240000E+03	1.149859E-15	8.125752E-18
7.250000E+03	1.141501E-15	8.070572E-18
7.260000E+03	1.133238E-15	8.016014E-18
7.270000E+03	1.125131E-15	7.962522E-18
7.280000E+03	1.117239E-15	7.910522E-18
7.290000E+03	1.109560E-15	7.860014E-18
7.300000E+03	1.102172E-15	7.811554E-18
7.310000E+03	1.095075E-15	7.765158E-18
7.320000E+03	1.088258E-15	7.720755E-18
7.330000E+03	1.081743E-15	7.678516E-18
7.340000E+03	1.075482E-15	7.638111E-18
7.350000E+03	1.069465E-15	7.599469E-18
7.360000E+03	1.063666E-15	7.562431E-18
7.370000E+03	1.058037E-15	7.526656E-18
7.380000E+03	1.052564E-15	7.492053E-18
7.390000E+03	1.047140E-15	7.457872E-18
7.400000E+03	1.041771E-15	7.424167E-18
7.410000E+03	1.036381E-15	7.390405E-18
7.420000E+03	1.030978E-15	7.356643E-18
7.430000E+03	1.025554E-15	7.322832E-18
7.440000E+03	1.020141E-15	7.289219E-18
7.450000E+03	1.014809E-15	7.256301E-18
7.460000E+03	1.009596E-15	7.224358E-18
7.470000E+03	1.004629E-15	7.194317E-18
7.480000E+03	9.999244E-16	7.166303E-18
7.490000E+03	9.955775E-16	7.141008E-18
7.500000E+03	9.916068E-16	7.118579E-18
7.510000E+03	9.881020E-16	7.099667E-18
7.520000E+03	9.850495E-16	7.084187E-18
7.530000E+03	9.824366E-16	7.072057E-18
7.540000E+03	9.802498E-16	7.063191E-18
7.550000E+03	9.784300E-16	7.057174E-18
7.560000E+03	9.769327E-16	7.053697E-18
7.570000E+03	9.755946E-16	7.051589E-18
7.580000E+03	9.742837E-16	7.049903E-18
7.590000E+03	9.728337E-16	7.047437E-18
7.600000E+03	9.710055E-16	7.042459E-18
7.610000E+03	9.685979E-16	7.033499E-18
7.620000E+03	9.654336E-16	7.019258E-18
7.630000E+03	9.615970E-16	7.000329E-18
7.640000E+03	9.571734E-16	6.977319E-18
7.650000E+03	9.523423E-16	6.951522E-18
7.660000E+03	9.471836E-16	6.923511E-18
7.670000E+03	9.418477E-16	6.894375E-18
7.680000E+03	9.363814E-16	6.864455E-18
7.690000E+03	9.309051E-16	6.834629E-18
7.700000E+03	9.254689E-16	6.805266E-18
7.710000E+03	9.201349E-16	6.776823E-18
7.720000E+03	9.149560E-16	6.749696E-18
7.730000E+03	9.099780E-16	6.724226E-18
7.740000E+03	9.052348E-16	6.700675E-18
7.750000E+03	9.007240E-16	6.679033E-18
7.760000E+03	8.964896E-16	6.659636E-18
