#wls	flux	fluxerr
1.600000E+03	2.684609E-16	1.737711E-17
1.640000E+03	2.727380E-16	1.756372E-17
1.680000E+03	2.773822E-16	1.776883E-17
1.720000E+03	2.823945E-16	1.799197E-17
1.760000E+03	2.878000E-16	1.823420E-17
1.800000E+03	2.936467E-16	1.849795E-17
1.840000E+03	2.998816E-16	1.877923E-17
1.880000E+03	3.065738E-16	1.908172E-17
1.920000E+03	3.137177E-16	1.940433E-17
1.960000E+03	3.213076E-16	1.974594E-17
2.000000E+03	3.293156E-16	2.010410E-17
2.040000E+03	3.377388E-16	2.047783E-17
2.080000E+03	3.465312E-16	2.086359E-17
2.120000E+03	3.556079E-16	2.125554E-17
2.160000E+03	3.649555E-16	2.165223E-17
2.200000E+03	3.744804E-16	2.204745E-17
2.240000E+03	3.841183E-16	2.243690E-17
2.280000E+03	3.938536E-16	2.281920E-17
2.320000E+03	4.037150E-16	2.319552E-17
2.360000E+03	4.137927E-16	2.357048E-17
2.400000E+03	4.241952E-16	2.394955E-17
2.440000E+03	4.350299E-16	2.433789E-17
2.480000E+03	4.464597E-16	2.474349E-17
2.520000E+03	4.585895E-16	2.517078E-17
2.560000E+03	4.715621E-16	2.562600E-17
2.600000E+03	4.854671E-16	2.611216E-17
2.640000E+03	5.004158E-16	2.663315E-17
2.680000E+03	5.164885E-16	2.719094E-17
2.720000E+03	5.337703E-16	2.778750E-17
2.760000E+03	5.523508E-16	2.842475E-17
2.800000E+03	5.723043E-16	2.910355E-17
2.840000E+03	5.937042E-16	2.982445E-17
2.880000E+03	6.166496E-16	3.058901E-17
2.920000E+03	6.411891E-16	3.139601E-17
2.960000E+03	6.674217E-16	3.224644E-17
3.000000E+03	6.953454E-16	3.313614E-17
3.010000E+03	7.026068E-16	3.336498E-17
3.020000E+03	7.099598E-16	3.359529E-17
3.030000E+03	7.174008E-16	3.382682E-17
3.040000E+03	7.249575E-16	3.406083E-17
3.050000E+03	7.326087E-16	3.429625E-17
3.060000E+03	7.403487E-16	3.453275E-17
3.070000E+03	7.481872E-16	3.477073E-17
3.080000E+03	7.561009E-16	3.500904E-17
3.090000E+03	7.640817E-16	3.524726E-17
3.100000E+03	7.721524E-16	3.548639E-17
3.110000E+03	7.802709E-16	3.572444E-17
3.120000E+03	7.884422E-16	3.596160E-17
3.130000E+03	7.966377E-16	3.619655E-17
3.140000E+03	8.048915E-16	3.643078E-17
3.150000E+03	8.131408E-16	3.666143E-17
3.160000E+03	8.213850E-16	3.688846E-17
3.170000E+03	8.296219E-16	3.711176E-17
3.180000E+03	8.378315E-16	3.733045E-17
3.190000E+03	8.459609E-16	3.754216E-17
3.200000E+03	8.540340E-16	3.774799E-17
3.210000E+03	8.619942E-16	3.794546E-17
3.220000E+03	8.698301E-16	3.813414E-17
3.230000E+03	8.774970E-16	3.831211E-17
3.240000E+03	8.849793E-16	3.847880E-17
3.250000E+03	8.922441E-16	3.863286E-17
3.260000E+03	8.992560E-16	3.877288E-17
3.270000E+03	9.059626E-16	3.889674E-17
3.280000E+03	9.123406E-16	3.900360E-17
3.290000E+03	9.183504E-16	3.909196E-17
3.300000E+03	9.239330E-16	3.915951E-17
3.310000E+03	9.290612E-16	3.920534E-17
3.320000E+03	9.336757E-16	3.922720E-17
3.330000E+03	9.377484E-16	3.922420E-17
3.340000E+03	9.412172E-16	3.919406E-17
3.350000E+03	9.440405E-16	3.913539E-17
3.360000E+03	9.461748E-16	3.904676E-17
3.370000E+03	9.475783E-16	3.892684E-17
3.380000E+03	9.482137E-16	3.877453E-17
3.390000E+03	9.480329E-16	3.858831E-17
3.400000E+03	9.470190E-16	3.836795E-17
3.410000E+03	9.451220E-16	3.811193E-17
3.420000E+03	9.423510E-16	3.782112E-17
3.430000E+03	9.386701E-16	3.749461E-17
3.440000E+03	9.340794E-16	3.713291E-17
3.450000E+03	9.285887E-16	3.673697E-17
3.460000E+03	9.222063E-16	3.630763E-17
3.470000E+03	9.149696E-16	3.584690E-17
3.480000E+03	9.069077E-16	3.535640E-17
3.490000E+03	8.980576E-16	3.483809E-17
3.500000E+03	8.884796E-16	3.429475E-17
3.510000E+03	8.782347E-16	3.372918E-17
3.520000E+03	8.674205E-16	3.314551E-17
3.530000E+03	8.561009E-16	3.254653E-17
3.540000E+03	8.443982E-16	3.193717E-17
3.550000E+03	8.324263E-16	3.132196E-17
3.560000E+03	8.203169E-16	3.070602E-17
3.570000E+03	8.081939E-16	3.009405E-17
3.580000E+03	7.961986E-16	2.949133E-17
3.590000E+03	7.844861E-16	2.890352E-17
3.600000E+03	7.731721E-16	2.833469E-17
3.610000E+03	7.623978E-16	2.778979E-17
3.620000E+03	7.522738E-16	2.727251E-17
3.630000E+03	7.429039E-16	2.678623E-17
3.640000E+03	7.344005E-16	2.633455E-17
3.650000E+03	7.268745E-16	2.592091E-17
3.660000E+03	7.204208E-16	2.554812E-17
3.670000E+03	7.151597E-16	2.521980E-17
3.680000E+03	7.111711E-16	2.493803E-17
3.690000E+03	7.085599E-16	2.470573E-17
3.700000E+03	7.074241E-16	2.452550E-17
3.710000E+03	7.078550E-16	2.439959E-17
3.720000E+03	7.099292E-16	2.432972E-17
3.730000E+03	7.137375E-16	2.431799E-17
3.740000E+03	7.193473E-16	2.436567E-17
3.750000E+03	7.268288E-16	2.447404E-17
3.760000E+03	7.362361E-16	2.464379E-17
3.770000E+03	7.476057E-16	2.487501E-17
3.780000E+03	7.609510E-16	2.516696E-17
3.790000E+03	7.762653E-16	2.551825E-17
3.800000E+03	7.935219E-16	2.592682E-17
3.810000E+03	8.126253E-16	2.638842E-17
3.820000E+03	8.334768E-16	2.689877E-17
3.830000E+03	8.559252E-16	2.745199E-17
3.840000E+03	8.797482E-16	2.804004E-17
3.850000E+03	9.046912E-16	2.865405E-17
3.860000E+03	9.304504E-16	2.928380E-17
3.870000E+03	9.566631E-16	2.991748E-17
3.880000E+03	9.829233E-16	3.054224E-17
3.890000E+03	1.008785E-15	3.114429E-17
3.900000E+03	1.033796E-15	3.171004E-17
3.910000E+03	1.057486E-15	3.222572E-17
3.920000E+03	1.079410E-15	3.267864E-17
3.930000E+03	1.099142E-15	3.305710E-17
3.940000E+03	1.116300E-15	3.335105E-17
3.950000E+03	1.130593E-15	3.355341E-17
3.960000E+03	1.141792E-15	3.365917E-17
3.970000E+03	1.149734E-15	3.366546E-17
3.980000E+03	1.154393E-15	3.357351E-17
3.990000E+03	1.155799E-15	3.338615E-17
4.000000E+03	1.154081E-15	3.310908E-17
4.010000E+03	1.149441E-15	3.274987E-17
4.020000E+03	1.142128E-15	3.231738E-17
4.030000E+03	1.132470E-15	3.182239E-17
4.040000E+03	1.120785E-15	3.127520E-17
4.050000E+03	1.107431E-15	3.068696E-17
4.060000E+03	1.092756E-15	3.006817E-17
4.070000E+03	1.077084E-15	2.942853E-17
4.080000E+03	1.060721E-15	2.877692E-17
4.090000E+03	1.043960E-15	2.812162E-17
4.100000E+03	1.027030E-15	2.746901E-17
4.110000E+03	1.010137E-15	2.682466E-17
4.120000E+03	9.934755E-16	2.619367E-17
4.130000E+03	9.771592E-16	2.557891E-17
4.140000E+03	9.613008E-16	2.498310E-17
4.150000E+03	9.459791E-16	2.440802E-17
4.160000E+03	9.312448E-16	2.385467E-17
4.170000E+03	9.171264E-16	2.332346E-17
4.180000E+03	9.036440E-16	2.281454E-17
4.190000E+03	8.908082E-16	2.232784E-17
4.200000E+03	8.786242E-16	2.186313E-17
4.210000E+03	8.670962E-16	2.142018E-17
4.220000E+03	8.562362E-16	2.099892E-17
4.230000E+03	8.460513E-16	2.059919E-17
4.240000E+03	8.365615E-16	2.022110E-17
4.250000E+03	8.278088E-16	1.986532E-17
4.260000E+03	8.198347E-16	1.953247E-17
4.270000E+03	8.126711E-16	1.922290E-17
4.280000E+03	8.063805E-16	1.893770E-17
4.290000E+03	8.010245E-16	1.867788E-17
4.300000E+03	7.966681E-16	1.844450E-17
4.310000E+03	7.933799E-16	1.823868E-17
4.320000E+03	7.912268E-16	1.806147E-17
4.330000E+03	7.902934E-16	1.791428E-17
4.340000E+03	7.906177E-16	1.779744E-17
4.350000E+03	7.922692E-16	1.771198E-17
4.360000E+03	7.953028E-16	1.765856E-17
4.370000E+03	7.997497E-16	1.763731E-17
4.380000E+03	8.056450E-16	1.764844E-17
4.390000E+03	8.130429E-16	1.769256E-17
4.400000E+03	8.219691E-16	1.776968E-17
4.410000E+03	8.324844E-16	1.788058E-17
4.420000E+03	8.446360E-16	1.802573E-17
4.430000E+03	8.584066E-16	1.820423E-17
4.440000E+03	8.737641E-16	1.841493E-17
4.450000E+03	8.906201E-16	1.865553E-17
4.460000E+03	9.087936E-16	1.892189E-17
4.470000E+03	9.280385E-16	1.920864E-17
4.480000E+03	9.480136E-16	1.950861E-17
4.490000E+03	9.683092E-16	1.981340E-17
4.500000E+03	9.884194E-16	2.011286E-17
4.510000E+03	1.007766E-15	2.039562E-17
4.520000E+03	1.025758E-15	2.065031E-17
4.530000E+03	1.041760E-15	2.086487E-17
4.540000E+03	1.055129E-15	2.102737E-17
4.550000E+03	1.065327E-15	2.112813E-17
4.560000E+03	1.071846E-15	2.115822E-17
4.570000E+03	1.074262E-15	2.111052E-17
4.580000E+03	1.072415E-15	2.098303E-17
4.590000E+03	1.066221E-15	2.077534E-17
4.600000E+03	1.055751E-15	2.048983E-17
4.610000E+03	1.041367E-15	2.013446E-17
4.620000E+03	1.023537E-15	1.971903E-17
4.630000E+03	1.002775E-15	1.925394E-17
4.640000E+03	9.797967E-16	1.875328E-17
4.650000E+03	9.552657E-16	1.822990E-17
4.660000E+03	9.298662E-16	1.769683E-17
4.670000E+03	9.042226E-16	1.716578E-17
4.680000E+03	8.788932E-16	1.664708E-17
4.690000E+03	8.543313E-16	1.614896E-17
4.700000E+03	8.308512E-16	1.567699E-17
4.710000E+03	8.086972E-16	1.523536E-17
4.720000E+03	7.879806E-16	1.482579E-17
4.730000E+03	7.686393E-16	1.444676E-17
4.740000E+03	7.505613E-16	1.409584E-17
4.750000E+03	7.335602E-16	1.376923E-17
4.760000E+03	7.173434E-16	1.346116E-17
4.770000E+03	7.016235E-16	1.316592E-17
4.780000E+03	6.862606E-16	1.288059E-17
4.790000E+03	6.711432E-16	1.260282E-17
4.800000E+03	6.563461E-16	1.233373E-17
4.810000E+03	6.421092E-16	1.207758E-17
4.820000E+03	6.286290E-16	1.183786E-17
4.830000E+03	6.160796E-16	1.161767E-17
4.840000E+03	6.046455E-16	1.142032E-17
4.850000E+03	5.944401E-16	1.124788E-17
4.860000E+03	5.855336E-16	1.110161E-17
4.870000E+03	5.779704E-16	1.098233E-17
4.880000E+03	5.717526E-16	1.089010E-17
4.890000E+03	5.668418E-16	1.082425E-17
4.900000E+03	5.631977E-16	1.078407E-17
4.910000E+03	5.607582E-16	1.076848E-17
4.920000E+03	5.594687E-16	1.077654E-17
4.930000E+03	5.592620E-16	1.080707E-17
4.940000E+03	5.600674E-16	1.085885E-17
4.950000E+03	5.618222E-16	1.093079E-17
4.960000E+03	5.644603E-16	1.102174E-17
4.970000E+03	5.679591E-16	1.113143E-17
4.980000E+03	5.722951E-16	1.125953E-17
4.990000E+03	5.774523E-16	1.140589E-17
5.000000E+03	5.834174E-16	1.157042E-17
5.010000E+03	5.901963E-16	1.175341E-17
5.020000E+03	5.977676E-16	1.195463E-17
5.030000E+03	6.061179E-16	1.217398E-17
5.040000E+03	6.152355E-16	1.241144E-17
5.050000E+03	6.250927E-16	1.266664E-17
5.060000E+03	6.356653E-16	1.293928E-17
5.070000E+03	6.469260E-16	1.322900E-17
5.080000E+03	6.588446E-16	1.353538E-17
5.090000E+03	6.713817E-16	1.385778E-17
5.100000E+03	6.844999E-16	1.419562E-17
5.110000E+03	6.981631E-16	1.454831E-17
5.120000E+03	7.123098E-16	1.491473E-17
5.130000E+03	7.268957E-16	1.529409E-17
5.140000E+03	7.418268E-16	1.568454E-17
5.150000E+03	7.570368E-16	1.608478E-17
5.160000E+03	7.724189E-16	1.649260E-17
5.170000E+03	7.878530E-16	1.690549E-17
5.180000E+03	8.032038E-16	1.732052E-17
5.190000E+03	8.183043E-16	1.773405E-17
5.200000E+03	8.329787E-16	1.814216E-17
5.210000E+03	8.470454E-16	1.854072E-17
5.220000E+03	8.603366E-16	1.892582E-17
5.230000E+03	8.726360E-16	1.929241E-17
5.240000E+03	8.837908E-16	1.963675E-17
5.250000E+03	8.936473E-16	1.995499E-17
5.260000E+03	9.020671E-16	2.024358E-17
5.270000E+03	9.089442E-16	2.049962E-17
5.280000E+03	9.142274E-16	2.072141E-17
5.290000E+03	9.178738E-16	2.090739E-17
5.300000E+03	9.199051E-16	2.105748E-17
5.310000E+03	9.203604E-16	2.117202E-17
5.320000E+03	9.193146E-16	2.125215E-17
5.330000E+03	9.168447E-16	2.129914E-17
5.340000E+03	9.130592E-16	2.131501E-17
5.350000E+03	9.080624E-16	2.130171E-17
5.360000E+03	9.019841E-16	2.126189E-17
5.370000E+03	8.949235E-16	2.119748E-17
5.380000E+03	8.870209E-16	2.111148E-17
5.390000E+03	8.783962E-16	2.100644E-17
5.400000E+03	8.691684E-16	2.088496E-17
5.410000E+03	8.594344E-16	2.074916E-17
5.420000E+03	8.492967E-16	2.060132E-17
5.430000E+03	8.388456E-16	2.044351E-17
5.440000E+03	8.281262E-16	2.027670E-17
5.450000E+03	8.172055E-16	2.010245E-17
5.460000E+03	8.061185E-16	1.992154E-17
5.470000E+03	7.949102E-16	1.973502E-17
5.480000E+03	7.836603E-16	1.954485E-17
5.490000E+03	7.724320E-16	1.935257E-17
5.500000E+03	7.613395E-16	1.916106E-17
5.510000E+03	7.504840E-16	1.897291E-17
5.520000E+03	7.400073E-16	1.879177E-17
5.530000E+03	7.300200E-16	1.862060E-17
5.540000E+03	7.206325E-16	1.846236E-17
5.550000E+03	7.119323E-16	1.831952E-17
5.560000E+03	7.040204E-16	1.819488E-17
5.570000E+03	6.969448E-16	1.808998E-17
5.580000E+03	6.907611E-16	1.800651E-17
5.590000E+03	6.855131E-16	1.794593E-17
5.600000E+03	6.812434E-16	1.790965E-17
5.610000E+03	6.779687E-16	1.789844E-17
5.620000E+03	6.757156E-16	1.791331E-17
5.630000E+03	6.744972E-16	1.795496E-17
5.640000E+03	6.743116E-16	1.802365E-17
5.650000E+03	6.751559E-16	1.811965E-17
5.660000E+03	6.770040E-16	1.824256E-17
5.670000E+03	6.798304E-16	1.839203E-17
5.680000E+03	6.835996E-16	1.856738E-17
5.690000E+03	6.882646E-16	1.876762E-17
5.700000E+03	6.937637E-16	1.899134E-17
5.710000E+03	7.000222E-16	1.923674E-17
5.720000E+03	7.069812E-16	1.950241E-17
5.730000E+03	7.145387E-16	1.978573E-17
5.740000E+03	7.226110E-16	2.008456E-17
5.750000E+03	7.311049E-16	2.039642E-17
5.760000E+03	7.399100E-16	2.071834E-17
5.770000E+03	7.489178E-16	2.104735E-17
5.780000E+03	7.580176E-16	2.138037E-17
5.790000E+03	7.670723E-16	2.171353E-17
5.800000E+03	7.759393E-16	2.204273E-17
5.810000E+03	7.844858E-16	2.236413E-17
5.820000E+03	7.925384E-16	2.267264E-17
5.830000E+03	7.999474E-16	2.296381E-17
5.840000E+03	8.065609E-16	2.323305E-17
5.850000E+03	8.122343E-16	2.347593E-17
5.860000E+03	8.168448E-16	2.368861E-17
5.870000E+03	8.202685E-16	2.386717E-17
5.880000E+03	8.224374E-16	2.400926E-17
5.890000E+03	8.232774E-16	2.411235E-17
5.900000E+03	8.227520E-16	2.417499E-17
5.910000E+03	8.208473E-16	2.419638E-17
5.920000E+03	8.175692E-16	2.417631E-17
5.930000E+03	8.129539E-16	2.411548E-17
5.940000E+03	8.070286E-16	2.401434E-17
5.950000E+03	7.998561E-16	2.387440E-17
5.960000E+03	7.915254E-16	2.369800E-17
5.970000E+03	7.821318E-16	2.348771E-17
5.980000E+03	7.717688E-16	2.324608E-17
5.990000E+03	7.605857E-16	2.297737E-17
6.000000E+03	7.487000E-16	2.268494E-17
6.010000E+03	7.362959E-16	2.237423E-17
6.020000E+03	7.235221E-16	2.204966E-17
6.030000E+03	7.105604E-16	2.171672E-17
6.040000E+03	6.976017E-16	2.138123E-17
6.050000E+03	6.848222E-16	2.104863E-17
6.060000E+03	6.723998E-16	2.072448E-17
6.070000E+03	6.604840E-16	2.041352E-17
6.080000E+03	6.492445E-16	2.012115E-17
6.090000E+03	6.387949E-16	1.985111E-17
6.100000E+03	6.292667E-16	1.960771E-17
6.110000E+03	6.207447E-16	1.939385E-17
6.120000E+03	6.132910E-16	1.921175E-17
6.130000E+03	6.069492E-16	1.906306E-17
6.140000E+03	6.017351E-16	1.894856E-17
6.150000E+03	5.976229E-16	1.886773E-17
6.160000E+03	5.945597E-16	1.881918E-17
6.170000E+03	5.924536E-16	1.880025E-17
6.180000E+03	5.911516E-16	1.880633E-17
6.190000E+03	5.904919E-16	1.883245E-17
6.200000E+03	5.902579E-16	1.887183E-17
6.210000E+03	5.902233E-16	1.891734E-17
6.220000E+03	5.901540E-16	1.896150E-17
6.230000E+03	5.898231E-16	1.899698E-17
6.240000E+03	5.890767E-16	1.901877E-17
6.250000E+03	5.878366E-16	1.902424E-17
6.260000E+03	5.861054E-16	1.901334E-17
6.270000E+03	5.839566E-16	1.898838E-17
6.280000E+03	5.815245E-16	1.895363E-17
6.290000E+03	5.789351E-16	1.891314E-17
6.300000E+03	5.763173E-16	1.887111E-17
6.310000E+03	5.738009E-16	1.883179E-17
6.320000E+03	5.714839E-16	1.879844E-17
6.330000E+03	5.694284E-16	1.877315E-17
6.340000E+03	5.676939E-16	1.875795E-17
6.350000E+03	5.663158E-16	1.875408E-17
6.360000E+03	5.652981E-16	1.876176E-17
6.370000E+03	5.646596E-16	1.878170E-17
6.380000E+03	5.643934E-16	1.881374E-17
6.390000E+03	5.644878E-16	1.885759E-17
6.400000E+03	5.649267E-16	1.891276E-17
6.410000E+03	5.657018E-16	1.897904E-17
6.420000E+03	5.667760E-16	1.905526E-17
6.430000E+03	5.681316E-16	1.914088E-17
6.440000E+03	5.697224E-16	1.923439E-17
6.450000E+03	5.714948E-16	1.933401E-17
6.460000E+03	5.733965E-16	1.943802E-17
6.470000E+03	5.753542E-16	1.954392E-17
6.480000E+03	5.772970E-16	1.964933E-17
6.490000E+03	5.791239E-16	1.975078E-17
6.500000E+03	5.807650E-16	1.984585E-17
6.510000E+03	5.821385E-16	1.993170E-17
6.520000E+03	5.831668E-16	2.000560E-17
6.530000E+03	5.838086E-16	2.006607E-17
6.540000E+03	5.840405E-16	2.011221E-17
6.550000E+03	5.838671E-16	2.014410E-17
6.560000E+03	5.833149E-16	2.016258E-17
6.570000E+03	5.824372E-16	2.016941E-17
6.580000E+03	5.812755E-16	2.016597E-17
6.590000E+03	5.798740E-16	2.015374E-17
6.600000E+03	5.782821E-16	2.013439E-17
6.610000E+03	5.765306E-16	2.010897E-17
6.620000E+03	5.746219E-16	2.007752E-17
6.630000E+03	5.725679E-16	2.004044E-17
6.640000E+03	5.703541E-16	1.999719E-17
6.650000E+03	5.679809E-16	1.994776E-17
6.660000E+03	5.654082E-16	1.989070E-17
6.670000E+03	5.626175E-16	1.982535E-17
6.680000E+03	5.596004E-16	1.975136E-17
6.690000E+03	5.563464E-16	1.966833E-17
6.700000E+03	5.528457E-16	1.957587E-17
6.710000E+03	5.491039E-16	1.947415E-17
6.720000E+03	5.451465E-16	1.936403E-17
6.730000E+03	5.409884E-16	1.924602E-17
6.740000E+03	5.366668E-16	1.912142E-17
6.750000E+03	5.321958E-16	1.899070E-17
6.760000E+03	5.276330E-16	1.885592E-17
6.770000E+03	5.229962E-16	1.871769E-17
6.780000E+03	5.183430E-16	1.857809E-17
6.790000E+03	5.136919E-16	1.843778E-17
6.800000E+03	5.090821E-16	1.829818E-17
6.810000E+03	5.045399E-16	1.816025E-17
6.820000E+03	5.000788E-16	1.802449E-17
6.830000E+03	4.957233E-16	1.789181E-17
6.840000E+03	4.914754E-16	1.776231E-17
6.850000E+03	4.873520E-16	1.763662E-17
6.860000E+03	4.833366E-16	1.751417E-17
6.870000E+03	4.794466E-16	1.739561E-17
6.880000E+03	4.756723E-16	1.728062E-17
6.890000E+03	4.720108E-16	1.716912E-17
6.900000E+03	4.684507E-16	1.706071E-17
6.910000E+03	4.650076E-16	1.695598E-17
6.920000E+03	4.616483E-16	1.685375E-17
6.930000E+03	4.583929E-16	1.675476E-17
6.940000E+03	4.552174E-16	1.665817E-17
6.950000E+03	4.521140E-16	1.656370E-17
6.960000E+03	4.490842E-16	1.647142E-17
6.970000E+03	4.461137E-16	1.638083E-17
6.980000E+03	4.431970E-16	1.629174E-17
6.990000E+03	4.403306E-16	1.620403E-17
7.000000E+03	4.375120E-16	1.611762E-17
7.010000E+03	4.347356E-16	1.603232E-17
7.020000E+03	4.319885E-16	1.594767E-17
7.030000E+03	4.292848E-16	1.586420E-17
7.040000E+03	4.265949E-16	1.578082E-17
7.050000E+03	4.239418E-16	1.569840E-17
7.060000E+03	4.212983E-16	1.561594E-17
7.070000E+03	4.186766E-16	1.553389E-17
7.080000E+03	4.160649E-16	1.545184E-17
7.090000E+03	4.134607E-16	1.536969E-17
7.100000E+03	4.108684E-16	1.528762E-17
7.110000E+03	4.082695E-16	1.520494E-17
7.120000E+03	4.056718E-16	1.512197E-17
7.130000E+03	4.030665E-16	1.503836E-17
7.140000E+03	4.004620E-16	1.495445E-17
7.150000E+03	3.978600E-16	1.487030E-17
7.160000E+03	3.952511E-16	1.478558E-17
7.170000E+03	3.926430E-16	1.470057E-17
7.180000E+03	3.900188E-16	1.461465E-17
7.190000E+03	3.873910E-16	1.452830E-17
7.200000E+03	3.847496E-16	1.444114E-17
7.210000E+03	3.820871E-16	1.435291E-17
7.220000E+03	3.794113E-16	1.426390E-17
7.230000E+03	3.767266E-16	1.417427E-17
7.240000E+03	3.740347E-16	1.408411E-17
7.250000E+03	3.713454E-16	1.399379E-17
7.260000E+03	3.686735E-16	1.390386E-17
7.270000E+03	3.660359E-16	1.381499E-17
7.280000E+03	3.634474E-16	1.372774E-17
7.290000E+03	3.609081E-16	1.364213E-17
7.300000E+03	3.584487E-16	1.355932E-17
7.310000E+03	3.560715E-16	1.347941E-17
7.320000E+03	3.537780E-16	1.340249E-17
7.330000E+03	3.515840E-16	1.332916E-17
7.340000E+03	3.494783E-16	1.325900E-17
7.350000E+03	3.474633E-16	1.319214E-17
7.360000E+03	3.455411E-16	1.312865E-17
7.370000E+03	3.437030E-16	1.306822E-17
7.380000E+03	3.419547E-16	1.301109E-17
7.390000E+03	3.402737E-16	1.295641E-17
7.400000E+03	3.386717E-16	1.290464E-17
7.410000E+03	3.371339E-16	1.285522E-17
7.420000E+03	3.356693E-16	1.280851E-17
7.430000E+03	3.342725E-16	1.276431E-17
7.440000E+03	3.329482E-16	1.272283E-17
7.450000E+03	3.317099E-16	1.268458E-17
7.460000E+03	3.305556E-16	1.264951E-17
7.470000E+03	3.295119E-16	1.261863E-17
7.480000E+03	3.285693E-16	1.259161E-17
7.490000E+03	3.277419E-16	1.256901E-17
7.500000E+03	3.270205E-16	1.255047E-17
7.510000E+03	3.264208E-16	1.253662E-17
7.520000E+03	3.259226E-16	1.252669E-17
7.530000E+03	3.255086E-16	1.252003E-17
7.540000E+03	3.251643E-16	1.251609E-17
7.550000E+03	3.248604E-16	1.251376E-17
7.560000E+03	3.245780E-16	1.251231E-17
7.570000E+03	3.242669E-16	1.250981E-17
7.580000E+03	3.238937E-16	1.250498E-17
7.590000E+03	3.234271E-16	1.249660E-17
7.600000E+03	3.228257E-16	1.248307E-17
7.610000E+03	3.220683E-16	1.246355E-17
7.620000E+03	3.211317E-16	1.243715E-17
7.630000E+03	3.200267E-16	1.240426E-17
7.640000E+03	3.187449E-16	1.236455E-17
7.650000E+03	3.173175E-16	1.231921E-17
7.660000E+03	3.157533E-16	1.226858E-17
7.670000E+03	3.140894E-16	1.221409E-17
7.680000E+03	3.123351E-16	1.215609E-17
7.690000E+03	3.105273E-16	1.209602E-17
7.700000E+03	3.086756E-16	1.203425E-17
7.710000E+03	3.067944E-16	1.197133E-17
7.720000E+03	3.048947E-16	1.190769E-17
7.730000E+03	3.029809E-16	1.184352E-17
7.740000E+03	3.010543E-16	1.177885E-17
7.750000E+03	2.991062E-16	1.171336E-17
7.760000E+03	2.971457E-16	1.164739E-17
