#wls	flux	fluxerr
1.600000E+03	5.442598E-16	1.739191E-17
1.640000E+03	5.583251E-16	1.773047E-17
1.680000E+03	5.734535E-16	1.809446E-17
1.720000E+03	5.896791E-16	1.848406E-17
1.760000E+03	6.070881E-16	1.890103E-17
1.800000E+03	6.258181E-16	1.934857E-17
1.840000E+03	6.457960E-16	1.982329E-17
1.880000E+03	6.672109E-16	2.032979E-17
1.920000E+03	6.900949E-16	2.086774E-17
1.960000E+03	7.144818E-16	2.143674E-17
2.000000E+03	7.403569E-16	2.203490E-17
2.040000E+03	7.677603E-16	2.266190E-17
2.080000E+03	7.966356E-16	2.331450E-17
2.120000E+03	8.268336E-16	2.398680E-17
2.160000E+03	8.583649E-16	2.467757E-17
2.200000E+03	8.910509E-16	2.538016E-17
2.240000E+03	9.247759E-16	2.608982E-17
2.280000E+03	9.595368E-16	2.680504E-17
2.320000E+03	9.954420E-16	2.752738E-17
2.360000E+03	1.032760E-15	2.826260E-17
2.400000E+03	1.071822E-15	2.901782E-17
2.440000E+03	1.112977E-15	2.980019E-17
2.480000E+03	1.156743E-15	3.062081E-17
2.520000E+03	1.203516E-15	3.148701E-17
2.560000E+03	1.253831E-15	3.240896E-17
2.600000E+03	1.308117E-15	3.339350E-17
2.640000E+03	1.366913E-15	3.444946E-17
2.680000E+03	1.430726E-15	3.558413E-17
2.720000E+03	1.500150E-15	3.680605E-17
2.760000E+03	1.575876E-15	3.812518E-17
2.800000E+03	1.658670E-15	3.955215E-17
2.840000E+03	1.749439E-15	4.109964E-17
2.880000E+03	1.849363E-15	4.278517E-17
2.920000E+03	1.959734E-15	4.462684E-17
2.960000E+03	2.082333E-15	4.665166E-17
3.000000E+03	2.219093E-15	4.888697E-17
3.010000E+03	2.255831E-15	4.948398E-17
3.020000E+03	2.293609E-15	5.009609E-17
3.030000E+03	2.332467E-15	5.072383E-17
3.040000E+03	2.372546E-15	5.136994E-17
3.050000E+03	2.413836E-15	5.203381E-17
3.060000E+03	2.456380E-15	5.271598E-17
3.070000E+03	2.500273E-15	5.341810E-17
3.080000E+03	2.545508E-15	5.413959E-17
3.090000E+03	2.592132E-15	5.488101E-17
3.100000E+03	2.640301E-15	5.564525E-17
3.110000E+03	2.689958E-15	5.643061E-17
3.120000E+03	2.741207E-15	5.723878E-17
3.130000E+03	2.794044E-15	5.806919E-17
3.140000E+03	2.848690E-15	5.892592E-17
3.150000E+03	2.905034E-15	5.980607E-17
3.160000E+03	2.963181E-15	6.071132E-17
3.170000E+03	3.023246E-15	6.164340E-17
3.180000E+03	3.085282E-15	6.260279E-17
3.190000E+03	3.149226E-15	6.358758E-17
3.200000E+03	3.215302E-15	6.460168E-17
3.210000E+03	3.283444E-15	6.564310E-17
3.220000E+03	3.353754E-15	6.671318E-17
3.230000E+03	3.426212E-15	6.781086E-17
3.240000E+03	3.500912E-15	6.893731E-17
3.250000E+03	3.577882E-15	7.009233E-17
3.260000E+03	3.657137E-15	7.127549E-17
3.270000E+03	3.738619E-15	7.248497E-17
3.280000E+03	3.822382E-15	7.372105E-17
3.290000E+03	3.908400E-15	7.498251E-17
3.300000E+03	3.996561E-15	7.626650E-17
3.310000E+03	4.086860E-15	7.757219E-17
3.320000E+03	4.179130E-15	7.889578E-17
3.330000E+03	4.273307E-15	8.023541E-17
3.340000E+03	4.369157E-15	8.158607E-17
3.350000E+03	4.466462E-15	8.294318E-17
3.360000E+03	4.564960E-15	8.430141E-17
3.370000E+03	4.664332E-15	8.565450E-17
3.380000E+03	4.764191E-15	8.699509E-17
3.390000E+03	4.864014E-15	8.831349E-17
3.400000E+03	4.963336E-15	8.960132E-17
3.410000E+03	5.061399E-15	9.084508E-17
3.420000E+03	5.157644E-15	9.203520E-17
3.430000E+03	5.251147E-15	9.315582E-17
3.440000E+03	5.341044E-15	9.419256E-17
3.450000E+03	5.426409E-15	9.513031E-17
3.460000E+03	5.506183E-15	9.595206E-17
3.470000E+03	5.579418E-15	9.664311E-17
3.480000E+03	5.644997E-15	9.718634E-17
3.490000E+03	5.701811E-15	9.756517E-17
3.500000E+03	5.748851E-15	9.776526E-17
3.510000E+03	5.785090E-15	9.777235E-17
3.520000E+03	5.809729E-15	9.757646E-17
3.530000E+03	5.821782E-15	9.716484E-17
3.540000E+03	5.820678E-15	9.653207E-17
3.550000E+03	5.805855E-15	9.567308E-17
3.560000E+03	5.776993E-15	9.458702E-17
3.570000E+03	5.733837E-15	9.327428E-17
3.580000E+03	5.676451E-15	9.174045E-17
3.590000E+03	5.605345E-15	8.999830E-17
3.600000E+03	5.521258E-15	8.806404E-17
3.610000E+03	5.426019E-15	8.597081E-17
3.620000E+03	5.321841E-15	8.375705E-17
3.630000E+03	5.211061E-15	8.146216E-17
3.640000E+03	5.096145E-15	7.912654E-17
3.650000E+03	4.979622E-15	7.679054E-17
3.660000E+03	4.863864E-15	7.449099E-17
3.670000E+03	4.751336E-15	7.226517E-17
3.680000E+03	4.644200E-15	7.014472E-17
3.690000E+03	4.544659E-15	6.816097E-17
3.700000E+03	4.454728E-15	6.634154E-17
3.710000E+03	4.376323E-15	6.471173E-17
3.720000E+03	4.311118E-15	6.329250E-17
3.730000E+03	4.260740E-15	6.210337E-17
3.740000E+03	4.226640E-15	6.116067E-17
3.750000E+03	4.210194E-15	6.047905E-17
3.760000E+03	4.212625E-15	6.007039E-17
3.770000E+03	4.235082E-15	5.994501E-17
3.780000E+03	4.278576E-15	6.011084E-17
3.790000E+03	4.344009E-15	6.057387E-17
3.800000E+03	4.432269E-15	6.133954E-17
3.810000E+03	4.543844E-15	6.240742E-17
3.820000E+03	4.679144E-15	6.377585E-17
3.830000E+03	4.838230E-15	6.543831E-17
3.840000E+03	5.020577E-15	6.738041E-17
3.850000E+03	5.225177E-15	6.958155E-17
3.860000E+03	5.450360E-15	7.201288E-17
3.870000E+03	5.693588E-15	7.463486E-17
3.880000E+03	5.951391E-15	7.739696E-17
3.890000E+03	6.219260E-15	8.023667E-17
3.900000E+03	6.491803E-15	8.308211E-17
3.910000E+03	6.762719E-15	8.585210E-17
3.920000E+03	7.025145E-15	8.846101E-17
3.930000E+03	7.271846E-15	9.082137E-17
3.940000E+03	7.495652E-15	9.284952E-17
3.950000E+03	7.690282E-15	9.447561E-17
3.960000E+03	7.850303E-15	9.564268E-17
3.970000E+03	7.971486E-15	9.631046E-17
3.980000E+03	8.051704E-15	9.646555E-17
3.990000E+03	8.090312E-15	9.611293E-17
4.000000E+03	8.088440E-15	9.527866E-17
4.010000E+03	8.048894E-15	9.400788E-17
4.020000E+03	7.975693E-15	9.235851E-17
4.030000E+03	7.873990E-15	9.039985E-17
4.040000E+03	7.749400E-15	8.820433E-17
4.050000E+03	7.607902E-15	8.584617E-17
4.060000E+03	7.455279E-15	8.339501E-17
4.070000E+03	7.296969E-15	8.091435E-17
4.080000E+03	7.137820E-15	7.845908E-17
4.090000E+03	6.982017E-15	7.607494E-17
4.100000E+03	6.832830E-15	7.379618E-17
4.110000E+03	6.692798E-15	7.164800E-17
4.120000E+03	6.563809E-15	6.964774E-17
4.130000E+03	6.446802E-15	6.780206E-17
4.140000E+03	6.342255E-15	6.611254E-17
4.150000E+03	6.250044E-15	6.457435E-17
4.160000E+03	6.169559E-15	6.317782E-17
4.170000E+03	6.099799E-15	6.190956E-17
4.180000E+03	6.039480E-15	6.075375E-17
4.190000E+03	5.987194E-15	5.969385E-17
4.200000E+03	5.941399E-15	5.871250E-17
4.210000E+03	5.900542E-15	5.779285E-17
4.220000E+03	5.863266E-15	5.692052E-17
4.230000E+03	5.828277E-15	5.608219E-17
4.240000E+03	5.794461E-15	5.526674E-17
4.250000E+03	5.761017E-15	5.446641E-17
4.260000E+03	5.727289E-15	5.367503E-17
4.270000E+03	5.692735E-15	5.288773E-17
4.280000E+03	5.657256E-15	5.210387E-17
4.290000E+03	5.620905E-15	5.132424E-17
4.300000E+03	5.583904E-15	5.055112E-17
4.310000E+03	5.546638E-15	4.978818E-17
4.320000E+03	5.509501E-15	4.903904E-17
4.330000E+03	5.472924E-15	4.830753E-17
4.340000E+03	5.436857E-15	4.759305E-17
4.350000E+03	5.401186E-15	4.689431E-17
4.360000E+03	5.365307E-15	4.620581E-17
4.370000E+03	5.328035E-15	4.551727E-17
4.380000E+03	5.288187E-15	4.481872E-17
4.390000E+03	5.245425E-15	4.410764E-17
4.400000E+03	5.201783E-15	4.340133E-17
4.410000E+03	5.162044E-15	4.273934E-17
4.420000E+03	5.131285E-15	4.216242E-17
4.430000E+03	5.113627E-15	4.170232E-17
4.440000E+03	5.112471E-15	4.138400E-17
4.450000E+03	5.130237E-15	4.122385E-17
4.460000E+03	5.168100E-15	4.122788E-17
4.470000E+03	5.226336E-15	4.139485E-17
4.480000E+03	5.304251E-15	4.171594E-17
4.490000E+03	5.400314E-15	4.217610E-17
4.500000E+03	5.512118E-15	4.275397E-17
4.510000E+03	5.636487E-15	4.342284E-17
4.520000E+03	5.769566E-15	4.415158E-17
4.530000E+03	5.906938E-15	4.490566E-17
4.540000E+03	6.043785E-15	4.564842E-17
4.550000E+03	6.175028E-15	4.634219E-17
4.560000E+03	6.295489E-15	4.694955E-17
4.570000E+03	6.400122E-15	4.743494E-17
4.580000E+03	6.484313E-15	4.776683E-17
4.590000E+03	6.543758E-15	4.791669E-17
4.600000E+03	6.575040E-15	4.786305E-17
4.610000E+03	6.575863E-15	4.759296E-17
4.620000E+03	6.544986E-15	4.710132E-17
4.630000E+03	6.482241E-15	4.639067E-17
4.640000E+03	6.389185E-15	4.547571E-17
4.650000E+03	6.268120E-15	4.437595E-17
4.660000E+03	6.122784E-15	4.312054E-17
4.670000E+03	5.957748E-15	4.174372E-17
4.680000E+03	5.778127E-15	4.028279E-17
4.690000E+03	5.589201E-15	3.877535E-17
4.700000E+03	5.396167E-15	3.725765E-17
4.710000E+03	5.203822E-15	3.576251E-17
4.720000E+03	5.015860E-15	3.431444E-17
4.730000E+03	4.834782E-15	3.292929E-17
4.740000E+03	4.661955E-15	3.161494E-17
4.750000E+03	4.497035E-15	3.036767E-17
4.760000E+03	4.337781E-15	2.917109E-17
4.770000E+03	4.181145E-15	2.800375E-17
4.780000E+03	4.024875E-15	2.684986E-17
4.790000E+03	3.869168E-15	2.571022E-17
4.800000E+03	3.718907E-15	2.461665E-17
4.810000E+03	3.580164E-15	2.360834E-17
4.820000E+03	3.457413E-15	2.271347E-17
4.830000E+03	3.353437E-15	2.194874E-17
4.840000E+03	3.269642E-15	2.132169E-17
4.850000E+03	3.205755E-15	2.082886E-17
4.860000E+03	3.160506E-15	2.046042E-17
4.870000E+03	3.132144E-15	2.020358E-17
4.880000E+03	3.118517E-15	2.004320E-17
4.890000E+03	3.117221E-15	1.996271E-17
4.900000E+03	3.125812E-15	1.994555E-17
4.910000E+03	3.141584E-15	1.997372E-17
4.920000E+03	3.162006E-15	2.003057E-17
4.930000E+03	3.184810E-15	2.010137E-17
4.940000E+03	3.208154E-15	2.017427E-17
4.950000E+03	3.230728E-15	2.024093E-17
4.960000E+03	3.251675E-15	2.029596E-17
4.970000E+03	3.270807E-15	2.033822E-17
4.980000E+03	3.288331E-15	2.036904E-17
4.990000E+03	3.304832E-15	2.039208E-17
5.000000E+03	3.321173E-15	2.041263E-17
5.010000E+03	3.338448E-15	2.043736E-17
5.020000E+03	3.357601E-15	2.047189E-17
5.030000E+03	3.379530E-15	2.052149E-17
5.040000E+03	3.405009E-15	2.059059E-17
5.050000E+03	3.434530E-15	2.068184E-17
5.060000E+03	3.468368E-15	2.079656E-17
5.070000E+03	3.506591E-15	2.093477E-17
5.080000E+03	3.549078E-15	2.109540E-17
5.090000E+03	3.595475E-15	2.127600E-17
5.100000E+03	3.645355E-15	2.147372E-17
5.110000E+03	3.698297E-15	2.168582E-17
5.120000E+03	3.753791E-15	2.190906E-17
5.130000E+03	3.811512E-15	2.214137E-17
5.140000E+03	3.871031E-15	2.238011E-17
5.150000E+03	3.932285E-15	2.262480E-17
5.160000E+03	3.995194E-15	2.287489E-17
5.170000E+03	4.059771E-15	2.313037E-17
5.180000E+03	4.126076E-15	2.339152E-17
5.190000E+03	4.194133E-15	2.365844E-17
5.200000E+03	4.263901E-15	2.393086E-17
5.210000E+03	4.335042E-15	2.420686E-17
5.220000E+03	4.407186E-15	2.448445E-17
5.230000E+03	4.479532E-15	2.475926E-17
5.240000E+03	4.551031E-15	2.502573E-17
5.250000E+03	4.620410E-15	2.527717E-17
5.260000E+03	4.686328E-15	2.550670E-17
5.270000E+03	4.747235E-15	2.570649E-17
5.280000E+03	4.801797E-15	2.587004E-17
5.290000E+03	4.848741E-15	2.599136E-17
5.300000E+03	4.886955E-15	2.606543E-17
5.310000E+03	4.915535E-15	2.608848E-17
5.320000E+03	4.933936E-15	2.605873E-17
5.330000E+03	4.941587E-15	2.597426E-17
5.340000E+03	4.938274E-15	2.583510E-17
5.350000E+03	4.923995E-15	2.564235E-17
5.360000E+03	4.898965E-15	2.539819E-17
5.370000E+03	4.863448E-15	2.510499E-17
5.380000E+03	4.818182E-15	2.476748E-17
5.390000E+03	4.763980E-15	2.439065E-17
5.400000E+03	4.701929E-15	2.398074E-17
5.410000E+03	4.633280E-15	2.354471E-17
5.420000E+03	4.559549E-15	2.309066E-17
5.430000E+03	4.482523E-15	2.262794E-17
5.440000E+03	4.404126E-15	2.216638E-17
5.450000E+03	4.326693E-15	2.171774E-17
5.460000E+03	4.252741E-15	2.129454E-17
5.470000E+03	4.185421E-15	2.091229E-17
5.480000E+03	4.128709E-15	2.059021E-17
5.490000E+03	4.085814E-15	2.034344E-17
5.500000E+03	4.057211E-15	2.017352E-17
5.510000E+03	4.038789E-15	2.005933E-17
5.520000E+03	4.024848E-15	1.997203E-17
5.530000E+03	4.009708E-15	1.988303E-17
5.540000E+03	3.989385E-15	1.977223E-17
5.550000E+03	3.960943E-15	1.962475E-17
5.560000E+03	3.922588E-15	1.943135E-17
5.570000E+03	3.873830E-15	1.918926E-17
5.580000E+03	3.815217E-15	1.890076E-17
5.590000E+03	3.747942E-15	1.857137E-17
5.600000E+03	3.673947E-15	1.821028E-17
5.610000E+03	3.595497E-15	1.782834E-17
5.620000E+03	3.515159E-15	1.743791E-17
5.630000E+03	3.435567E-15	1.705170E-17
5.640000E+03	3.359312E-15	1.668231E-17
5.650000E+03	3.288866E-15	1.634179E-17
5.660000E+03	3.226291E-15	1.604020E-17
5.670000E+03	3.173462E-15	1.578673E-17
5.680000E+03	3.131947E-15	1.558910E-17
5.690000E+03	3.102808E-15	1.545250E-17
5.700000E+03	3.086806E-15	1.538070E-17
5.710000E+03	3.084414E-15	1.537598E-17
5.720000E+03	3.095689E-15	1.543860E-17
5.730000E+03	3.120274E-15	1.556670E-17
5.740000E+03	3.157675E-15	1.575773E-17
5.750000E+03	3.206874E-15	1.600651E-17
5.760000E+03	3.266519E-15	1.630614E-17
5.770000E+03	3.335072E-15	1.664879E-17
5.780000E+03	3.410657E-15	1.702489E-17
5.790000E+03	3.491069E-15	1.742324E-17
5.800000E+03	3.573933E-15	1.783176E-17
5.810000E+03	3.656784E-15	1.823794E-17
5.820000E+03	3.736921E-15	1.862812E-17
5.830000E+03	3.811806E-15	1.898948E-17
5.840000E+03	3.879097E-15	1.931025E-17
5.850000E+03	3.936738E-15	1.958013E-17
5.860000E+03	3.983145E-15	1.979126E-17
5.870000E+03	4.017232E-15	1.993833E-17
5.880000E+03	4.038637E-15	2.001970E-17
5.890000E+03	4.047369E-15	2.003565E-17
5.900000E+03	4.043960E-15	1.998906E-17
5.910000E+03	4.029334E-15	1.988484E-17
5.920000E+03	4.004669E-15	1.972914E-17
5.930000E+03	3.971262E-15	1.952872E-17
5.940000E+03	3.930366E-15	1.929011E-17
5.950000E+03	3.883337E-15	1.902033E-17
5.960000E+03	3.831400E-15	1.872575E-17
5.970000E+03	3.775671E-15	1.841215E-17
5.980000E+03	3.717092E-15	1.808446E-17
5.990000E+03	3.656537E-15	1.774723E-17
6.000000E+03	3.594560E-15	1.740345E-17
6.010000E+03	3.531858E-15	1.705675E-17
6.020000E+03	3.468634E-15	1.670836E-17
6.030000E+03	3.405108E-15	1.635959E-17
6.040000E+03	3.341433E-15	1.601142E-17
6.050000E+03	3.277467E-15	1.566338E-17
6.060000E+03	3.213088E-15	1.531513E-17
6.070000E+03	3.148187E-15	1.496637E-17
6.080000E+03	3.082953E-15	1.461823E-17
6.090000E+03	3.017595E-15	1.427189E-17
6.100000E+03	2.952833E-15	1.393096E-17
6.110000E+03	2.889753E-15	1.360068E-17
6.120000E+03	2.829738E-15	1.328765E-17
6.130000E+03	2.774443E-15	1.299970E-17
6.140000E+03	2.725804E-15	1.274586E-17
6.150000E+03	2.685687E-15	1.253480E-17
6.160000E+03	2.655688E-15	1.237391E-17
6.170000E+03	2.636857E-15	1.226800E-17
6.180000E+03	2.629474E-15	1.221834E-17
6.190000E+03	2.632961E-15	1.222224E-17
6.200000E+03	2.645227E-15	1.226998E-17
6.210000E+03	2.662946E-15	1.234623E-17
6.220000E+03	2.681475E-15	1.242961E-17
6.230000E+03	2.694898E-15	1.249291E-17
6.240000E+03	2.698118E-15	1.251264E-17
6.250000E+03	2.689996E-15	1.248362E-17
6.260000E+03	2.673832E-15	1.242115E-17
6.270000E+03	2.654494E-15	1.234782E-17
6.280000E+03	2.636565E-15	1.228496E-17
6.290000E+03	2.622960E-15	1.224624E-17
6.300000E+03	2.615317E-15	1.223950E-17
6.310000E+03	2.614413E-15	1.226867E-17
6.320000E+03	2.620076E-15	1.233329E-17
6.330000E+03	2.631440E-15	1.242971E-17
6.340000E+03	2.647300E-15	1.255264E-17
6.350000E+03	2.665990E-15	1.269458E-17
6.360000E+03	2.685553E-15	1.284654E-17
6.370000E+03	2.704189E-15	1.300013E-17
6.380000E+03	2.720313E-15	1.314779E-17
6.390000E+03	2.732573E-15	1.328275E-17
6.400000E+03	2.739968E-15	1.339963E-17
6.410000E+03	2.742164E-15	1.349612E-17
6.420000E+03	2.739129E-15	1.357133E-17
6.430000E+03	2.731306E-15	1.362667E-17
6.440000E+03	2.719490E-15	1.366534E-17
6.450000E+03	2.704703E-15	1.369178E-17
6.460000E+03	2.688076E-15	1.371107E-17
6.470000E+03	2.670683E-15	1.372824E-17
6.480000E+03	2.653582E-15	1.374833E-17
6.490000E+03	2.637592E-15	1.377537E-17
6.500000E+03	2.623573E-15	1.381372E-17
6.510000E+03	2.612184E-15	1.386687E-17
6.520000E+03	2.603976E-15	1.393784E-17
6.530000E+03	2.599531E-15	1.402996E-17
6.540000E+03	2.599019E-15	1.414441E-17
6.550000E+03	2.602158E-15	1.427998E-17
6.560000E+03	2.608557E-15	1.443477E-17
6.570000E+03	2.617798E-15	1.460672E-17
6.580000E+03	2.629314E-15	1.479284E-17
6.590000E+03	2.642550E-15	1.499010E-17
6.600000E+03	2.656910E-15	1.519517E-17
6.610000E+03	2.671673E-15	1.540384E-17
6.620000E+03	2.686054E-15	1.561145E-17
6.630000E+03	2.699303E-15	1.581337E-17
6.640000E+03	2.710581E-15	1.600433E-17
6.650000E+03	2.719322E-15	1.618051E-17
6.660000E+03	2.724834E-15	1.633725E-17
6.670000E+03	2.726589E-15	1.647079E-17
6.680000E+03	2.724253E-15	1.657843E-17
6.690000E+03	2.717561E-15	1.665787E-17
6.700000E+03	2.706327E-15	1.670726E-17
6.710000E+03	2.690623E-15	1.672636E-17
6.720000E+03	2.670694E-15	1.671604E-17
6.730000E+03	2.646794E-15	1.667729E-17
6.740000E+03	2.619434E-15	1.661278E-17
6.750000E+03	2.589051E-15	1.652485E-17
6.760000E+03	2.556306E-15	1.641734E-17
6.770000E+03	2.521761E-15	1.629361E-17
6.780000E+03	2.486159E-15	1.615826E-17
6.790000E+03	2.450031E-15	1.601467E-17
6.800000E+03	2.414023E-15	1.586705E-17
6.810000E+03	2.378689E-15	1.571911E-17
6.820000E+03	2.344493E-15	1.557403E-17
6.830000E+03	2.311974E-15	1.543557E-17
6.840000E+03	2.281528E-15	1.530660E-17
6.850000E+03	2.253570E-15	1.519018E-17
6.860000E+03	2.228325E-15	1.508808E-17
6.870000E+03	2.206119E-15	1.500283E-17
6.880000E+03	2.187091E-15	1.493566E-17
6.890000E+03	2.171352E-15	1.488764E-17
6.900000E+03	2.158916E-15	1.485916E-17
6.910000E+03	2.149857E-15	1.485099E-17
6.920000E+03	2.143939E-15	1.486178E-17
6.930000E+03	2.141113E-15	1.489139E-17
6.940000E+03	2.141071E-15	1.493789E-17
6.950000E+03	2.143522E-15	1.499939E-17
6.960000E+03	2.148163E-15	1.507391E-17
6.970000E+03	2.154572E-15	1.515859E-17
6.980000E+03	2.162323E-15	1.525047E-17
6.990000E+03	2.170963E-15	1.534640E-17
7.000000E+03	2.180017E-15	1.544302E-17
7.010000E+03	2.189002E-15	1.553688E-17
7.020000E+03	2.197392E-15	1.562421E-17
7.030000E+03	2.204802E-15	1.570221E-17
7.040000E+03	2.210669E-15	1.576682E-17
7.050000E+03	2.214727E-15	1.581607E-17
7.060000E+03	2.216497E-15	1.584649E-17
7.070000E+03	2.215803E-15	1.585676E-17
7.080000E+03	2.212406E-15	1.584515E-17
7.090000E+03	2.206196E-15	1.581084E-17
7.100000E+03	2.197230E-15	1.575423E-17
7.110000E+03	2.185524E-15	1.567548E-17
7.120000E+03	2.171319E-15	1.557634E-17
7.130000E+03	2.154904E-15	1.545896E-17
7.140000E+03	2.136735E-15	1.532668E-17
7.150000E+03	2.117249E-15	1.518273E-17
7.160000E+03	2.096867E-15	1.503024E-17
7.170000E+03	2.076085E-15	1.487284E-17
7.180000E+03	2.055239E-15	1.471307E-17
7.190000E+03	2.034754E-15	1.455406E-17
7.200000E+03	2.014871E-15	1.439762E-17
7.210000E+03	1.995766E-15	1.424509E-17
7.220000E+03	1.977613E-15	1.409781E-17
7.230000E+03	1.960485E-15	1.395634E-17
7.240000E+03	1.944374E-15	1.382071E-17
7.250000E+03	1.929258E-15	1.369081E-17
7.260000E+03	1.915094E-15	1.356641E-17
7.270000E+03	1.901831E-15	1.344717E-17
7.280000E+03	1.889377E-15	1.333251E-17
7.290000E+03	1.877564E-15	1.322130E-17
7.300000E+03	1.866395E-15	1.311361E-17
7.310000E+03	1.855736E-15	1.300856E-17
7.320000E+03	1.845465E-15	1.290536E-17
7.330000E+03	1.835545E-15	1.280381E-17
7.340000E+03	1.825828E-15	1.270295E-17
7.350000E+03	1.816242E-15	1.260234E-17
7.360000E+03	1.806705E-15	1.250152E-17
7.370000E+03	1.797109E-15	1.239981E-17
7.380000E+03	1.787402E-15	1.229695E-17
7.390000E+03	1.777376E-15	1.219160E-17
7.400000E+03	1.767054E-15	1.208403E-17
7.410000E+03	1.756297E-15	1.197341E-17
7.420000E+03	1.745079E-15	1.185968E-17
7.430000E+03	1.733335E-15	1.174251E-17
7.440000E+03	1.721037E-15	1.162184E-17
7.450000E+03	1.708207E-15	1.149796E-17
7.460000E+03	1.694865E-15	1.137112E-17
7.470000E+03	1.681196E-15	1.124267E-17
7.480000E+03	1.667210E-15	1.111281E-17
7.490000E+03	1.653092E-15	1.098285E-17
7.500000E+03	1.638928E-15	1.085341E-17
7.510000E+03	1.624961E-15	1.072611E-17
7.520000E+03	1.611322E-15	1.060181E-17
7.530000E+03	1.598176E-15	1.048161E-17
7.540000E+03	1.585700E-15	1.036665E-17
7.550000E+03	1.574030E-15	1.025780E-17
7.560000E+03	1.563327E-15	1.015610E-17
7.570000E+03	1.553555E-15	1.006127E-17
7.580000E+03	1.544699E-15	9.973198E-18
7.590000E+03	1.536710E-15	9.891545E-18
7.600000E+03	1.529475E-15	9.815567E-18
7.610000E+03	1.522939E-15	9.744917E-18
7.620000E+03	1.516954E-15	9.678656E-18
7.630000E+03	1.511381E-15	9.615909E-18
7.640000E+03	1.505923E-15	9.554813E-18
7.650000E+03	1.500479E-15	9.494780E-18
7.660000E+03	1.494887E-15	9.434833E-18
7.670000E+03	1.489184E-15	9.375277E-18
7.680000E+03	1.483322E-15	9.315861E-18
7.690000E+03	1.477429E-15	9.257454E-18
7.700000E+03	1.471562E-15	9.200480E-18
7.710000E+03	1.465834E-15	9.145696E-18
7.720000E+03	1.460367E-15	9.093923E-18
7.730000E+03	1.455285E-15	9.045979E-18
7.740000E+03	1.450706E-15	9.002661E-18
7.750000E+03	1.446700E-15	8.964456E-18
7.760000E+03	1.443375E-15	8.932083E-18
