#wls	flux	fluxerr
1.600000E+03	3.996159E-16	7.351420E-18
1.640000E+03	4.080691E-16	7.472008E-18
1.680000E+03	4.171973E-16	7.602611E-18
1.720000E+03	4.270153E-16	7.743251E-18
1.760000E+03	4.375753E-16	7.894610E-18
1.800000E+03	4.489655E-16	8.057984E-18
1.840000E+03	4.611217E-16	8.231908E-18
1.880000E+03	4.741680E-16	8.418271E-18
1.920000E+03	4.881147E-16	8.616890E-18
1.960000E+03	5.029737E-16	8.827596E-18
2.000000E+03	5.187225E-16	9.049599E-18
2.040000E+03	5.353783E-16	9.282794E-18
2.080000E+03	5.528910E-16	9.525893E-18
2.120000E+03	5.711479E-16	9.776549E-18
2.160000E+03	5.901491E-16	1.003436E-17
2.200000E+03	6.097658E-16	1.029676E-17
2.240000E+03	6.299153E-16	1.056197E-17
2.280000E+03	6.505937E-16	1.082959E-17
2.320000E+03	6.718732E-16	1.110043E-17
2.360000E+03	6.939332E-16	1.137705E-17
2.400000E+03	7.169929E-16	1.166253E-17
2.440000E+03	7.412804E-16	1.195997E-17
2.480000E+03	7.671314E-16	1.227407E-17
2.520000E+03	7.947996E-16	1.260801E-17
2.560000E+03	8.246220E-16	1.296612E-17
2.600000E+03	8.568652E-16	1.335142E-17
2.640000E+03	8.918590E-16	1.376770E-17
2.680000E+03	9.299090E-16	1.421817E-17
2.720000E+03	9.713666E-16	1.470650E-17
2.760000E+03	1.016637E-15	1.523692E-17
2.800000E+03	1.066158E-15	1.581383E-17
2.840000E+03	1.120437E-15	1.644232E-17
2.880000E+03	1.180127E-15	1.712923E-17
2.920000E+03	1.245905E-15	1.788125E-17
2.960000E+03	1.318705E-15	1.870818E-17
3.000000E+03	1.399464E-15	1.961918E-17
3.010000E+03	1.421063E-15	1.986185E-17
3.020000E+03	1.443226E-15	2.011034E-17
3.030000E+03	1.465967E-15	2.036475E-17
3.040000E+03	1.489368E-15	2.062614E-17
3.050000E+03	1.513410E-15	2.089416E-17
3.060000E+03	1.538109E-15	2.116892E-17
3.070000E+03	1.563514E-15	2.145101E-17
3.080000E+03	1.589605E-15	2.174005E-17
3.090000E+03	1.616398E-15	2.203617E-17
3.100000E+03	1.643975E-15	2.234036E-17
3.110000E+03	1.672279E-15	2.265177E-17
3.120000E+03	1.701361E-15	2.297094E-17
3.130000E+03	1.731194E-15	2.329743E-17
3.140000E+03	1.761895E-15	2.363268E-17
3.150000E+03	1.793368E-15	2.397529E-17
3.160000E+03	1.825653E-15	2.432567E-17
3.170000E+03	1.858792E-15	2.468426E-17
3.180000E+03	1.892785E-15	2.505093E-17
3.190000E+03	1.927561E-15	2.542463E-17
3.200000E+03	1.963220E-15	2.580655E-17
3.210000E+03	1.999682E-15	2.619552E-17
3.220000E+03	2.036967E-15	2.659167E-17
3.230000E+03	2.075020E-15	2.699416E-17
3.240000E+03	2.113848E-15	2.740297E-17
3.250000E+03	2.153418E-15	2.781755E-17
3.260000E+03	2.193687E-15	2.823724E-17
3.270000E+03	2.234563E-15	2.866075E-17
3.280000E+03	2.276023E-15	2.908769E-17
3.290000E+03	2.317990E-15	2.951698E-17
3.300000E+03	2.360340E-15	2.994698E-17
3.310000E+03	2.403008E-15	3.037680E-17
3.320000E+03	2.445837E-15	3.080440E-17
3.330000E+03	2.488735E-15	3.122860E-17
3.340000E+03	2.531507E-15	3.164695E-17
3.350000E+03	2.573987E-15	3.205736E-17
3.360000E+03	2.615982E-15	3.245750E-17
3.370000E+03	2.657283E-15	3.284484E-17
3.380000E+03	2.697662E-15	3.321664E-17
3.390000E+03	2.736828E-15	3.356949E-17
3.400000E+03	2.774554E-15	3.390076E-17
3.410000E+03	2.810472E-15	3.420619E-17
3.420000E+03	2.844366E-15	3.448339E-17
3.430000E+03	2.875842E-15	3.472790E-17
3.440000E+03	2.904583E-15	3.493625E-17
3.450000E+03	2.930270E-15	3.510502E-17
3.460000E+03	2.952546E-15	3.523037E-17
3.470000E+03	2.971148E-15	3.530968E-17
3.480000E+03	2.985752E-15	3.533964E-17
3.490000E+03	2.996063E-15	3.531737E-17
3.500000E+03	3.001860E-15	3.524089E-17
3.510000E+03	3.002935E-15	3.510842E-17
3.520000E+03	2.999205E-15	3.491969E-17
3.530000E+03	2.990500E-15	3.467346E-17
3.540000E+03	2.976874E-15	3.437106E-17
3.550000E+03	2.958381E-15	3.401384E-17
3.560000E+03	2.935187E-15	3.360444E-17
3.570000E+03	2.907479E-15	3.314568E-17
3.580000E+03	2.875569E-15	3.264177E-17
3.590000E+03	2.839932E-15	3.209872E-17
3.600000E+03	2.801035E-15	3.152233E-17
3.610000E+03	2.759678E-15	3.092208E-17
3.620000E+03	2.716719E-15	3.030788E-17
3.630000E+03	2.673023E-15	2.968962E-17
3.640000E+03	2.629505E-15	2.907752E-17
3.650000E+03	2.587105E-15	2.848193E-17
3.660000E+03	2.546684E-15	2.791210E-17
3.670000E+03	2.509159E-15	2.737778E-17
3.680000E+03	2.475299E-15	2.688690E-17
3.690000E+03	2.445912E-15	2.644767E-17
3.700000E+03	2.421734E-15	2.606734E-17
3.710000E+03	2.403476E-15	2.575280E-17
3.720000E+03	2.391757E-15	2.550976E-17
3.730000E+03	2.387195E-15	2.534384E-17
3.740000E+03	2.390342E-15	2.525983E-17
3.750000E+03	2.401734E-15	2.526222E-17
3.760000E+03	2.421831E-15	2.535465E-17
3.770000E+03	2.451070E-15	2.554037E-17
3.780000E+03	2.489804E-15	2.582172E-17
3.790000E+03	2.538310E-15	2.620015E-17
3.800000E+03	2.596835E-15	2.667679E-17
3.810000E+03	2.665382E-15	2.725020E-17
3.820000E+03	2.743899E-15	2.791840E-17
3.830000E+03	2.832131E-15	2.867735E-17
3.840000E+03	2.929511E-15	2.951992E-17
3.850000E+03	3.035260E-15	3.043699E-17
3.860000E+03	3.148326E-15	3.141686E-17
3.870000E+03	3.267307E-15	3.244456E-17
3.880000E+03	3.390465E-15	3.350207E-17
3.890000E+03	3.515716E-15	3.456834E-17
3.900000E+03	3.640745E-15	3.562045E-17
3.910000E+03	3.762987E-15	3.663348E-17
3.920000E+03	3.879806E-15	3.758239E-17
3.930000E+03	3.988554E-15	3.844245E-17
3.940000E+03	4.086697E-15	3.919060E-17
3.950000E+03	4.172062E-15	3.980770E-17
3.960000E+03	4.242812E-15	4.027820E-17
3.970000E+03	4.297535E-15	4.059092E-17
3.980000E+03	4.335541E-15	4.074173E-17
3.990000E+03	4.356591E-15	4.073085E-17
4.000000E+03	4.361086E-15	4.056448E-17
4.010000E+03	4.350006E-15	4.025408E-17
4.020000E+03	4.324740E-15	3.981471E-17
4.030000E+03	4.287118E-15	3.926515E-17
4.040000E+03	4.239079E-15	3.862485E-17
4.050000E+03	4.182746E-15	3.791455E-17
4.060000E+03	4.120208E-15	3.715424E-17
4.070000E+03	4.053487E-15	3.636295E-17
4.080000E+03	3.984451E-15	3.555794E-17
4.090000E+03	3.914794E-15	3.475454E-17
4.100000E+03	3.845894E-15	3.396502E-17
4.110000E+03	3.778915E-15	3.319949E-17
4.120000E+03	3.714834E-15	3.246622E-17
4.130000E+03	3.654250E-15	3.177000E-17
4.140000E+03	3.597643E-15	3.111450E-17
4.150000E+03	3.545269E-15	3.050137E-17
4.160000E+03	3.497206E-15	2.993069E-17
4.170000E+03	3.453402E-15	2.940145E-17
4.180000E+03	3.413707E-15	2.891181E-17
4.190000E+03	3.377902E-15	2.845935E-17
4.200000E+03	3.345732E-15	2.804145E-17
4.210000E+03	3.316942E-15	2.765550E-17
4.220000E+03	3.291292E-15	2.729906E-17
4.230000E+03	3.268554E-15	2.696988E-17
4.240000E+03	3.248594E-15	2.666646E-17
4.250000E+03	3.231365E-15	2.638811E-17
4.260000E+03	3.216863E-15	2.613444E-17
4.270000E+03	3.205083E-15	2.590510E-17
4.280000E+03	3.196145E-15	2.570073E-17
4.290000E+03	3.190163E-15	2.552191E-17
4.300000E+03	3.187243E-15	2.536915E-17
4.310000E+03	3.187444E-15	2.524259E-17
4.320000E+03	3.190722E-15	2.514152E-17
4.330000E+03	3.196999E-15	2.506501E-17
4.340000E+03	3.205912E-15	2.500992E-17
4.350000E+03	3.217043E-15	2.497274E-17
4.360000E+03	3.229761E-15	2.494838E-17
4.370000E+03	3.243330E-15	2.493104E-17
4.380000E+03	3.257018E-15	2.491505E-17
4.390000E+03	3.270398E-15	2.489716E-17
4.400000E+03	3.283931E-15	2.488091E-17
4.410000E+03	3.299013E-15	2.487685E-17
4.420000E+03	3.317201E-15	2.489652E-17
4.430000E+03	3.339949E-15	2.495049E-17
4.440000E+03	3.368513E-15	2.504764E-17
4.450000E+03	3.403731E-15	2.519363E-17
4.460000E+03	3.446037E-15	2.539104E-17
4.470000E+03	3.495467E-15	2.563947E-17
4.480000E+03	3.551523E-15	2.593466E-17
4.490000E+03	3.613378E-15	2.627003E-17
4.500000E+03	3.679769E-15	2.663598E-17
4.510000E+03	3.749034E-15	2.702019E-17
4.520000E+03	3.819224E-15	2.740853E-17
4.530000E+03	3.888142E-15	2.778530E-17
4.540000E+03	3.953438E-15	2.813403E-17
4.550000E+03	4.012708E-15	2.843808E-17
4.560000E+03	4.063577E-15	2.868134E-17
4.570000E+03	4.103868E-15	2.884929E-17
4.580000E+03	4.131847E-15	2.893079E-17
4.590000E+03	4.146061E-15	2.891678E-17
4.600000E+03	4.145637E-15	2.880235E-17
4.610000E+03	4.130445E-15	2.858780E-17
4.620000E+03	4.100915E-15	2.827725E-17
4.630000E+03	4.057937E-15	2.787790E-17
4.640000E+03	4.003235E-15	2.740251E-17
4.650000E+03	3.938625E-15	2.686429E-17
4.660000E+03	3.866362E-15	2.627919E-17
4.670000E+03	3.788652E-15	2.566261E-17
4.680000E+03	3.707599E-15	2.502901E-17
4.690000E+03	3.625045E-15	2.439092E-17
4.700000E+03	3.542444E-15	2.375806E-17
4.710000E+03	3.460853E-15	2.313737E-17
4.720000E+03	3.380671E-15	2.253135E-17
4.730000E+03	3.301747E-15	2.193876E-17
4.740000E+03	3.223429E-15	2.135510E-17
4.750000E+03	3.144550E-15	2.077242E-17
4.760000E+03	3.063854E-15	2.018235E-17
4.770000E+03	2.979989E-15	1.957594E-17
4.780000E+03	2.892290E-15	1.894882E-17
4.790000E+03	2.801230E-15	1.830416E-17
4.800000E+03	2.708924E-15	1.765573E-17
4.810000E+03	2.618145E-15	1.702146E-17
4.820000E+03	2.531502E-15	1.641806E-17
4.830000E+03	2.451064E-15	1.585856E-17
4.840000E+03	2.378383E-15	1.535258E-17
4.850000E+03	2.314374E-15	1.490553E-17
4.860000E+03	2.259401E-15	1.451927E-17
4.870000E+03	2.213433E-15	1.419313E-17
4.880000E+03	2.176115E-15	1.392438E-17
4.890000E+03	2.146823E-15	1.370862E-17
4.900000E+03	2.124832E-15	1.354087E-17
4.910000E+03	2.109269E-15	1.341523E-17
4.920000E+03	2.099298E-15	1.332612E-17
4.930000E+03	2.094095E-15	1.326809E-17
4.940000E+03	2.092921E-15	1.323626E-17
4.950000E+03	2.095172E-15	1.322665E-17
4.960000E+03	2.100297E-15	1.323567E-17
4.970000E+03	2.107932E-15	1.326089E-17
4.980000E+03	2.117770E-15	1.330030E-17
4.990000E+03	2.129623E-15	1.335263E-17
5.000000E+03	2.143383E-15	1.341714E-17
5.010000E+03	2.159063E-15	1.349385E-17
5.020000E+03	2.176623E-15	1.358242E-17
5.030000E+03	2.196104E-15	1.368306E-17
5.040000E+03	2.217563E-15	1.379605E-17
5.050000E+03	2.240984E-15	1.392126E-17
5.060000E+03	2.266368E-15	1.405861E-17
5.070000E+03	2.293678E-15	1.420783E-17
5.080000E+03	2.322854E-15	1.436848E-17
5.090000E+03	2.353808E-15	1.453998E-17
5.100000E+03	2.386458E-15	1.472178E-17
5.110000E+03	2.420721E-15	1.491334E-17
5.120000E+03	2.456437E-15	1.511360E-17
5.130000E+03	2.493519E-15	1.532203E-17
5.140000E+03	2.531741E-15	1.553720E-17
5.150000E+03	2.570998E-15	1.575843E-17
5.160000E+03	2.611083E-15	1.598446E-17
5.170000E+03	2.651799E-15	1.621406E-17
5.180000E+03	2.692941E-15	1.644597E-17
5.190000E+03	2.734244E-15	1.667856E-17
5.200000E+03	2.775415E-15	1.691006E-17
5.210000E+03	2.816069E-15	1.713815E-17
5.220000E+03	2.855848E-15	1.736065E-17
5.230000E+03	2.894192E-15	1.757419E-17
5.240000E+03	2.930590E-15	1.777572E-17
5.250000E+03	2.964474E-15	1.796185E-17
5.260000E+03	2.995282E-15	1.812921E-17
5.270000E+03	3.022398E-15	1.827416E-17
5.280000E+03	3.045344E-15	1.839391E-17
5.290000E+03	3.063661E-15	1.848575E-17
5.300000E+03	3.077025E-15	1.854784E-17
5.310000E+03	3.085179E-15	1.857871E-17
5.320000E+03	3.088017E-15	1.857784E-17
5.330000E+03	3.085464E-15	1.854488E-17
5.340000E+03	3.077598E-15	1.848038E-17
5.350000E+03	3.064559E-15	1.838529E-17
5.360000E+03	3.046670E-15	1.826162E-17
5.370000E+03	3.024224E-15	1.811122E-17
5.380000E+03	2.997724E-15	1.793717E-17
5.390000E+03	2.967732E-15	1.774289E-17
5.400000E+03	2.934864E-15	1.753211E-17
5.410000E+03	2.899722E-15	1.730847E-17
5.420000E+03	2.863006E-15	1.707616E-17
5.430000E+03	2.825395E-15	1.683927E-17
5.440000E+03	2.787414E-15	1.660093E-17
5.450000E+03	2.749640E-15	1.636456E-17
5.460000E+03	2.712450E-15	1.613241E-17
5.470000E+03	2.676166E-15	1.590637E-17
5.480000E+03	2.641220E-15	1.568901E-17
5.490000E+03	2.607676E-15	1.548062E-17
5.500000E+03	2.575445E-15	1.528066E-17
5.510000E+03	2.544342E-15	1.508797E-17
5.520000E+03	2.514056E-15	1.490065E-17
5.530000E+03	2.484017E-15	1.471530E-17
5.540000E+03	2.453785E-15	1.452927E-17
5.550000E+03	2.422956E-15	1.434016E-17
5.560000E+03	2.391369E-15	1.414699E-17
5.570000E+03	2.359037E-15	1.394980E-17
5.580000E+03	2.326206E-15	1.375005E-17
5.590000E+03	2.293260E-15	1.354997E-17
5.600000E+03	2.260801E-15	1.335311E-17
5.610000E+03	2.229450E-15	1.316310E-17
5.620000E+03	2.199920E-15	1.298413E-17
5.630000E+03	2.172944E-15	1.282049E-17
5.640000E+03	2.149211E-15	1.267622E-17
5.650000E+03	2.129378E-15	1.255516E-17
5.660000E+03	2.113977E-15	1.246040E-17
5.670000E+03	2.103491E-15	1.239476E-17
5.680000E+03	2.098304E-15	1.236048E-17
5.690000E+03	2.098655E-15	1.235891E-17
5.700000E+03	2.104665E-15	1.239073E-17
5.710000E+03	2.116327E-15	1.245587E-17
5.720000E+03	2.133565E-15	1.255386E-17
5.730000E+03	2.156073E-15	1.268286E-17
5.740000E+03	2.183501E-15	1.284079E-17
5.750000E+03	2.215324E-15	1.302454E-17
5.760000E+03	2.250853E-15	1.323003E-17
5.770000E+03	2.289328E-15	1.345280E-17
5.780000E+03	2.330019E-15	1.368854E-17
5.790000E+03	2.372058E-15	1.393214E-17
5.800000E+03	2.414513E-15	1.417814E-17
5.810000E+03	2.456512E-15	1.442142E-17
5.820000E+03	2.497047E-15	1.465607E-17
5.830000E+03	2.535194E-15	1.487668E-17
5.840000E+03	2.570080E-15	1.507815E-17
5.850000E+03	2.600907E-15	1.525582E-17
5.860000E+03	2.627007E-15	1.540581E-17
5.870000E+03	2.647769E-15	1.552454E-17
5.880000E+03	2.662828E-15	1.560992E-17
5.890000E+03	2.671878E-15	1.566018E-17
5.900000E+03	2.674810E-15	1.567472E-17
5.910000E+03	2.671633E-15	1.565361E-17
5.920000E+03	2.662468E-15	1.559760E-17
5.930000E+03	2.647650E-15	1.550867E-17
5.940000E+03	2.627484E-15	1.538865E-17
5.950000E+03	2.602382E-15	1.523994E-17
5.960000E+03	2.572915E-15	1.506594E-17
5.970000E+03	2.539633E-15	1.486986E-17
5.980000E+03	2.503020E-15	1.465456E-17
5.990000E+03	2.463759E-15	1.442404E-17
6.000000E+03	2.422362E-15	1.418131E-17
6.010000E+03	2.379484E-15	1.393021E-17
6.020000E+03	2.335655E-15	1.367384E-17
6.030000E+03	2.291457E-15	1.341561E-17
6.040000E+03	2.247465E-15	1.315889E-17
6.050000E+03	2.204231E-15	1.290690E-17
6.060000E+03	2.162309E-15	1.266291E-17
6.070000E+03	2.122186E-15	1.242975E-17
6.080000E+03	2.084458E-15	1.221093E-17
6.090000E+03	2.049588E-15	1.200916E-17
6.100000E+03	2.018155E-15	1.182784E-17
6.110000E+03	1.990655E-15	1.166991E-17
6.120000E+03	1.967554E-15	1.153810E-17
6.130000E+03	1.949276E-15	1.143494E-17
6.140000E+03	1.936172E-15	1.136252E-17
6.150000E+03	1.928397E-15	1.132181E-17
6.160000E+03	1.925929E-15	1.131272E-17
6.170000E+03	1.928511E-15	1.133381E-17
6.180000E+03	1.935477E-15	1.138122E-17
6.190000E+03	1.945862E-15	1.144936E-17
6.200000E+03	1.958272E-15	1.153007E-17
6.210000E+03	1.970949E-15	1.161301E-17
6.220000E+03	1.981803E-15	1.168587E-17
6.230000E+03	1.988583E-15	1.173535E-17
6.240000E+03	1.989398E-15	1.175022E-17
6.250000E+03	1.983604E-15	1.172658E-17
6.260000E+03	1.972231E-15	1.167041E-17
6.270000E+03	1.956946E-15	1.159147E-17
6.280000E+03	1.939573E-15	1.150050E-17
6.290000E+03	1.921727E-15	1.140701E-17
6.300000E+03	1.904732E-15	1.131885E-17
6.310000E+03	1.889576E-15	1.124191E-17
6.320000E+03	1.876780E-15	1.117930E-17
6.330000E+03	1.866482E-15	1.113188E-17
6.340000E+03	1.858639E-15	1.109944E-17
6.350000E+03	1.853018E-15	1.108064E-17
6.360000E+03	1.849219E-15	1.107312E-17
6.370000E+03	1.846867E-15	1.107467E-17
6.380000E+03	1.845558E-15	1.108291E-17
6.390000E+03	1.844929E-15	1.109565E-17
6.400000E+03	1.844676E-15	1.111106E-17
6.410000E+03	1.844643E-15	1.112819E-17
6.420000E+03	1.844674E-15	1.114607E-17
6.430000E+03	1.844763E-15	1.116463E-17
6.440000E+03	1.844926E-15	1.118397E-17
6.450000E+03	1.845213E-15	1.120436E-17
6.460000E+03	1.845711E-15	1.122629E-17
6.470000E+03	1.846458E-15	1.125000E-17
6.480000E+03	1.847489E-15	1.127567E-17
6.490000E+03	1.848699E-15	1.130266E-17
6.500000E+03	1.850034E-15	1.133060E-17
6.510000E+03	1.851310E-15	1.135836E-17
6.520000E+03	1.852257E-15	1.138426E-17
6.530000E+03	1.852644E-15	1.140682E-17
6.540000E+03	1.852415E-15	1.142567E-17
6.550000E+03	1.851791E-15	1.144214E-17
6.560000E+03	1.850994E-15	1.145756E-17
6.570000E+03	1.850209E-15	1.147306E-17
6.580000E+03	1.849488E-15	1.148892E-17
6.590000E+03	1.848857E-15	1.150532E-17
6.600000E+03	1.848303E-15	1.152213E-17
6.610000E+03	1.847712E-15	1.153864E-17
6.620000E+03	1.846881E-15	1.155356E-17
6.630000E+03	1.845628E-15	1.156571E-17
6.640000E+03	1.843678E-15	1.157335E-17
6.650000E+03	1.840841E-15	1.157524E-17
6.660000E+03	1.836806E-15	1.156938E-17
6.670000E+03	1.831340E-15	1.155424E-17
6.680000E+03	1.824304E-15	1.152888E-17
6.690000E+03	1.815567E-15	1.149243E-17
6.700000E+03	1.805020E-15	1.144412E-17
6.710000E+03	1.792678E-15	1.138397E-17
6.720000E+03	1.778638E-15	1.131256E-17
6.730000E+03	1.762990E-15	1.123038E-17
6.740000E+03	1.745984E-15	1.113900E-17
6.750000E+03	1.727808E-15	1.103956E-17
6.760000E+03	1.708789E-15	1.093411E-17
6.770000E+03	1.689173E-15	1.082422E-17
6.780000E+03	1.669320E-15	1.071217E-17
6.790000E+03	1.649449E-15	1.059938E-17
6.800000E+03	1.629864E-15	1.048779E-17
6.810000E+03	1.610804E-15	1.037896E-17
6.820000E+03	1.592450E-15	1.027407E-17
6.830000E+03	1.575016E-15	1.017453E-17
6.840000E+03	1.558619E-15	1.008112E-17
6.850000E+03	1.543396E-15	9.994763E-18
6.860000E+03	1.529367E-15	9.915614E-18
6.870000E+03	1.516627E-15	9.844321E-18
6.880000E+03	1.505152E-15	9.780766E-18
6.890000E+03	1.494964E-15	9.725125E-18
6.900000E+03	1.486024E-15	9.677163E-18
6.910000E+03	1.478348E-15	9.637033E-18
6.920000E+03	1.471832E-15	9.604067E-18
6.930000E+03	1.466508E-15	9.578510E-18
6.940000E+03	1.462236E-15	9.559471E-18
6.950000E+03	1.458920E-15	9.546344E-18
6.960000E+03	1.456461E-15	9.538499E-18
6.970000E+03	1.454682E-15	9.534793E-18
6.980000E+03	1.453428E-15	9.534222E-18
6.990000E+03	1.452529E-15	9.535683E-18
7.000000E+03	1.451807E-15	9.538013E-18
7.010000E+03	1.451116E-15	9.540262E-18
7.020000E+03	1.450278E-15	9.541259E-18
7.030000E+03	1.449198E-15	9.540382E-18
7.040000E+03	1.447666E-15	9.536249E-18
7.050000E+03	1.445644E-15	9.528613E-18
7.060000E+03	1.442938E-15	9.516192E-18
7.070000E+03	1.439550E-15	9.499007E-18
7.080000E+03	1.435417E-15	9.476625E-18
7.090000E+03	1.430517E-15	9.448923E-18
7.100000E+03	1.424898E-15	9.416201E-18
7.110000E+03	1.418530E-15	9.378281E-18
7.120000E+03	1.411491E-15	9.335667E-18
7.130000E+03	1.403820E-15	9.288641E-18
7.140000E+03	1.395622E-15	9.237888E-18
7.150000E+03	1.386970E-15	9.183909E-18
7.160000E+03	1.377931E-15	9.127155E-18
7.170000E+03	1.368615E-15	9.068366E-18
7.180000E+03	1.359033E-15	9.007621E-18
7.190000E+03	1.349326E-15	8.945876E-18
7.200000E+03	1.339533E-15	8.883400E-18
7.210000E+03	1.329669E-15	8.820310E-18
7.220000E+03	1.319821E-15	8.757183E-18
7.230000E+03	1.310028E-15	8.694304E-18
7.240000E+03	1.300296E-15	8.631727E-18
7.250000E+03	1.290696E-15	8.569934E-18
7.260000E+03	1.281292E-15	8.509362E-18
7.270000E+03	1.272132E-15	8.450353E-18
7.280000E+03	1.263269E-15	8.393271E-18
7.290000E+03	1.254688E-15	8.338026E-18
7.300000E+03	1.246459E-15	8.285107E-18
7.310000E+03	1.238573E-15	8.234461E-18
7.320000E+03	1.231000E-15	8.185915E-18
7.330000E+03	1.223753E-15	8.139563E-18
7.340000E+03	1.216771E-15	8.095016E-18
7.350000E+03	1.210034E-15	8.052158E-18
7.360000E+03	1.203506E-15	8.010760E-18
7.370000E+03	1.197126E-15	7.970435E-18
7.380000E+03	1.190876E-15	7.931079E-18
7.390000E+03	1.184628E-15	7.891849E-18
7.400000E+03	1.178389E-15	7.852816E-18
7.410000E+03	1.172071E-15	7.813392E-18
7.420000E+03	1.165667E-15	7.773564E-18
7.430000E+03	1.159176E-15	7.733315E-18
7.440000E+03	1.152632E-15	7.692905E-18
7.450000E+03	1.146102E-15	7.652777E-18
7.460000E+03	1.139633E-15	7.613276E-18
7.470000E+03	1.133378E-15	7.575423E-18
7.480000E+03	1.127353E-15	7.539345E-18
7.490000E+03	1.121675E-15	7.505845E-18
7.500000E+03	1.116373E-15	7.475125E-18
7.510000E+03	1.111556E-15	7.447925E-18
7.520000E+03	1.107219E-15	7.424212E-18
7.530000E+03	1.103361E-15	7.403999E-18
7.540000E+03	1.099976E-15	7.387255E-18
7.550000E+03	1.097019E-15	7.373685E-18
7.560000E+03	1.094459E-15	7.363089E-18
7.570000E+03	1.092132E-15	7.354379E-18
7.580000E+03	1.089917E-15	7.346751E-18
7.590000E+03	1.087658E-15	7.339160E-18
7.600000E+03	1.085127E-15	7.330062E-18
7.610000E+03	1.082133E-15	7.318169E-18
7.620000E+03	1.078494E-15	7.302245E-18
7.630000E+03	1.074275E-15	7.282715E-18
7.640000E+03	1.069523E-15	7.259888E-18
7.650000E+03	1.064390E-15	7.234786E-18
7.660000E+03	1.058927E-15	7.207749E-18
7.670000E+03	1.053281E-15	7.179773E-18
7.680000E+03	1.047490E-15	7.151110E-18
7.690000E+03	1.041676E-15	7.122589E-18
7.700000E+03	1.035900E-15	7.094631E-18
7.710000E+03	1.030237E-15	7.067748E-18
7.720000E+03	1.024746E-15	7.042363E-18
7.730000E+03	1.019493E-15	7.018929E-18
7.740000E+03	1.014529E-15	6.997806E-18
7.750000E+03	1.009861E-15	6.979057E-18
7.760000E+03	1.005546E-15	6.963099E-18
