#wls	flux	fluxerr
1.600000E+03	5.684182E-16	8.799966E-18
1.640000E+03	5.867134E-16	9.039491E-18
1.680000E+03	6.063428E-16	9.295653E-18
1.720000E+03	6.274980E-16	9.570945E-18
1.760000E+03	6.501276E-16	9.864092E-18
1.800000E+03	6.745465E-16	1.017934E-17
1.840000E+03	7.007025E-16	1.051531E-17
1.880000E+03	7.288499E-16	1.087517E-17
1.920000E+03	7.591194E-16	1.126017E-17
1.960000E+03	7.915170E-16	1.166963E-17
2.000000E+03	8.262938E-16	1.210642E-17
2.040000E+03	8.635128E-16	1.257057E-17
2.080000E+03	9.032324E-16	1.306197E-17
2.120000E+03	9.455059E-16	1.358037E-17
2.160000E+03	9.902545E-16	1.412360E-17
2.200000E+03	1.037137E-15	1.468575E-17
2.240000E+03	1.085609E-15	1.525817E-17
2.280000E+03	1.135302E-15	1.583485E-17
2.320000E+03	1.186345E-15	1.641681E-17
2.360000E+03	1.239553E-15	1.701442E-17
2.400000E+03	1.295541E-15	1.763487E-17
2.440000E+03	1.354907E-15	1.828489E-17
2.480000E+03	1.417906E-15	1.896623E-17
2.520000E+03	1.484893E-15	1.968177E-17
2.560000E+03	1.555994E-15	2.043124E-17
2.600000E+03	1.631420E-15	2.121524E-17
2.640000E+03	1.711136E-15	2.203111E-17
2.680000E+03	1.795048E-15	2.287533E-17
2.720000E+03	1.882985E-15	2.374344E-17
2.760000E+03	1.974504E-15	2.462759E-17
2.800000E+03	2.069064E-15	2.551888E-17
2.840000E+03	2.165951E-15	2.640662E-17
2.880000E+03	2.264449E-15	2.728041E-17
2.920000E+03	2.363940E-15	2.813140E-17
2.960000E+03	2.463865E-15	2.895182E-17
3.000000E+03	2.563806E-15	2.973586E-17
3.010000E+03	2.588739E-15	2.992546E-17
3.020000E+03	2.613585E-15	3.011171E-17
3.030000E+03	2.638431E-15	3.029562E-17
3.040000E+03	2.663130E-15	3.047548E-17
3.050000E+03	2.687766E-15	3.065227E-17
3.060000E+03	2.712305E-15	3.082559E-17
3.070000E+03	2.736770E-15	3.099570E-17
3.080000E+03	2.761009E-15	3.116089E-17
3.090000E+03	2.785157E-15	3.132268E-17
3.100000E+03	2.809060E-15	3.147937E-17
3.110000E+03	2.832792E-15	3.163177E-17
3.120000E+03	2.856310E-15	3.177944E-17
3.130000E+03	2.879515E-15	3.192128E-17
3.140000E+03	2.902473E-15	3.205806E-17
3.150000E+03	2.925083E-15	3.218868E-17
3.160000E+03	2.947355E-15	3.231328E-17
3.170000E+03	2.969236E-15	3.243132E-17
3.180000E+03	2.990680E-15	3.254234E-17
3.190000E+03	3.011689E-15	3.264641E-17
3.200000E+03	3.032212E-15	3.274300E-17
3.210000E+03	3.052143E-15	3.283106E-17
3.220000E+03	3.071538E-15	3.291123E-17
3.230000E+03	3.090291E-15	3.298244E-17
3.240000E+03	3.108403E-15	3.304478E-17
3.250000E+03	3.125821E-15	3.309777E-17
3.260000E+03	3.142446E-15	3.314044E-17
3.270000E+03	3.158332E-15	3.317344E-17
3.280000E+03	3.173332E-15	3.319534E-17
3.290000E+03	3.187503E-15	3.320685E-17
3.300000E+03	3.200808E-15	3.320766E-17
3.310000E+03	3.213113E-15	3.319652E-17
3.320000E+03	3.224491E-15	3.317429E-17
3.330000E+03	3.234915E-15	3.314082E-17
3.340000E+03	3.244324E-15	3.309561E-17
3.350000E+03	3.252709E-15	3.303870E-17
3.360000E+03	3.260060E-15	3.297012E-17
3.370000E+03	3.266366E-15	3.288989E-17
3.380000E+03	3.271602E-15	3.279791E-17
3.390000E+03	3.275741E-15	3.269404E-17
3.400000E+03	3.278694E-15	3.257756E-17
3.410000E+03	3.280367E-15	3.244770E-17
3.420000E+03	3.280778E-15	3.230479E-17
3.430000E+03	3.279718E-15	3.214696E-17
3.440000E+03	3.277124E-15	3.197382E-17
3.450000E+03	3.272843E-15	3.178408E-17
3.460000E+03	3.266763E-15	3.157688E-17
3.470000E+03	3.258705E-15	3.135078E-17
3.480000E+03	3.248552E-15	3.110491E-17
3.490000E+03	3.236252E-15	3.083908E-17
3.500000E+03	3.221710E-15	3.055270E-17
3.510000E+03	3.204945E-15	3.024626E-17
3.520000E+03	3.185878E-15	2.991932E-17
3.530000E+03	3.164615E-15	2.957324E-17
3.540000E+03	3.141210E-15	2.920880E-17
3.550000E+03	3.115798E-15	2.882758E-17
3.560000E+03	3.088562E-15	2.843157E-17
3.570000E+03	3.059668E-15	2.802254E-17
3.580000E+03	3.029464E-15	2.760392E-17
3.590000E+03	2.998246E-15	2.717858E-17
3.600000E+03	2.966362E-15	2.674984E-17
3.610000E+03	2.934303E-15	2.632219E-17
3.620000E+03	2.902484E-15	2.589939E-17
3.630000E+03	2.871421E-15	2.548601E-17
3.640000E+03	2.841666E-15	2.508681E-17
3.650000E+03	2.813803E-15	2.470674E-17
3.660000E+03	2.788443E-15	2.435090E-17
3.670000E+03	2.766223E-15	2.402446E-17
3.680000E+03	2.747830E-15	2.373291E-17
3.690000E+03	2.733973E-15	2.348181E-17
3.700000E+03	2.725362E-15	2.327656E-17
3.710000E+03	2.722830E-15	2.312350E-17
3.720000E+03	2.727113E-15	2.302796E-17
3.730000E+03	2.739067E-15	2.299615E-17
3.740000E+03	2.759521E-15	2.303385E-17
3.750000E+03	2.789344E-15	2.314706E-17
3.760000E+03	2.829460E-15	2.334202E-17
3.770000E+03	2.880672E-15	2.362381E-17
3.780000E+03	2.943905E-15	2.399831E-17
3.790000E+03	3.020051E-15	2.447100E-17
3.800000E+03	3.109901E-15	2.504634E-17
3.810000E+03	3.214298E-15	2.572902E-17
3.820000E+03	3.333962E-15	2.652262E-17
3.830000E+03	3.469403E-15	2.742888E-17
3.840000E+03	3.620929E-15	2.844788E-17
3.850000E+03	3.788640E-15	2.957798E-17
3.860000E+03	3.972088E-15	3.081326E-17
3.870000E+03	4.170440E-15	3.214495E-17
3.880000E+03	4.382181E-15	3.355919E-17
3.890000E+03	4.605092E-15	3.503708E-17
3.900000E+03	4.836145E-15	3.655402E-17
3.910000E+03	5.071381E-15	3.807907E-17
3.920000E+03	5.306098E-15	3.957648E-17
3.930000E+03	5.534944E-15	4.100666E-17
3.940000E+03	5.752021E-15	4.232709E-17
3.950000E+03	5.951267E-15	4.349521E-17
3.960000E+03	6.126861E-15	4.447145E-17
3.970000E+03	6.273525E-15	4.522131E-17
3.980000E+03	6.386992E-15	4.571864E-17
3.990000E+03	6.464283E-15	4.594724E-17
4.000000E+03	6.503918E-15	4.590217E-17
4.010000E+03	6.505943E-15	4.558943E-17
4.020000E+03	6.472095E-15	4.502682E-17
4.030000E+03	6.405549E-15	4.424171E-17
4.040000E+03	6.310662E-15	4.326893E-17
4.050000E+03	6.192586E-15	4.214787E-17
4.060000E+03	6.056930E-15	4.091994E-17
4.070000E+03	5.909451E-15	3.962643E-17
4.080000E+03	5.755631E-15	3.830565E-17
4.090000E+03	5.600506E-15	3.699182E-17
4.100000E+03	5.448405E-15	3.571355E-17
4.110000E+03	5.302963E-15	3.449405E-17
4.120000E+03	5.167017E-15	3.335065E-17
4.130000E+03	5.042688E-15	3.229552E-17
4.140000E+03	4.931505E-15	3.133663E-17
4.150000E+03	4.834410E-15	3.047798E-17
4.160000E+03	4.751925E-15	2.972074E-17
4.170000E+03	4.684128E-15	2.906321E-17
4.180000E+03	4.630873E-15	2.850232E-17
4.190000E+03	4.591703E-15	2.803314E-17
4.200000E+03	4.566076E-15	2.765031E-17
4.210000E+03	4.553205E-15	2.734711E-17
4.220000E+03	4.552245E-15	2.711667E-17
4.230000E+03	4.562130E-15	2.695096E-17
4.240000E+03	4.581806E-15	2.684225E-17
4.250000E+03	4.609928E-15	2.678133E-17
4.260000E+03	4.645111E-15	2.675905E-17
4.270000E+03	4.685611E-15	2.676447E-17
4.280000E+03	4.729457E-15	2.678573E-17
4.290000E+03	4.774521E-15	2.681045E-17
4.300000E+03	4.818206E-15	2.682409E-17
4.310000E+03	4.857857E-15	2.681228E-17
4.320000E+03	4.890477E-15	2.675927E-17
4.330000E+03	4.913269E-15	2.665098E-17
4.340000E+03	4.923504E-15	2.647421E-17
4.350000E+03	4.918872E-15	2.621850E-17
4.360000E+03	4.897813E-15	2.587776E-17
4.370000E+03	4.859698E-15	2.545104E-17
4.380000E+03	4.805278E-15	2.494464E-17
4.390000E+03	4.736941E-15	2.437314E-17
4.400000E+03	4.659439E-15	2.376266E-17
4.410000E+03	4.579195E-15	2.314693E-17
4.420000E+03	4.503211E-15	2.256137E-17
4.430000E+03	4.438211E-15	2.203877E-17
4.440000E+03	4.390214E-15	2.160729E-17
4.450000E+03	4.364193E-15	2.128896E-17
4.460000E+03	4.364154E-15	2.110031E-17
4.470000E+03	4.393098E-15	2.105242E-17
4.480000E+03	4.453125E-15	2.115166E-17
4.490000E+03	4.545442E-15	2.139991E-17
4.500000E+03	4.670514E-15	2.179552E-17
4.510000E+03	4.828025E-15	2.233319E-17
4.520000E+03	5.016917E-15	2.300445E-17
4.530000E+03	5.235084E-15	2.379628E-17
4.540000E+03	5.479419E-15	2.469164E-17
4.550000E+03	5.745558E-15	2.566847E-17
4.560000E+03	6.027683E-15	2.669902E-17
4.570000E+03	6.318776E-15	2.775126E-17
4.580000E+03	6.610440E-15	2.878829E-17
4.590000E+03	6.893462E-15	2.977091E-17
4.600000E+03	7.158066E-15	3.065891E-17
4.610000E+03	7.394787E-15	3.141472E-17
4.620000E+03	7.594727E-15	3.200439E-17
4.630000E+03	7.750132E-15	3.239988E-17
4.640000E+03	7.855054E-15	3.258148E-17
4.650000E+03	7.905550E-15	3.253832E-17
4.660000E+03	7.899792E-15	3.226844E-17
4.670000E+03	7.838126E-15	3.177864E-17
4.680000E+03	7.723345E-15	3.108526E-17
4.690000E+03	7.560064E-15	3.021133E-17
4.700000E+03	7.354439E-15	2.918517E-17
4.710000E+03	7.114073E-15	2.803988E-17
4.720000E+03	6.847471E-15	2.681107E-17
4.730000E+03	6.563401E-15	2.553427E-17
4.740000E+03	6.270780E-15	2.424462E-17
4.750000E+03	5.977934E-15	2.297400E-17
4.760000E+03	5.692497E-15	2.175085E-17
4.770000E+03	5.421030E-15	2.059885E-17
4.780000E+03	5.168805E-15	1.953629E-17
4.790000E+03	4.939854E-15	1.857643E-17
4.800000E+03	4.736911E-15	1.772735E-17
4.810000E+03	4.561692E-15	1.699331E-17
4.820000E+03	4.414967E-15	1.637510E-17
4.830000E+03	4.296903E-15	1.587143E-17
4.840000E+03	4.207175E-15	1.547935E-17
4.850000E+03	4.145100E-15	1.519477E-17
4.860000E+03	4.109576E-15	1.501227E-17
4.870000E+03	4.099209E-15	1.492554E-17
4.880000E+03	4.112189E-15	1.492697E-17
4.890000E+03	4.146378E-15	1.500794E-17
4.900000E+03	4.198966E-15	1.515762E-17
4.910000E+03	4.266518E-15	1.536306E-17
4.920000E+03	4.344841E-15	1.560883E-17
4.930000E+03	4.429113E-15	1.587737E-17
4.940000E+03	4.513838E-15	1.614890E-17
4.950000E+03	4.593263E-15	1.640290E-17
4.960000E+03	4.661839E-15	1.661967E-17
4.970000E+03	4.714616E-15	1.678176E-17
4.980000E+03	4.747876E-15	1.687617E-17
4.990000E+03	4.759497E-15	1.689555E-17
5.000000E+03	4.749317E-15	1.683952E-17
5.010000E+03	4.718884E-15	1.671368E-17
5.020000E+03	4.671086E-15	1.652833E-17
5.030000E+03	4.609800E-15	1.629716E-17
5.040000E+03	4.539381E-15	1.603552E-17
5.050000E+03	4.464204E-15	1.575873E-17
5.060000E+03	4.388436E-15	1.548136E-17
5.070000E+03	4.315672E-15	1.521593E-17
5.080000E+03	4.248747E-15	1.497224E-17
5.090000E+03	4.189908E-15	1.475805E-17
5.100000E+03	4.140756E-15	1.457883E-17
5.110000E+03	4.102414E-15	1.443836E-17
5.120000E+03	4.075765E-15	1.433962E-17
5.130000E+03	4.061551E-15	1.428508E-17
5.140000E+03	4.060490E-15	1.427713E-17
5.150000E+03	4.073313E-15	1.431822E-17
5.160000E+03	4.100908E-15	1.441137E-17
5.170000E+03	4.144095E-15	1.455934E-17
5.180000E+03	4.203824E-15	1.476536E-17
5.190000E+03	4.280888E-15	1.503210E-17
5.200000E+03	4.375925E-15	1.536169E-17
5.210000E+03	4.489244E-15	1.575509E-17
5.220000E+03	4.620675E-15	1.621157E-17
5.230000E+03	4.769324E-15	1.672785E-17
5.240000E+03	4.933681E-15	1.729850E-17
5.250000E+03	5.111223E-15	1.791452E-17
5.260000E+03	5.298553E-15	1.856385E-17
5.270000E+03	5.491316E-15	1.923110E-17
5.280000E+03	5.684402E-15	1.989822E-17
5.290000E+03	5.872091E-15	2.054510E-17
5.300000E+03	6.048336E-15	2.115049E-17
5.310000E+03	6.207060E-15	2.169310E-17
5.320000E+03	6.342449E-15	2.215262E-17
5.330000E+03	6.449578E-15	2.251190E-17
5.340000E+03	6.524298E-15	2.275660E-17
5.350000E+03	6.563900E-15	2.287745E-17
5.360000E+03	6.567356E-15	2.287108E-17
5.370000E+03	6.535045E-15	2.273911E-17
5.380000E+03	6.469312E-15	2.249000E-17
5.390000E+03	6.373944E-15	2.213724E-17
5.400000E+03	6.254293E-15	2.169974E-17
5.410000E+03	6.116760E-15	2.119999E-17
5.420000E+03	5.968798E-15	2.066407E-17
5.430000E+03	5.818242E-15	2.011928E-17
5.440000E+03	5.673325E-15	1.959416E-17
5.450000E+03	5.542116E-15	1.911655E-17
5.460000E+03	5.432554E-15	1.871371E-17
5.470000E+03	5.351847E-15	1.841019E-17
5.480000E+03	5.306023E-15	1.822636E-17
5.490000E+03	5.298776E-15	1.817439E-17
5.500000E+03	5.328643E-15	1.824868E-17
5.510000E+03	5.387581E-15	1.842108E-17
5.520000E+03	5.463465E-15	1.864966E-17
5.530000E+03	5.542716E-15	1.888776E-17
5.540000E+03	5.612382E-15	1.909120E-17
5.550000E+03	5.660945E-15	1.922096E-17
5.560000E+03	5.679697E-15	1.924786E-17
5.570000E+03	5.662944E-15	1.915319E-17
5.580000E+03	5.608428E-15	1.893002E-17
5.590000E+03	5.517228E-15	1.858278E-17
5.600000E+03	5.393241E-15	1.812540E-17
5.610000E+03	5.242433E-15	1.757868E-17
5.620000E+03	5.072235E-15	1.696818E-17
5.630000E+03	4.890403E-15	1.632036E-17
5.640000E+03	4.704791E-15	1.566177E-17
5.650000E+03	4.522451E-15	1.501605E-17
5.660000E+03	4.349726E-15	1.440425E-17
5.670000E+03	4.191824E-15	1.384344E-17
5.680000E+03	4.052864E-15	1.334691E-17
5.690000E+03	3.936097E-15	1.292490E-17
5.700000E+03	3.843891E-15	1.258464E-17
5.710000E+03	3.777963E-15	1.233108E-17
5.720000E+03	3.739429E-15	1.216713E-17
5.730000E+03	3.728917E-15	1.209402E-17
5.740000E+03	3.746782E-15	1.211207E-17
5.750000E+03	3.792929E-15	1.222005E-17
5.760000E+03	3.866813E-15	1.241531E-17
5.770000E+03	3.967482E-15	1.269387E-17
5.780000E+03	4.093370E-15	1.304978E-17
5.790000E+03	4.242121E-15	1.347469E-17
5.800000E+03	4.410444E-15	1.395733E-17
5.810000E+03	4.594157E-15	1.448381E-17
5.820000E+03	4.788129E-15	1.503741E-17
5.830000E+03	4.986385E-15	1.559906E-17
5.840000E+03	5.182368E-15	1.614816E-17
5.850000E+03	5.369494E-15	1.666435E-17
5.860000E+03	5.541467E-15	1.712855E-17
5.870000E+03	5.692862E-15	1.752466E-17
5.880000E+03	5.819320E-15	1.784016E-17
5.890000E+03	5.917706E-15	1.806652E-17
5.900000E+03	5.986371E-15	1.819990E-17
5.910000E+03	6.024848E-15	1.824013E-17
5.920000E+03	6.034124E-15	1.819147E-17
5.930000E+03	6.015784E-15	1.805991E-17
5.940000E+03	5.972459E-15	1.785452E-17
5.950000E+03	5.907343E-15	1.758587E-17
5.960000E+03	5.823850E-15	1.726503E-17
5.970000E+03	5.725642E-15	1.690362E-17
5.980000E+03	5.616483E-15	1.651334E-17
5.990000E+03	5.499923E-15	1.610509E-17
6.000000E+03	5.379451E-15	1.568940E-17
6.010000E+03	5.258091E-15	1.527526E-17
6.020000E+03	5.138776E-15	1.487124E-17
6.030000E+03	5.023814E-15	1.448400E-17
6.040000E+03	4.915358E-15	1.411961E-17
6.050000E+03	4.814876E-15	1.378213E-17
6.060000E+03	4.723760E-15	1.347532E-17
6.070000E+03	4.642911E-15	1.320151E-17
6.080000E+03	4.572994E-15	1.296236E-17
6.090000E+03	4.514309E-15	1.275846E-17
6.100000E+03	4.467131E-15	1.259039E-17
6.110000E+03	4.431206E-15	1.245724E-17
6.120000E+03	4.406271E-15	1.235811E-17
6.130000E+03	4.391449E-15	1.229045E-17
6.140000E+03	4.385604E-15	1.225103E-17
6.150000E+03	4.387056E-15	1.223515E-17
6.160000E+03	4.393603E-15	1.223675E-17
6.170000E+03	4.402209E-15	1.224747E-17
6.180000E+03	4.409256E-15	1.225741E-17
6.190000E+03	4.410302E-15	1.225439E-17
6.200000E+03	4.400327E-15	1.222463E-17
6.210000E+03	4.374063E-15	1.215347E-17
6.220000E+03	4.326760E-15	1.202758E-17
6.230000E+03	4.255114E-15	1.183749E-17
6.240000E+03	4.158538E-15	1.158119E-17
6.250000E+03	4.042100E-15	1.127226E-17
6.260000E+03	3.916291E-15	1.093945E-17
6.270000E+03	3.792209E-15	1.061332E-17
6.280000E+03	3.679055E-15	1.031935E-17
6.290000E+03	3.583155E-15	1.007520E-17
6.300000E+03	3.508164E-15	9.891253E-18
6.310000E+03	3.455657E-15	9.772217E-18
6.320000E+03	3.425477E-15	9.718036E-18
6.330000E+03	3.416418E-15	9.725761E-18
6.340000E+03	3.426369E-15	9.789892E-18
6.350000E+03	3.452772E-15	9.903648E-18
6.360000E+03	3.492643E-15	1.005896E-17
6.370000E+03	3.542794E-15	1.024710E-17
6.380000E+03	3.599785E-15	1.045847E-17
6.390000E+03	3.660177E-15	1.068333E-17
6.400000E+03	3.720556E-15	1.091184E-17
6.410000E+03	3.777681E-15	1.113447E-17
6.420000E+03	3.828740E-15	1.134276E-17
6.430000E+03	3.871528E-15	1.152981E-17
6.440000E+03	3.904524E-15	1.169061E-17
6.450000E+03	3.926938E-15	1.182222E-17
6.460000E+03	3.938765E-15	1.192401E-17
6.470000E+03	3.940688E-15	1.199741E-17
6.480000E+03	3.933904E-15	1.204546E-17
6.490000E+03	3.920007E-15	1.207247E-17
6.500000E+03	3.901103E-15	1.208446E-17
6.510000E+03	3.879411E-15	1.208795E-17
6.520000E+03	3.857208E-15	1.208979E-17
6.530000E+03	3.836859E-15	1.209730E-17
6.540000E+03	3.820493E-15	1.211721E-17
6.550000E+03	3.809889E-15	1.215530E-17
6.560000E+03	3.806509E-15	1.221652E-17
6.570000E+03	3.811523E-15	1.230492E-17
6.580000E+03	3.825300E-15	1.242211E-17
6.590000E+03	3.847940E-15	1.256881E-17
6.600000E+03	3.878833E-15	1.274345E-17
6.610000E+03	3.916668E-15	1.294207E-17
6.620000E+03	3.959868E-15	1.315974E-17
6.630000E+03	4.006174E-15	1.338913E-17
6.640000E+03	4.053307E-15	1.362266E-17
6.650000E+03	4.098592E-15	1.385124E-17
6.660000E+03	4.139579E-15	1.406636E-17
6.670000E+03	4.173948E-15	1.425976E-17
6.680000E+03	4.199651E-15	1.442396E-17
6.690000E+03	4.215152E-15	1.455310E-17
6.700000E+03	4.219504E-15	1.464327E-17
6.710000E+03	4.212152E-15	1.469188E-17
6.720000E+03	4.193140E-15	1.469840E-17
6.730000E+03	4.162989E-15	1.466403E-17
6.740000E+03	4.122622E-15	1.459142E-17
6.750000E+03	4.073278E-15	1.448445E-17
6.760000E+03	4.016409E-15	1.434785E-17
6.770000E+03	3.953513E-15	1.418662E-17
6.780000E+03	3.886274E-15	1.400658E-17
6.790000E+03	3.816282E-15	1.381327E-17
6.800000E+03	3.744989E-15	1.361190E-17
6.810000E+03	3.673886E-15	1.340787E-17
6.820000E+03	3.604218E-15	1.320580E-17
6.830000E+03	3.537184E-15	1.301020E-17
6.840000E+03	3.473860E-15	1.282519E-17
6.850000E+03	3.415203E-15	1.265454E-17
6.860000E+03	3.362120E-15	1.250183E-17
6.870000E+03	3.315218E-15	1.236960E-17
6.880000E+03	3.275179E-15	1.226066E-17
6.890000E+03	3.242514E-15	1.217722E-17
6.900000E+03	3.217556E-15	1.212082E-17
6.910000E+03	3.200633E-15	1.209299E-17
6.920000E+03	3.191876E-15	1.209451E-17
6.930000E+03	3.191200E-15	1.212532E-17
6.940000E+03	3.198404E-15	1.218490E-17
6.950000E+03	3.213155E-15	1.227220E-17
6.960000E+03	3.234781E-15	1.238486E-17
6.970000E+03	3.262443E-15	1.251982E-17
6.980000E+03	3.295059E-15	1.267304E-17
6.990000E+03	3.331319E-15	1.283957E-17
7.000000E+03	3.369656E-15	1.301340E-17
7.010000E+03	3.408542E-15	1.318863E-17
7.020000E+03	3.446107E-15	1.335799E-17
7.030000E+03	3.480694E-15	1.351496E-17
7.040000E+03	3.510609E-15	1.365289E-17
7.050000E+03	3.534430E-15	1.376612E-17
7.060000E+03	3.551087E-15	1.385035E-17
7.070000E+03	3.559736E-15	1.390217E-17
7.080000E+03	3.559931E-15	1.391972E-17
7.090000E+03	3.551863E-15	1.390364E-17
7.100000E+03	3.535923E-15	1.385538E-17
7.110000E+03	3.512869E-15	1.377786E-17
7.120000E+03	3.483900E-15	1.367575E-17
7.130000E+03	3.450284E-15	1.355403E-17
7.140000E+03	3.413540E-15	1.341869E-17
7.150000E+03	3.375047E-15	1.327518E-17
7.160000E+03	3.336240E-15	1.312921E-17
7.170000E+03	3.298185E-15	1.298502E-17
7.180000E+03	3.261943E-15	1.284688E-17
7.190000E+03	3.228327E-15	1.271805E-17
7.200000E+03	3.197692E-15	1.260000E-17
7.210000E+03	3.170284E-15	1.249377E-17
7.220000E+03	3.146182E-15	1.239972E-17
7.230000E+03	3.125211E-15	1.231722E-17
7.240000E+03	3.106989E-15	1.224482E-17
7.250000E+03	3.091179E-15	1.218124E-17
7.260000E+03	3.077269E-15	1.212451E-17
7.270000E+03	3.064824E-15	1.207296E-17
7.280000E+03	3.053525E-15	1.202537E-17
7.290000E+03	3.042994E-15	1.198030E-17
7.300000E+03	3.033080E-15	1.193721E-17
7.310000E+03	3.023600E-15	1.189542E-17
7.320000E+03	3.014529E-15	1.185487E-17
7.330000E+03	3.006061E-15	1.181640E-17
7.340000E+03	2.998186E-15	1.177998E-17
7.350000E+03	2.991191E-15	1.174682E-17
7.360000E+03	2.985160E-15	1.171727E-17
7.370000E+03	2.980263E-15	1.169206E-17
7.380000E+03	2.976593E-15	1.167159E-17
7.390000E+03	2.973991E-15	1.165530E-17
7.400000E+03	2.972357E-15	1.164283E-17
7.410000E+03	2.971302E-15	1.163271E-17
7.420000E+03	2.970349E-15	1.162314E-17
7.430000E+03	2.968816E-15	1.161149E-17
7.440000E+03	2.965924E-15	1.159480E-17
7.450000E+03	2.960929E-15	1.157021E-17
7.460000E+03	2.952912E-15	1.153421E-17
7.470000E+03	2.941197E-15	1.148423E-17
7.480000E+03	2.925201E-15	1.141807E-17
7.490000E+03	2.904717E-15	1.133498E-17
7.500000E+03	2.879665E-15	1.123466E-17
7.510000E+03	2.850239E-15	1.111790E-17
7.520000E+03	2.816978E-15	1.098680E-17
7.530000E+03	2.780648E-15	1.084438E-17
7.540000E+03	2.742115E-15	1.069399E-17
7.550000E+03	2.702478E-15	1.053994E-17
7.560000E+03	2.662688E-15	1.038592E-17
7.570000E+03	2.623945E-15	1.023662E-17
7.580000E+03	2.587198E-15	1.009573E-17
7.590000E+03	2.553363E-15	9.966825E-18
7.600000E+03	2.523141E-15	9.852658E-18
7.610000E+03	2.497152E-15	9.755672E-18
7.620000E+03	2.475728E-15	9.677183E-18
7.630000E+03	2.459045E-15	9.617924E-18
7.640000E+03	2.447017E-15	9.577602E-18
7.650000E+03	2.439502E-15	9.555720E-18
7.660000E+03	2.436118E-15	9.550839E-18
7.670000E+03	2.436584E-15	9.561929E-18
7.680000E+03	2.440265E-15	9.586572E-18
7.690000E+03	2.446876E-15	9.623719E-18
7.700000E+03	2.455903E-15	9.671428E-18
7.710000E+03	2.466851E-15	9.727834E-18
7.720000E+03	2.479378E-15	9.791654E-18
7.730000E+03	2.493106E-15	9.861483E-18
7.740000E+03	2.507690E-15	9.936019E-18
7.750000E+03	2.522802E-15	1.001404E-17
7.760000E+03	2.538207E-15	1.009469E-17
