#wls	flux	fluxerr
1.600000E+03	5.318713E-16	2.366754E-17
1.640000E+03	5.461304E-16	2.415579E-17
1.680000E+03	5.614807E-16	2.468090E-17
1.720000E+03	5.779608E-16	2.524331E-17
1.760000E+03	5.956603E-16	2.584560E-17
1.800000E+03	6.147204E-16	2.649239E-17
1.840000E+03	6.350753E-16	2.717923E-17
1.880000E+03	6.569174E-16	2.791266E-17
1.920000E+03	6.802858E-16	2.869246E-17
1.960000E+03	7.052205E-16	2.951832E-17
2.000000E+03	7.317145E-16	3.038784E-17
2.040000E+03	7.598149E-16	3.130081E-17
2.080000E+03	7.894729E-16	3.225294E-17
2.120000E+03	8.205469E-16	3.323618E-17
2.160000E+03	8.530533E-16	3.424894E-17
2.200000E+03	8.868193E-16	3.528202E-17
2.240000E+03	9.217332E-16	3.632879E-17
2.280000E+03	9.577940E-16	3.738706E-17
2.320000E+03	9.951111E-16	3.845884E-17
2.360000E+03	1.033953E-15	3.955199E-17
2.400000E+03	1.074652E-15	4.067629E-17
2.440000E+03	1.117559E-15	4.184153E-17
2.480000E+03	1.163189E-15	4.306307E-17
2.520000E+03	1.211945E-15	4.435095E-17
2.560000E+03	1.264360E-15	4.571920E-17
2.600000E+03	1.320864E-15	4.717710E-17
2.640000E+03	1.381994E-15	4.873666E-17
2.680000E+03	1.448256E-15	5.040765E-17
2.720000E+03	1.520236E-15	5.220144E-17
2.760000E+03	1.598620E-15	5.413136E-17
2.800000E+03	1.684162E-15	5.621145E-17
2.840000E+03	1.777758E-15	5.845866E-17
2.880000E+03	1.880579E-15	6.089662E-17
2.920000E+03	1.993902E-15	6.354965E-17
2.960000E+03	2.119515E-15	6.645494E-17
3.000000E+03	2.259356E-15	6.965017E-17
3.010000E+03	2.296877E-15	7.050165E-17
3.020000E+03	2.335446E-15	7.137401E-17
3.030000E+03	2.375102E-15	7.226790E-17
3.040000E+03	2.415990E-15	7.318731E-17
3.050000E+03	2.458100E-15	7.413133E-17
3.060000E+03	2.501476E-15	7.510070E-17
3.070000E+03	2.546217E-15	7.609788E-17
3.080000E+03	2.592316E-15	7.712200E-17
3.090000E+03	2.639824E-15	7.817393E-17
3.100000E+03	2.688901E-15	7.925779E-17
3.110000E+03	2.739492E-15	8.037120E-17
3.120000E+03	2.791706E-15	8.151669E-17
3.130000E+03	2.845545E-15	8.269353E-17
3.140000E+03	2.901237E-15	8.390763E-17
3.150000E+03	2.958673E-15	8.515493E-17
3.160000E+03	3.017972E-15	8.643806E-17
3.170000E+03	3.079252E-15	8.775956E-17
3.180000E+03	3.142580E-15	8.912033E-17
3.190000E+03	3.207900E-15	9.051792E-17
3.200000E+03	3.275456E-15	9.195818E-17
3.210000E+03	3.345188E-15	9.343845E-17
3.220000E+03	3.417218E-15	9.496108E-17
3.230000E+03	3.491545E-15	9.652495E-17
3.240000E+03	3.568280E-15	9.813206E-17
3.250000E+03	3.647475E-15	9.978266E-17
3.260000E+03	3.729170E-15	1.014767E-16
3.270000E+03	3.813332E-15	1.032121E-16
3.280000E+03	3.900045E-15	1.049900E-16
3.290000E+03	3.989313E-15	1.068092E-16
3.300000E+03	4.081057E-15	1.086664E-16
3.310000E+03	4.175306E-15	1.105611E-16
3.320000E+03	4.271930E-15	1.124888E-16
3.330000E+03	4.370901E-15	1.144476E-16
3.340000E+03	4.472018E-15	1.164311E-16
3.350000E+03	4.575104E-15	1.184335E-16
3.360000E+03	4.679930E-15	1.204482E-16
3.370000E+03	4.786206E-15	1.224666E-16
3.380000E+03	4.893572E-15	1.244790E-16
3.390000E+03	5.001517E-15	1.264718E-16
3.400000E+03	5.109583E-15	1.284331E-16
3.410000E+03	5.216981E-15	1.303431E-16
3.420000E+03	5.323105E-15	1.321870E-16
3.430000E+03	5.426954E-15	1.339404E-16
3.440000E+03	5.527583E-15	1.355813E-16
3.450000E+03	5.623946E-15	1.370855E-16
3.460000E+03	5.714832E-15	1.384255E-16
3.470000E+03	5.799172E-15	1.395780E-16
3.480000E+03	5.875675E-15	1.405153E-16
3.490000E+03	5.943014E-15	1.412093E-16
3.500000E+03	6.000062E-15	1.416376E-16
3.510000E+03	6.045618E-15	1.417768E-16
3.520000E+03	6.078675E-15	1.416089E-16
3.530000E+03	6.098139E-15	1.411143E-16
3.540000E+03	6.103307E-15	1.402832E-16
3.550000E+03	6.093445E-15	1.391057E-16
3.560000E+03	6.068222E-15	1.375812E-16
3.570000E+03	6.027339E-15	1.357105E-16
3.580000E+03	5.970826E-15	1.335014E-16
3.590000E+03	5.899386E-15	1.309773E-16
3.600000E+03	5.813857E-15	1.281635E-16
3.610000E+03	5.715866E-15	1.251026E-16
3.620000E+03	5.607532E-15	1.218466E-16
3.630000E+03	5.491086E-15	1.184486E-16
3.640000E+03	5.368881E-15	1.149630E-16
3.650000E+03	5.243620E-15	1.114501E-16
3.660000E+03	5.117798E-15	1.079641E-16
3.670000E+03	4.993997E-15	1.045594E-16
3.680000E+03	4.874774E-15	1.012883E-16
3.690000E+03	4.762711E-15	9.820189E-17
3.700000E+03	4.660145E-15	9.534477E-17
3.710000E+03	4.569465E-15	9.276093E-17
3.720000E+03	4.492798E-15	9.048761E-17
3.730000E+03	4.432150E-15	8.855826E-17
3.740000E+03	4.389288E-15	8.700032E-17
3.750000E+03	4.365938E-15	8.583922E-17
3.760000E+03	4.363691E-15	8.509672E-17
3.770000E+03	4.383969E-15	8.479021E-17
3.780000E+03	4.428185E-15	8.493602E-17
3.790000E+03	4.497756E-15	8.554967E-17
3.800000E+03	4.593895E-15	8.664189E-17
3.810000E+03	4.717581E-15	8.821822E-17
3.820000E+03	4.869872E-15	9.028513E-17
3.830000E+03	5.051216E-15	9.283712E-17
3.840000E+03	5.261547E-15	9.585911E-17
3.850000E+03	5.500405E-15	9.932892E-17
3.860000E+03	5.766305E-15	1.032064E-16
3.870000E+03	6.056754E-15	1.074344E-16
3.880000E+03	6.368172E-15	1.119383E-16
3.890000E+03	6.695404E-15	1.166186E-16
3.900000E+03	7.032039E-15	1.213571E-16
3.910000E+03	7.370408E-15	1.260186E-16
3.920000E+03	7.701802E-15	1.304549E-16
3.930000E+03	8.016824E-15	1.345120E-16
3.940000E+03	8.305975E-15	1.380402E-16
3.950000E+03	8.560517E-15	1.409085E-16
3.960000E+03	8.772707E-15	1.430074E-16
3.970000E+03	8.936355E-15	1.442576E-16
3.980000E+03	9.047898E-15	1.446256E-16
3.990000E+03	9.105884E-15	1.441135E-16
4.000000E+03	9.111385E-15	1.427638E-16
4.010000E+03	9.067857E-15	1.406551E-16
4.020000E+03	8.980621E-15	1.378925E-16
4.030000E+03	8.856634E-15	1.346025E-16
4.040000E+03	8.703489E-15	1.309166E-16
4.050000E+03	8.529384E-15	1.269705E-16
4.060000E+03	8.342303E-15	1.228918E-16
4.070000E+03	8.149478E-15	1.187918E-16
4.080000E+03	7.957443E-15	1.147673E-16
4.090000E+03	7.771867E-15	1.108989E-16
4.100000E+03	7.596850E-15	1.072414E-16
4.110000E+03	7.435599E-15	1.038346E-16
4.120000E+03	7.290509E-15	1.007054E-16
4.130000E+03	7.162448E-15	9.785815E-17
4.140000E+03	7.051741E-15	9.528959E-17
4.150000E+03	6.958060E-15	9.298758E-17
4.160000E+03	6.880281E-15	9.092971E-17
4.170000E+03	6.816886E-15	8.908915E-17
4.180000E+03	6.766094E-15	8.743669E-17
4.190000E+03	6.725769E-15	8.593968E-17
4.200000E+03	6.693662E-15	8.456532E-17
4.210000E+03	6.667567E-15	8.328275E-17
4.220000E+03	6.645371E-15	8.206353E-17
4.230000E+03	6.625031E-15	8.088134E-17
4.240000E+03	6.604712E-15	7.971349E-17
4.250000E+03	6.582836E-15	7.854146E-17
4.260000E+03	6.557974E-15	7.734928E-17
4.270000E+03	6.528853E-15	7.612360E-17
4.280000E+03	6.494765E-15	7.485825E-17
4.290000E+03	6.455289E-15	7.355063E-17
4.300000E+03	6.410318E-15	7.220186E-17
4.310000E+03	6.360037E-15	7.081633E-17
4.320000E+03	6.304903E-15	6.940124E-17
4.330000E+03	6.245679E-15	6.796684E-17
4.340000E+03	6.182683E-15	6.651815E-17
4.350000E+03	6.116649E-15	6.506415E-17
4.360000E+03	6.047909E-15	6.360909E-17
4.370000E+03	5.975353E-15	6.214198E-17
4.380000E+03	5.898730E-15	6.066121E-17
4.390000E+03	5.819598E-15	5.918362E-17
4.400000E+03	5.740711E-15	5.773732E-17
4.410000E+03	5.668209E-15	5.638290E-17
4.420000E+03	5.609387E-15	5.518960E-17
4.430000E+03	5.569729E-15	5.420608E-17
4.440000E+03	5.553975E-15	5.347163E-17
4.450000E+03	5.565889E-15	5.301457E-17
4.460000E+03	5.607403E-15	5.284470E-17
4.470000E+03	5.679443E-15	5.296198E-17
4.480000E+03	5.781801E-15	5.335592E-17
4.490000E+03	5.912599E-15	5.400122E-17
4.500000E+03	6.068811E-15	5.486326E-17
4.510000E+03	6.246375E-15	5.589962E-17
4.520000E+03	6.439811E-15	5.705705E-17
4.530000E+03	6.642708E-15	5.827633E-17
4.540000E+03	6.848060E-15	5.949549E-17
4.550000E+03	7.048233E-15	6.064958E-17
4.560000E+03	7.235540E-15	6.167575E-17
4.570000E+03	7.402639E-15	6.251644E-17
4.580000E+03	7.542693E-15	6.312043E-17
4.590000E+03	7.649719E-15	6.344539E-17
4.600000E+03	7.719157E-15	6.346208E-17
4.610000E+03	7.747336E-15	6.314940E-17
4.620000E+03	7.732281E-15	6.250044E-17
4.630000E+03	7.673636E-15	6.152129E-17
4.640000E+03	7.572567E-15	6.022960E-17
4.650000E+03	7.431487E-15	5.865203E-17
4.660000E+03	7.255069E-15	5.683174E-17
4.670000E+03	7.048979E-15	5.481799E-17
4.680000E+03	6.820107E-15	5.266775E-17
4.690000E+03	6.576095E-15	5.044188E-17
4.700000E+03	6.324478E-15	4.819855E-17
4.710000E+03	6.072759E-15	4.599403E-17
4.720000E+03	5.827161E-15	4.387343E-17
4.730000E+03	5.591331E-15	4.186122E-17
4.740000E+03	5.367740E-15	3.997222E-17
4.750000E+03	5.156584E-15	3.820426E-17
4.760000E+03	4.953812E-15	3.652405E-17
4.770000E+03	4.755053E-15	3.489678E-17
4.780000E+03	4.557342E-15	3.329867E-17
4.790000E+03	4.358996E-15	3.171577E-17
4.800000E+03	4.167701E-15	3.020233E-17
4.810000E+03	3.993746E-15	2.883067E-17
4.820000E+03	3.843330E-15	2.764271E-17
4.830000E+03	3.720418E-15	2.666398E-17
4.840000E+03	3.627242E-15	2.590747E-17
4.850000E+03	3.562551E-15	2.536138E-17
4.860000E+03	3.523874E-15	2.500560E-17
4.870000E+03	3.508401E-15	2.481797E-17
4.880000E+03	3.512613E-15	2.477172E-17
4.890000E+03	3.532563E-15	2.483745E-17
4.900000E+03	3.564208E-15	2.498548E-17
4.910000E+03	3.603251E-15	2.518472E-17
4.920000E+03	3.645580E-15	2.540576E-17
4.930000E+03	3.687511E-15	2.562246E-17
4.940000E+03	3.726161E-15	2.581458E-17
4.950000E+03	3.759645E-15	2.596899E-17
4.960000E+03	3.786964E-15	2.607885E-17
4.970000E+03	3.808184E-15	2.614469E-17
4.980000E+03	3.824194E-15	2.617274E-17
4.990000E+03	3.836563E-15	2.617377E-17
5.000000E+03	3.847128E-15	2.616031E-17
5.010000E+03	3.858109E-15	2.614730E-17
5.020000E+03	3.871531E-15	2.614820E-17
5.030000E+03	3.889000E-15	2.617347E-17
5.040000E+03	3.911872E-15	2.623176E-17
5.050000E+03	3.941079E-15	2.632872E-17
5.060000E+03	3.976921E-15	2.646574E-17
5.070000E+03	4.019333E-15	2.664171E-17
5.080000E+03	4.068036E-15	2.685413E-17
5.090000E+03	4.122432E-15	2.709841E-17
5.100000E+03	4.181852E-15	2.736957E-17
5.110000E+03	4.245700E-15	2.766318E-17
5.120000E+03	4.313362E-15	2.797475E-17
5.130000E+03	4.384520E-15	2.830180E-17
5.140000E+03	4.458782E-15	2.864141E-17
5.150000E+03	4.536195E-15	2.899355E-17
5.160000E+03	4.616796E-15	2.935812E-17
5.170000E+03	4.700733E-15	2.973575E-17
5.180000E+03	4.788209E-15	3.012741E-17
5.190000E+03	4.879307E-15	3.053333E-17
5.200000E+03	4.973961E-15	3.095283E-17
5.210000E+03	5.071778E-15	3.138324E-17
5.220000E+03	5.172182E-15	3.182088E-17
5.230000E+03	5.273954E-15	3.225823E-17
5.240000E+03	5.375659E-15	3.268673E-17
5.250000E+03	5.475440E-15	3.309548E-17
5.260000E+03	5.571177E-15	3.347236E-17
5.270000E+03	5.660595E-15	3.380469E-17
5.280000E+03	5.741509E-15	3.408071E-17
5.290000E+03	5.811724E-15	3.428894E-17
5.300000E+03	5.869612E-15	3.442164E-17
5.310000E+03	5.913745E-15	3.447244E-17
5.320000E+03	5.943091E-15	3.443753E-17
5.330000E+03	5.957084E-15	3.431588E-17
5.340000E+03	5.955515E-15	3.410858E-17
5.350000E+03	5.938287E-15	3.381733E-17
5.360000E+03	5.905966E-15	3.344754E-17
5.370000E+03	5.858967E-15	3.300360E-17
5.380000E+03	5.798041E-15	3.249162E-17
5.390000E+03	5.724330E-15	3.191969E-17
5.400000E+03	5.639090E-15	3.129627E-17
5.410000E+03	5.543629E-15	3.062982E-17
5.420000E+03	5.439999E-15	2.993261E-17
5.430000E+03	5.330504E-15	2.921797E-17
5.440000E+03	5.217777E-15	2.850066E-17
5.450000E+03	5.106038E-15	2.780379E-17
5.460000E+03	4.999895E-15	2.715220E-17
5.470000E+03	4.904722E-15	2.657440E-17
5.480000E+03	4.827108E-15	2.610453E-17
5.490000E+03	4.772044E-15	2.576781E-17
5.500000E+03	4.740195E-15	2.556626E-17
5.510000E+03	4.725937E-15	2.546822E-17
5.520000E+03	4.720960E-15	2.542791E-17
5.530000E+03	4.716537E-15	2.539751E-17
5.540000E+03	4.706042E-15	2.534060E-17
5.550000E+03	4.684505E-15	2.522964E-17
5.560000E+03	4.648698E-15	2.504641E-17
5.570000E+03	4.596947E-15	2.478101E-17
5.580000E+03	4.529156E-15	2.443195E-17
5.590000E+03	4.446459E-15	2.400441E-17
5.600000E+03	4.351384E-15	2.351108E-17
5.610000E+03	4.246982E-15	2.296759E-17
5.620000E+03	4.136789E-15	2.239230E-17
5.630000E+03	4.024868E-15	2.180656E-17
5.640000E+03	3.915126E-15	2.123105E-17
5.650000E+03	3.811183E-15	2.068503E-17
5.660000E+03	3.716356E-15	2.018624E-17
5.670000E+03	3.633594E-15	1.975052E-17
5.680000E+03	3.565262E-15	1.939062E-17
5.690000E+03	3.513056E-15	1.911570E-17
5.700000E+03	3.478250E-15	1.893257E-17
5.710000E+03	3.461680E-15	1.884569E-17
5.720000E+03	3.463570E-15	1.885606E-17
5.730000E+03	3.483638E-15	1.896191E-17
5.740000E+03	3.521415E-15	1.916032E-17
5.750000E+03	3.575783E-15	1.944476E-17
5.760000E+03	3.645163E-15	1.980610E-17
5.770000E+03	3.727674E-15	2.023351E-17
5.780000E+03	3.820981E-15	2.071362E-17
5.790000E+03	3.922218E-15	2.123020E-17
5.800000E+03	4.028154E-15	2.176507E-17
5.810000E+03	4.135323E-15	2.229886E-17
5.820000E+03	4.239859E-15	2.281022E-17
5.830000E+03	4.338029E-15	2.327872E-17
5.840000E+03	4.426399E-15	2.368581E-17
5.850000E+03	4.501973E-15	2.401558E-17
5.860000E+03	4.562459E-15	2.425619E-17
5.870000E+03	4.606344E-15	2.440025E-17
5.880000E+03	4.633171E-15	2.444624E-17
5.890000E+03	4.643107E-15	2.439610E-17
5.900000E+03	4.637101E-15	2.425604E-17
5.910000E+03	4.616673E-15	2.403532E-17
5.920000E+03	4.583689E-15	2.374498E-17
5.930000E+03	4.540191E-15	2.339688E-17
5.940000E+03	4.488131E-15	2.300234E-17
5.950000E+03	4.429501E-15	2.257273E-17
5.960000E+03	4.366062E-15	2.211806E-17
5.970000E+03	4.299343E-15	2.164706E-17
5.980000E+03	4.230565E-15	2.116670E-17
5.990000E+03	4.160777E-15	2.068301E-17
6.000000E+03	4.090568E-15	2.019961E-17
6.010000E+03	4.020604E-15	1.972042E-17
6.020000E+03	3.950903E-15	1.924612E-17
6.030000E+03	3.881423E-15	1.877710E-17
6.040000E+03	3.811969E-15	1.831301E-17
6.050000E+03	3.741921E-15	1.785151E-17
6.060000E+03	3.670639E-15	1.739022E-17
6.070000E+03	3.597502E-15	1.692690E-17
6.080000E+03	3.522259E-15	1.646114E-17
6.090000E+03	3.444789E-15	1.599309E-17
6.100000E+03	3.365746E-15	1.552646E-17
6.110000E+03	3.286424E-15	1.506775E-17
6.120000E+03	3.208695E-15	1.462591E-17
6.130000E+03	3.135005E-15	1.421226E-17
6.140000E+03	3.068420E-15	1.384062E-17
6.150000E+03	3.012098E-15	1.352500E-17
6.160000E+03	2.968956E-15	1.327812E-17
6.170000E+03	2.941349E-15	1.311015E-17
6.180000E+03	2.930977E-15	1.302838E-17
6.190000E+03	2.938313E-15	1.303474E-17
6.200000E+03	2.960516E-15	1.311633E-17
6.210000E+03	2.993399E-15	1.325453E-17
6.220000E+03	3.030427E-15	1.342061E-17
6.230000E+03	3.059086E-15	1.355941E-17
6.240000E+03	3.068677E-15	1.362353E-17
6.250000E+03	3.057847E-15	1.360657E-17
6.260000E+03	3.032264E-15	1.353299E-17
6.270000E+03	3.000642E-15	1.344091E-17
6.280000E+03	2.971737E-15	1.336903E-17
6.290000E+03	2.950626E-15	1.334008E-17
6.300000E+03	2.940049E-15	1.336674E-17
6.310000E+03	2.941225E-15	1.345518E-17
6.320000E+03	2.953561E-15	1.360354E-17
6.330000E+03	2.975345E-15	1.380490E-17
6.340000E+03	3.004375E-15	1.405000E-17
6.350000E+03	3.037907E-15	1.432680E-17
6.360000E+03	3.073006E-15	1.462200E-17
6.370000E+03	3.106992E-15	1.492309E-17
6.380000E+03	3.137114E-15	1.521670E-17
6.390000E+03	3.161155E-15	1.549146E-17
6.400000E+03	3.177625E-15	1.573874E-17
6.410000E+03	3.185619E-15	1.595227E-17
6.420000E+03	3.184966E-15	1.612920E-17
6.430000E+03	3.176410E-15	1.627121E-17
6.440000E+03	3.160831E-15	1.638081E-17
6.450000E+03	3.139640E-15	1.646346E-17
6.460000E+03	3.114677E-15	1.652720E-17
6.470000E+03	3.087671E-15	1.657996E-17
6.480000E+03	3.060466E-15	1.663075E-17
6.490000E+03	3.034689E-15	1.668788E-17
6.500000E+03	3.011714E-15	1.675874E-17
6.510000E+03	2.992630E-15	1.684951E-17
6.520000E+03	2.978329E-15	1.696556E-17
6.530000E+03	2.969449E-15	1.711108E-17
6.540000E+03	2.966311E-15	1.728861E-17
6.550000E+03	2.968955E-15	1.749912E-17
6.560000E+03	2.977074E-15	1.774156E-17
6.570000E+03	2.990259E-15	1.801417E-17
6.580000E+03	3.007869E-15	1.831368E-17
6.590000E+03	3.029008E-15	1.863507E-17
6.600000E+03	3.052722E-15	1.897273E-17
6.610000E+03	3.077945E-15	1.932011E-17
6.620000E+03	3.103389E-15	1.966896E-17
6.630000E+03	3.127864E-15	2.001138E-17
6.640000E+03	3.150150E-15	2.033897E-17
6.650000E+03	3.169175E-15	2.064405E-17
6.660000E+03	3.183818E-15	2.091838E-17
6.670000E+03	3.193276E-15	2.115563E-17
6.680000E+03	3.196934E-15	2.135060E-17
6.690000E+03	3.194392E-15	2.149945E-17
6.700000E+03	3.185464E-15	2.159979E-17
6.710000E+03	3.170171E-15	2.165067E-17
6.720000E+03	3.148846E-15	2.165337E-17
6.730000E+03	3.121932E-15	2.161005E-17
6.740000E+03	3.090058E-15	2.152433E-17
6.750000E+03	3.053840E-15	2.139994E-17
6.760000E+03	3.014233E-15	2.124313E-17
6.770000E+03	2.971933E-15	2.105855E-17
6.780000E+03	2.927904E-15	2.085288E-17
6.790000E+03	2.882915E-15	2.063161E-17
6.800000E+03	2.837794E-15	2.040078E-17
6.810000E+03	2.793306E-15	2.016608E-17
6.820000E+03	2.750163E-15	1.993294E-17
6.830000E+03	2.709085E-15	1.970692E-17
6.840000E+03	2.670658E-15	1.949267E-17
6.850000E+03	2.635515E-15	1.929519E-17
6.860000E+03	2.604001E-15	1.911744E-17
6.870000E+03	2.576585E-15	1.896325E-17
6.880000E+03	2.553529E-15	1.883492E-17
6.890000E+03	2.535031E-15	1.873426E-17
6.900000E+03	2.521168E-15	1.866214E-17
6.910000E+03	2.512067E-15	1.861974E-17
6.920000E+03	2.507467E-15	1.860534E-17
6.930000E+03	2.507304E-15	1.861859E-17
6.940000E+03	2.511187E-15	1.865668E-17
6.950000E+03	2.518702E-15	1.871657E-17
6.960000E+03	2.529419E-15	1.879505E-17
6.970000E+03	2.542749E-15	1.888772E-17
6.980000E+03	2.558061E-15	1.898980E-17
6.990000E+03	2.574680E-15	1.909622E-17
7.000000E+03	2.591905E-15	1.920171E-17
7.010000E+03	2.608995E-15	1.930070E-17
7.020000E+03	2.625162E-15	1.938734E-17
7.030000E+03	2.639810E-15	1.945724E-17
7.040000E+03	2.652101E-15	1.950428E-17
7.050000E+03	2.661585E-15	1.952528E-17
7.060000E+03	2.667594E-15	1.951556E-17
7.070000E+03	2.669796E-15	1.947293E-17
7.080000E+03	2.667823E-15	1.939507E-17
7.090000E+03	2.661518E-15	1.928125E-17
7.100000E+03	2.650940E-15	1.913238E-17
7.110000E+03	2.636143E-15	1.894935E-17
7.120000E+03	2.617514E-15	1.873550E-17
7.130000E+03	2.595550E-15	1.849495E-17
7.140000E+03	2.570961E-15	1.823330E-17
7.150000E+03	2.544456E-15	1.795604E-17
7.160000E+03	2.516762E-15	1.766878E-17
7.170000E+03	2.488686E-15	1.737754E-17
7.180000E+03	2.460791E-15	1.708654E-17
7.190000E+03	2.433721E-15	1.680050E-17
7.200000E+03	2.407869E-15	1.652226E-17
7.210000E+03	2.383510E-15	1.625385E-17
7.220000E+03	2.360838E-15	1.599663E-17
7.230000E+03	2.339901E-15	1.575099E-17
7.240000E+03	2.320634E-15	1.551651E-17
7.250000E+03	2.302921E-15	1.529246E-17
7.260000E+03	2.286597E-15	1.507780E-17
7.270000E+03	2.271471E-15	1.487135E-17
7.280000E+03	2.257385E-15	1.467215E-17
7.290000E+03	2.244070E-15	1.447861E-17
7.300000E+03	2.231440E-15	1.429032E-17
7.310000E+03	2.219315E-15	1.410632E-17
7.320000E+03	2.207533E-15	1.392578E-17
7.330000E+03	2.196028E-15	1.374851E-17
7.340000E+03	2.184600E-15	1.357352E-17
7.350000E+03	2.173172E-15	1.340062E-17
7.360000E+03	2.161679E-15	1.322968E-17
7.370000E+03	2.149959E-15	1.306002E-17
7.380000E+03	2.137963E-15	1.289167E-17
7.390000E+03	2.125490E-15	1.272376E-17
7.400000E+03	2.112528E-15	1.255655E-17
7.410000E+03	2.098903E-15	1.238938E-17
7.420000E+03	2.084607E-15	1.222255E-17
7.430000E+03	2.069513E-15	1.205567E-17
7.440000E+03	2.053577E-15	1.188882E-17
7.450000E+03	2.036840E-15	1.172257E-17
7.460000E+03	2.019266E-15	1.155702E-17
7.470000E+03	2.001027E-15	1.139345E-17
7.480000E+03	1.982133E-15	1.123209E-17
7.490000E+03	1.962817E-15	1.107423E-17
7.500000E+03	1.943217E-15	1.092039E-17
7.510000E+03	1.923670E-15	1.077221E-17
7.520000E+03	1.904412E-15	1.063074E-17
7.530000E+03	1.885741E-15	1.049736E-17
7.540000E+03	1.867977E-15	1.037355E-17
7.550000E+03	1.851369E-15	1.026041E-17
7.560000E+03	1.836204E-15	1.015926E-17
7.570000E+03	1.822513E-15	1.007000E-17
7.580000E+03	1.810274E-15	9.992283E-18
7.590000E+03	1.799367E-15	9.925224E-18
7.600000E+03	1.789527E-15	9.867173E-18
7.610000E+03	1.780483E-15	9.816467E-18
7.620000E+03	1.771923E-15	9.771245E-18
7.630000E+03	1.763814E-15	9.731186E-18
7.640000E+03	1.756003E-15	9.695321E-18
7.650000E+03	1.748504E-15	9.663625E-18
7.660000E+03	1.741186E-15	9.635274E-18
7.670000E+03	1.734090E-15	9.610408E-18
7.680000E+03	1.727119E-15	9.588425E-18
7.690000E+03	1.720369E-15	9.569791E-18
7.700000E+03	1.713864E-15	9.554593E-18
7.710000E+03	1.707692E-15	9.543289E-18
7.720000E+03	1.701957E-15	9.536447E-18
7.730000E+03	1.696786E-15	9.534783E-18
7.740000E+03	1.692295E-15	9.538968E-18
7.750000E+03	1.688531E-15	9.549312E-18
7.760000E+03	1.685635E-15	9.566676E-18
