#wls	flux	fluxerr
1.600000E+03	5.362100E-16	2.200909E-17
1.640000E+03	5.511262E-16	2.248112E-17
1.680000E+03	5.671843E-16	2.298849E-17
1.720000E+03	5.844269E-16	2.353167E-17
1.760000E+03	6.029487E-16	2.411314E-17
1.800000E+03	6.228971E-16	2.473730E-17
1.840000E+03	6.442099E-16	2.540007E-17
1.880000E+03	6.670871E-16	2.610763E-17
1.920000E+03	6.915726E-16	2.685981E-17
1.960000E+03	7.177125E-16	2.765641E-17
2.000000E+03	7.455039E-16	2.849519E-17
2.040000E+03	7.749992E-16	2.937598E-17
2.080000E+03	8.061524E-16	3.029472E-17
2.120000E+03	8.388222E-16	3.124381E-17
2.160000E+03	8.730273E-16	3.222167E-17
2.200000E+03	9.085918E-16	3.321948E-17
2.240000E+03	9.454009E-16	3.423082E-17
2.280000E+03	9.834514E-16	3.525337E-17
2.320000E+03	1.022852E-15	3.628871E-17
2.360000E+03	1.063876E-15	3.734395E-17
2.400000E+03	1.106857E-15	3.842785E-17
2.440000E+03	1.152151E-15	3.954929E-17
2.480000E+03	1.200283E-15	4.072225E-17
2.520000E+03	1.251654E-15	4.195556E-17
2.560000E+03	1.306803E-15	4.326180E-17
2.600000E+03	1.366157E-15	4.464891E-17
2.640000E+03	1.430248E-15	4.612716E-17
2.680000E+03	1.499572E-15	4.770463E-17
2.720000E+03	1.574696E-15	4.939050E-17
2.760000E+03	1.656284E-15	5.119565E-17
2.800000E+03	1.745060E-15	5.313126E-17
2.840000E+03	1.841876E-15	5.521073E-17
2.880000E+03	1.947851E-15	5.745336E-17
2.920000E+03	2.064194E-15	5.987848E-17
2.960000E+03	2.192611E-15	6.251683E-17
3.000000E+03	2.334931E-15	6.539868E-17
3.010000E+03	2.373009E-15	6.616344E-17
3.020000E+03	2.412103E-15	6.694549E-17
3.030000E+03	2.452247E-15	6.774538E-17
3.040000E+03	2.493590E-15	6.856672E-17
3.050000E+03	2.536116E-15	6.940855E-17
3.060000E+03	2.579864E-15	7.027141E-17
3.070000E+03	2.624933E-15	7.115745E-17
3.080000E+03	2.671313E-15	7.206581E-17
3.090000E+03	2.719046E-15	7.299706E-17
3.100000E+03	2.768296E-15	7.395499E-17
3.110000E+03	2.818998E-15	7.493719E-17
3.120000E+03	2.871259E-15	7.594588E-17
3.130000E+03	2.925075E-15	7.698020E-17
3.140000E+03	2.980675E-15	7.804552E-17
3.150000E+03	3.037938E-15	7.913787E-17
3.160000E+03	3.096981E-15	8.025952E-17
3.170000E+03	3.157921E-15	8.141272E-17
3.180000E+03	3.220816E-15	8.259812E-17
3.190000E+03	3.285604E-15	8.381325E-17
3.200000E+03	3.352527E-15	8.506339E-17
3.210000E+03	3.421520E-15	8.634594E-17
3.220000E+03	3.492700E-15	8.766293E-17
3.230000E+03	3.566059E-15	8.901313E-17
3.240000E+03	3.641707E-15	9.039834E-17
3.250000E+03	3.719691E-15	9.181862E-17
3.260000E+03	3.800048E-15	9.327385E-17
3.270000E+03	3.882741E-15	9.476203E-17
3.280000E+03	3.967853E-15	9.628411E-17
3.290000E+03	4.055387E-15	9.783904E-17
3.300000E+03	4.145262E-15	9.942378E-17
3.310000E+03	4.237509E-15	1.010379E-16
3.320000E+03	4.331996E-15	1.026773E-16
3.330000E+03	4.428699E-15	1.043403E-16
3.340000E+03	4.527419E-15	1.060212E-16
3.350000E+03	4.627977E-15	1.077148E-16
3.360000E+03	4.730148E-15	1.094151E-16
3.370000E+03	4.833643E-15	1.111146E-16
3.380000E+03	4.938102E-15	1.128045E-16
3.390000E+03	5.043013E-15	1.144725E-16
3.400000E+03	5.147914E-15	1.161080E-16
3.410000E+03	5.252023E-15	1.176934E-16
3.420000E+03	5.354745E-15	1.192157E-16
3.430000E+03	5.455087E-15	1.206534E-16
3.440000E+03	5.552112E-15	1.219870E-16
3.450000E+03	5.644789E-15	1.231952E-16
3.460000E+03	5.731940E-15	1.242544E-16
3.470000E+03	5.812492E-15	1.251440E-16
3.480000E+03	5.885185E-15	1.258398E-16
3.490000E+03	5.948759E-15	1.263185E-16
3.500000E+03	6.002072E-15	1.265601E-16
3.510000E+03	6.043965E-15	1.265449E-16
3.520000E+03	6.073520E-15	1.262588E-16
3.530000E+03	6.089648E-15	1.256850E-16
3.540000E+03	6.091721E-15	1.248167E-16
3.550000E+03	6.079147E-15	1.236481E-16
3.560000E+03	6.051649E-15	1.221802E-16
3.570000E+03	6.009073E-15	1.204169E-16
3.580000E+03	5.951659E-15	1.183698E-16
3.590000E+03	5.880169E-15	1.160607E-16
3.600000E+03	5.795488E-15	1.135134E-16
3.610000E+03	5.699229E-15	1.107654E-16
3.620000E+03	5.593245E-15	1.078578E-16
3.630000E+03	5.479577E-15	1.048342E-16
3.640000E+03	5.360496E-15	1.017413E-16
3.650000E+03	5.238448E-15	9.862774E-17
3.660000E+03	5.115774E-15	9.553874E-17
3.670000E+03	4.995014E-15	9.252175E-17
3.680000E+03	4.878666E-15	8.962189E-17
3.690000E+03	4.769323E-15	8.688447E-17
3.700000E+03	4.669382E-15	8.434969E-17
3.710000E+03	4.581256E-15	8.205655E-17
3.720000E+03	4.507121E-15	8.003834E-17
3.730000E+03	4.449053E-15	7.832530E-17
3.740000E+03	4.408934E-15	7.694291E-17
3.750000E+03	4.388575E-15	7.591435E-17
3.760000E+03	4.389649E-15	7.525924E-17
3.770000E+03	4.413764E-15	7.499513E-17
3.780000E+03	4.462473E-15	7.513759E-17
3.790000E+03	4.537295E-15	7.570072E-17
3.800000E+03	4.639731E-15	7.669738E-17
3.810000E+03	4.771012E-15	7.813509E-17
3.820000E+03	4.932407E-15	8.002122E-17
3.830000E+03	5.124686E-15	8.235443E-17
3.840000E+03	5.348100E-15	8.512460E-17
3.850000E+03	5.602456E-15	8.831451E-17
3.860000E+03	5.886524E-15	9.189097E-17
3.870000E+03	6.198005E-15	9.580498E-17
3.880000E+03	6.533410E-15	9.999082E-17
3.890000E+03	6.887509E-15	1.043586E-16
3.900000E+03	7.253593E-15	1.087994E-16
3.910000E+03	7.623453E-15	1.131864E-16
3.920000E+03	7.987765E-15	1.173812E-16
3.930000E+03	8.336206E-15	1.212367E-16
3.940000E+03	8.658054E-15	1.246063E-16
3.950000E+03	8.943505E-15	1.273629E-16
3.960000E+03	9.183592E-15	1.293974E-16
3.970000E+03	9.370831E-15	1.306264E-16
3.980000E+03	9.500826E-15	1.310135E-16
3.990000E+03	9.571441E-15	1.305559E-16
4.000000E+03	9.583295E-15	1.292890E-16
4.010000E+03	9.539995E-15	1.272874E-16
4.020000E+03	9.447278E-15	1.246518E-16
4.030000E+03	9.312741E-15	1.215032E-16
4.040000E+03	9.145031E-15	1.179720E-16
4.050000E+03	8.953478E-15	1.141917E-16
4.060000E+03	8.747157E-15	1.102872E-16
4.070000E+03	8.534405E-15	1.063687E-16
4.080000E+03	8.322732E-15	1.025314E-16
4.090000E+03	8.118597E-15	9.885331E-17
4.100000E+03	7.926738E-15	9.538813E-17
4.110000E+03	7.750861E-15	9.217452E-17
4.120000E+03	7.593720E-15	8.923790E-17
4.130000E+03	7.456278E-15	8.658149E-17
4.140000E+03	7.338882E-15	8.420095E-17
4.150000E+03	7.241177E-15	8.208393E-17
4.160000E+03	7.161950E-15	8.020875E-17
4.170000E+03	7.099543E-15	7.854961E-17
4.180000E+03	7.052011E-15	7.707859E-17
4.190000E+03	7.017087E-15	7.576543E-17
4.200000E+03	6.992353E-15	7.457959E-17
4.210000E+03	6.975385E-15	7.349180E-17
4.220000E+03	6.963839E-15	7.247499E-17
4.230000E+03	6.955409E-15	7.150372E-17
4.240000E+03	6.947964E-15	7.055556E-17
4.250000E+03	6.939529E-15	6.961072E-17
4.260000E+03	6.928275E-15	6.865184E-17
4.270000E+03	6.912518E-15	6.766388E-17
4.280000E+03	6.891032E-15	6.663695E-17
4.290000E+03	6.862882E-15	6.556452E-17
4.300000E+03	6.827500E-15	6.444383E-17
4.310000E+03	6.784601E-15	6.327498E-17
4.320000E+03	6.734215E-15	6.206098E-17
4.330000E+03	6.676765E-15	6.080831E-17
4.340000E+03	6.612276E-15	5.951956E-17
4.350000E+03	6.541143E-15	5.820032E-17
4.360000E+03	6.463231E-15	5.685092E-17
4.370000E+03	6.376825E-15	5.545787E-17
4.380000E+03	6.280790E-15	5.401322E-17
4.390000E+03	6.176130E-15	5.252758E-17
4.400000E+03	6.067514E-15	5.104185E-17
4.410000E+03	5.964373E-15	4.963481E-17
4.420000E+03	5.876793E-15	4.838723E-17
4.430000E+03	5.812743E-15	4.735926E-17
4.440000E+03	5.778635E-15	4.659600E-17
4.450000E+03	5.779180E-15	4.612720E-17
4.460000E+03	5.816819E-15	4.596355E-17
4.470000E+03	5.892684E-15	4.610518E-17
4.480000E+03	6.006547E-15	4.654180E-17
4.490000E+03	6.156485E-15	4.725065E-17
4.500000E+03	6.339292E-15	4.820025E-17
4.510000E+03	6.550459E-15	4.935062E-17
4.520000E+03	6.783458E-15	5.064830E-17
4.530000E+03	7.030446E-15	5.203220E-17
4.540000E+03	7.282725E-15	5.343716E-17
4.550000E+03	7.530991E-15	5.479595E-17
4.560000E+03	7.765735E-15	5.604213E-17
4.570000E+03	7.977770E-15	5.711368E-17
4.580000E+03	8.158804E-15	5.795686E-17
4.590000E+03	8.301572E-15	5.852665E-17
4.600000E+03	8.400492E-15	5.879098E-17
4.610000E+03	8.451706E-15	5.873036E-17
4.620000E+03	8.453359E-15	5.833940E-17
4.630000E+03	8.405307E-15	5.762420E-17
4.640000E+03	8.308897E-15	5.660047E-17
4.650000E+03	8.166748E-15	5.529169E-17
4.660000E+03	7.983899E-15	5.373667E-17
4.670000E+03	7.766563E-15	5.198078E-17
4.680000E+03	7.522177E-15	5.007614E-17
4.690000E+03	7.258948E-15	4.807857E-17
4.700000E+03	6.985254E-15	4.604363E-17
4.710000E+03	6.709186E-15	4.402381E-17
4.720000E+03	6.437344E-15	4.206077E-17
4.730000E+03	6.174190E-15	4.018145E-17
4.740000E+03	5.922389E-15	3.840029E-17
4.750000E+03	5.681801E-15	3.671344E-17
4.760000E+03	5.448506E-15	3.509297E-17
4.770000E+03	5.217267E-15	3.350302E-17
4.780000E+03	4.983761E-15	3.191414E-17
4.790000E+03	4.747876E-15	3.032422E-17
4.800000E+03	4.519977E-15	2.879798E-17
4.810000E+03	4.311906E-15	2.740906E-17
4.820000E+03	4.131668E-15	2.620625E-17
4.830000E+03	3.983995E-15	2.521745E-17
4.840000E+03	3.871050E-15	2.445426E-17
4.850000E+03	3.792060E-15	2.390988E-17
4.860000E+03	3.744668E-15	2.356774E-17
4.870000E+03	3.725696E-15	2.340632E-17
4.880000E+03	3.731047E-15	2.339860E-17
4.890000E+03	3.755974E-15	2.351367E-17
4.900000E+03	3.795422E-15	2.371897E-17
4.910000E+03	3.843947E-15	2.397972E-17
4.920000E+03	3.896122E-15	2.426150E-17
4.930000E+03	3.946917E-15	2.453256E-17
4.940000E+03	3.992721E-15	2.477024E-17
4.950000E+03	4.031078E-15	2.495917E-17
4.960000E+03	4.060549E-15	2.509043E-17
4.970000E+03	4.081241E-15	2.516473E-17
4.980000E+03	4.094307E-15	2.518926E-17
4.990000E+03	4.101743E-15	2.517634E-17
5.000000E+03	4.105913E-15	2.514049E-17
5.010000E+03	4.109706E-15	2.509933E-17
5.020000E+03	4.115853E-15	2.506934E-17
5.030000E+03	4.126385E-15	2.506261E-17
5.040000E+03	4.143077E-15	2.508951E-17
5.050000E+03	4.167247E-15	2.515754E-17
5.060000E+03	4.199316E-15	2.526869E-17
5.070000E+03	4.239263E-15	2.542221E-17
5.080000E+03	4.286816E-15	2.561586E-17
5.090000E+03	4.341356E-15	2.584534E-17
5.100000E+03	4.402163E-15	2.610576E-17
5.110000E+03	4.468584E-15	2.639270E-17
5.120000E+03	4.540046E-15	2.670226E-17
5.130000E+03	4.616310E-15	2.703255E-17
5.140000E+03	4.697069E-15	2.738132E-17
5.150000E+03	4.782486E-15	2.774907E-17
5.160000E+03	4.872736E-15	2.813636E-17
5.170000E+03	4.968102E-15	2.854437E-17
5.180000E+03	5.068798E-15	2.897387E-17
5.190000E+03	5.174904E-15	2.942485E-17
5.200000E+03	5.286326E-15	2.989633E-17
5.210000E+03	5.402447E-15	3.038444E-17
5.220000E+03	5.522459E-15	3.088433E-17
5.230000E+03	5.644876E-15	3.138753E-17
5.240000E+03	5.767793E-15	3.188351E-17
5.250000E+03	5.888902E-15	3.235981E-17
5.260000E+03	6.005676E-15	3.280313E-17
5.270000E+03	6.115151E-15	3.319823E-17
5.280000E+03	6.214595E-15	3.353156E-17
5.290000E+03	6.301417E-15	3.379077E-17
5.300000E+03	6.373384E-15	3.396580E-17
5.310000E+03	6.428723E-15	3.404938E-17
5.320000E+03	6.466366E-15	3.403821E-17
5.330000E+03	6.485448E-15	3.393019E-17
5.340000E+03	6.485865E-15	3.372730E-17
5.350000E+03	6.467942E-15	3.343369E-17
5.360000E+03	6.432058E-15	3.305370E-17
5.370000E+03	6.378760E-15	3.259240E-17
5.380000E+03	6.309253E-15	3.205806E-17
5.390000E+03	6.224442E-15	3.145715E-17
5.400000E+03	6.125637E-15	3.079795E-17
5.410000E+03	6.014517E-15	3.009032E-17
5.420000E+03	5.893056E-15	2.934525E-17
5.430000E+03	5.763966E-15	2.857704E-17
5.440000E+03	5.630773E-15	2.780364E-17
5.450000E+03	5.498299E-15	2.704896E-17
5.460000E+03	5.372190E-15	2.634050E-17
5.470000E+03	5.259253E-15	2.571087E-17
5.480000E+03	5.167882E-15	2.519934E-17
5.490000E+03	5.104781E-15	2.483652E-17
5.500000E+03	5.071249E-15	2.462678E-17
5.510000E+03	5.060341E-15	2.453478E-17
5.520000E+03	5.061801E-15	2.450955E-17
5.530000E+03	5.064959E-15	2.449853E-17
5.540000E+03	5.061571E-15	2.446114E-17
5.550000E+03	5.045279E-15	2.436601E-17
5.560000E+03	5.011836E-15	2.419201E-17
5.570000E+03	4.959101E-15	2.392818E-17
5.580000E+03	4.886904E-15	2.357301E-17
5.590000E+03	4.796600E-15	2.313236E-17
5.600000E+03	4.690990E-15	2.261909E-17
5.610000E+03	4.573636E-15	2.204975E-17
5.620000E+03	4.448771E-15	2.144419E-17
5.630000E+03	4.320983E-15	2.082403E-17
5.640000E+03	4.194778E-15	2.021056E-17
5.650000E+03	4.074411E-15	1.962392E-17
5.660000E+03	3.963614E-15	1.908178E-17
5.670000E+03	3.865718E-15	1.859989E-17
5.680000E+03	3.783457E-15	1.819108E-17
5.690000E+03	3.718811E-15	1.786455E-17
5.700000E+03	3.673272E-15	1.762708E-17
5.710000E+03	3.647855E-15	1.748309E-17
5.720000E+03	3.643022E-15	1.743420E-17
5.730000E+03	3.658690E-15	1.747938E-17
5.740000E+03	3.694556E-15	1.761639E-17
5.750000E+03	3.749595E-15	1.783948E-17
5.760000E+03	3.822290E-15	1.814044E-17
5.770000E+03	3.910761E-15	1.850932E-17
5.780000E+03	4.012535E-15	1.893335E-17
5.790000E+03	4.124503E-15	1.939680E-17
5.800000E+03	4.243083E-15	1.988184E-17
5.810000E+03	4.364297E-15	2.036901E-17
5.820000E+03	4.483607E-15	2.083651E-17
5.830000E+03	4.596533E-15	2.126320E-17
5.840000E+03	4.699034E-15	2.163043E-17
5.850000E+03	4.787488E-15	2.192193E-17
5.860000E+03	4.858990E-15	2.212521E-17
5.870000E+03	4.911711E-15	2.223311E-17
5.880000E+03	4.944993E-15	2.224412E-17
5.890000E+03	4.958891E-15	2.216020E-17
5.900000E+03	4.954493E-15	2.198809E-17
5.910000E+03	4.933554E-15	2.173749E-17
5.920000E+03	4.898232E-15	2.141982E-17
5.930000E+03	4.850935E-15	2.104744E-17
5.940000E+03	4.793990E-15	2.063214E-17
5.950000E+03	4.729751E-15	2.018558E-17
5.960000E+03	4.660299E-15	1.971801E-17
5.970000E+03	4.587430E-15	1.923821E-17
5.980000E+03	4.512567E-15	1.875320E-17
5.990000E+03	4.436955E-15	1.826906E-17
6.000000E+03	4.361303E-15	1.778949E-17
6.010000E+03	4.286347E-15	1.731823E-17
6.020000E+03	4.212153E-15	1.685620E-17
6.030000E+03	4.138695E-15	1.640397E-17
6.040000E+03	4.065748E-15	1.596131E-17
6.050000E+03	3.992606E-15	1.552616E-17
6.060000E+03	3.918499E-15	1.509632E-17
6.070000E+03	3.842644E-15	1.466959E-17
6.080000E+03	3.764682E-15	1.424550E-17
6.090000E+03	3.684311E-15	1.382374E-17
6.100000E+03	3.602026E-15	1.340695E-17
6.110000E+03	3.519271E-15	1.300116E-17
6.120000E+03	3.438071E-15	1.261426E-17
6.130000E+03	3.361073E-15	1.225614E-17
6.140000E+03	3.292008E-15	1.194037E-17
6.150000E+03	3.234725E-15	1.168069E-17
6.160000E+03	3.192842E-15	1.148987E-17
6.170000E+03	3.169514E-15	1.137909E-17
6.180000E+03	3.166798E-15	1.135581E-17
6.190000E+03	3.185029E-15	1.142158E-17
6.200000E+03	3.221477E-15	1.156675E-17
6.210000E+03	3.270309E-15	1.177071E-17
6.220000E+03	3.321377E-15	1.199738E-17
6.230000E+03	3.359154E-15	1.219067E-17
6.240000E+03	3.368484E-15	1.229457E-17
6.250000E+03	3.346228E-15	1.229537E-17
6.260000E+03	3.302756E-15	1.222836E-17
6.270000E+03	3.251476E-15	1.214084E-17
6.280000E+03	3.204333E-15	1.207602E-17
6.290000E+03	3.168534E-15	1.206079E-17
6.300000E+03	3.147946E-15	1.211046E-17
6.310000E+03	3.144023E-15	1.223186E-17
6.320000E+03	3.155749E-15	1.242263E-17
6.330000E+03	3.180660E-15	1.267469E-17
6.340000E+03	3.215642E-15	1.297712E-17
6.350000E+03	3.257168E-15	1.331679E-17
6.360000E+03	3.301422E-15	1.367876E-17
6.370000E+03	3.344782E-15	1.404808E-17
6.380000E+03	3.383982E-15	1.441053E-17
6.390000E+03	3.416233E-15	1.475313E-17
6.400000E+03	3.439399E-15	1.506486E-17
6.410000E+03	3.452367E-15	1.533850E-17
6.420000E+03	3.454693E-15	1.556950E-17
6.430000E+03	3.446828E-15	1.575724E-17
6.440000E+03	3.429835E-15	1.590402E-17
6.450000E+03	3.405317E-15	1.601500E-17
6.460000E+03	3.375316E-15	1.609779E-17
6.470000E+03	3.341982E-15	1.616117E-17
6.480000E+03	3.307606E-15	1.621519E-17
6.490000E+03	3.274223E-15	1.626927E-17
6.500000E+03	3.243633E-15	1.633225E-17
6.510000E+03	3.217280E-15	1.641167E-17
6.520000E+03	3.196308E-15	1.651391E-17
6.530000E+03	3.181550E-15	1.664406E-17
6.540000E+03	3.173518E-15	1.680571E-17
6.550000E+03	3.172466E-15	1.700122E-17
6.560000E+03	3.178274E-15	1.723096E-17
6.570000E+03	3.190586E-15	1.749395E-17
6.580000E+03	3.208679E-15	1.778707E-17
6.590000E+03	3.231602E-15	1.810573E-17
6.600000E+03	3.258227E-15	1.844406E-17
6.610000E+03	3.287210E-15	1.879469E-17
6.620000E+03	3.317045E-15	1.914899E-17
6.630000E+03	3.346254E-15	1.949815E-17
6.640000E+03	3.373245E-15	1.983237E-17
6.650000E+03	3.396760E-15	2.014355E-17
6.660000E+03	3.415418E-15	2.042258E-17
6.670000E+03	3.428124E-15	2.066190E-17
6.680000E+03	3.434198E-15	2.085629E-17
6.690000E+03	3.433134E-15	2.100157E-17
6.700000E+03	3.424601E-15	2.109461E-17
6.710000E+03	3.408706E-15	2.113505E-17
6.720000E+03	3.385831E-15	2.112433E-17
6.730000E+03	3.356418E-15	2.106443E-17
6.740000E+03	3.321266E-15	2.095973E-17
6.750000E+03	3.281102E-15	2.081437E-17
6.760000E+03	3.236947E-15	2.063449E-17
6.770000E+03	3.189670E-15	2.042550E-17
6.780000E+03	3.140363E-15	2.019433E-17
6.790000E+03	3.089845E-15	1.994636E-17
6.800000E+03	3.039101E-15	1.968815E-17
6.810000E+03	2.988995E-15	1.942555E-17
6.820000E+03	2.940278E-15	1.916377E-17
6.830000E+03	2.893832E-15	1.890892E-17
6.840000E+03	2.850367E-15	1.866604E-17
6.850000E+03	2.810601E-15	1.844021E-17
6.860000E+03	2.774960E-15	1.823461E-17
6.870000E+03	2.743988E-15	1.805317E-17
6.880000E+03	2.717997E-15	1.789823E-17
6.890000E+03	2.697247E-15	1.777177E-17
6.900000E+03	2.681873E-15	1.767486E-17
6.910000E+03	2.672061E-15	1.760889E-17
6.920000E+03	2.667520E-15	1.757198E-17
6.930000E+03	2.668164E-15	1.756360E-17
6.940000E+03	2.673563E-15	1.758085E-17
6.950000E+03	2.683257E-15	1.762061E-17
6.960000E+03	2.696746E-15	1.767946E-17
6.970000E+03	2.713345E-15	1.775276E-17
6.980000E+03	2.732326E-15	1.783557E-17
6.990000E+03	2.752888E-15	1.792251E-17
7.000000E+03	2.774181E-15	1.800792E-17
7.010000E+03	2.795324E-15	1.808598E-17
7.020000E+03	2.815369E-15	1.815055E-17
7.030000E+03	2.833550E-15	1.819675E-17
7.040000E+03	2.848900E-15	1.821851E-17
7.050000E+03	2.860856E-15	1.821250E-17
7.060000E+03	2.868614E-15	1.817393E-17
7.070000E+03	2.871814E-15	1.810103E-17
7.080000E+03	2.870068E-15	1.799187E-17
7.090000E+03	2.863208E-15	1.784607E-17
7.100000E+03	2.851364E-15	1.766517E-17
7.110000E+03	2.834671E-15	1.745075E-17
7.120000E+03	2.813622E-15	1.720663E-17
7.130000E+03	2.788844E-15	1.693743E-17
7.140000E+03	2.761210E-15	1.664916E-17
7.150000E+03	2.731589E-15	1.634768E-17
7.160000E+03	2.700788E-15	1.603838E-17
7.170000E+03	2.669703E-15	1.572701E-17
7.180000E+03	2.638982E-15	1.541773E-17
7.190000E+03	2.609321E-15	1.511484E-17
7.200000E+03	2.581135E-15	1.482089E-17
7.210000E+03	2.554712E-15	1.453761E-17
7.220000E+03	2.530275E-15	1.426632E-17
7.230000E+03	2.507883E-15	1.400736E-17
7.240000E+03	2.487456E-15	1.376027E-17
7.250000E+03	2.468868E-15	1.352439E-17
7.260000E+03	2.451950E-15	1.329883E-17
7.270000E+03	2.436509E-15	1.308262E-17
7.280000E+03	2.422317E-15	1.287464E-17
7.290000E+03	2.409054E-15	1.267338E-17
7.300000E+03	2.396615E-15	1.247848E-17
7.310000E+03	2.384745E-15	1.228887E-17
7.320000E+03	2.373204E-15	1.210364E-17
7.330000E+03	2.361875E-15	1.192251E-17
7.340000E+03	2.350532E-15	1.174475E-17
7.350000E+03	2.339053E-15	1.157015E-17
7.360000E+03	2.327312E-15	1.139854E-17
7.370000E+03	2.315199E-15	1.122985E-17
7.380000E+03	2.302677E-15	1.106438E-17
7.390000E+03	2.289495E-15	1.090142E-17
7.400000E+03	2.275712E-15	1.074175E-17
7.410000E+03	2.261163E-15	1.058508E-17
7.420000E+03	2.245797E-15	1.043167E-17
7.430000E+03	2.229534E-15	1.028161E-17
7.440000E+03	2.212314E-15	1.013507E-17
7.450000E+03	2.194120E-15	9.992389E-18
7.460000E+03	2.174995E-15	9.854118E-18
7.470000E+03	2.155172E-15	9.721631E-18
7.480000E+03	2.134660E-15	9.595175E-18
7.490000E+03	2.113729E-15	9.475812E-18
7.500000E+03	2.092532E-15	9.363796E-18
7.510000E+03	2.071421E-15	9.260236E-18
7.520000E+03	2.050627E-15	9.165695E-18
7.530000E+03	2.030435E-15	9.080962E-18
7.540000E+03	2.011157E-15	9.006966E-18
7.550000E+03	1.993085E-15	8.944571E-18
7.560000E+03	1.976544E-15	8.894824E-18
7.570000E+03	1.961580E-15	8.857557E-18
7.580000E+03	1.948247E-15	8.832674E-18
7.590000E+03	1.936465E-15	8.819524E-18
7.600000E+03	1.925935E-15	8.816468E-18
7.610000E+03	1.916292E-15	8.821570E-18
7.620000E+03	1.907095E-15	8.832544E-18
7.630000E+03	1.898434E-15	8.849536E-18
7.640000E+03	1.890295E-15	8.872250E-18
7.650000E+03	1.882759E-15	8.900850E-18
7.660000E+03	1.875690E-15	8.934505E-18
7.670000E+03	1.869106E-15	8.973124E-18
7.680000E+03	1.862865E-15	9.015869E-18
7.690000E+03	1.857025E-15	9.062877E-18
7.700000E+03	1.851562E-15	9.113908E-18
7.710000E+03	1.846534E-15	9.169140E-18
7.720000E+03	1.842027E-15	9.228932E-18
7.730000E+03	1.838142E-15	9.293742E-18
7.740000E+03	1.834996E-15	9.364159E-18
7.750000E+03	1.832655E-15	9.440541E-18
7.760000E+03	1.831227E-15	9.523504E-18
