#wls	flux	fluxerr
1.600000E+03	5.957421E-16	5.007195E-18
1.640000E+03	6.147066E-16	5.146719E-18
1.680000E+03	6.350893E-16	5.296331E-18
1.720000E+03	6.570808E-16	5.457415E-18
1.760000E+03	6.806879E-16	5.629797E-18
1.800000E+03	7.061021E-16	5.814817E-18
1.840000E+03	7.333922E-16	6.012766E-18
1.880000E+03	7.627507E-16	6.224929E-18
1.920000E+03	7.943089E-16	6.452046E-18
1.960000E+03	8.281977E-16	6.694826E-18
2.000000E+03	8.644236E-16	6.952938E-18
2.040000E+03	9.031165E-16	7.227025E-18
2.080000E+03	9.443435E-16	7.517191E-18
2.120000E+03	9.879827E-16	7.822015E-18
2.160000E+03	1.033909E-15	8.140056E-18
2.200000E+03	1.081807E-15	8.468384E-18
2.240000E+03	1.131293E-15	8.803586E-18
2.280000E+03	1.182231E-15	9.144220E-18
2.320000E+03	1.234607E-15	9.489791E-18
2.360000E+03	1.289037E-15	9.844618E-18
2.400000E+03	1.346070E-15	1.021236E-17
2.440000E+03	1.406193E-15	1.059608E-17
2.480000E+03	1.470013E-15	1.099963E-17
2.520000E+03	1.537942E-15	1.142525E-17
2.560000E+03	1.610261E-15	1.187409E-17
2.600000E+03	1.687428E-15	1.234853E-17
2.640000E+03	1.769572E-15	1.284838E-17
2.680000E+03	1.856935E-15	1.337423E-17
2.720000E+03	1.949481E-15	1.392458E-17
2.760000E+03	2.047346E-15	1.449911E-17
2.800000E+03	2.150373E-15	1.509538E-17
2.840000E+03	2.258501E-15	1.571160E-17
2.880000E+03	2.371672E-15	1.634601E-17
2.920000E+03	2.489894E-15	1.699725E-17
2.960000E+03	2.613274E-15	1.766460E-17
3.000000E+03	2.741986E-15	1.834773E-17
3.010000E+03	2.774990E-15	1.852074E-17
3.020000E+03	2.808364E-15	1.869487E-17
3.030000E+03	2.842032E-15	1.886957E-17
3.040000E+03	2.876104E-15	1.904555E-17
3.050000E+03	2.910501E-15	1.922227E-17
3.060000E+03	2.945209E-15	1.939960E-17
3.070000E+03	2.980208E-15	1.957739E-17
3.080000E+03	3.015605E-15	1.975631E-17
3.090000E+03	3.051255E-15	1.993538E-17
3.100000E+03	3.087259E-15	2.011526E-17
3.110000E+03	3.123531E-15	2.029535E-17
3.120000E+03	3.160109E-15	2.047587E-17
3.130000E+03	3.196966E-15	2.065662E-17
3.140000E+03	3.234070E-15	2.083738E-17
3.150000E+03	3.271394E-15	2.101794E-17
3.160000E+03	3.308962E-15	2.119845E-17
3.170000E+03	3.346678E-15	2.137827E-17
3.180000E+03	3.384565E-15	2.155753E-17
3.190000E+03	3.422583E-15	2.173595E-17
3.200000E+03	3.460688E-15	2.191324E-17
3.210000E+03	3.498893E-15	2.208947E-17
3.220000E+03	3.537026E-15	2.226355E-17
3.230000E+03	3.575220E-15	2.243631E-17
3.240000E+03	3.613236E-15	2.260623E-17
3.250000E+03	3.651197E-15	2.277409E-17
3.260000E+03	3.688920E-15	2.293874E-17
3.270000E+03	3.726401E-15	2.310018E-17
3.280000E+03	3.763573E-15	2.325798E-17
3.290000E+03	3.800307E-15	2.341137E-17
3.300000E+03	3.836649E-15	2.356064E-17
3.310000E+03	3.872406E-15	2.370464E-17
3.320000E+03	3.907505E-15	2.384294E-17
3.330000E+03	3.941988E-15	2.397582E-17
3.340000E+03	3.975660E-15	2.410215E-17
3.350000E+03	4.008446E-15	2.422150E-17
3.360000E+03	4.040260E-15	2.433341E-17
3.370000E+03	4.071058E-15	2.443766E-17
3.380000E+03	4.100599E-15	2.453287E-17
3.390000E+03	4.128728E-15	2.461819E-17
3.400000E+03	4.155326E-15	2.469298E-17
3.410000E+03	4.180129E-15	2.475578E-17
3.420000E+03	4.202903E-15	2.480531E-17
3.430000E+03	4.223264E-15	2.483942E-17
3.440000E+03	4.240946E-15	2.485672E-17
3.450000E+03	4.255606E-15	2.485535E-17
3.460000E+03	4.266783E-15	2.483282E-17
3.470000E+03	4.274138E-15	2.478737E-17
3.480000E+03	4.277302E-15	2.471712E-17
3.490000E+03	4.276049E-15	2.462102E-17
3.500000E+03	4.269998E-15	2.449717E-17
3.510000E+03	4.259037E-15	2.434523E-17
3.520000E+03	4.242975E-15	2.416442E-17
3.530000E+03	4.221758E-15	2.395477E-17
3.540000E+03	4.195419E-15	2.371679E-17
3.550000E+03	4.164038E-15	2.345126E-17
3.560000E+03	4.127883E-15	2.316003E-17
3.570000E+03	4.087182E-15	2.284467E-17
3.580000E+03	4.042363E-15	2.250787E-17
3.590000E+03	3.993996E-15	2.215307E-17
3.600000E+03	3.942678E-15	2.178380E-17
3.610000E+03	3.889157E-15	2.140439E-17
3.620000E+03	3.834236E-15	2.101939E-17
3.630000E+03	3.778802E-15	2.063374E-17
3.640000E+03	3.723839E-15	2.025286E-17
3.650000E+03	3.670313E-15	1.988194E-17
3.660000E+03	3.619335E-15	1.952690E-17
3.670000E+03	3.571943E-15	1.919316E-17
3.680000E+03	3.529282E-15	1.888664E-17
3.690000E+03	3.492555E-15	1.861343E-17
3.700000E+03	3.462885E-15	1.837912E-17
3.710000E+03	3.441489E-15	1.818968E-17
3.720000E+03	3.429670E-15	1.805143E-17
3.730000E+03	3.428657E-15	1.797018E-17
3.740000E+03	3.439734E-15	1.795192E-17
3.750000E+03	3.464274E-15	1.800298E-17
3.760000E+03	3.503566E-15	1.812914E-17
3.770000E+03	3.558959E-15	1.833636E-17
3.780000E+03	3.631852E-15	1.863073E-17
3.790000E+03	3.723607E-15	1.901803E-17
3.800000E+03	3.835599E-15	1.950399E-17
3.810000E+03	3.969185E-15	2.009411E-17
3.820000E+03	4.125631E-15	2.079330E-17
3.830000E+03	4.306014E-15	2.160541E-17
3.840000E+03	4.511066E-15	2.253248E-17
3.850000E+03	4.741210E-15	2.357492E-17
3.860000E+03	4.996268E-15	2.473013E-17
3.870000E+03	5.275256E-15	2.599157E-17
3.880000E+03	5.576291E-15	2.734837E-17
3.890000E+03	5.896307E-15	2.878404E-17
3.900000E+03	6.230801E-15	3.027540E-17
3.910000E+03	6.573776E-15	3.179245E-17
3.920000E+03	6.917823E-15	3.329894E-17
3.930000E+03	7.254100E-15	3.475243E-17
3.940000E+03	7.572673E-15	3.610610E-17
3.950000E+03	7.863938E-15	3.731558E-17
3.960000E+03	8.118388E-15	3.833785E-17
3.970000E+03	8.327289E-15	3.913439E-17
3.980000E+03	8.484060E-15	3.967755E-17
3.990000E+03	8.584378E-15	3.995081E-17
4.000000E+03	8.625995E-15	3.994762E-17
4.010000E+03	8.610104E-15	3.967754E-17
4.020000E+03	8.540432E-15	3.916160E-17
4.030000E+03	8.422535E-15	3.842886E-17
4.040000E+03	8.264496E-15	3.751934E-17
4.050000E+03	8.075111E-15	3.647551E-17
4.060000E+03	7.863763E-15	3.534172E-17
4.070000E+03	7.639671E-15	3.416070E-17
4.080000E+03	7.411447E-15	3.297164E-17
4.090000E+03	7.186648E-15	3.180827E-17
4.100000E+03	6.971058E-15	3.069584E-17
4.110000E+03	6.769507E-15	2.965488E-17
4.120000E+03	6.585372E-15	2.869915E-17
4.130000E+03	6.420893E-15	2.783720E-17
4.140000E+03	6.277439E-15	2.707358E-17
4.150000E+03	6.155579E-15	2.640932E-17
4.160000E+03	6.055237E-15	2.584265E-17
4.170000E+03	5.975852E-15	2.536974E-17
4.180000E+03	5.916488E-15	2.498523E-17
4.190000E+03	5.875952E-15	2.468277E-17
4.200000E+03	5.852674E-15	2.445457E-17
4.210000E+03	5.845176E-15	2.429333E-17
4.220000E+03	5.851662E-15	2.419060E-17
4.230000E+03	5.870407E-15	2.413839E-17
4.240000E+03	5.899572E-15	2.412838E-17
4.250000E+03	5.937063E-15	2.415140E-17
4.260000E+03	5.980860E-15	2.419875E-17
4.270000E+03	6.028587E-15	2.426051E-17
4.280000E+03	6.077385E-15	2.432499E-17
4.290000E+03	6.124138E-15	2.437976E-17
4.300000E+03	6.165571E-15	2.441204E-17
4.310000E+03	6.197913E-15	2.440735E-17
4.320000E+03	6.217182E-15	2.435072E-17
4.330000E+03	6.219852E-15	2.422927E-17
4.340000E+03	6.202485E-15	2.403078E-17
4.350000E+03	6.162636E-15	2.374712E-17
4.360000E+03	6.098768E-15	2.337381E-17
4.370000E+03	6.010922E-15	2.291253E-17
4.380000E+03	5.901082E-15	2.237228E-17
4.390000E+03	5.773717E-15	2.177125E-17
4.400000E+03	5.636609E-15	2.113968E-17
4.410000E+03	5.500443E-15	2.051799E-17
4.420000E+03	5.376216E-15	1.994688E-17
4.430000E+03	5.273560E-15	1.946115E-17
4.440000E+03	5.200786E-15	1.909000E-17
4.450000E+03	5.164396E-15	1.885538E-17
4.460000E+03	5.168412E-15	1.876978E-17
4.470000E+03	5.215399E-15	1.884013E-17
4.480000E+03	5.306964E-15	1.906978E-17
4.490000E+03	5.443318E-15	1.945701E-17
4.500000E+03	5.623697E-15	1.999667E-17
4.510000E+03	5.846398E-15	2.068038E-17
4.520000E+03	6.108327E-15	2.149508E-17
4.530000E+03	6.404977E-15	2.242302E-17
4.540000E+03	6.730595E-15	2.344248E-17
4.550000E+03	7.077218E-15	2.452455E-17
4.560000E+03	7.435367E-15	2.563569E-17
4.570000E+03	7.794196E-15	2.673836E-17
4.580000E+03	8.141886E-15	2.779246E-17
4.590000E+03	8.466092E-15	2.875690E-17
4.600000E+03	8.754896E-15	2.959285E-17
4.610000E+03	8.998282E-15	3.026864E-17
4.620000E+03	9.187809E-15	3.075844E-17
4.630000E+03	9.317224E-15	3.104423E-17
4.640000E+03	9.382604E-15	3.111598E-17
4.650000E+03	9.382416E-15	3.097172E-17
4.660000E+03	9.317205E-15	3.061632E-17
4.670000E+03	9.189693E-15	3.006159E-17
4.680000E+03	9.004338E-15	2.932477E-17
4.690000E+03	8.767390E-15	2.842852E-17
4.700000E+03	8.486457E-15	2.739945E-17
4.710000E+03	8.170068E-15	2.626662E-17
4.720000E+03	7.827557E-15	2.506112E-17
4.730000E+03	7.468613E-15	2.381461E-17
4.740000E+03	7.102794E-15	2.255781E-17
4.750000E+03	6.738717E-15	2.131794E-17
4.760000E+03	6.383537E-15	2.011715E-17
4.770000E+03	6.043677E-15	1.897492E-17
4.780000E+03	5.724261E-15	1.790639E-17
4.790000E+03	5.429476E-15	1.692359E-17
4.800000E+03	5.164202E-15	1.604054E-17
4.810000E+03	4.932234E-15	1.526777E-17
4.820000E+03	4.735726E-15	1.461063E-17
4.830000E+03	4.575383E-15	1.407001E-17
4.840000E+03	4.451289E-15	1.364491E-17
4.850000E+03	4.362401E-15	1.333095E-17
4.860000E+03	4.307259E-15	1.312259E-17
4.870000E+03	4.283708E-15	1.301226E-17
4.880000E+03	4.289037E-15	1.299086E-17
4.890000E+03	4.319915E-15	1.304755E-17
4.900000E+03	4.372264E-15	1.316939E-17
4.910000E+03	4.440965E-15	1.334046E-17
4.920000E+03	4.520231E-15	1.354305E-17
4.930000E+03	4.603846E-15	1.375835E-17
4.940000E+03	4.684906E-15	1.396571E-17
4.950000E+03	4.756789E-15	1.414552E-17
4.960000E+03	4.813555E-15	1.428036E-17
4.970000E+03	4.851209E-15	1.435872E-17
4.980000E+03	4.867294E-15	1.437374E-17
4.990000E+03	4.861349E-15	1.432447E-17
5.000000E+03	4.835557E-15	1.421772E-17
5.010000E+03	4.793713E-15	1.406498E-17
5.020000E+03	4.740221E-15	1.387938E-17
5.030000E+03	4.679964E-15	1.367534E-17
5.040000E+03	4.617659E-15	1.346670E-17
5.050000E+03	4.557618E-15	1.326599E-17
5.060000E+03	4.503063E-15	1.308247E-17
5.070000E+03	4.456557E-15	1.292345E-17
5.080000E+03	4.420033E-15	1.279435E-17
5.090000E+03	4.394240E-15	1.269714E-17
5.100000E+03	4.379406E-15	1.263228E-17
5.110000E+03	4.375638E-15	1.259988E-17
5.120000E+03	4.383132E-15	1.260033E-17
5.130000E+03	4.402031E-15	1.263385E-17
5.140000E+03	4.432806E-15	1.270161E-17
5.150000E+03	4.476244E-15	1.280569E-17
5.160000E+03	4.533400E-15	1.294892E-17
5.170000E+03	4.605441E-15	1.313444E-17
5.180000E+03	4.693545E-15	1.336539E-17
5.190000E+03	4.798776E-15	1.364461E-17
5.200000E+03	4.922111E-15	1.397463E-17
5.210000E+03	5.063409E-15	1.435485E-17
5.220000E+03	5.222204E-15	1.478372E-17
5.230000E+03	5.397188E-15	1.525734E-17
5.240000E+03	5.585821E-15	1.576836E-17
5.250000E+03	5.784496E-15	1.630645E-17
5.260000E+03	5.989026E-15	1.685971E-17
5.270000E+03	6.194142E-15	1.741327E-17
5.280000E+03	6.393907E-15	1.795048E-17
5.290000E+03	6.582331E-15	1.845458E-17
5.300000E+03	6.753427E-15	1.890897E-17
5.310000E+03	6.901496E-15	1.929788E-17
5.320000E+03	7.021609E-15	1.960783E-17
5.330000E+03	7.109934E-15	1.982842E-17
5.340000E+03	7.163871E-15	1.995276E-17
5.350000E+03	7.182186E-15	1.997777E-17
5.360000E+03	7.165018E-15	1.990424E-17
5.370000E+03	7.114025E-15	1.973712E-17
5.380000E+03	7.031951E-15	1.948437E-17
5.390000E+03	6.922632E-15	1.915692E-17
5.400000E+03	6.790670E-15	1.876778E-17
5.410000E+03	6.641582E-15	1.833240E-17
5.420000E+03	6.481245E-15	1.786714E-17
5.430000E+03	6.315873E-15	1.738923E-17
5.440000E+03	6.152537E-15	1.691816E-17
5.450000E+03	5.998977E-15	1.647515E-17
5.460000E+03	5.862973E-15	1.608143E-17
5.470000E+03	5.753082E-15	1.576025E-17
5.480000E+03	5.678556E-15	1.553666E-17
5.490000E+03	5.646447E-15	1.542957E-17
5.500000E+03	5.656647E-15	1.543821E-17
5.510000E+03	5.699037E-15	1.553458E-17
5.520000E+03	5.758262E-15	1.567652E-17
5.530000E+03	5.818356E-15	1.582044E-17
5.540000E+03	5.866258E-15	1.593084E-17
5.550000E+03	5.891561E-15	1.597962E-17
5.560000E+03	5.886621E-15	1.594628E-17
5.570000E+03	5.848100E-15	1.582208E-17
5.580000E+03	5.775942E-15	1.560723E-17
5.590000E+03	5.672485E-15	1.530835E-17
5.600000E+03	5.542218E-15	1.493785E-17
5.610000E+03	5.391085E-15	1.451203E-17
5.620000E+03	5.225665E-15	1.404877E-17
5.630000E+03	5.052591E-15	1.356603E-17
5.640000E+03	4.878319E-15	1.308122E-17
5.650000E+03	4.708705E-15	1.261002E-17
5.660000E+03	4.548804E-15	1.216592E-17
5.670000E+03	4.402865E-15	1.176016E-17
5.680000E+03	4.274425E-15	1.140204E-17
5.690000E+03	4.166379E-15	1.109910E-17
5.700000E+03	4.081020E-15	1.085722E-17
5.710000E+03	4.020155E-15	1.068098E-17
5.720000E+03	3.985144E-15	1.057371E-17
5.730000E+03	3.977010E-15	1.053786E-17
5.740000E+03	3.996461E-15	1.057502E-17
5.750000E+03	4.043335E-15	1.068447E-17
5.760000E+03	4.117204E-15	1.086478E-17
5.770000E+03	4.217039E-15	1.111295E-17
5.780000E+03	4.340852E-15	1.142347E-17
5.790000E+03	4.485942E-15	1.178900E-17
5.800000E+03	4.648558E-15	1.219946E-17
5.810000E+03	4.824040E-15	1.264245E-17
5.820000E+03	5.006663E-15	1.310287E-17
5.830000E+03	5.190016E-15	1.356390E-17
5.840000E+03	5.367409E-15	1.400808E-17
5.850000E+03	5.532328E-15	1.441853E-17
5.860000E+03	5.678708E-15	1.477962E-17
5.870000E+03	5.802217E-15	1.508030E-17
5.880000E+03	5.899850E-15	1.531306E-17
5.890000E+03	5.969839E-15	1.547361E-17
5.900000E+03	6.011990E-15	1.556177E-17
5.910000E+03	6.027303E-15	1.558044E-17
5.920000E+03	6.017499E-15	1.553438E-17
5.930000E+03	5.985028E-15	1.543018E-17
5.940000E+03	5.932787E-15	1.527555E-17
5.950000E+03	5.864029E-15	1.507907E-17
5.960000E+03	5.781674E-15	1.484843E-17
5.970000E+03	5.688899E-15	1.459192E-17
5.980000E+03	5.588579E-15	1.431702E-17
5.990000E+03	5.483630E-15	1.403127E-17
6.000000E+03	5.376698E-15	1.374147E-17
6.010000E+03	5.270095E-15	1.345357E-17
6.020000E+03	5.165864E-15	1.317275E-17
6.030000E+03	5.065552E-15	1.290296E-17
6.040000E+03	4.970593E-15	1.264779E-17
6.050000E+03	4.881648E-15	1.240890E-17
6.060000E+03	4.799402E-15	1.218798E-17
6.070000E+03	4.724112E-15	1.198562E-17
6.080000E+03	4.655964E-15	1.180227E-17
6.090000E+03	4.594915E-15	1.163775E-17
6.100000E+03	4.541044E-15	1.149224E-17
6.110000E+03	4.494329E-15	1.136564E-17
6.120000E+03	4.454898E-15	1.125823E-17
6.130000E+03	4.422828E-15	1.117020E-17
6.140000E+03	4.398116E-15	1.110151E-17
6.150000E+03	4.380690E-15	1.105196E-17
6.160000E+03	4.370188E-15	1.102063E-17
6.170000E+03	4.365748E-15	1.100535E-17
6.180000E+03	4.365752E-15	1.100205E-17
6.190000E+03	4.367115E-15	1.100297E-17
6.200000E+03	4.365013E-15	1.099598E-17
6.210000E+03	4.353088E-15	1.096507E-17
6.220000E+03	4.323596E-15	1.089072E-17
6.230000E+03	4.267630E-15	1.075047E-17
6.240000E+03	4.180095E-15	1.053142E-17
6.250000E+03	4.066662E-15	1.024778E-17
6.260000E+03	3.942036E-15	9.936507E-18
6.270000E+03	3.822735E-15	9.639144E-18
6.280000E+03	3.721959E-15	9.388940E-18
6.290000E+03	3.646407E-15	9.202795E-18
6.300000E+03	3.599284E-15	9.088847E-18
6.310000E+03	3.581103E-15	9.048483E-18
6.320000E+03	3.590149E-15	9.077481E-18
6.330000E+03	3.623242E-15	9.167927E-18
6.340000E+03	3.676609E-15	9.310414E-18
6.350000E+03	3.745807E-15	9.493817E-18
6.360000E+03	3.825981E-15	9.705948E-18
6.370000E+03	3.912082E-15	9.934088E-18
6.380000E+03	3.999015E-15	1.016536E-17
6.390000E+03	4.081771E-15	1.038706E-17
6.400000E+03	4.155800E-15	1.058758E-17
6.410000E+03	4.217219E-15	1.075695E-17
6.420000E+03	4.263114E-15	1.088764E-17
6.430000E+03	4.291460E-15	1.097428E-17
6.440000E+03	4.301669E-15	1.101520E-17
6.450000E+03	4.294374E-15	1.101179E-17
6.460000E+03	4.271278E-15	1.096821E-17
6.470000E+03	4.234909E-15	1.089077E-17
6.480000E+03	4.188550E-15	1.078771E-17
6.490000E+03	4.135931E-15	1.066851E-17
6.500000E+03	4.080926E-15	1.054307E-17
6.510000E+03	4.027657E-15	1.042197E-17
6.520000E+03	3.979959E-15	1.031516E-17
6.530000E+03	3.941152E-15	1.023128E-17
6.540000E+03	3.913494E-15	1.017628E-17
6.550000E+03	3.897582E-15	1.015184E-17
6.560000E+03	3.893299E-15	1.015778E-17
6.570000E+03	3.900355E-15	1.019348E-17
6.580000E+03	3.917959E-15	1.025699E-17
6.590000E+03	3.944947E-15	1.034538E-17
6.600000E+03	3.979904E-15	1.045505E-17
6.610000E+03	4.020920E-15	1.058106E-17
6.620000E+03	4.065820E-15	1.071774E-17
6.630000E+03	4.112326E-15	1.085911E-17
6.640000E+03	4.157796E-15	1.099819E-17
6.650000E+03	4.199761E-15	1.112841E-17
6.660000E+03	4.235948E-15	1.124366E-17
6.670000E+03	4.264230E-15	1.133819E-17
6.680000E+03	4.283056E-15	1.140774E-17
6.690000E+03	4.291400E-15	1.144945E-17
6.700000E+03	4.288482E-15	1.146104E-17
6.710000E+03	4.274206E-15	1.144212E-17
6.720000E+03	4.249068E-15	1.139383E-17
6.730000E+03	4.213642E-15	1.131757E-17
6.740000E+03	4.169023E-15	1.121613E-17
6.750000E+03	4.116603E-15	1.109313E-17
6.760000E+03	4.057766E-15	1.095221E-17
6.770000E+03	3.994035E-15	1.079739E-17
6.780000E+03	3.926930E-15	1.063273E-17
6.790000E+03	3.857905E-15	1.046212E-17
6.800000E+03	3.788199E-15	1.028890E-17
6.810000E+03	3.719082E-15	1.011654E-17
6.820000E+03	3.651666E-15	9.948054E-18
6.830000E+03	3.586912E-15	9.786105E-18
6.840000E+03	3.525823E-15	9.633467E-18
6.850000E+03	3.469181E-15	9.492330E-18
6.860000E+03	3.417728E-15	9.364782E-18
6.870000E+03	3.372117E-15	9.252684E-18
6.880000E+03	3.332859E-15	9.157513E-18
6.890000E+03	3.300549E-15	9.080980E-18
6.900000E+03	3.275512E-15	9.024065E-18
6.910000E+03	3.257970E-15	8.987460E-18
6.920000E+03	3.248069E-15	8.971654E-18
6.930000E+03	3.245718E-15	8.976482E-18
6.940000E+03	3.250756E-15	9.001576E-18
6.950000E+03	3.262865E-15	9.046132E-18
6.960000E+03	3.281454E-15	9.108578E-18
6.970000E+03	3.305807E-15	9.186997E-18
6.980000E+03	3.334905E-15	9.278603E-18
6.990000E+03	3.367543E-15	9.380088E-18
7.000000E+03	3.402297E-15	9.487514E-18
7.010000E+03	3.437698E-15	9.596799E-18
7.020000E+03	3.471921E-15	9.702851E-18
7.030000E+03	3.503292E-15	9.800978E-18
7.040000E+03	3.530332E-15	9.887014E-18
7.050000E+03	3.551565E-15	9.956790E-18
7.060000E+03	3.565817E-15	1.000696E-17
7.070000E+03	3.572317E-15	1.003532E-17
7.080000E+03	3.570604E-15	1.004050E-17
7.090000E+03	3.560645E-15	1.002235E-17
7.100000E+03	3.542782E-15	9.981789E-18
7.110000E+03	3.517811E-15	9.921001E-18
7.120000E+03	3.486853E-15	9.843105E-18
7.130000E+03	3.451339E-15	9.752112E-18
7.140000E+03	3.412741E-15	9.652164E-18
7.150000E+03	3.372618E-15	9.547659E-18
7.160000E+03	3.332155E-15	9.441962E-18
7.170000E+03	3.292658E-15	9.338785E-18
7.180000E+03	3.255025E-15	9.240700E-18
7.190000E+03	3.219941E-15	9.149681E-18
7.200000E+03	3.187805E-15	9.066897E-18
7.210000E+03	3.159008E-15	8.993498E-18
7.220000E+03	3.133437E-15	8.929206E-18
7.230000E+03	3.111022E-15	8.873857E-18
7.240000E+03	3.091463E-15	8.826633E-18
7.250000E+03	3.074501E-15	8.786835E-18
7.260000E+03	3.059719E-15	8.753307E-18
7.270000E+03	3.046776E-15	8.725100E-18
7.280000E+03	3.035411E-15	8.701503E-18
7.290000E+03	3.025280E-15	8.681557E-18
7.300000E+03	3.016223E-15	8.664825E-18
7.310000E+03	3.007917E-15	8.650404E-18
7.320000E+03	3.000285E-15	8.638101E-18
7.330000E+03	2.993305E-15	8.627872E-18
7.340000E+03	2.986816E-15	8.619275E-18
7.350000E+03	2.980877E-15	8.612502E-18
7.360000E+03	2.975426E-15	8.607399E-18
7.370000E+03	2.970525E-15	8.604164E-18
7.380000E+03	2.966062E-15	8.602500E-18
7.390000E+03	2.961907E-15	8.602049E-18
7.400000E+03	2.957819E-15	8.602135E-18
7.410000E+03	2.953377E-15	8.601548E-18
7.420000E+03	2.948097E-15	8.598892E-18
7.430000E+03	2.941384E-15	8.592434E-18
7.440000E+03	2.932554E-15	8.580171E-18
7.450000E+03	2.920991E-15	8.560283E-18
7.460000E+03	2.906082E-15	8.530947E-18
7.470000E+03	2.887495E-15	8.491150E-18
7.480000E+03	2.864926E-15	8.439947E-18
7.490000E+03	2.838383E-15	8.377296E-18
7.500000E+03	2.808078E-15	8.303742E-18
7.510000E+03	2.774401E-15	8.220361E-18
7.520000E+03	2.738092E-15	8.129274E-18
7.530000E+03	2.699782E-15	8.032291E-18
7.540000E+03	2.660380E-15	7.932060E-18
7.550000E+03	2.620793E-15	7.831255E-18
7.560000E+03	2.582028E-15	7.732862E-18
7.570000E+03	2.544917E-15	7.639377E-18
7.580000E+03	2.510462E-15	7.553826E-18
7.590000E+03	2.479558E-15	7.478950E-18
7.600000E+03	2.453045E-15	7.417350E-18
7.610000E+03	2.431414E-15	7.370596E-18
7.620000E+03	2.415072E-15	7.340029E-18
7.630000E+03	2.403719E-15	7.324852E-18
7.640000E+03	2.396785E-15	7.323436E-18
7.650000E+03	2.393747E-15	7.334282E-18
7.660000E+03	2.393872E-15	7.355240E-18
7.670000E+03	2.396538E-15	7.384472E-18
7.680000E+03	2.401176E-15	7.420293E-18
7.690000E+03	2.407304E-15	7.461265E-18
7.700000E+03	2.414580E-15	7.506367E-18
7.710000E+03	2.422817E-15	7.555055E-18
7.720000E+03	2.431723E-15	7.606451E-18
7.730000E+03	2.441313E-15	7.660626E-18
7.740000E+03	2.451469E-15	7.717239E-18
7.750000E+03	2.462149E-15	7.776178E-18
7.760000E+03	2.473283E-15	7.837243E-18
