#wls	flux	fluxerr
1.600000E+03	2.286059E-16	1.430403E-17
1.640000E+03	2.347326E-16	1.460011E-17
1.680000E+03	2.412439E-16	1.491326E-17
1.720000E+03	2.481961E-16	1.524631E-17
1.760000E+03	2.555904E-16	1.559859E-17
1.800000E+03	2.634549E-16	1.597101E-17
1.840000E+03	2.718445E-16	1.636607E-17
1.880000E+03	2.807575E-16	1.678271E-17
1.920000E+03	2.902469E-16	1.722311E-17
1.960000E+03	3.003073E-16	1.768587E-17
2.000000E+03	3.110160E-16	1.817441E-17
2.040000E+03	3.223627E-16	1.868687E-17
2.080000E+03	3.343902E-16	1.922443E-17
2.120000E+03	3.471377E-16	1.978791E-17
2.160000E+03	3.607260E-16	2.038267E-17
2.200000E+03	3.752129E-16	2.101018E-17
2.240000E+03	3.908521E-16	2.168264E-17
2.280000E+03	4.078020E-16	2.240639E-17
2.320000E+03	4.261509E-16	2.318356E-17
2.360000E+03	4.458851E-16	2.401046E-17
2.400000E+03	4.669432E-16	2.488083E-17
2.440000E+03	4.892721E-16	2.578885E-17
2.480000E+03	5.128232E-16	2.672900E-17
2.520000E+03	5.375768E-16	2.769726E-17
2.560000E+03	5.634793E-16	2.868785E-17
2.600000E+03	5.903810E-16	2.969019E-17
2.640000E+03	6.181734E-16	3.069606E-17
2.680000E+03	6.466133E-16	3.169086E-17
2.720000E+03	6.754320E-16	3.265932E-17
2.760000E+03	7.042761E-16	3.358281E-17
2.800000E+03	7.327061E-16	3.443961E-17
2.840000E+03	7.602518E-16	3.520781E-17
2.880000E+03	7.863362E-16	3.586199E-17
2.920000E+03	8.105364E-16	3.638537E-17
2.960000E+03	8.325437E-16	3.676761E-17
3.000000E+03	8.521698E-16	3.700461E-17
3.010000E+03	8.566644E-16	3.704000E-17
3.020000E+03	8.609863E-16	3.706566E-17
3.030000E+03	8.651450E-16	3.708211E-17
3.040000E+03	8.691270E-16	3.708883E-17
3.050000E+03	8.729174E-16	3.708531E-17
3.060000E+03	8.765476E-16	3.707296E-17
3.070000E+03	8.799588E-16	3.704940E-17
3.080000E+03	8.831822E-16	3.701606E-17
3.090000E+03	8.862034E-16	3.697243E-17
3.100000E+03	8.890299E-16	3.691895E-17
3.110000E+03	8.916483E-16	3.685517E-17
3.120000E+03	8.940655E-16	3.678149E-17
3.130000E+03	8.962690E-16	3.669752E-17
3.140000E+03	8.982465E-16	3.660287E-17
3.150000E+03	9.000051E-16	3.649798E-17
3.160000E+03	9.015530E-16	3.638328E-17
3.170000E+03	9.028791E-16	3.625848E-17
3.180000E+03	9.039731E-16	3.612328E-17
3.190000E+03	9.048439E-16	3.597819E-17
3.200000E+03	9.055013E-16	3.582371E-17
3.210000E+03	9.059358E-16	3.565962E-17
3.220000E+03	9.061410E-16	3.548580E-17
3.230000E+03	9.061116E-16	3.530217E-17
3.240000E+03	9.058766E-16	3.511003E-17
3.250000E+03	9.054314E-16	3.490930E-17
3.260000E+03	9.047743E-16	3.470007E-17
3.270000E+03	9.039032E-16	3.448238E-17
3.280000E+03	9.028344E-16	3.425701E-17
3.290000E+03	9.015535E-16	3.402351E-17
3.300000E+03	9.001096E-16	3.378389E-17
3.310000E+03	8.984751E-16	3.353723E-17
3.320000E+03	8.966567E-16	3.328388E-17
3.330000E+03	8.946900E-16	3.302529E-17
3.340000E+03	8.925672E-16	3.276128E-17
3.350000E+03	8.902976E-16	3.249230E-17
3.360000E+03	8.878917E-16	3.221881E-17
3.370000E+03	8.853617E-16	3.194137E-17
3.380000E+03	8.827196E-16	3.166050E-17
3.390000E+03	8.799662E-16	3.137629E-17
3.400000E+03	8.771430E-16	3.109031E-17
3.410000E+03	8.742290E-16	3.080186E-17
3.420000E+03	8.712430E-16	3.051169E-17
3.430000E+03	8.682178E-16	3.022098E-17
3.440000E+03	8.651523E-16	2.992973E-17
3.450000E+03	8.620490E-16	2.963808E-17
3.460000E+03	8.589485E-16	2.934744E-17
3.470000E+03	8.558589E-16	2.905810E-17
3.480000E+03	8.527943E-16	2.877054E-17
3.490000E+03	8.497843E-16	2.848575E-17
3.500000E+03	8.468518E-16	2.820447E-17
3.510000E+03	8.440053E-16	2.792694E-17
3.520000E+03	8.412903E-16	2.765462E-17
3.530000E+03	8.387281E-16	2.738813E-17
3.540000E+03	8.363566E-16	2.712861E-17
3.550000E+03	8.341939E-16	2.687652E-17
3.560000E+03	8.322923E-16	2.663343E-17
3.570000E+03	8.306916E-16	2.640043E-17
3.580000E+03	8.294319E-16	2.617861E-17
3.590000E+03	8.285845E-16	2.596999E-17
3.600000E+03	8.282038E-16	2.577600E-17
3.610000E+03	8.283340E-16	2.559771E-17
3.620000E+03	8.290419E-16	2.543684E-17
3.630000E+03	8.303954E-16	2.529510E-17
3.640000E+03	8.324820E-16	2.517470E-17
3.650000E+03	8.353694E-16	2.507721E-17
3.660000E+03	8.391514E-16	2.500489E-17
3.670000E+03	8.439184E-16	2.495983E-17
3.680000E+03	8.497834E-16	2.494470E-17
3.690000E+03	8.568272E-16	2.496112E-17
3.700000E+03	8.651742E-16	2.501191E-17
3.710000E+03	8.749134E-16	2.509877E-17
3.720000E+03	8.861572E-16	2.522396E-17
3.730000E+03	8.990148E-16	2.538958E-17
3.740000E+03	9.135879E-16	2.559739E-17
3.750000E+03	9.299711E-16	2.584890E-17
3.760000E+03	9.482724E-16	2.614586E-17
3.770000E+03	9.685649E-16	2.648901E-17
3.780000E+03	9.909443E-16	2.687961E-17
3.790000E+03	1.015453E-15	2.731740E-17
3.800000E+03	1.042153E-15	2.780265E-17
3.810000E+03	1.071054E-15	2.833415E-17
3.820000E+03	1.102163E-15	2.891061E-17
3.830000E+03	1.135447E-15	2.952970E-17
3.840000E+03	1.170811E-15	3.018756E-17
3.850000E+03	1.208158E-15	3.088032E-17
3.860000E+03	1.247309E-15	3.160214E-17
3.870000E+03	1.288026E-15	3.234590E-17
3.880000E+03	1.330034E-15	3.310369E-17
3.890000E+03	1.372961E-15	3.386556E-17
3.900000E+03	1.416418E-15	3.462141E-17
3.910000E+03	1.459913E-15	3.535904E-17
3.920000E+03	1.502940E-15	3.606629E-17
3.930000E+03	1.544928E-15	3.673000E-17
3.940000E+03	1.585287E-15	3.733703E-17
3.950000E+03	1.623447E-15	3.787524E-17
3.960000E+03	1.658822E-15	3.833263E-17
3.970000E+03	1.690906E-15	3.869956E-17
3.980000E+03	1.719236E-15	3.896776E-17
3.990000E+03	1.743432E-15	3.913132E-17
4.000000E+03	1.763237E-15	3.918734E-17
4.010000E+03	1.778513E-15	3.913574E-17
4.020000E+03	1.789218E-15	3.897868E-17
4.030000E+03	1.795467E-15	3.872175E-17
4.040000E+03	1.797493E-15	3.837290E-17
4.050000E+03	1.795628E-15	3.794199E-17
4.060000E+03	1.790279E-15	3.744013E-17
4.070000E+03	1.781966E-15	3.688042E-17
4.080000E+03	1.771231E-15	3.627593E-17
4.090000E+03	1.758638E-15	3.563972E-17
4.100000E+03	1.744760E-15	3.498449E-17
4.110000E+03	1.730152E-15	3.432216E-17
4.120000E+03	1.715344E-15	3.366362E-17
4.130000E+03	1.700848E-15	3.301899E-17
4.140000E+03	1.687098E-15	3.239641E-17
4.150000E+03	1.674486E-15	3.180292E-17
4.160000E+03	1.663356E-15	3.124432E-17
4.170000E+03	1.654030E-15	3.072570E-17
4.180000E+03	1.646741E-15	3.025027E-17
4.190000E+03	1.641698E-15	2.982065E-17
4.200000E+03	1.639051E-15	2.943819E-17
4.210000E+03	1.638914E-15	2.910355E-17
4.220000E+03	1.641336E-15	2.881616E-17
4.230000E+03	1.646342E-15	2.857503E-17
4.240000E+03	1.653881E-15	2.837783E-17
4.250000E+03	1.663871E-15	2.822183E-17
4.260000E+03	1.676152E-15	2.810305E-17
4.270000E+03	1.690537E-15	2.801721E-17
4.280000E+03	1.706787E-15	2.795936E-17
4.290000E+03	1.724601E-15	2.792379E-17
4.300000E+03	1.743654E-15	2.790460E-17
4.310000E+03	1.763596E-15	2.789581E-17
4.320000E+03	1.784029E-15	2.789096E-17
4.330000E+03	1.804561E-15	2.788396E-17
4.340000E+03	1.824810E-15	2.786921E-17
4.350000E+03	1.844391E-15	2.784134E-17
4.360000E+03	1.863033E-15	2.779690E-17
4.370000E+03	1.880536E-15	2.773377E-17
4.380000E+03	1.896883E-15	2.765255E-17
4.390000E+03	1.912271E-15	2.755693E-17
4.400000E+03	1.927103E-15	2.745346E-17
4.410000E+03	1.941986E-15	2.735119E-17
4.420000E+03	1.957747E-15	2.726195E-17
4.430000E+03	1.975300E-15	2.719816E-17
4.440000E+03	1.995656E-15	2.717309E-17
4.450000E+03	2.019854E-15	2.719980E-17
4.460000E+03	2.048890E-15	2.729022E-17
4.470000E+03	2.083685E-15	2.745479E-17
4.480000E+03	2.125062E-15	2.770228E-17
4.490000E+03	2.173682E-15	2.803883E-17
4.500000E+03	2.230027E-15	2.846799E-17
4.510000E+03	2.294440E-15	2.899141E-17
4.520000E+03	2.366971E-15	2.960706E-17
4.530000E+03	2.447433E-15	3.031005E-17
4.540000E+03	2.535346E-15	3.109212E-17
4.550000E+03	2.629902E-15	3.194139E-17
4.560000E+03	2.729958E-15	3.284243E-17
4.570000E+03	2.833983E-15	3.377577E-17
4.580000E+03	2.940078E-15	3.471834E-17
4.590000E+03	3.046007E-15	3.564397E-17
4.600000E+03	3.149291E-15	3.652464E-17
4.610000E+03	3.247259E-15	3.733105E-17
4.620000E+03	3.337160E-15	3.803402E-17
4.630000E+03	3.416399E-15	3.860708E-17
4.640000E+03	3.482609E-15	3.902716E-17
4.650000E+03	3.533809E-15	3.927619E-17
4.660000E+03	3.568466E-15	3.934153E-17
4.670000E+03	3.585728E-15	3.921835E-17
4.680000E+03	3.585300E-15	3.890790E-17
4.690000E+03	3.567638E-15	3.841944E-17
4.700000E+03	3.533831E-15	3.776860E-17
4.710000E+03	3.485469E-15	3.697578E-17
4.720000E+03	3.424694E-15	3.606655E-17
4.730000E+03	3.353960E-15	3.506894E-17
4.740000E+03	3.275939E-15	3.401238E-17
4.750000E+03	3.193404E-15	3.292652E-17
4.760000E+03	3.109135E-15	3.184019E-17
4.770000E+03	3.025782E-15	3.078018E-17
4.780000E+03	2.945910E-15	2.977169E-17
4.790000E+03	2.871713E-15	2.883554E-17
4.800000E+03	2.804711E-15	2.798534E-17
4.810000E+03	2.746115E-15	2.723132E-17
4.820000E+03	2.696920E-15	2.658140E-17
4.830000E+03	2.657813E-15	2.604030E-17
4.840000E+03	2.629256E-15	2.561050E-17
4.850000E+03	2.611416E-15	2.529165E-17
4.860000E+03	2.604218E-15	2.508107E-17
4.870000E+03	2.607457E-15	2.497481E-17
4.880000E+03	2.620755E-15	2.496729E-17
4.890000E+03	2.643584E-15	2.505165E-17
4.900000E+03	2.675245E-15	2.521957E-17
4.910000E+03	2.714790E-15	2.546062E-17
4.920000E+03	2.761070E-15	2.576266E-17
4.930000E+03	2.812474E-15	2.610953E-17
4.940000E+03	2.867040E-15	2.648215E-17
4.950000E+03	2.922344E-15	2.685752E-17
4.960000E+03	2.975530E-15	2.720919E-17
4.970000E+03	3.023520E-15	2.750913E-17
4.980000E+03	3.063191E-15	2.772954E-17
4.990000E+03	3.091793E-15	2.784648E-17
5.000000E+03	3.107241E-15	2.784252E-17
5.010000E+03	3.108556E-15	2.771047E-17
5.020000E+03	3.095695E-15	2.745167E-17
5.030000E+03	3.069858E-15	2.707849E-17
5.040000E+03	3.033067E-15	2.661028E-17
5.050000E+03	2.987812E-15	2.607022E-17
5.060000E+03	2.936905E-15	2.548382E-17
5.070000E+03	2.883139E-15	2.487594E-17
5.080000E+03	2.829014E-15	2.426843E-17
5.090000E+03	2.776774E-15	2.368047E-17
5.100000E+03	2.728190E-15	2.312683E-17
5.110000E+03	2.684513E-15	2.261754E-17
5.120000E+03	2.646465E-15	2.215792E-17
5.130000E+03	2.614408E-15	2.175017E-17
5.140000E+03	2.588520E-15	2.139488E-17
5.150000E+03	2.568870E-15	2.109167E-17
5.160000E+03	2.555593E-15	2.084072E-17
5.170000E+03	2.548957E-15	2.064321E-17
5.180000E+03	2.549388E-15	2.050154E-17
5.190000E+03	2.557423E-15	2.041888E-17
5.200000E+03	2.573683E-15	2.039896E-17
5.210000E+03	2.598733E-15	2.044488E-17
5.220000E+03	2.632975E-15	2.055837E-17
5.230000E+03	2.676596E-15	2.073938E-17
5.240000E+03	2.729479E-15	2.098552E-17
5.250000E+03	2.791090E-15	2.129123E-17
5.260000E+03	2.860512E-15	2.164824E-17
5.270000E+03	2.936490E-15	2.204601E-17
5.280000E+03	3.017362E-15	2.247131E-17
5.290000E+03	3.101116E-15	2.290883E-17
5.300000E+03	3.185410E-15	2.334135E-17
5.310000E+03	3.267704E-15	2.375091E-17
5.320000E+03	3.345349E-15	2.411938E-17
5.330000E+03	3.415705E-15	2.442942E-17
5.340000E+03	3.476268E-15	2.466531E-17
5.350000E+03	3.524768E-15	2.481356E-17
5.360000E+03	3.559406E-15	2.486444E-17
5.370000E+03	3.578864E-15	2.481193E-17
5.380000E+03	3.582539E-15	2.465511E-17
5.390000E+03	3.570603E-15	2.439834E-17
5.400000E+03	3.544188E-15	2.405228E-17
5.410000E+03	3.505293E-15	2.363304E-17
5.420000E+03	3.456877E-15	2.316259E-17
5.430000E+03	3.402681E-15	2.266745E-17
5.440000E+03	3.347111E-15	2.217776E-17
5.450000E+03	3.294953E-15	2.172544E-17
5.460000E+03	3.251164E-15	2.134291E-17
5.470000E+03	3.220440E-15	2.106038E-17
5.480000E+03	3.207221E-15	2.090613E-17
5.490000E+03	3.215116E-15	2.090299E-17
5.500000E+03	3.244673E-15	2.105414E-17
5.510000E+03	3.289773E-15	2.131979E-17
5.520000E+03	3.341993E-15	2.164500E-17
5.530000E+03	3.392557E-15	2.197267E-17
5.540000E+03	3.432967E-15	2.224746E-17
5.550000E+03	3.455826E-15	2.242081E-17
5.560000E+03	3.455636E-15	2.245590E-17
5.570000E+03	3.429363E-15	2.233131E-17
5.580000E+03	3.376427E-15	2.204101E-17
5.590000E+03	3.298545E-15	2.159362E-17
5.600000E+03	3.199268E-15	2.100963E-17
5.610000E+03	3.083421E-15	2.031804E-17
5.620000E+03	2.956520E-15	1.955278E-17
5.630000E+03	2.824271E-15	1.874958E-17
5.640000E+03	2.692107E-15	1.794305E-17
5.650000E+03	2.564986E-15	1.716532E-17
5.660000E+03	2.447109E-15	1.644413E-17
5.670000E+03	2.341963E-15	1.580304E-17
5.680000E+03	2.252225E-15	1.526067E-17
5.690000E+03	2.179904E-15	1.483147E-17
5.700000E+03	2.126402E-15	1.452608E-17
5.710000E+03	2.092494E-15	1.435102E-17
5.720000E+03	2.078506E-15	1.430978E-17
5.730000E+03	2.084415E-15	1.440345E-17
5.740000E+03	2.110093E-15	1.463230E-17
5.750000E+03	2.155356E-15	1.499606E-17
5.760000E+03	2.220009E-15	1.549427E-17
5.770000E+03	2.303614E-15	1.612453E-17
5.780000E+03	2.405613E-15	1.688341E-17
5.790000E+03	2.524892E-15	1.776332E-17
5.800000E+03	2.659933E-15	1.875353E-17
5.810000E+03	2.808416E-15	1.983733E-17
5.820000E+03	2.967273E-15	2.099243E-17
5.830000E+03	3.132880E-15	2.219228E-17
5.840000E+03	3.301013E-15	2.340584E-17
5.850000E+03	3.467219E-15	2.460023E-17
5.860000E+03	3.626874E-15	2.574130E-17
5.870000E+03	3.775791E-15	2.679800E-17
5.880000E+03	3.910045E-15	2.774131E-17
5.890000E+03	4.026529E-15	2.854821E-17
5.900000E+03	4.122746E-15	2.920033E-17
5.910000E+03	4.197227E-15	2.968698E-17
5.920000E+03	4.249242E-15	3.000305E-17
5.930000E+03	4.278841E-15	3.014936E-17
5.940000E+03	4.286719E-15	3.013159E-17
5.950000E+03	4.274306E-15	2.996089E-17
5.960000E+03	4.243405E-15	2.965126E-17
5.970000E+03	4.196135E-15	2.921902E-17
5.980000E+03	4.135024E-15	2.868342E-17
5.990000E+03	4.062617E-15	2.806379E-17
6.000000E+03	3.981632E-15	2.738051E-17
6.010000E+03	3.894774E-15	2.665371E-17
6.020000E+03	3.804561E-15	2.590197E-17
6.030000E+03	3.713433E-15	2.514304E-17
6.040000E+03	3.623571E-15	2.439260E-17
6.050000E+03	3.536848E-15	2.366392E-17
6.060000E+03	3.454699E-15	2.296701E-17
6.070000E+03	3.378277E-15	2.230974E-17
6.080000E+03	3.308415E-15	2.169762E-17
6.090000E+03	3.245493E-15	2.113301E-17
6.100000E+03	3.189750E-15	2.061721E-17
6.110000E+03	3.141077E-15	2.014922E-17
6.120000E+03	3.099340E-15	1.972786E-17
6.130000E+03	3.064077E-15	1.934985E-17
6.140000E+03	3.034714E-15	1.901132E-17
6.150000E+03	3.010593E-15	1.870799E-17
6.160000E+03	2.990753E-15	1.843384E-17
6.170000E+03	2.974028E-15	1.818181E-17
6.180000E+03	2.959159E-15	1.794454E-17
6.190000E+03	2.944600E-15	1.771324E-17
6.200000E+03	2.928619E-15	1.747830E-17
6.210000E+03	2.909576E-15	1.723099E-17
6.220000E+03	2.885952E-15	1.696359E-17
6.230000E+03	2.856839E-15	1.667187E-17
6.240000E+03	2.821995E-15	1.635541E-17
6.250000E+03	2.781812E-15	1.601740E-17
6.260000E+03	2.737274E-15	1.566431E-17
6.270000E+03	2.689924E-15	1.530556E-17
6.280000E+03	2.641701E-15	1.495254E-17
6.290000E+03	2.594538E-15	1.461634E-17
6.300000E+03	2.550195E-15	1.430686E-17
6.310000E+03	2.510065E-15	1.403181E-17
6.320000E+03	2.475374E-15	1.379792E-17
6.330000E+03	2.446819E-15	1.360897E-17
6.340000E+03	2.424912E-15	1.346780E-17
6.350000E+03	2.409759E-15	1.337514E-17
6.360000E+03	2.401238E-15	1.333060E-17
6.370000E+03	2.399028E-15	1.333283E-17
6.380000E+03	2.402607E-15	1.337956E-17
6.390000E+03	2.411227E-15	1.346736E-17
6.400000E+03	2.424106E-15	1.359273E-17
6.410000E+03	2.440372E-15	1.375172E-17
6.420000E+03	2.459100E-15	1.394005E-17
6.430000E+03	2.479395E-15	1.415360E-17
6.440000E+03	2.500510E-15	1.438888E-17
6.450000E+03	2.521682E-15	1.464162E-17
6.460000E+03	2.542353E-15	1.490813E-17
6.470000E+03	2.562097E-15	1.518535E-17
6.480000E+03	2.580571E-15	1.547048E-17
6.490000E+03	2.597581E-15	1.576149E-17
6.500000E+03	2.613048E-15	1.605692E-17
6.510000E+03	2.626991E-15	1.635582E-17
6.520000E+03	2.639799E-15	1.665955E-17
6.530000E+03	2.652135E-15	1.697132E-17
6.540000E+03	2.664878E-15	1.729596E-17
6.550000E+03	2.678919E-15	1.763873E-17
6.560000E+03	2.695360E-15	1.800661E-17
6.570000E+03	2.715209E-15	1.840648E-17
6.580000E+03	2.739213E-15	1.884381E-17
6.590000E+03	2.767800E-15	1.932221E-17
6.600000E+03	2.801000E-15	1.984272E-17
6.610000E+03	2.838274E-15	2.040230E-17
6.620000E+03	2.878639E-15	2.099449E-17
6.630000E+03	2.920690E-15	2.160932E-17
6.640000E+03	2.962718E-15	2.223395E-17
6.650000E+03	3.002828E-15	2.285338E-17
6.660000E+03	3.039037E-15	2.345116E-17
6.670000E+03	3.069583E-15	2.401170E-17
6.680000E+03	3.092917E-15	2.452038E-17
6.690000E+03	3.107832E-15	2.496471E-17
6.700000E+03	3.113461E-15	2.533447E-17
6.710000E+03	3.109508E-15	2.562390E-17
6.720000E+03	3.095867E-15	2.582872E-17
6.730000E+03	3.072896E-15	2.594862E-17
6.740000E+03	3.041369E-15	2.598712E-17
6.750000E+03	3.002103E-15	2.594845E-17
6.760000E+03	2.956255E-15	2.584029E-17
6.770000E+03	2.905000E-15	2.567101E-17
6.780000E+03	2.849736E-15	2.545150E-17
6.790000E+03	2.791673E-15	2.519158E-17
6.800000E+03	2.732161E-15	2.490284E-17
6.810000E+03	2.672448E-15	2.459649E-17
6.820000E+03	2.613728E-15	2.428369E-17
6.830000E+03	2.557111E-15	2.397531E-17
6.840000E+03	2.503620E-15	2.368173E-17
6.850000E+03	2.454135E-15	2.341230E-17
6.860000E+03	2.409554E-15	2.317682E-17
6.870000E+03	2.370489E-15	2.298254E-17
6.880000E+03	2.337603E-15	2.283738E-17
6.890000E+03	2.311314E-15	2.274694E-17
6.900000E+03	2.291920E-15	2.271567E-17
6.910000E+03	2.279725E-15	2.274812E-17
6.920000E+03	2.274773E-15	2.284619E-17
6.930000E+03	2.277018E-15	2.301079E-17
6.940000E+03	2.286252E-15	2.324106E-17
6.950000E+03	2.302132E-15	2.353463E-17
6.960000E+03	2.323987E-15	2.388557E-17
6.970000E+03	2.351113E-15	2.428740E-17
6.980000E+03	2.382454E-15	2.472972E-17
6.990000E+03	2.416796E-15	2.520023E-17
7.000000E+03	2.452766E-15	2.568466E-17
7.010000E+03	2.488930E-15	2.616790E-17
7.020000E+03	2.523731E-15	2.663319E-17
7.030000E+03	2.555708E-15	2.706463E-17
7.040000E+03	2.583599E-15	2.744825E-17
7.050000E+03	2.606257E-15	2.777120E-17
7.060000E+03	2.622915E-15	2.802459E-17
7.070000E+03	2.633017E-15	2.820184E-17
7.080000E+03	2.636389E-15	2.830051E-17
7.090000E+03	2.633224E-15	2.832217E-17
7.100000E+03	2.623951E-15	2.827111E-17
7.110000E+03	2.609192E-15	2.815378E-17
7.120000E+03	2.589904E-15	2.798044E-17
7.130000E+03	2.566915E-15	2.776003E-17
7.140000E+03	2.541423E-15	2.750564E-17
7.150000E+03	2.514374E-15	2.722769E-17
7.160000E+03	2.486814E-15	2.693773E-17
7.170000E+03	2.459695E-15	2.664638E-17
7.180000E+03	2.433680E-15	2.636105E-17
7.190000E+03	2.409415E-15	2.608901E-17
7.200000E+03	2.387370E-15	2.583558E-17
7.210000E+03	2.367668E-15	2.560229E-17
7.220000E+03	2.350443E-15	2.539076E-17
7.230000E+03	2.335554E-15	2.519959E-17
7.240000E+03	2.322657E-15	2.502520E-17
7.250000E+03	2.311341E-15	2.486324E-17
7.260000E+03	2.301110E-15	2.470851E-17
7.270000E+03	2.291544E-15	2.455663E-17
7.280000E+03	2.281997E-15	2.440081E-17
7.290000E+03	2.272188E-15	2.423824E-17
7.300000E+03	2.261653E-15	2.406420E-17
7.310000E+03	2.250373E-15	2.387874E-17
7.320000E+03	2.238190E-15	2.368045E-17
7.330000E+03	2.225335E-15	2.347207E-17
7.340000E+03	2.212025E-15	2.325616E-17
7.350000E+03	2.198616E-15	2.303672E-17
7.360000E+03	2.185507E-15	2.281814E-17
7.370000E+03	2.172993E-15	2.260370E-17
7.380000E+03	2.161525E-15	2.239821E-17
7.390000E+03	2.151215E-15	2.220295E-17
7.400000E+03	2.142305E-15	2.202044E-17
7.410000E+03	2.134701E-15	2.184980E-17
7.420000E+03	2.128217E-15	2.168915E-17
7.430000E+03	2.122559E-15	2.153559E-17
7.440000E+03	2.117407E-15	2.138599E-17
7.450000E+03	2.112181E-15	2.123467E-17
7.460000E+03	2.106429E-15	2.107733E-17
7.470000E+03	2.099413E-15	2.090692E-17
7.480000E+03	2.090612E-15	2.071870E-17
7.490000E+03	2.079525E-15	2.050821E-17
7.500000E+03	2.065717E-15	2.027165E-17
7.510000E+03	2.048919E-15	2.000684E-17
7.520000E+03	2.029074E-15	1.971367E-17
7.530000E+03	2.006392E-15	1.939466E-17
7.540000E+03	1.981198E-15	1.905339E-17
7.550000E+03	1.954114E-15	1.869622E-17
7.560000E+03	1.925852E-15	1.833024E-17
7.570000E+03	1.897146E-15	1.796265E-17
7.580000E+03	1.868804E-15	1.760118E-17
7.590000E+03	1.841656E-15	1.725361E-17
7.600000E+03	1.816430E-15	1.692661E-17
7.610000E+03	1.793690E-15	1.662518E-17
7.620000E+03	1.774062E-15	1.635482E-17
7.630000E+03	1.757754E-15	1.611704E-17
7.640000E+03	1.744881E-15	1.591248E-17
7.650000E+03	1.735447E-15	1.574076E-17
7.660000E+03	1.729522E-15	1.560214E-17
7.670000E+03	1.726977E-15	1.549502E-17
7.680000E+03	1.727608E-15	1.541726E-17
7.690000E+03	1.731280E-15	1.536732E-17
7.700000E+03	1.737605E-15	1.534152E-17
7.710000E+03	1.746257E-15	1.533680E-17
7.720000E+03	1.756790E-15	1.534915E-17
7.730000E+03	1.768689E-15	1.537404E-17
7.740000E+03	1.781394E-15	1.540672E-17
7.750000E+03	1.794404E-15	1.544301E-17
7.760000E+03	1.807109E-15	1.547796E-17
