#wls	flux	fluxerr
1.600000E+03	3.978090E-16	1.497256E-17
1.640000E+03	4.096546E-16	1.533542E-17
1.680000E+03	4.223420E-16	1.572277E-17
1.720000E+03	4.358772E-16	1.613409E-17
1.760000E+03	4.503572E-16	1.657216E-17
1.800000E+03	4.657863E-16	1.703627E-17
1.840000E+03	4.823067E-16	1.753068E-17
1.880000E+03	4.998729E-16	1.805268E-17
1.920000E+03	5.186717E-16	1.860793E-17
1.960000E+03	5.386995E-16	1.919506E-17
2.000000E+03	5.599959E-16	1.981421E-17
2.040000E+03	5.826440E-16	2.046694E-17
2.080000E+03	6.067220E-16	2.115449E-17
2.120000E+03	6.322534E-16	2.187611E-17
2.160000E+03	6.592050E-16	2.262899E-17
2.200000E+03	6.877762E-16	2.341821E-17
2.240000E+03	7.180592E-16	2.424498E-17
2.280000E+03	7.506222E-16	2.512624E-17
2.320000E+03	7.854314E-16	2.605822E-17
2.360000E+03	8.224309E-16	2.703637E-17
2.400000E+03	8.616847E-16	2.806002E-17
2.440000E+03	9.031786E-16	2.912581E-17
2.480000E+03	9.471081E-16	3.023699E-17
2.520000E+03	9.934269E-16	3.138882E-17
2.560000E+03	1.042183E-15	3.257948E-17
2.600000E+03	1.093220E-15	3.380062E-17
2.640000E+03	1.146405E-15	3.504481E-17
2.680000E+03	1.201429E-15	3.629925E-17
2.720000E+03	1.257939E-15	3.755036E-17
2.760000E+03	1.315390E-15	3.877918E-17
2.800000E+03	1.372984E-15	3.996028E-17
2.840000E+03	1.429916E-15	4.106912E-17
2.880000E+03	1.485040E-15	4.207280E-17
2.920000E+03	1.537424E-15	4.294627E-17
2.960000E+03	1.586749E-15	4.368289E-17
3.000000E+03	1.632558E-15	4.427301E-17
3.010000E+03	1.643419E-15	4.439691E-17
3.020000E+03	1.654013E-15	4.451066E-17
3.030000E+03	1.664314E-15	4.461364E-17
3.040000E+03	1.674376E-15	4.470735E-17
3.050000E+03	1.684129E-15	4.479002E-17
3.060000E+03	1.693587E-15	4.486210E-17
3.070000E+03	1.702722E-15	4.492289E-17
3.080000E+03	1.711542E-15	4.497275E-17
3.090000E+03	1.720019E-15	4.501104E-17
3.100000E+03	1.728161E-15	4.503803E-17
3.110000E+03	1.735939E-15	4.505310E-17
3.120000E+03	1.743325E-15	4.505558E-17
3.130000E+03	1.750324E-15	4.504579E-17
3.140000E+03	1.756909E-15	4.502313E-17
3.150000E+03	1.763121E-15	4.498878E-17
3.160000E+03	1.768862E-15	4.494034E-17
3.170000E+03	1.774175E-15	4.487907E-17
3.180000E+03	1.779032E-15	4.480441E-17
3.190000E+03	1.783441E-15	4.471670E-17
3.200000E+03	1.787344E-15	4.461466E-17
3.210000E+03	1.790786E-15	4.449952E-17
3.220000E+03	1.793742E-15	4.437087E-17
3.230000E+03	1.796162E-15	4.422762E-17
3.240000E+03	1.798091E-15	4.407108E-17
3.250000E+03	1.799546E-15	4.390177E-17
3.260000E+03	1.800448E-15	4.371802E-17
3.270000E+03	1.800851E-15	4.352126E-17
3.280000E+03	1.800746E-15	4.331147E-17
3.290000E+03	1.800127E-15	4.308870E-17
3.300000E+03	1.798993E-15	4.285309E-17
3.310000E+03	1.797372E-15	4.260552E-17
3.320000E+03	1.795269E-15	4.234623E-17
3.330000E+03	1.792688E-15	4.207553E-17
3.340000E+03	1.789638E-15	4.179379E-17
3.350000E+03	1.786129E-15	4.150142E-17
3.360000E+03	1.782198E-15	4.119946E-17
3.370000E+03	1.777832E-15	4.088774E-17
3.380000E+03	1.773043E-15	4.056675E-17
3.390000E+03	1.767847E-15	4.023696E-17
3.400000E+03	1.762258E-15	3.989886E-17
3.410000E+03	1.756288E-15	3.955289E-17
3.420000E+03	1.749931E-15	3.919906E-17
3.430000E+03	1.743182E-15	3.883739E-17
3.440000E+03	1.736082E-15	3.846897E-17
3.450000E+03	1.728631E-15	3.809394E-17
3.460000E+03	1.720815E-15	3.771212E-17
3.470000E+03	1.712667E-15	3.732439E-17
3.480000E+03	1.704209E-15	3.693135E-17
3.490000E+03	1.695452E-15	3.653338E-17
3.500000E+03	1.686420E-15	3.613111E-17
3.510000E+03	1.677186E-15	3.572622E-17
3.520000E+03	1.667745E-15	3.531870E-17
3.530000E+03	1.658182E-15	3.491044E-17
3.540000E+03	1.648511E-15	3.450176E-17
3.550000E+03	1.638781E-15	3.409377E-17
3.560000E+03	1.629062E-15	3.368794E-17
3.570000E+03	1.619426E-15	3.328576E-17
3.580000E+03	1.609975E-15	3.288933E-17
3.590000E+03	1.600796E-15	3.250033E-17
3.600000E+03	1.591986E-15	3.212067E-17
3.610000E+03	1.583697E-15	3.175322E-17
3.620000E+03	1.576093E-15	3.140111E-17
3.630000E+03	1.569367E-15	3.106789E-17
3.640000E+03	1.563728E-15	3.075739E-17
3.650000E+03	1.559425E-15	3.047402E-17
3.660000E+03	1.556680E-15	3.022164E-17
3.670000E+03	1.555754E-15	3.000467E-17
3.680000E+03	1.556899E-15	2.982727E-17
3.690000E+03	1.560386E-15	2.969380E-17
3.700000E+03	1.566479E-15	2.960836E-17
3.710000E+03	1.575458E-15	2.957521E-17
3.720000E+03	1.587608E-15	2.959855E-17
3.730000E+03	1.603199E-15	2.968218E-17
3.740000E+03	1.622517E-15	2.983000E-17
3.750000E+03	1.645842E-15	3.004569E-17
3.760000E+03	1.673419E-15	3.033216E-17
3.770000E+03	1.705540E-15	3.069297E-17
3.780000E+03	1.742408E-15	3.112999E-17
3.790000E+03	1.784284E-15	3.164603E-17
3.800000E+03	1.831314E-15	3.224168E-17
3.810000E+03	1.883656E-15	3.291770E-17
3.820000E+03	1.941384E-15	3.367329E-17
3.830000E+03	2.004519E-15	3.450671E-17
3.840000E+03	2.072993E-15	3.541470E-17
3.850000E+03	2.146627E-15	3.639211E-17
3.860000E+03	2.225070E-15	3.743105E-17
3.870000E+03	2.307834E-15	3.852147E-17
3.880000E+03	2.394253E-15	3.965069E-17
3.890000E+03	2.483453E-15	4.080294E-17
3.900000E+03	2.574328E-15	4.195911E-17
3.910000E+03	2.665650E-15	4.309872E-17
3.920000E+03	2.755913E-15	4.419750E-17
3.930000E+03	2.843504E-15	4.523023E-17
3.940000E+03	2.926756E-15	4.617172E-17
3.950000E+03	3.003896E-15	4.699598E-17
3.960000E+03	3.073326E-15	4.768070E-17
3.970000E+03	3.133534E-15	4.820568E-17
3.980000E+03	3.183209E-15	4.855461E-17
3.990000E+03	3.221434E-15	4.871782E-17
4.000000E+03	3.247558E-15	4.869008E-17
4.010000E+03	3.261358E-15	4.847288E-17
4.020000E+03	3.263068E-15	4.807453E-17
4.030000E+03	3.253268E-15	4.750829E-17
4.040000E+03	3.232903E-15	4.679235E-17
4.050000E+03	3.203310E-15	4.595005E-17
4.060000E+03	3.165927E-15	4.500544E-17
4.070000E+03	3.122437E-15	4.398530E-17
4.080000E+03	3.074512E-15	4.291532E-17
4.090000E+03	3.023860E-15	4.182090E-17
4.100000E+03	2.972019E-15	4.072414E-17
4.110000E+03	2.920457E-15	3.964547E-17
4.120000E+03	2.870378E-15	3.860096E-17
4.130000E+03	2.822843E-15	3.760419E-17
4.140000E+03	2.778686E-15	3.666522E-17
4.150000E+03	2.738612E-15	3.579200E-17
4.160000E+03	2.703146E-15	3.498979E-17
4.170000E+03	2.672755E-15	3.426286E-17
4.180000E+03	2.647764E-15	3.361347E-17
4.190000E+03	2.628398E-15	3.304246E-17
4.200000E+03	2.614802E-15	3.254959E-17
4.210000E+03	2.607075E-15	3.213399E-17
4.220000E+03	2.605158E-15	3.179288E-17
4.230000E+03	2.608938E-15	3.152280E-17
4.240000E+03	2.618176E-15	3.131893E-17
4.250000E+03	2.632510E-15	3.117512E-17
4.260000E+03	2.651472E-15	3.108415E-17
4.270000E+03	2.674462E-15	3.103754E-17
4.280000E+03	2.700764E-15	3.102580E-17
4.290000E+03	2.729513E-15	3.103806E-17
4.300000E+03	2.759815E-15	3.106358E-17
4.310000E+03	2.790636E-15	3.109050E-17
4.320000E+03	2.820982E-15	3.110784E-17
4.330000E+03	2.849749E-15	3.110392E-17
4.340000E+03	2.875811E-15	3.106731E-17
4.350000E+03	2.898077E-15	3.098742E-17
4.360000E+03	2.915559E-15	3.085525E-17
4.370000E+03	2.927470E-15	3.066430E-17
4.380000E+03	2.933308E-15	3.041133E-17
4.390000E+03	2.933196E-15	3.009969E-17
4.400000E+03	2.928280E-15	2.974301E-17
4.410000E+03	2.920882E-15	2.936627E-17
4.420000E+03	2.913603E-15	2.899620E-17
4.430000E+03	2.909156E-15	2.865957E-17
4.440000E+03	2.910168E-15	2.838125E-17
4.450000E+03	2.919175E-15	2.818416E-17
4.460000E+03	2.938488E-15	2.808807E-17
4.470000E+03	2.970138E-15	2.810930E-17
4.480000E+03	3.015814E-15	2.826029E-17
4.490000E+03	3.076665E-15	2.854796E-17
4.500000E+03	3.153304E-15	2.897401E-17
4.510000E+03	3.246073E-15	2.953758E-17
4.520000E+03	3.354983E-15	3.023485E-17
4.530000E+03	3.479596E-15	3.105810E-17
4.540000E+03	3.619039E-15	3.199610E-17
4.550000E+03	3.771798E-15	3.303237E-17
4.560000E+03	3.935606E-15	3.414456E-17
4.570000E+03	4.107568E-15	3.530574E-17
4.580000E+03	4.283664E-15	3.648042E-17
4.590000E+03	4.459262E-15	3.762927E-17
4.600000E+03	4.629013E-15	3.870842E-17
4.610000E+03	4.787633E-15	3.967609E-17
4.620000E+03	4.929737E-15	4.049123E-17
4.630000E+03	5.050278E-15	4.111700E-17
4.640000E+03	5.144956E-15	4.152385E-17
4.650000E+03	5.210311E-15	4.169000E-17
4.660000E+03	5.244024E-15	4.160344E-17
4.670000E+03	5.245157E-15	4.126338E-17
4.680000E+03	5.214129E-15	4.067963E-17
4.690000E+03	5.152523E-15	3.987061E-17
4.700000E+03	5.063244E-15	3.886421E-17
4.710000E+03	4.950096E-15	3.769424E-17
4.720000E+03	4.817609E-15	3.639881E-17
4.730000E+03	4.670767E-15	3.501821E-17
4.740000E+03	4.514783E-15	3.359312E-17
4.750000E+03	4.354653E-15	3.216136E-17
4.760000E+03	4.195298E-15	3.075902E-17
4.770000E+03	4.040971E-15	2.941628E-17
4.780000E+03	3.895201E-15	2.815720E-17
4.790000E+03	3.760710E-15	2.699943E-17
4.800000E+03	3.640347E-15	2.596104E-17
4.810000E+03	3.536151E-15	2.505393E-17
4.820000E+03	3.449392E-15	2.428437E-17
4.830000E+03	3.380712E-15	2.365411E-17
4.840000E+03	3.330307E-15	2.316176E-17
4.850000E+03	3.297885E-15	2.280254E-17
4.860000E+03	3.282898E-15	2.257012E-17
4.870000E+03	3.284669E-15	2.245756E-17
4.880000E+03	3.302318E-15	2.245671E-17
4.890000E+03	3.334879E-15	2.255914E-17
4.900000E+03	3.381157E-15	2.275509E-17
4.910000E+03	3.439748E-15	2.303363E-17
4.920000E+03	3.508818E-15	2.338125E-17
4.930000E+03	3.585944E-15	2.378080E-17
4.940000E+03	3.667847E-15	2.420984E-17
4.950000E+03	3.750375E-15	2.464058E-17
4.960000E+03	3.828797E-15	2.504200E-17
4.970000E+03	3.897980E-15	2.538095E-17
4.980000E+03	3.952739E-15	2.562452E-17
4.990000E+03	3.988778E-15	2.574611E-17
5.000000E+03	4.003193E-15	2.572845E-17
5.010000E+03	3.994969E-15	2.556669E-17
5.020000E+03	3.964752E-15	2.526656E-17
5.030000E+03	3.915444E-15	2.484809E-17
5.040000E+03	3.851140E-15	2.433844E-17
5.050000E+03	3.776554E-15	2.376827E-17
5.060000E+03	3.696247E-15	2.316681E-17
5.070000E+03	3.614582E-15	2.256155E-17
5.080000E+03	3.535291E-15	2.197565E-17
5.090000E+03	3.461437E-15	2.142778E-17
5.100000E+03	3.395389E-15	2.093199E-17
5.110000E+03	3.338607E-15	2.049658E-17
5.120000E+03	3.291817E-15	2.012521E-17
5.130000E+03	3.255163E-15	1.981790E-17
5.140000E+03	3.228530E-15	1.957317E-17
5.150000E+03	3.211832E-15	1.938968E-17
5.160000E+03	3.204988E-15	1.926615E-17
5.170000E+03	3.208306E-15	1.920367E-17
5.180000E+03	3.222372E-15	1.920494E-17
5.190000E+03	3.248032E-15	1.927414E-17
5.200000E+03	3.286241E-15	1.941605E-17
5.210000E+03	3.337805E-15	1.963445E-17
5.220000E+03	3.403407E-15	1.993234E-17
5.230000E+03	3.483258E-15	2.030991E-17
5.240000E+03	3.577131E-15	2.076479E-17
5.250000E+03	3.684104E-15	2.129066E-17
5.260000E+03	3.802658E-15	2.187787E-17
5.270000E+03	3.930514E-15	2.251258E-17
5.280000E+03	4.064763E-15	2.317766E-17
5.290000E+03	4.201882E-15	2.385280E-17
5.300000E+03	4.337841E-15	2.451523E-17
5.310000E+03	4.468294E-15	2.514082E-17
5.320000E+03	4.588831E-15	2.570558E-17
5.330000E+03	4.695197E-15	2.618679E-17
5.340000E+03	4.783586E-15	2.656470E-17
5.350000E+03	4.850575E-15	2.682200E-17
5.360000E+03	4.893700E-15	2.694697E-17
5.370000E+03	4.911247E-15	2.693221E-17
5.380000E+03	4.902811E-15	2.677753E-17
5.390000E+03	4.869327E-15	2.649003E-17
5.400000E+03	4.813116E-15	2.608409E-17
5.410000E+03	4.737957E-15	2.558173E-17
5.420000E+03	4.649450E-15	2.501432E-17
5.430000E+03	4.554182E-15	2.441803E-17
5.440000E+03	4.459489E-15	2.383246E-17
5.450000E+03	4.373476E-15	2.330077E-17
5.460000E+03	4.303997E-15	2.286427E-17
5.470000E+03	4.258414E-15	2.256124E-17
5.480000E+03	4.243210E-15	2.242503E-17
5.490000E+03	4.263107E-15	2.247954E-17
5.500000E+03	4.318006E-15	2.272329E-17
5.510000E+03	4.399231E-15	2.310970E-17
5.520000E+03	4.494042E-15	2.357115E-17
5.530000E+03	4.588133E-15	2.403234E-17
5.540000E+03	4.667655E-15	2.442071E-17
5.550000E+03	4.720183E-15	2.467144E-17
5.560000E+03	4.736034E-15	2.473409E-17
5.570000E+03	4.710315E-15	2.458324E-17
5.580000E+03	4.642402E-15	2.421560E-17
5.590000E+03	4.535019E-15	2.364522E-17
5.600000E+03	4.393921E-15	2.290180E-17
5.610000E+03	4.226576E-15	2.202387E-17
5.620000E+03	4.041562E-15	2.105568E-17
5.630000E+03	3.847646E-15	2.004247E-17
5.640000E+03	3.653119E-15	1.902701E-17
5.650000E+03	3.465450E-15	1.804783E-17
5.660000E+03	3.290906E-15	1.713727E-17
5.670000E+03	3.134693E-15	1.632219E-17
5.680000E+03	3.000691E-15	1.562256E-17
5.690000E+03	2.891740E-15	1.505299E-17
5.700000E+03	2.809672E-15	1.462283E-17
5.710000E+03	2.755514E-15	1.433726E-17
5.720000E+03	2.729322E-15	1.419633E-17
5.730000E+03	2.730743E-15	1.419796E-17
5.740000E+03	2.759364E-15	1.433968E-17
5.750000E+03	2.814722E-15	1.461872E-17
5.760000E+03	2.896281E-15	1.503185E-17
5.770000E+03	3.003506E-15	1.557574E-17
5.780000E+03	3.135292E-15	1.624408E-17
5.790000E+03	3.290031E-15	1.702781E-17
5.800000E+03	3.465280E-15	1.791356E-17
5.810000E+03	3.657355E-15	1.888146E-17
5.820000E+03	3.861555E-15	1.990648E-17
5.830000E+03	4.072160E-15	2.095837E-17
5.840000E+03	4.282980E-15	2.200466E-17
5.850000E+03	4.487421E-15	2.301102E-17
5.860000E+03	4.679159E-15	2.394478E-17
5.870000E+03	4.852367E-15	2.477615E-17
5.880000E+03	5.002370E-15	2.548156E-17
5.890000E+03	5.125456E-15	2.604270E-17
5.900000E+03	5.219412E-15	2.644915E-17
5.910000E+03	5.283234E-15	2.669690E-17
5.920000E+03	5.317189E-15	2.678856E-17
5.930000E+03	5.322489E-15	2.673161E-17
5.940000E+03	5.301240E-15	2.653808E-17
5.950000E+03	5.255950E-15	2.622199E-17
5.960000E+03	5.189797E-15	2.580064E-17
5.970000E+03	5.105911E-15	2.529097E-17
5.980000E+03	5.007775E-15	2.471148E-17
5.990000E+03	4.898860E-15	2.408043E-17
6.000000E+03	4.782606E-15	2.341568E-17
6.010000E+03	4.662408E-15	2.273462E-17
6.020000E+03	4.541427E-15	2.205326E-17
6.030000E+03	4.422567E-15	2.138608E-17
6.040000E+03	4.308372E-15	2.074559E-17
6.050000E+03	4.200983E-15	2.014213E-17
6.060000E+03	4.102014E-15	1.958334E-17
6.070000E+03	4.012694E-15	1.907489E-17
6.080000E+03	3.933652E-15	1.861950E-17
6.090000E+03	3.865182E-15	1.821823E-17
6.100000E+03	3.807200E-15	1.787037E-17
6.110000E+03	3.759497E-15	1.757466E-17
6.120000E+03	3.721477E-15	1.732805E-17
6.130000E+03	3.692538E-15	1.712754E-17
6.140000E+03	3.671665E-15	1.696832E-17
6.150000E+03	3.657715E-15	1.684509E-17
6.160000E+03	3.649197E-15	1.675105E-17
6.170000E+03	3.644391E-15	1.667850E-17
6.180000E+03	3.641150E-15	1.661792E-17
6.190000E+03	3.636852E-15	1.655773E-17
6.200000E+03	3.628261E-15	1.648371E-17
6.210000E+03	3.611987E-15	1.638091E-17
6.220000E+03	3.584762E-15	1.623476E-17
6.230000E+03	3.543714E-15	1.603238E-17
6.240000E+03	3.487185E-15	1.576632E-17
6.250000E+03	3.416373E-15	1.544190E-17
6.260000E+03	3.336113E-15	1.508072E-17
6.270000E+03	3.251942E-15	1.470743E-17
6.280000E+03	3.168934E-15	1.434458E-17
6.290000E+03	3.090878E-15	1.400896E-17
6.300000E+03	3.020708E-15	1.371361E-17
6.310000E+03	2.960387E-15	1.346729E-17
6.320000E+03	2.911173E-15	1.327573E-17
6.330000E+03	2.873707E-15	1.314199E-17
6.340000E+03	2.848133E-15	1.306702E-17
6.350000E+03	2.834065E-15	1.304945E-17
6.360000E+03	2.830849E-15	1.308679E-17
6.370000E+03	2.837481E-15	1.317499E-17
6.380000E+03	2.852608E-15	1.330838E-17
6.390000E+03	2.874625E-15	1.348011E-17
6.400000E+03	2.901905E-15	1.368314E-17
6.410000E+03	2.932682E-15	1.390966E-17
6.420000E+03	2.965420E-15	1.415283E-17
6.430000E+03	2.998513E-15	1.440516E-17
6.440000E+03	3.030712E-15	1.466049E-17
6.450000E+03	3.060928E-15	1.491321E-17
6.460000E+03	3.088417E-15	1.515924E-17
6.470000E+03	3.112785E-15	1.539607E-17
6.480000E+03	3.133940E-15	1.562263E-17
6.490000E+03	3.151797E-15	1.583781E-17
6.500000E+03	3.166383E-15	1.604105E-17
6.510000E+03	3.177588E-15	1.623105E-17
6.520000E+03	3.185077E-15	1.640535E-17
6.530000E+03	3.188176E-15	1.655961E-17
6.540000E+03	3.188209E-15	1.669989E-17
6.550000E+03	3.188965E-15	1.684544E-17
6.560000E+03	3.193891E-15	1.701442E-17
6.570000E+03	3.205443E-15	1.722026E-17
6.580000E+03	3.225317E-15	1.747276E-17
6.590000E+03	3.254194E-15	1.777647E-17
6.600000E+03	3.291817E-15	1.813092E-17
6.610000E+03	3.337328E-15	1.853225E-17
6.620000E+03	3.388972E-15	1.897140E-17
6.630000E+03	3.444497E-15	1.943622E-17
6.640000E+03	3.501184E-15	1.991143E-17
6.650000E+03	3.556159E-15	2.038044E-17
6.660000E+03	3.606566E-15	2.082618E-17
6.670000E+03	3.649726E-15	2.123220E-17
6.680000E+03	3.683395E-15	2.158409E-17
6.690000E+03	3.705916E-15	2.187059E-17
6.700000E+03	3.716251E-15	2.208389E-17
6.710000E+03	3.713871E-15	2.221910E-17
6.720000E+03	3.698927E-15	2.227543E-17
6.730000E+03	3.671981E-15	2.225463E-17
6.740000E+03	3.633945E-15	2.216080E-17
6.750000E+03	3.586174E-15	2.200095E-17
6.760000E+03	3.530159E-15	2.178320E-17
6.770000E+03	3.467450E-15	2.151632E-17
6.780000E+03	3.399710E-15	2.121007E-17
6.790000E+03	3.328714E-15	2.087518E-17
6.800000E+03	3.255939E-15	2.052076E-17
6.810000E+03	3.182965E-15	2.015682E-17
6.820000E+03	3.111222E-15	1.979259E-17
6.830000E+03	3.041989E-15	1.943655E-17
6.840000E+03	2.976548E-15	1.909731E-17
6.850000E+03	2.915944E-15	1.878208E-17
6.860000E+03	2.861251E-15	1.849834E-17
6.870000E+03	2.813200E-15	1.825143E-17
6.880000E+03	2.772495E-15	1.804653E-17
6.890000E+03	2.739799E-15	1.788854E-17
6.900000E+03	2.715443E-15	1.778022E-17
6.910000E+03	2.699774E-15	1.772439E-17
6.920000E+03	2.692885E-15	1.772215E-17
6.930000E+03	2.694819E-15	1.777420E-17
6.940000E+03	2.705381E-15	1.787963E-17
6.950000E+03	2.724091E-15	1.803555E-17
6.960000E+03	2.750338E-15	1.823811E-17
6.970000E+03	2.783136E-15	1.848089E-17
6.980000E+03	2.821271E-15	1.875587E-17
6.990000E+03	2.863203E-15	1.905276E-17
7.000000E+03	2.907124E-15	1.935946E-17
7.010000E+03	2.951158E-15	1.966332E-17
7.020000E+03	2.993249E-15	1.995048E-17
7.030000E+03	3.031472E-15	2.020797E-17
7.040000E+03	3.064180E-15	2.042466E-17
7.050000E+03	3.089950E-15	2.059099E-17
7.060000E+03	3.107612E-15	2.069915E-17
7.070000E+03	3.116696E-15	2.074608E-17
7.080000E+03	3.117059E-15	2.073095E-17
7.090000E+03	3.108908E-15	2.065533E-17
7.100000E+03	3.092915E-15	2.052398E-17
7.110000E+03	3.070076E-15	2.034380E-17
7.120000E+03	3.041671E-15	2.012362E-17
7.130000E+03	3.008949E-15	1.987205E-17
7.140000E+03	2.973482E-15	1.959980E-17
7.150000E+03	2.936692E-15	1.931653E-17
7.160000E+03	2.899779E-15	1.903041E-17
7.170000E+03	2.863992E-15	1.874982E-17
7.180000E+03	2.830317E-15	1.848137E-17
7.190000E+03	2.799536E-15	1.823025E-17
7.200000E+03	2.772013E-15	1.799888E-17
7.210000E+03	2.748101E-15	1.778954E-17
7.220000E+03	2.727637E-15	1.760116E-17
7.230000E+03	2.710469E-15	1.743273E-17
7.240000E+03	2.696031E-15	1.728060E-17
7.250000E+03	2.683757E-15	1.714113E-17
7.260000E+03	2.672983E-15	1.701012E-17
7.270000E+03	2.662856E-15	1.688224E-17
7.280000E+03	2.652745E-15	1.675363E-17
7.290000E+03	2.642060E-15	1.662075E-17
7.300000E+03	2.630379E-15	1.648119E-17
7.310000E+03	2.617517E-15	1.633405E-17
7.320000E+03	2.603558E-15	1.618014E-17
7.330000E+03	2.588618E-15	1.602046E-17
7.340000E+03	2.573234E-15	1.585859E-17
7.350000E+03	2.557898E-15	1.569777E-17
7.360000E+03	2.543241E-15	1.554208E-17
7.370000E+03	2.529718E-15	1.539442E-17
7.380000E+03	2.517884E-15	1.525827E-17
7.390000E+03	2.508045E-15	1.513554E-17
7.400000E+03	2.500296E-15	1.502689E-17
7.410000E+03	2.494624E-15	1.493226E-17
7.420000E+03	2.490786E-15	1.485031E-17
7.430000E+03	2.488459E-15	1.477917E-17
7.440000E+03	2.486940E-15	1.471483E-17
7.450000E+03	2.485636E-15	1.465396E-17
7.460000E+03	2.483629E-15	1.459138E-17
7.470000E+03	2.479959E-15	1.452176E-17
7.480000E+03	2.473821E-15	1.444069E-17
7.490000E+03	2.464235E-15	1.434283E-17
7.500000E+03	2.450682E-15	1.422538E-17
7.510000E+03	2.432744E-15	1.408600E-17
7.520000E+03	2.410342E-15	1.392435E-17
7.530000E+03	2.383842E-15	1.374259E-17
7.540000E+03	2.353822E-15	1.354408E-17
7.550000E+03	2.321158E-15	1.333382E-17
7.560000E+03	2.287095E-15	1.311889E-17
7.570000E+03	2.252717E-15	1.290537E-17
7.580000E+03	2.219011E-15	1.269880E-17
7.590000E+03	2.186973E-15	1.250471E-17
7.600000E+03	2.157364E-15	1.232729E-17
7.610000E+03	2.130833E-15	1.217012E-17
7.620000E+03	2.107908E-15	1.203609E-17
7.630000E+03	2.089109E-15	1.192807E-17
7.640000E+03	2.074660E-15	1.184725E-17
7.650000E+03	2.064832E-15	1.179517E-17
7.660000E+03	2.059596E-15	1.177166E-17
7.670000E+03	2.058797E-15	1.177586E-17
7.680000E+03	2.062217E-15	1.180660E-17
7.690000E+03	2.069444E-15	1.186163E-17
7.700000E+03	2.080033E-15	1.193851E-17
7.710000E+03	2.093514E-15	1.203470E-17
7.720000E+03	2.109216E-15	1.214650E-17
7.730000E+03	2.126483E-15	1.227030E-17
7.740000E+03	2.144484E-15	1.240144E-17
7.750000E+03	2.162524E-15	1.253607E-17
7.760000E+03	2.179873E-15	1.267005E-17
