#wls	flux	fluxerr
1.600000E+03	2.177643E-16	3.451750E-17
1.640000E+03	2.239631E-16	3.529578E-17
1.680000E+03	2.305012E-16	3.611108E-17
1.720000E+03	2.374084E-16	3.696660E-17
1.760000E+03	2.446856E-16	3.786085E-17
1.800000E+03	2.523605E-16	3.879649E-17
1.840000E+03	2.604607E-16	3.977592E-17
1.880000E+03	2.690419E-16	4.080564E-17
1.920000E+03	2.780690E-16	4.187816E-17
1.960000E+03	2.876238E-16	4.300354E-17
2.000000E+03	2.976953E-16	4.417767E-17
2.040000E+03	3.083606E-16	4.540933E-17
2.080000E+03	3.196629E-16	4.670189E-17
2.120000E+03	3.316719E-16	4.806228E-17
2.160000E+03	3.445145E-16	4.950521E-17
2.200000E+03	3.582492E-16	5.103485E-17
2.240000E+03	3.730831E-16	5.267595E-17
2.280000E+03	3.890870E-16	5.443293E-17
2.320000E+03	4.064118E-16	5.632079E-17
2.360000E+03	4.250626E-16	5.833344E-17
2.400000E+03	4.449247E-16	6.044830E-17
2.440000E+03	4.659206E-16	6.264817E-17
2.480000E+03	4.879419E-16	6.491196E-17
2.520000E+03	5.108777E-16	6.721870E-17
2.560000E+03	5.345467E-16	6.953868E-17
2.600000E+03	5.587257E-16	7.183776E-17
2.640000E+03	5.832398E-16	7.408914E-17
2.680000E+03	6.077403E-16	7.624524E-17
2.720000E+03	6.319220E-16	7.826599E-17
2.760000E+03	6.553984E-16	8.010342E-17
2.800000E+03	6.776502E-16	8.169611E-17
2.840000E+03	6.983217E-16	8.300578E-17
2.880000E+03	7.169328E-16	8.398222E-17
2.920000E+03	7.331398E-16	8.459464E-17
2.960000E+03	7.467490E-16	8.483210E-17
3.000000E+03	7.574814E-16	8.467603E-17
3.010000E+03	7.597116E-16	8.457685E-17
3.020000E+03	7.617306E-16	8.445074E-17
3.030000E+03	7.635754E-16	8.430206E-17
3.040000E+03	7.652123E-16	8.412735E-17
3.050000E+03	7.666548E-16	8.392837E-17
3.060000E+03	7.678930E-16	8.370428E-17
3.070000E+03	7.689399E-16	8.345679E-17
3.080000E+03	7.698074E-16	8.318746E-17
3.090000E+03	7.704646E-16	8.289319E-17
3.100000E+03	7.709243E-16	8.257566E-17
3.110000E+03	7.711988E-16	8.223646E-17
3.120000E+03	7.712795E-16	8.187495E-17
3.130000E+03	7.711588E-16	8.149059E-17
3.140000E+03	7.708693E-16	8.108710E-17
3.150000E+03	7.703835E-16	8.066187E-17
3.160000E+03	7.696958E-16	8.021460E-17
3.170000E+03	7.688571E-16	7.975086E-17
3.180000E+03	7.678242E-16	7.926642E-17
3.190000E+03	7.666293E-16	7.876488E-17
3.200000E+03	7.652502E-16	7.824423E-17
3.210000E+03	7.637192E-16	7.770804E-17
3.220000E+03	7.620333E-16	7.715622E-17
3.230000E+03	7.601905E-16	7.658885E-17
3.240000E+03	7.582067E-16	7.600773E-17
3.250000E+03	7.560976E-16	7.541468E-17
3.260000E+03	7.538476E-16	7.480836E-17
3.270000E+03	7.514743E-16	7.419072E-17
3.280000E+03	7.489806E-16	7.356226E-17
3.290000E+03	7.463851E-16	7.292499E-17
3.300000E+03	7.436923E-16	7.227953E-17
3.310000E+03	7.409079E-16	7.162659E-17
3.320000E+03	7.380528E-16	7.096834E-17
3.330000E+03	7.351072E-16	7.030303E-17
3.340000E+03	7.321211E-16	6.963557E-17
3.350000E+03	7.290779E-16	6.896447E-17
3.360000E+03	7.259895E-16	6.829096E-17
3.370000E+03	7.228814E-16	6.761753E-17
3.380000E+03	7.197552E-16	6.694436E-17
3.390000E+03	7.166150E-16	6.627189E-17
3.400000E+03	7.134782E-16	6.560177E-17
3.410000E+03	7.103528E-16	6.493474E-17
3.420000E+03	7.072704E-16	6.427368E-17
3.430000E+03	7.042206E-16	6.361760E-17
3.440000E+03	7.012285E-16	6.296873E-17
3.450000E+03	6.983102E-16	6.232842E-17
3.460000E+03	6.954743E-16	6.169735E-17
3.470000E+03	6.927424E-16	6.107730E-17
3.480000E+03	6.901383E-16	6.047021E-17
3.490000E+03	6.876790E-16	5.987737E-17
3.500000E+03	6.853755E-16	5.929951E-17
3.510000E+03	6.832607E-16	5.873922E-17
3.520000E+03	6.813605E-16	5.819842E-17
3.530000E+03	6.796956E-16	5.767854E-17
3.540000E+03	6.782984E-16	5.718191E-17
3.550000E+03	6.772037E-16	5.671102E-17
3.560000E+03	6.764485E-16	5.626846E-17
3.570000E+03	6.760633E-16	5.585619E-17
3.580000E+03	6.760886E-16	5.547691E-17
3.590000E+03	6.765571E-16	5.513260E-17
3.600000E+03	6.775247E-16	5.482704E-17
3.610000E+03	6.790229E-16	5.456192E-17
3.620000E+03	6.810903E-16	5.433941E-17
3.630000E+03	6.837578E-16	5.416098E-17
3.640000E+03	6.870634E-16	5.402859E-17
3.650000E+03	6.910457E-16	5.394416E-17
3.660000E+03	6.957435E-16	5.390949E-17
3.670000E+03	7.012028E-16	5.392689E-17
3.680000E+03	7.074623E-16	5.399796E-17
3.690000E+03	7.145746E-16	5.412528E-17
3.700000E+03	7.225767E-16	5.431014E-17
3.710000E+03	7.315258E-16	5.455520E-17
3.720000E+03	7.414622E-16	5.486177E-17
3.730000E+03	7.524232E-16	5.523081E-17
3.740000E+03	7.644565E-16	5.566396E-17
3.750000E+03	7.775975E-16	5.616184E-17
3.760000E+03	7.918755E-16	5.672454E-17
3.770000E+03	8.073117E-16	5.735152E-17
3.780000E+03	8.239336E-16	5.804259E-17
3.790000E+03	8.417352E-16	5.879518E-17
3.800000E+03	8.607130E-16	5.960687E-17
3.810000E+03	8.808571E-16	6.047482E-17
3.820000E+03	9.021093E-16	6.139293E-17
3.830000E+03	9.244331E-16	6.235666E-17
3.840000E+03	9.477472E-16	6.335860E-17
3.850000E+03	9.719478E-16	6.439000E-17
3.860000E+03	9.969271E-16	6.544213E-17
3.870000E+03	1.022533E-15	6.650361E-17
3.880000E+03	1.048599E-15	6.756253E-17
3.890000E+03	1.074927E-15	6.860532E-17
3.900000E+03	1.101315E-15	6.961873E-17
3.910000E+03	1.127516E-15	7.058700E-17
3.920000E+03	1.153291E-15	7.149578E-17
3.930000E+03	1.178380E-15	7.232968E-17
3.940000E+03	1.202521E-15	7.307414E-17
3.950000E+03	1.225461E-15	7.371556E-17
3.960000E+03	1.246937E-15	7.424045E-17
3.970000E+03	1.266720E-15	7.463809E-17
3.980000E+03	1.284626E-15	7.490083E-17
3.990000E+03	1.300455E-15	7.502059E-17
4.000000E+03	1.314107E-15	7.499552E-17
4.010000E+03	1.325468E-15	7.482326E-17
4.020000E+03	1.334518E-15	7.450691E-17
4.030000E+03	1.341265E-15	7.405130E-17
4.040000E+03	1.345762E-15	7.346364E-17
4.050000E+03	1.348113E-15	7.275383E-17
4.060000E+03	1.348476E-15	7.193423E-17
4.070000E+03	1.347018E-15	7.101753E-17
4.080000E+03	1.343976E-15	7.001948E-17
4.090000E+03	1.339573E-15	6.895459E-17
4.100000E+03	1.334059E-15	6.783823E-17
4.110000E+03	1.327694E-15	6.668554E-17
4.120000E+03	1.320748E-15	6.551166E-17
4.130000E+03	1.313477E-15	6.433020E-17
4.140000E+03	1.306113E-15	6.315314E-17
4.150000E+03	1.298897E-15	6.199222E-17
4.160000E+03	1.292039E-15	6.085711E-17
4.170000E+03	1.285720E-15	5.975560E-17
4.180000E+03	1.280126E-15	5.869529E-17
4.190000E+03	1.275376E-15	5.768038E-17
4.200000E+03	1.271599E-15	5.671498E-17
4.210000E+03	1.268894E-15	5.580180E-17
4.220000E+03	1.267315E-15	5.494123E-17
4.230000E+03	1.266902E-15	5.413296E-17
4.240000E+03	1.267679E-15	5.337592E-17
4.250000E+03	1.269628E-15	5.266720E-17
4.260000E+03	1.272739E-15	5.200434E-17
4.270000E+03	1.276960E-15	5.138321E-17
4.280000E+03	1.282214E-15	5.079878E-17
4.290000E+03	1.288451E-15	5.024731E-17
4.300000E+03	1.295566E-15	4.972311E-17
4.310000E+03	1.303473E-15	4.922139E-17
4.320000E+03	1.312091E-15	4.873786E-17
4.330000E+03	1.321335E-15	4.826830E-17
4.340000E+03	1.331128E-15	4.780893E-17
4.350000E+03	1.341422E-15	4.735729E-17
4.360000E+03	1.352157E-15	4.691051E-17
4.370000E+03	1.363324E-15	4.646775E-17
4.380000E+03	1.374929E-15	4.602864E-17
4.390000E+03	1.387051E-15	4.559529E-17
4.400000E+03	1.399828E-15	4.517140E-17
4.410000E+03	1.413531E-15	4.476469E-17
4.420000E+03	1.428461E-15	4.438318E-17
4.430000E+03	1.444955E-15	4.403531E-17
4.440000E+03	1.463345E-15	4.372852E-17
4.450000E+03	1.483966E-15	4.346972E-17
4.460000E+03	1.507133E-15	4.326445E-17
4.470000E+03	1.533135E-15	4.311688E-17
4.480000E+03	1.562191E-15	4.302856E-17
4.490000E+03	1.594477E-15	4.299950E-17
4.500000E+03	1.630096E-15	4.302744E-17
4.510000E+03	1.669035E-15	4.310702E-17
4.520000E+03	1.711214E-15	4.323138E-17
4.530000E+03	1.756399E-15	4.339015E-17
4.540000E+03	1.804272E-15	4.357160E-17
4.550000E+03	1.854339E-15	4.376074E-17
4.560000E+03	1.906020E-15	4.394178E-17
4.570000E+03	1.958571E-15	4.409671E-17
4.580000E+03	2.011130E-15	4.420664E-17
4.590000E+03	2.062767E-15	4.425323E-17
4.600000E+03	2.112445E-15	4.421794E-17
4.610000E+03	2.159112E-15	4.408415E-17
4.620000E+03	2.201720E-15	4.383756E-17
4.630000E+03	2.239239E-15	4.346632E-17
4.640000E+03	2.270819E-15	4.296397E-17
4.650000E+03	2.295702E-15	4.232735E-17
4.660000E+03	2.313345E-15	4.155837E-17
4.670000E+03	2.323406E-15	4.066332E-17
4.680000E+03	2.325789E-15	3.965296E-17
4.690000E+03	2.320646E-15	3.854203E-17
4.700000E+03	2.308399E-15	3.734893E-17
4.710000E+03	2.289642E-15	3.609363E-17
4.720000E+03	2.265204E-15	3.479828E-17
4.730000E+03	2.235990E-15	3.348436E-17
4.740000E+03	2.203041E-15	3.217349E-17
4.750000E+03	2.167435E-15	3.088586E-17
4.760000E+03	2.130208E-15	2.963917E-17
4.770000E+03	2.092353E-15	2.844887E-17
4.780000E+03	2.054788E-15	2.732787E-17
4.790000E+03	2.018475E-15	2.628842E-17
4.800000E+03	1.984421E-15	2.534214E-17
4.810000E+03	1.953597E-15	2.449929E-17
4.820000E+03	1.926752E-15	2.376655E-17
4.830000E+03	1.904509E-15	2.314878E-17
4.840000E+03	1.887260E-15	2.264794E-17
4.850000E+03	1.875255E-15	2.226442E-17
4.860000E+03	1.868600E-15	2.199611E-17
4.870000E+03	1.867264E-15	2.183833E-17
4.880000E+03	1.871087E-15	2.178535E-17
4.890000E+03	1.879781E-15	2.183047E-17
4.900000E+03	1.892944E-15	2.196615E-17
4.910000E+03	1.910007E-15	2.218325E-17
4.920000E+03	1.930303E-15	2.247179E-17
4.930000E+03	1.952997E-15	2.281992E-17
4.940000E+03	1.977191E-15	2.321506E-17
4.950000E+03	2.001835E-15	2.364264E-17
4.960000E+03	2.025820E-15	2.408714E-17
4.970000E+03	2.048106E-15	2.453345E-17
4.980000E+03	2.067588E-15	2.496525E-17
4.990000E+03	2.083399E-15	2.536865E-17
5.000000E+03	2.094762E-15	2.573045E-17
5.010000E+03	2.101191E-15	2.604079E-17
5.020000E+03	2.102440E-15	2.629259E-17
5.030000E+03	2.098602E-15	2.648308E-17
5.040000E+03	2.089962E-15	2.661213E-17
5.050000E+03	2.077116E-15	2.668393E-17
5.060000E+03	2.060758E-15	2.670443E-17
5.070000E+03	2.041782E-15	2.668275E-17
5.080000E+03	2.021078E-15	2.662857E-17
5.090000E+03	1.999538E-15	2.655223E-17
5.100000E+03	1.978069E-15	2.646482E-17
5.110000E+03	1.957448E-15	2.637624E-17
5.120000E+03	1.938384E-15	2.629585E-17
5.130000E+03	1.921474E-15	2.623189E-17
5.140000E+03	1.907280E-15	2.619236E-17
5.150000E+03	1.896216E-15	2.618344E-17
5.160000E+03	1.888680E-15	2.621121E-17
5.170000E+03	1.884995E-15	2.628080E-17
5.180000E+03	1.885417E-15	2.639640E-17
5.190000E+03	1.890177E-15	2.656191E-17
5.200000E+03	1.899418E-15	2.677989E-17
5.210000E+03	1.913229E-15	2.705210E-17
5.220000E+03	1.931612E-15	2.737903E-17
5.230000E+03	1.954493E-15	2.775991E-17
5.240000E+03	1.981626E-15	2.819154E-17
5.250000E+03	2.012694E-15	2.866953E-17
5.260000E+03	2.047203E-15	2.918693E-17
5.270000E+03	2.084557E-15	2.973530E-17
5.280000E+03	2.124001E-15	3.030388E-17
5.290000E+03	2.164610E-15	3.087955E-17
5.300000E+03	2.205435E-15	3.144888E-17
5.310000E+03	2.245361E-15	3.199622E-17
5.320000E+03	2.283301E-15	3.250649E-17
5.330000E+03	2.318134E-15	3.296435E-17
5.340000E+03	2.348828E-15	3.335593E-17
5.350000E+03	2.374501E-15	3.366980E-17
5.360000E+03	2.394389E-15	3.389640E-17
5.370000E+03	2.408044E-15	3.403088E-17
5.380000E+03	2.415260E-15	3.407197E-17
5.390000E+03	2.416174E-15	3.402340E-17
5.400000E+03	2.411261E-15	3.389365E-17
5.410000E+03	2.401291E-15	3.369534E-17
5.420000E+03	2.387353E-15	3.344546E-17
5.430000E+03	2.370760E-15	3.316402E-17
5.440000E+03	2.352951E-15	3.287262E-17
5.450000E+03	2.335428E-15	3.259356E-17
5.460000E+03	2.319593E-15	3.234764E-17
5.470000E+03	2.306556E-15	3.215153E-17
5.480000E+03	2.296987E-15	3.201570E-17
5.490000E+03	2.290963E-15	3.194242E-17
5.500000E+03	2.287888E-15	3.192464E-17
5.510000E+03	2.286609E-15	3.194750E-17
5.520000E+03	2.285496E-15	3.198829E-17
5.530000E+03	2.282512E-15	3.201734E-17
5.540000E+03	2.275498E-15	3.200283E-17
5.550000E+03	2.262537E-15	3.191591E-17
5.560000E+03	2.242092E-15	3.173260E-17
5.570000E+03	2.213248E-15	3.143730E-17
5.580000E+03	2.175793E-15	3.102406E-17
5.590000E+03	2.130154E-15	3.049596E-17
5.600000E+03	2.077377E-15	2.986499E-17
5.610000E+03	2.019067E-15	2.915153E-17
5.620000E+03	1.957105E-15	2.838040E-17
5.630000E+03	1.893552E-15	2.757963E-17
5.640000E+03	1.830554E-15	2.677919E-17
5.650000E+03	1.770081E-15	2.600718E-17
5.660000E+03	1.713973E-15	2.529041E-17
5.670000E+03	1.663805E-15	2.465239E-17
5.680000E+03	1.620897E-15	2.411327E-17
5.690000E+03	1.586290E-15	2.368941E-17
5.700000E+03	1.560845E-15	2.339470E-17
5.710000E+03	1.545153E-15	2.323912E-17
5.720000E+03	1.539689E-15	2.323090E-17
5.730000E+03	1.544763E-15	2.337565E-17
5.740000E+03	1.560619E-15	2.367789E-17
5.750000E+03	1.587348E-15	2.413956E-17
5.760000E+03	1.624933E-15	2.476071E-17
5.770000E+03	1.673290E-15	2.553999E-17
5.780000E+03	1.732127E-15	2.647257E-17
5.790000E+03	1.800982E-15	2.755058E-17
5.800000E+03	1.879159E-15	2.876225E-17
5.810000E+03	1.965724E-15	3.009167E-17
5.820000E+03	2.059404E-15	3.151748E-17
5.830000E+03	2.158668E-15	3.301403E-17
5.840000E+03	2.261673E-15	3.455075E-17
5.850000E+03	2.366326E-15	3.609315E-17
5.860000E+03	2.470316E-15	3.760357E-17
5.870000E+03	2.571316E-15	3.904436E-17
5.880000E+03	2.666952E-15	4.037761E-17
5.890000E+03	2.754933E-15	4.156735E-17
5.900000E+03	2.833257E-15	4.258268E-17
5.910000E+03	2.900217E-15	4.339808E-17
5.920000E+03	2.954543E-15	4.399545E-17
5.930000E+03	2.995355E-15	4.436348E-17
5.940000E+03	3.022318E-15	4.449973E-17
5.950000E+03	3.035570E-15	4.440951E-17
5.960000E+03	3.035618E-15	4.410402E-17
5.970000E+03	3.023421E-15	4.360145E-17
5.980000E+03	3.000247E-15	4.292455E-17
5.990000E+03	2.967525E-15	4.209828E-17
6.000000E+03	2.926936E-15	4.115092E-17
6.010000E+03	2.880152E-15	4.011012E-17
6.020000E+03	2.828836E-15	3.900281E-17
6.030000E+03	2.774612E-15	3.785468E-17
6.040000E+03	2.718981E-15	3.668894E-17
6.050000E+03	2.663215E-15	3.552495E-17
6.060000E+03	2.608533E-15	3.438061E-17
6.070000E+03	2.555829E-15	3.326881E-17
6.080000E+03	2.505866E-15	3.220012E-17
6.090000E+03	2.459245E-15	3.118253E-17
6.100000E+03	2.416265E-15	3.021975E-17
6.110000E+03	2.377218E-15	2.931518E-17
6.120000E+03	2.342152E-15	2.846901E-17
6.130000E+03	2.311013E-15	2.768014E-17
6.140000E+03	2.283597E-15	2.694576E-17
6.150000E+03	2.259627E-15	2.626235E-17
6.160000E+03	2.238695E-15	2.562518E-17
6.170000E+03	2.220350E-15	2.502935E-17
6.180000E+03	2.204010E-15	2.446892E-17
6.190000E+03	2.189050E-15	2.393797E-17
6.200000E+03	2.174906E-15	2.343169E-17
6.210000E+03	2.160857E-15	2.294409E-17
6.220000E+03	2.146347E-15	2.247133E-17
6.230000E+03	2.130763E-15	2.200934E-17
6.240000E+03	2.113743E-15	2.155685E-17
6.250000E+03	2.095233E-15	2.111503E-17
6.260000E+03	2.075621E-15	2.068814E-17
6.270000E+03	2.055448E-15	2.028148E-17
6.280000E+03	2.035408E-15	1.990165E-17
6.290000E+03	2.016071E-15	1.955376E-17
6.300000E+03	1.998021E-15	1.924296E-17
6.310000E+03	1.981760E-15	1.897354E-17
6.320000E+03	1.967743E-15	1.874938E-17
6.330000E+03	1.956345E-15	1.857368E-17
6.340000E+03	1.947797E-15	1.844842E-17
6.350000E+03	1.942323E-15	1.837573E-17
6.360000E+03	1.939945E-15	1.835609E-17
6.370000E+03	1.940717E-15	1.839050E-17
6.380000E+03	1.944561E-15	1.847901E-17
6.390000E+03	1.951307E-15	1.862101E-17
6.400000E+03	1.960812E-15	1.881637E-17
6.410000E+03	1.972807E-15	1.906398E-17
6.420000E+03	1.987160E-15	1.936416E-17
6.430000E+03	2.003544E-15	1.971548E-17
6.440000E+03	2.021762E-15	2.011783E-17
6.450000E+03	2.041458E-15	2.056953E-17
6.460000E+03	2.062378E-15	2.106985E-17
6.470000E+03	2.084202E-15	2.161712E-17
6.480000E+03	2.106587E-15	2.220768E-17
6.490000E+03	2.129153E-15	2.283628E-17
6.500000E+03	2.151455E-15	2.349658E-17
6.510000E+03	2.172939E-15	2.418060E-17
6.520000E+03	2.193094E-15	2.488026E-17
6.530000E+03	2.211394E-15	2.558679E-17
6.540000E+03	2.227932E-15	2.629818E-17
6.550000E+03	2.243331E-15	2.701877E-17
6.560000E+03	2.258435E-15	2.775627E-17
6.570000E+03	2.274009E-15	2.851824E-17
6.580000E+03	2.290508E-15	2.930910E-17
6.590000E+03	2.308224E-15	3.013169E-17
6.600000E+03	2.327250E-15	3.098658E-17
6.610000E+03	2.347419E-15	3.187099E-17
6.620000E+03	2.368279E-15	3.277808E-17
6.630000E+03	2.389346E-15	3.370015E-17
6.640000E+03	2.409845E-15	3.462485E-17
6.650000E+03	2.429051E-15	3.553979E-17
6.660000E+03	2.446002E-15	3.642833E-17
6.670000E+03	2.459973E-15	3.727651E-17
6.680000E+03	2.470103E-15	3.806756E-17
6.690000E+03	2.475756E-15	3.878747E-17
6.700000E+03	2.476322E-15	3.942211E-17
6.710000E+03	2.471571E-15	3.996300E-17
6.720000E+03	2.461219E-15	4.040076E-17
6.730000E+03	2.445393E-15	4.073270E-17
6.740000E+03	2.424325E-15	4.095824E-17
6.750000E+03	2.398343E-15	4.107893E-17
6.760000E+03	2.368093E-15	4.110227E-17
6.770000E+03	2.334221E-15	4.103656E-17
6.780000E+03	2.297542E-15	4.089388E-17
6.790000E+03	2.258816E-15	4.068621E-17
6.800000E+03	2.218982E-15	4.042954E-17
6.810000E+03	2.178901E-15	4.013934E-17
6.820000E+03	2.139372E-15	3.983066E-17
6.830000E+03	2.101188E-15	3.951912E-17
6.840000E+03	2.065076E-15	3.921972E-17
6.850000E+03	2.031766E-15	3.894799E-17
6.860000E+03	2.001724E-15	3.871485E-17
6.870000E+03	1.975508E-15	3.853320E-17
6.880000E+03	1.953515E-15	3.841307E-17
6.890000E+03	1.936009E-15	3.836197E-17
6.900000E+03	1.923231E-15	3.838695E-17
6.910000E+03	1.915292E-15	3.849239E-17
6.920000E+03	1.912164E-15	3.867979E-17
6.930000E+03	1.913792E-15	3.894988E-17
6.940000E+03	1.919976E-15	3.930019E-17
6.950000E+03	1.930375E-15	3.972512E-17
6.960000E+03	1.944647E-15	4.021868E-17
6.970000E+03	1.962202E-15	4.076946E-17
6.980000E+03	1.982491E-15	4.136655E-17
6.990000E+03	2.004735E-15	4.199389E-17
7.000000E+03	2.028227E-15	4.263663E-17
7.010000E+03	2.052071E-15	4.327562E-17
7.020000E+03	2.075501E-15	4.389426E-17
7.030000E+03	2.097656E-15	4.447377E-17
7.040000E+03	2.117769E-15	4.499719E-17
7.050000E+03	2.135202E-15	4.545035E-17
7.060000E+03	2.149360E-15	4.581992E-17
7.070000E+03	2.159833E-15	4.609666E-17
7.080000E+03	2.166416E-15	4.627578E-17
7.090000E+03	2.169028E-15	4.635537E-17
7.100000E+03	2.167713E-15	4.633630E-17
7.110000E+03	2.162744E-15	4.622454E-17
7.120000E+03	2.154475E-15	4.602795E-17
7.130000E+03	2.143357E-15	4.575661E-17
7.140000E+03	2.129864E-15	4.542117E-17
7.150000E+03	2.114624E-15	4.503565E-17
7.160000E+03	2.098139E-15	4.461139E-17
7.170000E+03	2.080925E-15	4.416001E-17
7.180000E+03	2.063486E-15	4.369286E-17
7.190000E+03	2.046174E-15	4.321798E-17
7.200000E+03	2.029302E-15	4.274254E-17
7.210000E+03	2.013177E-15	4.227348E-17
7.220000E+03	1.997813E-15	4.181158E-17
7.230000E+03	1.983391E-15	4.136098E-17
7.240000E+03	1.969853E-15	4.092085E-17
7.250000E+03	1.957080E-15	4.048910E-17
7.260000E+03	1.944993E-15	4.006446E-17
7.270000E+03	1.933486E-15	3.964511E-17
7.280000E+03	1.922360E-15	3.922740E-17
7.290000E+03	1.911421E-15	3.880783E-17
7.300000E+03	1.900617E-15	3.838590E-17
7.310000E+03	1.889806E-15	3.795923E-17
7.320000E+03	1.878919E-15	3.752704E-17
7.330000E+03	1.867965E-15	3.709016E-17
7.340000E+03	1.856826E-15	3.664686E-17
7.350000E+03	1.845656E-15	3.620081E-17
7.360000E+03	1.834422E-15	3.575200E-17
7.370000E+03	1.823180E-15	3.530215E-17
7.380000E+03	1.811979E-15	3.485283E-17
7.390000E+03	1.800815E-15	3.440452E-17
7.400000E+03	1.789693E-15	3.395798E-17
7.410000E+03	1.778590E-15	3.351332E-17
7.420000E+03	1.767408E-15	3.306931E-17
7.430000E+03	1.756052E-15	3.262485E-17
7.440000E+03	1.744359E-15	3.217758E-17
7.450000E+03	1.732303E-15	3.172778E-17
7.460000E+03	1.719652E-15	3.127191E-17
7.470000E+03	1.706333E-15	3.080947E-17
7.480000E+03	1.692212E-15	3.033884E-17
7.490000E+03	1.677226E-15	2.985967E-17
7.500000E+03	1.661279E-15	2.937048E-17
7.510000E+03	1.644403E-15	2.887176E-17
7.520000E+03	1.626693E-15	2.836511E-17
7.530000E+03	1.608185E-15	2.785102E-17
7.540000E+03	1.589160E-15	2.733426E-17
7.550000E+03	1.569757E-15	2.681698E-17
7.560000E+03	1.550218E-15	2.630309E-17
7.570000E+03	1.530876E-15	2.579794E-17
7.580000E+03	1.511906E-15	2.530411E-17
7.590000E+03	1.493542E-15	2.482507E-17
7.600000E+03	1.476046E-15	2.436475E-17
7.610000E+03	1.459504E-15	2.392407E-17
7.620000E+03	1.444093E-15	2.350540E-17
7.630000E+03	1.430093E-15	2.311277E-17
7.640000E+03	1.417755E-15	2.274963E-17
7.650000E+03	1.407237E-15	2.241786E-17
7.660000E+03	1.398688E-15	2.211917E-17
7.670000E+03	1.392147E-15	2.185349E-17
7.680000E+03	1.387521E-15	2.161870E-17
7.690000E+03	1.384831E-15	2.141457E-17
7.700000E+03	1.383839E-15	2.123685E-17
7.710000E+03	1.384475E-15	2.108407E-17
7.720000E+03	1.386426E-15	2.095111E-17
7.730000E+03	1.389565E-15	2.083586E-17
7.740000E+03	1.393570E-15	2.073344E-17
7.750000E+03	1.398190E-15	2.064018E-17
7.760000E+03	1.403246E-15	2.055369E-17
