#wls	flux	fluxerr
1.600000E+03	4.962265E-16	1.380899E-17
1.640000E+03	5.119508E-16	1.416702E-17
1.680000E+03	5.288016E-16	1.454921E-17
1.720000E+03	5.468434E-16	1.495655E-17
1.760000E+03	5.661956E-16	1.539147E-17
1.800000E+03	5.869219E-16	1.585477E-17
1.840000E+03	6.091415E-16	1.634866E-17
1.880000E+03	6.329726E-16	1.687520E-17
1.920000E+03	6.584759E-16	1.743481E-17
1.960000E+03	6.857657E-16	1.802920E-17
2.000000E+03	7.149536E-16	1.865991E-17
2.040000E+03	7.461477E-16	1.932822E-17
2.080000E+03	7.793930E-16	2.003366E-17
2.120000E+03	8.147856E-16	2.077696E-17
2.160000E+03	8.522968E-16	2.155555E-17
2.200000E+03	8.918870E-16	2.236654E-17
2.240000E+03	9.332704E-16	2.320091E-17
2.280000E+03	9.761417E-16	2.404931E-17
2.320000E+03	1.020824E-15	2.491798E-17
2.360000E+03	1.067856E-15	2.581801E-17
2.400000E+03	1.117641E-15	2.675666E-17
2.440000E+03	1.170437E-15	2.773728E-17
2.480000E+03	1.226404E-15	2.876064E-17
2.520000E+03	1.285721E-15	2.982761E-17
2.560000E+03	1.348399E-15	3.093492E-17
2.600000E+03	1.414498E-15	3.208036E-17
2.640000E+03	1.483892E-15	3.325732E-17
2.680000E+03	1.556253E-15	3.445475E-17
2.720000E+03	1.631271E-15	3.566226E-17
2.760000E+03	1.708356E-15	3.686365E-17
2.800000E+03	1.786736E-15	3.803950E-17
2.840000E+03	1.865403E-15	3.916618E-17
2.880000E+03	1.943213E-15	4.021849E-17
2.920000E+03	2.019206E-15	4.117637E-17
2.960000E+03	2.092842E-15	4.202937E-17
3.000000E+03	2.163569E-15	4.276761E-17
3.010000E+03	2.180693E-15	4.293239E-17
3.020000E+03	2.197651E-15	4.309045E-17
3.030000E+03	2.214309E-15	4.323921E-17
3.040000E+03	2.230685E-15	4.337904E-17
3.050000E+03	2.246844E-15	4.351130E-17
3.060000E+03	2.262653E-15	4.363342E-17
3.070000E+03	2.278174E-15	4.374670E-17
3.080000E+03	2.293372E-15	4.385048E-17
3.090000E+03	2.308208E-15	4.394413E-17
3.100000E+03	2.322644E-15	4.402698E-17
3.110000E+03	2.336738E-15	4.410022E-17
3.120000E+03	2.350404E-15	4.416228E-17
3.130000E+03	2.363647E-15	4.421338E-17
3.140000E+03	2.376428E-15	4.425289E-17
3.150000E+03	2.388707E-15	4.428015E-17
3.160000E+03	2.400491E-15	4.429541E-17
3.170000E+03	2.411782E-15	4.429884E-17
3.180000E+03	2.422452E-15	4.428820E-17
3.190000E+03	2.432596E-15	4.426539E-17
3.200000E+03	2.442130E-15	4.422898E-17
3.210000E+03	2.451060E-15	4.417928E-17
3.220000E+03	2.459351E-15	4.411575E-17
3.230000E+03	2.466925E-15	4.403721E-17
3.240000E+03	2.473876E-15	4.394548E-17
3.250000E+03	2.480050E-15	4.383803E-17
3.260000E+03	2.485545E-15	4.371675E-17
3.270000E+03	2.490334E-15	4.358137E-17
3.280000E+03	2.494320E-15	4.343037E-17
3.290000E+03	2.497603E-15	4.326570E-17
3.300000E+03	2.500094E-15	4.308601E-17
3.310000E+03	2.501825E-15	4.289207E-17
3.320000E+03	2.502791E-15	4.268400E-17
3.330000E+03	2.503031E-15	4.246266E-17
3.340000E+03	2.502512E-15	4.222772E-17
3.350000E+03	2.501241E-15	4.197946E-17
3.360000E+03	2.499225E-15	4.171825E-17
3.370000E+03	2.496507E-15	4.144501E-17
3.380000E+03	2.493058E-15	4.115945E-17
3.390000E+03	2.488884E-15	4.086187E-17
3.400000E+03	2.483984E-15	4.055248E-17
3.410000E+03	2.478325E-15	4.023093E-17
3.420000E+03	2.471901E-15	3.989736E-17
3.430000E+03	2.464704E-15	3.955187E-17
3.440000E+03	2.456693E-15	3.919403E-17
3.450000E+03	2.447863E-15	3.882400E-17
3.460000E+03	2.438178E-15	3.844146E-17
3.470000E+03	2.427617E-15	3.804634E-17
3.480000E+03	2.416168E-15	3.763868E-17
3.490000E+03	2.403807E-15	3.721843E-17
3.500000E+03	2.390587E-15	3.678664E-17
3.510000E+03	2.376524E-15	3.634385E-17
3.520000E+03	2.361636E-15	3.589057E-17
3.530000E+03	2.345942E-15	3.542734E-17
3.540000E+03	2.329568E-15	3.495632E-17
3.550000E+03	2.312589E-15	3.447885E-17
3.560000E+03	2.295069E-15	3.399605E-17
3.570000E+03	2.277172E-15	3.351050E-17
3.580000E+03	2.259066E-15	3.302483E-17
3.590000E+03	2.240924E-15	3.254162E-17
3.600000E+03	2.222924E-15	3.206345E-17
3.610000E+03	2.205345E-15	3.159431E-17
3.620000E+03	2.188441E-15	3.113772E-17
3.630000E+03	2.172488E-15	3.069739E-17
3.640000E+03	2.157880E-15	3.027858E-17
3.650000E+03	2.144966E-15	2.988580E-17
3.660000E+03	2.134131E-15	2.952387E-17
3.670000E+03	2.125793E-15	2.919795E-17
3.680000E+03	2.120384E-15	2.891317E-17
3.690000E+03	2.118327E-15	2.867444E-17
3.700000E+03	2.120115E-15	2.848736E-17
3.710000E+03	2.126177E-15	2.835654E-17
3.720000E+03	2.137006E-15	2.828721E-17
3.730000E+03	2.153124E-15	2.828482E-17
3.740000E+03	2.174965E-15	2.835342E-17
3.750000E+03	2.203094E-15	2.849862E-17
3.760000E+03	2.237946E-15	2.872410E-17
3.770000E+03	2.280060E-15	2.903468E-17
3.780000E+03	2.329902E-15	2.943406E-17
3.790000E+03	2.387916E-15	2.992542E-17
3.800000E+03	2.454521E-15	3.051153E-17
3.810000E+03	2.530062E-15	3.119399E-17
3.820000E+03	2.614825E-15	3.197357E-17
3.830000E+03	2.708985E-15	3.284960E-17
3.840000E+03	2.812549E-15	3.381925E-17
3.850000E+03	2.925351E-15	3.487768E-17
3.860000E+03	3.046972E-15	3.601709E-17
3.870000E+03	3.176676E-15	3.722618E-17
3.880000E+03	3.313407E-15	3.849018E-17
3.890000E+03	3.455721E-15	3.979032E-17
3.900000E+03	3.601744E-15	4.110350E-17
3.910000E+03	3.749215E-15	4.240302E-17
3.920000E+03	3.895453E-15	4.365841E-17
3.930000E+03	4.037523E-15	4.483748E-17
3.940000E+03	4.172234E-15	4.590642E-17
3.950000E+03	4.296374E-15	4.683252E-17
3.960000E+03	4.406777E-15	4.758489E-17
3.970000E+03	4.500708E-15	4.813854E-17
3.980000E+03	4.575763E-15	4.847310E-17
3.990000E+03	4.630226E-15	4.857647E-17
4.000000E+03	4.663087E-15	4.844449E-17
4.010000E+03	4.674216E-15	4.808252E-17
4.020000E+03	4.664188E-15	4.750317E-17
4.030000E+03	4.634459E-15	4.672762E-17
4.040000E+03	4.587049E-15	4.578214E-17
4.050000E+03	4.524611E-15	4.469840E-17
4.060000E+03	4.450036E-15	4.350928E-17
4.070000E+03	4.366460E-15	4.224886E-17
4.080000E+03	4.277018E-15	4.094994E-17
4.090000E+03	4.184690E-15	3.964256E-17
4.100000E+03	4.092126E-15	3.835244E-17
4.110000E+03	4.001702E-15	3.710170E-17
4.120000E+03	3.915377E-15	3.590767E-17
4.130000E+03	3.834741E-15	3.478353E-17
4.140000E+03	3.761015E-15	3.373857E-17
4.150000E+03	3.695068E-15	3.277840E-17
4.160000E+03	3.637588E-15	3.190677E-17
4.170000E+03	3.588971E-15	3.112459E-17
4.180000E+03	3.549486E-15	3.043157E-17
4.190000E+03	3.519251E-15	2.982603E-17
4.200000E+03	3.498203E-15	2.930476E-17
4.210000E+03	3.486207E-15	2.886401E-17
4.220000E+03	3.482975E-15	2.849883E-17
4.230000E+03	3.488151E-15	2.820386E-17
4.240000E+03	3.501135E-15	2.797198E-17
4.250000E+03	3.521272E-15	2.779586E-17
4.260000E+03	3.547663E-15	2.766658E-17
4.270000E+03	3.579320E-15	2.757487E-17
4.280000E+03	3.614945E-15	2.750953E-17
4.290000E+03	3.653153E-15	2.745918E-17
4.300000E+03	3.692419E-15	2.741197E-17
4.310000E+03	3.731012E-15	2.735512E-17
4.320000E+03	3.767231E-15	2.727668E-17
4.330000E+03	3.799166E-15	2.716385E-17
4.340000E+03	3.825032E-15	2.700540E-17
4.350000E+03	3.842948E-15	2.679003E-17
4.360000E+03	3.851386E-15	2.650955E-17
4.370000E+03	3.849246E-15	2.615911E-17
4.380000E+03	3.835871E-15	2.573725E-17
4.390000E+03	3.811656E-15	2.524958E-17
4.400000E+03	3.779076E-15	2.471514E-17
4.410000E+03	3.742425E-15	2.416381E-17
4.420000E+03	3.706571E-15	2.362767E-17
4.430000E+03	3.676090E-15	2.313526E-17
4.440000E+03	3.655212E-15	2.271151E-17
4.450000E+03	3.647648E-15	2.237683E-17
4.460000E+03	3.656601E-15	2.214751E-17
4.470000E+03	3.684667E-15	2.203529E-17
4.480000E+03	3.733898E-15	2.204804E-17
4.490000E+03	3.805558E-15	2.218859E-17
4.500000E+03	3.900328E-15	2.245615E-17
4.510000E+03	4.018440E-15	2.284740E-17
4.520000E+03	4.159472E-15	2.335544E-17
4.530000E+03	4.322507E-15	2.397091E-17
4.540000E+03	4.505914E-15	2.468102E-17
4.550000E+03	4.707135E-15	2.546856E-17
4.560000E+03	4.922706E-15	2.631233E-17
4.570000E+03	5.147995E-15	2.718600E-17
4.580000E+03	5.377313E-15	2.805908E-17
4.590000E+03	5.603956E-15	2.889730E-17
4.600000E+03	5.820612E-15	2.966502E-17
4.610000E+03	6.019771E-15	3.032727E-17
4.620000E+03	6.194287E-15	3.085259E-17
4.630000E+03	6.337438E-15	3.121308E-17
4.640000E+03	6.443736E-15	3.138807E-17
4.650000E+03	6.509045E-15	3.136433E-17
4.660000E+03	6.530845E-15	3.113683E-17
4.670000E+03	6.508651E-15	3.071026E-17
4.680000E+03	6.443604E-15	3.009656E-17
4.690000E+03	6.338735E-15	2.931578E-17
4.700000E+03	6.198648E-15	2.839417E-17
4.710000E+03	6.028965E-15	2.736138E-17
4.720000E+03	5.836224E-15	2.624991E-17
4.730000E+03	5.627399E-15	2.509277E-17
4.740000E+03	5.409459E-15	2.392171E-17
4.750000E+03	5.189089E-15	2.276598E-17
4.760000E+03	4.972508E-15	2.165183E-17
4.770000E+03	4.764886E-15	2.060010E-17
4.780000E+03	4.570408E-15	1.962682E-17
4.790000E+03	4.392343E-15	1.874376E-17
4.800000E+03	4.233666E-15	1.796122E-17
4.810000E+03	4.096578E-15	1.728610E-17
4.820000E+03	3.982205E-15	1.672057E-17
4.830000E+03	3.891008E-15	1.626413E-17
4.840000E+03	3.822939E-15	1.591438E-17
4.850000E+03	3.777549E-15	1.566757E-17
4.860000E+03	3.754155E-15	1.551925E-17
4.870000E+03	3.751639E-15	1.546345E-17
4.880000E+03	3.768804E-15	1.549413E-17
4.890000E+03	3.804062E-15	1.560386E-17
4.900000E+03	3.855547E-15	1.578430E-17
4.910000E+03	3.920884E-15	1.602518E-17
4.920000E+03	3.997179E-15	1.631427E-17
4.930000E+03	4.080884E-15	1.663682E-17
4.940000E+03	4.167575E-15	1.697458E-17
4.950000E+03	4.252329E-15	1.730735E-17
4.960000E+03	4.329898E-15	1.761365E-17
4.970000E+03	4.395160E-15	1.787252E-17
4.980000E+03	4.443514E-15	1.806508E-17
4.990000E+03	4.471500E-15	1.817706E-17
5.000000E+03	4.477247E-15	1.820059E-17
5.010000E+03	4.460476E-15	1.813423E-17
5.020000E+03	4.422796E-15	1.798417E-17
5.030000E+03	4.367188E-15	1.776220E-17
5.040000E+03	4.297776E-15	1.748472E-17
5.050000E+03	4.219186E-15	1.717024E-17
5.060000E+03	4.135954E-15	1.683695E-17
5.070000E+03	4.052310E-15	1.650182E-17
5.080000E+03	3.971867E-15	1.617939E-17
5.090000E+03	3.897616E-15	1.588168E-17
5.100000E+03	3.831814E-15	1.561779E-17
5.110000E+03	3.776018E-15	1.539396E-17
5.120000E+03	3.731373E-15	1.521480E-17
5.130000E+03	3.698609E-15	1.508323E-17
5.140000E+03	3.678229E-15	1.500122E-17
5.150000E+03	3.670600E-15	1.497023E-17
5.160000E+03	3.676138E-15	1.499186E-17
5.170000E+03	3.695315E-15	1.506798E-17
5.180000E+03	3.728830E-15	1.520132E-17
5.190000E+03	3.777297E-15	1.539428E-17
5.200000E+03	3.841356E-15	1.564932E-17
5.210000E+03	3.921466E-15	1.596816E-17
5.220000E+03	4.017828E-15	1.635141E-17
5.230000E+03	4.130107E-15	1.679751E-17
5.240000E+03	4.257493E-15	1.730291E-17
5.250000E+03	4.398586E-15	1.786170E-17
5.260000E+03	4.551014E-15	1.846400E-17
5.270000E+03	4.711791E-15	1.909746E-17
5.280000E+03	4.876996E-15	1.974602E-17
5.290000E+03	5.042061E-15	2.039105E-17
5.300000E+03	5.201962E-15	2.101222E-17
5.310000E+03	5.351232E-15	2.158749E-17
5.320000E+03	5.484557E-15	2.209564E-17
5.330000E+03	5.596925E-15	2.251678E-17
5.340000E+03	5.683969E-15	2.283380E-17
5.350000E+03	5.742277E-15	2.303355E-17
5.360000E+03	5.769439E-15	2.310705E-17
5.370000E+03	5.764609E-15	2.305165E-17
5.380000E+03	5.728446E-15	2.287077E-17
5.390000E+03	5.663208E-15	2.257419E-17
5.400000E+03	5.572955E-15	2.217885E-17
5.410000E+03	5.463119E-15	2.170700E-17
5.420000E+03	5.340476E-15	2.118609E-17
5.430000E+03	5.212797E-15	2.064731E-17
5.440000E+03	5.088437E-15	2.012396E-17
5.450000E+03	4.975758E-15	1.964914E-17
5.460000E+03	4.883090E-15	1.925562E-17
5.470000E+03	4.818203E-15	1.897379E-17
5.480000E+03	4.787775E-15	1.882961E-17
5.490000E+03	4.796305E-15	1.884038E-17
5.500000E+03	4.843047E-15	1.900270E-17
5.510000E+03	4.919788E-15	1.928374E-17
5.520000E+03	5.013647E-15	1.963252E-17
5.530000E+03	5.110112E-15	1.999188E-17
5.540000E+03	5.195064E-15	2.030642E-17
5.550000E+03	5.255652E-15	2.052584E-17
5.560000E+03	5.281985E-15	2.061157E-17
5.570000E+03	5.267846E-15	2.053944E-17
5.580000E+03	5.211126E-15	2.030137E-17
5.590000E+03	5.113444E-15	1.990386E-17
5.600000E+03	4.979498E-15	1.936536E-17
5.610000E+03	4.816403E-15	1.871374E-17
5.620000E+03	4.632567E-15	1.798183E-17
5.630000E+03	4.436918E-15	1.720440E-17
5.640000E+03	4.238287E-15	1.641578E-17
5.650000E+03	4.044594E-15	1.564667E-17
5.660000E+03	3.862649E-15	1.492335E-17
5.670000E+03	3.698072E-15	1.426740E-17
5.680000E+03	3.555177E-15	1.369523E-17
5.690000E+03	3.436969E-15	1.321810E-17
5.700000E+03	3.345549E-15	1.284366E-17
5.710000E+03	3.282198E-15	1.257632E-17
5.720000E+03	3.247508E-15	1.241775E-17
5.730000E+03	3.241709E-15	1.236812E-17
5.740000E+03	3.264654E-15	1.242608E-17
5.750000E+03	3.316030E-15	1.258957E-17
5.760000E+03	3.395232E-15	1.285532E-17
5.770000E+03	3.501350E-15	1.321884E-17
5.780000E+03	3.632861E-15	1.367327E-17
5.790000E+03	3.787770E-15	1.420996E-17
5.800000E+03	3.963059E-15	1.481643E-17
5.810000E+03	4.154856E-15	1.547713E-17
5.820000E+03	4.358274E-15	1.617284E-17
5.830000E+03	4.567566E-15	1.688145E-17
5.840000E+03	4.776423E-15	1.757908E-17
5.850000E+03	4.978209E-15	1.824107E-17
5.860000E+03	5.166420E-15	1.884370E-17
5.870000E+03	5.335070E-15	1.936565E-17
5.880000E+03	5.479295E-15	1.979016E-17
5.890000E+03	5.595280E-15	2.010471E-17
5.900000E+03	5.680727E-15	2.030260E-17
5.910000E+03	5.734625E-15	2.038202E-17
5.920000E+03	5.757396E-15	2.034642E-17
5.930000E+03	5.750517E-15	2.020306E-17
5.940000E+03	5.716374E-15	1.996233E-17
5.950000E+03	5.658011E-15	1.963684E-17
5.960000E+03	5.578888E-15	1.924039E-17
5.970000E+03	5.482780E-15	1.878764E-17
5.980000E+03	5.373378E-15	1.829268E-17
5.990000E+03	5.254596E-15	1.777002E-17
6.000000E+03	5.130033E-15	1.723276E-17
6.010000E+03	5.003135E-15	1.669319E-17
6.020000E+03	4.877113E-15	1.616246E-17
6.030000E+03	4.754660E-15	1.564975E-17
6.040000E+03	4.638299E-15	1.516340E-17
6.050000E+03	4.529896E-15	1.470937E-17
6.060000E+03	4.431056E-15	1.429264E-17
6.070000E+03	4.342905E-15	1.391650E-17
6.080000E+03	4.266093E-15	1.358264E-17
6.090000E+03	4.200975E-15	1.329179E-17
6.100000E+03	4.147597E-15	1.304371E-17
6.110000E+03	4.105717E-15	1.283730E-17
6.120000E+03	4.074820E-15	1.267069E-17
6.130000E+03	4.054077E-15	1.254113E-17
6.140000E+03	4.042301E-15	1.244489E-17
6.150000E+03	4.037918E-15	1.237718E-17
6.160000E+03	4.038983E-15	1.233224E-17
6.170000E+03	4.043059E-15	1.230296E-17
6.180000E+03	4.047197E-15	1.228079E-17
6.190000E+03	4.047842E-15	1.225548E-17
6.200000E+03	4.040957E-15	1.221535E-17
6.210000E+03	4.022266E-15	1.214774E-17
6.220000E+03	3.987781E-15	1.204054E-17
6.230000E+03	3.934253E-15	1.188368E-17
6.240000E+03	3.860042E-15	1.167171E-17
6.250000E+03	3.767790E-15	1.141190E-17
6.260000E+03	3.664720E-15	1.112525E-17
6.270000E+03	3.558676E-15	1.083471E-17
6.280000E+03	3.456555E-15	1.056057E-17
6.290000E+03	3.363594E-15	1.031832E-17
6.300000E+03	3.283227E-15	1.011828E-17
6.310000E+03	3.217689E-15	9.967348E-18
6.320000E+03	3.167978E-15	9.868885E-18
6.330000E+03	3.134131E-15	9.823459E-18
6.340000E+03	3.115688E-15	9.830241E-18
6.350000E+03	3.111577E-15	9.886572E-18
6.360000E+03	3.120288E-15	9.988428E-18
6.370000E+03	3.140041E-15	1.013091E-17
6.380000E+03	3.168896E-15	1.030849E-17
6.390000E+03	3.204576E-15	1.051443E-17
6.400000E+03	3.244866E-15	1.074200E-17
6.410000E+03	3.287665E-15	1.098464E-17
6.420000E+03	3.330790E-15	1.123525E-17
6.430000E+03	3.372356E-15	1.148734E-17
6.440000E+03	3.410852E-15	1.173535E-17
6.450000E+03	3.445146E-15	1.197480E-17
6.460000E+03	3.474455E-15	1.220225E-17
6.470000E+03	3.498498E-15	1.241589E-17
6.480000E+03	3.517246E-15	1.261474E-17
6.490000E+03	3.530924E-15	1.279874E-17
6.500000E+03	3.539794E-15	1.296796E-17
6.510000E+03	3.544154E-15	1.312264E-17
6.520000E+03	3.544246E-15	1.326288E-17
6.530000E+03	3.540458E-15	1.338933E-17
6.540000E+03	3.534592E-15	1.350813E-17
6.550000E+03	3.529846E-15	1.363114E-17
6.560000E+03	3.529364E-15	1.377047E-17
6.570000E+03	3.535757E-15	1.393670E-17
6.580000E+03	3.550645E-15	1.413685E-17
6.590000E+03	3.574718E-15	1.437449E-17
6.600000E+03	3.607828E-15	1.464988E-17
6.610000E+03	3.648886E-15	1.495939E-17
6.620000E+03	3.696418E-15	1.529761E-17
6.630000E+03	3.748051E-15	1.565513E-17
6.640000E+03	3.801347E-15	1.602190E-17
6.650000E+03	3.853487E-15	1.638587E-17
6.660000E+03	3.901689E-15	1.673473E-17
6.670000E+03	3.943420E-15	1.705682E-17
6.680000E+03	3.976370E-15	1.734115E-17
6.690000E+03	3.998763E-15	1.757874E-17
6.700000E+03	4.009371E-15	1.776288E-17
6.710000E+03	4.007623E-15	1.788962E-17
6.720000E+03	3.993312E-15	1.795668E-17
6.730000E+03	3.967024E-15	1.796538E-17
6.740000E+03	3.929573E-15	1.791824E-17
6.750000E+03	3.882198E-15	1.781990E-17
6.760000E+03	3.826378E-15	1.767631E-17
6.770000E+03	3.763742E-15	1.749434E-17
6.780000E+03	3.696054E-15	1.728177E-17
6.790000E+03	3.624886E-15	1.704568E-17
6.800000E+03	3.551958E-15	1.679406E-17
6.810000E+03	3.478845E-15	1.653440E-17
6.820000E+03	3.407017E-15	1.627388E-17
6.830000E+03	3.337826E-15	1.601924E-17
6.840000E+03	3.272496E-15	1.577674E-17
6.850000E+03	3.212123E-15	1.555209E-17
6.860000E+03	3.157607E-15	1.535012E-17
6.870000E+03	3.109831E-15	1.517564E-17
6.880000E+03	3.069489E-15	1.503255E-17
6.890000E+03	3.037083E-15	1.492381E-17
6.900000E+03	3.013092E-15	1.485226E-17
6.910000E+03	2.997797E-15	1.481975E-17
6.920000E+03	2.991264E-15	1.482701E-17
6.930000E+03	2.993448E-15	1.487419E-17
6.940000E+03	3.004167E-15	1.496069E-17
6.950000E+03	3.022912E-15	1.508421E-17
6.960000E+03	3.048997E-15	1.524152E-17
6.970000E+03	3.081537E-15	1.542830E-17
6.980000E+03	3.119263E-15	1.563825E-17
6.990000E+03	3.160719E-15	1.586406E-17
7.000000E+03	3.204174E-15	1.609699E-17
7.010000E+03	3.247928E-15	1.632840E-17
7.020000E+03	3.290030E-15	1.654838E-17
7.030000E+03	3.328627E-15	1.674748E-17
7.040000E+03	3.361950E-15	1.691671E-17
7.050000E+03	3.388604E-15	1.704899E-17
7.060000E+03	3.407407E-15	1.713834E-17
7.070000E+03	3.417782E-15	1.718190E-17
7.080000E+03	3.419253E-15	1.717735E-17
7.090000E+03	3.412126E-15	1.712639E-17
7.100000E+03	3.396907E-15	1.703175E-17
7.110000E+03	3.374596E-15	1.689867E-17
7.120000E+03	3.346258E-15	1.673274E-17
7.130000E+03	3.313405E-15	1.654180E-17
7.140000E+03	3.277368E-15	1.633276E-17
7.150000E+03	3.239673E-15	1.611345E-17
7.160000E+03	3.201681E-15	1.589086E-17
7.170000E+03	3.164602E-15	1.567118E-17
7.180000E+03	3.129369E-15	1.545915E-17
7.190000E+03	3.096730E-15	1.525858E-17
7.200000E+03	3.067244E-15	1.507228E-17
7.210000E+03	3.041086E-15	1.490113E-17
7.220000E+03	3.018314E-15	1.474546E-17
7.230000E+03	2.998587E-15	1.460359E-17
7.240000E+03	2.981645E-15	1.447430E-17
7.250000E+03	2.966911E-15	1.435478E-17
7.260000E+03	2.953798E-15	1.424226E-17
7.270000E+03	2.941710E-15	1.413394E-17
7.280000E+03	2.930098E-15	1.402729E-17
7.290000E+03	2.918507E-15	1.392026E-17
7.300000E+03	2.906683E-15	1.381180E-17
7.310000E+03	2.894340E-15	1.370074E-17
7.320000E+03	2.881683E-15	1.358821E-17
7.330000E+03	2.868810E-15	1.347487E-17
7.340000E+03	2.855946E-15	1.336195E-17
7.350000E+03	2.843651E-15	1.325222E-17
7.360000E+03	2.832171E-15	1.314695E-17
7.370000E+03	2.822016E-15	1.304864E-17
7.380000E+03	2.813348E-15	1.295813E-17
7.390000E+03	2.806326E-15	1.287625E-17
7.400000E+03	2.800947E-15	1.280307E-17
7.410000E+03	2.796976E-15	1.273762E-17
7.420000E+03	2.794159E-15	1.267887E-17
7.430000E+03	2.792037E-15	1.262487E-17
7.440000E+03	2.789899E-15	1.257257E-17
7.450000E+03	2.787006E-15	1.251885E-17
7.460000E+03	2.782553E-15	1.246033E-17
7.470000E+03	2.775677E-15	1.239341E-17
7.480000E+03	2.765586E-15	1.231485E-17
7.490000E+03	2.751628E-15	1.222196E-17
7.500000E+03	2.733427E-15	1.211318E-17
7.510000E+03	2.710826E-15	1.198786E-17
7.520000E+03	2.683974E-15	1.184672E-17
7.530000E+03	2.653458E-15	1.169235E-17
7.540000E+03	2.619937E-15	1.152763E-17
7.550000E+03	2.584404E-15	1.135688E-17
7.560000E+03	2.547960E-15	1.118485E-17
7.570000E+03	2.511696E-15	1.101624E-17
7.580000E+03	2.476587E-15	1.085520E-17
7.590000E+03	2.443394E-15	1.070496E-17
7.600000E+03	2.412758E-15	1.056823E-17
7.610000E+03	2.385155E-15	1.044699E-17
7.620000E+03	2.360847E-15	1.034232E-17
7.630000E+03	2.340483E-15	1.025702E-17
7.640000E+03	2.324460E-15	1.019279E-17
7.650000E+03	2.313156E-15	1.015129E-17
7.660000E+03	2.306539E-15	1.013243E-17
7.670000E+03	2.304441E-15	1.013552E-17
7.680000E+03	2.306539E-15	1.015922E-17
7.690000E+03	2.312462E-15	1.020202E-17
7.700000E+03	2.321641E-15	1.026152E-17
7.710000E+03	2.333509E-15	1.033537E-17
7.720000E+03	2.347517E-15	1.042126E-17
7.730000E+03	2.363034E-15	1.051653E-17
7.740000E+03	2.379363E-15	1.061823E-17
7.750000E+03	2.395960E-15	1.072403E-17
7.760000E+03	2.412274E-15	1.083160E-17
