#wls	flux	fluxerr
1.600000E+03	5.349918E-16	1.207592E-17
1.640000E+03	5.521703E-16	1.239859E-17
1.680000E+03	5.705894E-16	1.274331E-17
1.720000E+03	5.903753E-16	1.311223E-17
1.760000E+03	6.115966E-16	1.350616E-17
1.800000E+03	6.343799E-16	1.392712E-17
1.840000E+03	6.587931E-16	1.437575E-17
1.880000E+03	6.850211E-16	1.485514E-17
1.920000E+03	7.131895E-16	1.536697E-17
1.960000E+03	7.433620E-16	1.591152E-17
2.000000E+03	7.757197E-16	1.649143E-17
2.040000E+03	8.103201E-16	1.710661E-17
2.080000E+03	8.472155E-16	1.775677E-17
2.120000E+03	8.865733E-16	1.844393E-17
2.160000E+03	9.282494E-16	1.916352E-17
2.200000E+03	9.720887E-16	1.991077E-17
2.240000E+03	1.017738E-15	2.067694E-17
2.280000E+03	1.064397E-15	2.144446E-17
2.320000E+03	1.112661E-15	2.222418E-17
2.360000E+03	1.163241E-15	2.302872E-17
2.400000E+03	1.216643E-15	2.386616E-17
2.440000E+03	1.273226E-15	2.474133E-17
2.480000E+03	1.333324E-15	2.565814E-17
2.520000E+03	1.397165E-15	2.661825E-17
2.560000E+03	1.464813E-15	2.761987E-17
2.600000E+03	1.536334E-15	2.866116E-17
2.640000E+03	1.611670E-15	2.973781E-17
2.680000E+03	1.690623E-15	3.084292E-17
2.720000E+03	1.772845E-15	3.196694E-17
2.760000E+03	1.857949E-15	3.309984E-17
2.800000E+03	1.945127E-15	3.422447E-17
2.840000E+03	2.033453E-15	3.532223E-17
2.880000E+03	2.122037E-15	3.637598E-17
2.920000E+03	2.210012E-15	3.736972E-17
2.960000E+03	2.296783E-15	3.829288E-17
3.000000E+03	2.381814E-15	3.913636E-17
3.010000E+03	2.402701E-15	3.933319E-17
3.020000E+03	2.423413E-15	3.952399E-17
3.030000E+03	2.443972E-15	3.970914E-17
3.040000E+03	2.464346E-15	3.988812E-17
3.050000E+03	2.484500E-15	4.006039E-17
3.060000E+03	2.504451E-15	4.022626E-17
3.070000E+03	2.524111E-15	4.038432E-17
3.080000E+03	2.543547E-15	4.053569E-17
3.090000E+03	2.562667E-15	4.067896E-17
3.100000E+03	2.581486E-15	4.081438E-17
3.110000E+03	2.599960E-15	4.094130E-17
3.120000E+03	2.618101E-15	4.105999E-17
3.130000E+03	2.635865E-15	4.116979E-17
3.140000E+03	2.653208E-15	4.127009E-17
3.150000E+03	2.670137E-15	4.136106E-17
3.160000E+03	2.686556E-15	4.144128E-17
3.170000E+03	2.702521E-15	4.151169E-17
3.180000E+03	2.717934E-15	4.157089E-17
3.190000E+03	2.732800E-15	4.161906E-17
3.200000E+03	2.747072E-15	4.165557E-17
3.210000E+03	2.760707E-15	4.167987E-17
3.220000E+03	2.773707E-15	4.169212E-17
3.230000E+03	2.786028E-15	4.169179E-17
3.240000E+03	2.797583E-15	4.167769E-17
3.250000E+03	2.808472E-15	4.165145E-17
3.260000E+03	2.818516E-15	4.161059E-17
3.270000E+03	2.827819E-15	4.155677E-17
3.280000E+03	2.836261E-15	4.148838E-17
3.290000E+03	2.843859E-15	4.140585E-17
3.300000E+03	2.850634E-15	4.130965E-17
3.310000E+03	2.856481E-15	4.119845E-17
3.320000E+03	2.861474E-15	4.107348E-17
3.330000E+03	2.865607E-15	4.093484E-17
3.340000E+03	2.868833E-15	4.078203E-17
3.350000E+03	2.871155E-15	4.061528E-17
3.360000E+03	2.872573E-15	4.043480E-17
3.370000E+03	2.873129E-15	4.024135E-17
3.380000E+03	2.872741E-15	4.003399E-17
3.390000E+03	2.871477E-15	3.981385E-17
3.400000E+03	2.869247E-15	3.957988E-17
3.410000E+03	2.866029E-15	3.933200E-17
3.420000E+03	2.861830E-15	3.907051E-17
3.430000E+03	2.856503E-15	3.879364E-17
3.440000E+03	2.850075E-15	3.850200E-17
3.450000E+03	2.842464E-15	3.819475E-17
3.460000E+03	2.833526E-15	3.787020E-17
3.470000E+03	2.823296E-15	3.752912E-17
3.480000E+03	2.811653E-15	3.717023E-17
3.490000E+03	2.798602E-15	3.679388E-17
3.500000E+03	2.784135E-15	3.640032E-17
3.510000E+03	2.768182E-15	3.598895E-17
3.520000E+03	2.750832E-15	3.556126E-17
3.530000E+03	2.732114E-15	3.511795E-17
3.540000E+03	2.712097E-15	3.466023E-17
3.550000E+03	2.690914E-15	3.419008E-17
3.560000E+03	2.668683E-15	3.370928E-17
3.570000E+03	2.645583E-15	3.322033E-17
3.580000E+03	2.621812E-15	3.272591E-17
3.590000E+03	2.597652E-15	3.222971E-17
3.600000E+03	2.573395E-15	3.173543E-17
3.610000E+03	2.549334E-15	3.124669E-17
3.620000E+03	2.525841E-15	3.076800E-17
3.630000E+03	2.503313E-15	3.030407E-17
3.640000E+03	2.482133E-15	2.985930E-17
3.650000E+03	2.462822E-15	2.943964E-17
3.660000E+03	2.445807E-15	2.904973E-17
3.670000E+03	2.431629E-15	2.869545E-17
3.680000E+03	2.420821E-15	2.838241E-17
3.690000E+03	2.413936E-15	2.811631E-17
3.700000E+03	2.411567E-15	2.790308E-17
3.710000E+03	2.414341E-15	2.774892E-17
3.720000E+03	2.422823E-15	2.765907E-17
3.730000E+03	2.437714E-15	2.764018E-17
3.740000E+03	2.459624E-15	2.769761E-17
3.750000E+03	2.489233E-15	2.783734E-17
3.760000E+03	2.527228E-15	2.806518E-17
3.770000E+03	2.574227E-15	2.838598E-17
3.780000E+03	2.630947E-15	2.880548E-17
3.790000E+03	2.697999E-15	2.932801E-17
3.800000E+03	2.776004E-15	2.995780E-17
3.810000E+03	2.865495E-15	3.069799E-17
3.820000E+03	2.966941E-15	3.155080E-17
3.830000E+03	3.080655E-15	3.251669E-17
3.840000E+03	3.206781E-15	3.359422E-17
3.850000E+03	3.345196E-15	3.477913E-17
3.860000E+03	3.495507E-15	3.606441E-17
3.870000E+03	3.656875E-15	3.743860E-17
3.880000E+03	3.827989E-15	3.888570E-17
3.890000E+03	4.007033E-15	4.038505E-17
3.900000E+03	4.191575E-15	4.191038E-17
3.910000E+03	4.378657E-15	4.343101E-17
3.920000E+03	4.564699E-15	4.491109E-17
3.930000E+03	4.745693E-15	4.631170E-17
3.940000E+03	4.917286E-15	4.759193E-17
3.950000E+03	5.075021E-15	4.871124E-17
3.960000E+03	5.214718E-15	4.963317E-17
3.970000E+03	5.332407E-15	5.032462E-17
3.980000E+03	5.424958E-15	5.076162E-17
3.990000E+03	5.490054E-15	5.092876E-17
4.000000E+03	5.526487E-15	5.082158E-17
4.010000E+03	5.534194E-15	5.044648E-17
4.020000E+03	5.514179E-15	4.981953E-17
4.030000E+03	5.468631E-15	4.896705E-17
4.040000E+03	5.400545E-15	4.792186E-17
4.050000E+03	5.313624E-15	4.672202E-17
4.060000E+03	5.211941E-15	4.540761E-17
4.070000E+03	5.099723E-15	4.401872E-17
4.080000E+03	4.981186E-15	4.259402E-17
4.090000E+03	4.860154E-15	4.116745E-17
4.100000E+03	4.740105E-15	3.976883E-17
4.110000E+03	4.624009E-15	3.842263E-17
4.120000E+03	4.514229E-15	3.714737E-17
4.130000E+03	4.412701E-15	3.595735E-17
4.140000E+03	4.320778E-15	3.486150E-17
4.150000E+03	4.239460E-15	3.386553E-17
4.160000E+03	4.169390E-15	3.297201E-17
4.170000E+03	4.110859E-15	3.218052E-17
4.180000E+03	4.064013E-15	3.148949E-17
4.190000E+03	4.028682E-15	3.089483E-17
4.200000E+03	4.004692E-15	3.039252E-17
4.210000E+03	3.991573E-15	2.997636E-17
4.220000E+03	3.988821E-15	2.964009E-17
4.230000E+03	3.995770E-15	2.937639E-17
4.240000E+03	4.011644E-15	2.917741E-17
4.250000E+03	4.035418E-15	2.903373E-17
4.260000E+03	4.066010E-15	2.893589E-17
4.270000E+03	4.102046E-15	2.887270E-17
4.280000E+03	4.141934E-15	2.883191E-17
4.290000E+03	4.183931E-15	2.880076E-17
4.300000E+03	4.226057E-15	2.876539E-17
4.310000E+03	4.266096E-15	2.871100E-17
4.320000E+03	4.301780E-15	2.862309E-17
4.330000E+03	4.330803E-15	2.848762E-17
4.340000E+03	4.350932E-15	2.829174E-17
4.350000E+03	4.360151E-15	2.802462E-17
4.360000E+03	4.356854E-15	2.767864E-17
4.370000E+03	4.339967E-15	2.724993E-17
4.380000E+03	4.309183E-15	2.673971E-17
4.390000E+03	4.265538E-15	2.615746E-17
4.400000E+03	4.212454E-15	2.552677E-17
4.410000E+03	4.155493E-15	2.488302E-17
4.420000E+03	4.100637E-15	2.426242E-17
4.430000E+03	4.053533E-15	2.369752E-17
4.440000E+03	4.019204E-15	2.321571E-17
4.450000E+03	4.002017E-15	2.283922E-17
4.460000E+03	4.005501E-15	2.258446E-17
4.470000E+03	4.032460E-15	2.246292E-17
4.480000E+03	4.084964E-15	2.248136E-17
4.490000E+03	4.164309E-15	2.264192E-17
4.500000E+03	4.271223E-15	2.294349E-17
4.510000E+03	4.405721E-15	2.338110E-17
4.520000E+03	4.567142E-15	2.394642E-17
4.530000E+03	4.754094E-15	2.462766E-17
4.540000E+03	4.964221E-15	2.540859E-17
4.550000E+03	5.194211E-15	2.626893E-17
4.560000E+03	5.439612E-15	2.718364E-17
4.570000E+03	5.694723E-15	2.812273E-17
4.580000E+03	5.952646E-15	2.905183E-17
4.590000E+03	6.205630E-15	2.993411E-17
4.600000E+03	6.445288E-15	3.073153E-17
4.610000E+03	6.663104E-15	3.140724E-17
4.620000E+03	6.850989E-15	3.192817E-17
4.630000E+03	7.001611E-15	3.226628E-17
4.640000E+03	7.109083E-15	3.240143E-17
4.650000E+03	7.169157E-15	3.232174E-17
4.660000E+03	7.179543E-15	3.202455E-17
4.670000E+03	7.140029E-15	3.151642E-17
4.680000E+03	7.052460E-15	3.081250E-17
4.690000E+03	6.920584E-15	2.993540E-17
4.700000E+03	6.749901E-15	2.891415E-17
4.710000E+03	6.547057E-15	2.778130E-17
4.720000E+03	6.319553E-15	2.657156E-17
4.730000E+03	6.075411E-15	2.532037E-17
4.740000E+03	5.822468E-15	2.406092E-17
4.750000E+03	5.568210E-15	2.282376E-17
4.760000E+03	5.319455E-15	2.163558E-17
4.770000E+03	5.082047E-15	2.051829E-17
4.780000E+03	4.860893E-15	1.948940E-17
4.790000E+03	4.659988E-15	1.856235E-17
4.800000E+03	4.481663E-15	1.774371E-17
4.810000E+03	4.327580E-15	1.703714E-17
4.820000E+03	4.198793E-15	1.644407E-17
4.830000E+03	4.095677E-15	1.596344E-17
4.840000E+03	4.018086E-15	1.559244E-17
4.850000E+03	3.965467E-15	1.532698E-17
4.860000E+03	3.936900E-15	1.516185E-17
4.870000E+03	3.931270E-15	1.509136E-17
4.880000E+03	3.946994E-15	1.510829E-17
4.890000E+03	3.982188E-15	1.520453E-17
4.900000E+03	4.034550E-15	1.537061E-17
4.910000E+03	4.101184E-15	1.559499E-17
4.920000E+03	4.178560E-15	1.586390E-17
4.930000E+03	4.262393E-15	1.616087E-17
4.940000E+03	4.347938E-15	1.646778E-17
4.950000E+03	4.429923E-15	1.676462E-17
4.960000E+03	4.503047E-15	1.703128E-17
4.970000E+03	4.562385E-15	1.724908E-17
4.980000E+03	4.603876E-15	1.740258E-17
4.990000E+03	4.624718E-15	1.748101E-17
5.000000E+03	4.623748E-15	1.747973E-17
5.010000E+03	4.601531E-15	1.740056E-17
5.020000E+03	4.560093E-15	1.725080E-17
5.030000E+03	4.502690E-15	1.704237E-17
5.040000E+03	4.433495E-15	1.679066E-17
5.050000E+03	4.356791E-15	1.651152E-17
5.060000E+03	4.276987E-15	1.622132E-17
5.070000E+03	4.198006E-15	1.593467E-17
5.080000E+03	4.123074E-15	1.566359E-17
5.090000E+03	4.055001E-15	1.541859E-17
5.100000E+03	3.995775E-15	1.520710E-17
5.110000E+03	3.946925E-15	1.503489E-17
5.120000E+03	3.909613E-15	1.490633E-17
5.130000E+03	3.884608E-15	1.482434E-17
5.140000E+03	3.872603E-15	1.479157E-17
5.150000E+03	3.874268E-15	1.481060E-17
5.160000E+03	3.890216E-15	1.488379E-17
5.170000E+03	3.921137E-15	1.501382E-17
5.180000E+03	3.967711E-15	1.520330E-17
5.190000E+03	4.030669E-15	1.545506E-17
5.200000E+03	4.110500E-15	1.577099E-17
5.210000E+03	4.207614E-15	1.615264E-17
5.220000E+03	4.321930E-15	1.659968E-17
5.230000E+03	4.452852E-15	1.710976E-17
5.240000E+03	4.599190E-15	1.767821E-17
5.250000E+03	4.759041E-15	1.829762E-17
5.260000E+03	4.929536E-15	1.895679E-17
5.270000E+03	5.107087E-15	1.964176E-17
5.280000E+03	5.287301E-15	2.033544E-17
5.290000E+03	5.464903E-15	2.101735E-17
5.300000E+03	5.634456E-15	2.166640E-17
5.310000E+03	5.790008E-15	2.225953E-17
5.320000E+03	5.926068E-15	2.277552E-17
5.330000E+03	6.037283E-15	2.319377E-17
5.340000E+03	6.119414E-15	2.349800E-17
5.350000E+03	6.169239E-15	2.367596E-17
5.360000E+03	6.184866E-15	2.372059E-17
5.370000E+03	6.166175E-15	2.363170E-17
5.380000E+03	6.114437E-15	2.341450E-17
5.390000E+03	6.032985E-15	2.308216E-17
5.400000E+03	5.926502E-15	2.265301E-17
5.410000E+03	5.801126E-15	2.215090E-17
5.420000E+03	5.664095E-15	2.160385E-17
5.430000E+03	5.523398E-15	2.104259E-17
5.440000E+03	5.387348E-15	2.049898E-17
5.450000E+03	5.264336E-15	2.000503E-17
5.460000E+03	5.162437E-15	1.959133E-17
5.470000E+03	5.089036E-15	1.928569E-17
5.480000E+03	5.050304E-15	1.911112E-17
5.490000E+03	5.050481E-15	1.908316E-17
5.500000E+03	5.089138E-15	1.919955E-17
5.510000E+03	5.157602E-15	1.942682E-17
5.520000E+03	5.243475E-15	1.971764E-17
5.530000E+03	5.333071E-15	2.002012E-17
5.540000E+03	5.412916E-15	2.028354E-17
5.550000E+03	5.470773E-15	2.046213E-17
5.560000E+03	5.497091E-15	2.052054E-17
5.570000E+03	5.485497E-15	2.043557E-17
5.580000E+03	5.433438E-15	2.019850E-17
5.590000E+03	5.342015E-15	1.981433E-17
5.600000E+03	5.215267E-15	1.929899E-17
5.610000E+03	5.059722E-15	1.867754E-17
5.620000E+03	4.883310E-15	1.798008E-17
5.630000E+03	4.694510E-15	1.723847E-17
5.640000E+03	4.501725E-15	1.648403E-17
5.650000E+03	4.312726E-15	1.574545E-17
5.660000E+03	4.134213E-15	1.504719E-17
5.670000E+03	3.971656E-15	1.440897E-17
5.680000E+03	3.829417E-15	1.384616E-17
5.690000E+03	3.710739E-15	1.336990E-17
5.700000E+03	3.617800E-15	1.298727E-17
5.710000E+03	3.552130E-15	1.270280E-17
5.720000E+03	3.514651E-15	1.251878E-17
5.730000E+03	3.505801E-15	1.243558E-17
5.740000E+03	3.525657E-15	1.245222E-17
5.750000E+03	3.573977E-15	1.256651E-17
5.760000E+03	3.650176E-15	1.277498E-17
5.770000E+03	3.753284E-15	1.307278E-17
5.780000E+03	3.881697E-15	1.345287E-17
5.790000E+03	4.033237E-15	1.390625E-17
5.800000E+03	4.204763E-15	1.442071E-17
5.810000E+03	4.392243E-15	1.498121E-17
5.820000E+03	4.590807E-15	1.557010E-17
5.830000E+03	4.794579E-15	1.616673E-17
5.840000E+03	4.997248E-15	1.674944E-17
5.850000E+03	5.192289E-15	1.729638E-17
5.860000E+03	5.373250E-15	1.778654E-17
5.870000E+03	5.534411E-15	1.820189E-17
5.880000E+03	5.670913E-15	1.852779E-17
5.890000E+03	5.779322E-15	1.875472E-17
5.900000E+03	5.857398E-15	1.887738E-17
5.910000E+03	5.904341E-15	1.889537E-17
5.920000E+03	5.920705E-15	1.881273E-17
5.930000E+03	5.908016E-15	1.863659E-17
5.940000E+03	5.868813E-15	1.837713E-17
5.950000E+03	5.806150E-15	1.804598E-17
5.960000E+03	5.723639E-15	1.765619E-17
5.970000E+03	5.625057E-15	1.722102E-17
5.980000E+03	5.514247E-15	1.675355E-17
5.990000E+03	5.394931E-15	1.626615E-17
6.000000E+03	5.270781E-15	1.577068E-17
6.010000E+03	5.145149E-15	1.527769E-17
6.020000E+03	5.020999E-15	1.479625E-17
6.030000E+03	4.901042E-15	1.433444E-17
6.040000E+03	4.787474E-15	1.389856E-17
6.050000E+03	4.682083E-15	1.349356E-17
6.060000E+03	4.586429E-15	1.312359E-17
6.070000E+03	4.501471E-15	1.279097E-17
6.080000E+03	4.427981E-15	1.249745E-17
6.090000E+03	4.366255E-15	1.224340E-17
6.100000E+03	4.316456E-15	1.202887E-17
6.110000E+03	4.278347E-15	1.185284E-17
6.120000E+03	4.251444E-15	1.171367E-17
6.130000E+03	4.234914E-15	1.160888E-17
6.140000E+03	4.227482E-15	1.153490E-17
6.150000E+03	4.227464E-15	1.148716E-17
6.160000E+03	4.232649E-15	1.145983E-17
6.170000E+03	4.240230E-15	1.144561E-17
6.180000E+03	4.246756E-15	1.143554E-17
6.190000E+03	4.248091E-15	1.141896E-17
6.200000E+03	4.239720E-15	1.138414E-17
6.210000E+03	4.216904E-15	1.131847E-17
6.220000E+03	4.175304E-15	1.121011E-17
6.230000E+03	4.111906E-15	1.105057E-17
6.240000E+03	4.026453E-15	1.083851E-17
6.250000E+03	3.922896E-15	1.058369E-17
6.260000E+03	3.808807E-15	1.030559E-17
6.270000E+03	3.693109E-15	1.002745E-17
6.280000E+03	3.583773E-15	9.770221E-18
6.290000E+03	3.486672E-15	9.549512E-18
6.300000E+03	3.405840E-15	9.376277E-18
6.310000E+03	3.343255E-15	9.256155E-18
6.320000E+03	3.299605E-15	9.191482E-18
6.330000E+03	3.274478E-15	9.181718E-18
6.340000E+03	3.266695E-15	9.224297E-18
6.350000E+03	3.274489E-15	9.315027E-18
6.360000E+03	3.295745E-15	9.448693E-18
6.370000E+03	3.328060E-15	9.619170E-18
6.380000E+03	3.368792E-15	9.819489E-18
6.390000E+03	3.415201E-15	1.004219E-17
6.400000E+03	3.464603E-15	1.027974E-17
6.410000E+03	3.514289E-15	1.052428E-17
6.420000E+03	3.561899E-15	1.076866E-17
6.430000E+03	3.605380E-15	1.100630E-17
6.440000E+03	3.643079E-15	1.123157E-17
6.450000E+03	3.674016E-15	1.144070E-17
6.460000E+03	3.697582E-15	1.163092E-17
6.470000E+03	3.713830E-15	1.180146E-17
6.480000E+03	3.723182E-15	1.195275E-17
6.490000E+03	3.726331E-15	1.208610E-17
6.500000E+03	3.724237E-15	1.220380E-17
6.510000E+03	3.717994E-15	1.230869E-17
6.520000E+03	3.708800E-15	1.240413E-17
6.530000E+03	3.698170E-15	1.249471E-17
6.540000E+03	3.688164E-15	1.258709E-17
6.550000E+03	3.681054E-15	1.268896E-17
6.560000E+03	3.679147E-15	1.280845E-17
6.570000E+03	3.684456E-15	1.295300E-17
6.580000E+03	3.698079E-15	1.312704E-17
6.590000E+03	3.720530E-15	1.333311E-17
6.600000E+03	3.751510E-15	1.357084E-17
6.610000E+03	3.790025E-15	1.383730E-17
6.620000E+03	3.834477E-15	1.412716E-17
6.630000E+03	3.882709E-15	1.443284E-17
6.640000E+03	3.932355E-15	1.474562E-17
6.650000E+03	3.980733E-15	1.505533E-17
6.660000E+03	4.025284E-15	1.535189E-17
6.670000E+03	4.063484E-15	1.562505E-17
6.680000E+03	4.093190E-15	1.586573E-17
6.690000E+03	4.112774E-15	1.606664E-17
6.700000E+03	4.121061E-15	1.622208E-17
6.710000E+03	4.117289E-15	1.632792E-17
6.720000E+03	4.101535E-15	1.638329E-17
6.730000E+03	4.074088E-15	1.638827E-17
6.740000E+03	4.035960E-15	1.634595E-17
6.750000E+03	3.988287E-15	1.626005E-17
6.760000E+03	3.932448E-15	1.613549E-17
6.770000E+03	3.870176E-15	1.597883E-17
6.780000E+03	3.802998E-15	1.579598E-17
6.790000E+03	3.732642E-15	1.559388E-17
6.800000E+03	3.660717E-15	1.537916E-17
6.810000E+03	3.588745E-15	1.515824E-17
6.820000E+03	3.518074E-15	1.493697E-17
6.830000E+03	3.450063E-15	1.472134E-17
6.840000E+03	3.385818E-15	1.451639E-17
6.850000E+03	3.326439E-15	1.432721E-17
6.860000E+03	3.272776E-15	1.415787E-17
6.870000E+03	3.225616E-15	1.401222E-17
6.880000E+03	3.185680E-15	1.389384E-17
6.890000E+03	3.153384E-15	1.380502E-17
6.900000E+03	3.129252E-15	1.374850E-17
6.910000E+03	3.113493E-15	1.372562E-17
6.920000E+03	3.106225E-15	1.373731E-17
6.930000E+03	3.107398E-15	1.378374E-17
6.940000E+03	3.116785E-15	1.386420E-17
6.950000E+03	3.133884E-15	1.397675E-17
6.960000E+03	3.158093E-15	1.411893E-17
6.970000E+03	3.188510E-15	1.428687E-17
6.980000E+03	3.223988E-15	1.447554E-17
6.990000E+03	3.263024E-15	1.467824E-17
7.000000E+03	3.304228E-15	1.488872E-17
7.010000E+03	3.345684E-15	1.509829E-17
7.020000E+03	3.385729E-15	1.529937E-17
7.030000E+03	3.422524E-15	1.548353E-17
7.040000E+03	3.454416E-15	1.564318E-17
7.050000E+03	3.479973E-15	1.577171E-17
7.060000E+03	3.498072E-15	1.586393E-17
7.070000E+03	3.507897E-15	1.591606E-17
7.080000E+03	3.509190E-15	1.592689E-17
7.090000E+03	3.502053E-15	1.589689E-17
7.100000E+03	3.486927E-15	1.582809E-17
7.110000E+03	3.464749E-15	1.572482E-17
7.120000E+03	3.436598E-15	1.559209E-17
7.130000E+03	3.403818E-15	1.543612E-17
7.140000E+03	3.367847E-15	1.526359E-17
7.150000E+03	3.330192E-15	1.508146E-17
7.160000E+03	3.292070E-15	1.489539E-17
7.170000E+03	3.254679E-15	1.471093E-17
7.180000E+03	3.219144E-15	1.453328E-17
7.190000E+03	3.186079E-15	1.436530E-17
7.200000E+03	3.155981E-15	1.420932E-17
7.210000E+03	3.129164E-15	1.406679E-17
7.220000E+03	3.105577E-15	1.393754E-17
7.230000E+03	3.085043E-15	1.382080E-17
7.240000E+03	3.067224E-15	1.371511E-17
7.250000E+03	3.051677E-15	1.361851E-17
7.260000E+03	3.037972E-15	1.352913E-17
7.270000E+03	3.025474E-15	1.344421E-17
7.280000E+03	3.013860E-15	1.336236E-17
7.290000E+03	3.002689E-15	1.328172E-17
7.300000E+03	2.991700E-15	1.320122E-17
7.310000E+03	2.980825E-15	1.312066E-17
7.320000E+03	2.969991E-15	1.303983E-17
7.330000E+03	2.959374E-15	1.295959E-17
7.340000E+03	2.949167E-15	1.288089E-17
7.350000E+03	2.939680E-15	1.280519E-17
7.360000E+03	2.931157E-15	1.273361E-17
7.370000E+03	2.923860E-15	1.266739E-17
7.380000E+03	2.917831E-15	1.260676E-17
7.390000E+03	2.913253E-15	1.255259E-17
7.400000E+03	2.909967E-15	1.250426E-17
7.410000E+03	2.907589E-15	1.246021E-17
7.420000E+03	2.905849E-15	1.241936E-17
7.430000E+03	2.904081E-15	1.237897E-17
7.440000E+03	2.901644E-15	1.233647E-17
7.450000E+03	2.897699E-15	1.228842E-17
7.460000E+03	2.891536E-15	1.223201E-17
7.470000E+03	2.882222E-15	1.216350E-17
7.480000E+03	2.869288E-15	1.208111E-17
7.490000E+03	2.852108E-15	1.198241E-17
7.500000E+03	2.830570E-15	1.186704E-17
7.510000E+03	2.804700E-15	1.173521E-17
7.520000E+03	2.774810E-15	1.158831E-17
7.530000E+03	2.741608E-15	1.142937E-17
7.540000E+03	2.705755E-15	1.126118E-17
7.550000E+03	2.668390E-15	1.108851E-17
7.560000E+03	2.630531E-15	1.091557E-17
7.570000E+03	2.593242E-15	1.074675E-17
7.580000E+03	2.557436E-15	1.058578E-17
7.590000E+03	2.523998E-15	1.043629E-17
7.600000E+03	2.493482E-15	1.030051E-17
7.610000E+03	2.466307E-15	1.018010E-17
7.620000E+03	2.442917E-15	1.007687E-17
7.630000E+03	2.423617E-15	9.992026E-18
7.640000E+03	2.408805E-15	9.927193E-18
7.650000E+03	2.398497E-15	9.882432E-18
7.660000E+03	2.392741E-15	9.857945E-18
7.670000E+03	2.391233E-15	9.852511E-18
7.680000E+03	2.393664E-15	9.864909E-18
7.690000E+03	2.399531E-15	9.893122E-18
7.700000E+03	2.408333E-15	9.935177E-18
7.710000E+03	2.419552E-15	9.989018E-18
7.720000E+03	2.432783E-15	1.005309E-17
7.730000E+03	2.447311E-15	1.012453E-17
7.740000E+03	2.462819E-15	1.020214E-17
7.750000E+03	2.478698E-15	1.028353E-17
7.760000E+03	2.494575E-15	1.036725E-17
