#wls	flux	fluxerr
1.600000E+03	5.372447E-16	1.104777E-17
1.640000E+03	5.544136E-16	1.134225E-17
1.680000E+03	5.728236E-16	1.165690E-17
1.720000E+03	5.926015E-16	1.199373E-17
1.760000E+03	6.138154E-16	1.235346E-17
1.800000E+03	6.365925E-16	1.273796E-17
1.840000E+03	6.610005E-16	1.314781E-17
1.880000E+03	6.872248E-16	1.358586E-17
1.920000E+03	7.153913E-16	1.405368E-17
1.960000E+03	7.455640E-16	1.455152E-17
2.000000E+03	7.779245E-16	1.508183E-17
2.040000E+03	8.125307E-16	1.564456E-17
2.080000E+03	8.494357E-16	1.623947E-17
2.120000E+03	8.888079E-16	1.686846E-17
2.160000E+03	9.305037E-16	1.752739E-17
2.200000E+03	9.743689E-16	1.821194E-17
2.240000E+03	1.020051E-15	1.891419E-17
2.280000E+03	1.066752E-15	1.961815E-17
2.320000E+03	1.115070E-15	2.033379E-17
2.360000E+03	1.165719E-15	2.107273E-17
2.400000E+03	1.219212E-15	2.184251E-17
2.440000E+03	1.275915E-15	2.264763E-17
2.480000E+03	1.336164E-15	2.349182E-17
2.520000E+03	1.400198E-15	2.437677E-17
2.560000E+03	1.468087E-15	2.530101E-17
2.600000E+03	1.539908E-15	2.626307E-17
2.640000E+03	1.615614E-15	2.725922E-17
2.680000E+03	1.695020E-15	2.828341E-17
2.720000E+03	1.777792E-15	2.932718E-17
2.760000E+03	1.863560E-15	3.038161E-17
2.800000E+03	1.951536E-15	3.143130E-17
2.840000E+03	2.040809E-15	3.245949E-17
2.880000E+03	2.130514E-15	3.345079E-17
2.920000E+03	2.219804E-15	3.439081E-17
2.960000E+03	2.308112E-15	3.527012E-17
3.000000E+03	2.394921E-15	3.608063E-17
3.010000E+03	2.416294E-15	3.627107E-17
3.020000E+03	2.437509E-15	3.645626E-17
3.030000E+03	2.458589E-15	3.663655E-17
3.040000E+03	2.479502E-15	3.681148E-17
3.050000E+03	2.500212E-15	3.698053E-17
3.060000E+03	2.520739E-15	3.714401E-17
3.070000E+03	2.540991E-15	3.730059E-17
3.080000E+03	2.561040E-15	3.745134E-17
3.090000E+03	2.580791E-15	3.759492E-17
3.100000E+03	2.600259E-15	3.773158E-17
3.110000E+03	2.619402E-15	3.786074E-17
3.120000E+03	2.638230E-15	3.798260E-17
3.130000E+03	2.656700E-15	3.809657E-17
3.140000E+03	2.674768E-15	3.820208E-17
3.150000E+03	2.692441E-15	3.829927E-17
3.160000E+03	2.709620E-15	3.838683E-17
3.170000E+03	2.726362E-15	3.846562E-17
3.180000E+03	2.742570E-15	3.853434E-17
3.190000E+03	2.758247E-15	3.859312E-17
3.200000E+03	2.773346E-15	3.864139E-17
3.210000E+03	2.787821E-15	3.867860E-17
3.220000E+03	2.801674E-15	3.870489E-17
3.230000E+03	2.814862E-15	3.871976E-17
3.240000E+03	2.827292E-15	3.872206E-17
3.250000E+03	2.839065E-15	3.871330E-17
3.260000E+03	2.850001E-15	3.869113E-17
3.270000E+03	2.860203E-15	3.865710E-17
3.280000E+03	2.869546E-15	3.860965E-17
3.290000E+03	2.878047E-15	3.854917E-17
3.300000E+03	2.885724E-15	3.847604E-17
3.310000E+03	2.892470E-15	3.838901E-17
3.320000E+03	2.898360E-15	3.828920E-17
3.330000E+03	2.903382E-15	3.817665E-17
3.340000E+03	2.907489E-15	3.805089E-17
3.350000E+03	2.910683E-15	3.791210E-17
3.360000E+03	2.912961E-15	3.776044E-17
3.370000E+03	2.914365E-15	3.759660E-17
3.380000E+03	2.914807E-15	3.741964E-17
3.390000E+03	2.914357E-15	3.723062E-17
3.400000E+03	2.912919E-15	3.702849E-17
3.410000E+03	2.910467E-15	3.681314E-17
3.420000E+03	2.907005E-15	3.658479E-17
3.430000E+03	2.902377E-15	3.634170E-17
3.440000E+03	2.896609E-15	3.608441E-17
3.450000E+03	2.889607E-15	3.581201E-17
3.460000E+03	2.881221E-15	3.552286E-17
3.470000E+03	2.871477E-15	3.521758E-17
3.480000E+03	2.860250E-15	3.489490E-17
3.490000E+03	2.847535E-15	3.455509E-17
3.500000E+03	2.833321E-15	3.419827E-17
3.510000E+03	2.817530E-15	3.382386E-17
3.520000E+03	2.800251E-15	3.343321E-17
3.530000E+03	2.781508E-15	3.302694E-17
3.540000E+03	2.761368E-15	3.260612E-17
3.550000E+03	2.739967E-15	3.217266E-17
3.560000E+03	2.717420E-15	3.172816E-17
3.570000E+03	2.693915E-15	3.127504E-17
3.580000E+03	2.669648E-15	3.081577E-17
3.590000E+03	2.644911E-15	3.035389E-17
3.600000E+03	2.620003E-15	2.989292E-17
3.610000E+03	2.595226E-15	2.943633E-17
3.620000E+03	2.570965E-15	2.898846E-17
3.630000E+03	2.547634E-15	2.855386E-17
3.640000E+03	2.525628E-15	2.813676E-17
3.650000E+03	2.505485E-15	2.774286E-17
3.660000E+03	2.487650E-15	2.737670E-17
3.670000E+03	2.472680E-15	2.704391E-17
3.680000E+03	2.461128E-15	2.674991E-17
3.690000E+03	2.453565E-15	2.650021E-17
3.700000E+03	2.450603E-15	2.630055E-17
3.710000E+03	2.452892E-15	2.615693E-17
3.720000E+03	2.461016E-15	2.607446E-17
3.730000E+03	2.475700E-15	2.605957E-17
3.740000E+03	2.497577E-15	2.611752E-17
3.750000E+03	2.527354E-15	2.625416E-17
3.760000E+03	2.565738E-15	2.647515E-17
3.770000E+03	2.613376E-15	2.678533E-17
3.780000E+03	2.671013E-15	2.719032E-17
3.790000E+03	2.739286E-15	2.769446E-17
3.800000E+03	2.818843E-15	2.830204E-17
3.810000E+03	2.910249E-15	2.901629E-17
3.820000E+03	3.014000E-15	2.983962E-17
3.830000E+03	3.130432E-15	3.077271E-17
3.840000E+03	3.259711E-15	3.181448E-17
3.850000E+03	3.401728E-15	3.296112E-17
3.860000E+03	3.556092E-15	3.420616E-17
3.870000E+03	3.721953E-15	3.553884E-17
3.880000E+03	3.897975E-15	3.694400E-17
3.890000E+03	4.082288E-15	3.840190E-17
3.900000E+03	4.272384E-15	3.988729E-17
3.910000E+03	4.465202E-15	4.137058E-17
3.920000E+03	4.657029E-15	4.281700E-17
3.930000E+03	4.843701E-15	4.418876E-17
3.940000E+03	5.020690E-15	4.544595E-17
3.950000E+03	5.183361E-15	4.654901E-17
3.960000E+03	5.327356E-15	4.746215E-17
3.970000E+03	5.448550E-15	4.815293E-17
3.980000E+03	5.543684E-15	4.859768E-17
3.990000E+03	5.610361E-15	4.878113E-17
4.000000E+03	5.647334E-15	4.869870E-17
4.010000E+03	5.654561E-15	4.835640E-17
4.020000E+03	5.633113E-15	4.776975E-17
4.030000E+03	5.585288E-15	4.696427E-17
4.040000E+03	5.514226E-15	4.597182E-17
4.050000E+03	5.423794E-15	4.482943E-17
4.060000E+03	5.318236E-15	4.357606E-17
4.070000E+03	5.201945E-15	4.225069E-17
4.080000E+03	5.079295E-15	4.089087E-17
4.090000E+03	4.954240E-15	3.952954E-17
4.100000E+03	4.830366E-15	3.819562E-17
4.110000E+03	4.710728E-15	3.691282E-17
4.120000E+03	4.597745E-15	3.569904E-17
4.130000E+03	4.493396E-15	3.456809E-17
4.140000E+03	4.399051E-15	3.352861E-17
4.150000E+03	4.315718E-15	3.258607E-17
4.160000E+03	4.244031E-15	3.174290E-17
4.170000E+03	4.184261E-15	3.099865E-17
4.180000E+03	4.136529E-15	3.035169E-17
4.190000E+03	4.100635E-15	2.979803E-17
4.200000E+03	4.076366E-15	2.933367E-17
4.210000E+03	4.063217E-15	2.895259E-17
4.220000E+03	4.060643E-15	2.864863E-17
4.230000E+03	4.067944E-15	2.841473E-17
4.240000E+03	4.084306E-15	2.824324E-17
4.250000E+03	4.108664E-15	2.812503E-17
4.260000E+03	4.139901E-15	2.805094E-17
4.270000E+03	4.176598E-15	2.801011E-17
4.280000E+03	4.217121E-15	2.799063E-17
4.290000E+03	4.259673E-15	2.798002E-17
4.300000E+03	4.302211E-15	2.796469E-17
4.310000E+03	4.342450E-15	2.793005E-17
4.320000E+03	4.378047E-15	2.786178E-17
4.330000E+03	4.406626E-15	2.774597E-17
4.340000E+03	4.425898E-15	2.756991E-17
4.350000E+03	4.433808E-15	2.732291E-17
4.360000E+03	4.428744E-15	2.699753E-17
4.370000E+03	4.409661E-15	2.659013E-17
4.380000E+03	4.376357E-15	2.610236E-17
4.390000E+03	4.330042E-15	2.554421E-17
4.400000E+03	4.274278E-15	2.493903E-17
4.410000E+03	4.214719E-15	2.432130E-17
4.420000E+03	4.157484E-15	2.372664E-17
4.430000E+03	4.108358E-15	2.318727E-17
4.440000E+03	4.072490E-15	2.273038E-17
4.450000E+03	4.054333E-15	2.237808E-17
4.460000E+03	4.057477E-15	2.214675E-17
4.470000E+03	4.084760E-15	2.204788E-17
4.480000E+03	4.138265E-15	2.208835E-17
4.490000E+03	4.219291E-15	2.227048E-17
4.500000E+03	4.328558E-15	2.259342E-17
4.510000E+03	4.466056E-15	2.305249E-17
4.520000E+03	4.631077E-15	2.363958E-17
4.530000E+03	4.822163E-15	2.434313E-17
4.540000E+03	5.036862E-15	2.514707E-17
4.550000E+03	5.271744E-15	2.603120E-17
4.560000E+03	5.522203E-15	2.697046E-17
4.570000E+03	5.782371E-15	2.793481E-17
4.580000E+03	6.045169E-15	2.888977E-17
4.590000E+03	6.302664E-15	2.979834E-17
4.600000E+03	6.546293E-15	3.062224E-17
4.610000E+03	6.767379E-15	3.132434E-17
4.620000E+03	6.957702E-15	3.187121E-17
4.630000E+03	7.109834E-15	3.223447E-17
4.640000E+03	7.217834E-15	3.239356E-17
4.650000E+03	7.277441E-15	3.233624E-17
4.660000E+03	7.286387E-15	3.205948E-17
4.670000E+03	7.244519E-15	3.156949E-17
4.680000E+03	7.153766E-15	3.088113E-17
4.690000E+03	7.017983E-15	3.001681E-17
4.700000E+03	6.842796E-15	2.900544E-17
4.710000E+03	6.634990E-15	2.787957E-17
4.720000E+03	6.402211E-15	2.667404E-17
4.730000E+03	6.152635E-15	2.542453E-17
4.740000E+03	5.894235E-15	2.416454E-17
4.750000E+03	5.634626E-15	2.292497E-17
4.760000E+03	5.380737E-15	2.173289E-17
4.770000E+03	5.138513E-15	2.061063E-17
4.780000E+03	4.913012E-15	1.957636E-17
4.790000E+03	4.708355E-15	1.864412E-17
4.800000E+03	4.526757E-15	1.782010E-17
4.810000E+03	4.369827E-15	1.710794E-17
4.820000E+03	4.238610E-15	1.650917E-17
4.830000E+03	4.133468E-15	1.602283E-17
4.840000E+03	4.054242E-15	1.564620E-17
4.850000E+03	4.000361E-15	1.537518E-17
4.860000E+03	3.970885E-15	1.520455E-17
4.870000E+03	3.964668E-15	1.512855E-17
4.880000E+03	3.980090E-15	1.513986E-17
4.890000E+03	4.015220E-15	1.523019E-17
4.900000E+03	4.067691E-15	1.538986E-17
4.910000E+03	4.134532E-15	1.560709E-17
4.920000E+03	4.212123E-15	1.586783E-17
4.930000E+03	4.296089E-15	1.615538E-17
4.940000E+03	4.381604E-15	1.645149E-17
4.950000E+03	4.463331E-15	1.673609E-17
4.960000E+03	4.535936E-15	1.698920E-17
4.970000E+03	4.594497E-15	1.719245E-17
4.980000E+03	4.634996E-15	1.733083E-17
4.990000E+03	4.654710E-15	1.739417E-17
5.000000E+03	4.652581E-15	1.737844E-17
5.010000E+03	4.629285E-15	1.728605E-17
5.020000E+03	4.586943E-15	1.712472E-17
5.030000E+03	4.528869E-15	1.690660E-17
5.040000E+03	4.459270E-15	1.664713E-17
5.050000E+03	4.382430E-15	1.636202E-17
5.060000E+03	4.302740E-15	1.606741E-17
5.070000E+03	4.224095E-15	1.577761E-17
5.080000E+03	4.149679E-15	1.550428E-17
5.090000E+03	4.082264E-15	1.525760E-17
5.100000E+03	4.023798E-15	1.504471E-17
5.110000E+03	3.975786E-15	1.487111E-17
5.120000E+03	3.939377E-15	1.474100E-17
5.130000E+03	3.915338E-15	1.465719E-17
5.140000E+03	3.904376E-15	1.462226E-17
5.150000E+03	3.907184E-15	1.463876E-17
5.160000E+03	3.924399E-15	1.470903E-17
5.170000E+03	3.956734E-15	1.483572E-17
5.180000E+03	4.004889E-15	1.502140E-17
5.190000E+03	4.069604E-15	1.526883E-17
5.200000E+03	4.151369E-15	1.557977E-17
5.210000E+03	4.250582E-15	1.595567E-17
5.220000E+03	4.367139E-15	1.639606E-17
5.230000E+03	4.500410E-15	1.689846E-17
5.240000E+03	4.649148E-15	1.745809E-17
5.250000E+03	4.811385E-15	1.806739E-17
5.260000E+03	4.984175E-15	1.871516E-17
5.270000E+03	5.163842E-15	1.938740E-17
5.280000E+03	5.345914E-15	2.006713E-17
5.290000E+03	5.525028E-15	2.073407E-17
5.300000E+03	5.695683E-15	2.136740E-17
5.310000E+03	5.851874E-15	2.194447E-17
5.320000E+03	5.988078E-15	2.244449E-17
5.330000E+03	6.098935E-15	2.284738E-17
5.340000E+03	6.180227E-15	2.313739E-17
5.350000E+03	6.228780E-15	2.330280E-17
5.360000E+03	6.242775E-15	2.333702E-17
5.370000E+03	6.222189E-15	2.324028E-17
5.380000E+03	6.168390E-15	2.301804E-17
5.390000E+03	6.084821E-15	2.268355E-17
5.400000E+03	5.976255E-15	2.225502E-17
5.410000E+03	5.848898E-15	2.175594E-17
5.420000E+03	5.710033E-15	2.121374E-17
5.430000E+03	5.567664E-15	2.065843E-17
5.440000E+03	5.430105E-15	2.012102E-17
5.450000E+03	5.305739E-15	1.963257E-17
5.460000E+03	5.202618E-15	1.922279E-17
5.470000E+03	5.128100E-15	1.891859E-17
5.480000E+03	5.088309E-15	1.874213E-17
5.490000E+03	5.087399E-15	1.870816E-17
5.500000E+03	5.124942E-15	1.881441E-17
5.510000E+03	5.192231E-15	1.902815E-17
5.520000E+03	5.276934E-15	1.930354E-17
5.530000E+03	5.365417E-15	1.959032E-17
5.540000E+03	5.444277E-15	1.983939E-17
5.550000E+03	5.501347E-15	2.000657E-17
5.560000E+03	5.527141E-15	2.005779E-17
5.570000E+03	5.515315E-15	1.997068E-17
5.580000E+03	5.463315E-15	1.973685E-17
5.590000E+03	5.372212E-15	1.936116E-17
5.600000E+03	5.245990E-15	1.885894E-17
5.610000E+03	5.091113E-15	1.825441E-17
5.620000E+03	4.915446E-15	1.757660E-17
5.630000E+03	4.727398E-15	1.685626E-17
5.640000E+03	4.535315E-15	1.612360E-17
5.650000E+03	4.346920E-15	1.540631E-17
5.660000E+03	4.168878E-15	1.472801E-17
5.670000E+03	4.006644E-15	1.410775E-17
5.680000E+03	3.864573E-15	1.356043E-17
5.690000E+03	3.745923E-15	1.309687E-17
5.700000E+03	3.652894E-15	1.272399E-17
5.710000E+03	3.587041E-15	1.244628E-17
5.720000E+03	3.549325E-15	1.226606E-17
5.730000E+03	3.540209E-15	1.218380E-17
5.740000E+03	3.559797E-15	1.219863E-17
5.750000E+03	3.607863E-15	1.230851E-17
5.760000E+03	3.683831E-15	1.251012E-17
5.770000E+03	3.786726E-15	1.279878E-17
5.780000E+03	3.914936E-15	1.316768E-17
5.790000E+03	4.066265E-15	1.360810E-17
5.800000E+03	4.237552E-15	1.410819E-17
5.810000E+03	4.424739E-15	1.465334E-17
5.820000E+03	4.622935E-15	1.522643E-17
5.830000E+03	4.826241E-15	1.580740E-17
5.840000E+03	5.028332E-15	1.637525E-17
5.850000E+03	5.222672E-15	1.690876E-17
5.860000E+03	5.402820E-15	1.738757E-17
5.870000E+03	5.563073E-15	1.779423E-17
5.880000E+03	5.698604E-15	1.811456E-17
5.890000E+03	5.806020E-15	1.833937E-17
5.900000E+03	5.883114E-15	1.846352E-17
5.910000E+03	5.929124E-15	1.848660E-17
5.920000E+03	5.944629E-15	1.841250E-17
5.930000E+03	5.931176E-15	1.824805E-17
5.940000E+03	5.891319E-15	1.800308E-17
5.950000E+03	5.828120E-15	1.768877E-17
5.960000E+03	5.745196E-15	1.731771E-17
5.970000E+03	5.646325E-15	1.690270E-17
5.980000E+03	5.535347E-15	1.645639E-17
5.990000E+03	5.415975E-15	1.599071E-17
6.000000E+03	5.291873E-15	1.551714E-17
6.010000E+03	5.166376E-15	1.504589E-17
6.020000E+03	5.042430E-15	1.458574E-17
6.030000E+03	4.922726E-15	1.414452E-17
6.040000E+03	4.809438E-15	1.372834E-17
6.050000E+03	4.704337E-15	1.334201E-17
6.060000E+03	4.608965E-15	1.298957E-17
6.070000E+03	4.524273E-15	1.267332E-17
6.080000E+03	4.451031E-15	1.239500E-17
6.090000E+03	4.389538E-15	1.215504E-17
6.100000E+03	4.339960E-15	1.195351E-17
6.110000E+03	4.302072E-15	1.178946E-17
6.120000E+03	4.275394E-15	1.166131E-17
6.130000E+03	4.259100E-15	1.156664E-17
6.140000E+03	4.251912E-15	1.150189E-17
6.150000E+03	4.252141E-15	1.146250E-17
6.160000E+03	4.257558E-15	1.144262E-17
6.170000E+03	4.265325E-15	1.143484E-17
6.180000E+03	4.271948E-15	1.143010E-17
6.190000E+03	4.273231E-15	1.141755E-17
6.200000E+03	4.264588E-15	1.138527E-17
6.210000E+03	4.241196E-15	1.132046E-17
6.220000E+03	4.198634E-15	1.121113E-17
6.230000E+03	4.133899E-15	1.104890E-17
6.240000E+03	4.046981E-15	1.083315E-17
6.250000E+03	3.942063E-15	1.057431E-17
6.260000E+03	3.826684E-15	1.029175E-17
6.270000E+03	3.709916E-15	1.000911E-17
6.280000E+03	3.599902E-15	9.747755E-18
6.290000E+03	3.502616E-15	9.523543E-18
6.300000E+03	3.422115E-15	9.347457E-18
6.310000E+03	3.360345E-15	9.225020E-18
6.320000E+03	3.317931E-15	9.158361E-18
6.330000E+03	3.294371E-15	9.146669E-18
6.340000E+03	3.288399E-15	9.187099E-18
6.350000E+03	3.298151E-15	9.275171E-18
6.360000E+03	3.321417E-15	9.405395E-18
6.370000E+03	3.355707E-15	9.571402E-18
6.380000E+03	3.398296E-15	9.766005E-18
6.390000E+03	3.446363E-15	9.981565E-18
6.400000E+03	3.497155E-15	1.021042E-17
6.410000E+03	3.547905E-15	1.044461E-17
6.420000E+03	3.596204E-15	1.067697E-17
6.430000E+03	3.639973E-15	1.090097E-17
6.440000E+03	3.677549E-15	1.111110E-17
6.450000E+03	3.707972E-15	1.130378E-17
6.460000E+03	3.730664E-15	1.147646E-17
6.470000E+03	3.745734E-15	1.162863E-17
6.480000E+03	3.753679E-15	1.176102E-17
6.490000E+03	3.755279E-15	1.187526E-17
6.500000E+03	3.751602E-15	1.197398E-17
6.510000E+03	3.743854E-15	1.206041E-17
6.520000E+03	3.733374E-15	1.213833E-17
6.530000E+03	3.721853E-15	1.221283E-17
6.540000E+03	3.711399E-15	1.229062E-17
6.550000E+03	3.704129E-15	1.237870E-17
6.560000E+03	3.702233E-15	1.248456E-17
6.570000E+03	3.707639E-15	1.261508E-17
6.580000E+03	3.721378E-15	1.277433E-17
6.590000E+03	3.743921E-15	1.296452E-17
6.600000E+03	3.774943E-15	1.318517E-17
6.610000E+03	3.813437E-15	1.343334E-17
6.620000E+03	3.857797E-15	1.370384E-17
6.630000E+03	3.905872E-15	1.398932E-17
6.640000E+03	3.955297E-15	1.428142E-17
6.650000E+03	4.003401E-15	1.457037E-17
6.660000E+03	4.047637E-15	1.484654E-17
6.670000E+03	4.085493E-15	1.510018E-17
6.680000E+03	4.114839E-15	1.532266E-17
6.690000E+03	4.134059E-15	1.550707E-17
6.700000E+03	4.141988E-15	1.564807E-17
6.710000E+03	4.137875E-15	1.574179E-17
6.720000E+03	4.121801E-15	1.578750E-17
6.730000E+03	4.094065E-15	1.578536E-17
6.740000E+03	4.055681E-15	1.573839E-17
6.750000E+03	4.007786E-15	1.565023E-17
6.760000E+03	3.951761E-15	1.552561E-17
6.770000E+03	3.889341E-15	1.537083E-17
6.780000E+03	3.822048E-15	1.519157E-17
6.790000E+03	3.751606E-15	1.499443E-17
6.800000E+03	3.679620E-15	1.478575E-17
6.810000E+03	3.607605E-15	1.457162E-17
6.820000E+03	3.536901E-15	1.435758E-17
6.830000E+03	3.468860E-15	1.414934E-17
6.840000E+03	3.404579E-15	1.395163E-17
6.850000E+03	3.345152E-15	1.376928E-17
6.860000E+03	3.291425E-15	1.360613E-17
6.870000E+03	3.244177E-15	1.346582E-17
6.880000E+03	3.204127E-15	1.335174E-17
6.890000E+03	3.171689E-15	1.326603E-17
6.900000E+03	3.147384E-15	1.321131E-17
6.910000E+03	3.131421E-15	1.318884E-17
6.920000E+03	3.123919E-15	1.319951E-17
6.930000E+03	3.124828E-15	1.324347E-17
6.940000E+03	3.133921E-15	1.332006E-17
6.950000E+03	3.150701E-15	1.342745E-17
6.960000E+03	3.174570E-15	1.356331E-17
6.970000E+03	3.204627E-15	1.372396E-17
6.980000E+03	3.239733E-15	1.390464E-17
6.990000E+03	3.278392E-15	1.409899E-17
7.000000E+03	3.319221E-15	1.430108E-17
7.010000E+03	3.360314E-15	1.450266E-17
7.020000E+03	3.400010E-15	1.469649E-17
7.030000E+03	3.436480E-15	1.487455E-17
7.040000E+03	3.468074E-15	1.502959E-17
7.050000E+03	3.493359E-15	1.515527E-17
7.060000E+03	3.511211E-15	1.524659E-17
7.070000E+03	3.520810E-15	1.529990E-17
7.080000E+03	3.521892E-15	1.531398E-17
7.090000E+03	3.514555E-15	1.528920E-17
7.100000E+03	3.499231E-15	1.522746E-17
7.110000E+03	3.476854E-15	1.513285E-17
7.120000E+03	3.448500E-15	1.501011E-17
7.130000E+03	3.415511E-15	1.486517E-17
7.140000E+03	3.379329E-15	1.470441E-17
7.150000E+03	3.341458E-15	1.453450E-17
7.160000E+03	3.303119E-15	1.436085E-17
7.170000E+03	3.265509E-15	1.418880E-17
7.180000E+03	3.229755E-15	1.402332E-17
7.190000E+03	3.196471E-15	1.386717E-17
7.200000E+03	3.166152E-15	1.372259E-17
7.210000E+03	3.139112E-15	1.359100E-17
7.220000E+03	3.115306E-15	1.347224E-17
7.230000E+03	3.094552E-15	1.336558E-17
7.240000E+03	3.076521E-15	1.326964E-17
7.250000E+03	3.060775E-15	1.318257E-17
7.260000E+03	3.046891E-15	1.310259E-17
7.270000E+03	3.034246E-15	1.302708E-17
7.280000E+03	3.022523E-15	1.295475E-17
7.290000E+03	3.011295E-15	1.288381E-17
7.300000E+03	3.000303E-15	1.281325E-17
7.310000E+03	2.989483E-15	1.274288E-17
7.320000E+03	2.978760E-15	1.267245E-17
7.330000E+03	2.968302E-15	1.260278E-17
7.340000E+03	2.958294E-15	1.253473E-17
7.350000E+03	2.949032E-15	1.246962E-17
7.360000E+03	2.940746E-15	1.240852E-17
7.370000E+03	2.933686E-15	1.235253E-17
7.380000E+03	2.927878E-15	1.230183E-17
7.390000E+03	2.923498E-15	1.225722E-17
7.400000E+03	2.920373E-15	1.221803E-17
7.410000E+03	2.918108E-15	1.218269E-17
7.420000E+03	2.916427E-15	1.215012E-17
7.430000E+03	2.914652E-15	1.211760E-17
7.440000E+03	2.912131E-15	1.208252E-17
7.450000E+03	2.908025E-15	1.204154E-17
7.460000E+03	2.901623E-15	1.199186E-17
7.470000E+03	2.892000E-15	1.192983E-17
7.480000E+03	2.878700E-15	1.185375E-17
7.490000E+03	2.861116E-15	1.176127E-17
7.500000E+03	2.839158E-15	1.165210E-17
7.510000E+03	2.812876E-15	1.152655E-17
7.520000E+03	2.782600E-15	1.138603E-17
7.530000E+03	2.749053E-15	1.123357E-17
7.540000E+03	2.712903E-15	1.107192E-17
7.550000E+03	2.675297E-15	1.090578E-17
7.560000E+03	2.637246E-15	1.073928E-17
7.570000E+03	2.599816E-15	1.057673E-17
7.580000E+03	2.563919E-15	1.042182E-17
7.590000E+03	2.530442E-15	1.027812E-17
7.600000E+03	2.499944E-15	1.014786E-17
7.610000E+03	2.472875E-15	1.003283E-17
7.620000E+03	2.449713E-15	9.934954E-18
7.630000E+03	2.430706E-15	9.855214E-18
7.640000E+03	2.416191E-15	9.794973E-18
7.650000E+03	2.406160E-15	9.754204E-18
7.660000E+03	2.400640E-15	9.733049E-18
7.670000E+03	2.399313E-15	9.730250E-18
7.680000E+03	2.401866E-15	9.744602E-18
7.690000E+03	2.407791E-15	9.774104E-18
7.700000E+03	2.416594E-15	9.816836E-18
7.710000E+03	2.427764E-15	9.870814E-18
7.720000E+03	2.440909E-15	9.934535E-18
7.730000E+03	2.455331E-15	1.000526E-17
7.740000E+03	2.470729E-15	1.008188E-17
7.750000E+03	2.486514E-15	1.016208E-17
7.760000E+03	2.502329E-15	1.024450E-17
