#wls	flux	fluxerr
1.600000E+03	4.340989E-16	1.398747E-17
1.640000E+03	4.474926E-16	1.434050E-17
1.680000E+03	4.617904E-16	1.471571E-17
1.720000E+03	4.770974E-16	1.511571E-17
1.760000E+03	4.934199E-16	1.553991E-17
1.800000E+03	5.109618E-16	1.599387E-17
1.840000E+03	5.296780E-16	1.647522E-17
1.880000E+03	5.497215E-16	1.698769E-17
1.920000E+03	5.711436E-16	1.753172E-17
1.960000E+03	5.940436E-16	1.810915E-17
2.000000E+03	6.184663E-16	1.872003E-17
2.040000E+03	6.445037E-16	1.936573E-17
2.080000E+03	6.721908E-16	2.004580E-17
2.120000E+03	7.016075E-16	2.076101E-17
2.160000E+03	7.327215E-16	2.150873E-17
2.200000E+03	7.655937E-16	2.228900E-17
2.240000E+03	8.002213E-16	2.309989E-17
2.280000E+03	8.367426E-16	2.394346E-17
2.320000E+03	8.753337E-16	2.482263E-17
2.360000E+03	9.160977E-16	2.573803E-17
2.400000E+03	9.592701E-16	2.669376E-17
2.440000E+03	1.005004E-15	2.769133E-17
2.480000E+03	1.053419E-15	2.873107E-17
2.520000E+03	1.104586E-15	2.981179E-17
2.560000E+03	1.158474E-15	3.092935E-17
2.600000E+03	1.215095E-15	3.208072E-17
2.640000E+03	1.274281E-15	3.325803E-17
2.680000E+03	1.335731E-15	3.445011E-17
2.720000E+03	1.399101E-15	3.564496E-17
2.760000E+03	1.463789E-15	3.682445E-17
2.800000E+03	1.529027E-15	3.796709E-17
2.840000E+03	1.593837E-15	3.904716E-17
2.880000E+03	1.657075E-15	4.003622E-17
2.920000E+03	1.717906E-15	4.091489E-17
2.960000E+03	1.775727E-15	4.167036E-17
3.000000E+03	1.830115E-15	4.229504E-17
3.010000E+03	1.843102E-15	4.242939E-17
3.020000E+03	1.855874E-15	4.255576E-17
3.030000E+03	1.868314E-15	4.267157E-17
3.040000E+03	1.880524E-15	4.277919E-17
3.050000E+03	1.892432E-15	4.287701E-17
3.060000E+03	1.904004E-15	4.296439E-17
3.070000E+03	1.915255E-15	4.304171E-17
3.080000E+03	1.926193E-15	4.310924E-17
3.090000E+03	1.936746E-15	4.316544E-17
3.100000E+03	1.946962E-15	4.321150E-17
3.110000E+03	1.956769E-15	4.324588E-17
3.120000E+03	1.966175E-15	4.326888E-17
3.130000E+03	1.975185E-15	4.328072E-17
3.140000E+03	1.983768E-15	4.328080E-17
3.150000E+03	1.991850E-15	4.326765E-17
3.160000E+03	1.999517E-15	4.324327E-17
3.170000E+03	2.006658E-15	4.320538E-17
3.180000E+03	2.013321E-15	4.315512E-17
3.190000E+03	2.019473E-15	4.309196E-17
3.200000E+03	2.025084E-15	4.301541E-17
3.210000E+03	2.030128E-15	4.292504E-17
3.220000E+03	2.034652E-15	4.282201E-17
3.230000E+03	2.038593E-15	4.270517E-17
3.240000E+03	2.041930E-15	4.257424E-17
3.250000E+03	2.044678E-15	4.242972E-17
3.260000E+03	2.046855E-15	4.227214E-17
3.270000E+03	2.048411E-15	4.210066E-17
3.280000E+03	2.049369E-15	4.191592E-17
3.290000E+03	2.049722E-15	4.171798E-17
3.300000E+03	2.049495E-15	4.150752E-17
3.310000E+03	2.048658E-15	4.128409E-17
3.320000E+03	2.047212E-15	4.104794E-17
3.330000E+03	2.045224E-15	4.080057E-17
3.340000E+03	2.042639E-15	4.054109E-17
3.350000E+03	2.039498E-15	4.027048E-17
3.360000E+03	2.035841E-15	3.998970E-17
3.370000E+03	2.031623E-15	3.969803E-17
3.380000E+03	2.026910E-15	3.939694E-17
3.390000E+03	2.021658E-15	3.908576E-17
3.400000E+03	2.015880E-15	3.876492E-17
3.410000E+03	2.009612E-15	3.843526E-17
3.420000E+03	2.002838E-15	3.809664E-17
3.430000E+03	1.995567E-15	3.774941E-17
3.440000E+03	1.987761E-15	3.739304E-17
3.450000E+03	1.979460E-15	3.702845E-17
3.460000E+03	1.970660E-15	3.665571E-17
3.470000E+03	1.961339E-15	3.627463E-17
3.480000E+03	1.951535E-15	3.588606E-17
3.490000E+03	1.941249E-15	3.549018E-17
3.500000E+03	1.930519E-15	3.508789E-17
3.510000E+03	1.919398E-15	3.468025E-17
3.520000E+03	1.907914E-15	3.426796E-17
3.530000E+03	1.896114E-15	3.385197E-17
3.540000E+03	1.884048E-15	3.343328E-17
3.550000E+03	1.871768E-15	3.301292E-17
3.560000E+03	1.859349E-15	3.259230E-17
3.570000E+03	1.846890E-15	3.217319E-17
3.580000E+03	1.834489E-15	3.175732E-17
3.590000E+03	1.822268E-15	3.134682E-17
3.600000E+03	1.810398E-15	3.094452E-17
3.610000E+03	1.799004E-15	3.055248E-17
3.620000E+03	1.788274E-15	3.017373E-17
3.630000E+03	1.778476E-15	2.981255E-17
3.640000E+03	1.769851E-15	2.947268E-17
3.650000E+03	1.762685E-15	2.915846E-17
3.660000E+03	1.757272E-15	2.887424E-17
3.670000E+03	1.753930E-15	2.862467E-17
3.680000E+03	1.752970E-15	2.841411E-17
3.690000E+03	1.754697E-15	2.824667E-17
3.700000E+03	1.759482E-15	2.812741E-17
3.710000E+03	1.767628E-15	2.806011E-17
3.720000E+03	1.779504E-15	2.804948E-17
3.730000E+03	1.795452E-15	2.809961E-17
3.740000E+03	1.815828E-15	2.821470E-17
3.750000E+03	1.840976E-15	2.839852E-17
3.760000E+03	1.871230E-15	2.865463E-17
3.770000E+03	1.906946E-15	2.898668E-17
3.780000E+03	1.948432E-15	2.939748E-17
3.790000E+03	1.995984E-15	2.988952E-17
3.800000E+03	2.049832E-15	3.046417E-17
3.810000E+03	2.110219E-15	3.112287E-17
3.820000E+03	2.177264E-15	3.186513E-17
3.830000E+03	2.251047E-15	3.268987E-17
3.840000E+03	2.331500E-15	3.359381E-17
3.850000E+03	2.418488E-15	3.457276E-17
3.860000E+03	2.511576E-15	3.561834E-17
3.870000E+03	2.610235E-15	3.672104E-17
3.880000E+03	2.713664E-15	3.786779E-17
3.890000E+03	2.820760E-15	3.904173E-17
3.900000E+03	2.930198E-15	4.022343E-17
3.910000E+03	3.040413E-15	4.139083E-17
3.920000E+03	3.149529E-15	4.251838E-17
3.930000E+03	3.255460E-15	4.357856E-17
3.940000E+03	3.356022E-15	4.454352E-17
3.950000E+03	3.449041E-15	4.538655E-17
3.960000E+03	3.532401E-15	4.608267E-17
3.970000E+03	3.604102E-15	4.660935E-17
3.980000E+03	3.662591E-15	4.695074E-17
3.990000E+03	3.706619E-15	4.709551E-17
4.000000E+03	3.735432E-15	4.703915E-17
4.010000E+03	3.748790E-15	4.678391E-17
4.020000E+03	3.747019E-15	4.633912E-17
4.030000E+03	3.730974E-15	4.572041E-17
4.040000E+03	3.701960E-15	4.494853E-17
4.050000E+03	3.661695E-15	4.404857E-17
4.060000E+03	3.612113E-15	4.304738E-17
4.070000E+03	3.555369E-15	4.197359E-17
4.080000E+03	3.493638E-15	4.085504E-17
4.090000E+03	3.429050E-15	3.971812E-17
4.100000E+03	3.363535E-15	3.858591E-17
4.110000E+03	3.298846E-15	3.747865E-17
4.120000E+03	3.236537E-15	3.641357E-17
4.130000E+03	3.177802E-15	3.540317E-17
4.140000E+03	3.123565E-15	3.445649E-17
4.150000E+03	3.074650E-15	3.358103E-17
4.160000E+03	3.031610E-15	3.278105E-17
4.170000E+03	2.994910E-15	3.205963E-17
4.180000E+03	2.964892E-15	3.141835E-17
4.190000E+03	2.941743E-15	3.085704E-17
4.200000E+03	2.925574E-15	3.037469E-17
4.210000E+03	2.916435E-15	2.996961E-17
4.220000E+03	2.914176E-15	2.963810E-17
4.230000E+03	2.918609E-15	2.937615E-17
4.240000E+03	2.929475E-15	2.917918E-17
4.250000E+03	2.946235E-15	2.903994E-17
4.260000E+03	2.968251E-15	2.895050E-17
4.270000E+03	2.994894E-15	2.890330E-17
4.280000E+03	3.025163E-15	2.888749E-17
4.290000E+03	3.058007E-15	2.889222E-17
4.300000E+03	3.092277E-15	2.890613E-17
4.310000E+03	3.126760E-15	2.891775E-17
4.320000E+03	3.160171E-15	2.891546E-17
4.330000E+03	3.191201E-15	2.888791E-17
4.340000E+03	3.218399E-15	2.882302E-17
4.350000E+03	3.240358E-15	2.870960E-17
4.360000E+03	3.255917E-15	2.853917E-17
4.370000E+03	3.264007E-15	2.830443E-17
4.380000E+03	3.264065E-15	2.800281E-17
4.390000E+03	3.256297E-15	2.763839E-17
4.400000E+03	3.242260E-15	2.722650E-17
4.410000E+03	3.224946E-15	2.679377E-17
4.420000E+03	3.207797E-15	2.636941E-17
4.430000E+03	3.194168E-15	2.598075E-17
4.440000E+03	3.187347E-15	2.565334E-17
4.450000E+03	3.190311E-15	2.540912E-17
4.460000E+03	3.205709E-15	2.526651E-17
4.470000E+03	3.235904E-15	2.524092E-17
4.480000E+03	3.282943E-15	2.534465E-17
4.490000E+03	3.347864E-15	2.558176E-17
4.500000E+03	3.431209E-15	2.595237E-17
4.510000E+03	3.533325E-15	2.645509E-17
4.520000E+03	3.654068E-15	2.708497E-17
4.530000E+03	3.792877E-15	2.783416E-17
4.540000E+03	3.948675E-15	2.869139E-17
4.550000E+03	4.119618E-15	2.964028E-17
4.560000E+03	4.303069E-15	3.065951E-17
4.570000E+03	4.495551E-15	3.172263E-17
4.580000E+03	4.692479E-15	3.279650E-17
4.590000E+03	4.888272E-15	3.384237E-17
4.600000E+03	5.076649E-15	3.481817E-17
4.610000E+03	5.251667E-15	3.568571E-17
4.620000E+03	5.407266E-15	3.640746E-17
4.630000E+03	5.537548E-15	3.694833E-17
4.640000E+03	5.637868E-15	3.728275E-17
4.650000E+03	5.704484E-15	3.739199E-17
4.660000E+03	5.734794E-15	3.726531E-17
4.670000E+03	5.728166E-15	3.690500E-17
4.680000E+03	5.685249E-15	3.632137E-17
4.690000E+03	5.608132E-15	3.553340E-17
4.700000E+03	5.500360E-15	3.456851E-17
4.710000E+03	5.366496E-15	3.345948E-17
4.720000E+03	5.211677E-15	3.224148E-17
4.730000E+03	5.041768E-15	3.095299E-17
4.740000E+03	4.862534E-15	2.963059E-17
4.750000E+03	4.679683E-15	2.830937E-17
4.760000E+03	4.498476E-15	2.702068E-17
4.770000E+03	4.323689E-15	2.579207E-17
4.780000E+03	4.159338E-15	2.464581E-17
4.790000E+03	4.008352E-15	2.359723E-17
4.800000E+03	3.873437E-15	2.265999E-17
4.810000E+03	3.756699E-15	2.184397E-17
4.820000E+03	3.659411E-15	2.115413E-17
4.830000E+03	3.582168E-15	2.059138E-17
4.840000E+03	3.525076E-15	2.015379E-17
4.850000E+03	3.487821E-15	1.983723E-17
4.860000E+03	3.469823E-15	1.963627E-17
4.870000E+03	3.470224E-15	1.954413E-17
4.880000E+03	3.488037E-15	1.955353E-17
4.890000E+03	3.522094E-15	1.965641E-17
4.900000E+03	3.570913E-15	1.984320E-17
4.910000E+03	3.632759E-15	2.010313E-17
4.920000E+03	3.705475E-15	2.042335E-17
4.930000E+03	3.786294E-15	2.078789E-17
4.940000E+03	3.871394E-15	2.117527E-17
4.950000E+03	3.956148E-15	2.155996E-17
4.960000E+03	4.035506E-15	2.191449E-17
4.970000E+03	4.104328E-15	2.221128E-17
4.980000E+03	4.157622E-15	2.242385E-17
4.990000E+03	4.191144E-15	2.253011E-17
5.000000E+03	4.202553E-15	2.251840E-17
5.010000E+03	4.191054E-15	2.238541E-17
5.020000E+03	4.157511E-15	2.213672E-17
5.030000E+03	4.104975E-15	2.178940E-17
5.040000E+03	4.037684E-15	2.136660E-17
5.050000E+03	3.960308E-15	2.089348E-17
5.060000E+03	3.877522E-15	2.039493E-17
5.070000E+03	3.793692E-15	1.989392E-17
5.080000E+03	3.712625E-15	1.941027E-17
5.090000E+03	3.637261E-15	1.895903E-17
5.100000E+03	3.569949E-15	1.855206E-17
5.110000E+03	3.512262E-15	1.819701E-17
5.120000E+03	3.465023E-15	1.789762E-17
5.130000E+03	3.428659E-15	1.765553E-17
5.140000E+03	3.403368E-15	1.747119E-17
5.150000E+03	3.389232E-15	1.734445E-17
5.160000E+03	3.386325E-15	1.727512E-17
5.170000E+03	3.395001E-15	1.726444E-17
5.180000E+03	3.415910E-15	1.731510E-17
5.190000E+03	3.449777E-15	1.743017E-17
5.200000E+03	3.497430E-15	1.761316E-17
5.210000E+03	3.559529E-15	1.786671E-17
5.220000E+03	3.636545E-15	1.819243E-17
5.230000E+03	3.728511E-15	1.858977E-17
5.240000E+03	3.834985E-15	1.905579E-17
5.250000E+03	3.954865E-15	1.958431E-17
5.260000E+03	4.086432E-15	2.016622E-17
5.270000E+03	4.227154E-15	2.078854E-17
5.280000E+03	4.373685E-15	2.143447E-17
5.290000E+03	4.522071E-15	2.208451E-17
5.300000E+03	4.667918E-15	2.271732E-17
5.310000E+03	4.806454E-15	2.331005E-17
5.320000E+03	4.932798E-15	2.383964E-17
5.330000E+03	5.042419E-15	2.428512E-17
5.340000E+03	5.131244E-15	2.462800E-17
5.350000E+03	5.195794E-15	2.485292E-17
5.360000E+03	5.233564E-15	2.494937E-17
5.370000E+03	5.243143E-15	2.491219E-17
5.380000E+03	5.224419E-15	2.474242E-17
5.390000E+03	5.178857E-15	2.444850E-17
5.400000E+03	5.109330E-15	2.404537E-17
5.410000E+03	5.020271E-15	2.355501E-17
5.420000E+03	4.917911E-15	2.300752E-17
5.430000E+03	4.809380E-15	2.243679E-17
5.440000E+03	4.702455E-15	2.187930E-17
5.450000E+03	4.605336E-15	2.137307E-17
5.460000E+03	4.526126E-15	2.095529E-17
5.470000E+03	4.472239E-15	2.065967E-17
5.480000E+03	4.450640E-15	2.051764E-17
5.490000E+03	4.466628E-15	2.055282E-17
5.500000E+03	4.520656E-15	2.076652E-17
5.510000E+03	4.603247E-15	2.111437E-17
5.520000E+03	4.700795E-15	2.153337E-17
5.530000E+03	4.798420E-15	2.195509E-17
5.540000E+03	4.882247E-15	2.231599E-17
5.550000E+03	4.939638E-15	2.255837E-17
5.560000E+03	4.960480E-15	2.263620E-17
5.570000E+03	4.939564E-15	2.252578E-17
5.580000E+03	4.875718E-15	2.222182E-17
5.590000E+03	4.771323E-15	2.173511E-17
5.600000E+03	4.631732E-15	2.108988E-17
5.610000E+03	4.464407E-15	2.031993E-17
5.620000E+03	4.277951E-15	1.946417E-17
5.630000E+03	4.081340E-15	1.856320E-17
5.640000E+03	3.883223E-15	1.765611E-17
5.650000E+03	3.691305E-15	1.677769E-17
5.660000E+03	3.512197E-15	1.595779E-17
5.670000E+03	3.351348E-15	1.522096E-17
5.680000E+03	3.212854E-15	1.458559E-17
5.690000E+03	3.099519E-15	1.406420E-17
5.700000E+03	3.013257E-15	1.366525E-17
5.710000E+03	2.955130E-15	1.339330E-17
5.720000E+03	2.925428E-15	1.324935E-17
5.730000E+03	2.924054E-15	1.323262E-17
5.740000E+03	2.950740E-15	1.334150E-17
5.750000E+03	3.005020E-15	1.357340E-17
5.760000E+03	3.086418E-15	1.392563E-17
5.770000E+03	3.194111E-15	1.439387E-17
5.780000E+03	3.326892E-15	1.497201E-17
5.790000E+03	3.482915E-15	1.565100E-17
5.800000E+03	3.659550E-15	1.641826E-17
5.810000E+03	3.853004E-15	1.725596E-17
5.820000E+03	4.058491E-15	1.814193E-17
5.830000E+03	4.270277E-15	1.904987E-17
5.840000E+03	4.482010E-15	1.995092E-17
5.850000E+03	4.687150E-15	2.081561E-17
5.860000E+03	4.879109E-15	2.161460E-17
5.870000E+03	5.052094E-15	2.232238E-17
5.880000E+03	5.201120E-15	2.291736E-17
5.890000E+03	5.322476E-15	2.338390E-17
5.900000E+03	5.413834E-15	2.371273E-17
5.910000E+03	5.474248E-15	2.390086E-17
5.920000E+03	5.504074E-15	2.395115E-17
5.930000E+03	5.504500E-15	2.387018E-17
5.940000E+03	5.477869E-15	2.366957E-17
5.950000E+03	5.427075E-15	2.336323E-17
5.960000E+03	5.355265E-15	2.296611E-17
5.970000E+03	5.265834E-15	2.249403E-17
5.980000E+03	5.162493E-15	2.196401E-17
5.990000E+03	5.048897E-15	2.139260E-17
6.000000E+03	4.928492E-15	2.079522E-17
6.010000E+03	4.804836E-15	2.018755E-17
6.020000E+03	4.681027E-15	1.958306E-17
6.030000E+03	4.560017E-15	1.899440E-17
6.040000E+03	4.444253E-15	1.843189E-17
6.050000E+03	4.335852E-15	1.790428E-17
6.060000E+03	4.236447E-15	1.741819E-17
6.070000E+03	4.147219E-15	1.697826E-17
6.080000E+03	4.068752E-15	1.658660E-17
6.090000E+03	4.001377E-15	1.624426E-17
6.100000E+03	3.945088E-15	1.595094E-17
6.110000E+03	3.899597E-15	1.570519E-17
6.120000E+03	3.864356E-15	1.550460E-17
6.130000E+03	3.838730E-15	1.534647E-17
6.140000E+03	3.821617E-15	1.522631E-17
6.150000E+03	3.811600E-15	1.513850E-17
6.160000E+03	3.807105E-15	1.507689E-17
6.170000E+03	3.806082E-15	1.503359E-17
6.180000E+03	3.806078E-15	1.499921E-17
6.190000E+03	3.804282E-15	1.496308E-17
6.200000E+03	3.796914E-15	1.491077E-17
6.210000E+03	3.780154E-15	1.482763E-17
6.220000E+03	3.750423E-15	1.469972E-17
6.230000E+03	3.704446E-15	1.451419E-17
6.240000E+03	3.640882E-15	1.426563E-17
6.250000E+03	3.561712E-15	1.396150E-17
6.260000E+03	3.472039E-15	1.362136E-17
6.270000E+03	3.378485E-15	1.327068E-17
6.280000E+03	3.287334E-15	1.293366E-17
6.290000E+03	3.202645E-15	1.262593E-17
6.300000E+03	3.127395E-15	1.235900E-17
6.310000E+03	3.063870E-15	1.214180E-17
6.320000E+03	3.013074E-15	1.197843E-17
6.330000E+03	2.975630E-15	1.187158E-17
6.340000E+03	2.951436E-15	1.182123E-17
6.350000E+03	2.939862E-15	1.182532E-17
6.360000E+03	2.940053E-15	1.188099E-17
6.370000E+03	2.950763E-15	1.198380E-17
6.380000E+03	2.970344E-15	1.212769E-17
6.390000E+03	2.996995E-15	1.230590E-17
6.400000E+03	3.028936E-15	1.251166E-17
6.410000E+03	3.064260E-15	1.273754E-17
6.420000E+03	3.101104E-15	1.297613E-17
6.430000E+03	3.137828E-15	1.322064E-17
6.440000E+03	3.173070E-15	1.346512E-17
6.450000E+03	3.205738E-15	1.370457E-17
6.460000E+03	3.234992E-15	1.393493E-17
6.470000E+03	3.260471E-15	1.415406E-17
6.480000E+03	3.282025E-15	1.436068E-17
6.490000E+03	3.299640E-15	1.455404E-17
6.500000E+03	3.313315E-15	1.473346E-17
6.510000E+03	3.322915E-15	1.489761E-17
6.520000E+03	3.328170E-15	1.504455E-17
6.530000E+03	3.328648E-15	1.517154E-17
6.540000E+03	3.325936E-15	1.528502E-17
6.550000E+03	3.323690E-15	1.540131E-17
6.560000E+03	3.325429E-15	1.553662E-17
6.570000E+03	3.333932E-15	1.570424E-17
6.580000E+03	3.351183E-15	1.591412E-17
6.590000E+03	3.377728E-15	1.616963E-17
6.600000E+03	3.413375E-15	1.647067E-17
6.610000E+03	3.457120E-15	1.681315E-17
6.620000E+03	3.507310E-15	1.718963E-17
6.630000E+03	3.561580E-15	1.758892E-17
6.640000E+03	3.617286E-15	1.799803E-17
6.650000E+03	3.671632E-15	1.840285E-17
6.660000E+03	3.721603E-15	1.878774E-17
6.670000E+03	3.764620E-15	1.913883E-17
6.680000E+03	3.798410E-15	1.944349E-17
6.690000E+03	3.821244E-15	1.969161E-17
6.700000E+03	3.831996E-15	1.987600E-17
6.710000E+03	3.830066E-15	1.999212E-17
6.720000E+03	3.815479E-15	2.003870E-17
6.730000E+03	3.788744E-15	2.001711E-17
6.740000E+03	3.750873E-15	1.993150E-17
6.750000E+03	3.703082E-15	1.978733E-17
6.760000E+03	3.646881E-15	1.959182E-17
6.770000E+03	3.583948E-15	1.935338E-17
6.780000E+03	3.515912E-15	1.908035E-17
6.790000E+03	3.444470E-15	1.878168E-17
6.800000E+03	3.371305E-15	1.846645E-17
6.810000E+03	3.297850E-15	1.814257E-17
6.820000E+03	3.225698E-15	1.781899E-17
6.830000E+03	3.156188E-15	1.750337E-17
6.840000E+03	3.090438E-15	1.720230E-17
6.850000E+03	3.029675E-15	1.692301E-17
6.860000E+03	2.974804E-15	1.667104E-17
6.870000E+03	2.926659E-15	1.645155E-17
6.880000E+03	2.885949E-15	1.626900E-17
6.890000E+03	2.853233E-15	1.612704E-17
6.900000E+03	2.828998E-15	1.602886E-17
6.910000E+03	2.813431E-15	1.597594E-17
6.920000E+03	2.806770E-15	1.597000E-17
6.930000E+03	2.808881E-15	1.601060E-17
6.940000E+03	2.819658E-15	1.609739E-17
6.950000E+03	2.838549E-15	1.622739E-17
6.960000E+03	2.864984E-15	1.639749E-17
6.970000E+03	2.897928E-15	1.660179E-17
6.980000E+03	2.936165E-15	1.683334E-17
6.990000E+03	2.978186E-15	1.708341E-17
7.000000E+03	3.022224E-15	1.734179E-17
7.010000E+03	3.066478E-15	1.759802E-17
7.020000E+03	3.108862E-15	1.783999E-17
7.030000E+03	3.147482E-15	1.805673E-17
7.040000E+03	3.180669E-15	1.823861E-17
7.050000E+03	3.206978E-15	1.837730E-17
7.060000E+03	3.225269E-15	1.846632E-17
7.070000E+03	3.234893E-15	1.850208E-17
7.080000E+03	3.235720E-15	1.848401E-17
7.090000E+03	3.227923E-15	1.841336E-17
7.100000E+03	3.212143E-15	1.829406E-17
7.110000E+03	3.189361E-15	1.813204E-17
7.120000E+03	3.160875E-15	1.793503E-17
7.130000E+03	3.127933E-15	1.771045E-17
7.140000E+03	3.092130E-15	1.746765E-17
7.150000E+03	3.054800E-15	1.721445E-17
7.160000E+03	3.017338E-15	1.695894E-17
7.170000E+03	2.980943E-15	1.670807E-17
7.180000E+03	2.946631E-15	1.646765E-17
7.190000E+03	2.915053E-15	1.624139E-17
7.200000E+03	2.886748E-15	1.603233E-17
7.210000E+03	2.861965E-15	1.584187E-17
7.220000E+03	2.840596E-15	1.566937E-17
7.230000E+03	2.822386E-15	1.551342E-17
7.240000E+03	2.806974E-15	1.537202E-17
7.250000E+03	2.793702E-15	1.524156E-17
7.260000E+03	2.781893E-15	1.511842E-17
7.270000E+03	2.770916E-15	1.499923E-17
7.280000E+03	2.760072E-15	1.488036E-17
7.290000E+03	2.748821E-15	1.475905E-17
7.300000E+03	2.736899E-15	1.463412E-17
7.310000E+03	2.723950E-15	1.450387E-17
7.320000E+03	2.710179E-15	1.436966E-17
7.330000E+03	2.695681E-15	1.423222E-17
7.340000E+03	2.680945E-15	1.409437E-17
7.350000E+03	2.666411E-15	1.395861E-17
7.360000E+03	2.652680E-15	1.382825E-17
7.370000E+03	2.640218E-15	1.370584E-17
7.380000E+03	2.629322E-15	1.359304E-17
7.390000E+03	2.620435E-15	1.349222E-17
7.400000E+03	2.613496E-15	1.340315E-17
7.410000E+03	2.608360E-15	1.332516E-17
7.420000E+03	2.604996E-15	1.325821E-17
7.430000E+03	2.602737E-15	1.319902E-17
7.440000E+03	2.601180E-15	1.314572E-17
7.450000E+03	2.599650E-15	1.309508E-17
7.460000E+03	2.597143E-15	1.304230E-17
7.470000E+03	2.592728E-15	1.298297E-17
7.480000E+03	2.585625E-15	1.291348E-17
7.490000E+03	2.574994E-15	1.282993E-17
7.500000E+03	2.560270E-15	1.272963E-17
7.510000E+03	2.541135E-15	1.261102E-17
7.520000E+03	2.517571E-15	1.247406E-17
7.530000E+03	2.489969E-15	1.232064E-17
7.540000E+03	2.459037E-15	1.215420E-17
7.550000E+03	2.425659E-15	1.197903E-17
7.560000E+03	2.391028E-15	1.180087E-17
7.570000E+03	2.356193E-15	1.162476E-17
7.580000E+03	2.322211E-15	1.145577E-17
7.590000E+03	2.289854E-15	1.129754E-17
7.600000E+03	2.259810E-15	1.115333E-17
7.610000E+03	2.232800E-15	1.102659E-17
7.620000E+03	2.209433E-15	1.092025E-17
7.630000E+03	2.190118E-15	1.083627E-17
7.640000E+03	2.175157E-15	1.077613E-17
7.650000E+03	2.164745E-15	1.074083E-17
7.660000E+03	2.159041E-15	1.073121E-17
7.670000E+03	2.157829E-15	1.074631E-17
7.680000E+03	2.160875E-15	1.078507E-17
7.690000E+03	2.167799E-15	1.084576E-17
7.700000E+03	2.178061E-15	1.092583E-17
7.710000E+03	2.191159E-15	1.102295E-17
7.720000E+03	2.206464E-15	1.113412E-17
7.730000E+03	2.223281E-15	1.125601E-17
7.740000E+03	2.240887E-15	1.138509E-17
7.750000E+03	2.258569E-15	1.151788E-17
7.760000E+03	2.275695E-15	1.165123E-17
