#wls	flux	fluxerr
1.600000E+03	1.987348E-16	1.440867E-17
1.640000E+03	2.029421E-16	1.467567E-17
1.680000E+03	2.073134E-16	1.495195E-17
1.720000E+03	2.118433E-16	1.523694E-17
1.760000E+03	2.165838E-16	1.553418E-17
1.800000E+03	2.215275E-16	1.584292E-17
1.840000E+03	2.266954E-16	1.616445E-17
1.880000E+03	2.320763E-16	1.649772E-17
1.920000E+03	2.377478E-16	1.684799E-17
1.960000E+03	2.436648E-16	1.721176E-17
2.000000E+03	2.499312E-16	1.759605E-17
2.040000E+03	2.565568E-16	1.800117E-17
2.080000E+03	2.635784E-16	1.842931E-17
2.120000E+03	2.710273E-16	1.888221E-17
2.160000E+03	2.789294E-16	1.936118E-17
2.200000E+03	2.873971E-16	1.987347E-17
2.240000E+03	2.964401E-16	2.041914E-17
2.280000E+03	3.060254E-16	2.099525E-17
2.320000E+03	3.162641E-16	2.160872E-17
2.360000E+03	3.270322E-16	2.225036E-17
2.400000E+03	3.383453E-16	2.292052E-17
2.440000E+03	3.500748E-16	2.360978E-17
2.480000E+03	3.621038E-16	2.430966E-17
2.520000E+03	3.743242E-16	2.501237E-17
2.560000E+03	3.865454E-16	2.570478E-17
2.600000E+03	3.986450E-16	2.637847E-17
2.640000E+03	4.104176E-16	2.701979E-17
2.680000E+03	4.216107E-16	2.761221E-17
2.720000E+03	4.320681E-16	2.814588E-17
2.760000E+03	4.414794E-16	2.860121E-17
2.800000E+03	4.496643E-16	2.896743E-17
2.840000E+03	4.563593E-16	2.922883E-17
2.880000E+03	4.613128E-16	2.937084E-17
2.920000E+03	4.643423E-16	2.938376E-17
2.960000E+03	4.653590E-16	2.926414E-17
3.000000E+03	4.644039E-16	2.901688E-17
3.010000E+03	4.638816E-16	2.893693E-17
3.020000E+03	4.632303E-16	2.884883E-17
3.030000E+03	4.624681E-16	2.875374E-17
3.040000E+03	4.615929E-16	2.865156E-17
3.050000E+03	4.606216E-16	2.854338E-17
3.060000E+03	4.595519E-16	2.842909E-17
3.070000E+03	4.583633E-16	2.830745E-17
3.080000E+03	4.570913E-16	2.818069E-17
3.090000E+03	4.557156E-16	2.804760E-17
3.100000E+03	4.542532E-16	2.790924E-17
3.110000E+03	4.527025E-16	2.776555E-17
3.120000E+03	4.510797E-16	2.761756E-17
3.130000E+03	4.493666E-16	2.746417E-17
3.140000E+03	4.475960E-16	2.730742E-17
3.150000E+03	4.457343E-16	2.714528E-17
3.160000E+03	4.438297E-16	2.698073E-17
3.170000E+03	4.418654E-16	2.681274E-17
3.180000E+03	4.398417E-16	2.664137E-17
3.190000E+03	4.377738E-16	2.646755E-17
3.200000E+03	4.356765E-16	2.629220E-17
3.210000E+03	4.335357E-16	2.611448E-17
3.220000E+03	4.313664E-16	2.593531E-17
3.230000E+03	4.291698E-16	2.575477E-17
3.240000E+03	4.269740E-16	2.557456E-17
3.250000E+03	4.247664E-16	2.539393E-17
3.260000E+03	4.225488E-16	2.521299E-17
3.270000E+03	4.203487E-16	2.503340E-17
3.280000E+03	4.181552E-16	2.485449E-17
3.290000E+03	4.159829E-16	2.467714E-17
3.300000E+03	4.138345E-16	2.450150E-17
3.310000E+03	4.117247E-16	2.432844E-17
3.320000E+03	4.096565E-16	2.415811E-17
3.330000E+03	4.076443E-16	2.399137E-17
3.340000E+03	4.056813E-16	2.382778E-17
3.350000E+03	4.037933E-16	2.366885E-17
3.360000E+03	4.019741E-16	2.351420E-17
3.370000E+03	4.002395E-16	2.336473E-17
3.380000E+03	3.985950E-16	2.322071E-17
3.390000E+03	3.970376E-16	2.308195E-17
3.400000E+03	3.955935E-16	2.294996E-17
3.410000E+03	3.942514E-16	2.282402E-17
3.420000E+03	3.930387E-16	2.270569E-17
3.430000E+03	3.919464E-16	2.259439E-17
3.440000E+03	3.909935E-16	2.249120E-17
3.450000E+03	3.901741E-16	2.239571E-17
3.460000E+03	3.895091E-16	2.230907E-17
3.470000E+03	3.890030E-16	2.223149E-17
3.480000E+03	3.886541E-16	2.216281E-17
3.490000E+03	3.884780E-16	2.210385E-17
3.500000E+03	3.884758E-16	2.205462E-17
3.510000E+03	3.886499E-16	2.201520E-17
3.520000E+03	3.890197E-16	2.198659E-17
3.530000E+03	3.895828E-16	2.196860E-17
3.540000E+03	3.903602E-16	2.196234E-17
3.550000E+03	3.913450E-16	2.196733E-17
3.560000E+03	3.925671E-16	2.198517E-17
3.570000E+03	3.940218E-16	2.201549E-17
3.580000E+03	3.957260E-16	2.205916E-17
3.590000E+03	3.976904E-16	2.211667E-17
3.600000E+03	3.999198E-16	2.218817E-17
3.610000E+03	4.024193E-16	2.227385E-17
3.620000E+03	4.052140E-16	2.237497E-17
3.630000E+03	4.083223E-16	2.249244E-17
3.640000E+03	4.117684E-16	2.262746E-17
3.650000E+03	4.155760E-16	2.278118E-17
3.660000E+03	4.197684E-16	2.295473E-17
3.670000E+03	4.243677E-16	2.314917E-17
3.680000E+03	4.293957E-16	2.336548E-17
3.690000E+03	4.348792E-16	2.360498E-17
3.700000E+03	4.408378E-16	2.386850E-17
3.710000E+03	4.472835E-16	2.415651E-17
3.720000E+03	4.542394E-16	2.447005E-17
3.730000E+03	4.617206E-16	2.480969E-17
3.740000E+03	4.697334E-16	2.517557E-17
3.750000E+03	4.783014E-16	2.556871E-17
3.760000E+03	4.874191E-16	2.598858E-17
3.770000E+03	4.970972E-16	2.643550E-17
3.780000E+03	5.073364E-16	2.690928E-17
3.790000E+03	5.181260E-16	2.740908E-17
3.800000E+03	5.294708E-16	2.793494E-17
3.810000E+03	5.413429E-16	2.848514E-17
3.820000E+03	5.537363E-16	2.905911E-17
3.830000E+03	5.666107E-16	2.965451E-17
3.840000E+03	5.799396E-16	3.026976E-17
3.850000E+03	5.936827E-16	3.090254E-17
3.860000E+03	6.077992E-16	3.155053E-17
3.870000E+03	6.222189E-16	3.220994E-17
3.880000E+03	6.368934E-16	3.287812E-17
3.890000E+03	6.517368E-16	3.355052E-17
3.900000E+03	6.666869E-16	3.422386E-17
3.910000E+03	6.816598E-16	3.489379E-17
3.920000E+03	6.965495E-16	3.555486E-17
3.930000E+03	7.112860E-16	3.620354E-17
3.940000E+03	7.257550E-16	3.683409E-17
3.950000E+03	7.398569E-16	3.744156E-17
3.960000E+03	7.535080E-16	3.802188E-17
3.970000E+03	7.665925E-16	3.856942E-17
3.980000E+03	7.790225E-16	3.907999E-17
3.990000E+03	7.907157E-16	3.954978E-17
4.000000E+03	8.015697E-16	3.997398E-17
4.010000E+03	8.115260E-16	4.035005E-17
4.020000E+03	8.205190E-16	4.067514E-17
4.030000E+03	8.284781E-16	4.094619E-17
4.040000E+03	8.353919E-16	4.116309E-17
4.050000E+03	8.412210E-16	4.132437E-17
4.060000E+03	8.459622E-16	4.143036E-17
4.070000E+03	8.496497E-16	4.148323E-17
4.080000E+03	8.523021E-16	4.148435E-17
4.090000E+03	8.539835E-16	4.143731E-17
4.100000E+03	8.547676E-16	4.134612E-17
4.110000E+03	8.547426E-16	4.121543E-17
4.120000E+03	8.540092E-16	4.105047E-17
4.130000E+03	8.526761E-16	4.085678E-17
4.140000E+03	8.508481E-16	4.063962E-17
4.150000E+03	8.486480E-16	4.040510E-17
4.160000E+03	8.461796E-16	4.015832E-17
4.170000E+03	8.435593E-16	3.990490E-17
4.180000E+03	8.408714E-16	3.964891E-17
4.190000E+03	8.382183E-16	3.939520E-17
4.200000E+03	8.356854E-16	3.914775E-17
4.210000E+03	8.333327E-16	3.890934E-17
4.220000E+03	8.312283E-16	3.868303E-17
4.230000E+03	8.294319E-16	3.847151E-17
4.240000E+03	8.279791E-16	3.827629E-17
4.250000E+03	8.269150E-16	3.809928E-17
4.260000E+03	8.262708E-16	3.794175E-17
4.270000E+03	8.260732E-16	3.780474E-17
4.280000E+03	8.263377E-16	3.768875E-17
4.290000E+03	8.270857E-16	3.759455E-17
4.300000E+03	8.283306E-16	3.752253E-17
4.310000E+03	8.301026E-16	3.747382E-17
4.320000E+03	8.324024E-16	3.744823E-17
4.330000E+03	8.352654E-16	3.744710E-17
4.340000E+03	8.387073E-16	3.747088E-17
4.350000E+03	8.427638E-16	3.752089E-17
4.360000E+03	8.474821E-16	3.759894E-17
4.370000E+03	8.528979E-16	3.770633E-17
4.380000E+03	8.590742E-16	3.784551E-17
4.390000E+03	8.660881E-16	3.801950E-17
4.400000E+03	8.740357E-16	3.823215E-17
4.410000E+03	8.830237E-16	3.848766E-17
4.420000E+03	8.931436E-16	3.878955E-17
4.430000E+03	9.045016E-16	3.914187E-17
4.440000E+03	9.172054E-16	3.954872E-17
4.450000E+03	9.313283E-16	4.001263E-17
4.460000E+03	9.469382E-16	4.053585E-17
4.470000E+03	9.640860E-16	4.111988E-17
4.480000E+03	9.828109E-16	4.176567E-17
4.490000E+03	1.003100E-15	4.247196E-17
4.500000E+03	1.024918E-15	4.323656E-17
4.510000E+03	1.048216E-15	4.405671E-17
4.520000E+03	1.072877E-15	4.492683E-17
4.530000E+03	1.098740E-15	4.583956E-17
4.540000E+03	1.125617E-15	4.678661E-17
4.550000E+03	1.153240E-15	4.775643E-17
4.560000E+03	1.181328E-15	4.873708E-17
4.570000E+03	1.209534E-15	4.971408E-17
4.580000E+03	1.237458E-15	5.067108E-17
4.590000E+03	1.264682E-15	5.159116E-17
4.600000E+03	1.290797E-15	5.245807E-17
4.610000E+03	1.315340E-15	5.325358E-17
4.620000E+03	1.337882E-15	5.396118E-17
4.630000E+03	1.358019E-15	5.456557E-17
4.640000E+03	1.375387E-15	5.505332E-17
4.650000E+03	1.389656E-15	5.541255E-17
4.660000E+03	1.400564E-15	5.563432E-17
4.670000E+03	1.407930E-15	5.571305E-17
4.680000E+03	1.411647E-15	5.564608E-17
4.690000E+03	1.411669E-15	5.543340E-17
4.700000E+03	1.408103E-15	5.508081E-17
4.710000E+03	1.401096E-15	5.459568E-17
4.720000E+03	1.390916E-15	5.399004E-17
4.730000E+03	1.377934E-15	5.327963E-17
4.740000E+03	1.362592E-15	5.248273E-17
4.750000E+03	1.345389E-15	5.161955E-17
4.760000E+03	1.326850E-15	5.071100E-17
4.770000E+03	1.307557E-15	4.977982E-17
4.780000E+03	1.288061E-15	4.884726E-17
4.790000E+03	1.268895E-15	4.793348E-17
4.800000E+03	1.250570E-15	4.705762E-17
4.810000E+03	1.233518E-15	4.623545E-17
4.820000E+03	1.218146E-15	4.548163E-17
4.830000E+03	1.204820E-15	4.480900E-17
4.840000E+03	1.193815E-15	4.422689E-17
4.850000E+03	1.185371E-15	4.374309E-17
4.860000E+03	1.179653E-15	4.336265E-17
4.870000E+03	1.176776E-15	4.308854E-17
4.880000E+03	1.176787E-15	4.292124E-17
4.890000E+03	1.179655E-15	4.285843E-17
4.900000E+03	1.185269E-15	4.289478E-17
4.910000E+03	1.193477E-15	4.302374E-17
4.920000E+03	1.204034E-15	4.323537E-17
4.930000E+03	1.216605E-15	4.351669E-17
4.940000E+03	1.230811E-15	4.385337E-17
4.950000E+03	1.246153E-15	4.422707E-17
4.960000E+03	1.262113E-15	4.461894E-17
4.970000E+03	1.278096E-15	4.500784E-17
4.980000E+03	1.293460E-15	4.537123E-17
4.990000E+03	1.307632E-15	4.568936E-17
5.000000E+03	1.320028E-15	4.594238E-17
5.010000E+03	1.330188E-15	4.611512E-17
5.020000E+03	1.337766E-15	4.619654E-17
5.030000E+03	1.342558E-15	4.618064E-17
5.040000E+03	1.344546E-15	4.606791E-17
5.050000E+03	1.343858E-15	4.586392E-17
5.060000E+03	1.340751E-15	4.557843E-17
5.070000E+03	1.335618E-15	4.522572E-17
5.080000E+03	1.328901E-15	4.482145E-17
5.090000E+03	1.321106E-15	4.438329E-17
5.100000E+03	1.312732E-15	4.392836E-17
5.110000E+03	1.304238E-15	4.347212E-17
5.120000E+03	1.296107E-15	4.303065E-17
5.130000E+03	1.288697E-15	4.261567E-17
5.140000E+03	1.282368E-15	4.223870E-17
5.150000E+03	1.277410E-15	4.190886E-17
5.160000E+03	1.274080E-15	4.163396E-17
5.170000E+03	1.272553E-15	4.141906E-17
5.180000E+03	1.272991E-15	4.126872E-17
5.190000E+03	1.275542E-15	4.118695E-17
5.200000E+03	1.280261E-15	4.117471E-17
5.210000E+03	1.287231E-15	4.123385E-17
5.220000E+03	1.296460E-15	4.136371E-17
5.230000E+03	1.307932E-15	4.156294E-17
5.240000E+03	1.321584E-15	4.182873E-17
5.250000E+03	1.337294E-15	4.215640E-17
5.260000E+03	1.354919E-15	4.254068E-17
5.270000E+03	1.374235E-15	4.297392E-17
5.280000E+03	1.395001E-15	4.344792E-17
5.290000E+03	1.416887E-15	4.395197E-17
5.300000E+03	1.439564E-15	4.447551E-17
5.310000E+03	1.462662E-15	4.500691E-17
5.320000E+03	1.485780E-15	4.553370E-17
5.330000E+03	1.508528E-15	4.604404E-17
5.340000E+03	1.530542E-15	4.652707E-17
5.350000E+03	1.551447E-15	4.697168E-17
5.360000E+03	1.570938E-15	4.736913E-17
5.370000E+03	1.588776E-15	4.771283E-17
5.380000E+03	1.604770E-15	4.799771E-17
5.390000E+03	1.618762E-15	4.821973E-17
5.400000E+03	1.630695E-15	4.837798E-17
5.410000E+03	1.640532E-15	4.847217E-17
5.420000E+03	1.648313E-15	4.850423E-17
5.430000E+03	1.654051E-15	4.847535E-17
5.440000E+03	1.657820E-15	4.838840E-17
5.450000E+03	1.659652E-15	4.824506E-17
5.460000E+03	1.659553E-15	4.804624E-17
5.470000E+03	1.657506E-15	4.779213E-17
5.480000E+03	1.653422E-15	4.748086E-17
5.490000E+03	1.647160E-15	4.710919E-17
5.500000E+03	1.638508E-15	4.667181E-17
5.510000E+03	1.627134E-15	4.616016E-17
5.520000E+03	1.612675E-15	4.556490E-17
5.530000E+03	1.594808E-15	4.487803E-17
5.540000E+03	1.573240E-15	4.409246E-17
5.550000E+03	1.547861E-15	4.320628E-17
5.560000E+03	1.518685E-15	4.222119E-17
5.570000E+03	1.485892E-15	4.114333E-17
5.580000E+03	1.449876E-15	3.998479E-17
5.590000E+03	1.411180E-15	3.876141E-17
5.600000E+03	1.370530E-15	3.749391E-17
5.610000E+03	1.328749E-15	3.620531E-17
5.620000E+03	1.286734E-15	3.492022E-17
5.630000E+03	1.245411E-15	3.366368E-17
5.640000E+03	1.205677E-15	3.245955E-17
5.650000E+03	1.168421E-15	3.133110E-17
5.660000E+03	1.134419E-15	3.029820E-17
5.670000E+03	1.104374E-15	2.937844E-17
5.680000E+03	1.078910E-15	2.858701E-17
5.690000E+03	1.058534E-15	2.793586E-17
5.700000E+03	1.043688E-15	2.743495E-17
5.710000E+03	1.034767E-15	2.709288E-17
5.720000E+03	1.032070E-15	2.691555E-17
5.730000E+03	1.035870E-15	2.690816E-17
5.740000E+03	1.046429E-15	2.707552E-17
5.750000E+03	1.063942E-15	2.742056E-17
5.760000E+03	1.088569E-15	2.794534E-17
5.770000E+03	1.120424E-15	2.865069E-17
5.780000E+03	1.159510E-15	2.953455E-17
5.790000E+03	1.205776E-15	3.059359E-17
5.800000E+03	1.258971E-15	3.181943E-17
5.810000E+03	1.318696E-15	3.320010E-17
5.820000E+03	1.384385E-15	3.471963E-17
5.830000E+03	1.455208E-15	3.635574E-17
5.840000E+03	1.530128E-15	3.808130E-17
5.850000E+03	1.607883E-15	3.986404E-17
5.860000E+03	1.687022E-15	4.166756E-17
5.870000E+03	1.765912E-15	4.345147E-17
5.880000E+03	1.842780E-15	4.517263E-17
5.890000E+03	1.915849E-15	4.678846E-17
5.900000E+03	1.983386E-15	4.825803E-17
5.910000E+03	2.043752E-15	4.954336E-17
5.920000E+03	2.095556E-15	5.061305E-17
5.930000E+03	2.137754E-15	5.144438E-17
5.940000E+03	2.169620E-15	5.202274E-17
5.950000E+03	2.190912E-15	5.234517E-17
5.960000E+03	2.201720E-15	5.241667E-17
5.970000E+03	2.202531E-15	5.225157E-17
5.980000E+03	2.194153E-15	5.187155E-17
5.990000E+03	2.177662E-15	5.130429E-17
6.000000E+03	2.154268E-15	5.058023E-17
6.010000E+03	2.125245E-15	4.973081E-17
6.020000E+03	2.091945E-15	4.878888E-17
6.030000E+03	2.055571E-15	4.778336E-17
6.040000E+03	2.017323E-15	4.674268E-17
6.050000E+03	1.978174E-15	4.568969E-17
6.060000E+03	1.939045E-15	4.464570E-17
6.070000E+03	1.900632E-15	4.362658E-17
6.080000E+03	1.863502E-15	4.264510E-17
6.090000E+03	1.828106E-15	4.171116E-17
6.100000E+03	1.794721E-15	4.083065E-17
6.110000E+03	1.763560E-15	4.000793E-17
6.120000E+03	1.734743E-15	3.924517E-17
6.130000E+03	1.708249E-15	3.854141E-17
6.140000E+03	1.684100E-15	3.789667E-17
6.150000E+03	1.662207E-15	3.730848E-17
6.160000E+03	1.642466E-15	3.677405E-17
6.170000E+03	1.624719E-15	3.628951E-17
6.180000E+03	1.608773E-15	3.585018E-17
6.190000E+03	1.594457E-15	3.545197E-17
6.200000E+03	1.581538E-15	3.508945E-17
6.210000E+03	1.569823E-15	3.475815E-17
6.220000E+03	1.559088E-15	3.445295E-17
6.230000E+03	1.549204E-15	3.417087E-17
6.240000E+03	1.539997E-15	3.390800E-17
6.250000E+03	1.531330E-15	3.366125E-17
6.260000E+03	1.523083E-15	3.342778E-17
6.270000E+03	1.515158E-15	3.320537E-17
6.280000E+03	1.507515E-15	3.299305E-17
6.290000E+03	1.500092E-15	3.278933E-17
6.300000E+03	1.492949E-15	3.259546E-17
6.310000E+03	1.486085E-15	3.241129E-17
6.320000E+03	1.479568E-15	3.223827E-17
6.330000E+03	1.473468E-15	3.207776E-17
6.340000E+03	1.467858E-15	3.193132E-17
6.350000E+03	1.462813E-15	3.180047E-17
6.360000E+03	1.458420E-15	3.168704E-17
6.370000E+03	1.454716E-15	3.159171E-17
6.380000E+03	1.451780E-15	3.151619E-17
6.390000E+03	1.449597E-15	3.146003E-17
6.400000E+03	1.448185E-15	3.142361E-17
6.410000E+03	1.447529E-15	3.140654E-17
6.420000E+03	1.447591E-15	3.140798E-17
6.430000E+03	1.448343E-15	3.142726E-17
6.440000E+03	1.449668E-15	3.146188E-17
6.450000E+03	1.451570E-15	3.151186E-17
6.460000E+03	1.453933E-15	3.157469E-17
6.470000E+03	1.456715E-15	3.164949E-17
6.480000E+03	1.459888E-15	3.173559E-17
6.490000E+03	1.463436E-15	3.183266E-17
6.500000E+03	1.467343E-15	3.194025E-17
6.510000E+03	1.471611E-15	3.205833E-17
6.520000E+03	1.476281E-15	3.218774E-17
6.530000E+03	1.481451E-15	3.233054E-17
6.540000E+03	1.487244E-15	3.248935E-17
6.550000E+03	1.493963E-15	3.267078E-17
6.560000E+03	1.501807E-15	3.287917E-17
6.570000E+03	1.511020E-15	3.311986E-17
6.580000E+03	1.521712E-15	3.339531E-17
6.590000E+03	1.533852E-15	3.370488E-17
6.600000E+03	1.547306E-15	3.404565E-17
6.610000E+03	1.561834E-15	3.441242E-17
6.620000E+03	1.577042E-15	3.479653E-17
6.630000E+03	1.592490E-15	3.518824E-17
6.640000E+03	1.607624E-15	3.557523E-17
6.650000E+03	1.621916E-15	3.594573E-17
6.660000E+03	1.634740E-15	3.628569E-17
6.670000E+03	1.645561E-15	3.658294E-17
6.680000E+03	1.653872E-15	3.682594E-17
6.690000E+03	1.659240E-15	3.700467E-17
6.700000E+03	1.661353E-15	3.711176E-17
6.710000E+03	1.659939E-15	3.714065E-17
6.720000E+03	1.654936E-15	3.708952E-17
6.730000E+03	1.646356E-15	3.695811E-17
6.740000E+03	1.634302E-15	3.674823E-17
6.750000E+03	1.619032E-15	3.646527E-17
6.760000E+03	1.600853E-15	3.611565E-17
6.770000E+03	1.580198E-15	3.570877E-17
6.780000E+03	1.557541E-15	3.525500E-17
6.790000E+03	1.533400E-15	3.476578E-17
6.800000E+03	1.508322E-15	3.425333E-17
6.810000E+03	1.482847E-15	3.372971E-17
6.820000E+03	1.457579E-15	3.320867E-17
6.830000E+03	1.433039E-15	3.270201E-17
6.840000E+03	1.409741E-15	3.222154E-17
6.850000E+03	1.388140E-15	3.177777E-17
6.860000E+03	1.368733E-15	3.138227E-17
6.870000E+03	1.351832E-15	3.104239E-17
6.880000E+03	1.337805E-15	3.076685E-17
6.890000E+03	1.326876E-15	3.056107E-17
6.900000E+03	1.319293E-15	3.043105E-17
6.910000E+03	1.315197E-15	3.038036E-17
6.920000E+03	1.314612E-15	3.040990E-17
6.930000E+03	1.317583E-15	3.052099E-17
6.940000E+03	1.324027E-15	3.071204E-17
6.950000E+03	1.333742E-15	3.097861E-17
6.960000E+03	1.346523E-15	3.131618E-17
6.970000E+03	1.362027E-15	3.171701E-17
6.980000E+03	1.379799E-15	3.217065E-17
6.990000E+03	1.399315E-15	3.266501E-17
7.000000E+03	1.419977E-15	3.318620E-17
7.010000E+03	1.441155E-15	3.371950E-17
7.020000E+03	1.462147E-15	3.424843E-17
7.030000E+03	1.482300E-15	3.475757E-17
7.040000E+03	1.500950E-15	3.523123E-17
7.050000E+03	1.517553E-15	3.565646E-17
7.060000E+03	1.531615E-15	3.602142E-17
7.070000E+03	1.542784E-15	3.631764E-17
7.080000E+03	1.550878E-15	3.654054E-17
7.090000E+03	1.555800E-15	3.668764E-17
7.100000E+03	1.557646E-15	3.676103E-17
7.110000E+03	1.556590E-15	3.676457E-17
7.120000E+03	1.552961E-15	3.670591E-17
7.130000E+03	1.547143E-15	3.659400E-17
7.140000E+03	1.539539E-15	3.643829E-17
7.150000E+03	1.530598E-15	3.624934E-17
7.160000E+03	1.520819E-15	3.603895E-17
7.170000E+03	1.510528E-15	3.581484E-17
7.180000E+03	1.500173E-15	3.558764E-17
7.190000E+03	1.490031E-15	3.536396E-17
7.200000E+03	1.480310E-15	3.514880E-17
7.210000E+03	1.471234E-15	3.494755E-17
7.220000E+03	1.462852E-15	3.476136E-17
7.230000E+03	1.455255E-15	3.459252E-17
7.240000E+03	1.448397E-15	3.443996E-17
7.250000E+03	1.442238E-15	3.430276E-17
7.260000E+03	1.436640E-15	3.417772E-17
7.270000E+03	1.431490E-15	3.406219E-17
7.280000E+03	1.426627E-15	3.395240E-17
7.290000E+03	1.421907E-15	3.384491E-17
7.300000E+03	1.417127E-15	3.373497E-17
7.310000E+03	1.412144E-15	3.361921E-17
7.320000E+03	1.406805E-15	3.349401E-17
7.330000E+03	1.400978E-15	3.335630E-17
7.340000E+03	1.394586E-15	3.320425E-17
7.350000E+03	1.387580E-15	3.303677E-17
7.360000E+03	1.379886E-15	3.285216E-17
7.370000E+03	1.371518E-15	3.265078E-17
7.380000E+03	1.362482E-15	3.243283E-17
7.390000E+03	1.352838E-15	3.219984E-17
7.400000E+03	1.342631E-15	3.195290E-17
7.410000E+03	1.331917E-15	3.169341E-17
7.420000E+03	1.320726E-15	3.142217E-17
7.430000E+03	1.309176E-15	3.114204E-17
7.440000E+03	1.297267E-15	3.085308E-17
7.450000E+03	1.285054E-15	3.055667E-17
7.460000E+03	1.272615E-15	3.025473E-17
7.470000E+03	1.259972E-15	2.994785E-17
7.480000E+03	1.247144E-15	2.963655E-17
7.490000E+03	1.234184E-15	2.932211E-17
7.500000E+03	1.221114E-15	2.900515E-17
7.510000E+03	1.208016E-15	2.868769E-17
7.520000E+03	1.194903E-15	2.837005E-17
7.530000E+03	1.181872E-15	2.805458E-17
7.540000E+03	1.169002E-15	2.774320E-17
7.550000E+03	1.156332E-15	2.743690E-17
7.560000E+03	1.143962E-15	2.713806E-17
7.570000E+03	1.132022E-15	2.684979E-17
7.580000E+03	1.120613E-15	2.657454E-17
7.590000E+03	1.109789E-15	2.631364E-17
7.600000E+03	1.099678E-15	2.607010E-17
7.610000E+03	1.090371E-15	2.584616E-17
7.620000E+03	1.081964E-15	2.564411E-17
7.630000E+03	1.074554E-15	2.546628E-17
7.640000E+03	1.068209E-15	2.531431E-17
7.650000E+03	1.063023E-15	2.519049E-17
7.660000E+03	1.059027E-15	2.509557E-17
7.670000E+03	1.056246E-15	2.503021E-17
7.680000E+03	1.054702E-15	2.499495E-17
7.690000E+03	1.054363E-15	2.498913E-17
7.700000E+03	1.055144E-15	2.501078E-17
7.710000E+03	1.056955E-15	2.505786E-17
7.720000E+03	1.059702E-15	2.512819E-17
7.730000E+03	1.063242E-15	2.521847E-17
7.740000E+03	1.067382E-15	2.532423E-17
7.750000E+03	1.071942E-15	2.544126E-17
7.760000E+03	1.076753E-15	2.556565E-17
