#wls	flux	fluxerr
1.600000E+03	1.979575E-16	1.348920E-17
1.640000E+03	2.021359E-16	1.374000E-17
1.680000E+03	2.064765E-16	1.399952E-17
1.720000E+03	2.109737E-16	1.426721E-17
1.760000E+03	2.156790E-16	1.454641E-17
1.800000E+03	2.205850E-16	1.483640E-17
1.840000E+03	2.257122E-16	1.513838E-17
1.880000E+03	2.310497E-16	1.545138E-17
1.920000E+03	2.366742E-16	1.578031E-17
1.960000E+03	2.425406E-16	1.612189E-17
2.000000E+03	2.487520E-16	1.648270E-17
2.040000E+03	2.553179E-16	1.686303E-17
2.080000E+03	2.622745E-16	1.726491E-17
2.120000E+03	2.696528E-16	1.768999E-17
2.160000E+03	2.774778E-16	1.813948E-17
2.200000E+03	2.858609E-16	1.862017E-17
2.240000E+03	2.948113E-16	1.913209E-17
2.280000E+03	3.042957E-16	1.967252E-17
2.320000E+03	3.144236E-16	2.024791E-17
2.360000E+03	3.250714E-16	2.084965E-17
2.400000E+03	3.362536E-16	2.147805E-17
2.440000E+03	3.478422E-16	2.212431E-17
2.480000E+03	3.597201E-16	2.278045E-17
2.520000E+03	3.717797E-16	2.343919E-17
2.560000E+03	3.838314E-16	2.408823E-17
2.600000E+03	3.957533E-16	2.471970E-17
2.640000E+03	4.073423E-16	2.532083E-17
2.680000E+03	4.183477E-16	2.587615E-17
2.720000E+03	4.286157E-16	2.637650E-17
2.760000E+03	4.378400E-16	2.680357E-17
2.800000E+03	4.458436E-16	2.714739E-17
2.840000E+03	4.523678E-16	2.739329E-17
2.880000E+03	4.571664E-16	2.752776E-17
2.920000E+03	4.600625E-16	2.754187E-17
2.960000E+03	4.609720E-16	2.743249E-17
3.000000E+03	4.599401E-16	2.720440E-17
3.010000E+03	4.594036E-16	2.713053E-17
3.020000E+03	4.587406E-16	2.704910E-17
3.030000E+03	4.579688E-16	2.696118E-17
3.040000E+03	4.570862E-16	2.686669E-17
3.050000E+03	4.561099E-16	2.676666E-17
3.060000E+03	4.550374E-16	2.666098E-17
3.070000E+03	4.538484E-16	2.654848E-17
3.080000E+03	4.525782E-16	2.643126E-17
3.090000E+03	4.512071E-16	2.630819E-17
3.100000E+03	4.497515E-16	2.618026E-17
3.110000E+03	4.482101E-16	2.604743E-17
3.120000E+03	4.465990E-16	2.591064E-17
3.130000E+03	4.449001E-16	2.576889E-17
3.140000E+03	4.431460E-16	2.562406E-17
3.150000E+03	4.413035E-16	2.547428E-17
3.160000E+03	4.394203E-16	2.532232E-17
3.170000E+03	4.374798E-16	2.516723E-17
3.180000E+03	4.354822E-16	2.500905E-17
3.190000E+03	4.334429E-16	2.484868E-17
3.200000E+03	4.313763E-16	2.468696E-17
3.210000E+03	4.292684E-16	2.452310E-17
3.220000E+03	4.271343E-16	2.435798E-17
3.230000E+03	4.249750E-16	2.419166E-17
3.240000E+03	4.228185E-16	2.402574E-17
3.250000E+03	4.206520E-16	2.385951E-17
3.260000E+03	4.184776E-16	2.369309E-17
3.270000E+03	4.163223E-16	2.352801E-17
3.280000E+03	4.141754E-16	2.336365E-17
3.290000E+03	4.120514E-16	2.320084E-17
3.300000E+03	4.099529E-16	2.303972E-17
3.310000E+03	4.078942E-16	2.288110E-17
3.320000E+03	4.058786E-16	2.272513E-17
3.330000E+03	4.039202E-16	2.257260E-17
3.340000E+03	4.020122E-16	2.242312E-17
3.350000E+03	4.001800E-16	2.227808E-17
3.360000E+03	3.984177E-16	2.213714E-17
3.370000E+03	3.967408E-16	2.200113E-17
3.380000E+03	3.951547E-16	2.187033E-17
3.390000E+03	3.936564E-16	2.174455E-17
3.400000E+03	3.922717E-16	2.162517E-17
3.410000E+03	3.909897E-16	2.151158E-17
3.420000E+03	3.898371E-16	2.140520E-17
3.430000E+03	3.888051E-16	2.130550E-17
3.440000E+03	3.879126E-16	2.121349E-17
3.450000E+03	3.871535E-16	2.112878E-17
3.460000E+03	3.865486E-16	2.105246E-17
3.470000E+03	3.861021E-16	2.098472E-17
3.480000E+03	3.858125E-16	2.092542E-17
3.490000E+03	3.856948E-16	2.087532E-17
3.500000E+03	3.857503E-16	2.083442E-17
3.510000E+03	3.859811E-16	2.080278E-17
3.520000E+03	3.864063E-16	2.078139E-17
3.530000E+03	3.870234E-16	2.077001E-17
3.540000E+03	3.878530E-16	2.076971E-17
3.550000E+03	3.888881E-16	2.078003E-17
3.560000E+03	3.901583E-16	2.080246E-17
3.570000E+03	3.916585E-16	2.083667E-17
3.580000E+03	3.934055E-16	2.088345E-17
3.590000E+03	3.954096E-16	2.094328E-17
3.600000E+03	3.976752E-16	2.101627E-17
3.610000E+03	4.002072E-16	2.110261E-17
3.620000E+03	4.030307E-16	2.120351E-17
3.630000E+03	4.061633E-16	2.131979E-17
3.640000E+03	4.096291E-16	2.145259E-17
3.650000E+03	4.134514E-16	2.160302E-17
3.660000E+03	4.176531E-16	2.177212E-17
3.670000E+03	4.222562E-16	2.196091E-17
3.680000E+03	4.272817E-16	2.217033E-17
3.690000E+03	4.327562E-16	2.240158E-17
3.700000E+03	4.386990E-16	2.265550E-17
3.710000E+03	4.451217E-16	2.293250E-17
3.720000E+03	4.520468E-16	2.323356E-17
3.730000E+03	4.594893E-16	2.355926E-17
3.740000E+03	4.674552E-16	2.390969E-17
3.750000E+03	4.759675E-16	2.428584E-17
3.760000E+03	4.850206E-16	2.468720E-17
3.770000E+03	4.946252E-16	2.511409E-17
3.780000E+03	5.047814E-16	2.556632E-17
3.790000E+03	5.154787E-16	2.604314E-17
3.800000E+03	5.267217E-16	2.654455E-17
3.810000E+03	5.384832E-16	2.706896E-17
3.820000E+03	5.507567E-16	2.761586E-17
3.830000E+03	5.635028E-16	2.818305E-17
3.840000E+03	5.766955E-16	2.876905E-17
3.850000E+03	5.902953E-16	2.937171E-17
3.860000E+03	6.042623E-16	2.998887E-17
3.870000E+03	6.185276E-16	3.061696E-17
3.880000E+03	6.330440E-16	3.125354E-17
3.890000E+03	6.477273E-16	3.189435E-17
3.900000E+03	6.625168E-16	3.253631E-17
3.910000E+03	6.773302E-16	3.317536E-17
3.920000E+03	6.920641E-16	3.380640E-17
3.930000E+03	7.066497E-16	3.442611E-17
3.940000E+03	7.209752E-16	3.502911E-17
3.950000E+03	7.349427E-16	3.561074E-17
3.960000E+03	7.484702E-16	3.616716E-17
3.970000E+03	7.614434E-16	3.669305E-17
3.980000E+03	7.737757E-16	3.718443E-17
3.990000E+03	7.853854E-16	3.763766E-17
4.000000E+03	7.961705E-16	3.804813E-17
4.010000E+03	8.060723E-16	3.841337E-17
4.020000E+03	8.150244E-16	3.873057E-17
4.030000E+03	8.229548E-16	3.899670E-17
4.040000E+03	8.298501E-16	3.921154E-17
4.050000E+03	8.356686E-16	3.937353E-17
4.060000E+03	8.404049E-16	3.948287E-17
4.070000E+03	8.440904E-16	3.954146E-17
4.080000E+03	8.467410E-16	3.955047E-17
4.090000E+03	8.484191E-16	3.951324E-17
4.100000E+03	8.491960E-16	3.943347E-17
4.110000E+03	8.491588E-16	3.931558E-17
4.120000E+03	8.484067E-16	3.916447E-17
4.130000E+03	8.470474E-16	3.898542E-17
4.140000E+03	8.451849E-16	3.878344E-17
4.150000E+03	8.429409E-16	3.856433E-17
4.160000E+03	8.404189E-16	3.833295E-17
4.170000E+03	8.377339E-16	3.809467E-17
4.180000E+03	8.349700E-16	3.785338E-17
4.190000E+03	8.322291E-16	3.761371E-17
4.200000E+03	8.295958E-16	3.737948E-17
4.210000E+03	8.271304E-16	3.715337E-17
4.220000E+03	8.249008E-16	3.693834E-17
4.230000E+03	8.229666E-16	3.673698E-17
4.240000E+03	8.213640E-16	3.655076E-17
4.250000E+03	8.201388E-16	3.638160E-17
4.260000E+03	8.193226E-16	3.623074E-17
4.270000E+03	8.189430E-16	3.609922E-17
4.280000E+03	8.190167E-16	3.598762E-17
4.290000E+03	8.195663E-16	3.589673E-17
4.300000E+03	8.206065E-16	3.582700E-17
4.310000E+03	8.221689E-16	3.577960E-17
4.320000E+03	8.242559E-16	3.575444E-17
4.330000E+03	8.269047E-16	3.575290E-17
4.340000E+03	8.301326E-16	3.577549E-17
4.350000E+03	8.339769E-16	3.582358E-17
4.360000E+03	8.384860E-16	3.589900E-17
4.370000E+03	8.436966E-16	3.600302E-17
4.380000E+03	8.496718E-16	3.613805E-17
4.390000E+03	8.564877E-16	3.630699E-17
4.400000E+03	8.642392E-16	3.651350E-17
4.410000E+03	8.730309E-16	3.676161E-17
4.420000E+03	8.829527E-16	3.705465E-17
4.430000E+03	8.941073E-16	3.739645E-17
4.440000E+03	9.065997E-16	3.779087E-17
4.450000E+03	9.204998E-16	3.824026E-17
4.460000E+03	9.358725E-16	3.874671E-17
4.470000E+03	9.527657E-16	3.931160E-17
4.480000E+03	9.712160E-16	3.993579E-17
4.490000E+03	9.912085E-16	4.061803E-17
4.500000E+03	1.012708E-15	4.135623E-17
4.510000E+03	1.035664E-15	4.214773E-17
4.520000E+03	1.059960E-15	4.298719E-17
4.530000E+03	1.085437E-15	4.386763E-17
4.540000E+03	1.111910E-15	4.478109E-17
4.550000E+03	1.139115E-15	4.571662E-17
4.560000E+03	1.166774E-15	4.666280E-17
4.570000E+03	1.194542E-15	4.760570E-17
4.580000E+03	1.222030E-15	4.852983E-17
4.590000E+03	1.248823E-15	4.941895E-17
4.600000E+03	1.274520E-15	5.025754E-17
4.610000E+03	1.298666E-15	5.102820E-17
4.620000E+03	1.320843E-15	5.171525E-17
4.630000E+03	1.340653E-15	5.230399E-17
4.640000E+03	1.357741E-15	5.278163E-17
4.650000E+03	1.371784E-15	5.313689E-17
4.660000E+03	1.382523E-15	5.336097E-17
4.670000E+03	1.389780E-15	5.344847E-17
4.680000E+03	1.393448E-15	5.339677E-17
4.690000E+03	1.393477E-15	5.320545E-17
4.700000E+03	1.389967E-15	5.287984E-17
4.710000E+03	1.383060E-15	5.242679E-17
4.720000E+03	1.373016E-15	5.185754E-17
4.730000E+03	1.360196E-15	5.118697E-17
4.740000E+03	1.345033E-15	5.043246E-17
4.750000E+03	1.328017E-15	4.961330E-17
4.760000E+03	1.309665E-15	4.874947E-17
4.770000E+03	1.290550E-15	4.786277E-17
4.780000E+03	1.271217E-15	4.697364E-17
4.790000E+03	1.252190E-15	4.610149E-17
4.800000E+03	1.233979E-15	4.526486E-17
4.810000E+03	1.217013E-15	4.447908E-17
4.820000E+03	1.201698E-15	4.375846E-17
4.830000E+03	1.188399E-15	4.311559E-17
4.840000E+03	1.177392E-15	4.255960E-17
4.850000E+03	1.168917E-15	4.209828E-17
4.860000E+03	1.163144E-15	4.173664E-17
4.870000E+03	1.160188E-15	4.147778E-17
4.880000E+03	1.160104E-15	4.132251E-17
4.890000E+03	1.162862E-15	4.126866E-17
4.900000E+03	1.168360E-15	4.131147E-17
4.910000E+03	1.176453E-15	4.144476E-17
4.920000E+03	1.186903E-15	4.165917E-17
4.930000E+03	1.199382E-15	4.194232E-17
4.940000E+03	1.213521E-15	4.228057E-17
4.950000E+03	1.228825E-15	4.265614E-17
4.960000E+03	1.244779E-15	4.305071E-17
4.970000E+03	1.260789E-15	4.344364E-17
4.980000E+03	1.276209E-15	4.381269E-17
4.990000E+03	1.290456E-15	4.413818E-17
5.000000E+03	1.302940E-15	4.440043E-17
5.010000E+03	1.313189E-15	4.458416E-17
5.020000E+03	1.320853E-15	4.467832E-17
5.030000E+03	1.325722E-15	4.467680E-17
5.040000E+03	1.327776E-15	4.458004E-17
5.050000E+03	1.327147E-15	4.439344E-17
5.060000E+03	1.324096E-15	4.412674E-17
5.070000E+03	1.319021E-15	4.379399E-17
5.080000E+03	1.312367E-15	4.341072E-17
5.090000E+03	1.304643E-15	4.299428E-17
5.100000E+03	1.296351E-15	4.256148E-17
5.110000E+03	1.287945E-15	4.212739E-17
5.120000E+03	1.279903E-15	4.170765E-17
5.130000E+03	1.272580E-15	4.131360E-17
5.140000E+03	1.266325E-15	4.095628E-17
5.150000E+03	1.261425E-15	4.064452E-17
5.160000E+03	1.258127E-15	4.038575E-17
5.170000E+03	1.256601E-15	4.018482E-17
5.180000E+03	1.257004E-15	4.004610E-17
5.190000E+03	1.259481E-15	3.997349E-17
5.200000E+03	1.264089E-15	3.996802E-17
5.210000E+03	1.270909E-15	4.003155E-17
5.220000E+03	1.279955E-15	4.016366E-17
5.230000E+03	1.291213E-15	4.036314E-17
5.240000E+03	1.304626E-15	4.062743E-17
5.250000E+03	1.320077E-15	4.095220E-17
5.260000E+03	1.337431E-15	4.133250E-17
5.270000E+03	1.356473E-15	4.176112E-17
5.280000E+03	1.376967E-15	4.223021E-17
5.290000E+03	1.398593E-15	4.272949E-17
5.300000E+03	1.421029E-15	4.324886E-17
5.310000E+03	1.443914E-15	4.377704E-17
5.320000E+03	1.466853E-15	4.430203E-17
5.330000E+03	1.489464E-15	4.481230E-17
5.340000E+03	1.511390E-15	4.529735E-17
5.350000E+03	1.532260E-15	4.574632E-17
5.360000E+03	1.551770E-15	4.615060E-17
5.370000E+03	1.569685E-15	4.650375E-17
5.380000E+03	1.585814E-15	4.680065E-17
5.390000E+03	1.599991E-15	4.703713E-17
5.400000E+03	1.612156E-15	4.721207E-17
5.410000E+03	1.622262E-15	4.732489E-17
5.420000E+03	1.630337E-15	4.737704E-17
5.430000E+03	1.636381E-15	4.736928E-17
5.440000E+03	1.640453E-15	4.730403E-17
5.450000E+03	1.642572E-15	4.718248E-17
5.460000E+03	1.642732E-15	4.700516E-17
5.470000E+03	1.640905E-15	4.677195E-17
5.480000E+03	1.636993E-15	4.648073E-17
5.490000E+03	1.630853E-15	4.612818E-17
5.500000E+03	1.622273E-15	4.570901E-17
5.510000E+03	1.610925E-15	4.521490E-17
5.520000E+03	1.596454E-15	4.463677E-17
5.530000E+03	1.578547E-15	4.396691E-17
5.540000E+03	1.556921E-15	4.319855E-17
5.550000E+03	1.531477E-15	4.233009E-17
5.560000E+03	1.502240E-15	4.136339E-17
5.570000E+03	1.469398E-15	4.030475E-17
5.580000E+03	1.433354E-15	3.916630E-17
5.590000E+03	1.394656E-15	3.796385E-17
5.600000E+03	1.354031E-15	3.671790E-17
5.610000E+03	1.312301E-15	3.545119E-17
5.620000E+03	1.270361E-15	3.418810E-17
5.630000E+03	1.229130E-15	3.295325E-17
5.640000E+03	1.189498E-15	3.177013E-17
5.650000E+03	1.152346E-15	3.066163E-17
5.660000E+03	1.118441E-15	2.964729E-17
5.670000E+03	1.088476E-15	2.874438E-17
5.680000E+03	1.063065E-15	2.796781E-17
5.690000E+03	1.042708E-15	2.732932E-17
5.700000E+03	1.027840E-15	2.683872E-17
5.710000E+03	1.018849E-15	2.650452E-17
5.720000E+03	1.016030E-15	2.633257E-17
5.730000E+03	1.019655E-15	2.632813E-17
5.740000E+03	1.029981E-15	2.649596E-17
5.750000E+03	1.047205E-15	2.683920E-17
5.760000E+03	1.071488E-15	2.736006E-17
5.770000E+03	1.102952E-15	2.805965E-17
5.780000E+03	1.141601E-15	2.893613E-17
5.790000E+03	1.187390E-15	2.998643E-17
5.800000E+03	1.240073E-15	3.120251E-17
5.810000E+03	1.299256E-15	3.257265E-17
5.820000E+03	1.364374E-15	3.408111E-17
5.830000E+03	1.434605E-15	3.570599E-17
5.840000E+03	1.508916E-15	3.742041E-17
5.850000E+03	1.586052E-15	3.919248E-17
5.860000E+03	1.664572E-15	4.098616E-17
5.870000E+03	1.742848E-15	4.276134E-17
5.880000E+03	1.819118E-15	4.447523E-17
5.890000E+03	1.891608E-15	4.608534E-17
5.900000E+03	1.958589E-15	4.755089E-17
5.910000E+03	2.018424E-15	4.883388E-17
5.920000E+03	2.069726E-15	4.990290E-17
5.930000E+03	2.111449E-15	5.073509E-17
5.940000E+03	2.142877E-15	5.131586E-17
5.950000E+03	2.163770E-15	5.164213E-17
5.960000E+03	2.174228E-15	5.171898E-17
5.970000E+03	2.174748E-15	5.156071E-17
5.980000E+03	2.166144E-15	5.118899E-17
5.990000E+03	2.149500E-15	5.063151E-17
6.000000E+03	2.126031E-15	4.991866E-17
6.010000E+03	2.097011E-15	4.908179E-17
6.020000E+03	2.063791E-15	4.815359E-17
6.030000E+03	2.027565E-15	4.716277E-17
6.040000E+03	1.989528E-15	4.613757E-17
6.050000E+03	1.950643E-15	4.510058E-17
6.060000E+03	1.911817E-15	4.407281E-17
6.070000E+03	1.873736E-15	4.306993E-17
6.080000E+03	1.836953E-15	4.210439E-17
6.090000E+03	1.801909E-15	4.118593E-17
6.100000E+03	1.768873E-15	4.032029E-17
6.110000E+03	1.738050E-15	3.951163E-17
6.120000E+03	1.709553E-15	3.876206E-17
6.130000E+03	1.683361E-15	3.807062E-17
6.140000E+03	1.659496E-15	3.743735E-17
6.150000E+03	1.637872E-15	3.685987E-17
6.160000E+03	1.618387E-15	3.633549E-17
6.170000E+03	1.600891E-15	3.586047E-17
6.180000E+03	1.585198E-15	3.543033E-17
6.190000E+03	1.571145E-15	3.504112E-17
6.200000E+03	1.558503E-15	3.468752E-17
6.210000E+03	1.547085E-15	3.436516E-17
6.220000E+03	1.536668E-15	3.406894E-17
6.230000E+03	1.527122E-15	3.379586E-17
6.240000E+03	1.518274E-15	3.354200E-17
6.250000E+03	1.509984E-15	3.330415E-17
6.260000E+03	1.502122E-15	3.307932E-17
6.270000E+03	1.494586E-15	3.286520E-17
6.280000E+03	1.487329E-15	3.266062E-17
6.290000E+03	1.480278E-15	3.246390E-17
6.300000E+03	1.473485E-15	3.227613E-17
6.310000E+03	1.466938E-15	3.209693E-17
6.320000E+03	1.460701E-15	3.192764E-17
6.330000E+03	1.454833E-15	3.176947E-17
6.340000E+03	1.449404E-15	3.162388E-17
6.350000E+03	1.444485E-15	3.149232E-17
6.360000E+03	1.440160E-15	3.137656E-17
6.370000E+03	1.436466E-15	3.127732E-17
6.380000E+03	1.433480E-15	3.119625E-17
6.390000E+03	1.431190E-15	3.113296E-17
6.400000E+03	1.429615E-15	3.108788E-17
6.410000E+03	1.428740E-15	3.106060E-17
6.420000E+03	1.428532E-15	3.105038E-17
6.430000E+03	1.428966E-15	3.105662E-17
6.440000E+03	1.429928E-15	3.107684E-17
6.450000E+03	1.431426E-15	3.111120E-17
6.460000E+03	1.433355E-15	3.115739E-17
6.470000E+03	1.435680E-15	3.121465E-17
6.480000E+03	1.438381E-15	3.128257E-17
6.490000E+03	1.441460E-15	3.136111E-17
6.500000E+03	1.444912E-15	3.145009E-17
6.510000E+03	1.448750E-15	3.154978E-17
6.520000E+03	1.453029E-15	3.166129E-17
6.530000E+03	1.457855E-15	3.178688E-17
6.540000E+03	1.463364E-15	3.192945E-17
6.550000E+03	1.469863E-15	3.209570E-17
6.560000E+03	1.477556E-15	3.229007E-17
6.570000E+03	1.486692E-15	3.251799E-17
6.580000E+03	1.497380E-15	3.278187E-17
6.590000E+03	1.509585E-15	3.308099E-17
6.600000E+03	1.523163E-15	3.341224E-17
6.610000E+03	1.537867E-15	3.377022E-17
6.620000E+03	1.553291E-15	3.414606E-17
6.630000E+03	1.568985E-15	3.452982E-17
6.640000E+03	1.584384E-15	3.490906E-17
6.650000E+03	1.598956E-15	3.527196E-17
6.660000E+03	1.612067E-15	3.560437E-17
6.670000E+03	1.623179E-15	3.589425E-17
6.680000E+03	1.631783E-15	3.613007E-17
6.690000E+03	1.637447E-15	3.630199E-17
6.700000E+03	1.639863E-15	3.640282E-17
6.710000E+03	1.638756E-15	3.642612E-17
6.720000E+03	1.634070E-15	3.637025E-17
6.730000E+03	1.625817E-15	3.623508E-17
6.740000E+03	1.614100E-15	3.602248E-17
6.750000E+03	1.599178E-15	3.573785E-17
6.760000E+03	1.581352E-15	3.538759E-17
6.770000E+03	1.561054E-15	3.498103E-17
6.780000E+03	1.538752E-15	3.452836E-17
6.790000E+03	1.514963E-15	3.404093E-17
6.800000E+03	1.490227E-15	3.353072E-17
6.810000E+03	1.465080E-15	3.300966E-17
6.820000E+03	1.440121E-15	3.249117E-17
6.830000E+03	1.415867E-15	3.198693E-17
6.840000E+03	1.392834E-15	3.150860E-17
6.850000E+03	1.371476E-15	3.106654E-17
6.860000E+03	1.352286E-15	3.067207E-17
6.870000E+03	1.335580E-15	3.033253E-17
6.880000E+03	1.321728E-15	3.005653E-17
6.890000E+03	1.310954E-15	2.984938E-17
6.900000E+03	1.303511E-15	2.971711E-17
6.910000E+03	1.299543E-15	2.966324E-17
6.920000E+03	1.299082E-15	2.968877E-17
6.930000E+03	1.302174E-15	2.979502E-17
6.940000E+03	1.308744E-15	2.998053E-17
6.950000E+03	1.318591E-15	3.024095E-17
6.960000E+03	1.331517E-15	3.057189E-17
6.970000E+03	1.347181E-15	3.096579E-17
6.980000E+03	1.365127E-15	3.141226E-17
6.990000E+03	1.384829E-15	3.189930E-17
7.000000E+03	1.405683E-15	3.241310E-17
7.010000E+03	1.427053E-15	3.293896E-17
7.020000E+03	1.448227E-15	3.346044E-17
7.030000E+03	1.468543E-15	3.396214E-17
7.040000E+03	1.487332E-15	3.442844E-17
7.050000E+03	1.504043E-15	3.484649E-17
7.060000E+03	1.518179E-15	3.520454E-17
7.070000E+03	1.529388E-15	3.549425E-17
7.080000E+03	1.537487E-15	3.571114E-17
7.090000E+03	1.542383E-15	3.585287E-17
7.100000E+03	1.544182E-15	3.592172E-17
7.110000E+03	1.543063E-15	3.592166E-17
7.120000E+03	1.539366E-15	3.586047E-17
7.130000E+03	1.533484E-15	3.574719E-17
7.140000E+03	1.525831E-15	3.559140E-17
7.150000E+03	1.516862E-15	3.540366E-17
7.160000E+03	1.507083E-15	3.519574E-17
7.170000E+03	1.496825E-15	3.497534E-17
7.180000E+03	1.486535E-15	3.475296E-17
7.190000E+03	1.476490E-15	3.453509E-17
7.200000E+03	1.466897E-15	3.432662E-17
7.210000E+03	1.457979E-15	3.413280E-17
7.220000E+03	1.449779E-15	3.395468E-17
7.230000E+03	1.442382E-15	3.379434E-17
7.240000E+03	1.435740E-15	3.365066E-17
7.250000E+03	1.429804E-15	3.352258E-17
7.260000E+03	1.424433E-15	3.340680E-17
7.270000E+03	1.419508E-15	3.330060E-17
7.280000E+03	1.414864E-15	3.320013E-17
7.290000E+03	1.410349E-15	3.310185E-17
7.300000E+03	1.405756E-15	3.300097E-17
7.310000E+03	1.400939E-15	3.289406E-17
7.320000E+03	1.395740E-15	3.277746E-17
7.330000E+03	1.390023E-15	3.264801E-17
7.340000E+03	1.383710E-15	3.250387E-17
7.350000E+03	1.376751E-15	3.234396E-17
7.360000E+03	1.369075E-15	3.216660E-17
7.370000E+03	1.360694E-15	3.197213E-17
7.380000E+03	1.351621E-15	3.176091E-17
7.390000E+03	1.341917E-15	3.153439E-17
7.400000E+03	1.331633E-15	3.129383E-17
7.410000E+03	1.320830E-15	3.104071E-17
7.420000E+03	1.309542E-15	3.077589E-17
7.430000E+03	1.297893E-15	3.050229E-17
7.440000E+03	1.285886E-15	3.022006E-17
7.450000E+03	1.273580E-15	2.993062E-17
7.460000E+03	1.261054E-15	2.963589E-17
7.470000E+03	1.248334E-15	2.933654E-17
7.480000E+03	1.235441E-15	2.903308E-17
7.490000E+03	1.222426E-15	2.872677E-17
7.500000E+03	1.209315E-15	2.841827E-17
7.510000E+03	1.196190E-15	2.810955E-17
7.520000E+03	1.183060E-15	2.780088E-17
7.530000E+03	1.170023E-15	2.749456E-17
7.540000E+03	1.157156E-15	2.719246E-17
7.550000E+03	1.144500E-15	2.689555E-17
7.560000E+03	1.132154E-15	2.660618E-17
7.570000E+03	1.120243E-15	2.632737E-17
7.580000E+03	1.108875E-15	2.606163E-17
7.590000E+03	1.098101E-15	2.581024E-17
7.600000E+03	1.088046E-15	2.557613E-17
7.610000E+03	1.078803E-15	2.536156E-17
7.620000E+03	1.070468E-15	2.516878E-17
7.630000E+03	1.063132E-15	2.500002E-17
7.640000E+03	1.056863E-15	2.485689E-17
7.650000E+03	1.051754E-15	2.474162E-17
7.660000E+03	1.047834E-15	2.465495E-17
7.670000E+03	1.045123E-15	2.459744E-17
7.680000E+03	1.043644E-15	2.456967E-17
7.690000E+03	1.043367E-15	2.457099E-17
7.700000E+03	1.044203E-15	2.459941E-17
7.710000E+03	1.046063E-15	2.465287E-17
7.720000E+03	1.048853E-15	2.472928E-17
7.730000E+03	1.052426E-15	2.482524E-17
7.740000E+03	1.056593E-15	2.493639E-17
7.750000E+03	1.061171E-15	2.505847E-17
7.760000E+03	1.065989E-15	2.518755E-17
