#wls	flux	fluxerr
1.600000E+03	2.009160E-16	1.181262E-17
1.640000E+03	2.044438E-16	1.199207E-17
1.680000E+03	2.080582E-16	1.217487E-17
1.720000E+03	2.118138E-16	1.236410E-17
1.760000E+03	2.156705E-16	1.255733E-17
1.800000E+03	2.196816E-16	1.275754E-17
1.840000E+03	2.238360E-16	1.296394E-17
1.880000E+03	2.281850E-16	1.317939E-17
1.920000E+03	2.326814E-16	1.340097E-17
1.960000E+03	2.374052E-16	1.363315E-17
2.000000E+03	2.423696E-16	1.387649E-17
2.040000E+03	2.476173E-16	1.413322E-17
2.080000E+03	2.531874E-16	1.440532E-17
2.120000E+03	2.590480E-16	1.469072E-17
2.160000E+03	2.652943E-16	1.499453E-17
2.200000E+03	2.719149E-16	1.531578E-17
2.240000E+03	2.788898E-16	1.565301E-17
2.280000E+03	2.862564E-16	1.600800E-17
2.320000E+03	2.939414E-16	1.637628E-17
2.360000E+03	3.019254E-16	1.675643E-17
2.400000E+03	3.101107E-16	1.714273E-17
2.440000E+03	3.184512E-16	1.753234E-17
2.480000E+03	3.268538E-16	1.791992E-17
2.520000E+03	3.351474E-16	1.829592E-17
2.560000E+03	3.432131E-16	1.865379E-17
2.600000E+03	3.509190E-16	1.898641E-17
2.640000E+03	3.581528E-16	1.928785E-17
2.680000E+03	3.647029E-16	1.954698E-17
2.720000E+03	3.704435E-16	1.975748E-17
2.760000E+03	3.752174E-16	1.991152E-17
2.800000E+03	3.788718E-16	2.000171E-17
2.840000E+03	3.812130E-16	2.001871E-17
2.880000E+03	3.820983E-16	1.995611E-17
2.920000E+03	3.814621E-16	1.981171E-17
2.960000E+03	3.792678E-16	1.958495E-17
3.000000E+03	3.755988E-16	1.928152E-17
3.010000E+03	3.744717E-16	1.919490E-17
3.020000E+03	3.732561E-16	1.910378E-17
3.030000E+03	3.719524E-16	1.900821E-17
3.040000E+03	3.705810E-16	1.890924E-17
3.050000E+03	3.691220E-16	1.880589E-17
3.060000E+03	3.676151E-16	1.870018E-17
3.070000E+03	3.660219E-16	1.859019E-17
3.080000E+03	3.643624E-16	1.847695E-17
3.090000E+03	3.626557E-16	1.836145E-17
3.100000E+03	3.608842E-16	1.824280E-17
3.110000E+03	3.590667E-16	1.812199E-17
3.120000E+03	3.572039E-16	1.799904E-17
3.130000E+03	3.552968E-16	1.787403E-17
3.140000E+03	3.533298E-16	1.774619E-17
3.150000E+03	3.513547E-16	1.761813E-17
3.160000E+03	3.493389E-16	1.748822E-17
3.170000E+03	3.473004E-16	1.735737E-17
3.180000E+03	3.452404E-16	1.722566E-17
3.190000E+03	3.431759E-16	1.709394E-17
3.200000E+03	3.410929E-16	1.696151E-17
3.210000E+03	3.390082E-16	1.682921E-17
3.220000E+03	3.369234E-16	1.669714E-17
3.230000E+03	3.348404E-16	1.656537E-17
3.240000E+03	3.327750E-16	1.643471E-17
3.250000E+03	3.307289E-16	1.630522E-17
3.260000E+03	3.287172E-16	1.617765E-17
3.270000E+03	3.267284E-16	1.605142E-17
3.280000E+03	3.247775E-16	1.592728E-17
3.290000E+03	3.228667E-16	1.580532E-17
3.300000E+03	3.210105E-16	1.568623E-17
3.310000E+03	3.191990E-16	1.556953E-17
3.320000E+03	3.174585E-16	1.545648E-17
3.330000E+03	3.157909E-16	1.534717E-17
3.340000E+03	3.141874E-16	1.524114E-17
3.350000E+03	3.126732E-16	1.513960E-17
3.360000E+03	3.112400E-16	1.504213E-17
3.370000E+03	3.099127E-16	1.494991E-17
3.380000E+03	3.086833E-16	1.486253E-17
3.390000E+03	3.075557E-16	1.478015E-17
3.400000E+03	3.065540E-16	1.470389E-17
3.410000E+03	3.056720E-16	1.463343E-17
3.420000E+03	3.049238E-16	1.456942E-17
3.430000E+03	3.043140E-16	1.451203E-17
3.440000E+03	3.038480E-16	1.446148E-17
3.450000E+03	3.035315E-16	1.441800E-17
3.460000E+03	3.033795E-16	1.438227E-17
3.470000E+03	3.033899E-16	1.435414E-17
3.480000E+03	3.035788E-16	1.433432E-17
3.490000E+03	3.039455E-16	1.432273E-17
3.500000E+03	3.044987E-16	1.431973E-17
3.510000E+03	3.052397E-16	1.432533E-17
3.520000E+03	3.061868E-16	1.434032E-17
3.530000E+03	3.073348E-16	1.436441E-17
3.540000E+03	3.086955E-16	1.439808E-17
3.550000E+03	3.102735E-16	1.444150E-17
3.560000E+03	3.120743E-16	1.449484E-17
3.570000E+03	3.141197E-16	1.455905E-17
3.580000E+03	3.163935E-16	1.463331E-17
3.590000E+03	3.189190E-16	1.471863E-17
3.600000E+03	3.217046E-16	1.481530E-17
3.610000E+03	3.247518E-16	1.492334E-17
3.620000E+03	3.280709E-16	1.504312E-17
3.630000E+03	3.316720E-16	1.517503E-17
3.640000E+03	3.355801E-16	1.532011E-17
3.650000E+03	3.397985E-16	1.547842E-17
3.660000E+03	3.443451E-16	1.565068E-17
3.670000E+03	3.492373E-16	1.583758E-17
3.680000E+03	3.544854E-16	1.603946E-17
3.690000E+03	3.601137E-16	1.625731E-17
3.700000E+03	3.661241E-16	1.649111E-17
3.710000E+03	3.725396E-16	1.674175E-17
3.720000E+03	3.793680E-16	1.700945E-17
3.730000E+03	3.866229E-16	1.729470E-17
3.740000E+03	3.943167E-16	1.759791E-17
3.750000E+03	4.024530E-16	1.791909E-17
3.760000E+03	4.110480E-16	1.825881E-17
3.770000E+03	4.201008E-16	1.861690E-17
3.780000E+03	4.296082E-16	1.899304E-17
3.790000E+03	4.395786E-16	1.938747E-17
3.800000E+03	4.500096E-16	1.979993E-17
3.810000E+03	4.608801E-16	2.022932E-17
3.820000E+03	4.721874E-16	2.067539E-17
3.830000E+03	4.839169E-16	2.113735E-17
3.840000E+03	4.960410E-16	2.161386E-17
3.850000E+03	5.085351E-16	2.210370E-17
3.860000E+03	5.213686E-16	2.260543E-17
3.870000E+03	5.344972E-16	2.311700E-17
3.880000E+03	5.478792E-16	2.363652E-17
3.890000E+03	5.614748E-16	2.416218E-17
3.900000E+03	5.752225E-16	2.469125E-17
3.910000E+03	5.890539E-16	2.522077E-17
3.920000E+03	6.029131E-16	2.574829E-17
3.930000E+03	6.167216E-16	2.627046E-17
3.940000E+03	6.304057E-16	2.678416E-17
3.950000E+03	6.438881E-16	2.728615E-17
3.960000E+03	6.570893E-16	2.777311E-17
3.970000E+03	6.699185E-16	2.824132E-17
3.980000E+03	6.822928E-16	2.868739E-17
3.990000E+03	6.941390E-16	2.910842E-17
4.000000E+03	7.053665E-16	2.950077E-17
4.010000E+03	7.158859E-16	2.986092E-17
4.020000E+03	7.256308E-16	3.018635E-17
4.030000E+03	7.345311E-16	3.047440E-17
4.040000E+03	7.425164E-16	3.072244E-17
4.050000E+03	7.495254E-16	3.092825E-17
4.060000E+03	7.555416E-16	3.109147E-17
4.070000E+03	7.605430E-16	3.121154E-17
4.080000E+03	7.645254E-16	3.128864E-17
4.090000E+03	7.675144E-16	3.132415E-17
4.100000E+03	7.695591E-16	3.132042E-17
4.110000E+03	7.707358E-16	3.128085E-17
4.120000E+03	7.711043E-16	3.120818E-17
4.130000E+03	7.707541E-16	3.110630E-17
4.140000E+03	7.697820E-16	3.097935E-17
4.150000E+03	7.682956E-16	3.083187E-17
4.160000E+03	7.663739E-16	3.066720E-17
4.170000E+03	7.641117E-16	3.048927E-17
4.180000E+03	7.616098E-16	3.030224E-17
4.190000E+03	7.589380E-16	3.010893E-17
4.200000E+03	7.561789E-16	2.991271E-17
4.210000E+03	7.534182E-16	2.971697E-17
4.220000E+03	7.507085E-16	2.952379E-17
4.230000E+03	7.481141E-16	2.933569E-17
4.240000E+03	7.456938E-16	2.915493E-17
4.250000E+03	7.435005E-16	2.898351E-17
4.260000E+03	7.415738E-16	2.882291E-17
4.270000E+03	7.399501E-16	2.867446E-17
4.280000E+03	7.386789E-16	2.853995E-17
4.290000E+03	7.377917E-16	2.842050E-17
4.300000E+03	7.373284E-16	2.831750E-17
4.310000E+03	7.373235E-16	2.823214E-17
4.320000E+03	7.378307E-16	2.816631E-17
4.330000E+03	7.388888E-16	2.812133E-17
4.340000E+03	7.405438E-16	2.809874E-17
4.350000E+03	7.428529E-16	2.810052E-17
4.360000E+03	7.458687E-16	2.812843E-17
4.370000E+03	7.496440E-16	2.818421E-17
4.380000E+03	7.542450E-16	2.827010E-17
4.390000E+03	7.597413E-16	2.838840E-17
4.400000E+03	7.661991E-16	2.854130E-17
4.410000E+03	7.737054E-16	2.873168E-17
4.420000E+03	7.823339E-16	2.896194E-17
4.430000E+03	7.921538E-16	2.923423E-17
4.440000E+03	8.032409E-16	2.955096E-17
4.450000E+03	8.156560E-16	2.991392E-17
4.460000E+03	8.294287E-16	3.032375E-17
4.470000E+03	8.446014E-16	3.078155E-17
4.480000E+03	8.611688E-16	3.128663E-17
4.490000E+03	8.791282E-16	3.183846E-17
4.500000E+03	8.984307E-16	3.243477E-17
4.510000E+03	9.190309E-16	3.307351E-17
4.520000E+03	9.408102E-16	3.374997E-17
4.530000E+03	9.636557E-16	3.445973E-17
4.540000E+03	9.874007E-16	3.519651E-17
4.550000E+03	1.011812E-15	3.595171E-17
4.560000E+03	1.036657E-15	3.671692E-17
4.570000E+03	1.061629E-15	3.748114E-17
4.580000E+03	1.086418E-15	3.823345E-17
4.590000E+03	1.110655E-15	3.896099E-17
4.600000E+03	1.133997E-15	3.965198E-17
4.610000E+03	1.156070E-15	4.029368E-17
4.620000E+03	1.176519E-15	4.087424E-17
4.630000E+03	1.195011E-15	4.138268E-17
4.640000E+03	1.211255E-15	4.180961E-17
4.650000E+03	1.224955E-15	4.214565E-17
4.660000E+03	1.235891E-15	4.238415E-17
4.670000E+03	1.243851E-15	4.251873E-17
4.680000E+03	1.248692E-15	4.254559E-17
4.690000E+03	1.250330E-15	4.246289E-17
4.700000E+03	1.248763E-15	4.227163E-17
4.710000E+03	1.244041E-15	4.197459E-17
4.720000E+03	1.236331E-15	4.157843E-17
4.730000E+03	1.225894E-15	4.109292E-17
4.740000E+03	1.213038E-15	4.052919E-17
4.750000E+03	1.198212E-15	3.990301E-17
4.760000E+03	1.181839E-15	3.922908E-17
4.770000E+03	1.164436E-15	3.852497E-17
4.780000E+03	1.146476E-15	3.780666E-17
4.790000E+03	1.128472E-15	3.709114E-17
4.800000E+03	1.110912E-15	3.639440E-17
4.810000E+03	1.094232E-15	3.573056E-17
4.820000E+03	1.078853E-15	3.511299E-17
4.830000E+03	1.065143E-15	3.455326E-17
4.840000E+03	1.053427E-15	3.406128E-17
4.850000E+03	1.043948E-15	3.364426E-17
4.860000E+03	1.036910E-15	3.330808E-17
4.870000E+03	1.032457E-15	3.305653E-17
4.880000E+03	1.030671E-15	3.289141E-17
4.890000E+03	1.031582E-15	3.281284E-17
4.900000E+03	1.035141E-15	3.281838E-17
4.910000E+03	1.041266E-15	3.290467E-17
4.920000E+03	1.049803E-15	3.306601E-17
4.930000E+03	1.060522E-15	3.329447E-17
4.940000E+03	1.073117E-15	3.357977E-17
4.950000E+03	1.087183E-15	3.390874E-17
4.960000E+03	1.102254E-15	3.426641E-17
4.970000E+03	1.117733E-15	3.463403E-17
4.980000E+03	1.132943E-15	3.499052E-17
4.990000E+03	1.147211E-15	3.531530E-17
5.000000E+03	1.159892E-15	3.558886E-17
5.010000E+03	1.170415E-15	3.579424E-17
5.020000E+03	1.178331E-15	3.591834E-17
5.030000E+03	1.183425E-15	3.595551E-17
5.040000E+03	1.185708E-15	3.590682E-17
5.050000E+03	1.185300E-15	3.577683E-17
5.060000E+03	1.182544E-15	3.557659E-17
5.070000E+03	1.177858E-15	3.531935E-17
5.080000E+03	1.171744E-15	3.502068E-17
5.090000E+03	1.164680E-15	3.469523E-17
5.100000E+03	1.157138E-15	3.435727E-17
5.110000E+03	1.149584E-15	3.402071E-17
5.120000E+03	1.142363E-15	3.369577E-17
5.130000E+03	1.135804E-15	3.339199E-17
5.140000E+03	1.130176E-15	3.311708E-17
5.150000E+03	1.125674E-15	3.287640E-17
5.160000E+03	1.122469E-15	3.267464E-17
5.170000E+03	1.120696E-15	3.251532E-17
5.180000E+03	1.120487E-15	3.240186E-17
5.190000E+03	1.121939E-15	3.233658E-17
5.200000E+03	1.125151E-15	3.232190E-17
5.210000E+03	1.130196E-15	3.235935E-17
5.220000E+03	1.137134E-15	3.245014E-17
5.230000E+03	1.145986E-15	3.259438E-17
5.240000E+03	1.156756E-15	3.279158E-17
5.250000E+03	1.169367E-15	3.303908E-17
5.260000E+03	1.183731E-15	3.333388E-17
5.270000E+03	1.199713E-15	3.367171E-17
5.280000E+03	1.217113E-15	3.404655E-17
5.290000E+03	1.235711E-15	3.445188E-17
5.300000E+03	1.255239E-15	3.487993E-17
5.310000E+03	1.275381E-15	3.532171E-17
5.320000E+03	1.295832E-15	3.576866E-17
5.330000E+03	1.316264E-15	3.621169E-17
5.340000E+03	1.336318E-15	3.664102E-17
5.350000E+03	1.355697E-15	3.704862E-17
5.360000E+03	1.374141E-15	3.742763E-17
5.370000E+03	1.391425E-15	3.777220E-17
5.380000E+03	1.407329E-15	3.807678E-17
5.390000E+03	1.421725E-15	3.833827E-17
5.400000E+03	1.434473E-15	3.855333E-17
5.410000E+03	1.445458E-15	3.871938E-17
5.420000E+03	1.454593E-15	3.883458E-17
5.430000E+03	1.461822E-15	3.889796E-17
5.440000E+03	1.467070E-15	3.890805E-17
5.450000E+03	1.470267E-15	3.886354E-17
5.460000E+03	1.471378E-15	3.876409E-17
5.470000E+03	1.470287E-15	3.860718E-17
5.480000E+03	1.466908E-15	3.839120E-17
5.490000E+03	1.461049E-15	3.811170E-17
5.500000E+03	1.452506E-15	3.776405E-17
5.510000E+03	1.441024E-15	3.734234E-17
5.520000E+03	1.426292E-15	3.683929E-17
5.530000E+03	1.408089E-15	3.625000E-17
5.540000E+03	1.386249E-15	3.557109E-17
5.550000E+03	1.360689E-15	3.480130E-17
5.560000E+03	1.331494E-15	3.394372E-17
5.570000E+03	1.298933E-15	3.300604E-17
5.580000E+03	1.263444E-15	3.200013E-17
5.590000E+03	1.225600E-15	3.094116E-17
5.600000E+03	1.186119E-15	2.984770E-17
5.610000E+03	1.145801E-15	2.874016E-17
5.620000E+03	1.105468E-15	2.763927E-17
5.630000E+03	1.065997E-15	2.656682E-17
5.640000E+03	1.028212E-15	2.554306E-17
5.650000E+03	9.928636E-16	2.458607E-17
5.660000E+03	9.606371E-16	2.371218E-17
5.670000E+03	9.321381E-16	2.293549E-17
5.680000E+03	9.078880E-16	2.226789E-17
5.690000E+03	8.882964E-16	2.171837E-17
5.700000E+03	8.737681E-16	2.129568E-17
5.710000E+03	8.646125E-16	2.100615E-17
5.720000E+03	8.611014E-16	2.085512E-17
5.730000E+03	8.634949E-16	2.084757E-17
5.740000E+03	8.720407E-16	2.098814E-17
5.750000E+03	8.868919E-16	2.127912E-17
5.760000E+03	9.081965E-16	2.172266E-17
5.770000E+03	9.360709E-16	2.232013E-17
5.780000E+03	9.705653E-16	2.307132E-17
5.790000E+03	1.011632E-15	2.397371E-17
5.800000E+03	1.059130E-15	2.502257E-17
5.810000E+03	1.112698E-15	2.620812E-17
5.820000E+03	1.171766E-15	2.751573E-17
5.830000E+03	1.235570E-15	2.892646E-17
5.840000E+03	1.303161E-15	3.041725E-17
5.850000E+03	1.373375E-15	3.196039E-17
5.860000E+03	1.444824E-15	3.352323E-17
5.870000E+03	1.516026E-15	3.507137E-17
5.880000E+03	1.585328E-15	3.656691E-17
5.890000E+03	1.651042E-15	3.797158E-17
5.900000E+03	1.711491E-15	3.924777E-17
5.910000E+03	1.765130E-15	4.036133E-17
5.920000E+03	1.810607E-15	4.128298E-17
5.930000E+03	1.846923E-15	4.199170E-17
5.940000E+03	1.873445E-15	4.247501E-17
5.950000E+03	1.889938E-15	4.272960E-17
5.960000E+03	1.896622E-15	4.276237E-17
5.970000E+03	1.894122E-15	4.258929E-17
5.980000E+03	1.883309E-15	4.223160E-17
5.990000E+03	1.865293E-15	4.171568E-17
6.000000E+03	1.841326E-15	4.107073E-17
6.010000E+03	1.812694E-15	4.032640E-17
6.020000E+03	1.780648E-15	3.951125E-17
6.030000E+03	1.746378E-15	3.865213E-17
6.040000E+03	1.710958E-15	3.777310E-17
6.050000E+03	1.675259E-15	3.689346E-17
6.060000E+03	1.640015E-15	3.602932E-17
6.070000E+03	1.605829E-15	3.519377E-17
6.080000E+03	1.573093E-15	3.439517E-17
6.090000E+03	1.542108E-15	3.363976E-17
6.100000E+03	1.513072E-15	3.293154E-17
6.110000E+03	1.486089E-15	3.227244E-17
6.120000E+03	1.461184E-15	3.166264E-17
6.130000E+03	1.438351E-15	3.110166E-17
6.140000E+03	1.417544E-15	3.058823E-17
6.150000E+03	1.398684E-15	3.012028E-17
6.160000E+03	1.381725E-15	2.969657E-17
6.170000E+03	1.366559E-15	2.931449E-17
6.180000E+03	1.353099E-15	2.897200E-17
6.190000E+03	1.341276E-15	2.866734E-17
6.200000E+03	1.330970E-15	2.839777E-17
6.210000E+03	1.322048E-15	2.816030E-17
6.220000E+03	1.314369E-15	2.795176E-17
6.230000E+03	1.307797E-15	2.776918E-17
6.240000E+03	1.302172E-15	2.760904E-17
6.250000E+03	1.297301E-15	2.746712E-17
6.260000E+03	1.293037E-15	2.734025E-17
6.270000E+03	1.289210E-15	2.722475E-17
6.280000E+03	1.285679E-15	2.711756E-17
6.290000E+03	1.282307E-15	2.701578E-17
6.300000E+03	1.279011E-15	2.691762E-17
6.310000E+03	1.275719E-15	2.682149E-17
6.320000E+03	1.272391E-15	2.672657E-17
6.330000E+03	1.268989E-15	2.663205E-17
6.340000E+03	1.265547E-15	2.653857E-17
6.350000E+03	1.262055E-15	2.644593E-17
6.360000E+03	1.258550E-15	2.635487E-17
6.370000E+03	1.255097E-15	2.626675E-17
6.380000E+03	1.251710E-15	2.618180E-17
6.390000E+03	1.248427E-15	2.610079E-17
6.400000E+03	1.245287E-15	2.602454E-17
6.410000E+03	1.242300E-15	2.595319E-17
6.420000E+03	1.239458E-15	2.588657E-17
6.430000E+03	1.236736E-15	2.582414E-17
6.440000E+03	1.234109E-15	2.576534E-17
6.450000E+03	1.231590E-15	2.571041E-17
6.460000E+03	1.229161E-15	2.565897E-17
6.470000E+03	1.226860E-15	2.561177E-17
6.480000E+03	1.224748E-15	2.557009E-17
6.490000E+03	1.222941E-15	2.553630E-17
6.500000E+03	1.221518E-15	2.551200E-17
6.510000E+03	1.220641E-15	2.550047E-17
6.520000E+03	1.220479E-15	2.550526E-17
6.530000E+03	1.221217E-15	2.553016E-17
6.540000E+03	1.223071E-15	2.557965E-17
6.550000E+03	1.226332E-15	2.565982E-17
6.560000E+03	1.231202E-15	2.577487E-17
6.570000E+03	1.237908E-15	2.592958E-17
6.580000E+03	1.246519E-15	2.612542E-17
6.590000E+03	1.256975E-15	2.636118E-17
6.600000E+03	1.269104E-15	2.663327E-17
6.610000E+03	1.282563E-15	2.693454E-17
6.620000E+03	1.296945E-15	2.725648E-17
6.630000E+03	1.311761E-15	2.758883E-17
6.640000E+03	1.326443E-15	2.791960E-17
6.650000E+03	1.340438E-15	2.823713E-17
6.660000E+03	1.353171E-15	2.852920E-17
6.670000E+03	1.364116E-15	2.878465E-17
6.680000E+03	1.372780E-15	2.899291E-17
6.690000E+03	1.378835E-15	2.914686E-17
6.700000E+03	1.381941E-15	2.923915E-17
6.710000E+03	1.381931E-15	2.926604E-17
6.720000E+03	1.378776E-15	2.922662E-17
6.730000E+03	1.372457E-15	2.912029E-17
6.740000E+03	1.363146E-15	2.895046E-17
6.750000E+03	1.351035E-15	2.872096E-17
6.760000E+03	1.336403E-15	2.843752E-17
6.770000E+03	1.319594E-15	2.810726E-17
6.780000E+03	1.301017E-15	2.773871E-17
6.790000E+03	1.281069E-15	2.734020E-17
6.800000E+03	1.260236E-15	2.692195E-17
6.810000E+03	1.238972E-15	2.649365E-17
6.820000E+03	1.217753E-15	2.606536E-17
6.830000E+03	1.197107E-15	2.564838E-17
6.840000E+03	1.177455E-15	2.525177E-17
6.850000E+03	1.159285E-15	2.488602E-17
6.860000E+03	1.142954E-15	2.455888E-17
6.870000E+03	1.128815E-15	2.427805E-17
6.880000E+03	1.117197E-15	2.405069E-17
6.890000E+03	1.108363E-15	2.388264E-17
6.900000E+03	1.102526E-15	2.377862E-17
6.910000E+03	1.099871E-15	2.374279E-17
6.920000E+03	1.100477E-15	2.377703E-17
6.930000E+03	1.104348E-15	2.388158E-17
6.940000E+03	1.111456E-15	2.405600E-17
6.950000E+03	1.121717E-15	2.429862E-17
6.960000E+03	1.134896E-15	2.460451E-17
6.970000E+03	1.150777E-15	2.496911E-17
6.980000E+03	1.168909E-15	2.538271E-17
6.990000E+03	1.188770E-15	2.583406E-17
7.000000E+03	1.209759E-15	2.631017E-17
7.010000E+03	1.231238E-15	2.679711E-17
7.020000E+03	1.252406E-15	2.727748E-17
7.030000E+03	1.272576E-15	2.773622E-17
7.040000E+03	1.291087E-15	2.815882E-17
7.050000E+03	1.307382E-15	2.853303E-17
7.060000E+03	1.320950E-15	2.884758E-17
7.070000E+03	1.331474E-15	2.909538E-17
7.080000E+03	1.338783E-15	2.927257E-17
7.090000E+03	1.342801E-15	2.937730E-17
7.100000E+03	1.343688E-15	2.941300E-17
7.110000E+03	1.341764E-15	2.938650E-17
7.120000E+03	1.337383E-15	2.930549E-17
7.130000E+03	1.331017E-15	2.918024E-17
7.140000E+03	1.323184E-15	2.902205E-17
7.150000E+03	1.314412E-15	2.884246E-17
7.160000E+03	1.305137E-15	2.865105E-17
7.170000E+03	1.295804E-15	2.845760E-17
7.180000E+03	1.286736E-15	2.826919E-17
7.190000E+03	1.278263E-15	2.809313E-17
7.200000E+03	1.270546E-15	2.793296E-17
7.210000E+03	1.263722E-15	2.779175E-17
7.220000E+03	1.257856E-15	2.767097E-17
7.230000E+03	1.252862E-15	2.756875E-17
7.240000E+03	1.248686E-15	2.748393E-17
7.250000E+03	1.245165E-15	2.741296E-17
7.260000E+03	1.242197E-15	2.735363E-17
7.270000E+03	1.239530E-15	2.730040E-17
7.280000E+03	1.236976E-15	2.724916E-17
7.290000E+03	1.234364E-15	2.719614E-17
7.300000E+03	1.231433E-15	2.713565E-17
7.310000E+03	1.228005E-15	2.706376E-17
7.320000E+03	1.223869E-15	2.697583E-17
7.330000E+03	1.218937E-15	2.686994E-17
7.340000E+03	1.213041E-15	2.674242E-17
7.350000E+03	1.206167E-15	2.659296E-17
7.360000E+03	1.198290E-15	2.642104E-17
7.370000E+03	1.189414E-15	2.622681E-17
7.380000E+03	1.179647E-15	2.601262E-17
7.390000E+03	1.169053E-15	2.577994E-17
7.400000E+03	1.157729E-15	2.553092E-17
7.410000E+03	1.145851E-15	2.526951E-17
7.420000E+03	1.133527E-15	2.499809E-17
7.430000E+03	1.120851E-15	2.471877E-17
7.440000E+03	1.107886E-15	2.443299E-17
7.450000E+03	1.094736E-15	2.414303E-17
7.460000E+03	1.081468E-15	2.385046E-17
7.470000E+03	1.068147E-15	2.355670E-17
7.480000E+03	1.054816E-15	2.326276E-17
7.490000E+03	1.041553E-15	2.297036E-17
7.500000E+03	1.028375E-15	2.267992E-17
7.510000E+03	1.015372E-15	2.239344E-17
7.520000E+03	1.002545E-15	2.211098E-17
7.530000E+03	9.899588E-16	2.183397E-17
7.540000E+03	9.776458E-16	2.156317E-17
7.550000E+03	9.656732E-16	2.130006E-17
7.560000E+03	9.541740E-16	2.104760E-17
7.570000E+03	9.432067E-16	2.080710E-17
7.580000E+03	9.328650E-16	2.058064E-17
7.590000E+03	9.232588E-16	2.037068E-17
7.600000E+03	9.144551E-16	2.017871E-17
7.610000E+03	9.065131E-16	2.000606E-17
7.620000E+03	8.995404E-16	1.985514E-17
7.630000E+03	8.935649E-16	1.972658E-17
7.640000E+03	8.886383E-16	1.962157E-17
7.650000E+03	8.848404E-16	1.954190E-17
7.660000E+03	8.821443E-16	1.948702E-17
7.670000E+03	8.805797E-16	1.945762E-17
7.680000E+03	8.801227E-16	1.945323E-17
7.690000E+03	8.806961E-16	1.947219E-17
7.700000E+03	8.822628E-16	1.951374E-17
7.710000E+03	8.847123E-16	1.957548E-17
7.720000E+03	8.879334E-16	1.965503E-17
7.730000E+03	8.918051E-16	1.974976E-17
7.740000E+03	8.961333E-16	1.985544E-17
7.750000E+03	9.007837E-16	1.996914E-17
7.760000E+03	9.055514E-16	2.008639E-17
