#wls	flux	fluxerr
1.600000E+03	2.000032E-16	9.921382E-18
1.640000E+03	2.039502E-16	1.009703E-17
1.680000E+03	2.080550E-16	1.027917E-17
1.720000E+03	2.122815E-16	1.046593E-17
1.760000E+03	2.167124E-16	1.066128E-17
1.800000E+03	2.213092E-16	1.086324E-17
1.840000E+03	2.260923E-16	1.107269E-17
1.880000E+03	2.310806E-16	1.129044E-17
1.920000E+03	2.363221E-16	1.151871E-17
1.960000E+03	2.418324E-16	1.175810E-17
2.000000E+03	2.476238E-16	1.200906E-17
2.040000E+03	2.537372E-16	1.227339E-17
2.080000E+03	2.602095E-16	1.255269E-17
2.120000E+03	2.670730E-16	1.284827E-17
2.160000E+03	2.744179E-16	1.316425E-17
2.200000E+03	2.821994E-16	1.349819E-17
2.240000E+03	2.904918E-16	1.385336E-17
2.280000E+03	2.992626E-16	1.422790E-17
2.320000E+03	3.085629E-16	1.462391E-17
2.360000E+03	3.183017E-16	1.503675E-17
2.400000E+03	3.284679E-16	1.546557E-17
2.440000E+03	3.389375E-16	1.590423E-17
2.480000E+03	3.496319E-16	1.634876E-17
2.520000E+03	3.604217E-16	1.679290E-17
2.560000E+03	3.711278E-16	1.722815E-17
2.600000E+03	3.816144E-16	1.764813E-17
2.640000E+03	3.916673E-16	1.804294E-17
2.680000E+03	4.011455E-16	1.840622E-17
2.720000E+03	4.098069E-16	1.872709E-17
2.760000E+03	4.174590E-16	1.899712E-17
2.800000E+03	4.238781E-16	1.920665E-17
2.840000E+03	4.288470E-16	1.934649E-17
2.880000E+03	4.321868E-16	1.940941E-17
2.920000E+03	4.336946E-16	1.938728E-17
2.960000E+03	4.333613E-16	1.928077E-17
3.000000E+03	4.312184E-16	1.909247E-17
3.010000E+03	4.304256E-16	1.903388E-17
3.020000E+03	4.295124E-16	1.896995E-17
3.030000E+03	4.284980E-16	1.890154E-17
3.040000E+03	4.273810E-16	1.882861E-17
3.050000E+03	4.261798E-16	1.875198E-17
3.060000E+03	4.248926E-16	1.867160E-17
3.070000E+03	4.235000E-16	1.858661E-17
3.080000E+03	4.220384E-16	1.849865E-17
3.090000E+03	4.204884E-16	1.840687E-17
3.100000E+03	4.188675E-16	1.831205E-17
3.110000E+03	4.171578E-16	1.821343E-17
3.120000E+03	4.153937E-16	1.811252E-17
3.130000E+03	4.135578E-16	1.800858E-17
3.140000E+03	4.116668E-16	1.790234E-17
3.150000E+03	4.097207E-16	1.779381E-17
3.160000E+03	4.077198E-16	1.768303E-17
3.170000E+03	4.056803E-16	1.757070E-17
3.180000E+03	4.036024E-16	1.745684E-17
3.190000E+03	4.014870E-16	1.734149E-17
3.200000E+03	3.993495E-16	1.722534E-17
3.210000E+03	3.971907E-16	1.710841E-17
3.220000E+03	3.950118E-16	1.699077E-17
3.230000E+03	3.928278E-16	1.687308E-17
3.240000E+03	3.906402E-16	1.675538E-17
3.250000E+03	3.884503E-16	1.663774E-17
3.260000E+03	3.862733E-16	1.652082E-17
3.270000E+03	3.841233E-16	1.640522E-17
3.280000E+03	3.819895E-16	1.629046E-17
3.290000E+03	3.798987E-16	1.617770E-17
3.300000E+03	3.778292E-16	1.606600E-17
3.310000E+03	3.758190E-16	1.595698E-17
3.320000E+03	3.738589E-16	1.585023E-17
3.330000E+03	3.719522E-16	1.574589E-17
3.340000E+03	3.701242E-16	1.564501E-17
3.350000E+03	3.683672E-16	1.554727E-17
3.360000E+03	3.666857E-16	1.545282E-17
3.370000E+03	3.651044E-16	1.536272E-17
3.380000E+03	3.636177E-16	1.527669E-17
3.390000E+03	3.622310E-16	1.519495E-17
3.400000E+03	3.609596E-16	1.511813E-17
3.410000E+03	3.598098E-16	1.504645E-17
3.420000E+03	3.587881E-16	1.498018E-17
3.430000E+03	3.579020E-16	1.491960E-17
3.440000E+03	3.571511E-16	1.486467E-17
3.450000E+03	3.565530E-16	1.481609E-17
3.460000E+03	3.561171E-16	1.477422E-17
3.470000E+03	3.558293E-16	1.473846E-17
3.480000E+03	3.557180E-16	1.470993E-17
3.490000E+03	3.557794E-16	1.468846E-17
3.500000E+03	3.560192E-16	1.467423E-17
3.510000E+03	3.564445E-16	1.466751E-17
3.520000E+03	3.570557E-16	1.466828E-17
3.530000E+03	3.578622E-16	1.467688E-17
3.540000E+03	3.588670E-16	1.469340E-17
3.550000E+03	3.600887E-16	1.471854E-17
3.560000E+03	3.615318E-16	1.475246E-17
3.570000E+03	3.632021E-16	1.479534E-17
3.580000E+03	3.651129E-16	1.484767E-17
3.590000E+03	3.672713E-16	1.490969E-17
3.600000E+03	3.696782E-16	1.498138E-17
3.610000E+03	3.723486E-16	1.506330E-17
3.620000E+03	3.752847E-16	1.515548E-17
3.630000E+03	3.785220E-16	1.525929E-17
3.640000E+03	3.820619E-16	1.537471E-17
3.650000E+03	3.859393E-16	1.550309E-17
3.660000E+03	3.901812E-16	1.564543E-17
3.670000E+03	3.947948E-16	1.580194E-17
3.680000E+03	3.998059E-16	1.597357E-17
3.690000E+03	4.052398E-16	1.616123E-17
3.700000E+03	4.111144E-16	1.636554E-17
3.710000E+03	4.174400E-16	1.658681E-17
3.720000E+03	4.242318E-16	1.682555E-17
3.730000E+03	4.315103E-16	1.708245E-17
3.740000E+03	4.392812E-16	1.735762E-17
3.750000E+03	4.475611E-16	1.765162E-17
3.760000E+03	4.563508E-16	1.796434E-17
3.770000E+03	4.656618E-16	1.829613E-17
3.780000E+03	4.754818E-16	1.864638E-17
3.790000E+03	4.858221E-16	1.901541E-17
3.800000E+03	4.966625E-16	1.940230E-17
3.810000E+03	5.079983E-16	1.980676E-17
3.820000E+03	5.198136E-16	2.022804E-17
3.830000E+03	5.320863E-16	2.066518E-17
3.840000E+03	5.447813E-16	2.111670E-17
3.850000E+03	5.578645E-16	2.158117E-17
3.860000E+03	5.713026E-16	2.205721E-17
3.870000E+03	5.850485E-16	2.254292E-17
3.880000E+03	5.990327E-16	2.303555E-17
3.890000E+03	6.132101E-16	2.353330E-17
3.900000E+03	6.275057E-16	2.403325E-17
3.910000E+03	6.418465E-16	2.453257E-17
3.920000E+03	6.561542E-16	2.502825E-17
3.930000E+03	6.703540E-16	2.551745E-17
3.940000E+03	6.843426E-16	2.599627E-17
3.950000E+03	6.980394E-16	2.646169E-17
3.960000E+03	7.113622E-16	2.691066E-17
3.970000E+03	7.242031E-16	2.733918E-17
3.980000E+03	7.364898E-16	2.774466E-17
3.990000E+03	7.481178E-16	2.812328E-17
4.000000E+03	7.590218E-16	2.847274E-17
4.010000E+03	7.691063E-16	2.878964E-17
4.020000E+03	7.783192E-16	2.907223E-17
4.030000E+03	7.865819E-16	2.931777E-17
4.040000E+03	7.938634E-16	2.952536E-17
4.050000E+03	8.001201E-16	2.969359E-17
4.060000E+03	8.053254E-16	2.982175E-17
4.070000E+03	8.094992E-16	2.991080E-17
4.080000E+03	8.126540E-16	2.996147E-17
4.090000E+03	8.148235E-16	2.997524E-17
4.100000E+03	8.160792E-16	2.995498E-17
4.110000E+03	8.165095E-16	2.990415E-17
4.120000E+03	8.161803E-16	2.982537E-17
4.130000E+03	8.152204E-16	2.972352E-17
4.140000E+03	8.137197E-16	2.960203E-17
4.150000E+03	8.117873E-16	2.946499E-17
4.160000E+03	8.095301E-16	2.931639E-17
4.170000E+03	8.070511E-16	2.916003E-17
4.180000E+03	8.044391E-16	2.899918E-17
4.190000E+03	8.017933E-16	2.883743E-17
4.200000E+03	7.991800E-16	2.867718E-17
4.210000E+03	7.966831E-16	2.852143E-17
4.220000E+03	7.943537E-16	2.837198E-17
4.230000E+03	7.922522E-16	2.823094E-17
4.240000E+03	7.904321E-16	2.810017E-17
4.250000E+03	7.889248E-16	2.798070E-17
4.260000E+03	7.877731E-16	2.787399E-17
4.270000E+03	7.870076E-16	2.778102E-17
4.280000E+03	7.866562E-16	2.770268E-17
4.290000E+03	7.867454E-16	2.763981E-17
4.300000E+03	7.872944E-16	2.759296E-17
4.310000E+03	7.883396E-16	2.756331E-17
4.320000E+03	7.898965E-16	2.755126E-17
4.330000E+03	7.920157E-16	2.755846E-17
4.340000E+03	7.947203E-16	2.758556E-17
4.350000E+03	7.980609E-16	2.763418E-17
4.360000E+03	8.020838E-16	2.770576E-17
4.370000E+03	8.068375E-16	2.780179E-17
4.380000E+03	8.123958E-16	2.792463E-17
4.390000E+03	8.188105E-16	2.807586E-17
4.400000E+03	8.261815E-16	2.825868E-17
4.410000E+03	8.346016E-16	2.847602E-17
4.420000E+03	8.441624E-16	2.873074E-17
4.430000E+03	8.549597E-16	2.902579E-17
4.440000E+03	8.670741E-16	2.936360E-17
4.450000E+03	8.805769E-16	2.974625E-17
4.460000E+03	8.955257E-16	3.017532E-17
4.470000E+03	9.119619E-16	3.065185E-17
4.480000E+03	9.298998E-16	3.117595E-17
4.490000E+03	9.493400E-16	3.174724E-17
4.500000E+03	9.702482E-16	3.236422E-17
4.510000E+03	9.925597E-16	3.302436E-17
4.520000E+03	1.016174E-15	3.372395E-17
4.530000E+03	1.040940E-15	3.445769E-17
4.540000E+03	1.066674E-15	3.521924E-17
4.550000E+03	1.093149E-15	3.600081E-17
4.560000E+03	1.120066E-15	3.679249E-17
4.570000E+03	1.147111E-15	3.758381E-17
4.580000E+03	1.173920E-15	3.836288E-17
4.590000E+03	1.200089E-15	3.911659E-17
4.600000E+03	1.225223E-15	3.983229E-17
4.610000E+03	1.248893E-15	4.049629E-17
4.620000E+03	1.270714E-15	4.109656E-17
4.630000E+03	1.290305E-15	4.162128E-17
4.640000E+03	1.307303E-15	4.205935E-17
4.650000E+03	1.321431E-15	4.240252E-17
4.660000E+03	1.332398E-15	4.264223E-17
4.670000E+03	1.340039E-15	4.277400E-17
4.680000E+03	1.344206E-15	4.279397E-17
4.690000E+03	1.344843E-15	4.270124E-17
4.700000E+03	1.341983E-15	4.249778E-17
4.710000E+03	1.335737E-15	4.218798E-17
4.720000E+03	1.326336E-15	4.177993E-17
4.730000E+03	1.314122E-15	4.128520E-17
4.740000E+03	1.299503E-15	4.071729E-17
4.750000E+03	1.282953E-15	4.009161E-17
4.760000E+03	1.265019E-15	3.942567E-17
4.770000E+03	1.246214E-15	3.873579E-17
4.780000E+03	1.227104E-15	3.803974E-17
4.790000E+03	1.208202E-15	3.735341E-17
4.800000E+03	1.190000E-15	3.669199E-17
4.810000E+03	1.172962E-15	3.606949E-17
4.820000E+03	1.157495E-15	3.549818E-17
4.830000E+03	1.143950E-15	3.498835E-17
4.840000E+03	1.132632E-15	3.454886E-17
4.850000E+03	1.123780E-15	3.418642E-17
4.860000E+03	1.117587E-15	3.390628E-17
4.870000E+03	1.114186E-15	3.371181E-17
4.880000E+03	1.113633E-15	3.360399E-17
4.890000E+03	1.115929E-15	3.358218E-17
4.900000E+03	1.120994E-15	3.364328E-17
4.910000E+03	1.128698E-15	3.378271E-17
4.920000E+03	1.138828E-15	3.399346E-17
4.930000E+03	1.151100E-15	3.426649E-17
4.940000E+03	1.165154E-15	3.459062E-17
4.950000E+03	1.180530E-15	3.495178E-17
4.960000E+03	1.196694E-15	3.533386E-17
4.970000E+03	1.213059E-15	3.571944E-17
4.980000E+03	1.228946E-15	3.608851E-17
4.990000E+03	1.243691E-15	3.642176E-17
5.000000E+03	1.256701E-15	3.670212E-17
5.010000E+03	1.267405E-15	3.691343E-17
5.020000E+03	1.275449E-15	3.704591E-17
5.030000E+03	1.280593E-15	3.709328E-17
5.040000E+03	1.282808E-15	3.705536E-17
5.050000E+03	1.282252E-15	3.693747E-17
5.060000E+03	1.279232E-15	3.674901E-17
5.070000E+03	1.274156E-15	3.650229E-17
5.080000E+03	1.267516E-15	3.621188E-17
5.090000E+03	1.259828E-15	3.589279E-17
5.100000E+03	1.251605E-15	3.555988E-17
5.110000E+03	1.243338E-15	3.522718E-17
5.120000E+03	1.235429E-15	3.490605E-17
5.130000E+03	1.228274E-15	3.460758E-17
5.140000E+03	1.222163E-15	3.433968E-17
5.150000E+03	1.217349E-15	3.410925E-17
5.160000E+03	1.214065E-15	3.392251E-17
5.170000E+03	1.212446E-15	3.378280E-17
5.180000E+03	1.212655E-15	3.369431E-17
5.190000E+03	1.214797E-15	3.365949E-17
5.200000E+03	1.218974E-15	3.368073E-17
5.210000E+03	1.225227E-15	3.375870E-17
5.220000E+03	1.233605E-15	3.389428E-17
5.230000E+03	1.244113E-15	3.408708E-17
5.240000E+03	1.256702E-15	3.433528E-17
5.250000E+03	1.271290E-15	3.463621E-17
5.260000E+03	1.287763E-15	3.498633E-17
5.270000E+03	1.305933E-15	3.538006E-17
5.280000E+03	1.325572E-15	3.581093E-17
5.290000E+03	1.346399E-15	3.627099E-17
5.300000E+03	1.368114E-15	3.675199E-17
5.310000E+03	1.390364E-15	3.724423E-17
5.320000E+03	1.412801E-15	3.773834E-17
5.330000E+03	1.435033E-15	3.822385E-17
5.340000E+03	1.456714E-15	3.869164E-17
5.350000E+03	1.477515E-15	3.913312E-17
5.360000E+03	1.497126E-15	3.954035E-17
5.370000E+03	1.515316E-15	3.990751E-17
5.380000E+03	1.531857E-15	4.022896E-17
5.390000E+03	1.546620E-15	4.050169E-17
5.400000E+03	1.559507E-15	4.072359E-17
5.410000E+03	1.570430E-15	4.089276E-17
5.420000E+03	1.579389E-15	4.100971E-17
5.430000E+03	1.586345E-15	4.107383E-17
5.440000E+03	1.591295E-15	4.108554E-17
5.450000E+03	1.594229E-15	4.104501E-17
5.460000E+03	1.595104E-15	4.095159E-17
5.470000E+03	1.593840E-15	4.080373E-17
5.480000E+03	1.590331E-15	4.059916E-17
5.490000E+03	1.584436E-15	4.033478E-17
5.500000E+03	1.575920E-15	4.000518E-17
5.510000E+03	1.564455E-15	3.960263E-17
5.520000E+03	1.549738E-15	3.912009E-17
5.530000E+03	1.531466E-15	3.855062E-17
5.540000E+03	1.509386E-15	3.788860E-17
5.550000E+03	1.483437E-15	3.713333E-17
5.560000E+03	1.453643E-15	3.628614E-17
5.570000E+03	1.420240E-15	3.535374E-17
5.580000E+03	1.383675E-15	3.434791E-17
5.590000E+03	1.344502E-15	3.328298E-17
5.600000E+03	1.303466E-15	3.217790E-17
5.610000E+03	1.261402E-15	3.105351E-17
5.620000E+03	1.219201E-15	2.993189E-17
5.630000E+03	1.177788E-15	2.883568E-17
5.640000E+03	1.138038E-15	2.778603E-17
5.650000E+03	1.100785E-15	2.680288E-17
5.660000E+03	1.066796E-15	2.590432E-17
5.670000E+03	1.036728E-15	2.510559E-17
5.680000E+03	1.011167E-15	2.442002E-17
5.690000E+03	9.905984E-16	2.385841E-17
5.700000E+03	9.754344E-16	2.342965E-17
5.710000E+03	9.660234E-16	2.314102E-17
5.720000E+03	9.626617E-16	2.299848E-17
5.730000E+03	9.656201E-16	2.300731E-17
5.740000E+03	9.751225E-16	2.317163E-17
5.750000E+03	9.913772E-16	2.349514E-17
5.760000E+03	1.014572E-15	2.398101E-17
5.770000E+03	1.044823E-15	2.463073E-17
5.780000E+03	1.082197E-15	2.544457E-17
5.790000E+03	1.126621E-15	2.641955E-17
5.800000E+03	1.177881E-15	2.754941E-17
5.810000E+03	1.235614E-15	2.882452E-17
5.820000E+03	1.299228E-15	3.022999E-17
5.830000E+03	1.367891E-15	3.174556E-17
5.840000E+03	1.440623E-15	3.334774E-17
5.850000E+03	1.516159E-15	3.500668E-17
5.860000E+03	1.593092E-15	3.668961E-17
5.870000E+03	1.669778E-15	3.835867E-17
5.880000E+03	1.744522E-15	3.997517E-17
5.890000E+03	1.815520E-15	4.149834E-17
5.900000E+03	1.881037E-15	4.288941E-17
5.910000E+03	1.939447E-15	4.411240E-17
5.920000E+03	1.989333E-15	4.513654E-17
5.930000E+03	2.029672E-15	4.594016E-17
5.940000E+03	2.059762E-15	4.650909E-17
5.950000E+03	2.079342E-15	4.683919E-17
5.960000E+03	2.088599E-15	4.693641E-17
5.970000E+03	2.088051E-15	4.681411E-17
5.980000E+03	2.078610E-15	4.649422E-17
5.990000E+03	2.061326E-15	4.600157E-17
6.000000E+03	2.037499E-15	4.536636E-17
6.010000E+03	2.008419E-15	4.461818E-17
6.020000E+03	1.975417E-15	4.378730E-17
6.030000E+03	1.939702E-15	4.290103E-17
6.040000E+03	1.902420E-15	4.198500E-17
6.050000E+03	1.864548E-15	4.106092E-17
6.060000E+03	1.826886E-15	4.014636E-17
6.070000E+03	1.790140E-15	3.925675E-17
6.080000E+03	1.754802E-15	3.840267E-17
6.090000E+03	1.721226E-15	3.759163E-17
6.100000E+03	1.689711E-15	3.682980E-17
6.110000E+03	1.660369E-15	3.611937E-17
6.120000E+03	1.633277E-15	3.546166E-17
6.130000E+03	1.608445E-15	3.485654E-17
6.140000E+03	1.585816E-15	3.430252E-17
6.150000E+03	1.565299E-15	3.379729E-17
6.160000E+03	1.546757E-15	3.333764E-17
6.170000E+03	1.530010E-15	3.291945E-17
6.180000E+03	1.514922E-15	3.253957E-17
6.190000E+03	1.501408E-15	3.219598E-17
6.200000E+03	1.489281E-15	3.188449E-17
6.210000E+03	1.478436E-15	3.160273E-17
6.220000E+03	1.468677E-15	3.134636E-17
6.230000E+03	1.459864E-15	3.111230E-17
6.240000E+03	1.451852E-15	3.089736E-17
6.250000E+03	1.444446E-15	3.069730E-17
6.260000E+03	1.437547E-15	3.050998E-17
6.270000E+03	1.431013E-15	3.033225E-17
6.280000E+03	1.424723E-15	3.016157E-17
6.290000E+03	1.418650E-15	2.999727E-17
6.300000E+03	1.412739E-15	2.983813E-17
6.310000E+03	1.406980E-15	2.968396E-17
6.320000E+03	1.401409E-15	2.953544E-17
6.330000E+03	1.396043E-15	2.939290E-17
6.340000E+03	1.390931E-15	2.925735E-17
6.350000E+03	1.386147E-15	2.913029E-17
6.360000E+03	1.381733E-15	2.901255E-17
6.370000E+03	1.377775E-15	2.890592E-17
6.380000E+03	1.374278E-15	2.881046E-17
6.390000E+03	1.371288E-15	2.872709E-17
6.400000E+03	1.368831E-15	2.865631E-17
6.410000E+03	1.366898E-15	2.859787E-17
6.420000E+03	1.365462E-15	2.855123E-17
6.430000E+03	1.364486E-15	2.851553E-17
6.440000E+03	1.363911E-15	2.848957E-17
6.450000E+03	1.363702E-15	2.847254E-17
6.460000E+03	1.363797E-15	2.846318E-17
6.470000E+03	1.364216E-15	2.846184E-17
6.480000E+03	1.364944E-15	2.846823E-17
6.490000E+03	1.366023E-15	2.848321E-17
6.500000E+03	1.367497E-15	2.850765E-17
6.510000E+03	1.369450E-15	2.854325E-17
6.520000E+03	1.371968E-15	2.859177E-17
6.530000E+03	1.375199E-15	2.865629E-17
6.540000E+03	1.379335E-15	2.874072E-17
6.550000E+03	1.384664E-15	2.885108E-17
6.560000E+03	1.391473E-15	2.899330E-17
6.570000E+03	1.399972E-15	2.917175E-17
6.580000E+03	1.410319E-15	2.938971E-17
6.590000E+03	1.422460E-15	2.964602E-17
6.600000E+03	1.436209E-15	2.993685E-17
6.610000E+03	1.451258E-15	3.025576E-17
6.620000E+03	1.467198E-15	3.059423E-17
6.630000E+03	1.483492E-15	3.094105E-17
6.640000E+03	1.499603E-15	3.128504E-17
6.650000E+03	1.514859E-15	3.161214E-17
6.660000E+03	1.528713E-15	3.191093E-17
6.670000E+03	1.540566E-15	3.216884E-17
6.680000E+03	1.549909E-15	3.237518E-17
6.690000E+03	1.556337E-15	3.252142E-17
6.700000E+03	1.559504E-15	3.260023E-17
6.710000E+03	1.559221E-15	3.260754E-17
6.720000E+03	1.555371E-15	3.254079E-17
6.730000E+03	1.547997E-15	3.240075E-17
6.740000E+03	1.537254E-15	3.219054E-17
6.750000E+03	1.523329E-15	3.191392E-17
6.760000E+03	1.506566E-15	3.157797E-17
6.770000E+03	1.487358E-15	3.119081E-17
6.780000E+03	1.466180E-15	3.076228E-17
6.790000E+03	1.443505E-15	3.030222E-17
6.800000E+03	1.419855E-15	2.982147E-17
6.810000E+03	1.395768E-15	2.933130E-17
6.820000E+03	1.371805E-15	2.884345E-17
6.830000E+03	1.348496E-15	2.836902E-17
6.840000E+03	1.326327E-15	2.791823E-17
6.850000E+03	1.305770E-15	2.750107E-17
6.860000E+03	1.287274E-15	2.712698E-17
6.870000E+03	1.271216E-15	2.680398E-17
6.880000E+03	1.257907E-15	2.653871E-17
6.890000E+03	1.247648E-15	2.633759E-17
6.900000E+03	1.240662E-15	2.620542E-17
6.910000E+03	1.237090E-15	2.614532E-17
6.920000E+03	1.237043E-15	2.615969E-17
6.930000E+03	1.240518E-15	2.624864E-17
6.940000E+03	1.247481E-15	2.641155E-17
6.950000E+03	1.257798E-15	2.664569E-17
6.960000E+03	1.271243E-15	2.694638E-17
6.970000E+03	1.287473E-15	2.730644E-17
6.980000E+03	1.306070E-15	2.771715E-17
6.990000E+03	1.326477E-15	2.816668E-17
7.000000E+03	1.348088E-15	2.864228E-17
7.010000E+03	1.370210E-15	2.912920E-17
7.020000E+03	1.392116E-15	2.961202E-17
7.030000E+03	1.413060E-15	3.007481E-17
7.040000E+03	1.432391E-15	3.050368E-17
7.050000E+03	1.449489E-15	3.088534E-17
7.060000E+03	1.463918E-15	3.121040E-17
7.070000E+03	1.475273E-15	3.147013E-17
7.080000E+03	1.483351E-15	3.166006E-17
7.090000E+03	1.488127E-15	3.177956E-17
7.100000E+03	1.489709E-15	3.183080E-17
7.110000E+03	1.488340E-15	3.181886E-17
7.120000E+03	1.484349E-15	3.175067E-17
7.130000E+03	1.478198E-15	3.163603E-17
7.140000E+03	1.470370E-15	3.148519E-17
7.150000E+03	1.461330E-15	3.130811E-17
7.160000E+03	1.451602E-15	3.111593E-17
7.170000E+03	1.441563E-15	3.091674E-17
7.180000E+03	1.431609E-15	3.071903E-17
7.190000E+03	1.422042E-15	3.052930E-17
7.200000E+03	1.413117E-15	3.035301E-17
7.210000E+03	1.404958E-15	3.019291E-17
7.220000E+03	1.397647E-15	3.005075E-17
7.230000E+03	1.391195E-15	2.992683E-17
7.240000E+03	1.385582E-15	2.982073E-17
7.250000E+03	1.380710E-15	2.973039E-17
7.260000E+03	1.376442E-15	2.965288E-17
7.270000E+03	1.372607E-15	2.958457E-17
7.280000E+03	1.369019E-15	2.952144E-17
7.290000E+03	1.365505E-15	2.945977E-17
7.300000E+03	1.361864E-15	2.939528E-17
7.310000E+03	1.357903E-15	2.932378E-17
7.320000E+03	1.353450E-15	2.924153E-17
7.330000E+03	1.348407E-15	2.914646E-17
7.340000E+03	1.342609E-15	2.903499E-17
7.350000E+03	1.336007E-15	2.890600E-17
7.360000E+03	1.328584E-15	2.875917E-17
7.370000E+03	1.320340E-15	2.859443E-17
7.380000E+03	1.311297E-15	2.841232E-17
7.390000E+03	1.301511E-15	2.821398E-17
7.400000E+03	1.291054E-15	2.800097E-17
7.410000E+03	1.280034E-15	2.777566E-17
7.420000E+03	1.268482E-15	2.753871E-17
7.430000E+03	1.256510E-15	2.729253E-17
7.440000E+03	1.244167E-15	2.703819E-17
7.450000E+03	1.231572E-15	2.677827E-17
7.460000E+03	1.218737E-15	2.651306E-17
7.470000E+03	1.205721E-15	2.624383E-17
7.480000E+03	1.192602E-15	2.597229E-17
7.490000E+03	1.179385E-15	2.569855E-17
7.500000E+03	1.166173E-15	2.542487E-17
7.510000E+03	1.152945E-15	2.515082E-17
7.520000E+03	1.139807E-15	2.487869E-17
7.530000E+03	1.126798E-15	2.460936E-17
7.540000E+03	1.113944E-15	2.434340E-17
7.550000E+03	1.101383E-15	2.408385E-17
7.560000E+03	1.089190E-15	2.383234E-17
7.570000E+03	1.077470E-15	2.359121E-17
7.580000E+03	1.066302E-15	2.336223E-17
7.590000E+03	1.055793E-15	2.314773E-17
7.600000E+03	1.046037E-15	2.294984E-17
7.610000E+03	1.037151E-15	2.277117E-17
7.620000E+03	1.029156E-15	2.261223E-17
7.630000E+03	1.022207E-15	2.247647E-17
7.640000E+03	1.016341E-15	2.236475E-17
7.650000E+03	1.011642E-15	2.227903E-17
7.660000E+03	1.008134E-15	2.221986E-17
7.670000E+03	1.005835E-15	2.218773E-17
7.680000E+03	1.004758E-15	2.218305E-17
7.690000E+03	1.004847E-15	2.220462E-17
7.700000E+03	1.006039E-15	2.225115E-17
7.710000E+03	1.008263E-15	2.232115E-17
7.720000E+03	1.011375E-15	2.241155E-17
7.730000E+03	1.015229E-15	2.251915E-17
7.740000E+03	1.019653E-15	2.264021E-17
7.750000E+03	1.024478E-15	2.277108E-17
7.760000E+03	1.029483E-15	2.290687E-17
