#wls	flux	fluxerr
1.600000E+03	1.531582E-16	8.790964E-18
1.640000E+03	1.548069E-16	8.846311E-18
1.680000E+03	1.564406E-16	8.898927E-18
1.720000E+03	1.580798E-16	8.949928E-18
1.760000E+03	1.597163E-16	8.998791E-18
1.800000E+03	1.613699E-16	9.046572E-18
1.840000E+03	1.630315E-16	9.092690E-18
1.880000E+03	1.647201E-16	9.138132E-18
1.920000E+03	1.664247E-16	9.182201E-18
1.960000E+03	1.681632E-16	9.225803E-18
2.000000E+03	1.699221E-16	9.268108E-18
2.040000E+03	1.717475E-16	9.311524E-18
2.080000E+03	1.735932E-16	9.353428E-18
2.120000E+03	1.755324E-16	9.397649E-18
2.160000E+03	1.775157E-16	9.441382E-18
2.200000E+03	1.795819E-16	9.486561E-18
2.240000E+03	1.816766E-16	9.530149E-18
2.280000E+03	1.837734E-16	9.570663E-18
2.320000E+03	1.858437E-16	9.606539E-18
2.360000E+03	1.878571E-16	9.636161E-18
2.400000E+03	1.897814E-16	9.657874E-18
2.440000E+03	1.915250E-16	9.667080E-18
2.480000E+03	1.931141E-16	9.665229E-18
2.520000E+03	1.944582E-16	9.647962E-18
2.560000E+03	1.955278E-16	9.614075E-18
2.600000E+03	1.963232E-16	9.563885E-18
2.640000E+03	1.967648E-16	9.493877E-18
2.680000E+03	1.968879E-16	9.406186E-18
2.720000E+03	1.966768E-16	9.300496E-18
2.760000E+03	1.960968E-16	9.175647E-18
2.800000E+03	1.951479E-16	9.032184E-18
2.840000E+03	1.938383E-16	8.871049E-18
2.880000E+03	1.921392E-16	8.691520E-18
2.920000E+03	1.900819E-16	8.495650E-18
2.960000E+03	1.877070E-16	8.285861E-18
3.000000E+03	1.851057E-16	8.066707E-18
3.010000E+03	1.844291E-16	8.010905E-18
3.020000E+03	1.837338E-16	7.954356E-18
3.030000E+03	1.830408E-16	7.897969E-18
3.040000E+03	1.823308E-16	7.840925E-18
3.050000E+03	1.816445E-16	7.784965E-18
3.060000E+03	1.809236E-16	7.727598E-18
3.070000E+03	1.802277E-16	7.671373E-18
3.080000E+03	1.795189E-16	7.614676E-18
3.090000E+03	1.788172E-16	7.558360E-18
3.100000E+03	1.781234E-16	7.502453E-18
3.110000E+03	1.774384E-16	7.446993E-18
3.120000E+03	1.767630E-16	7.392008E-18
3.130000E+03	1.760977E-16	7.337524E-18
3.140000E+03	1.754260E-16	7.282839E-18
3.150000E+03	1.748017E-16	7.230196E-18
3.160000E+03	1.741724E-16	7.177409E-18
3.170000E+03	1.735741E-16	7.125959E-18
3.180000E+03	1.729901E-16	7.075150E-18
3.190000E+03	1.724211E-16	7.025006E-18
3.200000E+03	1.719014E-16	6.976912E-18
3.210000E+03	1.713979E-16	6.929513E-18
3.220000E+03	1.709278E-16	6.883485E-18
3.230000E+03	1.704751E-16	6.838183E-18
3.240000E+03	1.700731E-16	6.794921E-18
3.250000E+03	1.697056E-16	6.753036E-18
3.260000E+03	1.693888E-16	6.713150E-18
3.270000E+03	1.691070E-16	6.674623E-18
3.280000E+03	1.688606E-16	6.637452E-18
3.290000E+03	1.686805E-16	6.602834E-18
3.300000E+03	1.685361E-16	6.569538E-18
3.310000E+03	1.684575E-16	6.538720E-18
3.320000E+03	1.684147E-16	6.509185E-18
3.330000E+03	1.684521E-16	6.482625E-18
3.340000E+03	1.685396E-16	6.457849E-18
3.350000E+03	1.686916E-16	6.435379E-18
3.360000E+03	1.689076E-16	6.415161E-18
3.370000E+03	1.692011E-16	6.397679E-18
3.380000E+03	1.695715E-16	6.382863E-18
3.390000E+03	1.700035E-16	6.370104E-18
3.400000E+03	1.705244E-16	6.360388E-18
3.410000E+03	1.711191E-16	6.353108E-18
3.420000E+03	1.717864E-16	6.348178E-18
3.430000E+03	1.725525E-16	6.346522E-18
3.440000E+03	1.734153E-16	6.348015E-18
3.450000E+03	1.743600E-16	6.352062E-18
3.460000E+03	1.753852E-16	6.358567E-18
3.470000E+03	1.765290E-16	6.368865E-18
3.480000E+03	1.777509E-16	6.381427E-18
3.490000E+03	1.790890E-16	6.397579E-18
3.500000E+03	1.805302E-16	6.416788E-18
3.510000E+03	1.820748E-16	6.439005E-18
3.520000E+03	1.837369E-16	6.464669E-18
3.530000E+03	1.855184E-16	6.493779E-18
3.540000E+03	1.874217E-16	6.526354E-18
3.550000E+03	1.894628E-16	6.562871E-18
3.560000E+03	1.916327E-16	6.602947E-18
3.570000E+03	1.939479E-16	6.647068E-18
3.580000E+03	1.964129E-16	6.695302E-18
3.590000E+03	1.990446E-16	6.748143E-18
3.600000E+03	2.018241E-16	6.804846E-18
3.610000E+03	2.047695E-16	6.865936E-18
3.620000E+03	2.078997E-16	6.931943E-18
3.630000E+03	2.112098E-16	7.002596E-18
3.640000E+03	2.147085E-16	7.078071E-18
3.650000E+03	2.184168E-16	7.158945E-18
3.660000E+03	2.223329E-16	7.245036E-18
3.670000E+03	2.264681E-16	7.336583E-18
3.680000E+03	2.308349E-16	7.433852E-18
3.690000E+03	2.354583E-16	7.537507E-18
3.700000E+03	2.403412E-16	7.647481E-18
3.710000E+03	2.454994E-16	7.764116E-18
3.720000E+03	2.509497E-16	7.887774E-18
3.730000E+03	2.567217E-16	8.019195E-18
3.740000E+03	2.627976E-16	8.157633E-18
3.750000E+03	2.692318E-16	8.304576E-18
3.760000E+03	2.760188E-16	8.459633E-18
3.770000E+03	2.831888E-16	8.623505E-18
3.780000E+03	2.907476E-16	8.796128E-18
3.790000E+03	2.987245E-16	8.978143E-18
3.800000E+03	3.071115E-16	9.169045E-18
3.810000E+03	3.159480E-16	9.369747E-18
3.820000E+03	3.252095E-16	9.579243E-18
3.830000E+03	3.349439E-16	9.798665E-18
3.840000E+03	3.451329E-16	1.002719E-17
3.850000E+03	3.557668E-16	1.026423E-17
3.860000E+03	3.668688E-16	1.051017E-17
3.870000E+03	3.784046E-16	1.076375E-17
3.880000E+03	3.903585E-16	1.102423E-17
3.890000E+03	4.027200E-16	1.129106E-17
3.900000E+03	4.154429E-16	1.156267E-17
3.910000E+03	4.284572E-16	1.183689E-17
3.920000E+03	4.417519E-16	1.211324E-17
3.930000E+03	4.552241E-16	1.238872E-17
3.940000E+03	4.688179E-16	1.266169E-17
3.950000E+03	4.824418E-16	1.292962E-17
3.960000E+03	4.960272E-16	1.319064E-17
3.970000E+03	5.094565E-16	1.344167E-17
3.980000E+03	5.226524E-16	1.368077E-17
3.990000E+03	5.355059E-16	1.390525E-17
4.000000E+03	5.479218E-16	1.411285E-17
4.010000E+03	5.597911E-16	1.430106E-17
4.020000E+03	5.710375E-16	1.446829E-17
4.030000E+03	5.815450E-16	1.461201E-17
4.040000E+03	5.912515E-16	1.473114E-17
4.050000E+03	6.000764E-16	1.482419E-17
4.060000E+03	6.079697E-16	1.489050E-17
4.070000E+03	6.148999E-16	1.492989E-17
4.080000E+03	6.208401E-16	1.494235E-17
4.090000E+03	6.258128E-16	1.492904E-17
4.100000E+03	6.298005E-16	1.489017E-17
4.110000E+03	6.328917E-16	1.482846E-17
4.120000E+03	6.351010E-16	1.474482E-17
4.130000E+03	6.365277E-16	1.464213E-17
4.140000E+03	6.372226E-16	1.452204E-17
4.150000E+03	6.372859E-16	1.438731E-17
4.160000E+03	6.367934E-16	1.424005E-17
4.170000E+03	6.358239E-16	1.408238E-17
4.180000E+03	6.344960E-16	1.391722E-17
4.190000E+03	6.328862E-16	1.374648E-17
4.200000E+03	6.310680E-16	1.357194E-17
4.210000E+03	6.291363E-16	1.339577E-17
4.220000E+03	6.271544E-16	1.321940E-17
4.230000E+03	6.251921E-16	1.304433E-17
4.240000E+03	6.233244E-16	1.287213E-17
4.250000E+03	6.215830E-16	1.270339E-17
4.260000E+03	6.200404E-16	1.253952E-17
4.270000E+03	6.187388E-16	1.238126E-17
4.280000E+03	6.176904E-16	1.222872E-17
4.290000E+03	6.169472E-16	1.208279E-17
4.300000E+03	6.165311E-16	1.194370E-17
4.310000E+03	6.164458E-16	1.181135E-17
4.320000E+03	6.167012E-16	1.168574E-17
4.330000E+03	6.173122E-16	1.156697E-17
4.340000E+03	6.182788E-16	1.145483E-17
4.350000E+03	6.195890E-16	1.134892E-17
4.360000E+03	6.212619E-16	1.124938E-17
4.370000E+03	6.232782E-16	1.115570E-17
4.380000E+03	6.256588E-16	1.106805E-17
4.390000E+03	6.284194E-16	1.098652E-17
4.400000E+03	6.316291E-16	1.091212E-17
4.410000E+03	6.353385E-16	1.084546E-17
4.420000E+03	6.396326E-16	1.078774E-17
4.430000E+03	6.446006E-16	1.074012E-17
4.440000E+03	6.503306E-16	1.070371E-17
4.450000E+03	6.569051E-16	1.067944E-17
4.460000E+03	6.643867E-16	1.066787E-17
4.470000E+03	6.728467E-16	1.066968E-17
4.480000E+03	6.823199E-16	1.068489E-17
4.490000E+03	6.928423E-16	1.071357E-17
4.500000E+03	7.044161E-16	1.075522E-17
4.510000E+03	7.169936E-16	1.080862E-17
4.520000E+03	7.305352E-16	1.087274E-17
4.530000E+03	7.449336E-16	1.094556E-17
4.540000E+03	7.600545E-16	1.102480E-17
4.550000E+03	7.757256E-16	1.110775E-17
4.560000E+03	7.917403E-16	1.119135E-17
4.570000E+03	8.078523E-16	1.127216E-17
4.580000E+03	8.238058E-16	1.134679E-17
4.590000E+03	8.393345E-16	1.141191E-17
4.600000E+03	8.541624E-16	1.146425E-17
4.610000E+03	8.680502E-16	1.150121E-17
4.620000E+03	8.807544E-16	1.152032E-17
4.630000E+03	8.920671E-16	1.151971E-17
4.640000E+03	9.017940E-16	1.149781E-17
4.650000E+03	9.097900E-16	1.145377E-17
4.660000E+03	9.158964E-16	1.138666E-17
4.670000E+03	9.200238E-16	1.129645E-17
4.680000E+03	9.220583E-16	1.118285E-17
4.690000E+03	9.219500E-16	1.104636E-17
4.700000E+03	9.196594E-16	1.088757E-17
4.710000E+03	9.152023E-16	1.070773E-17
4.720000E+03	9.086482E-16	1.050862E-17
4.730000E+03	9.001394E-16	1.029276E-17
4.740000E+03	8.898445E-16	1.006285E-17
4.750000E+03	8.780238E-16	9.822478E-18
4.760000E+03	8.649662E-16	9.575352E-18
4.770000E+03	8.510093E-16	9.325550E-18
4.780000E+03	8.365118E-16	9.077180E-18
4.790000E+03	8.218359E-16	8.834208E-18
4.800000E+03	8.073223E-16	8.600199E-18
4.810000E+03	7.933141E-16	8.378603E-18
4.820000E+03	7.801164E-16	8.172345E-18
4.830000E+03	7.680405E-16	7.984324E-18
4.840000E+03	7.573694E-16	7.817069E-18
4.850000E+03	7.483543E-16	7.672726E-18
4.860000E+03	7.412317E-16	7.553213E-18
4.870000E+03	7.361809E-16	7.459758E-18
4.880000E+03	7.333533E-16	7.393333E-18
4.890000E+03	7.328537E-16	7.354470E-18
4.900000E+03	7.347444E-16	7.343328E-18
4.910000E+03	7.390279E-16	7.359531E-18
4.920000E+03	7.456566E-16	7.402265E-18
4.930000E+03	7.545376E-16	7.470334E-18
4.940000E+03	7.654472E-16	7.561314E-18
4.950000E+03	7.780978E-16	7.672213E-18
4.960000E+03	7.921316E-16	7.799404E-18
4.970000E+03	8.070433E-16	7.937851E-18
4.980000E+03	8.222397E-16	8.081687E-18
4.990000E+03	8.371138E-16	8.224922E-18
5.000000E+03	8.510059E-16	8.361043E-18
5.010000E+03	8.632864E-16	8.483806E-18
5.020000E+03	8.734413E-16	8.588070E-18
5.030000E+03	8.811698E-16	8.670737E-18
5.040000E+03	8.863250E-16	8.730182E-18
5.050000E+03	8.889408E-16	8.766517E-18
5.060000E+03	8.892657E-16	8.781948E-18
5.070000E+03	8.876814E-16	8.779986E-18
5.080000E+03	8.846136E-16	8.764589E-18
5.090000E+03	8.805423E-16	8.740271E-18
5.100000E+03	8.759635E-16	8.711740E-18
5.110000E+03	8.713142E-16	8.683160E-18
5.120000E+03	8.669641E-16	8.658062E-18
5.130000E+03	8.631907E-16	8.639096E-18
5.140000E+03	8.602401E-16	8.628632E-18
5.150000E+03	8.582316E-16	8.627794E-18
5.160000E+03	8.572482E-16	8.637361E-18
5.170000E+03	8.573325E-16	8.657718E-18
5.180000E+03	8.584951E-16	8.688937E-18
5.190000E+03	8.607389E-16	8.731019E-18
5.200000E+03	8.640947E-16	8.784246E-18
5.210000E+03	8.685549E-16	8.848520E-18
5.220000E+03	8.741701E-16	8.924335E-18
5.230000E+03	8.809726E-16	9.012000E-18
5.240000E+03	8.889633E-16	9.111505E-18
5.250000E+03	8.981338E-16	9.222740E-18
5.260000E+03	9.084463E-16	9.345290E-18
5.270000E+03	9.198139E-16	9.478226E-18
5.280000E+03	9.321130E-16	9.620229E-18
5.290000E+03	9.451918E-16	9.769676E-18
5.300000E+03	9.588873E-16	9.924817E-18
5.310000E+03	9.729910E-16	1.008341E-17
5.320000E+03	9.872847E-16	1.024311E-17
5.330000E+03	1.001563E-15	1.040170E-17
5.340000E+03	1.015581E-15	1.055651E-17
5.350000E+03	1.029132E-15	1.070529E-17
5.360000E+03	1.042020E-15	1.084592E-17
5.370000E+03	1.054041E-15	1.097615E-17
5.380000E+03	1.065051E-15	1.109439E-17
5.390000E+03	1.074942E-15	1.119943E-17
5.400000E+03	1.083625E-15	1.129026E-17
5.410000E+03	1.091104E-15	1.136688E-17
5.420000E+03	1.097444E-15	1.142992E-17
5.430000E+03	1.102789E-15	1.148081E-17
5.440000E+03	1.107290E-15	1.152113E-17
5.450000E+03	1.111158E-15	1.155306E-17
5.460000E+03	1.114569E-15	1.157841E-17
5.470000E+03	1.117680E-15	1.159879E-17
5.480000E+03	1.120496E-15	1.161428E-17
5.490000E+03	1.122864E-15	1.162327E-17
5.500000E+03	1.124390E-15	1.162171E-17
5.510000E+03	1.124371E-15	1.160238E-17
5.520000E+03	1.121914E-15	1.155618E-17
5.530000E+03	1.116073E-15	1.147349E-17
5.540000E+03	1.106034E-15	1.134616E-17
5.550000E+03	1.091148E-15	1.116785E-17
5.560000E+03	1.071137E-15	1.093611E-17
5.570000E+03	1.046168E-15	1.065309E-17
5.580000E+03	1.016792E-15	1.032491E-17
5.590000E+03	9.837550E-16	9.959617E-18
5.600000E+03	9.480744E-16	9.567980E-18
5.610000E+03	9.107912E-16	9.160899E-18
5.620000E+03	8.729976E-16	8.749669E-18
5.630000E+03	8.357464E-16	8.345052E-18
5.640000E+03	7.999799E-16	7.956555E-18
5.650000E+03	7.665502E-16	7.592635E-18
5.660000E+03	7.361793E-16	7.260303E-18
5.670000E+03	7.094664E-16	6.965216E-18
5.680000E+03	6.869039E-16	6.711844E-18
5.690000E+03	6.688768E-16	6.503478E-18
5.700000E+03	6.557152E-16	6.342762E-18
5.710000E+03	6.476984E-16	6.231732E-18
5.720000E+03	6.450030E-16	6.171334E-18
5.730000E+03	6.478270E-16	6.162627E-18
5.740000E+03	6.563840E-16	6.206720E-18
5.750000E+03	6.707931E-16	6.303731E-18
5.760000E+03	6.912025E-16	6.453967E-18
5.770000E+03	7.177612E-16	6.657655E-18
5.780000E+03	7.504861E-16	6.913716E-18
5.790000E+03	7.893212E-16	7.220353E-18
5.800000E+03	8.341088E-16	7.574812E-18
5.810000E+03	8.844459E-16	7.972132E-18
5.820000E+03	9.397068E-16	8.405434E-18
5.830000E+03	9.989930E-16	8.865571E-18
5.840000E+03	1.061087E-15	9.340824E-18
5.850000E+03	1.124477E-15	9.817260E-18
5.860000E+03	1.187447E-15	1.027962E-17
5.870000E+03	1.248296E-15	1.071332E-17
5.880000E+03	1.305306E-15	1.110415E-17
5.890000E+03	1.356784E-15	1.143872E-17
5.900000E+03	1.401352E-15	1.170681E-17
5.910000E+03	1.437903E-15	1.190094E-17
5.920000E+03	1.465529E-15	1.201563E-17
5.930000E+03	1.483760E-15	1.204933E-17
5.940000E+03	1.492453E-15	1.200327E-17
5.950000E+03	1.491778E-15	1.188127E-17
5.960000E+03	1.482380E-15	1.169085E-17
5.970000E+03	1.465165E-15	1.144135E-17
5.980000E+03	1.441219E-15	1.114324E-17
5.990000E+03	1.411862E-15	1.080841E-17
6.000000E+03	1.378503E-15	1.044898E-17
6.010000E+03	1.342432E-15	1.007573E-17
6.020000E+03	1.304882E-15	9.698591E-18
6.030000E+03	1.266937E-15	9.326005E-18
6.040000E+03	1.229507E-15	8.964803E-18
6.050000E+03	1.193299E-15	8.620085E-18
6.060000E+03	1.158872E-15	8.295671E-18
6.070000E+03	1.126624E-15	7.994094E-18
6.080000E+03	1.096836E-15	7.716971E-18
6.090000E+03	1.069657E-15	7.464949E-18
6.100000E+03	1.045193E-15	7.238355E-18
6.110000E+03	1.023422E-15	7.036653E-18
6.120000E+03	1.004309E-15	6.859247E-18
6.130000E+03	9.877945E-16	6.705425E-18
6.140000E+03	9.737585E-16	6.574127E-18
6.150000E+03	9.620927E-16	6.464432E-18
6.160000E+03	9.526857E-16	6.375460E-18
6.170000E+03	9.453696E-16	6.306020E-18
6.180000E+03	9.399854E-16	6.255041E-18
6.190000E+03	9.363731E-16	6.221503E-18
6.200000E+03	9.343449E-16	6.204254E-18
6.210000E+03	9.336982E-16	6.202083E-18
6.220000E+03	9.342473E-16	6.213822E-18
6.230000E+03	9.357205E-16	6.237544E-18
6.240000E+03	9.378647E-16	6.271424E-18
6.250000E+03	9.404251E-16	6.313613E-18
6.260000E+03	9.431052E-16	6.361952E-18
6.270000E+03	9.456263E-16	6.414359E-18
6.280000E+03	9.477417E-16	6.468913E-18
6.290000E+03	9.492075E-16	6.523654E-18
6.300000E+03	9.498116E-16	6.576771E-18
6.310000E+03	9.494156E-16	6.626898E-18
6.320000E+03	9.479476E-16	6.673086E-18
6.330000E+03	9.454045E-16	6.714832E-18
6.340000E+03	9.418188E-16	6.751873E-18
6.350000E+03	9.373352E-16	6.784751E-18
6.360000E+03	9.321136E-16	6.814155E-18
6.370000E+03	9.263303E-16	6.840935E-18
6.380000E+03	9.201373E-16	6.865822E-18
6.390000E+03	9.137028E-16	6.889720E-18
6.400000E+03	9.071406E-16	6.913182E-18
6.410000E+03	9.005504E-16	6.936703E-18
6.420000E+03	8.939769E-16	6.960397E-18
6.430000E+03	8.874592E-16	6.984359E-18
6.440000E+03	8.809882E-16	7.008334E-18
6.450000E+03	8.745594E-16	7.032111E-18
6.460000E+03	8.681371E-16	7.055236E-18
6.470000E+03	8.617474E-16	7.077765E-18
6.480000E+03	8.554174E-16	7.099778E-18
6.490000E+03	8.492129E-16	7.121701E-18
6.500000E+03	8.432793E-16	7.144665E-18
6.510000E+03	8.378212E-16	7.170371E-18
6.520000E+03	8.330331E-16	7.200511E-18
6.530000E+03	8.291708E-16	7.237384E-18
6.540000E+03	8.265052E-16	7.283516E-18
6.550000E+03	8.252903E-16	7.341375E-18
6.560000E+03	8.256777E-16	7.412593E-18
6.570000E+03	8.277778E-16	7.498474E-18
6.580000E+03	8.316021E-16	7.599448E-18
6.590000E+03	8.370322E-16	7.714743E-18
6.600000E+03	8.438598E-16	7.842703E-18
6.610000E+03	8.517888E-16	7.980776E-18
6.620000E+03	8.604368E-16	8.125495E-18
6.630000E+03	8.693717E-16	8.272804E-18
6.640000E+03	8.781194E-16	8.418113E-18
6.650000E+03	8.861816E-16	8.556469E-18
6.660000E+03	8.930915E-16	8.683091E-18
6.670000E+03	8.983874E-16	8.793140E-18
6.680000E+03	9.017741E-16	8.883311E-18
6.690000E+03	9.030057E-16	8.950741E-18
6.700000E+03	9.019434E-16	8.993598E-18
6.710000E+03	8.985684E-16	9.011255E-18
6.720000E+03	8.929756E-16	9.004258E-18
6.730000E+03	8.852806E-16	8.973413E-18
6.740000E+03	8.757183E-16	8.920803E-18
6.750000E+03	8.645339E-16	8.848689E-18
6.760000E+03	8.520224E-16	8.759920E-18
6.770000E+03	8.384982E-16	8.657621E-18
6.780000E+03	8.243056E-16	8.545304E-18
6.790000E+03	8.097696E-16	8.426348E-18
6.800000E+03	7.952569E-16	8.304630E-18
6.810000E+03	7.810921E-16	8.183645E-18
6.820000E+03	7.675915E-16	8.066845E-18
6.830000E+03	7.550623E-16	7.957618E-18
6.840000E+03	7.437994E-16	7.859252E-18
6.850000E+03	7.340542E-16	7.774591E-18
6.860000E+03	7.260640E-16	7.706336E-18
6.870000E+03	7.200652E-16	7.657177E-18
6.880000E+03	7.162314E-16	7.629129E-18
6.890000E+03	7.147659E-16	7.624507E-18
6.900000E+03	7.158143E-16	7.644992E-18
6.910000E+03	7.195098E-16	7.692104E-18
6.920000E+03	7.258739E-16	7.766143E-18
6.930000E+03	7.348856E-16	7.866916E-18
6.940000E+03	7.464905E-16	7.993836E-18
6.950000E+03	7.605492E-16	8.145376E-18
6.960000E+03	7.768995E-16	8.319727E-18
6.970000E+03	7.952669E-16	8.513854E-18
6.980000E+03	8.152547E-16	8.723392E-18
6.990000E+03	8.363602E-16	8.942833E-18
7.000000E+03	8.580098E-16	9.165913E-18
7.010000E+03	8.795439E-16	9.385471E-18
7.020000E+03	9.002820E-16	9.594161E-18
7.030000E+03	9.195481E-16	9.784732E-18
7.040000E+03	9.367570E-16	9.950965E-18
7.050000E+03	9.514299E-16	1.008784E-17
7.060000E+03	9.631993E-16	1.019159E-17
7.070000E+03	9.719007E-16	1.026065E-17
7.080000E+03	9.775717E-16	1.029565E-17
7.090000E+03	9.803490E-16	1.029830E-17
7.100000E+03	9.805659E-16	1.027236E-17
7.110000E+03	9.786608E-16	1.022272E-17
7.120000E+03	9.751263E-16	1.015478E-17
7.130000E+03	9.705418E-16	1.007480E-17
7.140000E+03	9.654908E-16	9.989027E-18
7.150000E+03	9.605137E-16	9.903187E-18
7.160000E+03	9.560698E-16	9.822099E-18
7.170000E+03	9.525835E-16	9.750159E-18
7.180000E+03	9.503851E-16	9.690735E-18
7.190000E+03	9.496386E-16	9.645452E-18
7.200000E+03	9.504353E-16	9.615175E-18
7.210000E+03	9.527840E-16	9.599915E-18
7.220000E+03	9.565322E-16	9.598070E-18
7.230000E+03	9.614762E-16	9.607550E-18
7.240000E+03	9.673117E-16	9.625306E-18
7.250000E+03	9.736731E-16	9.647738E-18
7.260000E+03	9.801424E-16	9.670804E-18
7.270000E+03	9.862785E-16	9.690306E-18
7.280000E+03	9.916089E-16	9.701830E-18
7.290000E+03	9.957107E-16	9.701525E-18
7.300000E+03	9.981164E-16	9.685185E-18
7.310000E+03	9.984602E-16	9.649661E-18
7.320000E+03	9.964020E-16	9.592102E-18
7.330000E+03	9.916851E-16	9.510499E-18
7.340000E+03	9.842064E-16	9.404331E-18
7.350000E+03	9.739550E-16	9.273944E-18
7.360000E+03	9.610477E-16	9.120867E-18
7.370000E+03	9.457584E-16	8.948062E-18
7.380000E+03	9.284516E-16	8.759278E-18
7.390000E+03	9.095408E-16	8.558643E-18
7.400000E+03	8.895048E-16	8.350818E-18
7.410000E+03	8.688246E-16	8.140406E-18
7.420000E+03	8.479323E-16	7.931487E-18
7.430000E+03	8.272486E-16	7.727982E-18
7.440000E+03	8.071455E-16	7.533320E-18
7.450000E+03	7.879317E-16	7.350317E-18
7.460000E+03	7.698442E-16	7.181115E-18
7.470000E+03	7.530524E-16	7.027229E-18
7.480000E+03	7.376752E-16	6.889719E-18
7.490000E+03	7.237915E-16	6.769296E-18
7.500000E+03	7.114189E-16	6.666124E-18
7.510000E+03	7.005382E-16	6.580048E-18
7.520000E+03	6.911079E-16	6.510693E-18
7.530000E+03	6.830393E-16	6.457163E-18
7.540000E+03	6.762206E-16	6.418354E-18
7.550000E+03	6.705206E-16	6.392991E-18
7.560000E+03	6.657802E-16	6.379544E-18
7.570000E+03	6.618309E-16	6.376389E-18
7.580000E+03	6.584157E-16	6.381028E-18
7.590000E+03	6.553179E-16	6.391318E-18
7.600000E+03	6.523176E-16	6.405034E-18
7.610000E+03	6.492653E-16	6.420597E-18
7.620000E+03	6.461306E-16	6.437573E-18
7.630000E+03	6.429921E-16	6.456609E-18
7.640000E+03	6.400557E-16	6.479668E-18
7.650000E+03	6.375296E-16	6.508808E-18
7.660000E+03	6.356628E-16	6.546585E-18
7.670000E+03	6.346257E-16	6.594844E-18
7.680000E+03	6.345120E-16	6.654708E-18
7.690000E+03	6.354225E-16	6.727425E-18
7.700000E+03	6.373446E-16	6.813095E-18
7.710000E+03	6.401985E-16	6.911107E-18
7.720000E+03	6.438899E-16	7.020675E-18
7.730000E+03	6.482658E-16	7.140340E-18
7.740000E+03	6.531155E-16	7.267946E-18
7.750000E+03	6.582083E-16	7.401025E-18
7.760000E+03	6.632899E-16	7.536739E-18
