#wls	flux	fluxerr
1.600000E+03	1.667614E-16	1.163604E-17
1.640000E+03	1.686384E-16	1.171152E-17
1.680000E+03	1.705630E-16	1.178756E-17
1.720000E+03	1.724667E-16	1.185935E-17
1.760000E+03	1.744011E-16	1.193033E-17
1.800000E+03	1.763260E-16	1.199767E-17
1.840000E+03	1.782921E-16	1.206472E-17
1.880000E+03	1.802886E-16	1.213061E-17
1.920000E+03	1.823342E-16	1.219647E-17
1.960000E+03	1.844157E-16	1.226126E-17
2.000000E+03	1.865493E-16	1.232591E-17
2.040000E+03	1.887185E-16	1.238918E-17
2.080000E+03	1.910007E-16	1.245595E-17
2.120000E+03	1.933756E-16	1.252465E-17
2.160000E+03	1.958843E-16	1.259769E-17
2.200000E+03	1.984682E-16	1.267100E-17
2.240000E+03	2.011301E-16	1.274455E-17
2.280000E+03	2.038688E-16	1.281802E-17
2.320000E+03	2.065837E-16	1.288486E-17
2.360000E+03	2.092359E-16	1.294258E-17
2.400000E+03	2.117840E-16	1.298859E-17
2.440000E+03	2.141844E-16	1.302027E-17
2.480000E+03	2.163620E-16	1.303319E-17
2.520000E+03	2.182421E-16	1.302316E-17
2.560000E+03	2.198131E-16	1.298985E-17
2.600000E+03	2.210047E-16	1.292959E-17
2.640000E+03	2.218097E-16	1.284255E-17
2.680000E+03	2.221949E-16	1.272744E-17
2.720000E+03	2.221061E-16	1.258193E-17
2.760000E+03	2.215794E-16	1.240888E-17
2.800000E+03	2.205761E-16	1.220698E-17
2.840000E+03	2.191211E-16	1.197855E-17
2.880000E+03	2.171750E-16	1.172240E-17
2.920000E+03	2.147182E-16	1.143854E-17
2.960000E+03	2.118168E-16	1.113161E-17
3.000000E+03	2.085041E-16	1.080438E-17
3.010000E+03	2.076259E-16	1.072026E-17
3.020000E+03	2.067404E-16	1.063588E-17
3.030000E+03	2.058277E-16	1.055025E-17
3.040000E+03	2.048894E-16	1.046346E-17
3.050000E+03	2.039670E-16	1.037763E-17
3.060000E+03	2.030014E-16	1.028977E-17
3.070000E+03	2.020537E-16	1.020299E-17
3.080000E+03	2.010854E-16	1.011534E-17
3.090000E+03	2.001172E-16	1.002787E-17
3.100000E+03	1.991504E-16	9.940649E-18
3.110000E+03	1.981671E-16	9.852798E-18
3.120000E+03	1.972063E-16	9.766248E-18
3.130000E+03	1.962317E-16	9.679202E-18
3.140000E+03	1.952811E-16	9.593532E-18
3.150000E+03	1.943196E-16	9.507514E-18
3.160000E+03	1.933839E-16	9.422948E-18
3.170000E+03	1.924575E-16	9.339018E-18
3.180000E+03	1.915585E-16	9.256594E-18
3.190000E+03	1.906706E-16	9.174883E-18
3.200000E+03	1.898119E-16	9.094744E-18
3.210000E+03	1.889663E-16	9.015390E-18
3.220000E+03	1.881514E-16	8.937656E-18
3.230000E+03	1.873679E-16	8.861561E-18
3.240000E+03	1.866165E-16	8.787111E-18
3.250000E+03	1.859135E-16	8.715060E-18
3.260000E+03	1.852279E-16	8.643933E-18
3.270000E+03	1.845918E-16	8.575203E-18
3.280000E+03	1.840051E-16	8.508849E-18
3.290000E+03	1.834683E-16	8.444853E-18
3.300000E+03	1.829665E-16	8.382507E-18
3.310000E+03	1.825297E-16	8.323159E-18
3.320000E+03	1.821432E-16	8.266095E-18
3.330000E+03	1.818215E-16	8.211944E-18
3.340000E+03	1.815643E-16	8.160651E-18
3.350000E+03	1.813713E-16	8.112156E-18
3.360000E+03	1.812424E-16	8.066416E-18
3.370000E+03	1.811909E-16	8.023978E-18
3.380000E+03	1.812161E-16	7.984764E-18
3.390000E+03	1.813177E-16	7.948700E-18
3.400000E+03	1.815081E-16	7.916280E-18
3.410000E+03	1.817866E-16	7.887418E-18
3.420000E+03	1.821522E-16	7.862000E-18
3.430000E+03	1.826171E-16	7.840500E-18
3.440000E+03	1.831804E-16	7.822802E-18
3.450000E+03	1.838411E-16	7.808803E-18
3.460000E+03	1.846115E-16	7.798945E-18
3.470000E+03	1.855034E-16	7.793650E-18
3.480000E+03	1.865041E-16	7.792297E-18
3.490000E+03	1.876381E-16	7.795833E-18
3.500000E+03	1.888938E-16	7.803673E-18
3.510000E+03	1.902965E-16	7.816769E-18
3.520000E+03	1.918351E-16	7.834563E-18
3.530000E+03	1.935121E-16	7.857055E-18
3.540000E+03	1.953538E-16	7.885199E-18
3.550000E+03	1.973516E-16	7.918530E-18
3.560000E+03	1.995208E-16	7.957543E-18
3.570000E+03	2.018545E-16	8.001827E-18
3.580000E+03	2.043691E-16	8.051909E-18
3.590000E+03	2.070704E-16	8.107875E-18
3.600000E+03	2.099533E-16	8.169382E-18
3.610000E+03	2.130366E-16	8.237014E-18
3.620000E+03	2.163281E-16	8.310914E-18
3.630000E+03	2.198140E-16	8.390397E-18
3.640000E+03	2.235266E-16	8.476530E-18
3.650000E+03	2.274766E-16	8.569535E-18
3.660000E+03	2.316529E-16	8.668808E-18
3.670000E+03	2.360903E-16	8.775467E-18
3.680000E+03	2.407802E-16	8.888975E-18
3.690000E+03	2.457478E-16	9.010063E-18
3.700000E+03	2.509974E-16	9.138655E-18
3.710000E+03	2.565564E-16	9.275511E-18
3.720000E+03	2.624302E-16	9.420579E-18
3.730000E+03	2.686363E-16	9.574221E-18
3.740000E+03	2.751925E-16	9.736794E-18
3.750000E+03	2.821167E-16	9.908637E-18
3.760000E+03	2.894153E-16	1.008967E-17
3.770000E+03	2.971058E-16	1.028019E-17
3.780000E+03	3.052050E-16	1.048044E-17
3.790000E+03	3.137170E-16	1.069021E-17
3.800000E+03	3.226673E-16	1.091004E-17
3.810000E+03	3.320567E-16	1.113957E-17
3.820000E+03	3.418950E-16	1.137875E-17
3.830000E+03	3.521886E-16	1.162741E-17
3.840000E+03	3.629160E-16	1.188446E-17
3.850000E+03	3.740997E-16	1.215026E-17
3.860000E+03	3.857079E-16	1.242339E-17
3.870000E+03	3.977397E-16	1.270345E-17
3.880000E+03	4.101497E-16	1.298862E-17
3.890000E+03	4.229357E-16	1.327850E-17
3.900000E+03	4.360234E-16	1.357045E-17
3.910000E+03	4.493948E-16	1.386363E-17
3.920000E+03	4.629714E-16	1.415537E-17
3.930000E+03	4.766926E-16	1.444365E-17
3.940000E+03	4.904901E-16	1.472626E-17
3.950000E+03	5.042892E-16	1.500089E-17
3.960000E+03	5.179953E-16	1.526472E-17
3.970000E+03	5.315229E-16	1.551531E-17
3.980000E+03	5.447695E-16	1.574981E-17
3.990000E+03	5.576447E-16	1.596585E-17
4.000000E+03	5.700589E-16	1.616118E-17
4.010000E+03	5.819109E-16	1.633332E-17
4.020000E+03	5.931181E-16	1.648044E-17
4.030000E+03	6.035909E-16	1.660060E-17
4.040000E+03	6.132779E-16	1.669301E-17
4.050000E+03	6.220960E-16	1.675608E-17
4.060000E+03	6.300196E-16	1.678988E-17
4.070000E+03	6.370088E-16	1.679411E-17
4.080000E+03	6.430548E-16	1.676933E-17
4.090000E+03	6.481506E-16	1.671617E-17
4.100000E+03	6.523201E-16	1.663607E-17
4.110000E+03	6.556016E-16	1.653078E-17
4.120000E+03	6.580335E-16	1.640205E-17
4.130000E+03	6.596934E-16	1.625254E-17
4.140000E+03	6.606407E-16	1.608435E-17
4.150000E+03	6.609427E-16	1.589976E-17
4.160000E+03	6.607115E-16	1.570199E-17
4.170000E+03	6.599961E-16	1.549268E-17
4.180000E+03	6.589123E-16	1.527495E-17
4.190000E+03	6.575232E-16	1.505059E-17
4.200000E+03	6.559406E-16	1.482241E-17
4.210000E+03	6.542347E-16	1.459217E-17
4.220000E+03	6.524711E-16	1.436143E-17
4.230000E+03	6.507468E-16	1.413237E-17
4.240000E+03	6.491041E-16	1.390589E-17
4.250000E+03	6.476268E-16	1.368371E-17
4.260000E+03	6.463441E-16	1.346632E-17
4.270000E+03	6.453257E-16	1.325498E-17
4.280000E+03	6.446101E-16	1.305028E-17
4.290000E+03	6.442179E-16	1.285239E-17
4.300000E+03	6.441853E-16	1.266174E-17
4.310000E+03	6.445302E-16	1.247841E-17
4.320000E+03	6.452750E-16	1.230251E-17
4.330000E+03	6.464243E-16	1.213379E-17
4.340000E+03	6.479769E-16	1.197192E-17
4.350000E+03	6.499268E-16	1.181646E-17
4.360000E+03	6.522841E-16	1.166727E-17
4.370000E+03	6.550240E-16	1.152361E-17
4.380000E+03	6.581434E-16	1.138510E-17
4.390000E+03	6.616327E-16	1.125131E-17
4.400000E+03	6.655557E-16	1.112302E-17
4.410000E+03	6.699967E-16	1.100129E-17
4.420000E+03	6.750425E-16	1.088711E-17
4.430000E+03	6.807989E-16	1.078170E-17
4.440000E+03	6.873441E-16	1.068572E-17
4.450000E+03	6.947672E-16	1.059990E-17
4.460000E+03	7.031131E-16	1.052426E-17
4.470000E+03	7.124535E-16	1.045913E-17
4.480000E+03	7.228212E-16	1.040423E-17
4.490000E+03	7.342079E-16	1.035866E-17
4.500000E+03	7.466135E-16	1.032169E-17
4.510000E+03	7.599911E-16	1.029194E-17
4.520000E+03	7.742877E-16	1.026807E-17
4.530000E+03	7.893883E-16	1.024796E-17
4.540000E+03	8.051807E-16	1.022974E-17
4.550000E+03	8.215014E-16	1.021100E-17
4.560000E+03	8.381707E-16	1.018937E-17
4.570000E+03	8.549731E-16	1.016227E-17
4.580000E+03	8.716738E-16	1.012717E-17
4.590000E+03	8.880476E-16	1.008191E-17
4.600000E+03	9.038391E-16	1.002425E-17
4.610000E+03	9.188044E-16	9.952404E-18
4.620000E+03	9.326938E-16	9.864754E-18
4.630000E+03	9.452817E-16	9.760220E-18
4.640000E+03	9.563603E-16	9.638129E-18
4.650000E+03	9.657434E-16	9.498232E-18
4.660000E+03	9.732587E-16	9.340583E-18
4.670000E+03	9.787883E-16	9.165899E-18
4.680000E+03	9.822230E-16	8.975058E-18
4.690000E+03	9.835030E-16	8.769445E-18
4.700000E+03	9.826096E-16	8.550809E-18
4.710000E+03	9.795672E-16	8.321225E-18
4.720000E+03	9.744331E-16	8.082952E-18
4.730000E+03	9.673343E-16	7.838691E-18
4.740000E+03	9.584167E-16	7.591105E-18
4.750000E+03	9.478767E-16	7.343051E-18
4.760000E+03	9.359332E-16	7.097313E-18
4.770000E+03	9.228450E-16	6.856727E-18
4.780000E+03	9.089029E-16	6.624094E-18
4.790000E+03	8.944254E-16	6.402145E-18
4.800000E+03	8.798017E-16	6.193849E-18
4.810000E+03	8.654467E-16	6.002086E-18
4.820000E+03	8.517544E-16	5.829362E-18
4.830000E+03	8.390638E-16	5.677630E-18
4.840000E+03	8.276937E-16	5.548593E-18
4.850000E+03	8.179089E-16	5.443527E-18
4.860000E+03	8.099381E-16	5.363254E-18
4.870000E+03	8.039626E-16	5.308081E-18
4.880000E+03	8.000969E-16	5.277950E-18
4.890000E+03	7.984163E-16	5.272657E-18
4.900000E+03	7.989536E-16	5.291844E-18
4.910000E+03	8.016705E-16	5.334798E-18
4.920000E+03	8.064892E-16	5.400662E-18
4.930000E+03	8.132627E-16	5.488197E-18
4.940000E+03	8.217875E-16	5.595846E-18
4.950000E+03	8.317666E-16	5.721433E-18
4.960000E+03	8.428637E-16	5.862484E-18
4.970000E+03	8.546738E-16	6.015980E-18
4.980000E+03	8.667549E-16	6.178520E-18
4.990000E+03	8.786216E-16	6.346245E-18
5.000000E+03	8.898012E-16	6.515200E-18
5.010000E+03	8.998680E-16	6.681580E-18
5.020000E+03	9.084478E-16	6.841782E-18
5.030000E+03	9.152873E-16	6.992954E-18
5.040000E+03	9.202422E-16	7.132974E-18
5.050000E+03	9.232942E-16	7.260645E-18
5.060000E+03	9.245354E-16	7.375652E-18
5.070000E+03	9.241899E-16	7.478806E-18
5.080000E+03	9.225188E-16	7.571347E-18
5.090000E+03	9.198711E-16	7.655397E-18
5.100000E+03	9.165954E-16	7.733262E-18
5.110000E+03	9.130153E-16	7.807227E-18
5.120000E+03	9.094772E-16	7.879951E-18
5.130000E+03	9.062306E-16	7.953423E-18
5.140000E+03	9.035361E-16	8.029870E-18
5.150000E+03	9.015587E-16	8.110787E-18
5.160000E+03	9.004585E-16	8.197712E-18
5.170000E+03	9.003210E-16	8.291572E-18
5.180000E+03	9.012327E-16	8.393346E-18
5.190000E+03	9.032591E-16	8.503850E-18
5.200000E+03	9.064328E-16	8.623612E-18
5.210000E+03	9.107841E-16	8.753147E-18
5.220000E+03	9.163321E-16	8.892863E-18
5.230000E+03	9.230812E-16	9.043024E-18
5.240000E+03	9.310280E-16	9.203807E-18
5.250000E+03	9.401372E-16	9.375057E-18
5.260000E+03	9.503377E-16	9.556235E-18
5.270000E+03	9.615397E-16	9.746574E-18
5.280000E+03	9.736347E-16	9.945077E-18
5.290000E+03	9.864680E-16	1.015023E-17
5.300000E+03	9.998821E-16	1.036042E-17
5.310000E+03	1.013690E-15	1.057371E-17
5.320000E+03	1.027682E-15	1.078781E-17
5.330000E+03	1.041657E-15	1.100054E-17
5.340000E+03	1.055394E-15	1.120940E-17
5.350000E+03	1.068698E-15	1.141216E-17
5.360000E+03	1.081366E-15	1.160644E-17
5.370000E+03	1.093234E-15	1.179029E-17
5.380000E+03	1.104147E-15	1.196180E-17
5.390000E+03	1.114004E-15	1.211967E-17
5.400000E+03	1.122717E-15	1.226273E-17
5.410000E+03	1.130264E-15	1.239054E-17
5.420000E+03	1.136631E-15	1.250280E-17
5.430000E+03	1.141863E-15	1.259983E-17
5.440000E+03	1.145995E-15	1.268190E-17
5.450000E+03	1.149078E-15	1.274950E-17
5.460000E+03	1.151156E-15	1.280303E-17
5.470000E+03	1.152211E-15	1.284226E-17
5.480000E+03	1.152194E-15	1.286660E-17
5.490000E+03	1.150961E-15	1.287443E-17
5.500000E+03	1.148204E-15	1.286230E-17
5.510000E+03	1.143450E-15	1.282490E-17
5.520000E+03	1.136129E-15	1.275583E-17
5.530000E+03	1.125708E-15	1.264904E-17
5.540000E+03	1.111756E-15	1.249967E-17
5.550000E+03	1.094014E-15	1.230479E-17
5.560000E+03	1.072435E-15	1.206393E-17
5.570000E+03	1.047212E-15	1.177939E-17
5.580000E+03	1.018751E-15	1.145590E-17
5.590000E+03	9.876717E-16	1.110066E-17
5.600000E+03	9.547208E-16	1.072234E-17
5.610000E+03	9.207224E-16	1.033045E-17
5.620000E+03	8.865592E-16	9.935174E-18
5.630000E+03	8.530707E-16	9.546178E-18
5.640000E+03	8.210466E-16	9.172503E-18
5.650000E+03	7.912257E-16	8.822553E-18
5.660000E+03	7.642333E-16	8.503374E-18
5.670000E+03	7.406110E-16	8.220991E-18
5.680000E+03	7.208131E-16	7.980352E-18
5.690000E+03	7.052226E-16	7.785516E-18
5.700000E+03	6.941440E-16	7.639564E-18
5.710000E+03	6.878433E-16	7.545051E-18
5.720000E+03	6.865337E-16	7.503845E-18
5.730000E+03	6.904066E-16	7.517471E-18
5.740000E+03	6.996379E-16	7.587185E-18
5.750000E+03	7.143750E-16	7.713825E-18
5.760000E+03	7.347307E-16	7.897758E-18
5.770000E+03	7.607907E-16	8.138967E-18
5.780000E+03	7.925635E-16	8.436523E-18
5.790000E+03	8.299825E-16	8.788630E-18
5.800000E+03	8.728419E-16	9.191979E-18
5.810000E+03	9.207934E-16	9.641759E-18
5.820000E+03	9.732878E-16	1.013110E-17
5.830000E+03	1.029547E-15	1.065088E-17
5.840000E+03	1.088575E-15	1.118987E-17
5.850000E+03	1.149167E-15	1.173501E-17
5.860000E+03	1.209919E-15	1.227153E-17
5.870000E+03	1.269333E-15	1.278413E-17
5.880000E+03	1.325824E-15	1.325711E-17
5.890000E+03	1.377900E-15	1.367622E-17
5.900000E+03	1.424157E-15	1.402856E-17
5.910000E+03	1.463387E-15	1.430367E-17
5.920000E+03	1.494691E-15	1.449454E-17
5.930000E+03	1.517405E-15	1.459673E-17
5.940000E+03	1.531289E-15	1.461017E-17
5.950000E+03	1.536358E-15	1.453733E-17
5.960000E+03	1.533027E-15	1.438445E-17
5.970000E+03	1.521955E-15	1.415998E-17
5.980000E+03	1.504032E-15	1.387427E-17
5.990000E+03	1.480343E-15	1.353919E-17
6.000000E+03	1.452031E-15	1.316678E-17
6.010000E+03	1.420273E-15	1.276900E-17
6.020000E+03	1.386192E-15	1.235693E-17
6.030000E+03	1.350842E-15	1.194067E-17
6.040000E+03	1.315122E-15	1.152861E-17
6.050000E+03	1.279828E-15	1.112793E-17
6.060000E+03	1.245590E-15	1.074417E-17
6.070000E+03	1.212906E-15	1.038151E-17
6.080000E+03	1.182158E-15	1.004302E-17
6.090000E+03	1.153622E-15	9.730780E-18
6.100000E+03	1.127459E-15	9.445830E-18
6.110000E+03	1.103775E-15	9.188757E-18
6.120000E+03	1.082615E-15	8.959634E-18
6.130000E+03	1.063956E-15	8.758012E-18
6.140000E+03	1.047764E-15	8.583388E-18
6.150000E+03	1.033958E-15	8.434924E-18
6.160000E+03	1.022425E-15	8.311593E-18
6.170000E+03	1.013040E-15	8.212323E-18
6.180000E+03	1.005663E-15	8.135997E-18
6.190000E+03	1.000123E-15	8.081295E-18
6.200000E+03	9.962093E-16	8.046651E-18
6.210000E+03	9.937081E-16	8.030501E-18
6.220000E+03	9.923552E-16	8.030885E-18
6.230000E+03	9.918764E-16	8.045503E-18
6.240000E+03	9.919677E-16	8.071685E-18
6.250000E+03	9.923789E-16	8.107169E-18
6.260000E+03	9.929252E-16	8.150198E-18
6.270000E+03	9.934336E-16	8.199074E-18
6.280000E+03	9.937503E-16	8.252216E-18
6.290000E+03	9.936997E-16	8.307814E-18
6.300000E+03	9.931565E-16	8.364424E-18
6.310000E+03	9.920060E-16	8.420645E-18
6.320000E+03	9.901720E-16	8.475360E-18
6.330000E+03	9.876416E-16	8.527956E-18
6.340000E+03	9.844128E-16	8.577905E-18
6.350000E+03	9.805316E-16	8.625091E-18
6.360000E+03	9.760933E-16	8.669846E-18
6.370000E+03	9.712014E-16	8.712611E-18
6.380000E+03	9.659359E-16	8.753654E-18
6.390000E+03	9.604159E-16	8.793640E-18
6.400000E+03	9.547406E-16	8.833108E-18
6.410000E+03	9.489849E-16	8.872416E-18
6.420000E+03	9.432069E-16	8.911813E-18
6.430000E+03	9.374493E-16	8.951438E-18
6.440000E+03	9.317530E-16	8.991445E-18
6.450000E+03	9.261432E-16	9.031867E-18
6.460000E+03	9.206471E-16	9.072781E-18
6.470000E+03	9.152926E-16	9.114302E-18
6.480000E+03	9.101258E-16	9.156739E-18
6.490000E+03	9.052459E-16	9.200976E-18
6.500000E+03	9.007573E-16	9.248000E-18
6.510000E+03	8.967963E-16	9.299184E-18
6.520000E+03	8.935040E-16	9.356019E-18
6.530000E+03	8.910489E-16	9.420347E-18
6.540000E+03	8.895670E-16	9.493740E-18
6.550000E+03	8.892287E-16	9.578199E-18
6.560000E+03	8.901442E-16	9.675136E-18
6.570000E+03	8.923536E-16	9.785236E-18
6.580000E+03	8.958583E-16	9.908766E-18
6.590000E+03	9.005545E-16	1.004482E-17
6.600000E+03	9.062748E-16	1.019171E-17
6.610000E+03	9.127839E-16	1.034694E-17
6.620000E+03	9.197865E-16	1.050721E-17
6.630000E+03	9.269516E-16	1.066872E-17
6.640000E+03	9.339066E-16	1.082706E-17
6.650000E+03	9.402574E-16	1.097745E-17
6.660000E+03	9.456410E-16	1.111537E-17
6.670000E+03	9.497170E-16	1.123644E-17
6.680000E+03	9.521977E-16	1.133685E-17
6.690000E+03	9.528747E-16	1.141366E-17
6.700000E+03	9.515944E-16	1.146457E-17
6.710000E+03	9.483074E-16	1.148853E-17
6.720000E+03	9.430206E-16	1.148519E-17
6.730000E+03	9.358479E-16	1.145555E-17
6.740000E+03	9.269223E-16	1.140093E-17
6.750000E+03	9.164758E-16	1.132392E-17
6.760000E+03	9.047503E-16	1.122730E-17
6.770000E+03	8.920320E-16	1.111452E-17
6.780000E+03	8.786412E-16	1.098950E-17
6.790000E+03	8.648996E-16	1.085629E-17
6.800000E+03	8.511233E-16	1.071891E-17
6.810000E+03	8.376566E-16	1.058183E-17
6.820000E+03	8.247927E-16	1.044888E-17
6.830000E+03	8.128404E-16	1.032416E-17
6.840000E+03	8.020899E-16	1.021155E-17
6.850000E+03	7.927890E-16	1.011442E-17
6.860000E+03	7.851716E-16	1.003595E-17
6.870000E+03	7.794467E-16	9.978995E-18
6.880000E+03	7.758059E-16	9.946190E-18
6.890000E+03	7.743907E-16	9.939497E-18
6.900000E+03	7.753270E-16	9.960650E-18
6.910000E+03	7.786791E-16	1.001056E-17
6.920000E+03	7.844834E-16	1.008973E-17
6.930000E+03	7.927059E-16	1.019774E-17
6.940000E+03	8.032789E-16	1.033367E-17
6.950000E+03	8.160667E-16	1.049571E-17
6.960000E+03	8.308592E-16	1.068104E-17
6.970000E+03	8.473859E-16	1.088605E-17
6.980000E+03	8.653247E-16	1.110645E-17
6.990000E+03	8.842274E-16	1.133631E-17
7.000000E+03	9.036537E-16	1.156985E-17
7.010000E+03	9.230520E-16	1.179985E-17
7.020000E+03	9.419114E-16	1.201970E-17
7.030000E+03	9.597105E-16	1.222268E-17
7.040000E+03	9.759606E-16	1.240257E-17
7.050000E+03	9.902600E-16	1.255436E-17
7.060000E+03	1.002309E-15	1.267438E-17
7.070000E+03	1.011930E-15	1.276060E-17
7.080000E+03	1.019085E-15	1.281279E-17
7.090000E+03	1.023828E-15	1.283195E-17
7.100000E+03	1.026366E-15	1.282100E-17
7.110000E+03	1.026993E-15	1.278395E-17
7.120000E+03	1.026063E-15	1.272553E-17
7.130000E+03	1.024004E-15	1.265136E-17
7.140000E+03	1.021235E-15	1.256686E-17
7.150000E+03	1.018179E-15	1.247745E-17
7.160000E+03	1.015225E-15	1.238806E-17
7.170000E+03	1.012692E-15	1.230269E-17
7.180000E+03	1.010875E-15	1.222497E-17
7.190000E+03	1.009919E-15	1.215668E-17
7.200000E+03	1.009941E-15	1.209923E-17
7.210000E+03	1.010973E-15	1.205298E-17
7.220000E+03	1.012911E-15	1.201666E-17
7.230000E+03	1.015637E-15	1.198893E-17
7.240000E+03	1.018933E-15	1.196722E-17
7.250000E+03	1.022520E-15	1.194838E-17
7.260000E+03	1.026104E-15	1.192910E-17
7.270000E+03	1.029322E-15	1.190541E-17
7.280000E+03	1.031824E-15	1.187358E-17
7.290000E+03	1.033284E-15	1.183020E-17
7.300000E+03	1.033349E-15	1.177166E-17
7.310000E+03	1.031731E-15	1.169521E-17
7.320000E+03	1.028189E-15	1.159862E-17
7.330000E+03	1.022574E-15	1.148078E-17
7.340000E+03	1.014782E-15	1.134111E-17
7.350000E+03	1.004811E-15	1.118014E-17
7.360000E+03	9.927805E-16	1.099970E-17
7.370000E+03	9.788662E-16	1.080222E-17
7.380000E+03	9.633194E-16	1.059086E-17
7.390000E+03	9.464542E-16	1.036941E-17
7.400000E+03	9.285961E-16	1.014166E-17
7.410000E+03	9.101214E-16	9.911912E-18
7.420000E+03	8.913884E-16	9.684154E-18
7.430000E+03	8.726990E-16	9.461707E-18
7.440000E+03	8.543836E-16	9.248148E-18
7.450000E+03	8.367053E-16	9.046291E-18
7.460000E+03	8.198808E-16	8.858421E-18
7.470000E+03	8.040789E-16	8.686305E-18
7.480000E+03	7.894335E-16	8.531338E-18
7.490000E+03	7.760237E-16	8.394341E-18
7.500000E+03	7.639007E-16	8.275855E-18
7.510000E+03	7.530789E-16	8.176051E-18
7.520000E+03	7.435407E-16	8.094682E-18
7.530000E+03	7.352078E-16	8.030753E-18
7.540000E+03	7.280360E-16	7.983671E-18
7.550000E+03	7.218824E-16	7.951780E-18
7.560000E+03	7.166387E-16	7.933823E-18
7.570000E+03	7.121387E-16	7.927902E-18
7.580000E+03	7.081815E-16	7.931717E-18
7.590000E+03	7.045753E-16	7.943035E-18
7.600000E+03	7.010835E-16	7.959071E-18
7.610000E+03	6.974961E-16	7.977275E-18
7.620000E+03	6.936678E-16	7.995771E-18
7.630000E+03	6.897428E-16	8.015990E-18
7.640000E+03	6.859795E-16	8.040754E-18
7.650000E+03	6.826051E-16	8.072623E-18
7.660000E+03	6.798079E-16	8.113804E-18
7.670000E+03	6.777308E-16	8.166048E-18
7.680000E+03	6.764670E-16	8.230594E-18
7.690000E+03	6.760688E-16	8.308244E-18
7.700000E+03	6.765290E-16	8.399110E-18
7.710000E+03	6.777845E-16	8.502620E-18
7.720000E+03	6.797405E-16	8.617791E-18
7.730000E+03	6.822771E-16	8.743287E-18
7.740000E+03	6.852265E-16	8.877096E-18
7.750000E+03	6.884206E-16	9.017123E-18
7.760000E+03	6.916601E-16	9.160770E-18
