#wls	flux	fluxerr
1.600000E+03	1.853939E-16	1.304606E-17
1.640000E+03	1.878914E-16	1.317411E-17
1.680000E+03	1.904514E-16	1.330398E-17
1.720000E+03	1.930333E-16	1.343273E-17
1.760000E+03	1.956597E-16	1.356182E-17
1.800000E+03	1.983196E-16	1.369036E-17
1.840000E+03	2.010340E-16	1.381969E-17
1.880000E+03	2.038234E-16	1.395108E-17
1.920000E+03	2.066733E-16	1.408337E-17
1.960000E+03	2.096355E-16	1.421994E-17
2.000000E+03	2.126924E-16	1.435938E-17
2.040000E+03	2.158581E-16	1.450245E-17
2.080000E+03	2.191785E-16	1.465200E-17
2.120000E+03	2.226280E-16	1.480605E-17
2.160000E+03	2.263156E-16	1.497156E-17
2.200000E+03	2.301728E-16	1.514366E-17
2.240000E+03	2.342300E-16	1.532400E-17
2.280000E+03	2.384080E-16	1.550707E-17
2.320000E+03	2.426567E-16	1.568934E-17
2.360000E+03	2.468866E-16	1.586483E-17
2.400000E+03	2.510711E-16	1.603171E-17
2.440000E+03	2.550782E-16	1.618149E-17
2.480000E+03	2.588736E-16	1.631210E-17
2.520000E+03	2.623538E-16	1.641716E-17
2.560000E+03	2.654482E-16	1.649258E-17
2.600000E+03	2.681178E-16	1.653633E-17
2.640000E+03	2.702312E-16	1.654081E-17
2.680000E+03	2.717869E-16	1.650663E-17
2.720000E+03	2.726962E-16	1.642915E-17
2.760000E+03	2.729968E-16	1.631149E-17
2.800000E+03	2.726441E-16	1.615189E-17
2.840000E+03	2.716599E-16	1.595260E-17
2.880000E+03	2.699206E-16	1.570741E-17
2.920000E+03	2.674351E-16	1.541807E-17
2.960000E+03	2.641386E-16	1.508214E-17
3.000000E+03	2.601612E-16	1.470841E-17
3.010000E+03	2.590659E-16	1.460953E-17
3.020000E+03	2.579177E-16	1.450779E-17
3.030000E+03	2.567616E-16	1.440577E-17
3.040000E+03	2.555556E-16	1.430110E-17
3.050000E+03	2.543230E-16	1.419511E-17
3.060000E+03	2.530651E-16	1.408789E-17
3.070000E+03	2.517835E-16	1.397955E-17
3.080000E+03	2.504596E-16	1.386905E-17
3.090000E+03	2.491357E-16	1.375877E-17
3.100000E+03	2.477929E-16	1.364767E-17
3.110000E+03	2.464331E-16	1.353585E-17
3.120000E+03	2.450581E-16	1.342343E-17
3.130000E+03	2.436885E-16	1.331155E-17
3.140000E+03	2.422885E-16	1.319824E-17
3.150000E+03	2.409156E-16	1.308667E-17
3.160000E+03	2.395162E-16	1.297390E-17
3.170000E+03	2.381464E-16	1.286299E-17
3.180000E+03	2.367718E-16	1.275206E-17
3.190000E+03	2.353944E-16	1.264125E-17
3.200000E+03	2.340505E-16	1.253249E-17
3.210000E+03	2.327240E-16	1.242490E-17
3.220000E+03	2.314163E-16	1.231858E-17
3.230000E+03	2.301290E-16	1.221357E-17
3.240000E+03	2.288638E-16	1.210998E-17
3.250000E+03	2.276377E-16	1.200869E-17
3.260000E+03	2.264364E-16	1.190893E-17
3.270000E+03	2.252922E-16	1.181239E-17
3.280000E+03	2.241749E-16	1.171746E-17
3.290000E+03	2.231164E-16	1.162580E-17
3.300000E+03	2.221021E-16	1.153661E-17
3.310000E+03	2.211478E-16	1.145071E-17
3.320000E+03	2.202398E-16	1.136735E-17
3.330000E+03	2.194074E-16	1.128802E-17
3.340000E+03	2.186369E-16	1.121198E-17
3.350000E+03	2.179290E-16	1.113924E-17
3.360000E+03	2.173116E-16	1.107120E-17
3.370000E+03	2.167711E-16	1.100710E-17
3.380000E+03	2.163081E-16	1.094696E-17
3.390000E+03	2.159362E-16	1.089142E-17
3.400000E+03	2.156686E-16	1.084109E-17
3.410000E+03	2.155053E-16	1.079592E-17
3.420000E+03	2.154461E-16	1.075586E-17
3.430000E+03	2.155044E-16	1.072150E-17
3.440000E+03	2.156799E-16	1.069279E-17
3.450000E+03	2.159857E-16	1.067030E-17
3.460000E+03	2.164343E-16	1.065458E-17
3.470000E+03	2.170143E-16	1.064499E-17
3.480000E+03	2.177625E-16	1.064327E-17
3.490000E+03	2.186795E-16	1.064935E-17
3.500000E+03	2.197669E-16	1.066323E-17
3.510000E+03	2.210382E-16	1.068545E-17
3.520000E+03	2.224957E-16	1.071603E-17
3.530000E+03	2.241761E-16	1.075663E-17
3.540000E+03	2.260603E-16	1.080622E-17
3.550000E+03	2.281638E-16	1.086541E-17
3.560000E+03	2.304913E-16	1.093431E-17
3.570000E+03	2.330487E-16	1.101307E-17
3.580000E+03	2.358428E-16	1.110188E-17
3.590000E+03	2.388703E-16	1.120045E-17
3.600000E+03	2.421401E-16	1.130905E-17
3.610000E+03	2.456509E-16	1.142750E-17
3.620000E+03	2.494239E-16	1.155664E-17
3.630000E+03	2.534601E-16	1.169635E-17
3.640000E+03	2.577716E-16	1.184704E-17
3.650000E+03	2.623508E-16	1.200820E-17
3.660000E+03	2.672328E-16	1.218127E-17
3.670000E+03	2.724114E-16	1.236579E-17
3.680000E+03	2.779026E-16	1.256230E-17
3.690000E+03	2.837119E-16	1.277087E-17
3.700000E+03	2.898668E-16	1.299255E-17
3.710000E+03	2.963740E-16	1.322740E-17
3.720000E+03	3.032406E-16	1.347555E-17
3.730000E+03	3.104841E-16	1.373755E-17
3.740000E+03	3.181221E-16	1.401395E-17
3.750000E+03	3.261608E-16	1.430477E-17
3.760000E+03	3.346168E-16	1.461049E-17
3.770000E+03	3.435054E-16	1.493153E-17
3.780000E+03	3.528297E-16	1.526774E-17
3.790000E+03	3.626019E-16	1.561940E-17
3.800000E+03	3.728210E-16	1.598617E-17
3.810000E+03	3.834939E-16	1.636808E-17
3.820000E+03	3.946244E-16	1.676500E-17
3.830000E+03	4.062015E-16	1.717617E-17
3.840000E+03	4.182205E-16	1.760113E-17
3.850000E+03	4.306603E-16	1.803870E-17
3.860000E+03	4.435058E-16	1.848800E-17
3.870000E+03	4.567359E-16	1.894788E-17
3.880000E+03	4.703106E-16	1.941645E-17
3.890000E+03	4.841952E-16	1.989205E-17
3.900000E+03	4.983354E-16	2.037228E-17
3.910000E+03	5.126814E-16	2.085492E-17
3.920000E+03	5.271766E-16	2.133756E-17
3.930000E+03	5.417446E-16	2.181700E-17
3.940000E+03	5.563023E-16	2.228988E-17
3.950000E+03	5.707864E-16	2.275364E-17
3.960000E+03	5.851033E-16	2.320461E-17
3.970000E+03	5.991554E-16	2.363905E-17
3.980000E+03	6.128565E-16	2.405371E-17
3.990000E+03	6.261063E-16	2.444489E-17
4.000000E+03	6.388334E-16	2.481009E-17
4.010000E+03	6.509431E-16	2.514597E-17
4.020000E+03	6.623458E-16	2.544947E-17
4.030000E+03	6.729603E-16	2.571791E-17
4.040000E+03	6.827553E-16	2.595061E-17
4.050000E+03	6.916431E-16	2.614476E-17
4.060000E+03	6.996038E-16	2.630017E-17
4.070000E+03	7.066040E-16	2.641617E-17
4.080000E+03	7.126385E-16	2.649320E-17
4.090000E+03	7.177173E-16	2.653222E-17
4.100000E+03	7.218514E-16	2.653425E-17
4.110000E+03	7.250791E-16	2.650129E-17
4.120000E+03	7.274383E-16	2.643529E-17
4.130000E+03	7.289914E-16	2.633907E-17
4.140000E+03	7.298101E-16	2.621573E-17
4.150000E+03	7.299739E-16	2.606857E-17
4.160000E+03	7.295547E-16	2.590057E-17
4.170000E+03	7.286411E-16	2.571526E-17
4.180000E+03	7.273361E-16	2.551656E-17
4.190000E+03	7.257053E-16	2.530702E-17
4.200000E+03	7.238500E-16	2.509038E-17
4.210000E+03	7.218443E-16	2.486935E-17
4.220000E+03	7.197828E-16	2.464728E-17
4.230000E+03	7.177427E-16	2.442685E-17
4.240000E+03	7.157845E-16	2.421010E-17
4.250000E+03	7.139969E-16	2.399998E-17
4.260000E+03	7.124165E-16	2.379764E-17
4.270000E+03	7.111183E-16	2.360543E-17
4.280000E+03	7.101480E-16	2.342472E-17
4.290000E+03	7.095437E-16	2.325657E-17
4.300000E+03	7.093477E-16	2.310214E-17
4.310000E+03	7.095842E-16	2.296197E-17
4.320000E+03	7.102809E-16	2.283672E-17
4.330000E+03	7.114482E-16	2.272644E-17
4.340000E+03	7.131226E-16	2.263203E-17
4.350000E+03	7.152821E-16	2.255250E-17
4.360000E+03	7.179555E-16	2.248848E-17
4.370000E+03	7.211405E-16	2.243960E-17
4.380000E+03	7.248627E-16	2.240637E-17
4.390000E+03	7.291396E-16	2.238901E-17
4.400000E+03	7.340308E-16	2.238905E-17
4.410000E+03	7.396065E-16	2.240827E-17
4.420000E+03	7.459485E-16	2.244874E-17
4.430000E+03	7.531324E-16	2.251230E-17
4.440000E+03	7.612632E-16	2.260159E-17
4.450000E+03	7.703954E-16	2.271771E-17
4.460000E+03	7.805722E-16	2.286135E-17
4.470000E+03	7.918319E-16	2.303306E-17
4.480000E+03	8.041958E-16	2.323286E-17
4.490000E+03	8.176210E-16	2.345892E-17
4.500000E+03	8.321087E-16	2.371073E-17
4.510000E+03	8.475698E-16	2.398520E-17
4.520000E+03	8.639569E-16	2.428051E-17
4.530000E+03	8.811403E-16	2.459257E-17
4.540000E+03	8.989858E-16	2.491731E-17
4.550000E+03	9.173450E-16	2.525035E-17
4.560000E+03	9.360329E-16	2.558645E-17
4.570000E+03	9.548291E-16	2.591953E-17
4.580000E+03	9.735302E-16	2.624416E-17
4.590000E+03	9.918802E-16	2.655367E-17
4.600000E+03	1.009637E-15	2.684194E-17
4.610000E+03	1.026541E-15	2.710256E-17
4.620000E+03	1.042335E-15	2.732935E-17
4.630000E+03	1.056780E-15	2.751686E-17
4.640000E+03	1.069653E-15	2.766018E-17
4.650000E+03	1.080742E-15	2.775475E-17
4.660000E+03	1.089883E-15	2.779754E-17
4.670000E+03	1.096911E-15	2.778542E-17
4.680000E+03	1.101733E-15	2.771732E-17
4.690000E+03	1.104288E-15	2.759289E-17
4.700000E+03	1.104566E-15	2.741316E-17
4.710000E+03	1.102579E-15	2.717957E-17
4.720000E+03	1.098414E-15	2.689551E-17
4.730000E+03	1.092163E-15	2.656430E-17
4.740000E+03	1.083992E-15	2.619098E-17
4.750000E+03	1.074074E-15	2.578063E-17
4.760000E+03	1.062625E-15	2.533926E-17
4.770000E+03	1.049895E-15	2.487349E-17
4.780000E+03	1.036171E-15	2.439062E-17
4.790000E+03	1.021783E-15	2.389879E-17
4.800000E+03	1.007129E-15	2.340752E-17
4.810000E+03	9.926282E-16	2.292653E-17
4.820000E+03	9.786705E-16	2.246466E-17
4.830000E+03	9.656124E-16	2.202977E-17
4.840000E+03	9.537630E-16	2.162842E-17
4.850000E+03	9.434102E-16	2.126657E-17
4.860000E+03	9.347319E-16	2.094747E-17
4.870000E+03	9.279028E-16	2.067425E-17
4.880000E+03	9.229997E-16	2.044779E-17
4.890000E+03	9.200756E-16	2.026845E-17
4.900000E+03	9.191092E-16	2.013496E-17
4.910000E+03	9.200464E-16	2.004535E-17
4.920000E+03	9.227716E-16	1.999642E-17
4.930000E+03	9.271093E-16	1.998370E-17
4.940000E+03	9.328567E-16	2.000229E-17
4.950000E+03	9.397584E-16	2.004626E-17
4.960000E+03	9.475127E-16	2.010879E-17
4.970000E+03	9.558206E-16	2.018333E-17
4.980000E+03	9.643267E-16	2.026220E-17
4.990000E+03	9.727152E-16	2.033877E-17
5.000000E+03	9.806533E-16	2.040613E-17
5.010000E+03	9.878598E-16	2.045860E-17
5.020000E+03	9.940780E-16	2.049110E-17
5.030000E+03	9.991319E-16	2.050028E-17
5.040000E+03	1.002892E-15	2.048381E-17
5.050000E+03	1.005334E-15	2.044154E-17
5.060000E+03	1.006473E-15	2.037410E-17
5.070000E+03	1.006402E-15	2.028367E-17
5.080000E+03	1.005271E-15	2.017354E-17
5.090000E+03	1.003285E-15	2.004803E-17
5.100000E+03	1.000658E-15	1.991157E-17
5.110000E+03	9.976411E-16	1.976926E-17
5.120000E+03	9.944812E-16	1.962599E-17
5.130000E+03	9.914067E-16	1.948625E-17
5.140000E+03	9.886625E-16	1.935475E-17
5.150000E+03	9.864312E-16	1.923494E-17
5.160000E+03	9.849123E-16	1.913053E-17
5.170000E+03	9.842483E-16	1.904408E-17
5.180000E+03	9.845649E-16	1.897778E-17
5.190000E+03	9.859620E-16	1.893330E-17
5.200000E+03	9.885233E-16	1.891200E-17
5.210000E+03	9.922876E-16	1.891434E-17
5.220000E+03	9.972787E-16	1.894050E-17
5.230000E+03	1.003506E-15	1.899042E-17
5.240000E+03	1.010945E-15	1.906336E-17
5.250000E+03	1.019535E-15	1.915795E-17
5.260000E+03	1.029202E-15	1.927256E-17
5.270000E+03	1.039856E-15	1.940535E-17
5.280000E+03	1.051376E-15	1.955386E-17
5.290000E+03	1.063606E-15	1.971506E-17
5.300000E+03	1.076392E-15	1.988601E-17
5.310000E+03	1.089542E-15	2.006309E-17
5.320000E+03	1.102862E-15	2.024269E-17
5.330000E+03	1.116160E-15	2.042132E-17
5.340000E+03	1.129219E-15	2.059504E-17
5.350000E+03	1.141848E-15	2.076044E-17
5.360000E+03	1.153837E-15	2.091384E-17
5.370000E+03	1.165002E-15	2.105206E-17
5.380000E+03	1.175188E-15	2.117247E-17
5.390000E+03	1.184228E-15	2.127224E-17
5.400000E+03	1.192019E-15	2.134975E-17
5.410000E+03	1.198451E-15	2.140329E-17
5.420000E+03	1.203435E-15	2.143149E-17
5.430000E+03	1.206941E-15	2.143406E-17
5.440000E+03	1.208917E-15	2.141034E-17
5.450000E+03	1.209323E-15	2.135986E-17
5.460000E+03	1.208143E-15	2.128258E-17
5.470000E+03	1.205343E-15	2.117813E-17
5.480000E+03	1.200855E-15	2.104558E-17
5.490000E+03	1.194603E-15	2.088383E-17
5.500000E+03	1.186442E-15	2.069056E-17
5.510000E+03	1.176139E-15	2.046198E-17
5.520000E+03	1.163478E-15	2.019456E-17
5.530000E+03	1.148258E-15	1.988499E-17
5.540000E+03	1.130385E-15	1.953187E-17
5.550000E+03	1.109842E-15	1.913508E-17
5.560000E+03	1.086739E-15	1.869672E-17
5.570000E+03	1.061333E-15	1.822137E-17
5.580000E+03	1.033973E-15	1.771516E-17
5.590000E+03	1.005142E-15	1.718643E-17
5.600000E+03	9.753890E-16	1.664460E-17
5.610000E+03	9.453273E-16	1.610012E-17
5.620000E+03	9.155742E-16	1.556342E-17
5.630000E+03	8.867536E-16	1.504497E-17
5.640000E+03	8.594709E-16	1.455485E-17
5.650000E+03	8.342701E-16	1.410205E-17
5.660000E+03	8.116574E-16	1.369483E-17
5.670000E+03	7.920708E-16	1.334030E-17
5.680000E+03	7.758894E-16	1.304450E-17
5.690000E+03	7.634376E-16	1.281253E-17
5.700000E+03	7.549917E-16	1.264866E-17
5.710000E+03	7.507884E-16	1.255647E-17
5.720000E+03	7.510308E-16	1.253896E-17
5.730000E+03	7.558943E-16	1.259867E-17
5.740000E+03	7.655364E-16	1.273782E-17
5.750000E+03	7.800654E-16	1.295779E-17
5.760000E+03	7.995877E-16	1.325995E-17
5.770000E+03	8.241527E-16	1.364472E-17
5.780000E+03	8.537357E-16	1.411128E-17
5.790000E+03	8.882697E-16	1.465814E-17
5.800000E+03	9.275655E-16	1.528181E-17
5.810000E+03	9.713329E-16	1.597716E-17
5.820000E+03	1.019123E-15	1.673652E-17
5.830000E+03	1.070328E-15	1.754965E-17
5.840000E+03	1.124206E-15	1.840419E-17
5.850000E+03	1.179823E-15	1.928473E-17
5.860000E+03	1.236104E-15	2.017368E-17
5.870000E+03	1.291859E-15	2.105166E-17
5.880000E+03	1.345822E-15	2.189823E-17
5.890000E+03	1.396697E-15	2.269254E-17
5.900000E+03	1.443259E-15	2.341503E-17
5.910000E+03	1.484365E-15	2.404763E-17
5.920000E+03	1.519079E-15	2.457567E-17
5.930000E+03	1.546639E-15	2.498739E-17
5.940000E+03	1.566612E-15	2.527638E-17
5.950000E+03	1.578778E-15	2.543970E-17
5.960000E+03	1.583249E-15	2.547972E-17
5.970000E+03	1.580346E-15	2.540218E-17
5.980000E+03	1.570679E-15	2.521737E-17
5.990000E+03	1.554989E-15	2.493761E-17
6.000000E+03	1.534151E-15	2.457731E-17
6.010000E+03	1.509101E-15	2.415171E-17
6.020000E+03	1.480803E-15	2.367649E-17
6.030000E+03	1.450214E-15	2.316708E-17
6.040000E+03	1.418185E-15	2.263714E-17
6.050000E+03	1.385525E-15	2.209963E-17
6.060000E+03	1.352931E-15	2.156566E-17
6.070000E+03	1.320977E-15	2.104433E-17
6.080000E+03	1.290158E-15	2.054350E-17
6.090000E+03	1.260855E-15	2.006913E-17
6.100000E+03	1.233338E-15	1.962548E-17
6.110000E+03	1.207823E-15	1.921593E-17
6.120000E+03	1.184443E-15	1.884251E-17
6.130000E+03	1.163251E-15	1.850606E-17
6.140000E+03	1.144288E-15	1.820720E-17
6.150000E+03	1.127514E-15	1.794530E-17
6.160000E+03	1.112890E-15	1.771975E-17
6.170000E+03	1.100288E-15	1.752855E-17
6.180000E+03	1.089634E-15	1.737060E-17
6.190000E+03	1.080756E-15	1.724320E-17
6.200000E+03	1.073518E-15	1.714429E-17
6.210000E+03	1.067740E-15	1.707110E-17
6.220000E+03	1.063253E-15	1.702105E-17
6.230000E+03	1.059847E-15	1.699086E-17
6.240000E+03	1.057337E-15	1.697757E-17
6.250000E+03	1.055546E-15	1.697832E-17
6.260000E+03	1.054282E-15	1.699003E-17
6.270000E+03	1.053371E-15	1.700987E-17
6.280000E+03	1.052657E-15	1.703525E-17
6.290000E+03	1.051986E-15	1.706366E-17
6.300000E+03	1.051246E-15	1.709321E-17
6.310000E+03	1.050312E-15	1.712180E-17
6.320000E+03	1.049129E-15	1.714844E-17
6.330000E+03	1.047634E-15	1.717196E-17
6.340000E+03	1.045780E-15	1.719154E-17
6.350000E+03	1.043585E-15	1.720730E-17
6.360000E+03	1.041025E-15	1.721872E-17
6.370000E+03	1.038161E-15	1.722674E-17
6.380000E+03	1.035002E-15	1.723132E-17
6.390000E+03	1.031620E-15	1.723357E-17
6.400000E+03	1.028058E-15	1.723411E-17
6.410000E+03	1.024386E-15	1.723400E-17
6.420000E+03	1.020653E-15	1.723397E-17
6.430000E+03	1.016927E-15	1.723509E-17
6.440000E+03	1.013274E-15	1.723842E-17
6.450000E+03	1.009759E-15	1.724502E-17
6.460000E+03	1.006454E-15	1.725609E-17
6.470000E+03	1.003406E-15	1.727240E-17
6.480000E+03	1.000692E-15	1.729526E-17
6.490000E+03	9.983320E-16	1.732495E-17
6.500000E+03	9.963597E-16	1.736207E-17
6.510000E+03	9.948000E-16	1.740704E-17
6.520000E+03	9.936844E-16	1.746039E-17
6.530000E+03	9.930488E-16	1.752278E-17
6.540000E+03	9.929622E-16	1.759545E-17
6.550000E+03	9.934915E-16	1.767963E-17
6.560000E+03	9.947042E-16	1.777659E-17
6.570000E+03	9.966705E-16	1.788765E-17
6.580000E+03	9.993517E-16	1.801223E-17
6.590000E+03	1.002730E-15	1.815008E-17
6.600000E+03	1.006690E-15	1.829921E-17
6.610000E+03	1.011083E-15	1.845693E-17
6.620000E+03	1.015734E-15	1.862010E-17
6.630000E+03	1.020391E-15	1.878405E-17
6.640000E+03	1.024833E-15	1.894465E-17
6.650000E+03	1.028767E-15	1.909630E-17
6.660000E+03	1.031946E-15	1.923424E-17
6.670000E+03	1.034103E-15	1.935322E-17
6.680000E+03	1.035019E-15	1.944884E-17
6.690000E+03	1.034505E-15	1.951719E-17
6.700000E+03	1.032418E-15	1.955517E-17
6.710000E+03	1.028674E-15	1.956078E-17
6.720000E+03	1.023245E-15	1.953308E-17
6.730000E+03	1.016195E-15	1.947285E-17
6.740000E+03	1.007579E-15	1.938079E-17
6.750000E+03	9.975870E-16	1.926016E-17
6.760000E+03	9.864016E-16	1.911422E-17
6.770000E+03	9.742496E-16	1.894708E-17
6.780000E+03	9.614233E-16	1.876425E-17
6.790000E+03	9.481991E-16	1.857099E-17
6.800000E+03	9.348764E-16	1.837310E-17
6.810000E+03	9.217703E-16	1.817678E-17
6.820000E+03	9.091657E-16	1.798771E-17
6.830000E+03	8.973474E-16	1.781166E-17
6.840000E+03	8.865937E-16	1.765433E-17
6.850000E+03	8.771482E-16	1.752079E-17
6.860000E+03	8.692161E-16	1.741541E-17
6.870000E+03	8.629964E-16	1.734246E-17
6.880000E+03	8.586323E-16	1.730514E-17
6.890000E+03	8.562562E-16	1.730645E-17
6.900000E+03	8.559403E-16	1.734818E-17
6.910000E+03	8.577531E-16	1.743205E-17
6.920000E+03	8.616638E-16	1.755776E-17
6.930000E+03	8.676681E-16	1.772554E-17
6.940000E+03	8.756578E-16	1.793346E-17
6.950000E+03	8.855126E-16	1.817930E-17
6.960000E+03	8.970398E-16	1.845933E-17
6.970000E+03	9.100225E-16	1.876926E-17
6.980000E+03	9.241737E-16	1.910329E-17
6.990000E+03	9.391900E-16	1.945525E-17
7.000000E+03	9.547112E-16	1.981768E-17
7.010000E+03	9.703769E-16	2.018310E-17
7.020000E+03	9.857975E-16	2.054333E-17
7.030000E+03	1.000614E-15	2.089077E-17
7.040000E+03	1.014467E-15	2.121777E-17
7.050000E+03	1.027053E-15	2.151783E-17
7.060000E+03	1.038128E-15	2.178561E-17
7.070000E+03	1.047516E-15	2.201721E-17
7.080000E+03	1.055120E-15	2.221040E-17
7.090000E+03	1.060922E-15	2.236459E-17
7.100000E+03	1.064984E-15	2.248093E-17
7.110000E+03	1.067437E-15	2.256199E-17
7.120000E+03	1.068467E-15	2.261160E-17
7.130000E+03	1.068290E-15	2.263422E-17
7.140000E+03	1.067160E-15	2.263520E-17
7.150000E+03	1.065359E-15	2.262041E-17
7.160000E+03	1.063125E-15	2.259494E-17
7.170000E+03	1.060695E-15	2.256381E-17
7.180000E+03	1.058269E-15	2.253129E-17
7.190000E+03	1.056006E-15	2.250079E-17
7.200000E+03	1.054000E-15	2.247439E-17
7.210000E+03	1.052326E-15	2.245368E-17
7.220000E+03	1.050977E-15	2.243859E-17
7.230000E+03	1.049911E-15	2.242824E-17
7.240000E+03	1.049040E-15	2.242082E-17
7.250000E+03	1.048243E-15	2.241373E-17
7.260000E+03	1.047361E-15	2.240366E-17
7.270000E+03	1.046188E-15	2.238619E-17
7.280000E+03	1.044567E-15	2.235801E-17
7.290000E+03	1.042277E-15	2.231442E-17
7.300000E+03	1.039156E-15	2.225195E-17
7.310000E+03	1.035042E-15	2.216722E-17
7.320000E+03	1.029780E-15	2.205688E-17
7.330000E+03	1.023289E-15	2.191931E-17
7.340000E+03	1.015509E-15	2.175321E-17
7.350000E+03	1.006435E-15	2.155858E-17
7.360000E+03	9.961101E-16	2.133639E-17
7.370000E+03	9.846099E-16	2.108832E-17
7.380000E+03	9.720733E-16	2.081743E-17
7.390000E+03	9.586306E-16	2.052658E-17
7.400000E+03	9.444798E-16	2.022010E-17
7.410000E+03	9.297895E-16	1.990165E-17
7.420000E+03	9.147899E-16	1.957626E-17
7.430000E+03	8.996682E-16	1.924799E-17
7.440000E+03	8.846131E-16	1.892095E-17
7.450000E+03	8.697984E-16	1.859892E-17
7.460000E+03	8.553905E-16	1.828551E-17
7.470000E+03	8.414925E-16	1.798299E-17
7.480000E+03	8.282350E-16	1.769417E-17
7.490000E+03	8.156840E-16	1.742052E-17
7.500000E+03	8.039058E-16	1.716350E-17
7.510000E+03	7.929419E-16	1.692401E-17
7.520000E+03	7.827871E-16	1.670196E-17
7.530000E+03	7.734396E-16	1.649733E-17
7.540000E+03	7.648675E-16	1.630944E-17
7.550000E+03	7.570355E-16	1.613753E-17
7.560000E+03	7.498723E-16	1.598011E-17
7.570000E+03	7.433234E-16	1.583601E-17
7.580000E+03	7.373205E-16	1.570380E-17
7.590000E+03	7.318010E-16	1.558215E-17
7.600000E+03	7.267151E-16	1.547001E-17
7.610000E+03	7.220441E-16	1.536701E-17
7.620000E+03	7.177800E-16	1.527300E-17
7.630000E+03	7.139331E-16	1.518820E-17
7.640000E+03	7.105205E-16	1.511301E-17
7.650000E+03	7.076057E-16	1.504880E-17
7.660000E+03	7.052099E-16	1.499605E-17
7.670000E+03	7.033937E-16	1.495606E-17
7.680000E+03	7.021702E-16	1.492914E-17
7.690000E+03	7.015565E-16	1.491569E-17
7.700000E+03	7.015144E-16	1.491492E-17
7.710000E+03	7.020398E-16	1.492679E-17
7.720000E+03	7.030398E-16	1.494937E-17
7.730000E+03	7.044589E-16	1.498151E-17
7.740000E+03	7.061801E-16	1.502077E-17
7.750000E+03	7.081207E-16	1.506546E-17
7.760000E+03	7.101680E-16	1.511320E-17
