#wls	flux	fluxerr
1.600000E+03	1.140575E-16	7.094409E-18
1.640000E+03	1.154141E-16	7.143336E-18
1.680000E+03	1.167608E-16	7.189952E-18
1.720000E+03	1.181151E-16	7.235290E-18
1.760000E+03	1.194484E-16	7.277561E-18
1.800000E+03	1.208012E-16	7.319181E-18
1.840000E+03	1.221442E-16	7.358326E-18
1.880000E+03	1.234949E-16	7.395993E-18
1.920000E+03	1.248465E-16	7.431732E-18
1.960000E+03	1.262164E-16	7.466506E-18
2.000000E+03	1.275731E-16	7.498394E-18
2.040000E+03	1.289329E-16	7.528309E-18
2.080000E+03	1.302876E-16	7.555722E-18
2.120000E+03	1.316536E-16	7.581525E-18
2.160000E+03	1.330218E-16	7.605130E-18
2.200000E+03	1.343576E-16	7.624508E-18
2.240000E+03	1.357015E-16	7.641928E-18
2.280000E+03	1.369928E-16	7.653929E-18
2.320000E+03	1.382716E-16	7.662750E-18
2.360000E+03	1.395275E-16	7.667779E-18
2.400000E+03	1.406999E-16	7.665688E-18
2.440000E+03	1.418544E-16	7.660081E-18
2.480000E+03	1.429314E-16	7.647748E-18
2.520000E+03	1.439229E-16	7.628319E-18
2.560000E+03	1.448467E-16	7.602810E-18
2.600000E+03	1.457208E-16	7.572218E-18
2.640000E+03	1.464926E-16	7.533869E-18
2.680000E+03	1.471846E-16	7.489031E-18
2.720000E+03	1.478203E-16	7.438977E-18
2.760000E+03	1.484016E-16	7.383858E-18
2.800000E+03	1.489103E-16	7.322841E-18
2.840000E+03	1.494218E-16	7.259681E-18
2.880000E+03	1.499437E-16	7.194713E-18
2.920000E+03	1.504867E-16	7.128391E-18
2.960000E+03	1.511269E-16	7.064206E-18
3.000000E+03	1.518969E-16	7.003447E-18
3.010000E+03	1.521052E-16	6.988557E-18
3.020000E+03	1.523470E-16	6.975022E-18
3.030000E+03	1.525814E-16	6.960955E-18
3.040000E+03	1.528493E-16	6.948230E-18
3.050000E+03	1.531305E-16	6.935905E-18
3.060000E+03	1.534252E-16	6.923984E-18
3.070000E+03	1.537335E-16	6.912467E-18
3.080000E+03	1.540755E-16	6.902246E-18
3.090000E+03	1.544115E-16	6.891528E-18
3.100000E+03	1.548011E-16	6.882970E-18
3.110000E+03	1.551849E-16	6.873914E-18
3.120000E+03	1.556027E-16	6.866112E-18
3.130000E+03	1.560542E-16	6.859537E-18
3.140000E+03	1.565201E-16	6.853326E-18
3.150000E+03	1.570196E-16	6.848306E-18
3.160000E+03	1.575529E-16	6.844466E-18
3.170000E+03	1.581006E-16	6.840953E-18
3.180000E+03	1.587009E-16	6.839398E-18
3.190000E+03	1.593156E-16	6.838142E-18
3.200000E+03	1.599637E-16	6.837982E-18
3.210000E+03	1.606639E-16	6.839694E-18
3.220000E+03	1.613969E-16	6.842435E-18
3.230000E+03	1.621444E-16	6.845408E-18
3.240000E+03	1.629615E-16	6.850931E-18
3.250000E+03	1.638111E-16	6.857399E-18
3.260000E+03	1.646929E-16	6.864788E-18
3.270000E+03	1.656251E-16	6.873833E-18
3.280000E+03	1.666071E-16	6.884479E-18
3.290000E+03	1.676205E-16	6.895943E-18
3.300000E+03	1.686832E-16	6.908936E-18
3.310000E+03	1.698124E-16	6.924133E-18
3.320000E+03	1.709900E-16	6.940755E-18
3.330000E+03	1.721976E-16	6.958035E-18
3.340000E+03	1.734880E-16	6.978078E-18
3.350000E+03	1.748253E-16	6.999396E-18
3.360000E+03	1.762091E-16	7.021942E-18
3.370000E+03	1.776564E-16	7.046365E-18
3.380000E+03	1.791666E-16	7.072607E-18
3.390000E+03	1.807394E-16	7.100608E-18
3.400000E+03	1.823741E-16	7.130314E-18
3.410000E+03	1.840706E-16	7.161672E-18
3.420000E+03	1.858456E-16	7.195293E-18
3.430000E+03	1.876816E-16	7.230460E-18
3.440000E+03	1.895955E-16	7.267778E-18
3.450000E+03	1.915702E-16	7.306549E-18
3.460000E+03	1.936397E-16	7.348021E-18
3.470000E+03	1.957872E-16	7.391503E-18
3.480000E+03	1.979963E-16	7.436328E-18
3.490000E+03	2.003178E-16	7.484358E-18
3.500000E+03	2.027189E-16	7.534302E-18
3.510000E+03	2.052007E-16	7.586150E-18
3.520000E+03	2.077811E-16	7.640505E-18
3.530000E+03	2.104780E-16	7.697963E-18
3.540000E+03	2.132602E-16	7.757317E-18
3.550000E+03	2.161627E-16	7.819771E-18
3.560000E+03	2.191716E-16	7.884752E-18
3.570000E+03	2.223058E-16	7.952870E-18
3.580000E+03	2.255685E-16	8.024154E-18
3.590000E+03	2.289470E-16	8.098071E-18
3.600000E+03	2.324773E-16	8.175816E-18
3.610000E+03	2.361475E-16	8.256872E-18
3.620000E+03	2.399782E-16	8.341867E-18
3.630000E+03	2.439581E-16	8.430303E-18
3.640000E+03	2.481086E-16	8.522819E-18
3.650000E+03	2.524190E-16	8.618939E-18
3.660000E+03	2.569271E-16	8.719840E-18
3.670000E+03	2.616229E-16	8.825057E-18
3.680000E+03	2.665284E-16	8.935205E-18
3.690000E+03	2.716339E-16	9.049819E-18
3.700000E+03	2.769616E-16	9.169505E-18
3.710000E+03	2.825016E-16	9.293792E-18
3.720000E+03	2.882920E-16	9.423784E-18
3.730000E+03	2.943224E-16	9.558979E-18
3.740000E+03	3.005982E-16	9.699389E-18
3.750000E+03	3.071240E-16	9.845001E-18
3.760000E+03	3.139199E-16	9.996285E-18
3.770000E+03	3.209891E-16	1.015317E-17
3.780000E+03	3.283173E-16	1.031501E-17
3.790000E+03	3.359377E-16	1.048269E-17
3.800000E+03	3.438168E-16	1.065496E-17
3.810000E+03	3.519848E-16	1.083257E-17
3.820000E+03	3.604208E-16	1.101470E-17
3.830000E+03	3.691342E-16	1.120145E-17
3.840000E+03	3.780995E-16	1.139186E-17
3.850000E+03	3.873046E-16	1.158540E-17
3.860000E+03	3.967513E-16	1.178197E-17
3.870000E+03	4.064219E-16	1.198086E-17
3.880000E+03	4.162954E-16	1.218133E-17
3.890000E+03	4.263307E-16	1.238202E-17
3.900000E+03	4.365171E-16	1.258253E-17
3.910000E+03	4.468405E-16	1.278235E-17
3.920000E+03	4.572333E-16	1.297946E-17
3.930000E+03	4.676755E-16	1.317324E-17
3.940000E+03	4.781443E-16	1.336303E-17
3.950000E+03	4.885638E-16	1.354669E-17
3.960000E+03	4.989070E-16	1.372353E-17
3.970000E+03	5.091288E-16	1.389234E-17
3.980000E+03	5.192001E-16	1.405244E-17
3.990000E+03	5.290410E-16	1.420176E-17
4.000000E+03	5.386061E-16	1.433927E-17
4.010000E+03	5.478858E-16	1.446489E-17
4.020000E+03	5.568049E-16	1.457684E-17
4.030000E+03	5.653251E-16	1.467439E-17
4.040000E+03	5.734291E-16	1.475735E-17
4.050000E+03	5.810871E-16	1.482525E-17
4.060000E+03	5.882418E-16	1.487694E-17
4.070000E+03	5.948914E-16	1.491274E-17
4.080000E+03	6.010238E-16	1.493268E-17
4.090000E+03	6.066172E-16	1.493659E-17
4.100000E+03	6.116730E-16	1.492487E-17
4.110000E+03	6.162147E-16	1.489847E-17
4.120000E+03	6.202250E-16	1.485733E-17
4.130000E+03	6.237247E-16	1.480231E-17
4.140000E+03	6.267402E-16	1.473440E-17
4.150000E+03	6.293177E-16	1.465501E-17
4.160000E+03	6.314484E-16	1.456424E-17
4.170000E+03	6.331877E-16	1.446369E-17
4.180000E+03	6.345790E-16	1.435461E-17
4.190000E+03	6.356535E-16	1.423795E-17
4.200000E+03	6.364594E-16	1.411501E-17
4.210000E+03	6.370183E-16	1.398648E-17
4.220000E+03	6.373940E-16	1.385391E-17
4.230000E+03	6.376359E-16	1.371852E-17
4.240000E+03	6.377672E-16	1.358092E-17
4.250000E+03	6.378241E-16	1.344195E-17
4.260000E+03	6.378668E-16	1.330295E-17
4.270000E+03	6.379285E-16	1.316465E-17
4.280000E+03	6.380411E-16	1.302770E-17
4.290000E+03	6.382351E-16	1.289272E-17
4.300000E+03	6.385394E-16	1.276025E-17
4.310000E+03	6.390042E-16	1.263124E-17
4.320000E+03	6.396427E-16	1.250589E-17
4.330000E+03	6.404782E-16	1.238455E-17
4.340000E+03	6.415327E-16	1.226756E-17
4.350000E+03	6.428481E-16	1.215560E-17
4.360000E+03	6.444209E-16	1.204848E-17
4.370000E+03	6.462787E-16	1.194658E-17
4.380000E+03	6.484474E-16	1.185023E-17
4.390000E+03	6.509185E-16	1.175913E-17
4.400000E+03	6.537338E-16	1.167388E-17
4.410000E+03	6.568790E-16	1.159407E-17
4.420000E+03	6.603582E-16	1.151960E-17
4.430000E+03	6.641922E-16	1.145069E-17
4.440000E+03	6.683779E-16	1.138712E-17
4.450000E+03	6.729071E-16	1.132861E-17
4.460000E+03	6.777772E-16	1.127495E-17
4.470000E+03	6.829696E-16	1.122571E-17
4.480000E+03	6.884602E-16	1.118034E-17
4.490000E+03	6.942484E-16	1.113874E-17
4.500000E+03	7.002970E-16	1.110022E-17
4.510000E+03	7.065622E-16	1.106400E-17
4.520000E+03	7.130136E-16	1.102958E-17
4.530000E+03	7.196047E-16	1.099621E-17
4.540000E+03	7.262831E-16	1.096313E-17
4.550000E+03	7.329910E-16	1.092950E-17
4.560000E+03	7.396667E-16	1.089451E-17
4.570000E+03	7.462550E-16	1.085745E-17
4.580000E+03	7.526783E-16	1.081738E-17
4.590000E+03	7.588884E-16	1.077379E-17
4.600000E+03	7.648075E-16	1.072582E-17
4.610000E+03	7.703593E-16	1.067266E-17
4.620000E+03	7.755109E-16	1.061416E-17
4.630000E+03	7.801839E-16	1.054959E-17
4.640000E+03	7.843358E-16	1.047871E-17
4.650000E+03	7.879207E-16	1.040128E-17
4.660000E+03	7.909009E-16	1.031719E-17
4.670000E+03	7.932573E-16	1.022657E-17
4.680000E+03	7.949604E-16	1.012946E-17
4.690000E+03	7.960004E-16	1.002610E-17
4.700000E+03	7.963871E-16	9.917001E-18
4.710000E+03	7.961199E-16	9.802531E-18
4.720000E+03	7.952276E-16	9.683389E-18
4.730000E+03	7.937271E-16	9.560111E-18
4.740000E+03	7.916427E-16	9.433291E-18
4.750000E+03	7.890324E-16	9.303899E-18
4.760000E+03	7.859186E-16	9.172442E-18
4.770000E+03	7.823509E-16	9.039717E-18
4.780000E+03	7.783644E-16	8.906320E-18
4.790000E+03	7.740258E-16	8.773172E-18
4.800000E+03	7.695056E-16	8.642320E-18
4.810000E+03	7.649610E-16	8.515579E-18
4.820000E+03	7.605590E-16	8.394803E-18
4.830000E+03	7.564408E-16	8.281487E-18
4.840000E+03	7.527129E-16	8.176604E-18
4.850000E+03	7.494917E-16	8.081156E-18
4.860000E+03	7.468662E-16	7.995830E-18
4.870000E+03	7.448892E-16	7.920910E-18
4.880000E+03	7.436120E-16	7.856663E-18
4.890000E+03	7.430655E-16	7.803148E-18
4.900000E+03	7.432527E-16	7.760131E-18
4.910000E+03	7.441652E-16	7.727281E-18
4.920000E+03	7.457668E-16	7.703995E-18
4.930000E+03	7.480114E-16	7.689586E-18
4.940000E+03	7.508107E-16	7.682959E-18
4.950000E+03	7.541030E-16	7.683314E-18
4.960000E+03	7.577801E-16	7.689399E-18
4.970000E+03	7.617331E-16	7.699979E-18
4.980000E+03	7.658557E-16	7.713865E-18
4.990000E+03	7.700320E-16	7.729791E-18
5.000000E+03	7.741417E-16	7.746462E-18
5.010000E+03	7.780991E-16	7.762944E-18
5.020000E+03	7.818065E-16	7.778196E-18
5.030000E+03	7.851930E-16	7.791445E-18
5.040000E+03	7.882168E-16	7.802220E-18
5.050000E+03	7.908416E-16	7.810103E-18
5.060000E+03	7.930800E-16	7.815159E-18
5.070000E+03	7.949222E-16	7.817234E-18
5.080000E+03	7.964289E-16	7.816866E-18
5.090000E+03	7.976411E-16	7.814396E-18
5.100000E+03	7.986101E-16	7.810268E-18
5.110000E+03	7.994192E-16	7.805234E-18
5.120000E+03	8.001192E-16	7.799729E-18
5.130000E+03	8.007933E-16	7.794505E-18
5.140000E+03	8.014937E-16	7.790011E-18
5.150000E+03	8.022741E-16	7.786713E-18
5.160000E+03	8.031794E-16	7.784995E-18
5.170000E+03	8.042453E-16	7.785153E-18
5.180000E+03	8.054974E-16	7.787390E-18
5.190000E+03	8.069606E-16	7.791907E-18
5.200000E+03	8.086336E-16	7.798654E-18
5.210000E+03	8.105153E-16	7.807590E-18
5.220000E+03	8.125963E-16	7.818599E-18
5.230000E+03	8.148603E-16	7.831505E-18
5.240000E+03	8.172839E-16	7.846068E-18
5.250000E+03	8.198375E-16	7.861996E-18
5.260000E+03	8.224942E-16	7.879029E-18
5.270000E+03	8.251960E-16	7.896613E-18
5.280000E+03	8.279145E-16	7.914488E-18
5.290000E+03	8.305830E-16	7.932031E-18
5.300000E+03	8.331581E-16	7.948852E-18
5.310000E+03	8.355860E-16	7.964461E-18
5.320000E+03	8.378130E-16	7.978385E-18
5.330000E+03	8.397868E-16	7.990160E-18
5.340000E+03	8.414582E-16	7.999365E-18
5.350000E+03	8.427737E-16	8.005540E-18
5.360000E+03	8.436949E-16	8.008371E-18
5.370000E+03	8.442073E-16	8.007776E-18
5.380000E+03	8.442612E-16	8.003344E-18
5.390000E+03	8.438582E-16	7.995148E-18
5.400000E+03	8.429902E-16	7.983173E-18
5.410000E+03	8.416479E-16	7.967391E-18
5.420000E+03	8.398364E-16	7.947912E-18
5.430000E+03	8.375649E-16	7.924882E-18
5.440000E+03	8.348448E-16	7.898465E-18
5.450000E+03	8.316865E-16	7.868818E-18
5.460000E+03	8.280976E-16	7.836063E-18
5.470000E+03	8.240801E-16	7.800266E-18
5.480000E+03	8.196203E-16	7.761344E-18
5.490000E+03	8.147141E-16	7.719294E-18
5.500000E+03	8.093292E-16	7.673781E-18
5.510000E+03	8.034324E-16	7.624384E-18
5.520000E+03	7.969741E-16	7.570515E-18
5.530000E+03	7.899216E-16	7.511744E-18
5.540000E+03	7.822649E-16	7.447858E-18
5.550000E+03	7.739999E-16	7.378695E-18
5.560000E+03	7.651718E-16	7.304568E-18
5.570000E+03	7.558174E-16	7.225711E-18
5.580000E+03	7.460494E-16	7.143092E-18
5.590000E+03	7.359795E-16	7.057678E-18
5.600000E+03	7.257537E-16	6.970775E-18
5.610000E+03	7.155468E-16	6.883982E-18
5.620000E+03	7.055284E-16	6.798865E-18
5.630000E+03	6.959001E-16	6.717313E-18
5.640000E+03	6.868671E-16	6.641272E-18
5.650000E+03	6.786126E-16	6.572490E-18
5.660000E+03	6.713401E-16	6.512931E-18
5.670000E+03	6.652153E-16	6.464208E-18
5.680000E+03	6.604159E-16	6.428068E-18
5.690000E+03	6.570763E-16	6.405847E-18
5.700000E+03	6.553313E-16	6.398896E-18
5.710000E+03	6.552888E-16	6.408311E-18
5.720000E+03	6.570288E-16	6.434920E-18
5.730000E+03	6.606147E-16	6.479394E-18
5.740000E+03	6.660921E-16	6.542228E-18
5.750000E+03	6.734679E-16	6.623537E-18
5.760000E+03	6.827338E-16	6.723282E-18
5.770000E+03	6.938309E-16	6.840921E-18
5.780000E+03	7.066857E-16	6.975763E-18
5.790000E+03	7.211811E-16	7.126676E-18
5.800000E+03	7.371600E-16	7.292124E-18
5.810000E+03	7.544151E-16	7.470065E-18
5.820000E+03	7.727100E-16	7.658160E-18
5.830000E+03	7.917436E-16	7.853419E-18
5.840000E+03	8.112053E-16	8.052746E-18
5.850000E+03	8.307292E-16	8.252491E-18
5.860000E+03	8.499252E-16	8.448758E-18
5.870000E+03	8.684075E-16	8.637685E-18
5.880000E+03	8.857767E-16	8.815278E-18
5.890000E+03	9.016679E-16	8.977886E-18
5.900000E+03	9.157330E-16	9.122026E-18
5.910000E+03	9.276714E-16	9.244697E-18
5.920000E+03	9.372701E-16	9.343776E-18
5.930000E+03	9.443503E-16	9.417490E-18
5.940000E+03	9.488355E-16	9.465095E-18
5.950000E+03	9.507081E-16	9.486443E-18
5.960000E+03	9.500339E-16	9.482228E-18
5.970000E+03	9.469554E-16	9.453916E-18
5.980000E+03	9.416460E-16	9.403290E-18
5.990000E+03	9.343623E-16	9.332966E-18
6.000000E+03	9.253590E-16	9.245547E-18
6.010000E+03	9.149472E-16	9.144201E-18
6.020000E+03	9.034121E-16	9.031840E-18
6.030000E+03	8.910540E-16	8.911527E-18
6.040000E+03	8.781789E-16	8.786384E-18
6.050000E+03	8.650400E-16	8.659004E-18
6.060000E+03	8.518917E-16	8.531996E-18
6.070000E+03	8.389528E-16	8.407613E-18
6.080000E+03	8.264126E-16	8.287813E-18
6.090000E+03	8.144236E-16	8.174192E-18
6.100000E+03	8.031324E-16	8.068288E-18
6.110000E+03	7.926274E-16	7.971064E-18
6.120000E+03	7.830021E-16	7.883534E-18
6.130000E+03	7.742958E-16	7.806177E-18
6.140000E+03	7.665416E-16	7.739416E-18
6.150000E+03	7.597599E-16	7.683551E-18
6.160000E+03	7.539306E-16	7.638480E-18
6.170000E+03	7.490174E-16	7.603944E-18
6.180000E+03	7.449754E-16	7.579598E-18
6.190000E+03	7.417591E-16	7.565097E-18
6.200000E+03	7.393015E-16	7.559878E-18
6.210000E+03	7.375364E-16	7.563388E-18
6.220000E+03	7.363843E-16	7.574929E-18
6.230000E+03	7.357317E-16	7.593373E-18
6.240000E+03	7.354682E-16	7.617566E-18
6.250000E+03	7.355068E-16	7.646582E-18
6.260000E+03	7.357967E-16	7.679868E-18
6.270000E+03	7.362797E-16	7.716782E-18
6.280000E+03	7.369078E-16	7.756781E-18
6.290000E+03	7.376319E-16	7.799306E-18
6.300000E+03	7.383822E-16	7.843566E-18
6.310000E+03	7.391213E-16	7.889105E-18
6.320000E+03	7.398021E-16	7.935353E-18
6.330000E+03	7.403764E-16	7.981718E-18
6.340000E+03	7.408249E-16	8.027909E-18
6.350000E+03	7.411058E-16	8.073387E-18
6.360000E+03	7.412146E-16	8.118011E-18
6.370000E+03	7.411389E-16	8.161548E-18
6.380000E+03	7.408650E-16	8.203751E-18
6.390000E+03	7.404071E-16	8.244678E-18
6.400000E+03	7.397616E-16	8.284193E-18
6.410000E+03	7.389440E-16	8.322371E-18
6.420000E+03	7.379576E-16	8.359159E-18
6.430000E+03	7.368160E-16	8.394616E-18
6.440000E+03	7.355508E-16	8.429016E-18
6.450000E+03	7.341581E-16	8.462235E-18
6.460000E+03	7.326673E-16	8.494530E-18
6.470000E+03	7.310956E-16	8.526029E-18
6.480000E+03	7.294716E-16	8.556983E-18
6.490000E+03	7.278190E-16	8.587585E-18
6.500000E+03	7.261645E-16	8.618072E-18
6.510000E+03	7.245583E-16	8.648973E-18
6.520000E+03	7.230416E-16	8.680724E-18
6.530000E+03	7.216582E-16	8.713807E-18
6.540000E+03	7.204203E-16	8.748330E-18
6.550000E+03	7.193501E-16	8.784535E-18
6.560000E+03	7.184503E-16	8.822429E-18
6.570000E+03	7.177027E-16	8.861761E-18
6.580000E+03	7.170758E-16	8.902117E-18
6.590000E+03	7.165327E-16	8.943005E-18
6.600000E+03	7.160165E-16	8.983673E-18
6.610000E+03	7.154667E-16	9.023313E-18
6.620000E+03	7.147909E-16	9.060699E-18
6.630000E+03	7.139222E-16	9.094906E-18
6.640000E+03	7.127680E-16	9.124666E-18
6.650000E+03	7.112531E-16	9.148918E-18
6.660000E+03	7.093012E-16	9.166568E-18
6.670000E+03	7.068462E-16	9.176645E-18
6.680000E+03	7.038284E-16	9.178250E-18
6.690000E+03	7.002293E-16	9.171012E-18
6.700000E+03	6.960261E-16	9.154510E-18
6.710000E+03	6.912166E-16	9.128597E-18
6.720000E+03	6.858425E-16	9.093712E-18
6.730000E+03	6.799420E-16	9.050266E-18
6.740000E+03	6.735864E-16	8.999125E-18
6.750000E+03	6.668473E-16	8.941183E-18
6.760000E+03	6.598171E-16	8.877629E-18
6.770000E+03	6.526050E-16	8.809906E-18
6.780000E+03	6.453126E-16	8.739374E-18
6.790000E+03	6.380601E-16	8.667672E-18
6.800000E+03	6.309541E-16	8.596272E-18
6.810000E+03	6.241150E-16	8.526851E-18
6.820000E+03	6.176447E-16	8.460853E-18
6.830000E+03	6.116612E-16	8.399957E-18
6.840000E+03	6.062398E-16	8.345266E-18
6.850000E+03	6.014897E-16	8.298353E-18
6.860000E+03	5.974748E-16	8.260180E-18
6.870000E+03	5.942692E-16	8.231843E-18
6.880000E+03	5.919283E-16	8.214182E-18
6.890000E+03	5.904944E-16	8.207854E-18
6.900000E+03	5.899894E-16	8.213220E-18
6.910000E+03	5.904340E-16	8.230624E-18
6.920000E+03	5.918261E-16	8.260078E-18
6.930000E+03	5.941401E-16	8.301253E-18
6.940000E+03	5.973461E-16	8.353755E-18
6.950000E+03	6.013828E-16	8.416730E-18
6.960000E+03	6.061918E-16	8.489358E-18
6.970000E+03	6.116623E-16	8.570072E-18
6.980000E+03	6.177039E-16	8.657580E-18
6.990000E+03	6.241999E-16	8.750210E-18
7.000000E+03	6.310163E-16	8.846047E-18
7.010000E+03	6.380219E-16	8.943206E-18
7.020000E+03	6.450930E-16	9.039906E-18
7.030000E+03	6.520954E-16	9.134224E-18
7.040000E+03	6.589127E-16	9.224485E-18
7.050000E+03	6.654427E-16	9.309223E-18
7.060000E+03	6.716016E-16	9.387238E-18
7.070000E+03	6.773193E-16	9.457527E-18
7.080000E+03	6.825725E-16	9.519753E-18
7.090000E+03	6.873293E-16	9.573467E-18
7.100000E+03	6.916044E-16	9.618876E-18
7.110000E+03	6.954164E-16	9.656247E-18
7.120000E+03	6.988089E-16	9.686202E-18
7.130000E+03	7.018470E-16	9.709657E-18
7.140000E+03	7.045862E-16	9.727402E-18
7.150000E+03	7.070933E-16	9.740372E-18
7.160000E+03	7.094323E-16	9.749469E-18
7.170000E+03	7.116511E-16	9.755359E-18
7.180000E+03	7.138023E-16	9.758780E-18
7.190000E+03	7.159151E-16	9.760134E-18
7.200000E+03	7.179906E-16	9.759448E-18
7.210000E+03	7.200192E-16	9.756597E-18
7.220000E+03	7.219706E-16	9.751187E-18
7.230000E+03	7.238036E-16	9.742680E-18
7.240000E+03	7.254324E-16	9.729953E-18
7.250000E+03	7.267831E-16	9.712057E-18
7.260000E+03	7.277521E-16	9.687671E-18
7.270000E+03	7.282561E-16	9.655768E-18
7.280000E+03	7.281650E-16	9.614723E-18
7.290000E+03	7.273967E-16	9.563583E-18
7.300000E+03	7.258510E-16	9.501178E-18
7.310000E+03	7.234589E-16	9.426782E-18
7.320000E+03	7.201426E-16	9.339576E-18
7.330000E+03	7.158817E-16	9.239510E-18
7.340000E+03	7.106442E-16	9.126401E-18
7.350000E+03	7.044597E-16	9.000869E-18
7.360000E+03	6.973477E-16	8.863405E-18
7.370000E+03	6.893876E-16	8.715261E-18
7.380000E+03	6.806458E-16	8.557513E-18
7.390000E+03	6.712425E-16	8.391889E-18
7.400000E+03	6.612858E-16	8.219948E-18
7.410000E+03	6.508947E-16	8.043346E-18
7.420000E+03	6.402179E-16	7.864076E-18
7.430000E+03	6.293879E-16	7.683891E-18
7.440000E+03	6.185180E-16	7.504267E-18
7.450000E+03	6.077383E-16	7.326852E-18
7.460000E+03	5.971612E-16	7.153037E-18
7.470000E+03	5.868940E-16	6.984115E-18
7.480000E+03	5.770081E-16	6.820920E-18
7.490000E+03	5.675831E-16	6.664355E-18
7.500000E+03	5.586690E-16	6.514949E-18
7.510000E+03	5.503230E-16	6.373299E-18
7.520000E+03	5.425599E-16	6.239485E-18
7.530000E+03	5.353953E-16	6.113597E-18
7.540000E+03	5.288399E-16	5.995654E-18
7.550000E+03	5.228799E-16	5.885364E-18
7.560000E+03	5.174991E-16	5.782398E-18
7.570000E+03	5.126737E-16	5.686348E-18
7.580000E+03	5.083802E-16	5.596817E-18
7.590000E+03	5.045778E-16	5.513227E-18
7.600000E+03	5.012364E-16	5.435131E-18
7.610000E+03	4.983054E-16	5.361872E-18
7.620000E+03	4.957663E-16	5.293153E-18
7.630000E+03	4.936075E-16	5.228758E-18
7.640000E+03	4.918386E-16	5.168699E-18
7.650000E+03	4.904556E-16	5.112845E-18
7.660000E+03	4.894596E-16	5.061119E-18
7.670000E+03	4.888555E-16	5.013486E-18
7.680000E+03	4.886320E-16	4.969747E-18
7.690000E+03	4.887861E-16	4.929791E-18
7.700000E+03	4.892971E-16	4.893335E-18
7.710000E+03	4.901517E-16	4.860180E-18
7.720000E+03	4.913185E-16	4.829954E-18
7.730000E+03	4.927804E-16	4.802442E-18
7.740000E+03	4.944902E-16	4.777147E-18
7.750000E+03	4.964099E-16	4.753680E-18
7.760000E+03	4.985127E-16	4.731778E-18
