#wls	flux	fluxerr
1.600000E+03	1.188318E-16	3.778854E-18
1.640000E+03	1.200961E-16	3.804675E-18
1.680000E+03	1.213690E-16	3.830089E-18
1.720000E+03	1.226217E-16	3.854176E-18
1.760000E+03	1.238722E-16	3.877482E-18
1.800000E+03	1.251149E-16	3.899819E-18
1.840000E+03	1.263682E-16	3.921736E-18
1.880000E+03	1.276013E-16	3.942260E-18
1.920000E+03	1.288323E-16	3.961934E-18
1.960000E+03	1.300541E-16	3.980522E-18
2.000000E+03	1.312850E-16	3.998560E-18
2.040000E+03	1.325175E-16	4.015799E-18
2.080000E+03	1.337182E-16	4.031208E-18
2.120000E+03	1.349301E-16	4.046068E-18
2.160000E+03	1.361190E-16	4.059333E-18
2.200000E+03	1.373017E-16	4.071491E-18
2.240000E+03	1.384437E-16	4.081504E-18
2.280000E+03	1.395873E-16	4.090609E-18
2.320000E+03	1.406717E-16	4.097013E-18
2.360000E+03	1.417394E-16	4.101956E-18
2.400000E+03	1.427560E-16	4.104435E-18
2.440000E+03	1.437130E-16	4.104217E-18
2.480000E+03	1.446285E-16	4.101824E-18
2.520000E+03	1.454951E-16	4.097059E-18
2.560000E+03	1.463070E-16	4.089764E-18
2.600000E+03	1.470596E-16	4.079828E-18
2.640000E+03	1.477499E-16	4.067186E-18
2.680000E+03	1.484006E-16	4.052484E-18
2.720000E+03	1.490115E-16	4.035726E-18
2.760000E+03	1.495844E-16	4.016970E-18
2.800000E+03	1.501696E-16	3.997567E-18
2.840000E+03	1.507709E-16	3.977594E-18
2.880000E+03	1.513946E-16	3.957189E-18
2.920000E+03	1.521142E-16	3.938225E-18
2.960000E+03	1.529575E-16	3.921328E-18
3.000000E+03	1.539732E-16	3.907625E-18
3.010000E+03	1.542632E-16	3.904911E-18
3.020000E+03	1.545656E-16	3.902425E-18
3.030000E+03	1.548806E-16	3.900168E-18
3.040000E+03	1.552081E-16	3.898136E-18
3.050000E+03	1.555482E-16	3.896329E-18
3.060000E+03	1.559215E-16	3.895258E-18
3.070000E+03	1.563076E-16	3.894405E-18
3.080000E+03	1.567062E-16	3.893767E-18
3.090000E+03	1.571378E-16	3.893841E-18
3.100000E+03	1.575822E-16	3.894123E-18
3.110000E+03	1.580592E-16	3.895102E-18
3.120000E+03	1.585489E-16	3.896277E-18
3.130000E+03	1.590710E-16	3.898130E-18
3.140000E+03	1.596255E-16	3.900652E-18
3.150000E+03	1.601925E-16	3.903352E-18
3.160000E+03	1.608109E-16	3.907174E-18
3.170000E+03	1.614416E-16	3.911156E-18
3.180000E+03	1.621039E-16	3.915762E-18
3.190000E+03	1.627975E-16	3.920981E-18
3.200000E+03	1.635222E-16	3.926796E-18
3.210000E+03	1.642969E-16	3.933655E-18
3.220000E+03	1.651020E-16	3.941077E-18
3.230000E+03	1.659375E-16	3.949054E-18
3.240000E+03	1.668029E-16	3.957571E-18
3.250000E+03	1.677167E-16	3.967056E-18
3.260000E+03	1.686784E-16	3.977485E-18
3.270000E+03	1.696690E-16	3.988403E-18
3.280000E+03	1.707067E-16	4.000224E-18
3.290000E+03	1.717909E-16	4.012928E-18
3.300000E+03	1.729212E-16	4.026492E-18
3.310000E+03	1.740972E-16	4.040893E-18
3.320000E+03	1.753182E-16	4.056109E-18
3.330000E+03	1.766019E-16	4.072535E-18
3.340000E+03	1.779117E-16	4.089314E-18
3.350000E+03	1.793010E-16	4.107662E-18
3.360000E+03	1.807335E-16	4.126733E-18
3.370000E+03	1.822087E-16	4.146502E-18
3.380000E+03	1.837618E-16	4.167757E-18
3.390000E+03	1.853567E-16	4.189666E-18
3.400000E+03	1.870285E-16	4.213004E-18
3.410000E+03	1.887418E-16	4.236958E-18
3.420000E+03	1.905311E-16	4.262294E-18
3.430000E+03	1.923963E-16	4.288985E-18
3.440000E+03	1.943200E-16	4.316626E-18
3.450000E+03	1.963192E-16	4.345582E-18
3.460000E+03	1.983943E-16	4.375837E-18
3.470000E+03	2.005284E-16	4.407006E-18
3.480000E+03	2.027560E-16	4.439824E-18
3.490000E+03	2.050777E-16	4.474281E-18
3.500000E+03	2.074603E-16	4.509633E-18
3.510000E+03	2.099554E-16	4.546980E-18
3.520000E+03	2.125304E-16	4.585591E-18
3.530000E+03	2.152037E-16	4.625840E-18
3.540000E+03	2.179768E-16	4.667730E-18
3.550000E+03	2.208515E-16	4.711277E-18
3.560000E+03	2.238299E-16	4.756498E-18
3.570000E+03	2.269310E-16	4.803768E-18
3.580000E+03	2.301571E-16	4.853102E-18
3.590000E+03	2.335112E-16	4.904530E-18
3.600000E+03	2.369962E-16	4.958082E-18
3.610000E+03	2.406156E-16	5.013791E-18
3.620000E+03	2.443728E-16	5.071697E-18
3.630000E+03	2.482877E-16	5.132171E-18
3.640000E+03	2.523481E-16	5.194921E-18
3.650000E+03	2.565743E-16	5.260322E-18
3.660000E+03	2.609862E-16	5.328741E-18
3.670000E+03	2.655559E-16	5.399558E-18
3.680000E+03	2.703198E-16	5.473467E-18
3.690000E+03	2.752658E-16	5.550172E-18
3.700000E+03	2.804138E-16	5.630024E-18
3.710000E+03	2.857676E-16	5.713043E-18
3.720000E+03	2.913303E-16	5.799240E-18
3.730000E+03	2.971052E-16	5.888618E-18
3.740000E+03	3.030944E-16	5.981162E-18
3.750000E+03	3.093156E-16	6.077163E-18
3.760000E+03	3.157537E-16	6.176261E-18
3.770000E+03	3.224408E-16	6.279023E-18
3.780000E+03	3.293436E-16	6.384735E-18
3.790000E+03	3.364756E-16	6.493598E-18
3.800000E+03	3.438332E-16	6.605479E-18
3.810000E+03	3.514269E-16	6.720519E-18
3.820000E+03	3.592497E-16	6.838517E-18
3.830000E+03	3.672601E-16	6.958626E-18
3.840000E+03	3.754958E-16	7.081503E-18
3.850000E+03	3.839272E-16	7.206530E-18
3.860000E+03	3.925228E-16	7.333063E-18
3.870000E+03	4.012972E-16	7.461330E-18
3.880000E+03	4.101975E-16	7.590301E-18
3.890000E+03	4.192338E-16	7.720126E-18
3.900000E+03	4.283812E-16	7.850309E-18
3.910000E+03	4.375797E-16	7.979727E-18
3.920000E+03	4.468324E-16	8.108421E-18
3.930000E+03	4.561082E-16	8.235812E-18
3.940000E+03	4.653576E-16	8.361003E-18
3.950000E+03	4.745623E-16	8.483675E-18
3.960000E+03	4.836870E-16	8.603211E-18
3.970000E+03	4.926788E-16	8.718699E-18
3.980000E+03	5.015021E-16	8.829544E-18
3.990000E+03	5.101531E-16	8.935731E-18
4.000000E+03	5.185484E-16	9.035850E-18
4.010000E+03	5.266869E-16	9.129957E-18
4.020000E+03	5.345370E-16	9.217577E-18
4.030000E+03	5.420540E-16	9.298024E-18
4.040000E+03	5.492124E-16	9.370955E-18
4.050000E+03	5.559901E-16	9.436100E-18
4.060000E+03	5.623692E-16	9.493260E-18
4.070000E+03	5.683363E-16	9.542324E-18
4.080000E+03	5.738670E-16	9.583002E-18
4.090000E+03	5.789728E-16	9.615608E-18
4.100000E+03	5.836397E-16	9.640033E-18
4.110000E+03	5.878589E-16	9.656256E-18
4.120000E+03	5.916566E-16	9.664834E-18
4.130000E+03	5.950339E-16	9.665903E-18
4.140000E+03	5.980112E-16	9.659917E-18
4.150000E+03	6.006126E-16	9.647377E-18
4.160000E+03	6.028389E-16	9.628405E-18
4.170000E+03	6.047355E-16	9.603832E-18
4.180000E+03	6.063237E-16	9.574087E-18
4.190000E+03	6.076401E-16	9.539841E-18
4.200000E+03	6.087105E-16	9.501575E-18
4.210000E+03	6.095627E-16	9.459795E-18
4.220000E+03	6.102382E-16	9.415208E-18
4.230000E+03	6.107788E-16	9.368511E-18
4.240000E+03	6.112022E-16	9.320017E-18
4.250000E+03	6.115503E-16	9.270403E-18
4.260000E+03	6.118532E-16	9.220148E-18
4.270000E+03	6.121514E-16	9.169883E-18
4.280000E+03	6.124616E-16	9.119863E-18
4.290000E+03	6.128340E-16	9.070838E-18
4.300000E+03	6.132720E-16	9.022850E-18
4.310000E+03	6.138119E-16	8.976423E-18
4.320000E+03	6.144880E-16	8.932036E-18
4.330000E+03	6.153115E-16	8.889824E-18
4.340000E+03	6.163134E-16	8.850205E-18
4.350000E+03	6.175022E-16	8.813264E-18
4.360000E+03	6.188953E-16	8.779209E-18
4.370000E+03	6.205184E-16	8.748361E-18
4.380000E+03	6.223848E-16	8.720857E-18
4.390000E+03	6.244860E-16	8.696530E-18
4.400000E+03	6.268481E-16	8.675691E-18
4.410000E+03	6.294619E-16	8.658162E-18
4.420000E+03	6.323258E-16	8.643871E-18
4.430000E+03	6.354348E-16	8.632701E-18
4.440000E+03	6.387806E-16	8.624495E-18
4.450000E+03	6.423422E-16	8.618924E-18
4.460000E+03	6.461228E-16	8.615995E-18
4.470000E+03	6.501030E-16	8.615410E-18
4.480000E+03	6.542775E-16	8.617068E-18
4.490000E+03	6.586279E-16	8.620694E-18
4.500000E+03	6.631122E-16	8.625720E-18
4.510000E+03	6.677313E-16	8.632143E-18
4.520000E+03	6.724353E-16	8.639308E-18
4.530000E+03	6.772075E-16	8.647004E-18
4.540000E+03	6.819911E-16	8.654511E-18
4.550000E+03	6.867541E-16	8.661445E-18
4.560000E+03	6.914618E-16	8.667400E-18
4.570000E+03	6.960690E-16	8.671846E-18
4.580000E+03	7.005293E-16	8.674255E-18
4.590000E+03	7.047966E-16	8.674115E-18
4.600000E+03	7.088341E-16	8.671042E-18
4.610000E+03	7.125980E-16	8.664580E-18
4.620000E+03	7.160467E-16	8.654305E-18
4.630000E+03	7.191512E-16	8.639964E-18
4.640000E+03	7.218771E-16	8.621241E-18
4.650000E+03	7.242045E-16	8.598001E-18
4.660000E+03	7.261184E-16	8.570174E-18
4.670000E+03	7.275919E-16	8.537549E-18
4.680000E+03	7.286223E-16	8.500206E-18
4.690000E+03	7.292135E-16	8.458297E-18
4.700000E+03	7.293760E-16	8.412049E-18
4.710000E+03	7.291088E-16	8.361552E-18
4.720000E+03	7.284442E-16	8.307271E-18
4.730000E+03	7.273942E-16	8.249433E-18
4.740000E+03	7.260036E-16	8.188627E-18
4.750000E+03	7.242978E-16	8.125215E-18
4.760000E+03	7.223286E-16	8.059841E-18
4.770000E+03	7.201506E-16	7.993166E-18
4.780000E+03	7.178341E-16	7.926012E-18
4.790000E+03	7.154697E-16	7.859406E-18
4.800000E+03	7.130896E-16	7.793713E-18
4.810000E+03	7.107677E-16	7.729746E-18
4.820000E+03	7.085692E-16	7.668206E-18
4.830000E+03	7.065611E-16	7.609800E-18
4.840000E+03	7.048073E-16	7.555169E-18
4.850000E+03	7.033651E-16	7.504861E-18
4.860000E+03	7.022910E-16	7.459411E-18
4.870000E+03	7.016235E-16	7.419151E-18
4.880000E+03	7.013898E-16	7.384292E-18
4.890000E+03	7.016142E-16	7.355009E-18
4.900000E+03	7.022848E-16	7.331100E-18
4.910000E+03	7.034105E-16	7.312585E-18
4.920000E+03	7.049731E-16	7.299200E-18
4.930000E+03	7.069439E-16	7.290583E-18
4.940000E+03	7.092924E-16	7.286357E-18
4.950000E+03	7.119556E-16	7.285823E-18
4.960000E+03	7.148963E-16	7.288553E-18
4.970000E+03	7.180560E-16	7.293909E-18
4.980000E+03	7.213651E-16	7.301156E-18
4.990000E+03	7.247777E-16	7.309804E-18
5.000000E+03	7.282174E-16	7.319063E-18
5.010000E+03	7.316439E-16	7.328518E-18
5.020000E+03	7.349987E-16	7.337576E-18
5.030000E+03	7.382393E-16	7.345813E-18
5.040000E+03	7.413404E-16	7.352976E-18
5.050000E+03	7.442705E-16	7.358759E-18
5.060000E+03	7.470251E-16	7.363119E-18
5.070000E+03	7.496011E-16	7.366033E-18
5.080000E+03	7.519967E-16	7.367486E-18
5.090000E+03	7.542344E-16	7.367702E-18
5.100000E+03	7.563350E-16	7.366884E-18
5.110000E+03	7.583239E-16	7.365278E-18
5.120000E+03	7.602290E-16	7.363152E-18
5.130000E+03	7.620797E-16	7.360784E-18
5.140000E+03	7.639044E-16	7.358440E-18
5.150000E+03	7.657297E-16	7.356364E-18
5.160000E+03	7.675787E-16	7.354768E-18
5.170000E+03	7.694708E-16	7.353823E-18
5.180000E+03	7.714205E-16	7.353652E-18
5.190000E+03	7.734373E-16	7.354331E-18
5.200000E+03	7.755252E-16	7.355884E-18
5.210000E+03	7.776833E-16	7.358285E-18
5.220000E+03	7.799051E-16	7.361463E-18
5.230000E+03	7.821794E-16	7.365294E-18
5.240000E+03	7.844985E-16	7.369696E-18
5.250000E+03	7.868255E-16	7.374313E-18
5.260000E+03	7.891444E-16	7.378985E-18
5.270000E+03	7.914274E-16	7.383447E-18
5.280000E+03	7.936441E-16	7.387412E-18
5.290000E+03	7.957535E-16	7.390496E-18
5.300000E+03	7.977382E-16	7.392537E-18
5.310000E+03	7.995465E-16	7.393061E-18
5.320000E+03	8.011520E-16	7.391830E-18
5.330000E+03	8.025131E-16	7.388466E-18
5.340000E+03	8.036059E-16	7.382759E-18
5.350000E+03	8.044010E-16	7.374453E-18
5.360000E+03	8.048642E-16	7.363247E-18
5.370000E+03	8.049809E-16	7.349023E-18
5.380000E+03	8.047245E-16	7.331554E-18
5.390000E+03	8.040805E-16	7.310727E-18
5.400000E+03	8.030463E-16	7.286537E-18
5.410000E+03	8.016069E-16	7.258867E-18
5.420000E+03	7.997501E-16	7.227627E-18
5.430000E+03	7.974910E-16	7.192971E-18
5.440000E+03	7.948215E-16	7.154849E-18
5.450000E+03	7.917350E-16	7.113221E-18
5.460000E+03	7.882490E-16	7.068263E-18
5.470000E+03	7.843487E-16	7.019865E-18
5.480000E+03	7.800347E-16	6.968049E-18
5.490000E+03	7.753146E-16	6.912905E-18
5.500000E+03	7.701895E-16	6.854456E-18
5.510000E+03	7.646594E-16	6.792707E-18
5.520000E+03	7.587362E-16	6.727770E-18
5.530000E+03	7.524450E-16	6.659869E-18
5.540000E+03	7.457968E-16	6.589106E-18
5.550000E+03	7.388506E-16	6.516006E-18
5.560000E+03	7.316406E-16	6.440870E-18
5.570000E+03	7.242366E-16	6.364314E-18
5.580000E+03	7.167075E-16	6.286940E-18
5.590000E+03	7.091561E-16	6.209644E-18
5.600000E+03	7.016687E-16	6.133172E-18
5.610000E+03	6.943622E-16	6.058531E-18
5.620000E+03	6.873601E-16	5.986785E-18
5.630000E+03	6.807703E-16	5.918847E-18
5.640000E+03	6.747290E-16	5.855875E-18
5.650000E+03	6.693442E-16	5.798775E-18
5.660000E+03	6.647466E-16	5.748642E-18
5.670000E+03	6.610337E-16	5.706276E-18
5.680000E+03	6.583203E-16	5.672623E-18
5.690000E+03	6.566848E-16	5.648308E-18
5.700000E+03	6.562121E-16	5.634007E-18
5.710000E+03	6.569669E-16	5.630218E-18
5.720000E+03	6.589983E-16	5.637301E-18
5.730000E+03	6.623322E-16	5.655418E-18
5.740000E+03	6.669892E-16	5.684682E-18
5.750000E+03	6.729573E-16	5.724929E-18
5.760000E+03	6.802167E-16	5.775927E-18
5.770000E+03	6.887056E-16	5.837093E-18
5.780000E+03	6.983648E-16	5.907871E-18
5.790000E+03	7.090905E-16	5.987328E-18
5.800000E+03	7.207605E-16	6.074388E-18
5.810000E+03	7.332269E-16	6.167764E-18
5.820000E+03	7.463105E-16	6.265918E-18
5.830000E+03	7.598229E-16	6.367250E-18
5.840000E+03	7.735423E-16	6.469887E-18
5.850000E+03	7.872378E-16	6.571902E-18
5.860000E+03	8.006768E-16	6.671367E-18
5.870000E+03	8.135997E-16	6.766145E-18
5.880000E+03	8.257740E-16	6.854342E-18
5.890000E+03	8.369715E-16	6.934117E-18
5.900000E+03	8.469753E-16	7.003736E-18
5.910000E+03	8.556036E-16	7.061770E-18
5.920000E+03	8.627163E-16	7.107146E-18
5.930000E+03	8.681874E-16	7.138913E-18
5.940000E+03	8.719662E-16	7.156749E-18
5.950000E+03	8.740030E-16	7.160342E-18
5.960000E+03	8.743419E-16	7.150149E-18
5.970000E+03	8.730173E-16	7.126543E-18
5.980000E+03	8.701421E-16	7.090535E-18
5.990000E+03	8.658351E-16	7.043176E-18
6.000000E+03	8.602494E-16	6.985784E-18
6.010000E+03	8.535480E-16	6.919752E-18
6.020000E+03	8.459225E-16	6.846689E-18
6.030000E+03	8.375619E-16	6.768173E-18
6.040000E+03	8.286467E-16	6.685701E-18
6.050000E+03	8.193526E-16	6.600720E-18
6.060000E+03	8.098691E-16	6.514781E-18
6.070000E+03	8.003420E-16	6.429071E-18
6.080000E+03	7.909252E-16	6.344835E-18
6.090000E+03	7.817407E-16	6.263054E-18
6.100000E+03	7.729008E-16	6.184629E-18
6.110000E+03	7.645001E-16	6.110315E-18
6.120000E+03	7.566083E-16	6.040662E-18
6.130000E+03	7.492859E-16	5.976149E-18
6.140000E+03	7.425769E-16	5.917122E-18
6.150000E+03	7.365101E-16	5.863804E-18
6.160000E+03	7.310928E-16	5.816251E-18
6.170000E+03	7.263402E-16	5.774582E-18
6.180000E+03	7.222404E-16	5.738703E-18
6.190000E+03	7.187704E-16	5.708434E-18
6.200000E+03	7.158829E-16	5.683406E-18
6.210000E+03	7.135499E-16	5.663406E-18
6.220000E+03	7.117162E-16	5.648006E-18
6.230000E+03	7.103300E-16	5.636789E-18
6.240000E+03	7.093472E-16	5.629393E-18
6.250000E+03	7.087073E-16	5.625325E-18
6.260000E+03	7.083664E-16	5.624227E-18
6.270000E+03	7.082637E-16	5.625605E-18
6.280000E+03	7.083560E-16	5.629109E-18
6.290000E+03	7.086028E-16	5.634408E-18
6.300000E+03	7.089577E-16	5.641127E-18
6.310000E+03	7.093768E-16	5.648905E-18
6.320000E+03	7.098186E-16	5.657404E-18
6.330000E+03	7.102586E-16	5.666419E-18
6.340000E+03	7.106479E-16	5.675550E-18
6.350000E+03	7.109699E-16	5.684652E-18
6.360000E+03	7.111984E-16	5.693504E-18
6.370000E+03	7.113043E-16	5.701860E-18
6.380000E+03	7.112917E-16	5.709736E-18
6.390000E+03	7.111329E-16	5.716897E-18
6.400000E+03	7.108261E-16	5.723311E-18
6.410000E+03	7.103729E-16	5.728975E-18
6.420000E+03	7.097715E-16	5.733856E-18
6.430000E+03	7.090233E-16	5.737949E-18
6.440000E+03	7.081400E-16	5.741330E-18
6.450000E+03	7.071361E-16	5.744099E-18
6.460000E+03	7.060292E-16	5.746383E-18
6.470000E+03	7.048320E-16	5.748266E-18
6.480000E+03	7.035674E-16	5.749909E-18
6.490000E+03	7.022682E-16	5.751547E-18
6.500000E+03	7.009472E-16	5.753256E-18
6.510000E+03	6.996414E-16	5.755308E-18
6.520000E+03	6.983519E-16	5.757685E-18
6.530000E+03	6.971016E-16	5.760551E-18
6.540000E+03	6.959051E-16	5.764001E-18
6.550000E+03	6.947237E-16	5.767689E-18
6.560000E+03	6.935517E-16	5.771543E-18
6.570000E+03	6.923582E-16	5.775280E-18
6.580000E+03	6.911094E-16	5.778590E-18
6.590000E+03	6.897894E-16	5.781313E-18
6.600000E+03	6.883569E-16	5.783072E-18
6.610000E+03	6.867747E-16	5.783525E-18
6.620000E+03	6.850038E-16	5.782308E-18
6.630000E+03	6.830043E-16	5.779053E-18
6.640000E+03	6.807446E-16	5.773454E-18
6.650000E+03	6.781815E-16	5.765109E-18
6.660000E+03	6.752832E-16	5.753708E-18
6.670000E+03	6.720326E-16	5.739067E-18
6.680000E+03	6.684130E-16	5.721004E-18
6.690000E+03	6.644103E-16	5.699359E-18
6.700000E+03	6.600427E-16	5.674253E-18
6.710000E+03	6.553105E-16	5.645650E-18
6.720000E+03	6.502469E-16	5.613806E-18
6.730000E+03	6.448888E-16	5.579009E-18
6.740000E+03	6.392830E-16	5.541639E-18
6.750000E+03	6.334852E-16	5.502156E-18
6.760000E+03	6.275655E-16	5.461152E-18
6.770000E+03	6.215858E-16	5.419154E-18
6.780000E+03	6.156263E-16	5.376853E-18
6.790000E+03	6.097554E-16	5.334844E-18
6.800000E+03	6.040493E-16	5.293794E-18
6.810000E+03	5.985972E-16	5.254489E-18
6.820000E+03	5.934586E-16	5.217459E-18
6.830000E+03	5.887023E-16	5.183322E-18
6.840000E+03	5.844066E-16	5.152779E-18
6.850000E+03	5.806161E-16	5.126237E-18
6.860000E+03	5.773888E-16	5.104225E-18
6.870000E+03	5.747685E-16	5.087144E-18
6.880000E+03	5.727901E-16	5.075321E-18
6.890000E+03	5.714797E-16	5.068999E-18
6.900000E+03	5.708536E-16	5.068338E-18
6.910000E+03	5.709116E-16	5.073344E-18
6.920000E+03	5.716628E-16	5.084107E-18
6.930000E+03	5.730789E-16	5.100383E-18
6.940000E+03	5.751484E-16	5.122068E-18
6.950000E+03	5.778218E-16	5.148723E-18
6.960000E+03	5.810669E-16	5.180058E-18
6.970000E+03	5.848154E-16	5.215456E-18
6.980000E+03	5.890111E-16	5.254406E-18
6.990000E+03	5.935847E-16	5.296277E-18
7.000000E+03	5.984620E-16	5.340395E-18
7.010000E+03	6.035590E-16	5.385991E-18
7.020000E+03	6.088128E-16	5.432489E-18
7.030000E+03	6.141334E-16	5.479067E-18
7.040000E+03	6.194491E-16	5.525070E-18
7.050000E+03	6.247099E-16	5.570031E-18
7.060000E+03	6.298359E-16	5.613226E-18
7.070000E+03	6.348023E-16	5.654417E-18
7.080000E+03	6.395489E-16	5.693055E-18
7.090000E+03	6.440641E-16	5.729027E-18
7.100000E+03	6.483320E-16	5.762181E-18
7.110000E+03	6.523300E-16	5.792308E-18
7.120000E+03	6.560751E-16	5.819557E-18
7.130000E+03	6.595673E-16	5.843922E-18
7.140000E+03	6.628185E-16	5.865506E-18
7.150000E+03	6.658342E-16	5.884356E-18
7.160000E+03	6.686442E-16	5.900737E-18
7.170000E+03	6.712424E-16	5.914595E-18
7.180000E+03	6.736508E-16	5.926128E-18
7.190000E+03	6.758434E-16	5.935109E-18
7.200000E+03	6.778362E-16	5.941684E-18
7.210000E+03	6.795946E-16	5.945558E-18
7.220000E+03	6.810917E-16	5.946505E-18
7.230000E+03	6.823009E-16	5.944306E-18
7.240000E+03	6.831705E-16	5.938530E-18
7.250000E+03	6.836519E-16	5.928775E-18
7.260000E+03	6.837004E-16	5.914681E-18
7.270000E+03	6.832441E-16	5.895662E-18
7.280000E+03	6.822464E-16	5.871440E-18
7.290000E+03	6.806484E-16	5.841557E-18
7.300000E+03	6.783976E-16	5.805614E-18
7.310000E+03	6.754761E-16	5.763519E-18
7.320000E+03	6.718430E-16	5.714990E-18
7.330000E+03	6.674960E-16	5.660079E-18
7.340000E+03	6.624383E-16	5.598887E-18
7.350000E+03	6.566881E-16	5.531647E-18
7.360000E+03	6.502782E-16	5.458714E-18
7.370000E+03	6.432475E-16	5.380496E-18
7.380000E+03	6.356640E-16	5.297638E-18
7.390000E+03	6.275988E-16	5.210809E-18
7.400000E+03	6.191314E-16	5.120737E-18
7.410000E+03	6.103479E-16	5.028199E-18
7.420000E+03	6.013307E-16	4.933929E-18
7.430000E+03	5.921864E-16	4.838852E-18
7.440000E+03	5.830050E-16	4.743739E-18
7.450000E+03	5.738657E-16	4.649267E-18
7.460000E+03	5.648579E-16	4.556180E-18
7.470000E+03	5.560421E-16	4.464977E-18
7.480000E+03	5.474936E-16	4.376268E-18
7.490000E+03	5.392718E-16	4.290521E-18
7.500000E+03	5.314202E-16	4.208071E-18
7.510000E+03	5.239877E-16	4.129286E-18
7.520000E+03	5.170003E-16	4.054347E-18
7.530000E+03	5.104892E-16	3.983470E-18
7.540000E+03	5.044642E-16	3.916697E-18
7.550000E+03	4.989349E-16	3.854067E-18
7.560000E+03	4.939040E-16	3.795557E-18
7.570000E+03	4.893690E-16	3.741103E-18
7.580000E+03	4.853292E-16	3.690653E-18
7.590000E+03	4.817616E-16	3.643987E-18
7.600000E+03	4.786667E-16	3.601067E-18
7.610000E+03	4.760266E-16	3.561714E-18
7.620000E+03	4.738305E-16	3.525806E-18
7.630000E+03	4.720662E-16	3.493211E-18
7.640000E+03	4.707286E-16	3.463856E-18
7.650000E+03	4.697957E-16	3.437540E-18
7.660000E+03	4.692636E-16	3.414201E-18
7.670000E+03	4.691270E-16	3.393768E-18
7.680000E+03	4.693663E-16	3.376068E-18
7.690000E+03	4.699598E-16	3.360918E-18
7.700000E+03	4.709011E-16	3.348248E-18
7.710000E+03	4.721695E-16	3.337889E-18
7.720000E+03	4.737282E-16	3.329567E-18
7.730000E+03	4.755636E-16	3.323172E-18
7.740000E+03	4.776340E-16	3.318408E-18
7.750000E+03	4.799212E-16	3.315148E-18
7.760000E+03	4.823931E-16	3.313174E-18
