#wls	flux	fluxerr
1.600000E+03	1.240214E-16	6.831772E-18
1.640000E+03	1.253363E-16	6.874904E-18
1.680000E+03	1.266603E-16	6.917173E-18
1.720000E+03	1.279877E-16	6.958231E-18
1.760000E+03	1.293131E-16	6.997728E-18
1.800000E+03	1.306043E-16	7.033910E-18
1.840000E+03	1.319301E-16	7.070434E-18
1.880000E+03	1.332329E-16	7.104172E-18
1.920000E+03	1.345562E-16	7.137402E-18
1.960000E+03	1.358662E-16	7.168288E-18
2.000000E+03	1.371807E-16	7.197720E-18
2.040000E+03	1.385166E-16	7.226541E-18
2.080000E+03	1.398384E-16	7.252842E-18
2.120000E+03	1.411622E-16	7.277422E-18
2.160000E+03	1.424773E-16	7.299685E-18
2.200000E+03	1.437724E-16	7.319012E-18
2.240000E+03	1.450622E-16	7.336126E-18
2.280000E+03	1.463078E-16	7.349029E-18
2.320000E+03	1.475231E-16	7.358410E-18
2.360000E+03	1.486954E-16	7.363626E-18
2.400000E+03	1.497854E-16	7.362750E-18
2.440000E+03	1.508073E-16	7.356520E-18
2.480000E+03	1.517496E-16	7.344406E-18
2.520000E+03	1.526013E-16	7.325940E-18
2.560000E+03	1.533278E-16	7.299532E-18
2.600000E+03	1.539474E-16	7.266169E-18
2.640000E+03	1.544546E-16	7.225688E-18
2.680000E+03	1.548222E-16	7.176943E-18
2.720000E+03	1.550995E-16	7.122347E-18
2.760000E+03	1.552648E-16	7.061009E-18
2.800000E+03	1.553248E-16	6.993366E-18
2.840000E+03	1.553125E-16	6.921008E-18
2.880000E+03	1.552403E-16	6.844575E-18
2.920000E+03	1.551679E-16	6.766746E-18
2.960000E+03	1.551330E-16	6.689138E-18
3.000000E+03	1.551746E-16	6.613351E-18
3.010000E+03	1.552050E-16	6.595015E-18
3.020000E+03	1.552481E-16	6.577118E-18
3.030000E+03	1.553040E-16	6.559657E-18
3.040000E+03	1.553732E-16	6.542645E-18
3.050000E+03	1.554556E-16	6.526080E-18
3.060000E+03	1.555516E-16	6.509971E-18
3.070000E+03	1.556616E-16	6.494323E-18
3.080000E+03	1.557856E-16	6.479136E-18
3.090000E+03	1.559437E-16	6.465240E-18
3.100000E+03	1.560966E-16	6.450992E-18
3.110000E+03	1.563035E-16	6.438832E-18
3.120000E+03	1.565057E-16	6.426328E-18
3.130000E+03	1.567424E-16	6.415092E-18
3.140000E+03	1.570136E-16	6.405104E-18
3.150000E+03	1.573001E-16	6.395568E-18
3.160000E+03	1.576022E-16	6.386493E-18
3.170000E+03	1.579579E-16	6.379404E-18
3.180000E+03	1.583293E-16	6.372760E-18
3.190000E+03	1.587353E-16	6.367301E-18
3.200000E+03	1.591759E-16	6.363019E-18
3.210000E+03	1.596694E-16	6.360624E-18
3.220000E+03	1.601788E-16	6.358628E-18
3.230000E+03	1.607225E-16	6.357753E-18
3.240000E+03	1.613187E-16	6.358694E-18
3.250000E+03	1.619488E-16	6.360704E-18
3.260000E+03	1.626308E-16	6.364468E-18
3.270000E+03	1.633463E-16	6.369246E-18
3.280000E+03	1.641308E-16	6.376403E-18
3.290000E+03	1.649305E-16	6.383826E-18
3.300000E+03	1.657983E-16	6.393547E-18
3.310000E+03	1.667159E-16	6.404832E-18
3.320000E+03	1.676831E-16	6.417648E-18
3.330000E+03	1.686991E-16	6.431943E-18
3.340000E+03	1.697809E-16	6.448340E-18
3.350000E+03	1.709106E-16	6.466127E-18
3.360000E+03	1.720874E-16	6.485260E-18
3.370000E+03	1.733451E-16	6.506977E-18
3.380000E+03	1.746487E-16	6.529934E-18
3.390000E+03	1.760316E-16	6.555353E-18
3.400000E+03	1.774760E-16	6.582534E-18
3.410000E+03	1.789812E-16	6.611421E-18
3.420000E+03	1.805467E-16	6.641969E-18
3.430000E+03	1.821885E-16	6.674733E-18
3.440000E+03	1.839060E-16	6.709655E-18
3.450000E+03	1.856987E-16	6.746677E-18
3.460000E+03	1.875662E-16	6.785749E-18
3.470000E+03	1.895086E-16	6.826834E-18
3.480000E+03	1.915255E-16	6.869887E-18
3.490000E+03	1.936338E-16	6.915465E-18
3.500000E+03	1.958335E-16	6.963530E-18
3.510000E+03	1.981095E-16	7.013497E-18
3.520000E+03	2.004947E-16	7.066490E-18
3.530000E+03	2.029586E-16	7.121379E-18
3.540000E+03	2.055506E-16	7.179852E-18
3.550000E+03	2.082248E-16	7.240251E-18
3.560000E+03	2.110156E-16	7.303719E-18
3.570000E+03	2.139258E-16	7.370291E-18
3.580000E+03	2.169740E-16	7.440551E-18
3.590000E+03	2.201325E-16	7.513480E-18
3.600000E+03	2.234214E-16	7.589701E-18
3.610000E+03	2.268609E-16	7.669829E-18
3.620000E+03	2.304559E-16	7.753956E-18
3.630000E+03	2.341967E-16	7.841671E-18
3.640000E+03	2.381203E-16	7.934133E-18
3.650000E+03	2.422022E-16	8.030438E-18
3.660000E+03	2.464806E-16	8.131755E-18
3.670000E+03	2.509472E-16	8.237718E-18
3.680000E+03	2.556100E-16	8.348483E-18
3.690000E+03	2.605078E-16	8.465209E-18
3.700000E+03	2.656181E-16	8.587047E-18
3.710000E+03	2.709647E-16	8.714652E-18
3.720000E+03	2.765564E-16	8.848176E-18
3.730000E+03	2.824014E-16	8.987751E-18
3.740000E+03	2.885081E-16	9.133512E-18
3.750000E+03	2.948998E-16	9.286050E-18
3.760000E+03	3.015839E-16	9.445447E-18
3.770000E+03	3.085515E-16	9.611269E-18
3.780000E+03	3.158083E-16	9.783537E-18
3.790000E+03	3.233895E-16	9.963189E-18
3.800000E+03	3.312671E-16	1.014918E-17
3.810000E+03	3.394733E-16	1.034234E-17
3.820000E+03	3.479755E-16	1.054151E-17
3.830000E+03	3.568017E-16	1.074736E-17
3.840000E+03	3.659299E-16	1.095906E-17
3.850000E+03	3.753504E-16	1.117615E-17
3.860000E+03	3.850503E-16	1.139810E-17
3.870000E+03	3.950291E-16	1.162473E-17
3.880000E+03	4.052500E-16	1.185482E-17
3.890000E+03	4.156878E-16	1.208750E-17
3.900000E+03	4.263300E-16	1.232228E-17
3.910000E+03	4.371265E-16	1.255761E-17
3.920000E+03	4.480558E-16	1.279279E-17
3.930000E+03	4.590426E-16	1.302560E-17
3.940000E+03	4.700908E-16	1.325612E-17
3.950000E+03	4.811009E-16	1.348152E-17
3.960000E+03	4.920367E-16	1.370082E-17
3.970000E+03	5.028603E-16	1.391298E-17
3.980000E+03	5.134985E-16	1.411607E-17
3.990000E+03	5.238774E-16	1.430815E-17
4.000000E+03	5.339740E-16	1.448874E-17
4.010000E+03	5.436996E-16	1.465560E-17
4.020000E+03	5.530186E-16	1.480798E-17
4.030000E+03	5.618657E-16	1.494434E-17
4.040000E+03	5.702144E-16	1.506426E-17
4.050000E+03	5.780104E-16	1.516657E-17
4.060000E+03	5.852236E-16	1.525080E-17
4.070000E+03	5.918153E-16	1.531625E-17
4.080000E+03	5.977877E-16	1.536333E-17
4.090000E+03	6.031355E-16	1.539225E-17
4.100000E+03	6.078299E-16	1.540261E-17
4.110000E+03	6.119150E-16	1.539588E-17
4.120000E+03	6.153642E-16	1.537175E-17
4.130000E+03	6.182371E-16	1.533204E-17
4.140000E+03	6.205680E-16	1.527792E-17
4.150000E+03	6.223536E-16	1.520961E-17
4.160000E+03	6.236705E-16	1.512927E-17
4.170000E+03	6.245547E-16	1.503805E-17
4.180000E+03	6.250463E-16	1.493713E-17
4.190000E+03	6.252156E-16	1.482843E-17
4.200000E+03	6.250926E-16	1.471282E-17
4.210000E+03	6.247491E-16	1.459216E-17
4.220000E+03	6.242159E-16	1.446729E-17
4.230000E+03	6.235632E-16	1.433994E-17
4.240000E+03	6.228328E-16	1.421115E-17
4.250000E+03	6.220774E-16	1.408216E-17
4.260000E+03	6.213226E-16	1.395358E-17
4.270000E+03	6.206291E-16	1.382678E-17
4.280000E+03	6.200296E-16	1.370245E-17
4.290000E+03	6.195549E-16	1.358124E-17
4.300000E+03	6.192443E-16	1.346395E-17
4.310000E+03	6.191231E-16	1.335105E-17
4.320000E+03	6.192259E-16	1.324321E-17
4.330000E+03	6.195729E-16	1.314074E-17
4.340000E+03	6.201828E-16	1.304394E-17
4.350000E+03	6.210942E-16	1.295348E-17
4.360000E+03	6.223009E-16	1.286909E-17
4.370000E+03	6.238496E-16	1.279160E-17
4.380000E+03	6.257434E-16	1.272092E-17
4.390000E+03	6.279970E-16	1.265718E-17
4.400000E+03	6.306456E-16	1.260092E-17
4.410000E+03	6.336832E-16	1.255185E-17
4.420000E+03	6.371541E-16	1.251065E-17
4.430000E+03	6.410593E-16	1.247715E-17
4.440000E+03	6.454163E-16	1.245151E-17
4.450000E+03	6.502179E-16	1.243338E-17
4.460000E+03	6.554800E-16	1.242286E-17
4.470000E+03	6.612016E-16	1.241975E-17
4.480000E+03	6.673632E-16	1.242346E-17
4.490000E+03	6.739464E-16	1.243349E-17
4.500000E+03	6.809329E-16	1.244933E-17
4.510000E+03	6.882742E-16	1.246993E-17
4.520000E+03	6.959222E-16	1.249431E-17
4.530000E+03	7.038181E-16	1.252130E-17
4.540000E+03	7.118942E-16	1.254966E-17
4.550000E+03	7.200739E-16	1.257800E-17
4.560000E+03	7.282735E-16	1.260488E-17
4.570000E+03	7.364033E-16	1.262881E-17
4.580000E+03	7.443698E-16	1.264829E-17
4.590000E+03	7.520771E-16	1.266184E-17
4.600000E+03	7.594295E-16	1.266805E-17
4.610000E+03	7.663333E-16	1.266559E-17
4.620000E+03	7.726986E-16	1.265327E-17
4.630000E+03	7.784521E-16	1.263019E-17
4.640000E+03	7.834978E-16	1.259515E-17
4.650000E+03	7.877896E-16	1.254779E-17
4.660000E+03	7.912521E-16	1.248732E-17
4.670000E+03	7.938628E-16	1.241378E-17
4.680000E+03	7.955721E-16	1.232685E-17
4.690000E+03	7.963643E-16	1.222671E-17
4.700000E+03	7.962488E-16	1.211393E-17
4.710000E+03	7.952287E-16	1.198899E-17
4.720000E+03	7.933315E-16	1.185269E-17
4.730000E+03	7.905885E-16	1.170590E-17
4.740000E+03	7.870534E-16	1.154975E-17
4.750000E+03	7.827927E-16	1.138557E-17
4.760000E+03	7.778681E-16	1.121452E-17
4.770000E+03	7.723773E-16	1.103827E-17
4.780000E+03	7.664395E-16	1.085873E-17
4.790000E+03	7.601902E-16	1.067797E-17
4.800000E+03	7.538246E-16	1.049881E-17
4.810000E+03	7.475162E-16	1.032370E-17
4.820000E+03	7.414583E-16	1.015524E-17
4.830000E+03	7.358531E-16	9.996109E-18
4.840000E+03	7.308434E-16	9.848035E-18
4.850000E+03	7.265852E-16	9.712847E-18
4.860000E+03	7.232025E-16	9.591878E-18
4.870000E+03	7.207932E-16	9.486079E-18
4.880000E+03	7.194117E-16	9.395806E-18
4.890000E+03	7.191179E-16	9.321477E-18
4.900000E+03	7.199015E-16	9.262600E-18
4.910000E+03	7.217484E-16	9.218651E-18
4.920000E+03	7.246239E-16	9.188860E-18
4.930000E+03	7.284395E-16	9.171808E-18
4.940000E+03	7.330956E-16	9.165978E-18
4.950000E+03	7.384488E-16	9.169357E-18
4.960000E+03	7.443651E-16	9.180099E-18
4.970000E+03	7.506397E-16	9.195548E-18
4.980000E+03	7.571033E-16	9.213546E-18
4.990000E+03	7.635463E-16	9.231508E-18
5.000000E+03	7.697706E-16	9.247055E-18
5.010000E+03	7.756018E-16	9.258144E-18
5.020000E+03	7.808748E-16	9.262899E-18
5.030000E+03	7.854874E-16	9.260228E-18
5.040000E+03	7.893474E-16	9.249180E-18
5.050000E+03	7.924450E-16	9.229784E-18
5.060000E+03	7.947828E-16	9.202213E-18
5.070000E+03	7.964401E-16	9.167514E-18
5.080000E+03	7.975134E-16	9.126909E-18
5.090000E+03	7.981146E-16	9.081763E-18
5.100000E+03	7.983869E-16	9.033764E-18
5.110000E+03	7.984677E-16	8.984500E-18
5.120000E+03	7.984804E-16	8.935366E-18
5.130000E+03	7.985531E-16	8.887782E-18
5.140000E+03	7.987888E-16	8.842857E-18
5.150000E+03	7.992711E-16	8.801469E-18
5.160000E+03	8.000560E-16	8.764177E-18
5.170000E+03	8.012069E-16	8.731609E-18
5.180000E+03	8.027363E-16	8.703836E-18
5.190000E+03	8.046769E-16	8.681144E-18
5.200000E+03	8.070242E-16	8.663419E-18
5.210000E+03	8.097633E-16	8.650442E-18
5.220000E+03	8.128881E-16	8.642096E-18
5.230000E+03	8.163846E-16	8.638186E-18
5.240000E+03	8.202053E-16	8.638169E-18
5.250000E+03	8.243295E-16	8.641801E-18
5.260000E+03	8.286939E-16	8.648400E-18
5.270000E+03	8.332523E-16	8.657480E-18
5.280000E+03	8.379420E-16	8.668392E-18
5.290000E+03	8.426832E-16	8.680331E-18
5.300000E+03	8.474154E-16	8.692703E-18
5.310000E+03	8.520380E-16	8.704523E-18
5.320000E+03	8.564657E-16	8.714976E-18
5.330000E+03	8.606315E-16	8.723449E-18
5.340000E+03	8.644366E-16	8.729021E-18
5.350000E+03	8.678075E-16	8.731040E-18
5.360000E+03	8.706893E-16	8.729050E-18
5.370000E+03	8.730312E-16	8.722643E-18
5.380000E+03	8.747787E-16	8.711378E-18
5.390000E+03	8.759282E-16	8.695326E-18
5.400000E+03	8.764653E-16	8.674446E-18
5.410000E+03	8.763986E-16	8.648923E-18
5.420000E+03	8.757501E-16	8.619067E-18
5.430000E+03	8.745514E-16	8.585277E-18
5.440000E+03	8.728409E-16	8.548008E-18
5.450000E+03	8.706582E-16	8.507720E-18
5.460000E+03	8.680376E-16	8.464813E-18
5.470000E+03	8.649913E-16	8.419462E-18
5.480000E+03	8.615155E-16	8.371681E-18
5.490000E+03	8.575870E-16	8.321291E-18
5.500000E+03	8.531032E-16	8.267323E-18
5.510000E+03	8.479458E-16	8.208582E-18
5.520000E+03	8.419628E-16	8.143513E-18
5.530000E+03	8.350190E-16	8.070724E-18
5.540000E+03	8.269787E-16	7.988814E-18
5.550000E+03	8.177607E-16	7.896902E-18
5.560000E+03	8.073354E-16	7.794598E-18
5.570000E+03	7.957495E-16	7.682247E-18
5.580000E+03	7.831264E-16	7.560923E-18
5.590000E+03	7.696296E-16	7.432089E-18
5.600000E+03	7.555024E-16	7.297976E-18
5.610000E+03	7.410308E-16	7.161234E-18
5.620000E+03	7.265096E-16	7.024604E-18
5.630000E+03	7.122797E-16	6.891284E-18
5.640000E+03	6.986576E-16	6.764253E-18
5.650000E+03	6.859734E-16	6.646639E-18
5.660000E+03	6.745333E-16	6.541354E-18
5.670000E+03	6.646198E-16	6.451104E-18
5.680000E+03	6.564866E-16	6.378333E-18
5.690000E+03	6.503502E-16	6.325144E-18
5.700000E+03	6.464084E-16	6.293473E-18
5.710000E+03	6.448208E-16	6.284905E-18
5.720000E+03	6.457109E-16	6.300682E-18
5.730000E+03	6.491788E-16	6.341835E-18
5.740000E+03	6.553019E-16	6.409179E-18
5.750000E+03	6.641154E-16	6.503128E-18
5.760000E+03	6.756279E-16	6.623839E-18
5.770000E+03	6.898046E-16	6.771045E-18
5.780000E+03	7.065869E-16	6.944249E-18
5.790000E+03	7.258381E-16	7.142182E-18
5.800000E+03	7.473819E-16	7.363182E-18
5.810000E+03	7.709593E-16	7.604760E-18
5.820000E+03	7.962414E-16	7.863731E-18
5.830000E+03	8.228265E-16	8.136170E-18
5.840000E+03	8.502098E-16	8.417117E-18
5.850000E+03	8.778391E-16	8.701116E-18
5.860000E+03	9.050915E-16	8.981992E-18
5.870000E+03	9.313315E-16	9.253410E-18
5.880000E+03	9.559133E-16	9.508913E-18
5.890000E+03	9.782022E-16	9.742126E-18
5.900000E+03	9.976516E-16	9.947524E-18
5.910000E+03	1.013785E-15	1.012027E-17
5.920000E+03	1.026270E-15	1.025693E-17
5.930000E+03	1.034850E-15	1.035485E-17
5.940000E+03	1.039460E-15	1.041325E-17
5.950000E+03	1.040127E-15	1.043230E-17
5.960000E+03	1.037044E-15	1.041383E-17
5.970000E+03	1.030478E-15	1.036042E-17
5.980000E+03	1.020799E-15	1.027570E-17
5.990000E+03	1.008458E-15	1.016414E-17
6.000000E+03	9.939281E-16	1.003045E-17
6.010000E+03	9.776831E-16	9.879356E-18
6.020000E+03	9.602261E-16	9.715922E-18
6.030000E+03	9.419990E-16	9.544601E-18
6.040000E+03	9.234434E-16	9.369868E-18
6.050000E+03	9.049178E-16	9.195379E-18
6.060000E+03	8.867569E-16	9.024560E-18
6.070000E+03	8.692338E-16	8.860232E-18
6.080000E+03	8.525789E-16	8.704798E-18
6.090000E+03	8.369497E-16	8.559931E-18
6.100000E+03	8.224862E-16	8.427135E-18
6.110000E+03	8.092819E-16	8.307452E-18
6.120000E+03	7.974047E-16	8.201670E-18
6.130000E+03	7.868858E-16	8.110211E-18
6.140000E+03	7.777316E-16	8.033249E-18
6.150000E+03	7.699415E-16	7.970892E-18
6.160000E+03	7.634804E-16	7.922896E-18
6.170000E+03	7.583104E-16	7.888995E-18
6.180000E+03	7.543697E-16	7.868676E-18
6.190000E+03	7.515885E-16	7.861345E-18
6.200000E+03	7.498389E-16	7.865799E-18
6.210000E+03	7.490086E-16	7.880993E-18
6.220000E+03	7.489596E-16	7.905601E-18
6.230000E+03	7.495536E-16	7.938237E-18
6.240000E+03	7.506580E-16	7.977522E-18
6.250000E+03	7.521456E-16	8.022110E-18
6.260000E+03	7.538984E-16	8.070742E-18
6.270000E+03	7.558006E-16	8.122162E-18
6.280000E+03	7.577524E-16	8.175271E-18
6.290000E+03	7.596775E-16	8.229203E-18
6.300000E+03	7.614786E-16	8.282856E-18
6.310000E+03	7.630923E-16	8.335474E-18
6.320000E+03	7.644596E-16	8.386341E-18
6.330000E+03	7.655361E-16	8.434884E-18
6.340000E+03	7.662992E-16	8.480766E-18
6.350000E+03	7.667255E-16	8.523632E-18
6.360000E+03	7.668203E-16	8.563442E-18
6.370000E+03	7.666006E-16	8.600291E-18
6.380000E+03	7.660697E-16	8.634115E-18
6.390000E+03	7.652679E-16	8.665276E-18
6.400000E+03	7.642164E-16	8.693923E-18
6.410000E+03	7.629453E-16	8.720315E-18
6.420000E+03	7.614998E-16	8.744888E-18
6.430000E+03	7.598848E-16	8.767624E-18
6.440000E+03	7.581499E-16	8.789028E-18
6.450000E+03	7.563052E-16	8.809154E-18
6.460000E+03	7.543843E-16	8.828333E-18
6.470000E+03	7.524077E-16	8.846756E-18
6.480000E+03	7.504159E-16	8.864850E-18
6.490000E+03	7.484409E-16	8.882942E-18
6.500000E+03	7.465377E-16	8.901634E-18
6.510000E+03	7.447528E-16	8.921448E-18
6.520000E+03	7.431620E-16	8.943261E-18
6.530000E+03	7.418204E-16	8.967726E-18
6.540000E+03	7.408121E-16	8.995854E-18
6.550000E+03	7.401802E-16	9.028179E-18
6.560000E+03	7.399650E-16	9.065212E-18
6.570000E+03	7.401734E-16	9.107058E-18
6.580000E+03	7.407981E-16	9.153650E-18
6.590000E+03	7.417846E-16	9.204334E-18
6.600000E+03	7.430399E-16	9.257963E-18
6.610000E+03	7.444682E-16	9.313335E-18
6.620000E+03	7.459341E-16	9.368733E-18
6.630000E+03	7.472850E-16	9.422197E-18
6.640000E+03	7.483653E-16	9.471699E-18
6.650000E+03	7.490088E-16	9.515049E-18
6.660000E+03	7.490485E-16	9.550018E-18
6.670000E+03	7.483585E-16	9.574878E-18
6.680000E+03	7.468149E-16	9.587907E-18
6.690000E+03	7.443430E-16	9.588005E-18
6.700000E+03	7.408890E-16	9.574333E-18
6.710000E+03	7.364539E-16	9.546766E-18
6.720000E+03	7.310684E-16	9.505569E-18
6.730000E+03	7.247971E-16	9.451467E-18
6.740000E+03	7.177345E-16	9.385592E-18
6.750000E+03	7.099996E-16	9.309423E-18
6.760000E+03	7.017310E-16	9.224716E-18
6.770000E+03	6.930896E-16	9.133550E-18
6.780000E+03	6.842300E-16	9.037945E-18
6.790000E+03	6.753198E-16	8.940121E-18
6.800000E+03	6.665359E-16	8.842437E-18
6.810000E+03	6.580374E-16	8.747043E-18
6.820000E+03	6.499934E-16	8.656233E-18
6.830000E+03	6.425494E-16	8.572006E-18
6.840000E+03	6.358557E-16	8.496430E-18
6.850000E+03	6.300351E-16	8.431215E-18
6.860000E+03	6.252117E-16	8.378091E-18
6.870000E+03	6.214873E-16	8.338490E-18
6.880000E+03	6.189345E-16	8.313447E-18
6.890000E+03	6.176464E-16	8.304269E-18
6.900000E+03	6.176631E-16	8.311540E-18
6.910000E+03	6.190203E-16	8.335776E-18
6.920000E+03	6.217394E-16	8.377284E-18
6.930000E+03	6.258088E-16	8.435918E-18
6.940000E+03	6.311719E-16	8.510908E-18
6.950000E+03	6.377762E-16	8.601525E-18
6.960000E+03	6.454891E-16	8.705947E-18
6.970000E+03	6.541816E-16	8.822384E-18
6.980000E+03	6.636696E-16	8.948297E-18
6.990000E+03	6.737491E-16	9.080868E-18
7.000000E+03	6.841957E-16	9.217005E-18
7.010000E+03	6.947728E-16	9.353452E-18
7.020000E+03	7.052429E-16	9.486944E-18
7.030000E+03	7.153785E-16	9.614363E-18
7.040000E+03	7.249651E-16	9.732783E-18
7.050000E+03	7.338464E-16	9.840072E-18
7.060000E+03	7.418625E-16	9.934070E-18
7.070000E+03	7.489431E-16	1.001384E-17
7.080000E+03	7.550499E-16	1.007888E-17
7.090000E+03	7.601743E-16	1.012911E-17
7.100000E+03	7.643907E-16	1.016555E-17
7.110000E+03	7.677770E-16	1.018930E-17
7.120000E+03	7.704719E-16	1.020223E-17
7.130000E+03	7.726201E-16	1.020630E-17
7.140000E+03	7.743980E-16	1.020389E-17
7.150000E+03	7.759752E-16	1.019725E-17
7.160000E+03	7.774942E-16	1.018826E-17
7.170000E+03	7.791073E-16	1.017892E-17
7.180000E+03	7.809301E-16	1.017071E-17
7.190000E+03	7.830345E-16	1.016455E-17
7.200000E+03	7.854729E-16	1.016107E-17
7.210000E+03	7.882354E-16	1.016008E-17
7.220000E+03	7.912695E-16	1.016087E-17
7.230000E+03	7.945110E-16	1.016257E-17
7.240000E+03	7.978197E-16	1.016334E-17
7.250000E+03	8.010535E-16	1.016137E-17
7.260000E+03	8.040273E-16	1.015433E-17
7.270000E+03	8.065504E-16	1.013986E-17
7.280000E+03	8.084156E-16	1.011545E-17
7.290000E+03	8.094492E-16	1.007905E-17
7.300000E+03	8.094503E-16	1.002833E-17
7.310000E+03	8.082703E-16	9.961677E-18
7.320000E+03	8.057715E-16	9.877650E-18
7.330000E+03	8.018640E-16	9.775443E-18
7.340000E+03	7.965021E-16	9.654829E-18
7.350000E+03	7.896869E-16	9.516167E-18
7.360000E+03	7.814677E-16	9.360408E-18
7.370000E+03	7.719387E-16	9.189042E-18
7.380000E+03	7.612346E-16	9.004015E-18
7.390000E+03	7.495230E-16	8.807637E-18
7.400000E+03	7.369865E-16	8.602347E-18
7.410000E+03	7.238415E-16	8.390925E-18
7.420000E+03	7.102915E-16	8.175940E-18
7.430000E+03	6.965556E-16	7.960077E-18
7.440000E+03	6.828334E-16	7.745727E-18
7.450000E+03	6.693079E-16	7.535027E-18
7.460000E+03	6.561248E-16	7.329632E-18
7.470000E+03	6.434484E-16	7.131348E-18
7.480000E+03	6.313760E-16	6.941187E-18
7.490000E+03	6.199974E-16	6.760034E-18
7.500000E+03	6.093781E-16	6.588474E-18
7.510000E+03	5.995683E-16	6.426902E-18
7.520000E+03	5.905889E-16	6.275375E-18
7.530000E+03	5.824265E-16	6.133569E-18
7.540000E+03	5.750795E-16	6.001269E-18
7.550000E+03	5.685145E-16	5.877917E-18
7.560000E+03	5.626689E-16	5.762666E-18
7.570000E+03	5.574963E-16	5.654855E-18
7.580000E+03	5.529262E-16	5.553598E-18
7.590000E+03	5.488780E-16	5.457931E-18
7.600000E+03	5.452815E-16	5.367027E-18
7.610000E+03	5.420864E-16	5.280279E-18
7.620000E+03	5.392550E-16	5.197220E-18
7.630000E+03	5.367658E-16	5.117556E-18
7.640000E+03	5.346312E-16	5.041321E-18
7.650000E+03	5.328619E-16	4.968526E-18
7.660000E+03	5.314932E-16	4.899409E-18
7.670000E+03	5.305305E-16	4.833920E-18
7.680000E+03	5.299997E-16	4.772192E-18
7.690000E+03	5.298893E-16	4.714016E-18
7.700000E+03	5.302040E-16	4.659335E-18
7.710000E+03	5.309157E-16	4.607805E-18
7.720000E+03	5.319913E-16	4.559057E-18
7.730000E+03	5.333866E-16	4.512645E-18
7.740000E+03	5.350549E-16	4.468129E-18
7.750000E+03	5.369279E-16	4.424916E-18
7.760000E+03	5.389472E-16	4.382528E-18
