#wls	flux	fluxerr
1.600000E+03	1.287773E-16	5.190753E-18
1.640000E+03	1.302268E-16	5.231025E-18
1.680000E+03	1.316878E-16	5.270894E-18
1.720000E+03	1.331296E-16	5.309096E-18
1.760000E+03	1.345705E-16	5.346341E-18
1.800000E+03	1.360292E-16	5.383351E-18
1.840000E+03	1.374991E-16	5.419826E-18
1.880000E+03	1.389460E-16	5.454391E-18
1.920000E+03	1.404141E-16	5.488758E-18
1.960000E+03	1.418951E-16	5.522565E-18
2.000000E+03	1.433795E-16	5.555408E-18
2.040000E+03	1.448570E-16	5.586858E-18
2.080000E+03	1.463714E-16	5.618573E-18
2.120000E+03	1.478840E-16	5.649019E-18
2.160000E+03	1.494098E-16	5.678736E-18
2.200000E+03	1.509079E-16	5.706144E-18
2.240000E+03	1.524194E-16	5.732767E-18
2.280000E+03	1.539018E-16	5.756977E-18
2.320000E+03	1.553397E-16	5.778181E-18
2.360000E+03	1.567171E-16	5.795791E-18
2.400000E+03	1.580181E-16	5.809225E-18
2.440000E+03	1.592269E-16	5.817924E-18
2.480000E+03	1.603554E-16	5.822352E-18
2.520000E+03	1.613353E-16	5.820073E-18
2.560000E+03	1.621810E-16	5.811680E-18
2.600000E+03	1.628820E-16	5.796872E-18
2.640000E+03	1.634045E-16	5.774534E-18
2.680000E+03	1.637948E-16	5.746412E-18
2.720000E+03	1.640007E-16	5.710763E-18
2.760000E+03	1.640499E-16	5.668683E-18
2.800000E+03	1.639251E-16	5.619687E-18
2.840000E+03	1.636622E-16	5.565133E-18
2.880000E+03	1.632999E-16	5.506437E-18
2.920000E+03	1.628347E-16	5.443565E-18
2.960000E+03	1.623568E-16	5.379589E-18
3.000000E+03	1.619115E-16	5.316014E-18
3.010000E+03	1.617965E-16	5.299891E-18
3.020000E+03	1.617145E-16	5.284805E-18
3.030000E+03	1.616239E-16	5.269390E-18
3.040000E+03	1.615459E-16	5.254341E-18
3.050000E+03	1.614811E-16	5.239668E-18
3.060000E+03	1.614296E-16	5.225379E-18
3.070000E+03	1.613919E-16	5.211481E-18
3.080000E+03	1.613884E-16	5.198631E-18
3.090000E+03	1.613791E-16	5.185533E-18
3.100000E+03	1.613847E-16	5.172856E-18
3.110000E+03	1.614252E-16	5.161229E-18
3.120000E+03	1.614810E-16	5.150026E-18
3.130000E+03	1.615526E-16	5.139254E-18
3.140000E+03	1.616596E-16	5.129536E-18
3.150000E+03	1.617830E-16	5.120254E-18
3.160000E+03	1.619421E-16	5.112019E-18
3.170000E+03	1.621181E-16	5.104229E-18
3.180000E+03	1.623489E-16	5.098069E-18
3.190000E+03	1.625969E-16	5.092349E-18
3.200000E+03	1.628625E-16	5.087074E-18
3.210000E+03	1.631830E-16	5.083404E-18
3.220000E+03	1.635398E-16	5.080744E-18
3.230000E+03	1.639328E-16	5.079086E-18
3.240000E+03	1.643621E-16	5.078419E-18
3.250000E+03	1.648458E-16	5.079292E-18
3.260000E+03	1.653655E-16	5.081126E-18
3.270000E+03	1.659393E-16	5.084462E-18
3.280000E+03	1.665487E-16	5.088729E-18
3.290000E+03	1.672293E-16	5.094993E-18
3.300000E+03	1.679452E-16	5.102148E-18
3.310000E+03	1.687137E-16	5.110707E-18
3.320000E+03	1.695345E-16	5.120646E-18
3.330000E+03	1.704244E-16	5.132456E-18
3.340000E+03	1.713653E-16	5.145576E-18
3.350000E+03	1.723738E-16	5.160488E-18
3.360000E+03	1.734324E-16	5.176649E-18
3.370000E+03	1.745572E-16	5.194521E-18
3.380000E+03	1.757473E-16	5.214064E-18
3.390000E+03	1.770187E-16	5.235730E-18
3.400000E+03	1.783535E-16	5.258968E-18
3.410000E+03	1.797510E-16	5.283736E-18
3.420000E+03	1.812267E-16	5.310471E-18
3.430000E+03	1.827631E-16	5.338639E-18
3.440000E+03	1.843922E-16	5.369155E-18
3.450000E+03	1.860967E-16	5.401488E-18
3.460000E+03	1.878759E-16	5.435593E-18
3.470000E+03	1.897291E-16	5.471429E-18
3.480000E+03	1.916883E-16	5.509895E-18
3.490000E+03	1.937212E-16	5.550030E-18
3.500000E+03	1.958438E-16	5.592269E-18
3.510000E+03	1.980569E-16	5.636608E-18
3.520000E+03	2.003612E-16	5.683035E-18
3.530000E+03	2.027739E-16	5.732014E-18
3.540000E+03	2.052966E-16	5.783553E-18
3.550000E+03	2.079157E-16	5.837234E-18
3.560000E+03	2.106649E-16	5.893973E-18
3.570000E+03	2.135162E-16	5.952948E-18
3.580000E+03	2.165042E-16	6.015085E-18
3.590000E+03	2.196328E-16	6.080451E-18
3.600000E+03	2.228910E-16	6.148697E-18
3.610000E+03	2.262997E-16	6.220356E-18
3.620000E+03	2.298650E-16	6.295547E-18
3.630000E+03	2.335781E-16	6.373981E-18
3.640000E+03	2.374923E-16	6.457057E-18
3.650000E+03	2.415697E-16	6.543689E-18
3.660000E+03	2.458494E-16	6.634876E-18
3.670000E+03	2.503407E-16	6.730800E-18
3.680000E+03	2.550383E-16	6.831254E-18
3.690000E+03	2.599829E-16	6.937260E-18
3.700000E+03	2.651553E-16	7.048222E-18
3.710000E+03	2.705822E-16	7.164772E-18
3.720000E+03	2.762904E-16	7.287540E-18
3.730000E+03	2.822770E-16	7.416353E-18
3.740000E+03	2.885542E-16	7.551439E-18
3.750000E+03	2.951493E-16	7.693416E-18
3.760000E+03	3.020589E-16	7.842088E-18
3.770000E+03	3.093095E-16	7.998039E-18
3.780000E+03	3.168963E-16	8.161030E-18
3.790000E+03	3.248440E-16	8.331583E-18
3.800000E+03	3.331607E-16	8.509785E-18
3.810000E+03	3.418524E-16	8.695664E-18
3.820000E+03	3.509072E-16	8.888791E-18
3.830000E+03	3.603579E-16	9.089872E-18
3.840000E+03	3.701703E-16	9.297917E-18
3.850000E+03	3.803548E-16	9.513056E-18
3.860000E+03	3.909011E-16	9.734910E-18
3.870000E+03	4.017781E-16	9.962582E-18
3.880000E+03	4.129985E-16	1.019627E-17
3.890000E+03	4.245037E-16	1.043441E-17
3.900000E+03	4.362789E-16	1.067655E-17
3.910000E+03	4.482865E-16	1.092166E-17
3.920000E+03	4.604657E-16	1.116820E-17
3.930000E+03	4.727838E-16	1.141531E-17
3.940000E+03	4.851681E-16	1.166118E-17
3.950000E+03	4.975749E-16	1.190474E-17
3.960000E+03	5.099215E-16	1.214401E-17
3.970000E+03	5.221383E-16	1.237735E-17
3.980000E+03	5.341528E-16	1.260308E-17
3.990000E+03	5.458910E-16	1.281952E-17
4.000000E+03	5.572783E-16	1.302503E-17
4.010000E+03	5.682240E-16	1.321760E-17
4.020000E+03	5.786752E-16	1.339614E-17
4.030000E+03	5.885314E-16	1.355850E-17
4.040000E+03	5.977686E-16	1.370434E-17
4.050000E+03	6.063190E-16	1.383230E-17
4.060000E+03	6.141253E-16	1.394132E-17
4.070000E+03	6.211758E-16	1.403138E-17
4.080000E+03	6.274366E-16	1.410197E-17
4.090000E+03	6.329035E-16	1.415327E-17
4.100000E+03	6.375844E-16	1.418573E-17
4.110000E+03	6.414823E-16	1.419967E-17
4.120000E+03	6.446283E-16	1.419606E-17
4.130000E+03	6.470633E-16	1.417604E-17
4.140000E+03	6.488213E-16	1.414060E-17
4.150000E+03	6.499750E-16	1.409156E-17
4.160000E+03	6.505726E-16	1.403016E-17
4.170000E+03	6.506666E-16	1.395773E-17
4.180000E+03	6.503435E-16	1.387629E-17
4.190000E+03	6.496603E-16	1.378720E-17
4.200000E+03	6.486755E-16	1.369181E-17
4.210000E+03	6.474748E-16	1.359205E-17
4.220000E+03	6.460993E-16	1.348885E-17
4.230000E+03	6.446293E-16	1.338394E-17
4.240000E+03	6.431140E-16	1.327838E-17
4.250000E+03	6.415992E-16	1.317313E-17
4.260000E+03	6.401528E-16	1.306957E-17
4.270000E+03	6.388121E-16	1.296846E-17
4.280000E+03	6.376235E-16	1.287069E-17
4.290000E+03	6.366047E-16	1.277658E-17
4.300000E+03	6.358067E-16	1.268709E-17
4.310000E+03	6.352519E-16	1.260260E-17
4.320000E+03	6.349722E-16	1.252365E-17
4.330000E+03	6.349844E-16	1.245049E-17
4.340000E+03	6.353257E-16	1.238374E-17
4.350000E+03	6.359866E-16	1.232312E-17
4.360000E+03	6.370116E-16	1.226939E-17
4.370000E+03	6.384112E-16	1.222261E-17
4.380000E+03	6.401849E-16	1.218266E-17
4.390000E+03	6.423772E-16	1.215026E-17
4.400000E+03	6.450107E-16	1.212571E-17
4.410000E+03	6.481179E-16	1.210945E-17
4.420000E+03	6.517421E-16	1.210214E-17
4.430000E+03	6.559242E-16	1.210437E-17
4.440000E+03	6.607003E-16	1.211662E-17
4.450000E+03	6.660898E-16	1.213904E-17
4.460000E+03	6.721355E-16	1.217222E-17
4.470000E+03	6.788184E-16	1.221558E-17
4.480000E+03	6.861495E-16	1.226912E-17
4.490000E+03	6.941055E-16	1.233222E-17
4.500000E+03	7.026685E-16	1.240436E-17
4.510000E+03	7.117737E-16	1.248421E-17
4.520000E+03	7.213594E-16	1.257051E-17
4.530000E+03	7.313571E-16	1.266195E-17
4.540000E+03	7.416507E-16	1.275640E-17
4.550000E+03	7.521504E-16	1.285223E-17
4.560000E+03	7.627219E-16	1.294712E-17
4.570000E+03	7.732210E-16	1.303864E-17
4.580000E+03	7.835067E-16	1.312446E-17
4.590000E+03	7.934462E-16	1.320246E-17
4.600000E+03	8.028850E-16	1.327024E-17
4.610000E+03	8.116834E-16	1.332568E-17
4.620000E+03	8.197085E-16	1.336685E-17
4.630000E+03	8.268373E-16	1.339203E-17
4.640000E+03	8.329581E-16	1.339976E-17
4.650000E+03	8.379739E-16	1.338882E-17
4.660000E+03	8.417815E-16	1.335797E-17
4.670000E+03	8.443399E-16	1.330696E-17
4.680000E+03	8.455956E-16	1.323540E-17
4.690000E+03	8.455176E-16	1.314322E-17
4.700000E+03	8.441208E-16	1.303112E-17
4.710000E+03	8.414239E-16	1.289981E-17
4.720000E+03	8.374821E-16	1.275056E-17
4.730000E+03	8.323764E-16	1.258499E-17
4.740000E+03	8.262017E-16	1.240492E-17
4.750000E+03	8.190856E-16	1.221258E-17
4.760000E+03	8.111760E-16	1.201046E-17
4.770000E+03	8.026485E-16	1.180139E-17
4.780000E+03	7.936758E-16	1.158808E-17
4.790000E+03	7.844650E-16	1.137368E-17
4.800000E+03	7.752650E-16	1.116184E-17
4.810000E+03	7.663097E-16	1.095588E-17
4.820000E+03	7.578437E-16	1.075922E-17
4.830000E+03	7.500974E-16	1.057494E-17
4.840000E+03	7.432637E-16	1.040553E-17
4.850000E+03	7.375279E-16	1.025329E-17
4.860000E+03	7.330592E-16	1.012019E-17
4.870000E+03	7.299705E-16	1.000741E-17
4.880000E+03	7.283528E-16	9.915785E-18
4.890000E+03	7.282569E-16	9.845563E-18
4.900000E+03	7.297155E-16	9.796750E-18
4.910000E+03	7.326805E-16	9.768264E-18
4.920000E+03	7.370997E-16	9.758998E-18
4.930000E+03	7.428753E-16	9.767267E-18
4.940000E+03	7.498428E-16	9.790556E-18
4.950000E+03	7.578076E-16	9.826029E-18
4.960000E+03	7.665533E-16	9.870643E-18
4.970000E+03	7.757881E-16	9.920472E-18
4.980000E+03	7.852077E-16	9.971537E-18
4.990000E+03	7.944835E-16	1.001966E-17
5.000000E+03	8.032736E-16	1.006062E-17
5.010000E+03	8.112470E-16	1.009044E-17
5.020000E+03	8.181337E-16	1.010601E-17
5.030000E+03	8.237536E-16	1.010541E-17
5.040000E+03	8.280026E-16	1.008772E-17
5.050000E+03	8.308581E-16	1.005301E-17
5.060000E+03	8.324091E-16	1.000271E-17
5.070000E+03	8.328251E-16	9.939181E-18
5.080000E+03	8.323103E-16	9.865116E-18
5.090000E+03	8.311006E-16	9.783527E-18
5.100000E+03	8.294681E-16	9.697765E-18
5.110000E+03	8.276629E-16	9.610838E-18
5.120000E+03	8.258986E-16	9.525249E-18
5.130000E+03	8.243614E-16	9.443127E-18
5.140000E+03	8.232065E-16	9.366186E-18
5.150000E+03	8.225472E-16	9.295621E-18
5.160000E+03	8.224389E-16	9.231950E-18
5.170000E+03	8.229585E-16	9.175910E-18
5.180000E+03	8.241026E-16	9.127334E-18
5.190000E+03	8.258932E-16	9.086336E-18
5.200000E+03	8.283254E-16	9.052736E-18
5.210000E+03	8.313794E-16	9.026196E-18
5.220000E+03	8.350372E-16	9.006406E-18
5.230000E+03	8.392821E-16	8.993082E-18
5.240000E+03	8.440738E-16	8.985694E-18
5.250000E+03	8.493822E-16	8.983836E-18
5.260000E+03	8.551565E-16	8.986899E-18
5.270000E+03	8.613141E-16	8.993957E-18
5.280000E+03	8.678048E-16	9.004446E-18
5.290000E+03	8.745187E-16	9.017204E-18
5.300000E+03	8.813436E-16	9.031075E-18
5.310000E+03	8.881552E-16	9.044812E-18
5.320000E+03	8.948334E-16	9.057246E-18
5.330000E+03	9.012486E-16	9.067135E-18
5.340000E+03	9.072544E-16	9.073110E-18
5.350000E+03	9.127525E-16	9.074310E-18
5.360000E+03	9.176353E-16	9.069801E-18
5.370000E+03	9.218224E-16	9.058942E-18
5.380000E+03	9.252655E-16	9.041421E-18
5.390000E+03	9.279283E-16	9.017045E-18
5.400000E+03	9.297994E-16	8.985868E-18
5.410000E+03	9.309189E-16	8.948436E-18
5.420000E+03	9.313247E-16	8.905259E-18
5.430000E+03	9.310805E-16	8.857082E-18
5.440000E+03	9.302611E-16	8.804734E-18
5.450000E+03	9.289499E-16	8.749109E-18
5.460000E+03	9.272264E-16	8.691042E-18
5.470000E+03	9.251528E-16	8.631191E-18
5.480000E+03	9.227742E-16	8.570038E-18
5.490000E+03	9.200778E-16	8.507521E-18
5.500000E+03	9.169756E-16	8.442876E-18
5.510000E+03	9.131029E-16	8.372774E-18
5.520000E+03	9.080326E-16	8.293347E-18
5.530000E+03	9.013883E-16	8.201242E-18
5.540000E+03	8.928720E-16	8.093856E-18
5.550000E+03	8.822582E-16	7.969271E-18
5.560000E+03	8.694492E-16	7.826728E-18
5.570000E+03	8.544943E-16	7.666790E-18
5.580000E+03	8.375837E-16	7.491259E-18
5.590000E+03	8.190047E-16	7.302768E-18
5.600000E+03	7.991469E-16	7.104821E-18
5.610000E+03	7.784723E-16	6.901515E-18
5.620000E+03	7.574870E-16	6.697291E-18
5.630000E+03	7.367145E-16	6.496691E-18
5.640000E+03	7.166785E-16	6.304221E-18
5.650000E+03	6.978761E-16	6.124108E-18
5.660000E+03	6.807448E-16	5.960028E-18
5.670000E+03	6.657033E-16	5.815469E-18
5.680000E+03	6.530886E-16	5.693187E-18
5.690000E+03	6.432029E-16	5.595623E-18
5.700000E+03	6.362813E-16	5.524631E-18
5.710000E+03	6.325360E-16	5.481864E-18
5.720000E+03	6.321097E-16	5.468378E-18
5.730000E+03	6.351306E-16	5.485106E-18
5.740000E+03	6.417005E-16	5.532763E-18
5.750000E+03	6.518778E-16	5.611698E-18
5.760000E+03	6.657038E-16	5.722127E-18
5.770000E+03	6.831953E-16	5.864063E-18
5.780000E+03	7.042854E-16	6.036814E-18
5.790000E+03	7.288774E-16	6.239450E-18
5.800000E+03	7.567766E-16	6.470218E-18
5.810000E+03	7.876913E-16	6.726556E-18
5.820000E+03	8.212398E-16	7.005156E-18
5.830000E+03	8.568720E-16	7.301299E-18
5.840000E+03	8.938960E-16	7.609084E-18
5.850000E+03	9.314490E-16	7.921187E-18
5.860000E+03	9.685778E-16	8.229547E-18
5.870000E+03	1.004313E-15	8.525993E-18
5.880000E+03	1.037655E-15	8.802137E-18
5.890000E+03	1.067640E-15	9.049896E-18
5.900000E+03	1.093443E-15	9.262400E-18
5.910000E+03	1.114381E-15	9.433965E-18
5.920000E+03	1.129927E-15	9.560262E-18
5.930000E+03	1.139825E-15	9.639229E-18
5.940000E+03	1.144011E-15	9.670420E-18
5.950000E+03	1.142634E-15	9.655186E-18
5.960000E+03	1.136037E-15	9.596473E-18
5.970000E+03	1.124745E-15	9.498780E-18
5.980000E+03	1.109370E-15	9.367293E-18
5.990000E+03	1.090639E-15	9.208164E-18
6.000000E+03	1.069293E-15	9.027646E-18
6.010000E+03	1.046068E-15	8.831944E-18
6.020000E+03	1.021669E-15	8.626975E-18
6.030000E+03	9.967506E-16	8.418243E-18
6.040000E+03	9.718593E-16	8.210343E-18
6.050000E+03	9.474787E-16	8.007333E-18
6.060000E+03	9.239993E-16	7.812489E-18
6.070000E+03	9.017310E-16	7.628416E-18
6.080000E+03	8.808963E-16	7.456989E-18
6.090000E+03	8.616716E-16	7.299700E-18
6.100000E+03	8.441483E-16	7.157333E-18
6.110000E+03	8.284022E-16	7.030548E-18
6.120000E+03	8.144577E-16	6.919579E-18
6.130000E+03	8.023200E-16	6.824507E-18
6.140000E+03	7.919499E-16	6.745043E-18
6.150000E+03	7.833060E-16	6.680888E-18
6.160000E+03	7.763313E-16	6.631616E-18
6.170000E+03	7.709188E-16	6.596380E-18
6.180000E+03	7.669804E-16	6.574503E-18
6.190000E+03	7.643950E-16	6.565022E-18
6.200000E+03	7.630475E-16	6.567032E-18
6.210000E+03	7.628211E-16	6.579611E-18
6.220000E+03	7.635628E-16	6.601513E-18
6.230000E+03	7.651016E-16	6.631296E-18
6.240000E+03	7.672557E-16	6.667407E-18
6.250000E+03	7.698495E-16	6.708333E-18
6.260000E+03	7.726994E-16	6.752478E-18
6.270000E+03	7.756552E-16	6.798525E-18
6.280000E+03	7.785469E-16	6.844961E-18
6.290000E+03	7.812345E-16	6.890527E-18
6.300000E+03	7.836013E-16	6.934147E-18
6.310000E+03	7.855368E-16	6.974785E-18
6.320000E+03	7.869688E-16	7.011734E-18
6.330000E+03	7.878486E-16	7.044483E-18
6.340000E+03	7.881593E-16	7.072799E-18
6.350000E+03	7.878999E-16	7.096587E-18
6.360000E+03	7.871055E-16	7.116076E-18
6.370000E+03	7.858178E-16	7.131558E-18
6.380000E+03	7.840963E-16	7.143491E-18
6.390000E+03	7.820081E-16	7.152412E-18
6.400000E+03	7.796269E-16	7.158926E-18
6.410000E+03	7.770032E-16	7.163433E-18
6.420000E+03	7.741894E-16	7.166361E-18
6.430000E+03	7.712461E-16	7.168221E-18
6.440000E+03	7.681977E-16	7.169196E-18
6.450000E+03	7.650772E-16	7.169555E-18
6.460000E+03	7.618990E-16	7.169395E-18
6.470000E+03	7.587065E-16	7.169094E-18
6.480000E+03	7.555201E-16	7.168811E-18
6.490000E+03	7.523653E-16	7.168754E-18
6.500000E+03	7.493306E-16	7.169734E-18
6.510000E+03	7.464711E-16	7.172258E-18
6.520000E+03	7.438887E-16	7.177296E-18
6.530000E+03	7.416700E-16	7.185686E-18
6.540000E+03	7.399713E-16	7.198960E-18
6.550000E+03	7.389424E-16	7.218612E-18
6.560000E+03	7.386846E-16	7.245686E-18
6.570000E+03	7.392190E-16	7.280451E-18
6.580000E+03	7.405600E-16	7.323115E-18
6.590000E+03	7.426231E-16	7.372906E-18
6.600000E+03	7.452844E-16	7.428646E-18
6.610000E+03	7.484003E-16	7.488936E-18
6.620000E+03	7.517608E-16	7.551693E-18
6.630000E+03	7.551442E-16	7.614678E-18
6.640000E+03	7.582995E-16	7.675324E-18
6.650000E+03	7.609606E-16	7.730874E-18
6.660000E+03	7.628492E-16	7.778407E-18
6.670000E+03	7.637175E-16	7.815271E-18
6.680000E+03	7.633902E-16	7.839533E-18
6.690000E+03	7.617236E-16	7.849559E-18
6.700000E+03	7.586367E-16	7.844349E-18
6.710000E+03	7.541466E-16	7.823916E-18
6.720000E+03	7.482986E-16	7.788574E-18
6.730000E+03	7.411864E-16	7.739157E-18
6.740000E+03	7.329508E-16	7.677007E-18
6.750000E+03	7.237686E-16	7.603873E-18
6.760000E+03	7.138277E-16	7.521647E-18
6.770000E+03	7.033292E-16	7.432388E-18
6.780000E+03	6.924975E-16	7.338433E-18
6.790000E+03	6.815440E-16	7.242008E-18
6.800000E+03	6.707087E-16	7.145673E-18
6.810000E+03	6.602026E-16	7.051706E-18
6.820000E+03	6.502265E-16	6.962298E-18
6.830000E+03	6.409977E-16	6.879834E-18
6.840000E+03	6.326959E-16	6.806322E-18
6.850000E+03	6.254886E-16	6.743647E-18
6.860000E+03	6.195212E-16	6.693468E-18
6.870000E+03	6.149203E-16	6.657246E-18
6.880000E+03	6.117954E-16	6.636267E-18
6.890000E+03	6.102461E-16	6.631704E-18
6.900000E+03	6.103427E-16	6.644417E-18
6.910000E+03	6.121471E-16	6.675166E-18
6.920000E+03	6.157008E-16	6.724487E-18
6.930000E+03	6.210260E-16	6.792696E-18
6.940000E+03	6.281022E-16	6.879633E-18
6.950000E+03	6.368279E-16	6.984238E-18
6.960000E+03	6.470497E-16	7.104868E-18
6.970000E+03	6.585693E-16	7.239364E-18
6.980000E+03	6.711298E-16	7.384908E-18
6.990000E+03	6.843965E-16	7.537807E-18
7.000000E+03	6.980529E-16	7.694549E-18
7.010000E+03	7.117145E-16	7.850858E-18
7.020000E+03	7.250097E-16	8.002587E-18
7.030000E+03	7.375790E-16	8.145715E-18
7.040000E+03	7.491114E-16	8.276753E-18
7.050000E+03	7.593543E-16	8.392855E-18
7.060000E+03	7.681184E-16	8.491881E-18
7.070000E+03	7.753130E-16	8.572789E-18
7.080000E+03	7.809214E-16	8.635364E-18
7.090000E+03	7.849956E-16	8.680159E-18
7.100000E+03	7.876731E-16	8.708688E-18
7.110000E+03	7.891285E-16	8.722877E-18
7.120000E+03	7.896269E-16	8.725664E-18
7.130000E+03	7.894249E-16	8.719896E-18
7.140000E+03	7.888365E-16	8.709052E-18
7.150000E+03	7.881477E-16	8.696301E-18
7.160000E+03	7.876513E-16	8.684880E-18
7.170000E+03	7.875628E-16	8.677167E-18
7.180000E+03	7.880908E-16	8.675453E-18
7.190000E+03	7.893756E-16	8.681267E-18
7.200000E+03	7.914651E-16	8.695117E-18
7.210000E+03	7.944040E-16	8.717466E-18
7.220000E+03	7.980875E-16	8.747135E-18
7.230000E+03	8.023906E-16	8.782722E-18
7.240000E+03	8.071237E-16	8.822126E-18
7.250000E+03	8.120654E-16	8.862908E-18
7.260000E+03	8.169284E-16	8.901924E-18
7.270000E+03	8.214473E-16	8.936290E-18
7.280000E+03	8.252996E-16	8.962521E-18
7.290000E+03	8.282110E-16	8.977686E-18
7.300000E+03	8.298928E-16	8.978725E-18
7.310000E+03	8.301074E-16	8.963156E-18
7.320000E+03	8.286316E-16	8.928685E-18
7.330000E+03	8.253343E-16	8.874037E-18
7.340000E+03	8.201345E-16	8.798491E-18
7.350000E+03	8.130204E-16	8.702088E-18
7.360000E+03	8.040368E-16	8.585483E-18
7.370000E+03	7.933336E-16	8.450450E-18
7.380000E+03	7.811228E-16	8.299420E-18
7.390000E+03	7.676316E-16	8.134966E-18
7.400000E+03	7.531418E-16	7.960217E-18
7.410000E+03	7.379463E-16	7.778393E-18
7.420000E+03	7.223344E-16	7.592642E-18
7.430000E+03	7.065959E-16	7.406086E-18
7.440000E+03	6.909999E-16	7.221596E-18
7.450000E+03	6.757815E-16	7.041652E-18
7.460000E+03	6.611392E-16	6.868326E-18
7.470000E+03	6.472354E-16	6.703286E-18
7.480000E+03	6.341962E-16	6.547803E-18
7.490000E+03	6.221116E-16	6.402757E-18
7.500000E+03	6.110415E-16	6.268703E-18
7.510000E+03	6.010103E-16	6.145824E-18
7.520000E+03	5.920383E-16	6.034253E-18
7.530000E+03	5.840943E-16	5.933597E-18
7.540000E+03	5.771575E-16	5.843561E-18
7.550000E+03	5.711620E-16	5.763395E-18
7.560000E+03	5.660351E-16	5.692284E-18
7.570000E+03	5.616926E-16	5.629309E-18
7.580000E+03	5.580066E-16	5.573127E-18
7.590000E+03	5.548549E-16	5.522467E-18
7.600000E+03	5.521134E-16	5.476059E-18
7.610000E+03	5.496695E-16	5.432759E-18
7.620000E+03	5.474453E-16	5.391785E-18
7.630000E+03	5.454643E-16	5.353361E-18
7.640000E+03	5.437925E-16	5.318123E-18
7.650000E+03	5.424877E-16	5.286619E-18
7.660000E+03	5.416191E-16	5.259500E-18
7.670000E+03	5.412280E-16	5.237140E-18
7.680000E+03	5.413640E-16	5.219986E-18
7.690000E+03	5.420313E-16	5.208046E-18
7.700000E+03	5.432309E-16	5.201296E-18
7.710000E+03	5.449438E-16	5.199525E-18
7.720000E+03	5.471110E-16	5.202145E-18
7.730000E+03	5.496780E-16	5.208621E-18
7.740000E+03	5.525525E-16	5.218071E-18
7.750000E+03	5.556368E-16	5.229576E-18
7.760000E+03	5.588206E-16	5.242112E-18
