#wls	flux	fluxerr
1.600000E+03	1.243752E-16	6.696767E-18
1.640000E+03	1.256904E-16	6.739688E-18
1.680000E+03	1.270148E-16	6.781797E-18
1.720000E+03	1.283426E-16	6.822758E-18
1.760000E+03	1.296681E-16	6.862220E-18
1.800000E+03	1.309594E-16	6.898462E-18
1.840000E+03	1.322852E-16	6.935088E-18
1.880000E+03	1.335878E-16	6.969006E-18
1.920000E+03	1.349108E-16	7.002463E-18
1.960000E+03	1.362203E-16	7.033655E-18
2.000000E+03	1.375338E-16	7.063448E-18
2.040000E+03	1.388688E-16	7.092683E-18
2.080000E+03	1.401892E-16	7.119478E-18
2.120000E+03	1.415111E-16	7.144606E-18
2.160000E+03	1.428238E-16	7.167491E-18
2.200000E+03	1.441159E-16	7.187517E-18
2.240000E+03	1.454020E-16	7.205396E-18
2.280000E+03	1.466429E-16	7.219148E-18
2.320000E+03	1.478527E-16	7.229467E-18
2.360000E+03	1.490184E-16	7.235706E-18
2.400000E+03	1.501006E-16	7.235964E-18
2.440000E+03	1.511134E-16	7.230967E-18
2.480000E+03	1.520448E-16	7.220179E-18
2.520000E+03	1.528841E-16	7.203137E-18
2.560000E+03	1.535962E-16	7.178277E-18
2.600000E+03	1.541996E-16	7.146557E-18
2.640000E+03	1.546886E-16	7.107819E-18
2.680000E+03	1.550358E-16	7.060920E-18
2.720000E+03	1.552906E-16	7.008242E-18
2.760000E+03	1.554314E-16	6.948906E-18
2.800000E+03	1.554647E-16	6.883330E-18
2.840000E+03	1.554236E-16	6.813094E-18
2.880000E+03	1.553207E-16	6.738825E-18
2.920000E+03	1.552159E-16	6.663170E-18
2.960000E+03	1.551471E-16	6.587738E-18
3.000000E+03	1.551534E-16	6.514114E-18
3.010000E+03	1.551748E-16	6.496314E-18
3.020000E+03	1.552089E-16	6.478947E-18
3.030000E+03	1.552558E-16	6.462019E-18
3.040000E+03	1.553157E-16	6.445531E-18
3.050000E+03	1.553890E-16	6.429493E-18
3.060000E+03	1.554758E-16	6.413902E-18
3.070000E+03	1.555764E-16	6.398770E-18
3.080000E+03	1.556912E-16	6.384104E-18
3.090000E+03	1.558401E-16	6.370711E-18
3.100000E+03	1.559836E-16	6.356975E-18
3.110000E+03	1.561812E-16	6.345306E-18
3.120000E+03	1.563740E-16	6.333307E-18
3.130000E+03	1.566014E-16	6.322563E-18
3.140000E+03	1.568631E-16	6.313051E-18
3.150000E+03	1.571404E-16	6.304002E-18
3.160000E+03	1.574331E-16	6.295414E-18
3.170000E+03	1.577795E-16	6.288794E-18
3.180000E+03	1.581416E-16	6.282620E-18
3.190000E+03	1.585383E-16	6.277626E-18
3.200000E+03	1.589697E-16	6.273807E-18
3.210000E+03	1.594540E-16	6.271861E-18
3.220000E+03	1.599542E-16	6.270321E-18
3.230000E+03	1.604889E-16	6.269900E-18
3.240000E+03	1.610759E-16	6.271281E-18
3.250000E+03	1.616970E-16	6.273735E-18
3.260000E+03	1.623700E-16	6.277933E-18
3.270000E+03	1.630767E-16	6.283153E-18
3.280000E+03	1.638522E-16	6.290731E-18
3.290000E+03	1.646432E-16	6.298594E-18
3.300000E+03	1.655023E-16	6.308740E-18
3.310000E+03	1.664112E-16	6.320449E-18
3.320000E+03	1.673698E-16	6.333689E-18
3.330000E+03	1.683773E-16	6.348411E-18
3.340000E+03	1.694506E-16	6.365227E-18
3.350000E+03	1.705717E-16	6.383435E-18
3.360000E+03	1.717402E-16	6.402997E-18
3.370000E+03	1.729895E-16	6.425132E-18
3.380000E+03	1.742848E-16	6.448516E-18
3.390000E+03	1.756591E-16	6.474348E-18
3.400000E+03	1.770950E-16	6.501948E-18
3.410000E+03	1.785917E-16	6.531258E-18
3.420000E+03	1.801487E-16	6.562233E-18
3.430000E+03	1.817818E-16	6.595419E-18
3.440000E+03	1.834905E-16	6.630760E-18
3.450000E+03	1.852742E-16	6.668202E-18
3.460000E+03	1.871326E-16	6.707696E-18
3.470000E+03	1.890655E-16	6.749198E-18
3.480000E+03	1.910728E-16	6.792673E-18
3.490000E+03	1.931711E-16	6.838671E-18
3.500000E+03	1.953606E-16	6.887153E-18
3.510000E+03	1.976260E-16	6.937542E-18
3.520000E+03	2.000003E-16	6.990952E-18
3.530000E+03	2.024529E-16	7.046265E-18
3.540000E+03	2.050332E-16	7.105158E-18
3.550000E+03	2.076955E-16	7.165987E-18
3.560000E+03	2.104738E-16	7.229887E-18
3.570000E+03	2.133711E-16	7.296895E-18
3.580000E+03	2.164062E-16	7.367598E-18
3.590000E+03	2.195514E-16	7.440985E-18
3.600000E+03	2.228265E-16	7.517675E-18
3.610000E+03	2.262518E-16	7.598284E-18
3.620000E+03	2.298324E-16	7.682908E-18
3.630000E+03	2.335587E-16	7.771146E-18
3.640000E+03	2.374676E-16	7.864154E-18
3.650000E+03	2.415349E-16	7.961040E-18
3.660000E+03	2.457987E-16	8.062972E-18
3.670000E+03	2.502509E-16	8.169595E-18
3.680000E+03	2.548995E-16	8.281068E-18
3.690000E+03	2.597837E-16	8.398560E-18
3.700000E+03	2.648809E-16	8.521227E-18
3.710000E+03	2.702155E-16	8.649741E-18
3.720000E+03	2.757958E-16	8.784251E-18
3.730000E+03	2.816309E-16	8.924915E-18
3.740000E+03	2.877291E-16	9.071867E-18
3.750000E+03	2.941141E-16	9.225719E-18
3.760000E+03	3.007936E-16	9.386562E-18
3.770000E+03	3.077589E-16	9.553977E-18
3.780000E+03	3.150159E-16	9.728001E-18
3.790000E+03	3.226004E-16	9.909579E-18
3.800000E+03	3.304845E-16	1.009770E-17
3.810000E+03	3.387008E-16	1.029318E-17
3.820000E+03	3.472172E-16	1.049490E-17
3.830000E+03	3.560618E-16	1.070353E-17
3.840000E+03	3.652128E-16	1.091826E-17
3.850000E+03	3.746610E-16	1.113865E-17
3.860000E+03	3.843934E-16	1.136417E-17
3.870000E+03	3.944099E-16	1.159465E-17
3.880000E+03	4.046736E-16	1.182887E-17
3.890000E+03	4.151595E-16	1.206596E-17
3.900000E+03	4.258547E-16	1.230545E-17
3.910000E+03	4.367092E-16	1.254578E-17
3.920000E+03	4.477010E-16	1.278622E-17
3.930000E+03	4.587545E-16	1.302457E-17
3.940000E+03	4.698730E-16	1.326087E-17
3.950000E+03	4.809561E-16	1.349227E-17
3.960000E+03	4.919674E-16	1.371777E-17
3.970000E+03	5.028677E-16	1.393630E-17
3.980000E+03	5.135829E-16	1.414589E-17
3.990000E+03	5.240382E-16	1.434457E-17
4.000000E+03	5.342094E-16	1.453183E-17
4.010000E+03	5.440068E-16	1.470536E-17
4.020000E+03	5.533938E-16	1.486439E-17
4.030000E+03	5.623040E-16	1.500735E-17
4.040000E+03	5.707098E-16	1.513375E-17
4.050000E+03	5.785563E-16	1.524241E-17
4.060000E+03	5.858126E-16	1.533282E-17
4.070000E+03	5.924394E-16	1.540425E-17
4.080000E+03	5.984391E-16	1.545710E-17
4.090000E+03	6.038058E-16	1.549155E-17
4.100000E+03	6.085110E-16	1.550721E-17
4.110000E+03	6.125992E-16	1.550554E-17
4.120000E+03	6.160441E-16	1.548622E-17
4.130000E+03	6.189059E-16	1.545109E-17
4.140000E+03	6.212201E-16	1.540135E-17
4.150000E+03	6.229835E-16	1.533721E-17
4.160000E+03	6.242742E-16	1.526086E-17
4.170000E+03	6.251288E-16	1.517347E-17
4.180000E+03	6.255883E-16	1.507625E-17
4.190000E+03	6.257243E-16	1.497112E-17
4.200000E+03	6.255672E-16	1.485901E-17
4.210000E+03	6.251897E-16	1.474178E-17
4.220000E+03	6.246235E-16	1.462029E-17
4.230000E+03	6.239392E-16	1.449631E-17
4.240000E+03	6.231792E-16	1.437088E-17
4.250000E+03	6.223966E-16	1.424527E-17
4.260000E+03	6.216174E-16	1.412009E-17
4.270000E+03	6.209022E-16	1.399672E-17
4.280000E+03	6.202841E-16	1.387589E-17
4.290000E+03	6.197938E-16	1.375823E-17
4.300000E+03	6.194709E-16	1.364457E-17
4.310000E+03	6.193405E-16	1.353538E-17
4.320000E+03	6.194368E-16	1.343133E-17
4.330000E+03	6.197802E-16	1.333275E-17
4.340000E+03	6.203894E-16	1.323992E-17
4.350000E+03	6.213023E-16	1.315353E-17
4.360000E+03	6.225129E-16	1.307332E-17
4.370000E+03	6.240675E-16	1.300012E-17
4.380000E+03	6.259694E-16	1.293383E-17
4.390000E+03	6.282333E-16	1.287462E-17
4.400000E+03	6.308951E-16	1.282303E-17
4.410000E+03	6.339498E-16	1.277880E-17
4.420000E+03	6.374427E-16	1.274266E-17
4.430000E+03	6.413760E-16	1.271445E-17
4.440000E+03	6.457688E-16	1.269437E-17
4.450000E+03	6.506143E-16	1.268206E-17
4.460000E+03	6.559300E-16	1.267769E-17
4.470000E+03	6.617153E-16	1.268102E-17
4.480000E+03	6.679513E-16	1.269151E-17
4.490000E+03	6.746198E-16	1.270861E-17
4.500000E+03	6.817022E-16	1.273181E-17
4.510000E+03	6.891500E-16	1.276004E-17
4.520000E+03	6.969135E-16	1.279224E-17
4.530000E+03	7.049333E-16	1.282724E-17
4.540000E+03	7.131397E-16	1.286369E-17
4.550000E+03	7.214540E-16	1.290013E-17
4.560000E+03	7.297902E-16	1.293505E-17
4.570000E+03	7.380560E-16	1.296686E-17
4.580000E+03	7.461551E-16	1.299396E-17
4.590000E+03	7.539888E-16	1.301477E-17
4.600000E+03	7.614585E-16	1.302779E-17
4.610000E+03	7.684676E-16	1.303160E-17
4.620000E+03	7.749237E-16	1.302490E-17
4.630000E+03	7.807507E-16	1.300672E-17
4.640000E+03	7.858505E-16	1.297579E-17
4.650000E+03	7.901750E-16	1.293167E-17
4.660000E+03	7.936473E-16	1.287352E-17
4.670000E+03	7.962432E-16	1.280136E-17
4.680000E+03	7.979123E-16	1.271481E-17
4.690000E+03	7.986390E-16	1.261405E-17
4.700000E+03	7.984323E-16	1.249967E-17
4.710000E+03	7.972964E-16	1.237215E-17
4.720000E+03	7.952601E-16	1.223235E-17
4.730000E+03	7.923568E-16	1.208117E-17
4.740000E+03	7.886431E-16	1.191983E-17
4.750000E+03	7.841893E-16	1.174974E-17
4.760000E+03	7.790618E-16	1.157217E-17
4.770000E+03	7.733636E-16	1.138892E-17
4.780000E+03	7.672197E-16	1.120203E-17
4.790000E+03	7.607699E-16	1.101370E-17
4.800000E+03	7.542133E-16	1.082689E-17
4.810000E+03	7.477256E-16	1.064414E-17
4.820000E+03	7.415032E-16	1.046820E-17
4.830000E+03	7.357509E-16	1.030183E-17
4.840000E+03	7.306142E-16	1.014687E-17
4.850000E+03	7.262522E-16	1.000525E-17
4.860000E+03	7.227914E-16	9.878379E-18
4.870000E+03	7.203317E-16	9.767263E-18
4.880000E+03	7.189294E-16	9.672292E-18
4.890000E+03	7.186454E-16	9.593905E-18
4.900000E+03	7.194698E-16	9.531590E-18
4.910000E+03	7.213883E-16	9.484795E-18
4.920000E+03	7.243648E-16	9.452699E-18
4.930000E+03	7.283088E-16	9.433805E-18
4.940000E+03	7.331178E-16	9.426503E-18
4.950000E+03	7.386446E-16	9.428660E-18
4.960000E+03	7.447494E-16	9.438304E-18
4.970000E+03	7.512213E-16	9.452620E-18
4.980000E+03	7.578834E-16	9.469299E-18
4.990000E+03	7.645178E-16	9.485589E-18
5.000000E+03	7.709176E-16	9.498949E-18
5.010000E+03	7.769000E-16	9.507202E-18
5.020000E+03	7.822929E-16	9.508360E-18
5.030000E+03	7.869892E-16	9.501276E-18
5.040000E+03	7.908947E-16	9.484981E-18
5.050000E+03	7.939998E-16	9.459545E-18
5.060000E+03	7.963104E-16	9.425217E-18
5.070000E+03	7.979112E-16	9.383165E-18
5.080000E+03	7.989055E-16	9.334746E-18
5.090000E+03	7.994127E-16	9.281469E-18
5.100000E+03	7.995838E-16	9.225168E-18
5.110000E+03	7.995635E-16	9.167563E-18
5.120000E+03	7.994809E-16	9.110153E-18
5.130000E+03	7.994691E-16	9.054448E-18
5.140000E+03	7.996346E-16	9.001621E-18
5.150000E+03	8.000630E-16	8.952588E-18
5.160000E+03	8.008116E-16	8.907929E-18
5.170000E+03	8.019438E-16	8.868281E-18
5.180000E+03	8.034723E-16	8.833709E-18
5.190000E+03	8.054293E-16	8.804495E-18
5.200000E+03	8.078096E-16	8.780510E-18
5.210000E+03	8.105978E-16	8.761523E-18
5.220000E+03	8.137873E-16	8.747405E-18
5.230000E+03	8.173640E-16	8.737950E-18
5.240000E+03	8.212799E-16	8.732606E-18
5.250000E+03	8.255140E-16	8.731117E-18
5.260000E+03	8.300024E-16	8.732788E-18
5.270000E+03	8.346985E-16	8.737122E-18
5.280000E+03	8.395378E-16	8.743452E-18
5.290000E+03	8.444390E-16	8.750951E-18
5.300000E+03	8.493396E-16	8.759009E-18
5.310000E+03	8.541363E-16	8.766612E-18
5.320000E+03	8.587406E-16	8.772918E-18
5.330000E+03	8.630827E-16	8.777294E-18
5.340000E+03	8.670610E-16	8.778800E-18
5.350000E+03	8.705987E-16	8.776763E-18
5.360000E+03	8.736391E-16	8.770722E-18
5.370000E+03	8.761290E-16	8.760262E-18
5.380000E+03	8.780129E-16	8.744948E-18
5.390000E+03	8.792868E-16	8.724862E-18
5.400000E+03	8.799360E-16	8.699977E-18
5.410000E+03	8.799704E-16	8.670503E-18
5.420000E+03	8.794132E-16	8.636777E-18
5.430000E+03	8.782984E-16	8.599229E-18
5.440000E+03	8.766665E-16	8.558348E-18
5.450000E+03	8.745605E-16	8.514632E-18
5.460000E+03	8.720181E-16	8.468518E-18
5.470000E+03	8.690544E-16	8.420216E-18
5.480000E+03	8.656682E-16	8.369769E-18
5.490000E+03	8.618362E-16	8.317000E-18
5.500000E+03	8.574505E-16	8.260902E-18
5.510000E+03	8.523828E-16	8.200195E-18
5.520000E+03	8.464673E-16	8.133208E-18
5.530000E+03	8.395546E-16	8.058428E-18
5.540000E+03	8.314969E-16	7.974352E-18
5.550000E+03	8.222035E-16	7.880022E-18
5.560000E+03	8.116401E-16	7.775009E-18
5.570000E+03	7.998522E-16	7.659645E-18
5.580000E+03	7.869661E-16	7.535025E-18
5.590000E+03	7.731524E-16	7.402661E-18
5.600000E+03	7.586633E-16	7.264846E-18
5.610000E+03	7.437961E-16	7.124304E-18
5.620000E+03	7.288581E-16	6.983862E-18
5.630000E+03	7.142033E-16	6.846802E-18
5.640000E+03	7.001604E-16	6.716179E-18
5.650000E+03	6.870716E-16	6.595194E-18
5.660000E+03	6.752535E-16	6.486822E-18
5.670000E+03	6.649975E-16	6.393814E-18
5.680000E+03	6.565648E-16	6.318655E-18
5.690000E+03	6.501782E-16	6.263480E-18
5.700000E+03	6.460401E-16	6.230247E-18
5.710000E+03	6.443142E-16	6.220560E-18
5.720000E+03	6.451267E-16	6.235679E-18
5.730000E+03	6.485802E-16	6.276650E-18
5.740000E+03	6.547546E-16	6.344311E-18
5.750000E+03	6.636874E-16	6.439101E-18
5.760000E+03	6.753897E-16	6.561211E-18
5.770000E+03	6.898282E-16	6.710405E-18
5.780000E+03	7.069462E-16	6.886222E-18
5.790000E+03	7.266073E-16	7.087426E-18
5.800000E+03	7.486345E-16	7.312377E-18
5.810000E+03	7.727652E-16	7.558596E-18
5.820000E+03	7.986644E-16	7.822876E-18
5.830000E+03	8.259201E-16	8.101242E-18
5.840000E+03	8.540125E-16	8.388640E-18
5.850000E+03	8.823705E-16	8.679482E-18
5.860000E+03	9.103491E-16	8.967425E-18
5.870000E+03	9.372884E-16	9.245942E-18
5.880000E+03	9.625185E-16	9.508374E-18
5.890000E+03	9.853813E-16	9.748146E-18
5.900000E+03	1.005310E-15	9.959548E-18
5.910000E+03	1.021812E-15	1.013758E-17
5.920000E+03	1.034543E-15	1.027871E-17
5.930000E+03	1.043243E-15	1.038018E-17
5.940000E+03	1.047847E-15	1.044120E-17
5.950000E+03	1.048387E-15	1.046193E-17
5.960000E+03	1.045070E-15	1.044430E-17
5.970000E+03	1.038176E-15	1.039096E-17
5.980000E+03	1.028095E-15	1.030569E-17
5.990000E+03	1.015293E-15	1.019304E-17
6.000000E+03	1.000267E-15	1.005792E-17
6.010000E+03	9.835057E-16	9.905159E-18
6.020000E+03	9.655290E-16	9.739950E-18
6.030000E+03	9.467927E-16	9.566859E-18
6.040000E+03	9.277496E-16	9.390448E-18
6.050000E+03	9.087665E-16	9.214441E-18
6.060000E+03	8.901842E-16	9.042316E-18
6.070000E+03	8.722791E-16	8.876924E-18
6.080000E+03	8.552830E-16	8.720679E-18
6.090000E+03	8.393539E-16	8.575262E-18
6.100000E+03	8.246305E-16	8.442170E-18
6.110000E+03	8.112045E-16	8.322432E-18
6.120000E+03	7.991418E-16	8.216824E-18
6.130000E+03	7.884712E-16	8.125753E-18
6.140000E+03	7.791964E-16	8.049372E-18
6.150000E+03	7.713145E-16	7.987771E-18
6.160000E+03	7.647879E-16	7.940690E-18
6.170000E+03	7.595760E-16	7.907841E-18
6.180000E+03	7.556151E-16	7.888694E-18
6.190000E+03	7.528334E-16	7.882640E-18
6.200000E+03	7.511008E-16	7.888454E-18
6.210000E+03	7.503029E-16	7.905069E-18
6.220000E+03	7.502999E-16	7.931138E-18
6.230000E+03	7.509512E-16	7.965250E-18
6.240000E+03	7.521216E-16	8.006000E-18
6.250000E+03	7.536805E-16	8.052009E-18
6.260000E+03	7.555054E-16	8.101971E-18
6.270000E+03	7.574759E-16	8.154583E-18
6.280000E+03	7.594879E-16	8.208700E-18
6.290000E+03	7.614613E-16	8.263418E-18
6.300000E+03	7.632961E-16	8.317602E-18
6.310000E+03	7.649265E-16	8.370472E-18
6.320000E+03	7.662926E-16	8.421301E-18
6.330000E+03	7.673494E-16	8.469510E-18
6.340000E+03	7.680750E-16	8.514772E-18
6.350000E+03	7.684472E-16	8.556744E-18
6.360000E+03	7.684733E-16	8.595414E-18
6.370000E+03	7.681725E-16	8.630900E-18
6.380000E+03	7.675508E-16	8.663175E-18
6.390000E+03	7.666513E-16	8.692635E-18
6.400000E+03	7.654976E-16	8.719462E-18
6.410000E+03	7.641220E-16	8.743942E-18
6.420000E+03	7.625715E-16	8.766538E-18
6.430000E+03	7.608518E-16	8.787247E-18
6.440000E+03	7.590137E-16	8.806590E-18
6.450000E+03	7.570669E-16	8.824623E-18
6.460000E+03	7.550451E-16	8.841684E-18
6.470000E+03	7.529683E-16	8.857959E-18
6.480000E+03	7.508769E-16	8.873879E-18
6.490000E+03	7.488030E-16	8.889775E-18
6.500000E+03	7.468024E-16	8.906266E-18
6.510000E+03	7.449234E-16	8.923893E-18
6.520000E+03	7.432442E-16	8.943570E-18
6.530000E+03	7.418232E-16	8.965990E-18
6.540000E+03	7.407492E-16	8.992228E-18
6.550000E+03	7.400704E-16	9.022881E-18
6.560000E+03	7.398310E-16	9.058512E-18
6.570000E+03	7.400407E-16	9.099268E-18
6.580000E+03	7.406930E-16	9.145093E-18
6.590000E+03	7.417328E-16	9.195331E-18
6.600000E+03	7.430646E-16	9.248811E-18
6.610000E+03	7.445889E-16	9.304292E-18
6.620000E+03	7.461656E-16	9.360003E-18
6.630000E+03	7.476363E-16	9.413918E-18
6.640000E+03	7.488387E-16	9.463929E-18
6.650000E+03	7.495995E-16	9.507765E-18
6.660000E+03	7.497441E-16	9.543105E-18
6.670000E+03	7.491404E-16	9.568147E-18
6.680000E+03	7.476588E-16	9.581100E-18
6.690000E+03	7.452209E-16	9.580821E-18
6.700000E+03	7.417707E-16	9.566446E-18
6.710000E+03	7.373093E-16	9.537848E-18
6.720000E+03	7.318680E-16	9.495305E-18
6.730000E+03	7.255140E-16	9.439570E-18
6.740000E+03	7.183446E-16	9.371810E-18
6.750000E+03	7.104824E-16	9.293548E-18
6.760000E+03	7.020697E-16	9.206585E-18
6.770000E+03	6.932713E-16	9.113046E-18
6.780000E+03	6.842458E-16	9.014998E-18
6.790000E+03	6.751648E-16	8.914707E-18
6.800000E+03	6.662091E-16	8.814577E-18
6.810000E+03	6.575413E-16	8.716799E-18
6.820000E+03	6.493340E-16	8.623709E-18
6.830000E+03	6.417362E-16	8.537342E-18
6.840000E+03	6.349011E-16	8.459801E-18
6.850000E+03	6.289539E-16	8.392825E-18
6.860000E+03	6.240209E-16	8.338165E-18
6.870000E+03	6.202060E-16	8.297279E-18
6.880000E+03	6.175834E-16	8.271220E-18
6.890000E+03	6.162481E-16	8.261315E-18
6.900000E+03	6.162417E-16	8.268168E-18
6.910000E+03	6.176017E-16	8.292319E-18
6.920000E+03	6.203513E-16	8.334098E-18
6.930000E+03	6.244799E-16	8.393375E-18
6.940000E+03	6.299311E-16	8.469385E-18
6.950000E+03	6.366513E-16	8.561386E-18
6.960000E+03	6.445052E-16	8.667527E-18
6.970000E+03	6.533594E-16	8.785966E-18
6.980000E+03	6.630240E-16	8.914093E-18
6.990000E+03	6.732879E-16	9.049005E-18
7.000000E+03	6.839189E-16	9.187512E-18
7.010000E+03	6.946717E-16	9.326249E-18
7.020000E+03	7.052998E-16	9.461845E-18
7.030000E+03	7.155677E-16	9.591081E-18
7.040000E+03	7.252539E-16	9.710945E-18
7.050000E+03	7.341968E-16	9.819240E-18
7.060000E+03	7.422331E-16	9.913769E-18
7.070000E+03	7.492916E-16	9.993582E-18
7.080000E+03	7.553350E-16	1.005820E-17
7.090000E+03	7.603578E-16	1.010757E-17
7.100000E+03	7.644394E-16	1.014280E-17
7.110000E+03	7.676641E-16	1.016504E-17
7.120000E+03	7.701786E-16	1.017629E-17
7.130000E+03	7.721357E-16	1.017861E-17
7.140000E+03	7.737210E-16	1.017449E-17
7.150000E+03	7.751127E-16	1.016627E-17
7.160000E+03	7.764612E-16	1.015596E-17
7.170000E+03	7.779260E-16	1.014563E-17
7.180000E+03	7.796284E-16	1.013684E-17
7.190000E+03	7.816445E-16	1.013055E-17
7.200000E+03	7.840290E-16	1.012741E-17
7.210000E+03	7.867729E-16	1.012726E-17
7.220000E+03	7.898227E-16	1.012935E-17
7.230000E+03	7.931109E-16	1.013277E-17
7.240000E+03	7.964937E-16	1.013564E-17
7.250000E+03	7.998237E-16	1.013607E-17
7.260000E+03	8.029097E-16	1.013166E-17
7.270000E+03	8.055546E-16	1.011995E-17
7.280000E+03	8.075445E-16	1.009834E-17
7.290000E+03	8.086989E-16	1.006471E-17
7.300000E+03	8.088106E-16	1.001664E-17
7.310000E+03	8.077251E-16	9.952442E-18
7.320000E+03	8.052997E-16	9.870598E-18
7.330000E+03	8.014408E-16	9.770261E-18
7.340000E+03	7.961002E-16	9.651166E-18
7.350000E+03	7.892784E-16	9.513664E-18
7.360000E+03	7.810253E-16	9.358709E-18
7.370000E+03	7.714375E-16	9.187819E-18
7.380000E+03	7.606538E-16	9.002987E-18
7.390000E+03	7.488464E-16	8.806576E-18
7.400000E+03	7.362031E-16	8.601085E-18
7.410000E+03	7.229459E-16	8.389360E-18
7.420000E+03	7.092835E-16	8.174032E-18
7.430000E+03	6.954399E-16	7.957842E-18
7.440000E+03	6.816190E-16	7.743230E-18
7.450000E+03	6.680075E-16	7.532375E-18
7.460000E+03	6.547535E-16	7.326958E-18
7.470000E+03	6.420230E-16	7.128807E-18
7.480000E+03	6.299141E-16	6.938940E-18
7.490000E+03	6.185170E-16	6.758246E-18
7.500000E+03	6.078967E-16	6.587306E-18
7.510000E+03	5.981030E-16	6.426508E-18
7.520000E+03	5.891559E-16	6.275894E-18
7.530000E+03	5.810405E-16	6.135128E-18
7.540000E+03	5.737537E-16	6.003979E-18
7.550000E+03	5.672606E-16	5.881877E-18
7.560000E+03	5.614963E-16	5.767949E-18
7.570000E+03	5.564115E-16	5.661508E-18
7.580000E+03	5.519330E-16	5.561639E-18
7.590000E+03	5.479764E-16	5.467346E-18
7.600000E+03	5.444687E-16	5.377772E-18
7.610000E+03	5.413565E-16	5.292284E-18
7.620000E+03	5.386013E-16	5.210412E-18
7.630000E+03	5.361822E-16	5.131871E-18
7.640000E+03	5.341134E-16	5.056718E-18
7.650000E+03	5.324078E-16	4.984992E-18
7.660000E+03	5.311035E-16	4.916959E-18
7.670000E+03	5.302076E-16	4.852590E-18
7.680000E+03	5.297480E-16	4.792038E-18
7.690000E+03	5.297141E-16	4.735104E-18
7.700000E+03	5.301112E-16	4.681738E-18
7.710000E+03	5.309112E-16	4.631594E-18
7.720000E+03	5.320802E-16	4.584297E-18
7.730000E+03	5.335727E-16	4.539389E-18
7.740000E+03	5.353404E-16	4.496414E-18
7.750000E+03	5.373129E-16	4.454759E-18
7.760000E+03	5.394291E-16	4.413925E-18
