#wls	flux	fluxerr
1.600000E+03	1.315399E-16	4.933950E-18
1.640000E+03	1.330580E-16	4.970567E-18
1.680000E+03	1.345635E-16	5.005795E-18
1.720000E+03	1.360752E-16	5.040320E-18
1.760000E+03	1.375868E-16	5.073876E-18
1.800000E+03	1.391171E-16	5.107133E-18
1.840000E+03	1.406323E-16	5.138826E-18
1.880000E+03	1.421508E-16	5.169600E-18
1.920000E+03	1.436910E-16	5.200098E-18
1.960000E+03	1.452438E-16	5.229959E-18
2.000000E+03	1.467997E-16	5.258804E-18
2.040000E+03	1.483755E-16	5.287206E-18
2.080000E+03	1.499599E-16	5.314731E-18
2.120000E+03	1.515969E-16	5.342890E-18
2.160000E+03	1.532175E-16	5.369211E-18
2.200000E+03	1.548358E-16	5.394163E-18
2.240000E+03	1.564647E-16	5.418170E-18
2.280000E+03	1.580602E-16	5.439683E-18
2.320000E+03	1.596340E-16	5.459088E-18
2.360000E+03	1.611405E-16	5.474832E-18
2.400000E+03	1.625905E-16	5.487289E-18
2.440000E+03	1.639388E-16	5.494956E-18
2.480000E+03	1.651687E-16	5.497326E-18
2.520000E+03	1.662649E-16	5.493948E-18
2.560000E+03	1.672131E-16	5.484433E-18
2.600000E+03	1.680017E-16	5.468487E-18
2.640000E+03	1.686213E-16	5.445908E-18
2.680000E+03	1.690659E-16	5.416623E-18
2.720000E+03	1.693079E-16	5.379872E-18
2.760000E+03	1.693752E-16	5.336687E-18
2.800000E+03	1.692743E-16	5.287407E-18
2.840000E+03	1.689929E-16	5.231783E-18
2.880000E+03	1.685722E-16	5.171230E-18
2.920000E+03	1.680336E-16	5.106521E-18
2.960000E+03	1.674259E-16	5.039229E-18
3.000000E+03	1.668210E-16	4.971565E-18
3.010000E+03	1.666810E-16	4.954913E-18
3.020000E+03	1.665527E-16	4.938577E-18
3.030000E+03	1.664155E-16	4.921947E-18
3.040000E+03	1.663117E-16	4.906273E-18
3.050000E+03	1.662000E-16	4.890333E-18
3.060000E+03	1.661017E-16	4.874751E-18
3.070000E+03	1.660171E-16	4.859534E-18
3.080000E+03	1.659468E-16	4.844698E-18
3.090000E+03	1.658910E-16	4.830244E-18
3.100000E+03	1.658702E-16	4.816765E-18
3.110000E+03	1.658446E-16	4.803102E-18
3.120000E+03	1.658546E-16	4.790419E-18
3.130000E+03	1.658806E-16	4.778145E-18
3.140000E+03	1.659230E-16	4.766288E-18
3.150000E+03	1.660017E-16	4.755413E-18
3.160000E+03	1.660974E-16	4.744963E-18
3.170000E+03	1.662296E-16	4.735488E-18
3.180000E+03	1.663986E-16	4.726984E-18
3.190000E+03	1.665854E-16	4.718911E-18
3.200000E+03	1.668092E-16	4.711801E-18
3.210000E+03	1.670889E-16	4.706177E-18
3.220000E+03	1.673869E-16	4.700976E-18
3.230000E+03	1.677222E-16	4.696717E-18
3.240000E+03	1.681130E-16	4.693904E-18
3.250000E+03	1.685409E-16	4.692010E-18
3.260000E+03	1.690060E-16	4.691029E-18
3.270000E+03	1.695261E-16	4.691442E-18
3.280000E+03	1.700833E-16	4.692740E-18
3.290000E+03	1.707128E-16	4.695887E-18
3.300000E+03	1.713787E-16	4.699874E-18
3.310000E+03	1.721161E-16	4.705657E-18
3.320000E+03	1.728894E-16	4.712242E-18
3.330000E+03	1.737331E-16	4.720558E-18
3.340000E+03	1.746291E-16	4.730098E-18
3.350000E+03	1.755943E-16	4.741303E-18
3.360000E+03	1.766277E-16	4.754128E-18
3.370000E+03	1.777286E-16	4.768537E-18
3.380000E+03	1.788959E-16	4.784482E-18
3.390000E+03	1.801289E-16	4.801925E-18
3.400000E+03	1.814265E-16	4.820821E-18
3.410000E+03	1.828047E-16	4.841574E-18
3.420000E+03	1.842620E-16	4.864125E-18
3.430000E+03	1.857975E-16	4.888424E-18
3.440000E+03	1.874100E-16	4.914425E-18
3.450000E+03	1.890987E-16	4.942080E-18
3.460000E+03	1.908789E-16	4.971767E-18
3.470000E+03	1.927336E-16	5.003021E-18
3.480000E+03	1.946787E-16	5.036231E-18
3.490000E+03	1.967136E-16	5.071358E-18
3.500000E+03	1.988388E-16	5.108387E-18
3.510000E+03	2.010706E-16	5.147711E-18
3.520000E+03	2.033937E-16	5.188910E-18
3.530000E+03	2.058255E-16	5.232399E-18
3.540000E+03	2.083677E-16	5.278190E-18
3.550000E+03	2.110222E-16	5.326302E-18
3.560000E+03	2.137919E-16	5.376771E-18
3.570000E+03	2.166797E-16	5.429642E-18
3.580000E+03	2.197051E-16	5.485363E-18
3.590000E+03	2.228720E-16	5.543992E-18
3.600000E+03	2.261850E-16	5.605605E-18
3.610000E+03	2.296499E-16	5.670300E-18
3.620000E+03	2.332726E-16	5.738180E-18
3.630000E+03	2.370606E-16	5.809380E-18
3.640000E+03	2.410364E-16	5.884406E-18
3.650000E+03	2.451934E-16	5.963036E-18
3.660000E+03	2.495559E-16	6.045809E-18
3.670000E+03	2.541183E-16	6.132532E-18
3.680000E+03	2.589217E-16	6.224131E-18
3.690000E+03	2.639619E-16	6.320437E-18
3.700000E+03	2.692509E-16	6.421663E-18
3.710000E+03	2.748008E-16	6.528026E-18
3.720000E+03	2.806245E-16	6.639753E-18
3.730000E+03	2.867505E-16	6.757434E-18
3.740000E+03	2.931767E-16	6.880931E-18
3.750000E+03	2.999318E-16	7.010826E-18
3.760000E+03	3.070134E-16	7.146966E-18
3.770000E+03	3.144498E-16	7.289906E-18
3.780000E+03	3.222370E-16	7.439450E-18
3.790000E+03	3.304012E-16	7.596098E-18
3.800000E+03	3.389521E-16	7.759953E-18
3.810000E+03	3.478810E-16	7.930707E-18
3.820000E+03	3.572090E-16	8.108720E-18
3.830000E+03	3.669383E-16	8.293926E-18
3.840000E+03	3.770681E-16	8.486181E-18
3.850000E+03	3.875771E-16	8.684888E-18
3.860000E+03	3.984557E-16	8.889718E-18
3.870000E+03	4.097220E-16	9.100962E-18
3.880000E+03	4.213067E-16	9.316967E-18
3.890000E+03	4.332165E-16	9.537781E-18
3.900000E+03	4.454191E-16	9.762598E-18
3.910000E+03	4.578585E-16	9.990108E-18
3.920000E+03	4.704889E-16	1.021924E-17
3.930000E+03	4.832576E-16	1.044879E-17
3.940000E+03	4.961062E-16	1.067746E-17
3.950000E+03	5.089698E-16	1.090383E-17
3.960000E+03	5.217792E-16	1.112642E-17
3.970000E+03	5.344425E-16	1.134330E-17
3.980000E+03	5.468827E-16	1.155286E-17
3.990000E+03	5.590380E-16	1.175389E-17
4.000000E+03	5.708110E-16	1.194443E-17
4.010000E+03	5.821231E-16	1.212295E-17
4.020000E+03	5.928984E-16	1.228802E-17
4.030000E+03	6.030487E-16	1.243798E-17
4.040000E+03	6.125107E-16	1.257171E-17
4.050000E+03	6.212480E-16	1.268869E-17
4.060000E+03	6.291826E-16	1.278755E-17
4.070000E+03	6.363021E-16	1.286827E-17
4.080000E+03	6.425727E-16	1.293043E-17
4.090000E+03	6.480082E-16	1.297456E-17
4.100000E+03	6.525851E-16	1.300046E-17
4.110000E+03	6.563433E-16	1.300916E-17
4.120000E+03	6.593171E-16	1.300161E-17
4.130000E+03	6.615192E-16	1.297829E-17
4.140000E+03	6.630370E-16	1.294114E-17
4.150000E+03	6.638852E-16	1.289066E-17
4.160000E+03	6.641646E-16	1.282901E-17
4.170000E+03	6.639333E-16	1.275748E-17
4.180000E+03	6.632523E-16	1.267740E-17
4.190000E+03	6.622144E-16	1.259067E-17
4.200000E+03	6.608817E-16	1.249858E-17
4.210000E+03	6.593153E-16	1.240237E-17
4.220000E+03	6.576019E-16	1.230374E-17
4.230000E+03	6.557828E-16	1.220351E-17
4.240000E+03	6.539366E-16	1.210317E-17
4.250000E+03	6.521234E-16	1.200384E-17
4.260000E+03	6.503722E-16	1.190605E-17
4.270000E+03	6.487475E-16	1.181096E-17
4.280000E+03	6.472827E-16	1.171914E-17
4.290000E+03	6.460198E-16	1.163130E-17
4.300000E+03	6.449844E-16	1.154785E-17
4.310000E+03	6.442226E-16	1.146955E-17
4.320000E+03	6.437403E-16	1.139641E-17
4.330000E+03	6.435769E-16	1.132907E-17
4.340000E+03	6.437338E-16	1.126745E-17
4.350000E+03	6.442565E-16	1.121225E-17
4.360000E+03	6.451435E-16	1.116335E-17
4.370000E+03	6.464153E-16	1.112100E-17
4.380000E+03	6.480820E-16	1.108526E-17
4.390000E+03	6.501881E-16	1.105678E-17
4.400000E+03	6.527366E-16	1.103549E-17
4.410000E+03	6.557961E-16	1.102242E-17
4.420000E+03	6.594038E-16	1.101804E-17
4.430000E+03	6.635943E-16	1.102278E-17
4.440000E+03	6.684301E-16	1.103752E-17
4.450000E+03	6.739250E-16	1.106229E-17
4.460000E+03	6.801161E-16	1.109752E-17
4.470000E+03	6.870195E-16	1.114327E-17
4.480000E+03	6.946187E-16	1.119909E-17
4.490000E+03	7.029026E-16	1.126459E-17
4.500000E+03	7.118548E-16	1.133934E-17
4.510000E+03	7.214090E-16	1.142211E-17
4.520000E+03	7.315110E-16	1.151187E-17
4.530000E+03	7.420658E-16	1.160701E-17
4.540000E+03	7.529704E-16	1.170580E-17
4.550000E+03	7.640933E-16	1.180614E-17
4.560000E+03	7.753097E-16	1.190605E-17
4.570000E+03	7.864619E-16	1.200314E-17
4.580000E+03	7.973956E-16	1.209508E-17
4.590000E+03	8.079639E-16	1.217976E-17
4.600000E+03	8.179881E-16	1.225460E-17
4.610000E+03	8.273159E-16	1.231752E-17
4.620000E+03	8.358140E-16	1.236677E-17
4.630000E+03	8.433491E-16	1.240061E-17
4.640000E+03	8.497787E-16	1.241727E-17
4.650000E+03	8.550087E-16	1.241568E-17
4.660000E+03	8.589624E-16	1.239510E-17
4.670000E+03	8.615381E-16	1.235441E-17
4.680000E+03	8.627226E-16	1.229383E-17
4.690000E+03	8.624606E-16	1.221295E-17
4.700000E+03	8.607682E-16	1.211241E-17
4.710000E+03	8.576788E-16	1.199304E-17
4.720000E+03	8.532553E-16	1.185611E-17
4.730000E+03	8.475788E-16	1.170310E-17
4.740000E+03	8.407789E-16	1.153610E-17
4.750000E+03	8.329888E-16	1.135723E-17
4.751478E+03	1.096240E-15	1.493253E-17
4.754990E+03	1.073516E-15	1.459059E-17
4.758502E+03	1.048618E-15	1.422060E-17
4.762015E+03	1.023109E-15	1.384390E-17
4.765527E+03	9.976832E-16	1.346995E-17
4.769039E+03	9.712124E-16	1.308351E-17
4.772551E+03	9.473457E-16	1.273372E-17
4.776064E+03	9.246063E-16	1.240054E-17
4.779576E+03	9.029073E-16	1.208270E-17
4.783088E+03	8.818144E-16	1.177431E-17
4.786600E+03	8.593462E-16	1.144891E-17
4.790112E+03	8.381709E-16	1.114208E-17
4.793625E+03	8.170022E-16	1.083665E-17
4.797137E+03	7.973614E-16	1.055274E-17
4.800649E+03	7.798219E-16	1.029780E-17
4.804161E+03	7.665658E-16	1.010038E-17
4.807673E+03	7.527086E-16	9.895883E-18
4.811186E+03	7.387979E-16	9.691545E-18
4.814698E+03	7.297272E-16	9.551429E-18
4.818210E+03	7.191776E-16	9.392580E-18
4.821722E+03	7.102524E-16	9.255563E-18
4.825234E+03	7.052985E-16	9.170754E-18
4.828747E+03	6.988398E-16	9.066756E-18
4.832259E+03	6.911458E-16	8.947197E-18
4.835771E+03	6.849980E-16	8.848105E-18
4.839283E+03	6.769977E-16	8.725541E-18
4.842796E+03	6.684487E-16	8.596424E-18
4.846308E+03	6.597946E-16	8.466498E-18
4.849820E+03	6.493400E-16	8.314060E-18
4.853332E+03	6.338078E-16	8.097390E-18
4.856844E+03	6.030446E-16	7.687480E-18
4.860357E+03	5.834424E-16	7.421298E-18
4.863869E+03	5.676643E-16	7.204795E-18
4.867381E+03	5.529374E-16	7.002526E-18
4.870893E+03	5.390531E-16	6.811765E-18
4.874405E+03	5.219518E-16	6.581249E-18
4.877918E+03	5.036591E-16	6.336723E-18
4.881430E+03	4.898515E-16	6.149550E-18
4.884942E+03	4.787382E-16	5.996922E-18
4.888454E+03	4.679200E-16	5.848628E-18
4.891967E+03	4.574057E-16	5.704745E-18
4.895479E+03	4.439790E-16	5.525228E-18
4.898991E+03	4.367672E-16	5.423646E-18
4.902503E+03	4.326408E-16	5.360717E-18
4.906015E+03	4.227162E-16	5.226356E-18
4.909528E+03	4.200753E-16	5.182415E-18
4.913040E+03	4.203283E-16	5.174274E-18
4.916552E+03	4.189468E-16	5.146072E-18
4.920064E+03	4.193204E-16	5.139487E-18
4.923576E+03	4.257599E-16	5.207098E-18
4.927089E+03	4.296696E-16	5.243522E-18
4.930601E+03	4.361161E-16	5.310666E-18
4.934113E+03	4.458729E-16	5.417722E-18
4.937625E+03	4.584617E-16	5.558633E-18
4.941137E+03	4.729087E-16	5.721396E-18
4.944650E+03	4.892487E-16	5.906287E-18
4.948162E+03	5.099231E-16	6.142573E-18
4.951674E+03	5.310387E-16	6.383122E-18
4.955186E+03	5.531425E-16	6.634465E-18
4.958699E+03	5.767907E-16	6.903180E-18
4.962211E+03	6.021219E-16	7.190818E-18
4.965723E+03	6.313427E-16	7.523542E-18
4.969235E+03	6.624802E-16	7.877601E-18
4.972747E+03	6.927629E-16	8.219968E-18
4.976260E+03	7.230508E-16	8.560890E-18
4.979772E+03	7.543514E-16	8.912288E-18
4.983284E+03	7.843278E-16	9.246534E-18
4.986796E+03	8.124851E-16	9.557915E-18
4.990308E+03	8.429748E-16	9.895307E-18
4.993821E+03	8.750063E-16	1.024927E-17
4.997333E+03	9.052704E-16	1.058103E-17
5.000845E+03	9.351827E-16	1.090723E-17
5.004357E+03	9.611828E-16	1.118647E-17
5.007869E+03	9.857895E-16	1.144829E-17
5.011382E+03	1.010913E-15	1.171494E-17
5.014894E+03	1.030389E-15	1.191510E-17
5.018406E+03	1.049513E-15	1.211032E-17
5.021918E+03	1.064468E-15	1.225665E-17
5.025431E+03	1.073341E-15	1.233243E-17
5.028943E+03	1.080217E-15	1.238495E-17
5.032455E+03	1.085180E-15	1.241533E-17
5.035967E+03	1.085541E-15	1.239299E-17
5.039479E+03	1.086421E-15	1.237663E-17
5.042992E+03	1.081746E-15	1.229714E-17
5.046504E+03	1.073079E-15	1.217266E-17
5.050016E+03	1.059726E-15	1.199564E-17
5.053528E+03	1.043771E-15	1.178993E-17
5.057040E+03	1.026602E-15	1.157137E-17
5.060553E+03	1.005790E-15	1.131273E-17
5.064065E+03	9.826391E-16	1.102890E-17
5.067577E+03	9.564546E-16	1.071226E-17
5.071089E+03	9.291453E-16	1.038435E-17
5.074601E+03	9.047875E-16	1.009072E-17
5.078114E+03	8.797388E-16	9.790602E-18
5.081626E+03	8.554993E-16	9.500715E-18
5.085138E+03	8.299191E-16	9.197164E-18
5.088650E+03	8.051828E-16	8.904198E-18
5.092163E+03	7.803632E-16	8.611517E-18
5.095675E+03	7.583549E-16	8.351007E-18
5.099187E+03	7.418093E-16	8.151596E-18
5.102699E+03	7.263054E-16	7.964424E-18
5.106211E+03	7.139139E-16	7.812073E-18
5.109724E+03	6.991846E-16	7.634808E-18
5.113236E+03	6.881388E-16	7.498406E-18
5.116748E+03	6.831486E-16	7.428405E-18
5.120260E+03	6.808174E-16	7.387528E-18
5.123772E+03	6.786761E-16	7.348858E-18
5.127285E+03	6.801709E-16	7.349616E-18
5.130797E+03	6.857770E-16	7.394686E-18
5.134309E+03	6.905149E-16	7.430207E-18
5.137821E+03	6.983411E-16	7.498721E-18
5.141333E+03	7.118421E-16	7.627739E-18
5.144846E+03	7.255812E-16	7.758741E-18
5.148358E+03	7.362785E-16	7.856724E-18
5.151870E+03	7.502858E-16	7.989527E-18
5.155382E+03	7.644530E-16	8.123457E-18
5.158895E+03	7.793849E-16	8.264916E-18
5.162407E+03	7.957649E-16	8.421098E-18
5.165919E+03	8.077461E-16	8.530160E-18
5.169431E+03	8.176647E-16	8.617015E-18
5.172943E+03	8.269566E-16	8.696899E-18
5.176456E+03	8.351638E-16	8.765046E-18
5.179968E+03	8.408777E-16	8.806786E-18
5.183480E+03	8.442722E-16	8.824094E-18
5.186992E+03	8.518722E-16	8.885176E-18
5.190504E+03	8.575415E-16	8.925894E-18
5.194017E+03	8.614276E-16	8.947900E-18
5.197529E+03	8.646024E-16	8.962431E-18
5.201041E+03	8.663753E-16	8.962383E-18
5.204553E+03	8.686636E-16	8.967643E-18
5.208065E+03	8.685317E-16	8.947931E-18
5.211578E+03	8.670166E-16	8.914061E-18
5.215090E+03	8.655860E-16	8.881187E-18
5.218602E+03	8.628508E-16	8.835075E-18
5.222114E+03	8.617965E-16	8.806315E-18
5.225627E+03	8.617756E-16	8.788194E-18
5.229139E+03	8.591735E-16	8.743871E-18
5.232651E+03	8.598210E-16	8.732722E-18
5.236163E+03	8.608454E-16	8.725428E-18
5.239675E+03	8.572031E-16	8.670950E-18
5.243188E+03	8.548611E-16	8.629805E-18
5.246700E+03	8.531036E-16	8.594711E-18
5.250212E+03	8.504568E-16	8.550810E-18
5.253724E+03	8.489455E-16	8.518473E-18
5.257236E+03	8.473977E-16	8.485894E-18
5.260749E+03	8.447200E-16	8.442144E-18
5.264261E+03	8.426863E-16	8.404994E-18
5.267773E+03	8.432245E-16	8.393589E-18
5.271285E+03	8.453863E-16	8.398356E-18
5.274797E+03	8.470628E-16	8.398290E-18
5.278310E+03	8.530628E-16	8.441000E-18
5.281822E+03	8.549806E-16	8.443233E-18
5.285334E+03	8.579870E-16	8.456185E-18
5.288846E+03	8.624419E-16	8.483337E-18
5.292359E+03	8.702438E-16	8.543237E-18
5.295871E+03	8.807032E-16	8.628947E-18
5.299383E+03	8.899520E-16	8.702486E-18
5.302895E+03	8.943834E-16	8.728728E-18
5.306407E+03	8.983802E-16	8.750640E-18
5.309920E+03	9.058916E-16	8.806636E-18
5.313432E+03	9.132243E-16	8.860694E-18
5.316944E+03	9.192630E-16	8.902019E-18
5.320456E+03	9.254666E-16	8.944789E-18
5.323968E+03	9.290049E-16	8.961693E-18
5.327481E+03	9.332236E-16	8.985091E-18
5.330993E+03	9.364937E-16	8.999301E-18
5.334505E+03	9.400153E-16	9.015882E-18
5.338017E+03	9.451590E-16	9.047945E-18
5.341529E+03	9.497823E-16	9.074928E-18
5.345042E+03	9.518301E-16	9.077261E-18
5.348554E+03	9.560986E-16	9.100746E-18
5.352066E+03	9.613020E-16	9.133044E-18
5.355578E+03	9.677816E-16	9.177345E-18
5.359091E+03	9.712597E-16	9.193087E-18
5.362603E+03	9.718245E-16	9.181275E-18
5.366115E+03	9.711024E-16	9.157397E-18
5.369627E+03	9.703765E-16	9.133598E-18
5.373139E+03	9.687070E-16	9.101047E-18
5.376652E+03	9.688275E-16	9.085428E-18
5.380164E+03	9.709923E-16	9.089034E-18
5.383676E+03	9.739193E-16	9.099781E-18
5.387188E+03	9.748777E-16	9.092159E-18
5.390700E+03	9.771100E-16	9.096458E-18
5.394213E+03	9.783130E-16	9.091208E-18
5.397725E+03	9.768685E-16	9.061457E-18
5.401237E+03	9.781465E-16	9.057060E-18
5.404749E+03	9.776303E-16	9.036133E-18
5.408261E+03	9.773650E-16	9.017636E-18
5.411774E+03	9.782012E-16	9.009386E-18
5.415286E+03	9.771604E-16	8.983954E-18
5.418798E+03	9.782413E-16	8.978128E-18
5.422310E+03	9.788913E-16	8.968420E-18
5.425823E+03	9.782609E-16	8.947078E-18
5.429335E+03	9.791549E-16	8.939780E-18
5.432847E+03	9.757974E-16	8.893807E-18
5.436359E+03	9.695516E-16	8.821760E-18
5.439871E+03	9.666143E-16	8.780064E-18
5.443384E+03	9.646069E-16	8.746991E-18
5.446896E+03	9.606462E-16	8.696403E-18
5.450408E+03	9.583780E-16	8.661338E-18
5.453920E+03	9.539042E-16	8.606545E-18
5.457432E+03	9.471428E-16	8.531387E-18
5.460945E+03	9.430898E-16	8.480887E-18
5.464457E+03	9.430107E-16	8.466293E-18
5.467969E+03	9.422497E-16	8.445697E-18
5.471481E+03	9.416529E-16	8.426698E-18
5.474993E+03	9.445989E-16	8.439478E-18
5.478506E+03	9.423014E-16	8.405505E-18
5.482018E+03	9.399160E-16	8.370927E-18
5.485530E+03	9.439382E-16	8.393502E-18
5.489042E+03	9.496369E-16	8.430961E-18
5.492555E+03	9.538071E-16	8.454821E-18
5.496067E+03	9.573776E-16	8.473376E-18
5.499579E+03	9.600966E-16	8.484422E-18
5.503091E+03	9.670982E-16	8.533295E-18
5.506603E+03	9.740023E-16	8.581234E-18
5.510116E+03	9.832464E-16	8.649684E-18
5.513628E+03	9.921385E-16	8.714914E-18
5.517140E+03	1.000931E-15	8.779149E-18
5.520652E+03	1.009455E-15	8.840923E-18
5.524164E+03	1.020396E-15	8.923726E-18
5.527677E+03	1.030314E-15	8.997416E-18
5.531189E+03	1.041386E-15	9.081046E-18
5.534701E+03	1.054867E-15	9.185490E-18
5.538213E+03	1.065984E-15	9.269149E-18
5.541725E+03	1.075158E-15	9.335777E-18
5.545238E+03	1.082809E-15	9.389088E-18
5.548750E+03	1.091364E-15	9.450161E-18
5.552262E+03	1.099653E-15	9.508832E-18
5.555774E+03	1.101415E-15	9.511064E-18
5.559287E+03	1.102001E-15	9.503223E-18
5.562799E+03	1.101164E-15	9.483214E-18
5.566311E+03	1.096822E-15	9.433203E-18
5.569823E+03	1.090484E-15	9.366239E-18
5.573335E+03	1.084977E-15	9.306663E-18
5.576848E+03	1.077061E-15	9.226674E-18
5.580360E+03	1.064495E-15	9.107188E-18
5.583872E+03	1.049948E-15	8.971141E-18
5.587384E+03	1.035163E-15	8.833495E-18
5.590896E+03	1.017989E-15	8.675894E-18
5.594409E+03	9.984275E-16	8.498438E-18
5.597921E+03	9.825305E-16	8.352645E-18
5.601433E+03	9.653254E-16	8.196170E-18
5.604945E+03	9.466494E-16	8.027670E-18
5.608458E+03	9.284068E-16	7.863310E-18
5.611970E+03	9.100192E-16	7.698184E-18
5.615482E+03	8.916521E-16	7.533687E-18
5.618994E+03	8.698414E-16	7.340579E-18
5.622506E+03	8.492930E-16	7.158624E-18
5.626019E+03	8.261332E-16	6.955164E-18
5.629531E+03	8.031748E-16	6.753928E-18
5.633043E+03	7.813798E-16	6.562981E-18
5.636555E+03	7.647408E-16	6.415779E-18
5.640067E+03	7.462985E-16	6.253850E-18
5.643580E+03	7.258849E-16	6.075831E-18
5.647092E+03	7.077444E-16	5.917266E-18
5.650604E+03	6.903402E-16	5.765247E-18
5.654116E+03	6.737771E-16	5.620624E-18
5.657628E+03	6.596168E-16	5.496382E-18
5.661141E+03	6.444849E-16	5.364362E-18
5.664653E+03	6.283513E-16	5.224340E-18
5.668165E+03	6.126308E-16	5.088089E-18
5.671677E+03	5.973556E-16	4.955859E-18
5.675190E+03	5.775513E-16	4.786410E-18
5.678702E+03	5.606341E-16	4.641255E-18
5.682214E+03	5.478597E-16	4.530698E-18
5.685726E+03	5.293512E-16	4.373033E-18
5.689238E+03	5.086254E-16	4.197427E-18
5.692751E+03	4.896595E-16	4.036718E-18
5.696263E+03	4.700717E-16	3.871246E-18
5.699775E+03	4.508448E-16	3.709106E-18
5.703287E+03	4.321566E-16	3.551747E-18
5.706799E+03	4.151641E-16	3.408649E-18
5.710312E+03	3.977273E-16	3.262214E-18
5.713824E+03	3.819172E-16	3.129420E-18
5.717336E+03	3.662598E-16	2.998159E-18
5.720848E+03	3.521920E-16	2.880173E-18
5.724360E+03	3.377984E-16	2.759772E-18
5.727873E+03	3.245226E-16	2.648744E-18
5.731385E+03	3.133928E-16	2.555445E-18
5.734897E+03	3.029798E-16	2.468179E-18
5.738409E+03	2.938690E-16	2.391690E-18
5.741922E+03	2.851815E-16	2.318802E-18
5.745434E+03	2.806570E-16	2.279881E-18
5.748946E+03	2.792588E-16	2.266418E-18
5.752458E+03	2.773252E-16	2.248652E-18
5.755970E+03	2.766511E-16	2.241135E-18
5.759483E+03	2.801217E-16	2.267188E-18
5.762995E+03	2.842172E-16	2.298262E-18
5.766507E+03	2.896474E-16	2.340075E-18
5.770019E+03	3.008700E-16	2.428582E-18
5.773531E+03	3.145613E-16	2.536857E-18
5.777044E+03	3.283170E-16	2.645474E-18
5.780556E+03	3.430205E-16	2.761546E-18
5.784068E+03	3.606898E-16	2.901290E-18
5.787580E+03	3.833363E-16	3.080811E-18
5.791092E+03	4.102644E-16	3.294425E-18
5.794605E+03	4.392338E-16	3.524072E-18
5.798117E+03	4.698031E-16	3.766180E-18
5.801629E+03	5.034256E-16	4.032362E-18
5.805141E+03	5.381864E-16	4.307235E-18
