#wls	flux	fluxerr
1.600000E+03	1.366642E-16	3.930173E-18
1.640000E+03	1.382040E-16	3.962583E-18
1.680000E+03	1.397828E-16	3.995541E-18
1.720000E+03	1.413154E-16	4.026592E-18
1.760000E+03	1.428738E-16	4.057778E-18
1.800000E+03	1.444510E-16	4.088875E-18
1.840000E+03	1.460119E-16	4.118873E-18
1.880000E+03	1.475748E-16	4.148273E-18
1.920000E+03	1.491582E-16	4.177573E-18
1.960000E+03	1.507525E-16	4.206480E-18
2.000000E+03	1.523753E-16	4.235465E-18
2.040000E+03	1.540154E-16	4.264187E-18
2.080000E+03	1.556601E-16	4.292272E-18
2.120000E+03	1.573536E-16	4.320909E-18
2.160000E+03	1.590526E-16	4.348880E-18
2.200000E+03	1.607704E-16	4.376521E-18
2.240000E+03	1.624609E-16	4.402559E-18
2.280000E+03	1.641639E-16	4.428051E-18
2.320000E+03	1.658023E-16	4.450906E-18
2.360000E+03	1.673853E-16	4.471368E-18
2.400000E+03	1.688923E-16	4.488894E-18
2.440000E+03	1.702745E-16	4.502203E-18
2.480000E+03	1.715404E-16	4.511549E-18
2.520000E+03	1.726430E-16	4.515733E-18
2.560000E+03	1.735653E-16	4.514367E-18
2.600000E+03	1.742926E-16	4.507137E-18
2.640000E+03	1.748132E-16	4.493812E-18
2.680000E+03	1.751186E-16	4.474263E-18
2.720000E+03	1.752050E-16	4.448481E-18
2.760000E+03	1.750727E-16	4.416576E-18
2.800000E+03	1.747035E-16	4.378192E-18
2.840000E+03	1.741344E-16	4.334365E-18
2.880000E+03	1.733364E-16	4.284485E-18
2.920000E+03	1.723820E-16	4.230452E-18
2.960000E+03	1.713227E-16	4.173612E-18
3.000000E+03	1.702131E-16	4.115344E-18
3.010000E+03	1.699212E-16	4.100398E-18
3.020000E+03	1.696609E-16	4.086204E-18
3.030000E+03	1.693902E-16	4.071745E-18
3.040000E+03	1.691306E-16	4.057543E-18
3.050000E+03	1.688826E-16	4.043607E-18
3.060000E+03	1.686261E-16	4.029454E-18
3.070000E+03	1.684029E-16	4.016081E-18
3.080000E+03	1.681724E-16	4.002519E-18
3.090000E+03	1.679755E-16	3.989742E-18
3.100000E+03	1.677926E-16	3.977278E-18
3.110000E+03	1.676045E-16	3.964671E-18
3.120000E+03	1.674511E-16	3.952867E-18
3.130000E+03	1.673131E-16	3.941402E-18
3.140000E+03	1.672104E-16	3.930744E-18
3.150000E+03	1.671238E-16	3.920438E-18
3.160000E+03	1.670540E-16	3.910497E-18
3.170000E+03	1.670203E-16	3.901367E-18
3.180000E+03	1.670041E-16	3.892613E-18
3.190000E+03	1.670431E-16	3.885109E-18
3.200000E+03	1.671002E-16	3.877984E-18
3.210000E+03	1.671941E-16	3.871670E-18
3.220000E+03	1.673251E-16	3.866163E-18
3.230000E+03	1.674933E-16	3.861467E-18
3.240000E+03	1.676987E-16	3.857572E-18
3.250000E+03	1.679417E-16	3.854480E-18
3.260000E+03	1.682398E-16	3.852589E-18
3.270000E+03	1.685929E-16	3.851888E-18
3.280000E+03	1.689832E-16	3.851961E-18
3.290000E+03	1.694282E-16	3.853198E-18
3.300000E+03	1.699275E-16	3.855586E-18
3.310000E+03	1.704810E-16	3.859109E-18
3.320000E+03	1.710880E-16	3.863746E-18
3.330000E+03	1.717654E-16	3.869867E-18
3.340000E+03	1.724955E-16	3.877060E-18
3.350000E+03	1.732945E-16	3.885685E-18
3.360000E+03	1.741618E-16	3.895713E-18
3.370000E+03	1.750798E-16	3.906741E-18
3.380000E+03	1.760809E-16	3.919483E-18
3.390000E+03	1.771475E-16	3.933530E-18
3.400000E+03	1.782949E-16	3.949212E-18
3.410000E+03	1.795217E-16	3.966483E-18
3.420000E+03	1.808103E-16	3.984945E-18
3.430000E+03	1.821919E-16	4.005266E-18
3.440000E+03	1.836327E-16	4.026696E-18
3.450000E+03	1.851635E-16	4.049894E-18
3.460000E+03	1.867826E-16	4.074808E-18
3.470000E+03	1.884890E-16	4.101399E-18
3.480000E+03	1.902816E-16	4.129628E-18
3.490000E+03	1.921597E-16	4.159467E-18
3.500000E+03	1.941388E-16	4.191230E-18
3.510000E+03	1.962034E-16	4.224568E-18
3.520000E+03	1.983700E-16	4.259820E-18
3.530000E+03	2.006398E-16	4.296992E-18
3.540000E+03	2.030146E-16	4.336105E-18
3.550000E+03	2.054970E-16	4.377191E-18
3.560000E+03	2.081049E-16	4.420612E-18
3.570000E+03	2.108414E-16	4.466413E-18
3.580000E+03	2.137104E-16	4.514649E-18
3.590000E+03	2.167009E-16	4.565065E-18
3.600000E+03	2.198478E-16	4.618371E-18
3.610000E+03	2.231417E-16	4.674341E-18
3.620000E+03	2.266039E-16	4.733393E-18
3.630000E+03	2.302269E-16	4.795336E-18
3.640000E+03	2.340333E-16	4.860611E-18
3.650000E+03	2.380319E-16	4.929365E-18
3.660000E+03	2.422175E-16	5.001455E-18
3.670000E+03	2.466301E-16	5.077667E-18
3.680000E+03	2.512663E-16	5.157890E-18
3.690000E+03	2.561384E-16	5.242329E-18
3.700000E+03	2.612595E-16	5.331212E-18
3.710000E+03	2.666585E-16	5.425073E-18
3.720000E+03	2.723354E-16	5.523862E-18
3.730000E+03	2.783056E-16	5.627835E-18
3.740000E+03	2.846141E-16	5.737845E-18
3.750000E+03	2.912330E-16	5.853262E-18
3.760000E+03	2.982223E-16	5.975230E-18
3.770000E+03	3.055533E-16	6.103105E-18
3.780000E+03	3.132859E-16	6.238009E-18
3.790000E+03	3.214045E-16	6.379555E-18
3.800000E+03	3.299220E-16	6.527926E-18
3.810000E+03	3.388802E-16	6.683862E-18
3.820000E+03	3.482428E-16	6.846569E-18
3.830000E+03	3.580622E-16	7.016986E-18
3.840000E+03	3.682953E-16	7.194187E-18
3.850000E+03	3.789875E-16	7.378972E-18
3.860000E+03	3.900866E-16	7.570233E-18
3.870000E+03	4.016119E-16	7.768267E-18
3.880000E+03	4.135300E-16	7.972339E-18
3.890000E+03	4.258156E-16	8.181885E-18
3.900000E+03	4.384196E-16	8.395892E-18
3.910000E+03	4.513337E-16	8.614133E-18
3.920000E+03	4.644929E-16	8.835310E-18
3.930000E+03	4.778236E-16	9.057972E-18
3.940000E+03	4.912610E-16	9.280863E-18
3.950000E+03	5.047507E-16	9.502931E-18
3.960000E+03	5.181980E-16	9.722386E-18
3.970000E+03	5.315200E-16	9.937684E-18
3.980000E+03	5.446126E-16	1.014690E-17
3.990000E+03	5.574203E-16	1.034906E-17
4.000000E+03	5.697996E-16	1.054155E-17
4.010000E+03	5.816939E-16	1.072341E-17
4.020000E+03	5.929963E-16	1.089278E-17
4.030000E+03	6.036052E-16	1.104790E-17
4.040000E+03	6.134611E-16	1.118783E-17
4.050000E+03	6.224810E-16	1.131121E-17
4.060000E+03	6.306311E-16	1.141759E-17
4.070000E+03	6.378442E-16	1.150593E-17
4.080000E+03	6.441052E-16	1.157616E-17
4.090000E+03	6.494330E-16	1.162879E-17
4.100000E+03	6.538272E-16	1.166400E-17
4.110000E+03	6.573188E-16	1.168254E-17
4.120000E+03	6.599354E-16	1.168508E-17
4.130000E+03	6.617501E-16	1.167308E-17
4.140000E+03	6.627970E-16	1.164731E-17
4.150000E+03	6.631672E-16	1.160952E-17
4.160000E+03	6.629272E-16	1.156099E-17
4.170000E+03	6.621785E-16	1.150364E-17
4.180000E+03	6.609788E-16	1.143855E-17
4.190000E+03	6.594314E-16	1.136760E-17
4.200000E+03	6.576075E-16	1.129209E-17
4.210000E+03	6.555895E-16	1.121349E-17
4.220000E+03	6.534542E-16	1.113314E-17
4.230000E+03	6.512598E-16	1.105207E-17
4.240000E+03	6.490721E-16	1.097140E-17
4.250000E+03	6.469512E-16	1.089214E-17
4.260000E+03	6.449507E-16	1.081518E-17
4.270000E+03	6.431065E-16	1.074111E-17
4.280000E+03	6.414493E-16	1.067040E-17
4.290000E+03	6.400421E-16	1.060406E-17
4.300000E+03	6.388930E-16	1.054218E-17
4.310000E+03	6.380190E-16	1.048500E-17
4.320000E+03	6.374677E-16	1.043324E-17
4.330000E+03	6.372368E-16	1.038680E-17
4.340000E+03	6.373557E-16	1.034609E-17
4.350000E+03	6.378185E-16	1.031097E-17
4.360000E+03	6.386531E-16	1.028180E-17
4.370000E+03	6.398774E-16	1.025881E-17
4.380000E+03	6.415023E-16	1.024210E-17
4.390000E+03	6.435564E-16	1.023205E-17
4.400000E+03	6.460823E-16	1.022924E-17
4.410000E+03	6.491249E-16	1.023431E-17
4.420000E+03	6.527554E-16	1.024827E-17
4.430000E+03	6.570354E-16	1.027197E-17
4.440000E+03	6.620139E-16	1.030605E-17
4.450000E+03	6.677447E-16	1.035121E-17
4.460000E+03	6.742843E-16	1.040819E-17
4.470000E+03	6.816469E-16	1.047704E-17
4.480000E+03	6.898535E-16	1.055794E-17
4.490000E+03	6.989181E-16	1.065093E-17
4.500000E+03	7.088130E-16	1.075544E-17
4.510000E+03	7.194861E-16	1.087053E-17
4.520000E+03	7.308673E-16	1.099499E-17
4.530000E+03	7.428574E-16	1.112722E-17
4.540000E+03	7.553296E-16	1.126521E-17
4.550000E+03	7.681200E-16	1.140645E-17
4.560000E+03	7.810632E-16	1.154845E-17
4.570000E+03	7.939561E-16	1.168819E-17
4.580000E+03	8.065864E-16	1.182259E-17
4.590000E+03	8.187610E-16	1.194888E-17
4.600000E+03	8.302798E-16	1.206427E-17
4.610000E+03	8.409423E-16	1.216600E-17
4.620000E+03	8.505739E-16	1.225171E-17
4.630000E+03	8.590050E-16	1.231919E-17
4.640000E+03	8.661064E-16	1.236683E-17
4.650000E+03	8.717564E-16	1.239315E-17
4.660000E+03	8.758405E-16	1.239683E-17
4.670000E+03	8.782742E-16	1.237697E-17
4.680000E+03	8.789959E-16	1.233302E-17
4.690000E+03	8.779733E-16	1.226485E-17
4.700000E+03	8.752086E-16	1.217283E-17
4.710000E+03	8.707316E-16	1.205768E-17
4.720000E+03	8.646356E-16	1.192100E-17
4.730000E+03	8.570359E-16	1.176468E-17
4.740000E+03	8.481106E-16	1.159142E-17
4.750000E+03	8.380520E-16	1.140407E-17
4.760000E+03	8.270926E-16	1.120598E-17
4.770000E+03	8.154834E-16	1.100070E-17
4.780000E+03	8.034739E-16	1.079168E-17
4.790000E+03	7.913466E-16	1.058276E-17
4.800000E+03	7.794163E-16	1.037815E-17
4.810000E+03	7.679680E-16	1.018159E-17
4.820000E+03	7.572927E-16	9.996835E-18
4.830000E+03	7.476234E-16	9.826801E-18
4.840000E+03	7.392057E-16	9.674527E-18
4.850000E+03	7.322413E-16	9.542420E-18
4.860000E+03	7.268959E-16	9.432370E-18
4.870000E+03	7.233210E-16	9.346052E-18
4.880000E+03	7.216246E-16	9.284552E-18
4.890000E+03	7.218768E-16	9.248451E-18
4.900000E+03	7.241044E-16	9.237766E-18
4.910000E+03	7.282936E-16	9.251996E-18
4.920000E+03	7.343692E-16	9.289868E-18
4.930000E+03	7.421969E-16	9.349393E-18
4.940000E+03	7.515779E-16	9.427791E-18
4.950000E+03	7.622534E-16	9.521589E-18
4.960000E+03	7.738890E-16	9.626424E-18
4.970000E+03	7.860868E-16	9.737219E-18
4.980000E+03	7.984068E-16	9.848463E-18
4.990000E+03	8.103654E-16	9.954199E-18
5.000000E+03	8.215024E-16	1.004886E-17
5.010000E+03	8.313971E-16	1.012744E-17
5.020000E+03	8.396812E-16	1.018567E-17
5.030000E+03	8.461477E-16	1.022129E-17
5.040000E+03	8.506731E-16	1.023309E-17
5.050000E+03	8.532909E-16	1.022176E-17
5.060000E+03	8.541552E-16	1.018942E-17
5.070000E+03	8.534994E-16	1.013910E-17
5.080000E+03	8.516337E-16	1.007470E-17
5.090000E+03	8.489120E-16	1.000054E-17
5.100000E+03	8.456848E-16	9.920878E-18
5.110000E+03	8.422829E-16	9.839629E-18
5.120000E+03	8.389955E-16	9.760180E-18
5.130000E+03	8.360717E-16	9.685394E-18
5.140000E+03	8.336825E-16	9.617182E-18
5.150000E+03	8.319926E-16	9.557355E-18
5.160000E+03	8.310694E-16	9.506576E-18
5.170000E+03	8.309892E-16	9.465597E-18
5.180000E+03	8.317829E-16	9.434643E-18
5.190000E+03	8.334623E-16	9.413719E-18
5.200000E+03	8.360179E-16	9.402585E-18
5.210000E+03	8.394491E-16	9.401108E-18
5.220000E+03	8.437408E-16	9.408991E-18
5.230000E+03	8.488624E-16	9.425770E-18
5.240000E+03	8.548026E-16	9.451201E-18
5.250000E+03	8.615122E-16	9.484624E-18
5.260000E+03	8.689265E-16	9.525220E-18
5.270000E+03	8.769892E-16	9.572275E-18
5.280000E+03	8.855874E-16	9.624471E-18
5.290000E+03	8.946133E-16	9.680567E-18
5.300000E+03	9.039391E-16	9.739125E-18
5.310000E+03	9.133908E-16	9.798239E-18
5.320000E+03	9.228104E-16	9.856204E-18
5.330000E+03	9.320243E-16	9.911183E-18
5.340000E+03	9.408705E-16	9.961490E-18
5.350000E+03	9.491673E-16	1.000526E-17
5.360000E+03	9.567812E-16	1.004118E-17
5.370000E+03	9.635945E-16	1.006811E-17
5.380000E+03	9.695208E-16	1.008527E-17
5.390000E+03	9.745124E-16	1.009228E-17
5.400000E+03	9.785634E-16	1.008923E-17
5.410000E+03	9.817001E-16	1.007651E-17
5.420000E+03	9.840199E-16	1.005525E-17
5.430000E+03	9.856149E-16	1.002650E-17
5.440000E+03	9.866412E-16	9.991944E-18
5.450000E+03	9.872227E-16	9.952916E-18
5.460000E+03	9.875087E-16	9.910978E-18
5.470000E+03	9.875652E-16	9.866832E-18
5.480000E+03	9.874093E-16	9.820687E-18
5.490000E+03	9.869348E-16	9.771525E-18
5.500000E+03	9.858793E-16	9.716807E-18
5.510000E+03	9.837351E-16	9.651633E-18
5.520000E+03	9.799258E-16	9.570521E-18
5.530000E+03	9.738675E-16	9.468011E-18
5.540000E+03	9.650210E-16	9.339187E-18
5.550000E+03	9.530200E-16	9.180884E-18
5.560000E+03	9.376913E-16	8.991859E-18
5.570000E+03	9.190750E-16	8.772929E-18
5.580000E+03	8.974125E-16	8.526814E-18
5.590000E+03	8.731755E-16	8.258371E-18
5.600000E+03	8.469697E-16	7.973632E-18
5.610000E+03	8.194958E-16	7.679411E-18
5.620000E+03	7.915140E-16	7.382955E-18
5.630000E+03	7.637963E-16	7.091488E-18
5.640000E+03	7.370645E-16	6.811640E-18
5.650000E+03	7.119845E-16	6.549398E-18
5.660000E+03	6.891476E-16	6.309957E-18
5.670000E+03	6.690449E-16	6.097499E-18
5.680000E+03	6.520903E-16	5.915425E-18
5.690000E+03	6.386269E-16	5.766428E-18
5.700000E+03	6.289206E-16	5.652457E-18
5.710000E+03	6.231866E-16	5.574965E-18
5.720000E+03	6.216186E-16	5.535181E-18
5.730000E+03	6.243634E-16	5.533895E-18
5.740000E+03	6.315523E-16	5.571742E-18
5.750000E+03	6.432963E-16	5.649163E-18
5.760000E+03	6.596736E-16	5.766302E-18
5.770000E+03	6.807433E-16	5.923134E-18
5.780000E+03	7.064732E-16	6.118841E-18
5.790000E+03	7.367874E-16	6.352247E-18
5.800000E+03	7.714555E-16	6.620869E-18
5.810000E+03	8.101362E-16	6.921324E-18
5.820000E+03	8.522903E-16	7.248615E-18
5.830000E+03	8.971945E-16	7.596276E-18
5.840000E+03	9.439345E-16	7.956353E-18
5.850000E+03	9.914169E-16	8.319536E-18
5.860000E+03	1.038402E-15	8.675463E-18
5.870000E+03	1.083596E-15	9.013518E-18
5.880000E+03	1.125683E-15	9.323075E-18
5.890000E+03	1.163422E-15	9.594325E-18
5.900000E+03	1.195726E-15	9.818881E-18
5.910000E+03	1.221682E-15	9.989942E-18
5.920000E+03	1.240656E-15	1.010306E-17
5.930000E+03	1.252317E-15	1.015633E-17
5.940000E+03	1.256628E-15	1.015024E-17
5.950000E+03	1.253822E-15	1.008740E-17
5.960000E+03	1.244421E-15	9.972747E-18
5.970000E+03	1.229156E-15	9.812722E-18
5.980000E+03	1.208901E-15	9.614824E-18
5.990000E+03	1.184626E-15	9.387184E-18
6.000000E+03	1.157339E-15	9.138087E-18
6.010000E+03	1.128022E-15	8.875482E-18
6.020000E+03	1.097578E-15	8.606582E-18
6.030000E+03	1.066835E-15	8.337902E-18
6.040000E+03	1.036476E-15	8.074746E-18
6.050000E+03	1.007060E-15	7.821369E-18
6.060000E+03	9.790405E-16	7.581161E-18
6.070000E+03	9.527476E-16	7.356526E-18
6.080000E+03	9.284045E-16	7.149021E-18
6.090000E+03	9.061525E-16	6.959558E-18
6.100000E+03	8.860934E-16	6.788751E-18
6.110000E+03	8.682508E-16	6.636616E-18
6.120000E+03	8.526089E-16	6.502883E-18
6.130000E+03	8.391378E-16	6.387187E-18
6.140000E+03	8.277833E-16	6.288992E-18
6.150000E+03	8.184568E-16	6.207521E-18
6.160000E+03	8.110708E-16	6.142021E-18
6.170000E+03	8.055393E-16	6.091769E-18
6.180000E+03	8.017399E-16	6.055785E-18
6.190000E+03	7.995538E-16	6.033134E-18
6.200000E+03	7.988093E-16	6.022498E-18
6.210000E+03	7.993337E-16	6.022565E-18
6.220000E+03	8.009192E-16	6.031763E-18
6.230000E+03	8.033612E-16	6.048531E-18
6.240000E+03	8.064395E-16	6.071194E-18
6.250000E+03	8.099282E-16	6.098040E-18
6.260000E+03	8.136044E-16	6.127385E-18
6.270000E+03	8.172430E-16	6.157521E-18
6.280000E+03	8.206470E-16	6.186957E-18
6.290000E+03	8.236398E-16	6.214342E-18
6.300000E+03	8.260648E-16	6.238474E-18
6.310000E+03	8.277999E-16	6.258401E-18
6.320000E+03	8.287639E-16	6.273473E-18
6.330000E+03	8.289254E-16	6.283405E-18
6.340000E+03	8.282930E-16	6.288213E-18
6.350000E+03	8.268946E-16	6.288054E-18
6.360000E+03	8.248109E-16	6.283482E-18
6.370000E+03	8.221165E-16	6.275007E-18
6.380000E+03	8.189215E-16	6.263409E-18
6.390000E+03	8.153200E-16	6.249352E-18
6.400000E+03	8.113927E-16	6.233402E-18
6.410000E+03	8.072362E-16	6.216247E-18
6.420000E+03	8.029169E-16	6.198354E-18
6.430000E+03	7.984947E-16	6.180142E-18
6.440000E+03	7.939922E-16	6.161744E-18
6.450000E+03	7.894562E-16	6.143487E-18
6.460000E+03	7.849150E-16	6.125555E-18
6.470000E+03	7.803771E-16	6.107984E-18
6.480000E+03	7.759045E-16	6.091225E-18
6.490000E+03	7.715431E-16	6.075609E-18
6.500000E+03	7.673841E-16	6.061828E-18
6.510000E+03	7.635444E-16	6.050790E-18
6.520000E+03	7.601369E-16	6.043385E-18
6.530000E+03	7.572944E-16	6.040673E-18
6.540000E+03	7.551744E-16	6.043932E-18
6.550000E+03	7.539923E-16	6.054921E-18
6.560000E+03	7.538819E-16	6.074770E-18
6.570000E+03	7.549422E-16	6.104343E-18
6.580000E+03	7.571702E-16	6.143693E-18
6.590000E+03	7.605052E-16	6.192403E-18
6.600000E+03	7.647765E-16	6.249153E-18
6.610000E+03	7.697791E-16	6.312325E-18
6.620000E+03	7.752276E-16	6.379617E-18
6.630000E+03	7.808082E-16	6.448458E-18
6.640000E+03	7.861606E-16	6.515857E-18
6.650000E+03	7.909332E-16	6.578849E-18
6.660000E+03	7.947856E-16	6.634526E-18
6.670000E+03	7.973948E-16	6.680082E-18
6.680000E+03	7.985038E-16	6.713227E-18
6.690000E+03	7.979361E-16	6.732320E-18
6.700000E+03	7.955842E-16	6.736284E-18
6.710000E+03	7.914232E-16	6.724729E-18
6.720000E+03	7.855038E-16	6.697911E-18
6.730000E+03	7.779424E-16	6.656654E-18
6.740000E+03	7.689192E-16	6.602345E-18
6.750000E+03	7.586394E-16	6.536609E-18
6.760000E+03	7.473564E-16	6.461516E-18
6.770000E+03	7.353353E-16	6.379268E-18
6.780000E+03	7.228530E-16	6.292201E-18
6.790000E+03	7.101830E-16	6.202660E-18
6.800000E+03	6.976227E-16	6.113229E-18
6.810000E+03	6.854378E-16	6.026250E-18
6.820000E+03	6.738907E-16	5.944069E-18
6.830000E+03	6.632366E-16	5.868997E-18
6.840000E+03	6.536967E-16	5.803073E-18
6.850000E+03	6.454780E-16	5.748234E-18
6.860000E+03	6.387723E-16	5.706302E-18
6.870000E+03	6.337338E-16	5.678788E-18
6.880000E+03	6.305121E-16	5.667168E-18
6.890000E+03	6.292207E-16	5.672614E-18
6.900000E+03	6.299677E-16	5.696256E-18
6.910000E+03	6.328299E-16	5.738950E-18
6.920000E+03	6.378468E-16	5.801217E-18
6.930000E+03	6.450345E-16	5.883367E-18
6.940000E+03	6.543413E-16	5.985086E-18
6.950000E+03	6.656655E-16	6.105592E-18
6.960000E+03	6.788252E-16	6.243356E-18
6.970000E+03	6.935541E-16	6.396045E-18
6.980000E+03	7.095142E-16	6.560636E-18
6.990000E+03	7.263031E-16	6.733471E-18
7.000000E+03	7.434445E-16	6.910168E-18
7.010000E+03	7.604455E-16	7.086142E-18
7.020000E+03	7.767861E-16	7.256508E-18
7.030000E+03	7.919735E-16	7.416590E-18
7.040000E+03	8.056130E-16	7.562590E-18
7.050000E+03	8.173702E-16	7.691243E-18
7.060000E+03	8.270122E-16	7.800216E-18
7.070000E+03	8.344504E-16	7.888524E-18
7.080000E+03	8.396628E-16	7.955810E-18
7.090000E+03	8.427897E-16	8.003262E-18
7.100000E+03	8.440512E-16	8.032839E-18
7.110000E+03	8.437310E-16	8.047134E-18
7.120000E+03	8.422068E-16	8.049662E-18
7.130000E+03	8.398857E-16	8.044255E-18
7.140000E+03	8.371904E-16	8.034928E-18
7.150000E+03	8.345249E-16	8.025551E-18
7.160000E+03	8.322609E-16	8.019714E-18
7.170000E+03	8.307494E-16	8.020836E-18
7.180000E+03	8.302252E-16	8.031238E-18
7.190000E+03	8.308598E-16	8.052643E-18
7.200000E+03	8.327034E-16	8.085610E-18
7.210000E+03	8.357531E-16	8.130180E-18
7.220000E+03	8.399142E-16	8.185500E-18
7.230000E+03	8.449969E-16	8.249781E-18
7.240000E+03	8.507885E-16	8.320995E-18
7.250000E+03	8.569779E-16	8.396134E-18
7.260000E+03	8.632305E-16	8.471942E-18
7.270000E+03	8.691679E-16	8.544706E-18
7.280000E+03	8.744123E-16	8.610697E-18
7.290000E+03	8.785639E-16	8.665942E-18
7.300000E+03	8.812549E-16	8.706764E-18
7.310000E+03	8.821373E-16	8.729657E-18
7.320000E+03	8.809679E-16	8.732131E-18
7.330000E+03	8.775388E-16	8.712039E-18
7.340000E+03	8.717446E-16	8.668235E-18
7.350000E+03	8.636118E-16	8.600885E-18
7.360000E+03	8.532209E-16	8.510697E-18
7.370000E+03	8.407530E-16	8.399386E-18
7.380000E+03	8.264864E-16	8.269655E-18
7.390000E+03	8.107369E-16	8.124599E-18
7.400000E+03	7.938751E-16	7.967880E-18
7.410000E+03	7.762572E-16	7.803041E-18
7.420000E+03	7.582672E-16	7.633923E-18
7.430000E+03	7.402592E-16	7.464091E-18
7.440000E+03	7.225544E-16	7.296797E-18
7.450000E+03	7.054233E-16	7.134798E-18
7.460000E+03	6.891139E-16	6.980642E-18
7.470000E+03	6.737899E-16	6.836037E-18
7.480000E+03	6.595942E-16	6.702487E-18
7.490000E+03	6.466168E-16	6.580967E-18
7.500000E+03	6.349150E-16	6.472126E-18
7.510000E+03	6.244950E-16	6.376094E-18
7.520000E+03	6.153471E-16	6.292840E-18
7.530000E+03	6.074177E-16	6.221883E-18
7.540000E+03	6.006504E-16	6.162701E-18
7.550000E+03	5.949492E-16	6.114365E-18
7.560000E+03	5.901886E-16	6.075632E-18
7.570000E+03	5.862376E-16	6.045200E-18
7.580000E+03	5.829504E-16	6.021600E-18
7.590000E+03	5.801607E-16	6.003147E-18
7.600000E+03	5.777335E-16	5.988467E-18
7.610000E+03	5.755274E-16	5.976109E-18
7.620000E+03	5.734757E-16	5.965393E-18
7.630000E+03	5.716288E-16	5.956850E-18
7.640000E+03	5.700808E-16	5.951475E-18
7.650000E+03	5.689324E-16	5.950338E-18
7.660000E+03	5.683036E-16	5.954718E-18
7.670000E+03	5.682686E-16	5.965426E-18
7.680000E+03	5.689062E-16	5.983326E-18
7.690000E+03	5.702420E-16	6.008731E-18
7.700000E+03	5.722758E-16	6.041680E-18
7.710000E+03	5.749798E-16	6.081926E-18
7.720000E+03	5.782766E-16	6.128693E-18
7.730000E+03	5.820719E-16	6.181020E-18
7.740000E+03	5.862273E-16	6.237469E-18
7.750000E+03	5.905973E-16	6.296517E-18
7.760000E+03	5.950062E-16	6.356306E-18
