#wls	flux	fluxerr
1.600000E+03	1.095993E-16	4.813719E-18
1.640000E+03	1.107821E-16	4.849950E-18
1.680000E+03	1.119954E-16	4.886760E-18
1.720000E+03	1.131915E-16	4.922033E-18
1.760000E+03	1.143651E-16	4.955527E-18
1.800000E+03	1.155554E-16	4.988924E-18
1.840000E+03	1.167577E-16	5.021989E-18
1.880000E+03	1.179439E-16	5.053487E-18
1.920000E+03	1.191080E-16	5.083137E-18
1.960000E+03	1.202899E-16	5.112636E-18
2.000000E+03	1.214606E-16	5.140707E-18
2.040000E+03	1.226369E-16	5.168044E-18
2.080000E+03	1.237884E-16	5.193341E-18
2.120000E+03	1.249557E-16	5.218278E-18
2.160000E+03	1.260839E-16	5.240541E-18
2.200000E+03	1.272134E-16	5.261787E-18
2.240000E+03	1.283368E-16	5.281691E-18
2.280000E+03	1.294466E-16	5.299915E-18
2.320000E+03	1.305113E-16	5.315157E-18
2.360000E+03	1.315474E-16	5.328090E-18
2.400000E+03	1.325719E-16	5.339381E-18
2.440000E+03	1.335776E-16	5.348726E-18
2.480000E+03	1.345111E-16	5.353980E-18
2.520000E+03	1.354379E-16	5.357759E-18
2.560000E+03	1.363293E-16	5.358907E-18
2.600000E+03	1.372047E-16	5.358186E-18
2.640000E+03	1.380380E-16	5.354565E-18
2.680000E+03	1.388732E-16	5.349740E-18
2.720000E+03	1.396867E-16	5.342782E-18
2.760000E+03	1.405237E-16	5.335395E-18
2.800000E+03	1.413848E-16	5.327554E-18
2.840000E+03	1.422937E-16	5.320096E-18
2.880000E+03	1.432743E-16	5.313830E-18
2.920000E+03	1.443709E-16	5.310292E-18
2.960000E+03	1.456057E-16	5.310153E-18
3.000000E+03	1.470205E-16	5.314753E-18
3.010000E+03	1.474223E-16	5.317339E-18
3.020000E+03	1.478351E-16	5.320192E-18
3.030000E+03	1.482393E-16	5.322605E-18
3.040000E+03	1.486745E-16	5.325996E-18
3.050000E+03	1.491403E-16	5.330347E-18
3.060000E+03	1.496170E-16	5.334945E-18
3.070000E+03	1.501046E-16	5.339787E-18
3.080000E+03	1.506225E-16	5.345554E-18
3.090000E+03	1.511511E-16	5.351548E-18
3.100000E+03	1.517096E-16	5.358443E-18
3.110000E+03	1.522787E-16	5.365548E-18
3.120000E+03	1.528773E-16	5.373524E-18
3.130000E+03	1.535052E-16	5.382359E-18
3.140000E+03	1.541432E-16	5.391368E-18
3.150000E+03	1.548288E-16	5.401861E-18
3.160000E+03	1.555242E-16	5.412502E-18
3.170000E+03	1.562478E-16	5.423935E-18
3.180000E+03	1.570181E-16	5.436783E-18
3.190000E+03	1.577973E-16	5.449735E-18
3.200000E+03	1.586224E-16	5.464056E-18
3.210000E+03	1.594744E-16	5.479081E-18
3.220000E+03	1.603532E-16	5.494798E-18
3.230000E+03	1.612764E-16	5.511800E-18
3.240000E+03	1.622254E-16	5.529442E-18
3.250000E+03	1.632180E-16	5.548316E-18
3.260000E+03	1.642358E-16	5.567789E-18
3.270000E+03	1.652962E-16	5.588440E-18
3.280000E+03	1.663987E-16	5.610236E-18
3.290000E+03	1.675428E-16	5.633149E-18
3.300000E+03	1.687280E-16	5.657151E-18
3.310000E+03	1.699540E-16	5.682211E-18
3.320000E+03	1.712201E-16	5.708300E-18
3.330000E+03	1.725433E-16	5.735965E-18
3.340000E+03	1.739057E-16	5.764598E-18
3.350000E+03	1.753070E-16	5.794174E-18
3.360000E+03	1.767640E-16	5.825233E-18
3.370000E+03	1.782762E-16	5.857740E-18
3.380000E+03	1.798431E-16	5.891662E-18
3.390000E+03	1.814475E-16	5.926418E-18
3.400000E+03	1.831231E-16	5.963092E-18
3.410000E+03	1.848526E-16	6.001096E-18
3.420000E+03	1.866527E-16	6.040954E-18
3.430000E+03	1.884899E-16	6.081564E-18
3.440000E+03	1.904141E-16	6.124517E-18
3.450000E+03	1.923923E-16	6.168721E-18
3.460000E+03	1.944414E-16	6.214699E-18
3.470000E+03	1.965615E-16	6.262433E-18
3.480000E+03	1.987533E-16	6.311916E-18
3.490000E+03	2.010174E-16	6.363142E-18
3.500000E+03	2.033708E-16	6.416624E-18
3.510000E+03	2.058142E-16	6.472354E-18
3.520000E+03	2.083328E-16	6.529833E-18
3.530000E+03	2.109440E-16	6.589579E-18
3.540000E+03	2.136491E-16	6.651601E-18
3.550000E+03	2.164498E-16	6.715915E-18
3.560000E+03	2.193638E-16	6.783035E-18
3.570000E+03	2.223771E-16	6.852493E-18
3.580000E+03	2.254922E-16	6.924324E-18
3.590000E+03	2.287425E-16	6.999518E-18
3.600000E+03	2.320994E-16	7.077149E-18
3.610000E+03	2.355965E-16	7.158204E-18
3.620000E+03	2.392211E-16	7.242244E-18
3.630000E+03	2.429759E-16	7.329306E-18
3.640000E+03	2.468793E-16	7.419894E-18
3.650000E+03	2.509343E-16	7.514042E-18
3.660000E+03	2.551435E-16	7.611773E-18
3.670000E+03	2.595098E-16	7.713116E-18
3.680000E+03	2.640359E-16	7.818092E-18
3.690000E+03	2.687397E-16	7.927166E-18
3.700000E+03	2.736233E-16	8.040338E-18
3.710000E+03	2.786733E-16	8.157145E-18
3.720000E+03	2.839219E-16	8.278464E-18
3.730000E+03	2.893394E-16	8.403356E-18
3.740000E+03	2.949569E-16	8.532654E-18
3.750000E+03	3.007741E-16	8.666275E-18
3.760000E+03	3.067746E-16	8.803670E-18
3.770000E+03	3.129718E-16	8.945152E-18
3.780000E+03	3.193626E-16	9.090553E-18
3.790000E+03	3.259582E-16	9.240116E-18
3.800000E+03	3.327228E-16	9.392746E-18
3.810000E+03	3.396800E-16	9.549042E-18
3.820000E+03	3.468219E-16	9.708703E-18
3.830000E+03	3.541386E-16	9.871378E-18
3.840000E+03	3.616034E-16	1.003625E-17
3.850000E+03	3.692341E-16	1.020376E-17
3.860000E+03	3.770004E-16	1.037299E-17
3.870000E+03	3.848857E-16	1.054343E-17
3.880000E+03	3.928715E-16	1.071452E-17
3.890000E+03	4.009531E-16	1.088610E-17
3.900000E+03	4.091088E-16	1.105752E-17
3.910000E+03	4.172995E-16	1.122770E-17
3.920000E+03	4.255313E-16	1.139677E-17
3.930000E+03	4.337472E-16	1.156320E-17
3.940000E+03	4.419352E-16	1.172666E-17
3.950000E+03	4.500675E-16	1.188641E-17
3.960000E+03	4.581305E-16	1.204211E-17
3.970000E+03	4.660652E-16	1.219222E-17
3.980000E+03	4.738582E-16	1.233645E-17
3.990000E+03	4.814964E-16	1.247450E-17
4.000000E+03	4.889227E-16	1.260494E-17
4.010000E+03	4.961412E-16	1.272794E-17
4.020000E+03	5.031128E-16	1.284260E-17
4.030000E+03	5.098011E-16	1.294805E-17
4.040000E+03	5.162012E-16	1.304429E-17
4.050000E+03	5.222968E-16	1.313100E-17
4.060000E+03	5.280740E-16	1.320796E-17
4.070000E+03	5.335085E-16	1.327467E-17
4.080000E+03	5.385939E-16	1.333111E-17
4.090000E+03	5.433277E-16	1.337733E-17
4.100000E+03	5.476969E-16	1.341317E-17
4.110000E+03	5.517207E-16	1.343923E-17
4.120000E+03	5.554072E-16	1.345583E-17
4.130000E+03	5.587289E-16	1.346244E-17
4.140000E+03	5.617418E-16	1.346055E-17
4.150000E+03	5.644257E-16	1.344981E-17
4.160000E+03	5.668163E-16	1.343117E-17
4.170000E+03	5.689258E-16	1.340506E-17
4.180000E+03	5.707700E-16	1.337195E-17
4.190000E+03	5.723788E-16	1.333264E-17
4.200000E+03	5.737720E-16	1.328770E-17
4.210000E+03	5.749831E-16	1.323797E-17
4.220000E+03	5.760348E-16	1.318406E-17
4.230000E+03	5.769509E-16	1.312657E-17
4.240000E+03	5.777671E-16	1.306637E-17
4.250000E+03	5.784971E-16	1.300381E-17
4.260000E+03	5.791665E-16	1.293949E-17
4.270000E+03	5.798217E-16	1.287448E-17
4.280000E+03	5.804660E-16	1.280886E-17
4.290000E+03	5.811338E-16	1.274338E-17
4.300000E+03	5.818486E-16	1.267856E-17
4.310000E+03	5.826227E-16	1.261464E-17
4.320000E+03	5.834972E-16	1.255249E-17
4.330000E+03	5.844724E-16	1.249206E-17
4.340000E+03	5.855670E-16	1.243374E-17
4.350000E+03	5.868176E-16	1.237822E-17
4.360000E+03	5.882102E-16	1.232517E-17
4.370000E+03	5.897772E-16	1.227519E-17
4.380000E+03	5.915288E-16	1.222843E-17
4.390000E+03	5.934632E-16	1.218478E-17
4.400000E+03	5.955932E-16	1.214443E-17
4.410000E+03	5.979103E-16	1.210711E-17
4.420000E+03	6.004110E-16	1.207269E-17
4.430000E+03	6.030893E-16	1.204097E-17
4.440000E+03	6.059352E-16	1.201168E-17
4.450000E+03	6.089451E-16	1.198469E-17
4.460000E+03	6.121032E-16	1.195961E-17
4.470000E+03	6.153904E-16	1.193601E-17
4.480000E+03	6.188023E-16	1.191377E-17
4.490000E+03	6.223138E-16	1.189234E-17
4.500000E+03	6.259141E-16	1.187150E-17
4.510000E+03	6.295639E-16	1.185046E-17
4.520000E+03	6.332555E-16	1.182906E-17
4.530000E+03	6.369441E-16	1.180646E-17
4.540000E+03	6.406093E-16	1.178230E-17
4.550000E+03	6.442196E-16	1.175601E-17
4.560000E+03	6.477427E-16	1.172703E-17
4.570000E+03	6.511538E-16	1.169498E-17
4.580000E+03	6.544191E-16	1.165930E-17
4.590000E+03	6.575139E-16	1.161961E-17
4.600000E+03	6.603970E-16	1.157530E-17
4.610000E+03	6.630543E-16	1.152620E-17
4.620000E+03	6.654566E-16	1.147193E-17
4.630000E+03	6.675860E-16	1.141229E-17
4.640000E+03	6.694192E-16	1.134702E-17
4.650000E+03	6.709534E-16	1.127621E-17
4.660000E+03	6.721651E-16	1.119960E-17
4.670000E+03	6.730686E-16	1.111759E-17
4.680000E+03	6.736586E-16	1.103023E-17
4.690000E+03	6.739435E-16	1.093780E-17
4.700000E+03	6.739373E-16	1.084068E-17
4.710000E+03	6.736605E-16	1.073932E-17
4.720000E+03	6.731397E-16	1.063427E-17
4.730000E+03	6.724081E-16	1.052618E-17
4.740000E+03	6.715136E-16	1.041588E-17
4.750000E+03	6.705017E-16	1.030416E-17
4.760000E+03	6.694233E-16	1.019186E-17
4.770000E+03	6.683313E-16	1.007981E-17
4.780000E+03	6.672782E-16	9.968822E-18
4.790000E+03	6.662880E-16	9.859244E-18
4.800000E+03	6.654108E-16	9.751795E-18
4.810000E+03	6.646599E-16	9.646635E-18
4.820000E+03	6.640612E-16	9.544097E-18
4.830000E+03	6.636469E-16	9.444589E-18
4.840000E+03	6.634250E-16	9.348158E-18
4.850000E+03	6.634335E-16	9.255252E-18
4.860000E+03	6.636691E-16	9.165740E-18
4.870000E+03	6.641723E-16	9.080081E-18
4.880000E+03	6.649406E-16	8.998139E-18
4.890000E+03	6.659900E-16	8.920023E-18
4.900000E+03	6.673160E-16	8.845567E-18
4.910000E+03	6.689238E-16	8.774730E-18
4.920000E+03	6.707977E-16	8.707205E-18
4.930000E+03	6.729396E-16	8.642918E-18
4.940000E+03	6.753157E-16	8.581340E-18
4.950000E+03	6.779107E-16	8.522195E-18
4.960000E+03	6.806899E-16	8.464981E-18
4.970000E+03	6.836392E-16	8.409462E-18
4.980000E+03	6.867194E-16	8.355111E-18
4.990000E+03	6.898900E-16	8.301405E-18
5.000000E+03	6.931344E-16	8.248130E-18
5.010000E+03	6.964137E-16	8.194820E-18
5.020000E+03	6.997067E-16	8.141236E-18
5.030000E+03	7.029722E-16	8.086922E-18
5.040000E+03	7.062033E-16	8.031836E-18
5.050000E+03	7.093747E-16	7.975730E-18
5.060000E+03	7.124803E-16	7.918591E-18
5.070000E+03	7.155035E-16	7.860288E-18
5.080000E+03	7.184476E-16	7.800919E-18
5.090000E+03	7.213118E-16	7.740538E-18
5.100000E+03	7.240907E-16	7.679152E-18
5.110000E+03	7.267902E-16	7.616889E-18
5.120000E+03	7.294255E-16	7.553971E-18
5.130000E+03	7.320052E-16	7.490552E-18
5.140000E+03	7.345388E-16	7.426785E-18
5.150000E+03	7.370272E-16	7.362739E-18
5.160000E+03	7.394864E-16	7.298632E-18
5.170000E+03	7.419231E-16	7.234587E-18
5.180000E+03	7.443338E-16	7.170624E-18
5.190000E+03	7.467366E-16	7.106978E-18
5.200000E+03	7.491156E-16	7.043552E-18
5.210000E+03	7.514675E-16	6.980379E-18
5.220000E+03	7.538022E-16	6.917617E-18
5.230000E+03	7.560951E-16	6.855108E-18
5.240000E+03	7.583427E-16	6.792898E-18
5.250000E+03	7.605229E-16	6.730869E-18
5.260000E+03	7.626275E-16	6.669039E-18
5.270000E+03	7.646380E-16	6.607340E-18
5.280000E+03	7.665347E-16	6.545704E-18
5.290000E+03	7.682881E-16	6.483989E-18
5.300000E+03	7.698762E-16	6.422129E-18
5.310000E+03	7.712846E-16	6.360128E-18
5.320000E+03	7.724829E-16	6.297867E-18
5.330000E+03	7.734571E-16	6.235368E-18
5.340000E+03	7.741784E-16	6.172540E-18
5.350000E+03	7.746270E-16	6.109370E-18
5.360000E+03	7.747928E-16	6.045925E-18
5.370000E+03	7.746437E-16	5.982103E-18
5.380000E+03	7.741814E-16	5.918064E-18
5.390000E+03	7.733861E-16	5.853801E-18
5.400000E+03	7.722398E-16	5.789320E-18
5.410000E+03	7.707507E-16	5.724819E-18
5.420000E+03	7.688968E-16	5.660267E-18
5.430000E+03	7.666823E-16	5.595815E-18
5.440000E+03	7.641048E-16	5.531560E-18
5.450000E+03	7.611637E-16	5.467602E-18
5.460000E+03	7.578528E-16	5.403989E-18
5.470000E+03	7.541911E-16	5.340937E-18
5.480000E+03	7.501707E-16	5.278457E-18
5.490000E+03	7.458109E-16	5.216737E-18
5.500000E+03	7.411220E-16	5.155864E-18
5.510000E+03	7.361362E-16	5.095979E-18
5.520000E+03	7.308775E-16	5.037140E-18
5.530000E+03	7.253907E-16	4.979535E-18
5.540000E+03	7.197120E-16	4.923283E-18
5.550000E+03	7.138973E-16	4.868628E-18
5.560000E+03	7.080078E-16	4.815848E-18
5.570000E+03	7.020891E-16	4.765102E-18
5.580000E+03	6.962127E-16	4.716730E-18
5.590000E+03	6.904477E-16	4.671051E-18
5.600000E+03	6.848739E-16	4.628458E-18
5.610000E+03	6.795533E-16	4.589227E-18
5.620000E+03	6.745771E-16	4.553838E-18
5.630000E+03	6.700098E-16	4.522594E-18
5.640000E+03	6.659421E-16	4.495986E-18
5.650000E+03	6.624355E-16	4.474316E-18
5.660000E+03	6.595747E-16	4.458052E-18
5.670000E+03	6.574190E-16	4.447504E-18
5.680000E+03	6.560224E-16	4.442952E-18
5.690000E+03	6.554435E-16	4.444723E-18
5.700000E+03	6.557327E-16	4.453095E-18
5.710000E+03	6.569111E-16	4.468161E-18
5.720000E+03	6.590086E-16	4.490079E-18
5.730000E+03	6.620301E-16	4.518844E-18
5.740000E+03	6.659872E-16	4.554507E-18
5.750000E+03	6.708529E-16	4.596855E-18
5.760000E+03	6.765980E-16	4.645668E-18
5.770000E+03	6.831853E-16	4.700668E-18
5.780000E+03	6.905562E-16	4.761433E-18
5.790000E+03	6.986230E-16	4.827337E-18
5.800000E+03	7.073092E-16	4.897828E-18
5.810000E+03	7.165037E-16	4.972112E-18
5.820000E+03	7.260882E-16	5.049337E-18
5.830000E+03	7.359321E-16	5.128560E-18
5.840000E+03	7.458875E-16	5.208710E-18
5.850000E+03	7.558131E-16	5.288755E-18
5.860000E+03	7.655488E-16	5.367522E-18
5.870000E+03	7.749482E-16	5.443931E-18
5.880000E+03	7.838538E-16	5.516815E-18
5.890000E+03	7.921145E-16	5.585048E-18
5.900000E+03	7.996060E-16	5.647689E-18
5.910000E+03	8.062118E-16	5.703849E-18
5.920000E+03	8.118263E-16	5.752718E-18
5.930000E+03	8.163728E-16	5.793691E-18
5.940000E+03	8.198067E-16	5.826393E-18
5.950000E+03	8.220759E-16	5.850403E-18
5.960000E+03	8.232012E-16	5.865820E-18
5.970000E+03	8.231800E-16	5.872590E-18
5.980000E+03	8.220724E-16	5.871108E-18
5.990000E+03	8.199271E-16	5.861701E-18
6.000000E+03	8.168349E-16	5.845001E-18
6.010000E+03	8.128848E-16	5.821639E-18
6.020000E+03	8.081851E-16	5.792392E-18
6.030000E+03	8.028514E-16	5.758096E-18
6.040000E+03	7.969959E-16	5.719571E-18
6.050000E+03	7.907471E-16	5.677757E-18
6.060000E+03	7.842159E-16	5.633477E-18
6.070000E+03	7.775094E-16	5.587528E-18
6.080000E+03	7.707428E-16	5.540771E-18
6.090000E+03	7.640158E-16	5.493956E-18
6.100000E+03	7.574115E-16	5.447718E-18
6.110000E+03	7.510104E-16	5.402674E-18
6.120000E+03	7.448821E-16	5.359365E-18
6.130000E+03	7.390864E-16	5.318259E-18
6.140000E+03	7.336718E-16	5.279748E-18
6.150000E+03	7.286704E-16	5.244103E-18
6.160000E+03	7.241187E-16	5.211630E-18
6.170000E+03	7.200305E-16	5.182470E-18
6.180000E+03	7.164117E-16	5.156709E-18
6.190000E+03	7.132687E-16	5.134438E-18
6.200000E+03	7.106082E-16	5.115749E-18
6.210000E+03	7.084248E-16	5.100651E-18
6.220000E+03	7.067144E-16	5.089164E-18
6.230000E+03	7.054597E-16	5.081206E-18
6.240000E+03	7.046349E-16	5.076634E-18
6.250000E+03	7.042124E-16	5.075285E-18
6.260000E+03	7.041495E-16	5.076892E-18
6.270000E+03	7.043906E-16	5.081096E-18
6.280000E+03	7.049049E-16	5.087717E-18
6.290000E+03	7.056197E-16	5.096277E-18
6.300000E+03	7.065053E-16	5.106607E-18
6.310000E+03	7.075063E-16	5.118355E-18
6.320000E+03	7.085845E-16	5.131291E-18
6.330000E+03	7.096903E-16	5.145105E-18
6.340000E+03	7.108063E-16	5.159720E-18
6.350000E+03	7.118827E-16	5.174821E-18
6.360000E+03	7.129020E-16	5.190331E-18
6.370000E+03	7.138361E-16	5.206091E-18
6.380000E+03	7.146605E-16	5.221967E-18
6.390000E+03	7.153685E-16	5.237956E-18
6.400000E+03	7.159352E-16	5.253918E-18
6.410000E+03	7.163612E-16	5.269896E-18
6.420000E+03	7.166424E-16	5.285900E-18
6.430000E+03	7.167705E-16	5.301904E-18
6.440000E+03	7.167396E-16	5.317900E-18
6.450000E+03	7.165683E-16	5.334055E-18
6.460000E+03	7.162477E-16	5.350331E-18
6.470000E+03	7.157925E-16	5.366864E-18
6.480000E+03	7.151970E-16	5.383595E-18
6.490000E+03	7.144793E-16	5.400594E-18
6.500000E+03	7.136360E-16	5.417767E-18
6.510000E+03	7.126790E-16	5.435131E-18
6.520000E+03	7.115969E-16	5.452527E-18
6.530000E+03	7.104068E-16	5.470009E-18
6.540000E+03	7.091007E-16	5.487442E-18
6.550000E+03	7.076677E-16	5.504664E-18
6.560000E+03	7.060942E-16	5.521490E-18
6.570000E+03	7.043795E-16	5.537834E-18
6.580000E+03	7.025054E-16	5.553470E-18
6.590000E+03	7.004601E-16	5.568221E-18
6.600000E+03	6.982224E-16	5.581835E-18
6.610000E+03	6.957784E-16	5.594109E-18
6.620000E+03	6.931138E-16	5.604842E-18
6.630000E+03	6.902150E-16	5.613831E-18
6.640000E+03	6.870700E-16	5.620887E-18
6.650000E+03	6.836692E-16	5.625838E-18
6.660000E+03	6.800064E-16	5.628542E-18
6.670000E+03	6.760795E-16	5.628889E-18
6.680000E+03	6.718844E-16	5.626755E-18
6.690000E+03	6.674372E-16	5.622186E-18
6.700000E+03	6.627601E-16	5.615284E-18
6.710000E+03	6.578665E-16	5.606086E-18
6.720000E+03	6.527762E-16	5.594686E-18
6.730000E+03	6.475370E-16	5.581426E-18
6.740000E+03	6.421874E-16	5.566578E-18
6.750000E+03	6.367631E-16	5.550404E-18
6.760000E+03	6.313115E-16	5.533272E-18
6.770000E+03	6.258901E-16	5.515655E-18
6.780000E+03	6.205440E-16	5.497928E-18
6.790000E+03	6.153407E-16	5.480676E-18
6.800000E+03	6.103193E-16	5.464243E-18
6.810000E+03	6.055395E-16	5.449169E-18
6.820000E+03	6.010583E-16	5.435980E-18
6.830000E+03	5.969095E-16	5.425004E-18
6.840000E+03	5.931439E-16	5.416729E-18
6.850000E+03	5.898081E-16	5.411614E-18
6.860000E+03	5.869295E-16	5.409950E-18
6.870000E+03	5.845375E-16	5.412047E-18
6.880000E+03	5.826549E-16	5.418160E-18
6.890000E+03	5.813055E-16	5.428555E-18
6.900000E+03	5.804924E-16	5.443306E-18
6.910000E+03	5.802191E-16	5.462487E-18
6.920000E+03	5.804889E-16	5.486171E-18
6.930000E+03	5.812846E-16	5.514231E-18
6.940000E+03	5.825959E-16	5.546605E-18
6.950000E+03	5.843925E-16	5.583030E-18
6.960000E+03	5.866446E-16	5.623246E-18
6.970000E+03	5.893241E-16	5.666999E-18
6.980000E+03	5.923909E-16	5.713916E-18
6.990000E+03	5.957870E-16	5.763439E-18
7.000000E+03	5.994864E-16	5.815316E-18
7.010000E+03	6.034182E-16	5.868852E-18
7.020000E+03	6.075465E-16	5.923684E-18
7.030000E+03	6.118212E-16	5.979303E-18
7.040000E+03	6.161780E-16	6.035059E-18
7.050000E+03	6.205847E-16	6.090608E-18
7.060000E+03	6.249896E-16	6.145414E-18
7.070000E+03	6.293597E-16	6.199118E-18
7.080000E+03	6.336509E-16	6.251253E-18
7.090000E+03	6.378308E-16	6.301464E-18
7.100000E+03	6.418716E-16	6.349441E-18
7.110000E+03	6.457493E-16	6.394910E-18
7.120000E+03	6.494435E-16	6.437638E-18
7.130000E+03	6.529449E-16	6.477498E-18
7.140000E+03	6.562217E-16	6.514146E-18
7.150000E+03	6.592760E-16	6.547572E-18
7.160000E+03	6.620771E-16	6.577447E-18
7.170000E+03	6.646185E-16	6.603680E-18
7.180000E+03	6.668919E-16	6.626170E-18
7.190000E+03	6.688621E-16	6.644548E-18
7.200000E+03	6.705159E-16	6.658669E-18
7.210000E+03	6.718295E-16	6.668285E-18
7.220000E+03	6.727755E-16	6.673119E-18
7.230000E+03	6.733163E-16	6.672796E-18
7.240000E+03	6.734375E-16	6.667176E-18
7.250000E+03	6.730900E-16	6.655783E-18
7.260000E+03	6.722504E-16	6.638400E-18
7.270000E+03	6.708799E-16	6.614666E-18
7.280000E+03	6.689677E-16	6.584505E-18
7.290000E+03	6.664735E-16	6.547556E-18
7.300000E+03	6.633883E-16	6.503775E-18
7.310000E+03	6.597011E-16	6.453106E-18
7.320000E+03	6.554007E-16	6.395499E-18
7.330000E+03	6.505097E-16	6.331240E-18
7.340000E+03	6.450182E-16	6.260304E-18
7.350000E+03	6.389757E-16	6.183249E-18
7.360000E+03	6.324074E-16	6.100399E-18
7.370000E+03	6.253479E-16	6.012171E-18
7.380000E+03	6.178553E-16	5.919208E-18
7.390000E+03	6.099788E-16	5.822067E-18
7.400000E+03	6.017890E-16	5.721504E-18
7.410000E+03	5.933523E-16	5.618227E-18
7.420000E+03	5.847226E-16	5.512824E-18
7.430000E+03	5.759855E-16	5.406168E-18
7.440000E+03	5.671958E-16	5.298836E-18
7.450000E+03	5.584295E-16	5.191593E-18
7.460000E+03	5.497517E-16	5.085087E-18
7.470000E+03	5.412314E-16	4.979990E-18
7.480000E+03	5.329180E-16	4.876782E-18
7.490000E+03	5.248635E-16	4.775954E-18
7.500000E+03	5.171210E-16	4.677993E-18
7.510000E+03	5.097246E-16	4.583204E-18
7.520000E+03	5.027094E-16	4.491887E-18
7.530000E+03	4.961123E-16	4.404350E-18
7.540000E+03	4.899514E-16	4.320723E-18
7.550000E+03	4.842537E-16	4.241202E-18
7.560000E+03	4.790225E-16	4.165767E-18
7.570000E+03	4.742827E-16	4.094581E-18
7.580000E+03	4.700368E-16	4.027606E-18
7.590000E+03	4.662903E-16	3.964821E-18
7.600000E+03	4.630454E-16	3.906177E-18
7.610000E+03	4.603001E-16	3.851584E-18
7.620000E+03	4.580484E-16	3.800917E-18
7.630000E+03	4.562737E-16	3.753964E-18
7.640000E+03	4.549738E-16	3.710631E-18
7.650000E+03	4.541254E-16	3.670654E-18
7.660000E+03	4.537031E-16	3.633755E-18
7.670000E+03	4.536922E-16	3.599749E-18
7.680000E+03	4.540705E-16	3.568397E-18
7.690000E+03	4.548149E-16	3.539457E-18
7.700000E+03	4.559012E-16	3.512687E-18
7.710000E+03	4.572976E-16	3.487795E-18
7.720000E+03	4.589835E-16	3.464585E-18
7.730000E+03	4.609310E-16	3.442815E-18
7.740000E+03	4.631107E-16	3.422242E-18
7.750000E+03	4.654920E-16	3.402629E-18
7.760000E+03	4.680368E-16	3.383695E-18
