#wls	flux	fluxerr
1.600000E+03	1.002381E-16	4.478576E-18
1.640000E+03	1.014231E-16	4.516451E-18
1.680000E+03	1.025793E-16	4.552302E-18
1.720000E+03	1.037619E-16	4.588571E-18
1.760000E+03	1.049272E-16	4.623289E-18
1.800000E+03	1.061114E-16	4.658034E-18
1.840000E+03	1.072691E-16	4.690784E-18
1.880000E+03	1.084578E-16	4.724038E-18
1.920000E+03	1.096312E-16	4.755748E-18
1.960000E+03	1.108053E-16	4.786587E-18
2.000000E+03	1.119752E-16	4.816315E-18
2.040000E+03	1.131354E-16	4.844675E-18
2.080000E+03	1.143021E-16	4.872340E-18
2.120000E+03	1.154699E-16	4.899049E-18
2.160000E+03	1.166334E-16	4.924542E-18
2.200000E+03	1.177865E-16	4.948547E-18
2.240000E+03	1.189458E-16	4.971726E-18
2.280000E+03	1.200833E-16	4.992890E-18
2.320000E+03	1.212154E-16	5.012700E-18
2.360000E+03	1.223587E-16	5.031810E-18
2.400000E+03	1.234853E-16	5.049049E-18
2.440000E+03	1.245904E-16	5.064196E-18
2.480000E+03	1.257126E-16	5.078807E-18
2.520000E+03	1.268257E-16	5.091778E-18
2.560000E+03	1.279470E-16	5.103774E-18
2.600000E+03	1.290941E-16	5.115464E-18
2.640000E+03	1.302421E-16	5.125804E-18
2.680000E+03	1.314304E-16	5.136310E-18
2.720000E+03	1.326559E-16	5.146796E-18
2.760000E+03	1.339370E-16	5.157894E-18
2.800000E+03	1.352913E-16	5.170203E-18
2.840000E+03	1.367361E-16	5.184273E-18
2.880000E+03	1.383079E-16	5.201354E-18
2.920000E+03	1.400019E-16	5.221113E-18
2.960000E+03	1.418905E-16	5.246063E-18
3.000000E+03	1.439840E-16	5.276345E-18
3.010000E+03	1.445293E-16	5.284349E-18
3.020000E+03	1.451020E-16	5.293203E-18
3.030000E+03	1.457018E-16	5.302884E-18
3.040000E+03	1.463095E-16	5.312691E-18
3.050000E+03	1.469251E-16	5.322614E-18
3.060000E+03	1.475669E-16	5.333320E-18
3.070000E+03	1.482159E-16	5.344114E-18
3.080000E+03	1.488907E-16	5.355660E-18
3.090000E+03	1.495908E-16	5.367930E-18
3.100000E+03	1.503157E-16	5.380905E-18
3.110000E+03	1.510468E-16	5.393909E-18
3.120000E+03	1.518021E-16	5.407583E-18
3.130000E+03	1.525812E-16	5.421903E-18
3.140000E+03	1.533837E-16	5.436845E-18
3.150000E+03	1.542091E-16	5.452391E-18
3.160000E+03	1.550570E-16	5.468513E-18
3.170000E+03	1.559448E-16	5.485819E-18
3.180000E+03	1.568363E-16	5.503027E-18
3.190000E+03	1.577666E-16	5.521361E-18
3.200000E+03	1.587175E-16	5.540176E-18
3.210000E+03	1.596885E-16	5.559445E-18
3.220000E+03	1.606967E-16	5.579757E-18
3.230000E+03	1.617412E-16	5.601070E-18
3.240000E+03	1.628042E-16	5.622755E-18
3.250000E+03	1.639025E-16	5.645383E-18
3.260000E+03	1.650353E-16	5.668921E-18
3.270000E+03	1.661850E-16	5.692745E-18
3.280000E+03	1.673851E-16	5.718003E-18
3.290000E+03	1.686010E-16	5.743493E-18
3.300000E+03	1.698659E-16	5.770343E-18
3.310000E+03	1.711623E-16	5.797939E-18
3.320000E+03	1.724896E-16	5.826252E-18
3.330000E+03	1.738640E-16	5.855815E-18
3.340000E+03	1.752682E-16	5.886033E-18
3.350000E+03	1.767181E-16	5.917429E-18
3.360000E+03	1.781970E-16	5.949425E-18
3.370000E+03	1.797370E-16	5.983087E-18
3.380000E+03	1.813050E-16	6.017289E-18
3.390000E+03	1.829332E-16	6.053087E-18
3.400000E+03	1.845887E-16	6.089379E-18
3.410000E+03	1.863038E-16	6.127211E-18
3.420000E+03	1.880620E-16	6.166027E-18
3.430000E+03	1.898791E-16	6.206327E-18
3.440000E+03	1.917552E-16	6.248091E-18
3.450000E+03	1.936743E-16	6.290781E-18
3.460000E+03	1.956526E-16	6.334903E-18
3.470000E+03	1.976903E-16	6.380447E-18
3.480000E+03	1.998032E-16	6.427897E-18
3.490000E+03	2.019609E-16	6.476251E-18
3.500000E+03	2.041951E-16	6.526506E-18
3.510000E+03	2.065064E-16	6.578655E-18
3.520000E+03	2.088956E-16	6.632693E-18
3.530000E+03	2.113485E-16	6.688148E-18
3.540000E+03	2.138817E-16	6.745513E-18
3.550000E+03	2.165114E-16	6.805275E-18
3.560000E+03	2.192241E-16	6.866972E-18
3.570000E+03	2.220213E-16	6.930620E-18
3.580000E+03	2.249196E-16	6.996708E-18
3.590000E+03	2.279208E-16	7.065252E-18
3.600000E+03	2.310267E-16	7.136273E-18
3.610000E+03	2.342392E-16	7.209786E-18
3.620000E+03	2.375603E-16	7.285816E-18
3.630000E+03	2.410067E-16	7.364832E-18
3.640000E+03	2.445655E-16	7.446396E-18
3.650000E+03	2.482534E-16	7.530972E-18
3.660000E+03	2.520720E-16	7.618562E-18
3.670000E+03	2.560231E-16	7.709166E-18
3.680000E+03	2.601224E-16	7.803211E-18
3.690000E+03	2.643569E-16	7.900246E-18
3.700000E+03	2.687416E-16	8.000675E-18
3.710000E+03	2.732629E-16	8.104030E-18
3.720000E+03	2.779494E-16	8.211107E-18
3.730000E+03	2.827864E-16	8.321408E-18
3.740000E+03	2.877728E-16	8.434846E-18
3.750000E+03	2.929212E-16	8.551727E-18
3.760000E+03	2.982151E-16	8.671507E-18
3.770000E+03	3.036792E-16	8.794849E-18
3.780000E+03	3.092811E-16	8.920749E-18
3.790000E+03	3.150441E-16	9.049820E-18
3.800000E+03	3.209476E-16	9.181410E-18
3.810000E+03	3.269843E-16	9.315253E-18
3.820000E+03	3.331597E-16	9.451448E-18
3.830000E+03	3.394640E-16	9.589665E-18
3.840000E+03	3.459001E-16	9.729929E-18
3.850000E+03	3.524275E-16	9.871050E-18
3.860000E+03	3.590464E-16	1.001299E-17
3.870000E+03	3.657559E-16	1.015569E-17
3.880000E+03	3.725396E-16	1.029866E-17
3.890000E+03	3.793659E-16	1.044097E-17
3.900000E+03	3.862302E-16	1.058250E-17
3.910000E+03	3.931268E-16	1.072306E-17
3.920000E+03	4.000071E-16	1.086131E-17
3.930000E+03	4.068639E-16	1.099705E-17
3.940000E+03	4.136752E-16	1.112970E-17
3.950000E+03	4.204328E-16	1.125904E-17
3.960000E+03	4.270869E-16	1.138376E-17
3.970000E+03	4.336565E-16	1.150439E-17
3.980000E+03	4.400789E-16	1.161931E-17
3.990000E+03	4.463605E-16	1.172873E-17
4.000000E+03	4.524809E-16	1.183217E-17
4.010000E+03	4.584083E-16	1.192885E-17
4.020000E+03	4.641253E-16	1.201839E-17
4.030000E+03	4.696166E-16	1.210047E-17
4.040000E+03	4.748820E-16	1.217517E-17
4.050000E+03	4.798970E-16	1.224195E-17
4.060000E+03	4.846531E-16	1.230069E-17
4.070000E+03	4.891315E-16	1.235100E-17
4.080000E+03	4.933540E-16	1.239353E-17
4.090000E+03	4.972949E-16	1.242775E-17
4.100000E+03	5.009567E-16	1.245382E-17
4.110000E+03	5.043563E-16	1.247227E-17
4.120000E+03	5.074779E-16	1.248281E-17
4.130000E+03	5.103440E-16	1.248611E-17
4.140000E+03	5.129561E-16	1.248228E-17
4.150000E+03	5.153189E-16	1.247156E-17
4.160000E+03	5.174731E-16	1.245502E-17
4.170000E+03	5.194055E-16	1.243243E-17
4.180000E+03	5.211387E-16	1.240441E-17
4.190000E+03	5.227075E-16	1.237187E-17
4.200000E+03	5.241058E-16	1.233473E-17
4.210000E+03	5.253816E-16	1.229419E-17
4.220000E+03	5.265318E-16	1.225022E-17
4.230000E+03	5.275954E-16	1.220378E-17
4.240000E+03	5.285818E-16	1.215513E-17
4.250000E+03	5.295211E-16	1.210498E-17
4.260000E+03	5.304235E-16	1.205359E-17
4.270000E+03	5.313193E-16	1.200166E-17
4.280000E+03	5.322283E-16	1.194964E-17
4.290000E+03	5.331610E-16	1.189777E-17
4.300000E+03	5.341367E-16	1.184646E-17
4.310000E+03	5.351740E-16	1.179611E-17
4.320000E+03	5.362901E-16	1.174708E-17
4.330000E+03	5.374838E-16	1.169930E-17
4.340000E+03	5.387875E-16	1.165346E-17
4.350000E+03	5.401887E-16	1.160924E-17
4.360000E+03	5.417164E-16	1.156722E-17
4.370000E+03	5.433471E-16	1.152686E-17
4.380000E+03	5.451061E-16	1.148865E-17
4.390000E+03	5.469911E-16	1.145249E-17
4.400000E+03	5.489969E-16	1.141824E-17
4.410000E+03	5.511147E-16	1.138565E-17
4.420000E+03	5.533416E-16	1.135462E-17
4.430000E+03	5.556720E-16	1.132501E-17
4.440000E+03	5.580977E-16	1.129661E-17
4.450000E+03	5.606077E-16	1.126916E-17
4.460000E+03	5.631808E-16	1.124220E-17
4.470000E+03	5.658165E-16	1.121572E-17
4.480000E+03	5.684881E-16	1.118915E-17
4.490000E+03	5.711822E-16	1.116223E-17
4.500000E+03	5.738906E-16	1.113480E-17
4.510000E+03	5.765876E-16	1.110636E-17
4.520000E+03	5.792686E-16	1.107683E-17
4.530000E+03	5.819121E-16	1.104582E-17
4.540000E+03	5.844953E-16	1.101293E-17
4.550000E+03	5.870024E-16	1.097788E-17
4.560000E+03	5.894242E-16	1.094056E-17
4.570000E+03	5.917368E-16	1.090056E-17
4.580000E+03	5.939313E-16	1.085777E-17
4.590000E+03	5.959845E-16	1.081183E-17
4.600000E+03	5.978820E-16	1.076256E-17
4.610000E+03	5.996257E-16	1.071006E-17
4.620000E+03	6.011897E-16	1.065394E-17
4.630000E+03	6.025727E-16	1.059426E-17
4.640000E+03	6.037758E-16	1.053114E-17
4.650000E+03	6.047883E-16	1.046448E-17
4.660000E+03	6.056100E-16	1.039435E-17
4.670000E+03	6.062589E-16	1.032116E-17
4.680000E+03	6.067268E-16	1.024486E-17
4.690000E+03	6.070313E-16	1.016581E-17
4.700000E+03	6.071865E-16	1.008434E-17
4.710000E+03	6.072100E-16	1.000082E-17
4.720000E+03	6.071160E-16	9.915525E-18
4.730000E+03	6.069445E-16	9.829182E-18
4.740000E+03	6.067099E-16	9.742061E-18
4.750000E+03	6.064373E-16	9.654601E-18
4.760000E+03	6.061700E-16	9.567511E-18
4.770000E+03	6.059316E-16	9.481174E-18
4.780000E+03	6.057617E-16	9.396202E-18
4.790000E+03	6.056948E-16	9.313114E-18
4.800000E+03	6.057423E-16	9.232053E-18
4.810000E+03	6.059128E-16	9.153120E-18
4.820000E+03	6.062290E-16	9.076620E-18
4.830000E+03	6.066857E-16	9.002428E-18
4.840000E+03	6.073059E-16	8.930843E-18
4.850000E+03	6.080912E-16	8.861826E-18
4.860000E+03	6.090499E-16	8.795433E-18
4.870000E+03	6.101961E-16	8.731805E-18
4.880000E+03	6.115214E-16	8.670751E-18
4.890000E+03	6.130368E-16	8.612361E-18
4.900000E+03	6.147438E-16	8.556589E-18
4.910000E+03	6.166283E-16	8.503172E-18
4.920000E+03	6.187013E-16	8.452203E-18
4.930000E+03	6.209512E-16	8.403456E-18
4.940000E+03	6.233708E-16	8.356780E-18
4.950000E+03	6.259440E-16	8.311905E-18
4.960000E+03	6.286599E-16	8.268642E-18
4.970000E+03	6.315132E-16	8.226880E-18
4.980000E+03	6.344759E-16	8.186220E-18
4.990000E+03	6.375478E-16	8.146631E-18
5.000000E+03	6.406991E-16	8.107714E-18
5.010000E+03	6.439145E-16	8.069262E-18
5.020000E+03	6.471857E-16	8.031167E-18
5.030000E+03	6.504903E-16	7.993153E-18
5.040000E+03	6.538209E-16	7.955136E-18
5.050000E+03	6.571568E-16	7.916880E-18
5.060000E+03	6.604853E-16	7.878253E-18
5.070000E+03	6.637948E-16	7.839144E-18
5.080000E+03	6.670751E-16	7.799465E-18
5.090000E+03	6.703242E-16	7.759230E-18
5.100000E+03	6.735198E-16	7.718220E-18
5.110000E+03	6.766693E-16	7.676567E-18
5.120000E+03	6.797523E-16	7.634087E-18
5.130000E+03	6.827782E-16	7.590937E-18
5.140000E+03	6.857349E-16	7.547038E-18
5.150000E+03	6.886183E-16	7.502399E-18
5.160000E+03	6.914242E-16	7.457037E-18
5.170000E+03	6.941483E-16	7.410966E-18
5.180000E+03	6.967936E-16	7.364284E-18
5.190000E+03	6.993406E-16	7.316848E-18
5.200000E+03	7.017987E-16	7.268830E-18
5.210000E+03	7.041544E-16	7.220161E-18
5.220000E+03	7.064009E-16	7.170845E-18
5.230000E+03	7.085381E-16	7.120961E-18
5.240000E+03	7.105427E-16	7.070355E-18
5.250000E+03	7.124206E-16	7.019171E-18
5.260000E+03	7.141543E-16	6.967323E-18
5.270000E+03	7.157409E-16	6.914875E-18
5.280000E+03	7.171546E-16	6.861669E-18
5.290000E+03	7.183989E-16	6.807839E-18
5.300000E+03	7.194548E-16	6.753303E-18
5.310000E+03	7.203181E-16	6.698123E-18
5.320000E+03	7.209627E-16	6.642160E-18
5.330000E+03	7.213920E-16	6.585553E-18
5.340000E+03	7.215881E-16	6.528244E-18
5.350000E+03	7.215409E-16	6.470249E-18
5.360000E+03	7.212487E-16	6.411661E-18
5.370000E+03	7.206881E-16	6.352377E-18
5.380000E+03	7.198669E-16	6.292572E-18
5.390000E+03	7.187642E-16	6.232165E-18
5.400000E+03	7.173900E-16	6.171343E-18
5.410000E+03	7.157333E-16	6.110107E-18
5.420000E+03	7.137854E-16	6.048473E-18
5.430000E+03	7.115603E-16	5.986648E-18
5.440000E+03	7.090454E-16	5.924601E-18
5.450000E+03	7.062514E-16	5.862500E-18
5.460000E+03	7.031848E-16	5.800460E-18
5.470000E+03	6.998471E-16	5.738553E-18
5.480000E+03	6.962584E-16	5.676991E-18
5.490000E+03	6.924286E-16	5.615895E-18
5.500000E+03	6.883811E-16	5.555468E-18
5.510000E+03	6.841422E-16	5.495868E-18
5.520000E+03	6.797502E-16	5.437320E-18
5.530000E+03	6.752535E-16	5.380126E-18
5.540000E+03	6.706964E-16	5.324541E-18
5.550000E+03	6.661313E-16	5.270884E-18
5.560000E+03	6.615989E-16	5.219369E-18
5.570000E+03	6.571595E-16	5.170370E-18
5.580000E+03	6.528477E-16	5.124049E-18
5.590000E+03	6.487241E-16	5.080776E-18
5.600000E+03	6.448352E-16	5.040807E-18
5.610000E+03	6.412138E-16	5.004298E-18
5.620000E+03	6.379167E-16	4.971588E-18
5.630000E+03	6.349860E-16	4.942910E-18
5.640000E+03	6.324551E-16	4.918431E-18
5.650000E+03	6.303607E-16	4.898348E-18
5.660000E+03	6.287426E-16	4.882888E-18
5.670000E+03	6.276239E-16	4.872153E-18
5.680000E+03	6.270362E-16	4.866317E-18
5.690000E+03	6.269875E-16	4.865374E-18
5.700000E+03	6.275051E-16	4.869476E-18
5.710000E+03	6.285986E-16	4.878641E-18
5.720000E+03	6.302654E-16	4.892795E-18
5.730000E+03	6.325021E-16	4.911867E-18
5.740000E+03	6.352992E-16	4.935737E-18
5.750000E+03	6.386394E-16	4.964232E-18
5.760000E+03	6.424987E-16	4.997127E-18
5.770000E+03	6.468519E-16	5.034191E-18
5.780000E+03	6.516472E-16	5.074988E-18
5.790000E+03	6.568449E-16	5.119176E-18
5.800000E+03	6.623916E-16	5.166307E-18
5.810000E+03	6.682278E-16	5.215887E-18
5.820000E+03	6.742810E-16	5.267320E-18
5.830000E+03	6.804870E-16	5.320073E-18
5.840000E+03	6.867709E-16	5.373529E-18
5.850000E+03	6.930412E-16	5.426943E-18
5.860000E+03	6.992317E-16	5.479764E-18
5.870000E+03	7.052558E-16	5.531282E-18
5.880000E+03	7.110355E-16	5.580854E-18
5.890000E+03	7.164955E-16	5.627857E-18
5.900000E+03	7.215655E-16	5.671711E-18
5.910000E+03	7.261747E-16	5.711830E-18
5.920000E+03	7.302669E-16	5.747744E-18
5.930000E+03	7.338022E-16	5.779113E-18
5.940000E+03	7.367372E-16	5.805573E-18
5.950000E+03	7.390390E-16	5.826845E-18
5.960000E+03	7.407008E-16	5.842857E-18
5.970000E+03	7.417133E-16	5.853522E-18
5.980000E+03	7.420857E-16	5.858903E-18
5.990000E+03	7.418383E-16	5.859154E-18
6.000000E+03	7.410017E-16	5.854512E-18
6.010000E+03	7.396088E-16	5.845240E-18
6.020000E+03	7.377006E-16	5.831664E-18
6.030000E+03	7.353390E-16	5.814282E-18
6.040000E+03	7.325837E-16	5.793576E-18
6.050000E+03	7.294846E-16	5.769956E-18
6.060000E+03	7.261149E-16	5.744015E-18
6.070000E+03	7.225278E-16	5.716195E-18
6.080000E+03	7.187973E-16	5.687099E-18
6.090000E+03	7.149817E-16	5.657214E-18
6.100000E+03	7.111441E-16	5.627060E-18
6.110000E+03	7.073373E-16	5.597083E-18
6.120000E+03	7.036106E-16	5.567699E-18
6.130000E+03	7.000154E-16	5.539343E-18
6.140000E+03	6.965988E-16	5.512416E-18
6.150000E+03	6.934027E-16	5.487281E-18
6.160000E+03	6.904577E-16	5.464210E-18
6.170000E+03	6.878029E-16	5.443545E-18
6.180000E+03	6.854658E-16	5.425538E-18
6.190000E+03	6.834762E-16	5.410458E-18
6.200000E+03	6.818521E-16	5.398486E-18
6.210000E+03	6.806008E-16	5.389715E-18
6.220000E+03	6.797432E-16	5.384351E-18
6.230000E+03	6.792734E-16	5.382387E-18
6.240000E+03	6.791829E-16	5.383786E-18
6.250000E+03	6.794715E-16	5.388579E-18
6.260000E+03	6.800931E-16	5.396431E-18
6.270000E+03	6.810138E-16	5.407107E-18
6.280000E+03	6.821942E-16	5.420330E-18
6.290000E+03	6.835994E-16	5.435861E-18
6.300000E+03	6.851663E-16	5.453234E-18
6.310000E+03	6.868527E-16	5.472152E-18
6.320000E+03	6.886244E-16	5.492381E-18
6.330000E+03	6.904289E-16	5.513543E-18
6.340000E+03	6.922368E-16	5.535439E-18
6.350000E+03	6.939935E-16	5.557674E-18
6.360000E+03	6.956757E-16	5.580096E-18
6.370000E+03	6.972493E-16	5.602468E-18
6.380000E+03	6.986908E-16	5.624635E-18
6.390000E+03	6.999658E-16	5.646352E-18
6.400000E+03	7.010572E-16	5.667512E-18
6.410000E+03	7.019515E-16	5.688033E-18
6.420000E+03	7.026237E-16	5.707736E-18
6.430000E+03	7.030586E-16	5.726519E-18
6.440000E+03	7.032576E-16	5.744413E-18
6.450000E+03	7.032026E-16	5.761282E-18
6.460000E+03	7.028910E-16	5.777118E-18
6.470000E+03	7.023140E-16	5.791835E-18
6.480000E+03	7.014634E-16	5.805300E-18
6.490000E+03	7.003387E-16	5.817433E-18
6.500000E+03	6.989168E-16	5.827960E-18
6.510000E+03	6.972108E-16	5.836908E-18
6.520000E+03	6.951961E-16	5.843986E-18
6.530000E+03	6.928708E-16	5.849087E-18
6.540000E+03	6.902359E-16	5.852128E-18
6.550000E+03	6.873012E-16	5.853101E-18
6.560000E+03	6.840913E-16	5.852123E-18
6.570000E+03	6.806150E-16	5.849178E-18
6.580000E+03	6.768937E-16	5.844364E-18
6.590000E+03	6.729401E-16	5.837705E-18
6.600000E+03	6.687655E-16	5.829213E-18
6.610000E+03	6.643735E-16	5.818839E-18
6.620000E+03	6.597889E-16	5.806719E-18
6.630000E+03	6.550151E-16	5.792809E-18
6.640000E+03	6.500636E-16	5.777135E-18
6.650000E+03	6.449472E-16	5.759742E-18
6.660000E+03	6.396875E-16	5.740755E-18
6.670000E+03	6.342937E-16	5.720194E-18
6.680000E+03	6.287911E-16	5.698229E-18
6.690000E+03	6.232001E-16	5.674992E-18
6.700000E+03	6.175366E-16	5.650577E-18
6.710000E+03	6.118321E-16	5.625232E-18
6.720000E+03	6.061133E-16	5.599162E-18
6.730000E+03	6.004019E-16	5.572537E-18
6.740000E+03	5.947412E-16	5.545731E-18
6.750000E+03	5.891488E-16	5.518890E-18
6.760000E+03	5.836630E-16	5.492358E-18
6.770000E+03	5.783224E-16	5.466490E-18
6.780000E+03	5.731455E-16	5.441458E-18
6.790000E+03	5.681704E-16	5.417626E-18
6.800000E+03	5.634272E-16	5.395288E-18
6.810000E+03	5.589449E-16	5.374735E-18
6.820000E+03	5.547506E-16	5.356243E-18
6.830000E+03	5.508695E-16	5.340076E-18
6.840000E+03	5.473241E-16	5.326472E-18
6.850000E+03	5.441407E-16	5.315716E-18
6.860000E+03	5.413236E-16	5.307874E-18
6.870000E+03	5.388929E-16	5.303173E-18
6.880000E+03	5.368658E-16	5.301808E-18
6.890000E+03	5.352368E-16	5.303755E-18
6.900000E+03	5.340224E-16	5.309204E-18
6.910000E+03	5.332103E-16	5.318058E-18
6.920000E+03	5.328103E-16	5.330441E-18
6.930000E+03	5.328098E-16	5.346248E-18
6.940000E+03	5.331989E-16	5.365400E-18
6.950000E+03	5.339587E-16	5.387724E-18
6.960000E+03	5.350864E-16	5.413202E-18
6.970000E+03	5.365633E-16	5.441659E-18
6.980000E+03	5.383558E-16	5.472760E-18
6.990000E+03	5.404468E-16	5.506334E-18
7.000000E+03	5.428111E-16	5.542123E-18
7.010000E+03	5.454283E-16	5.579917E-18
7.020000E+03	5.482564E-16	5.619278E-18
7.030000E+03	5.512793E-16	5.660030E-18
7.040000E+03	5.544595E-16	5.701777E-18
7.050000E+03	5.577590E-16	5.744111E-18
7.060000E+03	5.611597E-16	5.786829E-18
7.070000E+03	5.646225E-16	5.829508E-18
7.080000E+03	5.681156E-16	5.871798E-18
7.090000E+03	5.716068E-16	5.913342E-18
7.100000E+03	5.750639E-16	5.953788E-18
7.110000E+03	5.784551E-16	5.992780E-18
7.120000E+03	5.817556E-16	6.030038E-18
7.130000E+03	5.849190E-16	6.065061E-18
7.140000E+03	5.879206E-16	6.097569E-18
7.150000E+03	5.907360E-16	6.127289E-18
7.160000E+03	5.933258E-16	6.153795E-18
7.170000E+03	5.956581E-16	6.176738E-18
7.180000E+03	5.977005E-16	6.195773E-18
7.190000E+03	5.994214E-16	6.210558E-18
7.200000E+03	6.007968E-16	6.220840E-18
7.210000E+03	6.017805E-16	6.226140E-18
7.220000E+03	6.023580E-16	6.226309E-18
7.230000E+03	6.024932E-16	6.220982E-18
7.240000E+03	6.021674E-16	6.209979E-18
7.250000E+03	6.013492E-16	6.192994E-18
7.260000E+03	6.000180E-16	6.169839E-18
7.270000E+03	5.981646E-16	6.140452E-18
7.280000E+03	5.957693E-16	6.104665E-18
7.290000E+03	5.928249E-16	6.062448E-18
7.300000E+03	5.893374E-16	6.013911E-18
7.310000E+03	5.853114E-16	5.959152E-18
7.320000E+03	5.807498E-16	5.898262E-18
7.330000E+03	5.756772E-16	5.831552E-18
7.340000E+03	5.701096E-16	5.759251E-18
7.350000E+03	5.640841E-16	5.681803E-18
7.360000E+03	5.576359E-16	5.599634E-18
7.370000E+03	5.507984E-16	5.513150E-18
7.380000E+03	5.436239E-16	5.422947E-18
7.390000E+03	5.361618E-16	5.329587E-18
7.400000E+03	5.284568E-16	5.233584E-18
7.410000E+03	5.205704E-16	5.135609E-18
7.420000E+03	5.125647E-16	5.036335E-18
7.430000E+03	5.044884E-16	4.936296E-18
7.440000E+03	4.963968E-16	4.836078E-18
7.450000E+03	4.883504E-16	4.736315E-18
7.460000E+03	4.803948E-16	4.637482E-18
7.470000E+03	4.725734E-16	4.540025E-18
7.480000E+03	4.649459E-16	4.444538E-18
7.490000E+03	4.575377E-16	4.351273E-18
7.500000E+03	4.504021E-16	4.260743E-18
7.510000E+03	4.435705E-16	4.173239E-18
7.520000E+03	4.370830E-16	4.089128E-18
7.530000E+03	4.309592E-16	4.008571E-18
7.540000E+03	4.252391E-16	3.931914E-18
7.550000E+03	4.199423E-16	3.859302E-18
7.560000E+03	4.150864E-16	3.790851E-18
7.570000E+03	4.107035E-16	3.726798E-18
7.580000E+03	4.068010E-16	3.667150E-18
7.590000E+03	4.034016E-16	3.612045E-18
7.600000E+03	4.005204E-16	3.561545E-18
7.610000E+03	3.981703E-16	3.515687E-18
7.620000E+03	3.963524E-16	3.474399E-18
7.630000E+03	3.950493E-16	3.437446E-18
7.640000E+03	3.942468E-16	3.404619E-18
7.650000E+03	3.939030E-16	3.375479E-18
7.660000E+03	3.940023E-16	3.349816E-18
7.670000E+03	3.945183E-16	3.327333E-18
7.680000E+03	3.954190E-16	3.307695E-18
7.690000E+03	3.966779E-16	3.290617E-18
7.700000E+03	3.982733E-16	3.275864E-18
7.710000E+03	4.001728E-16	3.263118E-18
7.720000E+03	4.023484E-16	3.252109E-18
7.730000E+03	4.047771E-16	3.242615E-18
7.740000E+03	4.074243E-16	3.234327E-18
7.750000E+03	4.102650E-16	3.227030E-18
7.760000E+03	4.132621E-16	3.220417E-18
