#wls	flux	fluxerr
1.600000E+03	9.552334E-17	3.520403E-18
1.640000E+03	9.680595E-17	3.552356E-18
1.680000E+03	9.810392E-17	3.584086E-18
1.720000E+03	9.939514E-17	3.614758E-18
1.760000E+03	1.007142E-16	3.645605E-18
1.800000E+03	1.020387E-16	3.675781E-18
1.840000E+03	1.033647E-16	3.705120E-18
1.880000E+03	1.046882E-16	3.733451E-18
1.920000E+03	1.060450E-16	3.762023E-18
1.960000E+03	1.073912E-16	3.789240E-18
2.000000E+03	1.087628E-16	3.816349E-18
2.040000E+03	1.101148E-16	3.841732E-18
2.080000E+03	1.115041E-16	3.867353E-18
2.120000E+03	1.128850E-16	3.891584E-18
2.160000E+03	1.142736E-16	3.914951E-18
2.200000E+03	1.156860E-16	3.937968E-18
2.240000E+03	1.170963E-16	3.959718E-18
2.280000E+03	1.185420E-16	3.981431E-18
2.320000E+03	1.199757E-16	4.001468E-18
2.360000E+03	1.214348E-16	4.021048E-18
2.400000E+03	1.229356E-16	4.040654E-18
2.440000E+03	1.244305E-16	4.058670E-18
2.480000E+03	1.259779E-16	4.076961E-18
2.520000E+03	1.275513E-16	4.094599E-18
2.560000E+03	1.291665E-16	4.112031E-18
2.600000E+03	1.308388E-16	4.129675E-18
2.640000E+03	1.325621E-16	4.147255E-18
2.680000E+03	1.343510E-16	4.165145E-18
2.720000E+03	1.362397E-16	4.184298E-18
2.760000E+03	1.382200E-16	4.204338E-18
2.800000E+03	1.403032E-16	4.225485E-18
2.840000E+03	1.425194E-16	4.248495E-18
2.880000E+03	1.448957E-16	4.274003E-18
2.920000E+03	1.474175E-16	4.301380E-18
2.960000E+03	1.501456E-16	4.332192E-18
3.000000E+03	1.530588E-16	4.365578E-18
3.010000E+03	1.538174E-16	4.374339E-18
3.020000E+03	1.545988E-16	4.383561E-18
3.030000E+03	1.554025E-16	4.393219E-18
3.040000E+03	1.562089E-16	4.402759E-18
3.050000E+03	1.570365E-16	4.412699E-18
3.060000E+03	1.578848E-16	4.423015E-18
3.070000E+03	1.587345E-16	4.433166E-18
3.080000E+03	1.596224E-16	4.444173E-18
3.090000E+03	1.605106E-16	4.454972E-18
3.100000E+03	1.614173E-16	4.466065E-18
3.110000E+03	1.623417E-16	4.477428E-18
3.120000E+03	1.632831E-16	4.489034E-18
3.130000E+03	1.642593E-16	4.501362E-18
3.140000E+03	1.652328E-16	4.513384E-18
3.150000E+03	1.662396E-16	4.526072E-18
3.160000E+03	1.672605E-16	4.538902E-18
3.170000E+03	1.682950E-16	4.551850E-18
3.180000E+03	1.693601E-16	4.565373E-18
3.190000E+03	1.704549E-16	4.579437E-18
3.200000E+03	1.715430E-16	4.593057E-18
3.210000E+03	1.726768E-16	4.607631E-18
3.220000E+03	1.738200E-16	4.622181E-18
3.230000E+03	1.749892E-16	4.637144E-18
3.240000E+03	1.761835E-16	4.652486E-18
3.250000E+03	1.773845E-16	4.667716E-18
3.260000E+03	1.786259E-16	4.683715E-18
3.270000E+03	1.798894E-16	4.699989E-18
3.280000E+03	1.811569E-16	4.716061E-18
3.290000E+03	1.824784E-16	4.733226E-18
3.300000E+03	1.838019E-16	4.750125E-18
3.310000E+03	1.851602E-16	4.767596E-18
3.320000E+03	1.865353E-16	4.785171E-18
3.330000E+03	1.879429E-16	4.803243E-18
3.340000E+03	1.893818E-16	4.821770E-18
3.350000E+03	1.908345E-16	4.840296E-18
3.360000E+03	1.923164E-16	4.859207E-18
3.370000E+03	1.938426E-16	4.878874E-18
3.380000E+03	1.953796E-16	4.898441E-18
3.390000E+03	1.969427E-16	4.918284E-18
3.400000E+03	1.985468E-16	4.938768E-18
3.410000E+03	2.001910E-16	4.959855E-18
3.420000E+03	2.018426E-16	4.980723E-18
3.430000E+03	2.035483E-16	5.002521E-18
3.440000E+03	2.052759E-16	5.024437E-18
3.450000E+03	2.070405E-16	5.046834E-18
3.460000E+03	2.088415E-16	5.069685E-18
3.470000E+03	2.106786E-16	5.092968E-18
3.480000E+03	2.125668E-16	5.117033E-18
3.490000E+03	2.144906E-16	5.141494E-18
3.500000E+03	2.164506E-16	5.166346E-18
3.510000E+03	2.184619E-16	5.191942E-18
3.520000E+03	2.205103E-16	5.217923E-18
3.530000E+03	2.226260E-16	5.244992E-18
3.540000E+03	2.247954E-16	5.272803E-18
3.550000E+03	2.270195E-16	5.301365E-18
3.560000E+03	2.292999E-16	5.330695E-18
3.570000E+03	2.316530E-16	5.361148E-18
3.580000E+03	2.340662E-16	5.392417E-18
3.590000E+03	2.365562E-16	5.424859E-18
3.600000E+03	2.391255E-16	5.458508E-18
3.610000E+03	2.417768E-16	5.493396E-18
3.620000E+03	2.445130E-16	5.529562E-18
3.630000E+03	2.473513E-16	5.567361E-18
3.640000E+03	2.502812E-16	5.606526E-18
3.650000E+03	2.533196E-16	5.647403E-18
3.660000E+03	2.564568E-16	5.689737E-18
3.670000E+03	2.597234E-16	5.734172E-18
3.680000E+03	2.631093E-16	5.780440E-18
3.690000E+03	2.666182E-16	5.828582E-18
3.700000E+03	2.702533E-16	5.878625E-18
3.710000E+03	2.740312E-16	5.930884E-18
3.720000E+03	2.779545E-16	5.985368E-18
3.730000E+03	2.820255E-16	6.042074E-18
3.740000E+03	2.862461E-16	6.100991E-18
3.750000E+03	2.906172E-16	6.162090E-18
3.760000E+03	2.951396E-16	6.225329E-18
3.770000E+03	2.998255E-16	6.290918E-18
3.780000E+03	3.046604E-16	6.358496E-18
3.790000E+03	3.096547E-16	6.428222E-18
3.800000E+03	3.148043E-16	6.499960E-18
3.810000E+03	3.201037E-16	6.573543E-18
3.820000E+03	3.255462E-16	6.648778E-18
3.830000E+03	3.311230E-16	6.725439E-18
3.840000E+03	3.368369E-16	6.803531E-18
3.850000E+03	3.426626E-16	6.882501E-18
3.860000E+03	3.485989E-16	6.962285E-18
3.870000E+03	3.546176E-16	7.042281E-18
3.880000E+03	3.607135E-16	7.122355E-18
3.890000E+03	3.668543E-16	7.201851E-18
3.900000E+03	3.730318E-16	7.280587E-18
3.910000E+03	3.792358E-16	7.358352E-18
3.920000E+03	3.854170E-16	7.434186E-18
3.930000E+03	3.915631E-16	7.507860E-18
3.940000E+03	3.976482E-16	7.578888E-18
3.950000E+03	4.036334E-16	7.646560E-18
3.960000E+03	4.095174E-16	7.710883E-18
3.970000E+03	4.152493E-16	7.770939E-18
3.980000E+03	4.208160E-16	7.826537E-18
3.990000E+03	4.261935E-16	7.877293E-18
4.000000E+03	4.313467E-16	7.922632E-18
4.010000E+03	4.362673E-16	7.962477E-18
4.020000E+03	4.409248E-16	7.996358E-18
4.030000E+03	4.453152E-16	8.024301E-18
4.040000E+03	4.494021E-16	8.045746E-18
4.050000E+03	4.531877E-16	8.060844E-18
4.060000E+03	4.566658E-16	8.069591E-18
4.070000E+03	4.598216E-16	8.071841E-18
4.080000E+03	4.626562E-16	8.067728E-18
4.090000E+03	4.651734E-16	8.057437E-18
4.100000E+03	4.673700E-16	8.041025E-18
4.110000E+03	4.692570E-16	8.018798E-18
4.120000E+03	4.708481E-16	7.991104E-18
4.130000E+03	4.721499E-16	7.958161E-18
4.140000E+03	4.731818E-16	7.920402E-18
4.150000E+03	4.739556E-16	7.878123E-18
4.160000E+03	4.744955E-16	7.831819E-18
4.170000E+03	4.748275E-16	7.782003E-18
4.180000E+03	4.749590E-16	7.728878E-18
4.190000E+03	4.749193E-16	7.672990E-18
4.200000E+03	4.747377E-16	7.614878E-18
4.210000E+03	4.744354E-16	7.554935E-18
4.220000E+03	4.740431E-16	7.493694E-18
4.230000E+03	4.735646E-16	7.431255E-18
4.240000E+03	4.730493E-16	7.368423E-18
4.250000E+03	4.725105E-16	7.305423E-18
4.260000E+03	4.719701E-16	7.242610E-18
4.270000E+03	4.714506E-16	7.180331E-18
4.280000E+03	4.709818E-16	7.119038E-18
4.290000E+03	4.705927E-16	7.059156E-18
4.300000E+03	4.702875E-16	7.000730E-18
4.310000E+03	4.700943E-16	6.944153E-18
4.320000E+03	4.700399E-16	6.889789E-18
4.330000E+03	4.701426E-16	6.837865E-18
4.340000E+03	4.704198E-16	6.788587E-18
4.350000E+03	4.708881E-16	6.742144E-18
4.360000E+03	4.715637E-16	6.698713E-18
4.370000E+03	4.724700E-16	6.658561E-18
4.380000E+03	4.736371E-16	6.622045E-18
4.390000E+03	4.750737E-16	6.589208E-18
4.400000E+03	4.767972E-16	6.560213E-18
4.410000E+03	4.788054E-16	6.534948E-18
4.420000E+03	4.811026E-16	6.513390E-18
4.430000E+03	4.836989E-16	6.495594E-18
4.440000E+03	4.865885E-16	6.481403E-18
4.450000E+03	4.897913E-16	6.470995E-18
4.460000E+03	4.932755E-16	6.463869E-18
4.470000E+03	4.970139E-16	6.459598E-18
4.480000E+03	5.009832E-16	6.457814E-18
4.490000E+03	5.051428E-16	6.457945E-18
4.500000E+03	5.094632E-16	6.459574E-18
4.510000E+03	5.139043E-16	6.462166E-18
4.520000E+03	5.184367E-16	6.465339E-18
4.530000E+03	5.230150E-16	6.468524E-18
4.540000E+03	5.276113E-16	6.471387E-18
4.550000E+03	5.321823E-16	6.473419E-18
4.560000E+03	5.366905E-16	6.474200E-18
4.570000E+03	5.410905E-16	6.473231E-18
4.580000E+03	5.453579E-16	6.470280E-18
4.590000E+03	5.494488E-16	6.464893E-18
4.600000E+03	5.533208E-16	6.456655E-18
4.610000E+03	5.569549E-16	6.445436E-18
4.620000E+03	5.603219E-16	6.430995E-18
4.630000E+03	5.633965E-16	6.413145E-18
4.640000E+03	5.661580E-16	6.391763E-18
4.650000E+03	5.685911E-16	6.366788E-18
4.660000E+03	5.706996E-16	6.338379E-18
4.670000E+03	5.724722E-16	6.306524E-18
4.680000E+03	5.739241E-16	6.271501E-18
4.690000E+03	5.750550E-16	6.233419E-18
4.700000E+03	5.758835E-16	6.192582E-18
4.710000E+03	5.764397E-16	6.149411E-18
4.720000E+03	5.767373E-16	6.104140E-18
4.730000E+03	5.768134E-16	6.057244E-18
4.740000E+03	5.767012E-16	6.009142E-18
4.750000E+03	5.764291E-16	5.960192E-18
4.760000E+03	5.760408E-16	5.910898E-18
4.770000E+03	5.755695E-16	5.861641E-18
4.780000E+03	5.750649E-16	5.812960E-18
4.790000E+03	5.745589E-16	5.765199E-18
4.800000E+03	5.741019E-16	5.718874E-18
4.810000E+03	5.737189E-16	5.674240E-18
4.820000E+03	5.734558E-16	5.631743E-18
4.830000E+03	5.733428E-16	5.591673E-18
4.840000E+03	5.734133E-16	5.554333E-18
4.850000E+03	5.736966E-16	5.519957E-18
4.860000E+03	5.742167E-16	5.488716E-18
4.870000E+03	5.749859E-16	5.460662E-18
4.880000E+03	5.760239E-16	5.435917E-18
4.890000E+03	5.773315E-16	5.414425E-18
4.900000E+03	5.789174E-16	5.396202E-18
4.910000E+03	5.807711E-16	5.381090E-18
4.920000E+03	5.828901E-16	5.369004E-18
4.930000E+03	5.852598E-16	5.359757E-18
4.940000E+03	5.878615E-16	5.353121E-18
4.950000E+03	5.906778E-16	5.348894E-18
4.960000E+03	5.936689E-16	5.346670E-18
4.970000E+03	5.968175E-16	5.346259E-18
4.980000E+03	6.000917E-16	5.347339E-18
4.990000E+03	6.034578E-16	5.349584E-18
5.000000E+03	6.068757E-16	5.352617E-18
5.010000E+03	6.103256E-16	5.356245E-18
5.020000E+03	6.137695E-16	5.360119E-18
5.030000E+03	6.171783E-16	5.363976E-18
5.040000E+03	6.205328E-16	5.367644E-18
5.050000E+03	6.238038E-16	5.370863E-18
5.060000E+03	6.269794E-16	5.373532E-18
5.070000E+03	6.300450E-16	5.375522E-18
5.080000E+03	6.329898E-16	5.376744E-18
5.090000E+03	6.358064E-16	5.377135E-18
5.100000E+03	6.384909E-16	5.376664E-18
5.110000E+03	6.410418E-16	5.375321E-18
5.120000E+03	6.434598E-16	5.373112E-18
5.130000E+03	6.457534E-16	5.370111E-18
5.140000E+03	6.479189E-16	5.366287E-18
5.150000E+03	6.499658E-16	5.361719E-18
5.160000E+03	6.518969E-16	5.356430E-18
5.170000E+03	6.537070E-16	5.350380E-18
5.180000E+03	6.554037E-16	5.343630E-18
5.190000E+03	6.569864E-16	5.336177E-18
5.200000E+03	6.584461E-16	5.327948E-18
5.210000E+03	6.597925E-16	5.319025E-18
5.220000E+03	6.610136E-16	5.309311E-18
5.230000E+03	6.621022E-16	5.298755E-18
5.240000E+03	6.630501E-16	5.287293E-18
5.250000E+03	6.638474E-16	5.274855E-18
5.260000E+03	6.644832E-16	5.261361E-18
5.270000E+03	6.649529E-16	5.246782E-18
5.280000E+03	6.652440E-16	5.231030E-18
5.290000E+03	6.653299E-16	5.213907E-18
5.300000E+03	6.652184E-16	5.195488E-18
5.310000E+03	6.648830E-16	5.175578E-18
5.320000E+03	6.643113E-16	5.154100E-18
5.330000E+03	6.634988E-16	5.131033E-18
5.340000E+03	6.624350E-16	5.106315E-18
5.350000E+03	6.611108E-16	5.079894E-18
5.360000E+03	6.595121E-16	5.051682E-18
5.370000E+03	6.576401E-16	5.021708E-18
5.380000E+03	6.554912E-16	4.989966E-18
5.390000E+03	6.530641E-16	4.956467E-18
5.400000E+03	6.503531E-16	4.921188E-18
5.410000E+03	6.473747E-16	4.884276E-18
5.420000E+03	6.441214E-16	4.845693E-18
5.430000E+03	6.406073E-16	4.805566E-18
5.440000E+03	6.368423E-16	4.763987E-18
5.450000E+03	6.328317E-16	4.721015E-18
5.460000E+03	6.286018E-16	4.676861E-18
5.470000E+03	6.241554E-16	4.631561E-18
5.480000E+03	6.195096E-16	4.585257E-18
5.490000E+03	6.146907E-16	4.538136E-18
5.500000E+03	6.097185E-16	4.490324E-18
5.510000E+03	6.046038E-16	4.441878E-18
5.520000E+03	5.993663E-16	4.392917E-18
5.530000E+03	5.940284E-16	4.343583E-18
5.540000E+03	5.886223E-16	4.294088E-18
5.550000E+03	5.831714E-16	4.244580E-18
5.560000E+03	5.777146E-16	4.195317E-18
5.570000E+03	5.722883E-16	4.146539E-18
5.580000E+03	5.669268E-16	4.098470E-18
5.590000E+03	5.616788E-16	4.051438E-18
5.600000E+03	5.565850E-16	4.005709E-18
5.610000E+03	5.517039E-16	3.961679E-18
5.620000E+03	5.470687E-16	3.919558E-18
5.630000E+03	5.427404E-16	3.879755E-18
5.640000E+03	5.387683E-16	3.842592E-18
5.650000E+03	5.351955E-16	3.808345E-18
5.660000E+03	5.320734E-16	3.777349E-18
5.670000E+03	5.294346E-16	3.749800E-18
5.680000E+03	5.273288E-16	3.726016E-18
5.690000E+03	5.257850E-16	3.706166E-18
5.700000E+03	5.248320E-16	3.690414E-18
5.710000E+03	5.244922E-16	3.678882E-18
5.720000E+03	5.247760E-16	3.671601E-18
5.730000E+03	5.257020E-16	3.668663E-18
5.740000E+03	5.272598E-16	3.669954E-18
5.750000E+03	5.294410E-16	3.675376E-18
5.760000E+03	5.322332E-16	3.684807E-18
5.770000E+03	5.356048E-16	3.697987E-18
5.780000E+03	5.395251E-16	3.714670E-18
5.790000E+03	5.439382E-16	3.734437E-18
5.800000E+03	5.487946E-16	3.756918E-18
5.810000E+03	5.540305E-16	3.781651E-18
5.820000E+03	5.595739E-16	3.808124E-18
5.830000E+03	5.653394E-16	3.835738E-18
5.840000E+03	5.712459E-16	3.863935E-18
5.850000E+03	5.771963E-16	3.892054E-18
5.860000E+03	5.830950E-16	3.919459E-18
5.870000E+03	5.888513E-16	3.945549E-18
5.880000E+03	5.943570E-16	3.969623E-18
5.890000E+03	5.995247E-16	3.991127E-18
5.900000E+03	6.042663E-16	4.009511E-18
5.910000E+03	6.084959E-16	4.024252E-18
5.920000E+03	6.121549E-16	4.035016E-18
5.930000E+03	6.151676E-16	4.041364E-18
5.940000E+03	6.175018E-16	4.043149E-18
5.950000E+03	6.191227E-16	4.040214E-18
5.960000E+03	6.200175E-16	4.032549E-18
5.970000E+03	6.201958E-16	4.020291E-18
5.980000E+03	6.196654E-16	4.003566E-18
5.990000E+03	6.184732E-16	3.982752E-18
6.000000E+03	6.166561E-16	3.958161E-18
6.010000E+03	6.142818E-16	3.930294E-18
6.020000E+03	6.114279E-16	3.899714E-18
6.030000E+03	6.081621E-16	3.866913E-18
6.040000E+03	6.045761E-16	3.832529E-18
6.050000E+03	6.007590E-16	3.797177E-18
6.060000E+03	5.968010E-16	3.761469E-18
6.070000E+03	5.927914E-16	3.726008E-18
6.080000E+03	5.888111E-16	3.691335E-18
6.090000E+03	5.849540E-16	3.658068E-18
6.100000E+03	5.812852E-16	3.626640E-18
6.110000E+03	5.778802E-16	3.597545E-18
6.120000E+03	5.748013E-16	3.571192E-18
6.130000E+03	5.720965E-16	3.547902E-18
6.140000E+03	5.698224E-16	3.528044E-18
6.150000E+03	5.679978E-16	3.511759E-18
6.160000E+03	5.666664E-16	3.499342E-18
6.170000E+03	5.658395E-16	3.490889E-18
6.180000E+03	5.655248E-16	3.486478E-18
6.190000E+03	5.657203E-16	3.486134E-18
6.200000E+03	5.664145E-16	3.489824E-18
6.210000E+03	5.675870E-16	3.497468E-18
6.220000E+03	5.692083E-16	3.508931E-18
6.230000E+03	5.712397E-16	3.524023E-18
6.240000E+03	5.736400E-16	3.542501E-18
6.250000E+03	5.763445E-16	3.563969E-18
6.260000E+03	5.793087E-16	3.588155E-18
6.270000E+03	5.824714E-16	3.614682E-18
6.280000E+03	5.857616E-16	3.643112E-18
6.290000E+03	5.891118E-16	3.673023E-18
6.300000E+03	5.924603E-16	3.704028E-18
6.310000E+03	5.957344E-16	3.735664E-18
6.320000E+03	5.988826E-16	3.767593E-18
6.330000E+03	6.018330E-16	3.799346E-18
6.340000E+03	6.045383E-16	3.830597E-18
6.350000E+03	6.069512E-16	3.861016E-18
6.360000E+03	6.090325E-16	3.890316E-18
6.370000E+03	6.107508E-16	3.918253E-18
6.380000E+03	6.120834E-16	3.944632E-18
6.390000E+03	6.130220E-16	3.969346E-18
6.400000E+03	6.135537E-16	3.992254E-18
6.410000E+03	6.136852E-16	4.013338E-18
6.420000E+03	6.134176E-16	4.032543E-18
6.430000E+03	6.127759E-16	4.049968E-18
6.440000E+03	6.117644E-16	4.065576E-18
6.450000E+03	6.104102E-16	4.079482E-18
6.460000E+03	6.087424E-16	4.091817E-18
6.470000E+03	6.067860E-16	4.102687E-18
6.480000E+03	6.045602E-16	4.112159E-18
6.490000E+03	6.021099E-16	4.120483E-18
6.500000E+03	5.994485E-16	4.127683E-18
6.510000E+03	5.966140E-16	4.133943E-18
6.520000E+03	5.936236E-16	4.139314E-18
6.530000E+03	5.904914E-16	4.143824E-18
6.540000E+03	5.872290E-16	4.147488E-18
6.550000E+03	5.838494E-16	4.150338E-18
6.560000E+03	5.803313E-16	4.152157E-18
6.570000E+03	5.766885E-16	4.152986E-18
6.580000E+03	5.729032E-16	4.152636E-18
6.590000E+03	5.689763E-16	4.151053E-18
6.600000E+03	5.649087E-16	4.148188E-18
6.610000E+03	5.606836E-16	4.143860E-18
6.620000E+03	5.563101E-16	4.138080E-18
6.630000E+03	5.517867E-16	4.130783E-18
6.640000E+03	5.471076E-16	4.121873E-18
6.650000E+03	5.422763E-16	4.111327E-18
6.660000E+03	5.373108E-16	4.099233E-18
6.670000E+03	5.322146E-16	4.085574E-18
6.680000E+03	5.270013E-16	4.070415E-18
6.690000E+03	5.216879E-16	4.053850E-18
6.700000E+03	5.162958E-16	4.036012E-18
6.710000E+03	5.108559E-16	4.017117E-18
6.720000E+03	5.053909E-16	3.997322E-18
6.730000E+03	4.999387E-16	3.976912E-18
6.740000E+03	4.945283E-16	3.956108E-18
6.750000E+03	4.892026E-16	3.935249E-18
6.760000E+03	4.840001E-16	3.914649E-18
6.770000E+03	4.789607E-16	3.894641E-18
6.780000E+03	4.741244E-16	3.875566E-18
6.790000E+03	4.695257E-16	3.857727E-18
6.800000E+03	4.652143E-16	3.841560E-18
6.810000E+03	4.612225E-16	3.827361E-18
6.820000E+03	4.575852E-16	3.815459E-18
6.830000E+03	4.543359E-16	3.806170E-18
6.840000E+03	4.515039E-16	3.799784E-18
6.850000E+03	4.491212E-16	3.796613E-18
6.860000E+03	4.472054E-16	3.796854E-18
6.870000E+03	4.457749E-16	3.800710E-18
6.880000E+03	4.448497E-16	3.808397E-18
6.890000E+03	4.444346E-16	3.820004E-18
6.900000E+03	4.445401E-16	3.835666E-18
6.910000E+03	4.451672E-16	3.855435E-18
6.920000E+03	4.463064E-16	3.879270E-18
6.930000E+03	4.479494E-16	3.907135E-18
6.940000E+03	4.500936E-16	3.939042E-18
6.950000E+03	4.527107E-16	3.974774E-18
6.960000E+03	4.557847E-16	4.014215E-18
6.970000E+03	4.592849E-16	4.057117E-18
6.980000E+03	4.631880E-16	4.103291E-18
6.990000E+03	4.674690E-16	4.152527E-18
7.000000E+03	4.720834E-16	4.204441E-18
7.010000E+03	4.770025E-16	4.258777E-18
7.020000E+03	4.821856E-16	4.315174E-18
7.030000E+03	4.876098E-16	4.373422E-18
7.040000E+03	4.932357E-16	4.433159E-18
7.050000E+03	4.990308E-16	4.494084E-18
7.060000E+03	5.049649E-16	4.555912E-18
7.070000E+03	5.110099E-16	4.618375E-18
7.080000E+03	5.171402E-16	4.681223E-18
7.090000E+03	5.233323E-16	4.744226E-18
7.100000E+03	5.295645E-16	4.807168E-18
7.110000E+03	5.358234E-16	4.869908E-18
7.120000E+03	5.420826E-16	4.932185E-18
7.130000E+03	5.483219E-16	4.993795E-18
7.140000E+03	5.545196E-16	5.054520E-18
7.150000E+03	5.606585E-16	5.114184E-18
7.160000E+03	5.667038E-16	5.172448E-18
7.170000E+03	5.726298E-16	5.229060E-18
7.180000E+03	5.783909E-16	5.283585E-18
7.190000E+03	5.839500E-16	5.335666E-18
7.200000E+03	5.892560E-16	5.384822E-18
7.210000E+03	5.942434E-16	5.430440E-18
7.220000E+03	5.988480E-16	5.471923E-18
7.230000E+03	6.030161E-16	5.508775E-18
7.240000E+03	6.066590E-16	5.540178E-18
7.250000E+03	6.097091E-16	5.565518E-18
7.260000E+03	6.120912E-16	5.584115E-18
7.270000E+03	6.137326E-16	5.595316E-18
7.280000E+03	6.145661E-16	5.598526E-18
7.290000E+03	6.145245E-16	5.593160E-18
7.300000E+03	6.135758E-16	5.578957E-18
7.310000E+03	6.116776E-16	5.555571E-18
7.320000E+03	6.088112E-16	5.522876E-18
7.330000E+03	6.049673E-16	5.480840E-18
7.340000E+03	6.001788E-16	5.429820E-18
7.350000E+03	5.944734E-16	5.370126E-18
7.360000E+03	5.879047E-16	5.302308E-18
7.370000E+03	5.805507E-16	5.227135E-18
7.380000E+03	5.724807E-16	5.145300E-18
7.390000E+03	5.638069E-16	5.057875E-18
7.400000E+03	5.546276E-16	4.965809E-18
7.410000E+03	5.450694E-16	4.870293E-18
7.420000E+03	5.352315E-16	4.772270E-18
7.430000E+03	5.252352E-16	4.672872E-18
7.440000E+03	5.151979E-16	4.573186E-18
7.450000E+03	5.052106E-16	4.474054E-18
7.460000E+03	4.953705E-16	4.376369E-18
7.470000E+03	4.857660E-16	4.280933E-18
7.480000E+03	4.764816E-16	4.188507E-18
7.490000E+03	4.675715E-16	4.099576E-18
7.500000E+03	4.590987E-16	4.014695E-18
7.510000E+03	4.511026E-16	3.934207E-18
7.520000E+03	4.436189E-16	3.858416E-18
7.530000E+03	4.366800E-16	3.787593E-18
7.540000E+03	4.302916E-16	3.721774E-18
7.550000E+03	4.244758E-16	3.661128E-18
7.560000E+03	4.192307E-16	3.605613E-18
7.570000E+03	4.145495E-16	3.555144E-18
7.580000E+03	4.104333E-16	3.509706E-18
7.590000E+03	4.068745E-16	3.469206E-18
7.600000E+03	4.038583E-16	3.433494E-18
7.610000E+03	4.013803E-16	3.402508E-18
7.620000E+03	3.994226E-16	3.376073E-18
7.630000E+03	3.979667E-16	3.354011E-18
7.640000E+03	3.969974E-16	3.336175E-18
7.650000E+03	3.964945E-16	3.322380E-18
7.660000E+03	3.964273E-16	3.312351E-18
7.670000E+03	3.967866E-16	3.306004E-18
7.680000E+03	3.975469E-16	3.303118E-18
7.690000E+03	3.986871E-16	3.303511E-18
7.700000E+03	4.001852E-16	3.307001E-18
7.710000E+03	4.020181E-16	3.313399E-18
7.720000E+03	4.041610E-16	3.322507E-18
7.730000E+03	4.065931E-16	3.334165E-18
7.740000E+03	4.092814E-16	3.348117E-18
7.750000E+03	4.121964E-16	3.364139E-18
7.760000E+03	4.153076E-16	3.382008E-18
