#wls	flux	fluxerr
1.600000E+03	3.659901E-17	2.256463E-17
1.640000E+03	3.749160E-17	2.295429E-17
1.680000E+03	3.840901E-17	2.334826E-17
1.720000E+03	3.934350E-17	2.374129E-17
1.760000E+03	4.030149E-17	2.413673E-17
1.800000E+03	4.128999E-17	2.453812E-17
1.840000E+03	4.230083E-17	2.493997E-17
1.880000E+03	4.334100E-17	2.534571E-17
1.920000E+03	4.440989E-17	2.575427E-17
1.960000E+03	4.550675E-17	2.616448E-17
2.000000E+03	4.663057E-17	2.657500E-17
2.040000E+03	4.778029E-17	2.698448E-17
2.080000E+03	4.897230E-17	2.740134E-17
2.120000E+03	5.018814E-17	2.781432E-17
2.160000E+03	5.144451E-17	2.823181E-17
2.200000E+03	5.273124E-17	2.864723E-17
2.240000E+03	5.405622E-17	2.906393E-17
2.280000E+03	5.542777E-17	2.948527E-17
2.320000E+03	5.683515E-17	2.990436E-17
2.360000E+03	5.829623E-17	3.032943E-17
2.400000E+03	5.979996E-17	3.075337E-17
2.440000E+03	6.135456E-17	3.117914E-17
2.480000E+03	6.296838E-17	3.160949E-17
2.520000E+03	6.463967E-17	3.204194E-17
2.560000E+03	6.637662E-17	3.247888E-17
2.600000E+03	6.818731E-17	3.292241E-17
2.640000E+03	7.007964E-17	3.337429E-17
2.680000E+03	7.205067E-17	3.383092E-17
2.720000E+03	7.411794E-17	3.429823E-17
2.760000E+03	7.628795E-17	3.477657E-17
2.800000E+03	7.856640E-17	3.526571E-17
2.840000E+03	8.095790E-17	3.576471E-17
2.880000E+03	8.347667E-17	3.627662E-17
2.920000E+03	8.613546E-17	3.680339E-17
2.960000E+03	8.895604E-17	3.735029E-17
3.000000E+03	9.192562E-17	3.790764E-17
3.010000E+03	9.269127E-17	3.804810E-17
3.020000E+03	9.348188E-17	3.819528E-17
3.030000E+03	9.426483E-17	3.833576E-17
3.040000E+03	9.507216E-17	3.848253E-17
3.050000E+03	9.589279E-17	3.863097E-17
3.060000E+03	9.671561E-17	3.877655E-17
3.070000E+03	9.755116E-17	3.892343E-17
3.080000E+03	9.840973E-17	3.907562E-17
3.090000E+03	9.926952E-17	3.922435E-17
3.100000E+03	1.001409E-16	3.937367E-17
3.110000E+03	1.010342E-16	3.952757E-17
3.120000E+03	1.019276E-16	3.967738E-17
3.130000E+03	1.028421E-16	3.983122E-17
3.140000E+03	1.037772E-16	3.998878E-17
3.150000E+03	1.047112E-16	4.014157E-17
3.160000E+03	1.056649E-16	4.029754E-17
3.170000E+03	1.066271E-16	4.045231E-17
3.180000E+03	1.076082E-16	4.060969E-17
3.190000E+03	1.086073E-16	4.076928E-17
3.200000E+03	1.096135E-16	4.092686E-17
3.210000E+03	1.106368E-16	4.108605E-17
3.220000E+03	1.116765E-16	4.124653E-17
3.230000E+03	1.127321E-16	4.140798E-17
3.240000E+03	1.137926E-16	4.156622E-17
3.250000E+03	1.148781E-16	4.172857E-17
3.260000E+03	1.159672E-16	4.188710E-17
3.270000E+03	1.170800E-16	4.204902E-17
3.280000E+03	1.182055E-16	4.221017E-17
3.290000E+03	1.193430E-16	4.237027E-17
3.300000E+03	1.205020E-16	4.253255E-17
3.310000E+03	1.216715E-16	4.269302E-17
3.320000E+03	1.228610E-16	4.285487E-17
3.330000E+03	1.240696E-16	4.301770E-17
3.340000E+03	1.252864E-16	4.317760E-17
3.350000E+03	1.265207E-16	4.333766E-17
3.360000E+03	1.277717E-16	4.349751E-17
3.370000E+03	1.290385E-16	4.365669E-17
3.380000E+03	1.303201E-16	4.381480E-17
3.390000E+03	1.316258E-16	4.397475E-17
3.400000E+03	1.329445E-16	4.413275E-17
3.410000E+03	1.342752E-16	4.428838E-17
3.420000E+03	1.356271E-16	4.444450E-17
3.430000E+03	1.369891E-16	4.459739E-17
3.440000E+03	1.383702E-16	4.474986E-17
3.450000E+03	1.397694E-16	4.490145E-17
3.460000E+03	1.411856E-16	4.505166E-17
3.470000E+03	1.426178E-16	4.520008E-17
3.480000E+03	1.440748E-16	4.534929E-17
3.490000E+03	1.455364E-16	4.549289E-17
3.500000E+03	1.470212E-16	4.563653E-17
3.510000E+03	1.485286E-16	4.577988E-17
3.520000E+03	1.500489E-16	4.591984E-17
3.530000E+03	1.516012E-16	4.606204E-17
3.540000E+03	1.531673E-16	4.620081E-17
3.550000E+03	1.547575E-16	4.633912E-17
3.560000E+03	1.563824E-16	4.647996E-17
3.570000E+03	1.580252E-16	4.661807E-17
3.580000E+03	1.597154E-16	4.676198E-17
3.590000E+03	1.614368E-16	4.690668E-17
3.600000E+03	1.632011E-16	4.705529E-17
3.610000E+03	1.650024E-16	4.720580E-17
3.620000E+03	1.668618E-16	4.736396E-17
3.630000E+03	1.687741E-16	4.752790E-17
3.640000E+03	1.707439E-16	4.769849E-17
3.650000E+03	1.727760E-16	4.787669E-17
3.660000E+03	1.748933E-16	4.806834E-17
3.670000E+03	1.770842E-16	4.826971E-17
3.680000E+03	1.793553E-16	4.848201E-17
3.690000E+03	1.817304E-16	4.871109E-17
3.700000E+03	1.842077E-16	4.895576E-17
3.710000E+03	1.867945E-16	4.921718E-17
3.720000E+03	1.895063E-16	4.949864E-17
3.730000E+03	1.923418E-16	4.979892E-17
3.740000E+03	1.953163E-16	5.012111E-17
3.750000E+03	1.984282E-16	5.046377E-17
3.760000E+03	2.017009E-16	5.083185E-17
3.770000E+03	2.051320E-16	5.122361E-17
3.780000E+03	2.087185E-16	5.163721E-17
3.790000E+03	2.124820E-16	5.207683E-17
3.800000E+03	2.164264E-16	5.254213E-17
3.810000E+03	2.205456E-16	5.303037E-17
3.820000E+03	2.248405E-16	5.354053E-17
3.830000E+03	2.293271E-16	5.407513E-17
3.840000E+03	2.339854E-16	5.462813E-17
3.850000E+03	2.388102E-16	5.519710E-17
3.860000E+03	2.438102E-16	5.578282E-17
3.870000E+03	2.489661E-16	5.637970E-17
3.880000E+03	2.542643E-16	5.698351E-17
3.890000E+03	2.596875E-16	5.758942E-17
3.900000E+03	2.652152E-16	5.819204E-17
3.910000E+03	2.708234E-16	5.878538E-17
3.920000E+03	2.764848E-16	5.936297E-17
3.930000E+03	2.821777E-16	5.991983E-17
3.940000E+03	2.878518E-16	6.044514E-17
3.950000E+03	2.934900E-16	6.093547E-17
3.960000E+03	2.990480E-16	6.138198E-17
3.970000E+03	3.044909E-16	6.177815E-17
3.980000E+03	3.097761E-16	6.211622E-17
3.990000E+03	3.148888E-16	6.239441E-17
4.000000E+03	3.197824E-16	6.260480E-17
4.010000E+03	3.244392E-16	6.274556E-17
4.020000E+03	3.288277E-16	6.281234E-17
4.030000E+03	3.329372E-16	6.280507E-17
4.040000E+03	3.367440E-16	6.272134E-17
4.050000E+03	3.402369E-16	6.256127E-17
4.060000E+03	3.434011E-16	6.232445E-17
4.070000E+03	3.462432E-16	6.201444E-17
4.080000E+03	3.487500E-16	6.163124E-17
4.090000E+03	3.509460E-16	6.118155E-17
4.100000E+03	3.528357E-16	6.066844E-17
4.110000E+03	3.544205E-16	6.009436E-17
4.120000E+03	3.557293E-16	5.946637E-17
4.130000E+03	3.567858E-16	5.879040E-17
4.140000E+03	3.576082E-16	5.807127E-17
4.150000E+03	3.582240E-16	5.731511E-17
4.160000E+03	3.586541E-16	5.652674E-17
4.170000E+03	3.589203E-16	5.571095E-17
4.180000E+03	3.590591E-16	5.487451E-17
4.190000E+03	3.590921E-16	5.402167E-17
4.200000E+03	3.590408E-16	5.315642E-17
4.210000E+03	3.589335E-16	5.228354E-17
4.220000E+03	3.587907E-16	5.140643E-17
4.230000E+03	3.586394E-16	5.052923E-17
4.240000E+03	3.584990E-16	4.965471E-17
4.250000E+03	3.583950E-16	4.878635E-17
4.260000E+03	3.583455E-16	4.792638E-17
4.270000E+03	3.583684E-16	4.707683E-17
4.280000E+03	3.584936E-16	4.624111E-17
4.290000E+03	3.587379E-16	4.542067E-17
4.300000E+03	3.591179E-16	4.461683E-17
4.310000E+03	3.596505E-16	4.383073E-17
4.320000E+03	3.603640E-16	4.306476E-17
4.330000E+03	3.612749E-16	4.231966E-17
4.340000E+03	3.624003E-16	4.159609E-17
4.350000E+03	3.637688E-16	4.089582E-17
4.360000E+03	3.653922E-16	4.021856E-17
4.370000E+03	3.673000E-16	3.956577E-17
4.380000E+03	3.695102E-16	3.893747E-17
4.390000E+03	3.720468E-16	3.833414E-17
4.400000E+03	3.749334E-16	3.775600E-17
4.410000E+03	3.781874E-16	3.720244E-17
4.420000E+03	3.818413E-16	3.667420E-17
4.430000E+03	3.859039E-16	3.616947E-17
4.440000E+03	3.903918E-16	3.568712E-17
4.450000E+03	3.953241E-16	3.522612E-17
4.460000E+03	4.006984E-16	3.478340E-17
4.470000E+03	4.065237E-16	3.435693E-17
4.480000E+03	4.127913E-16	3.394316E-17
4.490000E+03	4.194904E-16	3.353848E-17
4.500000E+03	4.265898E-16	3.313787E-17
4.510000E+03	4.340655E-16	3.273713E-17
4.520000E+03	4.418765E-16	3.233110E-17
4.530000E+03	4.499583E-16	3.191337E-17
4.540000E+03	4.582460E-16	3.147808E-17
4.550000E+03	4.666677E-16	3.101960E-17
4.560000E+03	4.751241E-16	3.053114E-17
4.570000E+03	4.835247E-16	3.000744E-17
4.580000E+03	4.917681E-16	2.944339E-17
4.590000E+03	4.997388E-16	2.883399E-17
4.600000E+03	5.073489E-16	2.817681E-17
4.610000E+03	5.144926E-16	2.746927E-17
4.620000E+03	5.210937E-16	2.671121E-17
4.630000E+03	5.270843E-16	2.590356E-17
4.640000E+03	5.324127E-16	2.504863E-17
4.650000E+03	5.370441E-16	2.414990E-17
4.660000E+03	5.409532E-16	2.321162E-17
4.670000E+03	5.441485E-16	2.223962E-17
4.680000E+03	5.466269E-16	2.123928E-17
4.690000E+03	5.484223E-16	2.021743E-17
4.700000E+03	5.495556E-16	1.918025E-17
4.710000E+03	5.500769E-16	1.813485E-17
4.720000E+03	5.500412E-16	1.708825E-17
4.730000E+03	5.495007E-16	1.604724E-17
4.740000E+03	5.485303E-16	1.501910E-17
4.750000E+03	5.472068E-16	1.401105E-17
4.760000E+03	5.456137E-16	1.303049E-17
4.770000E+03	5.438318E-16	1.208492E-17
4.780000E+03	5.419551E-16	1.118253E-17
4.790000E+03	5.400568E-16	1.033178E-17
4.800000E+03	5.382482E-16	9.542892E-18
4.810000E+03	5.366058E-16	8.826745E-18
4.820000E+03	5.352192E-16	8.195997E-18
4.830000E+03	5.341678E-16	7.664544E-18
4.840000E+03	5.335383E-16	7.247039E-18
4.850000E+03	5.333837E-16	6.956741E-18
4.860000E+03	5.337798E-16	6.803940E-18
4.870000E+03	5.347786E-16	6.790350E-18
4.880000E+03	5.364290E-16	6.905609E-18
4.890000E+03	5.387642E-16	7.133714E-18
4.900000E+03	5.418108E-16	7.456655E-18
4.910000E+03	5.455686E-16	7.856602E-18
4.920000E+03	5.500371E-16	8.317785E-18
4.930000E+03	5.551840E-16	8.826601E-18
4.940000E+03	5.609548E-16	9.371615E-18
4.950000E+03	5.672722E-16	9.943115E-18
4.960000E+03	5.740360E-16	1.053258E-17
4.970000E+03	5.811313E-16	1.113232E-17
4.980000E+03	5.884195E-16	1.173493E-17
4.990000E+03	5.957556E-16	1.233329E-17
5.000000E+03	6.029708E-16	1.292005E-17
5.010000E+03	6.099320E-16	1.348868E-17
5.020000E+03	6.164894E-16	1.403241E-17
5.030000E+03	6.225299E-16	1.454540E-17
5.040000E+03	6.279918E-16	1.502317E-17
5.050000E+03	6.328100E-16	1.546141E-17
5.060000E+03	6.369882E-16	1.585778E-17
5.070000E+03	6.405424E-16	1.621063E-17
5.080000E+03	6.435282E-16	1.651965E-17
5.090000E+03	6.460128E-16	1.678524E-17
5.100000E+03	6.480734E-16	1.700844E-17
5.110000E+03	6.497899E-16	1.719065E-17
5.120000E+03	6.512389E-16	1.733345E-17
5.130000E+03	6.524946E-16	1.743861E-17
5.140000E+03	6.536066E-16	1.750739E-17
5.150000E+03	6.546165E-16	1.754097E-17
5.160000E+03	6.555583E-16	1.754046E-17
5.170000E+03	6.564449E-16	1.750648E-17
5.180000E+03	6.572703E-16	1.743923E-17
5.190000E+03	6.580386E-16	1.733929E-17
5.200000E+03	6.587210E-16	1.720645E-17
5.210000E+03	6.593048E-16	1.704108E-17
5.220000E+03	6.597768E-16	1.684364E-17
5.230000E+03	6.601094E-16	1.661442E-17
5.240000E+03	6.602829E-16	1.635404E-17
5.250000E+03	6.602778E-16	1.606339E-17
5.260000E+03	6.600881E-16	1.574385E-17
5.270000E+03	6.596737E-16	1.539629E-17
5.280000E+03	6.590332E-16	1.502274E-17
5.290000E+03	6.581294E-16	1.462477E-17
5.300000E+03	6.569494E-16	1.420485E-17
5.310000E+03	6.554513E-16	1.376527E-17
5.320000E+03	6.536181E-16	1.330934E-17
5.330000E+03	6.514191E-16	1.284067E-17
5.340000E+03	6.488186E-16	1.236337E-17
5.350000E+03	6.457975E-16	1.188263E-17
5.360000E+03	6.423349E-16	1.140433E-17
5.370000E+03	6.384224E-16	1.093540E-17
5.380000E+03	6.340457E-16	1.048346E-17
5.390000E+03	6.292096E-16	1.005724E-17
5.400000E+03	6.239258E-16	9.666183E-18
5.410000E+03	6.181933E-16	9.319887E-18
5.420000E+03	6.120424E-16	9.028331E-18
5.430000E+03	6.054954E-16	8.800635E-18
5.440000E+03	5.985723E-16	8.644388E-18
5.450000E+03	5.913134E-16	8.565057E-18
5.460000E+03	5.837428E-16	8.561320E-18
5.470000E+03	5.758926E-16	8.624976E-18
5.480000E+03	5.678012E-16	8.746031E-18
5.490000E+03	5.594992E-16	8.913680E-18
5.500000E+03	5.509929E-16	9.116823E-18
5.510000E+03	5.422558E-16	9.344423E-18
5.520000E+03	5.332599E-16	9.586295E-18
5.530000E+03	5.239784E-16	9.833279E-18
5.540000E+03	5.143888E-16	1.007734E-17
5.550000E+03	5.044882E-16	1.031180E-17
5.560000E+03	4.942908E-16	1.053133E-17
5.570000E+03	4.838304E-16	1.073192E-17
5.580000E+03	4.731623E-16	1.091092E-17
5.590000E+03	4.623576E-16	1.106690E-17
5.600000E+03	4.515107E-16	1.119980E-17
5.610000E+03	4.407344E-16	1.131086E-17
5.620000E+03	4.301367E-16	1.140193E-17
5.630000E+03	4.198386E-16	1.147591E-17
5.640000E+03	4.099638E-16	1.153644E-17
5.650000E+03	4.006237E-16	1.158736E-17
5.660000E+03	3.919264E-16	1.163292E-17
5.670000E+03	3.839713E-16	1.167748E-17
5.680000E+03	3.768431E-16	1.172526E-17
5.690000E+03	3.706189E-16	1.178046E-17
5.700000E+03	3.653636E-16	1.184704E-17
5.710000E+03	3.611327E-16	1.192867E-17
5.720000E+03	3.579568E-16	1.202823E-17
5.730000E+03	3.558597E-16	1.214824E-17
5.740000E+03	3.548521E-16	1.229066E-17
5.750000E+03	3.549223E-16	1.245646E-17
5.760000E+03	3.560460E-16	1.264592E-17
5.770000E+03	3.581887E-16	1.285870E-17
5.780000E+03	3.612913E-16	1.309330E-17
5.790000E+03	3.652883E-16	1.334766E-17
5.800000E+03	3.701073E-16	1.361918E-17
5.810000E+03	3.756423E-16	1.390376E-17
5.820000E+03	3.817887E-16	1.419705E-17
5.830000E+03	3.884175E-16	1.449358E-17
5.840000E+03	3.953742E-16	1.478674E-17
5.850000E+03	4.025006E-16	1.506962E-17
5.860000E+03	4.096265E-16	1.533480E-17
5.870000E+03	4.165624E-16	1.557415E-17
5.880000E+03	4.231245E-16	1.577984E-17
5.890000E+03	4.291415E-16	1.594467E-17
5.900000E+03	4.344314E-16	1.606131E-17
5.910000E+03	4.388501E-16	1.612414E-17
5.920000E+03	4.422674E-16	1.612847E-17
5.930000E+03	4.445731E-16	1.607072E-17
5.940000E+03	4.457071E-16	1.594961E-17
5.950000E+03	4.456338E-16	1.576512E-17
5.960000E+03	4.443563E-16	1.551902E-17
5.970000E+03	4.419309E-16	1.521523E-17
5.980000E+03	4.384379E-16	1.485873E-17
5.990000E+03	4.339959E-16	1.445590E-17
6.000000E+03	4.287511E-16	1.401406E-17
6.010000E+03	4.228702E-16	1.354101E-17
6.020000E+03	4.165327E-16	1.304472E-17
6.030000E+03	4.099264E-16	1.253308E-17
6.040000E+03	4.032248E-16	1.201306E-17
6.050000E+03	3.966129E-16	1.149147E-17
6.060000E+03	3.902430E-16	1.097362E-17
6.070000E+03	3.842682E-16	1.046429E-17
6.080000E+03	3.788095E-16	9.966812E-18
6.090000E+03	3.739906E-16	9.484077E-18
6.100000E+03	3.699012E-16	9.017584E-18
6.110000E+03	3.666354E-16	8.568503E-18
6.120000E+03	3.642570E-16	8.136861E-18
6.130000E+03	3.628341E-16	7.722452E-18
6.140000E+03	3.624154E-16	7.324352E-18
6.150000E+03	3.630502E-16	6.941435E-18
6.160000E+03	3.647785E-16	6.572249E-18
6.170000E+03	3.676249E-16	6.215037E-18
6.180000E+03	3.716247E-16	5.868327E-18
6.190000E+03	3.768023E-16	5.530703E-18
6.200000E+03	3.831936E-16	5.201349E-18
6.210000E+03	3.908149E-16	4.879882E-18
6.220000E+03	3.996855E-16	4.567081E-18
6.230000E+03	4.098057E-16	4.265188E-18
6.240000E+03	4.211772E-16	3.978921E-18
6.250000E+03	4.337373E-16	3.715827E-18
6.260000E+03	4.473348E-16	3.487355E-18
6.270000E+03	4.617970E-16	3.310132E-18
6.280000E+03	4.769187E-16	3.204861E-18
6.290000E+03	4.924989E-16	3.192695E-18
6.300000E+03	5.083026E-16	3.282575E-18
6.310000E+03	5.241111E-16	3.462976E-18
6.320000E+03	5.397136E-16	3.713689E-18
6.330000E+03	5.549034E-16	4.012048E-18
6.340000E+03	5.694947E-16	4.336787E-18
6.350000E+03	5.833473E-16	4.669839E-18
6.360000E+03	5.963371E-16	4.996379E-18
6.370000E+03	6.083821E-16	5.304739E-18
6.380000E+03	6.194380E-16	5.586004E-18
6.390000E+03	6.295026E-16	5.833732E-18
6.400000E+03	6.385932E-16	6.043502E-18
6.410000E+03	6.467726E-16	6.212986E-18
6.420000E+03	6.540961E-16	6.341320E-18
6.430000E+03	6.606570E-16	6.429470E-18
6.440000E+03	6.665382E-16	6.479735E-18
6.450000E+03	6.718125E-16	6.495772E-18
6.460000E+03	6.765644E-16	6.482885E-18
6.470000E+03	6.808525E-16	6.447781E-18
6.480000E+03	6.847141E-16	6.398775E-18
6.490000E+03	6.881949E-16	6.346211E-18
6.500000E+03	6.913077E-16	6.302122E-18
6.510000E+03	6.940806E-16	6.280534E-18
6.520000E+03	6.965105E-16	6.296545E-18
6.530000E+03	6.986430E-16	6.366141E-18
6.540000E+03	7.004764E-16	6.504009E-18
6.550000E+03	7.020139E-16	6.721421E-18
6.560000E+03	7.032374E-16	7.017180E-18
6.570000E+03	7.041626E-16	7.383242E-18
6.580000E+03	7.047494E-16	7.809382E-18
6.590000E+03	7.049824E-16	8.285150E-18
6.600000E+03	7.048160E-16	8.800036E-18
6.610000E+03	7.041825E-16	9.343881E-18
6.620000E+03	7.030087E-16	9.907178E-18
6.630000E+03	7.012199E-16	1.048110E-17
6.640000E+03	6.987289E-16	1.105725E-17
6.650000E+03	6.954515E-16	1.162773E-17
6.660000E+03	6.913064E-16	1.218505E-17
6.670000E+03	6.862538E-16	1.272281E-17
6.680000E+03	6.802568E-16	1.323497E-17
6.690000E+03	6.733165E-16	1.371660E-17
6.700000E+03	6.654660E-16	1.416382E-17
6.710000E+03	6.567756E-16	1.457409E-17
6.720000E+03	6.473352E-16	1.494583E-17
6.730000E+03	6.372546E-16	1.527859E-17
6.740000E+03	6.266579E-16	1.557292E-17
6.750000E+03	6.156855E-16	1.583043E-17
6.760000E+03	6.044691E-16	1.605320E-17
6.770000E+03	5.931493E-16	1.624415E-17
6.780000E+03	5.818740E-16	1.640703E-17
6.790000E+03	5.707822E-16	1.654592E-17
6.800000E+03	5.600092E-16	1.666531E-17
6.810000E+03	5.496853E-16	1.677002E-17
6.820000E+03	5.399391E-16	1.686522E-17
6.830000E+03	5.308775E-16	1.695576E-17
6.840000E+03	5.226083E-16	1.704679E-17
6.850000E+03	5.152150E-16	1.714288E-17
6.860000E+03	5.087794E-16	1.724871E-17
6.870000E+03	5.033642E-16	1.736836E-17
6.880000E+03	4.990173E-16	1.750546E-17
6.890000E+03	4.957730E-16	1.766309E-17
6.900000E+03	4.936566E-16	1.784393E-17
6.910000E+03	4.926609E-16	1.804937E-17
6.920000E+03	4.927849E-16	1.828081E-17
6.930000E+03	4.939915E-16	1.853814E-17
6.940000E+03	4.962340E-16	1.882060E-17
6.950000E+03	4.994310E-16	1.912587E-17
6.960000E+03	5.034906E-16	1.945090E-17
6.970000E+03	5.082884E-16	1.979111E-17
6.980000E+03	5.136940E-16	2.014137E-17
6.990000E+03	5.195570E-16	2.049552E-17
7.000000E+03	5.257117E-16	2.084652E-17
7.010000E+03	5.319949E-16	2.118724E-17
7.020000E+03	5.382598E-16	2.151108E-17
7.030000E+03	5.443454E-16	2.181076E-17
7.040000E+03	5.501296E-16	2.208054E-17
7.050000E+03	5.555040E-16	2.231526E-17
7.060000E+03	5.604066E-16	2.251171E-17
7.070000E+03	5.647993E-16	2.266771E-17
7.080000E+03	5.686962E-16	2.278335E-17
7.090000E+03	5.721411E-16	2.285998E-17
7.100000E+03	5.752033E-16	2.290009E-17
7.110000E+03	5.779928E-16	2.290784E-17
7.120000E+03	5.806233E-16	2.288757E-17
7.130000E+03	5.832260E-16	2.284424E-17
7.140000E+03	5.859399E-16	2.278307E-17
7.150000E+03	5.888811E-16	2.270821E-17
7.160000E+03	5.921565E-16	2.262335E-17
7.170000E+03	5.958554E-16	2.253131E-17
7.180000E+03	6.000129E-16	2.243271E-17
7.190000E+03	6.046569E-16	2.232781E-17
7.200000E+03	6.097524E-16	2.221449E-17
7.210000E+03	6.152293E-16	2.208939E-17
7.220000E+03	6.209735E-16	2.194777E-17
7.230000E+03	6.268271E-16	2.178363E-17
7.240000E+03	6.325815E-16	2.158968E-17
7.250000E+03	6.380129E-16	2.135876E-17
7.260000E+03	6.428402E-16	2.108259E-17
7.270000E+03	6.467673E-16	2.075339E-17
7.280000E+03	6.494878E-16	2.036421E-17
7.290000E+03	6.506996E-16	1.990945E-17
7.300000E+03	6.501223E-16	1.938545E-17
7.310000E+03	6.475153E-16	1.879101E-17
7.320000E+03	6.426957E-16	1.812777E-17
7.330000E+03	6.355625E-16	1.740061E-17
7.340000E+03	6.260928E-16	1.661723E-17
7.350000E+03	6.143567E-16	1.578812E-17
7.360000E+03	6.005178E-16	1.492616E-17
7.370000E+03	5.848318E-16	1.404603E-17
7.380000E+03	5.676126E-16	1.316300E-17
7.390000E+03	5.492257E-16	1.229242E-17
7.400000E+03	5.300487E-16	1.144862E-17
7.410000E+03	5.104585E-16	1.064448E-17
7.420000E+03	4.908250E-16	9.891340E-18
7.430000E+03	4.714651E-16	9.198092E-18
7.440000E+03	4.526539E-16	8.571597E-18
7.450000E+03	4.346264E-16	8.016834E-18
7.460000E+03	4.175634E-16	7.536772E-18
7.470000E+03	4.016046E-16	7.132728E-18
7.480000E+03	3.868418E-16	6.804321E-18
7.490000E+03	3.733285E-16	6.549558E-18
7.500000E+03	3.610894E-16	6.362830E-18
7.510000E+03	3.501186E-16	6.236225E-18
7.520000E+03	3.403756E-16	6.161756E-18
7.530000E+03	3.318184E-16	6.132205E-18
7.540000E+03	3.243698E-16	6.140611E-18
7.550000E+03	3.179488E-16	6.180826E-18
7.560000E+03	3.124678E-16	6.247386E-18
7.570000E+03	3.078190E-16	6.335114E-18
7.580000E+03	3.039063E-16	6.439606E-18
7.590000E+03	3.006160E-16	6.556487E-18
7.600000E+03	2.978531E-16	6.682055E-18
7.610000E+03	2.955125E-16	6.812569E-18
7.620000E+03	2.935262E-16	6.945258E-18
7.630000E+03	2.918926E-16	7.079072E-18
7.640000E+03	2.906367E-16	7.213844E-18
7.650000E+03	2.897839E-16	7.349641E-18
7.660000E+03	2.893564E-16	7.486615E-18
7.670000E+03	2.893657E-16	7.624759E-18
7.680000E+03	2.898257E-16	7.764183E-18
7.690000E+03	2.907238E-16	7.904313E-18
7.700000E+03	2.920522E-16	8.044655E-18
7.710000E+03	2.937764E-16	8.183924E-18
7.720000E+03	2.958682E-16	8.320922E-18
7.730000E+03	2.982794E-16	8.453796E-18
7.740000E+03	3.009595E-16	8.580536E-18
7.750000E+03	3.038586E-16	8.699063E-18
7.760000E+03	3.069170E-16	8.806953E-18
