#wls	flux	fluxerr
1.600000E+03	2.616799E-17	2.270317E-17
1.640000E+03	2.693853E-17	2.319168E-17
1.680000E+03	2.773463E-17	2.368877E-17
1.720000E+03	2.855631E-17	2.419368E-17
1.760000E+03	2.940356E-17	2.470556E-17
1.800000E+03	3.028177E-17	2.522808E-17
1.840000E+03	3.118549E-17	2.575574E-17
1.880000E+03	3.212016E-17	2.629213E-17
1.920000E+03	3.308578E-17	2.683622E-17
1.960000E+03	3.408219E-17	2.738684E-17
2.000000E+03	3.510910E-17	2.794271E-17
2.040000E+03	3.617258E-17	2.850751E-17
2.080000E+03	3.727251E-17	2.907991E-17
2.120000E+03	3.840854E-17	2.965838E-17
2.160000E+03	3.958719E-17	3.024661E-17
2.200000E+03	4.080124E-17	3.083765E-17
2.240000E+03	4.206419E-17	3.144028E-17
2.280000E+03	4.336130E-17	3.204191E-17
2.320000E+03	4.471364E-17	3.265656E-17
2.360000E+03	4.612097E-17	3.328215E-17
2.400000E+03	4.757503E-17	3.391082E-17
2.440000E+03	4.909026E-17	3.455097E-17
2.480000E+03	5.065785E-17	3.519426E-17
2.520000E+03	5.230043E-17	3.585420E-17
2.560000E+03	5.400873E-17	3.652186E-17
2.600000E+03	5.578918E-17	3.719906E-17
2.640000E+03	5.764796E-17	3.788717E-17
2.680000E+03	5.959089E-17	3.858705E-17
2.720000E+03	6.163207E-17	3.930454E-17
2.760000E+03	6.376779E-17	4.003371E-17
2.800000E+03	6.600210E-17	4.077348E-17
2.840000E+03	6.834675E-17	4.152725E-17
2.880000E+03	7.082150E-17	4.230266E-17
2.920000E+03	7.340938E-17	4.308488E-17
2.960000E+03	7.613597E-17	4.388426E-17
3.000000E+03	7.900750E-17	4.469904E-17
3.010000E+03	7.974951E-17	4.490533E-17
3.020000E+03	8.050339E-17	4.511372E-17
3.030000E+03	8.125992E-17	4.531895E-17
3.040000E+03	8.202781E-17	4.552581E-17
3.050000E+03	8.280684E-17	4.573409E-17
3.060000E+03	8.359661E-17	4.594346E-17
3.070000E+03	8.439688E-17	4.615368E-17
3.080000E+03	8.520732E-17	4.636447E-17
3.090000E+03	8.602771E-17	4.657562E-17
3.100000E+03	8.685760E-17	4.678678E-17
3.110000E+03	8.769666E-17	4.699768E-17
3.120000E+03	8.854457E-17	4.720806E-17
3.130000E+03	8.940100E-17	4.741766E-17
3.140000E+03	9.027443E-17	4.763086E-17
3.150000E+03	9.116448E-17	4.784731E-17
3.160000E+03	9.205285E-17	4.805731E-17
3.170000E+03	9.295706E-17	4.826992E-17
3.180000E+03	9.387652E-17	4.848473E-17
3.190000E+03	9.480197E-17	4.869681E-17
3.200000E+03	9.574186E-17	4.891042E-17
3.210000E+03	9.668671E-17	4.912060E-17
3.220000E+03	9.765382E-17	4.933604E-17
3.230000E+03	9.862496E-17	4.954737E-17
3.240000E+03	9.960840E-17	4.975866E-17
3.250000E+03	1.006036E-16	4.996955E-17
3.260000E+03	1.016100E-16	5.017963E-17
3.270000E+03	1.026359E-16	5.039282E-17
3.280000E+03	1.036630E-16	5.060006E-17
3.290000E+03	1.047082E-16	5.080952E-17
3.300000E+03	1.057622E-16	5.101654E-17
3.310000E+03	1.068330E-16	5.122483E-17
3.320000E+03	1.079113E-16	5.142979E-17
3.330000E+03	1.090050E-16	5.163514E-17
3.340000E+03	1.101048E-16	5.183631E-17
3.350000E+03	1.112186E-16	5.203693E-17
3.360000E+03	1.123457E-16	5.223653E-17
3.370000E+03	1.134853E-16	5.243459E-17
3.380000E+03	1.146366E-16	5.263066E-17
3.390000E+03	1.158073E-16	5.282811E-17
3.400000E+03	1.169796E-16	5.301868E-17
3.410000E+03	1.181696E-16	5.320962E-17
3.420000E+03	1.193681E-16	5.339659E-17
3.430000E+03	1.205826E-16	5.358287E-17
3.440000E+03	1.218039E-16	5.376420E-17
3.450000E+03	1.230394E-16	5.394378E-17
3.460000E+03	1.242964E-16	5.412467E-17
3.470000E+03	1.255576E-16	5.429913E-17
3.480000E+03	1.268304E-16	5.447028E-17
3.490000E+03	1.281139E-16	5.463767E-17
3.500000E+03	1.294157E-16	5.480436E-17
3.510000E+03	1.307270E-16	5.496649E-17
3.520000E+03	1.320477E-16	5.512393E-17
3.530000E+03	1.333861E-16	5.527999E-17
3.540000E+03	1.347428E-16	5.543473E-17
3.550000E+03	1.361186E-16	5.558836E-17
3.560000E+03	1.375148E-16	5.574115E-17
3.570000E+03	1.389408E-16	5.589671E-17
3.580000E+03	1.403827E-16	5.604925E-17
3.590000E+03	1.418582E-16	5.620554E-17
3.600000E+03	1.433620E-16	5.636319E-17
3.610000E+03	1.449042E-16	5.652592E-17
3.620000E+03	1.464879E-16	5.669451E-17
3.630000E+03	1.481165E-16	5.686991E-17
3.640000E+03	1.497940E-16	5.705319E-17
3.650000E+03	1.515248E-16	5.724556E-17
3.660000E+03	1.533215E-16	5.745122E-17
3.670000E+03	1.551821E-16	5.766881E-17
3.680000E+03	1.571200E-16	5.790266E-17
3.690000E+03	1.591341E-16	5.815162E-17
3.700000E+03	1.612383E-16	5.842002E-17
3.710000E+03	1.634463E-16	5.871192E-17
3.720000E+03	1.657503E-16	5.902360E-17
3.730000E+03	1.681716E-16	5.936161E-17
3.740000E+03	1.707096E-16	5.972461E-17
3.750000E+03	1.733778E-16	6.011625E-17
3.760000E+03	1.761828E-16	6.053750E-17
3.770000E+03	1.791233E-16	6.098662E-17
3.780000E+03	1.822195E-16	6.146915E-17
3.790000E+03	1.854620E-16	6.198044E-17
3.800000E+03	1.888695E-16	6.252532E-17
3.810000E+03	1.924382E-16	6.310094E-17
3.820000E+03	1.961774E-16	6.370878E-17
3.830000E+03	2.000804E-16	6.434505E-17
3.840000E+03	2.041530E-16	6.501007E-17
3.850000E+03	2.083848E-16	6.569890E-17
3.860000E+03	2.127847E-16	6.641278E-17
3.870000E+03	2.173300E-16	6.714309E-17
3.880000E+03	2.220244E-16	6.788960E-17
3.890000E+03	2.268467E-16	6.864442E-17
3.900000E+03	2.317723E-16	6.939895E-17
3.910000E+03	2.368023E-16	7.015256E-17
3.920000E+03	2.418898E-16	7.089050E-17
3.930000E+03	2.470218E-16	7.160839E-17
3.940000E+03	2.521671E-16	7.229691E-17
3.950000E+03	2.572774E-16	7.294222E-17
3.960000E+03	2.623409E-16	7.354136E-17
3.970000E+03	2.673080E-16	7.408102E-17
3.980000E+03	2.721452E-16	7.455295E-17
3.990000E+03	2.768281E-16	7.495183E-17
4.000000E+03	2.813197E-16	7.526924E-17
4.010000E+03	2.856012E-16	7.550209E-17
4.020000E+03	2.896495E-16	7.564633E-17
4.030000E+03	2.934299E-16	7.569535E-17
4.040000E+03	2.969419E-16	7.565156E-17
4.050000E+03	3.001665E-16	7.551285E-17
4.060000E+03	3.030968E-16	7.528028E-17
4.070000E+03	3.057310E-16	7.495627E-17
4.080000E+03	3.080722E-16	7.454448E-17
4.090000E+03	3.101215E-16	7.404802E-17
4.100000E+03	3.118995E-16	7.347462E-17
4.110000E+03	3.134169E-16	7.282942E-17
4.120000E+03	3.147019E-16	7.212145E-17
4.130000E+03	3.157652E-16	7.135540E-17
4.140000E+03	3.166333E-16	7.053937E-17
4.150000E+03	3.173405E-16	6.968282E-17
4.160000E+03	3.179016E-16	6.879059E-17
4.170000E+03	3.183579E-16	6.787293E-17
4.180000E+03	3.187178E-16	6.693269E-17
4.190000E+03	3.190150E-16	6.597784E-17
4.200000E+03	3.192756E-16	6.501434E-17
4.210000E+03	3.195188E-16	6.404649E-17
4.220000E+03	3.197628E-16	6.307810E-17
4.230000E+03	3.200367E-16	6.211491E-17
4.240000E+03	3.203451E-16	6.115758E-17
4.250000E+03	3.207209E-16	6.021206E-17
4.260000E+03	3.211732E-16	5.927946E-17
4.270000E+03	3.217218E-16	5.836273E-17
4.280000E+03	3.223805E-16	5.746355E-17
4.290000E+03	3.231634E-16	5.658340E-17
4.300000E+03	3.240846E-16	5.572367E-17
4.310000E+03	3.251688E-16	5.488731E-17
4.320000E+03	3.264205E-16	5.407369E-17
4.330000E+03	3.278608E-16	5.328473E-17
4.340000E+03	3.295065E-16	5.252152E-17
4.350000E+03	3.313758E-16	5.178508E-17
4.360000E+03	3.334880E-16	5.107647E-17
4.370000E+03	3.358642E-16	5.039673E-17
4.380000E+03	3.385219E-16	4.974617E-17
4.390000E+03	3.414897E-16	4.912647E-17
4.400000E+03	3.447823E-16	4.853706E-17
4.410000E+03	3.484347E-16	4.797997E-17
4.420000E+03	3.524659E-16	4.745472E-17
4.430000E+03	3.568940E-16	4.696047E-17
4.440000E+03	3.617391E-16	4.649650E-17
4.450000E+03	3.670277E-16	4.606265E-17
4.460000E+03	3.727609E-16	4.565541E-17
4.470000E+03	3.789534E-16	4.527291E-17
4.480000E+03	3.856067E-16	4.491163E-17
4.490000E+03	3.927122E-16	4.456697E-17
4.500000E+03	4.002454E-16	4.423271E-17
4.510000E+03	4.081782E-16	4.390264E-17
4.520000E+03	4.164687E-16	4.356950E-17
4.530000E+03	4.250429E-16	4.322332E-17
4.540000E+03	4.338265E-16	4.285509E-17
4.550000E+03	4.427236E-16	4.245462E-17
4.560000E+03	4.516292E-16	4.201211E-17
4.570000E+03	4.604161E-16	4.151700E-17
4.580000E+03	4.689609E-16	4.096060E-17
4.590000E+03	4.771324E-16	4.033501E-17
4.600000E+03	4.848034E-16	3.963418E-17
4.610000E+03	4.918504E-16	3.885380E-17
4.620000E+03	4.981835E-16	3.799351E-17
4.630000E+03	5.037154E-16	3.705413E-17
4.640000E+03	5.083883E-16	3.603952E-17
4.650000E+03	5.121738E-16	3.495615E-17
4.660000E+03	5.150595E-16	3.381180E-17
4.670000E+03	5.170588E-16	3.261603E-17
4.680000E+03	5.181896E-16	3.137848E-17
4.690000E+03	5.184967E-16	3.011017E-17
4.700000E+03	5.180379E-16	2.882240E-17
4.710000E+03	5.168824E-16	2.752652E-17
4.720000E+03	5.151098E-16	2.623380E-17
4.730000E+03	5.128093E-16	2.495529E-17
4.740000E+03	5.100843E-16	2.370200E-17
4.750000E+03	5.070446E-16	2.248446E-17
4.760000E+03	5.038104E-16	2.131291E-17
4.770000E+03	5.005091E-16	2.019716E-17
4.780000E+03	4.972551E-16	1.914584E-17
4.790000E+03	4.941375E-16	1.816619E-17
4.800000E+03	4.912484E-16	1.726532E-17
4.810000E+03	4.886534E-16	1.644925E-17
4.820000E+03	4.864359E-16	1.572452E-17
4.830000E+03	4.846743E-16	1.509724E-17
4.840000E+03	4.834318E-16	1.457274E-17
4.850000E+03	4.827869E-16	1.415625E-17
4.860000E+03	4.827959E-16	1.385159E-17
4.870000E+03	4.835176E-16	1.366097E-17
4.880000E+03	4.850072E-16	1.358119E-17
4.890000E+03	4.872985E-16	1.360592E-17
4.900000E+03	4.904118E-16	1.372776E-17
4.910000E+03	4.943668E-16	1.393902E-17
4.920000E+03	4.991481E-16	1.423106E-17
4.930000E+03	5.047280E-16	1.459516E-17
4.940000E+03	5.110425E-16	1.502200E-17
4.950000E+03	5.180110E-16	1.550221E-17
4.960000E+03	5.255253E-16	1.602602E-17
4.970000E+03	5.334395E-16	1.658285E-17
4.980000E+03	5.416001E-16	1.716207E-17
4.990000E+03	5.498184E-16	1.775211E-17
5.000000E+03	5.579017E-16	1.834126E-17
5.010000E+03	5.656643E-16	1.891807E-17
5.020000E+03	5.729379E-16	1.947171E-17
5.030000E+03	5.795784E-16	1.999231E-17
5.040000E+03	5.854761E-16	2.047139E-17
5.050000E+03	5.905854E-16	2.090302E-17
5.060000E+03	5.948905E-16	2.128279E-17
5.070000E+03	5.984303E-16	2.160874E-17
5.080000E+03	6.012712E-16	2.188045E-17
5.090000E+03	6.035029E-16	2.209889E-17
5.100000E+03	6.052337E-16	2.226624E-17
5.110000E+03	6.065624E-16	2.238477E-17
5.120000E+03	6.075950E-16	2.245736E-17
5.130000E+03	6.084204E-16	2.248659E-17
5.140000E+03	6.091118E-16	2.247469E-17
5.150000E+03	6.097313E-16	2.242364E-17
5.160000E+03	6.103099E-16	2.233443E-17
5.170000E+03	6.108668E-16	2.220773E-17
5.180000E+03	6.114117E-16	2.204397E-17
5.190000E+03	6.119354E-16	2.184303E-17
5.200000E+03	6.124152E-16	2.160445E-17
5.210000E+03	6.128425E-16	2.132841E-17
5.220000E+03	6.131771E-16	2.101419E-17
5.230000E+03	6.134163E-16	2.066257E-17
5.240000E+03	6.135340E-16	2.027375E-17
5.250000E+03	6.135054E-16	1.984821E-17
5.260000E+03	6.133195E-16	1.938720E-17
5.270000E+03	6.129586E-16	1.889203E-17
5.280000E+03	6.124043E-16	1.836436E-17
5.290000E+03	6.116357E-16	1.780614E-17
5.300000E+03	6.106222E-16	1.721954E-17
5.310000E+03	6.093421E-16	1.660754E-17
5.320000E+03	6.077649E-16	1.597352E-17
5.330000E+03	6.058520E-16	1.532141E-17
5.340000E+03	6.035780E-16	1.465637E-17
5.350000E+03	6.009141E-16	1.398449E-17
5.360000E+03	5.978371E-16	1.331315E-17
5.370000E+03	5.943295E-16	1.265118E-17
5.380000E+03	5.903805E-16	1.200895E-17
5.390000E+03	5.859860E-16	1.139852E-17
5.400000E+03	5.811538E-16	1.083363E-17
5.410000E+03	5.758917E-16	1.032923E-17
5.420000E+03	5.702178E-16	9.901058E-18
5.430000E+03	5.641486E-16	9.564396E-18
5.440000E+03	5.577082E-16	9.332671E-18
5.450000E+03	5.509214E-16	9.215555E-18
5.460000E+03	5.438127E-16	9.213733E-18
5.470000E+03	5.364061E-16	9.314994E-18
5.480000E+03	5.287193E-16	9.502616E-18
5.490000E+03	5.207725E-16	9.758473E-18
5.500000E+03	5.125669E-16	1.006435E-17
5.510000E+03	5.040801E-16	1.040290E-17
5.520000E+03	4.952662E-16	1.075813E-17
5.530000E+03	4.861095E-16	1.111662E-17
5.540000E+03	4.765885E-16	1.146679E-17
5.550000E+03	4.666921E-16	1.179899E-17
5.560000E+03	4.564378E-16	1.210584E-17
5.570000E+03	4.458651E-16	1.238202E-17
5.580000E+03	4.350288E-16	1.262392E-17
5.590000E+03	4.240214E-16	1.283030E-17
5.600000E+03	4.129481E-16	1.300155E-17
5.610000E+03	4.019341E-16	1.313985E-17
5.620000E+03	3.911133E-16	1.324881E-17
5.630000E+03	3.806223E-16	1.333314E-17
5.640000E+03	3.705881E-16	1.339817E-17
5.650000E+03	3.611506E-16	1.345046E-17
5.660000E+03	3.524225E-16	1.349630E-17
5.670000E+03	3.445147E-16	1.354238E-17
5.680000E+03	3.375293E-16	1.359552E-17
5.690000E+03	3.315502E-16	1.366205E-17
5.700000E+03	3.266526E-16	1.374813E-17
5.710000E+03	3.229027E-16	1.385958E-17
5.720000E+03	3.203507E-16	1.400151E-17
5.730000E+03	3.190296E-16	1.417812E-17
5.740000E+03	3.189633E-16	1.439299E-17
5.750000E+03	3.201524E-16	1.464833E-17
5.760000E+03	3.225879E-16	1.494557E-17
5.770000E+03	3.262430E-16	1.528487E-17
5.780000E+03	3.310752E-16	1.566522E-17
5.790000E+03	3.370227E-16	1.608421E-17
5.800000E+03	3.440101E-16	1.653830E-17
5.810000E+03	3.519360E-16	1.702224E-17
5.820000E+03	3.606711E-16	1.752896E-17
5.830000E+03	3.700521E-16	1.804932E-17
5.840000E+03	3.798904E-16	1.857259E-17
5.850000E+03	3.899673E-16	1.908630E-17
5.860000E+03	4.000230E-16	1.957584E-17
5.870000E+03	4.098033E-16	2.002686E-17
5.880000E+03	4.190261E-16	2.042383E-17
5.890000E+03	4.274282E-16	2.075246E-17
5.900000E+03	4.347397E-16	2.099866E-17
5.910000E+03	4.407427E-16	2.115149E-17
5.920000E+03	4.452302E-16	2.120129E-17
5.930000E+03	4.480688E-16	2.114278E-17
5.940000E+03	4.491539E-16	2.097285E-17
5.950000E+03	4.484644E-16	2.069315E-17
5.960000E+03	4.460303E-16	2.030833E-17
5.970000E+03	4.419484E-16	1.982667E-17
5.980000E+03	4.363737E-16	1.925938E-17
5.990000E+03	4.295108E-16	1.861990E-17
6.000000E+03	4.215971E-16	1.792297E-17
6.010000E+03	4.128980E-16	1.718404E-17
6.020000E+03	4.036924E-16	1.641850E-17
6.030000E+03	3.942438E-16	1.564025E-17
6.040000E+03	3.848127E-16	1.486214E-17
6.050000E+03	3.756290E-16	1.409481E-17
6.060000E+03	3.668951E-16	1.334680E-17
6.070000E+03	3.587911E-16	1.262487E-17
6.080000E+03	3.514569E-16	1.193337E-17
6.090000E+03	3.450157E-16	1.127526E-17
6.100000E+03	3.395603E-16	1.065171E-17
6.110000E+03	3.351637E-16	1.006261E-17
6.120000E+03	3.318869E-16	9.506969E-18
6.130000E+03	3.297758E-16	8.982880E-18
6.140000E+03	3.288718E-16	8.487976E-18
6.150000E+03	3.292178E-16	8.019668E-18
6.160000E+03	3.308417E-16	7.574822E-18
6.170000E+03	3.337940E-16	7.150802E-18
6.180000E+03	3.381205E-16	6.744914E-18
6.190000E+03	3.438520E-16	6.354469E-18
6.200000E+03	3.510126E-16	5.977335E-18
6.210000E+03	3.596372E-16	5.612701E-18
6.220000E+03	3.697495E-16	5.261296E-18
6.230000E+03	3.813577E-16	4.926276E-18
6.240000E+03	3.944560E-16	4.614518E-18
6.250000E+03	4.089587E-16	4.337415E-18
6.260000E+03	4.247007E-16	4.112567E-18
6.270000E+03	4.414602E-16	3.964318E-18
6.280000E+03	4.589588E-16	3.920846E-18
6.290000E+03	4.769079E-16	4.004899E-18
6.300000E+03	4.949796E-16	4.212538E-18
6.310000E+03	5.128440E-16	4.521310E-18
6.320000E+03	5.301864E-16	4.901995E-18
6.330000E+03	5.467115E-16	5.324744E-18
6.340000E+03	5.621621E-16	5.762588E-18
6.350000E+03	5.763310E-16	6.192683E-18
6.360000E+03	5.890695E-16	6.596439E-18
6.370000E+03	6.002920E-16	6.959291E-18
6.380000E+03	6.099812E-16	7.270453E-18
6.390000E+03	6.181587E-16	7.522304E-18
6.400000E+03	6.249205E-16	7.710577E-18
6.410000E+03	6.303739E-16	7.833405E-18
6.420000E+03	6.346771E-16	7.891622E-18
6.430000E+03	6.379675E-16	7.887737E-18
6.440000E+03	6.404220E-16	7.826603E-18
6.450000E+03	6.421692E-16	7.714345E-18
6.460000E+03	6.433484E-16	7.559215E-18
6.470000E+03	6.440745E-16	7.371419E-18
6.480000E+03	6.444377E-16	7.163504E-18
6.490000E+03	6.445276E-16	6.951107E-18
6.500000E+03	6.444102E-16	6.753101E-18
6.510000E+03	6.441612E-16	6.592065E-18
6.520000E+03	6.438528E-16	6.493517E-18
6.530000E+03	6.435566E-16	6.484171E-18
6.540000E+03	6.433062E-16	6.588505E-18
6.550000E+03	6.430884E-16	6.821918E-18
6.560000E+03	6.428762E-16	7.177708E-18
6.570000E+03	6.426344E-16	7.639448E-18
6.580000E+03	6.423312E-16	8.188702E-18
6.590000E+03	6.419068E-16	8.807129E-18
6.600000E+03	6.412787E-16	9.477737E-18
6.610000E+03	6.403748E-16	1.018568E-17
6.620000E+03	6.390714E-16	1.091716E-17
6.630000E+03	6.372590E-16	1.165999E-17
6.640000E+03	6.348071E-16	1.240259E-17
6.650000E+03	6.315858E-16	1.313406E-17
6.660000E+03	6.274851E-16	1.384430E-17
6.670000E+03	6.224050E-16	1.452368E-17
6.680000E+03	6.163011E-16	1.516417E-17
6.690000E+03	6.091558E-16	1.575875E-17
6.700000E+03	6.009884E-16	1.630187E-17
6.710000E+03	5.918734E-16	1.679007E-17
6.720000E+03	5.819132E-16	1.722154E-17
6.730000E+03	5.712362E-16	1.759611E-17
6.740000E+03	5.600010E-16	1.791555E-17
6.750000E+03	5.483505E-16	1.818216E-17
6.760000E+03	5.364511E-16	1.839998E-17
6.770000E+03	5.244641E-16	1.857381E-17
6.780000E+03	5.125490E-16	1.870931E-17
6.790000E+03	5.008679E-16	1.881304E-17
6.800000E+03	4.895664E-16	1.889171E-17
6.810000E+03	4.787946E-16	1.895284E-17
6.820000E+03	4.686822E-16	1.900373E-17
6.830000E+03	4.593648E-16	1.905238E-17
6.840000E+03	4.509437E-16	1.910576E-17
6.850000E+03	4.435284E-16	1.917142E-17
6.860000E+03	4.371939E-16	1.925563E-17
6.870000E+03	4.320220E-16	1.936500E-17
6.880000E+03	4.280647E-16	1.950485E-17
6.890000E+03	4.253653E-16	1.967995E-17
6.900000E+03	4.239575E-16	1.989450E-17
6.910000E+03	4.238490E-16	2.015125E-17
6.920000E+03	4.250345E-16	2.045204E-17
6.930000E+03	4.274922E-16	2.079757E-17
6.940000E+03	4.311639E-16	2.118636E-17
6.950000E+03	4.359728E-16	2.161561E-17
6.960000E+03	4.418016E-16	2.208001E-17
6.970000E+03	4.485160E-16	2.257294E-17
6.980000E+03	4.559509E-16	2.308575E-17
6.990000E+03	4.639079E-16	2.360771E-17
7.000000E+03	4.722009E-16	2.412830E-17
7.010000E+03	4.806065E-16	2.463484E-17
7.020000E+03	4.889135E-16	2.511507E-17
7.030000E+03	4.969227E-16	2.555726E-17
7.040000E+03	5.044666E-16	2.595131E-17
7.050000E+03	5.114022E-16	2.628854E-17
7.060000E+03	5.176460E-16	2.656349E-17
7.070000E+03	5.231567E-16	2.677309E-17
7.080000E+03	5.279487E-16	2.691740E-17
7.090000E+03	5.321110E-16	2.700045E-17
7.100000E+03	5.357613E-16	2.702789E-17
7.110000E+03	5.390630E-16	2.700769E-17
7.120000E+03	5.422080E-16	2.694917E-17
7.130000E+03	5.453970E-16	2.686185E-17
7.140000E+03	5.488482E-16	2.675580E-17
7.150000E+03	5.527645E-16	2.663988E-17
7.160000E+03	5.573218E-16	2.652111E-17
7.170000E+03	5.626723E-16	2.640484E-17
7.180000E+03	5.689350E-16	2.629430E-17
7.190000E+03	5.761655E-16	2.618926E-17
7.200000E+03	5.843726E-16	2.608702E-17
7.210000E+03	5.934978E-16	2.598165E-17
7.220000E+03	6.034422E-16	2.586549E-17
7.230000E+03	6.140081E-16	2.572696E-17
7.240000E+03	6.249499E-16	2.555316E-17
7.250000E+03	6.359342E-16	2.532870E-17
7.260000E+03	6.465680E-16	2.503738E-17
7.270000E+03	6.564102E-16	2.466318E-17
7.280000E+03	6.649540E-16	2.419007E-17
7.290000E+03	6.717077E-16	2.360554E-17
7.300000E+03	6.761557E-16	2.289932E-17
7.310000E+03	6.778504E-16	2.206682E-17
7.320000E+03	6.764046E-16	2.110859E-17
7.330000E+03	6.715606E-16	2.003209E-17
7.340000E+03	6.631849E-16	1.885081E-17
7.350000E+03	6.513224E-16	1.758476E-17
7.360000E+03	6.361605E-16	1.625835E-17
7.370000E+03	6.180676E-16	1.490009E-17
7.380000E+03	5.975273E-16	1.353978E-17
7.390000E+03	5.751046E-16	1.220681E-17
7.400000E+03	5.513864E-16	1.092834E-17
7.410000E+03	5.269782E-16	9.729228E-18
7.420000E+03	5.024334E-16	8.630733E-18
7.430000E+03	4.782441E-16	7.650946E-18
7.440000E+03	4.548316E-16	6.805050E-18
7.450000E+03	4.325376E-16	6.105227E-18
7.460000E+03	4.116129E-16	5.559765E-18
7.470000E+03	3.922301E-16	5.171559E-18
7.480000E+03	3.744983E-16	4.935763E-18
7.490000E+03	3.584569E-16	4.833400E-18
7.500000E+03	3.441018E-16	4.837232E-18
7.510000E+03	3.313943E-16	4.921002E-18
7.520000E+03	3.202616E-16	5.062430E-18
7.530000E+03	3.106048E-16	5.244249E-18
7.540000E+03	3.023161E-16	5.453995E-18
7.550000E+03	2.952690E-16	5.682739E-18
7.560000E+03	2.893251E-16	5.923990E-18
7.570000E+03	2.843362E-16	6.172702E-18
7.580000E+03	2.801448E-16	6.424521E-18
7.590000E+03	2.765875E-16	6.675270E-18
7.600000E+03	2.735009E-16	6.920750E-18
7.610000E+03	2.707091E-16	7.156189E-18
7.620000E+03	2.680923E-16	7.377939E-18
7.630000E+03	2.657115E-16	7.587300E-18
7.640000E+03	2.636683E-16	7.787223E-18
7.650000E+03	2.620531E-16	7.980832E-18
7.660000E+03	2.609309E-16	8.170814E-18
7.670000E+03	2.603393E-16	8.359152E-18
7.680000E+03	2.603021E-16	8.547404E-18
7.690000E+03	2.608065E-16	8.735823E-18
7.700000E+03	2.618286E-16	8.924099E-18
7.710000E+03	2.633271E-16	9.111081E-18
7.720000E+03	2.652350E-16	9.294476E-18
7.730000E+03	2.674886E-16	9.471818E-18
7.740000E+03	2.700052E-16	9.639752E-18
7.750000E+03	2.727017E-16	9.794689E-18
7.760000E+03	2.754947E-16	9.932893E-18
