#wls	flux	fluxerr
1.600000E+03	2.078183E-17	2.113663E-17
1.640000E+03	2.152520E-17	2.170219E-17
1.680000E+03	2.229337E-17	2.227696E-17
1.720000E+03	2.309056E-17	2.286420E-17
1.760000E+03	2.392146E-17	2.346744E-17
1.800000E+03	2.478237E-17	2.408186E-17
1.840000E+03	2.567806E-17	2.471093E-17
1.880000E+03	2.660909E-17	2.535389E-17
1.920000E+03	2.757107E-17	2.600529E-17
1.960000E+03	2.857385E-17	2.667306E-17
2.000000E+03	2.961298E-17	2.735159E-17
2.040000E+03	3.069377E-17	2.804427E-17
2.080000E+03	3.181656E-17	2.874981E-17
2.120000E+03	3.298710E-17	2.947169E-17
2.160000E+03	3.419448E-17	3.019839E-17
2.200000E+03	3.545556E-17	3.094309E-17
2.240000E+03	3.676479E-17	3.169889E-17
2.280000E+03	3.812808E-17	3.246884E-17
2.320000E+03	3.953902E-17	3.324538E-17
2.360000E+03	4.101610E-17	3.404180E-17
2.400000E+03	4.254616E-17	3.484471E-17
2.440000E+03	4.414146E-17	3.566171E-17
2.480000E+03	4.580112E-17	3.648940E-17
2.520000E+03	4.752379E-17	3.732400E-17
2.560000E+03	4.932890E-17	3.817784E-17
2.600000E+03	5.120036E-17	3.903521E-17
2.640000E+03	5.315727E-17	3.990754E-17
2.680000E+03	5.518926E-17	4.078353E-17
2.720000E+03	5.731500E-17	4.167345E-17
2.760000E+03	5.953012E-17	4.257015E-17
2.800000E+03	6.183682E-17	4.347125E-17
2.840000E+03	6.424417E-17	4.437895E-17
2.880000E+03	6.674440E-17	4.528357E-17
2.920000E+03	6.936027E-17	4.619604E-17
2.960000E+03	7.208129E-17	4.710443E-17
3.000000E+03	7.491129E-17	4.800640E-17
3.010000E+03	7.563341E-17	4.822878E-17
3.020000E+03	7.636578E-17	4.845257E-17
3.030000E+03	7.710821E-17	4.867753E-17
3.040000E+03	7.785227E-17	4.889827E-17
3.050000E+03	7.860584E-17	4.911967E-17
3.060000E+03	7.936859E-17	4.934144E-17
3.070000E+03	8.014036E-17	4.956337E-17
3.080000E+03	8.091263E-17	4.978011E-17
3.090000E+03	8.170139E-17	5.000143E-17
3.100000E+03	8.249008E-17	5.021708E-17
3.110000E+03	8.328653E-17	5.043179E-17
3.120000E+03	8.409043E-17	5.064529E-17
3.130000E+03	8.490957E-17	5.086214E-17
3.140000E+03	8.572730E-17	5.107228E-17
3.150000E+03	8.655963E-17	5.128518E-17
3.160000E+03	8.738980E-17	5.149081E-17
3.170000E+03	8.823390E-17	5.169862E-17
3.180000E+03	8.909144E-17	5.190816E-17
3.190000E+03	8.994574E-17	5.210962E-17
3.200000E+03	9.081281E-17	5.231224E-17
3.210000E+03	9.169213E-17	5.251559E-17
3.220000E+03	9.257521E-17	5.271470E-17
3.230000E+03	9.346170E-17	5.290932E-17
3.240000E+03	9.435927E-17	5.310370E-17
3.250000E+03	9.526745E-17	5.329748E-17
3.260000E+03	9.617782E-17	5.348585E-17
3.270000E+03	9.710602E-17	5.367741E-17
3.280000E+03	9.803557E-17	5.386292E-17
3.290000E+03	9.897402E-17	5.404647E-17
3.300000E+03	9.992097E-17	5.422775E-17
3.310000E+03	1.008761E-16	5.440646E-17
3.320000E+03	1.018389E-16	5.458228E-17
3.330000E+03	1.028089E-16	5.475485E-17
3.340000E+03	1.037937E-16	5.492811E-17
3.350000E+03	1.047772E-16	5.509338E-17
3.360000E+03	1.057747E-16	5.525868E-17
3.370000E+03	1.067858E-16	5.542371E-17
3.380000E+03	1.078025E-16	5.558409E-17
3.390000E+03	1.088321E-16	5.574357E-17
3.400000E+03	1.098666E-16	5.589792E-17
3.410000E+03	1.109137E-16	5.605089E-17
3.420000E+03	1.119730E-16	5.620224E-17
3.430000E+03	1.130444E-16	5.635174E-17
3.440000E+03	1.141278E-16	5.649922E-17
3.450000E+03	1.152233E-16	5.664454E-17
3.460000E+03	1.163307E-16	5.678756E-17
3.470000E+03	1.174504E-16	5.692823E-17
3.480000E+03	1.185900E-16	5.707012E-17
3.490000E+03	1.197423E-16	5.720955E-17
3.500000E+03	1.209076E-16	5.734655E-17
3.510000E+03	1.221014E-16	5.748827E-17
3.520000E+03	1.233019E-16	5.762422E-17
3.530000E+03	1.245323E-16	5.776500E-17
3.540000E+03	1.257857E-16	5.790721E-17
3.550000E+03	1.270559E-16	5.804768E-17
3.560000E+03	1.283586E-16	5.819341E-17
3.570000E+03	1.296876E-16	5.834124E-17
3.580000E+03	1.310444E-16	5.849153E-17
3.590000E+03	1.324304E-16	5.864456E-17
3.600000E+03	1.338544E-16	5.880395E-17
3.610000E+03	1.353180E-16	5.896997E-17
3.620000E+03	1.368159E-16	5.913988E-17
3.630000E+03	1.383572E-16	5.931717E-17
3.640000E+03	1.399438E-16	5.950223E-17
3.650000E+03	1.415777E-16	5.969541E-17
3.660000E+03	1.432611E-16	5.989710E-17
3.670000E+03	1.449961E-16	6.010762E-17
3.680000E+03	1.467919E-16	6.033020E-17
3.690000E+03	1.486435E-16	6.056214E-17
3.700000E+03	1.505601E-16	6.080654E-17
3.710000E+03	1.525366E-16	6.106068E-17
3.720000E+03	1.545820E-16	6.132741E-17
3.730000E+03	1.567047E-16	6.160937E-17
3.740000E+03	1.588926E-16	6.190094E-17
3.750000E+03	1.611537E-16	6.220456E-17
3.760000E+03	1.634891E-16	6.251978E-17
3.770000E+03	1.659065E-16	6.284872E-17
3.780000E+03	1.683991E-16	6.318798E-17
3.790000E+03	1.709738E-16	6.353924E-17
3.800000E+03	1.736228E-16	6.389879E-17
3.810000E+03	1.763522E-16	6.426798E-17
3.820000E+03	1.791599E-16	6.464523E-17
3.830000E+03	1.820437E-16	6.502886E-17
3.840000E+03	1.850003E-16	6.541690E-17
3.850000E+03	1.880259E-16	6.580720E-17
3.860000E+03	1.911226E-16	6.619974E-17
3.870000E+03	1.942714E-16	6.658719E-17
3.880000E+03	1.974792E-16	6.697138E-17
3.890000E+03	2.007388E-16	6.734922E-17
3.900000E+03	2.040349E-16	6.771507E-17
3.910000E+03	2.073649E-16	6.806769E-17
3.920000E+03	2.107120E-16	6.840122E-17
3.930000E+03	2.140787E-16	6.871628E-17
3.940000E+03	2.174393E-16	6.900455E-17
3.950000E+03	2.207884E-16	6.926439E-17
3.960000E+03	2.241063E-16	6.948979E-17
3.970000E+03	2.273937E-16	6.968135E-17
3.980000E+03	2.306308E-16	6.983343E-17
3.990000E+03	2.337985E-16	6.994083E-17
4.000000E+03	2.368983E-16	7.000478E-17
4.010000E+03	2.399124E-16	7.002087E-17
4.020000E+03	2.428240E-16	6.998523E-17
4.030000E+03	2.456383E-16	6.990044E-17
4.040000E+03	2.483348E-16	6.976187E-17
4.050000E+03	2.509151E-16	6.957126E-17
4.060000E+03	2.533761E-16	6.932905E-17
4.070000E+03	2.557163E-16	6.903622E-17
4.080000E+03	2.579300E-16	6.869257E-17
4.090000E+03	2.600201E-16	6.830029E-17
4.100000E+03	2.619978E-16	6.786369E-17
4.110000E+03	2.638632E-16	6.738407E-17
4.120000E+03	2.656311E-16	6.686639E-17
4.130000E+03	2.672926E-16	6.630962E-17
4.140000E+03	2.688779E-16	6.572227E-17
4.150000E+03	2.703870E-16	6.510531E-17
4.160000E+03	2.718337E-16	6.446284E-17
4.170000E+03	2.732322E-16	6.379892E-17
4.180000E+03	2.745916E-16	6.311624E-17
4.190000E+03	2.759270E-16	6.241868E-17
4.200000E+03	2.772597E-16	6.171133E-17
4.210000E+03	2.785937E-16	6.099513E-17
4.220000E+03	2.799390E-16	6.027229E-17
4.230000E+03	2.813221E-16	5.954837E-17
4.240000E+03	2.827417E-16	5.882273E-17
4.250000E+03	2.842184E-16	5.809932E-17
4.260000E+03	2.857620E-16	5.737949E-17
4.270000E+03	2.873872E-16	5.666552E-17
4.280000E+03	2.891035E-16	5.595845E-17
4.290000E+03	2.909203E-16	5.525916E-17
4.300000E+03	2.928473E-16	5.456845E-17
4.310000E+03	2.949045E-16	5.388889E-17
4.320000E+03	2.971016E-16	5.322090E-17
4.330000E+03	2.994429E-16	5.256384E-17
4.340000E+03	3.019434E-16	5.191886E-17
4.350000E+03	3.046128E-16	5.128599E-17
4.360000E+03	3.074658E-16	5.066595E-17
4.370000E+03	3.105115E-16	5.005840E-17
4.380000E+03	3.137638E-16	4.946360E-17
4.390000E+03	3.172256E-16	4.887994E-17
4.400000E+03	3.209038E-16	4.830641E-17
4.410000E+03	3.248192E-16	4.774393E-17
4.420000E+03	3.289604E-16	4.718854E-17
4.430000E+03	3.333441E-16	4.664038E-17
4.440000E+03	3.379640E-16	4.609626E-17
4.450000E+03	3.428207E-16	4.555400E-17
4.460000E+03	3.479109E-16	4.501094E-17
4.470000E+03	3.532219E-16	4.446330E-17
4.480000E+03	3.587409E-16	4.390751E-17
4.490000E+03	3.644453E-16	4.333900E-17
4.500000E+03	3.703114E-16	4.275348E-17
4.510000E+03	3.763047E-16	4.214574E-17
4.520000E+03	3.824010E-16	4.151223E-17
4.530000E+03	3.885491E-16	4.084693E-17
4.540000E+03	3.947038E-16	4.014513E-17
4.550000E+03	4.008206E-16	3.940286E-17
4.560000E+03	4.068359E-16	3.861495E-17
4.570000E+03	4.127054E-16	3.777890E-17
4.580000E+03	4.183683E-16	3.689134E-17
4.590000E+03	4.237641E-16	3.594979E-17
4.600000E+03	4.288520E-16	3.495418E-17
4.610000E+03	4.335786E-16	3.390403E-17
4.620000E+03	4.379020E-16	3.280042E-17
4.630000E+03	4.417816E-16	3.164507E-17
4.640000E+03	4.452026E-16	3.044205E-17
4.650000E+03	4.481418E-16	2.919502E-17
4.660000E+03	4.505860E-16	2.790863E-17
4.670000E+03	4.525484E-16	2.658925E-17
4.680000E+03	4.540347E-16	2.524268E-17
4.690000E+03	4.550654E-16	2.387549E-17
4.700000E+03	4.556689E-16	2.249448E-17
4.710000E+03	4.558813E-16	2.110654E-17
4.720000E+03	4.557504E-16	1.971879E-17
4.730000E+03	4.553182E-16	1.833780E-17
4.740000E+03	4.546364E-16	1.697035E-17
4.750000E+03	4.537596E-16	1.562318E-17
4.760000E+03	4.527552E-16	1.430356E-17
4.770000E+03	4.516689E-16	1.301842E-17
4.780000E+03	4.505614E-16	1.177614E-17
4.790000E+03	4.494910E-16	1.058666E-17
4.800000E+03	4.484962E-16	9.462373E-18
4.810000E+03	4.476383E-16	8.420736E-18
4.820000E+03	4.469536E-16	7.485454E-18
4.830000E+03	4.464788E-16	6.689420E-18
4.840000E+03	4.462522E-16	6.075277E-18
4.850000E+03	4.463018E-16	5.690075E-18
4.860000E+03	4.466559E-16	5.570533E-18
4.870000E+03	4.473267E-16	5.717098E-18
4.880000E+03	4.483361E-16	6.088948E-18
4.890000E+03	4.496893E-16	6.630026E-18
4.900000E+03	4.513796E-16	7.287811E-18
4.910000E+03	4.534144E-16	8.021701E-18
4.920000E+03	4.557683E-16	8.802376E-18
4.930000E+03	4.584294E-16	9.609857E-18
4.940000E+03	4.613636E-16	1.043000E-17
4.950000E+03	4.645406E-16	1.125283E-17
4.960000E+03	4.679245E-16	1.207088E-17
4.970000E+03	4.714684E-16	1.287805E-17
4.980000E+03	4.751219E-16	1.366911E-17
4.990000E+03	4.788369E-16	1.443954E-17
5.000000E+03	4.825541E-16	1.518480E-17
5.010000E+03	4.862256E-16	1.590089E-17
5.020000E+03	4.898065E-16	1.658409E-17
5.030000E+03	4.932457E-16	1.723055E-17
5.040000E+03	4.965091E-16	1.783707E-17
5.050000E+03	4.995646E-16	1.840068E-17
5.060000E+03	5.023934E-16	1.891902E-17
5.070000E+03	5.049739E-16	1.938979E-17
5.080000E+03	5.072971E-16	1.981138E-17
5.090000E+03	5.093672E-16	2.018285E-17
5.100000E+03	5.111882E-16	2.050350E-17
5.110000E+03	5.127685E-16	2.077302E-17
5.120000E+03	5.141253E-16	2.099167E-17
5.130000E+03	5.152609E-16	2.115928E-17
5.140000E+03	5.162008E-16	2.127684E-17
5.150000E+03	5.169534E-16	2.134480E-17
5.160000E+03	5.175372E-16	2.136420E-17
5.170000E+03	5.179578E-16	2.133569E-17
5.180000E+03	5.182244E-16	2.126022E-17
5.190000E+03	5.183497E-16	2.113903E-17
5.200000E+03	5.183327E-16	2.097291E-17
5.210000E+03	5.181814E-16	2.076321E-17
5.220000E+03	5.178907E-16	2.051086E-17
5.230000E+03	5.174595E-16	2.021716E-17
5.240000E+03	5.168851E-16	1.988350E-17
5.250000E+03	5.161698E-16	1.951168E-17
5.260000E+03	5.152977E-16	1.910300E-17
5.270000E+03	5.142690E-16	1.865966E-17
5.280000E+03	5.130728E-16	1.818371E-17
5.290000E+03	5.117083E-16	1.767789E-17
5.300000E+03	5.101577E-16	1.714472E-17
5.310000E+03	5.084254E-16	1.658788E-17
5.320000E+03	5.064880E-16	1.601063E-17
5.330000E+03	5.043493E-16	1.541766E-17
5.340000E+03	5.019973E-16	1.481378E-17
5.350000E+03	4.994204E-16	1.420459E-17
5.360000E+03	4.966132E-16	1.359667E-17
5.370000E+03	4.935710E-16	1.299758E-17
5.380000E+03	4.902850E-16	1.241577E-17
5.390000E+03	4.867529E-16	1.186095E-17
5.400000E+03	4.829633E-16	1.134366E-17
5.410000E+03	4.789268E-16	1.087579E-17
5.420000E+03	4.746396E-16	1.046942E-17
5.430000E+03	4.700946E-16	1.013636E-17
5.440000E+03	4.653015E-16	9.887716E-18
5.450000E+03	4.602612E-16	9.732154E-18
5.460000E+03	4.549866E-16	9.674371E-18
5.470000E+03	4.494782E-16	9.708217E-18
5.480000E+03	4.437548E-16	9.821781E-18
5.490000E+03	4.378329E-16	1.000135E-17
5.500000E+03	4.317314E-16	1.023276E-17
5.510000E+03	4.254712E-16	1.050241E-17
5.520000E+03	4.190802E-16	1.079809E-17
5.530000E+03	4.125803E-16	1.110895E-17
5.540000E+03	4.060057E-16	1.142618E-17
5.550000E+03	3.993893E-16	1.174259E-17
5.560000E+03	3.927722E-16	1.205274E-17
5.570000E+03	3.861981E-16	1.235272E-17
5.580000E+03	3.797058E-16	1.263968E-17
5.590000E+03	3.733486E-16	1.291234E-17
5.600000E+03	3.671741E-16	1.317018E-17
5.610000E+03	3.612308E-16	1.341355E-17
5.620000E+03	3.555756E-16	1.364383E-17
5.630000E+03	3.502540E-16	1.386257E-17
5.640000E+03	3.453140E-16	1.407191E-17
5.650000E+03	3.408097E-16	1.427469E-17
5.660000E+03	3.367857E-16	1.447369E-17
5.670000E+03	3.332829E-16	1.467180E-17
5.680000E+03	3.303427E-16	1.487211E-17
5.690000E+03	3.279951E-16	1.507734E-17
5.700000E+03	3.262724E-16	1.529035E-17
5.710000E+03	3.251978E-16	1.551358E-17
5.720000E+03	3.247920E-16	1.574929E-17
5.730000E+03	3.250652E-16	1.599913E-17
5.740000E+03	3.260200E-16	1.626422E-17
5.750000E+03	3.276505E-16	1.654506E-17
5.760000E+03	3.299376E-16	1.684125E-17
5.770000E+03	3.328661E-16	1.715233E-17
5.780000E+03	3.363875E-16	1.747589E-17
5.790000E+03	3.404590E-16	1.780951E-17
5.800000E+03	3.450168E-16	1.814942E-17
5.810000E+03	3.499794E-16	1.849067E-17
5.820000E+03	3.552547E-16	1.882751E-17
5.830000E+03	3.607450E-16	1.915374E-17
5.840000E+03	3.663206E-16	1.946133E-17
5.850000E+03	3.718616E-16	1.974273E-17
5.860000E+03	3.772335E-16	1.998968E-17
5.870000E+03	3.822909E-16	2.019344E-17
5.880000E+03	3.869069E-16	2.034651E-17
5.890000E+03	3.909539E-16	2.044164E-17
5.900000E+03	3.943078E-16	2.047218E-17
5.910000E+03	3.968749E-16	2.043351E-17
5.920000E+03	3.985788E-16	2.032238E-17
5.930000E+03	3.993638E-16	2.013713E-17
5.940000E+03	3.992107E-16	1.987842E-17
5.950000E+03	3.981200E-16	1.954829E-17
5.960000E+03	3.961249E-16	1.915080E-17
5.970000E+03	3.932853E-16	1.869154E-17
5.980000E+03	3.896851E-16	1.817738E-17
5.990000E+03	3.854243E-16	1.761594E-17
6.000000E+03	3.806226E-16	1.701562E-17
6.010000E+03	3.754061E-16	1.638486E-17
6.020000E+03	3.699192E-16	1.573252E-17
6.030000E+03	3.642904E-16	1.506629E-17
6.040000E+03	3.586534E-16	1.439351E-17
6.050000E+03	3.531311E-16	1.372050E-17
6.060000E+03	3.478483E-16	1.305303E-17
6.070000E+03	3.428999E-16	1.239506E-17
6.080000E+03	3.383873E-16	1.175019E-17
6.090000E+03	3.343884E-16	1.112057E-17
6.100000E+03	3.309688E-16	1.050744E-17
6.110000E+03	3.281870E-16	9.911319E-18
6.120000E+03	3.260944E-16	9.332100E-18
6.130000E+03	3.247230E-16	8.768785E-18
6.140000E+03	3.241073E-16	8.220244E-18
6.150000E+03	3.242718E-16	7.684957E-18
6.160000E+03	3.252347E-16	7.161280E-18
6.170000E+03	3.270054E-16	6.647588E-18
6.180000E+03	3.295918E-16	6.142698E-18
6.190000E+03	3.329963E-16	5.646146E-18
6.200000E+03	3.372153E-16	5.158717E-18
6.210000E+03	3.422417E-16	4.683343E-18
6.220000E+03	3.480485E-16	4.226172E-18
6.230000E+03	3.546114E-16	3.798934E-18
6.240000E+03	3.618754E-16	3.421323E-18
6.250000E+03	3.697830E-16	3.124132E-18
6.260000E+03	3.782450E-16	2.948335E-18
6.270000E+03	3.871619E-16	2.934801E-18
6.280000E+03	3.964044E-16	3.093949E-18
6.290000E+03	4.058495E-16	3.395382E-18
6.300000E+03	4.153548E-16	3.796285E-18
6.310000E+03	4.247857E-16	4.257547E-18
6.320000E+03	4.340069E-16	4.748562E-18
6.330000E+03	4.428864E-16	5.246325E-18
6.340000E+03	4.513145E-16	5.733498E-18
6.350000E+03	4.591932E-16	6.196550E-18
6.360000E+03	4.664380E-16	6.624654E-18
6.370000E+03	4.730007E-16	7.009371E-18
6.380000E+03	4.788382E-16	7.343871E-18
6.390000E+03	4.839327E-16	7.623024E-18
6.400000E+03	4.882849E-16	7.843217E-18
6.410000E+03	4.919116E-16	8.002263E-18
6.420000E+03	4.948485E-16	8.099422E-18
6.430000E+03	4.971311E-16	8.135077E-18
6.440000E+03	4.988075E-16	8.110959E-18
6.450000E+03	4.999368E-16	8.030167E-18
6.460000E+03	5.005752E-16	7.897029E-18
6.470000E+03	5.007798E-16	7.717323E-18
6.480000E+03	5.006010E-16	7.498423E-18
6.490000E+03	5.001054E-16	7.249997E-18
6.500000E+03	4.993391E-16	6.983951E-18
6.510000E+03	4.983511E-16	6.715368E-18
6.520000E+03	4.971905E-16	6.463049E-18
6.530000E+03	4.958864E-16	6.249554E-18
6.540000E+03	4.944686E-16	6.101026E-18
6.550000E+03	4.929560E-16	6.045159E-18
6.560000E+03	4.913460E-16	6.107487E-18
6.570000E+03	4.896408E-16	6.305369E-18
6.580000E+03	4.878317E-16	6.634406E-18
6.590000E+03	4.859046E-16	7.077705E-18
6.600000E+03	4.838418E-16	7.615236E-18
6.610000E+03	4.816333E-16	8.227334E-18
6.620000E+03	4.792434E-16	8.895915E-18
6.630000E+03	4.766586E-16	9.605821E-18
6.640000E+03	4.738545E-16	1.034415E-17
6.650000E+03	4.708029E-16	1.109995E-17
6.660000E+03	4.674980E-16	1.186442E-17
6.670000E+03	4.639222E-16	1.262978E-17
6.680000E+03	4.600719E-16	1.338963E-17
6.690000E+03	4.559639E-16	1.413901E-17
6.700000E+03	4.516072E-16	1.487349E-17
6.710000E+03	4.470324E-16	1.559000E-17
6.720000E+03	4.422671E-16	1.628601E-17
6.730000E+03	4.373594E-16	1.696037E-17
6.740000E+03	4.323585E-16	1.761263E-17
6.750000E+03	4.273249E-16	1.824344E-17
6.760000E+03	4.223072E-16	1.885362E-17
6.770000E+03	4.173842E-16	1.944591E-17
6.780000E+03	4.126143E-16	2.002287E-17
6.790000E+03	4.080572E-16	2.058763E-17
6.800000E+03	4.037821E-16	2.114444E-17
6.810000E+03	3.998570E-16	2.169802E-17
6.820000E+03	3.963375E-16	2.225301E-17
6.830000E+03	3.932862E-16	2.281487E-17
6.840000E+03	3.907520E-16	2.338874E-17
6.850000E+03	3.887898E-16	2.398046E-17
6.860000E+03	3.874447E-16	2.459565E-17
6.870000E+03	3.867561E-16	2.523981E-17
6.880000E+03	3.867524E-16	2.591793E-17
6.890000E+03	3.874701E-16	2.663570E-17
6.900000E+03	3.889181E-16	2.739698E-17
6.910000E+03	3.911173E-16	2.820649E-17
6.920000E+03	3.940633E-16	2.906712E-17
6.930000E+03	3.977480E-16	2.998129E-17
6.940000E+03	4.021524E-16	3.095041E-17
6.950000E+03	4.072474E-16	3.197487E-17
6.960000E+03	4.129935E-16	3.305386E-17
6.970000E+03	4.193476E-16	3.418595E-17
6.980000E+03	4.262462E-16	3.536761E-17
6.990000E+03	4.336188E-16	3.659420E-17
7.000000E+03	4.414068E-16	3.786164E-17
7.010000E+03	4.495320E-16	3.916367E-17
7.020000E+03	4.579215E-16	4.049400E-17
7.030000E+03	4.665062E-16	4.184621E-17
7.040000E+03	4.752227E-16	4.321402E-17
7.050000E+03	4.840173E-16	4.459165E-17
7.060000E+03	4.928411E-16	4.597348E-17
7.070000E+03	5.016718E-16	4.735618E-17
7.080000E+03	5.104958E-16	4.873709E-17
7.090000E+03	5.193064E-16	5.011418E-17
7.100000E+03	5.281249E-16	5.148812E-17
7.110000E+03	5.369627E-16	5.285866E-17
7.120000E+03	5.458689E-16	5.422932E-17
7.130000E+03	5.548760E-16	5.560213E-17
7.140000E+03	5.640174E-16	5.697929E-17
7.150000E+03	5.733381E-16	5.836424E-17
7.160000E+03	5.828671E-16	5.975887E-17
7.170000E+03	5.926040E-16	6.116207E-17
7.180000E+03	6.025625E-16	6.257410E-17
7.190000E+03	6.127009E-16	6.398943E-17
7.200000E+03	6.229838E-16	6.540304E-17
7.210000E+03	6.333043E-16	6.680219E-17
7.220000E+03	6.435655E-16	6.817502E-17
7.230000E+03	6.536030E-16	6.950229E-17
7.240000E+03	6.632469E-16	7.076395E-17
7.250000E+03	6.722801E-16	7.193476E-17
7.260000E+03	6.804797E-16	7.298874E-17
7.270000E+03	6.875775E-16	7.389502E-17
7.280000E+03	6.933163E-16	7.462401E-17
7.290000E+03	6.974526E-16	7.514778E-17
7.300000E+03	6.997308E-16	7.543747E-17
7.310000E+03	6.999457E-16	7.547007E-17
7.320000E+03	6.979454E-16	7.522898E-17
7.330000E+03	6.936149E-16	7.470219E-17
7.340000E+03	6.869047E-16	7.388550E-17
7.350000E+03	6.778455E-16	7.278410E-17
7.360000E+03	6.665400E-16	7.141156E-17
7.370000E+03	6.531578E-16	6.978923E-17
7.380000E+03	6.379193E-16	6.794434E-17
7.390000E+03	6.211093E-16	6.591125E-17
7.400000E+03	6.030191E-16	6.372510E-17
7.410000E+03	5.839830E-16	6.142547E-17
7.420000E+03	5.643277E-16	5.905082E-17
7.430000E+03	5.443681E-16	5.663792E-17
7.440000E+03	5.243883E-16	5.421973E-17
7.450000E+03	5.046560E-16	5.182686E-17
7.460000E+03	4.853947E-16	4.948458E-17
7.470000E+03	4.667822E-16	4.721281E-17
7.480000E+03	4.489710E-16	4.502812E-17
7.490000E+03	4.320692E-16	4.294188E-17
7.500000E+03	4.161511E-16	4.096141E-17
7.510000E+03	4.012671E-16	3.909114E-17
7.520000E+03	3.874312E-16	3.733149E-17
7.530000E+03	3.746431E-16	3.568118E-17
7.540000E+03	3.628979E-16	3.413815E-17
7.550000E+03	3.521628E-16	3.269748E-17
7.560000E+03	3.424032E-16	3.135392E-17
7.570000E+03	3.335846E-16	3.010212E-17
7.580000E+03	3.256614E-16	2.893560E-17
7.590000E+03	3.185972E-16	2.784869E-17
7.600000E+03	3.123569E-16	2.683573E-17
7.610000E+03	3.068989E-16	2.589048E-17
7.620000E+03	3.021925E-16	2.500761E-17
7.630000E+03	2.982047E-16	2.418155E-17
7.640000E+03	2.948999E-16	2.340648E-17
7.650000E+03	2.922548E-16	2.267760E-17
7.660000E+03	2.902284E-16	2.198869E-17
7.670000E+03	2.887947E-16	2.133474E-17
7.680000E+03	2.879164E-16	2.070993E-17
7.690000E+03	2.875495E-16	2.010807E-17
7.700000E+03	2.876510E-16	1.952324E-17
7.710000E+03	2.881838E-16	1.895009E-17
7.720000E+03	2.890881E-16	1.838203E-17
7.730000E+03	2.903281E-16	1.781431E-17
7.740000E+03	2.918468E-16	1.724117E-17
7.750000E+03	2.936012E-16	1.665809E-17
7.760000E+03	2.955463E-16	1.606079E-17
