#wls	flux	fluxerr
1.600000E+03	1.985829E-17	1.878383E-17
1.640000E+03	2.057109E-17	1.929207E-17
1.680000E+03	2.131169E-17	1.981245E-17
1.720000E+03	2.208057E-17	2.034450E-17
1.760000E+03	2.287819E-17	2.088768E-17
1.800000E+03	2.370900E-17	2.144503E-17
1.840000E+03	2.456943E-17	2.201224E-17
1.880000E+03	2.545967E-17	2.258842E-17
1.920000E+03	2.638877E-17	2.318046E-17
1.960000E+03	2.734826E-17	2.377965E-17
2.000000E+03	2.834746E-17	2.439289E-17
2.040000E+03	2.938200E-17	2.501504E-17
2.080000E+03	3.045684E-17	2.564897E-17
2.120000E+03	3.157215E-17	2.629336E-17
2.160000E+03	3.272793E-17	2.694668E-17
2.200000E+03	3.392938E-17	2.761165E-17
2.240000E+03	3.517089E-17	2.828204E-17
2.280000E+03	3.646313E-17	2.896476E-17
2.320000E+03	3.780009E-17	2.965317E-17
2.360000E+03	3.918679E-17	3.034940E-17
2.400000E+03	4.062240E-17	3.105085E-17
2.440000E+03	4.211184E-17	3.175929E-17
2.480000E+03	4.365377E-17	3.247159E-17
2.520000E+03	4.525294E-17	3.318909E-17
2.560000E+03	4.690734E-17	3.390804E-17
2.600000E+03	4.861447E-17	3.462439E-17
2.640000E+03	5.039164E-17	3.534802E-17
2.680000E+03	5.222214E-17	3.606458E-17
2.720000E+03	5.411584E-17	3.677847E-17
2.760000E+03	5.607556E-17	3.748890E-17
2.800000E+03	5.810354E-17	3.819454E-17
2.840000E+03	6.019429E-17	3.888893E-17
2.880000E+03	6.235611E-17	3.957459E-17
2.920000E+03	6.458220E-17	4.024420E-17
2.960000E+03	6.687232E-17	4.089476E-17
3.000000E+03	6.924069E-17	4.153190E-17
3.010000E+03	6.984428E-17	4.168825E-17
3.020000E+03	7.045066E-17	4.184225E-17
3.030000E+03	7.106720E-17	4.199823E-17
3.040000E+03	7.167874E-17	4.214716E-17
3.050000E+03	7.230018E-17	4.229780E-17
3.060000E+03	7.293140E-17	4.244998E-17
3.070000E+03	7.355715E-17	4.259476E-17
3.080000E+03	7.419234E-17	4.274079E-17
3.090000E+03	7.483691E-17	4.288792E-17
3.100000E+03	7.547550E-17	4.302731E-17
3.110000E+03	7.613073E-17	4.317184E-17
3.120000E+03	7.677966E-17	4.330838E-17
3.130000E+03	7.744495E-17	4.344971E-17
3.140000E+03	7.810368E-17	4.358288E-17
3.150000E+03	7.877847E-17	4.372050E-17
3.160000E+03	7.944640E-17	4.384974E-17
3.170000E+03	8.013013E-17	4.398311E-17
3.180000E+03	8.081430E-17	4.411207E-17
3.190000E+03	8.150636E-17	4.424063E-17
3.200000E+03	8.219864E-17	4.436459E-17
3.210000E+03	8.290620E-17	4.449201E-17
3.220000E+03	8.361367E-17	4.461454E-17
3.230000E+03	8.432094E-17	4.473211E-17
3.240000E+03	8.504314E-17	4.485269E-17
3.250000E+03	8.576499E-17	4.496812E-17
3.260000E+03	8.650152E-17	4.508623E-17
3.270000E+03	8.723747E-17	4.519896E-17
3.280000E+03	8.798042E-17	4.531022E-17
3.290000E+03	8.873025E-17	4.541986E-17
3.300000E+03	8.948691E-17	4.552779E-17
3.310000E+03	9.025780E-17	4.563767E-17
3.320000E+03	9.102799E-17	4.574186E-17
3.330000E+03	9.181236E-17	4.584779E-17
3.340000E+03	9.259602E-17	4.594791E-17
3.350000E+03	9.339389E-17	4.604959E-17
3.360000E+03	9.419851E-17	4.614903E-17
3.370000E+03	9.500997E-17	4.624619E-17
3.380000E+03	9.583572E-17	4.634460E-17
3.390000E+03	9.666839E-17	4.644058E-17
3.400000E+03	9.750814E-17	4.653412E-17
3.410000E+03	9.836245E-17	4.662871E-17
3.420000E+03	9.923148E-17	4.672425E-17
3.430000E+03	1.001006E-16	4.681377E-17
3.440000E+03	1.009921E-16	4.690756E-17
3.450000E+03	1.018914E-16	4.699877E-17
3.460000E+03	1.027988E-16	4.708736E-17
3.470000E+03	1.037219E-16	4.717673E-17
3.480000E+03	1.046608E-16	4.726678E-17
3.490000E+03	1.056159E-16	4.735750E-17
3.500000E+03	1.065875E-16	4.744887E-17
3.510000E+03	1.075685E-16	4.753758E-17
3.520000E+03	1.085666E-16	4.762693E-17
3.530000E+03	1.095821E-16	4.771686E-17
3.540000E+03	1.106155E-16	4.780736E-17
3.550000E+03	1.116669E-16	4.789838E-17
3.560000E+03	1.127441E-16	4.799298E-17
3.570000E+03	1.138330E-16	4.808497E-17
3.580000E+03	1.149412E-16	4.817742E-17
3.590000E+03	1.160763E-16	4.827327E-17
3.600000E+03	1.172315E-16	4.836943E-17
3.610000E+03	1.184071E-16	4.846587E-17
3.620000E+03	1.196037E-16	4.856257E-17
3.630000E+03	1.208284E-16	4.866224E-17
3.640000E+03	1.220748E-16	4.876194E-17
3.650000E+03	1.233430E-16	4.886158E-17
3.660000E+03	1.246405E-16	4.896380E-17
3.670000E+03	1.259674E-16	4.906842E-17
3.680000E+03	1.273170E-16	4.917247E-17
3.690000E+03	1.286893E-16	4.927581E-17
3.700000E+03	1.300916E-16	4.938088E-17
3.710000E+03	1.315238E-16	4.948742E-17
3.720000E+03	1.329860E-16	4.959510E-17
3.730000E+03	1.344710E-16	4.970099E-17
3.740000E+03	1.359857E-16	4.980738E-17
3.750000E+03	1.375299E-16	4.991385E-17
3.760000E+03	1.391031E-16	5.001998E-17
3.770000E+03	1.406981E-16	5.012286E-17
3.780000E+03	1.423282E-16	5.022696E-17
3.790000E+03	1.439789E-16	5.032689E-17
3.800000E+03	1.456564E-16	5.042457E-17
3.810000E+03	1.473600E-16	5.051947E-17
3.820000E+03	1.490886E-16	5.061099E-17
3.830000E+03	1.508414E-16	5.069854E-17
3.840000E+03	1.526171E-16	5.078150E-17
3.850000E+03	1.544215E-16	5.086154E-17
3.860000E+03	1.562395E-16	5.093341E-17
3.870000E+03	1.580768E-16	5.099882E-17
3.880000E+03	1.599317E-16	5.105706E-17
3.890000E+03	1.618029E-16	5.110753E-17
3.900000E+03	1.636956E-16	5.115168E-17
3.910000E+03	1.655947E-16	5.118463E-17
3.920000E+03	1.675054E-16	5.120794E-17
3.930000E+03	1.694330E-16	5.122304E-17
3.940000E+03	1.713622E-16	5.122526E-17
3.950000E+03	1.732986E-16	5.121619E-17
3.960000E+03	1.752473E-16	5.119727E-17
3.970000E+03	1.771936E-16	5.116417E-17
3.980000E+03	1.791430E-16	5.111845E-17
3.990000E+03	1.810946E-16	5.105985E-17
4.000000E+03	1.830472E-16	5.098806E-17
4.010000E+03	1.849936E-16	5.090108E-17
4.020000E+03	1.869467E-16	5.080247E-17
4.030000E+03	1.888928E-16	5.068853E-17
4.040000E+03	1.908384E-16	5.056109E-17
4.050000E+03	1.927773E-16	5.041852E-17
4.060000E+03	1.947100E-16	5.026104E-17
4.070000E+03	1.966504E-16	5.009233E-17
4.080000E+03	1.985799E-16	4.990759E-17
4.090000E+03	2.005130E-16	4.971060E-17
4.100000E+03	2.024448E-16	4.950013E-17
4.110000E+03	2.043707E-16	4.927515E-17
4.120000E+03	2.063061E-16	4.903939E-17
4.130000E+03	2.082471E-16	4.879187E-17
4.140000E+03	2.101900E-16	4.853171E-17
4.150000E+03	2.121444E-16	4.826113E-17
4.160000E+03	2.141136E-16	4.798081E-17
4.170000E+03	2.160949E-16	4.769000E-17
4.180000E+03	2.180920E-16	4.738945E-17
4.190000E+03	2.201089E-16	4.707990E-17
4.200000E+03	2.221498E-16	4.676209E-17
4.210000E+03	2.242189E-16	4.643668E-17
4.220000E+03	2.263207E-16	4.610439E-17
4.230000E+03	2.284533E-16	4.576453E-17
4.240000E+03	2.306212E-16	4.541776E-17
4.250000E+03	2.328354E-16	4.506589E-17
4.260000E+03	2.350878E-16	4.470699E-17
4.270000E+03	2.373891E-16	4.434276E-17
4.280000E+03	2.397440E-16	4.397360E-17
4.290000E+03	2.421500E-16	4.359866E-17
4.300000E+03	2.446182E-16	4.321941E-17
4.310000E+03	2.471395E-16	4.283376E-17
4.320000E+03	2.497305E-16	4.244410E-17
4.330000E+03	2.523820E-16	4.204827E-17
4.340000E+03	2.551035E-16	4.164732E-17
4.350000E+03	2.578916E-16	4.124013E-17
4.360000E+03	2.607487E-16	4.082653E-17
4.370000E+03	2.636707E-16	4.040529E-17
4.380000E+03	2.666715E-16	3.997800E-17
4.390000E+03	2.697399E-16	3.954237E-17
4.400000E+03	2.728826E-16	3.909883E-17
4.410000E+03	2.760869E-16	3.864501E-17
4.420000E+03	2.793651E-16	3.818216E-17
4.430000E+03	2.827030E-16	3.770782E-17
4.440000E+03	2.861054E-16	3.722219E-17
4.450000E+03	2.895697E-16	3.672453E-17
4.460000E+03	2.930864E-16	3.621326E-17
4.470000E+03	2.966453E-16	3.568683E-17
4.480000E+03	3.002548E-16	3.514607E-17
4.490000E+03	3.038971E-16	3.458869E-17
4.500000E+03	3.075729E-16	3.401471E-17
4.510000E+03	3.112762E-16	3.342344E-17
4.520000E+03	3.149940E-16	3.281353E-17
4.530000E+03	3.187188E-16	3.218443E-17
4.540000E+03	3.224436E-16	3.153568E-17
4.550000E+03	3.261605E-16	3.086690E-17
4.560000E+03	3.298619E-16	3.017783E-17
4.570000E+03	3.335331E-16	2.946771E-17
4.580000E+03	3.371730E-16	2.873716E-17
4.590000E+03	3.407738E-16	2.798627E-17
4.600000E+03	3.443214E-16	2.721477E-17
4.610000E+03	3.478083E-16	2.642312E-17
4.620000E+03	3.512280E-16	2.561195E-17
4.630000E+03	3.545812E-16	2.478253E-17
4.640000E+03	3.578551E-16	2.393528E-17
4.650000E+03	3.610448E-16	2.307133E-17
4.660000E+03	3.641462E-16	2.219199E-17
4.670000E+03	3.671487E-16	2.129832E-17
4.680000E+03	3.700635E-16	2.039282E-17
4.690000E+03	3.728815E-16	1.947692E-17
4.700000E+03	3.756018E-16	1.855272E-17
4.710000E+03	3.782168E-16	1.762223E-17
4.720000E+03	3.807337E-16	1.668841E-17
4.730000E+03	3.831606E-16	1.575453E-17
4.740000E+03	3.854848E-16	1.482337E-17
4.750000E+03	3.877154E-16	1.389919E-17
4.760000E+03	3.898548E-16	1.298662E-17
4.770000E+03	3.919058E-16	1.209122E-17
4.780000E+03	3.938711E-16	1.121977E-17
4.790000E+03	3.957551E-16	1.038069E-17
4.800000E+03	3.975644E-16	9.584547E-18
4.810000E+03	3.993062E-16	8.844508E-18
4.820000E+03	4.009876E-16	8.176866E-18
4.830000E+03	4.026222E-16	7.601283E-18
4.840000E+03	4.042094E-16	7.139684E-18
4.850000E+03	4.057549E-16	6.814427E-18
4.860000E+03	4.072636E-16	6.644088E-18
4.870000E+03	4.087471E-16	6.636806E-18
4.880000E+03	4.102088E-16	6.781792E-18
4.890000E+03	4.116443E-16	7.056993E-18
4.900000E+03	4.130625E-16	7.436225E-18
4.910000E+03	4.144644E-16	7.893452E-18
4.920000E+03	4.158431E-16	8.405557E-18
4.930000E+03	4.172118E-16	8.953889E-18
4.940000E+03	4.185552E-16	9.523143E-18
4.950000E+03	4.198846E-16	1.010194E-17
4.960000E+03	4.211905E-16	1.068106E-17
4.970000E+03	4.224689E-16	1.125348E-17
4.980000E+03	4.237157E-16	1.181366E-17
4.990000E+03	4.249334E-16	1.235742E-17
5.000000E+03	4.261095E-16	1.288106E-17
5.010000E+03	4.272389E-16	1.338169E-17
5.020000E+03	4.283300E-16	1.385742E-17
5.030000E+03	4.293629E-16	1.430583E-17
5.040000E+03	4.303387E-16	1.472551E-17
5.050000E+03	4.312446E-16	1.511484E-17
5.060000E+03	4.320890E-16	1.547314E-17
5.070000E+03	4.328521E-16	1.579893E-17
5.080000E+03	4.335355E-16	1.609166E-17
5.090000E+03	4.341412E-16	1.635095E-17
5.100000E+03	4.346501E-16	1.657576E-17
5.110000E+03	4.350716E-16	1.676625E-17
5.120000E+03	4.353874E-16	1.692164E-17
5.130000E+03	4.356075E-16	1.704239E-17
5.140000E+03	4.357212E-16	1.712823E-17
5.150000E+03	4.357322E-16	1.717960E-17
5.160000E+03	4.356233E-16	1.719624E-17
5.170000E+03	4.354057E-16	1.717911E-17
5.180000E+03	4.350702E-16	1.712851E-17
5.190000E+03	4.346144E-16	1.704511E-17
5.200000E+03	4.340434E-16	1.693003E-17
5.210000E+03	4.333483E-16	1.678398E-17
5.220000E+03	4.325347E-16	1.660836E-17
5.230000E+03	4.315875E-16	1.640394E-17
5.240000E+03	4.305194E-16	1.617271E-17
5.250000E+03	4.293227E-16	1.591607E-17
5.260000E+03	4.280034E-16	1.563610E-17
5.270000E+03	4.265544E-16	1.533461E-17
5.280000E+03	4.249753E-16	1.501386E-17
5.290000E+03	4.232661E-16	1.467637E-17
5.300000E+03	4.214270E-16	1.432493E-17
5.310000E+03	4.194651E-16	1.396281E-17
5.320000E+03	4.173744E-16	1.359316E-17
5.330000E+03	4.151559E-16	1.321967E-17
5.340000E+03	4.128108E-16	1.284639E-17
5.350000E+03	4.103406E-16	1.247771E-17
5.360000E+03	4.077472E-16	1.211840E-17
5.370000E+03	4.050393E-16	1.177374E-17
5.380000E+03	4.022069E-16	1.144875E-17
5.390000E+03	3.992653E-16	1.114941E-17
5.400000E+03	3.962057E-16	1.088107E-17
5.410000E+03	3.930443E-16	1.064971E-17
5.420000E+03	3.897731E-16	1.046032E-17
5.430000E+03	3.864094E-16	1.031799E-17
5.440000E+03	3.829519E-16	1.022648E-17
5.450000E+03	3.794012E-16	1.018786E-17
5.460000E+03	3.757755E-16	1.019969E-17
5.470000E+03	3.720778E-16	1.025668E-17
5.480000E+03	3.683178E-16	1.035313E-17
5.490000E+03	3.645064E-16	1.048311E-17
5.500000E+03	3.606554E-16	1.064075E-17
5.510000E+03	3.567787E-16	1.082045E-17
5.520000E+03	3.528959E-16	1.101722E-17
5.530000E+03	3.490158E-16	1.122621E-17
5.540000E+03	3.451519E-16	1.144330E-17
5.550000E+03	3.413180E-16	1.166492E-17
5.560000E+03	3.375325E-16	1.188821E-17
5.570000E+03	3.338025E-16	1.211046E-17
5.580000E+03	3.301400E-16	1.232960E-17
5.590000E+03	3.265614E-16	1.254414E-17
5.600000E+03	3.230768E-16	1.275276E-17
5.610000E+03	3.196906E-16	1.295426E-17
5.620000E+03	3.164162E-16	1.314805E-17
5.630000E+03	3.132612E-16	1.333358E-17
5.640000E+03	3.102318E-16	1.351046E-17
5.650000E+03	3.073282E-16	1.367822E-17
5.660000E+03	3.045642E-16	1.383709E-17
5.670000E+03	3.019379E-16	1.398677E-17
5.680000E+03	2.994509E-16	1.412720E-17
5.690000E+03	2.971037E-16	1.425833E-17
5.700000E+03	2.948955E-16	1.438011E-17
5.710000E+03	2.928292E-16	1.449269E-17
5.720000E+03	2.908968E-16	1.459575E-17
5.730000E+03	2.890943E-16	1.468916E-17
5.740000E+03	2.874209E-16	1.477295E-17
5.750000E+03	2.858704E-16	1.484688E-17
5.760000E+03	2.844312E-16	1.491044E-17
5.770000E+03	2.830996E-16	1.496351E-17
5.780000E+03	2.818670E-16	1.500570E-17
5.790000E+03	2.807242E-16	1.503656E-17
5.800000E+03	2.796571E-16	1.505540E-17
5.810000E+03	2.786599E-16	1.506195E-17
5.820000E+03	2.777272E-16	1.505595E-17
5.830000E+03	2.768401E-16	1.503641E-17
5.840000E+03	2.759931E-16	1.500308E-17
5.850000E+03	2.751812E-16	1.495574E-17
5.860000E+03	2.743871E-16	1.489350E-17
5.870000E+03	2.736071E-16	1.481624E-17
5.880000E+03	2.728386E-16	1.472391E-17
5.890000E+03	2.720712E-16	1.461606E-17
5.900000E+03	2.713004E-16	1.449257E-17
5.910000E+03	2.705187E-16	1.435323E-17
5.920000E+03	2.697370E-16	1.419879E-17
5.930000E+03	2.689423E-16	1.402876E-17
5.940000E+03	2.681401E-16	1.384367E-17
5.950000E+03	2.673375E-16	1.364414E-17
5.960000E+03	2.665345E-16	1.343043E-17
5.970000E+03	2.657369E-16	1.320312E-17
5.980000E+03	2.649520E-16	1.296284E-17
5.990000E+03	2.641881E-16	1.271029E-17
6.000000E+03	2.634550E-16	1.244622E-17
6.010000E+03	2.627629E-16	1.217139E-17
6.020000E+03	2.621276E-16	1.188676E-17
6.030000E+03	2.615527E-16	1.159272E-17
6.040000E+03	2.610592E-16	1.129041E-17
6.050000E+03	2.606556E-16	1.098034E-17
6.060000E+03	2.603506E-16	1.066302E-17
6.070000E+03	2.601657E-16	1.033942E-17
6.080000E+03	2.601053E-16	1.000975E-17
6.090000E+03	2.601901E-16	9.674839E-18
6.100000E+03	2.604282E-16	9.334957E-18
6.110000E+03	2.608268E-16	8.990333E-18
6.120000E+03	2.614009E-16	8.641452E-18
6.130000E+03	2.621652E-16	8.288743E-18
6.140000E+03	2.631203E-16	7.932209E-18
6.150000E+03	2.642792E-16	7.572292E-18
6.160000E+03	2.656493E-16	7.209342E-18
6.170000E+03	2.672332E-16	6.843713E-18
6.180000E+03	2.690451E-16	6.476276E-18
6.190000E+03	2.710809E-16	6.107725E-18
6.200000E+03	2.733487E-16	5.739491E-18
6.210000E+03	2.758510E-16	5.373468E-18
6.220000E+03	2.785896E-16	5.012370E-18
6.230000E+03	2.815647E-16	4.660049E-18
6.240000E+03	2.847706E-16	4.321852E-18
6.250000E+03	2.882080E-16	4.005364E-18
6.260000E+03	2.918719E-16	3.720756E-18
6.270000E+03	2.957545E-16	3.481195E-18
6.280000E+03	2.998462E-16	3.302483E-18
6.290000E+03	3.041295E-16	3.201184E-18
6.300000E+03	3.085996E-16	3.190718E-18
6.310000E+03	3.132286E-16	3.270086E-18
6.320000E+03	3.180027E-16	3.425844E-18
6.330000E+03	3.229021E-16	3.640629E-18
6.340000E+03	3.279060E-16	3.896982E-18
6.350000E+03	3.329931E-16	4.179476E-18
6.360000E+03	3.381419E-16	4.475375E-18
6.370000E+03	3.433359E-16	4.774541E-18
6.380000E+03	3.485414E-16	5.068674E-18
6.390000E+03	3.537416E-16	5.351318E-18
6.400000E+03	3.589200E-16	5.617280E-18
6.410000E+03	3.640422E-16	5.862065E-18
6.420000E+03	3.690985E-16	6.082364E-18
6.430000E+03	3.740671E-16	6.275379E-18
6.440000E+03	3.789140E-16	6.438740E-18
6.450000E+03	3.836307E-16	6.571143E-18
6.460000E+03	3.881969E-16	6.671746E-18
6.470000E+03	3.925859E-16	6.740316E-18
6.480000E+03	3.967781E-16	6.777551E-18
6.490000E+03	4.007613E-16	6.785203E-18
6.500000E+03	4.045172E-16	6.765998E-18
6.510000E+03	4.080288E-16	6.723934E-18
6.520000E+03	4.112744E-16	6.664392E-18
6.530000E+03	4.142478E-16	6.594662E-18
6.540000E+03	4.169416E-16	6.523835E-18
6.550000E+03	4.193571E-16	6.463035E-18
6.560000E+03	4.214975E-16	6.425180E-18
6.570000E+03	4.233763E-16	6.424698E-18
6.580000E+03	4.249858E-16	6.476231E-18
6.590000E+03	4.263506E-16	6.594247E-18
6.600000E+03	4.274744E-16	6.790647E-18
6.610000E+03	4.283703E-16	7.068921E-18
6.620000E+03	4.290598E-16	7.423638E-18
6.630000E+03	4.295577E-16	7.846807E-18
6.640000E+03	4.298715E-16	8.329321E-18
6.650000E+03	4.300168E-16	8.862171E-18
6.660000E+03	4.300170E-16	9.437068E-18
6.670000E+03	4.298961E-16	1.004664E-17
6.680000E+03	4.296554E-16	1.068398E-17
6.690000E+03	4.293114E-16	1.134342E-17
6.700000E+03	4.288968E-16	1.202067E-17
6.710000E+03	4.284209E-16	1.271160E-17
6.720000E+03	4.279009E-16	1.341299E-17
6.730000E+03	4.273540E-16	1.412223E-17
6.740000E+03	4.268049E-16	1.483750E-17
6.750000E+03	4.262555E-16	1.555662E-17
6.760000E+03	4.257378E-16	1.627890E-17
6.770000E+03	4.252603E-16	1.700315E-17
6.780000E+03	4.248471E-16	1.772909E-17
6.790000E+03	4.245056E-16	1.845605E-17
6.800000E+03	4.242503E-16	1.918388E-17
6.810000E+03	4.241033E-16	1.991296E-17
6.820000E+03	4.240776E-16	2.064351E-17
6.830000E+03	4.241773E-16	2.137547E-17
6.840000E+03	4.244215E-16	2.210964E-17
6.850000E+03	4.248120E-16	2.284605E-17
6.860000E+03	4.253655E-16	2.358564E-17
6.870000E+03	4.260890E-16	2.432893E-17
6.880000E+03	4.269808E-16	2.507599E-17
6.890000E+03	4.280532E-16	2.582771E-17
6.900000E+03	4.293093E-16	2.658454E-17
6.910000E+03	4.307506E-16	2.734683E-17
6.920000E+03	4.323690E-16	2.811430E-17
6.930000E+03	4.341711E-16	2.888759E-17
6.940000E+03	4.361539E-16	2.966674E-17
6.950000E+03	4.383044E-16	3.045102E-17
6.960000E+03	4.406251E-16	3.124074E-17
6.970000E+03	4.431083E-16	3.203546E-17
6.980000E+03	4.457452E-16	3.283457E-17
6.990000E+03	4.485172E-16	3.363668E-17
7.000000E+03	4.514212E-16	3.444144E-17
7.010000E+03	4.544357E-16	3.524708E-17
7.020000E+03	4.575642E-16	3.605361E-17
7.030000E+03	4.607653E-16	3.685748E-17
7.040000E+03	4.640402E-16	3.765840E-17
7.050000E+03	4.673720E-16	3.845453E-17
7.060000E+03	4.707335E-16	3.924313E-17
7.070000E+03	4.741144E-16	4.002273E-17
7.080000E+03	4.774858E-16	4.079026E-17
7.090000E+03	4.808267E-16	4.154318E-17
7.100000E+03	4.841247E-16	4.227963E-17
7.110000E+03	4.873480E-16	4.299601E-17
7.120000E+03	4.904734E-16	4.368940E-17
7.130000E+03	4.934767E-16	4.435673E-17
7.140000E+03	4.963336E-16	4.499484E-17
7.150000E+03	4.990190E-16	4.560051E-17
7.160000E+03	5.015073E-16	4.617040E-17
7.170000E+03	5.037731E-16	4.670119E-17
7.180000E+03	5.057904E-16	4.718949E-17
7.190000E+03	5.075339E-16	4.763198E-17
7.200000E+03	5.089687E-16	4.802445E-17
7.210000E+03	5.100701E-16	4.836369E-17
7.220000E+03	5.108349E-16	4.864854E-17
7.230000E+03	5.112213E-16	4.887428E-17
7.240000E+03	5.112098E-16	4.903836E-17
7.250000E+03	5.107827E-16	4.913849E-17
7.260000E+03	5.099349E-16	4.917369E-17
7.270000E+03	5.086447E-16	4.914152E-17
7.280000E+03	5.069042E-16	4.904095E-17
7.290000E+03	5.047089E-16	4.887144E-17
7.300000E+03	5.020585E-16	4.863301E-17
7.310000E+03	4.989669E-16	4.832716E-17
7.320000E+03	4.954136E-16	4.795221E-17
7.330000E+03	4.914407E-16	4.751269E-17
7.340000E+03	4.870560E-16	4.700993E-17
7.350000E+03	4.822719E-16	4.644586E-17
7.360000E+03	4.771238E-16	4.582468E-17
7.370000E+03	4.716318E-16	4.514926E-17
7.380000E+03	4.658381E-16	4.442467E-17
7.390000E+03	4.597691E-16	4.365451E-17
7.400000E+03	4.534717E-16	4.284436E-17
7.410000E+03	4.469761E-16	4.199826E-17
7.420000E+03	4.403232E-16	4.112123E-17
7.430000E+03	4.335623E-16	4.021906E-17
7.440000E+03	4.267255E-16	3.929587E-17
7.450000E+03	4.198530E-16	3.835647E-17
7.460000E+03	4.129835E-16	3.740548E-17
7.470000E+03	4.061624E-16	3.644795E-17
7.480000E+03	3.994090E-16	3.548650E-17
7.490000E+03	3.927720E-16	3.452624E-17
7.500000E+03	3.862738E-16	3.356979E-17
7.510000E+03	3.799344E-16	3.261945E-17
7.520000E+03	3.737938E-16	3.167906E-17
7.530000E+03	3.678662E-16	3.075010E-17
7.540000E+03	3.621708E-16	2.983433E-17
7.550000E+03	3.567162E-16	2.893248E-17
7.560000E+03	3.515304E-16	2.804674E-17
7.570000E+03	3.466168E-16	2.717711E-17
7.580000E+03	3.419768E-16	2.632336E-17
7.590000E+03	3.376298E-16	2.548654E-17
7.600000E+03	3.335660E-16	2.466530E-17
7.610000E+03	3.297937E-16	2.385960E-17
7.620000E+03	3.263124E-16	2.306865E-17
7.630000E+03	3.231200E-16	2.229144E-17
7.640000E+03	3.202127E-16	2.152680E-17
7.650000E+03	3.175852E-16	2.077338E-17
7.660000E+03	3.152308E-16	2.002974E-17
7.670000E+03	3.131354E-16	1.929390E-17
7.680000E+03	3.113023E-16	1.856504E-17
7.690000E+03	3.097088E-16	1.784067E-17
7.700000E+03	3.083498E-16	1.711949E-17
7.710000E+03	3.072132E-16	1.639977E-17
7.720000E+03	3.062794E-16	1.567951E-17
7.730000E+03	3.055468E-16	1.495773E-17
7.740000E+03	3.049882E-16	1.423229E-17
7.750000E+03	3.045937E-16	1.350215E-17
7.760000E+03	3.043470E-16	1.276611E-17
