#wls	flux	fluxerr
1.600000E+03	2.000151E-17	1.987981E-17
1.640000E+03	2.072984E-17	2.042475E-17
1.680000E+03	2.148302E-17	2.097911E-17
1.720000E+03	2.226908E-17	2.154975E-17
1.760000E+03	2.308477E-17	2.213243E-17
1.800000E+03	2.393048E-17	2.272645E-17
1.840000E+03	2.481081E-17	2.333503E-17
1.880000E+03	2.572190E-17	2.395334E-17
1.920000E+03	2.667301E-17	2.458874E-17
1.960000E+03	2.766021E-17	2.523620E-17
2.000000E+03	2.868375E-17	2.589459E-17
2.040000E+03	2.974875E-17	2.656708E-17
2.080000E+03	3.085045E-17	2.724790E-17
2.120000E+03	3.199918E-17	2.794462E-17
2.160000E+03	3.318997E-17	2.865116E-17
2.200000E+03	3.442813E-17	2.937038E-17
2.240000E+03	3.571370E-17	3.010046E-17
2.280000E+03	3.704634E-17	3.083922E-17
2.320000E+03	3.843747E-17	3.159413E-17
2.360000E+03	3.987470E-17	3.235283E-17
2.400000E+03	4.136930E-17	3.312240E-17
2.440000E+03	4.292030E-17	3.389974E-17
2.480000E+03	4.453293E-17	3.468658E-17
2.520000E+03	4.621225E-17	3.548424E-17
2.560000E+03	4.794986E-17	3.628361E-17
2.600000E+03	4.974976E-17	3.708516E-17
2.640000E+03	5.162304E-17	3.789434E-17
2.680000E+03	5.357356E-17	3.871084E-17
2.720000E+03	5.559027E-17	3.952352E-17
2.760000E+03	5.767544E-17	4.033102E-17
2.800000E+03	5.984562E-17	4.114169E-17
2.840000E+03	6.209469E-17	4.194768E-17
2.880000E+03	6.442286E-17	4.274566E-17
2.920000E+03	6.682957E-17	4.353170E-17
2.960000E+03	6.932839E-17	4.431091E-17
3.000000E+03	7.190915E-17	4.507280E-17
3.010000E+03	7.256482E-17	4.525868E-17
3.020000E+03	7.323051E-17	4.544624E-17
3.030000E+03	7.389832E-17	4.563049E-17
3.040000E+03	7.456797E-17	4.581124E-17
3.050000E+03	7.525485E-17	4.599785E-17
3.060000E+03	7.593544E-17	4.617586E-17
3.070000E+03	7.662506E-17	4.635458E-17
3.080000E+03	7.732353E-17	4.653380E-17
3.090000E+03	7.802279E-17	4.670861E-17
3.100000E+03	7.873830E-17	4.688819E-17
3.110000E+03	7.944636E-17	4.705834E-17
3.120000E+03	8.017022E-17	4.723281E-17
3.130000E+03	8.089396E-17	4.740211E-17
3.140000E+03	8.162528E-17	4.757072E-17
3.150000E+03	8.235604E-17	4.773385E-17
3.160000E+03	8.310163E-17	4.790034E-17
3.170000E+03	8.385405E-17	4.806547E-17
3.180000E+03	8.460531E-17	4.822460E-17
3.190000E+03	8.536289E-17	4.838197E-17
3.200000E+03	8.613438E-17	4.854179E-17
3.210000E+03	8.690405E-17	4.869509E-17
3.220000E+03	8.768713E-17	4.885037E-17
3.230000E+03	8.846789E-17	4.899877E-17
3.240000E+03	8.926165E-17	4.914874E-17
3.250000E+03	9.006045E-17	4.929577E-17
3.260000E+03	9.086410E-17	4.943972E-17
3.270000E+03	9.168009E-17	4.958458E-17
3.280000E+03	9.250049E-17	4.972593E-17
3.290000E+03	9.332517E-17	4.986367E-17
3.300000E+03	9.416166E-17	5.000173E-17
3.310000E+03	9.500208E-17	5.013583E-17
3.320000E+03	9.584634E-17	5.026588E-17
3.330000E+03	9.670954E-17	5.039969E-17
3.340000E+03	9.757635E-17	5.052912E-17
3.350000E+03	9.844667E-17	5.065408E-17
3.360000E+03	9.932799E-17	5.077835E-17
3.370000E+03	1.002203E-16	5.090180E-17
3.380000E+03	1.011235E-16	5.102428E-17
3.390000E+03	1.020377E-16	5.114569E-17
3.400000E+03	1.029629E-16	5.126592E-17
3.410000E+03	1.038915E-16	5.138111E-17
3.420000E+03	1.048387E-16	5.149868E-17
3.430000E+03	1.057972E-16	5.161482E-17
3.440000E+03	1.067669E-16	5.172946E-17
3.450000E+03	1.077482E-16	5.184256E-17
3.460000E+03	1.087413E-16	5.195414E-17
3.470000E+03	1.097539E-16	5.206770E-17
3.480000E+03	1.107788E-16	5.217966E-17
3.490000E+03	1.118237E-16	5.229350E-17
3.500000E+03	1.128817E-16	5.240580E-17
3.510000E+03	1.139532E-16	5.251657E-17
3.520000E+03	1.150534E-16	5.263260E-17
3.530000E+03	1.161680E-16	5.274714E-17
3.540000E+03	1.172976E-16	5.286030E-17
3.550000E+03	1.184574E-16	5.297871E-17
3.560000E+03	1.196334E-16	5.309582E-17
3.570000E+03	1.208407E-16	5.321813E-17
3.580000E+03	1.220657E-16	5.333932E-17
3.590000E+03	1.233233E-16	5.346567E-17
3.600000E+03	1.245999E-16	5.359104E-17
3.610000E+03	1.259106E-16	5.372159E-17
3.620000E+03	1.272489E-16	5.385425E-17
3.630000E+03	1.286226E-16	5.399200E-17
3.640000E+03	1.300254E-16	5.413184E-17
3.650000E+03	1.314580E-16	5.427370E-17
3.660000E+03	1.329280E-16	5.442046E-17
3.670000E+03	1.344361E-16	5.457193E-17
3.680000E+03	1.359758E-16	5.472513E-17
3.690000E+03	1.375547E-16	5.488272E-17
3.700000E+03	1.391732E-16	5.504445E-17
3.710000E+03	1.408246E-16	5.520730E-17
3.720000E+03	1.425231E-16	5.537641E-17
3.730000E+03	1.442548E-16	5.554595E-17
3.740000E+03	1.460337E-16	5.572087E-17
3.750000E+03	1.478527E-16	5.589798E-17
3.760000E+03	1.497113E-16	5.607670E-17
3.770000E+03	1.516091E-16	5.625645E-17
3.780000E+03	1.535454E-16	5.643653E-17
3.790000E+03	1.555262E-16	5.661872E-17
3.800000E+03	1.575434E-16	5.679966E-17
3.810000E+03	1.595957E-16	5.697845E-17
3.820000E+03	1.616885E-16	5.715661E-17
3.830000E+03	1.638196E-16	5.733300E-17
3.840000E+03	1.659805E-16	5.750422E-17
3.850000E+03	1.681753E-16	5.767138E-17
3.860000E+03	1.703949E-16	5.783103E-17
3.870000E+03	1.726432E-16	5.798419E-17
3.880000E+03	1.749171E-16	5.812954E-17
3.890000E+03	1.772067E-16	5.826355E-17
3.900000E+03	1.795151E-16	5.838710E-17
3.910000E+03	1.818389E-16	5.849884E-17
3.920000E+03	1.841744E-16	5.859746E-17
3.930000E+03	1.865175E-16	5.868158E-17
3.940000E+03	1.888578E-16	5.874782E-17
3.950000E+03	1.911982E-16	5.879716E-17
3.960000E+03	1.935347E-16	5.882840E-17
3.970000E+03	1.958637E-16	5.884049E-17
3.980000E+03	1.981816E-16	5.883245E-17
3.990000E+03	2.004784E-16	5.880148E-17
4.000000E+03	2.027577E-16	5.874888E-17
4.010000E+03	2.050103E-16	5.867219E-17
4.020000E+03	2.072403E-16	5.857292E-17
4.030000E+03	2.094461E-16	5.845083E-17
4.040000E+03	2.116195E-16	5.830400E-17
4.050000E+03	2.137665E-16	5.813436E-17
4.060000E+03	2.158801E-16	5.794043E-17
4.070000E+03	2.179609E-16	5.772268E-17
4.080000E+03	2.200099E-16	5.748175E-17
4.090000E+03	2.220286E-16	5.721846E-17
4.100000E+03	2.240193E-16	5.693371E-17
4.110000E+03	2.259850E-16	5.662859E-17
4.120000E+03	2.279293E-16	5.630428E-17
4.130000E+03	2.298497E-16	5.596047E-17
4.140000E+03	2.317511E-16	5.559861E-17
4.150000E+03	2.336387E-16	5.522019E-17
4.160000E+03	2.355243E-16	5.482816E-17
4.170000E+03	2.374019E-16	5.442117E-17
4.180000E+03	2.392841E-16	5.400222E-17
4.190000E+03	2.411716E-16	5.357149E-17
4.200000E+03	2.430718E-16	5.313058E-17
4.210000E+03	2.449982E-16	5.268230E-17
4.220000E+03	2.469462E-16	5.222549E-17
4.230000E+03	2.489240E-16	5.176166E-17
4.240000E+03	2.509394E-16	5.129218E-17
4.250000E+03	2.530064E-16	5.081951E-17
4.260000E+03	2.551211E-16	5.034243E-17
4.270000E+03	2.572917E-16	4.986207E-17
4.280000E+03	2.595260E-16	4.937943E-17
4.290000E+03	2.618319E-16	4.889536E-17
4.300000E+03	2.642169E-16	4.841061E-17
4.310000E+03	2.666825E-16	4.792469E-17
4.320000E+03	2.692302E-16	4.743711E-17
4.330000E+03	2.718724E-16	4.694926E-17
4.340000E+03	2.746097E-16	4.646033E-17
4.350000E+03	2.774477E-16	4.597042E-17
4.360000E+03	2.803918E-16	4.547943E-17
4.370000E+03	2.834350E-16	4.498529E-17
4.380000E+03	2.865926E-16	4.448947E-17
4.390000E+03	2.898561E-16	4.398965E-17
4.400000E+03	2.932277E-16	4.348520E-17
4.410000E+03	2.967140E-16	4.297612E-17
4.420000E+03	3.003036E-16	4.245980E-17
4.430000E+03	3.039954E-16	4.193519E-17
4.440000E+03	3.077924E-16	4.140184E-17
4.450000E+03	3.116795E-16	4.085691E-17
4.460000E+03	3.156513E-16	4.029900E-17
4.470000E+03	3.197071E-16	3.972741E-17
4.480000E+03	3.238331E-16	3.913985E-17
4.490000E+03	3.280198E-16	3.853476E-17
4.500000E+03	3.322505E-16	3.790992E-17
4.510000E+03	3.365130E-16	3.726382E-17
4.520000E+03	3.408000E-16	3.659568E-17
4.530000E+03	3.450854E-16	3.590286E-17
4.540000E+03	3.493600E-16	3.518483E-17
4.550000E+03	3.536079E-16	3.444051E-17
4.560000E+03	3.578010E-16	3.366793E-17
4.570000E+03	3.619350E-16	3.286767E-17
4.580000E+03	3.659877E-16	3.203881E-17
4.590000E+03	3.699436E-16	3.118131E-17
4.600000E+03	3.737878E-16	3.029543E-17
4.610000E+03	3.775066E-16	2.938171E-17
4.620000E+03	3.810813E-16	2.844055E-17
4.630000E+03	3.845012E-16	2.747319E-17
4.640000E+03	3.877636E-16	2.648158E-17
4.650000E+03	3.908615E-16	2.546748E-17
4.660000E+03	3.937842E-16	2.443258E-17
4.670000E+03	3.965288E-16	2.337921E-17
4.680000E+03	3.991018E-16	2.231036E-17
4.690000E+03	4.014990E-16	2.122849E-17
4.700000E+03	4.037308E-16	2.013696E-17
4.710000E+03	4.057913E-16	1.903844E-17
4.720000E+03	4.077077E-16	1.793736E-17
4.730000E+03	4.094713E-16	1.683667E-17
4.740000E+03	4.111125E-16	1.574131E-17
4.750000E+03	4.126317E-16	1.465541E-17
4.760000E+03	4.140430E-16	1.358429E-17
4.770000E+03	4.153672E-16	1.253436E-17
4.780000E+03	4.166258E-16	1.151332E-17
4.790000E+03	4.178220E-16	1.053015E-17
4.800000E+03	4.189775E-16	9.597044E-18
4.810000E+03	4.201071E-16	8.729582E-18
4.820000E+03	4.212318E-16	7.948148E-18
4.830000E+03	4.223587E-16	7.278299E-18
4.840000E+03	4.235000E-16	6.750597E-18
4.850000E+03	4.246790E-16	6.397160E-18
4.860000E+03	4.258922E-16	6.243643E-18
4.870000E+03	4.271592E-16	6.297050E-18
4.880000E+03	4.284731E-16	6.536347E-18
4.890000E+03	4.298494E-16	6.926938E-18
4.900000E+03	4.312832E-16	7.430896E-18
4.910000E+03	4.327796E-16	8.014332E-18
4.920000E+03	4.343358E-16	8.649828E-18
4.930000E+03	4.359534E-16	9.316595E-18
4.940000E+03	4.376133E-16	9.998775E-18
4.950000E+03	4.393135E-16	1.068491E-17
4.960000E+03	4.410506E-16	1.136645E-17
4.970000E+03	4.428136E-16	1.203677E-17
4.980000E+03	4.445905E-16	1.269072E-17
4.990000E+03	4.463689E-16	1.332414E-17
5.000000E+03	4.481354E-16	1.393364E-17
5.010000E+03	4.498765E-16	1.451635E-17
5.020000E+03	4.515791E-16	1.506982E-17
5.030000E+03	4.532421E-16	1.559236E-17
5.040000E+03	4.548344E-16	1.608147E-17
5.050000E+03	4.563624E-16	1.653616E-17
5.060000E+03	4.578087E-16	1.695478E-17
5.070000E+03	4.591568E-16	1.733587E-17
5.080000E+03	4.604097E-16	1.767882E-17
5.090000E+03	4.615527E-16	1.798249E-17
5.100000E+03	4.625850E-16	1.824642E-17
5.110000E+03	4.634878E-16	1.846955E-17
5.120000E+03	4.642682E-16	1.865199E-17
5.130000E+03	4.649219E-16	1.879351E-17
5.140000E+03	4.654390E-16	1.889381E-17
5.150000E+03	4.658228E-16	1.895324E-17
5.160000E+03	4.660645E-16	1.897177E-17
5.170000E+03	4.661626E-16	1.894984E-17
5.180000E+03	4.661278E-16	1.888851E-17
5.190000E+03	4.659465E-16	1.878798E-17
5.200000E+03	4.656176E-16	1.864912E-17
5.210000E+03	4.651465E-16	1.847321E-17
5.220000E+03	4.645261E-16	1.826121E-17
5.230000E+03	4.637618E-16	1.801471E-17
5.240000E+03	4.628466E-16	1.773502E-17
5.250000E+03	4.617859E-16	1.742411E-17
5.260000E+03	4.605727E-16	1.708370E-17
5.270000E+03	4.592063E-16	1.671596E-17
5.280000E+03	4.576858E-16	1.632333E-17
5.290000E+03	4.560106E-16	1.590852E-17
5.300000E+03	4.541801E-16	1.547455E-17
5.310000E+03	4.521938E-16	1.502479E-17
5.320000E+03	4.500513E-16	1.456298E-17
5.330000E+03	4.477468E-16	1.409313E-17
5.340000E+03	4.452864E-16	1.362009E-17
5.350000E+03	4.426707E-16	1.314903E-17
5.360000E+03	4.398947E-16	1.268551E-17
5.370000E+03	4.369602E-16	1.223586E-17
5.380000E+03	4.338691E-16	1.180697E-17
5.390000E+03	4.306296E-16	1.140638E-17
5.400000E+03	4.272337E-16	1.104158E-17
5.410000E+03	4.236964E-16	1.072082E-17
5.420000E+03	4.200114E-16	1.045161E-17
5.430000E+03	4.161896E-16	1.024131E-17
5.440000E+03	4.122428E-16	1.009621E-17
5.450000E+03	4.081673E-16	1.002052E-17
5.460000E+03	4.039719E-16	1.001353E-17
5.470000E+03	3.996777E-16	1.006894E-17
5.480000E+03	3.952875E-16	1.017851E-17
5.490000E+03	3.908217E-16	1.033383E-17
5.500000E+03	3.862973E-16	1.052636E-17
5.510000E+03	3.817328E-16	1.074798E-17
5.520000E+03	3.771479E-16	1.099123E-17
5.530000E+03	3.725634E-16	1.124956E-17
5.540000E+03	3.680003E-16	1.151734E-17
5.550000E+03	3.634801E-16	1.178985E-17
5.560000E+03	3.590239E-16	1.206326E-17
5.570000E+03	3.546571E-16	1.233468E-17
5.580000E+03	3.504001E-16	1.260178E-17
5.590000E+03	3.462677E-16	1.286269E-17
5.600000E+03	3.422832E-16	1.311638E-17
5.610000E+03	3.384597E-16	1.336192E-17
5.620000E+03	3.348224E-16	1.359925E-17
5.630000E+03	3.313818E-16	1.382811E-17
5.640000E+03	3.281557E-16	1.404877E-17
5.650000E+03	3.251515E-16	1.426133E-17
5.660000E+03	3.223831E-16	1.446632E-17
5.670000E+03	3.198540E-16	1.466399E-17
5.680000E+03	3.175784E-16	1.485512E-17
5.690000E+03	3.155552E-16	1.503991E-17
5.700000E+03	3.137853E-16	1.521866E-17
5.710000E+03	3.122672E-16	1.539157E-17
5.720000E+03	3.110005E-16	1.555889E-17
5.730000E+03	3.099784E-16	1.572053E-17
5.740000E+03	3.091870E-16	1.587600E-17
5.750000E+03	3.086181E-16	1.602501E-17
5.760000E+03	3.082564E-16	1.616690E-17
5.770000E+03	3.080882E-16	1.630100E-17
5.780000E+03	3.080851E-16	1.642581E-17
5.790000E+03	3.082325E-16	1.654047E-17
5.800000E+03	3.085016E-16	1.664335E-17
5.810000E+03	3.088659E-16	1.673286E-17
5.820000E+03	3.093017E-16	1.680754E-17
5.830000E+03	3.097760E-16	1.686541E-17
5.840000E+03	3.102635E-16	1.690489E-17
5.850000E+03	3.107356E-16	1.692424E-17
5.860000E+03	3.111596E-16	1.692154E-17
5.870000E+03	3.115090E-16	1.689522E-17
5.880000E+03	3.117632E-16	1.684412E-17
5.890000E+03	3.119004E-16	1.676709E-17
5.900000E+03	3.118978E-16	1.666301E-17
5.910000E+03	3.117452E-16	1.653153E-17
5.920000E+03	3.114280E-16	1.637216E-17
5.930000E+03	3.109447E-16	1.618521E-17
5.940000E+03	3.102903E-16	1.597090E-17
5.950000E+03	3.094690E-16	1.573002E-17
5.960000E+03	3.084938E-16	1.546385E-17
5.970000E+03	3.073783E-16	1.517378E-17
5.980000E+03	3.061320E-16	1.486102E-17
5.990000E+03	3.047848E-16	1.452779E-17
6.000000E+03	3.033536E-16	1.417566E-17
6.010000E+03	3.018743E-16	1.380706E-17
6.020000E+03	3.003727E-16	1.342390E-17
6.030000E+03	2.988800E-16	1.302821E-17
6.040000E+03	2.974245E-16	1.262182E-17
6.050000E+03	2.960465E-16	1.220693E-17
6.060000E+03	2.947703E-16	1.178493E-17
6.070000E+03	2.936272E-16	1.135737E-17
6.080000E+03	2.926512E-16	1.092572E-17
6.090000E+03	2.918708E-16	1.049111E-17
6.100000E+03	2.913089E-16	1.005430E-17
6.110000E+03	2.909937E-16	9.616113E-18
6.120000E+03	2.909400E-16	9.176813E-18
6.130000E+03	2.911752E-16	8.737010E-18
6.140000E+03	2.917168E-16	8.296918E-18
6.150000E+03	2.925717E-16	7.856480E-18
6.160000E+03	2.937560E-16	7.415984E-18
6.170000E+03	2.952833E-16	6.975799E-18
6.180000E+03	2.971523E-16	6.536226E-18
6.190000E+03	2.993713E-16	6.098260E-18
6.200000E+03	3.019416E-16	5.663432E-18
6.210000E+03	3.048621E-16	5.234252E-18
6.220000E+03	3.081284E-16	4.814689E-18
6.230000E+03	3.117336E-16	4.410860E-18
6.240000E+03	3.156658E-16	4.031947E-18
6.250000E+03	3.199051E-16	3.691298E-18
6.260000E+03	3.244359E-16	3.407526E-18
6.270000E+03	3.292339E-16	3.204043E-18
6.280000E+03	3.342708E-16	3.105743E-18
6.290000E+03	3.395145E-16	3.129934E-18
6.300000E+03	3.449243E-16	3.269303E-18
6.310000E+03	3.504727E-16	3.500868E-18
6.320000E+03	3.561120E-16	3.798036E-18
6.330000E+03	3.618087E-16	4.136773E-18
6.340000E+03	3.675298E-16	4.497618E-18
6.350000E+03	3.732278E-16	4.865328E-18
6.360000E+03	3.788718E-16	5.228331E-18
6.370000E+03	3.844330E-16	5.577656E-18
6.380000E+03	3.898683E-16	5.905970E-18
6.390000E+03	3.951591E-16	6.207659E-18
6.400000E+03	4.002729E-16	6.477958E-18
6.410000E+03	4.051853E-16	6.713092E-18
6.420000E+03	4.098809E-16	6.910197E-18
6.430000E+03	4.143354E-16	7.066987E-18
6.440000E+03	4.185388E-16	7.182131E-18
6.450000E+03	4.224717E-16	7.254899E-18
6.460000E+03	4.261291E-16	7.285629E-18
6.470000E+03	4.295021E-16	7.275516E-18
6.480000E+03	4.325830E-16	7.226846E-18
6.490000E+03	4.353662E-16	7.143187E-18
6.500000E+03	4.378469E-16	7.029615E-18
6.510000E+03	4.400226E-16	6.893024E-18
6.520000E+03	4.418937E-16	6.742458E-18
6.530000E+03	4.434679E-16	6.589518E-18
6.540000E+03	4.447497E-16	6.448422E-18
6.550000E+03	4.457385E-16	6.335983E-18
6.560000E+03	4.464486E-16	6.271363E-18
6.570000E+03	4.468828E-16	6.274444E-18
6.580000E+03	4.470648E-16	6.364232E-18
6.590000E+03	4.469999E-16	6.555226E-18
6.600000E+03	4.467005E-16	6.848383E-18
6.610000E+03	4.461801E-16	7.234035E-18
6.620000E+03	4.454582E-16	7.699728E-18
6.630000E+03	4.445484E-16	8.232164E-18
6.640000E+03	4.434578E-16	8.818534E-18
6.650000E+03	4.422071E-16	9.447627E-18
6.660000E+03	4.408118E-16	1.010972E-17
6.670000E+03	4.392877E-16	1.079667E-17
6.680000E+03	4.376587E-16	1.150193E-17
6.690000E+03	4.359295E-16	1.221968E-17
6.700000E+03	4.341397E-16	1.294607E-17
6.710000E+03	4.322897E-16	1.367705E-17
6.720000E+03	4.304216E-16	1.441054E-17
6.730000E+03	4.285446E-16	1.514410E-17
6.740000E+03	4.266892E-16	1.587655E-17
6.750000E+03	4.248799E-16	1.660702E-17
6.760000E+03	4.231418E-16	1.733511E-17
6.770000E+03	4.214999E-16	1.806082E-17
6.780000E+03	4.199798E-16	1.878454E-17
6.790000E+03	4.186129E-16	1.950728E-17
6.800000E+03	4.174173E-16	2.022974E-17
6.810000E+03	4.164231E-16	2.095348E-17
6.820000E+03	4.156466E-16	2.167961E-17
6.830000E+03	4.151153E-16	2.241004E-17
6.840000E+03	4.148426E-16	2.314615E-17
6.850000E+03	4.148529E-16	2.389004E-17
6.860000E+03	4.151618E-16	2.464350E-17
6.870000E+03	4.157764E-16	2.540794E-17
6.880000E+03	4.167146E-16	2.618544E-17
6.890000E+03	4.179915E-16	2.697804E-17
6.900000E+03	4.195998E-16	2.778638E-17
6.910000E+03	4.215497E-16	2.861218E-17
6.920000E+03	4.238347E-16	2.945606E-17
6.930000E+03	4.264664E-16	3.031981E-17
6.940000E+03	4.294326E-16	3.120355E-17
6.950000E+03	4.327260E-16	3.210760E-17
6.960000E+03	4.363294E-16	3.303145E-17
6.970000E+03	4.402441E-16	3.397585E-17
6.980000E+03	4.444414E-16	3.493915E-17
6.990000E+03	4.489114E-16	3.592097E-17
7.000000E+03	4.536358E-16	3.692013E-17
7.010000E+03	4.585945E-16	3.793516E-17
7.020000E+03	4.637589E-16	3.896370E-17
7.030000E+03	4.691142E-16	4.000437E-17
7.040000E+03	4.746374E-16	4.105497E-17
7.050000E+03	4.803052E-16	4.211311E-17
7.060000E+03	4.860857E-16	4.317546E-17
7.070000E+03	4.919542E-16	4.423920E-17
7.080000E+03	4.978940E-16	4.530208E-17
7.090000E+03	5.038716E-16	4.636019E-17
7.100000E+03	5.098607E-16	4.741016E-17
7.110000E+03	5.158427E-16	4.844924E-17
7.120000E+03	5.217724E-16	4.947206E-17
7.130000E+03	5.276368E-16	5.047617E-17
7.140000E+03	5.333869E-16	5.145563E-17
7.150000E+03	5.389968E-16	5.240661E-17
7.160000E+03	5.444299E-16	5.332417E-17
7.170000E+03	5.496372E-16	5.420211E-17
7.180000E+03	5.545846E-16	5.503560E-17
7.190000E+03	5.592172E-16	5.581772E-17
7.200000E+03	5.634860E-16	5.654213E-17
7.210000E+03	5.673393E-16	5.720217E-17
7.220000E+03	5.707239E-16	5.779107E-17
7.230000E+03	5.735853E-16	5.830194E-17
7.240000E+03	5.758691E-16	5.872800E-17
7.250000E+03	5.775125E-16	5.906167E-17
7.260000E+03	5.784649E-16	5.929675E-17
7.270000E+03	5.786892E-16	5.942858E-17
7.280000E+03	5.781354E-16	5.945135E-17
7.290000E+03	5.767702E-16	5.936122E-17
7.300000E+03	5.745695E-16	5.915548E-17
7.310000E+03	5.715188E-16	5.883272E-17
7.320000E+03	5.676155E-16	5.839298E-17
7.330000E+03	5.628596E-16	5.783686E-17
7.340000E+03	5.572727E-16	5.716746E-17
7.350000E+03	5.508982E-16	5.639035E-17
7.360000E+03	5.437728E-16	5.551066E-17
7.370000E+03	5.359621E-16	5.453669E-17
7.380000E+03	5.275154E-16	5.347519E-17
7.390000E+03	5.185251E-16	5.233745E-17
7.400000E+03	5.090547E-16	5.113188E-17
7.410000E+03	4.992072E-16	4.987088E-17
7.420000E+03	4.890539E-16	4.856364E-17
7.430000E+03	4.786915E-16	4.722180E-17
7.440000E+03	4.681996E-16	4.585515E-17
7.450000E+03	4.576780E-16	4.447532E-17
7.460000E+03	4.471910E-16	4.309019E-17
7.470000E+03	4.368133E-16	4.170850E-17
7.480000E+03	4.266275E-16	4.033939E-17
7.490000E+03	4.166799E-16	3.898831E-17
7.500000E+03	4.070247E-16	3.766114E-17
7.510000E+03	3.977150E-16	3.636340E-17
7.520000E+03	3.887896E-16	3.509893E-17
7.530000E+03	3.802739E-16	3.387012E-17
7.540000E+03	3.721997E-16	3.267967E-17
7.550000E+03	3.645802E-16	3.152834E-17
7.560000E+03	3.574355E-16	3.041731E-17
7.570000E+03	3.507740E-16	2.934647E-17
7.580000E+03	3.446000E-16	2.831523E-17
7.590000E+03	3.389083E-16	2.732199E-17
7.600000E+03	3.337019E-16	2.636570E-17
7.610000E+03	3.289691E-16	2.544400E-17
7.620000E+03	3.247128E-16	2.455555E-17
7.630000E+03	3.209117E-16	2.369703E-17
7.640000E+03	3.175587E-16	2.286618E-17
7.650000E+03	3.146401E-16	2.206016E-17
7.660000E+03	3.121407E-16	2.127599E-17
7.670000E+03	3.100441E-16	2.051061E-17
7.680000E+03	3.083274E-16	1.976053E-17
7.690000E+03	3.069832E-16	1.902332E-17
7.700000E+03	3.059816E-16	1.829515E-17
7.710000E+03	3.053137E-16	1.757354E-17
7.720000E+03	3.049483E-16	1.685483E-17
7.730000E+03	3.048702E-16	1.613639E-17
7.740000E+03	3.050578E-16	1.541537E-17
7.750000E+03	3.054895E-16	1.468913E-17
7.760000E+03	3.061431E-16	1.395519E-17
