#wls	flux	fluxerr
1.600000E+03	2.019928E-17	1.269058E-17
1.640000E+03	2.083660E-17	1.299183E-17
1.680000E+03	2.149377E-17	1.329769E-17
1.720000E+03	2.217471E-17	1.361012E-17
1.760000E+03	2.287594E-17	1.392647E-17
1.800000E+03	2.360149E-17	1.424869E-17
1.840000E+03	2.434756E-17	1.457396E-17
1.880000E+03	2.512251E-17	1.490674E-17
1.920000E+03	2.591818E-17	1.524157E-17
1.960000E+03	2.673881E-17	1.558038E-17
2.000000E+03	2.758442E-17	1.592257E-17
2.040000E+03	2.845964E-17	1.627017E-17
2.080000E+03	2.935513E-17	1.661716E-17
2.120000E+03	3.028502E-17	1.697088E-17
2.160000E+03	3.123463E-17	1.732236E-17
2.200000E+03	3.221861E-17	1.767903E-17
2.240000E+03	3.322663E-17	1.803444E-17
2.280000E+03	3.426343E-17	1.839041E-17
2.320000E+03	3.532860E-17	1.874594E-17
2.360000E+03	3.642164E-17	1.909996E-17
2.400000E+03	3.754764E-17	1.945429E-17
2.440000E+03	3.870036E-17	1.980483E-17
2.480000E+03	3.988491E-17	2.015331E-17
2.520000E+03	4.110064E-17	2.049850E-17
2.560000E+03	4.234684E-17	2.083910E-17
2.600000E+03	4.362895E-17	2.117682E-17
2.640000E+03	4.493363E-17	2.150419E-17
2.680000E+03	4.627907E-17	2.182901E-17
2.720000E+03	4.765168E-17	2.214375E-17
2.760000E+03	4.906388E-17	2.245317E-17
2.800000E+03	5.050848E-17	2.275282E-17
2.840000E+03	5.198483E-17	2.304135E-17
2.880000E+03	5.350640E-17	2.332357E-17
2.920000E+03	5.505921E-17	2.359209E-17
2.960000E+03	5.665746E-17	2.385182E-17
3.000000E+03	5.829455E-17	2.409861E-17
3.010000E+03	5.871406E-17	2.415985E-17
3.020000E+03	5.913335E-17	2.421908E-17
3.030000E+03	5.955241E-17	2.427629E-17
3.040000E+03	5.997857E-17	2.433446E-17
3.050000E+03	6.041187E-17	2.439354E-17
3.060000E+03	6.084502E-17	2.445057E-17
3.070000E+03	6.127803E-17	2.450554E-17
3.080000E+03	6.171090E-17	2.455844E-17
3.090000E+03	6.215847E-17	2.461515E-17
3.100000E+03	6.259856E-17	2.466684E-17
3.110000E+03	6.304604E-17	2.471936E-17
3.120000E+03	6.350096E-17	2.477270E-17
3.130000E+03	6.395593E-17	2.482393E-17
3.140000E+03	6.441845E-17	2.487594E-17
3.150000E+03	6.488110E-17	2.492583E-17
3.160000E+03	6.534390E-17	2.497361E-17
3.170000E+03	6.581444E-17	2.502214E-17
3.180000E+03	6.628522E-17	2.506854E-17
3.190000E+03	6.676387E-17	2.511568E-17
3.200000E+03	6.725048E-17	2.516353E-17
3.210000E+03	6.773752E-17	2.520923E-17
3.220000E+03	6.822505E-17	2.525281E-17
3.230000E+03	6.872077E-17	2.529707E-17
3.240000E+03	6.922476E-17	2.534200E-17
3.250000E+03	6.972947E-17	2.538480E-17
3.260000E+03	7.023494E-17	2.542545E-17
3.270000E+03	7.074896E-17	2.546677E-17
3.280000E+03	7.127164E-17	2.550872E-17
3.290000E+03	7.179534E-17	2.554854E-17
3.300000E+03	7.232792E-17	2.558898E-17
3.310000E+03	7.286171E-17	2.562729E-17
3.320000E+03	7.340460E-17	2.566621E-17
3.330000E+03	7.394890E-17	2.570300E-17
3.340000E+03	7.450252E-17	2.574039E-17
3.350000E+03	7.505777E-17	2.577568E-17
3.360000E+03	7.562260E-17	2.581154E-17
3.370000E+03	7.618928E-17	2.584531E-17
3.380000E+03	7.676580E-17	2.587964E-17
3.390000E+03	7.735230E-17	2.591453E-17
3.400000E+03	7.794105E-17	2.594732E-17
3.410000E+03	7.854010E-17	2.598067E-17
3.420000E+03	7.914158E-17	2.601190E-17
3.430000E+03	7.975371E-17	2.604369E-17
3.440000E+03	8.036854E-17	2.607338E-17
3.450000E+03	8.099435E-17	2.610361E-17
3.460000E+03	8.162314E-17	2.613175E-17
3.470000E+03	8.227120E-17	2.616295E-17
3.480000E+03	8.291460E-17	2.618953E-17
3.490000E+03	8.356959E-17	2.621659E-17
3.500000E+03	8.423634E-17	2.624413E-17
3.510000E+03	8.491501E-17	2.627209E-17
3.520000E+03	8.559775E-17	2.629799E-17
3.530000E+03	8.628463E-17	2.632182E-17
3.540000E+03	8.698398E-17	2.634607E-17
3.550000E+03	8.769606E-17	2.637072E-17
3.560000E+03	8.841289E-17	2.639331E-17
3.570000E+03	8.914274E-17	2.641625E-17
3.580000E+03	8.987766E-17	2.643710E-17
3.590000E+03	9.062613E-17	2.645831E-17
3.600000E+03	9.138825E-17	2.647980E-17
3.610000E+03	9.215607E-17	2.649921E-17
3.620000E+03	9.293792E-17	2.651885E-17
3.630000E+03	9.372588E-17	2.653639E-17
3.640000E+03	9.452836E-17	2.655415E-17
3.650000E+03	9.534569E-17	2.657211E-17
3.660000E+03	9.616962E-17	2.658789E-17
3.670000E+03	9.700040E-17	2.660151E-17
3.680000E+03	9.784666E-17	2.661527E-17
3.690000E+03	9.870858E-17	2.662910E-17
3.700000E+03	9.957795E-17	2.664070E-17
3.710000E+03	1.004636E-16	2.665234E-17
3.720000E+03	1.013571E-16	2.666172E-17
3.730000E+03	1.022671E-16	2.667103E-17
3.740000E+03	1.031942E-16	2.668029E-17
3.750000E+03	1.041299E-16	2.668721E-17
3.760000E+03	1.050743E-16	2.669177E-17
3.770000E+03	1.060364E-16	2.669615E-17
3.780000E+03	1.070165E-16	2.670030E-17
3.790000E+03	1.080061E-16	2.670202E-17
3.800000E+03	1.090055E-16	2.670129E-17
3.810000E+03	1.100324E-16	2.670233E-17
3.820000E+03	1.110608E-16	2.669874E-17
3.830000E+03	1.121085E-16	2.669470E-17
3.840000E+03	1.131759E-16	2.669019E-17
3.850000E+03	1.142543E-16	2.668305E-17
3.860000E+03	1.153441E-16	2.667327E-17
3.870000E+03	1.164544E-16	2.666289E-17
3.880000E+03	1.175855E-16	2.665180E-17
3.890000E+03	1.187289E-16	2.663796E-17
3.900000E+03	1.198849E-16	2.662135E-17
3.910000E+03	1.210626E-16	2.660390E-17
3.920000E+03	1.222535E-16	2.658359E-17
3.930000E+03	1.234669E-16	2.656235E-17
3.940000E+03	1.246940E-16	2.653815E-17
3.950000E+03	1.259353E-16	2.651098E-17
3.960000E+03	1.272002E-16	2.648273E-17
3.970000E+03	1.284800E-16	2.645142E-17
3.980000E+03	1.297841E-16	2.641889E-17
3.990000E+03	1.310944E-16	2.638132E-17
4.000000E+03	1.324392E-16	2.634431E-17
4.010000E+03	1.337910E-16	2.630220E-17
4.020000E+03	1.351687E-16	2.625864E-17
4.030000E+03	1.365634E-16	2.621174E-17
4.040000E+03	1.379850E-16	2.616327E-17
4.050000E+03	1.394148E-16	2.610953E-17
4.060000E+03	1.408724E-16	2.605413E-17
4.070000E+03	1.423485E-16	2.599517E-17
4.080000E+03	1.438533E-16	2.593435E-17
4.090000E+03	1.453774E-16	2.586986E-17
4.100000E+03	1.469117E-16	2.579993E-17
4.110000E+03	1.484856E-16	2.572963E-17
4.120000E+03	1.500703E-16	2.565376E-17
4.130000E+03	1.516760E-16	2.557399E-17
4.140000E+03	1.533130E-16	2.549190E-17
4.150000E+03	1.549617E-16	2.540408E-17
4.160000E+03	1.566425E-16	2.531378E-17
4.170000E+03	1.583458E-16	2.521925E-17
4.180000E+03	1.600720E-16	2.512042E-17
4.190000E+03	1.618213E-16	2.501719E-17
4.200000E+03	1.635942E-16	2.490950E-17
4.210000E+03	1.653908E-16	2.479725E-17
4.220000E+03	1.672218E-16	2.468188E-17
4.230000E+03	1.690669E-16	2.456021E-17
4.240000E+03	1.709365E-16	2.443369E-17
4.250000E+03	1.728308E-16	2.430221E-17
4.260000E+03	1.747500E-16	2.416567E-17
4.270000E+03	1.766944E-16	2.402397E-17
4.280000E+03	1.786639E-16	2.387697E-17
4.290000E+03	1.806586E-16	2.372459E-17
4.300000E+03	1.826786E-16	2.356668E-17
4.310000E+03	1.847130E-16	2.340176E-17
4.320000E+03	1.867833E-16	2.323247E-17
4.330000E+03	1.888678E-16	2.305597E-17
4.340000E+03	1.909770E-16	2.287349E-17
4.350000E+03	1.931107E-16	2.268490E-17
4.360000E+03	1.952688E-16	2.249011E-17
4.370000E+03	1.974395E-16	2.228770E-17
4.380000E+03	1.996337E-16	2.207886E-17
4.390000E+03	2.018507E-16	2.186348E-17
4.400000E+03	2.040902E-16	2.164145E-17
4.410000E+03	2.063399E-16	2.141144E-17
4.420000E+03	2.086105E-16	2.117460E-17
4.430000E+03	2.109014E-16	2.093083E-17
4.440000E+03	2.131998E-16	2.067890E-17
4.450000E+03	2.155166E-16	2.041991E-17
4.460000E+03	2.178506E-16	2.015378E-17
4.470000E+03	2.201888E-16	1.987938E-17
4.480000E+03	2.225420E-16	1.959780E-17
4.490000E+03	2.248967E-16	1.930796E-17
4.500000E+03	2.272635E-16	1.901092E-17
4.510000E+03	2.296288E-16	1.870572E-17
4.520000E+03	2.320032E-16	1.839341E-17
4.530000E+03	2.343852E-16	1.807407E-17
4.540000E+03	2.367604E-16	1.774682E-17
4.550000E+03	2.391270E-16	1.741186E-17
4.560000E+03	2.414956E-16	1.707029E-17
4.570000E+03	2.438643E-16	1.672230E-17
4.580000E+03	2.462053E-16	1.636640E-17
4.590000E+03	2.485550E-16	1.600549E-17
4.600000E+03	2.508725E-16	1.563738E-17
4.610000E+03	2.531813E-16	1.526416E-17
4.620000E+03	2.554791E-16	1.488626E-17
4.630000E+03	2.577506E-16	1.450343E-17
4.640000E+03	2.599930E-16	1.411630E-17
4.650000E+03	2.622171E-16	1.372629E-17
4.660000E+03	2.644073E-16	1.333346E-17
4.670000E+03	2.665607E-16	1.293870E-17
4.680000E+03	2.686884E-16	1.254368E-17
4.690000E+03	2.707609E-16	1.214823E-17
4.700000E+03	2.728158E-16	1.175544E-17
4.710000E+03	2.748103E-16	1.136493E-17
4.720000E+03	2.767689E-16	1.097941E-17
4.730000E+03	2.786756E-16	1.060009E-17
4.740000E+03	2.805416E-16	1.022941E-17
4.750000E+03	2.823373E-16	9.868540E-18
4.760000E+03	2.840879E-16	9.520857E-18
4.770000E+03	2.857775E-16	9.188479E-18
4.780000E+03	2.874184E-16	8.874676E-18
4.790000E+03	2.889949E-16	8.582016E-18
4.800000E+03	2.905058E-16	8.313685E-18
4.810000E+03	2.919500E-16	8.072934E-18
4.820000E+03	2.933265E-16	7.862985E-18
4.830000E+03	2.946486E-16	7.687263E-18
4.840000E+03	2.958876E-16	7.547756E-18
4.850000E+03	2.970854E-16	7.447780E-18
4.860000E+03	2.981993E-16	7.387269E-18
4.870000E+03	2.992429E-16	7.365181E-18
4.880000E+03	3.002302E-16	7.379443E-18
4.890000E+03	3.011470E-16	7.426687E-18
4.900000E+03	3.019932E-16	7.503453E-18
4.910000E+03	3.027688E-16	7.606007E-18
4.920000E+03	3.034741E-16	7.730523E-18
4.930000E+03	3.041231E-16	7.873569E-18
4.940000E+03	3.047021E-16	8.031149E-18
4.950000E+03	3.052112E-16	8.199837E-18
4.960000E+03	3.056511E-16	8.376485E-18
4.970000E+03	3.060217E-16	8.558225E-18
4.980000E+03	3.063378E-16	8.742893E-18
4.990000E+03	3.065858E-16	8.927830E-18
5.000000E+03	3.067658E-16	9.111023E-18
5.010000E+03	3.068786E-16	9.290728E-18
5.020000E+03	3.069246E-16	9.465419E-18
5.030000E+03	3.069184E-16	9.634232E-18
5.040000E+03	3.068325E-16	9.795177E-18
5.050000E+03	3.066953E-16	9.948183E-18
5.060000E+03	3.064935E-16	1.009203E-17
5.070000E+03	3.062276E-16	1.022605E-17
5.080000E+03	3.059120E-16	1.035018E-17
5.090000E+03	3.055197E-16	1.046308E-17
5.100000E+03	3.050789E-16	1.056537E-17
5.110000E+03	3.045763E-16	1.065636E-17
5.120000E+03	3.040126E-16	1.073592E-17
5.130000E+03	3.034019E-16	1.080447E-17
5.140000E+03	3.027178E-16	1.086107E-17
5.150000E+03	3.019878E-16	1.090677E-17
5.160000E+03	3.011990E-16	1.094124E-17
5.170000E+03	3.003523E-16	1.096469E-17
5.180000E+03	2.994614E-16	1.097787E-17
5.190000E+03	2.985005E-16	1.098014E-17
5.200000E+03	2.974966E-16	1.097284E-17
5.210000E+03	2.964372E-16	1.095592E-17
5.220000E+03	2.953361E-16	1.093032E-17
5.230000E+03	2.941679E-16	1.089561E-17
5.240000E+03	2.929590E-16	1.085331E-17
5.250000E+03	2.916976E-16	1.080354E-17
5.260000E+03	2.903842E-16	1.074696E-17
5.270000E+03	2.890322E-16	1.068472E-17
5.280000E+03	2.876296E-16	1.061707E-17
5.290000E+03	2.861774E-16	1.054478E-17
5.300000E+03	2.846764E-16	1.046863E-17
5.310000E+03	2.831396E-16	1.038990E-17
5.320000E+03	2.815435E-16	1.030853E-17
5.330000E+03	2.799253E-16	1.022673E-17
5.340000E+03	2.782496E-16	1.014404E-17
5.350000E+03	2.765414E-16	1.006223E-17
5.360000E+03	2.747896E-16	9.981774E-18
5.370000E+03	2.729951E-16	9.903556E-18
5.380000E+03	2.711591E-16	9.828457E-18
5.390000E+03	2.692942E-16	9.757766E-18
5.400000E+03	2.674012E-16	9.692304E-18
5.410000E+03	2.654582E-16	9.632026E-18
5.420000E+03	2.634893E-16	9.578507E-18
5.430000E+03	2.614840E-16	9.532004E-18
5.440000E+03	2.594549E-16	9.493537E-18
5.450000E+03	2.573808E-16	9.462400E-18
5.460000E+03	2.552972E-16	9.439155E-18
5.470000E+03	2.531736E-16	9.421831E-18
5.480000E+03	2.510351E-16	9.410480E-18
5.490000E+03	2.488743E-16	9.403947E-18
5.500000E+03	2.467050E-16	9.401875E-18
5.510000E+03	2.445200E-16	9.403130E-18
5.520000E+03	2.423228E-16	9.406999E-18
5.530000E+03	2.401271E-16	9.413199E-18
5.540000E+03	2.379256E-16	9.420680E-18
5.550000E+03	2.357318E-16	9.429233E-18
5.560000E+03	2.335386E-16	9.437886E-18
5.570000E+03	2.313491E-16	9.446117E-18
5.580000E+03	2.291761E-16	9.453842E-18
5.590000E+03	2.270125E-16	9.460221E-18
5.600000E+03	2.248708E-16	9.465267E-18
5.610000E+03	2.227438E-16	9.468217E-18
5.620000E+03	2.206342E-16	9.468764E-18
5.630000E+03	2.185537E-16	9.467036E-18
5.640000E+03	2.165045E-16	9.462796E-18
5.650000E+03	2.144702E-16	9.455036E-18
5.660000E+03	2.124805E-16	9.444792E-18
5.670000E+03	2.105189E-16	9.431120E-18
5.680000E+03	2.085875E-16	9.413905E-18
5.690000E+03	2.066966E-16	9.393453E-18
5.700000E+03	2.048394E-16	9.369304E-18
5.710000E+03	2.030260E-16	9.341809E-18
5.720000E+03	2.012492E-16	9.310539E-18
5.730000E+03	1.995190E-16	9.275879E-18
5.740000E+03	1.978365E-16	9.237822E-18
5.750000E+03	1.961863E-16	9.195603E-18
5.760000E+03	1.945946E-16	9.150421E-18
5.770000E+03	1.930458E-16	9.101526E-18
5.780000E+03	1.915410E-16	9.048960E-18
5.790000E+03	1.900894E-16	8.993161E-18
5.800000E+03	1.886919E-16	8.934173E-18
5.810000E+03	1.873412E-16	8.871670E-18
5.820000E+03	1.860464E-16	8.806100E-18
5.830000E+03	1.848081E-16	8.737514E-18
5.840000E+03	1.836192E-16	8.665604E-18
5.850000E+03	1.824807E-16	8.590441E-18
5.860000E+03	1.814010E-16	8.512452E-18
5.870000E+03	1.803810E-16	8.431705E-18
5.880000E+03	1.794137E-16	8.347895E-18
5.890000E+03	1.785073E-16	8.261443E-18
5.900000E+03	1.776628E-16	8.172404E-18
5.910000E+03	1.768731E-16	8.080488E-18
5.920000E+03	1.761467E-16	7.986093E-18
5.930000E+03	1.754844E-16	7.889272E-18
5.940000E+03	1.748793E-16	7.789731E-18
5.950000E+03	1.743398E-16	7.687858E-18
5.960000E+03	1.738668E-16	7.583689E-18
5.970000E+03	1.734536E-16	7.476944E-18
5.980000E+03	1.731086E-16	7.367984E-18
5.990000E+03	1.728252E-16	7.256531E-18
6.000000E+03	1.726192E-16	7.143240E-18
6.010000E+03	1.724770E-16	7.027531E-18
6.020000E+03	1.723994E-16	6.909442E-18
6.030000E+03	1.724024E-16	6.789603E-18
6.040000E+03	1.724723E-16	6.667461E-18
6.050000E+03	1.726178E-16	6.543347E-18
6.060000E+03	1.728325E-16	6.417023E-18
6.070000E+03	1.731253E-16	6.288823E-18
6.080000E+03	1.734975E-16	6.158805E-18
6.090000E+03	1.739505E-16	6.027033E-18
6.100000E+03	1.744859E-16	5.893588E-18
6.110000E+03	1.750976E-16	5.758324E-18
6.120000E+03	1.757947E-16	5.621623E-18
6.130000E+03	1.765791E-16	5.483636E-18
6.140000E+03	1.774447E-16	5.344320E-18
6.150000E+03	1.784089E-16	5.204375E-18
6.160000E+03	1.794580E-16	5.063618E-18
6.170000E+03	1.806018E-16	4.922633E-18
6.180000E+03	1.818423E-16	4.781831E-18
6.190000E+03	1.831740E-16	4.641523E-18
6.200000E+03	1.846067E-16	4.502534E-18
6.210000E+03	1.861510E-16	4.365795E-18
6.220000E+03	1.877849E-16	4.231619E-18
6.230000E+03	1.895354E-16	4.101631E-18
6.240000E+03	1.913968E-16	3.976880E-18
6.250000E+03	1.933634E-16	3.858651E-18
6.260000E+03	1.954538E-16	3.748942E-18
6.270000E+03	1.976524E-16	3.649296E-18
6.280000E+03	1.999685E-16	3.561958E-18
6.290000E+03	2.023932E-16	3.489007E-18
6.300000E+03	2.049431E-16	3.433072E-18
6.310000E+03	2.076076E-16	3.396289E-18
6.320000E+03	2.103744E-16	3.380446E-18
6.330000E+03	2.132479E-16	3.385625E-18
6.340000E+03	2.162230E-16	3.410516E-18
6.350000E+03	2.192947E-16	3.453443E-18
6.360000E+03	2.224571E-16	3.512476E-18
6.370000E+03	2.257045E-16	3.585539E-18
6.380000E+03	2.290305E-16	3.670523E-18
6.390000E+03	2.324286E-16	3.765364E-18
6.400000E+03	2.358814E-16	3.867950E-18
6.410000E+03	2.393918E-16	3.976667E-18
6.420000E+03	2.429626E-16	4.090117E-18
6.430000E+03	2.465646E-16	4.206590E-18
6.440000E+03	2.501998E-16	4.325135E-18
6.450000E+03	2.538595E-16	4.444863E-18
6.460000E+03	2.575461E-16	4.565335E-18
6.470000E+03	2.612272E-16	4.685747E-18
6.480000E+03	2.648926E-16	4.805934E-18
6.490000E+03	2.685559E-16	4.926419E-18
6.500000E+03	2.721949E-16	5.047342E-18
6.510000E+03	2.757990E-16	5.169309E-18
6.520000E+03	2.793581E-16	5.293179E-18
6.530000E+03	2.828626E-16	5.420076E-18
6.540000E+03	2.862910E-16	5.551118E-18
6.550000E+03	2.896601E-16	5.688377E-18
6.560000E+03	2.929493E-16	5.833386E-18
6.570000E+03	2.961387E-16	5.987818E-18
6.580000E+03	2.992488E-16	6.154255E-18
6.590000E+03	3.022476E-16	6.334262E-18
6.600000E+03	3.051581E-16	6.530516E-18
6.610000E+03	3.079639E-16	6.744802E-18
6.620000E+03	3.106495E-16	6.978450E-18
6.630000E+03	3.132416E-16	7.231841E-18
6.640000E+03	3.157121E-16	7.503332E-18
6.650000E+03	3.180894E-16	7.792413E-18
6.660000E+03	3.203594E-16	8.097465E-18
6.670000E+03	3.225082E-16	8.416749E-18
6.680000E+03	3.245657E-16	8.749618E-18
6.690000E+03	3.265183E-16	9.094298E-18
6.700000E+03	3.283522E-16	9.448966E-18
6.710000E+03	3.300986E-16	9.813110E-18
6.720000E+03	3.317441E-16	1.018500E-17
6.730000E+03	3.332903E-16	1.056336E-17
6.740000E+03	3.347240E-16	1.094648E-17
6.750000E+03	3.360772E-16	1.133419E-17
6.760000E+03	3.373367E-16	1.172491E-17
6.770000E+03	3.385046E-16	1.211759E-17
6.780000E+03	3.395831E-16	1.251126E-17
6.790000E+03	3.405744E-16	1.290499E-17
6.800000E+03	3.414802E-16	1.329790E-17
6.810000E+03	3.423032E-16	1.368916E-17
6.820000E+03	3.430453E-16	1.407800E-17
6.830000E+03	3.437087E-16	1.446368E-17
6.840000E+03	3.442956E-16	1.484553E-17
6.850000E+03	3.448079E-16	1.522287E-17
6.860000E+03	3.452478E-16	1.559512E-17
6.870000E+03	3.456332E-16	1.596241E-17
6.880000E+03	3.459341E-16	1.632277E-17
6.890000E+03	3.461683E-16	1.667639E-17
6.900000E+03	3.463538E-16	1.702358E-17
6.910000E+03	3.464600E-16	1.736232E-17
6.920000E+03	3.465046E-16	1.769297E-17
6.930000E+03	3.465054E-16	1.801594E-17
6.940000E+03	3.464315E-16	1.832920E-17
6.950000E+03	3.463166E-16	1.863408E-17
6.960000E+03	3.461297E-16	1.892852E-17
6.970000E+03	3.459042E-16	1.921393E-17
6.980000E+03	3.456252E-16	1.948914E-17
6.990000E+03	3.452776E-16	1.975295E-17
7.000000E+03	3.448947E-16	2.000692E-17
7.010000E+03	3.444611E-16	2.024986E-17
7.020000E+03	3.439618E-16	2.048060E-17
7.030000E+03	3.434295E-16	2.070080E-17
7.040000E+03	3.428492E-16	2.090931E-17
7.050000E+03	3.422054E-16	2.110494E-17
7.060000E+03	3.415308E-16	2.128946E-17
7.070000E+03	3.408100E-16	2.146174E-17
7.080000E+03	3.400437E-16	2.162161E-17
7.090000E+03	3.392166E-16	2.176792E-17
7.100000E+03	3.383610E-16	2.190258E-17
7.110000E+03	3.374617E-16	2.202445E-17
7.120000E+03	3.365035E-16	2.213239E-17
7.130000E+03	3.355187E-16	2.222842E-17
7.140000E+03	3.344918E-16	2.231140E-17
7.150000E+03	3.334081E-16	2.238025E-17
7.160000E+03	3.322997E-16	2.243704E-17
7.170000E+03	3.311358E-16	2.247961E-17
7.180000E+03	3.299486E-16	2.251011E-17
7.190000E+03	3.287077E-16	2.252641E-17
7.200000E+03	3.274453E-16	2.253068E-17
7.210000E+03	3.261311E-16	2.252082E-17
7.220000E+03	3.247817E-16	2.249797E-17
7.230000E+03	3.234136E-16	2.246327E-17
7.240000E+03	3.219971E-16	2.241468E-17
7.250000E+03	3.205489E-16	2.235338E-17
7.260000E+03	3.190703E-16	2.227951E-17
7.270000E+03	3.175626E-16	2.219319E-17
7.280000E+03	3.160269E-16	2.209458E-17
7.290000E+03	3.144653E-16	2.198388E-17
7.300000E+03	3.128639E-16	2.186018E-17
7.310000E+03	3.112543E-16	2.172580E-17
7.320000E+03	3.096086E-16	2.157888E-17
7.330000E+03	3.079577E-16	2.142168E-17
7.340000E+03	3.062740E-16	2.125237E-17
7.350000E+03	3.045742E-16	2.107225E-17
7.360000E+03	3.028598E-16	2.088154E-17
7.370000E+03	3.011328E-16	2.068050E-17
7.380000E+03	2.993804E-16	2.046840E-17
7.390000E+03	2.976336E-16	2.024751E-17
7.400000E+03	2.958652E-16	2.001610E-17
7.410000E+03	2.940915E-16	1.977544E-17
7.420000E+03	2.923285E-16	1.952675E-17
7.430000E+03	2.905354E-16	1.926745E-17
7.440000E+03	2.887564E-16	1.900066E-17
7.450000E+03	2.869792E-16	1.872571E-17
7.460000E+03	2.851913E-16	1.844194E-17
7.470000E+03	2.834084E-16	1.815056E-17
7.480000E+03	2.816321E-16	1.785182E-17
7.490000E+03	2.798638E-16	1.754598E-17
7.500000E+03	2.781049E-16	1.723328E-17
7.510000E+03	2.763432E-16	1.691314E-17
7.520000E+03	2.745933E-16	1.658664E-17
7.530000E+03	2.728567E-16	1.625404E-17
7.540000E+03	2.711340E-16	1.591555E-17
7.550000E+03	2.694265E-16	1.557139E-17
7.560000E+03	2.677216E-16	1.522104E-17
7.570000E+03	2.660334E-16	1.486549E-17
7.580000E+03	2.643623E-16	1.450494E-17
7.590000E+03	2.626962E-16	1.413892E-17
7.600000E+03	2.610612E-16	1.376904E-17
7.610000E+03	2.594317E-16	1.339415E-17
7.620000E+03	2.578209E-16	1.301516E-17
7.630000E+03	2.562161E-16	1.263168E-17
7.640000E+03	2.546428E-16	1.224520E-17
7.650000E+03	2.530755E-16	1.185475E-17
7.660000E+03	2.515142E-16	1.146067E-17
7.670000E+03	2.499835E-16	1.106441E-17
7.680000E+03	2.484582E-16	1.066520E-17
7.690000E+03	2.469501E-16	1.026396E-17
7.700000E+03	2.454587E-16	9.861150E-18
7.710000E+03	2.439713E-16	9.456780E-18
7.720000E+03	2.424993E-16	9.051943E-18
7.730000E+03	2.410422E-16	8.647329E-18
7.740000E+03	2.395988E-16	8.243741E-18
7.750000E+03	2.381566E-16	7.841764E-18
7.760000E+03	2.367265E-16	7.443003E-18
