#wls	flux	fluxerr
1.600000E+03	2.027596E-17	1.449709E-17
1.640000E+03	2.093833E-17	1.485353E-17
1.680000E+03	2.162527E-17	1.521804E-17
1.720000E+03	2.233718E-17	1.559030E-17
1.760000E+03	2.307052E-17	1.596721E-17
1.800000E+03	2.382931E-17	1.635095E-17
1.840000E+03	2.461379E-17	1.674104E-17
1.880000E+03	2.542843E-17	1.713977E-17
1.920000E+03	2.626487E-17	1.754081E-17
1.960000E+03	2.713179E-17	1.794925E-17
2.000000E+03	2.802483E-17	1.836139E-17
2.040000E+03	2.894852E-17	1.877944E-17
2.080000E+03	2.990292E-17	1.920256E-17
2.120000E+03	3.088297E-17	1.962667E-17
2.160000E+03	3.189830E-17	2.005702E-17
2.200000E+03	3.294371E-17	2.048936E-17
2.240000E+03	3.401870E-17	2.092248E-17
2.280000E+03	3.512806E-17	2.135836E-17
2.320000E+03	3.627133E-17	2.179567E-17
2.360000E+03	3.744785E-17	2.223296E-17
2.400000E+03	3.865678E-17	2.266868E-17
2.440000E+03	3.989706E-17	2.310117E-17
2.480000E+03	4.117957E-17	2.353556E-17
2.520000E+03	4.249119E-17	2.396316E-17
2.560000E+03	4.383653E-17	2.438548E-17
2.600000E+03	4.522683E-17	2.480752E-17
2.640000E+03	4.664800E-17	2.522022E-17
2.680000E+03	4.810470E-17	2.562492E-17
2.720000E+03	4.960179E-17	2.602291E-17
2.760000E+03	5.113759E-17	2.641193E-17
2.800000E+03	5.271028E-17	2.678967E-17
2.840000E+03	5.431794E-17	2.715383E-17
2.880000E+03	5.597267E-17	2.750904E-17
2.920000E+03	5.766592E-17	2.784952E-17
2.960000E+03	5.940323E-17	2.817648E-17
3.000000E+03	6.119060E-17	2.849110E-17
3.010000E+03	6.164287E-17	2.856652E-17
3.020000E+03	6.209372E-17	2.863893E-17
3.030000E+03	6.255757E-17	2.871497E-17
3.040000E+03	6.301998E-17	2.878795E-17
3.050000E+03	6.348079E-17	2.885779E-17
3.060000E+03	6.395476E-17	2.893118E-17
3.070000E+03	6.442716E-17	2.900138E-17
3.080000E+03	6.489804E-17	2.906843E-17
3.090000E+03	6.537475E-17	2.913560E-17
3.100000E+03	6.585722E-17	2.920282E-17
3.110000E+03	6.634560E-17	2.927010E-17
3.120000E+03	6.683240E-17	2.933412E-17
3.130000E+03	6.732508E-17	2.939813E-17
3.140000E+03	6.782369E-17	2.946210E-17
3.150000E+03	6.832820E-17	2.952598E-17
3.160000E+03	6.883125E-17	2.958656E-17
3.170000E+03	6.934029E-17	2.964701E-17
3.180000E+03	6.984788E-17	2.970414E-17
3.190000E+03	7.036902E-17	2.976429E-17
3.200000E+03	7.088879E-17	2.982108E-17
3.210000E+03	7.141475E-17	2.987766E-17
3.220000E+03	7.194692E-17	2.993402E-17
3.230000E+03	7.247785E-17	2.998701E-17
3.240000E+03	7.301516E-17	3.003976E-17
3.250000E+03	7.355883E-17	3.009222E-17
3.260000E+03	7.410891E-17	3.014435E-17
3.270000E+03	7.466564E-17	3.019620E-17
3.280000E+03	7.522887E-17	3.024766E-17
3.290000E+03	7.579135E-17	3.029578E-17
3.300000E+03	7.636063E-17	3.034355E-17
3.310000E+03	7.693669E-17	3.039091E-17
3.320000E+03	7.751980E-17	3.043790E-17
3.330000E+03	7.810999E-17	3.048449E-17
3.340000E+03	7.869980E-17	3.052773E-17
3.350000E+03	7.930450E-17	3.057349E-17
3.360000E+03	7.990900E-17	3.061588E-17
3.370000E+03	8.052102E-17	3.065783E-17
3.380000E+03	8.114074E-17	3.069936E-17
3.390000E+03	8.176822E-17	3.074041E-17
3.400000E+03	8.240367E-17	3.078101E-17
3.410000E+03	8.304721E-17	3.082114E-17
3.420000E+03	8.369897E-17	3.086077E-17
3.430000E+03	8.435908E-17	3.089989E-17
3.440000E+03	8.502005E-17	3.093570E-17
3.450000E+03	8.569737E-17	3.097380E-17
3.460000E+03	8.637590E-17	3.100861E-17
3.470000E+03	8.707113E-17	3.104565E-17
3.480000E+03	8.776785E-17	3.107940E-17
3.490000E+03	8.848152E-17	3.111528E-17
3.500000E+03	8.919713E-17	3.114791E-17
3.510000E+03	8.992242E-17	3.117996E-17
3.520000E+03	9.066534E-17	3.121408E-17
3.530000E+03	9.141060E-17	3.124492E-17
3.540000E+03	9.216613E-17	3.127514E-17
3.550000E+03	9.293990E-17	3.130733E-17
3.560000E+03	9.371651E-17	3.133622E-17
3.570000E+03	9.450406E-17	3.136446E-17
3.580000E+03	9.530256E-17	3.139196E-17
3.590000E+03	9.612010E-17	3.142128E-17
3.600000E+03	9.694135E-17	3.144730E-17
3.610000E+03	9.777417E-17	3.147251E-17
3.620000E+03	9.862666E-17	3.149941E-17
3.630000E+03	9.948334E-17	3.152294E-17
3.640000E+03	1.003523E-16	3.154559E-17
3.650000E+03	1.012415E-16	3.156977E-17
3.660000E+03	1.021355E-16	3.159053E-17
3.670000E+03	1.030501E-16	3.161268E-17
3.680000E+03	1.039699E-16	3.163138E-17
3.690000E+03	1.049109E-16	3.165138E-17
3.700000E+03	1.058574E-16	3.166785E-17
3.710000E+03	1.068254E-16	3.168545E-17
3.720000E+03	1.077993E-16	3.169949E-17
3.730000E+03	1.087952E-16	3.171453E-17
3.740000E+03	1.097973E-16	3.172591E-17
3.750000E+03	1.108218E-16	3.173817E-17
3.760000E+03	1.118608E-16	3.174891E-17
3.770000E+03	1.129068E-16	3.175589E-17
3.780000E+03	1.139758E-16	3.176351E-17
3.790000E+03	1.150520E-16	3.176724E-17
3.800000E+03	1.161517E-16	3.177146E-17
3.810000E+03	1.172589E-16	3.177170E-17
3.820000E+03	1.183900E-16	3.177225E-17
3.830000E+03	1.195292E-16	3.176872E-17
3.840000E+03	1.206927E-16	3.176535E-17
3.850000E+03	1.218647E-16	3.175780E-17
3.860000E+03	1.230535E-16	3.174816E-17
3.870000E+03	1.242674E-16	3.173840E-17
3.880000E+03	1.254905E-16	3.172432E-17
3.890000E+03	1.267311E-16	3.170793E-17
3.900000E+03	1.279896E-16	3.168916E-17
3.910000E+03	1.292662E-16	3.166797E-17
3.920000E+03	1.305531E-16	3.164229E-17
3.930000E+03	1.318668E-16	3.161602E-17
3.940000E+03	1.331915E-16	3.158519E-17
3.950000E+03	1.345356E-16	3.155170E-17
3.960000E+03	1.358996E-16	3.151549E-17
3.970000E+03	1.372838E-16	3.147651E-17
3.980000E+03	1.386886E-16	3.143469E-17
3.990000E+03	1.401062E-16	3.138812E-17
4.000000E+03	1.415454E-16	3.133864E-17
4.010000E+03	1.430064E-16	3.128617E-17
4.020000E+03	1.444818E-16	3.122890E-17
4.030000E+03	1.459883E-16	3.117035E-17
4.040000E+03	1.475019E-16	3.110515E-17
4.050000E+03	1.490478E-16	3.103856E-17
4.060000E+03	1.506102E-16	3.096705E-17
4.070000E+03	1.521978E-16	3.089232E-17
4.080000E+03	1.538031E-16	3.081261E-17
4.090000E+03	1.554263E-16	3.072791E-17
4.100000E+03	1.570854E-16	3.064156E-17
4.110000E+03	1.587554E-16	3.054850E-17
4.120000E+03	1.604626E-16	3.045366E-17
4.130000E+03	1.621822E-16	3.035209E-17
4.140000E+03	1.639319E-16	3.024702E-17
4.150000E+03	1.657124E-16	3.013835E-17
4.160000E+03	1.675073E-16	3.002292E-17
4.170000E+03	1.693346E-16	2.990383E-17
4.180000E+03	1.711951E-16	2.978097E-17
4.190000E+03	1.730720E-16	2.965126E-17
4.200000E+03	1.749836E-16	2.951768E-17
4.210000E+03	1.769219E-16	2.937864E-17
4.220000E+03	1.788875E-16	2.923410E-17
4.230000E+03	1.808899E-16	2.908540E-17
4.240000E+03	1.829122E-16	2.892960E-17
4.250000E+03	1.849728E-16	2.876947E-17
4.260000E+03	1.870543E-16	2.860209E-17
4.270000E+03	1.891753E-16	2.843014E-17
4.280000E+03	1.913182E-16	2.825077E-17
4.290000E+03	1.935018E-16	2.806659E-17
4.300000E+03	1.957082E-16	2.787478E-17
4.310000E+03	1.979469E-16	2.767657E-17
4.320000E+03	2.002182E-16	2.747181E-17
4.330000E+03	2.025223E-16	2.726034E-17
4.340000E+03	2.048596E-16	2.704204E-17
4.350000E+03	2.072207E-16	2.681551E-17
4.360000E+03	2.096147E-16	2.658182E-17
4.370000E+03	2.120420E-16	2.634083E-17
4.380000E+03	2.144927E-16	2.609119E-17
4.390000E+03	2.169760E-16	2.583392E-17
4.400000E+03	2.194916E-16	2.556883E-17
4.410000E+03	2.220293E-16	2.529464E-17
4.420000E+03	2.245984E-16	2.501233E-17
4.430000E+03	2.271881E-16	2.472062E-17
4.440000E+03	2.297979E-16	2.441942E-17
4.450000E+03	2.324363E-16	2.410964E-17
4.460000E+03	2.350925E-16	2.379011E-17
4.470000E+03	2.377753E-16	2.346173E-17
4.480000E+03	2.404733E-16	2.312338E-17
4.490000E+03	2.431852E-16	2.277502E-17
4.500000E+03	2.459090E-16	2.241657E-17
4.510000E+03	2.486534E-16	2.204894E-17
4.520000E+03	2.514064E-16	2.167116E-17
4.530000E+03	2.541658E-16	2.128325E-17
4.540000E+03	2.569297E-16	2.088526E-17
4.550000E+03	2.596957E-16	2.047729E-17
4.560000E+03	2.624719E-16	2.006024E-17
4.570000E+03	2.652350E-16	1.963266E-17
4.580000E+03	2.680035E-16	1.919635E-17
4.590000E+03	2.707533E-16	1.874998E-17
4.600000E+03	2.735031E-16	1.829541E-17
4.610000E+03	2.762286E-16	1.783153E-17
4.620000E+03	2.789374E-16	1.735952E-17
4.630000E+03	2.816376E-16	1.688056E-17
4.640000E+03	2.843041E-16	1.639390E-17
4.650000E+03	2.869448E-16	1.590094E-17
4.660000E+03	2.895564E-16	1.540247E-17
4.670000E+03	2.921357E-16	1.489940E-17
4.680000E+03	2.946682E-16	1.439226E-17
4.690000E+03	2.971732E-16	1.388335E-17
4.700000E+03	2.996247E-16	1.337299E-17
4.710000E+03	3.020309E-16	1.286331E-17
4.720000E+03	3.043885E-16	1.235612E-17
4.730000E+03	3.066831E-16	1.185306E-17
4.740000E+03	3.089344E-16	1.135739E-17
4.750000E+03	3.111166E-16	1.087098E-17
4.760000E+03	3.132271E-16	1.039697E-17
4.770000E+03	3.152862E-16	9.939690E-18
4.780000E+03	3.172688E-16	9.502388E-18
4.790000E+03	3.191848E-16	9.089927E-18
4.800000E+03	3.210210E-16	8.706947E-18
4.810000E+03	3.227880E-16	8.359154E-18
4.820000E+03	3.244850E-16	8.052181E-18
4.830000E+03	3.261120E-16	7.791710E-18
4.840000E+03	3.276566E-16	7.582867E-18
4.850000E+03	3.291308E-16	7.430644E-18
4.860000E+03	3.305227E-16	7.338282E-18
4.870000E+03	3.318441E-16	7.306279E-18
4.880000E+03	3.330950E-16	7.331149E-18
4.890000E+03	3.342638E-16	7.407587E-18
4.900000E+03	3.353625E-16	7.529783E-18
4.910000E+03	3.363913E-16	7.691110E-18
4.920000E+03	3.373389E-16	7.884544E-18
4.930000E+03	3.382173E-16	8.103789E-18
4.940000E+03	3.390270E-16	8.342733E-18
4.950000E+03	3.397563E-16	8.595521E-18
4.960000E+03	3.404177E-16	8.857510E-18
4.970000E+03	3.409997E-16	9.124075E-18
4.980000E+03	3.415142E-16	9.391776E-18
4.990000E+03	3.419618E-16	9.657421E-18
5.000000E+03	3.423426E-16	9.918278E-18
5.010000E+03	3.426455E-16	1.017169E-17
5.020000E+03	3.428705E-16	1.041570E-17
5.030000E+03	3.430413E-16	1.064934E-17
5.040000E+03	3.431348E-16	1.087055E-17
5.050000E+03	3.431512E-16	1.107818E-17
5.060000E+03	3.431140E-16	1.127205E-17
5.070000E+03	3.430000E-16	1.145064E-17
5.080000E+03	3.428095E-16	1.161337E-17
5.090000E+03	3.425657E-16	1.176056E-17
5.100000E+03	3.422455E-16	1.189111E-17
5.110000E+03	3.418494E-16	1.200482E-17
5.120000E+03	3.414000E-16	1.210238E-17
5.130000E+03	3.408747E-16	1.218299E-17
5.140000E+03	3.402850E-16	1.224714E-17
5.150000E+03	3.396198E-16	1.229461E-17
5.160000E+03	3.389015E-16	1.232646E-17
5.170000E+03	3.381077E-16	1.234223E-17
5.180000E+03	3.372501E-16	1.234273E-17
5.190000E+03	3.363175E-16	1.232805E-17
5.200000E+03	3.353211E-16	1.229915E-17
5.210000E+03	3.342613E-16	1.225668E-17
5.220000E+03	3.331383E-16	1.220134E-17
5.230000E+03	3.319522E-16	1.213390E-17
5.240000E+03	3.306926E-16	1.205482E-17
5.250000E+03	3.293707E-16	1.196541E-17
5.260000E+03	3.279868E-16	1.186667E-17
5.270000E+03	3.265414E-16	1.175964E-17
5.280000E+03	3.250244E-16	1.164509E-17
5.290000E+03	3.234575E-16	1.152496E-17
5.300000E+03	3.218202E-16	1.139977E-17
5.310000E+03	3.201236E-16	1.127121E-17
5.320000E+03	3.183686E-16	1.114067E-17
5.330000E+03	3.165559E-16	1.100958E-17
5.340000E+03	3.146761E-16	1.087908E-17
5.350000E+03	3.127506E-16	1.075139E-17
5.360000E+03	3.107600E-16	1.062734E-17
5.370000E+03	3.087155E-16	1.050884E-17
5.380000E+03	3.066183E-16	1.039742E-17
5.390000E+03	3.044694E-16	1.029459E-17
5.400000E+03	3.022702E-16	1.020179E-17
5.410000E+03	3.000220E-16	1.012040E-17
5.420000E+03	2.977165E-16	1.005137E-17
5.430000E+03	2.953743E-16	9.996458E-18
5.440000E+03	2.929876E-16	9.956310E-18
5.450000E+03	2.905487E-16	9.930515E-18
5.460000E+03	2.880791E-16	9.918458E-18
5.470000E+03	2.855641E-16	9.918143E-18
5.480000E+03	2.830260E-16	9.928794E-18
5.490000E+03	2.804514E-16	9.948365E-18
5.500000E+03	2.778628E-16	9.976083E-18
5.510000E+03	2.752471E-16	1.000994E-17
5.520000E+03	2.726263E-16	1.004924E-17
5.530000E+03	2.699964E-16	1.009243E-17
5.540000E+03	2.673532E-16	1.013798E-17
5.550000E+03	2.647184E-16	1.018545E-17
5.560000E+03	2.620876E-16	1.023352E-17
5.570000E+03	2.594649E-16	1.028125E-17
5.580000E+03	2.568544E-16	1.032784E-17
5.590000E+03	2.542598E-16	1.037254E-17
5.600000E+03	2.516849E-16	1.041469E-17
5.610000E+03	2.491329E-16	1.045373E-17
5.620000E+03	2.466151E-16	1.048948E-17
5.630000E+03	2.441188E-16	1.052087E-17
5.640000E+03	2.416626E-16	1.054820E-17
5.650000E+03	2.392412E-16	1.057082E-17
5.660000E+03	2.368573E-16	1.058850E-17
5.670000E+03	2.345131E-16	1.060103E-17
5.680000E+03	2.322184E-16	1.060860E-17
5.690000E+03	2.299603E-16	1.061043E-17
5.700000E+03	2.277552E-16	1.060708E-17
5.710000E+03	2.255977E-16	1.059820E-17
5.720000E+03	2.234965E-16	1.058408E-17
5.730000E+03	2.214386E-16	1.056405E-17
5.740000E+03	2.194396E-16	1.053881E-17
5.750000E+03	2.175005E-16	1.050838E-17
5.760000E+03	2.156087E-16	1.047215E-17
5.770000E+03	2.137788E-16	1.043084E-17
5.780000E+03	2.120050E-16	1.038421E-17
5.790000E+03	2.102947E-16	1.033264E-17
5.800000E+03	2.086423E-16	1.027590E-17
5.810000E+03	2.070483E-16	1.021409E-17
5.820000E+03	2.055135E-16	1.014729E-17
5.830000E+03	2.040452E-16	1.007593E-17
5.840000E+03	2.026441E-16	1.000011E-17
5.850000E+03	2.012977E-16	9.919285E-18
5.860000E+03	2.000261E-16	9.834506E-18
5.870000E+03	1.988108E-16	9.744929E-18
5.880000E+03	1.976651E-16	9.651274E-18
5.890000E+03	1.965836E-16	9.553332E-18
5.900000E+03	1.955732E-16	9.451501E-18
5.910000E+03	1.946346E-16	9.345865E-18
5.920000E+03	1.937562E-16	9.235912E-18
5.930000E+03	1.929576E-16	9.122623E-18
5.940000E+03	1.922211E-16	9.005192E-18
5.950000E+03	1.915662E-16	8.884567E-18
5.960000E+03	1.909754E-16	8.759959E-18
5.970000E+03	1.904683E-16	8.632284E-18
5.980000E+03	1.900338E-16	8.501045E-18
5.990000E+03	1.896730E-16	8.366299E-18
6.000000E+03	1.893934E-16	8.228382E-18
6.010000E+03	1.891904E-16	8.087076E-18
6.020000E+03	1.890713E-16	7.942689E-18
6.030000E+03	1.890378E-16	7.795266E-18
6.040000E+03	1.890854E-16	7.644597E-18
6.050000E+03	1.892216E-16	7.490976E-18
6.060000E+03	1.894423E-16	7.334204E-18
6.070000E+03	1.897553E-16	7.174573E-18
6.080000E+03	1.901562E-16	7.011901E-18
6.090000E+03	1.906596E-16	6.846710E-18
6.100000E+03	1.912487E-16	6.678399E-18
6.110000E+03	1.919443E-16	6.507721E-18
6.120000E+03	1.927362E-16	6.334360E-18
6.130000E+03	1.936329E-16	6.158673E-18
6.140000E+03	1.946302E-16	5.980639E-18
6.150000E+03	1.957371E-16	5.800696E-18
6.160000E+03	1.969561E-16	5.619135E-18
6.170000E+03	1.982832E-16	5.436142E-18
6.180000E+03	1.997339E-16	5.252543E-18
6.190000E+03	2.012917E-16	5.068412E-18
6.200000E+03	2.029788E-16	4.884997E-18
6.210000E+03	2.047848E-16	4.702892E-18
6.220000E+03	2.067195E-16	4.523407E-18
6.230000E+03	2.087860E-16	4.347956E-18
6.240000E+03	2.109872E-16	4.178273E-18
6.250000E+03	2.133193E-16	4.016333E-18
6.260000E+03	2.157908E-16	3.864780E-18
6.270000E+03	2.184032E-16	3.726565E-18
6.280000E+03	2.211498E-16	3.604951E-18
6.290000E+03	2.240449E-16	3.503929E-18
6.300000E+03	2.270721E-16	3.427219E-18
6.310000E+03	2.302362E-16	3.378855E-18
6.320000E+03	2.335330E-16	3.362143E-18
6.330000E+03	2.369487E-16	3.377008E-18
6.340000E+03	2.404923E-16	3.421138E-18
6.350000E+03	2.441411E-16	3.490972E-18
6.360000E+03	2.478953E-16	3.582809E-18
6.370000E+03	2.517473E-16	3.692660E-18
6.380000E+03	2.556885E-16	3.816595E-18
6.390000E+03	2.597101E-16	3.950924E-18
6.400000E+03	2.638027E-16	4.092290E-18
6.410000E+03	2.679475E-16	4.237585E-18
6.420000E+03	2.721519E-16	4.384520E-18
6.430000E+03	2.763870E-16	4.530644E-18
6.440000E+03	2.806504E-16	4.674326E-18
6.450000E+03	2.849401E-16	4.814337E-18
6.460000E+03	2.892247E-16	4.949343E-18
6.470000E+03	2.935013E-16	5.078864E-18
6.480000E+03	2.977572E-16	5.202646E-18
6.490000E+03	3.019792E-16	5.320831E-18
6.500000E+03	3.061538E-16	5.433966E-18
6.510000E+03	3.102679E-16	5.543037E-18
6.520000E+03	3.143085E-16	5.649474E-18
6.530000E+03	3.182646E-16	5.755196E-18
6.540000E+03	3.221253E-16	5.862573E-18
6.550000E+03	3.258804E-16	5.974422E-18
6.560000E+03	3.295216E-16	6.093981E-18
6.570000E+03	3.330414E-16	6.224834E-18
6.580000E+03	3.364334E-16	6.370820E-18
6.590000E+03	3.396929E-16	6.535927E-18
6.600000E+03	3.428162E-16	6.724140E-18
6.610000E+03	3.458132E-16	6.939536E-18
6.620000E+03	3.486595E-16	7.184872E-18
6.630000E+03	3.513676E-16	7.460593E-18
6.640000E+03	3.539511E-16	7.765467E-18
6.650000E+03	3.563880E-16	8.097099E-18
6.660000E+03	3.587046E-16	8.453924E-18
6.670000E+03	3.608918E-16	8.833439E-18
6.680000E+03	3.629522E-16	9.233350E-18
6.690000E+03	3.648893E-16	9.651387E-18
6.700000E+03	3.667066E-16	1.008534E-17
6.710000E+03	3.684077E-16	1.053310E-17
6.720000E+03	3.700094E-16	1.099303E-17
6.730000E+03	3.714897E-16	1.146251E-17
6.740000E+03	3.728788E-16	1.194056E-17
6.750000E+03	3.741677E-16	1.242517E-17
6.760000E+03	3.753607E-16	1.291482E-17
6.770000E+03	3.764616E-16	1.340810E-17
6.780000E+03	3.774749E-16	1.390373E-17
6.790000E+03	3.784173E-16	1.440099E-17
6.800000E+03	3.792667E-16	1.489781E-17
6.810000E+03	3.800531E-16	1.539418E-17
6.820000E+03	3.807668E-16	1.588863E-17
6.830000E+03	3.814114E-16	1.638030E-17
6.840000E+03	3.820035E-16	1.686895E-17
6.850000E+03	3.825193E-16	1.735264E-17
6.860000E+03	3.829886E-16	1.783188E-17
6.870000E+03	3.834005E-16	1.830539E-17
6.880000E+03	3.837573E-16	1.877254E-17
6.890000E+03	3.840612E-16	1.923274E-17
6.900000E+03	3.843140E-16	1.968540E-17
6.910000E+03	3.845311E-16	2.013072E-17
6.920000E+03	3.847001E-16	2.056748E-17
6.930000E+03	3.848087E-16	2.099444E-17
6.940000E+03	3.848985E-16	2.141335E-17
6.950000E+03	3.849292E-16	2.182150E-17
6.960000E+03	3.849148E-16	2.221917E-17
6.970000E+03	3.848694E-16	2.260673E-17
6.980000E+03	3.847654E-16	2.298213E-17
6.990000E+03	3.846298E-16	2.334657E-17
7.000000E+03	3.844487E-16	2.369880E-17
7.010000E+03	3.842214E-16	2.403842E-17
7.020000E+03	3.839609E-16	2.436587E-17
7.030000E+03	3.836386E-16	2.467899E-17
7.040000E+03	3.832810E-16	2.497915E-17
7.050000E+03	3.828596E-16	2.526418E-17
7.060000E+03	3.824005E-16	2.553546E-17
7.070000E+03	3.818887E-16	2.579173E-17
7.080000E+03	3.813229E-16	2.603261E-17
7.090000E+03	3.807016E-16	2.625774E-17
7.100000E+03	3.800235E-16	2.646677E-17
7.110000E+03	3.793010E-16	2.666034E-17
7.120000E+03	3.785053E-16	2.683619E-17
7.130000E+03	3.776489E-16	2.699500E-17
7.140000E+03	3.767443E-16	2.713748E-17
7.150000E+03	3.757633E-16	2.726141E-17
7.160000E+03	3.747323E-16	2.736853E-17
7.170000E+03	3.736369E-16	2.745769E-17
7.180000E+03	3.724629E-16	2.752769E-17
7.190000E+03	3.712371E-16	2.758040E-17
7.200000E+03	3.699325E-16	2.761373E-17
7.210000E+03	3.685758E-16	2.762960E-17
7.220000E+03	3.671541E-16	2.762700E-17
7.230000E+03	3.656545E-16	2.760491E-17
7.240000E+03	3.641046E-16	2.756540E-17
7.250000E+03	3.624787E-16	2.750655E-17
7.260000E+03	3.607916E-16	2.742949E-17
7.270000E+03	3.590580E-16	2.733539E-17
7.280000E+03	3.572535E-16	2.722245E-17
7.290000E+03	3.553931E-16	2.709191E-17
7.300000E+03	3.534796E-16	2.694405E-17
7.310000E+03	3.515152E-16	2.677919E-17
7.320000E+03	3.495031E-16	2.659768E-17
7.330000E+03	3.474461E-16	2.639990E-17
7.340000E+03	3.453347E-16	2.618529E-17
7.350000E+03	3.431980E-16	2.595622E-17
7.360000E+03	3.410140E-16	2.571122E-17
7.370000E+03	3.387993E-16	2.545176E-17
7.380000E+03	3.365578E-16	2.517832E-17
7.390000E+03	3.342933E-16	2.489142E-17
7.400000E+03	3.319977E-16	2.459066E-17
7.410000E+03	3.296871E-16	2.427750E-17
7.420000E+03	3.273659E-16	2.395248E-17
7.430000E+03	3.250382E-16	2.361613E-17
7.440000E+03	3.227078E-16	2.326898E-17
7.450000E+03	3.203667E-16	2.291067E-17
7.460000E+03	3.180311E-16	2.254262E-17
7.470000E+03	3.157047E-16	2.216533E-17
7.480000E+03	3.133793E-16	2.177844E-17
7.490000E+03	3.110705E-16	2.138328E-17
7.500000E+03	3.087813E-16	2.098028E-17
7.510000E+03	3.065151E-16	2.056988E-17
7.520000E+03	3.042633E-16	2.015170E-17
7.530000E+03	3.020402E-16	1.972691E-17
7.540000E+03	2.998369E-16	1.929512E-17
7.550000E+03	2.976672E-16	1.885744E-17
7.560000E+03	2.955330E-16	1.841414E-17
7.570000E+03	2.934361E-16	1.796552E-17
7.580000E+03	2.913666E-16	1.751114E-17
7.590000E+03	2.893372E-16	1.705195E-17
7.600000E+03	2.873377E-16	1.658751E-17
7.610000E+03	2.853796E-16	1.611868E-17
7.620000E+03	2.834528E-16	1.564504E-17
7.630000E+03	2.815681E-16	1.516741E-17
7.640000E+03	2.797254E-16	1.468592E-17
7.650000E+03	2.779135E-16	1.420021E-17
7.660000E+03	2.761426E-16	1.371102E-17
7.670000E+03	2.744012E-16	1.321802E-17
7.680000E+03	2.726986E-16	1.272196E-17
7.690000E+03	2.710338E-16	1.222308E-17
7.700000E+03	2.693946E-16	1.172120E-17
7.710000E+03	2.677793E-16	1.121670E-17
7.720000E+03	2.661967E-16	1.071049E-17
7.730000E+03	2.646444E-16	1.020308E-17
7.740000E+03	2.631101E-16	9.694743E-18
7.750000E+03	2.616019E-16	9.186713E-18
7.760000E+03	2.601070E-16	8.679684E-18
