#wls	flux	fluxerr
1.600000E+03	1.904450E-17	9.989974E-18
1.640000E+03	1.962188E-17	1.021786E-17
1.680000E+03	2.021418E-17	1.044780E-17
1.720000E+03	2.082856E-17	1.068313E-17
1.760000E+03	2.146186E-17	1.092187E-17
1.800000E+03	2.211050E-17	1.116184E-17
1.840000E+03	2.278599E-17	1.140849E-17
1.880000E+03	2.347714E-17	1.165577E-17
1.920000E+03	2.419191E-17	1.190724E-17
1.960000E+03	2.492650E-17	1.216061E-17
2.000000E+03	2.568093E-17	1.241546E-17
2.040000E+03	2.645960E-17	1.267345E-17
2.080000E+03	2.726276E-17	1.293421E-17
2.120000E+03	2.809065E-17	1.319733E-17
2.160000E+03	2.893875E-17	1.346019E-17
2.200000E+03	2.981171E-17	1.372445E-17
2.240000E+03	3.070470E-17	1.398734E-17
2.280000E+03	3.162758E-17	1.425282E-17
2.320000E+03	3.257557E-17	1.451810E-17
2.360000E+03	3.354337E-17	1.478025E-17
2.400000E+03	3.454146E-17	1.504332E-17
2.440000E+03	3.557016E-17	1.530674E-17
2.480000E+03	3.661848E-17	1.556513E-17
2.520000E+03	3.769755E-17	1.582259E-17
2.560000E+03	3.880770E-17	1.607854E-17
2.600000E+03	3.994325E-17	1.632987E-17
2.640000E+03	4.111037E-17	1.657839E-17
2.680000E+03	4.230950E-17	1.682349E-17
2.720000E+03	4.353479E-17	1.706205E-17
2.760000E+03	4.479947E-17	1.729844E-17
2.800000E+03	4.609146E-17	1.752711E-17
2.840000E+03	4.742475E-17	1.775250E-17
2.880000E+03	4.879396E-17	1.797161E-17
2.920000E+03	5.020042E-17	1.818396E-17
2.960000E+03	5.165278E-17	1.839164E-17
3.000000E+03	5.314610E-17	1.859175E-17
3.010000E+03	5.352631E-17	1.864063E-17
3.020000E+03	5.390790E-17	1.868854E-17
3.030000E+03	5.429816E-17	1.873799E-17
3.040000E+03	5.468991E-17	1.878646E-17
3.050000E+03	5.508317E-17	1.883396E-17
3.060000E+03	5.547798E-17	1.888046E-17
3.070000E+03	5.587436E-17	1.892598E-17
3.080000E+03	5.627975E-17	1.897301E-17
3.090000E+03	5.668684E-17	1.901904E-17
3.100000E+03	5.709566E-17	1.906408E-17
3.110000E+03	5.750625E-17	1.910812E-17
3.120000E+03	5.792617E-17	1.915365E-17
3.130000E+03	5.834800E-17	1.919818E-17
3.140000E+03	5.877179E-17	1.924170E-17
3.150000E+03	5.919756E-17	1.928421E-17
3.160000E+03	5.963302E-17	1.932820E-17
3.170000E+03	6.006295E-17	1.936870E-17
3.180000E+03	6.050273E-17	1.941066E-17
3.190000E+03	6.095249E-17	1.945409E-17
3.200000E+03	6.139685E-17	1.949403E-17
3.210000E+03	6.185137E-17	1.953542E-17
3.220000E+03	6.230837E-17	1.957580E-17
3.230000E+03	6.276791E-17	1.961516E-17
3.240000E+03	6.323006E-17	1.965352E-17
3.250000E+03	6.370279E-17	1.969330E-17
3.260000E+03	6.417832E-17	1.973207E-17
3.270000E+03	6.465673E-17	1.976982E-17
3.280000E+03	6.513807E-17	1.980656E-17
3.290000E+03	6.563048E-17	1.984472E-17
3.300000E+03	6.612602E-17	1.988186E-17
3.310000E+03	6.662482E-17	1.991799E-17
3.320000E+03	6.712692E-17	1.995309E-17
3.330000E+03	6.764058E-17	1.998960E-17
3.340000E+03	6.815780E-17	2.002509E-17
3.350000E+03	6.867865E-17	2.005956E-17
3.360000E+03	6.920322E-17	2.009301E-17
3.370000E+03	6.973991E-17	2.012785E-17
3.380000E+03	7.028058E-17	2.016166E-17
3.390000E+03	7.082534E-17	2.019444E-17
3.400000E+03	7.137427E-17	2.022621E-17
3.410000E+03	7.192749E-17	2.025697E-17
3.420000E+03	7.249355E-17	2.028907E-17
3.430000E+03	7.306417E-17	2.032014E-17
3.440000E+03	7.364799E-17	2.035254E-17
3.450000E+03	7.422810E-17	2.038156E-17
3.460000E+03	7.482171E-17	2.041189E-17
3.470000E+03	7.542040E-17	2.044119E-17
3.480000E+03	7.602429E-17	2.046944E-17
3.490000E+03	7.663351E-17	2.049666E-17
3.500000E+03	7.725692E-17	2.052516E-17
3.510000E+03	7.788597E-17	2.055260E-17
3.520000E+03	7.852080E-17	2.057898E-17
3.530000E+03	7.916154E-17	2.060431E-17
3.540000E+03	7.981720E-17	2.063087E-17
3.550000E+03	8.047911E-17	2.065635E-17
3.560000E+03	8.114741E-17	2.068074E-17
3.570000E+03	8.182225E-17	2.070405E-17
3.580000E+03	8.251279E-17	2.072854E-17
3.590000E+03	8.320114E-17	2.074965E-17
3.600000E+03	8.390557E-17	2.077191E-17
3.610000E+03	8.461718E-17	2.079304E-17
3.620000E+03	8.534534E-17	2.081528E-17
3.630000E+03	8.607183E-17	2.083413E-17
3.640000E+03	8.681525E-17	2.085405E-17
3.650000E+03	8.756654E-17	2.087279E-17
3.660000E+03	8.832590E-17	2.089035E-17
3.670000E+03	8.910285E-17	2.090891E-17
3.680000E+03	8.987882E-17	2.092405E-17
3.690000E+03	9.067283E-17	2.094015E-17
3.700000E+03	9.147557E-17	2.095499E-17
3.710000E+03	9.229693E-17	2.097075E-17
3.720000E+03	9.311779E-17	2.098302E-17
3.730000E+03	9.395775E-17	2.099617E-17
3.740000E+03	9.479739E-17	2.100579E-17
3.750000E+03	9.565659E-17	2.101626E-17
3.760000E+03	9.652567E-17	2.102533E-17
3.770000E+03	9.741466E-17	2.103512E-17
3.780000E+03	9.830412E-17	2.104136E-17
3.790000E+03	9.921408E-17	2.104828E-17
3.800000E+03	1.001347E-16	2.105370E-17
3.810000E+03	1.010663E-16	2.105761E-17
3.820000E+03	1.020090E-16	2.105999E-17
3.830000E+03	1.029629E-16	2.106079E-17
3.840000E+03	1.039386E-16	2.106207E-17
3.850000E+03	1.049158E-16	2.105964E-17
3.860000E+03	1.059151E-16	2.105761E-17
3.870000E+03	1.069267E-16	2.105388E-17
3.880000E+03	1.079506E-16	2.104840E-17
3.890000E+03	1.089869E-16	2.104113E-17
3.900000E+03	1.100466E-16	2.103409E-17
3.910000E+03	1.111086E-16	2.102313E-17
3.920000E+03	1.121945E-16	2.101231E-17
3.930000E+03	1.132829E-16	2.099753E-17
3.940000E+03	1.143957E-16	2.098275E-17
3.950000E+03	1.155222E-16	2.096594E-17
3.960000E+03	1.166627E-16	2.094703E-17
3.970000E+03	1.178173E-16	2.092600E-17
3.980000E+03	1.189862E-16	2.090278E-17
3.990000E+03	1.201806E-16	2.087926E-17
4.000000E+03	1.213786E-16	2.085151E-17
4.010000E+03	1.225914E-16	2.082142E-17
4.020000E+03	1.238305E-16	2.079084E-17
4.030000E+03	1.250735E-16	2.075591E-17
4.040000E+03	1.263433E-16	2.072036E-17
4.050000E+03	1.276286E-16	2.068221E-17
4.060000E+03	1.289179E-16	2.063955E-17
4.070000E+03	1.302345E-16	2.059604E-17
4.080000E+03	1.315671E-16	2.054978E-17
4.090000E+03	1.329158E-16	2.050066E-17
4.100000E+03	1.342805E-16	2.044863E-17
4.110000E+03	1.356616E-16	2.039363E-17
4.120000E+03	1.370468E-16	2.033379E-17
4.130000E+03	1.384605E-16	2.027264E-17
4.140000E+03	1.398905E-16	2.020828E-17
4.150000E+03	1.413370E-16	2.014067E-17
4.160000E+03	1.428000E-16	2.006972E-17
4.170000E+03	1.442795E-16	1.999535E-17
4.180000E+03	1.457755E-16	1.991748E-17
4.190000E+03	1.472879E-16	1.983604E-17
4.200000E+03	1.488168E-16	1.975096E-17
4.210000E+03	1.503492E-16	1.966047E-17
4.220000E+03	1.519106E-16	1.956785E-17
4.230000E+03	1.534880E-16	1.947134E-17
4.240000E+03	1.550685E-16	1.936925E-17
4.250000E+03	1.566776E-16	1.926473E-17
4.260000E+03	1.582892E-16	1.915449E-17
4.270000E+03	1.599294E-16	1.904167E-17
4.280000E+03	1.615713E-16	1.892299E-17
4.290000E+03	1.632280E-16	1.879998E-17
4.300000E+03	1.649126E-16	1.867411E-17
4.310000E+03	1.665978E-16	1.854220E-17
4.320000E+03	1.682967E-16	1.840575E-17
4.330000E+03	1.699949E-16	1.826320E-17
4.340000E+03	1.717198E-16	1.811748E-17
4.350000E+03	1.734570E-16	1.796703E-17
4.360000E+03	1.751919E-16	1.781035E-17
4.370000E+03	1.769521E-16	1.765029E-17
4.380000E+03	1.787085E-16	1.748393E-17
4.390000E+03	1.804748E-16	1.731269E-17
4.400000E+03	1.822503E-16	1.713654E-17
4.410000E+03	1.840342E-16	1.695543E-17
4.420000E+03	1.858109E-16	1.676804E-17
4.430000E+03	1.876092E-16	1.657703E-17
4.440000E+03	1.893984E-16	1.637976E-17
4.450000E+03	1.911926E-16	1.617758E-17
4.460000E+03	1.929907E-16	1.597052E-17
4.470000E+03	1.947918E-16	1.575862E-17
4.480000E+03	1.965796E-16	1.554072E-17
4.490000E+03	1.983680E-16	1.531813E-17
4.500000E+03	2.001559E-16	1.509095E-17
4.510000E+03	2.019423E-16	1.485928E-17
4.520000E+03	2.037258E-16	1.462324E-17
4.530000E+03	2.054896E-16	1.438188E-17
4.540000E+03	2.072637E-16	1.413758E-17
4.550000E+03	2.089993E-16	1.388730E-17
4.560000E+03	2.107426E-16	1.363450E-17
4.570000E+03	2.124764E-16	1.337835E-17
4.580000E+03	2.141829E-16	1.311813E-17
4.590000E+03	2.158770E-16	1.285520E-17
4.600000E+03	2.175570E-16	1.258991E-17
4.610000E+03	2.192052E-16	1.232172E-17
4.620000E+03	2.208361E-16	1.205203E-17
4.630000E+03	2.224483E-16	1.178132E-17
4.640000E+03	2.240403E-16	1.151012E-17
4.650000E+03	2.255938E-16	1.123818E-17
4.660000E+03	2.271238E-16	1.096701E-17
4.670000E+03	2.286288E-16	1.069732E-17
4.680000E+03	2.301072E-16	1.042987E-17
4.690000E+03	2.315406E-16	1.016475E-17
4.700000E+03	2.329442E-16	9.903648E-18
4.710000E+03	2.342996E-16	9.646860E-18
4.720000E+03	2.356393E-16	9.396861E-18
4.730000E+03	2.369277E-16	9.153410E-18
4.740000E+03	2.381804E-16	8.918413E-18
4.750000E+03	2.393790E-16	8.692538E-18
4.760000E+03	2.405393E-16	8.477790E-18
4.770000E+03	2.416601E-16	8.275565E-18
4.780000E+03	2.427229E-16	8.086711E-18
4.790000E+03	2.437437E-16	7.913270E-18
4.800000E+03	2.447219E-16	7.756665E-18
4.810000E+03	2.456567E-16	7.618251E-18
4.820000E+03	2.465300E-16	7.498762E-18
4.830000E+03	2.473413E-16	7.399340E-18
4.840000E+03	2.481247E-16	7.321942E-18
4.850000E+03	2.488451E-16	7.265657E-18
4.860000E+03	2.495195E-16	7.230224E-18
4.870000E+03	2.501300E-16	7.214078E-18
4.880000E+03	2.506940E-16	7.216471E-18
4.890000E+03	2.512116E-16	7.235972E-18
4.900000E+03	2.516651E-16	7.270525E-18
4.910000E+03	2.520894E-16	7.319500E-18
4.920000E+03	2.524323E-16	7.379704E-18
4.930000E+03	2.527463E-16	7.450984E-18
4.940000E+03	2.529968E-16	7.530671E-18
4.950000E+03	2.531838E-16	7.617159E-18
4.960000E+03	2.533252E-16	7.709456E-18
4.970000E+03	2.534214E-16	7.806143E-18
4.980000E+03	2.534727E-16	7.905892E-18
4.990000E+03	2.534620E-16	8.006943E-18
5.000000E+03	2.534073E-16	8.108721E-18
5.010000E+03	2.533091E-16	8.210225E-18
5.020000E+03	2.531505E-16	8.309979E-18
5.030000E+03	2.529323E-16	8.407163E-18
5.040000E+03	2.526894E-16	8.502206E-18
5.050000E+03	2.523881E-16	8.593333E-18
5.060000E+03	2.520459E-16	8.680569E-18
5.070000E+03	2.516469E-16	8.762865E-18
5.080000E+03	2.512085E-16	8.840406E-18
5.090000E+03	2.507314E-16	8.912862E-18
5.100000E+03	2.501996E-16	8.979367E-18
5.110000E+03	2.496306E-16	9.040311E-18
5.120000E+03	2.490083E-16	9.094920E-18
5.130000E+03	2.483671E-16	9.144314E-18
5.140000E+03	2.476577E-16	9.186595E-18
5.150000E+03	2.469306E-16	9.223576E-18
5.160000E+03	2.461537E-16	9.254053E-18
5.170000E+03	2.453442E-16	9.278700E-18
5.180000E+03	2.444866E-16	9.296994E-18
5.190000E+03	2.435980E-16	9.309672E-18
5.200000E+03	2.426792E-16	9.316892E-18
5.210000E+03	2.417151E-16	9.318225E-18
5.220000E+03	2.407224E-16	9.314495E-18
5.230000E+03	2.397020E-16	9.305939E-18
5.240000E+03	2.386388E-16	9.292196E-18
5.250000E+03	2.375496E-16	9.274169E-18
5.260000E+03	2.364351E-16	9.252146E-18
5.270000E+03	2.352807E-16	9.225842E-18
5.280000E+03	2.341028E-16	9.196202E-18
5.290000E+03	2.329021E-16	9.163567E-18
5.300000E+03	2.316642E-16	9.127697E-18
5.310000E+03	2.304052E-16	9.089568E-18
5.320000E+03	2.291260E-16	9.049564E-18
5.330000E+03	2.278124E-16	9.007475E-18
5.340000E+03	2.264803E-16	8.964293E-18
5.350000E+03	2.251157E-16	8.919832E-18
5.360000E+03	2.237489E-16	8.875653E-18
5.370000E+03	2.223513E-16	8.830991E-18
5.380000E+03	2.209241E-16	8.786245E-18
5.390000E+03	2.194969E-16	8.742951E-18
5.400000E+03	2.180419E-16	8.700342E-18
5.410000E+03	2.165598E-16	8.658781E-18
5.420000E+03	2.150801E-16	8.619758E-18
5.430000E+03	2.135753E-16	8.582474E-18
5.440000E+03	2.120463E-16	8.547242E-18
5.450000E+03	2.105218E-16	8.515409E-18
5.460000E+03	2.089753E-16	8.485720E-18
5.470000E+03	2.074223E-16	8.458425E-18
5.480000E+03	2.058512E-16	8.432691E-18
5.490000E+03	2.042775E-16	8.408769E-18
5.500000E+03	2.027031E-16	8.386381E-18
5.510000E+03	2.011300E-16	8.365242E-18
5.520000E+03	1.995469E-16	8.344538E-18
5.530000E+03	1.979690E-16	8.324553E-18
5.540000E+03	1.963980E-16	8.305035E-18
5.550000E+03	1.948230E-16	8.285201E-18
5.560000E+03	1.932585E-16	8.265372E-18
5.570000E+03	1.917061E-16	8.245330E-18
5.580000E+03	1.901674E-16	8.224877E-18
5.590000E+03	1.886319E-16	8.203305E-18
5.600000E+03	1.871133E-16	8.180974E-18
5.610000E+03	1.856131E-16	8.157732E-18
5.620000E+03	1.841327E-16	8.133439E-18
5.630000E+03	1.826617E-16	8.107451E-18
5.640000E+03	1.812134E-16	8.080182E-18
5.650000E+03	1.797773E-16	8.051013E-18
5.660000E+03	1.783780E-16	8.020902E-18
5.670000E+03	1.769935E-16	7.988738E-18
5.680000E+03	1.756365E-16	7.954977E-18
5.690000E+03	1.743082E-16	7.919569E-18
5.700000E+03	1.729983E-16	7.881959E-18
5.710000E+03	1.717303E-16	7.843135E-18
5.720000E+03	1.704828E-16	7.802059E-18
5.730000E+03	1.692570E-16	7.758718E-18
5.740000E+03	1.680758E-16	7.714106E-18
5.750000E+03	1.669181E-16	7.667218E-18
5.760000E+03	1.657956E-16	7.618553E-18
5.770000E+03	1.647092E-16	7.568116E-18
5.780000E+03	1.636597E-16	7.515919E-18
5.790000E+03	1.626371E-16	7.461487E-18
5.800000E+03	1.616530E-16	7.405328E-18
5.810000E+03	1.607079E-16	7.347461E-18
5.820000E+03	1.598024E-16	7.287898E-18
5.830000E+03	1.589272E-16	7.226203E-18
5.840000E+03	1.581031E-16	7.163328E-18
5.850000E+03	1.573105E-16	7.098371E-18
5.860000E+03	1.565602E-16	7.031825E-18
5.870000E+03	1.558428E-16	6.963266E-18
5.880000E+03	1.551790E-16	6.893617E-18
5.890000E+03	1.545493E-16	6.822013E-18
5.900000E+03	1.539644E-16	6.748931E-18
5.910000E+03	1.534249E-16	6.674389E-18
5.920000E+03	1.529313E-16	6.598417E-18
5.930000E+03	1.524745E-16	6.520622E-18
5.940000E+03	1.520747E-16	6.441868E-18
5.950000E+03	1.517129E-16	6.361344E-18
5.960000E+03	1.513996E-16	6.279501E-18
5.970000E+03	1.511354E-16	6.196360E-18
5.980000E+03	1.509211E-16	6.111949E-18
5.990000E+03	1.507475E-16	6.025903E-18
6.000000E+03	1.506252E-16	5.938653E-18
6.010000E+03	1.505645E-16	5.850608E-18
6.020000E+03	1.505468E-16	5.761037E-18
6.030000E+03	1.505826E-16	5.670364E-18
6.040000E+03	1.506630E-16	5.578270E-18
6.050000E+03	1.508082E-16	5.485524E-18
6.060000E+03	1.509997E-16	5.391470E-18
6.070000E+03	1.512579E-16	5.296869E-18
6.080000E+03	1.515642E-16	5.201104E-18
6.090000E+03	1.519293E-16	5.104607E-18
6.100000E+03	1.523543E-16	5.007476E-18
6.110000E+03	1.528305E-16	4.909509E-18
6.120000E+03	1.533786E-16	4.811480E-18
6.130000E+03	1.539799E-16	4.712916E-18
6.140000E+03	1.546556E-16	4.614617E-18
6.150000E+03	1.553871E-16	4.516199E-18
6.160000E+03	1.561855E-16	4.418213E-18
6.170000E+03	1.570523E-16	4.320957E-18
6.180000E+03	1.579888E-16	4.224767E-18
6.190000E+03	1.589966E-16	4.130039E-18
6.200000E+03	1.600667E-16	4.036967E-18
6.210000E+03	1.612216E-16	3.946606E-18
6.220000E+03	1.624419E-16	3.859033E-18
6.230000E+03	1.637504E-16	3.775441E-18
6.240000E+03	1.651278E-16	3.696102E-18
6.250000E+03	1.665862E-16	3.622117E-18
6.260000E+03	1.681272E-16	3.554429E-18
6.270000E+03	1.697515E-16	3.494046E-18
6.280000E+03	1.714598E-16	3.442043E-18
6.290000E+03	1.732405E-16	3.399316E-18
6.300000E+03	1.751153E-16	3.367446E-18
6.310000E+03	1.770598E-16	3.347091E-18
6.320000E+03	1.790944E-16	3.339187E-18
6.330000E+03	1.811925E-16	3.342954E-18
6.340000E+03	1.833744E-16	3.358314E-18
6.350000E+03	1.856126E-16	3.384210E-18
6.360000E+03	1.879153E-16	3.420171E-18
6.370000E+03	1.902784E-16	3.465451E-18
6.380000E+03	1.926980E-16	3.519289E-18
6.390000E+03	1.951698E-16	3.580926E-18
6.400000E+03	1.976892E-16	3.649632E-18
6.410000E+03	2.002382E-16	3.724474E-18
6.420000E+03	2.028381E-16	3.805319E-18
6.430000E+03	2.054708E-16	3.891384E-18
6.440000E+03	2.081170E-16	3.981946E-18
6.450000E+03	2.107987E-16	4.077164E-18
6.460000E+03	2.134820E-16	4.176236E-18
6.470000E+03	2.161749E-16	4.279262E-18
6.480000E+03	2.188854E-16	4.386460E-18
6.490000E+03	2.215785E-16	4.497299E-18
6.500000E+03	2.242616E-16	4.612190E-18
6.510000E+03	2.269283E-16	4.731364E-18
6.520000E+03	2.295863E-16	4.855450E-18
6.530000E+03	2.321990E-16	4.984217E-18
6.540000E+03	2.347750E-16	5.118467E-18
6.550000E+03	2.373088E-16	5.258763E-18
6.560000E+03	2.397790E-16	5.405363E-18
6.570000E+03	2.422123E-16	5.559642E-18
6.580000E+03	2.445886E-16	5.721952E-18
6.590000E+03	2.469042E-16	5.893015E-18
6.600000E+03	2.491562E-16	6.073559E-18
6.610000E+03	2.513255E-16	6.263871E-18
6.620000E+03	2.534441E-16	6.464892E-18
6.630000E+03	2.554941E-16	6.675667E-18
6.640000E+03	2.574578E-16	6.895107E-18
6.650000E+03	2.593686E-16	7.123429E-18
6.660000E+03	2.611915E-16	7.358991E-18
6.670000E+03	2.629606E-16	7.602026E-18
6.680000E+03	2.646410E-16	7.850805E-18
6.690000E+03	2.662674E-16	8.105613E-18
6.700000E+03	2.678045E-16	8.364659E-18
6.710000E+03	2.692698E-16	8.627740E-18
6.720000E+03	2.706817E-16	8.894743E-18
6.730000E+03	2.720041E-16	9.163807E-18
6.740000E+03	2.732557E-16	9.434841E-18
6.750000E+03	2.744366E-16	9.707196E-18
6.760000E+03	2.755661E-16	9.980917E-18
6.770000E+03	2.766077E-16	1.025408E-17
6.780000E+03	2.775806E-16	1.052675E-17
6.790000E+03	2.784852E-16	1.079838E-17
6.800000E+03	2.793227E-16	1.106844E-17
6.810000E+03	2.800938E-16	1.133642E-17
6.820000E+03	2.807993E-16	1.160184E-17
6.830000E+03	2.814404E-16	1.186423E-17
6.840000E+03	2.820179E-16	1.212315E-17
6.850000E+03	2.825327E-16	1.237818E-17
6.860000E+03	2.829863E-16	1.262894E-17
6.870000E+03	2.833794E-16	1.287505E-17
6.880000E+03	2.837132E-16	1.311614E-17
6.890000E+03	2.839892E-16	1.335190E-17
6.900000E+03	2.841887E-16	1.358106E-17
6.910000E+03	2.843519E-16	1.380519E-17
6.920000E+03	2.844604E-16	1.402307E-17
6.930000E+03	2.845156E-16	1.423446E-17
6.940000E+03	2.844993E-16	1.443812E-17
6.950000E+03	2.844514E-16	1.463579E-17
6.960000E+03	2.843538E-16	1.482627E-17
6.970000E+03	2.841882E-16	1.500836E-17
6.980000E+03	2.839945E-16	1.518389E-17
6.990000E+03	2.837354E-16	1.535065E-17
7.000000E+03	2.834507E-16	1.551057E-17
7.010000E+03	2.831030E-16	1.566142E-17
7.020000E+03	2.827319E-16	1.580516E-17
7.030000E+03	2.823001E-16	1.593957E-17
7.040000E+03	2.818281E-16	1.606561E-17
7.050000E+03	2.813363E-16	1.618429E-17
7.060000E+03	2.807872E-16	1.629333E-17
7.070000E+03	2.802014E-16	1.639377E-17
7.080000E+03	2.795798E-16	1.648555E-17
7.090000E+03	2.789237E-16	1.656863E-17
7.100000E+03	2.782534E-16	1.664413E-17
7.110000E+03	2.775314E-16	1.670973E-17
7.120000E+03	2.767782E-16	1.676656E-17
7.130000E+03	2.759947E-16	1.681461E-17
7.140000E+03	2.751821E-16	1.685390E-17
7.150000E+03	2.743225E-16	1.688327E-17
7.160000E+03	2.734547E-16	1.690506E-17
7.170000E+03	2.725610E-16	1.691815E-17
7.180000E+03	2.716422E-16	1.692256E-17
7.190000E+03	2.706807E-16	1.691718E-17
7.200000E+03	2.697150E-16	1.690440E-17
7.210000E+03	2.687273E-16	1.688311E-17
7.220000E+03	2.677000E-16	1.685220E-17
7.230000E+03	2.666713E-16	1.681408E-17
7.240000E+03	2.656051E-16	1.676650E-17
7.250000E+03	2.645210E-16	1.671071E-17
7.260000E+03	2.634196E-16	1.664679E-17
7.270000E+03	2.623206E-16	1.657600E-17
7.280000E+03	2.611880E-16	1.649612E-17
7.290000E+03	2.600413E-16	1.640843E-17
7.300000E+03	2.588810E-16	1.631301E-17
7.310000E+03	2.577084E-16	1.620999E-17
7.320000E+03	2.565062E-16	1.609835E-17
7.330000E+03	2.553114E-16	1.598049E-17
7.340000E+03	2.541066E-16	1.585537E-17
7.350000E+03	2.528928E-16	1.572314E-17
7.360000E+03	2.516532E-16	1.558283E-17
7.370000E+03	2.504063E-16	1.543567E-17
7.380000E+03	2.491703E-16	1.528287E-17
7.390000E+03	2.479112E-16	1.512243E-17
7.400000E+03	2.466469E-16	1.495554E-17
7.410000E+03	2.453786E-16	1.478237E-17
7.420000E+03	2.441064E-16	1.460303E-17
7.430000E+03	2.428315E-16	1.441769E-17
7.440000E+03	2.415543E-16	1.422648E-17
7.450000E+03	2.402755E-16	1.402955E-17
7.460000E+03	2.389787E-16	1.382607E-17
7.470000E+03	2.376985E-16	1.361815E-17
7.480000E+03	2.364016E-16	1.340401E-17
7.490000E+03	2.351222E-16	1.318572E-17
7.500000E+03	2.338272E-16	1.296153E-17
7.510000E+03	2.325339E-16	1.273255E-17
7.520000E+03	2.312427E-16	1.249895E-17
7.530000E+03	2.299542E-16	1.226089E-17
7.540000E+03	2.286520E-16	1.201767E-17
7.550000E+03	2.273696E-16	1.177121E-17
7.560000E+03	2.260907E-16	1.152079E-17
7.570000E+03	2.247994E-16	1.126579E-17
7.580000E+03	2.235125E-16	1.100725E-17
7.590000E+03	2.222457E-16	1.074613E-17
7.600000E+03	2.209676E-16	1.048108E-17
7.610000E+03	2.196942E-16	1.021309E-17
7.620000E+03	2.184099E-16	9.941703E-18
7.630000E+03	2.171465E-16	9.668607E-18
7.640000E+03	2.158879E-16	9.393322E-18
7.650000E+03	2.146191E-16	9.115498E-18
7.660000E+03	2.133708E-16	8.836772E-18
7.670000E+03	2.121123E-16	8.556202E-18
7.680000E+03	2.108590E-16	8.274829E-18
7.690000E+03	2.096108E-16	7.993080E-18
7.700000E+03	2.083677E-16	7.711441E-18
7.710000E+03	2.071145E-16	7.429902E-18
7.720000E+03	2.058814E-16	7.150192E-18
7.730000E+03	2.046382E-16	6.871941E-18
7.740000E+03	2.033995E-16	6.596493E-18
7.750000E+03	2.021805E-16	6.325244E-18
7.760000E+03	2.009362E-16	6.057869E-18
