#wls	flux	fluxerr
1.600000E+03	1.730497E-17	8.190154E-18
1.640000E+03	1.782069E-17	8.374027E-18
1.680000E+03	1.835049E-17	8.559954E-18
1.720000E+03	1.889774E-17	8.749251E-18
1.760000E+03	1.946281E-17	8.941798E-18
1.800000E+03	2.004605E-17	9.137457E-18
1.840000E+03	2.064427E-17	9.334478E-18
1.880000E+03	2.126478E-17	9.535850E-18
1.920000E+03	2.190445E-17	9.739817E-18
1.960000E+03	2.255979E-17	9.944489E-18
2.000000E+03	2.323862E-17	1.015297E-17
2.040000E+03	2.393752E-17	1.036337E-17
2.080000E+03	2.465675E-17	1.057542E-17
2.120000E+03	2.539658E-17	1.078884E-17
2.160000E+03	2.615727E-17	1.100334E-17
2.200000E+03	2.693907E-17	1.121859E-17
2.240000E+03	2.774677E-17	1.143616E-17
2.280000E+03	2.857629E-17	1.165386E-17
2.320000E+03	2.943266E-17	1.187327E-17
2.360000E+03	3.031159E-17	1.209215E-17
2.400000E+03	3.121836E-17	1.231208E-17
2.440000E+03	3.214849E-17	1.253076E-17
2.480000E+03	3.310231E-17	1.274778E-17
2.520000E+03	3.408557E-17	1.296480E-17
2.560000E+03	3.509903E-17	1.318147E-17
2.600000E+03	3.614356E-17	1.339748E-17
2.640000E+03	3.721434E-17	1.361037E-17
2.680000E+03	3.831788E-17	1.382189E-17
2.720000E+03	3.945533E-17	1.403171E-17
2.760000E+03	4.062796E-17	1.423952E-17
2.800000E+03	4.183089E-17	1.444285E-17
2.840000E+03	4.307814E-17	1.464573E-17
2.880000E+03	4.435879E-17	1.484356E-17
2.920000E+03	4.568778E-17	1.504045E-17
2.960000E+03	4.705410E-17	1.523178E-17
3.000000E+03	4.847375E-17	1.542174E-17
3.010000E+03	4.883584E-17	1.546852E-17
3.020000E+03	4.920017E-17	1.551477E-17
3.030000E+03	4.956678E-17	1.556051E-17
3.040000E+03	4.993572E-17	1.560573E-17
3.050000E+03	5.031415E-17	1.565264E-17
3.060000E+03	5.069505E-17	1.569903E-17
3.070000E+03	5.107123E-17	1.574266E-17
3.080000E+03	5.145714E-17	1.578798E-17
3.090000E+03	5.184564E-17	1.583277E-17
3.100000E+03	5.223676E-17	1.587703E-17
3.110000E+03	5.263056E-17	1.592074E-17
3.120000E+03	5.303448E-17	1.596614E-17
3.130000E+03	5.343380E-17	1.600876E-17
3.140000E+03	5.384341E-17	1.605307E-17
3.150000E+03	5.425597E-17	1.609683E-17
3.160000E+03	5.467150E-17	1.614003E-17
3.170000E+03	5.509009E-17	1.618268E-17
3.180000E+03	5.551178E-17	1.622478E-17
3.190000E+03	5.593661E-17	1.626631E-17
3.200000E+03	5.637237E-17	1.630952E-17
3.210000E+03	5.680372E-17	1.634992E-17
3.220000E+03	5.724620E-17	1.639200E-17
3.230000E+03	5.769214E-17	1.643350E-17
3.240000E+03	5.813374E-17	1.647220E-17
3.250000E+03	5.859469E-17	1.651479E-17
3.260000E+03	5.905143E-17	1.655457E-17
3.270000E+03	5.951190E-17	1.659377E-17
3.280000E+03	5.998421E-17	1.663461E-17
3.290000E+03	6.045240E-17	1.667265E-17
3.300000E+03	6.093266E-17	1.671232E-17
3.310000E+03	6.141701E-17	1.675139E-17
3.320000E+03	6.190555E-17	1.678987E-17
3.330000E+03	6.239834E-17	1.682775E-17
3.340000E+03	6.289547E-17	1.686503E-17
3.350000E+03	6.339701E-17	1.690170E-17
3.360000E+03	6.391145E-17	1.693999E-17
3.370000E+03	6.442211E-17	1.697543E-17
3.380000E+03	6.494593E-17	1.701247E-17
3.390000E+03	6.547459E-17	1.704889E-17
3.400000E+03	6.600818E-17	1.708468E-17
3.410000E+03	6.654680E-17	1.711983E-17
3.420000E+03	6.709053E-17	1.715434E-17
3.430000E+03	6.763947E-17	1.718820E-17
3.440000E+03	6.820248E-17	1.722363E-17
3.450000E+03	6.876217E-17	1.725617E-17
3.460000E+03	6.933621E-17	1.729026E-17
3.470000E+03	6.991596E-17	1.732368E-17
3.480000E+03	7.050149E-17	1.735641E-17
3.490000E+03	7.109293E-17	1.738844E-17
3.500000E+03	7.169036E-17	1.741978E-17
3.510000E+03	7.229391E-17	1.745041E-17
3.520000E+03	7.291283E-17	1.748252E-17
3.530000E+03	7.352896E-17	1.751170E-17
3.540000E+03	7.416079E-17	1.754233E-17
3.550000E+03	7.478995E-17	1.757003E-17
3.560000E+03	7.543513E-17	1.759915E-17
3.570000E+03	7.608718E-17	1.762749E-17
3.580000E+03	7.674621E-17	1.765505E-17
3.590000E+03	7.741235E-17	1.768181E-17
3.600000E+03	7.808572E-17	1.770775E-17
3.610000E+03	7.877605E-17	1.773503E-17
3.620000E+03	7.946426E-17	1.775930E-17
3.630000E+03	8.016004E-17	1.778271E-17
3.640000E+03	8.087332E-17	1.780741E-17
3.650000E+03	8.159454E-17	1.783121E-17
3.660000E+03	8.232381E-17	1.785410E-17
3.670000E+03	8.305125E-17	1.787390E-17
3.680000E+03	8.379692E-17	1.789491E-17
3.690000E+03	8.455102E-17	1.791494E-17
3.700000E+03	8.532384E-17	1.793612E-17
3.710000E+03	8.609520E-17	1.795415E-17
3.720000E+03	8.687535E-17	1.797113E-17
3.730000E+03	8.767479E-17	1.798919E-17
3.740000E+03	8.847295E-17	1.800403E-17
3.750000E+03	8.929077E-17	1.801989E-17
3.760000E+03	9.010742E-17	1.803248E-17
3.770000E+03	9.094412E-17	1.804603E-17
3.780000E+03	9.179047E-17	1.805838E-17
3.790000E+03	9.263583E-17	1.806741E-17
3.800000E+03	9.350178E-17	1.807728E-17
3.810000E+03	9.437774E-17	1.808587E-17
3.820000E+03	9.526384E-17	1.809315E-17
3.830000E+03	9.616018E-17	1.809907E-17
3.840000E+03	9.707799E-17	1.810569E-17
3.850000E+03	9.799526E-17	1.810881E-17
3.860000E+03	9.892310E-17	1.811048E-17
3.870000E+03	9.986157E-17	1.811065E-17
3.880000E+03	1.008223E-16	1.811134E-17
3.890000E+03	1.017825E-16	1.810842E-17
3.900000E+03	1.027653E-16	1.810592E-17
3.910000E+03	1.037477E-16	1.809974E-17
3.920000E+03	1.047531E-16	1.809390E-17
3.930000E+03	1.057579E-16	1.808428E-17
3.940000E+03	1.067861E-16	1.807491E-17
3.950000E+03	1.078138E-16	1.806169E-17
3.960000E+03	1.088650E-16	1.804861E-17
3.970000E+03	1.099280E-16	1.803359E-17
3.980000E+03	1.110028E-16	1.801661E-17
3.990000E+03	1.120770E-16	1.799560E-17
4.000000E+03	1.131754E-16	1.797452E-17
4.010000E+03	1.142857E-16	1.795129E-17
4.020000E+03	1.154079E-16	1.792588E-17
4.030000E+03	1.165295E-16	1.789631E-17
4.040000E+03	1.176755E-16	1.786638E-17
4.050000E+03	1.188336E-16	1.783411E-17
4.060000E+03	1.200036E-16	1.779943E-17
4.070000E+03	1.211857E-16	1.776231E-17
4.080000E+03	1.223796E-16	1.772266E-17
4.090000E+03	1.235724E-16	1.767856E-17
4.100000E+03	1.247901E-16	1.763373E-17
4.110000E+03	1.260196E-16	1.758620E-17
4.120000E+03	1.272609E-16	1.753592E-17
4.130000E+03	1.285001E-16	1.748097E-17
4.140000E+03	1.297646E-16	1.742504E-17
4.150000E+03	1.310404E-16	1.736615E-17
4.160000E+03	1.323275E-16	1.730429E-17
4.170000E+03	1.336118E-16	1.723756E-17
4.180000E+03	1.349210E-16	1.716955E-17
4.190000E+03	1.362410E-16	1.709836E-17
4.200000E+03	1.375574E-16	1.702219E-17
4.210000E+03	1.388984E-16	1.694452E-17
4.220000E+03	1.402351E-16	1.686176E-17
4.230000E+03	1.415961E-16	1.677736E-17
4.240000E+03	1.429522E-16	1.668780E-17
4.250000E+03	1.443173E-16	1.659476E-17
4.260000E+03	1.457062E-16	1.649988E-17
4.270000E+03	1.470888E-16	1.639973E-17
4.280000E+03	1.484796E-16	1.629597E-17
4.290000E+03	1.498782E-16	1.618855E-17
4.300000E+03	1.512841E-16	1.607742E-17
4.310000E+03	1.526970E-16	1.596255E-17
4.320000E+03	1.541163E-16	1.584392E-17
4.330000E+03	1.555417E-16	1.572149E-17
4.340000E+03	1.569569E-16	1.559367E-17
4.350000E+03	1.583925E-16	1.546359E-17
4.360000E+03	1.598326E-16	1.532964E-17
4.370000E+03	1.612606E-16	1.519032E-17
4.380000E+03	1.627077E-16	1.504866E-17
4.390000E+03	1.641412E-16	1.490165E-17
4.400000E+03	1.655763E-16	1.475081E-17
4.410000E+03	1.670126E-16	1.459618E-17
4.420000E+03	1.684493E-16	1.443778E-17
4.430000E+03	1.698855E-16	1.427564E-17
4.440000E+03	1.713206E-16	1.410980E-17
4.450000E+03	1.727538E-16	1.394032E-17
4.460000E+03	1.741673E-16	1.376593E-17
4.470000E+03	1.755941E-16	1.358940E-17
4.480000E+03	1.769993E-16	1.340818E-17
4.490000E+03	1.783990E-16	1.322369E-17
4.500000E+03	1.798096E-16	1.303732E-17
4.510000E+03	1.811957E-16	1.284666E-17
4.520000E+03	1.825561E-16	1.265194E-17
4.530000E+03	1.839246E-16	1.245576E-17
4.540000E+03	1.852828E-16	1.225707E-17
4.550000E+03	1.866123E-16	1.205494E-17
4.560000E+03	1.879472E-16	1.185190E-17
4.570000E+03	1.892508E-16	1.164593E-17
4.580000E+03	1.905401E-16	1.143846E-17
4.590000E+03	1.918138E-16	1.122977E-17
4.600000E+03	1.930712E-16	1.102019E-17
4.610000E+03	1.942927E-16	1.080907E-17
4.620000E+03	1.955137E-16	1.059882E-17
4.630000E+03	1.966966E-16	1.038786E-17
4.640000E+03	1.978587E-16	1.017766E-17
4.650000E+03	1.989988E-16	9.968677E-18
4.660000E+03	2.001159E-16	9.761444E-18
4.670000E+03	2.012090E-16	9.556509E-18
4.680000E+03	2.022771E-16	9.354464E-18
4.690000E+03	2.033002E-16	9.155089E-18
4.700000E+03	2.042961E-16	8.959942E-18
4.710000E+03	2.052829E-16	8.770536E-18
4.720000E+03	2.062027E-16	8.585180E-18
4.730000E+03	2.071113E-16	8.407073E-18
4.740000E+03	2.079891E-16	8.236210E-18
4.750000E+03	2.088158E-16	8.072668E-18
4.760000E+03	2.096291E-16	7.918783E-18
4.770000E+03	2.103897E-16	7.773928E-18
4.780000E+03	2.111162E-16	7.639677E-18
4.790000E+03	2.117886E-16	7.516156E-18
4.800000E+03	2.124446E-16	7.405511E-18
4.810000E+03	2.130454E-16	7.307108E-18
4.820000E+03	2.136096E-16	7.222266E-18
4.830000E+03	2.141370E-16	7.151529E-18
4.840000E+03	2.146269E-16	7.094969E-18
4.850000E+03	2.150793E-16	7.052152E-18
4.860000E+03	2.154745E-16	7.021858E-18
4.870000E+03	2.158514E-16	7.004678E-18
4.880000E+03	2.161710E-16	6.998578E-18
4.890000E+03	2.164527E-16	7.003339E-18
4.900000E+03	2.166773E-16	7.017443E-18
4.910000E+03	2.168836E-16	7.041203E-18
4.920000E+03	2.170328E-16	7.072407E-18
4.930000E+03	2.171640E-16	7.111354E-18
4.940000E+03	2.172387E-16	7.155833E-18
4.950000E+03	2.172571E-16	7.204904E-18
4.960000E+03	2.172581E-16	7.258941E-18
4.970000E+03	2.172036E-16	7.315806E-18
4.980000E+03	2.171323E-16	7.375978E-18
4.990000E+03	2.170061E-16	7.437390E-18
5.000000E+03	2.168258E-16	7.499325E-18
5.010000E+03	2.166298E-16	7.562433E-18
5.020000E+03	2.163805E-16	7.624789E-18
5.030000E+03	2.161166E-16	7.687183E-18
5.040000E+03	2.158004E-16	7.747766E-18
5.050000E+03	2.154516E-16	7.806768E-18
5.060000E+03	2.150519E-16	7.863098E-18
5.070000E+03	2.146396E-16	7.917784E-18
5.080000E+03	2.141776E-16	7.969134E-18
5.090000E+03	2.136856E-16	8.017579E-18
5.100000E+03	2.131639E-16	8.062892E-18
5.110000E+03	2.126134E-16	8.104891E-18
5.120000E+03	2.120162E-16	8.142714E-18
5.130000E+03	2.114099E-16	8.177658E-18
5.140000E+03	2.107584E-16	8.208221E-18
5.150000E+03	2.100809E-16	8.235059E-18
5.160000E+03	2.093600E-16	8.257425E-18
5.170000E+03	2.086325E-16	8.276741E-18
5.180000E+03	2.078633E-16	8.291605E-18
5.190000E+03	2.070710E-16	8.302772E-18
5.200000E+03	2.062564E-16	8.310308E-18
5.210000E+03	2.054201E-16	8.314292E-18
5.220000E+03	2.045631E-16	8.314835E-18
5.230000E+03	2.036685E-16	8.311337E-18
5.240000E+03	2.027547E-16	8.304645E-18
5.250000E+03	2.018224E-16	8.294911E-18
5.260000E+03	2.008725E-16	8.282302E-18
5.270000E+03	1.999055E-16	8.266981E-18
5.280000E+03	1.989054E-16	8.248435E-18
5.290000E+03	1.978899E-16	8.227563E-18
5.300000E+03	1.968599E-16	8.204573E-18
5.310000E+03	1.958161E-16	8.179675E-18
5.320000E+03	1.947593E-16	8.153083E-18
5.330000E+03	1.936735E-16	8.124324E-18
5.340000E+03	1.925926E-16	8.095014E-18
5.350000E+03	1.914846E-16	8.064003E-18
5.360000E+03	1.903666E-16	8.032209E-18
5.370000E+03	1.892393E-16	7.999865E-18
5.380000E+03	1.880874E-16	7.966526E-18
5.390000E+03	1.869436E-16	7.933769E-18
5.400000E+03	1.857769E-16	7.900478E-18
5.410000E+03	1.846038E-16	7.867544E-18
5.420000E+03	1.834251E-16	7.835182E-18
5.430000E+03	1.822260E-16	7.802937E-18
5.440000E+03	1.810380E-16	7.772331E-18
5.450000E+03	1.798312E-16	7.742231E-18
5.460000E+03	1.786367E-16	7.713964E-18
5.470000E+03	1.774255E-16	7.686076E-18
5.480000E+03	1.761990E-16	7.658419E-18
5.490000E+03	1.749885E-16	7.632143E-18
5.500000E+03	1.737804E-16	7.606445E-18
5.510000E+03	1.725611E-16	7.580539E-18
5.520000E+03	1.713470E-16	7.554936E-18
5.530000E+03	1.701391E-16	7.529492E-18
5.540000E+03	1.689385E-16	7.504076E-18
5.550000E+03	1.677464E-16	7.478561E-18
5.560000E+03	1.665500E-16	7.452204E-18
5.570000E+03	1.653784E-16	7.426146E-18
5.580000E+03	1.642047E-16	7.399031E-18
5.590000E+03	1.630441E-16	7.371392E-18
5.600000E+03	1.618974E-16	7.343133E-18
5.610000E+03	1.607656E-16	7.314173E-18
5.620000E+03	1.596363E-16	7.283821E-18
5.630000E+03	1.585374E-16	7.253242E-18
5.640000E+03	1.574428E-16	7.221144E-18
5.650000E+03	1.563668E-16	7.188086E-18
5.660000E+03	1.553105E-16	7.154025E-18
5.670000E+03	1.542743E-16	7.118910E-18
5.680000E+03	1.532464E-16	7.082112E-18
5.690000E+03	1.522532E-16	7.044794E-18
5.700000E+03	1.512699E-16	7.005742E-18
5.710000E+03	1.503226E-16	6.966112E-18
5.720000E+03	1.493867E-16	6.924719E-18
5.730000E+03	1.484755E-16	6.882134E-18
5.740000E+03	1.475897E-16	6.838353E-18
5.750000E+03	1.467176E-16	6.792794E-18
5.760000E+03	1.458843E-16	6.746596E-18
5.770000E+03	1.450662E-16	6.698634E-18
5.780000E+03	1.442880E-16	6.650032E-18
5.790000E+03	1.435261E-16	6.599676E-18
5.800000E+03	1.427932E-16	6.548135E-18
5.810000E+03	1.420897E-16	6.495417E-18
5.820000E+03	1.414164E-16	6.441540E-18
5.830000E+03	1.407618E-16	6.385969E-18
5.840000E+03	1.401501E-16	6.329800E-18
5.850000E+03	1.395582E-16	6.271981E-18
5.860000E+03	1.390102E-16	6.213582E-18
5.870000E+03	1.384831E-16	6.153572E-18
5.880000E+03	1.379892E-16	6.092494E-18
5.890000E+03	1.375289E-16	6.030368E-18
5.900000E+03	1.371027E-16	5.967204E-18
5.910000E+03	1.367111E-16	5.903029E-18
5.920000E+03	1.363432E-16	5.837372E-18
5.930000E+03	1.360224E-16	5.771235E-18
5.940000E+03	1.357263E-16	5.703662E-18
5.950000E+03	1.354669E-16	5.635171E-18
5.960000E+03	1.352561E-16	5.566252E-18
5.970000E+03	1.350716E-16	5.495984E-18
5.980000E+03	1.349254E-16	5.424873E-18
5.990000E+03	1.348068E-16	5.352494E-18
6.000000E+03	1.347389E-16	5.279780E-18
6.010000E+03	1.347110E-16	5.206317E-18
6.020000E+03	1.347124E-16	5.131707E-18
6.030000E+03	1.347664E-16	5.056860E-18
6.040000E+03	1.348510E-16	4.980968E-18
6.050000E+03	1.349894E-16	4.904926E-18
6.060000E+03	1.351597E-16	4.827960E-18
6.070000E+03	1.353740E-16	4.750561E-18
6.080000E+03	1.356330E-16	4.672803E-18
6.090000E+03	1.359374E-16	4.594771E-18
6.100000E+03	1.362881E-16	4.516567E-18
6.110000E+03	1.366743E-16	4.437930E-18
6.120000E+03	1.371200E-16	4.359745E-18
6.130000E+03	1.376143E-16	4.281775E-18
6.140000E+03	1.381468E-16	4.203839E-18
6.150000E+03	1.387415E-16	4.126844E-18
6.160000E+03	1.393761E-16	4.050306E-18
6.170000E+03	1.400633E-16	3.974828E-18
6.180000E+03	1.408040E-16	3.900697E-18
6.190000E+03	1.415993E-16	3.828228E-18
6.200000E+03	1.424624E-16	3.758099E-18
6.210000E+03	1.433584E-16	3.689767E-18
6.220000E+03	1.443243E-16	3.624628E-18
6.230000E+03	1.453494E-16	3.562868E-18
6.240000E+03	1.464348E-16	3.505035E-18
6.250000E+03	1.475818E-16	3.451730E-18
6.260000E+03	1.487789E-16	3.403314E-18
6.270000E+03	1.500517E-16	3.361042E-18
6.280000E+03	1.513754E-16	3.325052E-18
6.290000E+03	1.527750E-16	3.296630E-18
6.300000E+03	1.542241E-16	3.275943E-18
6.310000E+03	1.557340E-16	3.263868E-18
6.320000E+03	1.573023E-16	3.260420E-18
6.330000E+03	1.589401E-16	3.265668E-18
6.340000E+03	1.606181E-16	3.278799E-18
6.350000E+03	1.623470E-16	3.299788E-18
6.360000E+03	1.641241E-16	3.328303E-18
6.370000E+03	1.659465E-16	3.363987E-18
6.380000E+03	1.677970E-16	3.406188E-18
6.390000E+03	1.697008E-16	3.455112E-18
6.400000E+03	1.716405E-16	3.510120E-18
6.410000E+03	1.736128E-16	3.570875E-18
6.420000E+03	1.755992E-16	3.636758E-18
6.430000E+03	1.776256E-16	3.708103E-18
6.440000E+03	1.796584E-16	3.784051E-18
6.450000E+03	1.817237E-16	3.865040E-18
6.460000E+03	1.837869E-16	3.950269E-18
6.470000E+03	1.858746E-16	4.040299E-18
6.480000E+03	1.879512E-16	4.134395E-18
6.490000E+03	1.900276E-16	4.232877E-18
6.500000E+03	1.921156E-16	4.336150E-18
6.510000E+03	1.941781E-16	4.443565E-18
6.520000E+03	1.962262E-16	4.555589E-18
6.530000E+03	1.982552E-16	4.672382E-18
6.540000E+03	2.002604E-16	4.794128E-18
6.550000E+03	2.022377E-16	4.921057E-18
6.560000E+03	2.041829E-16	5.053414E-18
6.570000E+03	2.060926E-16	5.191480E-18
6.580000E+03	2.079634E-16	5.335548E-18
6.590000E+03	2.097927E-16	5.485925E-18
6.600000E+03	2.115782E-16	5.642929E-18
6.610000E+03	2.133184E-16	5.806796E-18
6.620000E+03	2.149941E-16	5.976775E-18
6.630000E+03	2.166407E-16	6.153428E-18
6.640000E+03	2.182394E-16	6.335791E-18
6.650000E+03	2.197705E-16	6.522824E-18
6.660000E+03	2.212711E-16	6.715141E-18
6.670000E+03	2.227219E-16	6.911699E-18
6.680000E+03	2.241032E-16	7.111390E-18
6.690000E+03	2.254529E-16	7.314920E-18
6.700000E+03	2.267322E-16	7.520559E-18
6.710000E+03	2.279600E-16	7.728435E-18
6.720000E+03	2.291556E-16	7.938748E-18
6.730000E+03	2.302801E-16	8.149695E-18
6.740000E+03	2.313526E-16	8.361484E-18
6.750000E+03	2.323934E-16	8.574410E-18
6.760000E+03	2.333625E-16	8.786594E-18
6.770000E+03	2.342800E-16	8.998338E-18
6.780000E+03	2.351462E-16	9.209248E-18
6.790000E+03	2.359815E-16	9.419744E-18
6.800000E+03	2.367457E-16	9.627855E-18
6.810000E+03	2.374594E-16	9.834019E-18
6.820000E+03	2.381229E-16	1.003789E-17
6.830000E+03	2.387367E-16	1.023914E-17
6.840000E+03	2.393014E-16	1.043746E-17
6.850000E+03	2.398173E-16	1.063255E-17
6.860000E+03	2.402852E-16	1.082413E-17
6.870000E+03	2.407054E-16	1.101192E-17
6.880000E+03	2.410580E-16	1.119470E-17
6.890000E+03	2.413850E-16	1.137414E-17
6.900000E+03	2.416664E-16	1.154906E-17
6.910000E+03	2.419031E-16	1.171924E-17
6.920000E+03	2.420954E-16	1.188447E-17
6.930000E+03	2.422236E-16	1.204353E-17
6.940000E+03	2.423299E-16	1.219829E-17
6.950000E+03	2.423735E-16	1.234649E-17
6.960000E+03	2.423971E-16	1.249011E-17
6.970000E+03	2.423804E-16	1.262792E-17
6.980000E+03	2.423034E-16	1.275871E-17
6.990000E+03	2.422089E-16	1.288453E-17
7.000000E+03	2.420556E-16	1.300305E-17
7.010000E+03	2.418656E-16	1.311527E-17
7.020000E+03	2.416607E-16	1.322226E-17
7.030000E+03	2.413996E-16	1.332164E-17
7.040000E+03	2.411044E-16	1.341447E-17
7.050000E+03	2.407969E-16	1.350186E-17
7.060000E+03	2.404359E-16	1.358142E-17
7.070000E+03	2.400436E-16	1.365427E-17
7.080000E+03	2.396204E-16	1.372036E-17
7.090000E+03	2.391675E-16	1.377967E-17
7.100000E+03	2.387067E-16	1.383338E-17
7.110000E+03	2.381968E-16	1.387906E-17
7.120000E+03	2.376599E-16	1.391790E-17
7.130000E+03	2.370966E-16	1.394991E-17
7.140000E+03	2.364872E-16	1.397387E-17
7.150000E+03	2.358739E-16	1.399223E-17
7.160000E+03	2.352369E-16	1.400379E-17
7.170000E+03	2.345768E-16	1.400856E-17
7.180000E+03	2.338948E-16	1.400659E-17
7.190000E+03	2.331709E-16	1.399667E-17
7.200000E+03	2.324471E-16	1.398132E-17
7.210000E+03	2.317035E-16	1.395932E-17
7.220000E+03	2.309206E-16	1.392952E-17
7.230000E+03	2.301400E-16	1.389442E-17
7.240000E+03	2.293218E-16	1.385164E-17
7.250000E+03	2.285072E-16	1.380367E-17
7.260000E+03	2.276564E-16	1.374815E-17
7.270000E+03	2.267906E-16	1.368636E-17
7.280000E+03	2.259305E-16	1.361960E-17
7.290000E+03	2.250364E-16	1.354552E-17
7.300000E+03	2.241294E-16	1.346541E-17
7.310000E+03	2.232101E-16	1.337937E-17
7.320000E+03	2.222790E-16	1.328747E-17
7.330000E+03	2.213369E-16	1.318981E-17
7.340000E+03	2.203842E-16	1.308648E-17
7.350000E+03	2.194217E-16	1.297757E-17
7.360000E+03	2.184499E-16	1.286319E-17
7.370000E+03	2.174695E-16	1.274344E-17
7.380000E+03	2.164808E-16	1.261841E-17
7.390000E+03	2.154654E-16	1.248711E-17
7.400000E+03	2.144621E-16	1.235187E-17
7.410000E+03	2.134523E-16	1.221168E-17
7.420000E+03	2.124174E-16	1.206557E-17
7.430000E+03	2.113958E-16	1.191583E-17
7.440000E+03	2.103503E-16	1.176043E-17
7.450000E+03	2.093002E-16	1.160057E-17
7.460000E+03	2.082646E-16	1.143740E-17
7.470000E+03	2.072064E-16	1.126897E-17
7.480000E+03	2.061449E-16	1.109646E-17
7.490000E+03	2.050804E-16	1.092000E-17
7.500000E+03	2.040133E-16	1.073972E-17
7.510000E+03	2.029438E-16	1.055576E-17
7.520000E+03	2.018723E-16	1.036826E-17
7.530000E+03	2.007991E-16	1.017738E-17
7.540000E+03	1.997245E-16	9.983260E-18
7.550000E+03	1.986307E-16	9.785176E-18
7.560000E+03	1.975541E-16	9.585090E-18
7.570000E+03	1.964591E-16	9.381417E-18
7.580000E+03	1.953814E-16	9.176053E-18
7.590000E+03	1.942859E-16	8.967510E-18
7.600000E+03	1.932080E-16	8.757642E-18
7.610000E+03	1.921128E-16	8.545052E-18
7.620000E+03	1.910180E-16	8.330784E-18
7.630000E+03	1.899237E-16	8.115080E-18
7.640000E+03	1.888302E-16	7.898213E-18
7.650000E+03	1.877375E-16	7.680472E-18
7.660000E+03	1.866458E-16	7.462164E-18
7.670000E+03	1.855551E-16	7.243634E-18
7.680000E+03	1.844655E-16	7.025254E-18
7.690000E+03	1.833771E-16	6.807438E-18
7.700000E+03	1.822733E-16	6.590041E-18
7.710000E+03	1.811876E-16	6.374794E-18
7.720000E+03	1.800867E-16	6.161075E-18
7.730000E+03	1.790038E-16	5.950668E-18
7.740000E+03	1.779059E-16	5.743162E-18
7.750000E+03	1.768098E-16	5.539922E-18
7.760000E+03	1.757151E-16	5.341828E-18
