#wls	flux	fluxerr
1.600000E+03	1.824205E-17	9.046169E-18
1.640000E+03	1.878785E-17	9.249711E-18
1.680000E+03	1.935140E-17	9.456889E-18
1.720000E+03	1.993302E-17	9.667549E-18
1.760000E+03	2.053301E-17	9.881516E-18
1.800000E+03	2.114803E-17	1.009687E-17
1.840000E+03	2.178549E-17	1.031682E-17
1.880000E+03	2.244210E-17	1.053944E-17
1.920000E+03	2.311808E-17	1.076445E-17
1.960000E+03	2.381763E-17	1.099342E-17
2.000000E+03	2.453299E-17	1.122238E-17
2.040000E+03	2.527244E-17	1.145471E-17
2.080000E+03	2.603209E-17	1.168823E-17
2.120000E+03	2.681645E-17	1.192451E-17
2.160000E+03	2.762138E-17	1.216124E-17
2.200000E+03	2.845157E-17	1.240002E-17
2.240000E+03	2.930263E-17	1.263843E-17
2.280000E+03	3.017456E-17	1.287600E-17
2.320000E+03	3.107732E-17	1.311648E-17
2.360000E+03	3.200139E-17	1.335524E-17
2.400000E+03	3.295196E-17	1.359392E-17
2.440000E+03	3.392936E-17	1.383207E-17
2.480000E+03	3.493395E-17	1.406922E-17
2.520000E+03	3.596052E-17	1.430267E-17
2.560000E+03	3.702052E-17	1.453637E-17
2.600000E+03	3.810894E-17	1.476763E-17
2.640000E+03	3.922631E-17	1.499596E-17
2.680000E+03	4.037931E-17	1.522319E-17
2.720000E+03	4.155660E-17	1.544429E-17
2.760000E+03	4.277130E-17	1.566340E-17
2.800000E+03	4.401827E-17	1.587780E-17
2.840000E+03	4.530525E-17	1.608943E-17
2.880000E+03	4.663392E-17	1.629794E-17
2.920000E+03	4.799939E-17	1.650064E-17
2.960000E+03	4.940345E-17	1.669723E-17
3.000000E+03	5.085528E-17	1.688979E-17
3.010000E+03	5.123159E-17	1.693910E-17
3.020000E+03	5.160265E-17	1.698536E-17
3.030000E+03	5.198278E-17	1.703325E-17
3.040000E+03	5.235766E-17	1.707807E-17
3.050000E+03	5.274174E-17	1.712452E-17
3.060000E+03	5.312787E-17	1.717025E-17
3.070000E+03	5.351606E-17	1.721525E-17
3.080000E+03	5.391373E-17	1.726188E-17
3.090000E+03	5.430622E-17	1.730542E-17
3.100000E+03	5.470833E-17	1.735058E-17
3.110000E+03	5.511274E-17	1.739500E-17
3.120000E+03	5.551949E-17	1.743868E-17
3.130000E+03	5.593615E-17	1.748397E-17
3.140000E+03	5.634775E-17	1.752617E-17
3.150000E+03	5.676943E-17	1.756997E-17
3.160000E+03	5.718609E-17	1.761068E-17
3.170000E+03	5.761298E-17	1.765299E-17
3.180000E+03	5.805027E-17	1.769689E-17
3.190000E+03	5.848266E-17	1.773769E-17
3.200000E+03	5.891788E-17	1.777775E-17
3.210000E+03	5.936376E-17	1.781939E-17
3.220000E+03	5.981265E-17	1.786027E-17
3.230000E+03	6.026460E-17	1.790039E-17
3.240000E+03	6.071968E-17	1.793976E-17
3.250000E+03	6.118590E-17	1.798070E-17
3.260000E+03	6.164748E-17	1.801854E-17
3.270000E+03	6.212041E-17	1.805795E-17
3.280000E+03	6.259681E-17	1.809659E-17
3.290000E+03	6.307677E-17	1.813447E-17
3.300000E+03	6.356035E-17	1.817158E-17
3.310000E+03	6.405579E-17	1.821024E-17
3.320000E+03	6.454689E-17	1.824581E-17
3.330000E+03	6.505010E-17	1.828292E-17
3.340000E+03	6.555733E-17	1.831926E-17
3.350000E+03	6.606866E-17	1.835481E-17
3.360000E+03	6.659254E-17	1.839190E-17
3.370000E+03	6.711239E-17	1.842589E-17
3.380000E+03	6.764504E-17	1.846140E-17
3.390000E+03	6.818224E-17	1.849612E-17
3.400000E+03	6.872408E-17	1.853004E-17
3.410000E+03	6.927066E-17	1.856318E-17
3.420000E+03	6.982208E-17	1.859551E-17
3.430000E+03	7.038707E-17	1.862933E-17
3.440000E+03	7.094850E-17	1.866005E-17
3.450000E+03	7.152380E-17	1.869225E-17
3.460000E+03	7.210443E-17	1.872363E-17
3.470000E+03	7.269051E-17	1.875419E-17
3.480000E+03	7.329098E-17	1.878618E-17
3.490000E+03	7.388832E-17	1.881508E-17
3.500000E+03	7.450037E-17	1.884540E-17
3.510000E+03	7.511840E-17	1.887486E-17
3.520000E+03	7.574254E-17	1.890348E-17
3.530000E+03	7.637291E-17	1.893123E-17
3.540000E+03	7.700962E-17	1.895811E-17
3.550000E+03	7.766195E-17	1.898635E-17
3.560000E+03	7.831176E-17	1.901146E-17
3.570000E+03	7.897755E-17	1.903791E-17
3.580000E+03	7.965028E-17	1.906345E-17
3.590000E+03	8.033009E-17	1.908807E-17
3.600000E+03	8.101710E-17	1.911175E-17
3.610000E+03	8.172089E-17	1.913670E-17
3.620000E+03	8.242277E-17	1.915848E-17
3.630000E+03	8.314179E-17	1.918150E-17
3.640000E+03	8.386867E-17	1.920352E-17
3.650000E+03	8.460354E-17	1.922455E-17
3.660000E+03	8.534654E-17	1.924455E-17
3.670000E+03	8.609782E-17	1.926352E-17
3.680000E+03	8.686731E-17	1.928361E-17
3.690000E+03	8.763562E-17	1.930045E-17
3.700000E+03	8.842254E-17	1.931838E-17
3.710000E+03	8.920847E-17	1.933303E-17
3.720000E+03	9.001342E-17	1.934871E-17
3.730000E+03	9.082762E-17	1.936324E-17
3.740000E+03	9.166135E-17	1.937872E-17
3.750000E+03	9.249458E-17	1.939087E-17
3.760000E+03	9.333753E-17	1.940179E-17
3.770000E+03	9.420063E-17	1.941358E-17
3.780000E+03	9.506356E-17	1.942199E-17
3.790000E+03	9.594694E-17	1.943118E-17
3.800000E+03	9.684083E-17	1.943905E-17
3.810000E+03	9.774534E-17	1.944555E-17
3.820000E+03	9.866058E-17	1.945066E-17
3.830000E+03	9.958667E-17	1.945433E-17
3.840000E+03	1.005238E-16	1.945655E-17
3.850000E+03	1.014721E-16	1.945727E-17
3.860000E+03	1.024427E-16	1.945853E-17
3.870000E+03	1.034139E-16	1.945615E-17
3.880000E+03	1.044078E-16	1.945423E-17
3.890000E+03	1.054025E-16	1.944861E-17
3.900000E+03	1.064202E-16	1.944334E-17
3.910000E+03	1.074501E-16	1.943635E-17
3.920000E+03	1.084925E-16	1.942759E-17
3.930000E+03	1.095471E-16	1.941700E-17
3.940000E+03	1.106145E-16	1.940455E-17
3.950000E+03	1.116945E-16	1.939021E-17
3.960000E+03	1.127874E-16	1.937391E-17
3.970000E+03	1.138933E-16	1.935561E-17
3.980000E+03	1.150122E-16	1.933525E-17
3.990000E+03	1.161561E-16	1.931476E-17
4.000000E+03	1.173016E-16	1.929014E-17
4.010000E+03	1.184605E-16	1.926332E-17
4.020000E+03	1.196449E-16	1.923617E-17
4.030000E+03	1.208309E-16	1.920477E-17
4.040000E+03	1.220305E-16	1.917098E-17
4.050000E+03	1.232561E-16	1.913667E-17
4.060000E+03	1.244833E-16	1.909796E-17
4.070000E+03	1.257368E-16	1.905859E-17
4.080000E+03	1.269918E-16	1.901470E-17
4.090000E+03	1.282732E-16	1.897001E-17
4.100000E+03	1.295561E-16	1.892071E-17
4.110000E+03	1.308656E-16	1.887044E-17
4.120000E+03	1.321763E-16	1.881545E-17
4.130000E+03	1.335139E-16	1.875935E-17
4.140000E+03	1.348525E-16	1.869843E-17
4.150000E+03	1.362180E-16	1.863623E-17
4.160000E+03	1.375841E-16	1.856908E-17
4.170000E+03	1.389773E-16	1.850051E-17
4.180000E+03	1.403708E-16	1.842689E-17
4.190000E+03	1.417777E-16	1.834992E-17
4.200000E+03	1.432115E-16	1.827128E-17
4.210000E+03	1.446450E-16	1.818741E-17
4.220000E+03	1.460915E-16	1.810002E-17
4.230000E+03	1.475507E-16	1.800900E-17
4.240000E+03	1.490364E-16	1.791598E-17
4.250000E+03	1.505206E-16	1.781753E-17
4.260000E+03	1.520168E-16	1.771527E-17
4.270000E+03	1.535248E-16	1.760915E-17
4.280000E+03	1.550442E-16	1.749909E-17
4.290000E+03	1.565603E-16	1.738344E-17
4.300000E+03	1.581014E-16	1.726537E-17
4.310000E+03	1.596528E-16	1.714319E-17
4.320000E+03	1.611995E-16	1.701532E-17
4.330000E+03	1.627701E-16	1.688481E-17
4.340000E+03	1.643347E-16	1.674855E-17
4.350000E+03	1.659077E-16	1.660805E-17
4.360000E+03	1.675034E-16	1.646477E-17
4.370000E+03	1.690910E-16	1.631566E-17
4.380000E+03	1.706853E-16	1.616224E-17
4.390000E+03	1.722699E-16	1.600305E-17
4.400000E+03	1.738750E-16	1.584096E-17
4.410000E+03	1.754845E-16	1.567452E-17
4.420000E+03	1.770820E-16	1.550237E-17
4.430000E+03	1.786821E-16	1.532592E-17
4.440000E+03	1.803001E-16	1.514657E-17
4.450000E+03	1.819033E-16	1.496164E-17
4.460000E+03	1.835066E-16	1.477253E-17
4.470000E+03	1.850930E-16	1.457805E-17
4.480000E+03	1.866937E-16	1.438083E-17
4.490000E+03	1.882754E-16	1.417844E-17
4.500000E+03	1.898697E-16	1.397347E-17
4.510000E+03	1.914427E-16	1.376359E-17
4.520000E+03	1.930097E-16	1.355019E-17
4.530000E+03	1.945695E-16	1.333340E-17
4.540000E+03	1.961044E-16	1.311232E-17
4.550000E+03	1.976466E-16	1.288938E-17
4.560000E+03	1.991613E-16	1.266261E-17
4.570000E+03	2.006641E-16	1.243338E-17
4.580000E+03	2.021537E-16	1.220196E-17
4.590000E+03	2.036290E-16	1.196867E-17
4.600000E+03	2.050715E-16	1.173285E-17
4.610000E+03	2.065142E-16	1.149689E-17
4.620000E+03	2.079214E-16	1.125923E-17
4.630000E+03	2.093091E-16	1.102132E-17
4.640000E+03	2.106759E-16	1.078364E-17
4.650000E+03	2.120028E-16	1.054585E-17
4.660000E+03	2.133241E-16	1.031031E-17
4.670000E+03	2.146029E-16	1.007590E-17
4.680000E+03	2.158556E-16	9.844186E-18
4.690000E+03	2.170629E-16	9.615095E-18
4.700000E+03	2.182597E-16	9.391026E-18
4.710000E+03	2.194086E-16	9.171241E-18
4.720000E+03	2.205265E-16	8.957424E-18
4.730000E+03	2.216122E-16	8.750513E-18
4.740000E+03	2.226645E-16	8.551492E-18
4.750000E+03	2.236642E-16	8.360713E-18
4.760000E+03	2.246283E-16	8.179944E-18
4.770000E+03	2.255560E-16	8.010270E-18
4.780000E+03	2.264463E-16	7.852771E-18
4.790000E+03	2.272800E-16	7.707902E-18
4.800000E+03	2.280748E-16	7.577348E-18
4.810000E+03	2.288299E-16	7.462079E-18
4.820000E+03	2.295448E-16	7.362992E-18
4.830000E+03	2.302005E-16	7.280267E-18
4.840000E+03	2.308335E-16	7.215570E-18
4.850000E+03	2.313878E-16	7.166819E-18
4.860000E+03	2.319189E-16	7.135065E-18
4.870000E+03	2.324079E-16	7.118877E-18
4.880000E+03	2.328363E-16	7.116709E-18
4.890000E+03	2.332226E-16	7.128045E-18
4.900000E+03	2.335669E-16	7.151720E-18
4.910000E+03	2.338504E-16	7.185933E-18
4.920000E+03	2.340919E-16	7.230006E-18
4.930000E+03	2.342917E-16	7.282685E-18
4.940000E+03	2.344499E-16	7.342731E-18
4.950000E+03	2.345483E-16	7.408361E-18
4.960000E+03	2.346056E-16	7.478992E-18
4.970000E+03	2.346223E-16	7.553532E-18
4.980000E+03	2.345985E-16	7.630951E-18
4.990000E+03	2.345164E-16	7.709683E-18
5.000000E+03	2.344131E-16	7.790052E-18
5.010000E+03	2.342341E-16	7.869420E-18
5.020000E+03	2.340350E-16	7.948879E-18
5.030000E+03	2.337796E-16	8.026530E-18
5.040000E+03	2.334868E-16	8.102394E-18
5.050000E+03	2.331571E-16	8.175943E-18
5.060000E+03	2.327912E-16	8.246712E-18
5.070000E+03	2.323716E-16	8.313659E-18
5.080000E+03	2.319171E-16	8.377064E-18
5.090000E+03	2.314283E-16	8.436637E-18
5.100000E+03	2.308882E-16	8.491479E-18
5.110000E+03	2.303330E-16	8.542694E-18
5.120000E+03	2.297277E-16	8.588813E-18
5.130000E+03	2.290735E-16	8.629718E-18
5.140000E+03	2.284063E-16	8.666657E-18
5.150000E+03	2.276916E-16	8.698256E-18
5.160000E+03	2.269478E-16	8.725174E-18
5.170000E+03	2.261756E-16	8.747427E-18
5.180000E+03	2.253586E-16	8.764405E-18
5.190000E+03	2.245149E-16	8.776848E-18
5.200000E+03	2.236452E-16	8.784860E-18
5.210000E+03	2.227504E-16	8.788571E-18
5.220000E+03	2.218142E-16	8.787455E-18
5.230000E+03	2.208545E-16	8.782348E-18
5.240000E+03	2.198721E-16	8.773445E-18
5.250000E+03	2.188678E-16	8.760938E-18
5.260000E+03	2.178258E-16	8.744394E-18
5.270000E+03	2.167635E-16	8.724704E-18
5.280000E+03	2.156819E-16	8.702119E-18
5.290000E+03	2.145814E-16	8.676893E-18
5.300000E+03	2.134469E-16	8.648642E-18
5.310000E+03	2.122956E-16	8.618304E-18
5.320000E+03	2.111280E-16	8.586163E-18
5.330000E+03	2.099449E-16	8.552506E-18
5.340000E+03	2.087315E-16	8.516990E-18
5.350000E+03	2.075043E-16	8.480557E-18
5.360000E+03	2.062642E-16	8.443509E-18
5.370000E+03	2.050118E-16	8.406140E-18
5.380000E+03	2.037326E-16	8.368122E-18
5.390000E+03	2.024428E-16	8.330379E-18
5.400000E+03	2.011433E-16	8.293202E-18
5.410000E+03	1.998346E-16	8.256867E-18
5.420000E+03	1.985027E-16	8.221027E-18
5.430000E+03	1.971632E-16	8.186563E-18
5.440000E+03	1.958171E-16	8.153726E-18
5.450000E+03	1.944649E-16	8.122717E-18
5.460000E+03	1.931076E-16	8.093502E-18
5.470000E+03	1.917321E-16	8.065255E-18
5.480000E+03	1.903547E-16	8.038385E-18
5.490000E+03	1.889768E-16	8.012681E-18
5.500000E+03	1.875860E-16	7.987342E-18
5.510000E+03	1.862119E-16	7.963366E-18
5.520000E+03	1.848283E-16	7.939369E-18
5.530000E+03	1.834505E-16	7.915758E-18
5.540000E+03	1.820800E-16	7.892355E-18
5.550000E+03	1.807048E-16	7.868399E-18
5.560000E+03	1.793530E-16	7.844901E-18
5.570000E+03	1.779995E-16	7.820547E-18
5.580000E+03	1.766588E-16	7.795770E-18
5.590000E+03	1.753192E-16	7.769865E-18
5.600000E+03	1.740080E-16	7.743867E-18
5.610000E+03	1.727005E-16	7.716509E-18
5.620000E+03	1.714108E-16	7.688268E-18
5.630000E+03	1.701400E-16	7.659052E-18
5.640000E+03	1.688892E-16	7.628778E-18
5.650000E+03	1.676469E-16	7.596810E-18
5.660000E+03	1.664269E-16	7.563652E-18
5.670000E+03	1.652299E-16	7.529247E-18
5.680000E+03	1.640571E-16	7.493550E-18
5.690000E+03	1.629092E-16	7.456516E-18
5.700000E+03	1.617871E-16	7.418114E-18
5.710000E+03	1.606797E-16	7.377768E-18
5.720000E+03	1.595999E-16	7.336013E-18
5.730000E+03	1.585485E-16	7.292828E-18
5.740000E+03	1.575262E-16	7.248207E-18
5.750000E+03	1.565221E-16	7.201604E-18
5.760000E+03	1.555602E-16	7.154094E-18
5.770000E+03	1.546181E-16	7.104612E-18
5.780000E+03	1.537079E-16	7.053695E-18
5.790000E+03	1.528304E-16	7.001352E-18
5.800000E+03	1.519861E-16	6.947590E-18
5.810000E+03	1.511757E-16	6.892426E-18
5.820000E+03	1.503886E-16	6.835363E-18
5.830000E+03	1.496367E-16	6.776934E-18
5.840000E+03	1.489204E-16	6.717153E-18
5.850000E+03	1.482405E-16	6.656044E-18
5.860000E+03	1.475973E-16	6.593613E-18
5.870000E+03	1.469915E-16	6.529892E-18
5.880000E+03	1.464127E-16	6.464414E-18
5.890000E+03	1.458832E-16	6.398164E-18
5.900000E+03	1.453820E-16	6.330209E-18
5.910000E+03	1.449204E-16	6.261052E-18
5.920000E+03	1.444989E-16	6.190711E-18
5.930000E+03	1.441181E-16	6.119206E-18
5.940000E+03	1.437679E-16	6.046116E-18
5.950000E+03	1.434703E-16	5.972364E-18
5.960000E+03	1.432045E-16	5.897079E-18
5.970000E+03	1.429816E-16	5.820736E-18
5.980000E+03	1.428025E-16	5.743362E-18
5.990000E+03	1.426676E-16	5.664985E-18
6.000000E+03	1.425776E-16	5.585631E-18
6.010000E+03	1.425331E-16	5.505336E-18
6.020000E+03	1.425349E-16	5.424132E-18
6.030000E+03	1.425730E-16	5.341668E-18
6.040000E+03	1.426588E-16	5.258389E-18
6.050000E+03	1.428036E-16	5.174738E-18
6.060000E+03	1.429869E-16	5.089991E-18
6.070000E+03	1.432203E-16	5.004609E-18
6.080000E+03	1.434938E-16	4.918296E-18
6.090000E+03	1.438297E-16	4.831882E-18
6.100000E+03	1.442180E-16	4.745087E-18
6.110000E+03	1.446493E-16	4.657689E-18
6.120000E+03	1.451457E-16	4.570511E-18
6.130000E+03	1.456868E-16	4.483025E-18
6.140000E+03	1.462845E-16	4.395756E-18
6.150000E+03	1.469507E-16	4.309226E-18
6.160000E+03	1.476646E-16	4.223022E-18
6.170000E+03	1.484386E-16	4.137747E-18
6.180000E+03	1.492625E-16	4.053405E-18
6.190000E+03	1.501598E-16	3.970963E-18
6.200000E+03	1.511208E-16	3.890516E-18
6.210000E+03	1.521355E-16	3.812244E-18
6.220000E+03	1.532278E-16	3.737231E-18
6.230000E+03	1.543764E-16	3.665502E-18
6.240000E+03	1.556057E-16	3.598251E-18
6.250000E+03	1.568939E-16	3.535648E-18
6.260000E+03	1.582539E-16	3.478741E-18
6.270000E+03	1.596864E-16	3.428348E-18
6.280000E+03	1.611918E-16	3.385336E-18
6.290000E+03	1.627700E-16	3.350592E-18
6.300000E+03	1.644200E-16	3.325012E-18
6.310000E+03	1.661278E-16	3.309175E-18
6.320000E+03	1.679157E-16	3.303762E-18
6.330000E+03	1.697686E-16	3.308243E-18
6.340000E+03	1.716709E-16	3.322009E-18
6.350000E+03	1.736447E-16	3.345128E-18
6.360000E+03	1.756613E-16	3.376625E-18
6.370000E+03	1.777301E-16	3.416245E-18
6.380000E+03	1.798610E-16	3.463721E-18
6.390000E+03	1.820237E-16	3.518018E-18
6.400000E+03	1.842275E-16	3.578888E-18
6.410000E+03	1.864686E-16	3.645858E-18
6.420000E+03	1.887426E-16	3.718493E-18
6.430000E+03	1.910453E-16	3.796410E-18
6.440000E+03	1.933720E-16	3.879283E-18
6.450000E+03	1.957181E-16	3.966853E-18
6.460000E+03	1.980638E-16	4.058618E-18
6.470000E+03	2.004336E-16	4.155052E-18
6.480000E+03	2.028076E-16	4.255801E-18
6.490000E+03	2.051649E-16	4.360545E-18
6.500000E+03	2.075307E-16	4.470006E-18
6.510000E+03	2.098841E-16	4.584007E-18
6.520000E+03	2.122034E-16	4.702387E-18
6.530000E+03	2.144983E-16	4.825735E-18
6.540000E+03	2.167801E-16	4.954736E-18
6.550000E+03	2.190111E-16	5.089007E-18
6.560000E+03	2.212030E-16	5.229312E-18
6.570000E+03	2.233683E-16	5.376485E-18
6.580000E+03	2.254696E-16	5.530177E-18
6.590000E+03	2.275207E-16	5.691258E-18
6.600000E+03	2.295189E-16	5.860205E-18
6.610000E+03	2.314622E-16	6.037443E-18
6.620000E+03	2.333496E-16	6.222843E-18
6.630000E+03	2.351800E-16	6.415902E-18
6.640000E+03	2.369527E-16	6.616081E-18
6.650000E+03	2.386670E-16	6.822810E-18
6.660000E+03	2.403221E-16	7.035499E-18
6.670000E+03	2.419178E-16	7.253558E-18
6.680000E+03	2.434535E-16	7.476384E-18
6.690000E+03	2.449101E-16	7.702789E-18
6.700000E+03	2.463248E-16	7.933340E-18
6.710000E+03	2.476789E-16	8.166884E-18
6.720000E+03	2.489720E-16	8.402840E-18
6.730000E+03	2.501855E-16	8.639999E-18
6.740000E+03	2.513573E-16	8.879108E-18
6.750000E+03	2.524494E-16	9.118305E-18
6.760000E+03	2.535004E-16	9.358450E-18
6.770000E+03	2.544721E-16	9.597639E-18
6.780000E+03	2.554036E-16	9.836842E-18
6.790000E+03	2.562566E-16	1.007412E-17
6.800000E+03	2.570704E-16	1.031055E-17
6.810000E+03	2.578065E-16	1.054415E-17
6.820000E+03	2.584850E-16	1.077529E-17
6.830000E+03	2.591267E-16	1.100444E-17
6.840000E+03	2.596922E-16	1.122953E-17
6.850000E+03	2.602024E-16	1.145107E-17
6.860000E+03	2.606580E-16	1.166871E-17
6.870000E+03	2.610597E-16	1.188213E-17
6.880000E+03	2.614288E-16	1.209198E-17
6.890000E+03	2.617255E-16	1.229610E-17
6.900000E+03	2.619712E-16	1.249516E-17
6.910000E+03	2.621666E-16	1.268891E-17
6.920000E+03	2.623128E-16	1.287709E-17
6.930000E+03	2.624105E-16	1.305950E-17
6.940000E+03	2.624611E-16	1.323592E-17
6.950000E+03	2.624653E-16	1.340616E-17
6.960000E+03	2.624038E-16	1.356899E-17
6.970000E+03	2.623184E-16	1.372632E-17
6.980000E+03	2.621898E-16	1.387698E-17
6.990000E+03	2.620188E-16	1.402080E-17
7.000000E+03	2.618067E-16	1.415768E-17
7.010000E+03	2.615340E-16	1.428637E-17
7.020000E+03	2.612426E-16	1.440898E-17
7.030000E+03	2.608928E-16	1.452319E-17
7.040000E+03	2.605262E-16	1.463117E-17
7.050000E+03	2.601234E-16	1.473170E-17
7.060000E+03	2.596656E-16	1.482359E-17
7.070000E+03	2.591938E-16	1.490907E-17
7.080000E+03	2.586690E-16	1.498579E-17
7.090000E+03	2.581124E-16	1.505487E-17
7.100000E+03	2.575448E-16	1.511745E-17
7.110000E+03	2.569272E-16	1.517118E-17
7.120000E+03	2.562807E-16	1.521721E-17
7.130000E+03	2.556063E-16	1.525555E-17
7.140000E+03	2.549249E-16	1.528739E-17
7.150000E+03	2.541975E-16	1.531037E-17
7.160000E+03	2.534450E-16	1.532570E-17
7.170000E+03	2.526684E-16	1.533340E-17
7.180000E+03	2.518686E-16	1.533350E-17
7.190000E+03	2.510466E-16	1.532605E-17
7.200000E+03	2.501835E-16	1.530990E-17
7.210000E+03	2.493198E-16	1.528750E-17
7.220000E+03	2.484364E-16	1.525770E-17
7.230000E+03	2.475345E-16	1.522057E-17
7.240000E+03	2.465952E-16	1.517498E-17
7.250000E+03	2.456584E-16	1.512340E-17
7.260000E+03	2.446861E-16	1.506351E-17
7.270000E+03	2.437178E-16	1.499777E-17
7.280000E+03	2.427159E-16	1.492391E-17
7.290000E+03	2.417194E-16	1.484437E-17
7.300000E+03	2.406909E-16	1.475689E-17
7.310000E+03	2.396505E-16	1.466275E-17
7.320000E+03	2.386175E-16	1.456320E-17
7.330000E+03	2.375548E-16	1.445603E-17
7.340000E+03	2.364824E-16	1.434250E-17
7.350000E+03	2.354008E-16	1.422273E-17
7.360000E+03	2.343107E-16	1.409682E-17
7.370000E+03	2.331940E-16	1.396376E-17
7.380000E+03	2.320889E-16	1.382593E-17
7.390000E+03	2.309771E-16	1.368230E-17
7.400000E+03	2.298593E-16	1.353300E-17
7.410000E+03	2.287178E-16	1.337707E-17
7.420000E+03	2.275900E-16	1.321681E-17
7.430000E+03	2.264395E-16	1.305018E-17
7.440000E+03	2.252855E-16	1.287840E-17
7.450000E+03	2.241464E-16	1.270263E-17
7.460000E+03	2.229866E-16	1.252093E-17
7.470000E+03	2.218246E-16	1.233447E-17
7.480000E+03	2.206608E-16	1.214339E-17
7.490000E+03	2.194957E-16	1.194783E-17
7.500000E+03	2.183297E-16	1.174793E-17
7.510000E+03	2.171632E-16	1.154384E-17
7.520000E+03	2.159790E-16	1.133479E-17
7.530000E+03	2.148124E-16	1.112277E-17
7.540000E+03	2.136463E-16	1.090703E-17
7.550000E+03	2.124636E-16	1.068685E-17
7.560000E+03	2.112822E-16	1.046330E-17
7.570000E+03	2.101191E-16	1.023738E-17
7.580000E+03	2.089404E-16	1.000762E-17
7.590000E+03	2.077637E-16	9.775046E-18
7.600000E+03	2.065889E-16	9.539862E-18
7.610000E+03	2.054162E-16	9.302289E-18
7.620000E+03	2.042457E-16	9.062557E-18
7.630000E+03	2.030777E-16	8.820922E-18
7.640000E+03	2.018957E-16	8.576941E-18
7.650000E+03	2.007328E-16	8.332326E-18
7.660000E+03	1.995563E-16	8.086018E-18
7.670000E+03	1.983825E-16	7.839060E-18
7.680000E+03	1.972278E-16	7.592456E-18
7.690000E+03	1.960598E-16	7.345369E-18
7.700000E+03	1.948948E-16	7.098912E-18
7.710000E+03	1.937326E-16	6.853612E-18
7.720000E+03	1.925733E-16	6.610064E-18
7.730000E+03	1.914012E-16	6.368419E-18
7.740000E+03	1.902477E-16	6.130500E-18
7.750000E+03	1.890969E-16	5.896627E-18
7.760000E+03	1.879334E-16	5.667317E-18
