#wls	flux	fluxerr
1.600000E+03	1.629816E-17	7.428912E-18
1.640000E+03	1.678031E-17	7.594476E-18
1.680000E+03	1.727603E-17	7.762096E-18
1.720000E+03	1.779166E-17	7.934374E-18
1.760000E+03	1.832155E-17	8.108514E-18
1.800000E+03	1.886911E-17	8.285767E-18
1.840000E+03	1.943142E-17	8.464583E-18
1.880000E+03	2.001548E-17	8.647720E-18
1.920000E+03	2.061494E-17	8.832117E-18
1.960000E+03	2.123354E-17	9.019080E-18
2.000000E+03	2.187171E-17	9.208457E-18
2.040000E+03	2.252984E-17	9.400070E-18
2.080000E+03	2.320446E-17	9.592124E-18
2.120000E+03	2.390368E-17	9.787623E-18
2.160000E+03	2.462412E-17	9.984765E-18
2.200000E+03	2.536620E-17	1.018333E-17
2.240000E+03	2.613038E-17	1.038308E-17
2.280000E+03	2.691710E-17	1.058376E-17
2.320000E+03	2.772684E-17	1.078513E-17
2.360000E+03	2.856010E-17	1.098692E-17
2.400000E+03	2.942216E-17	1.119067E-17
2.440000E+03	3.030906E-17	1.139434E-17
2.480000E+03	3.122140E-17	1.159763E-17
2.520000E+03	3.215984E-17	1.180027E-17
2.560000E+03	3.313037E-17	1.200388E-17
2.600000E+03	3.412875E-17	1.220630E-17
2.640000E+03	3.515587E-17	1.240726E-17
2.680000E+03	3.621837E-17	1.260843E-17
2.720000E+03	3.731193E-17	1.280762E-17
2.760000E+03	3.844368E-17	1.300656E-17
2.800000E+03	3.960934E-17	1.320303E-17
2.840000E+03	4.081662E-17	1.339882E-17
2.880000E+03	4.206127E-17	1.359168E-17
2.920000E+03	4.335170E-17	1.378346E-17
2.960000E+03	4.468377E-17	1.397190E-17
3.000000E+03	4.606663E-17	1.415889E-17
3.010000E+03	4.641848E-17	1.420474E-17
3.020000E+03	4.677975E-17	1.425231E-17
3.030000E+03	4.713674E-17	1.429743E-17
3.040000E+03	4.750329E-17	1.434427E-17
3.050000E+03	4.786556E-17	1.438863E-17
3.060000E+03	4.823755E-17	1.443472E-17
3.070000E+03	4.861235E-17	1.448043E-17
3.080000E+03	4.898998E-17	1.452576E-17
3.090000E+03	4.937050E-17	1.457070E-17
3.100000E+03	4.975395E-17	1.461526E-17
3.110000E+03	5.014037E-17	1.465941E-17
3.120000E+03	5.052982E-17	1.470318E-17
3.130000E+03	5.092966E-17	1.474866E-17
3.140000E+03	5.132533E-17	1.479163E-17
3.150000E+03	5.173158E-17	1.483631E-17
3.160000E+03	5.213369E-17	1.487846E-17
3.170000E+03	5.254655E-17	1.492232E-17
3.180000E+03	5.296283E-17	1.496578E-17
3.190000E+03	5.338256E-17	1.500881E-17
3.200000E+03	5.380582E-17	1.505143E-17
3.210000E+03	5.423266E-17	1.509362E-17
3.220000E+03	5.466313E-17	1.513538E-17
3.230000E+03	5.510506E-17	1.517885E-17
3.240000E+03	5.554304E-17	1.521974E-17
3.250000E+03	5.599268E-17	1.526234E-17
3.260000E+03	5.643840E-17	1.530235E-17
3.270000E+03	5.689601E-17	1.534406E-17
3.280000E+03	5.735773E-17	1.538531E-17
3.290000E+03	5.782362E-17	1.542612E-17
3.300000E+03	5.829376E-17	1.546646E-17
3.310000E+03	5.876820E-17	1.550633E-17
3.320000E+03	5.924704E-17	1.554574E-17
3.330000E+03	5.973032E-17	1.558466E-17
3.340000E+03	6.022642E-17	1.562526E-17
3.350000E+03	6.071889E-17	1.566322E-17
3.360000E+03	6.122442E-17	1.570284E-17
3.370000E+03	6.172639E-17	1.573981E-17
3.380000E+03	6.224167E-17	1.577842E-17
3.390000E+03	6.276197E-17	1.581653E-17
3.400000E+03	6.328737E-17	1.585411E-17
3.410000E+03	6.381796E-17	1.589117E-17
3.420000E+03	6.435381E-17	1.592770E-17
3.430000E+03	6.489502E-17	1.596369E-17
3.440000E+03	6.544167E-17	1.599912E-17
3.450000E+03	6.599384E-17	1.603400E-17
3.460000E+03	6.656052E-17	1.607046E-17
3.470000E+03	6.712407E-17	1.610419E-17
3.480000E+03	6.770242E-17	1.613949E-17
3.490000E+03	6.828677E-17	1.617419E-17
3.500000E+03	6.886808E-17	1.620613E-17
3.510000E+03	6.946463E-17	1.623961E-17
3.520000E+03	7.006747E-17	1.627245E-17
3.530000E+03	7.067668E-17	1.630465E-17
3.540000E+03	7.129236E-17	1.633620E-17
3.550000E+03	7.191460E-17	1.636707E-17
3.560000E+03	7.254351E-17	1.639727E-17
3.570000E+03	7.318871E-17	1.642891E-17
3.580000E+03	7.383130E-17	1.645770E-17
3.590000E+03	7.448084E-17	1.648577E-17
3.600000E+03	7.514715E-17	1.651523E-17
3.610000E+03	7.581097E-17	1.654180E-17
3.620000E+03	7.649190E-17	1.656972E-17
3.630000E+03	7.718030E-17	1.659685E-17
3.640000E+03	7.786632E-17	1.662104E-17
3.650000E+03	7.856993E-17	1.664653E-17
3.660000E+03	7.928132E-17	1.667116E-17
3.670000E+03	8.000061E-17	1.669492E-17
3.680000E+03	8.072788E-17	1.671779E-17
3.690000E+03	8.146324E-17	1.673974E-17
3.700000E+03	8.220680E-17	1.676075E-17
3.710000E+03	8.295864E-17	1.678081E-17
3.720000E+03	8.371886E-17	1.679987E-17
3.730000E+03	8.449817E-17	1.682004E-17
3.740000E+03	8.527552E-17	1.683705E-17
3.750000E+03	8.606156E-17	1.685301E-17
3.760000E+03	8.686718E-17	1.686997E-17
3.770000E+03	8.767091E-17	1.688371E-17
3.780000E+03	8.849456E-17	1.689840E-17
3.790000E+03	8.931637E-17	1.690982E-17
3.800000E+03	9.015842E-17	1.692211E-17
3.810000E+03	9.099864E-17	1.693107E-17
3.820000E+03	9.185943E-17	1.694084E-17
3.830000E+03	9.272975E-17	1.694929E-17
3.840000E+03	9.360968E-17	1.695640E-17
3.850000E+03	9.448779E-17	1.696005E-17
3.860000E+03	9.538709E-17	1.696436E-17
3.870000E+03	9.629622E-17	1.696721E-17
3.880000E+03	9.721523E-17	1.696856E-17
3.890000E+03	9.814422E-17	1.696838E-17
3.900000E+03	9.908320E-17	1.696663E-17
3.910000E+03	1.000323E-16	1.696326E-17
3.920000E+03	1.009914E-16	1.695822E-17
3.930000E+03	1.019607E-16	1.695149E-17
3.940000E+03	1.029403E-16	1.694303E-17
3.950000E+03	1.039301E-16	1.693277E-17
3.960000E+03	1.049301E-16	1.692068E-17
3.970000E+03	1.059403E-16	1.690671E-17
3.980000E+03	1.069609E-16	1.689081E-17
3.990000E+03	1.079917E-16	1.687294E-17
4.000000E+03	1.090330E-16	1.685305E-17
4.010000E+03	1.100843E-16	1.683109E-17
4.020000E+03	1.111461E-16	1.680701E-17
4.030000E+03	1.122179E-16	1.678075E-17
4.040000E+03	1.133001E-16	1.675228E-17
4.050000E+03	1.143924E-16	1.672154E-17
4.060000E+03	1.154948E-16	1.668847E-17
4.070000E+03	1.166073E-16	1.665303E-17
4.080000E+03	1.177297E-16	1.661516E-17
4.090000E+03	1.188620E-16	1.657481E-17
4.100000E+03	1.200041E-16	1.653193E-17
4.110000E+03	1.211558E-16	1.648645E-17
4.120000E+03	1.223171E-16	1.643835E-17
4.130000E+03	1.234878E-16	1.638755E-17
4.140000E+03	1.246678E-16	1.633400E-17
4.150000E+03	1.258569E-16	1.627767E-17
4.160000E+03	1.270550E-16	1.621848E-17
4.170000E+03	1.282617E-16	1.615639E-17
4.180000E+03	1.294771E-16	1.609136E-17
4.190000E+03	1.307007E-16	1.602332E-17
4.200000E+03	1.319176E-16	1.595046E-17
4.210000E+03	1.331571E-16	1.587629E-17
4.220000E+03	1.344040E-16	1.579899E-17
4.230000E+03	1.356432E-16	1.571676E-17
4.240000E+03	1.369044E-16	1.563306E-17
4.250000E+03	1.381721E-16	1.554609E-17
4.260000E+03	1.394308E-16	1.545411E-17
4.270000E+03	1.407107E-16	1.536052E-17
4.280000E+03	1.419805E-16	1.526187E-17
4.290000E+03	1.432552E-16	1.515983E-17
4.300000E+03	1.445505E-16	1.505607E-17
4.310000E+03	1.458339E-16	1.494720E-17
4.320000E+03	1.471211E-16	1.483489E-17
4.330000E+03	1.484114E-16	1.471913E-17
4.340000E+03	1.497043E-16	1.459990E-17
4.350000E+03	1.509995E-16	1.447720E-17
4.360000E+03	1.522961E-16	1.435102E-17
4.370000E+03	1.535940E-16	1.422139E-17
4.380000E+03	1.548921E-16	1.408828E-17
4.390000E+03	1.561902E-16	1.395176E-17
4.400000E+03	1.574707E-16	1.381033E-17
4.410000E+03	1.587665E-16	1.366703E-17
4.420000E+03	1.600431E-16	1.351893E-17
4.430000E+03	1.613340E-16	1.336901E-17
4.440000E+03	1.626042E-16	1.321445E-17
4.450000E+03	1.638701E-16	1.305677E-17
4.460000E+03	1.651484E-16	1.289740E-17
4.470000E+03	1.664034E-16	1.273369E-17
4.480000E+03	1.676519E-16	1.256711E-17
4.490000E+03	1.688931E-16	1.239779E-17
4.500000E+03	1.701081E-16	1.222456E-17
4.510000E+03	1.713320E-16	1.205014E-17
4.520000E+03	1.725460E-16	1.187340E-17
4.530000E+03	1.737312E-16	1.169326E-17
4.540000E+03	1.749231E-16	1.151240E-17
4.550000E+03	1.760843E-16	1.132858E-17
4.560000E+03	1.772321E-16	1.114325E-17
4.570000E+03	1.783657E-16	1.095664E-17
4.580000E+03	1.794841E-16	1.076903E-17
4.590000E+03	1.805867E-16	1.058069E-17
4.600000E+03	1.816723E-16	1.039191E-17
4.610000E+03	1.827402E-16	1.020304E-17
4.620000E+03	1.837705E-16	1.001339E-17
4.630000E+03	1.848002E-16	9.825430E-18
4.640000E+03	1.857904E-16	9.637511E-18
4.650000E+03	1.867593E-16	9.451106E-18
4.660000E+03	1.877252E-16	9.267621E-18
4.670000E+03	1.886487E-16	9.085619E-18
4.680000E+03	1.895291E-16	8.905688E-18
4.690000E+03	1.904041E-16	8.730205E-18
4.700000E+03	1.912535E-16	8.558816E-18
4.710000E+03	1.920570E-16	8.391265E-18
4.720000E+03	1.928530E-16	8.229898E-18
4.730000E+03	1.936014E-16	8.073667E-18
4.740000E+03	1.943214E-16	7.924092E-18
4.750000E+03	1.950119E-16	7.781826E-18
4.760000E+03	1.956726E-16	7.647553E-18
4.770000E+03	1.963026E-16	7.521935E-18
4.780000E+03	1.968816E-16	7.404879E-18
4.790000E+03	1.974486E-16	7.298521E-18
4.800000E+03	1.979635E-16	7.201974E-18
4.810000E+03	1.984658E-16	7.117242E-18
4.820000E+03	1.989150E-16	7.043366E-18
4.830000E+03	1.993307E-16	6.981401E-18
4.840000E+03	1.996929E-16	6.930484E-18
4.850000E+03	2.000412E-16	6.891593E-18
4.860000E+03	2.003555E-16	6.863536E-18
4.870000E+03	2.006159E-16	6.845074E-18
4.880000E+03	2.008425E-16	6.836266E-18
4.890000E+03	2.010549E-16	6.837106E-18
4.900000E+03	2.012137E-16	6.845529E-18
4.910000E+03	2.013188E-16	6.860787E-18
4.920000E+03	2.014103E-16	6.883484E-18
4.930000E+03	2.014684E-16	6.912177E-18
4.940000E+03	2.014735E-16	6.945431E-18
4.950000E+03	2.014456E-16	6.983177E-18
4.960000E+03	2.014049E-16	7.025393E-18
4.970000E+03	2.013122E-16	7.070009E-18
4.980000E+03	2.011678E-16	7.116358E-18
4.990000E+03	2.010114E-16	7.165204E-18
5.000000E+03	2.008238E-16	7.215274E-18
5.010000E+03	2.005859E-16	7.265316E-18
5.020000E+03	2.003176E-16	7.315524E-18
5.030000E+03	2.000390E-16	7.366162E-18
5.040000E+03	1.997116E-16	7.415374E-18
5.050000E+03	1.993360E-16	7.462766E-18
5.060000E+03	1.989513E-16	7.509442E-18
5.070000E+03	1.985391E-16	7.554382E-18
5.080000E+03	1.980804E-16	7.596577E-18
5.090000E+03	1.975951E-16	7.636517E-18
5.100000E+03	1.971031E-16	7.674753E-18
5.110000E+03	1.965665E-16	7.709623E-18
5.120000E+03	1.959863E-16	7.740979E-18
5.130000E+03	1.954012E-16	7.770207E-18
5.140000E+03	1.947925E-16	7.796462E-18
5.150000E+03	1.941423E-16	7.818935E-18
5.160000E+03	1.934703E-16	7.838337E-18
5.170000E+03	1.927769E-16	7.854643E-18
5.180000E+03	1.920628E-16	7.867859E-18
5.190000E+03	1.913289E-16	7.878006E-18
5.200000E+03	1.905757E-16	7.885122E-18
5.210000E+03	1.897856E-16	7.888502E-18
5.220000E+03	1.889959E-16	7.889730E-18
5.230000E+03	1.881711E-16	7.887382E-18
5.240000E+03	1.873299E-16	7.882309E-18
5.250000E+03	1.864731E-16	7.874623E-18
5.260000E+03	1.856014E-16	7.864443E-18
5.270000E+03	1.847155E-16	7.851904E-18
5.280000E+03	1.837984E-16	7.836390E-18
5.290000E+03	1.828861E-16	7.819557E-18
5.300000E+03	1.819443E-16	7.800061E-18
5.310000E+03	1.809913E-16	7.778818E-18
5.320000E+03	1.800276E-16	7.755989E-18
5.330000E+03	1.790540E-16	7.731756E-18
5.340000E+03	1.780543E-16	7.705557E-18
5.350000E+03	1.770630E-16	7.679039E-18
5.360000E+03	1.760470E-16	7.650922E-18
5.370000E+03	1.750406E-16	7.622849E-18
5.380000E+03	1.740112E-16	7.593551E-18
5.390000E+03	1.729759E-16	7.563930E-18
5.400000E+03	1.719357E-16	7.534174E-18
5.410000E+03	1.708908E-16	7.504452E-18
5.420000E+03	1.698261E-16	7.474237E-18
5.430000E+03	1.687743E-16	7.445111E-18
5.440000E+03	1.677039E-16	7.415821E-18
5.450000E+03	1.666318E-16	7.387237E-18
5.460000E+03	1.655584E-16	7.359406E-18
5.470000E+03	1.644848E-16	7.332228E-18
5.480000E+03	1.634121E-16	7.305584E-18
5.490000E+03	1.623412E-16	7.279361E-18
5.500000E+03	1.612583E-16	7.252769E-18
5.510000E+03	1.601947E-16	7.227065E-18
5.520000E+03	1.591212E-16	7.200780E-18
5.530000E+03	1.580540E-16	7.174492E-18
5.540000E+03	1.569940E-16	7.148103E-18
5.550000E+03	1.559423E-16	7.121521E-18
5.560000E+03	1.548998E-16	7.094656E-18
5.570000E+03	1.538672E-16	7.067420E-18
5.580000E+03	1.528455E-16	7.039738E-18
5.590000E+03	1.518213E-16	7.010878E-18
5.600000E+03	1.508098E-16	6.981431E-18
5.610000E+03	1.498259E-16	6.951990E-18
5.620000E+03	1.488422E-16	6.921192E-18
5.630000E+03	1.478736E-16	6.889636E-18
5.640000E+03	1.469207E-16	6.857272E-18
5.650000E+03	1.459707E-16	6.823427E-18
5.660000E+03	1.450517E-16	6.789341E-18
5.670000E+03	1.441506E-16	6.754340E-18
5.680000E+03	1.432545E-16	6.717762E-18
5.690000E+03	1.423777E-16	6.680224E-18
5.700000E+03	1.415209E-16	6.641705E-18
5.710000E+03	1.406978E-16	6.602804E-18
5.720000E+03	1.398826E-16	6.562275E-18
5.730000E+03	1.390760E-16	6.520110E-18
5.740000E+03	1.383048E-16	6.477533E-18
5.750000E+03	1.375562E-16	6.433921E-18
5.760000E+03	1.368182E-16	6.388680E-18
5.770000E+03	1.361169E-16	6.343007E-18
5.780000E+03	1.354272E-16	6.295715E-18
5.790000E+03	1.347750E-16	6.247989E-18
5.800000E+03	1.341355E-16	6.198660E-18
5.810000E+03	1.335219E-16	6.148332E-18
5.820000E+03	1.329347E-16	6.097007E-18
5.830000E+03	1.323743E-16	6.044702E-18
5.840000E+03	1.318287E-16	5.990861E-18
5.850000E+03	1.313233E-16	5.936625E-18
5.860000E+03	1.308460E-16	5.881446E-18
5.870000E+03	1.303851E-16	5.824786E-18
5.880000E+03	1.299533E-16	5.767224E-18
5.890000E+03	1.295632E-16	5.709300E-18
5.900000E+03	1.291909E-16	5.649968E-18
5.910000E+03	1.288492E-16	5.589779E-18
5.920000E+03	1.285382E-16	5.528750E-18
5.930000E+03	1.282586E-16	5.466904E-18
5.940000E+03	1.280110E-16	5.404265E-18
5.950000E+03	1.277954E-16	5.340844E-18
5.960000E+03	1.276008E-16	5.276180E-18
5.970000E+03	1.274513E-16	5.211288E-18
5.980000E+03	1.273356E-16	5.145694E-18
5.990000E+03	1.272422E-16	5.078957E-18
6.000000E+03	1.271836E-16	5.011590E-18
6.010000E+03	1.271722E-16	4.944096E-18
6.020000E+03	1.271848E-16	4.875577E-18
6.030000E+03	1.272337E-16	4.806551E-18
6.040000E+03	1.273197E-16	4.737063E-18
6.050000E+03	1.274431E-16	4.667162E-18
6.060000E+03	1.276049E-16	4.596917E-18
6.070000E+03	1.278054E-16	4.526391E-18
6.080000E+03	1.280454E-16	4.455659E-18
6.090000E+03	1.283135E-16	4.384400E-18
6.100000E+03	1.286345E-16	4.313536E-18
6.110000E+03	1.289849E-16	4.242364E-18
6.120000E+03	1.293897E-16	4.171812E-18
6.130000E+03	1.298254E-16	4.101233E-18
6.140000E+03	1.303171E-16	4.031558E-18
6.150000E+03	1.308413E-16	3.962212E-18
6.160000E+03	1.314109E-16	3.893780E-18
6.170000E+03	1.320267E-16	3.826490E-18
6.180000E+03	1.326898E-16	3.760605E-18
6.190000E+03	1.334010E-16	3.696410E-18
6.200000E+03	1.341611E-16	3.634226E-18
6.210000E+03	1.349713E-16	3.574416E-18
6.220000E+03	1.358324E-16	3.517373E-18
6.230000E+03	1.367455E-16	3.463534E-18
6.240000E+03	1.377116E-16	3.413376E-18
6.250000E+03	1.387187E-16	3.367094E-18
6.260000E+03	1.397936E-16	3.325875E-18
6.270000E+03	1.409107E-16	3.289663E-18
6.280000E+03	1.420966E-16	3.259670E-18
6.290000E+03	1.433245E-16	3.235881E-18
6.300000E+03	1.446200E-16	3.219502E-18
6.310000E+03	1.459549E-16	3.210343E-18
6.320000E+03	1.473407E-16	3.208661E-18
6.330000E+03	1.487891E-16	3.214598E-18
6.340000E+03	1.502702E-16	3.227364E-18
6.350000E+03	1.517956E-16	3.247043E-18
6.360000E+03	1.533630E-16	3.273390E-18
6.370000E+03	1.549698E-16	3.306149E-18
6.380000E+03	1.566136E-16	3.345057E-18
6.390000E+03	1.582916E-16	3.389847E-18
6.400000E+03	1.600010E-16	3.440255E-18
6.410000E+03	1.617392E-16	3.496038E-18
6.420000E+03	1.635028E-16	3.556962E-18
6.430000E+03	1.652733E-16	3.622477E-18
6.440000E+03	1.670785E-16	3.693078E-18
6.450000E+03	1.688996E-16	3.768278E-18
6.460000E+03	1.707168E-16	3.847587E-18
6.470000E+03	1.725589E-16	3.931637E-18
6.480000E+03	1.743896E-16	4.019633E-18
6.490000E+03	1.762378E-16	4.112301E-18
6.500000E+03	1.780668E-16	4.208878E-18
6.510000E+03	1.799056E-16	4.310181E-18
6.520000E+03	1.817167E-16	4.415469E-18
6.530000E+03	1.835298E-16	4.525647E-18
6.540000E+03	1.853067E-16	4.639984E-18
6.550000E+03	1.870606E-16	4.759031E-18
6.560000E+03	1.887882E-16	4.882945E-18
6.570000E+03	1.905046E-16	5.012379E-18
6.580000E+03	1.921709E-16	5.146582E-18
6.590000E+03	1.938028E-16	5.286222E-18
6.600000E+03	1.953984E-16	5.431507E-18
6.610000E+03	1.969565E-16	5.582550E-18
6.620000E+03	1.984759E-16	5.739067E-18
6.630000E+03	1.999559E-16	5.900670E-18
6.640000E+03	2.013960E-16	6.066957E-18
6.650000E+03	2.027952E-16	6.237515E-18
6.660000E+03	2.041532E-16	6.411925E-18
6.670000E+03	2.054496E-16	6.589136E-18
6.680000E+03	2.067230E-16	6.769957E-18
6.690000E+03	2.079536E-16	6.953366E-18
6.700000E+03	2.091410E-16	7.138945E-18
6.710000E+03	2.102649E-16	7.325588E-18
6.720000E+03	2.113649E-16	7.514268E-18
6.730000E+03	2.124210E-16	7.703918E-18
6.740000E+03	2.134125E-16	7.893395E-18
6.750000E+03	2.143800E-16	8.083814E-18
6.760000E+03	2.153031E-16	8.274079E-18
6.770000E+03	2.161614E-16	8.463032E-18
6.780000E+03	2.169751E-16	8.651098E-18
6.790000E+03	2.177654E-16	8.838799E-18
6.800000E+03	2.184907E-16	9.024141E-18
6.810000E+03	2.191930E-16	9.208533E-18
6.820000E+03	2.198305E-16	9.389926E-18
6.830000E+03	2.204247E-16	9.568913E-18
6.840000E+03	2.209966E-16	9.746146E-18
6.850000E+03	2.215048E-16	9.919527E-18
6.860000E+03	2.219703E-16	1.008971E-17
6.870000E+03	2.223939E-16	1.025648E-17
6.880000E+03	2.227971E-16	1.042059E-17
6.890000E+03	2.231379E-16	1.057985E-17
6.900000E+03	2.234381E-16	1.073505E-17
6.910000E+03	2.236980E-16	1.088598E-17
6.920000E+03	2.239185E-16	1.103247E-17
6.930000E+03	2.240998E-16	1.117435E-17
6.940000E+03	2.242427E-16	1.131146E-17
6.950000E+03	2.243480E-16	1.144364E-17
6.960000E+03	2.244160E-16	1.157076E-17
6.970000E+03	2.244475E-16	1.169268E-17
6.980000E+03	2.244215E-16	1.180814E-17
6.990000E+03	2.243819E-16	1.191930E-17
7.000000E+03	2.243079E-16	1.202494E-17
7.010000E+03	2.242000E-16	1.212494E-17
7.020000E+03	2.240591E-16	1.221922E-17
7.030000E+03	2.238642E-16	1.230654E-17
7.040000E+03	2.236593E-16	1.238917E-17
7.050000E+03	2.234235E-16	1.246588E-17
7.060000E+03	2.231358E-16	1.253541E-17
7.070000E+03	2.228403E-16	1.260012E-17
7.080000E+03	2.224945E-16	1.265755E-17
7.090000E+03	2.221424E-16	1.271012E-17
7.100000E+03	2.217415E-16	1.275533E-17
7.110000E+03	2.213357E-16	1.279565E-17
7.120000E+03	2.208826E-16	1.282858E-17
7.130000E+03	2.204046E-16	1.285537E-17
7.140000E+03	2.199237E-16	1.287725E-17
7.150000E+03	2.193979E-16	1.289175E-17
7.160000E+03	2.188493E-16	1.290012E-17
7.170000E+03	2.182787E-16	1.290238E-17
7.180000E+03	2.176866E-16	1.289855E-17
7.190000E+03	2.170952E-16	1.288994E-17
7.200000E+03	2.164626E-16	1.287404E-17
7.210000E+03	2.158107E-16	1.285217E-17
7.220000E+03	2.151404E-16	1.282436E-17
7.230000E+03	2.144519E-16	1.279065E-17
7.240000E+03	2.137464E-16	1.275112E-17
7.250000E+03	2.130243E-16	1.270580E-17
7.260000E+03	2.122654E-16	1.265351E-17
7.270000E+03	2.115122E-16	1.259681E-17
7.280000E+03	2.107441E-16	1.253452E-17
7.290000E+03	2.099621E-16	1.246670E-17
7.300000E+03	2.091461E-16	1.239222E-17
7.310000E+03	2.083377E-16	1.231358E-17
7.320000E+03	2.075170E-16	1.222965E-17
7.330000E+03	2.066642E-16	1.213930E-17
7.340000E+03	2.058207E-16	1.204503E-17
7.350000E+03	2.049463E-16	1.194453E-17
7.360000E+03	2.040819E-16	1.184026E-17
7.370000E+03	2.031879E-16	1.172997E-17
7.380000E+03	2.022848E-16	1.161493E-17
7.390000E+03	2.013932E-16	1.149639E-17
7.400000E+03	2.004735E-16	1.137214E-17
7.410000E+03	1.995462E-16	1.124344E-17
7.420000E+03	1.986119E-16	1.111041E-17
7.430000E+03	1.976707E-16	1.097314E-17
7.440000E+03	1.967233E-16	1.083175E-17
7.450000E+03	1.957698E-16	1.068634E-17
7.460000E+03	1.948109E-16	1.053705E-17
7.470000E+03	1.938468E-16	1.038398E-17
7.480000E+03	1.928780E-16	1.022726E-17
7.490000E+03	1.919046E-16	1.006701E-17
7.500000E+03	1.909271E-16	9.903372E-18
7.510000E+03	1.899269E-16	9.735506E-18
7.520000E+03	1.889422E-16	9.565503E-18
7.530000E+03	1.879543E-16	9.392520E-18
7.540000E+03	1.869447E-16	9.215789E-18
7.550000E+03	1.859512E-16	9.037329E-18
7.560000E+03	1.849368E-16	8.855473E-18
7.570000E+03	1.839204E-16	8.671312E-18
7.580000E+03	1.829204E-16	8.485876E-18
7.590000E+03	1.819005E-16	8.297643E-18
7.600000E+03	1.808792E-16	8.107677E-18
7.610000E+03	1.798567E-16	7.916194E-18
7.620000E+03	1.788332E-16	7.723419E-18
7.630000E+03	1.778268E-16	7.530355E-18
7.640000E+03	1.768017E-16	7.335727E-18
7.650000E+03	1.757583E-16	7.139872E-18
7.660000E+03	1.747325E-16	6.944563E-18
7.670000E+03	1.737063E-16	6.749387E-18
7.680000E+03	1.726799E-16	6.554706E-18
7.690000E+03	1.716535E-16	6.360918E-18
7.700000E+03	1.706101E-16	6.167844E-18
7.710000E+03	1.695840E-16	5.977219E-18
7.720000E+03	1.685412E-16	5.788356E-18
7.730000E+03	1.675160E-16	5.603030E-18
7.740000E+03	1.664742E-16	5.420730E-18
7.750000E+03	1.654500E-16	5.243305E-18
7.760000E+03	1.644097E-16	5.070461E-18
