#wls	flux	fluxerr
1.600000E+03	1.225249E-17	5.089851E-18
1.640000E+03	1.261532E-17	5.204274E-18
1.680000E+03	1.298992E-17	5.320810E-18
1.720000E+03	1.337899E-17	5.440394E-18
1.760000E+03	1.377827E-17	5.561109E-18
1.800000E+03	1.419535E-17	5.685845E-18
1.840000E+03	1.462340E-17	5.811644E-18
1.880000E+03	1.506784E-17	5.940475E-18
1.920000E+03	1.552932E-17	6.072360E-18
1.960000E+03	1.600572E-17	6.206230E-18
2.000000E+03	1.649749E-17	6.342032E-18
2.040000E+03	1.700806E-17	6.480835E-18
2.080000E+03	1.753514E-17	6.621492E-18
2.120000E+03	1.808237E-17	6.765105E-18
2.160000E+03	1.864737E-17	6.910482E-18
2.200000E+03	1.923070E-17	7.057544E-18
2.240000E+03	1.983639E-17	7.207447E-18
2.280000E+03	2.046535E-17	7.360173E-18
2.320000E+03	2.111500E-17	7.514424E-18
2.360000E+03	2.178605E-17	7.670106E-18
2.400000E+03	2.248310E-17	7.828450E-18
2.440000E+03	2.320731E-17	7.989424E-18
2.480000E+03	2.395585E-17	8.151619E-18
2.520000E+03	2.473384E-17	8.316327E-18
2.560000E+03	2.553838E-17	8.482080E-18
2.600000E+03	2.637496E-17	8.650211E-18
2.640000E+03	2.724058E-17	8.819192E-18
2.680000E+03	2.814119E-17	8.990395E-18
2.720000E+03	2.907369E-17	9.162237E-18
2.760000E+03	3.004449E-17	9.336116E-18
2.800000E+03	3.105045E-17	9.510393E-18
2.840000E+03	3.209846E-17	9.686495E-18
2.880000E+03	3.319074E-17	9.864322E-18
2.920000E+03	3.432409E-17	1.004213E-17
2.960000E+03	3.550623E-17	1.022137E-17
3.000000E+03	3.673391E-17	1.040023E-17
3.010000E+03	3.704820E-17	1.044486E-17
3.020000E+03	3.736552E-17	1.048944E-17
3.030000E+03	3.768589E-17	1.053398E-17
3.040000E+03	3.800936E-17	1.057847E-17
3.050000E+03	3.834212E-17	1.062460E-17
3.060000E+03	3.867194E-17	1.066898E-17
3.070000E+03	3.900497E-17	1.071329E-17
3.080000E+03	3.934755E-17	1.075925E-17
3.090000E+03	3.968717E-17	1.080343E-17
3.100000E+03	4.003013E-17	1.084752E-17
3.110000E+03	4.038290E-17	1.089327E-17
3.120000E+03	4.073269E-17	1.093720E-17
3.130000E+03	4.109247E-17	1.098279E-17
3.140000E+03	4.144926E-17	1.102653E-17
3.150000E+03	4.181623E-17	1.107193E-17
3.160000E+03	4.218688E-17	1.111722E-17
3.170000E+03	4.255452E-17	1.116064E-17
3.180000E+03	4.293262E-17	1.120571E-17
3.190000E+03	4.331454E-17	1.125067E-17
3.200000E+03	4.369343E-17	1.129371E-17
3.210000E+03	4.408307E-17	1.133840E-17
3.220000E+03	4.447667E-17	1.138295E-17
3.230000E+03	4.487428E-17	1.142736E-17
3.240000E+03	4.526881E-17	1.146981E-17
3.250000E+03	4.567450E-17	1.151389E-17
3.260000E+03	4.608435E-17	1.155781E-17
3.270000E+03	4.649838E-17	1.160155E-17
3.280000E+03	4.691666E-17	1.164510E-17
3.290000E+03	4.733922E-17	1.168847E-17
3.300000E+03	4.776612E-17	1.173162E-17
3.310000E+03	4.819742E-17	1.177457E-17
3.320000E+03	4.863315E-17	1.181730E-17
3.330000E+03	4.907337E-17	1.185979E-17
3.340000E+03	4.951812E-17	1.190205E-17
3.350000E+03	4.996746E-17	1.194405E-17
3.360000E+03	5.042144E-17	1.198579E-17
3.370000E+03	5.088798E-17	1.202912E-17
3.380000E+03	5.135144E-17	1.207032E-17
3.390000E+03	5.181968E-17	1.211121E-17
3.400000E+03	5.229275E-17	1.215180E-17
3.410000E+03	5.277885E-17	1.219395E-17
3.420000E+03	5.326181E-17	1.223390E-17
3.430000E+03	5.374975E-17	1.227350E-17
3.440000E+03	5.424271E-17	1.231273E-17
3.450000E+03	5.474916E-17	1.235350E-17
3.460000E+03	5.525241E-17	1.239199E-17
3.470000E+03	5.576937E-17	1.243198E-17
3.480000E+03	5.628308E-17	1.246966E-17
3.490000E+03	5.680207E-17	1.250691E-17
3.500000E+03	5.733512E-17	1.254563E-17
3.510000E+03	5.786485E-17	1.258197E-17
3.520000E+03	5.840888E-17	1.261976E-17
3.530000E+03	5.894955E-17	1.265514E-17
3.540000E+03	5.950475E-17	1.269193E-17
3.550000E+03	6.006563E-17	1.272820E-17
3.560000E+03	6.062307E-17	1.276199E-17
3.570000E+03	6.119538E-17	1.279715E-17
3.580000E+03	6.176416E-17	1.282979E-17
3.590000E+03	6.234807E-17	1.286377E-17
3.600000E+03	6.293787E-17	1.289713E-17
3.610000E+03	6.352402E-17	1.292789E-17
3.620000E+03	6.412563E-17	1.295994E-17
3.630000E+03	6.472351E-17	1.298935E-17
3.640000E+03	6.533709E-17	1.302000E-17
3.650000E+03	6.595672E-17	1.304992E-17
3.660000E+03	6.658244E-17	1.307909E-17
3.670000E+03	6.720422E-17	1.310552E-17
3.680000E+03	6.784213E-17	1.313310E-17
3.690000E+03	6.848622E-17	1.315986E-17
3.700000E+03	6.913649E-17	1.318576E-17
3.710000E+03	6.978257E-17	1.320882E-17
3.720000E+03	7.044519E-17	1.323294E-17
3.730000E+03	7.111406E-17	1.325612E-17
3.740000E+03	7.178917E-17	1.327835E-17
3.750000E+03	7.247055E-17	1.329958E-17
3.760000E+03	7.314735E-17	1.331783E-17
3.770000E+03	7.384117E-17	1.333700E-17
3.780000E+03	7.454125E-17	1.335510E-17
3.790000E+03	7.524760E-17	1.337209E-17
3.800000E+03	7.596020E-17	1.338794E-17
3.810000E+03	7.666775E-17	1.340065E-17
3.820000E+03	7.739273E-17	1.341414E-17
3.830000E+03	7.812392E-17	1.342640E-17
3.840000E+03	7.886129E-17	1.343739E-17
3.850000E+03	7.960482E-17	1.344709E-17
3.860000E+03	8.035448E-17	1.345546E-17
3.870000E+03	8.111023E-17	1.346247E-17
3.880000E+03	8.186005E-17	1.346612E-17
3.890000E+03	8.262776E-17	1.347030E-17
3.900000E+03	8.340141E-17	1.347302E-17
3.910000E+03	8.418095E-17	1.347424E-17
3.920000E+03	8.496633E-17	1.347393E-17
3.930000E+03	8.575749E-17	1.347205E-17
3.940000E+03	8.655434E-17	1.346856E-17
3.950000E+03	8.734414E-17	1.346148E-17
3.960000E+03	8.815202E-17	1.345469E-17
3.970000E+03	8.896536E-17	1.344618E-17
3.980000E+03	8.978403E-17	1.343593E-17
3.990000E+03	9.060796E-17	1.342389E-17
4.000000E+03	9.143701E-17	1.341004E-17
4.010000E+03	9.225780E-17	1.339241E-17
4.020000E+03	9.309665E-17	1.337483E-17
4.030000E+03	9.394027E-17	1.335532E-17
4.040000E+03	9.478851E-17	1.333386E-17
4.050000E+03	9.564123E-17	1.331041E-17
4.060000E+03	9.648447E-17	1.328303E-17
4.070000E+03	9.734557E-17	1.325551E-17
4.080000E+03	9.821067E-17	1.322590E-17
4.090000E+03	9.907959E-17	1.319416E-17
4.100000E+03	9.993791E-17	1.315840E-17
4.110000E+03	1.008138E-16	1.312234E-17
4.120000E+03	1.016930E-16	1.308407E-17
4.130000E+03	1.025606E-16	1.304171E-17
4.140000E+03	1.034454E-16	1.299894E-17
4.150000E+03	1.043329E-16	1.295388E-17
4.160000E+03	1.052079E-16	1.290467E-17
4.170000E+03	1.060998E-16	1.285497E-17
4.180000E+03	1.069934E-16	1.280290E-17
4.190000E+03	1.078736E-16	1.274665E-17
4.200000E+03	1.087701E-16	1.268981E-17
4.210000E+03	1.096522E-16	1.262877E-17
4.220000E+03	1.105505E-16	1.256709E-17
4.230000E+03	1.114335E-16	1.250121E-17
4.240000E+03	1.123324E-16	1.243466E-17
4.250000E+03	1.132152E-16	1.236391E-17
4.260000E+03	1.141133E-16	1.229244E-17
4.270000E+03	1.149945E-16	1.221679E-17
4.280000E+03	1.158905E-16	1.214040E-17
4.290000E+03	1.167687E-16	1.205986E-17
4.300000E+03	1.176449E-16	1.197690E-17
4.310000E+03	1.185353E-16	1.189318E-17
4.320000E+03	1.194063E-16	1.180538E-17
4.330000E+03	1.202743E-16	1.171521E-17
4.340000E+03	1.211387E-16	1.162266E-17
4.350000E+03	1.220161E-16	1.152939E-17
4.360000E+03	1.228722E-16	1.143219E-17
4.370000E+03	1.237237E-16	1.133274E-17
4.380000E+03	1.245699E-16	1.123105E-17
4.390000E+03	1.254106E-16	1.112718E-17
4.400000E+03	1.262452E-16	1.102118E-17
4.410000E+03	1.270734E-16	1.091311E-17
4.420000E+03	1.278946E-16	1.080302E-17
4.430000E+03	1.287085E-16	1.069099E-17
4.440000E+03	1.295147E-16	1.057709E-17
4.450000E+03	1.303125E-16	1.046139E-17
4.460000E+03	1.311017E-16	1.034399E-17
4.470000E+03	1.318817E-16	1.022499E-17
4.480000E+03	1.326519E-16	1.010447E-17
4.490000E+03	1.334122E-16	9.982564E-18
4.500000E+03	1.341435E-16	9.858023E-18
4.510000E+03	1.348819E-16	9.733690E-18
4.520000E+03	1.356089E-16	9.608340E-18
4.530000E+03	1.363238E-16	9.482107E-18
4.540000E+03	1.370076E-16	9.353884E-18
4.550000E+03	1.376970E-16	9.226380E-18
4.560000E+03	1.383542E-16	9.097248E-18
4.570000E+03	1.390162E-16	8.969161E-18
4.580000E+03	1.396449E-16	8.839849E-18
4.590000E+03	1.402776E-16	8.711933E-18
4.600000E+03	1.408759E-16	8.583248E-18
4.610000E+03	1.414584E-16	8.455217E-18
4.620000E+03	1.420437E-16	8.329193E-18
4.630000E+03	1.425932E-16	8.203158E-18
4.640000E+03	1.431254E-16	8.078500E-18
4.650000E+03	1.436400E-16	7.955487E-18
4.660000E+03	1.441561E-16	7.835448E-18
4.670000E+03	1.446342E-16	7.716537E-18
4.680000E+03	1.450937E-16	7.600125E-18
4.690000E+03	1.455340E-16	7.486499E-18
4.700000E+03	1.459546E-16	7.375965E-18
4.710000E+03	1.463553E-16	7.268838E-18
4.720000E+03	1.467359E-16	7.165428E-18
4.730000E+03	1.470958E-16	7.066043E-18
4.740000E+03	1.474151E-16	6.970065E-18
4.750000E+03	1.477332E-16	6.879687E-18
4.760000E+03	1.480297E-16	6.794248E-18
4.770000E+03	1.483046E-16	6.714044E-18
4.780000E+03	1.485379E-16	6.638465E-18
4.790000E+03	1.487689E-16	6.569555E-18
4.800000E+03	1.489576E-16	6.505776E-18
4.810000E+03	1.491438E-16	6.449092E-18
4.820000E+03	1.492875E-16	6.397828E-18
4.830000E+03	1.494284E-16	6.353549E-18
4.840000E+03	1.495268E-16	6.314362E-18
4.850000E+03	1.496027E-16	6.280888E-18
4.860000E+03	1.496760E-16	6.253712E-18
4.870000E+03	1.497073E-16	6.230899E-18
4.880000E+03	1.497163E-16	6.212988E-18
4.890000E+03	1.497033E-16	6.199676E-18
4.900000E+03	1.496685E-16	6.190643E-18
4.910000E+03	1.496121E-16	6.185560E-18
4.920000E+03	1.495343E-16	6.184100E-18
4.930000E+03	1.494353E-16	6.185921E-18
4.940000E+03	1.493155E-16	6.190694E-18
4.950000E+03	1.491750E-16	6.198089E-18
4.960000E+03	1.490141E-16	6.207776E-18
4.970000E+03	1.488136E-16	6.218626E-18
4.980000E+03	1.486129E-16	6.231964E-18
4.990000E+03	1.483928E-16	6.246682E-18
5.000000E+03	1.481342E-16	6.261673E-18
5.010000E+03	1.478763E-16	6.278309E-18
5.020000E+03	1.475807E-16	6.294695E-18
5.030000E+03	1.472866E-16	6.312242E-18
5.040000E+03	1.469555E-16	6.329069E-18
5.050000E+03	1.466266E-16	6.346633E-18
5.060000E+03	1.462616E-16	6.363075E-18
5.070000E+03	1.458803E-16	6.379050E-18
5.080000E+03	1.454832E-16	6.394402E-18
5.090000E+03	1.450896E-16	6.409824E-18
5.100000E+03	1.446620E-16	6.423506E-18
5.110000E+03	1.442197E-16	6.436171E-18
5.120000E+03	1.437633E-16	6.447720E-18
5.130000E+03	1.432932E-16	6.458061E-18
5.140000E+03	1.428098E-16	6.467117E-18
5.150000E+03	1.422951E-16	6.473985E-18
5.160000E+03	1.417867E-16	6.480297E-18
5.170000E+03	1.412664E-16	6.485173E-18
5.180000E+03	1.407347E-16	6.488582E-18
5.190000E+03	1.401738E-16	6.489656E-18
5.200000E+03	1.396208E-16	6.490082E-18
5.210000E+03	1.390396E-16	6.488161E-18
5.220000E+03	1.384670E-16	6.485593E-18
5.230000E+03	1.378674E-16	6.480705E-18
5.240000E+03	1.372773E-16	6.475212E-18
5.250000E+03	1.366611E-16	6.467446E-18
5.260000E+03	1.360551E-16	6.459137E-18
5.270000E+03	1.354242E-16	6.448643E-18
5.280000E+03	1.347867E-16	6.436851E-18
5.290000E+03	1.341431E-16	6.423818E-18
5.300000E+03	1.334937E-16	6.409594E-18
5.310000E+03	1.328391E-16	6.394248E-18
5.320000E+03	1.321796E-16	6.377837E-18
5.330000E+03	1.315158E-16	6.360438E-18
5.340000E+03	1.308479E-16	6.342113E-18
5.350000E+03	1.301766E-16	6.322945E-18
5.360000E+03	1.295021E-16	6.303000E-18
5.370000E+03	1.288250E-16	6.282365E-18
5.380000E+03	1.281290E-16	6.260300E-18
5.390000E+03	1.274479E-16	6.238513E-18
5.400000E+03	1.267652E-16	6.216265E-18
5.410000E+03	1.260653E-16	6.192843E-18
5.420000E+03	1.253812E-16	6.169928E-18
5.430000E+03	1.246807E-16	6.146000E-18
5.440000E+03	1.239965E-16	6.122729E-18
5.450000E+03	1.232970E-16	6.098613E-18
5.460000E+03	1.226144E-16	6.075283E-18
5.470000E+03	1.219175E-16	6.051162E-18
5.480000E+03	1.212227E-16	6.026986E-18
5.490000E+03	1.205307E-16	6.002707E-18
5.500000E+03	1.198574E-16	5.979056E-18
5.510000E+03	1.191725E-16	5.954451E-18
5.520000E+03	1.184920E-16	5.929619E-18
5.530000E+03	1.178165E-16	5.904526E-18
5.540000E+03	1.171465E-16	5.879137E-18
5.550000E+03	1.164826E-16	5.853412E-18
5.560000E+03	1.158252E-16	5.827324E-18
5.570000E+03	1.151600E-16	5.800093E-18
5.580000E+03	1.145173E-16	5.773192E-18
5.590000E+03	1.138826E-16	5.745843E-18
5.600000E+03	1.132565E-16	5.718022E-18
5.610000E+03	1.126248E-16	5.688979E-18
5.620000E+03	1.120170E-16	5.660156E-18
5.630000E+03	1.114191E-16	5.630807E-18
5.640000E+03	1.108172E-16	5.600194E-18
5.650000E+03	1.102404E-16	5.569749E-18
5.660000E+03	1.096605E-16	5.538023E-18
5.670000E+03	1.090924E-16	5.505731E-18
5.680000E+03	1.085502E-16	5.473563E-18
5.690000E+03	1.080064E-16	5.440110E-18
5.700000E+03	1.074755E-16	5.406070E-18
5.710000E+03	1.069714E-16	5.372127E-18
5.720000E+03	1.064670E-16	5.336902E-18
5.730000E+03	1.059765E-16	5.301084E-18
5.740000E+03	1.055001E-16	5.264675E-18
5.750000E+03	1.050384E-16	5.227683E-18
5.760000E+03	1.045915E-16	5.190107E-18
5.770000E+03	1.041598E-16	5.151946E-18
5.780000E+03	1.037435E-16	5.113214E-18
5.790000E+03	1.033431E-16	5.073912E-18
5.800000E+03	1.029589E-16	5.034051E-18
5.810000E+03	1.025910E-16	4.993636E-18
5.820000E+03	1.022399E-16	4.952675E-18
5.830000E+03	1.019058E-16	4.911177E-18
5.840000E+03	1.015761E-16	4.868536E-18
5.850000E+03	1.012770E-16	4.826004E-18
5.860000E+03	1.009957E-16	4.782967E-18
5.870000E+03	1.007198E-16	4.738834E-18
5.880000E+03	1.004753E-16	4.694837E-18
5.890000E+03	1.002368E-16	4.649781E-18
5.900000E+03	1.000302E-16	4.604874E-18
5.910000E+03	9.983020E-17	4.558953E-18
5.920000E+03	9.966266E-17	4.513204E-18
5.930000E+03	9.950230E-17	4.466482E-18
5.940000E+03	9.937499E-17	4.419960E-18
5.950000E+03	9.925559E-17	4.372521E-18
5.960000E+03	9.915696E-17	4.324752E-18
5.970000E+03	9.909237E-17	4.277237E-18
5.980000E+03	9.903650E-17	4.228889E-18
5.990000E+03	9.900248E-17	4.180296E-18
6.000000E+03	9.899062E-17	4.131488E-18
6.010000E+03	9.900125E-17	4.082498E-18
6.020000E+03	9.903471E-17	4.033365E-18
6.030000E+03	9.910398E-17	3.984636E-18
6.040000E+03	9.918410E-17	3.935333E-18
6.050000E+03	9.928816E-17	3.886022E-18
6.060000E+03	9.941639E-17	3.836753E-18
6.070000E+03	9.956935E-17	3.787592E-18
6.080000E+03	9.973448E-17	3.738121E-18
6.090000E+03	9.993787E-17	3.689383E-18
6.100000E+03	1.001670E-16	3.640966E-18
6.110000E+03	1.004225E-16	3.592968E-18
6.120000E+03	1.007046E-16	3.545482E-18
6.130000E+03	1.010139E-16	3.498623E-18
6.140000E+03	1.013378E-16	3.452064E-18
6.150000E+03	1.017028E-16	3.406834E-18
6.160000E+03	1.020963E-16	3.362627E-18
6.170000E+03	1.025058E-16	3.319180E-18
6.180000E+03	1.029580E-16	3.277524E-18
6.190000E+03	1.034270E-16	3.237003E-18
6.200000E+03	1.039399E-16	3.198665E-18
6.210000E+03	1.044839E-16	3.162309E-18
6.220000E+03	1.050463E-16	3.127783E-18
6.230000E+03	1.056544E-16	3.096149E-18
6.240000E+03	1.062815E-16	3.066884E-18
6.250000E+03	1.069417E-16	3.040680E-18
6.260000E+03	1.076493E-16	3.018229E-18
6.270000E+03	1.083769E-16	2.999066E-18
6.280000E+03	1.091385E-16	2.983903E-18
6.290000E+03	1.099476E-16	2.973428E-18
6.300000E+03	1.107757E-16	2.967171E-18
6.310000E+03	1.116355E-16	2.965590E-18
6.320000E+03	1.125403E-16	2.969024E-18
6.330000E+03	1.134601E-16	2.976666E-18
6.340000E+03	1.144081E-16	2.988827E-18
6.350000E+03	1.153827E-16	3.005436E-18
6.360000E+03	1.163826E-16	3.026411E-18
6.370000E+03	1.174065E-16	3.051666E-18
6.380000E+03	1.184528E-16	3.081109E-18
6.390000E+03	1.195354E-16	3.115046E-18
6.400000E+03	1.206222E-16	3.152590E-18
6.410000E+03	1.217267E-16	3.194040E-18
6.420000E+03	1.228474E-16	3.239308E-18
6.430000E+03	1.239823E-16	3.288303E-18
6.440000E+03	1.251139E-16	3.340519E-18
6.450000E+03	1.262721E-16	3.396727E-18
6.460000E+03	1.274391E-16	3.456437E-18
6.470000E+03	1.286130E-16	3.519587E-18
6.480000E+03	1.297920E-16	3.586125E-18
6.490000E+03	1.309739E-16	3.656006E-18
6.500000E+03	1.321565E-16	3.729188E-18
6.510000E+03	1.333208E-16	3.805153E-18
6.520000E+03	1.344987E-16	3.884844E-18
6.530000E+03	1.356709E-16	3.967764E-18
6.540000E+03	1.368353E-16	4.053900E-18
6.550000E+03	1.379720E-16	4.142713E-18
6.560000E+03	1.391141E-16	4.235249E-18
6.570000E+03	1.402424E-16	4.331003E-18
6.580000E+03	1.413367E-16	4.429415E-18
6.590000E+03	1.424321E-16	4.531636E-18
6.600000E+03	1.435092E-16	4.637140E-18
6.610000E+03	1.445489E-16	4.745249E-18
6.620000E+03	1.455873E-16	4.856946E-18
6.630000E+03	1.465869E-16	4.970759E-18
6.640000E+03	1.475845E-16	5.087712E-18
6.650000E+03	1.485417E-16	5.206261E-18
6.660000E+03	1.494962E-16	5.327490E-18
6.670000E+03	1.504092E-16	5.449789E-18
6.680000E+03	1.513187E-16	5.574306E-18
6.690000E+03	1.521857E-16	5.699380E-18
6.700000E+03	1.530290E-16	5.825467E-18
6.710000E+03	1.538681E-16	5.953099E-18
6.720000E+03	1.546632E-16	6.080529E-18
6.730000E+03	1.554336E-16	6.208273E-18
6.740000E+03	1.561992E-16	6.336926E-18
6.750000E+03	1.569196E-16	6.464651E-18
6.760000E+03	1.576146E-16	6.592036E-18
6.770000E+03	1.583044E-16	6.719742E-18
6.780000E+03	1.589481E-16	6.845844E-18
6.790000E+03	1.595659E-16	6.970997E-18
6.800000E+03	1.601576E-16	7.095010E-18
6.810000E+03	1.607230E-16	7.217693E-18
6.820000E+03	1.612623E-16	7.338873E-18
6.830000E+03	1.617961E-16	7.459334E-18
6.840000E+03	1.622827E-16	7.576999E-18
6.850000E+03	1.627430E-16	7.692654E-18
6.860000E+03	1.631769E-16	7.806142E-18
6.870000E+03	1.635843E-16	7.917310E-18
6.880000E+03	1.639655E-16	8.026016E-18
6.890000E+03	1.643204E-16	8.132125E-18
6.900000E+03	1.646492E-16	8.235500E-18
6.910000E+03	1.649519E-16	8.336016E-18
6.920000E+03	1.652287E-16	8.433548E-18
6.930000E+03	1.654796E-16	8.527988E-18
6.940000E+03	1.657050E-16	8.619227E-18
6.950000E+03	1.659048E-16	8.707156E-18
6.960000E+03	1.660793E-16	8.791676E-18
6.970000E+03	1.662288E-16	8.872701E-18
6.980000E+03	1.663317E-16	8.948979E-18
6.990000E+03	1.664316E-16	9.022747E-18
7.000000E+03	1.665072E-16	9.092774E-18
7.010000E+03	1.665585E-16	9.158987E-18
7.020000E+03	1.665859E-16	9.221328E-18
7.030000E+03	1.665681E-16	9.278528E-18
7.040000E+03	1.665487E-16	9.332939E-18
7.050000E+03	1.665062E-16	9.383314E-18
7.060000E+03	1.664410E-16	9.429604E-18
7.070000E+03	1.663318E-16	9.470541E-18
7.080000E+03	1.662222E-16	9.508555E-18
7.090000E+03	1.660909E-16	9.542387E-18
7.100000E+03	1.659166E-16	9.570763E-18
7.110000E+03	1.657428E-16	9.596151E-18
7.120000E+03	1.655484E-16	9.617299E-18
7.130000E+03	1.653120E-16	9.632936E-18
7.140000E+03	1.650773E-16	9.645568E-18
7.150000E+03	1.648016E-16	9.652680E-18
7.160000E+03	1.645282E-16	9.656793E-18
7.170000E+03	1.642144E-16	9.655388E-18
7.180000E+03	1.639038E-16	9.651006E-18
7.190000E+03	1.635536E-16	9.641127E-18
7.200000E+03	1.632071E-16	9.628304E-18
7.210000E+03	1.628221E-16	9.610037E-18
7.220000E+03	1.624202E-16	9.587604E-18
7.230000E+03	1.620231E-16	9.562300E-18
7.240000E+03	1.615886E-16	9.531644E-18
7.250000E+03	1.611386E-16	9.496932E-18
7.260000E+03	1.606942E-16	9.459436E-18
7.270000E+03	1.602138E-16	9.416723E-18
7.280000E+03	1.597190E-16	9.370088E-18
7.290000E+03	1.592308E-16	9.320788E-18
7.300000E+03	1.587080E-16	9.266440E-18
7.310000E+03	1.581720E-16	9.208327E-18
7.320000E+03	1.576229E-16	9.146503E-18
7.330000E+03	1.570612E-16	9.081028E-18
7.340000E+03	1.565077E-16	9.013149E-18
7.350000E+03	1.559219E-16	8.940569E-18
7.360000E+03	1.553245E-16	8.864540E-18
7.370000E+03	1.547160E-16	8.785139E-18
7.380000E+03	1.540967E-16	8.702443E-18
7.390000E+03	1.534669E-16	8.616526E-18
7.400000E+03	1.528271E-16	8.527477E-18
7.410000E+03	1.521775E-16	8.435372E-18
7.420000E+03	1.515184E-16	8.340304E-18
7.430000E+03	1.508504E-16	8.242363E-18
7.440000E+03	1.501736E-16	8.141647E-18
7.450000E+03	1.494884E-16	8.038241E-18
7.460000E+03	1.487951E-16	7.932257E-18
7.470000E+03	1.480938E-16	7.823786E-18
7.480000E+03	1.473853E-16	7.712953E-18
7.490000E+03	1.466695E-16	7.599851E-18
7.500000E+03	1.459275E-16	7.483614E-18
7.510000E+03	1.451983E-16	7.366356E-18
7.520000E+03	1.444627E-16	7.247191E-18
7.530000E+03	1.437213E-16	7.126258E-18
7.540000E+03	1.429551E-16	7.002757E-18
7.550000E+03	1.422023E-16	6.878693E-18
7.560000E+03	1.414444E-16	6.753281E-18
7.570000E+03	1.406815E-16	6.626670E-18
7.580000E+03	1.398954E-16	6.498156E-18
7.590000E+03	1.391234E-16	6.369650E-18
7.600000E+03	1.383288E-16	6.239619E-18
7.610000E+03	1.375485E-16	6.109926E-18
7.620000E+03	1.367646E-16	5.979930E-18
7.630000E+03	1.359590E-16	5.849055E-18
7.640000E+03	1.351683E-16	5.719100E-18
7.650000E+03	1.343566E-16	5.588764E-18
7.660000E+03	1.335600E-16	5.459798E-18
7.670000E+03	1.327429E-16	5.331005E-18
7.680000E+03	1.319235E-16	5.203412E-18
7.690000E+03	1.311194E-16	5.078001E-18
7.700000E+03	1.302959E-16	4.953733E-18
7.710000E+03	1.294877E-16	4.832288E-18
7.720000E+03	1.286607E-16	4.712742E-18
7.730000E+03	1.278322E-16	4.596149E-18
7.740000E+03	1.270025E-16	4.482931E-18
7.750000E+03	1.261885E-16	4.374122E-18
7.760000E+03	1.253567E-16	4.269013E-18
